# Temperatura_=_20.0
# Concentracion g/m^3_=_9000.0
# C_Vs_to_Am_M_A/Vsm_=_65563218390.804596
# pendiente_HvsI_1/m_=_3716.3
# ordenada_HvsI_A/m_=_1297.0
# frecuencia_Hz_=_135340.02985150437

Tiempo_(s)	Campo_(V.s)	Magnetizacion_(V.s)	Campo_(kA/m)	Magnetizacion_(A/m)
0.000000e+00	-6.545883e-06	-4.099307e-09	-4.772977e+01	-2.782234e+02
1.000000e-08	-6.546016e-06	-4.096841e-09	-4.773075e+01	-2.782336e+02
2.000000e-08	-6.545793e-06	-4.096653e-09	-4.772912e+01	-2.782190e+02
3.000000e-08	-6.544971e-06	-4.097590e-09	-4.772313e+01	-2.781780e+02
4.000000e-08	-6.543320e-06	-4.094321e-09	-4.771108e+01	-2.781088e+02
5.000000e-08	-6.540904e-06	-4.089949e-09	-4.769347e+01	-2.780099e+02
6.000000e-08	-6.537943e-06	-4.079801e-09	-4.767188e+01	-2.778799e+02
7.000000e-08	-6.534591e-06	-4.056275e-09	-4.764744e+01	-2.777177e+02
8.000000e-08	-6.530929e-06	-4.057538e-09	-4.762074e+01	-2.775226e+02
9.000000e-08	-6.526855e-06	-4.139645e-09	-4.759103e+01	-2.772939e+02
1.000000e-07	-6.522115e-06	-4.225867e-09	-4.755647e+01	-2.770313e+02
1.100000e-07	-6.516722e-06	-4.151682e-09	-4.751715e+01	-2.767347e+02
1.200000e-07	-6.510894e-06	-3.955419e-09	-4.747465e+01	-2.764044e+02
1.300000e-07	-6.504847e-06	-3.955106e-09	-4.743056e+01	-2.760410e+02
1.400000e-07	-6.498425e-06	-4.155141e-09	-4.738373e+01	-2.756452e+02
1.500000e-07	-6.491453e-06	-4.239151e-09	-4.733290e+01	-2.752180e+02
1.600000e-07	-6.484112e-06	-4.071269e-09	-4.727937e+01	-2.747609e+02
1.700000e-07	-6.476486e-06	-4.000347e-09	-4.722377e+01	-2.742755e+02
1.800000e-07	-6.468491e-06	-4.084920e-09	-4.716547e+01	-2.737636e+02
1.900000e-07	-6.460158e-06	-4.247257e-09	-4.710470e+01	-2.732273e+02
2.000000e-07	-6.451579e-06	-4.250280e-09	-4.704215e+01	-2.726688e+02
2.100000e-07	-6.442370e-06	-4.084364e-09	-4.697501e+01	-2.720907e+02
2.200000e-07	-6.432143e-06	-3.922634e-09	-4.690044e+01	-2.714955e+02
2.300000e-07	-6.421244e-06	-4.001471e-09	-4.682096e+01	-2.708860e+02
2.400000e-07	-6.410038e-06	-4.187095e-09	-4.673925e+01	-2.702650e+02
2.500000e-07	-6.398264e-06	-4.079238e-09	-4.665340e+01	-2.696355e+02
2.600000e-07	-6.385769e-06	-3.820623e-09	-4.656229e+01	-2.690003e+02
2.700000e-07	-6.372735e-06	-3.851507e-09	-4.646725e+01	-2.683624e+02
2.800000e-07	-6.359303e-06	-4.094337e-09	-4.636931e+01	-2.677247e+02
2.900000e-07	-6.345313e-06	-4.059616e-09	-4.626730e+01	-2.670902e+02
3.000000e-07	-6.330631e-06	-3.881242e-09	-4.616025e+01	-2.664614e+02
3.100000e-07	-6.315271e-06	-3.954727e-09	-4.604826e+01	-2.658412e+02
3.200000e-07	-6.299201e-06	-4.099687e-09	-4.593108e+01	-2.652320e+02
3.300000e-07	-6.282588e-06	-4.067130e-09	-4.580994e+01	-2.646361e+02
3.400000e-07	-6.265674e-06	-4.053942e-09	-4.568661e+01	-2.640556e+02
3.500000e-07	-6.248431e-06	-3.995204e-09	-4.556088e+01	-2.634924e+02
3.600000e-07	-6.230876e-06	-3.948852e-09	-4.543288e+01	-2.629482e+02
3.700000e-07	-6.213088e-06	-4.047142e-09	-4.530318e+01	-2.624244e+02
3.800000e-07	-6.194846e-06	-4.154437e-09	-4.517017e+01	-2.619220e+02
3.900000e-07	-6.175991e-06	-3.987747e-09	-4.503268e+01	-2.614419e+02
4.000000e-07	-6.156663e-06	-3.965198e-09	-4.489175e+01	-2.609846e+02
4.100000e-07	-6.137058e-06	-4.182663e-09	-4.474880e+01	-2.605504e+02
4.200000e-07	-6.117133e-06	-4.234562e-09	-4.460351e+01	-2.601392e+02
4.300000e-07	-6.096845e-06	-4.042580e-09	-4.445558e+01	-2.597506e+02
4.400000e-07	-6.076152e-06	-4.023639e-09	-4.430470e+01	-2.593839e+02
4.500000e-07	-6.055085e-06	-4.189719e-09	-4.415109e+01	-2.590384e+02
4.600000e-07	-6.033697e-06	-4.216655e-09	-4.399514e+01	-2.587127e+02
4.700000e-07	-6.011912e-06	-4.074676e-09	-4.383629e+01	-2.584054e+02
4.800000e-07	-5.989582e-06	-4.034911e-09	-4.367347e+01	-2.581149e+02
4.900000e-07	-5.966736e-06	-4.130404e-09	-4.350688e+01	-2.578393e+02
5.000000e-07	-5.943575e-06	-4.146055e-09	-4.333801e+01	-2.575765e+02
5.100000e-07	-5.920108e-06	-4.090570e-09	-4.316689e+01	-2.573244e+02
5.200000e-07	-5.896381e-06	-4.075853e-09	-4.299389e+01	-2.570806e+02
5.300000e-07	-5.872373e-06	-4.075193e-09	-4.281883e+01	-2.568426e+02
5.400000e-07	-5.847887e-06	-4.066347e-09	-4.264028e+01	-2.566080e+02
5.500000e-07	-5.822783e-06	-4.115632e-09	-4.245724e+01	-2.563741e+02
5.600000e-07	-5.796942e-06	-4.090777e-09	-4.226882e+01	-2.561386e+02
5.700000e-07	-5.770321e-06	-4.000408e-09	-4.207471e+01	-2.558988e+02
5.800000e-07	-5.743150e-06	-4.016834e-09	-4.187659e+01	-2.556522e+02
5.900000e-07	-5.715676e-06	-4.109098e-09	-4.167626e+01	-2.553965e+02
6.000000e-07	-5.687989e-06	-4.057361e-09	-4.147438e+01	-2.551295e+02
6.100000e-07	-5.660095e-06	-3.974130e-09	-4.127099e+01	-2.548489e+02
6.200000e-07	-5.631993e-06	-4.002096e-09	-4.106608e+01	-2.545528e+02
6.300000e-07	-5.603539e-06	-4.056057e-09	-4.085861e+01	-2.542393e+02
6.400000e-07	-5.574586e-06	-4.018054e-09	-4.064750e+01	-2.539070e+02
6.500000e-07	-5.545208e-06	-3.970568e-09	-4.043328e+01	-2.535544e+02
6.600000e-07	-5.515465e-06	-3.968470e-09	-4.021641e+01	-2.531805e+02
6.700000e-07	-5.485373e-06	-3.992218e-09	-3.999699e+01	-2.527842e+02
6.800000e-07	-5.454829e-06	-3.987813e-09	-3.977428e+01	-2.523650e+02
6.900000e-07	-5.423801e-06	-3.967317e-09	-3.954803e+01	-2.519224e+02
7.000000e-07	-5.392424e-06	-3.951950e-09	-3.931925e+01	-2.514564e+02
7.100000e-07	-5.360864e-06	-3.952481e-09	-3.908913e+01	-2.509670e+02
7.200000e-07	-5.329109e-06	-3.956757e-09	-3.885758e+01	-2.504546e+02
7.300000e-07	-5.297081e-06	-3.956458e-09	-3.862404e+01	-2.499197e+02
7.400000e-07	-5.264674e-06	-3.930194e-09	-3.838775e+01	-2.493632e+02
7.500000e-07	-5.231764e-06	-3.902532e-09	-3.814778e+01	-2.487861e+02
7.600000e-07	-5.198289e-06	-3.917781e-09	-3.790370e+01	-2.481895e+02
7.700000e-07	-5.164127e-06	-3.931562e-09	-3.765460e+01	-2.475748e+02
7.800000e-07	-5.129333e-06	-3.899003e-09	-3.740090e+01	-2.469434e+02
7.900000e-07	-5.094135e-06	-3.871490e-09	-3.714425e+01	-2.462971e+02
8.000000e-07	-5.058711e-06	-3.892746e-09	-3.688596e+01	-2.456374e+02
8.100000e-07	-5.023058e-06	-3.896634e-09	-3.662599e+01	-2.449661e+02
8.200000e-07	-4.987112e-06	-3.862440e-09	-3.636389e+01	-2.442850e+02
8.300000e-07	-4.950889e-06	-3.837709e-09	-3.609976e+01	-2.435958e+02
8.400000e-07	-4.914366e-06	-3.844428e-09	-3.583345e+01	-2.429002e+02
8.500000e-07	-4.877431e-06	-3.839683e-09	-3.556414e+01	-2.422001e+02
8.600000e-07	-4.840131e-06	-3.820787e-09	-3.529217e+01	-2.414969e+02
8.700000e-07	-4.802596e-06	-3.800854e-09	-3.501847e+01	-2.407921e+02
8.800000e-07	-4.764771e-06	-3.793956e-09	-3.474267e+01	-2.400872e+02
8.900000e-07	-4.726565e-06	-3.789590e-09	-3.446408e+01	-2.393832e+02
9.000000e-07	-4.688036e-06	-3.783750e-09	-3.418315e+01	-2.386811e+02
9.100000e-07	-4.649227e-06	-3.764442e-09	-3.390017e+01	-2.379819e+02
9.200000e-07	-4.610080e-06	-3.744570e-09	-3.361473e+01	-2.372861e+02
9.300000e-07	-4.570620e-06	-3.734953e-09	-3.332700e+01	-2.365940e+02
9.400000e-07	-4.530938e-06	-3.730752e-09	-3.303766e+01	-2.359058e+02
9.500000e-07	-4.491088e-06	-3.710458e-09	-3.274709e+01	-2.352213e+02
9.600000e-07	-4.451012e-06	-3.685240e-09	-3.245487e+01	-2.345403e+02
9.700000e-07	-4.410646e-06	-3.671557e-09	-3.216055e+01	-2.338621e+02
9.800000e-07	-4.369783e-06	-3.670185e-09	-3.186259e+01	-2.331859e+02
9.900000e-07	-4.328361e-06	-3.658777e-09	-3.156056e+01	-2.325106e+02
1.000000e-06	-4.286508e-06	-3.635247e-09	-3.125538e+01	-2.318349e+02
1.010000e-06	-4.244254e-06	-3.621199e-09	-3.094728e+01	-2.311574e+02
1.020000e-06	-4.201609e-06	-3.616269e-09	-3.063633e+01	-2.304763e+02
1.030000e-06	-4.158521e-06	-3.602481e-09	-3.032216e+01	-2.297899e+02
1.040000e-06	-4.115069e-06	-3.576951e-09	-3.000532e+01	-2.290962e+02
1.050000e-06	-4.071427e-06	-3.558084e-09	-2.968710e+01	-2.283930e+02
1.060000e-06	-4.027648e-06	-3.546348e-09	-2.936788e+01	-2.276782e+02
1.070000e-06	-3.983643e-06	-3.533307e-09	-2.904702e+01	-2.269496e+02
1.080000e-06	-3.939302e-06	-3.515845e-09	-2.872370e+01	-2.262047e+02
1.090000e-06	-3.894672e-06	-3.501867e-09	-2.839828e+01	-2.254415e+02
1.100000e-06	-3.849863e-06	-3.489738e-09	-2.807155e+01	-2.246575e+02
1.110000e-06	-3.804749e-06	-3.478831e-09	-2.774260e+01	-2.238507e+02
1.120000e-06	-3.759332e-06	-3.462590e-09	-2.741144e+01	-2.230188e+02
1.130000e-06	-3.713720e-06	-3.442809e-09	-2.707886e+01	-2.221600e+02
1.140000e-06	-3.667821e-06	-3.424112e-09	-2.674418e+01	-2.212723e+02
1.150000e-06	-3.621585e-06	-3.410596e-09	-2.640705e+01	-2.203542e+02
1.160000e-06	-3.575198e-06	-3.394590e-09	-2.606881e+01	-2.194041e+02
1.170000e-06	-3.528665e-06	-3.374577e-09	-2.572952e+01	-2.184207e+02
1.180000e-06	-3.481834e-06	-3.355251e-09	-2.538804e+01	-2.174030e+02
1.190000e-06	-3.434743e-06	-3.341823e-09	-2.504468e+01	-2.163502e+02
1.200000e-06	-3.387373e-06	-3.327952e-09	-2.469927e+01	-2.152618e+02
1.210000e-06	-3.339776e-06	-3.309675e-09	-2.435221e+01	-2.141375e+02
1.220000e-06	-3.292030e-06	-3.288707e-09	-2.400407e+01	-2.129773e+02
1.230000e-06	-3.244047e-06	-3.270143e-09	-2.365420e+01	-2.117814e+02
1.240000e-06	-3.195830e-06	-3.252524e-09	-2.330262e+01	-2.105502e+02
1.250000e-06	-3.147446e-06	-3.232079e-09	-2.294983e+01	-2.092847e+02
1.260000e-06	-3.098770e-06	-3.211336e-09	-2.259490e+01	-2.079857e+02
1.270000e-06	-3.049650e-06	-3.190595e-09	-2.223674e+01	-2.066544e+02
1.280000e-06	-3.000213e-06	-3.168521e-09	-2.187627e+01	-2.052921e+02
1.290000e-06	-2.950613e-06	-3.148298e-09	-2.151461e+01	-2.039006e+02
1.300000e-06	-2.900804e-06	-3.128584e-09	-2.115142e+01	-2.024813e+02
1.310000e-06	-2.850661e-06	-3.104300e-09	-2.078580e+01	-2.010361e+02
1.320000e-06	-2.800070e-06	-3.079992e-09	-2.041691e+01	-1.995669e+02
1.330000e-06	-2.749119e-06	-3.057276e-09	-2.004540e+01	-1.980754e+02
1.340000e-06	-2.697917e-06	-3.035420e-09	-1.967206e+01	-1.965637e+02
1.350000e-06	-2.646464e-06	-3.011530e-09	-1.929688e+01	-1.950334e+02
1.360000e-06	-2.594799e-06	-2.985463e-09	-1.892016e+01	-1.934863e+02
1.370000e-06	-2.542970e-06	-2.959325e-09	-1.854225e+01	-1.919241e+02
1.380000e-06	-2.490945e-06	-2.936196e-09	-1.816291e+01	-1.903480e+02
1.390000e-06	-2.438775e-06	-2.915402e-09	-1.778250e+01	-1.887592e+02
1.400000e-06	-2.386511e-06	-2.891671e-09	-1.740141e+01	-1.871588e+02
1.410000e-06	-2.334021e-06	-2.865681e-09	-1.701868e+01	-1.855473e+02
1.420000e-06	-2.281285e-06	-2.842037e-09	-1.663415e+01	-1.839249e+02
1.430000e-06	-2.228426e-06	-2.816984e-09	-1.624873e+01	-1.822917e+02
1.440000e-06	-2.175455e-06	-2.788215e-09	-1.586248e+01	-1.806470e+02
1.450000e-06	-2.122344e-06	-2.758632e-09	-1.547522e+01	-1.789900e+02
1.460000e-06	-2.069097e-06	-2.731131e-09	-1.508697e+01	-1.773193e+02
1.470000e-06	-2.015709e-06	-2.703906e-09	-1.469769e+01	-1.756331e+02
1.480000e-06	-1.962185e-06	-2.673528e-09	-1.430741e+01	-1.739290e+02
1.490000e-06	-1.908538e-06	-2.641556e-09	-1.391624e+01	-1.722042e+02
1.500000e-06	-1.854732e-06	-2.611915e-09	-1.352392e+01	-1.704554e+02
1.510000e-06	-1.800696e-06	-2.583907e-09	-1.312991e+01	-1.686788e+02
1.520000e-06	-1.746544e-06	-2.554425e-09	-1.273505e+01	-1.668701e+02
1.530000e-06	-1.692303e-06	-2.522714e-09	-1.233955e+01	-1.650246e+02
1.540000e-06	-1.637927e-06	-2.490000e-09	-1.194306e+01	-1.631372e+02
1.550000e-06	-1.583421e-06	-2.456585e-09	-1.154563e+01	-1.612022e+02
1.560000e-06	-1.528831e-06	-2.420837e-09	-1.114758e+01	-1.592136e+02
1.570000e-06	-1.474129e-06	-2.383220e-09	-1.074871e+01	-1.571652e+02
1.580000e-06	-1.419270e-06	-2.344534e-09	-1.034871e+01	-1.550504e+02
1.590000e-06	-1.364315e-06	-2.304304e-09	-9.947999e+00	-1.528623e+02
1.600000e-06	-1.309336e-06	-2.265163e-09	-9.547120e+00	-1.505938e+02
1.610000e-06	-1.254308e-06	-2.223625e-09	-9.145874e+00	-1.482379e+02
1.620000e-06	-1.199128e-06	-2.177823e-09	-8.743531e+00	-1.457873e+02
1.630000e-06	-1.143859e-06	-2.132594e-09	-8.340527e+00	-1.432346e+02
1.640000e-06	-1.088559e-06	-2.090991e-09	-7.937309e+00	-1.405728e+02
1.650000e-06	-1.033263e-06	-2.047579e-09	-7.534111e+00	-1.377948e+02
1.660000e-06	-9.779277e-07	-2.000599e-09	-7.130630e+00	-1.348936e+02
1.670000e-06	-9.225251e-07	-1.953661e-09	-6.726658e+00	-1.318628e+02
1.680000e-06	-8.671019e-07	-1.903813e-09	-6.322536e+00	-1.286961e+02
1.690000e-06	-8.116186e-07	-1.851913e-09	-5.917975e+00	-1.253876e+02
1.700000e-06	-7.561008e-07	-1.799939e-09	-5.513163e+00	-1.219320e+02
1.710000e-06	-7.006208e-07	-1.744916e-09	-5.108627e+00	-1.183245e+02
1.720000e-06	-6.451590e-07	-1.687377e-09	-4.704223e+00	-1.145609e+02
1.730000e-06	-5.896739e-07	-1.629000e-09	-4.299650e+00	-1.106376e+02
1.740000e-06	-5.340914e-07	-1.569051e-09	-3.894366e+00	-1.065519e+02
1.750000e-06	-4.784654e-07	-1.507641e-09	-3.488765e+00	-1.023016e+02
1.760000e-06	-4.228563e-07	-1.443353e-09	-3.083287e+00	-9.788558e+01
1.770000e-06	-3.672569e-07	-1.374697e-09	-2.677880e+00	-9.330339e+01
1.780000e-06	-3.116425e-07	-1.303192e-09	-2.272363e+00	-8.855556e+01
1.790000e-06	-2.559827e-07	-1.231865e-09	-1.866516e+00	-8.364349e+01
1.800000e-06	-2.003312e-07	-1.157710e-09	-1.460729e+00	-7.856949e+01
1.810000e-06	-1.445954e-07	-1.079607e-09	-1.054327e+00	-7.333683e+01
1.820000e-06	-8.887545e-08	-1.000485e-09	-6.480417e-01	-6.794970e+01
1.830000e-06	-3.323214e-08	-9.196165e-10	-2.423146e-01	-6.241321e+01
1.840000e-06	2.245962e-08	-8.360932e-10	1.637659e-01	-5.673338e+01
1.850000e-06	7.814901e-08	-7.511382e-10	5.698291e-01	-5.091714e+01
1.860000e-06	1.338214e-07	-6.637000e-10	9.757681e-01	-4.497226e+01
1.870000e-06	1.894537e-07	-5.721822e-10	1.381415e+00	-3.890735e+01
1.880000e-06	2.451030e-07	-4.780466e-10	1.787186e+00	-3.273178e+01
1.890000e-06	3.007881e-07	-3.831549e-10	2.193218e+00	-2.645566e+01
1.900000e-06	3.564423e-07	-2.857609e-10	2.599025e+00	-2.008975e+01
1.910000e-06	4.120688e-07	-1.849490e-10	3.004629e+00	-1.364544e+01
1.920000e-06	4.676703e-07	-8.288368e-11	3.410051e+00	-7.134630e+00
1.930000e-06	5.232178e-07	2.092083e-11	3.815080e+00	-5.696956e-01
1.940000e-06	5.787381e-07	1.243668e-10	4.219911e+00	6.036615e+00
1.950000e-06	6.342940e-07	2.250579e-10	4.625000e+00	1.267125e+01
1.960000e-06	6.898202e-07	3.274221e-10	5.029874e+00	1.932095e+01
1.970000e-06	7.453078e-07	4.312467e-10	5.434465e+00	2.597233e+01
1.980000e-06	8.007656e-07	5.343510e-10	5.838840e+00	3.261195e+01
1.990000e-06	8.561571e-07	6.363084e-10	6.242731e+00	3.922643e+01
2.000000e-06	9.114997e-07	7.391490e-10	6.646266e+00	4.580255e+01
2.010000e-06	9.668212e-07	8.439543e-10	7.049646e+00	5.232728e+01
2.020000e-06	1.022089e-06	9.471496e-10	7.452633e+00	5.878792e+01
2.030000e-06	1.077320e-06	1.046286e-09	7.855354e+00	6.517216e+01
2.040000e-06	1.132552e-06	1.141671e-09	8.258083e+00	7.146817e+01
2.050000e-06	1.187730e-06	1.235368e-09	8.660421e+00	7.766465e+01
2.060000e-06	1.242806e-06	1.326342e-09	9.062013e+00	8.375094e+01
2.070000e-06	1.297773e-06	1.415293e-09	9.462803e+00	8.971703e+01
2.080000e-06	1.352621e-06	1.502889e-09	9.862732e+00	9.555369e+01
2.090000e-06	1.407368e-06	1.587443e-09	1.026193e+01	1.012524e+02
2.100000e-06	1.462055e-06	1.668063e-09	1.066068e+01	1.068057e+02
2.110000e-06	1.516664e-06	1.746399e-09	1.105887e+01	1.122067e+02
2.120000e-06	1.571076e-06	1.823170e-09	1.145561e+01	1.174495e+02
2.130000e-06	1.625306e-06	1.897597e-09	1.185104e+01	1.225294e+02
2.140000e-06	1.679451e-06	1.968624e-09	1.224583e+01	1.274422e+02
2.150000e-06	1.733505e-06	2.035445e-09	1.263998e+01	1.321851e+02
2.160000e-06	1.787437e-06	2.098044e-09	1.303323e+01	1.367559e+02
2.170000e-06	1.841238e-06	2.158632e-09	1.342552e+01	1.411535e+02
2.180000e-06	1.895010e-06	2.217971e-09	1.381760e+01	1.453777e+02
2.190000e-06	1.948685e-06	2.274273e-09	1.420897e+01	1.494291e+02
2.200000e-06	2.002162e-06	2.328871e-09	1.459891e+01	1.533094e+02
2.210000e-06	2.055487e-06	2.381013e-09	1.498773e+01	1.570209e+02
2.220000e-06	2.108683e-06	2.430576e-09	1.537562e+01	1.605667e+02
2.230000e-06	2.161729e-06	2.478602e-09	1.576241e+01	1.639509e+02
2.240000e-06	2.214597e-06	2.524799e-09	1.614789e+01	1.671779e+02
2.250000e-06	2.267237e-06	2.566472e-09	1.653172e+01	1.702529e+02
2.260000e-06	2.319698e-06	2.605352e-09	1.691425e+01	1.731817e+02
2.270000e-06	2.371999e-06	2.646403e-09	1.729560e+01	1.759706e+02
2.280000e-06	2.424057e-06	2.686533e-09	1.767518e+01	1.786262e+02
2.290000e-06	2.475949e-06	2.723733e-09	1.805356e+01	1.811556e+02
2.300000e-06	2.527654e-06	2.760391e-09	1.843057e+01	1.835659e+02
2.310000e-06	2.579152e-06	2.795909e-09	1.880607e+01	1.858647e+02
2.320000e-06	2.630553e-06	2.830614e-09	1.918087e+01	1.880596e+02
2.330000e-06	2.681830e-06	2.863235e-09	1.955475e+01	1.901582e+02
2.340000e-06	2.732862e-06	2.892911e-09	1.992686e+01	1.921684e+02
2.350000e-06	2.783573e-06	2.921730e-09	2.029662e+01	1.940975e+02
2.360000e-06	2.834054e-06	2.951568e-09	2.066471e+01	1.959531e+02
2.370000e-06	2.884161e-06	2.982226e-09	2.103007e+01	1.977424e+02
2.380000e-06	2.933753e-06	3.011713e-09	2.139167e+01	1.994724e+02
2.390000e-06	2.983038e-06	3.040117e-09	2.175104e+01	2.011498e+02
2.400000e-06	3.031995e-06	3.068771e-09	2.210801e+01	2.027809e+02
2.410000e-06	3.080617e-06	3.097667e-09	2.246254e+01	2.043716e+02
2.420000e-06	3.128971e-06	3.126373e-09	2.281512e+01	2.059274e+02
2.430000e-06	3.177090e-06	3.151877e-09	2.316598e+01	2.074533e+02
2.440000e-06	3.225008e-06	3.172740e-09	2.351538e+01	2.089538e+02
2.450000e-06	3.272730e-06	3.194045e-09	2.386335e+01	2.104331e+02
2.460000e-06	3.320326e-06	3.217539e-09	2.421039e+01	2.118945e+02
2.470000e-06	3.367721e-06	3.239284e-09	2.455598e+01	2.133411e+02
2.480000e-06	3.414942e-06	3.259384e-09	2.490029e+01	2.147754e+02
2.490000e-06	3.461989e-06	3.281747e-09	2.524334e+01	2.161993e+02
2.500000e-06	3.508726e-06	3.305472e-09	2.558412e+01	2.176143e+02
2.510000e-06	3.555220e-06	3.326582e-09	2.592314e+01	2.190213e+02
2.520000e-06	3.601493e-06	3.346684e-09	2.626055e+01	2.204208e+02
2.530000e-06	3.647459e-06	3.364706e-09	2.659571e+01	2.218130e+02
2.540000e-06	3.693110e-06	3.381993e-09	2.692858e+01	2.231975e+02
2.550000e-06	3.738545e-06	3.396875e-09	2.725987e+01	2.245737e+02
2.560000e-06	3.783737e-06	3.411196e-09	2.758939e+01	2.259403e+02
2.570000e-06	3.828620e-06	3.429543e-09	2.791666e+01	2.272962e+02
2.580000e-06	3.873259e-06	3.447860e-09	2.824215e+01	2.286398e+02
2.590000e-06	3.917664e-06	3.464698e-09	2.856593e+01	2.299693e+02
2.600000e-06	3.961792e-06	3.482606e-09	2.888769e+01	2.312827e+02
2.610000e-06	4.005647e-06	3.503094e-09	2.920746e+01	2.325780e+02
2.620000e-06	4.049344e-06	3.522645e-09	2.952608e+01	2.338530e+02
2.630000e-06	4.092935e-06	3.537705e-09	2.984393e+01	2.351057e+02
2.640000e-06	4.136412e-06	3.551368e-09	3.016094e+01	2.363338e+02
2.650000e-06	4.179647e-06	3.569189e-09	3.047620e+01	2.375353e+02
2.660000e-06	4.222492e-06	3.589731e-09	3.078860e+01	2.387081e+02
2.670000e-06	4.264882e-06	3.606704e-09	3.109770e+01	2.398504e+02
2.680000e-06	4.306760e-06	3.620956e-09	3.140305e+01	2.409606e+02
2.690000e-06	4.348124e-06	3.636520e-09	3.170466e+01	2.420370e+02
2.700000e-06	4.389022e-06	3.652219e-09	3.200287e+01	2.430783e+02
2.710000e-06	4.429489e-06	3.667459e-09	3.229794e+01	2.440836e+02
2.720000e-06	4.469636e-06	3.678778e-09	3.259067e+01	2.450521e+02
2.730000e-06	4.509506e-06	3.688387e-09	3.288139e+01	2.459831e+02
2.740000e-06	4.549145e-06	3.698464e-09	3.317042e+01	2.468764e+02
2.750000e-06	4.588649e-06	3.712229e-09	3.345847e+01	2.477320e+02
2.760000e-06	4.627919e-06	3.727628e-09	3.374480e+01	2.485503e+02
2.770000e-06	4.666937e-06	3.739702e-09	3.402931e+01	2.493319e+02
2.780000e-06	4.705612e-06	3.750316e-09	3.431131e+01	2.500775e+02
2.790000e-06	4.743814e-06	3.763725e-09	3.458986e+01	2.507884e+02
2.800000e-06	4.781622e-06	3.778725e-09	3.486554e+01	2.514659e+02
2.810000e-06	4.819088e-06	3.791595e-09	3.513873e+01	2.521115e+02
2.820000e-06	4.856259e-06	3.801569e-09	3.540976e+01	2.527271e+02
2.830000e-06	4.893150e-06	3.812378e-09	3.567876e+01	2.533146e+02
2.840000e-06	4.929746e-06	3.825595e-09	3.594559e+01	2.538762e+02
2.850000e-06	4.966009e-06	3.837339e-09	3.621001e+01	2.544141e+02
2.860000e-06	5.001890e-06	3.847162e-09	3.647164e+01	2.549307e+02
2.870000e-06	5.037510e-06	3.857772e-09	3.673137e+01	2.554284e+02
2.880000e-06	5.073020e-06	3.868725e-09	3.699029e+01	2.559096e+02
2.890000e-06	5.108290e-06	3.878658e-09	3.724746e+01	2.563769e+02
2.900000e-06	5.143187e-06	3.888429e-09	3.750192e+01	2.568326e+02
