# Temperatura_=_20.0
# Concentracion g/m^3_=_9000.0
# C_Vs_to_Am_M_A/Vsm_=_65563218390.804596
# pendiente_HvsI_1/m_=_3716.3
# ordenada_HvsI_A/m_=_1297.0
# frecuencia_Hz_=_135338.55146844752

Tiempo_(s)	Campo_(V.s)	Magnetizacion_(V.s)	Campo_(kA/m)	Magnetizacion_(A/m)
0.000000e+00	-6.510112e-06	-3.932782e-09	-4.772772e+01	-2.771351e+02
1.000000e-08	-6.510176e-06	-3.929500e-09	-4.772818e+01	-2.771686e+02
2.000000e-08	-6.509867e-06	-3.926245e-09	-4.772592e+01	-2.771812e+02
3.000000e-08	-6.509155e-06	-3.921827e-09	-4.772070e+01	-2.771712e+02
4.000000e-08	-6.507897e-06	-3.919536e-09	-4.771148e+01	-2.771373e+02
5.000000e-08	-6.505929e-06	-3.918474e-09	-4.769705e+01	-2.770781e+02
6.000000e-08	-6.503240e-06	-3.913416e-09	-4.767734e+01	-2.769925e+02
7.000000e-08	-6.499947e-06	-3.904578e-09	-4.765319e+01	-2.768799e+02
8.000000e-08	-6.496269e-06	-3.904719e-09	-4.762623e+01	-2.767395e+02
9.000000e-08	-6.492264e-06	-3.937699e-09	-4.759686e+01	-2.765710e+02
1.000000e-07	-6.487709e-06	-3.963190e-09	-4.756347e+01	-2.763742e+02
1.100000e-07	-6.482469e-06	-3.949152e-09	-4.752506e+01	-2.761494e+02
1.200000e-07	-6.476731e-06	-3.876375e-09	-4.748299e+01	-2.758967e+02
1.300000e-07	-6.470728e-06	-3.870299e-09	-4.743898e+01	-2.756170e+02
1.400000e-07	-6.464463e-06	-3.914293e-09	-4.739305e+01	-2.753111e+02
1.500000e-07	-6.457812e-06	-3.943203e-09	-4.734429e+01	-2.749801e+02
1.600000e-07	-6.450701e-06	-3.932519e-09	-4.729215e+01	-2.746255e+02
1.700000e-07	-6.443144e-06	-3.939674e-09	-4.723675e+01	-2.742488e+02
1.800000e-07	-6.435268e-06	-3.922371e-09	-4.717901e+01	-2.738518e+02
1.900000e-07	-6.427182e-06	-3.995895e-09	-4.711973e+01	-2.734366e+02
2.000000e-07	-6.418674e-06	-4.017687e-09	-4.705736e+01	-2.730052e+02
2.100000e-07	-6.409557e-06	-3.991504e-09	-4.699052e+01	-2.725601e+02
2.200000e-07	-6.399692e-06	-3.907388e-09	-4.691819e+01	-2.721036e+02
2.300000e-07	-6.389049e-06	-3.927708e-09	-4.684016e+01	-2.716384e+02
2.400000e-07	-6.377903e-06	-3.931303e-09	-4.675845e+01	-2.711668e+02
2.500000e-07	-6.366290e-06	-3.956398e-09	-4.667331e+01	-2.706917e+02
2.600000e-07	-6.354090e-06	-3.977638e-09	-4.658387e+01	-2.702155e+02
2.700000e-07	-6.341318e-06	-3.983566e-09	-4.649023e+01	-2.697409e+02
2.800000e-07	-6.328049e-06	-3.988861e-09	-4.639296e+01	-2.692705e+02
2.900000e-07	-6.314221e-06	-4.043604e-09	-4.629158e+01	-2.688067e+02
3.000000e-07	-6.299806e-06	-4.130009e-09	-4.618589e+01	-2.683517e+02
3.100000e-07	-6.284893e-06	-4.138444e-09	-4.607656e+01	-2.679079e+02
3.200000e-07	-6.269354e-06	-4.122739e-09	-4.596264e+01	-2.674773e+02
3.300000e-07	-6.253189e-06	-4.160851e-09	-4.584413e+01	-2.670615e+02
3.400000e-07	-6.236466e-06	-4.235239e-09	-4.572153e+01	-2.666624e+02
3.500000e-07	-6.219310e-06	-4.143312e-09	-4.559575e+01	-2.662811e+02
3.600000e-07	-6.201875e-06	-4.155935e-09	-4.546793e+01	-2.659189e+02
3.700000e-07	-6.184133e-06	-4.220243e-09	-4.533786e+01	-2.655767e+02
3.800000e-07	-6.166037e-06	-4.238152e-09	-4.520520e+01	-2.652548e+02
3.900000e-07	-6.147456e-06	-4.151537e-09	-4.506897e+01	-2.649538e+02
4.000000e-07	-6.128333e-06	-4.221380e-09	-4.492877e+01	-2.646735e+02
4.100000e-07	-6.108815e-06	-4.280119e-09	-4.478568e+01	-2.644136e+02
4.200000e-07	-6.089041e-06	-4.279874e-09	-4.464071e+01	-2.641737e+02
4.300000e-07	-6.068921e-06	-4.254351e-09	-4.449320e+01	-2.639527e+02
4.400000e-07	-6.048436e-06	-4.292220e-09	-4.434302e+01	-2.637496e+02
4.500000e-07	-6.027693e-06	-4.310262e-09	-4.419095e+01	-2.635630e+02
4.600000e-07	-6.006586e-06	-4.343133e-09	-4.403620e+01	-2.633912e+02
4.700000e-07	-5.985019e-06	-4.328286e-09	-4.387809e+01	-2.632325e+02
4.800000e-07	-5.963009e-06	-4.297359e-09	-4.371673e+01	-2.630846e+02
4.900000e-07	-5.940581e-06	-4.292068e-09	-4.355230e+01	-2.629454e+02
5.000000e-07	-5.917752e-06	-4.322999e-09	-4.338493e+01	-2.628125e+02
5.100000e-07	-5.894536e-06	-4.310590e-09	-4.321473e+01	-2.626834e+02
5.200000e-07	-5.870951e-06	-4.285568e-09	-4.304182e+01	-2.625554e+02
5.300000e-07	-5.847011e-06	-4.279122e-09	-4.286631e+01	-2.624260e+02
5.400000e-07	-5.822712e-06	-4.282085e-09	-4.268817e+01	-2.622923e+02
5.500000e-07	-5.797934e-06	-4.289356e-09	-4.250651e+01	-2.621517e+02
5.600000e-07	-5.772545e-06	-4.268257e-09	-4.232037e+01	-2.620015e+02
5.700000e-07	-5.746499e-06	-4.244563e-09	-4.212943e+01	-2.618391e+02
5.800000e-07	-5.719823e-06	-4.238315e-09	-4.193386e+01	-2.616619e+02
5.900000e-07	-5.692553e-06	-4.254519e-09	-4.173393e+01	-2.614677e+02
6.000000e-07	-5.664927e-06	-4.236397e-09	-4.153139e+01	-2.612541e+02
6.100000e-07	-5.637106e-06	-4.216770e-09	-4.132743e+01	-2.610191e+02
6.200000e-07	-5.609001e-06	-4.205236e-09	-4.112138e+01	-2.607607e+02
6.300000e-07	-5.580544e-06	-4.221514e-09	-4.091276e+01	-2.604774e+02
6.400000e-07	-5.551801e-06	-4.205957e-09	-4.070203e+01	-2.601677e+02
6.500000e-07	-5.522672e-06	-4.190784e-09	-4.048847e+01	-2.598305e+02
6.600000e-07	-5.493087e-06	-4.176499e-09	-4.027158e+01	-2.594648e+02
6.700000e-07	-5.463208e-06	-4.183309e-09	-4.005253e+01	-2.590700e+02
6.800000e-07	-5.432967e-06	-4.164746e-09	-3.983082e+01	-2.586458e+02
6.900000e-07	-5.402332e-06	-4.158937e-09	-3.960623e+01	-2.581921e+02
7.000000e-07	-5.371317e-06	-4.145089e-09	-3.937884e+01	-2.577090e+02
7.100000e-07	-5.339899e-06	-4.138853e-09	-3.914851e+01	-2.571971e+02
7.200000e-07	-5.308186e-06	-4.128755e-09	-3.891601e+01	-2.566570e+02
7.300000e-07	-5.276313e-06	-4.128593e-09	-3.868234e+01	-2.560897e+02
7.400000e-07	-5.244125e-06	-4.108511e-09	-3.844636e+01	-2.554964e+02
7.500000e-07	-5.211446e-06	-4.095701e-09	-3.820678e+01	-2.548786e+02
7.600000e-07	-5.178384e-06	-4.091603e-09	-3.796439e+01	-2.542377e+02
7.700000e-07	-5.144784e-06	-4.085181e-09	-3.771806e+01	-2.535756e+02
7.800000e-07	-5.110528e-06	-4.063764e-09	-3.746692e+01	-2.528942e+02
7.900000e-07	-5.075727e-06	-4.053883e-09	-3.721178e+01	-2.521955e+02
8.000000e-07	-5.040518e-06	-4.053536e-09	-3.695365e+01	-2.514815e+02
8.100000e-07	-5.004991e-06	-4.044244e-09	-3.669319e+01	-2.507544e+02
8.200000e-07	-4.969180e-06	-4.029351e-09	-3.643065e+01	-2.500164e+02
8.300000e-07	-4.933138e-06	-4.016874e-09	-3.616641e+01	-2.492696e+02
8.400000e-07	-4.896816e-06	-4.010584e-09	-3.590013e+01	-2.485161e+02
8.500000e-07	-4.860177e-06	-3.998128e-09	-3.563151e+01	-2.477580e+02
8.600000e-07	-4.823209e-06	-3.984851e-09	-3.536049e+01	-2.469972e+02
8.700000e-07	-4.785898e-06	-3.966046e-09	-3.508695e+01	-2.462354e+02
8.800000e-07	-4.748185e-06	-3.955487e-09	-3.481047e+01	-2.454743e+02
8.900000e-07	-4.710163e-06	-3.940710e-09	-3.453172e+01	-2.447155e+02
9.000000e-07	-4.671896e-06	-3.932480e-09	-3.425116e+01	-2.439600e+02
9.100000e-07	-4.633303e-06	-3.919322e-09	-3.396823e+01	-2.432090e+02
9.200000e-07	-4.594393e-06	-3.909793e-09	-3.368296e+01	-2.424633e+02
9.300000e-07	-4.555153e-06	-3.894923e-09	-3.339528e+01	-2.417234e+02
9.400000e-07	-4.515635e-06	-3.883902e-09	-3.310557e+01	-2.409895e+02
9.500000e-07	-4.475984e-06	-3.863530e-09	-3.281487e+01	-2.402617e+02
9.600000e-07	-4.436123e-06	-3.846549e-09	-3.252264e+01	-2.395397e+02
9.700000e-07	-4.395959e-06	-3.827991e-09	-3.222819e+01	-2.388231e+02
9.800000e-07	-4.355453e-06	-3.815573e-09	-3.193122e+01	-2.381109e+02
9.900000e-07	-4.314421e-06	-3.799488e-09	-3.163040e+01	-2.374022e+02
1.000000e-06	-4.272917e-06	-3.788210e-09	-3.132612e+01	-2.366957e+02
1.010000e-06	-4.231090e-06	-3.775794e-09	-3.101948e+01	-2.359899e+02
1.020000e-06	-4.188885e-06	-3.760716e-09	-3.071006e+01	-2.352829e+02
1.030000e-06	-4.146226e-06	-3.743981e-09	-3.039731e+01	-2.345731e+02
1.040000e-06	-4.103149e-06	-3.728958e-09	-3.008150e+01	-2.338581e+02
1.050000e-06	-4.059805e-06	-3.709480e-09	-2.976373e+01	-2.331360e+02
1.060000e-06	-4.016219e-06	-3.690134e-09	-2.944419e+01	-2.324043e+02
1.070000e-06	-3.972403e-06	-3.674412e-09	-2.912296e+01	-2.316606e+02
1.080000e-06	-3.928377e-06	-3.658578e-09	-2.880019e+01	-2.309026e+02
1.090000e-06	-3.884073e-06	-3.642062e-09	-2.847539e+01	-2.301277e+02
1.100000e-06	-3.839474e-06	-3.626824e-09	-2.814841e+01	-2.293336e+02
1.110000e-06	-3.794581e-06	-3.613937e-09	-2.781928e+01	-2.285179e+02
1.120000e-06	-3.749441e-06	-3.597231e-09	-2.748835e+01	-2.276782e+02
1.130000e-06	-3.704062e-06	-3.581295e-09	-2.715567e+01	-2.268124e+02
1.140000e-06	-3.658440e-06	-3.564742e-09	-2.682120e+01	-2.259185e+02
1.150000e-06	-3.612650e-06	-3.549018e-09	-2.648550e+01	-2.249945e+02
1.160000e-06	-3.566682e-06	-3.530120e-09	-2.614849e+01	-2.240388e+02
1.170000e-06	-3.520455e-06	-3.513925e-09	-2.580958e+01	-2.230500e+02
1.180000e-06	-3.473949e-06	-3.496382e-09	-2.546863e+01	-2.220268e+02
1.190000e-06	-3.427164e-06	-3.480344e-09	-2.512563e+01	-2.209683e+02
1.200000e-06	-3.380125e-06	-3.463000e-09	-2.478078e+01	-2.198737e+02
1.210000e-06	-3.332887e-06	-3.447798e-09	-2.443446e+01	-2.187426e+02
1.220000e-06	-3.285420e-06	-3.428219e-09	-2.408647e+01	-2.175747e+02
1.230000e-06	-3.237723e-06	-3.409261e-09	-2.373678e+01	-2.163704e+02
1.240000e-06	-3.189735e-06	-3.390546e-09	-2.338497e+01	-2.151298e+02
1.250000e-06	-3.141483e-06	-3.370244e-09	-2.303122e+01	-2.138536e+02
1.260000e-06	-3.093076e-06	-3.345797e-09	-2.267633e+01	-2.125428e+02
1.270000e-06	-3.044496e-06	-3.320991e-09	-2.232017e+01	-2.111984e+02
1.280000e-06	-2.995651e-06	-3.298560e-09	-2.196208e+01	-2.098217e+02
1.290000e-06	-2.946433e-06	-3.279176e-09	-2.160124e+01	-2.084143e+02
1.300000e-06	-2.896908e-06	-3.257960e-09	-2.123816e+01	-2.069777e+02
1.310000e-06	-2.847162e-06	-3.234744e-09	-2.087346e+01	-2.055139e+02
1.320000e-06	-2.797105e-06	-3.211860e-09	-2.050647e+01	-2.040245e+02
1.330000e-06	-2.746635e-06	-3.190405e-09	-2.013646e+01	-2.025116e+02
1.340000e-06	-2.695906e-06	-3.168496e-09	-1.976455e+01	-2.009770e+02
1.350000e-06	-2.645025e-06	-3.144540e-09	-1.939153e+01	-1.994227e+02
1.360000e-06	-2.593812e-06	-3.117117e-09	-1.901606e+01	-1.978504e+02
1.370000e-06	-2.542280e-06	-3.090369e-09	-1.863827e+01	-1.962618e+02
1.380000e-06	-2.490549e-06	-3.066557e-09	-1.825901e+01	-1.946584e+02
1.390000e-06	-2.438698e-06	-3.042475e-09	-1.787887e+01	-1.930415e+02
1.400000e-06	-2.386794e-06	-3.015706e-09	-1.749835e+01	-1.914122e+02
1.410000e-06	-2.334701e-06	-2.988854e-09	-1.711644e+01	-1.897714e+02
1.420000e-06	-2.282339e-06	-2.963984e-09	-1.673256e+01	-1.881193e+02
1.430000e-06	-2.229765e-06	-2.938167e-09	-1.634712e+01	-1.864561e+02
1.440000e-06	-2.177097e-06	-2.910587e-09	-1.596099e+01	-1.847815e+02
1.450000e-06	-2.124337e-06	-2.881913e-09	-1.557419e+01	-1.830948e+02
1.460000e-06	-2.071391e-06	-2.853621e-09	-1.518603e+01	-1.813948e+02
1.470000e-06	-2.018261e-06	-2.824645e-09	-1.479652e+01	-1.796797e+02
1.480000e-06	-1.964978e-06	-2.793744e-09	-1.440588e+01	-1.779476e+02
1.490000e-06	-1.911595e-06	-2.758554e-09	-1.401452e+01	-1.761958e+02
1.500000e-06	-1.858064e-06	-2.724542e-09	-1.362207e+01	-1.744211e+02
1.510000e-06	-1.804334e-06	-2.692785e-09	-1.322815e+01	-1.726200e+02
1.520000e-06	-1.750519e-06	-2.662695e-09	-1.283362e+01	-1.707884e+02
1.530000e-06	-1.696619e-06	-2.629184e-09	-1.243846e+01	-1.689217e+02
1.540000e-06	-1.642610e-06	-2.598661e-09	-1.204250e+01	-1.670150e+02
1.550000e-06	-1.588529e-06	-2.570070e-09	-1.164601e+01	-1.650627e+02
1.560000e-06	-1.534346e-06	-2.537610e-09	-1.124878e+01	-1.630591e+02
1.570000e-06	-1.480028e-06	-2.498228e-09	-1.085056e+01	-1.609979e+02
1.580000e-06	-1.425578e-06	-2.457732e-09	-1.045137e+01	-1.588728e+02
1.590000e-06	-1.371044e-06	-2.416265e-09	-1.005156e+01	-1.566770e+02
1.600000e-06	-1.316442e-06	-2.373448e-09	-9.651259e+00	-1.544034e+02
1.610000e-06	-1.261730e-06	-2.330423e-09	-9.250145e+00	-1.520450e+02
1.620000e-06	-1.206909e-06	-2.286384e-09	-8.848237e+00	-1.495946e+02
1.630000e-06	-1.151946e-06	-2.244578e-09	-8.445287e+00	-1.470450e+02
1.640000e-06	-1.096899e-06	-2.204798e-09	-8.041719e+00	-1.443889e+02
1.650000e-06	-1.041843e-06	-2.162427e-09	-7.638083e+00	-1.416193e+02
1.660000e-06	-9.866807e-07	-2.116045e-09	-7.233672e+00	-1.387292e+02
1.670000e-06	-9.314964e-07	-2.066832e-09	-6.829098e+00	-1.357121e+02
1.680000e-06	-8.763066e-07	-2.015381e-09	-6.424484e+00	-1.325616e+02
1.690000e-06	-8.210812e-07	-1.961803e-09	-6.019609e+00	-1.292717e+02
1.700000e-06	-7.658430e-07	-1.906635e-09	-5.614641e+00	-1.258369e+02
1.710000e-06	-7.105584e-07	-1.851566e-09	-5.209331e+00	-1.222522e+02
1.720000e-06	-6.552057e-07	-1.792618e-09	-4.803523e+00	-1.185134e+02
1.730000e-06	-5.997405e-07	-1.733279e-09	-4.396890e+00	-1.146166e+02
1.740000e-06	-5.442196e-07	-1.673778e-09	-3.989848e+00	-1.105588e+02
1.750000e-06	-4.887089e-07	-1.610065e-09	-3.582882e+00	-1.063378e+02
1.760000e-06	-4.331952e-07	-1.543430e-09	-3.175892e+00	-1.019519e+02
1.770000e-06	-3.776844e-07	-1.475651e-09	-2.768925e+00	-9.740073e+01
1.780000e-06	-3.221644e-07	-1.404251e-09	-2.361890e+00	-9.268433e+01
1.790000e-06	-2.666433e-07	-1.331609e-09	-1.954847e+00	-8.780386e+01
1.800000e-06	-2.111290e-07	-1.256590e-09	-1.547855e+00	-8.276136e+01
1.810000e-06	-1.556017e-07	-1.178962e-09	-1.140766e+00	-7.755977e+01
1.820000e-06	-1.000974e-07	-1.100595e-09	-7.338464e-01	-7.220300e+01
1.830000e-06	-4.459488e-08	-1.021094e-09	-3.269394e-01	-6.669583e+01
1.840000e-06	1.094583e-08	-9.370923e-10	8.024736e-02	-6.104401e+01
1.850000e-06	6.649561e-08	-8.497386e-10	4.875006e-01	-5.525414e+01
1.860000e-06	1.220529e-07	-7.604456e-10	8.948087e-01	-4.933371e+01
1.870000e-06	1.776255e-07	-6.677527e-10	1.302230e+00	-4.329102e+01
1.880000e-06	2.332095e-07	-5.737897e-10	1.709734e+00	-3.713517e+01
1.890000e-06	2.887173e-07	-4.810835e-10	2.116679e+00	-3.087601e+01
1.900000e-06	3.441751e-07	-3.844720e-10	2.523258e+00	-2.452404e+01
1.910000e-06	3.996655e-07	-2.834750e-10	2.930075e+00	-1.809041e+01
1.920000e-06	4.551788e-07	-1.802572e-10	3.337062e+00	-1.158680e+01
1.930000e-06	5.107331e-07	-7.729178e-11	3.744348e+00	-5.025396e+00
1.940000e-06	5.662437e-07	2.595211e-11	4.151314e+00	1.581238e+00
1.950000e-06	6.216605e-07	1.288936e-10	4.557592e+00	8.220206e+00
1.960000e-06	6.769829e-07	2.326385e-10	4.963178e+00	1.487837e+01
1.970000e-06	7.322005e-07	3.377724e-10	5.367996e+00	2.154245e+01
1.980000e-06	7.873647e-07	4.421027e-10	5.772423e+00	2.819909e+01
1.990000e-06	8.425171e-07	5.450644e-10	6.176762e+00	3.483495e+01
2.000000e-06	8.976707e-07	6.488591e-10	6.581112e+00	4.143683e+01
2.010000e-06	9.527566e-07	7.546195e-10	6.984964e+00	4.799169e+01
2.020000e-06	1.007793e-06	8.586405e-10	7.388453e+00	5.448679e+01
2.030000e-06	1.062802e-06	9.612828e-10	7.791740e+00	6.090976e+01
2.040000e-06	1.117737e-06	1.060413e-09	8.194490e+00	6.724867e+01
2.050000e-06	1.172630e-06	1.155888e-09	8.596927e+00	7.349210e+01
2.060000e-06	1.227445e-06	1.248828e-09	8.998790e+00	7.962921e+01
2.070000e-06	1.282120e-06	1.339412e-09	9.399632e+00	8.564986e+01
2.080000e-06	1.336607e-06	1.428535e-09	9.799093e+00	9.154457e+01
2.090000e-06	1.390991e-06	1.516232e-09	1.019780e+01	9.730467e+01
2.100000e-06	1.445309e-06	1.599916e-09	1.059602e+01	1.029223e+02
2.110000e-06	1.499491e-06	1.680986e-09	1.099325e+01	1.083904e+02
2.120000e-06	1.553574e-06	1.760475e-09	1.138975e+01	1.137029e+02
2.130000e-06	1.607619e-06	1.835829e-09	1.178597e+01	1.188545e+02
2.140000e-06	1.661548e-06	1.906099e-09	1.218134e+01	1.238410e+02
2.150000e-06	1.715295e-06	1.976024e-09	1.257538e+01	1.286591e+02
2.160000e-06	1.768930e-06	2.044134e-09	1.296859e+01	1.333062e+02
2.170000e-06	1.822460e-06	2.109132e-09	1.336104e+01	1.377810e+02
2.180000e-06	1.875934e-06	2.170450e-09	1.375307e+01	1.420828e+02
2.190000e-06	1.929331e-06	2.231362e-09	1.414454e+01	1.462121e+02
2.200000e-06	1.982523e-06	2.289583e-09	1.453451e+01	1.501699e+02
2.210000e-06	2.035540e-06	2.342538e-09	1.492320e+01	1.539584e+02
2.220000e-06	2.088448e-06	2.393196e-09	1.531108e+01	1.575804e+02
2.230000e-06	2.141155e-06	2.442055e-09	1.569749e+01	1.610394e+02
2.240000e-06	2.193674e-06	2.489354e-09	1.608253e+01	1.643398e+02
2.250000e-06	2.246063e-06	2.534440e-09	1.646661e+01	1.674863e+02
2.260000e-06	2.298256e-06	2.575544e-09	1.684925e+01	1.704845e+02
2.270000e-06	2.350255e-06	2.615595e-09	1.723047e+01	1.733404e+02
2.280000e-06	2.402123e-06	2.656760e-09	1.761074e+01	1.760603e+02
2.290000e-06	2.453867e-06	2.696734e-09	1.799009e+01	1.786510e+02
2.300000e-06	2.505442e-06	2.733949e-09	1.836820e+01	1.811197e+02
2.310000e-06	2.556721e-06	2.769483e-09	1.874414e+01	1.834736e+02
2.320000e-06	2.607710e-06	2.805137e-09	1.911795e+01	1.857202e+02
2.330000e-06	2.658541e-06	2.840377e-09	1.949061e+01	1.878671e+02
2.340000e-06	2.709105e-06	2.874524e-09	1.986131e+01	1.899218e+02
2.350000e-06	2.759289e-06	2.906425e-09	2.022923e+01	1.918919e+02
2.360000e-06	2.809147e-06	2.934833e-09	2.059475e+01	1.937847e+02
2.370000e-06	2.858762e-06	2.961766e-09	2.095850e+01	1.956076e+02
2.380000e-06	2.908025e-06	2.991482e-09	2.131966e+01	1.973674e+02
2.390000e-06	2.956880e-06	3.022387e-09	2.167783e+01	1.990711e+02
2.400000e-06	3.005455e-06	3.052457e-09	2.203395e+01	2.007248e+02
2.410000e-06	3.053757e-06	3.080358e-09	2.238807e+01	2.023348e+02
2.420000e-06	3.101840e-06	3.107535e-09	2.274058e+01	2.039066e+02
2.430000e-06	3.149781e-06	3.133844e-09	2.309206e+01	2.054454e+02
2.440000e-06	3.197554e-06	3.158846e-09	2.344229e+01	2.069558e+02
2.450000e-06	3.245151e-06	3.182593e-09	2.379124e+01	2.084422e+02
2.460000e-06	3.292578e-06	3.204503e-09	2.413895e+01	2.099083e+02
2.470000e-06	3.339797e-06	3.226212e-09	2.448512e+01	2.113573e+02
2.480000e-06	3.386799e-06	3.248883e-09	2.482971e+01	2.127920e+02
2.490000e-06	3.433578e-06	3.271572e-09	2.517266e+01	2.142144e+02
2.500000e-06	3.480030e-06	3.294162e-09	2.551322e+01	2.156265e+02
2.510000e-06	3.526151e-06	3.316181e-09	2.585134e+01	2.170294e+02
2.520000e-06	3.572115e-06	3.339235e-09	2.618832e+01	2.184240e+02
2.530000e-06	3.617921e-06	3.360143e-09	2.652414e+01	2.198105e+02
2.540000e-06	3.663353e-06	3.379431e-09	2.685721e+01	2.211890e+02
2.550000e-06	3.708469e-06	3.397539e-09	2.718797e+01	2.225590e+02
2.560000e-06	3.753462e-06	3.414174e-09	2.751783e+01	2.239198e+02
2.570000e-06	3.798211e-06	3.432704e-09	2.784590e+01	2.252703e+02
2.580000e-06	3.842700e-06	3.451834e-09	2.817206e+01	2.266092e+02
2.590000e-06	3.887014e-06	3.471415e-09	2.849694e+01	2.279350e+02
2.600000e-06	3.931140e-06	3.490210e-09	2.882045e+01	2.292459e+02
2.610000e-06	3.975079e-06	3.511177e-09	2.914258e+01	2.305401e+02
2.620000e-06	4.018780e-06	3.531521e-09	2.946296e+01	2.318156e+02
2.630000e-06	4.062286e-06	3.550389e-09	2.978192e+01	2.330705e+02
2.640000e-06	4.105597e-06	3.567470e-09	3.009944e+01	2.343028e+02
2.650000e-06	4.148558e-06	3.582892e-09	3.041440e+01	2.355105e+02
2.660000e-06	4.191143e-06	3.600897e-09	3.072661e+01	2.366917e+02
2.670000e-06	4.233261e-06	3.618671e-09	3.103539e+01	2.378446e+02
2.680000e-06	4.274826e-06	3.637227e-09	3.134012e+01	2.389676e+02
2.690000e-06	4.315948e-06	3.655829e-09	3.164160e+01	2.400592e+02
2.700000e-06	4.356618e-06	3.671734e-09	3.193976e+01	2.411180e+02
2.710000e-06	4.396880e-06	3.685474e-09	3.223494e+01	2.421431e+02
2.720000e-06	4.436883e-06	3.699261e-09	3.252821e+01	2.431335e+02
2.730000e-06	4.476694e-06	3.714835e-09	3.282008e+01	2.440886e+02
2.740000e-06	4.516337e-06	3.728137e-09	3.311071e+01	2.450082e+02
2.750000e-06	4.555808e-06	3.740506e-09	3.340009e+01	2.458920e+02
2.760000e-06	4.595024e-06	3.754159e-09	3.368760e+01	2.467403e+02
2.770000e-06	4.633826e-06	3.767921e-09	3.397206e+01	2.475535e+02
2.780000e-06	4.672181e-06	3.780423e-09	3.425325e+01	2.483323e+02
2.790000e-06	4.710181e-06	3.793440e-09	3.453185e+01	2.490777e+02
2.800000e-06	4.747930e-06	3.809170e-09	3.480860e+01	2.497907e+02
2.810000e-06	4.785392e-06	3.825693e-09	3.508324e+01	2.504728e+02
2.820000e-06	4.822530e-06	3.838805e-09	3.535551e+01	2.511256e+02
2.830000e-06	4.859316e-06	3.847787e-09	3.562520e+01	2.517509e+02
2.840000e-06	4.895712e-06	3.860669e-09	3.589204e+01	2.523504e+02
2.850000e-06	4.931804e-06	3.874065e-09	3.615664e+01	2.529263e+02
2.860000e-06	4.967699e-06	3.885841e-09	3.641979e+01	2.534807e+02
2.870000e-06	5.003422e-06	3.897089e-09	3.668169e+01	2.540158e+02
2.880000e-06	5.038940e-06	3.910525e-09	3.694208e+01	2.545338e+02
2.890000e-06	5.074140e-06	3.924717e-09	3.720014e+01	2.550370e+02
2.900000e-06	5.108864e-06	3.936185e-09	3.745471e+01	2.555275e+02
