# Temperatura_=_20.0
# Concentracion g/m^3_=_9000.0
# C_Vs_to_Am_M_A/Vsm_=_65563218390.804596
# pendiente_HvsI_1/m_=_3716.3
# ordenada_HvsI_A/m_=_1297.0
# frecuencia_Hz_=_135338.747037053

Tiempo_(s)	Campo_(V.s)	Magnetizacion_(V.s)	Campo_(kA/m)	Magnetizacion_(A/m)
0.000000e+00	-6.532643e-06	-4.140898e-09	-4.773172e+01	-2.779566e+02
1.000000e-08	-6.532883e-06	-4.140232e-09	-4.773347e+01	-2.780663e+02
2.000000e-08	-6.532798e-06	-4.137953e-09	-4.773285e+01	-2.781569e+02
3.000000e-08	-6.532346e-06	-4.134794e-09	-4.772955e+01	-2.782263e+02
4.000000e-08	-6.531493e-06	-4.132759e-09	-4.772331e+01	-2.782727e+02
5.000000e-08	-6.530015e-06	-4.130176e-09	-4.771252e+01	-2.782944e+02
6.000000e-08	-6.527853e-06	-4.125857e-09	-4.769672e+01	-2.782898e+02
7.000000e-08	-6.525060e-06	-4.118773e-09	-4.767631e+01	-2.782576e+02
8.000000e-08	-6.521670e-06	-4.115388e-09	-4.765154e+01	-2.781965e+02
9.000000e-08	-6.517816e-06	-4.132415e-09	-4.762338e+01	-2.781058e+02
1.000000e-07	-6.513463e-06	-4.163178e-09	-4.759158e+01	-2.779847e+02
1.100000e-07	-6.508520e-06	-4.159624e-09	-4.755546e+01	-2.778329e+02
1.200000e-07	-6.503032e-06	-4.117270e-09	-4.751536e+01	-2.776502e+02
1.300000e-07	-6.497160e-06	-4.090060e-09	-4.747245e+01	-2.774367e+02
1.400000e-07	-6.491013e-06	-4.120023e-09	-4.742754e+01	-2.771929e+02
1.500000e-07	-6.484508e-06	-4.157639e-09	-4.738002e+01	-2.769194e+02
1.600000e-07	-6.477585e-06	-4.151862e-09	-4.732943e+01	-2.766172e+02
1.700000e-07	-6.470172e-06	-4.141869e-09	-4.727526e+01	-2.762874e+02
1.800000e-07	-6.462281e-06	-4.170332e-09	-4.721761e+01	-2.759316e+02
1.900000e-07	-6.454049e-06	-4.199552e-09	-4.715746e+01	-2.755514e+02
2.000000e-07	-6.445584e-06	-4.233922e-09	-4.709561e+01	-2.751487e+02
2.100000e-07	-6.436791e-06	-4.193861e-09	-4.703136e+01	-2.747256e+02
2.200000e-07	-6.427300e-06	-4.116588e-09	-4.696201e+01	-2.742843e+02
2.300000e-07	-6.416984e-06	-4.098513e-09	-4.688664e+01	-2.738272e+02
2.400000e-07	-6.406002e-06	-4.178776e-09	-4.680640e+01	-2.733569e+02
2.500000e-07	-6.394560e-06	-4.165838e-09	-4.672279e+01	-2.728759e+02
2.600000e-07	-6.382645e-06	-4.053776e-09	-4.663573e+01	-2.723870e+02
2.700000e-07	-6.370178e-06	-4.045471e-09	-4.654464e+01	-2.718928e+02
2.800000e-07	-6.357190e-06	-4.142632e-09	-4.644974e+01	-2.713960e+02
2.900000e-07	-6.343670e-06	-4.132064e-09	-4.635096e+01	-2.708994e+02
3.000000e-07	-6.329534e-06	-4.046035e-09	-4.624767e+01	-2.704054e+02
3.100000e-07	-6.314809e-06	-4.082273e-09	-4.614008e+01	-2.699167e+02
3.200000e-07	-6.299581e-06	-4.154151e-09	-4.602882e+01	-2.694356e+02
3.300000e-07	-6.283675e-06	-4.132592e-09	-4.591260e+01	-2.689643e+02
3.400000e-07	-6.267153e-06	-4.101055e-09	-4.579188e+01	-2.685049e+02
3.500000e-07	-6.250154e-06	-4.110246e-09	-4.566767e+01	-2.680594e+02
3.600000e-07	-6.232775e-06	-4.064070e-09	-4.554069e+01	-2.676293e+02
3.700000e-07	-6.215127e-06	-4.071488e-09	-4.541174e+01	-2.672161e+02
3.800000e-07	-6.197129e-06	-4.126445e-09	-4.528023e+01	-2.668209e+02
3.900000e-07	-6.178695e-06	-4.112956e-09	-4.514554e+01	-2.664446e+02
4.000000e-07	-6.159755e-06	-4.059685e-09	-4.500716e+01	-2.660878e+02
4.100000e-07	-6.140400e-06	-4.134032e-09	-4.486574e+01	-2.657509e+02
4.200000e-07	-6.120726e-06	-4.194261e-09	-4.472199e+01	-2.654339e+02
4.300000e-07	-6.100715e-06	-4.150125e-09	-4.457577e+01	-2.651365e+02
4.400000e-07	-6.080333e-06	-4.122236e-09	-4.442685e+01	-2.648583e+02
4.500000e-07	-6.059632e-06	-4.187497e-09	-4.427559e+01	-2.645984e+02
4.600000e-07	-6.038559e-06	-4.211555e-09	-4.412162e+01	-2.643558e+02
4.700000e-07	-6.017083e-06	-4.166581e-09	-4.396471e+01	-2.641292e+02
4.800000e-07	-5.995202e-06	-4.138322e-09	-4.380482e+01	-2.639169e+02
4.900000e-07	-5.972956e-06	-4.162842e-09	-4.364228e+01	-2.637173e+02
5.000000e-07	-5.950318e-06	-4.165683e-09	-4.347687e+01	-2.635284e+02
5.100000e-07	-5.927244e-06	-4.140432e-09	-4.330828e+01	-2.633481e+02
5.200000e-07	-5.903815e-06	-4.140112e-09	-4.313709e+01	-2.631741e+02
5.300000e-07	-5.880058e-06	-4.144685e-09	-4.296351e+01	-2.630040e+02
5.400000e-07	-5.855929e-06	-4.126775e-09	-4.278721e+01	-2.628354e+02
5.500000e-07	-5.831360e-06	-4.122732e-09	-4.260769e+01	-2.626657e+02
5.600000e-07	-5.806251e-06	-4.133430e-09	-4.242423e+01	-2.624924e+02
5.700000e-07	-5.780496e-06	-4.102732e-09	-4.223605e+01	-2.623130e+02
5.800000e-07	-5.754113e-06	-4.081595e-09	-4.204327e+01	-2.621250e+02
5.900000e-07	-5.727149e-06	-4.099370e-09	-4.184626e+01	-2.619259e+02
6.000000e-07	-5.699693e-06	-4.099143e-09	-4.164565e+01	-2.617133e+02
6.100000e-07	-5.671950e-06	-4.064714e-09	-4.144294e+01	-2.614852e+02
6.200000e-07	-5.644002e-06	-4.067441e-09	-4.123873e+01	-2.612393e+02
6.300000e-07	-5.615774e-06	-4.080551e-09	-4.103248e+01	-2.609738e+02
6.400000e-07	-5.587198e-06	-4.064196e-09	-4.082368e+01	-2.606870e+02
6.500000e-07	-5.558194e-06	-4.035741e-09	-4.061176e+01	-2.603773e+02
6.600000e-07	-5.528775e-06	-4.035838e-09	-4.039681e+01	-2.600436e+02
6.700000e-07	-5.499000e-06	-4.038885e-09	-4.017926e+01	-2.596847e+02
6.800000e-07	-5.468826e-06	-4.027029e-09	-3.995878e+01	-2.592998e+02
6.900000e-07	-5.438231e-06	-4.005568e-09	-3.973524e+01	-2.588885e+02
7.000000e-07	-5.407264e-06	-4.003684e-09	-3.950897e+01	-2.584504e+02
7.100000e-07	-5.375942e-06	-4.008308e-09	-3.928011e+01	-2.579854e+02
7.200000e-07	-5.344336e-06	-4.001850e-09	-3.904918e+01	-2.574939e+02
7.300000e-07	-5.312447e-06	-3.987854e-09	-3.881618e+01	-2.569763e+02
7.400000e-07	-5.280298e-06	-3.977249e-09	-3.858127e+01	-2.564333e+02
7.500000e-07	-5.247837e-06	-3.966481e-09	-3.834409e+01	-2.558658e+02
7.600000e-07	-5.214937e-06	-3.962971e-09	-3.810370e+01	-2.552748e+02
7.700000e-07	-5.181536e-06	-3.960318e-09	-3.785965e+01	-2.546618e+02
7.800000e-07	-5.147515e-06	-3.941125e-09	-3.761108e+01	-2.540282e+02
7.900000e-07	-5.112915e-06	-3.923635e-09	-3.735827e+01	-2.533755e+02
8.000000e-07	-5.077908e-06	-3.929594e-09	-3.710248e+01	-2.527056e+02
8.100000e-07	-5.042541e-06	-3.928617e-09	-3.684407e+01	-2.520201e+02
8.200000e-07	-5.006812e-06	-3.900412e-09	-3.658301e+01	-2.513210e+02
8.300000e-07	-4.970800e-06	-3.880330e-09	-3.631989e+01	-2.506102e+02
8.400000e-07	-4.934529e-06	-3.881473e-09	-3.605487e+01	-2.498895e+02
8.500000e-07	-4.897894e-06	-3.881034e-09	-3.578719e+01	-2.491607e+02
8.600000e-07	-4.860869e-06	-3.860771e-09	-3.551665e+01	-2.484257e+02
8.700000e-07	-4.823527e-06	-3.843191e-09	-3.524381e+01	-2.476862e+02
8.800000e-07	-4.785897e-06	-3.836870e-09	-3.496886e+01	-2.469439e+02
8.900000e-07	-4.747969e-06	-3.834764e-09	-3.469173e+01	-2.462000e+02
9.000000e-07	-4.709746e-06	-3.823995e-09	-3.441245e+01	-2.454561e+02
9.100000e-07	-4.671162e-06	-3.808745e-09	-3.413053e+01	-2.447131e+02
9.200000e-07	-4.632207e-06	-3.793346e-09	-3.384590e+01	-2.439720e+02
9.300000e-07	-4.592972e-06	-3.782831e-09	-3.355923e+01	-2.432336e+02
9.400000e-07	-4.553528e-06	-3.772305e-09	-3.327102e+01	-2.424983e+02
9.500000e-07	-4.513863e-06	-3.757962e-09	-3.298121e+01	-2.417664e+02
9.600000e-07	-4.473916e-06	-3.739688e-09	-3.268932e+01	-2.410378e+02
9.700000e-07	-4.433748e-06	-3.727055e-09	-3.239583e+01	-2.403124e+02
9.800000e-07	-4.393230e-06	-3.719997e-09	-3.209978e+01	-2.395897e+02
9.900000e-07	-4.352258e-06	-3.710064e-09	-3.180042e+01	-2.388689e+02
1.000000e-06	-4.310945e-06	-3.694122e-09	-3.149855e+01	-2.381492e+02
1.010000e-06	-4.269228e-06	-3.681645e-09	-3.119375e+01	-2.374293e+02
1.020000e-06	-4.226977e-06	-3.671000e-09	-3.088503e+01	-2.367079e+02
1.030000e-06	-4.184311e-06	-3.654365e-09	-3.057329e+01	-2.359835e+02
1.040000e-06	-4.141268e-06	-3.633897e-09	-3.025879e+01	-2.352543e+02
1.050000e-06	-4.097857e-06	-3.617260e-09	-2.994160e+01	-2.345185e+02
1.060000e-06	-4.054230e-06	-3.604928e-09	-2.962283e+01	-2.337740e+02
1.070000e-06	-4.010395e-06	-3.590952e-09	-2.930254e+01	-2.330189e+02
1.080000e-06	-3.966368e-06	-3.578490e-09	-2.898086e+01	-2.322508e+02
1.090000e-06	-3.922135e-06	-3.568053e-09	-2.865765e+01	-2.314678e+02
1.100000e-06	-3.877618e-06	-3.557769e-09	-2.833238e+01	-2.306675e+02
1.110000e-06	-3.832811e-06	-3.542139e-09	-2.800500e+01	-2.298477e+02
1.120000e-06	-3.787742e-06	-3.524474e-09	-2.767570e+01	-2.290065e+02
1.130000e-06	-3.742387e-06	-3.507508e-09	-2.734430e+01	-2.281417e+02
1.140000e-06	-3.696745e-06	-3.490463e-09	-2.701081e+01	-2.272514e+02
1.150000e-06	-3.650838e-06	-3.470378e-09	-2.667539e+01	-2.263337e+02
1.160000e-06	-3.604696e-06	-3.452441e-09	-2.633824e+01	-2.253871e+02
1.170000e-06	-3.558375e-06	-3.436487e-09	-2.599979e+01	-2.244101e+02
1.180000e-06	-3.511811e-06	-3.422080e-09	-2.565956e+01	-2.234014e+02
1.190000e-06	-3.465010e-06	-3.406984e-09	-2.531760e+01	-2.223600e+02
1.200000e-06	-3.418026e-06	-3.390992e-09	-2.497431e+01	-2.212851e+02
1.210000e-06	-3.370758e-06	-3.373711e-09	-2.462894e+01	-2.201760e+02
1.220000e-06	-3.323217e-06	-3.354426e-09	-2.428158e+01	-2.190325e+02
1.230000e-06	-3.275465e-06	-3.332678e-09	-2.393267e+01	-2.178545e+02
1.240000e-06	-3.227479e-06	-3.311107e-09	-2.358205e+01	-2.166422e+02
1.250000e-06	-3.179315e-06	-3.289852e-09	-2.323014e+01	-2.153958e+02
1.260000e-06	-3.130928e-06	-3.270969e-09	-2.287658e+01	-2.141162e+02
1.270000e-06	-3.082187e-06	-3.254082e-09	-2.252045e+01	-2.128041e+02
1.280000e-06	-3.033177e-06	-3.234952e-09	-2.216236e+01	-2.114607e+02
1.290000e-06	-2.983869e-06	-3.216110e-09	-2.180207e+01	-2.100870e+02
1.300000e-06	-2.934227e-06	-3.199157e-09	-2.143936e+01	-2.086846e+02
1.310000e-06	-2.884403e-06	-3.179338e-09	-2.107531e+01	-2.072549e+02
1.320000e-06	-2.834391e-06	-3.154602e-09	-2.070989e+01	-2.057996e+02
1.330000e-06	-2.784065e-06	-3.130235e-09	-2.034218e+01	-2.043203e+02
1.340000e-06	-2.733282e-06	-3.106199e-09	-1.997113e+01	-2.028186e+02
1.350000e-06	-2.682133e-06	-3.080945e-09	-1.959740e+01	-2.012964e+02
1.360000e-06	-2.630773e-06	-3.053979e-09	-1.922213e+01	-1.997550e+02
1.370000e-06	-2.579213e-06	-3.028683e-09	-1.884540e+01	-1.981962e+02
1.380000e-06	-2.527472e-06	-3.008353e-09	-1.846735e+01	-1.966212e+02
1.390000e-06	-2.475502e-06	-2.989789e-09	-1.808762e+01	-1.950313e+02
1.400000e-06	-2.423378e-06	-2.966102e-09	-1.770677e+01	-1.934274e+02
1.410000e-06	-2.371116e-06	-2.940119e-09	-1.732491e+01	-1.918103e+02
1.420000e-06	-2.318665e-06	-2.915590e-09	-1.694167e+01	-1.901804e+02
1.430000e-06	-2.266105e-06	-2.888983e-09	-1.655763e+01	-1.885377e+02
1.440000e-06	-2.213425e-06	-2.857979e-09	-1.617272e+01	-1.868820e+02
1.450000e-06	-2.160555e-06	-2.827183e-09	-1.578641e+01	-1.852127e+02
1.460000e-06	-2.107516e-06	-2.799218e-09	-1.539887e+01	-1.835286e+02
1.470000e-06	-2.054350e-06	-2.772284e-09	-1.501041e+01	-1.818283e+02
1.480000e-06	-2.001030e-06	-2.744135e-09	-1.462082e+01	-1.801098e+02
1.490000e-06	-1.947529e-06	-2.713882e-09	-1.422991e+01	-1.783706e+02
1.500000e-06	-1.893883e-06	-2.683088e-09	-1.383793e+01	-1.766078e+02
1.510000e-06	-1.840150e-06	-2.652475e-09	-1.344533e+01	-1.748181e+02
1.520000e-06	-1.786280e-06	-2.621651e-09	-1.305172e+01	-1.729976e+02
1.530000e-06	-1.732268e-06	-2.589215e-09	-1.265707e+01	-1.711420e+02
1.540000e-06	-1.678165e-06	-2.556437e-09	-1.226176e+01	-1.692466e+02
1.550000e-06	-1.623957e-06	-2.525487e-09	-1.186568e+01	-1.673061e+02
1.560000e-06	-1.569611e-06	-2.491482e-09	-1.146859e+01	-1.653150e+02
1.570000e-06	-1.515162e-06	-2.453537e-09	-1.107076e+01	-1.632675e+02
1.580000e-06	-1.460616e-06	-2.415988e-09	-1.067220e+01	-1.611573e+02
1.590000e-06	-1.405905e-06	-2.380332e-09	-1.027245e+01	-1.589778e+02
1.600000e-06	-1.351118e-06	-2.343875e-09	-9.872145e+00	-1.567224e+02
1.610000e-06	-1.296251e-06	-2.303891e-09	-9.471251e+00	-1.543842e+02
1.620000e-06	-1.241235e-06	-2.261040e-09	-9.069267e+00	-1.519561e+02
1.630000e-06	-1.186124e-06	-2.218047e-09	-8.666592e+00	-1.494310e+02
1.640000e-06	-1.130963e-06	-2.177721e-09	-8.263545e+00	-1.468020e+02
1.650000e-06	-1.075793e-06	-2.133250e-09	-7.860442e+00	-1.440620e+02
1.660000e-06	-1.020542e-06	-2.085515e-09	-7.456738e+00	-1.412042e+02
1.670000e-06	-9.651567e-07	-2.038442e-09	-7.052060e+00	-1.382220e+02
1.680000e-06	-9.097301e-07	-1.991113e-09	-6.647077e+00	-1.351091e+02
1.690000e-06	-8.542757e-07	-1.943037e-09	-6.241891e+00	-1.318594e+02
1.700000e-06	-7.988151e-07	-1.892101e-09	-5.836660e+00	-1.284674e+02
1.710000e-06	-7.433460e-07	-1.841167e-09	-5.431367e+00	-1.249280e+02
1.720000e-06	-6.878395e-07	-1.787488e-09	-5.025801e+00	-1.212366e+02
1.730000e-06	-6.322968e-07	-1.729291e-09	-4.619970e+00	-1.173894e+02
1.740000e-06	-5.767580e-07	-1.667273e-09	-4.214167e+00	-1.133831e+02
1.750000e-06	-5.212414e-07	-1.602103e-09	-3.808527e+00	-1.092151e+02
1.760000e-06	-4.656711e-07	-1.536169e-09	-3.402494e+00	-1.048836e+02
1.770000e-06	-4.099983e-07	-1.470023e-09	-2.995713e+00	-1.003878e+02
1.780000e-06	-3.543178e-07	-1.400309e-09	-2.588875e+00	-9.572733e+01
1.790000e-06	-2.986558e-07	-1.330189e-09	-2.182173e+00	-9.090308e+01
1.800000e-06	-2.429306e-07	-1.260644e-09	-1.775008e+00	-8.591663e+01
1.810000e-06	-1.871812e-07	-1.187559e-09	-1.367667e+00	-8.077054e+01
1.820000e-06	-1.314410e-07	-1.109515e-09	-9.603931e-01	-7.546827e+01
1.830000e-06	-7.570034e-08	-1.027895e-09	-5.531157e-01	-7.001417e+01
1.840000e-06	-1.996101e-08	-9.450899e-10	-1.458481e-01	-6.441355e+01
1.850000e-06	3.573141e-08	-8.595071e-10	2.610768e-01	-5.867257e+01
1.860000e-06	9.139809e-08	-7.702185e-10	6.678136e-01	-5.279828e+01
1.870000e-06	1.470730e-07	-6.783263e-10	1.074610e+00	-4.679857e+01
1.880000e-06	2.026986e-07	-5.868873e-10	1.481047e+00	-4.068212e+01
1.890000e-06	2.583677e-07	-4.962045e-10	1.887802e+00	-3.445838e+01
1.900000e-06	3.140539e-07	-4.023002e-10	2.294681e+00	-2.813749e+01
1.910000e-06	3.697325e-07	-3.041569e-10	2.701505e+00	-2.173027e+01
1.920000e-06	4.254505e-07	-2.051918e-10	3.108617e+00	-1.524808e+01
1.930000e-06	4.811489e-07	-1.031887e-10	3.515585e+00	-8.702811e+00
1.940000e-06	5.367613e-07	2.563114e-12	3.921926e+00	-2.106806e+00
1.950000e-06	5.923187e-07	1.078843e-10	4.327864e+00	4.527243e+00
1.960000e-06	6.478843e-07	2.120304e-10	4.733862e+00	1.118636e+01
1.970000e-06	7.033523e-07	3.183390e-10	5.139147e+00	1.785738e+01
1.980000e-06	7.587332e-07	4.259436e-10	5.543796e+00	2.452700e+01
1.990000e-06	8.140916e-07	5.322822e-10	5.948280e+00	3.118194e+01
2.000000e-06	8.694018e-07	6.346375e-10	6.352412e+00	3.780894e+01
2.010000e-06	9.246770e-07	7.365770e-10	6.756288e+00	4.439490e+01
2.020000e-06	9.799185e-07	8.403069e-10	7.159919e+00	5.092698e+01
2.030000e-06	1.035129e-06	9.455643e-10	7.563323e+00	5.739263e+01
2.040000e-06	1.090301e-06	1.047420e-09	7.966443e+00	6.377970e+01
2.050000e-06	1.145356e-06	1.143510e-09	8.368711e+00	7.007655e+01
2.060000e-06	1.200316e-06	1.239836e-09	8.770285e+00	7.627206e+01
2.070000e-06	1.255199e-06	1.335403e-09	9.171296e+00	8.235573e+01
2.080000e-06	1.309977e-06	1.425271e-09	9.571537e+00	8.831775e+01
2.090000e-06	1.364696e-06	1.508854e-09	9.971351e+00	9.414905e+01
2.100000e-06	1.419320e-06	1.591194e-09	1.037047e+01	9.984134e+01
2.110000e-06	1.473773e-06	1.674427e-09	1.076834e+01	1.053872e+02
2.120000e-06	1.528119e-06	1.755440e-09	1.116542e+01	1.107800e+02
2.130000e-06	1.582348e-06	1.830005e-09	1.156166e+01	1.160141e+02
2.140000e-06	1.636392e-06	1.900483e-09	1.195654e+01	1.210847e+02
2.150000e-06	1.690328e-06	1.971421e-09	1.235063e+01	1.259879e+02
2.160000e-06	1.744226e-06	2.041873e-09	1.274444e+01	1.307210e+02
2.170000e-06	1.797992e-06	2.109667e-09	1.313729e+01	1.352819e+02
2.180000e-06	1.851583e-06	2.170646e-09	1.352886e+01	1.396696e+02
2.190000e-06	1.905143e-06	2.229434e-09	1.392021e+01	1.438840e+02
2.200000e-06	1.958623e-06	2.287113e-09	1.431097e+01	1.479259e+02
2.210000e-06	2.011895e-06	2.338865e-09	1.470021e+01	1.517968e+02
2.220000e-06	2.064977e-06	2.386763e-09	1.508806e+01	1.554993e+02
2.230000e-06	2.117902e-06	2.434309e-09	1.547476e+01	1.590365e+02
2.240000e-06	2.170677e-06	2.482516e-09	1.586037e+01	1.624124e+02
2.250000e-06	2.223289e-06	2.528357e-09	1.624479e+01	1.656315e+02
2.260000e-06	2.275724e-06	2.570748e-09	1.662791e+01	1.686990e+02
2.270000e-06	2.328026e-06	2.611748e-09	1.701006e+01	1.716208e+02
2.280000e-06	2.380171e-06	2.653423e-09	1.739107e+01	1.744031e+02
2.290000e-06	2.432094e-06	2.692387e-09	1.777046e+01	1.770524e+02
2.300000e-06	2.483853e-06	2.725541e-09	1.814864e+01	1.795758e+02
2.310000e-06	2.535512e-06	2.757991e-09	1.852609e+01	1.819805e+02
2.320000e-06	2.587024e-06	2.795326e-09	1.890247e+01	1.842740e+02
2.330000e-06	2.638321e-06	2.831006e-09	1.927728e+01	1.864638e+02
2.340000e-06	2.689339e-06	2.859975e-09	1.965005e+01	1.885576e+02
2.350000e-06	2.740004e-06	2.887501e-09	2.002024e+01	1.905630e+02
2.360000e-06	2.790338e-06	2.918239e-09	2.038801e+01	1.924875e+02
2.370000e-06	2.840239e-06	2.949432e-09	2.075263e+01	1.943385e+02
2.380000e-06	2.889700e-06	2.978895e-09	2.111402e+01	1.961232e+02
2.390000e-06	2.938919e-06	3.005702e-09	2.147364e+01	1.978486e+02
2.400000e-06	2.987875e-06	3.032068e-09	2.183135e+01	1.995213e+02
2.410000e-06	3.036499e-06	3.058386e-09	2.218663e+01	2.011476e+02
2.420000e-06	3.084903e-06	3.083534e-09	2.254030e+01	2.027334e+02
2.430000e-06	3.133120e-06	3.107507e-09	2.289260e+01	2.042841e+02
2.440000e-06	3.181131e-06	3.130708e-09	2.324340e+01	2.058047e+02
2.450000e-06	3.228966e-06	3.154927e-09	2.359291e+01	2.072999e+02
2.460000e-06	3.276660e-06	3.178569e-09	2.394140e+01	2.087735e+02
2.470000e-06	3.324189e-06	3.200610e-09	2.428868e+01	2.102291e+02
2.480000e-06	3.371434e-06	3.222593e-09	2.463388e+01	2.116698e+02
2.490000e-06	3.418404e-06	3.245014e-09	2.497707e+01	2.130980e+02
2.500000e-06	3.465170e-06	3.265437e-09	2.531878e+01	2.145158e+02
2.510000e-06	3.511691e-06	3.284713e-09	2.565869e+01	2.159245e+02
2.520000e-06	3.557920e-06	3.304406e-09	2.599647e+01	2.173254e+02
2.530000e-06	3.603924e-06	3.322796e-09	2.633260e+01	2.187188e+02
2.540000e-06	3.649673e-06	3.340279e-09	2.666687e+01	2.201050e+02
2.550000e-06	3.695138e-06	3.358689e-09	2.699907e+01	2.214836e+02
2.560000e-06	3.740411e-06	3.378282e-09	2.732986e+01	2.228541e+02
2.570000e-06	3.785480e-06	3.399409e-09	2.765916e+01	2.242156e+02
2.580000e-06	3.830250e-06	3.419635e-09	2.798628e+01	2.255667e+02
2.590000e-06	3.874735e-06	3.437479e-09	2.831132e+01	2.269060e+02
2.600000e-06	3.919013e-06	3.453626e-09	2.863485e+01	2.282318e+02
2.610000e-06	3.963070e-06	3.470852e-09	2.895676e+01	2.295422e+02
2.620000e-06	4.006993e-06	3.489638e-09	2.927769e+01	2.308352e+02
2.630000e-06	4.050828e-06	3.506780e-09	2.959797e+01	2.321089e+02
2.640000e-06	4.094486e-06	3.521698e-09	2.991697e+01	2.333612e+02
2.650000e-06	4.137864e-06	3.537729e-09	3.023391e+01	2.345899e+02
2.660000e-06	4.180789e-06	3.556594e-09	3.054755e+01	2.357931e+02
2.670000e-06	4.223232e-06	3.574352e-09	3.085767e+01	2.369688e+02
2.680000e-06	4.265229e-06	3.588457e-09	3.116452e+01	2.381152e+02
2.690000e-06	4.306655e-06	3.603441e-09	3.146721e+01	2.392307e+02
2.700000e-06	4.347589e-06	3.621173e-09	3.176630e+01	2.403138e+02
2.710000e-06	4.388142e-06	3.636869e-09	3.206260e+01	2.413633e+02
2.720000e-06	4.428330e-06	3.648291e-09	3.235625e+01	2.423780e+02
2.730000e-06	4.468316e-06	3.660080e-09	3.264841e+01	2.433573e+02
2.740000e-06	4.508162e-06	3.674045e-09	3.293955e+01	2.443005e+02
2.750000e-06	4.547826e-06	3.688059e-09	3.322936e+01	2.452075e+02
2.760000e-06	4.587283e-06	3.700268e-09	3.351766e+01	2.460782e+02
2.770000e-06	4.626369e-06	3.712036e-09	3.380325e+01	2.469129e+02
2.780000e-06	4.665055e-06	3.726146e-09	3.408591e+01	2.477122e+02
2.790000e-06	4.703439e-06	3.740265e-09	3.436637e+01	2.484768e+02
2.800000e-06	4.741461e-06	3.752278e-09	3.464418e+01	2.492079e+02
2.810000e-06	4.779171e-06	3.764801e-09	3.491972e+01	2.499066e+02
2.820000e-06	4.816617e-06	3.778569e-09	3.519332e+01	2.505746e+02
2.830000e-06	4.853667e-06	3.789481e-09	3.546403e+01	2.512134e+02
2.840000e-06	4.890360e-06	3.799116e-09	3.573214e+01	2.518251e+02
2.850000e-06	4.926810e-06	3.810496e-09	3.599846e+01	2.524115e+02
2.860000e-06	4.962975e-06	3.822966e-09	3.626271e+01	2.529749e+02
2.870000e-06	4.998939e-06	3.834879e-09	3.652548e+01	2.535175e+02
2.880000e-06	5.034780e-06	3.846462e-09	3.678736e+01	2.540415e+02
2.890000e-06	5.070391e-06	3.857123e-09	3.704756e+01	2.545493e+02
2.900000e-06	5.105565e-06	3.867125e-09	3.730457e+01	2.550432e+02
