# Temperatura_=_20.0
# Concentracion g/m^3_=_9000.0
# C_Vs_to_Am_M_A/Vsm_=_65563218390.804596
# pendiente_HvsI_1/m_=_3716.3
# ordenada_HvsI_A/m_=_1297.0
# frecuencia_Hz_=_135341.9626714329

Tiempo_(s)	Campo_(V.s)	Magnetizacion_(V.s)	Campo_(kA/m)	Magnetizacion_(A/m)
0.000000e+00	-6.513101e-06	-3.874654e-09	-4.773403e+01	-2.713079e+02
1.000000e-08	-6.513437e-06	-3.877296e-09	-4.773649e+01	-2.713559e+02
2.000000e-08	-6.513424e-06	-3.876890e-09	-4.773640e+01	-2.713913e+02
3.000000e-08	-6.512990e-06	-3.876213e-09	-4.773322e+01	-2.714127e+02
4.000000e-08	-6.511981e-06	-3.874270e-09	-4.772583e+01	-2.714191e+02
5.000000e-08	-6.510273e-06	-3.871757e-09	-4.771331e+01	-2.714092e+02
6.000000e-08	-6.507916e-06	-3.868890e-09	-4.769603e+01	-2.713823e+02
7.000000e-08	-6.505004e-06	-3.862730e-09	-4.767469e+01	-2.713373e+02
8.000000e-08	-6.501658e-06	-3.852111e-09	-4.765017e+01	-2.712737e+02
9.000000e-08	-6.497924e-06	-3.874871e-09	-4.762280e+01	-2.711910e+02
1.000000e-07	-6.493635e-06	-3.925372e-09	-4.759137e+01	-2.710886e+02
1.100000e-07	-6.488647e-06	-3.932310e-09	-4.755481e+01	-2.709665e+02
1.200000e-07	-6.483118e-06	-3.826415e-09	-4.751429e+01	-2.708247e+02
1.300000e-07	-6.477260e-06	-3.781513e-09	-4.747136e+01	-2.706632e+02
1.400000e-07	-6.471151e-06	-3.872577e-09	-4.742658e+01	-2.704825e+02
1.500000e-07	-6.464621e-06	-3.982563e-09	-4.737873e+01	-2.702830e+02
1.600000e-07	-6.457553e-06	-3.885204e-09	-4.732692e+01	-2.700655e+02
1.700000e-07	-6.450155e-06	-3.808310e-09	-4.727270e+01	-2.698307e+02
1.800000e-07	-6.442475e-06	-3.889635e-09	-4.721642e+01	-2.695798e+02
1.900000e-07	-6.434461e-06	-3.956890e-09	-4.715769e+01	-2.693139e+02
2.000000e-07	-6.426160e-06	-3.962062e-09	-4.709685e+01	-2.690342e+02
2.100000e-07	-6.417519e-06	-3.873252e-09	-4.703352e+01	-2.687422e+02
2.200000e-07	-6.408136e-06	-3.801007e-09	-4.696475e+01	-2.684393e+02
2.300000e-07	-6.397890e-06	-3.789787e-09	-4.688966e+01	-2.681272e+02
2.400000e-07	-6.387101e-06	-3.933218e-09	-4.681059e+01	-2.678075e+02
2.500000e-07	-6.375738e-06	-3.926259e-09	-4.672731e+01	-2.674820e+02
2.600000e-07	-6.363698e-06	-3.753601e-09	-4.663907e+01	-2.671522e+02
2.700000e-07	-6.351085e-06	-3.755656e-09	-4.654663e+01	-2.668199e+02
2.800000e-07	-6.338041e-06	-4.001092e-09	-4.645103e+01	-2.664868e+02
2.900000e-07	-6.324518e-06	-4.040419e-09	-4.635192e+01	-2.661546e+02
3.000000e-07	-6.310433e-06	-3.876101e-09	-4.624870e+01	-2.658248e+02
3.100000e-07	-6.295721e-06	-3.948037e-09	-4.614087e+01	-2.654988e+02
3.200000e-07	-6.280321e-06	-4.177966e-09	-4.602801e+01	-2.651782e+02
3.300000e-07	-6.264236e-06	-4.131434e-09	-4.591012e+01	-2.648640e+02
3.400000e-07	-6.247726e-06	-4.055441e-09	-4.578912e+01	-2.645575e+02
3.500000e-07	-6.230912e-06	-4.140024e-09	-4.566589e+01	-2.642596e+02
3.600000e-07	-6.213652e-06	-4.104556e-09	-4.553940e+01	-2.639711e+02
3.700000e-07	-6.196045e-06	-4.028651e-09	-4.541035e+01	-2.636926e+02
3.800000e-07	-6.178188e-06	-4.151443e-09	-4.527948e+01	-2.634245e+02
3.900000e-07	-6.159908e-06	-4.180334e-09	-4.514551e+01	-2.631670e+02
4.000000e-07	-6.141015e-06	-4.040331e-09	-4.500704e+01	-2.629201e+02
4.100000e-07	-6.121670e-06	-4.145931e-09	-4.486526e+01	-2.626838e+02
4.200000e-07	-6.102021e-06	-4.325454e-09	-4.472126e+01	-2.624576e+02
4.300000e-07	-6.082038e-06	-4.243127e-09	-4.457481e+01	-2.622409e+02
4.400000e-07	-6.061681e-06	-4.135629e-09	-4.442561e+01	-2.620330e+02
4.500000e-07	-6.041010e-06	-4.283718e-09	-4.427411e+01	-2.618330e+02
4.600000e-07	-6.020025e-06	-4.373868e-09	-4.412031e+01	-2.616397e+02
4.700000e-07	-5.998570e-06	-4.266151e-09	-4.396307e+01	-2.614519e+02
4.800000e-07	-5.976672e-06	-4.188004e-09	-4.380258e+01	-2.612682e+02
4.900000e-07	-5.954414e-06	-4.290851e-09	-4.363946e+01	-2.610870e+02
5.000000e-07	-5.931751e-06	-4.318818e-09	-4.347336e+01	-2.609068e+02
5.100000e-07	-5.908618e-06	-4.236133e-09	-4.330382e+01	-2.607258e+02
5.200000e-07	-5.885149e-06	-4.221132e-09	-4.313182e+01	-2.605423e+02
5.300000e-07	-5.861421e-06	-4.286121e-09	-4.295792e+01	-2.603544e+02
5.400000e-07	-5.837223e-06	-4.252044e-09	-4.278057e+01	-2.601602e+02
5.500000e-07	-5.812520e-06	-4.219897e-09	-4.259953e+01	-2.599581e+02
5.600000e-07	-5.787382e-06	-4.254756e-09	-4.241529e+01	-2.597461e+02
5.700000e-07	-5.761686e-06	-4.228691e-09	-4.222697e+01	-2.595226e+02
5.800000e-07	-5.735335e-06	-4.171870e-09	-4.203384e+01	-2.592858e+02
5.900000e-07	-5.708449e-06	-4.222603e-09	-4.183680e+01	-2.590342e+02
6.000000e-07	-5.681122e-06	-4.239370e-09	-4.163652e+01	-2.587662e+02
6.100000e-07	-5.653471e-06	-4.157784e-09	-4.143387e+01	-2.584806e+02
6.200000e-07	-5.625604e-06	-4.154762e-09	-4.122963e+01	-2.581761e+02
6.300000e-07	-5.597463e-06	-4.215024e-09	-4.102339e+01	-2.578517e+02
6.400000e-07	-5.568949e-06	-4.191535e-09	-4.081442e+01	-2.575066e+02
6.500000e-07	-5.539955e-06	-4.127674e-09	-4.060191e+01	-2.571400e+02
6.600000e-07	-5.510555e-06	-4.132471e-09	-4.038645e+01	-2.567515e+02
6.700000e-07	-5.480810e-06	-4.154133e-09	-4.016845e+01	-2.563408e+02
6.800000e-07	-5.450620e-06	-4.143481e-09	-3.994719e+01	-2.559078e+02
6.900000e-07	-5.420051e-06	-4.107879e-09	-3.972315e+01	-2.554526e+02
7.000000e-07	-5.389141e-06	-4.105408e-09	-3.949661e+01	-2.549755e+02
7.100000e-07	-5.357911e-06	-4.117131e-09	-3.926773e+01	-2.544769e+02
7.200000e-07	-5.326408e-06	-4.114082e-09	-3.903685e+01	-2.539576e+02
7.300000e-07	-5.294636e-06	-4.093582e-09	-3.880399e+01	-2.534184e+02
7.400000e-07	-5.262618e-06	-4.087541e-09	-3.856934e+01	-2.528603e+02
7.500000e-07	-5.230231e-06	-4.067642e-09	-3.833197e+01	-2.522843e+02
7.600000e-07	-5.197402e-06	-4.058461e-09	-3.809137e+01	-2.516918e+02
7.700000e-07	-5.164122e-06	-4.067712e-09	-3.784747e+01	-2.510842e+02
7.800000e-07	-5.130307e-06	-4.057747e-09	-3.759964e+01	-2.504628e+02
7.900000e-07	-5.095831e-06	-4.020260e-09	-3.734696e+01	-2.498291e+02
8.000000e-07	-5.060884e-06	-4.025899e-09	-3.709084e+01	-2.491848e+02
8.100000e-07	-5.025612e-06	-4.046303e-09	-3.683234e+01	-2.485312e+02
8.200000e-07	-4.989955e-06	-4.023209e-09	-3.657101e+01	-2.478701e+02
8.300000e-07	-4.954024e-06	-3.985549e-09	-3.630768e+01	-2.472029e+02
8.400000e-07	-4.917891e-06	-3.988212e-09	-3.604285e+01	-2.465310e+02
8.500000e-07	-4.881461e-06	-3.995029e-09	-3.577586e+01	-2.458558e+02
8.600000e-07	-4.844635e-06	-3.972740e-09	-3.550597e+01	-2.451786e+02
8.700000e-07	-4.807466e-06	-3.949441e-09	-3.523356e+01	-2.445006e+02
8.800000e-07	-4.770035e-06	-3.942604e-09	-3.495923e+01	-2.438226e+02
8.900000e-07	-4.732283e-06	-3.936978e-09	-3.468255e+01	-2.431456e+02
9.000000e-07	-4.694174e-06	-3.925147e-09	-3.440325e+01	-2.424702e+02
9.100000e-07	-4.655748e-06	-3.913606e-09	-3.412163e+01	-2.417969e+02
9.200000e-07	-4.616926e-06	-3.897213e-09	-3.383711e+01	-2.411260e+02
9.300000e-07	-4.577759e-06	-3.883348e-09	-3.355005e+01	-2.404574e+02
9.400000e-07	-4.538364e-06	-3.873312e-09	-3.326133e+01	-2.397912e+02
9.500000e-07	-4.498807e-06	-3.862428e-09	-3.297142e+01	-2.391268e+02
9.600000e-07	-4.458982e-06	-3.839023e-09	-3.267954e+01	-2.384638e+02
9.700000e-07	-4.418860e-06	-3.817920e-09	-3.238550e+01	-2.378014e+02
9.800000e-07	-4.378519e-06	-3.806089e-09	-3.208984e+01	-2.371385e+02
9.900000e-07	-4.337823e-06	-3.799456e-09	-3.179158e+01	-2.364740e+02
1.000000e-06	-4.296674e-06	-3.782113e-09	-3.149001e+01	-2.358065e+02
1.010000e-06	-4.255088e-06	-3.766829e-09	-3.118523e+01	-2.351345e+02
1.020000e-06	-4.213072e-06	-3.757555e-09	-3.087729e+01	-2.344563e+02
1.030000e-06	-4.170637e-06	-3.745256e-09	-3.056629e+01	-2.337702e+02
1.040000e-06	-4.127822e-06	-3.723066e-09	-3.025250e+01	-2.330741e+02
1.050000e-06	-4.084685e-06	-3.706228e-09	-2.993635e+01	-2.323662e+02
1.060000e-06	-4.041297e-06	-3.691846e-09	-2.961837e+01	-2.316443e+02
1.070000e-06	-3.997672e-06	-3.674884e-09	-2.929864e+01	-2.309064e+02
1.080000e-06	-3.953808e-06	-3.655895e-09	-2.897717e+01	-2.301504e+02
1.090000e-06	-3.909631e-06	-3.644857e-09	-2.865340e+01	-2.293743e+02
1.100000e-06	-3.865127e-06	-3.634185e-09	-2.832723e+01	-2.285759e+02
1.110000e-06	-3.820389e-06	-3.616099e-09	-2.799935e+01	-2.277535e+02
1.120000e-06	-3.775439e-06	-3.597748e-09	-2.766991e+01	-2.269051e+02
1.130000e-06	-3.730265e-06	-3.584989e-09	-2.733883e+01	-2.260291e+02
1.140000e-06	-3.684823e-06	-3.568555e-09	-2.700579e+01	-2.251238e+02
1.150000e-06	-3.639126e-06	-3.546747e-09	-2.667088e+01	-2.241879e+02
1.160000e-06	-3.593184e-06	-3.526866e-09	-2.633418e+01	-2.232202e+02
1.170000e-06	-3.546986e-06	-3.507448e-09	-2.599560e+01	-2.222197e+02
1.180000e-06	-3.500544e-06	-3.489655e-09	-2.565522e+01	-2.211857e+02
1.190000e-06	-3.453832e-06	-3.471239e-09	-2.531288e+01	-2.201175e+02
1.200000e-06	-3.406836e-06	-3.453257e-09	-2.496845e+01	-2.190150e+02
1.210000e-06	-3.359598e-06	-3.433247e-09	-2.462225e+01	-2.178779e+02
1.220000e-06	-3.312188e-06	-3.413903e-09	-2.427478e+01	-2.167066e+02
1.230000e-06	-3.264513e-06	-3.394029e-09	-2.392537e+01	-2.155014e+02
1.240000e-06	-3.216568e-06	-3.374528e-09	-2.357398e+01	-2.142630e+02
1.250000e-06	-3.168506e-06	-3.352144e-09	-2.322174e+01	-2.129922e+02
1.260000e-06	-3.120231e-06	-3.329783e-09	-2.286794e+01	-2.116902e+02
1.270000e-06	-3.071640e-06	-3.310819e-09	-2.251182e+01	-2.103582e+02
1.280000e-06	-3.022714e-06	-3.291617e-09	-2.215325e+01	-2.089976e+02
1.290000e-06	-2.973479e-06	-3.268911e-09	-2.179240e+01	-2.076100e+02
1.300000e-06	-2.924003e-06	-3.247577e-09	-2.142980e+01	-2.061970e+02
1.310000e-06	-2.874295e-06	-3.227099e-09	-2.106549e+01	-2.047605e+02
1.320000e-06	-2.824340e-06	-3.205147e-09	-2.069937e+01	-2.033022e+02
1.330000e-06	-2.774071e-06	-3.181110e-09	-2.033096e+01	-2.018240e+02
1.340000e-06	-2.723430e-06	-3.157806e-09	-1.995982e+01	-2.003276e+02
1.350000e-06	-2.672477e-06	-3.134069e-09	-1.958639e+01	-1.988148e+02
1.360000e-06	-2.621264e-06	-3.110249e-09	-1.921105e+01	-1.972871e+02
1.370000e-06	-2.569800e-06	-3.087268e-09	-1.883387e+01	-1.957462e+02
1.380000e-06	-2.518184e-06	-3.064299e-09	-1.845558e+01	-1.941931e+02
1.390000e-06	-2.466402e-06	-3.040313e-09	-1.807608e+01	-1.926292e+02
1.400000e-06	-2.414383e-06	-3.017188e-09	-1.769483e+01	-1.910550e+02
1.410000e-06	-2.362196e-06	-2.993788e-09	-1.731236e+01	-1.894713e+02
1.420000e-06	-2.309873e-06	-2.968736e-09	-1.692889e+01	-1.878781e+02
1.430000e-06	-2.257405e-06	-2.942329e-09	-1.654436e+01	-1.862753e+02
1.440000e-06	-2.204804e-06	-2.913772e-09	-1.615884e+01	-1.846624e+02
1.450000e-06	-2.152094e-06	-2.884334e-09	-1.577253e+01	-1.830384e+02
1.460000e-06	-2.099252e-06	-2.855713e-09	-1.538526e+01	-1.814018e+02
1.470000e-06	-2.046278e-06	-2.827118e-09	-1.499702e+01	-1.797509e+02
1.480000e-06	-1.993143e-06	-2.797730e-09	-1.460760e+01	-1.780833e+02
1.490000e-06	-1.939778e-06	-2.766327e-09	-1.421649e+01	-1.763963e+02
1.500000e-06	-1.886257e-06	-2.733740e-09	-1.382424e+01	-1.746867e+02
1.510000e-06	-1.832644e-06	-2.704269e-09	-1.343131e+01	-1.729506e+02
1.520000e-06	-1.778921e-06	-2.674549e-09	-1.303758e+01	-1.711841e+02
1.530000e-06	-1.725056e-06	-2.641254e-09	-1.264280e+01	-1.693825e+02
1.540000e-06	-1.671066e-06	-2.607161e-09	-1.224712e+01	-1.675407e+02
1.550000e-06	-1.616939e-06	-2.577345e-09	-1.185042e+01	-1.656535e+02
1.560000e-06	-1.562643e-06	-2.547233e-09	-1.145249e+01	-1.637149e+02
1.570000e-06	-1.508258e-06	-2.510564e-09	-1.105391e+01	-1.617190e+02
1.580000e-06	-1.453891e-06	-2.469855e-09	-1.065546e+01	-1.596594e+02
1.590000e-06	-1.399432e-06	-2.430524e-09	-1.025633e+01	-1.575295e+02
1.600000e-06	-1.344852e-06	-2.392037e-09	-9.856318e+00	-1.553224e+02
1.610000e-06	-1.290208e-06	-2.350416e-09	-9.455838e+00	-1.530313e+02
1.620000e-06	-1.235451e-06	-2.305768e-09	-9.054528e+00	-1.506491e+02
1.630000e-06	-1.180602e-06	-2.261607e-09	-8.652543e+00	-1.481688e+02
1.640000e-06	-1.125681e-06	-2.219598e-09	-8.250035e+00	-1.455835e+02
1.650000e-06	-1.070665e-06	-2.176733e-09	-7.846828e+00	-1.428864e+02
1.660000e-06	-1.015549e-06	-2.128924e-09	-7.442886e+00	-1.400706e+02
1.670000e-06	-9.604015e-07	-2.080806e-09	-7.038711e+00	-1.371299e+02
1.680000e-06	-9.052874e-07	-2.033576e-09	-6.634784e+00	-1.340581e+02
1.690000e-06	-8.501409e-07	-1.982007e-09	-6.230619e+00	-1.308494e+02
1.700000e-06	-7.948750e-07	-1.925832e-09	-5.825580e+00	-1.274985e+02
1.710000e-06	-7.395393e-07	-1.871157e-09	-5.420028e+00	-1.240007e+02
1.720000e-06	-6.842178e-07	-1.816751e-09	-5.014582e+00	-1.203516e+02
1.730000e-06	-6.288670e-07	-1.759748e-09	-4.608920e+00	-1.165478e+02
1.740000e-06	-5.734455e-07	-1.700803e-09	-4.202739e+00	-1.125861e+02
1.750000e-06	-5.180063e-07	-1.639124e-09	-3.796429e+00	-1.084645e+02
1.760000e-06	-4.625613e-07	-1.576294e-09	-3.390077e+00	-1.041813e+02
1.770000e-06	-4.070996e-07	-1.511297e-09	-2.983603e+00	-9.973596e+01
1.780000e-06	-3.515664e-07	-1.440836e-09	-2.576604e+00	-9.512860e+01
1.790000e-06	-2.959239e-07	-1.367873e-09	-2.168804e+00	-9.036022e+01
1.800000e-06	-2.402477e-07	-1.295933e-09	-1.760757e+00	-8.543268e+01
1.810000e-06	-1.846455e-07	-1.220727e-09	-1.353253e+00	-8.034874e+01
1.820000e-06	-1.291229e-07	-1.141821e-09	-9.463325e-01	-7.511204e+01
1.830000e-06	-7.362948e-08	-1.061612e-09	-5.396250e-01	-6.972711e+01
1.840000e-06	-1.810123e-08	-9.819410e-10	-1.326626e-01	-6.419934e+01
1.850000e-06	3.743926e-08	-9.008812e-10	2.743896e-01	-5.853497e+01
1.860000e-06	9.296358e-08	-8.134268e-10	6.813231e-01	-5.274110e+01
1.870000e-06	1.485032e-07	-7.208813e-10	1.088369e+00	-4.682559e+01
1.880000e-06	2.040633e-07	-6.286899e-10	1.495565e+00	-4.079708e+01
1.890000e-06	2.596374e-07	-5.384084e-10	1.902863e+00	-3.466493e+01
1.900000e-06	3.152128e-07	-4.445238e-10	2.310171e+00	-2.843914e+01
1.910000e-06	3.707739e-07	-3.444724e-10	2.717375e+00	-2.213033e+01
1.920000e-06	4.262756e-07	-2.442419e-10	3.124142e+00	-1.574966e+01
1.930000e-06	4.817933e-07	-1.453866e-10	3.531027e+00	-9.308760e+00
1.940000e-06	5.372956e-07	-4.536950e-11	3.937799e+00	-2.819665e+00
1.950000e-06	5.926914e-07	5.701319e-11	4.343791e+00	3.705263e+00
1.960000e-06	6.480922e-07	1.598138e-10	4.749820e+00	1.025341e+01
1.970000e-06	7.034600e-07	2.631153e-10	5.155606e+00	1.681200e+01
1.980000e-06	7.586842e-07	3.670609e-10	5.560340e+00	2.336816e+01
1.990000e-06	8.138616e-07	4.715247e-10	5.964731e+00	2.990903e+01
2.000000e-06	8.690346e-07	5.762167e-10	6.369090e+00	3.642180e+01
2.010000e-06	9.241497e-07	6.784692e-10	6.773025e+00	4.289385e+01
2.020000e-06	9.792525e-07	7.793347e-10	7.176869e+00	4.931280e+01
2.030000e-06	1.034298e-06	8.805770e-10	7.580291e+00	5.566655e+01
2.040000e-06	1.089230e-06	9.797304e-10	7.982887e+00	6.194346e+01
2.050000e-06	1.144091e-06	1.075351e-09	8.384959e+00	6.813230e+01
2.060000e-06	1.198941e-06	1.168264e-09	8.786947e+00	7.422242e+01
2.070000e-06	1.253678e-06	1.259597e-09	9.188111e+00	8.020375e+01
2.080000e-06	1.308227e-06	1.349997e-09	9.587900e+00	8.606687e+01
2.090000e-06	1.362677e-06	1.438895e-09	9.986955e+00	9.180311e+01
2.100000e-06	1.417095e-06	1.525399e-09	1.038578e+01	9.740451e+01
2.110000e-06	1.471438e-06	1.609470e-09	1.078406e+01	1.028640e+02
2.120000e-06	1.525643e-06	1.691290e-09	1.118133e+01	1.081751e+02
2.130000e-06	1.579677e-06	1.767116e-09	1.157733e+01	1.133326e+02
2.140000e-06	1.633616e-06	1.838190e-09	1.197265e+01	1.183318e+02
2.150000e-06	1.687521e-06	1.908161e-09	1.236772e+01	1.231690e+02
2.160000e-06	1.741337e-06	1.975590e-09	1.276213e+01	1.278415e+02
2.170000e-06	1.795021e-06	2.039690e-09	1.315557e+01	1.323474e+02
2.180000e-06	1.848519e-06	2.102033e-09	1.354765e+01	1.366857e+02
2.190000e-06	1.901905e-06	2.162110e-09	1.393892e+01	1.408562e+02
2.200000e-06	1.955175e-06	2.221552e-09	1.432933e+01	1.448596e+02
2.210000e-06	2.008307e-06	2.276577e-09	1.471873e+01	1.486975e+02
2.220000e-06	2.061321e-06	2.326624e-09	1.510727e+01	1.523721e+02
2.230000e-06	2.114175e-06	2.374705e-09	1.549463e+01	1.558865e+02
2.240000e-06	2.166816e-06	2.423923e-09	1.588043e+01	1.592443e+02
2.250000e-06	2.219272e-06	2.471262e-09	1.626488e+01	1.624499e+02
2.260000e-06	2.271622e-06	2.511403e-09	1.664855e+01	1.655082e+02
2.270000e-06	2.323854e-06	2.549434e-09	1.703135e+01	1.684247e+02
2.280000e-06	2.375817e-06	2.589685e-09	1.741219e+01	1.712052e+02
2.290000e-06	2.427545e-06	2.630265e-09	1.779130e+01	1.738560e+02
2.300000e-06	2.479219e-06	2.667922e-09	1.817001e+01	1.763838e+02
2.310000e-06	2.530755e-06	2.704149e-09	1.854772e+01	1.787954e+02
2.320000e-06	2.582101e-06	2.739821e-09	1.892403e+01	1.810978e+02
2.330000e-06	2.633231e-06	2.774245e-09	1.929875e+01	1.832984e+02
2.340000e-06	2.683994e-06	2.806719e-09	1.967080e+01	1.854042e+02
2.350000e-06	2.734325e-06	2.837096e-09	2.003966e+01	1.874226e+02
2.360000e-06	2.784357e-06	2.867628e-09	2.040635e+01	1.893607e+02
2.370000e-06	2.834148e-06	2.898599e-09	2.077126e+01	1.912255e+02
2.380000e-06	2.883566e-06	2.927492e-09	2.113344e+01	1.930241e+02
2.390000e-06	2.932639e-06	2.953388e-09	2.149309e+01	1.947629e+02
2.400000e-06	2.981422e-06	2.979064e-09	2.185062e+01	1.964483e+02
2.410000e-06	3.029869e-06	3.007581e-09	2.220568e+01	1.980864e+02
2.420000e-06	3.078131e-06	3.036559e-09	2.255939e+01	1.996828e+02
2.430000e-06	3.126265e-06	3.065068e-09	2.291217e+01	2.012428e+02
2.440000e-06	3.174145e-06	3.091659e-09	2.326307e+01	2.027713e+02
2.450000e-06	3.221824e-06	3.118115e-09	2.361251e+01	2.042725e+02
2.460000e-06	3.269330e-06	3.143268e-09	2.396068e+01	2.057505e+02
2.470000e-06	3.316614e-06	3.167078e-09	2.430722e+01	2.072088e+02
2.480000e-06	3.363657e-06	3.189323e-09	2.465199e+01	2.086502e+02
2.490000e-06	3.410499e-06	3.208492e-09	2.499530e+01	2.100773e+02
2.500000e-06	3.457154e-06	3.229038e-09	2.533722e+01	2.114921e+02
2.510000e-06	3.503575e-06	3.252936e-09	2.567744e+01	2.128962e+02
2.520000e-06	3.549759e-06	3.277130e-09	2.601592e+01	2.142905e+02
2.530000e-06	3.595679e-06	3.299236e-09	2.635246e+01	2.156759e+02
2.540000e-06	3.641376e-06	3.319834e-09	2.668738e+01	2.170526e+02
2.550000e-06	3.686845e-06	3.340567e-09	2.702061e+01	2.184204e+02
2.560000e-06	3.731981e-06	3.360669e-09	2.735141e+01	2.197788e+02
2.570000e-06	3.776816e-06	3.380064e-09	2.768000e+01	2.211271e+02
2.580000e-06	3.821387e-06	3.400795e-09	2.800666e+01	2.224642e+02
2.590000e-06	3.865758e-06	3.420415e-09	2.833185e+01	2.237888e+02
2.600000e-06	3.909933e-06	3.437347e-09	2.865560e+01	2.250993e+02
2.610000e-06	3.953902e-06	3.454355e-09	2.897785e+01	2.263941e+02
2.620000e-06	3.997675e-06	3.472423e-09	2.929866e+01	2.276713e+02
2.630000e-06	4.041280e-06	3.488938e-09	2.961824e+01	2.289290e+02
2.640000e-06	4.084716e-06	3.504697e-09	2.993658e+01	2.301654e+02
2.650000e-06	4.127860e-06	3.522022e-09	3.025278e+01	2.313784e+02
2.660000e-06	4.170683e-06	3.541923e-09	3.056662e+01	2.325661e+02
2.670000e-06	4.213050e-06	3.560199e-09	3.087713e+01	2.337268e+02
2.680000e-06	4.254821e-06	3.574610e-09	3.118326e+01	2.348585e+02
2.690000e-06	4.296081e-06	3.589565e-09	3.148566e+01	2.359598e+02
2.700000e-06	4.336959e-06	3.606174e-09	3.178525e+01	2.370292e+02
2.710000e-06	4.377467e-06	3.620566e-09	3.208213e+01	2.380653e+02
2.720000e-06	4.417628e-06	3.631925e-09	3.237647e+01	2.390671e+02
2.730000e-06	4.457513e-06	3.643085e-09	3.266878e+01	2.400338e+02
2.740000e-06	4.497143e-06	3.655687e-09	3.295923e+01	2.409648e+02
2.750000e-06	4.536570e-06	3.668022e-09	3.324818e+01	2.418596e+02
2.760000e-06	4.575737e-06	3.680988e-09	3.353523e+01	2.427181e+02
2.770000e-06	4.614602e-06	3.696173e-09	3.382007e+01	2.435406e+02
2.780000e-06	4.653149e-06	3.711041e-09	3.410258e+01	2.443272e+02
2.790000e-06	4.691368e-06	3.723340e-09	3.438269e+01	2.450788e+02
2.800000e-06	4.729309e-06	3.735568e-09	3.466076e+01	2.457960e+02
2.810000e-06	4.766868e-06	3.748791e-09	3.493602e+01	2.464802e+02
2.820000e-06	4.804067e-06	3.760988e-09	3.520865e+01	2.471324e+02
2.830000e-06	4.840984e-06	3.771983e-09	3.547921e+01	2.477543e+02
2.840000e-06	4.877571e-06	3.782970e-09	3.574736e+01	2.483474e+02
2.850000e-06	4.913810e-06	3.796230e-09	3.601295e+01	2.489137e+02
2.860000e-06	4.949805e-06	3.810424e-09	3.627675e+01	2.494551e+02
2.870000e-06	4.985623e-06	3.823249e-09	3.653926e+01	2.499736e+02
2.880000e-06	5.021245e-06	3.834620e-09	3.680033e+01	2.504713e+02
2.890000e-06	5.056621e-06	3.846747e-09	3.705960e+01	2.509505e+02
2.900000e-06	5.091630e-06	3.856815e-09	3.731617e+01	2.514133e+02
