# Temperatura_=_20.0
# Concentracion g/m^3_=_9000.0
# C_Vs_to_Am_M_A/Vsm_=_65563218390.804596
# pendiente_HvsI_1/m_=_3716.3
# ordenada_HvsI_A/m_=_1297.0
# frecuencia_Hz_=_135337.9843982578

Tiempo_(s)	Campo_(V.s)	Magnetizacion_(V.s)	Campo_(kA/m)	Magnetizacion_(A/m)
0.000000e+00	-6.532592e-06	-4.213232e-09	-4.773112e+01	-2.741382e+02
1.000000e-08	-6.532645e-06	-4.213763e-09	-4.773151e+01	-2.742736e+02
2.000000e-08	-6.532377e-06	-4.214545e-09	-4.772955e+01	-2.743934e+02
3.000000e-08	-6.531598e-06	-4.214540e-09	-4.772386e+01	-2.744959e+02
4.000000e-08	-6.530132e-06	-4.213334e-09	-4.771315e+01	-2.745790e+02
5.000000e-08	-6.527932e-06	-4.211250e-09	-4.769707e+01	-2.746412e+02
6.000000e-08	-6.525114e-06	-4.206856e-09	-4.767648e+01	-2.746809e+02
7.000000e-08	-6.521817e-06	-4.205305e-09	-4.765239e+01	-2.746968e+02
8.000000e-08	-6.518101e-06	-4.216997e-09	-4.762524e+01	-2.746877e+02
9.000000e-08	-6.513925e-06	-4.249139e-09	-4.759473e+01	-2.746526e+02
1.000000e-07	-6.509146e-06	-4.258459e-09	-4.755981e+01	-2.745909e+02
1.100000e-07	-6.503785e-06	-4.239615e-09	-4.752064e+01	-2.745021e+02
1.200000e-07	-6.498036e-06	-4.201381e-09	-4.747864e+01	-2.743860e+02
1.300000e-07	-6.492022e-06	-4.235954e-09	-4.743469e+01	-2.742426e+02
1.400000e-07	-6.485720e-06	-4.274192e-09	-4.738865e+01	-2.740722e+02
1.500000e-07	-6.478922e-06	-4.301650e-09	-4.733898e+01	-2.738754e+02
1.600000e-07	-6.471575e-06	-4.307845e-09	-4.728529e+01	-2.736529e+02
1.700000e-07	-6.463904e-06	-4.341933e-09	-4.722924e+01	-2.734058e+02
1.800000e-07	-6.455927e-06	-4.333225e-09	-4.717096e+01	-2.731354e+02
1.900000e-07	-6.447700e-06	-4.363465e-09	-4.711085e+01	-2.728431e+02
2.000000e-07	-6.439157e-06	-4.387405e-09	-4.704843e+01	-2.725306e+02
2.100000e-07	-6.429919e-06	-4.394944e-09	-4.698093e+01	-2.721998e+02
2.200000e-07	-6.419885e-06	-4.375794e-09	-4.690762e+01	-2.718526e+02
2.300000e-07	-6.409184e-06	-4.333940e-09	-4.682943e+01	-2.714913e+02
2.400000e-07	-6.397852e-06	-4.236570e-09	-4.674663e+01	-2.711182e+02
2.500000e-07	-6.385986e-06	-4.163904e-09	-4.665993e+01	-2.707354e+02
2.600000e-07	-6.373583e-06	-4.198066e-09	-4.656930e+01	-2.703455e+02
2.700000e-07	-6.360680e-06	-4.208566e-09	-4.647502e+01	-2.699509e+02
2.800000e-07	-6.347341e-06	-4.106768e-09	-4.637756e+01	-2.695539e+02
2.900000e-07	-6.333461e-06	-4.014284e-09	-4.627615e+01	-2.691571e+02
3.000000e-07	-6.318970e-06	-4.064393e-09	-4.617027e+01	-2.687626e+02
3.100000e-07	-6.303807e-06	-4.081819e-09	-4.605947e+01	-2.683727e+02
3.200000e-07	-6.287997e-06	-3.990125e-09	-4.594396e+01	-2.679896e+02
3.300000e-07	-6.271620e-06	-3.925687e-09	-4.582430e+01	-2.676152e+02
3.400000e-07	-6.254682e-06	-3.964764e-09	-4.570054e+01	-2.672513e+02
3.500000e-07	-6.237304e-06	-3.905952e-09	-4.557356e+01	-2.668995e+02
3.600000e-07	-6.219639e-06	-3.886124e-09	-4.544449e+01	-2.665613e+02
3.700000e-07	-6.201620e-06	-3.925969e-09	-4.531284e+01	-2.662378e+02
3.800000e-07	-6.183231e-06	-3.954657e-09	-4.517848e+01	-2.659299e+02
3.900000e-07	-6.164411e-06	-3.896718e-09	-4.504097e+01	-2.656383e+02
4.000000e-07	-6.145106e-06	-3.950108e-09	-4.489991e+01	-2.653635e+02
4.100000e-07	-6.125429e-06	-4.010328e-09	-4.475614e+01	-2.651057e+02
4.200000e-07	-6.105487e-06	-3.993906e-09	-4.461043e+01	-2.648646e+02
4.300000e-07	-6.085282e-06	-3.969288e-09	-4.446280e+01	-2.646399e+02
4.400000e-07	-6.064737e-06	-4.014742e-09	-4.431269e+01	-2.644310e+02
4.500000e-07	-6.043871e-06	-4.024863e-09	-4.416022e+01	-2.642370e+02
4.600000e-07	-6.022605e-06	-3.992463e-09	-4.400484e+01	-2.640568e+02
4.700000e-07	-6.000842e-06	-3.988129e-09	-4.384583e+01	-2.638889e+02
4.800000e-07	-5.978676e-06	-4.011948e-09	-4.368388e+01	-2.637319e+02
4.900000e-07	-5.956131e-06	-3.999625e-09	-4.351915e+01	-2.635839e+02
5.000000e-07	-5.933166e-06	-3.974124e-09	-4.335135e+01	-2.634429e+02
5.100000e-07	-5.909789e-06	-3.988065e-09	-4.318054e+01	-2.633070e+02
5.200000e-07	-5.886038e-06	-3.989351e-09	-4.300700e+01	-2.631739e+02
5.300000e-07	-5.861946e-06	-3.973347e-09	-4.283097e+01	-2.630412e+02
5.400000e-07	-5.837450e-06	-3.968862e-09	-4.265199e+01	-2.629066e+02
5.500000e-07	-5.812450e-06	-3.979635e-09	-4.246932e+01	-2.627678e+02
5.600000e-07	-5.786803e-06	-3.957204e-09	-4.228193e+01	-2.626222e+02
5.700000e-07	-5.760477e-06	-3.957460e-09	-4.208958e+01	-2.624675e+02
5.800000e-07	-5.733597e-06	-3.961349e-09	-4.189317e+01	-2.623013e+02
5.900000e-07	-5.706230e-06	-3.948501e-09	-4.169321e+01	-2.621214e+02
6.000000e-07	-5.678539e-06	-3.927800e-09	-4.149088e+01	-2.619255e+02
6.100000e-07	-5.650661e-06	-3.940772e-09	-4.128719e+01	-2.617117e+02
6.200000e-07	-5.622509e-06	-3.935839e-09	-4.108150e+01	-2.614780e+02
6.300000e-07	-5.593977e-06	-3.922130e-09	-4.087302e+01	-2.612228e+02
6.400000e-07	-5.564994e-06	-3.907506e-09	-4.066126e+01	-2.609445e+02
6.500000e-07	-5.535566e-06	-3.908676e-09	-4.044624e+01	-2.606418e+02
6.600000e-07	-5.505784e-06	-3.906076e-09	-4.022863e+01	-2.603136e+02
6.700000e-07	-5.475621e-06	-3.902207e-09	-4.000824e+01	-2.599591e+02
6.800000e-07	-5.445061e-06	-3.883911e-09	-3.978496e+01	-2.595777e+02
6.900000e-07	-5.414127e-06	-3.883783e-09	-3.955893e+01	-2.591689e+02
7.000000e-07	-5.382898e-06	-3.889806e-09	-3.933075e+01	-2.587328e+02
7.100000e-07	-5.351452e-06	-3.883199e-09	-3.910099e+01	-2.582695e+02
7.200000e-07	-5.319762e-06	-3.863874e-09	-3.886944e+01	-2.577792e+02
7.300000e-07	-5.287815e-06	-3.854292e-09	-3.863602e+01	-2.572626e+02
7.400000e-07	-5.255598e-06	-3.847979e-09	-3.840062e+01	-2.567207e+02
7.500000e-07	-5.222983e-06	-3.843182e-09	-3.816231e+01	-2.561543e+02
7.600000e-07	-5.189847e-06	-3.836620e-09	-3.792020e+01	-2.555647e+02
7.700000e-07	-5.156083e-06	-3.821744e-09	-3.767351e+01	-2.549533e+02
7.800000e-07	-5.121595e-06	-3.815675e-09	-3.742151e+01	-2.543216e+02
7.900000e-07	-5.086534e-06	-3.821043e-09	-3.716534e+01	-2.536714e+02
8.000000e-07	-5.051096e-06	-3.819876e-09	-3.690640e+01	-2.530043e+02
8.100000e-07	-5.015372e-06	-3.800539e-09	-3.664538e+01	-2.523222e+02
8.200000e-07	-4.979457e-06	-3.787043e-09	-3.638296e+01	-2.516269e+02
8.300000e-07	-4.943335e-06	-3.783888e-09	-3.611904e+01	-2.509205e+02
8.400000e-07	-4.906843e-06	-3.781747e-09	-3.585240e+01	-2.502046e+02
8.500000e-07	-4.869938e-06	-3.764504e-09	-3.558275e+01	-2.494812e+02
8.600000e-07	-4.832712e-06	-3.747365e-09	-3.531076e+01	-2.487521e+02
8.700000e-07	-4.795184e-06	-3.736872e-09	-3.503655e+01	-2.480188e+02
8.800000e-07	-4.757345e-06	-3.737543e-09	-3.476008e+01	-2.472830e+02
8.900000e-07	-4.719241e-06	-3.728248e-09	-3.448167e+01	-2.465460e+02
9.000000e-07	-4.680854e-06	-3.713804e-09	-3.420119e+01	-2.458092e+02
9.100000e-07	-4.642059e-06	-3.699607e-09	-3.391773e+01	-2.450734e+02
9.200000e-07	-4.602874e-06	-3.693600e-09	-3.363142e+01	-2.443396e+02
9.300000e-07	-4.563465e-06	-3.684234e-09	-3.334348e+01	-2.436085e+02
9.400000e-07	-4.523806e-06	-3.671510e-09	-3.305370e+01	-2.428804e+02
9.500000e-07	-4.483904e-06	-3.653379e-09	-3.276215e+01	-2.421554e+02
9.600000e-07	-4.443825e-06	-3.640942e-09	-3.246931e+01	-2.414336e+02
9.700000e-07	-4.403488e-06	-3.631888e-09	-3.217458e+01	-2.407147e+02
9.800000e-07	-4.362805e-06	-3.623476e-09	-3.187733e+01	-2.399980e+02
9.900000e-07	-4.321666e-06	-3.610556e-09	-3.157674e+01	-2.392829e+02
1.000000e-06	-4.280025e-06	-3.599122e-09	-3.127249e+01	-2.385683e+02
1.010000e-06	-4.237888e-06	-3.589969e-09	-3.096461e+01	-2.378530e+02
1.020000e-06	-4.195269e-06	-3.576795e-09	-3.065320e+01	-2.371357e+02
1.030000e-06	-4.152240e-06	-3.560076e-09	-3.033881e+01	-2.364147e+02
1.040000e-06	-4.108870e-06	-3.543974e-09	-3.002192e+01	-2.356883e+02
1.050000e-06	-4.065256e-06	-3.530163e-09	-2.970326e+01	-2.349546e+02
1.060000e-06	-4.021462e-06	-3.515383e-09	-2.938327e+01	-2.342117e+02
1.070000e-06	-3.977486e-06	-3.502728e-09	-2.906195e+01	-2.334575e+02
1.080000e-06	-3.933360e-06	-3.493413e-09	-2.873954e+01	-2.326899e+02
1.090000e-06	-3.889012e-06	-3.484843e-09	-2.841551e+01	-2.319067e+02
1.100000e-06	-3.844335e-06	-3.471820e-09	-2.808907e+01	-2.311058e+02
1.110000e-06	-3.799348e-06	-3.457401e-09	-2.776037e+01	-2.302851e+02
1.120000e-06	-3.754035e-06	-3.442601e-09	-2.742928e+01	-2.294426e+02
1.130000e-06	-3.708380e-06	-3.427884e-09	-2.709569e+01	-2.285761e+02
1.140000e-06	-3.662493e-06	-3.408402e-09	-2.676042e+01	-2.276841e+02
1.150000e-06	-3.616398e-06	-3.389040e-09	-2.642362e+01	-2.267646e+02
1.160000e-06	-3.570100e-06	-3.371655e-09	-2.608534e+01	-2.258161e+02
1.170000e-06	-3.523571e-06	-3.360260e-09	-2.574537e+01	-2.248374e+02
1.180000e-06	-3.476798e-06	-3.347543e-09	-2.540362e+01	-2.238271e+02
1.190000e-06	-3.429810e-06	-3.332415e-09	-2.506030e+01	-2.227844e+02
1.200000e-06	-3.382546e-06	-3.316104e-09	-2.471495e+01	-2.217086e+02
1.210000e-06	-3.335074e-06	-3.300273e-09	-2.436809e+01	-2.205991e+02
1.220000e-06	-3.287422e-06	-3.282262e-09	-2.401992e+01	-2.194558e+02
1.230000e-06	-3.239610e-06	-3.263315e-09	-2.367057e+01	-2.182785e+02
1.240000e-06	-3.191673e-06	-3.241991e-09	-2.332032e+01	-2.170676e+02
1.250000e-06	-3.143550e-06	-3.222176e-09	-2.296870e+01	-2.158235e+02
1.260000e-06	-3.095118e-06	-3.205572e-09	-2.261483e+01	-2.145469e+02
1.270000e-06	-3.046405e-06	-3.187777e-09	-2.225890e+01	-2.132386e+02
1.280000e-06	-2.997370e-06	-3.167108e-09	-2.190062e+01	-2.118997e+02
1.290000e-06	-2.947855e-06	-3.148502e-09	-2.153884e+01	-2.105315e+02
1.300000e-06	-2.898068e-06	-3.131976e-09	-2.117506e+01	-2.091354e+02
1.310000e-06	-2.848005e-06	-3.112760e-09	-2.080927e+01	-2.077127e+02
1.320000e-06	-2.797463e-06	-3.089539e-09	-2.043998e+01	-2.062650e+02
1.330000e-06	-2.746565e-06	-3.065112e-09	-2.006809e+01	-2.047940e+02
1.340000e-06	-2.695481e-06	-3.041922e-09	-1.969484e+01	-2.033012e+02
1.350000e-06	-2.644187e-06	-3.018498e-09	-1.932005e+01	-2.017882e+02
1.360000e-06	-2.592622e-06	-2.996100e-09	-1.894328e+01	-2.002564e+02
1.370000e-06	-2.540826e-06	-2.973014e-09	-1.856483e+01	-1.987072e+02
1.380000e-06	-2.488858e-06	-2.951991e-09	-1.818512e+01	-1.971418e+02
1.390000e-06	-2.436783e-06	-2.933489e-09	-1.780463e+01	-1.955613e+02
1.400000e-06	-2.384605e-06	-2.914034e-09	-1.742338e+01	-1.939664e+02
1.410000e-06	-2.332244e-06	-2.891369e-09	-1.704080e+01	-1.923576e+02
1.420000e-06	-2.279727e-06	-2.866641e-09	-1.665708e+01	-1.907351e+02
1.430000e-06	-2.227036e-06	-2.839469e-09	-1.627209e+01	-1.890987e+02
1.440000e-06	-2.174135e-06	-2.811596e-09	-1.588556e+01	-1.874481e+02
1.450000e-06	-2.121083e-06	-2.786681e-09	-1.549793e+01	-1.857822e+02
1.460000e-06	-2.067871e-06	-2.762915e-09	-1.510913e+01	-1.840997e+02
1.470000e-06	-2.014467e-06	-2.736567e-09	-1.471893e+01	-1.823989e+02
1.480000e-06	-1.960901e-06	-2.706855e-09	-1.432755e+01	-1.806775e+02
1.490000e-06	-1.907269e-06	-2.674734e-09	-1.393568e+01	-1.789330e+02
1.500000e-06	-1.853511e-06	-2.643005e-09	-1.354289e+01	-1.771620e+02
1.510000e-06	-1.799613e-06	-2.612549e-09	-1.314907e+01	-1.753611e+02
1.520000e-06	-1.745610e-06	-2.582240e-09	-1.275449e+01	-1.735262e+02
1.530000e-06	-1.691545e-06	-2.551141e-09	-1.235947e+01	-1.716527e+02
1.540000e-06	-1.637494e-06	-2.523140e-09	-1.196453e+01	-1.697358e+02
1.550000e-06	-1.583360e-06	-2.496162e-09	-1.156900e+01	-1.677701e+02
1.560000e-06	-1.529004e-06	-2.464251e-09	-1.117184e+01	-1.657499e+02
1.570000e-06	-1.474514e-06	-2.427780e-09	-1.077371e+01	-1.636693e+02
1.580000e-06	-1.419933e-06	-2.392003e-09	-1.037490e+01	-1.615219e+02
1.590000e-06	-1.365209e-06	-2.354337e-09	-9.975051e+00	-1.593011e+02
1.600000e-06	-1.310408e-06	-2.313118e-09	-9.574648e+00	-1.570003e+02
1.610000e-06	-1.255512e-06	-2.270152e-09	-9.173541e+00	-1.546125e+02
1.620000e-06	-1.200487e-06	-2.227736e-09	-8.771492e+00	-1.521307e+02
1.630000e-06	-1.145345e-06	-2.187361e-09	-8.368589e+00	-1.495481e+02
1.640000e-06	-1.090052e-06	-2.148059e-09	-7.964592e+00	-1.468576e+02
1.650000e-06	-1.034596e-06	-2.106972e-09	-7.559389e+00	-1.440525e+02
1.660000e-06	-9.791084e-07	-2.062455e-09	-7.153966e+00	-1.411260e+02
1.670000e-06	-9.236288e-07	-2.017451e-09	-6.748598e+00	-1.380718e+02
1.680000e-06	-8.681390e-07	-1.969948e-09	-6.343156e+00	-1.348838e+02
1.690000e-06	-8.126510e-07	-1.917791e-09	-5.937727e+00	-1.315563e+02
1.700000e-06	-7.571488e-07	-1.863352e-09	-5.532193e+00	-1.280841e+02
1.710000e-06	-7.016002e-07	-1.810116e-09	-5.126321e+00	-1.244624e+02
1.720000e-06	-6.460247e-07	-1.754731e-09	-4.720253e+00	-1.206870e+02
1.730000e-06	-5.904571e-07	-1.696208e-09	-4.314241e+00	-1.167545e+02
1.740000e-06	-5.348605e-07	-1.637090e-09	-3.908019e+00	-1.126620e+02
1.750000e-06	-4.793107e-07	-1.578289e-09	-3.502138e+00	-1.084073e+02
1.760000e-06	-4.237706e-07	-1.516137e-09	-3.096328e+00	-1.039893e+02
1.770000e-06	-3.681132e-07	-1.449127e-09	-2.689661e+00	-9.940728e+01
1.780000e-06	-3.124045e-07	-1.379160e-09	-2.282619e+00	-9.466171e+01
1.790000e-06	-2.567035e-07	-1.308454e-09	-1.875633e+00	-8.975380e+01
1.800000e-06	-2.009793e-07	-1.237013e-09	-1.468478e+00	-8.468567e+01
1.810000e-06	-1.452619e-07	-1.162463e-09	-1.061372e+00	-7.946036e+01
1.820000e-06	-8.953805e-08	-1.085305e-09	-6.542199e-01	-7.408182e+01
1.830000e-06	-3.380496e-08	-1.008404e-09	-2.469998e-01	-6.855489e+01
1.840000e-06	2.191681e-08	-9.303426e-10	1.601377e-01	-6.288534e+01
1.850000e-06	7.763059e-08	-8.469875e-10	5.672167e-01	-5.707978e+01
1.860000e-06	1.333251e-07	-7.573962e-10	9.741546e-01	-5.114571e+01
1.870000e-06	1.890132e-07	-6.643859e-10	1.381046e+00	-4.509142e+01
1.880000e-06	2.446880e-07	-5.718955e-10	1.787840e+00	-3.892599e+01
1.890000e-06	3.003155e-07	-4.776515e-10	2.194289e+00	-3.265921e+01
1.900000e-06	3.559329e-07	-3.775323e-10	2.600664e+00	-2.630156e+01
1.910000e-06	4.115498e-07	-2.752232e-10	3.007035e+00	-1.986414e+01
1.920000e-06	4.672055e-07	-1.764306e-10	3.413690e+00	-1.335857e+01
1.930000e-06	5.228850e-07	-7.841336e-11	3.820519e+00	-6.796960e+00
1.940000e-06	5.785029e-07	2.191660e-11	4.226896e+00	-1.918277e-01
1.950000e-06	6.340739e-07	1.243326e-10	4.632933e+00	6.444002e+00
1.960000e-06	6.895969e-07	2.277468e-10	5.038618e+00	1.309746e+01
1.970000e-06	7.451140e-07	3.323401e-10	5.444260e+00	1.975534e+01
1.980000e-06	8.006196e-07	4.387182e-10	5.849818e+00	2.640433e+01
1.990000e-06	8.560596e-07	5.458592e-10	6.254896e+00	3.303119e+01
2.000000e-06	9.115346e-07	6.501997e-10	6.660231e+00	3.962275e+01
2.010000e-06	9.669531e-07	7.515535e-10	7.065152e+00	4.616603e+01
2.020000e-06	1.022218e-06	8.511485e-10	7.468950e+00	5.264837e+01
2.030000e-06	1.077415e-06	9.497412e-10	7.872255e+00	5.905742e+01
2.040000e-06	1.132544e-06	1.044888e-09	8.275062e+00	6.538129e+01
2.050000e-06	1.187618e-06	1.135832e-09	8.677464e+00	7.160861e+01
2.060000e-06	1.242551e-06	1.225802e-09	9.078842e+00	7.772859e+01
2.070000e-06	1.297321e-06	1.314818e-09	9.479019e+00	8.373109e+01
2.080000e-06	1.352083e-06	1.402490e-09	9.879147e+00	8.960668e+01
2.090000e-06	1.406796e-06	1.487388e-09	1.027892e+01	9.534668e+01
2.100000e-06	1.461320e-06	1.569751e-09	1.067730e+01	1.009433e+02
2.110000e-06	1.515658e-06	1.648153e-09	1.107433e+01	1.063894e+02
2.120000e-06	1.569824e-06	1.722499e-09	1.147010e+01	1.116790e+02
2.130000e-06	1.623885e-06	1.793489e-09	1.186510e+01	1.168068e+02
2.140000e-06	1.677834e-06	1.863201e-09	1.225928e+01	1.217686e+02
2.150000e-06	1.731710e-06	1.932814e-09	1.265294e+01	1.265610e+02
2.160000e-06	1.785600e-06	1.998831e-09	1.304669e+01	1.311817e+02
2.170000e-06	1.839366e-06	2.061332e-09	1.343953e+01	1.356291e+02
2.180000e-06	1.892955e-06	2.120114e-09	1.383109e+01	1.399028e+02
2.190000e-06	1.946400e-06	2.177148e-09	1.422159e+01	1.440030e+02
2.200000e-06	1.999731e-06	2.231505e-09	1.461126e+01	1.479310e+02
2.210000e-06	2.052974e-06	2.279872e-09	1.500029e+01	1.516889e+02
2.220000e-06	2.106075e-06	2.326397e-09	1.538828e+01	1.552796e+02
2.230000e-06	2.158949e-06	2.374463e-09	1.577461e+01	1.587066e+02
2.240000e-06	2.211594e-06	2.423202e-09	1.615926e+01	1.619743e+02
2.250000e-06	2.264068e-06	2.467203e-09	1.654267e+01	1.650875e+02
2.260000e-06	2.316394e-06	2.505655e-09	1.692499e+01	1.680520e+02
2.270000e-06	2.368543e-06	2.543523e-09	1.730602e+01	1.708736e+02
2.280000e-06	2.420527e-06	2.580102e-09	1.768586e+01	1.735589e+02
2.290000e-06	2.472412e-06	2.614130e-09	1.806496e+01	1.761148e+02
2.300000e-06	2.524128e-06	2.644106e-09	1.844283e+01	1.785484e+02
2.310000e-06	2.575713e-06	2.675322e-09	1.881974e+01	1.808672e+02
2.320000e-06	2.627077e-06	2.708860e-09	1.919504e+01	1.830786e+02
2.330000e-06	2.678033e-06	2.739278e-09	1.956735e+01	1.851905e+02
2.340000e-06	2.728677e-06	2.767137e-09	1.993739e+01	1.872104e+02
2.350000e-06	2.779045e-06	2.794583e-09	2.030540e+01	1.891460e+02
2.360000e-06	2.829061e-06	2.823726e-09	2.067085e+01	1.910048e+02
2.370000e-06	2.878627e-06	2.853104e-09	2.103301e+01	1.927943e+02
2.380000e-06	2.927856e-06	2.878663e-09	2.139271e+01	1.945214e+02
2.390000e-06	2.976834e-06	2.902936e-09	2.175057e+01	1.961931e+02
2.400000e-06	3.025510e-06	2.927787e-09	2.210623e+01	1.978159e+02
2.410000e-06	3.073891e-06	2.953630e-09	2.245973e+01	1.993959e+02
2.420000e-06	3.122025e-06	2.977377e-09	2.281143e+01	2.009388e+02
2.430000e-06	3.170039e-06	2.996422e-09	2.316225e+01	2.024500e+02
2.440000e-06	3.217966e-06	3.017451e-09	2.351243e+01	2.039341e+02
2.450000e-06	3.265724e-06	3.040658e-09	2.386138e+01	2.053956e+02
2.460000e-06	3.313277e-06	3.062789e-09	2.420884e+01	2.068381e+02
2.470000e-06	3.360707e-06	3.082773e-09	2.455539e+01	2.082651e+02
2.480000e-06	3.407880e-06	3.103327e-09	2.490006e+01	2.096792e+02
2.490000e-06	3.454737e-06	3.123435e-09	2.524243e+01	2.110827e+02
2.500000e-06	3.501291e-06	3.142628e-09	2.558258e+01	2.124774e+02
2.510000e-06	3.547553e-06	3.162126e-09	2.592060e+01	2.138644e+02
2.520000e-06	3.593607e-06	3.179144e-09	2.625710e+01	2.152447e+02
2.530000e-06	3.639429e-06	3.194558e-09	2.659190e+01	2.166184e+02
2.540000e-06	3.685071e-06	3.211955e-09	2.692539e+01	2.179855e+02
2.550000e-06	3.730435e-06	3.230319e-09	2.725685e+01	2.193456e+02
2.560000e-06	3.775505e-06	3.248198e-09	2.758615e+01	2.206978e+02
2.570000e-06	3.820339e-06	3.266137e-09	2.791374e+01	2.220409e+02
2.580000e-06	3.864871e-06	3.282473e-09	2.823911e+01	2.233736e+02
2.590000e-06	3.909113e-06	3.296344e-09	2.856238e+01	2.246942e+02
2.600000e-06	3.953124e-06	3.311782e-09	2.888395e+01	2.260008e+02
2.610000e-06	3.997008e-06	3.329968e-09	2.920459e+01	2.272915e+02
2.620000e-06	4.040827e-06	3.346467e-09	2.952476e+01	2.285642e+02
2.630000e-06	4.084500e-06	3.359878e-09	2.984386e+01	2.298168e+02
2.640000e-06	4.127907e-06	3.374043e-09	3.016102e+01	2.310472e+02
2.650000e-06	4.170998e-06	3.392275e-09	3.047587e+01	2.322531e+02
2.660000e-06	4.213697e-06	3.410816e-09	3.078785e+01	2.334327e+02
2.670000e-06	4.255927e-06	3.426415e-09	3.109641e+01	2.345839e+02
2.680000e-06	4.297627e-06	3.440525e-09	3.140109e+01	2.357050e+02
2.690000e-06	4.338741e-06	3.453359e-09	3.170150e+01	2.367943e+02
2.700000e-06	4.379386e-06	3.467129e-09	3.199848e+01	2.378505e+02
2.710000e-06	4.419730e-06	3.479611e-09	3.229326e+01	2.388722e+02
2.720000e-06	4.459829e-06	3.487862e-09	3.258625e+01	2.398587e+02
2.730000e-06	4.499739e-06	3.498297e-09	3.287785e+01	2.408090e+02
2.740000e-06	4.539415e-06	3.510464e-09	3.316775e+01	2.417229e+02
2.750000e-06	4.578791e-06	3.523563e-09	3.345546e+01	2.426002e+02
2.760000e-06	4.617865e-06	3.536461e-09	3.374095e+01	2.434409e+02
2.770000e-06	4.656670e-06	3.546029e-09	3.402449e+01	2.442455e+02
2.780000e-06	4.695208e-06	3.554622e-09	3.430607e+01	2.450147e+02
2.790000e-06	4.733351e-06	3.564728e-09	3.458477e+01	2.457493e+02
2.800000e-06	4.771129e-06	3.577350e-09	3.486080e+01	2.464506e+02
2.810000e-06	4.808615e-06	3.588738e-09	3.513469e+01	2.471200e+02
2.820000e-06	4.845695e-06	3.598054e-09	3.540562e+01	2.477592e+02
2.830000e-06	4.882426e-06	3.608534e-09	3.567400e+01	2.483698e+02
2.840000e-06	4.918903e-06	3.622107e-09	3.594052e+01	2.489540e+02
2.850000e-06	4.955120e-06	3.635127e-09	3.620514e+01	2.495139e+02
2.860000e-06	4.991118e-06	3.645065e-09	3.646817e+01	2.500516e+02
2.870000e-06	5.026867e-06	3.653245e-09	3.672937e+01	2.505696e+02
2.880000e-06	5.062409e-06	3.662153e-09	3.698907e+01	2.510701e+02
2.890000e-06	5.097654e-06	3.671517e-09	3.724659e+01	2.515557e+02
2.900000e-06	5.132417e-06	3.679452e-09	3.750058e+01	2.520286e+02
