# Temperatura_=_20.0
# Concentracion g/m^3_=_9000.0
# C_Vs_to_Am_M_A/Vsm_=_65563218390.804596
# pendiente_HvsI_1/m_=_3716.3
# ordenada_HvsI_A/m_=_1297.0
# frecuencia_Hz_=_135339.48537954112

Tiempo_(s)	Campo_(V.s)	Magnetizacion_(V.s)	Campo_(kA/m)	Magnetizacion_(A/m)
0.000000e+00	-6.517594e-06	-4.000084e-09	-4.773907e+01	-2.720749e+02
1.000000e-08	-6.517762e-06	-3.997485e-09	-4.774031e+01	-2.721030e+02
2.000000e-08	-6.517667e-06	-3.995618e-09	-4.773961e+01	-2.721163e+02
3.000000e-08	-6.516993e-06	-3.991635e-09	-4.773467e+01	-2.721136e+02
4.000000e-08	-6.515549e-06	-3.986216e-09	-4.772410e+01	-2.720938e+02
5.000000e-08	-6.513471e-06	-3.983423e-09	-4.770887e+01	-2.720558e+02
6.000000e-08	-6.510740e-06	-3.981878e-09	-4.768887e+01	-2.719985e+02
7.000000e-08	-6.507492e-06	-3.978547e-09	-4.766508e+01	-2.719214e+02
8.000000e-08	-6.503963e-06	-3.982088e-09	-4.763923e+01	-2.718236e+02
9.000000e-08	-6.500084e-06	-3.997005e-09	-4.761082e+01	-2.717048e+02
1.000000e-07	-6.495651e-06	-3.995015e-09	-4.757835e+01	-2.715647e+02
1.100000e-07	-6.490596e-06	-3.983908e-09	-4.754132e+01	-2.714031e+02
1.200000e-07	-6.484980e-06	-3.976405e-09	-4.750019e+01	-2.712203e+02
1.300000e-07	-6.478958e-06	-3.993063e-09	-4.745608e+01	-2.710163e+02
1.400000e-07	-6.472603e-06	-3.977307e-09	-4.740953e+01	-2.707918e+02
1.500000e-07	-6.465848e-06	-3.944075e-09	-4.736005e+01	-2.705473e+02
1.600000e-07	-6.458697e-06	-3.990259e-09	-4.730767e+01	-2.702838e+02
1.700000e-07	-6.451129e-06	-4.083075e-09	-4.725224e+01	-2.700022e+02
1.800000e-07	-6.443198e-06	-4.039702e-09	-4.719415e+01	-2.697038e+02
1.900000e-07	-6.434981e-06	-4.024006e-09	-4.713396e+01	-2.693898e+02
2.000000e-07	-6.426493e-06	-3.988366e-09	-4.707179e+01	-2.690618e+02
2.100000e-07	-6.417431e-06	-3.998843e-09	-4.700542e+01	-2.687213e+02
2.200000e-07	-6.407507e-06	-4.005069e-09	-4.693273e+01	-2.683701e+02
2.300000e-07	-6.396895e-06	-4.080296e-09	-4.685500e+01	-2.680099e+02
2.400000e-07	-6.385749e-06	-4.017118e-09	-4.677336e+01	-2.676425e+02
2.500000e-07	-6.374043e-06	-3.924231e-09	-4.668761e+01	-2.672699e+02
2.600000e-07	-6.361750e-06	-3.952117e-09	-4.659757e+01	-2.668940e+02
2.700000e-07	-6.348994e-06	-4.029640e-09	-4.650414e+01	-2.665166e+02
2.800000e-07	-6.335744e-06	-4.009068e-09	-4.640708e+01	-2.661396e+02
2.900000e-07	-6.321874e-06	-3.985031e-09	-4.630549e+01	-2.657648e+02
3.000000e-07	-6.307437e-06	-4.073886e-09	-4.619975e+01	-2.653941e+02
3.100000e-07	-6.292452e-06	-4.109742e-09	-4.608999e+01	-2.650289e+02
3.200000e-07	-6.276892e-06	-4.026602e-09	-4.597602e+01	-2.646708e+02
3.300000e-07	-6.260746e-06	-4.003429e-09	-4.585775e+01	-2.643213e+02
3.400000e-07	-6.244019e-06	-4.080739e-09	-4.573523e+01	-2.639816e+02
3.500000e-07	-6.226887e-06	-3.986308e-09	-4.560975e+01	-2.636526e+02
3.600000e-07	-6.209505e-06	-3.950678e-09	-4.548243e+01	-2.633354e+02
3.700000e-07	-6.191777e-06	-3.987767e-09	-4.535258e+01	-2.630306e+02
3.800000e-07	-6.173639e-06	-4.010782e-09	-4.521972e+01	-2.627387e+02
3.900000e-07	-6.155111e-06	-3.967600e-09	-4.508402e+01	-2.624600e+02
4.000000e-07	-6.136130e-06	-4.074527e-09	-4.494498e+01	-2.621944e+02
4.100000e-07	-6.116699e-06	-4.085548e-09	-4.480266e+01	-2.619419e+02
4.200000e-07	-6.096923e-06	-4.030763e-09	-4.465781e+01	-2.617021e+02
4.300000e-07	-6.076856e-06	-4.061475e-09	-4.451082e+01	-2.614744e+02
4.400000e-07	-6.056458e-06	-4.165215e-09	-4.436141e+01	-2.612581e+02
4.500000e-07	-6.035642e-06	-4.119814e-09	-4.420894e+01	-2.610520e+02
4.600000e-07	-6.014424e-06	-4.067741e-09	-4.405353e+01	-2.608551e+02
4.700000e-07	-5.992771e-06	-4.102011e-09	-4.389493e+01	-2.606660e+02
4.800000e-07	-5.970674e-06	-4.154112e-09	-4.373307e+01	-2.604832e+02
4.900000e-07	-5.948252e-06	-4.099725e-09	-4.356884e+01	-2.603051e+02
5.000000e-07	-5.925479e-06	-4.045096e-09	-4.340204e+01	-2.601300e+02
5.100000e-07	-5.902318e-06	-4.076818e-09	-4.323239e+01	-2.599560e+02
5.200000e-07	-5.878820e-06	-4.120402e-09	-4.306028e+01	-2.597811e+02
5.300000e-07	-5.854957e-06	-4.077964e-09	-4.288549e+01	-2.596035e+02
5.400000e-07	-5.830739e-06	-4.038717e-09	-4.270810e+01	-2.594211e+02
5.500000e-07	-5.806060e-06	-4.064117e-09	-4.252734e+01	-2.592320e+02
5.600000e-07	-5.780729e-06	-4.065071e-09	-4.234180e+01	-2.590341e+02
5.700000e-07	-5.754686e-06	-4.053056e-09	-4.215105e+01	-2.588256e+02
5.800000e-07	-5.728014e-06	-4.047599e-09	-4.195568e+01	-2.586046e+02
5.900000e-07	-5.700850e-06	-4.030620e-09	-4.175671e+01	-2.583694e+02
6.000000e-07	-5.673328e-06	-4.010778e-09	-4.155512e+01	-2.581182e+02
6.100000e-07	-5.645567e-06	-4.046707e-09	-4.135179e+01	-2.578497e+02
6.200000e-07	-5.617522e-06	-4.039293e-09	-4.114637e+01	-2.575624e+02
6.300000e-07	-5.589150e-06	-3.998926e-09	-4.093855e+01	-2.572551e+02
6.400000e-07	-5.560437e-06	-3.982963e-09	-4.072824e+01	-2.569268e+02
6.500000e-07	-5.531326e-06	-4.015840e-09	-4.051501e+01	-2.565767e+02
6.600000e-07	-5.501832e-06	-4.005180e-09	-4.029898e+01	-2.562042e+02
6.700000e-07	-5.471961e-06	-3.980032e-09	-4.008018e+01	-2.558089e+02
6.800000e-07	-5.441706e-06	-3.958943e-09	-3.985857e+01	-2.553904e+02
6.900000e-07	-5.411066e-06	-3.981333e-09	-3.963415e+01	-2.549489e+02
7.000000e-07	-5.380073e-06	-3.984453e-09	-3.940714e+01	-2.544846e+02
7.100000e-07	-5.348762e-06	-3.963577e-09	-3.917779e+01	-2.539978e+02
7.200000e-07	-5.317137e-06	-3.937548e-09	-3.894615e+01	-2.534891e+02
7.300000e-07	-5.285250e-06	-3.945811e-09	-3.871259e+01	-2.529593e+02
7.400000e-07	-5.253040e-06	-3.938621e-09	-3.847666e+01	-2.524094e+02
7.500000e-07	-5.220459e-06	-3.921605e-09	-3.823802e+01	-2.518404e+02
7.600000e-07	-5.187353e-06	-3.908721e-09	-3.799553e+01	-2.512537e+02
7.700000e-07	-5.153615e-06	-3.902766e-09	-3.774841e+01	-2.506505e+02
7.800000e-07	-5.119386e-06	-3.895469e-09	-3.749770e+01	-2.500323e+02
7.900000e-07	-5.084685e-06	-3.898681e-09	-3.724352e+01	-2.494006e+02
8.000000e-07	-5.049531e-06	-3.889078e-09	-3.698603e+01	-2.487571e+02
8.100000e-07	-5.014023e-06	-3.865961e-09	-3.672595e+01	-2.481033e+02
8.200000e-07	-4.978234e-06	-3.862201e-09	-3.646381e+01	-2.474407e+02
8.300000e-07	-4.942248e-06	-3.864673e-09	-3.620022e+01	-2.467711e+02
8.400000e-07	-4.905968e-06	-3.848692e-09	-3.593448e+01	-2.460959e+02
8.500000e-07	-4.869289e-06	-3.825012e-09	-3.566582e+01	-2.454165e+02
8.600000e-07	-4.832234e-06	-3.822810e-09	-3.539441e+01	-2.447344e+02
8.700000e-07	-4.794891e-06	-3.820868e-09	-3.512088e+01	-2.440508e+02
8.800000e-07	-4.757298e-06	-3.810596e-09	-3.484552e+01	-2.433667e+02
8.900000e-07	-4.719409e-06	-3.789797e-09	-3.456800e+01	-2.426832e+02
9.000000e-07	-4.681133e-06	-3.784849e-09	-3.428765e+01	-2.420010e+02
9.100000e-07	-4.642504e-06	-3.779612e-09	-3.400470e+01	-2.413207e+02
9.200000e-07	-4.603576e-06	-3.769173e-09	-3.371957e+01	-2.406427e+02
9.300000e-07	-4.564321e-06	-3.747779e-09	-3.343204e+01	-2.399673e+02
9.400000e-07	-4.524842e-06	-3.736802e-09	-3.314287e+01	-2.392942e+02
9.500000e-07	-4.485177e-06	-3.726013e-09	-3.285234e+01	-2.386235e+02
9.600000e-07	-4.445256e-06	-3.718501e-09	-3.255993e+01	-2.379545e+02
9.700000e-07	-4.404933e-06	-3.700688e-09	-3.226458e+01	-2.372866e+02
9.800000e-07	-4.364186e-06	-3.685382e-09	-3.196612e+01	-2.366189e+02
9.900000e-07	-4.323117e-06	-3.671812e-09	-3.166531e+01	-2.359504e+02
1.000000e-06	-4.281706e-06	-3.665046e-09	-3.136198e+01	-2.352798e+02
1.010000e-06	-4.239847e-06	-3.652343e-09	-3.105538e+01	-2.346056e+02
1.020000e-06	-4.197511e-06	-3.633899e-09	-3.074528e+01	-2.339264e+02
1.030000e-06	-4.154836e-06	-3.615452e-09	-3.043270e+01	-2.332403e+02
1.040000e-06	-4.111897e-06	-3.604562e-09	-3.011819e+01	-2.325455e+02
1.050000e-06	-4.068611e-06	-3.591133e-09	-2.980114e+01	-2.318400e+02
1.060000e-06	-4.025035e-06	-3.572752e-09	-2.948196e+01	-2.311220e+02
1.070000e-06	-3.981253e-06	-3.556178e-09	-2.916127e+01	-2.303893e+02
1.080000e-06	-3.937240e-06	-3.545584e-09	-2.883889e+01	-2.296399e+02
1.090000e-06	-3.892998e-06	-3.535467e-09	-2.851483e+01	-2.288717e+02
1.100000e-06	-3.848524e-06	-3.519506e-09	-2.818908e+01	-2.280828e+02
1.110000e-06	-3.803738e-06	-3.501496e-09	-2.786104e+01	-2.272712e+02
1.120000e-06	-3.758609e-06	-3.484297e-09	-2.753048e+01	-2.264351e+02
1.130000e-06	-3.713242e-06	-3.470966e-09	-2.719818e+01	-2.255727e+02
1.140000e-06	-3.667644e-06	-3.455504e-09	-2.686420e+01	-2.246824e+02
1.150000e-06	-3.621737e-06	-3.440159e-09	-2.652795e+01	-2.237629e+02
1.160000e-06	-3.575645e-06	-3.422164e-09	-2.619034e+01	-2.228128e+02
1.170000e-06	-3.529341e-06	-3.407218e-09	-2.585117e+01	-2.218312e+02
1.180000e-06	-3.482758e-06	-3.392415e-09	-2.550997e+01	-2.208171e+02
1.190000e-06	-3.436007e-06	-3.378606e-09	-2.516754e+01	-2.197700e+02
1.200000e-06	-3.388995e-06	-3.360183e-09	-2.482319e+01	-2.186895e+02
1.210000e-06	-3.341660e-06	-3.344185e-09	-2.447648e+01	-2.175755e+02
1.220000e-06	-3.294122e-06	-3.326331e-09	-2.412828e+01	-2.164279e+02
1.230000e-06	-3.246322e-06	-3.306943e-09	-2.377816e+01	-2.152472e+02
1.240000e-06	-3.198259e-06	-3.284981e-09	-2.342612e+01	-2.140339e+02
1.250000e-06	-3.150071e-06	-3.264291e-09	-2.307316e+01	-2.127887e+02
1.260000e-06	-3.101724e-06	-3.245368e-09	-2.271904e+01	-2.115126e+02
1.270000e-06	-3.053145e-06	-3.227565e-09	-2.236321e+01	-2.102067e+02
1.280000e-06	-3.004265e-06	-3.205887e-09	-2.200518e+01	-2.088724e+02
1.290000e-06	-2.954952e-06	-3.184693e-09	-2.164398e+01	-2.075111e+02
1.300000e-06	-2.905211e-06	-3.164879e-09	-2.127965e+01	-2.061242e+02
1.310000e-06	-2.855180e-06	-3.145180e-09	-2.091318e+01	-2.047136e+02
1.320000e-06	-2.804914e-06	-3.123623e-09	-2.054500e+01	-2.032807e+02
1.330000e-06	-2.754426e-06	-3.099841e-09	-2.017520e+01	-2.018273e+02
1.340000e-06	-2.703701e-06	-3.075716e-09	-1.980365e+01	-2.003551e+02
1.350000e-06	-2.652729e-06	-3.053785e-09	-1.943030e+01	-1.988657e+02
1.360000e-06	-2.601476e-06	-3.031238e-09	-1.905490e+01	-1.973605e+02
1.370000e-06	-2.549960e-06	-3.004691e-09	-1.867756e+01	-1.958408e+02
1.380000e-06	-2.498179e-06	-2.979278e-09	-1.829828e+01	-1.943079e+02
1.390000e-06	-2.446184e-06	-2.959404e-09	-1.791744e+01	-1.927628e+02
1.400000e-06	-2.394130e-06	-2.937857e-09	-1.753616e+01	-1.912060e+02
1.410000e-06	-2.342016e-06	-2.911095e-09	-1.715444e+01	-1.896380e+02
1.420000e-06	-2.289706e-06	-2.884953e-09	-1.677129e+01	-1.880589e+02
1.430000e-06	-2.237166e-06	-2.859137e-09	-1.638645e+01	-1.864684e+02
1.440000e-06	-2.184477e-06	-2.833508e-09	-1.600052e+01	-1.848659e+02
1.450000e-06	-2.131634e-06	-2.806902e-09	-1.561347e+01	-1.832502e+02
1.460000e-06	-2.078634e-06	-2.777392e-09	-1.522526e+01	-1.816199e+02
1.470000e-06	-2.025530e-06	-2.748003e-09	-1.483629e+01	-1.799731e+02
1.480000e-06	-1.972326e-06	-2.720179e-09	-1.444659e+01	-1.783074e+02
1.490000e-06	-1.919007e-06	-2.688529e-09	-1.405605e+01	-1.766199e+02
1.500000e-06	-1.865506e-06	-2.655563e-09	-1.366417e+01	-1.749073e+02
1.510000e-06	-1.811869e-06	-2.625633e-09	-1.327130e+01	-1.731659e+02
1.520000e-06	-1.758072e-06	-2.600318e-09	-1.287726e+01	-1.713916e+02
1.530000e-06	-1.704131e-06	-2.572872e-09	-1.248216e+01	-1.695795e+02
1.540000e-06	-1.650115e-06	-2.541338e-09	-1.208651e+01	-1.677248e+02
1.550000e-06	-1.596010e-06	-2.506371e-09	-1.169021e+01	-1.658220e+02
1.560000e-06	-1.541832e-06	-2.472519e-09	-1.129338e+01	-1.638652e+02
1.570000e-06	-1.487531e-06	-2.438817e-09	-1.089564e+01	-1.618485e+02
1.580000e-06	-1.433127e-06	-2.402841e-09	-1.049715e+01	-1.597655e+02
1.590000e-06	-1.378607e-06	-2.362916e-09	-1.009781e+01	-1.576095e+02
1.600000e-06	-1.323997e-06	-2.322980e-09	-9.697811e+00	-1.553739e+02
1.610000e-06	-1.269323e-06	-2.284641e-09	-9.297341e+00	-1.530516e+02
1.620000e-06	-1.214543e-06	-2.244312e-09	-8.896095e+00	-1.506359e+02
1.630000e-06	-1.159662e-06	-2.203007e-09	-8.494115e+00	-1.481196e+02
1.640000e-06	-1.104715e-06	-2.163752e-09	-8.091647e+00	-1.454959e+02
1.650000e-06	-1.049722e-06	-2.124395e-09	-7.688845e+00	-1.427581e+02
1.660000e-06	-9.946090e-07	-2.081237e-09	-7.285160e+00	-1.398995e+02
1.670000e-06	-9.393637e-07	-2.033345e-09	-6.880507e+00	-1.369138e+02
1.680000e-06	-8.840670e-07	-1.982442e-09	-6.475478e+00	-1.337950e+02
1.690000e-06	-8.288124e-07	-1.930728e-09	-6.070758e+00	-1.305375e+02
1.700000e-06	-7.735598e-07	-1.877968e-09	-5.666052e+00	-1.271360e+02
1.710000e-06	-7.182406e-07	-1.824483e-09	-5.260859e+00	-1.235859e+02
1.720000e-06	-6.628899e-07	-1.768327e-09	-4.855434e+00	-1.198832e+02
1.730000e-06	-6.074526e-07	-1.712237e-09	-4.449376e+00	-1.160243e+02
1.740000e-06	-5.519579e-07	-1.657445e-09	-4.042897e+00	-1.120065e+02
1.750000e-06	-4.964992e-07	-1.597481e-09	-3.636681e+00	-1.078276e+02
1.760000e-06	-4.410660e-07	-1.533718e-09	-3.230652e+00	-1.034864e+02
1.770000e-06	-3.855889e-07	-1.468582e-09	-2.824303e+00	-9.898229e+01
1.780000e-06	-3.300477e-07	-1.396343e-09	-2.417483e+00	-9.431572e+01
1.790000e-06	-2.744512e-07	-1.321508e-09	-2.010258e+00	-8.948781e+01
1.800000e-06	-2.188164e-07	-1.246520e-09	-1.602753e+00	-8.450064e+01
1.810000e-06	-1.631718e-07	-1.170116e-09	-1.195176e+00	-7.935714e+01
1.820000e-06	-1.075943e-07	-1.093090e-09	-7.880900e-01	-7.406114e+01
1.830000e-06	-5.208323e-08	-1.014971e-09	-3.814913e-01	-6.861735e+01
1.840000e-06	3.459669e-09	-9.344681e-10	2.534085e-02	-6.303136e+01
1.850000e-06	5.900618e-08	-8.519939e-10	4.321995e-01	-5.730961e+01
1.860000e-06	1.145327e-07	-7.661152e-10	8.389115e-01	-5.145936e+01
1.870000e-06	1.701037e-07	-6.747069e-10	1.245950e+00	-4.548867e+01
1.880000e-06	2.256878e-07	-5.807982e-10	1.653083e+00	-3.940636e+01
1.890000e-06	2.812376e-07	-4.877027e-10	2.059966e+00	-3.322196e+01
1.900000e-06	3.367528e-07	-3.931532e-10	2.466595e+00	-2.694563e+01
1.910000e-06	3.922597e-07	-2.950835e-10	2.873164e+00	-2.058816e+01
1.920000e-06	4.477931e-07	-1.952462e-10	3.279926e+00	-1.416085e+01
1.930000e-06	5.033046e-07	-9.595705e-11	3.686529e+00	-7.675483e+00
1.940000e-06	5.586799e-07	2.410832e-13	4.092133e+00	-1.144228e+00
1.950000e-06	6.140280e-07	9.844459e-11	4.497539e+00	5.420429e+00
1.960000e-06	6.694140e-07	2.026724e-10	4.903221e+00	1.200576e+01
1.970000e-06	7.246641e-07	3.079569e-10	5.307909e+00	1.859890e+01
1.980000e-06	7.798326e-07	4.107359e-10	5.711999e+00	2.518687e+01
1.990000e-06	8.349941e-07	5.137571e-10	6.116037e+00	3.175672e+01
2.000000e-06	8.901105e-07	6.176109e-10	6.519745e+00	3.829561e+01
2.010000e-06	9.452172e-07	7.211647e-10	6.923382e+00	4.479085e+01
2.020000e-06	1.000267e-06	8.218579e-10	7.326600e+00	5.123001e+01
2.030000e-06	1.055228e-06	9.197298e-10	7.729175e+00	5.760099e+01
2.040000e-06	1.110192e-06	1.015702e-09	8.131767e+00	6.389211e+01
2.050000e-06	1.165109e-06	1.110298e-09	8.534010e+00	7.009216e+01
2.060000e-06	1.219925e-06	1.202632e-09	8.935522e+00	7.619049e+01
2.070000e-06	1.274624e-06	1.292175e-09	9.336168e+00	8.217706e+01
2.080000e-06	1.329207e-06	1.380490e-09	9.735974e+00	8.804251e+01
2.090000e-06	1.383744e-06	1.468564e-09	1.013543e+01	9.377819e+01
2.100000e-06	1.438190e-06	1.553986e-09	1.053424e+01	9.937622e+01
2.110000e-06	1.492461e-06	1.635127e-09	1.093175e+01	1.048296e+02
2.120000e-06	1.546555e-06	1.713833e-09	1.132797e+01	1.101320e+02
2.130000e-06	1.600613e-06	1.789207e-09	1.172392e+01	1.152781e+02
2.140000e-06	1.654628e-06	1.860496e-09	1.211956e+01	1.202635e+02
2.150000e-06	1.708514e-06	1.930101e-09	1.251426e+01	1.250846e+02
2.160000e-06	1.762284e-06	1.997452e-09	1.290811e+01	1.297388e+02
2.170000e-06	1.815930e-06	2.061678e-09	1.330105e+01	1.342242e+02
2.180000e-06	1.869477e-06	2.122646e-09	1.369326e+01	1.385400e+02
2.190000e-06	1.922883e-06	2.178232e-09	1.408444e+01	1.426862e+02
2.200000e-06	1.976074e-06	2.231803e-09	1.447405e+01	1.466636e+02
2.210000e-06	2.029140e-06	2.283726e-09	1.486273e+01	1.504739e+02
2.220000e-06	2.082094e-06	2.333031e-09	1.525061e+01	1.541195e+02
2.230000e-06	2.134878e-06	2.380326e-09	1.563723e+01	1.576036e+02
2.240000e-06	2.187528e-06	2.426910e-09	1.602287e+01	1.609300e+02
2.250000e-06	2.240035e-06	2.471500e-09	1.640746e+01	1.641031e+02
2.260000e-06	2.292360e-06	2.510037e-09	1.679073e+01	1.671282e+02
2.270000e-06	2.344477e-06	2.548318e-09	1.717247e+01	1.700106e+02
2.280000e-06	2.396411e-06	2.589559e-09	1.755286e+01	1.727564e+02
2.290000e-06	2.448163e-06	2.628295e-09	1.793193e+01	1.753721e+02
2.300000e-06	2.499773e-06	2.662386e-09	1.830995e+01	1.778644e+02
2.310000e-06	2.551226e-06	2.695651e-09	1.868683e+01	1.802403e+02
2.320000e-06	2.602466e-06	2.730391e-09	1.906215e+01	1.825068e+02
2.330000e-06	2.653494e-06	2.764072e-09	1.943590e+01	1.846714e+02
2.340000e-06	2.704260e-06	2.796054e-09	1.980775e+01	1.867414e+02
2.350000e-06	2.754698e-06	2.824660e-09	2.017719e+01	1.887241e+02
2.360000e-06	2.804794e-06	2.851079e-09	2.054413e+01	1.906267e+02
2.370000e-06	2.854595e-06	2.879552e-09	2.090890e+01	1.924563e+02
2.380000e-06	2.904140e-06	2.908824e-09	2.127180e+01	1.942200e+02
2.390000e-06	2.953322e-06	2.936999e-09	2.163204e+01	1.959244e+02
2.400000e-06	3.002031e-06	2.964774e-09	2.198882e+01	1.975758e+02
2.410000e-06	3.050431e-06	2.991558e-09	2.234333e+01	1.991804e+02
2.420000e-06	3.098637e-06	3.018687e-09	2.269642e+01	2.007439e+02
2.430000e-06	3.146558e-06	3.044156e-09	2.304743e+01	2.022715e+02
2.440000e-06	3.194297e-06	3.065793e-09	2.339710e+01	2.037682e+02
2.450000e-06	3.241953e-06	3.086772e-09	2.374616e+01	2.052382e+02
2.460000e-06	3.289441e-06	3.110289e-09	2.409400e+01	2.066856e+02
2.470000e-06	3.336703e-06	3.134139e-09	2.444017e+01	2.081139e+02
2.480000e-06	3.383758e-06	3.154052e-09	2.478483e+01	2.095259e+02
2.490000e-06	3.430603e-06	3.173104e-09	2.512795e+01	2.109242e+02
2.500000e-06	3.477213e-06	3.194680e-09	2.546936e+01	2.123109e+02
2.510000e-06	3.523592e-06	3.218116e-09	2.580907e+01	2.136873e+02
2.520000e-06	3.569673e-06	3.238329e-09	2.614659e+01	2.150547e+02
2.530000e-06	3.615514e-06	3.255521e-09	2.648237e+01	2.164137e+02
2.540000e-06	3.661117e-06	3.273809e-09	2.681639e+01	2.177645e+02
2.550000e-06	3.706433e-06	3.292567e-09	2.714831e+01	2.191069e+02
2.560000e-06	3.751501e-06	3.310265e-09	2.747842e+01	2.204406e+02
2.570000e-06	3.796293e-06	3.328556e-09	2.780651e+01	2.217647e+02
2.580000e-06	3.840851e-06	3.347899e-09	2.813288e+01	2.230780e+02
2.590000e-06	3.885166e-06	3.366008e-09	2.845747e+01	2.243794e+02
2.600000e-06	3.929237e-06	3.382139e-09	2.878027e+01	2.256672e+02
2.610000e-06	3.973096e-06	3.399215e-09	2.910153e+01	2.269397e+02
2.620000e-06	4.016775e-06	3.417211e-09	2.942146e+01	2.281953e+02
2.630000e-06	4.060333e-06	3.433643e-09	2.974050e+01	2.294318e+02
2.640000e-06	4.103688e-06	3.447367e-09	3.005807e+01	2.306475e+02
2.650000e-06	4.146754e-06	3.463123e-09	3.037351e+01	2.318404e+02
2.660000e-06	4.189510e-06	3.484119e-09	3.068668e+01	2.330086e+02
2.670000e-06	4.231867e-06	3.503052e-09	3.099693e+01	2.341503e+02
2.680000e-06	4.273683e-06	3.519620e-09	3.130322e+01	2.352637e+02
2.690000e-06	4.314958e-06	3.536201e-09	3.160554e+01	2.363472e+02
2.700000e-06	4.355828e-06	3.551920e-09	3.190490e+01	2.373994e+02
2.710000e-06	4.396342e-06	3.564947e-09	3.220166e+01	2.384191e+02
2.720000e-06	4.436398e-06	3.575199e-09	3.249505e+01	2.394053e+02
2.730000e-06	4.476108e-06	3.585825e-09	3.278591e+01	2.403570e+02
2.740000e-06	4.515671e-06	3.596604e-09	3.307569e+01	2.412737e+02
2.750000e-06	4.555009e-06	3.609708e-09	3.336383e+01	2.421552e+02
2.760000e-06	4.594093e-06	3.625394e-09	3.365011e+01	2.430012e+02
2.770000e-06	4.632955e-06	3.639277e-09	3.393476e+01	2.438120e+02
2.780000e-06	4.671444e-06	3.648813e-09	3.421668e+01	2.445880e+02
2.790000e-06	4.709489e-06	3.663316e-09	3.449535e+01	2.453298e+02
2.800000e-06	4.747208e-06	3.679086e-09	3.477162e+01	2.460383e+02
2.810000e-06	4.784611e-06	3.688959e-09	3.504559e+01	2.467147e+02
2.820000e-06	4.821668e-06	3.696305e-09	3.531702e+01	2.473603e+02
2.830000e-06	4.858462e-06	3.704113e-09	3.558652e+01	2.479765e+02
2.840000e-06	4.894940e-06	3.717625e-09	3.585371e+01	2.485652e+02
2.850000e-06	4.931076e-06	3.731968e-09	3.611839e+01	2.491281e+02
2.860000e-06	4.966985e-06	3.744680e-09	3.638141e+01	2.496671e+02
2.870000e-06	5.002726e-06	3.755965e-09	3.664320e+01	2.501844e+02
2.880000e-06	5.038258e-06	3.770081e-09	3.690346e+01	2.506821e+02
2.890000e-06	5.073445e-06	3.783021e-09	3.716119e+01	2.511624e+02
2.900000e-06	5.108294e-06	3.790661e-09	3.741645e+01	2.516274e+02
