# Temperatura_=_20.0
# Concentracion g/m^3_=_9000.0
# C_Vs_to_Am_M_A/Vsm_=_65563218390.804596
# pendiente_HvsI_1/m_=_3716.3
# ordenada_HvsI_A/m_=_1297.0
# frecuencia_Hz_=_135341.7763688185

Tiempo_(s)	Campo_(V.s)	Magnetizacion_(V.s)	Campo_(kA/m)	Magnetizacion_(A/m)
0.000000e+00	-6.481331e-06	-4.079454e-09	-4.773645e+01	-2.732937e+02
1.000000e-08	-6.481465e-06	-4.076967e-09	-4.773743e+01	-2.733555e+02
2.000000e-08	-6.481190e-06	-4.076711e-09	-4.773540e+01	-2.734013e+02
3.000000e-08	-6.480294e-06	-4.076476e-09	-4.772881e+01	-2.734299e+02
4.000000e-08	-6.478731e-06	-4.075068e-09	-4.771730e+01	-2.734400e+02
5.000000e-08	-6.476508e-06	-4.072503e-09	-4.770093e+01	-2.734304e+02
6.000000e-08	-6.473664e-06	-4.065864e-09	-4.767998e+01	-2.734001e+02
7.000000e-08	-6.470367e-06	-4.048037e-09	-4.765569e+01	-2.733483e+02
8.000000e-08	-6.466749e-06	-4.062933e-09	-4.762905e+01	-2.732742e+02
9.000000e-08	-6.462705e-06	-4.129885e-09	-4.759926e+01	-2.731773e+02
1.000000e-07	-6.458056e-06	-4.170655e-09	-4.756502e+01	-2.730574e+02
1.100000e-07	-6.452756e-06	-4.061343e-09	-4.752598e+01	-2.729142e+02
1.200000e-07	-6.447030e-06	-3.945232e-09	-4.748381e+01	-2.727478e+02
1.300000e-07	-6.441078e-06	-4.007794e-09	-4.743998e+01	-2.725585e+02
1.400000e-07	-6.434759e-06	-4.193373e-09	-4.739344e+01	-2.723467e+02
1.500000e-07	-6.427958e-06	-4.165779e-09	-4.734334e+01	-2.721132e+02
1.600000e-07	-6.420719e-06	-4.035103e-09	-4.729003e+01	-2.718586e+02
1.700000e-07	-6.413097e-06	-4.016810e-09	-4.723389e+01	-2.715841e+02
1.800000e-07	-6.405132e-06	-4.129579e-09	-4.717522e+01	-2.712909e+02
1.900000e-07	-6.396947e-06	-4.218707e-09	-4.711494e+01	-2.709804e+02
2.000000e-07	-6.388401e-06	-4.169024e-09	-4.705200e+01	-2.706540e+02
2.100000e-07	-6.379042e-06	-4.046478e-09	-4.698306e+01	-2.703134e+02
2.200000e-07	-6.368837e-06	-3.964374e-09	-4.690790e+01	-2.699603e+02
2.300000e-07	-6.358081e-06	-4.079881e-09	-4.682868e+01	-2.695966e+02
2.400000e-07	-6.346942e-06	-4.132529e-09	-4.674664e+01	-2.692243e+02
2.500000e-07	-6.335262e-06	-3.996381e-09	-4.666062e+01	-2.688452e+02
2.600000e-07	-6.322873e-06	-3.870976e-09	-4.656937e+01	-2.684613e+02
2.700000e-07	-6.309973e-06	-4.013866e-09	-4.647436e+01	-2.680747e+02
2.800000e-07	-6.296632e-06	-4.137040e-09	-4.637610e+01	-2.676872e+02
2.900000e-07	-6.282729e-06	-4.019394e-09	-4.627370e+01	-2.673008e+02
3.000000e-07	-6.268297e-06	-3.923613e-09	-4.616740e+01	-2.669173e+02
3.100000e-07	-6.253236e-06	-4.037915e-09	-4.605648e+01	-2.665385e+02
3.200000e-07	-6.237440e-06	-4.063690e-09	-4.594013e+01	-2.661659e+02
3.300000e-07	-6.221107e-06	-4.007219e-09	-4.581983e+01	-2.658012e+02
3.400000e-07	-6.204407e-06	-4.017551e-09	-4.569684e+01	-2.654456e+02
3.500000e-07	-6.187322e-06	-3.994515e-09	-4.557101e+01	-2.651003e+02
3.600000e-07	-6.169865e-06	-3.924703e-09	-4.544243e+01	-2.647662e+02
3.700000e-07	-6.152182e-06	-4.026216e-09	-4.531219e+01	-2.644443e+02
3.800000e-07	-6.134085e-06	-4.088060e-09	-4.517890e+01	-2.641350e+02
3.900000e-07	-6.115389e-06	-3.950537e-09	-4.504120e+01	-2.638388e+02
4.000000e-07	-6.096211e-06	-3.952660e-09	-4.489995e+01	-2.635557e+02
4.100000e-07	-6.076690e-06	-4.146401e-09	-4.475618e+01	-2.632858e+02
4.200000e-07	-6.056868e-06	-4.153825e-09	-4.461018e+01	-2.630287e+02
4.300000e-07	-6.036718e-06	-3.999496e-09	-4.446177e+01	-2.627840e+02
4.400000e-07	-6.016272e-06	-4.059243e-09	-4.431118e+01	-2.625509e+02
4.500000e-07	-5.995513e-06	-4.203957e-09	-4.415829e+01	-2.623286e+02
4.600000e-07	-5.974404e-06	-4.155236e-09	-4.400281e+01	-2.621158e+02
4.700000e-07	-5.952898e-06	-4.024811e-09	-4.384442e+01	-2.619114e+02
4.800000e-07	-5.930949e-06	-4.077851e-09	-4.368276e+01	-2.617140e+02
4.900000e-07	-5.908588e-06	-4.145286e-09	-4.351807e+01	-2.615218e+02
5.000000e-07	-5.885795e-06	-4.102773e-09	-4.335019e+01	-2.613332e+02
5.100000e-07	-5.862591e-06	-4.058780e-09	-4.317929e+01	-2.611465e+02
5.200000e-07	-5.839056e-06	-4.095349e-09	-4.300595e+01	-2.609597e+02
5.300000e-07	-5.815141e-06	-4.081400e-09	-4.282981e+01	-2.607708e+02
5.400000e-07	-5.790791e-06	-4.071933e-09	-4.265046e+01	-2.605779e+02
5.500000e-07	-5.766042e-06	-4.095028e-09	-4.246818e+01	-2.603791e+02
5.600000e-07	-5.740712e-06	-4.070059e-09	-4.228162e+01	-2.601722e+02
5.700000e-07	-5.714627e-06	-4.011624e-09	-4.208950e+01	-2.599555e+02
5.800000e-07	-5.687912e-06	-4.055099e-09	-4.189274e+01	-2.597269e+02
5.900000e-07	-5.660760e-06	-4.089636e-09	-4.169276e+01	-2.594848e+02
6.000000e-07	-5.633328e-06	-4.026496e-09	-4.149072e+01	-2.592275e+02
6.100000e-07	-5.605648e-06	-3.984782e-09	-4.128685e+01	-2.589534e+02
6.200000e-07	-5.577720e-06	-4.032081e-09	-4.108115e+01	-2.586610e+02
6.300000e-07	-5.549456e-06	-4.050360e-09	-4.087298e+01	-2.583492e+02
6.400000e-07	-5.520821e-06	-3.998879e-09	-4.066208e+01	-2.580168e+02
6.500000e-07	-5.491776e-06	-3.966309e-09	-4.044815e+01	-2.576631e+02
6.600000e-07	-5.462244e-06	-3.982413e-09	-4.023064e+01	-2.572872e+02
6.700000e-07	-5.432277e-06	-3.997498e-09	-4.000993e+01	-2.568887e+02
6.800000e-07	-5.402012e-06	-3.970716e-09	-3.978702e+01	-2.564673e+02
6.900000e-07	-5.371411e-06	-3.948761e-09	-3.956164e+01	-2.560229e+02
7.000000e-07	-5.340370e-06	-3.949175e-09	-3.933301e+01	-2.555557e+02
7.100000e-07	-5.309063e-06	-3.956935e-09	-3.910243e+01	-2.550660e+02
7.200000e-07	-5.277528e-06	-3.948640e-09	-3.887017e+01	-2.545543e+02
7.300000e-07	-5.245703e-06	-3.940047e-09	-3.863577e+01	-2.540213e+02
7.400000e-07	-5.213615e-06	-3.915401e-09	-3.839943e+01	-2.534679e+02
7.500000e-07	-5.181209e-06	-3.906269e-09	-3.816076e+01	-2.528951e+02
7.600000e-07	-5.148313e-06	-3.917237e-09	-3.791847e+01	-2.523041e+02
7.700000e-07	-5.114802e-06	-3.915845e-09	-3.767166e+01	-2.516962e+02
7.800000e-07	-5.080674e-06	-3.877987e-09	-3.742030e+01	-2.510727e+02
7.900000e-07	-5.046027e-06	-3.868506e-09	-3.716511e+01	-2.504352e+02
8.000000e-07	-5.010980e-06	-3.887838e-09	-3.690698e+01	-2.497852e+02
8.100000e-07	-4.975621e-06	-3.885188e-09	-3.664655e+01	-2.491241e+02
8.200000e-07	-4.939966e-06	-3.848037e-09	-3.638395e+01	-2.484537e+02
8.300000e-07	-4.903997e-06	-3.834591e-09	-3.611903e+01	-2.477754e+02
8.400000e-07	-4.867759e-06	-3.843455e-09	-3.585213e+01	-2.470908e+02
8.500000e-07	-4.831183e-06	-3.838321e-09	-3.558274e+01	-2.464012e+02
8.600000e-07	-4.794217e-06	-3.813955e-09	-3.531048e+01	-2.457081e+02
8.700000e-07	-4.756982e-06	-3.797669e-09	-3.503623e+01	-2.450126e+02
8.800000e-07	-4.719467e-06	-3.793368e-09	-3.475992e+01	-2.443160e+02
8.900000e-07	-4.681570e-06	-3.787888e-09	-3.448081e+01	-2.436191e+02
9.000000e-07	-4.643422e-06	-3.776351e-09	-3.419984e+01	-2.429228e+02
9.100000e-07	-4.604946e-06	-3.760679e-09	-3.391646e+01	-2.422276e+02
9.200000e-07	-4.566028e-06	-3.747330e-09	-3.362981e+01	-2.415341e+02
9.300000e-07	-4.526860e-06	-3.740312e-09	-3.334133e+01	-2.408424e+02
9.400000e-07	-4.487496e-06	-3.734412e-09	-3.305141e+01	-2.401526e+02
9.500000e-07	-4.447883e-06	-3.716402e-09	-3.275965e+01	-2.394645e+02
9.600000e-07	-4.408042e-06	-3.696064e-09	-3.246621e+01	-2.387776e+02
9.700000e-07	-4.367997e-06	-3.684920e-09	-3.217127e+01	-2.380914e+02
9.800000e-07	-4.327682e-06	-3.680665e-09	-3.187434e+01	-2.374052e+02
9.900000e-07	-4.286950e-06	-3.663711e-09	-3.157434e+01	-2.367177e+02
1.000000e-06	-4.245698e-06	-3.646731e-09	-3.127051e+01	-2.360280e+02
1.010000e-06	-4.203955e-06	-3.637899e-09	-3.096306e+01	-2.353346e+02
1.020000e-06	-4.161805e-06	-3.630642e-09	-3.065262e+01	-2.346360e+02
1.030000e-06	-4.119282e-06	-3.611856e-09	-3.033943e+01	-2.339305e+02
1.040000e-06	-4.076401e-06	-3.593748e-09	-3.002360e+01	-2.332164e+02
1.050000e-06	-4.033217e-06	-3.580225e-09	-2.970554e+01	-2.324919e+02
1.060000e-06	-3.989775e-06	-3.568589e-09	-2.938558e+01	-2.317549e+02
1.070000e-06	-3.946018e-06	-3.552511e-09	-2.906330e+01	-2.310036e+02
1.080000e-06	-3.902002e-06	-3.539679e-09	-2.873911e+01	-2.302359e+02
1.090000e-06	-3.857837e-06	-3.528744e-09	-2.841383e+01	-2.294498e+02
1.100000e-06	-3.813505e-06	-3.517022e-09	-2.808731e+01	-2.286433e+02
1.110000e-06	-3.768893e-06	-3.499466e-09	-2.775873e+01	-2.278147e+02
1.120000e-06	-3.723928e-06	-3.480539e-09	-2.742756e+01	-2.269620e+02
1.130000e-06	-3.678751e-06	-3.462059e-09	-2.709482e+01	-2.260835e+02
1.140000e-06	-3.633340e-06	-3.444933e-09	-2.676036e+01	-2.251777e+02
1.150000e-06	-3.587696e-06	-3.428017e-09	-2.642418e+01	-2.242432e+02
1.160000e-06	-3.541871e-06	-3.411040e-09	-2.608667e+01	-2.232786e+02
1.170000e-06	-3.495760e-06	-3.395530e-09	-2.574705e+01	-2.222829e+02
1.180000e-06	-3.449360e-06	-3.382110e-09	-2.540530e+01	-2.212553e+02
1.190000e-06	-3.402701e-06	-3.367941e-09	-2.506165e+01	-2.201951e+02
1.200000e-06	-3.355853e-06	-3.349793e-09	-2.471660e+01	-2.191019e+02
1.210000e-06	-3.308821e-06	-3.330838e-09	-2.437020e+01	-2.179754e+02
1.220000e-06	-3.261489e-06	-3.311533e-09	-2.402160e+01	-2.168156e+02
1.230000e-06	-3.213832e-06	-3.293540e-09	-2.367059e+01	-2.156229e+02
1.240000e-06	-3.165997e-06	-3.272062e-09	-2.331827e+01	-2.143975e+02
1.250000e-06	-3.118064e-06	-3.249955e-09	-2.296524e+01	-2.131403e+02
1.260000e-06	-3.069910e-06	-3.232115e-09	-2.261057e+01	-2.118521e+02
1.270000e-06	-3.021541e-06	-3.216272e-09	-2.225432e+01	-2.105338e+02
1.280000e-06	-2.972937e-06	-3.194723e-09	-2.189634e+01	-2.091867e+02
1.290000e-06	-2.924000e-06	-3.172028e-09	-2.153591e+01	-2.078120e+02
1.300000e-06	-2.874744e-06	-3.150257e-09	-2.117313e+01	-2.064112e+02
1.310000e-06	-2.825256e-06	-3.128253e-09	-2.080864e+01	-2.049858e+02
1.320000e-06	-2.775601e-06	-3.105009e-09	-2.044292e+01	-2.035373e+02
1.330000e-06	-2.725606e-06	-3.081905e-09	-2.007469e+01	-2.020672e+02
1.340000e-06	-2.675177e-06	-3.058554e-09	-1.970327e+01	-2.005771e+02
1.350000e-06	-2.624344e-06	-3.034626e-09	-1.932888e+01	-1.990685e+02
1.360000e-06	-2.573179e-06	-3.010273e-09	-1.895204e+01	-1.975426e+02
1.370000e-06	-2.521844e-06	-2.987098e-09	-1.857394e+01	-1.960007e+02
1.380000e-06	-2.470366e-06	-2.964744e-09	-1.819480e+01	-1.944439e+02
1.390000e-06	-2.418734e-06	-2.942040e-09	-1.781451e+01	-1.928730e+02
1.400000e-06	-2.366950e-06	-2.916798e-09	-1.743311e+01	-1.912885e+02
1.410000e-06	-2.315009e-06	-2.891235e-09	-1.705056e+01	-1.896908e+02
1.420000e-06	-2.262917e-06	-2.866160e-09	-1.666689e+01	-1.880799e+02
1.430000e-06	-2.210646e-06	-2.839390e-09	-1.628190e+01	-1.864555e+02
1.440000e-06	-2.158236e-06	-2.809428e-09	-1.589589e+01	-1.848168e+02
1.450000e-06	-2.105709e-06	-2.781720e-09	-1.550901e+01	-1.831627e+02
1.460000e-06	-2.053042e-06	-2.756904e-09	-1.512111e+01	-1.814917e+02
1.470000e-06	-2.000303e-06	-2.730364e-09	-1.473268e+01	-1.798018e+02
1.480000e-06	-1.947418e-06	-2.698992e-09	-1.434317e+01	-1.780908e+02
1.490000e-06	-1.894265e-06	-2.665099e-09	-1.395168e+01	-1.763557e+02
1.500000e-06	-1.840941e-06	-2.633981e-09	-1.355894e+01	-1.745934e+02
1.510000e-06	-1.787488e-06	-2.605435e-09	-1.316525e+01	-1.728002e+02
1.520000e-06	-1.733887e-06	-2.573189e-09	-1.277046e+01	-1.709718e+02
1.530000e-06	-1.680158e-06	-2.537152e-09	-1.237474e+01	-1.691039e+02
1.540000e-06	-1.626358e-06	-2.504593e-09	-1.197849e+01	-1.671914e+02
1.550000e-06	-1.572536e-06	-2.476410e-09	-1.158207e+01	-1.652292e+02
1.560000e-06	-1.518587e-06	-2.445477e-09	-1.118473e+01	-1.632115e+02
1.570000e-06	-1.464477e-06	-2.406583e-09	-1.078620e+01	-1.611326e+02
1.580000e-06	-1.410265e-06	-2.366022e-09	-1.038691e+01	-1.589861e+02
1.590000e-06	-1.355936e-06	-2.329175e-09	-9.986771e+00	-1.567658e+02
1.600000e-06	-1.301546e-06	-2.291635e-09	-9.586178e+00	-1.544651e+02
1.610000e-06	-1.247098e-06	-2.248575e-09	-9.185155e+00	-1.520773e+02
1.620000e-06	-1.192524e-06	-2.203569e-09	-8.783202e+00	-1.495958e+02
1.630000e-06	-1.137876e-06	-2.162061e-09	-8.380708e+00	-1.470139e+02
1.640000e-06	-1.083177e-06	-2.123933e-09	-7.977843e+00	-1.443249e+02
1.650000e-06	-1.028437e-06	-2.082340e-09	-7.574670e+00	-1.415223e+02
1.660000e-06	-9.736654e-07	-2.036258e-09	-7.171262e+00	-1.385999e+02
1.670000e-06	-9.187568e-07	-1.987907e-09	-6.766849e+00	-1.355515e+02
1.680000e-06	-8.636682e-07	-1.939952e-09	-6.361109e+00	-1.323716e+02
1.690000e-06	-8.085663e-07	-1.888486e-09	-5.955271e+00	-1.290546e+02
1.700000e-06	-7.534439e-07	-1.836588e-09	-5.549282e+00	-1.255959e+02
1.710000e-06	-6.982395e-07	-1.784206e-09	-5.142690e+00	-1.219909e+02
1.720000e-06	-6.429889e-07	-1.730183e-09	-4.735757e+00	-1.182359e+02
1.730000e-06	-5.877402e-07	-1.673011e-09	-4.328837e+00	-1.143276e+02
1.740000e-06	-5.325242e-07	-1.612474e-09	-3.922159e+00	-1.102636e+02
1.750000e-06	-4.772386e-07	-1.551660e-09	-3.514968e+00	-1.060420e+02
1.760000e-06	-4.218987e-07	-1.490378e-09	-3.107378e+00	-1.016617e+02
1.770000e-06	-3.665280e-07	-1.425438e-09	-2.699560e+00	-9.712256e+01
1.780000e-06	-3.111290e-07	-1.354941e-09	-2.291535e+00	-9.242502e+01
1.790000e-06	-2.557488e-07	-1.283033e-09	-1.883647e+00	-8.757047e+01
1.800000e-06	-2.003736e-07	-1.211508e-09	-1.475796e+00	-8.256115e+01
1.810000e-06	-1.449840e-07	-1.138572e-09	-1.067839e+00	-7.740015e+01
1.820000e-06	-8.957116e-08	-1.061001e-09	-6.597115e-01	-7.209143e+01
1.830000e-06	-3.413616e-08	-9.808284e-10	-2.514204e-01	-6.663981e+01
1.840000e-06	2.135224e-08	-9.007944e-10	1.572640e-01	-6.105095e+01
1.850000e-06	7.681712e-08	-8.178375e-10	5.657752e-01	-5.533137e+01
1.860000e-06	1.321679e-07	-7.280024e-10	9.734459e-01	-4.948835e+01
1.870000e-06	1.875302e-07	-6.367659e-10	1.381202e+00	-4.352995e+01
1.880000e-06	2.429189e-07	-5.448740e-10	1.789152e+00	-3.746499e+01
1.890000e-06	2.983029e-07	-4.509209e-10	2.197068e+00	-3.130293e+01
1.900000e-06	3.536495e-07	-3.550644e-10	2.604707e+00	-2.505390e+01
1.910000e-06	4.089257e-07	-2.572414e-10	3.011829e+00	-1.872856e+01
1.920000e-06	4.641552e-07	-1.573759e-10	3.418606e+00	-1.233811e+01
1.930000e-06	5.194010e-07	-5.674690e-11	3.825504e+00	-5.894187e+00
1.940000e-06	5.747030e-07	4.134136e-11	4.232815e+00	5.912059e-01
1.950000e-06	6.299403e-07	1.385884e-10	4.639651e+00	7.105768e+00
1.960000e-06	6.850559e-07	2.396333e-10	5.045589e+00	1.363698e+01
1.970000e-06	7.401316e-07	3.431624e-10	5.451234e+00	2.017219e+01
1.980000e-06	7.951540e-07	4.477666e-10	5.856486e+00	2.669868e+01
1.990000e-06	8.500803e-07	5.510999e-10	6.261031e+00	3.320376e+01
2.000000e-06	9.049656e-07	6.542487e-10	6.665273e+00	3.967484e+01
2.010000e-06	9.598427e-07	7.592066e-10	7.069455e+00	4.609953e+01
2.020000e-06	1.014564e-06	8.622751e-10	7.472493e+00	5.246569e+01
2.030000e-06	1.069154e-06	9.613656e-10	7.874559e+00	5.876153e+01
2.040000e-06	1.123688e-06	1.054814e-09	8.276211e+00	6.497568e+01
2.050000e-06	1.178196e-06	1.147443e-09	8.677674e+00	7.109725e+01
2.060000e-06	1.232667e-06	1.238669e-09	9.078864e+00	7.711589e+01
2.070000e-06	1.287051e-06	1.326277e-09	9.479415e+00	8.302190e+01
2.080000e-06	1.341363e-06	1.413596e-09	9.879440e+00	8.880621e+01
2.090000e-06	1.395489e-06	1.499667e-09	1.027809e+01	9.446051e+01
2.100000e-06	1.449432e-06	1.583299e-09	1.067539e+01	9.997721e+01
2.110000e-06	1.503335e-06	1.663739e-09	1.107240e+01	1.053496e+02
2.120000e-06	1.557227e-06	1.740351e-09	1.146932e+01	1.105717e+02
2.130000e-06	1.610993e-06	1.813341e-09	1.186532e+01	1.156384e+02
2.140000e-06	1.664659e-06	1.881866e-09	1.226058e+01	1.205456e+02
2.150000e-06	1.718240e-06	1.947590e-09	1.265522e+01	1.252899e+02
2.160000e-06	1.771642e-06	2.011604e-09	1.304854e+01	1.298690e+02
2.170000e-06	1.824940e-06	2.074915e-09	1.344109e+01	1.342813e+02
2.180000e-06	1.878129e-06	2.136731e-09	1.383284e+01	1.385261e+02
2.190000e-06	1.931155e-06	2.194511e-09	1.422338e+01	1.426035e+02
2.200000e-06	1.984018e-06	2.249362e-09	1.461274e+01	1.465147e+02
2.210000e-06	2.036718e-06	2.300102e-09	1.500088e+01	1.502614e+02
2.220000e-06	2.089255e-06	2.347694e-09	1.538783e+01	1.538462e+02
2.230000e-06	2.141672e-06	2.394261e-09	1.577389e+01	1.572723e+02
2.240000e-06	2.193924e-06	2.439881e-09	1.615874e+01	1.605437e+02
2.250000e-06	2.245953e-06	2.479902e-09	1.654195e+01	1.636649e+02
2.260000e-06	2.297853e-06	2.515894e-09	1.692420e+01	1.666411e+02
2.270000e-06	2.349631e-06	2.554344e-09	1.730556e+01	1.694778e+02
2.280000e-06	2.401279e-06	2.594432e-09	1.768596e+01	1.721810e+02
2.290000e-06	2.452760e-06	2.631290e-09	1.806512e+01	1.747573e+02
2.300000e-06	2.504046e-06	2.664660e-09	1.844286e+01	1.772132e+02
2.310000e-06	2.555039e-06	2.699019e-09	1.881843e+01	1.795558e+02
2.320000e-06	2.605800e-06	2.734257e-09	1.919230e+01	1.817922e+02
2.330000e-06	2.656348e-06	2.765616e-09	1.956459e+01	1.839295e+02
2.340000e-06	2.706504e-06	2.792188e-09	1.993400e+01	1.859751e+02
2.350000e-06	2.756354e-06	2.817378e-09	2.030116e+01	1.879362e+02
2.360000e-06	2.805877e-06	2.844891e-09	2.066591e+01	1.898200e+02
2.370000e-06	2.855060e-06	2.873983e-09	2.102815e+01	1.916333e+02
2.380000e-06	2.903908e-06	2.901331e-09	2.138793e+01	1.933832e+02
2.390000e-06	2.952369e-06	2.927883e-09	2.174485e+01	1.950761e+02
2.400000e-06	3.000619e-06	2.955801e-09	2.210023e+01	1.967182e+02
2.410000e-06	3.048730e-06	2.984630e-09	2.245457e+01	1.983156e+02
2.420000e-06	3.096650e-06	3.011715e-09	2.280752e+01	1.998738e+02
2.430000e-06	3.144399e-06	3.035637e-09	2.315920e+01	2.013980e+02
2.440000e-06	3.192020e-06	3.057336e-09	2.350994e+01	2.028928e+02
2.450000e-06	3.239462e-06	3.079516e-09	2.385936e+01	2.043626e+02
2.460000e-06	3.286689e-06	3.102058e-09	2.420719e+01	2.058111e+02
2.470000e-06	3.333695e-06	3.124366e-09	2.455341e+01	2.072417e+02
2.480000e-06	3.380453e-06	3.145871e-09	2.489779e+01	2.086572e+02
2.490000e-06	3.426884e-06	3.167123e-09	2.523977e+01	2.100600e+02
2.500000e-06	3.473015e-06	3.190375e-09	2.557953e+01	2.114520e+02
2.510000e-06	3.518904e-06	3.214802e-09	2.591751e+01	2.128347e+02
2.520000e-06	3.564547e-06	3.235621e-09	2.625368e+01	2.142089e+02
2.530000e-06	3.610079e-06	3.252986e-09	2.658904e+01	2.155753e+02
2.540000e-06	3.655489e-06	3.271501e-09	2.692349e+01	2.169341e+02
2.550000e-06	3.700582e-06	3.291471e-09	2.725561e+01	2.182850e+02
2.560000e-06	3.745318e-06	3.308852e-09	2.758510e+01	2.196274e+02
2.570000e-06	3.789788e-06	3.325201e-09	2.791263e+01	2.209605e+02
2.580000e-06	3.834061e-06	3.343735e-09	2.823871e+01	2.222832e+02
2.590000e-06	3.878138e-06	3.362785e-09	2.856335e+01	2.235941e+02
2.600000e-06	3.922044e-06	3.381421e-09	2.888672e+01	2.248916e+02
2.610000e-06	3.965817e-06	3.400454e-09	2.920913e+01	2.261740e+02
2.620000e-06	4.009367e-06	3.418331e-09	2.952988e+01	2.274395e+02
2.630000e-06	4.052671e-06	3.434617e-09	2.984882e+01	2.286862e+02
2.640000e-06	4.095700e-06	3.450097e-09	3.016574e+01	2.299121e+02
2.650000e-06	4.138402e-06	3.465899e-09	3.048025e+01	2.311153e+02
2.660000e-06	4.180611e-06	3.482590e-09	3.079113e+01	2.322940e+02
2.670000e-06	4.222224e-06	3.498884e-09	3.109762e+01	2.334462e+02
2.680000e-06	4.263312e-06	3.515713e-09	3.140024e+01	2.345703e+02
2.690000e-06	4.303980e-06	3.531672e-09	3.169977e+01	2.356648e+02
2.700000e-06	4.344318e-06	3.546454e-09	3.199687e+01	2.367281e+02
2.710000e-06	4.384384e-06	3.559237e-09	3.229196e+01	2.377590e+02
2.720000e-06	4.424281e-06	3.570742e-09	3.258581e+01	2.387566e+02
2.730000e-06	4.463979e-06	3.583335e-09	3.287820e+01	2.397201e+02
2.740000e-06	4.503435e-06	3.596490e-09	3.316880e+01	2.406488e+02
2.750000e-06	4.542651e-06	3.610941e-09	3.345763e+01	2.415425e+02
2.760000e-06	4.581492e-06	3.625934e-09	3.374371e+01	2.424011e+02
2.770000e-06	4.619929e-06	3.639038e-09	3.402680e+01	2.432248e+02
2.780000e-06	4.658072e-06	3.649866e-09	3.430774e+01	2.440140e+02
2.790000e-06	4.695900e-06	3.661608e-09	3.458635e+01	2.447694e+02
2.800000e-06	4.733465e-06	3.676389e-09	3.486302e+01	2.454918e+02
2.810000e-06	4.770710e-06	3.688772e-09	3.513734e+01	2.461824e+02
2.820000e-06	4.807556e-06	3.697038e-09	3.540872e+01	2.468426e+02
2.830000e-06	4.844087e-06	3.706933e-09	3.567778e+01	2.474737e+02
2.840000e-06	4.880307e-06	3.719241e-09	3.594455e+01	2.480776e+02
2.850000e-06	4.916269e-06	3.731149e-09	3.620941e+01	2.486560e+02
2.860000e-06	4.952015e-06	3.741285e-09	3.647269e+01	2.492109e+02
2.870000e-06	4.987560e-06	3.750550e-09	3.673449e+01	2.497443e+02
2.880000e-06	5.022842e-06	3.760102e-09	3.699435e+01	2.502583e+02
2.890000e-06	5.057746e-06	3.769064e-09	3.725143e+01	2.507551e+02
2.900000e-06	5.092185e-06	3.777845e-09	3.750508e+01	2.512367e+02
