# Temperatura_=_20.0
# Concentracion g/m^3_=_9000.0
# C_Vs_to_Am_M_A/Vsm_=_65563218390.804596
# pendiente_HvsI_1/m_=_3716.3
# ordenada_HvsI_A/m_=_1297.0
# frecuencia_Hz_=_135333.89857970318

Tiempo_(s)	Campo_(V.s)	Magnetizacion_(V.s)	Campo_(kA/m)	Magnetizacion_(A/m)
0.000000e+00	-6.518925e-06	-4.114278e-09	-4.773753e+01	-2.749277e+02
1.000000e-08	-6.519203e-06	-4.110689e-09	-4.773956e+01	-2.750586e+02
2.000000e-08	-6.519183e-06	-4.105655e-09	-4.773942e+01	-2.751815e+02
3.000000e-08	-6.518802e-06	-4.104746e-09	-4.773663e+01	-2.752949e+02
4.000000e-08	-6.517855e-06	-4.105031e-09	-4.772969e+01	-2.753973e+02
5.000000e-08	-6.516290e-06	-4.103001e-09	-4.771823e+01	-2.754874e+02
6.000000e-08	-6.514079e-06	-4.101070e-09	-4.770204e+01	-2.755636e+02
7.000000e-08	-6.511260e-06	-4.097173e-09	-4.768140e+01	-2.756249e+02
8.000000e-08	-6.507920e-06	-4.083750e-09	-4.765694e+01	-2.756699e+02
9.000000e-08	-6.504114e-06	-4.090690e-09	-4.762907e+01	-2.756978e+02
1.000000e-07	-6.499845e-06	-4.145313e-09	-4.759780e+01	-2.757076e+02
1.100000e-07	-6.494965e-06	-4.177849e-09	-4.756207e+01	-2.756987e+02
1.200000e-07	-6.489514e-06	-4.106266e-09	-4.752215e+01	-2.756705e+02
1.300000e-07	-6.483708e-06	-4.013229e-09	-4.747964e+01	-2.756225e+02
1.400000e-07	-6.477618e-06	-4.058765e-09	-4.743504e+01	-2.755547e+02
1.500000e-07	-6.471083e-06	-4.181658e-09	-4.738719e+01	-2.754671e+02
1.600000e-07	-6.464076e-06	-4.157849e-09	-4.733587e+01	-2.753597e+02
1.700000e-07	-6.456678e-06	-4.086116e-09	-4.728170e+01	-2.752329e+02
1.800000e-07	-6.448967e-06	-4.135269e-09	-4.722523e+01	-2.750874e+02
1.900000e-07	-6.440943e-06	-4.163199e-09	-4.716647e+01	-2.749237e+02
2.000000e-07	-6.432620e-06	-4.228631e-09	-4.710552e+01	-2.747426e+02
2.100000e-07	-6.423883e-06	-4.202662e-09	-4.704154e+01	-2.745453e+02
2.200000e-07	-6.414403e-06	-4.172046e-09	-4.697212e+01	-2.743329e+02
2.300000e-07	-6.404133e-06	-4.103066e-09	-4.689691e+01	-2.741065e+02
2.400000e-07	-6.393287e-06	-4.234718e-09	-4.681749e+01	-2.738676e+02
2.500000e-07	-6.381925e-06	-4.258348e-09	-4.673429e+01	-2.736175e+02
2.600000e-07	-6.370015e-06	-4.089621e-09	-4.664707e+01	-2.733578e+02
2.700000e-07	-6.357551e-06	-4.021883e-09	-4.655580e+01	-2.730901e+02
2.800000e-07	-6.344653e-06	-4.229299e-09	-4.646135e+01	-2.728158e+02
2.900000e-07	-6.331350e-06	-4.301209e-09	-4.636393e+01	-2.725366e+02
3.000000e-07	-6.317454e-06	-4.081648e-09	-4.626217e+01	-2.722540e+02
3.100000e-07	-6.302922e-06	-4.048903e-09	-4.615576e+01	-2.719695e+02
3.200000e-07	-6.287703e-06	-4.244314e-09	-4.604430e+01	-2.716846e+02
3.300000e-07	-6.271739e-06	-4.229468e-09	-4.592740e+01	-2.714007e+02
3.400000e-07	-6.255254e-06	-4.106971e-09	-4.580668e+01	-2.711190e+02
3.500000e-07	-6.238392e-06	-4.192152e-09	-4.568320e+01	-2.708407e+02
3.600000e-07	-6.221188e-06	-4.158481e-09	-4.555722e+01	-2.705669e+02
3.700000e-07	-6.203667e-06	-4.102297e-09	-4.542892e+01	-2.702983e+02
3.800000e-07	-6.185820e-06	-4.179985e-09	-4.529823e+01	-2.700358e+02
3.900000e-07	-6.167535e-06	-4.245808e-09	-4.516433e+01	-2.697799e+02
4.000000e-07	-6.148645e-06	-4.088980e-09	-4.502600e+01	-2.695310e+02
4.100000e-07	-6.129313e-06	-4.128350e-09	-4.488443e+01	-2.692893e+02
4.200000e-07	-6.109684e-06	-4.251669e-09	-4.474069e+01	-2.690548e+02
4.300000e-07	-6.089781e-06	-4.227157e-09	-4.459494e+01	-2.688274e+02
4.400000e-07	-6.069582e-06	-4.120610e-09	-4.444702e+01	-2.686066e+02
4.500000e-07	-6.049051e-06	-4.206919e-09	-4.429668e+01	-2.683921e+02
4.600000e-07	-6.028131e-06	-4.281751e-09	-4.414349e+01	-2.681831e+02
4.700000e-07	-6.006745e-06	-4.226421e-09	-4.398688e+01	-2.679786e+02
4.800000e-07	-5.984960e-06	-4.132182e-09	-4.382735e+01	-2.677778e+02
4.900000e-07	-5.962817e-06	-4.191289e-09	-4.366520e+01	-2.675795e+02
5.000000e-07	-5.940170e-06	-4.231746e-09	-4.349935e+01	-2.673823e+02
5.100000e-07	-5.917137e-06	-4.174862e-09	-4.333069e+01	-2.671849e+02
5.200000e-07	-5.893788e-06	-4.139475e-09	-4.315970e+01	-2.669859e+02
5.300000e-07	-5.870054e-06	-4.186545e-09	-4.298590e+01	-2.667836e+02
5.400000e-07	-5.846022e-06	-4.173843e-09	-4.280992e+01	-2.665765e+02
5.500000e-07	-5.821607e-06	-4.140787e-09	-4.263113e+01	-2.663629e+02
5.600000e-07	-5.796629e-06	-4.167115e-09	-4.244821e+01	-2.661412e+02
5.700000e-07	-5.771015e-06	-4.152528e-09	-4.226065e+01	-2.659098e+02
5.800000e-07	-5.744698e-06	-4.109701e-09	-4.206793e+01	-2.656671e+02
5.900000e-07	-5.717769e-06	-4.132518e-09	-4.187073e+01	-2.654115e+02
6.000000e-07	-5.690409e-06	-4.156085e-09	-4.167037e+01	-2.651415e+02
6.100000e-07	-5.662744e-06	-4.093389e-09	-4.146779e+01	-2.648559e+02
6.200000e-07	-5.634868e-06	-4.080157e-09	-4.126365e+01	-2.645532e+02
6.300000e-07	-5.606725e-06	-4.116402e-09	-4.105756e+01	-2.642324e+02
6.400000e-07	-5.578185e-06	-4.122513e-09	-4.084857e+01	-2.638924e+02
6.500000e-07	-5.549236e-06	-4.067256e-09	-4.063658e+01	-2.635325e+02
6.600000e-07	-5.519883e-06	-4.059490e-09	-4.042163e+01	-2.631519e+02
6.700000e-07	-5.490176e-06	-4.079515e-09	-4.020409e+01	-2.627500e+02
6.800000e-07	-5.460110e-06	-4.089633e-09	-3.998392e+01	-2.623266e+02
6.900000e-07	-5.429630e-06	-4.045664e-09	-3.976071e+01	-2.618814e+02
7.000000e-07	-5.398791e-06	-4.036167e-09	-3.953488e+01	-2.614145e+02
7.100000e-07	-5.367609e-06	-4.046965e-09	-3.930654e+01	-2.609261e+02
7.200000e-07	-5.336150e-06	-4.048844e-09	-3.907617e+01	-2.604166e+02
7.300000e-07	-5.304410e-06	-4.022677e-09	-3.884374e+01	-2.598863e+02
7.400000e-07	-5.272389e-06	-4.018350e-09	-3.860925e+01	-2.593361e+02
7.500000e-07	-5.240009e-06	-4.000028e-09	-3.837214e+01	-2.587668e+02
7.600000e-07	-5.207220e-06	-3.991804e-09	-3.813202e+01	-2.581793e+02
7.700000e-07	-5.174011e-06	-3.999197e-09	-3.788884e+01	-2.575747e+02
7.800000e-07	-5.140229e-06	-3.991412e-09	-3.764145e+01	-2.569542e+02
7.900000e-07	-5.105774e-06	-3.954582e-09	-3.738914e+01	-2.563190e+02
8.000000e-07	-5.070856e-06	-3.956062e-09	-3.713344e+01	-2.556705e+02
8.100000e-07	-5.035592e-06	-3.975856e-09	-3.687520e+01	-2.550100e+02
8.200000e-07	-4.999954e-06	-3.957789e-09	-3.661423e+01	-2.543389e+02
8.300000e-07	-4.964055e-06	-3.923910e-09	-3.635135e+01	-2.536585e+02
8.400000e-07	-4.927892e-06	-3.921606e-09	-3.608653e+01	-2.529704e+02
8.500000e-07	-4.891432e-06	-3.931370e-09	-3.581953e+01	-2.522756e+02
8.600000e-07	-4.854655e-06	-3.913602e-09	-3.555022e+01	-2.515755e+02
8.700000e-07	-4.817547e-06	-3.887139e-09	-3.527848e+01	-2.508713e+02
8.800000e-07	-4.780070e-06	-3.872071e-09	-3.500404e+01	-2.501639e+02
8.900000e-07	-4.742284e-06	-3.873889e-09	-3.472734e+01	-2.494543e+02
9.000000e-07	-4.704263e-06	-3.864235e-09	-3.444891e+01	-2.487433e+02
9.100000e-07	-4.665877e-06	-3.850309e-09	-3.416781e+01	-2.480314e+02
9.200000e-07	-4.627080e-06	-3.832706e-09	-3.388371e+01	-2.473192e+02
9.300000e-07	-4.588036e-06	-3.825740e-09	-3.359779e+01	-2.466070e+02
9.400000e-07	-4.548782e-06	-3.814788e-09	-3.331034e+01	-2.458947e+02
9.500000e-07	-4.509236e-06	-3.805448e-09	-3.302074e+01	-2.451823e+02
9.600000e-07	-4.469448e-06	-3.784607e-09	-3.272938e+01	-2.444696e+02
9.700000e-07	-4.429410e-06	-3.767246e-09	-3.243619e+01	-2.437560e+02
9.800000e-07	-4.389093e-06	-3.752290e-09	-3.214095e+01	-2.430409e+02
9.900000e-07	-4.348446e-06	-3.745144e-09	-3.184329e+01	-2.423234e+02
1.000000e-06	-4.307338e-06	-3.727148e-09	-3.154226e+01	-2.416025e+02
1.010000e-06	-4.265804e-06	-3.712871e-09	-3.123812e+01	-2.408770e+02
1.020000e-06	-4.223797e-06	-3.701829e-09	-3.093050e+01	-2.401456e+02
1.030000e-06	-4.181250e-06	-3.690853e-09	-3.061893e+01	-2.394067e+02
1.040000e-06	-4.138285e-06	-3.669392e-09	-3.030431e+01	-2.386589e+02
1.050000e-06	-4.095015e-06	-3.653155e-09	-2.998744e+01	-2.379005e+02
1.060000e-06	-4.051495e-06	-3.641691e-09	-2.966875e+01	-2.371296e+02
1.070000e-06	-4.007744e-06	-3.626974e-09	-2.934836e+01	-2.363444e+02
1.080000e-06	-3.963782e-06	-3.607510e-09	-2.902643e+01	-2.355433e+02
1.090000e-06	-3.919609e-06	-3.594075e-09	-2.870296e+01	-2.347242e+02
1.100000e-06	-3.875184e-06	-3.585036e-09	-2.837764e+01	-2.338854e+02
1.110000e-06	-3.830476e-06	-3.570900e-09	-2.805024e+01	-2.330252e+02
1.120000e-06	-3.785502e-06	-3.552076e-09	-2.772091e+01	-2.321417e+02
1.130000e-06	-3.740276e-06	-3.533993e-09	-2.738972e+01	-2.312335e+02
1.140000e-06	-3.694873e-06	-3.519540e-09	-2.705724e+01	-2.302990e+02
1.150000e-06	-3.649268e-06	-3.504232e-09	-2.672328e+01	-2.293368e+02
1.160000e-06	-3.603348e-06	-3.487203e-09	-2.638700e+01	-2.283458e+02
1.170000e-06	-3.557137e-06	-3.465042e-09	-2.604861e+01	-2.273249e+02
1.180000e-06	-3.510665e-06	-3.448398e-09	-2.570829e+01	-2.262733e+02
1.190000e-06	-3.463990e-06	-3.433560e-09	-2.536650e+01	-2.251903e+02
1.200000e-06	-3.417127e-06	-3.419218e-09	-2.502333e+01	-2.240754e+02
1.210000e-06	-3.369975e-06	-3.398600e-09	-2.467803e+01	-2.229285e+02
1.220000e-06	-3.322515e-06	-3.380327e-09	-2.433049e+01	-2.217496e+02
1.230000e-06	-3.274894e-06	-3.361509e-09	-2.398177e+01	-2.205387e+02
1.240000e-06	-3.227152e-06	-3.345348e-09	-2.363216e+01	-2.192963e+02
1.250000e-06	-3.179144e-06	-3.324058e-09	-2.328060e+01	-2.180231e+02
1.260000e-06	-3.130855e-06	-3.301805e-09	-2.292698e+01	-2.167197e+02
1.270000e-06	-3.082339e-06	-3.281048e-09	-2.257171e+01	-2.153872e+02
1.280000e-06	-3.033581e-06	-3.262149e-09	-2.221465e+01	-2.140266e+02
1.290000e-06	-2.984534e-06	-3.240272e-09	-2.185549e+01	-2.126393e+02
1.300000e-06	-2.935148e-06	-3.219477e-09	-2.149384e+01	-2.112265e+02
1.310000e-06	-2.885443e-06	-3.200163e-09	-2.112985e+01	-2.097898e+02
1.320000e-06	-2.835410e-06	-3.180767e-09	-2.076346e+01	-2.083306e+02
1.330000e-06	-2.785045e-06	-3.159462e-09	-2.039465e+01	-2.068504e+02
1.340000e-06	-2.734463e-06	-3.137515e-09	-2.002424e+01	-2.053508e+02
1.350000e-06	-2.683662e-06	-3.113619e-09	-1.965222e+01	-2.038332e+02
1.360000e-06	-2.632501e-06	-3.089976e-09	-1.927758e+01	-2.022989e+02
1.370000e-06	-2.580990e-06	-3.066267e-09	-1.890037e+01	-2.007493e+02
1.380000e-06	-2.529252e-06	-3.042123e-09	-1.852150e+01	-1.991854e+02
1.390000e-06	-2.477368e-06	-3.018978e-09	-1.814155e+01	-1.976080e+02
1.400000e-06	-2.425356e-06	-2.997041e-09	-1.776067e+01	-1.960180e+02
1.410000e-06	-2.373192e-06	-2.975101e-09	-1.737868e+01	-1.944156e+02
1.420000e-06	-2.320901e-06	-2.950049e-09	-1.699576e+01	-1.928011e+02
1.430000e-06	-2.268484e-06	-2.923212e-09	-1.661191e+01	-1.911741e+02
1.440000e-06	-2.215918e-06	-2.893502e-09	-1.622698e+01	-1.895341e+02
1.450000e-06	-2.163192e-06	-2.864424e-09	-1.584087e+01	-1.878802e+02
1.460000e-06	-2.110352e-06	-2.835865e-09	-1.545392e+01	-1.862110e+02
1.470000e-06	-2.057376e-06	-2.806254e-09	-1.506598e+01	-1.845247e+02
1.480000e-06	-2.004221e-06	-2.776111e-09	-1.467674e+01	-1.828192e+02
1.490000e-06	-1.950932e-06	-2.746735e-09	-1.428651e+01	-1.810918e+02
1.500000e-06	-1.897462e-06	-2.715923e-09	-1.389495e+01	-1.793394e+02
1.510000e-06	-1.843838e-06	-2.684479e-09	-1.350227e+01	-1.775585e+02
1.520000e-06	-1.790095e-06	-2.652716e-09	-1.310871e+01	-1.757453e+02
1.530000e-06	-1.736221e-06	-2.620956e-09	-1.271420e+01	-1.738952e+02
1.540000e-06	-1.682219e-06	-2.587242e-09	-1.231875e+01	-1.720036e+02
1.550000e-06	-1.628077e-06	-2.556022e-09	-1.192227e+01	-1.700652e+02
1.560000e-06	-1.573902e-06	-2.522926e-09	-1.152555e+01	-1.680747e+02
1.570000e-06	-1.519661e-06	-2.486700e-09	-1.112834e+01	-1.660260e+02
1.580000e-06	-1.465263e-06	-2.448428e-09	-1.073000e+01	-1.639133e+02
1.590000e-06	-1.410787e-06	-2.410703e-09	-1.033107e+01	-1.617300e+02
1.600000e-06	-1.356162e-06	-2.373038e-09	-9.931054e+00	-1.594696e+02
1.610000e-06	-1.301394e-06	-2.334892e-09	-9.529995e+00	-1.571255e+02
1.620000e-06	-1.246587e-06	-2.293911e-09	-9.128649e+00	-1.546909e+02
1.630000e-06	-1.191739e-06	-2.251160e-09	-8.727001e+00	-1.521590e+02
1.640000e-06	-1.136731e-06	-2.209607e-09	-8.324182e+00	-1.495229e+02
1.650000e-06	-1.081588e-06	-2.167602e-09	-7.920373e+00	-1.467760e+02
1.660000e-06	-1.026436e-06	-2.122812e-09	-7.516506e+00	-1.439117e+02
1.670000e-06	-9.711914e-07	-2.076145e-09	-7.111951e+00	-1.409238e+02
1.680000e-06	-9.158596e-07	-2.030950e-09	-6.706761e+00	-1.378061e+02
1.690000e-06	-8.605031e-07	-1.982145e-09	-6.301390e+00	-1.345530e+02
1.700000e-06	-8.051375e-07	-1.930316e-09	-5.895952e+00	-1.311591e+02
1.710000e-06	-7.497951e-07	-1.876973e-09	-5.490685e+00	-1.276197e+02
1.720000e-06	-6.944301e-07	-1.821550e-09	-5.085252e+00	-1.239305e+02
1.730000e-06	-6.390745e-07	-1.763358e-09	-4.679888e+00	-1.200877e+02
1.740000e-06	-5.836938e-07	-1.702604e-09	-4.274339e+00	-1.160883e+02
1.750000e-06	-5.282176e-07	-1.639100e-09	-3.868092e+00	-1.119298e+02
1.760000e-06	-4.726966e-07	-1.574592e-09	-3.461517e+00	-1.076107e+02
1.770000e-06	-4.171825e-07	-1.508644e-09	-3.054992e+00	-1.031301e+02
1.780000e-06	-3.616613e-07	-1.440723e-09	-2.648415e+00	-9.848777e+01
1.790000e-06	-3.060629e-07	-1.369174e-09	-2.241272e+00	-9.368458e+01
1.800000e-06	-2.504798e-07	-1.296443e-09	-1.834242e+00	-8.872209e+01
1.810000e-06	-1.948988e-07	-1.220880e-09	-1.427227e+00	-8.360279e+01
1.820000e-06	-1.393018e-07	-1.142637e-09	-1.020095e+00	-7.833000e+01
1.830000e-06	-8.375101e-08	-1.063476e-09	-6.133014e-01	-7.290794e+01
1.840000e-06	-2.817615e-08	-9.818548e-10	-2.063315e-01	-6.734170e+01
1.850000e-06	2.739141e-08	-8.979665e-10	2.005849e-01	-6.163721e+01
1.860000e-06	8.295103e-08	-8.121417e-10	6.074433e-01	-5.580124e+01
1.870000e-06	1.385417e-07	-7.225743e-10	1.014529e+00	-4.984136e+01
1.880000e-06	1.941049e-07	-6.307085e-10	1.421414e+00	-4.376593e+01
1.890000e-06	2.496239e-07	-5.393622e-10	1.827974e+00	-3.758402e+01
1.900000e-06	3.051509e-07	-4.446582e-10	2.234594e+00	-3.130538e+01
1.910000e-06	3.606759e-07	-3.462228e-10	2.641199e+00	-2.494040e+01
1.920000e-06	4.162027e-07	-2.452676e-10	3.047817e+00	-1.850004e+01
1.930000e-06	4.717141e-07	-1.446007e-10	3.454322e+00	-1.199574e+01
1.940000e-06	5.271906e-07	-4.224497e-11	3.860571e+00	-5.439412e+00
1.950000e-06	5.826404e-07	6.137739e-11	4.266625e+00	1.156701e+00
1.960000e-06	6.380493e-07	1.645547e-10	4.672380e+00	7.780054e+00
1.970000e-06	6.934323e-07	2.690175e-10	5.077945e+00	1.441790e+01
1.980000e-06	7.487343e-07	3.746293e-10	5.482917e+00	2.105736e+01
1.990000e-06	8.039693e-07	4.803209e-10	5.887398e+00	2.768551e+01
2.000000e-06	8.591252e-07	5.846085e-10	6.291300e+00	3.428947e+01
2.010000e-06	9.142201e-07	6.861972e-10	6.694755e+00	4.085647e+01
2.020000e-06	9.692971e-07	7.881966e-10	7.098079e+00	4.737395e+01
2.030000e-06	1.024301e-06	8.911400e-10	7.500865e+00	5.382963e+01
2.040000e-06	1.079280e-06	9.910503e-10	7.903475e+00	6.021157e+01
2.050000e-06	1.134260e-06	1.088550e-09	8.306088e+00	6.650829e+01
2.060000e-06	1.189156e-06	1.185505e-09	8.708089e+00	7.270879e+01
2.070000e-06	1.243967e-06	1.280961e-09	9.109461e+00	7.880266e+01
2.080000e-06	1.298699e-06	1.369724e-09	9.510265e+00	8.478010e+01
2.090000e-06	1.353384e-06	1.454484e-09	9.910712e+00	9.063200e+01
2.100000e-06	1.407971e-06	1.539094e-09	1.031045e+01	9.635001e+01
2.110000e-06	1.462378e-06	1.621694e-09	1.070887e+01	1.019265e+02
2.120000e-06	1.516697e-06	1.701231e-09	1.110664e+01	1.073548e+02
2.130000e-06	1.570886e-06	1.776690e-09	1.150346e+01	1.126290e+02
2.140000e-06	1.624962e-06	1.850378e-09	1.189946e+01	1.177439e+02
2.150000e-06	1.678954e-06	1.920860e-09	1.229484e+01	1.226955e+02
2.160000e-06	1.732776e-06	1.990832e-09	1.268897e+01	1.274805e+02
2.170000e-06	1.786442e-06	2.057993e-09	1.308196e+01	1.320966e+02
2.180000e-06	1.840023e-06	2.119864e-09	1.347433e+01	1.365422e+02
2.190000e-06	1.893497e-06	2.179054e-09	1.386591e+01	1.408169e+02
2.200000e-06	1.946855e-06	2.239214e-09	1.425665e+01	1.449210e+02
2.210000e-06	2.000110e-06	2.294531e-09	1.464664e+01	1.488555e+02
2.220000e-06	2.053201e-06	2.343730e-09	1.503541e+01	1.526224e+02
2.230000e-06	2.106151e-06	2.393856e-09	1.542316e+01	1.562244e+02
2.240000e-06	2.158897e-06	2.444617e-09	1.580942e+01	1.596650e+02
2.250000e-06	2.211376e-06	2.491066e-09	1.619372e+01	1.629481e+02
2.260000e-06	2.263694e-06	2.531417e-09	1.657684e+01	1.660786e+02
2.270000e-06	2.315910e-06	2.569189e-09	1.695921e+01	1.690618e+02
2.280000e-06	2.367998e-06	2.609983e-09	1.734064e+01	1.719033e+02
2.290000e-06	2.419926e-06	2.650187e-09	1.772091e+01	1.746095e+02
2.300000e-06	2.471677e-06	2.684261e-09	1.809988e+01	1.771868e+02
2.310000e-06	2.523210e-06	2.717046e-09	1.847725e+01	1.796423e+02
2.320000e-06	2.574457e-06	2.754289e-09	1.885253e+01	1.819829e+02
2.330000e-06	2.625469e-06	2.791160e-09	1.922608e+01	1.842161e+02
2.340000e-06	2.676187e-06	2.822911e-09	1.959748e+01	1.863492e+02
2.350000e-06	2.726631e-06	2.848966e-09	1.996688e+01	1.883897e+02
2.360000e-06	2.776804e-06	2.877201e-09	2.033429e+01	1.903449e+02
2.370000e-06	2.826584e-06	2.906177e-09	2.069883e+01	1.922222e+02
2.380000e-06	2.876108e-06	2.933590e-09	2.106149e+01	1.940288e+02
2.390000e-06	2.925331e-06	2.961057e-09	2.142195e+01	1.957715e+02
2.400000e-06	2.974181e-06	2.987912e-09	2.177967e+01	1.974572e+02
2.410000e-06	3.022750e-06	3.017669e-09	2.213534e+01	1.990922e+02
2.420000e-06	3.071060e-06	3.047336e-09	2.248911e+01	2.006825e+02
2.430000e-06	3.119164e-06	3.074592e-09	2.284137e+01	2.022339e+02
2.440000e-06	3.167086e-06	3.097635e-09	2.319230e+01	2.037516e+02
2.450000e-06	3.214869e-06	3.119554e-09	2.354221e+01	2.052405e+02
2.460000e-06	3.262554e-06	3.141886e-09	2.389140e+01	2.067048e+02
2.470000e-06	3.310023e-06	3.162809e-09	2.423901e+01	2.081485e+02
2.480000e-06	3.357266e-06	3.182921e-09	2.458497e+01	2.095749e+02
2.490000e-06	3.404257e-06	3.205538e-09	2.492908e+01	2.109869e+02
2.500000e-06	3.450983e-06	3.228252e-09	2.527125e+01	2.123870e+02
2.510000e-06	3.497448e-06	3.251064e-09	2.561151e+01	2.137771e+02
2.520000e-06	3.543624e-06	3.272705e-09	2.594965e+01	2.151586e+02
2.530000e-06	3.589581e-06	3.292372e-09	2.628620e+01	2.165325e+02
2.540000e-06	3.635313e-06	3.308703e-09	2.662109e+01	2.178993e+02
2.550000e-06	3.680758e-06	3.325275e-09	2.695387e+01	2.192592e+02
2.560000e-06	3.725957e-06	3.344038e-09	2.728486e+01	2.206120e+02
2.570000e-06	3.770936e-06	3.364238e-09	2.761424e+01	2.219570e+02
2.580000e-06	3.815653e-06	3.382270e-09	2.794170e+01	2.232934e+02
2.590000e-06	3.860164e-06	3.398680e-09	2.826765e+01	2.246200e+02
2.600000e-06	3.904467e-06	3.415470e-09	2.859208e+01	2.259353e+02
2.610000e-06	3.948563e-06	3.434743e-09	2.891498e+01	2.272378e+02
2.620000e-06	3.992456e-06	3.454031e-09	2.923641e+01	2.285256e+02
2.630000e-06	4.036090e-06	3.470642e-09	2.955594e+01	2.297969e+02
2.640000e-06	4.079487e-06	3.485377e-09	2.987373e+01	2.310496e+02
2.650000e-06	4.122711e-06	3.500420e-09	3.019026e+01	2.322818e+02
2.660000e-06	4.165677e-06	3.519329e-09	3.050490e+01	2.334915e+02
2.670000e-06	4.208230e-06	3.537513e-09	3.081650e+01	2.346766e+02
2.680000e-06	4.250284e-06	3.552314e-09	3.112446e+01	2.358354e+02
2.690000e-06	4.291761e-06	3.566873e-09	3.142820e+01	2.369659e+02
2.700000e-06	4.332759e-06	3.583016e-09	3.172842e+01	2.380667e+02
2.710000e-06	4.373368e-06	3.598699e-09	3.202580e+01	2.391362e+02
2.720000e-06	4.413663e-06	3.612101e-09	3.232087e+01	2.401730e+02
2.730000e-06	4.453734e-06	3.624367e-09	3.261431e+01	2.411763e+02
2.740000e-06	4.493567e-06	3.637632e-09	3.290600e+01	2.421451e+02
2.750000e-06	4.533174e-06	3.649906e-09	3.319605e+01	2.430787e+02
2.760000e-06	4.572495e-06	3.662807e-09	3.348398e+01	2.439770e+02
2.770000e-06	4.611481e-06	3.676864e-09	3.376948e+01	2.448397e+02
2.780000e-06	4.650140e-06	3.690379e-09	3.405257e+01	2.456671e+02
2.790000e-06	4.688407e-06	3.702238e-09	3.433280e+01	2.464596e+02
2.800000e-06	4.726317e-06	3.713721e-09	3.461041e+01	2.472177e+02
2.810000e-06	4.763979e-06	3.725756e-09	3.488621e+01	2.479426e+02
2.820000e-06	4.801324e-06	3.738518e-09	3.515968e+01	2.486352e+02
2.830000e-06	4.838312e-06	3.749973e-09	3.543054e+01	2.492969e+02
2.840000e-06	4.874980e-06	3.761206e-09	3.569906e+01	2.499294e+02
2.850000e-06	4.911321e-06	3.773728e-09	3.596518e+01	2.505342e+02
2.860000e-06	4.947369e-06	3.786375e-09	3.622915e+01	2.511132e+02
2.870000e-06	4.983241e-06	3.797696e-09	3.649184e+01	2.516686e+02
2.880000e-06	5.018950e-06	3.806844e-09	3.675334e+01	2.522022e+02
2.890000e-06	5.054428e-06	3.815495e-09	3.701314e+01	2.527164e+02
2.900000e-06	5.089503e-06	3.825485e-09	3.727000e+01	2.532132e+02
