# Temperatura_=_20.0
# Concentracion g/m^3_=_9000.0
# C_Vs_to_Am_M_A/Vsm_=_65563218390.804596
# pendiente_HvsI_1/m_=_3716.3
# ordenada_HvsI_A/m_=_1297.0
# frecuencia_Hz_=_135341.24846258952

Tiempo_(s)	Campo_(V.s)	Magnetizacion_(V.s)	Campo_(kA/m)	Magnetizacion_(A/m)
0.000000e+00	-6.519936e-06	-3.984182e-09	-4.772154e+01	-2.721287e+02
1.000000e-08	-6.520122e-06	-3.982556e-09	-4.772290e+01	-2.721956e+02
2.000000e-08	-6.520016e-06	-3.982149e-09	-4.772212e+01	-2.722489e+02
3.000000e-08	-6.519376e-06	-3.981966e-09	-4.771744e+01	-2.722872e+02
4.000000e-08	-6.518148e-06	-3.979424e-09	-4.770846e+01	-2.723091e+02
5.000000e-08	-6.516275e-06	-3.976487e-09	-4.769475e+01	-2.723133e+02
6.000000e-08	-6.513694e-06	-3.972043e-09	-4.767586e+01	-2.722988e+02
7.000000e-08	-6.510536e-06	-3.959807e-09	-4.765274e+01	-2.722644e+02
8.000000e-08	-6.506981e-06	-3.945708e-09	-4.762672e+01	-2.722095e+02
9.000000e-08	-6.503079e-06	-3.975991e-09	-4.759816e+01	-2.721333e+02
1.000000e-07	-6.498628e-06	-4.044313e-09	-4.756558e+01	-2.720353e+02
1.100000e-07	-6.493464e-06	-4.068401e-09	-4.752778e+01	-2.719154e+02
1.200000e-07	-6.487763e-06	-3.953022e-09	-4.748606e+01	-2.717733e+02
1.300000e-07	-6.481782e-06	-3.859862e-09	-4.744228e+01	-2.716093e+02
1.400000e-07	-6.475517e-06	-3.937589e-09	-4.739642e+01	-2.714236e+02
1.500000e-07	-6.468850e-06	-4.080503e-09	-4.734763e+01	-2.712168e+02
1.600000e-07	-6.461674e-06	-4.053794e-09	-4.729510e+01	-2.709895e+02
1.700000e-07	-6.454052e-06	-3.958266e-09	-4.723931e+01	-2.707428e+02
1.800000e-07	-6.446118e-06	-3.942229e-09	-4.718124e+01	-2.704776e+02
1.900000e-07	-6.437943e-06	-4.069209e-09	-4.712141e+01	-2.701952e+02
2.000000e-07	-6.429456e-06	-4.141759e-09	-4.705929e+01	-2.698970e+02
2.100000e-07	-6.420357e-06	-4.102394e-09	-4.699269e+01	-2.695845e+02
2.200000e-07	-6.410417e-06	-3.977521e-09	-4.691993e+01	-2.692594e+02
2.300000e-07	-6.399711e-06	-3.958924e-09	-4.684157e+01	-2.689234e+02
2.400000e-07	-6.388555e-06	-4.052188e-09	-4.675992e+01	-2.685783e+02
2.500000e-07	-6.376939e-06	-4.090684e-09	-4.667490e+01	-2.682260e+02
2.600000e-07	-6.364681e-06	-3.977025e-09	-4.658518e+01	-2.678684e+02
2.700000e-07	-6.351837e-06	-3.904619e-09	-4.649117e+01	-2.675074e+02
2.800000e-07	-6.338589e-06	-4.027009e-09	-4.639420e+01	-2.671449e+02
2.900000e-07	-6.324952e-06	-4.116256e-09	-4.629439e+01	-2.667827e+02
3.000000e-07	-6.310752e-06	-4.034862e-09	-4.619045e+01	-2.664225e+02
3.100000e-07	-6.295917e-06	-3.981363e-09	-4.608187e+01	-2.660662e+02
3.200000e-07	-6.280412e-06	-4.082268e-09	-4.596839e+01	-2.657152e+02
3.300000e-07	-6.264237e-06	-4.122392e-09	-4.584999e+01	-2.653710e+02
3.400000e-07	-6.247597e-06	-4.109108e-09	-4.572820e+01	-2.650350e+02
3.500000e-07	-6.230628e-06	-4.074947e-09	-4.560400e+01	-2.647082e+02
3.600000e-07	-6.213238e-06	-4.064117e-09	-4.547672e+01	-2.643916e+02
3.700000e-07	-6.195484e-06	-4.062167e-09	-4.534677e+01	-2.640860e+02
3.800000e-07	-6.177427e-06	-4.148159e-09	-4.521460e+01	-2.637919e+02
3.900000e-07	-6.158858e-06	-4.126605e-09	-4.507869e+01	-2.635097e+02
4.000000e-07	-6.139640e-06	-4.043521e-09	-4.493803e+01	-2.632396e+02
4.100000e-07	-6.120041e-06	-4.078706e-09	-4.479458e+01	-2.629814e+02
4.200000e-07	-6.100243e-06	-4.217070e-09	-4.464967e+01	-2.627348e+02
4.300000e-07	-6.080211e-06	-4.187627e-09	-4.450305e+01	-2.624994e+02
4.400000e-07	-6.059826e-06	-4.086393e-09	-4.435384e+01	-2.622744e+02
4.500000e-07	-6.039060e-06	-4.135977e-09	-4.420185e+01	-2.620589e+02
4.600000e-07	-6.018019e-06	-4.260539e-09	-4.404784e+01	-2.618518e+02
4.700000e-07	-5.996592e-06	-4.216276e-09	-4.389102e+01	-2.616519e+02
4.800000e-07	-5.974666e-06	-4.115015e-09	-4.373053e+01	-2.614576e+02
4.900000e-07	-5.952295e-06	-4.141157e-09	-4.356679e+01	-2.612674e+02
5.000000e-07	-5.929516e-06	-4.207870e-09	-4.340006e+01	-2.610797e+02
5.100000e-07	-5.906295e-06	-4.177745e-09	-4.323010e+01	-2.608926e+02
5.200000e-07	-5.882700e-06	-4.133975e-09	-4.305740e+01	-2.607042e+02
5.300000e-07	-5.858840e-06	-4.139017e-09	-4.288277e+01	-2.605126e+02
5.400000e-07	-5.834691e-06	-4.137952e-09	-4.270601e+01	-2.603159e+02
5.500000e-07	-5.810058e-06	-4.149757e-09	-4.252572e+01	-2.601121e+02
5.600000e-07	-5.784729e-06	-4.156184e-09	-4.234032e+01	-2.598992e+02
5.700000e-07	-5.758569e-06	-4.112133e-09	-4.214885e+01	-2.596754e+02
5.800000e-07	-5.731730e-06	-4.073580e-09	-4.195241e+01	-2.594389e+02
5.900000e-07	-5.704488e-06	-4.122393e-09	-4.175301e+01	-2.591878e+02
6.000000e-07	-5.676935e-06	-4.137801e-09	-4.155134e+01	-2.589206e+02
6.100000e-07	-5.649131e-06	-4.074722e-09	-4.134783e+01	-2.586357e+02
6.200000e-07	-5.621076e-06	-4.039806e-09	-4.114249e+01	-2.583318e+02
6.300000e-07	-5.592715e-06	-4.085451e-09	-4.093491e+01	-2.580078e+02
6.400000e-07	-5.563966e-06	-4.092666e-09	-4.072449e+01	-2.576626e+02
6.500000e-07	-5.534813e-06	-4.049611e-09	-4.051110e+01	-2.572954e+02
6.600000e-07	-5.505302e-06	-4.019660e-09	-4.029511e+01	-2.569056e+02
6.700000e-07	-5.475426e-06	-4.040890e-09	-4.007643e+01	-2.564928e+02
6.800000e-07	-5.445228e-06	-4.049438e-09	-3.985540e+01	-2.560567e+02
6.900000e-07	-5.414643e-06	-4.032347e-09	-3.963154e+01	-2.555976e+02
7.000000e-07	-5.383592e-06	-4.004709e-09	-3.940427e+01	-2.551154e+02
7.100000e-07	-5.352185e-06	-4.003533e-09	-3.917439e+01	-2.546107e+02
7.200000e-07	-5.320605e-06	-4.005367e-09	-3.894324e+01	-2.540841e+02
7.300000e-07	-5.288863e-06	-4.004079e-09	-3.871092e+01	-2.535364e+02
7.400000e-07	-5.256789e-06	-3.987622e-09	-3.847615e+01	-2.529686e+02
7.500000e-07	-5.224273e-06	-3.969170e-09	-3.823816e+01	-2.523817e+02
7.600000e-07	-5.191206e-06	-3.968981e-09	-3.799613e+01	-2.517772e+02
7.700000e-07	-5.157548e-06	-3.982833e-09	-3.774978e+01	-2.511563e+02
7.800000e-07	-5.123301e-06	-3.968879e-09	-3.749911e+01	-2.505206e+02
7.900000e-07	-5.088493e-06	-3.935959e-09	-3.724434e+01	-2.498716e+02
8.000000e-07	-5.053259e-06	-3.930416e-09	-3.698645e+01	-2.492109e+02
8.100000e-07	-5.017738e-06	-3.941164e-09	-3.672646e+01	-2.485401e+02
8.200000e-07	-4.981997e-06	-3.926745e-09	-3.646486e+01	-2.478610e+02
8.300000e-07	-4.946004e-06	-3.897774e-09	-3.620142e+01	-2.471751e+02
8.400000e-07	-4.909675e-06	-3.894363e-09	-3.593551e+01	-2.464840e+02
8.500000e-07	-4.872999e-06	-3.902382e-09	-3.566707e+01	-2.457892e+02
8.600000e-07	-4.835926e-06	-3.897487e-09	-3.539572e+01	-2.450920e+02
8.700000e-07	-4.798509e-06	-3.874975e-09	-3.512186e+01	-2.443937e+02
8.800000e-07	-4.760894e-06	-3.861833e-09	-3.484654e+01	-2.436956e+02
8.900000e-07	-4.722983e-06	-3.855748e-09	-3.456906e+01	-2.429984e+02
9.000000e-07	-4.684676e-06	-3.850795e-09	-3.428867e+01	-2.423031e+02
9.100000e-07	-4.646022e-06	-3.832751e-09	-3.400575e+01	-2.416102e+02
9.200000e-07	-4.607013e-06	-3.813893e-09	-3.372023e+01	-2.409201e+02
9.300000e-07	-4.567727e-06	-3.801263e-09	-3.343269e+01	-2.402330e+02
9.400000e-07	-4.528244e-06	-3.799005e-09	-3.314369e+01	-2.395490e+02
9.500000e-07	-4.488576e-06	-3.787481e-09	-3.285336e+01	-2.388676e+02
9.600000e-07	-4.448738e-06	-3.767818e-09	-3.256177e+01	-2.381885e+02
9.700000e-07	-4.408642e-06	-3.746658e-09	-3.226829e+01	-2.375109e+02
9.800000e-07	-4.368200e-06	-3.738594e-09	-3.197228e+01	-2.368339e+02
9.900000e-07	-4.327353e-06	-3.730955e-09	-3.167331e+01	-2.361565e+02
1.000000e-06	-4.286016e-06	-3.714387e-09	-3.137075e+01	-2.354772e+02
1.010000e-06	-4.244110e-06	-3.694643e-09	-3.106402e+01	-2.347946e+02
1.020000e-06	-4.201755e-06	-3.683990e-09	-3.075401e+01	-2.341071e+02
1.030000e-06	-4.158955e-06	-3.674423e-09	-3.044075e+01	-2.334129e+02
1.040000e-06	-4.115731e-06	-3.657763e-09	-3.012438e+01	-2.327100e+02
1.050000e-06	-4.072319e-06	-3.639592e-09	-2.980663e+01	-2.319964e+02
1.060000e-06	-4.028749e-06	-3.627493e-09	-2.948773e+01	-2.312701e+02
1.070000e-06	-3.984993e-06	-3.617383e-09	-2.916746e+01	-2.305289e+02
1.080000e-06	-3.940976e-06	-3.604080e-09	-2.884529e+01	-2.297707e+02
1.090000e-06	-3.896657e-06	-3.588661e-09	-2.852091e+01	-2.289934e+02
1.100000e-06	-3.852074e-06	-3.572293e-09	-2.819459e+01	-2.281948e+02
1.110000e-06	-3.807231e-06	-3.556736e-09	-2.786636e+01	-2.273729e+02
1.120000e-06	-3.762030e-06	-3.540076e-09	-2.753553e+01	-2.265258e+02
1.130000e-06	-3.716485e-06	-3.523158e-09	-2.720217e+01	-2.256517e+02
1.140000e-06	-3.670788e-06	-3.503417e-09	-2.686769e+01	-2.247489e+02
1.150000e-06	-3.624910e-06	-3.485872e-09	-2.653190e+01	-2.238159e+02
1.160000e-06	-3.578735e-06	-3.468955e-09	-2.619393e+01	-2.228513e+02
1.170000e-06	-3.532411e-06	-3.454595e-09	-2.585487e+01	-2.218541e+02
1.180000e-06	-3.485951e-06	-3.437356e-09	-2.551482e+01	-2.208233e+02
1.190000e-06	-3.439163e-06	-3.418119e-09	-2.517235e+01	-2.197583e+02
1.200000e-06	-3.392025e-06	-3.398979e-09	-2.482734e+01	-2.186586e+02
1.210000e-06	-3.344590e-06	-3.383065e-09	-2.448015e+01	-2.175240e+02
1.220000e-06	-3.296981e-06	-3.362588e-09	-2.413168e+01	-2.163547e+02
1.230000e-06	-3.249195e-06	-3.340369e-09	-2.378192e+01	-2.151508e+02
1.240000e-06	-3.201175e-06	-3.322179e-09	-2.343045e+01	-2.139129e+02
1.250000e-06	-3.153017e-06	-3.304259e-09	-2.307796e+01	-2.126418e+02
1.260000e-06	-3.104750e-06	-3.283551e-09	-2.272468e+01	-2.113384e+02
1.270000e-06	-3.056232e-06	-3.264434e-09	-2.236956e+01	-2.100039e+02
1.280000e-06	-3.007145e-06	-3.244190e-09	-2.201027e+01	-2.086396e+02
1.290000e-06	-2.957736e-06	-3.223821e-09	-2.164864e+01	-2.072471e+02
1.300000e-06	-2.908214e-06	-3.203855e-09	-2.128617e+01	-2.058278e+02
1.310000e-06	-2.858236e-06	-3.182491e-09	-2.092036e+01	-2.043835e+02
1.320000e-06	-2.807844e-06	-3.159795e-09	-2.055153e+01	-2.029160e+02
1.330000e-06	-2.757182e-06	-3.137027e-09	-2.018072e+01	-2.014270e+02
1.340000e-06	-2.706314e-06	-3.113822e-09	-1.980839e+01	-1.999183e+02
1.350000e-06	-2.655274e-06	-3.089798e-09	-1.943482e+01	-1.983914e+02
1.360000e-06	-2.603995e-06	-3.066401e-09	-1.905949e+01	-1.968482e+02
1.370000e-06	-2.552468e-06	-3.042593e-09	-1.868235e+01	-1.952900e+02
1.380000e-06	-2.500739e-06	-3.019403e-09	-1.830373e+01	-1.937180e+02
1.390000e-06	-2.448819e-06	-2.996531e-09	-1.792371e+01	-1.921335e+02
1.400000e-06	-2.396702e-06	-2.971678e-09	-1.754225e+01	-1.905372e+02
1.410000e-06	-2.344414e-06	-2.946459e-09	-1.715953e+01	-1.889296e+02
1.420000e-06	-2.292002e-06	-2.922500e-09	-1.677591e+01	-1.873110e+02
1.430000e-06	-2.239471e-06	-2.896145e-09	-1.639142e+01	-1.856813e+02
1.440000e-06	-2.186767e-06	-2.867448e-09	-1.600566e+01	-1.840399e+02
1.450000e-06	-2.133825e-06	-2.839994e-09	-1.561816e+01	-1.823859e+02
1.460000e-06	-2.080768e-06	-2.813177e-09	-1.522982e+01	-1.807179e+02
1.470000e-06	-2.027601e-06	-2.784850e-09	-1.484068e+01	-1.790343e+02
1.480000e-06	-1.974287e-06	-2.754842e-09	-1.445045e+01	-1.773326e+02
1.490000e-06	-1.920843e-06	-2.721524e-09	-1.405928e+01	-1.756102e+02
1.500000e-06	-1.867227e-06	-2.689145e-09	-1.366685e+01	-1.738639e+02
1.510000e-06	-1.813496e-06	-2.660402e-09	-1.327357e+01	-1.720902e+02
1.520000e-06	-1.759680e-06	-2.630729e-09	-1.287967e+01	-1.702848e+02
1.530000e-06	-1.705760e-06	-2.596169e-09	-1.248501e+01	-1.684432e+02
1.540000e-06	-1.651679e-06	-2.564161e-09	-1.208918e+01	-1.665606e+02
1.550000e-06	-1.597449e-06	-2.535628e-09	-1.169225e+01	-1.646316e+02
1.560000e-06	-1.543133e-06	-2.504797e-09	-1.129469e+01	-1.626504e+02
1.570000e-06	-1.488794e-06	-2.467173e-09	-1.089697e+01	-1.606110e+02
1.580000e-06	-1.434365e-06	-2.427045e-09	-1.049858e+01	-1.585072e+02
1.590000e-06	-1.379764e-06	-2.387499e-09	-1.009894e+01	-1.563324e+02
1.600000e-06	-1.325013e-06	-2.346894e-09	-9.698206e+00	-1.540798e+02
1.610000e-06	-1.270188e-06	-2.304662e-09	-9.296920e+00	-1.517426e+02
1.620000e-06	-1.215343e-06	-2.262339e-09	-8.895496e+00	-1.493138e+02
1.630000e-06	-1.160423e-06	-2.221676e-09	-8.493512e+00	-1.467866e+02
1.640000e-06	-1.105372e-06	-2.182897e-09	-8.090578e+00	-1.441539e+02
1.650000e-06	-1.050187e-06	-2.144158e-09	-7.686661e+00	-1.414090e+02
1.660000e-06	-9.949852e-07	-2.101152e-09	-7.282622e+00	-1.385452e+02
1.670000e-06	-9.397641e-07	-2.054083e-09	-6.878441e+00	-1.355563e+02
1.680000e-06	-8.844881e-07	-2.004319e-09	-6.473857e+00	-1.324361e+02
1.690000e-06	-8.292017e-07	-1.953381e-09	-6.069198e+00	-1.291790e+02
1.700000e-06	-7.738372e-07	-1.900861e-09	-5.663967e+00	-1.257797e+02
1.710000e-06	-7.183913e-07	-1.845390e-09	-5.258140e+00	-1.222335e+02
1.720000e-06	-6.629297e-07	-1.788462e-09	-4.852199e+00	-1.185363e+02
1.730000e-06	-6.075334e-07	-1.731934e-09	-4.446736e+00	-1.146844e+02
1.740000e-06	-5.521456e-07	-1.673825e-09	-4.041334e+00	-1.106751e+02
1.750000e-06	-4.966530e-07	-1.612747e-09	-3.635166e+00	-1.065062e+02
1.760000e-06	-4.411293e-07	-1.551145e-09	-3.228769e+00	-1.021762e+02
1.770000e-06	-3.855964e-07	-1.487403e-09	-2.822306e+00	-9.768473e+01
1.780000e-06	-3.300354e-07	-1.416714e-09	-2.415637e+00	-9.303188e+01
1.790000e-06	-2.744195e-07	-1.344701e-09	-2.008566e+00	-8.821880e+01
1.800000e-06	-2.187399e-07	-1.272544e-09	-1.601029e+00	-8.324746e+01
1.810000e-06	-1.630255e-07	-1.195827e-09	-1.193237e+00	-7.812074e+01
1.820000e-06	-1.073548e-07	-1.115457e-09	-7.857650e-01	-7.284239e+01
1.830000e-06	-5.173227e-08	-1.033595e-09	-3.786453e-01	-6.741704e+01
1.840000e-06	3.858476e-09	-9.510308e-10	2.824145e-02	-6.185021e+01
1.850000e-06	5.940891e-08	-8.679551e-10	4.348332e-01	-5.614827e+01
1.860000e-06	1.149577e-07	-7.797330e-10	8.414127e-01	-5.031842e+01
1.870000e-06	1.705241e-07	-6.900288e-10	1.248121e+00	-4.436865e+01
1.880000e-06	2.260964e-07	-6.010361e-10	1.654873e+00	-3.830773e+01
1.890000e-06	2.816859e-07	-5.097830e-10	2.061751e+00	-3.214511e+01
1.900000e-06	3.373022e-07	-4.116089e-10	2.468825e+00	-2.589092e+01
1.910000e-06	3.929015e-07	-3.094836e-10	2.875775e+00	-1.955590e+01
1.920000e-06	4.484311e-07	-2.068217e-10	3.282214e+00	-1.315128e+01
1.930000e-06	5.039011e-07	-1.028405e-10	3.688217e+00	-6.688824e+00
1.940000e-06	5.593394e-07	8.594437e-13	4.093988e+00	-1.806376e-01
1.950000e-06	6.147857e-07	1.015024e-10	4.499817e+00	6.360828e+00
1.960000e-06	6.702706e-07	2.009638e-10	4.905929e+00	1.292289e+01
1.970000e-06	7.256889e-07	3.021072e-10	5.311554e+00	1.949270e+01
1.980000e-06	7.810364e-07	4.047214e-10	5.716661e+00	2.605734e+01
1.990000e-06	8.363680e-07	5.065096e-10	6.121650e+00	3.260390e+01
2.000000e-06	8.916500e-07	6.062170e-10	6.526278e+00	3.911956e+01
2.010000e-06	9.468511e-07	7.077671e-10	6.930312e+00	4.559166e+01
2.020000e-06	1.001969e-06	8.104668e-10	7.333741e+00	5.200783e+01
2.030000e-06	1.057142e-06	9.122825e-10	7.737566e+00	5.835599e+01
2.040000e-06	1.112343e-06	1.008449e-09	8.141604e+00	6.462451e+01
2.050000e-06	1.167387e-06	1.100912e-09	8.544483e+00	7.080221e+01
2.060000e-06	1.222203e-06	1.190752e-09	8.945700e+00	7.687849e+01
2.070000e-06	1.276877e-06	1.279158e-09	9.345879e+00	8.284335e+01
2.080000e-06	1.331456e-06	1.365005e-09	9.745364e+00	8.868747e+01
2.090000e-06	1.385907e-06	1.449149e-09	1.014390e+01	9.440226e+01
2.100000e-06	1.440230e-06	1.530671e-09	1.054151e+01	9.997987e+01
2.110000e-06	1.494425e-06	1.611023e-09	1.093819e+01	1.054133e+02
2.120000e-06	1.548570e-06	1.689251e-09	1.133449e+01	1.106964e+02
2.130000e-06	1.602622e-06	1.763559e-09	1.173011e+01	1.158239e+02
2.140000e-06	1.656540e-06	1.835410e-09	1.212476e+01	1.207913e+02
2.150000e-06	1.710392e-06	1.905128e-09	1.251892e+01	1.255951e+02
2.160000e-06	1.764165e-06	1.970422e-09	1.291250e+01	1.302328e+02
2.170000e-06	1.817858e-06	2.031450e-09	1.330550e+01	1.347026e+02
2.180000e-06	1.871499e-06	2.088002e-09	1.369811e+01	1.390038e+02
2.190000e-06	1.924952e-06	2.144134e-09	1.408935e+01	1.431362e+02
2.200000e-06	1.978231e-06	2.200192e-09	1.447932e+01	1.471009e+02
2.210000e-06	2.031405e-06	2.249501e-09	1.486852e+01	1.508995e+02
2.220000e-06	2.084366e-06	2.296784e-09	1.525616e+01	1.545345e+02
2.230000e-06	2.137146e-06	2.348320e-09	1.564247e+01	1.580092e+02
2.240000e-06	2.189811e-06	2.400364e-09	1.602795e+01	1.613273e+02
2.250000e-06	2.242287e-06	2.444439e-09	1.641203e+01	1.644934e+02
2.260000e-06	2.294597e-06	2.483096e-09	1.679490e+01	1.675126e+02
2.270000e-06	2.346748e-06	2.523268e-09	1.717661e+01	1.703905e+02
2.280000e-06	2.398674e-06	2.563869e-09	1.755668e+01	1.731331e+02
2.290000e-06	2.450415e-06	2.600116e-09	1.793539e+01	1.757468e+02
2.300000e-06	2.502056e-06	2.633685e-09	1.831337e+01	1.782383e+02
2.310000e-06	2.553545e-06	2.669356e-09	1.869023e+01	1.806147e+02
2.320000e-06	2.604800e-06	2.707120e-09	1.906538e+01	1.828831e+02
2.330000e-06	2.655847e-06	2.740986e-09	1.943901e+01	1.850507e+02
2.340000e-06	2.706592e-06	2.770307e-09	1.981043e+01	1.871249e+02
2.350000e-06	2.757047e-06	2.798010e-09	2.017973e+01	1.891129e+02
2.360000e-06	2.807229e-06	2.827496e-09	2.054702e+01	1.910220e+02
2.370000e-06	2.857116e-06	2.857404e-09	2.091217e+01	1.928591e+02
2.380000e-06	2.906626e-06	2.885509e-09	2.127454e+01	1.946313e+02
2.390000e-06	2.955747e-06	2.912959e-09	2.163408e+01	1.963450e+02
2.400000e-06	3.004535e-06	2.941313e-09	2.199117e+01	1.980066e+02
2.410000e-06	3.053034e-06	2.969482e-09	2.234615e+01	1.996220e+02
2.420000e-06	3.101315e-06	2.997387e-09	2.269953e+01	2.011969e+02
2.430000e-06	3.149313e-06	3.022993e-09	2.305085e+01	2.027365e+02
2.440000e-06	3.197114e-06	3.046041e-09	2.340072e+01	2.042455e+02
2.450000e-06	3.244766e-06	3.069231e-09	2.374950e+01	2.057281e+02
2.460000e-06	3.292299e-06	3.091464e-09	2.409741e+01	2.071883e+02
2.470000e-06	3.339732e-06	3.112885e-09	2.444459e+01	2.086293e+02
2.480000e-06	3.386915e-06	3.132957e-09	2.478994e+01	2.100540e+02
2.490000e-06	3.433781e-06	3.153863e-09	2.513296e+01	2.114647e+02
2.500000e-06	3.480418e-06	3.176355e-09	2.547432e+01	2.128634e+02
2.510000e-06	3.526836e-06	3.198740e-09	2.581407e+01	2.142515e+02
2.520000e-06	3.572911e-06	3.219804e-09	2.615130e+01	2.156299e+02
2.530000e-06	3.618686e-06	3.238912e-09	2.648635e+01	2.169991e+02
2.540000e-06	3.664241e-06	3.257420e-09	2.681978e+01	2.183594e+02
2.550000e-06	3.709539e-06	3.276007e-09	2.715133e+01	2.197104e+02
2.560000e-06	3.754629e-06	3.293894e-09	2.748135e+01	2.210515e+02
2.570000e-06	3.799482e-06	3.311572e-09	2.780965e+01	2.223819e+02
2.580000e-06	3.844044e-06	3.329604e-09	2.813581e+01	2.237005e+02
2.590000e-06	3.888408e-06	3.347848e-09	2.846053e+01	2.250057e+02
2.600000e-06	3.932617e-06	3.365349e-09	2.878411e+01	2.262961e+02
2.610000e-06	3.976638e-06	3.384784e-09	2.910631e+01	2.275698e+02
2.620000e-06	4.020468e-06	3.405058e-09	2.942712e+01	2.288250e+02
2.630000e-06	4.064092e-06	3.422858e-09	2.974641e+01	2.300599e+02
2.640000e-06	4.107439e-06	3.437249e-09	3.006369e+01	2.312725e+02
2.650000e-06	4.150464e-06	3.453896e-09	3.037860e+01	2.324607e+02
2.660000e-06	4.193102e-06	3.475216e-09	3.069068e+01	2.336228e+02
2.670000e-06	4.235262e-06	3.491845e-09	3.099926e+01	2.347570e+02
2.680000e-06	4.276942e-06	3.506288e-09	3.130434e+01	2.358615e+02
2.690000e-06	4.318122e-06	3.523214e-09	3.160575e+01	2.369348e+02
2.700000e-06	4.358829e-06	3.540232e-09	3.190369e+01	2.379756e+02
2.710000e-06	4.399229e-06	3.554565e-09	3.219940e+01	2.389826e+02
2.720000e-06	4.439383e-06	3.565976e-09	3.249330e+01	2.399550e+02
2.730000e-06	4.479345e-06	3.578251e-09	3.278579e+01	2.408919e+02
2.740000e-06	4.519072e-06	3.591301e-09	3.307656e+01	2.417930e+02
2.750000e-06	4.558471e-06	3.605284e-09	3.336494e+01	2.426580e+02
2.760000e-06	4.597516e-06	3.619039e-09	3.365072e+01	2.434869e+02
2.770000e-06	4.636214e-06	3.629887e-09	3.393396e+01	2.442801e+02
2.780000e-06	4.674625e-06	3.641995e-09	3.421510e+01	2.450380e+02
2.790000e-06	4.712710e-06	3.655128e-09	3.449386e+01	2.457614e+02
2.800000e-06	4.750492e-06	3.666831e-09	3.477041e+01	2.464515e+02
2.810000e-06	4.787978e-06	3.680763e-09	3.504477e+01	2.471094e+02
2.820000e-06	4.825111e-06	3.692495e-09	3.531656e+01	2.477366e+02
2.830000e-06	4.861922e-06	3.703472e-09	3.558599e+01	2.483348e+02
2.840000e-06	4.898475e-06	3.715219e-09	3.585354e+01	2.489058e+02
2.850000e-06	4.934723e-06	3.724445e-09	3.611885e+01	2.494515e+02
2.860000e-06	4.970689e-06	3.731916e-09	3.638209e+01	2.499740e+02
2.870000e-06	5.006506e-06	3.739966e-09	3.664425e+01	2.504755e+02
2.880000e-06	5.042090e-06	3.749663e-09	3.690470e+01	2.509582e+02
2.890000e-06	5.077318e-06	3.758514e-09	3.716255e+01	2.514244e+02
2.900000e-06	5.112145e-06	3.768143e-09	3.741746e+01	2.518764e+02
