# Temperatura_=_20.0
# Concentracion g/m^3_=_9000.0
# C_Vs_to_Am_M_A/Vsm_=_65563218390.804596
# pendiente_HvsI_1/m_=_3716.3
# ordenada_HvsI_A/m_=_1297.0
# frecuencia_Hz_=_135335.4233560431

Tiempo_(s)	Campo_(V.s)	Magnetizacion_(V.s)	Campo_(kA/m)	Magnetizacion_(A/m)
0.000000e+00	-6.537172e-06	-4.144100e-09	-4.773510e+01	-2.771540e+02
1.000000e-08	-6.537430e-06	-4.142926e-09	-4.773698e+01	-2.771997e+02
2.000000e-08	-6.537320e-06	-4.142295e-09	-4.773618e+01	-2.772260e+02
3.000000e-08	-6.536728e-06	-4.142200e-09	-4.773186e+01	-2.772313e+02
4.000000e-08	-6.535599e-06	-4.141021e-09	-4.772361e+01	-2.772143e+02
5.000000e-08	-6.533884e-06	-4.139496e-09	-4.771109e+01	-2.771736e+02
6.000000e-08	-6.531525e-06	-4.137526e-09	-4.769386e+01	-2.771082e+02
7.000000e-08	-6.528484e-06	-4.138719e-09	-4.767166e+01	-2.770172e+02
8.000000e-08	-6.524915e-06	-4.125286e-09	-4.764560e+01	-2.768998e+02
9.000000e-08	-6.520927e-06	-4.121247e-09	-4.761648e+01	-2.767557e+02
1.000000e-07	-6.516480e-06	-4.146437e-09	-4.758400e+01	-2.765846e+02
1.100000e-07	-6.511419e-06	-4.217034e-09	-4.754705e+01	-2.763863e+02
1.200000e-07	-6.505781e-06	-4.197438e-09	-4.750587e+01	-2.761612e+02
1.300000e-07	-6.499798e-06	-4.130114e-09	-4.746219e+01	-2.759096e+02
1.400000e-07	-6.493564e-06	-4.057282e-09	-4.741667e+01	-2.756322e+02
1.500000e-07	-6.487038e-06	-4.153879e-09	-4.736902e+01	-2.753301e+02
1.600000e-07	-6.480034e-06	-4.236482e-09	-4.731787e+01	-2.750042e+02
1.700000e-07	-6.472503e-06	-4.242743e-09	-4.726288e+01	-2.746560e+02
1.800000e-07	-6.464610e-06	-4.135900e-09	-4.720524e+01	-2.742870e+02
1.900000e-07	-6.456506e-06	-4.142315e-09	-4.714606e+01	-2.738990e+02
2.000000e-07	-6.448136e-06	-4.236443e-09	-4.708495e+01	-2.734938e+02
2.100000e-07	-6.439234e-06	-4.312185e-09	-4.701994e+01	-2.730735e+02
2.200000e-07	-6.429539e-06	-4.267757e-09	-4.694915e+01	-2.726404e+02
2.300000e-07	-6.419029e-06	-4.121913e-09	-4.687240e+01	-2.721966e+02
2.400000e-07	-6.407877e-06	-4.089915e-09	-4.679097e+01	-2.717447e+02
2.500000e-07	-6.396328e-06	-4.178021e-09	-4.670664e+01	-2.712868e+02
2.600000e-07	-6.384248e-06	-4.216150e-09	-4.661843e+01	-2.708256e+02
2.700000e-07	-6.371521e-06	-4.061461e-09	-4.652550e+01	-2.703634e+02
2.800000e-07	-6.358380e-06	-4.018822e-09	-4.642954e+01	-2.699027e+02
2.900000e-07	-6.344737e-06	-4.113783e-09	-4.632992e+01	-2.694457e+02
3.000000e-07	-6.330455e-06	-4.141042e-09	-4.622563e+01	-2.689946e+02
3.100000e-07	-6.315528e-06	-4.035524e-09	-4.611663e+01	-2.685517e+02
3.200000e-07	-6.300011e-06	-4.026372e-09	-4.600332e+01	-2.681189e+02
3.300000e-07	-6.283854e-06	-4.058350e-09	-4.588534e+01	-2.676979e+02
3.400000e-07	-6.267094e-06	-4.095195e-09	-4.576296e+01	-2.672906e+02
3.500000e-07	-6.250006e-06	-4.053349e-09	-4.563818e+01	-2.668981e+02
3.600000e-07	-6.232644e-06	-4.051074e-09	-4.551141e+01	-2.665218e+02
3.700000e-07	-6.214924e-06	-4.014615e-09	-4.538201e+01	-2.661627e+02
3.800000e-07	-6.196811e-06	-4.067408e-09	-4.524975e+01	-2.658214e+02
3.900000e-07	-6.178292e-06	-4.102551e-09	-4.511452e+01	-2.654983e+02
4.000000e-07	-6.159239e-06	-4.087453e-09	-4.497539e+01	-2.651938e+02
4.100000e-07	-6.139657e-06	-4.027155e-09	-4.483240e+01	-2.649076e+02
4.200000e-07	-6.119757e-06	-4.082551e-09	-4.468709e+01	-2.646395e+02
4.300000e-07	-6.099578e-06	-4.167964e-09	-4.453974e+01	-2.643889e+02
4.400000e-07	-6.079067e-06	-4.129073e-09	-4.438997e+01	-2.641548e+02
4.500000e-07	-6.058176e-06	-4.049954e-09	-4.423742e+01	-2.639363e+02
4.600000e-07	-6.036919e-06	-4.099593e-09	-4.408220e+01	-2.637319e+02
4.700000e-07	-6.015342e-06	-4.171487e-09	-4.392464e+01	-2.635402e+02
4.800000e-07	-5.993379e-06	-4.108100e-09	-4.376427e+01	-2.633593e+02
4.900000e-07	-5.970960e-06	-4.052586e-09	-4.360056e+01	-2.631874e+02
5.000000e-07	-5.948132e-06	-4.082949e-09	-4.343387e+01	-2.630224e+02
5.100000e-07	-5.924897e-06	-4.122114e-09	-4.326420e+01	-2.628621e+02
5.200000e-07	-5.901232e-06	-4.082492e-09	-4.309140e+01	-2.627042e+02
5.300000e-07	-5.877260e-06	-4.067229e-09	-4.291635e+01	-2.625463e+02
5.400000e-07	-5.852916e-06	-4.058879e-09	-4.273859e+01	-2.623859e+02
5.500000e-07	-5.828043e-06	-4.067325e-09	-4.255696e+01	-2.622208e+02
5.600000e-07	-5.802642e-06	-4.068140e-09	-4.237149e+01	-2.620483e+02
5.700000e-07	-5.776690e-06	-4.068062e-09	-4.218198e+01	-2.618662e+02
5.800000e-07	-5.750110e-06	-4.018795e-09	-4.198789e+01	-2.616721e+02
5.900000e-07	-5.722945e-06	-4.017908e-09	-4.178953e+01	-2.614639e+02
6.000000e-07	-5.695411e-06	-4.048144e-09	-4.158847e+01	-2.612393e+02
6.100000e-07	-5.667655e-06	-4.050279e-09	-4.138579e+01	-2.609964e+02
6.200000e-07	-5.639569e-06	-3.997373e-09	-4.118071e+01	-2.607336e+02
6.300000e-07	-5.611098e-06	-3.992630e-09	-4.097281e+01	-2.604490e+02
6.400000e-07	-5.582345e-06	-4.016107e-09	-4.076285e+01	-2.601415e+02
6.500000e-07	-5.553200e-06	-4.014501e-09	-4.055003e+01	-2.598097e+02
6.600000e-07	-5.523620e-06	-3.974101e-09	-4.033404e+01	-2.594527e+02
6.700000e-07	-5.493681e-06	-3.961947e-09	-4.011542e+01	-2.590698e+02
6.800000e-07	-5.463378e-06	-3.975000e-09	-3.989414e+01	-2.586606e+02
6.900000e-07	-5.432730e-06	-3.978488e-09	-3.967035e+01	-2.582248e+02
7.000000e-07	-5.401709e-06	-3.957340e-09	-3.944383e+01	-2.577625e+02
7.100000e-07	-5.370276e-06	-3.944491e-09	-3.921431e+01	-2.572739e+02
7.200000e-07	-5.338498e-06	-3.946990e-09	-3.898225e+01	-2.567596e+02
7.300000e-07	-5.306513e-06	-3.945929e-09	-3.874870e+01	-2.562202e+02
7.400000e-07	-5.274305e-06	-3.937486e-09	-3.851352e+01	-2.556567e+02
7.500000e-07	-5.241742e-06	-3.918578e-09	-3.827574e+01	-2.550703e+02
7.600000e-07	-5.208694e-06	-3.906948e-09	-3.803442e+01	-2.544621e+02
7.700000e-07	-5.175052e-06	-3.906446e-09	-3.778876e+01	-2.538338e+02
7.800000e-07	-5.140815e-06	-3.913451e-09	-3.753876e+01	-2.531869e+02
7.900000e-07	-5.106069e-06	-3.895837e-09	-3.728504e+01	-2.525230e+02
8.000000e-07	-5.070866e-06	-3.879177e-09	-3.702798e+01	-2.518440e+02
8.100000e-07	-5.035286e-06	-3.877978e-09	-3.676817e+01	-2.511517e+02
8.200000e-07	-4.999497e-06	-3.884614e-09	-3.650684e+01	-2.504479e+02
8.300000e-07	-4.963474e-06	-3.864535e-09	-3.624379e+01	-2.497345e+02
8.400000e-07	-4.927078e-06	-3.845228e-09	-3.597803e+01	-2.490133e+02
8.500000e-07	-4.890316e-06	-3.836923e-09	-3.570959e+01	-2.482860e+02
8.600000e-07	-4.853204e-06	-3.837987e-09	-3.543859e+01	-2.475544e+02
8.700000e-07	-4.815756e-06	-3.822311e-09	-3.516514e+01	-2.468199e+02
8.800000e-07	-4.777963e-06	-3.805588e-09	-3.488918e+01	-2.460841e+02
8.900000e-07	-4.739897e-06	-3.792115e-09	-3.461121e+01	-2.453480e+02
9.000000e-07	-4.701571e-06	-3.788920e-09	-3.433135e+01	-2.446130e+02
9.100000e-07	-4.662891e-06	-3.779481e-09	-3.404891e+01	-2.438797e+02
9.200000e-07	-4.623885e-06	-3.763769e-09	-3.376408e+01	-2.431489e+02
9.300000e-07	-4.584594e-06	-3.744270e-09	-3.347717e+01	-2.424211e+02
9.400000e-07	-4.545054e-06	-3.734370e-09	-3.318845e+01	-2.416964e+02
9.500000e-07	-4.505301e-06	-3.725948e-09	-3.289816e+01	-2.409748e+02
9.600000e-07	-4.465340e-06	-3.711698e-09	-3.260637e+01	-2.402561e+02
9.700000e-07	-4.425130e-06	-3.690855e-09	-3.231275e+01	-2.395397e+02
9.800000e-07	-4.384506e-06	-3.675621e-09	-3.201611e+01	-2.388249e+02
9.900000e-07	-4.343386e-06	-3.669920e-09	-3.171585e+01	-2.381108e+02
1.000000e-06	-4.301813e-06	-3.662116e-09	-3.141227e+01	-2.373961e+02
1.010000e-06	-4.259899e-06	-3.646697e-09	-3.110622e+01	-2.366796e+02
1.020000e-06	-4.217595e-06	-3.628270e-09	-3.079731e+01	-2.359595e+02
1.030000e-06	-4.174779e-06	-3.617620e-09	-3.048466e+01	-2.352342e+02
1.040000e-06	-4.131541e-06	-3.606219e-09	-3.016893e+01	-2.345018e+02
1.050000e-06	-4.087999e-06	-3.589961e-09	-2.985099e+01	-2.337602e+02
1.060000e-06	-4.044238e-06	-3.570147e-09	-2.953144e+01	-2.330075e+02
1.070000e-06	-4.000316e-06	-3.555658e-09	-2.921072e+01	-2.322415e+02
1.080000e-06	-3.956155e-06	-3.542530e-09	-2.888825e+01	-2.314599e+02
1.090000e-06	-3.911715e-06	-3.528617e-09	-2.856374e+01	-2.306606e+02
1.100000e-06	-3.867096e-06	-3.511049e-09	-2.823793e+01	-2.298414e+02
1.110000e-06	-3.822305e-06	-3.493605e-09	-2.791086e+01	-2.290002e+02
1.120000e-06	-3.777216e-06	-3.476262e-09	-2.758161e+01	-2.281349e+02
1.130000e-06	-3.731815e-06	-3.462566e-09	-2.725010e+01	-2.272437e+02
1.140000e-06	-3.686157e-06	-3.445724e-09	-2.691670e+01	-2.263247e+02
1.150000e-06	-3.640186e-06	-3.429069e-09	-2.658101e+01	-2.253763e+02
1.160000e-06	-3.593958e-06	-3.410948e-09	-2.624345e+01	-2.243972e+02
1.170000e-06	-3.547448e-06	-3.396714e-09	-2.590383e+01	-2.233859e+02
1.180000e-06	-3.500689e-06	-3.380662e-09	-2.556239e+01	-2.223416e+02
1.190000e-06	-3.453784e-06	-3.363612e-09	-2.521989e+01	-2.212634e+02
1.200000e-06	-3.406627e-06	-3.345078e-09	-2.487554e+01	-2.201509e+02
1.210000e-06	-3.359172e-06	-3.327423e-09	-2.452902e+01	-2.190037e+02
1.220000e-06	-3.311516e-06	-3.309258e-09	-2.418103e+01	-2.178218e+02
1.230000e-06	-3.263750e-06	-3.291972e-09	-2.383224e+01	-2.166055e+02
1.240000e-06	-3.215808e-06	-3.274180e-09	-2.348216e+01	-2.153552e+02
1.250000e-06	-3.167620e-06	-3.253296e-09	-2.313028e+01	-2.140716e+02
1.260000e-06	-3.119209e-06	-3.232085e-09	-2.277678e+01	-2.127558e+02
1.270000e-06	-3.070472e-06	-3.213220e-09	-2.242090e+01	-2.114088e+02
1.280000e-06	-3.021394e-06	-3.193126e-09	-2.206253e+01	-2.100320e+02
1.290000e-06	-2.972096e-06	-3.170773e-09	-2.170255e+01	-2.086269e+02
1.300000e-06	-2.922518e-06	-3.149542e-09	-2.134052e+01	-2.071951e+02
1.310000e-06	-2.872649e-06	-3.129243e-09	-2.097638e+01	-2.057385e+02
1.320000e-06	-2.822525e-06	-3.108058e-09	-2.061037e+01	-2.042588e+02
1.330000e-06	-2.771993e-06	-3.086870e-09	-2.024137e+01	-2.027578e+02
1.340000e-06	-2.721113e-06	-3.065804e-09	-1.986985e+01	-2.012374e+02
1.350000e-06	-2.670021e-06	-3.043092e-09	-1.949677e+01	-1.996994e+02
1.360000e-06	-2.618640e-06	-3.020658e-09	-1.912158e+01	-1.981456e+02
1.370000e-06	-2.566981e-06	-2.998941e-09	-1.874436e+01	-1.965774e+02
1.380000e-06	-2.515123e-06	-2.979366e-09	-1.836569e+01	-1.949963e+02
1.390000e-06	-2.463070e-06	-2.958166e-09	-1.798559e+01	-1.934035e+02
1.400000e-06	-2.410898e-06	-2.933020e-09	-1.760462e+01	-1.917999e+02
1.410000e-06	-2.358601e-06	-2.905232e-09	-1.722274e+01	-1.901863e+02
1.420000e-06	-2.306073e-06	-2.882302e-09	-1.683918e+01	-1.885628e+02
1.430000e-06	-2.253408e-06	-2.857905e-09	-1.645462e+01	-1.869294e+02
1.440000e-06	-2.200640e-06	-2.829363e-09	-1.606930e+01	-1.852858e+02
1.450000e-06	-2.147711e-06	-2.801938e-09	-1.568281e+01	-1.836311e+02
1.460000e-06	-2.094683e-06	-2.776514e-09	-1.529559e+01	-1.819639e+02
1.470000e-06	-2.041453e-06	-2.752760e-09	-1.490690e+01	-1.802826e+02
1.480000e-06	-1.988050e-06	-2.726479e-09	-1.451694e+01	-1.785848e+02
1.490000e-06	-1.934522e-06	-2.693322e-09	-1.412608e+01	-1.768679e+02
1.500000e-06	-1.880807e-06	-2.660143e-09	-1.373384e+01	-1.751286e+02
1.510000e-06	-1.826950e-06	-2.630702e-09	-1.334058e+01	-1.733633e+02
1.520000e-06	-1.772954e-06	-2.602590e-09	-1.294629e+01	-1.715678e+02
1.530000e-06	-1.718870e-06	-2.569396e-09	-1.255136e+01	-1.697375e+02
1.540000e-06	-1.664739e-06	-2.535392e-09	-1.215610e+01	-1.678672e+02
1.550000e-06	-1.610506e-06	-2.505446e-09	-1.176008e+01	-1.659515e+02
1.560000e-06	-1.556166e-06	-2.476696e-09	-1.136329e+01	-1.639845e+02
1.570000e-06	-1.501792e-06	-2.439927e-09	-1.096624e+01	-1.619599e+02
1.580000e-06	-1.447332e-06	-2.399713e-09	-1.056856e+01	-1.598714e+02
1.590000e-06	-1.392707e-06	-2.359540e-09	-1.016969e+01	-1.577119e+02
1.600000e-06	-1.337916e-06	-2.319208e-09	-9.769599e+00	-1.554747e+02
1.610000e-06	-1.282994e-06	-2.277709e-09	-9.368557e+00	-1.531524e+02
1.620000e-06	-1.227973e-06	-2.236190e-09	-8.966785e+00	-1.507379e+02
1.630000e-06	-1.172870e-06	-2.197654e-09	-8.564416e+00	-1.482240e+02
1.640000e-06	-1.117663e-06	-2.159899e-09	-8.161290e+00	-1.456033e+02
1.650000e-06	-1.062344e-06	-2.120600e-09	-7.757347e+00	-1.428687e+02
1.660000e-06	-1.007042e-06	-2.076579e-09	-7.353524e+00	-1.400134e+02
1.670000e-06	-9.517477e-07	-2.030665e-09	-6.949759e+00	-1.370306e+02
1.680000e-06	-8.963512e-07	-1.978863e-09	-6.545248e+00	-1.339138e+02
1.690000e-06	-8.409052e-07	-1.924264e-09	-6.140375e+00	-1.306573e+02
1.700000e-06	-7.853649e-07	-1.869129e-09	-5.734815e+00	-1.272553e+02
1.710000e-06	-7.297798e-07	-1.814165e-09	-5.328927e+00	-1.237028e+02
1.720000e-06	-6.742420e-07	-1.759452e-09	-4.923384e+00	-1.199954e+02
1.730000e-06	-6.187036e-07	-1.704633e-09	-4.517837e+00	-1.161294e+02
1.740000e-06	-5.631415e-07	-1.647192e-09	-4.112117e+00	-1.121014e+02
1.750000e-06	-5.075242e-07	-1.587602e-09	-3.705994e+00	-1.079093e+02
1.760000e-06	-4.518819e-07	-1.524875e-09	-3.299687e+00	-1.035514e+02
1.770000e-06	-3.961898e-07	-1.455854e-09	-2.893019e+00	-9.902698e+01
1.780000e-06	-3.404139e-07	-1.381730e-09	-2.485737e+00	-9.433614e+01
1.790000e-06	-2.846630e-07	-1.308337e-09	-2.078638e+00	-8.947989e+01
1.800000e-06	-2.289171e-07	-1.235262e-09	-1.671576e+00	-8.446015e+01
1.810000e-06	-1.731076e-07	-1.159887e-09	-1.264049e+00	-7.927976e+01
1.820000e-06	-1.173205e-07	-1.081674e-09	-8.566863e-01	-7.394248e+01
1.830000e-06	-6.152998e-08	-1.002468e-09	-4.492982e-01	-6.845302e+01
1.840000e-06	-5.760758e-09	-9.235039e-10	-4.206564e-02	-6.281696e+01
1.850000e-06	4.996254e-08	-8.416573e-10	3.648316e-01	-5.704081e+01
1.860000e-06	1.056747e-07	-7.527066e-10	7.716473e-01	-5.113193e+01
1.870000e-06	1.613830e-07	-6.582138e-10	1.178435e+00	-4.509853e+01
1.880000e-06	2.170699e-07	-5.658958e-10	1.585066e+00	-3.894960e+01
1.890000e-06	2.726888e-07	-4.739238e-10	1.991202e+00	-3.269487e+01
1.900000e-06	3.283219e-07	-3.768008e-10	2.397440e+00	-2.634478e+01
1.910000e-06	3.840232e-07	-2.755244e-10	2.804177e+00	-1.991039e+01
1.920000e-06	4.397057e-07	-1.766862e-10	3.210776e+00	-1.340332e+01
1.930000e-06	4.953491e-07	-7.697326e-11	3.617090e+00	-6.835685e+00
1.940000e-06	5.509645e-07	2.518015e-11	4.023199e+00	-2.200276e-01
1.950000e-06	6.065398e-07	1.268635e-10	4.429015e+00	6.430784e+00
1.960000e-06	6.621070e-07	2.304187e-10	4.834773e+00	1.310362e+01
1.970000e-06	7.176421e-07	3.347082e-10	5.240296e+00	1.978520e+01
1.980000e-06	7.731164e-07	4.383219e-10	5.645375e+00	2.646212e+01
1.990000e-06	8.285426e-07	5.436682e-10	6.050103e+00	3.312103e+01
2.000000e-06	8.839567e-07	6.502897e-10	6.454742e+00	3.974863e+01
2.010000e-06	9.392949e-07	7.552981e-10	6.858828e+00	4.633182e+01
2.020000e-06	9.945505e-07	8.559959e-10	7.262309e+00	5.285777e+01
2.030000e-06	1.049736e-06	9.540663e-10	7.665281e+00	5.931396e+01
2.040000e-06	1.104848e-06	1.050639e-09	8.067711e+00	6.568835e+01
2.050000e-06	1.159913e-06	1.145665e-09	8.469804e+00	7.196935e+01
2.060000e-06	1.214830e-06	1.237534e-09	8.870816e+00	7.814597e+01
2.070000e-06	1.269679e-06	1.327121e-09	9.271326e+00	8.420787e+01
2.080000e-06	1.324552e-06	1.415797e-09	9.672013e+00	9.014539e+01
2.090000e-06	1.379271e-06	1.502304e-09	1.007158e+01	9.594964e+01
2.100000e-06	1.433809e-06	1.586261e-09	1.046982e+01	1.016125e+02
2.110000e-06	1.488222e-06	1.666778e-09	1.086715e+01	1.071268e+02
2.120000e-06	1.542531e-06	1.743803e-09	1.126372e+01	1.124861e+02
2.130000e-06	1.596756e-06	1.816841e-09	1.165967e+01	1.176850e+02
2.140000e-06	1.650893e-06	1.886988e-09	1.205499e+01	1.227189e+02
2.150000e-06	1.704936e-06	1.956362e-09	1.244962e+01	1.275843e+02
2.160000e-06	1.758949e-06	2.023021e-09	1.284402e+01	1.322785e+02
2.170000e-06	1.812862e-06	2.086138e-09	1.323770e+01	1.367997e+02
2.180000e-06	1.866548e-06	2.146404e-09	1.362972e+01	1.411473e+02
2.190000e-06	1.920109e-06	2.206477e-09	1.402083e+01	1.453212e+02
2.200000e-06	1.973532e-06	2.264989e-09	1.441093e+01	1.493225e+02
2.210000e-06	2.026798e-06	2.317308e-09	1.479989e+01	1.531530e+02
2.220000e-06	2.079977e-06	2.364837e-09	1.518821e+01	1.568154e+02
2.230000e-06	2.133041e-06	2.410779e-09	1.557568e+01	1.603130e+02
2.240000e-06	2.185876e-06	2.458701e-09	1.596149e+01	1.636500e+02
2.250000e-06	2.238508e-06	2.503227e-09	1.634582e+01	1.668310e+02
2.260000e-06	2.291002e-06	2.540848e-09	1.672913e+01	1.698615e+02
2.270000e-06	2.343330e-06	2.578910e-09	1.711123e+01	1.727473e+02
2.280000e-06	2.395485e-06	2.620504e-09	1.749207e+01	1.754948e+02
2.290000e-06	2.447433e-06	2.660678e-09	1.787140e+01	1.781106e+02
2.300000e-06	2.499209e-06	2.696057e-09	1.824948e+01	1.806018e+02
2.310000e-06	2.550823e-06	2.729968e-09	1.862637e+01	1.829758e+02
2.320000e-06	2.602170e-06	2.766625e-09	1.900131e+01	1.852399e+02
2.330000e-06	2.653196e-06	2.801892e-09	1.937390e+01	1.874018e+02
2.340000e-06	2.703986e-06	2.831068e-09	1.974478e+01	1.894691e+02
2.350000e-06	2.754565e-06	2.858080e-09	2.011412e+01	1.914494e+02
2.360000e-06	2.804891e-06	2.887317e-09	2.048160e+01	1.933501e+02
2.370000e-06	2.854856e-06	2.916671e-09	2.084645e+01	1.951787e+02
2.380000e-06	2.904439e-06	2.945333e-09	2.120851e+01	1.969422e+02
2.390000e-06	2.953704e-06	2.973287e-09	2.156824e+01	1.986476e+02
2.400000e-06	3.002559e-06	3.000084e-09	2.192499e+01	2.003014e+02
2.410000e-06	3.051092e-06	3.027057e-09	2.227939e+01	2.019097e+02
2.420000e-06	3.099438e-06	3.054039e-09	2.263241e+01	2.034783e+02
2.430000e-06	3.147591e-06	3.078512e-09	2.298403e+01	2.050127e+02
2.440000e-06	3.195681e-06	3.100302e-09	2.333519e+01	2.065176e+02
2.450000e-06	3.243635e-06	3.121518e-09	2.368535e+01	2.079976e+02
2.460000e-06	3.291295e-06	3.143473e-09	2.403337e+01	2.094565e+02
2.470000e-06	3.338750e-06	3.165776e-09	2.437989e+01	2.108977e+02
2.480000e-06	3.386029e-06	3.187083e-09	2.472513e+01	2.123242e+02
2.490000e-06	3.433140e-06	3.207575e-09	2.506914e+01	2.137382e+02
2.500000e-06	3.480029e-06	3.227344e-09	2.541153e+01	2.151418e+02
2.510000e-06	3.526556e-06	3.247803e-09	2.575128e+01	2.165363e+02
2.520000e-06	3.572760e-06	3.267139e-09	2.608866e+01	2.179225e+02
2.530000e-06	3.618698e-06	3.284133e-09	2.642410e+01	2.193011e+02
2.540000e-06	3.664409e-06	3.302458e-09	2.675789e+01	2.206721e+02
2.550000e-06	3.709857e-06	3.321161e-09	2.708976e+01	2.220350e+02
2.560000e-06	3.755065e-06	3.336746e-09	2.741987e+01	2.233893e+02
2.570000e-06	3.800057e-06	3.354376e-09	2.774841e+01	2.247339e+02
2.580000e-06	3.844770e-06	3.375230e-09	2.807490e+01	2.260675e+02
2.590000e-06	3.889249e-06	3.392784e-09	2.839969e+01	2.273886e+02
2.600000e-06	3.933511e-06	3.407524e-09	2.872290e+01	2.286955e+02
2.610000e-06	3.977577e-06	3.424484e-09	2.904468e+01	2.299863e+02
2.620000e-06	4.021457e-06	3.442611e-09	2.936509e+01	2.312591e+02
2.630000e-06	4.065181e-06	3.458543e-09	2.968437e+01	2.325116e+02
2.640000e-06	4.108670e-06	3.471310e-09	3.000192e+01	2.337420e+02
2.650000e-06	4.151908e-06	3.486398e-09	3.031766e+01	2.349480e+02
2.660000e-06	4.194811e-06	3.507003e-09	3.063094e+01	2.361278e+02
2.670000e-06	4.237260e-06	3.525135e-09	3.094091e+01	2.372794e+02
2.680000e-06	4.279209e-06	3.540196e-09	3.124722e+01	2.384010e+02
2.690000e-06	4.320609e-06	3.555061e-09	3.154953e+01	2.394909e+02
2.700000e-06	4.361473e-06	3.569163e-09	3.184792e+01	2.405479e+02
2.710000e-06	4.401898e-06	3.581189e-09	3.214311e+01	2.415705e+02
2.720000e-06	4.442038e-06	3.591866e-09	3.243622e+01	2.425578e+02
2.730000e-06	4.481954e-06	3.603592e-09	3.272769e+01	2.435091e+02
2.740000e-06	4.521729e-06	3.615237e-09	3.301813e+01	2.444238e+02
2.750000e-06	4.561369e-06	3.626924e-09	3.330758e+01	2.453017e+02
2.760000e-06	4.600782e-06	3.639896e-09	3.359538e+01	2.461429e+02
2.770000e-06	4.639840e-06	3.653995e-09	3.388058e+01	2.469476e+02
2.780000e-06	4.678488e-06	3.666663e-09	3.416280e+01	2.477164e+02
2.790000e-06	4.716798e-06	3.678942e-09	3.444254e+01	2.484503e+02
2.800000e-06	4.754735e-06	3.690456e-09	3.471956e+01	2.491502e+02
2.810000e-06	4.792335e-06	3.700670e-09	3.499412e+01	2.498175e+02
2.820000e-06	4.829664e-06	3.710599e-09	3.526670e+01	2.504537e+02
2.830000e-06	4.866605e-06	3.720723e-09	3.553645e+01	2.510605e+02
2.840000e-06	4.903233e-06	3.731750e-09	3.580391e+01	2.516399e+02
2.850000e-06	4.939613e-06	3.742541e-09	3.606956e+01	2.521939e+02
2.860000e-06	4.975699e-06	3.753218e-09	3.633306e+01	2.527247e+02
2.870000e-06	5.011544e-06	3.763885e-09	3.659481e+01	2.532345e+02
2.880000e-06	5.047235e-06	3.775044e-09	3.685543e+01	2.537257e+02
2.890000e-06	5.082695e-06	3.784045e-09	3.711436e+01	2.542006e+02
2.900000e-06	5.117723e-06	3.792777e-09	3.737014e+01	2.546616e+02
