# Temperatura_=_20.0
# Concentracion g/m^3_=_9000.0
# C_Vs_to_Am_M_A/Vsm_=_65563218390.804596
# pendiente_HvsI_1/m_=_3716.3
# ordenada_HvsI_A/m_=_1297.0
# frecuencia_Hz_=_135337.55426351327

Tiempo_(s)	Campo_(V.s)	Magnetizacion_(V.s)	Campo_(kA/m)	Magnetizacion_(A/m)
0.000000e+00	-6.519239e-06	-4.051646e-09	-4.773117e+01	-2.716140e+02
1.000000e-08	-6.519500e-06	-4.048189e-09	-4.773309e+01	-2.717012e+02
2.000000e-08	-6.519485e-06	-4.046709e-09	-4.773297e+01	-2.717765e+02
3.000000e-08	-6.519129e-06	-4.048365e-09	-4.773037e+01	-2.718383e+02
4.000000e-08	-6.518246e-06	-4.049193e-09	-4.772390e+01	-2.718854e+02
5.000000e-08	-6.516701e-06	-4.047472e-09	-4.771260e+01	-2.719166e+02
6.000000e-08	-6.514535e-06	-4.046169e-09	-4.769674e+01	-2.719308e+02
7.000000e-08	-6.511774e-06	-4.047184e-09	-4.767652e+01	-2.719270e+02
8.000000e-08	-6.508406e-06	-4.042226e-09	-4.765186e+01	-2.719045e+02
9.000000e-08	-6.504556e-06	-4.025522e-09	-4.762368e+01	-2.718626e+02
1.000000e-07	-6.500331e-06	-4.032370e-09	-4.759274e+01	-2.718010e+02
1.100000e-07	-6.495587e-06	-4.087771e-09	-4.755801e+01	-2.717194e+02
1.200000e-07	-6.490203e-06	-4.125849e-09	-4.751859e+01	-2.716178e+02
1.300000e-07	-6.484346e-06	-4.046741e-09	-4.747570e+01	-2.714963e+02
1.400000e-07	-6.478212e-06	-3.960966e-09	-4.743079e+01	-2.713553e+02
1.500000e-07	-6.471768e-06	-4.008800e-09	-4.738361e+01	-2.711954e+02
1.600000e-07	-6.464929e-06	-4.137282e-09	-4.733354e+01	-2.710173e+02
1.700000e-07	-6.457607e-06	-4.129010e-09	-4.727994e+01	-2.708220e+02
1.800000e-07	-6.449930e-06	-4.062813e-09	-4.722372e+01	-2.706106e+02
1.900000e-07	-6.441952e-06	-4.038329e-09	-4.716531e+01	-2.703844e+02
2.000000e-07	-6.433540e-06	-4.127288e-09	-4.710372e+01	-2.701448e+02
2.100000e-07	-6.424741e-06	-4.179205e-09	-4.703930e+01	-2.698934e+02
2.200000e-07	-6.415380e-06	-4.136860e-09	-4.697076e+01	-2.696317e+02
2.300000e-07	-6.405184e-06	-4.017827e-09	-4.689611e+01	-2.693617e+02
2.400000e-07	-6.394247e-06	-3.999171e-09	-4.681603e+01	-2.690850e+02
2.500000e-07	-6.382783e-06	-4.118271e-09	-4.673210e+01	-2.688036e+02
2.600000e-07	-6.370833e-06	-4.144070e-09	-4.664461e+01	-2.685193e+02
2.700000e-07	-6.358330e-06	-3.984224e-09	-4.655307e+01	-2.682340e+02
2.800000e-07	-6.345296e-06	-3.902721e-09	-4.645764e+01	-2.679496e+02
2.900000e-07	-6.331839e-06	-4.061786e-09	-4.635911e+01	-2.676677e+02
3.000000e-07	-6.317898e-06	-4.163035e-09	-4.625704e+01	-2.673902e+02
3.100000e-07	-6.303335e-06	-4.042772e-09	-4.615042e+01	-2.671187e+02
3.200000e-07	-6.288104e-06	-3.975754e-09	-4.603890e+01	-2.668545e+02
3.300000e-07	-6.272217e-06	-4.090572e-09	-4.592258e+01	-2.665991e+02
3.400000e-07	-6.255673e-06	-4.134035e-09	-4.580145e+01	-2.663535e+02
3.500000e-07	-6.238720e-06	-4.101594e-09	-4.567733e+01	-2.661189e+02
3.600000e-07	-6.221554e-06	-4.042715e-09	-4.555165e+01	-2.658960e+02
3.700000e-07	-6.204007e-06	-4.017357e-09	-4.542318e+01	-2.656853e+02
3.800000e-07	-6.186076e-06	-4.034088e-09	-4.529189e+01	-2.654873e+02
3.900000e-07	-6.167736e-06	-4.139887e-09	-4.515762e+01	-2.653020e+02
4.000000e-07	-6.148861e-06	-4.117581e-09	-4.501942e+01	-2.651294e+02
4.100000e-07	-6.129486e-06	-4.039803e-09	-4.487756e+01	-2.649691e+02
4.200000e-07	-6.109785e-06	-4.097420e-09	-4.473332e+01	-2.648207e+02
4.300000e-07	-6.089880e-06	-4.239556e-09	-4.458758e+01	-2.646833e+02
4.400000e-07	-6.069635e-06	-4.208311e-09	-4.443936e+01	-2.645559e+02
4.500000e-07	-6.048929e-06	-4.121492e-09	-4.428776e+01	-2.644373e+02
4.600000e-07	-6.027856e-06	-4.169849e-09	-4.413347e+01	-2.643262e+02
4.700000e-07	-6.006449e-06	-4.260383e-09	-4.397674e+01	-2.642209e+02
4.800000e-07	-5.984627e-06	-4.214604e-09	-4.381697e+01	-2.641197e+02
4.900000e-07	-5.962360e-06	-4.139631e-09	-4.365393e+01	-2.640207e+02
5.000000e-07	-5.939669e-06	-4.152744e-09	-4.348780e+01	-2.639220e+02
5.100000e-07	-5.916590e-06	-4.186843e-09	-4.331883e+01	-2.638215e+02
5.200000e-07	-5.893177e-06	-4.191537e-09	-4.314741e+01	-2.637169e+02
5.300000e-07	-5.869468e-06	-4.176091e-09	-4.297382e+01	-2.636061e+02
5.400000e-07	-5.845416e-06	-4.146467e-09	-4.279772e+01	-2.634868e+02
5.500000e-07	-5.821000e-06	-4.128996e-09	-4.261896e+01	-2.633568e+02
5.600000e-07	-5.796072e-06	-4.170717e-09	-4.243644e+01	-2.632140e+02
5.700000e-07	-5.770489e-06	-4.178070e-09	-4.224914e+01	-2.630562e+02
5.800000e-07	-5.744187e-06	-4.119593e-09	-4.205656e+01	-2.628814e+02
5.900000e-07	-5.717220e-06	-4.088235e-09	-4.185912e+01	-2.626876e+02
6.000000e-07	-5.689818e-06	-4.136625e-09	-4.165850e+01	-2.624730e+02
6.100000e-07	-5.662157e-06	-4.143922e-09	-4.145597e+01	-2.622362e+02
6.200000e-07	-5.634261e-06	-4.098430e-09	-4.125173e+01	-2.619754e+02
6.300000e-07	-5.606067e-06	-4.072067e-09	-4.104531e+01	-2.616896e+02
6.400000e-07	-5.577513e-06	-4.095569e-09	-4.083625e+01	-2.613777e+02
6.500000e-07	-5.548553e-06	-4.095476e-09	-4.062421e+01	-2.610388e+02
6.600000e-07	-5.519178e-06	-4.070829e-09	-4.040914e+01	-2.606723e+02
6.700000e-07	-5.489412e-06	-4.048748e-09	-4.019121e+01	-2.602780e+02
6.800000e-07	-5.459322e-06	-4.054467e-09	-3.997090e+01	-2.598555e+02
6.900000e-07	-5.428862e-06	-4.056702e-09	-3.974789e+01	-2.594052e+02
7.000000e-07	-5.397965e-06	-4.046279e-09	-3.952167e+01	-2.589273e+02
7.100000e-07	-5.366699e-06	-4.026568e-09	-3.929275e+01	-2.584224e+02
7.200000e-07	-5.335175e-06	-4.021045e-09	-3.906195e+01	-2.578915e+02
7.300000e-07	-5.303421e-06	-4.020398e-09	-3.882946e+01	-2.573354e+02
7.400000e-07	-5.271419e-06	-4.014427e-09	-3.859515e+01	-2.567554e+02
7.500000e-07	-5.239117e-06	-3.993294e-09	-3.835865e+01	-2.561530e+02
7.600000e-07	-5.206418e-06	-3.973990e-09	-3.811924e+01	-2.555297e+02
7.700000e-07	-5.173237e-06	-3.973960e-09	-3.787630e+01	-2.548872e+02
7.800000e-07	-5.139496e-06	-3.976839e-09	-3.762927e+01	-2.542274e+02
7.900000e-07	-5.105094e-06	-3.957326e-09	-3.737739e+01	-2.535521e+02
8.000000e-07	-5.070141e-06	-3.932687e-09	-3.712148e+01	-2.528633e+02
8.100000e-07	-5.034817e-06	-3.934115e-09	-3.686285e+01	-2.521631e+02
8.200000e-07	-4.999185e-06	-3.939552e-09	-3.660197e+01	-2.514534e+02
8.300000e-07	-4.963297e-06	-3.922472e-09	-3.633921e+01	-2.507362e+02
8.400000e-07	-4.927164e-06	-3.894222e-09	-3.607466e+01	-2.500136e+02
8.500000e-07	-4.890679e-06	-3.886562e-09	-3.580753e+01	-2.492872e+02
8.600000e-07	-4.853722e-06	-3.887040e-09	-3.553695e+01	-2.485590e+02
8.700000e-07	-4.816492e-06	-3.878158e-09	-3.526436e+01	-2.478304e+02
8.800000e-07	-4.779032e-06	-3.856713e-09	-3.499010e+01	-2.471030e+02
8.900000e-07	-4.741229e-06	-3.843597e-09	-3.471332e+01	-2.463781e+02
9.000000e-07	-4.703136e-06	-3.838583e-09	-3.443442e+01	-2.456567e+02
9.100000e-07	-4.664742e-06	-3.836334e-09	-3.415331e+01	-2.449398e+02
9.200000e-07	-4.625997e-06	-3.818248e-09	-3.386964e+01	-2.442279e+02
9.300000e-07	-4.586935e-06	-3.795002e-09	-3.358365e+01	-2.435215e+02
9.400000e-07	-4.547554e-06	-3.780445e-09	-3.329531e+01	-2.428206e+02
9.500000e-07	-4.507927e-06	-3.777222e-09	-3.300518e+01	-2.421254e+02
9.600000e-07	-4.468128e-06	-3.764896e-09	-3.271379e+01	-2.414352e+02
9.700000e-07	-4.428109e-06	-3.743908e-09	-3.242078e+01	-2.407497e+02
9.800000e-07	-4.387789e-06	-3.725233e-09	-3.212558e+01	-2.400678e+02
9.900000e-07	-4.347086e-06	-3.720021e-09	-3.182757e+01	-2.393886e+02
1.000000e-06	-4.305896e-06	-3.713868e-09	-3.152599e+01	-2.387106e+02
1.010000e-06	-4.264237e-06	-3.697884e-09	-3.122098e+01	-2.380323e+02
1.020000e-06	-4.222248e-06	-3.677842e-09	-3.091355e+01	-2.373521e+02
1.030000e-06	-4.179806e-06	-3.664450e-09	-3.060281e+01	-2.366679e+02
1.040000e-06	-4.136858e-06	-3.652311e-09	-3.028837e+01	-2.359778e+02
1.050000e-06	-4.093557e-06	-3.636730e-09	-2.997133e+01	-2.352795e+02
1.060000e-06	-4.050011e-06	-3.621361e-09	-2.965251e+01	-2.345707e+02
1.070000e-06	-4.006249e-06	-3.607586e-09	-2.933210e+01	-2.338492e+02
1.080000e-06	-3.962295e-06	-3.596865e-09	-2.901029e+01	-2.331124e+02
1.090000e-06	-3.918128e-06	-3.585138e-09	-2.868692e+01	-2.323580e+02
1.100000e-06	-3.873665e-06	-3.572185e-09	-2.836138e+01	-2.315837e+02
1.110000e-06	-3.828927e-06	-3.552392e-09	-2.803382e+01	-2.307870e+02
1.120000e-06	-3.783953e-06	-3.532823e-09	-2.770454e+01	-2.299658e+02
1.130000e-06	-3.738705e-06	-3.515966e-09	-2.737325e+01	-2.291179e+02
1.140000e-06	-3.693180e-06	-3.498986e-09	-2.703994e+01	-2.282413e+02
1.150000e-06	-3.647398e-06	-3.478396e-09	-2.670475e+01	-2.273342e+02
1.160000e-06	-3.601345e-06	-3.461775e-09	-2.636756e+01	-2.263949e+02
1.170000e-06	-3.555017e-06	-3.448234e-09	-2.602837e+01	-2.254221e+02
1.180000e-06	-3.508506e-06	-3.434503e-09	-2.568783e+01	-2.244145e+02
1.190000e-06	-3.461816e-06	-3.417959e-09	-2.534599e+01	-2.233712e+02
1.200000e-06	-3.414853e-06	-3.400496e-09	-2.500215e+01	-2.222915e+02
1.210000e-06	-3.367613e-06	-3.381192e-09	-2.465627e+01	-2.211749e+02
1.220000e-06	-3.320201e-06	-3.362936e-09	-2.430914e+01	-2.200214e+02
1.230000e-06	-3.272623e-06	-3.342350e-09	-2.396080e+01	-2.188310e+02
1.240000e-06	-3.224838e-06	-3.321775e-09	-2.361094e+01	-2.176042e+02
1.250000e-06	-3.176898e-06	-3.302801e-09	-2.325994e+01	-2.163415e+02
1.260000e-06	-3.128793e-06	-3.285442e-09	-2.290773e+01	-2.150438e+02
1.270000e-06	-3.080426e-06	-3.266829e-09	-2.255361e+01	-2.137124e+02
1.280000e-06	-3.031728e-06	-3.245943e-09	-2.219706e+01	-2.123484e+02
1.290000e-06	-2.982698e-06	-3.224448e-09	-2.183809e+01	-2.109534e+02
1.300000e-06	-2.933324e-06	-3.204732e-09	-2.147659e+01	-2.095290e+02
1.310000e-06	-2.883599e-06	-3.184610e-09	-2.111252e+01	-2.080772e+02
1.320000e-06	-2.833575e-06	-3.161534e-09	-2.074627e+01	-2.065996e+02
1.330000e-06	-2.783270e-06	-3.136471e-09	-2.037796e+01	-2.050983e+02
1.340000e-06	-2.732588e-06	-3.112726e-09	-2.000688e+01	-2.035753e+02
1.350000e-06	-2.681605e-06	-3.092468e-09	-1.963361e+01	-2.020324e+02
1.360000e-06	-2.630363e-06	-3.070098e-09	-1.925843e+01	-2.004715e+02
1.370000e-06	-2.578846e-06	-3.045729e-09	-1.888125e+01	-1.988944e+02
1.380000e-06	-2.527217e-06	-3.022239e-09	-1.850324e+01	-1.973027e+02
1.390000e-06	-2.475453e-06	-3.001520e-09	-1.812425e+01	-1.956978e+02
1.400000e-06	-2.423464e-06	-2.977320e-09	-1.774360e+01	-1.940808e+02
1.410000e-06	-2.371330e-06	-2.949817e-09	-1.736190e+01	-1.924527e+02
1.420000e-06	-2.319060e-06	-2.922399e-09	-1.697920e+01	-1.908141e+02
1.430000e-06	-2.266643e-06	-2.896028e-09	-1.659542e+01	-1.891652e+02
1.440000e-06	-2.214055e-06	-2.868364e-09	-1.621039e+01	-1.875059e+02
1.450000e-06	-2.161302e-06	-2.840215e-09	-1.582416e+01	-1.858355e+02
1.460000e-06	-2.108389e-06	-2.811388e-09	-1.543675e+01	-1.841532e+02
1.470000e-06	-2.055319e-06	-2.783861e-09	-1.504820e+01	-1.824575e+02
1.480000e-06	-2.002133e-06	-2.755989e-09	-1.465879e+01	-1.807465e+02
1.490000e-06	-1.948783e-06	-2.724983e-09	-1.426818e+01	-1.790178e+02
1.500000e-06	-1.895242e-06	-2.692724e-09	-1.387618e+01	-1.772685e+02
1.510000e-06	-1.841635e-06	-2.659558e-09	-1.348369e+01	-1.754952e+02
1.520000e-06	-1.787927e-06	-2.628238e-09	-1.309046e+01	-1.736940e+02
1.530000e-06	-1.734010e-06	-2.595097e-09	-1.269571e+01	-1.718607e+02
1.540000e-06	-1.680000e-06	-2.561785e-09	-1.230027e+01	-1.699905e+02
1.550000e-06	-1.625867e-06	-2.532677e-09	-1.190393e+01	-1.680781e+02
1.560000e-06	-1.571638e-06	-2.504129e-09	-1.150689e+01	-1.661179e+02
1.570000e-06	-1.517379e-06	-2.471713e-09	-1.110962e+01	-1.641039e+02
1.580000e-06	-1.463012e-06	-2.433177e-09	-1.071157e+01	-1.620298e+02
1.590000e-06	-1.408496e-06	-2.394265e-09	-1.031242e+01	-1.598891e+02
1.600000e-06	-1.353876e-06	-2.354583e-09	-9.912518e+00	-1.576748e+02
1.610000e-06	-1.299183e-06	-2.311120e-09	-9.512083e+00	-1.553800e+02
1.620000e-06	-1.244393e-06	-2.265968e-09	-9.110929e+00	-1.529975e+02
1.630000e-06	-1.189500e-06	-2.222603e-09	-8.709026e+00	-1.505202e+02
1.640000e-06	-1.134560e-06	-2.183956e-09	-8.306777e+00	-1.479408e+02
1.650000e-06	-1.079500e-06	-2.145118e-09	-7.903655e+00	-1.452523e+02
1.660000e-06	-1.024286e-06	-2.102691e-09	-7.499397e+00	-1.424477e+02
1.670000e-06	-9.690109e-07	-2.058566e-09	-7.094697e+00	-1.395203e+02
1.680000e-06	-9.136906e-07	-2.012765e-09	-6.689665e+00	-1.364635e+02
1.690000e-06	-8.583736e-07	-1.962632e-09	-6.284657e+00	-1.332712e+02
1.700000e-06	-8.030457e-07	-1.908169e-09	-5.879569e+00	-1.299377e+02
1.710000e-06	-7.476451e-07	-1.852814e-09	-5.473949e+00	-1.264578e+02
1.720000e-06	-6.921989e-07	-1.797026e-09	-5.067995e+00	-1.228268e+02
1.730000e-06	-6.367636e-07	-1.740314e-09	-4.662120e+00	-1.190407e+02
1.740000e-06	-5.812687e-07	-1.682121e-09	-4.255810e+00	-1.150960e+02
1.750000e-06	-5.257652e-07	-1.622181e-09	-3.849436e+00	-1.109900e+02
1.760000e-06	-4.702567e-07	-1.561139e-09	-3.443025e+00	-1.067208e+02
1.770000e-06	-4.146860e-07	-1.498017e-09	-3.036159e+00	-1.022874e+02
1.780000e-06	-3.591473e-07	-1.429645e-09	-2.629528e+00	-9.768935e+01
1.790000e-06	-3.036024e-07	-1.355908e-09	-2.222852e+00	-9.292735e+01
1.800000e-06	-2.480316e-07	-1.282419e-09	-1.815985e+00	-8.800285e+01
1.810000e-06	-1.924418e-07	-1.207073e-09	-1.408979e+00	-8.291828e+01
1.820000e-06	-1.368588e-07	-1.130079e-09	-1.002023e+00	-7.767695e+01
1.830000e-06	-8.130947e-08	-1.052534e-09	-5.953144e-01	-7.228309e+01
1.840000e-06	-2.574303e-08	-9.728306e-10	-1.884798e-01	-6.674185e+01
1.850000e-06	2.982563e-08	-8.917811e-10	2.183709e-01	-6.105929e+01
1.860000e-06	8.537565e-08	-8.075602e-10	6.250852e-01	-5.524230e+01
1.870000e-06	1.409200e-07	-7.190660e-10	1.031758e+00	-4.929866e+01
1.880000e-06	1.965000e-07	-6.257316e-10	1.438692e+00	-4.323693e+01
1.890000e-06	2.521089e-07	-5.312954e-10	1.845837e+00	-3.706643e+01
1.900000e-06	3.076873e-07	-4.343406e-10	2.252759e+00	-3.079719e+01
1.910000e-06	3.632245e-07	-3.358121e-10	2.659380e+00	-2.443990e+01
1.920000e-06	4.187391e-07	-2.356997e-10	3.065835e+00	-1.800582e+01
1.930000e-06	4.742500e-07	-1.329697e-10	3.472263e+00	-1.150676e+01
1.940000e-06	5.297279e-07	-2.992789e-11	3.878449e+00	-4.954944e+00
1.950000e-06	5.851438e-07	7.187971e-11	4.284182e+00	1.637020e+00
1.960000e-06	6.405764e-07	1.735864e-10	4.690036e+00	8.256237e+00
1.970000e-06	6.959926e-07	2.778946e-10	5.095771e+00	1.488961e+01
1.980000e-06	7.512875e-07	3.836426e-10	5.500617e+00	2.152391e+01
1.990000e-06	8.065132e-07	4.892940e-10	5.904956e+00	2.814590e+01
2.000000e-06	8.617254e-07	5.949676e-10	6.309198e+00	3.474238e+01
2.010000e-06	9.169364e-07	6.994478e-10	6.713430e+00	4.130028e+01
2.020000e-06	9.720809e-07	8.031957e-10	7.117175e+00	4.780677e+01
2.030000e-06	1.027140e-06	9.070130e-10	7.520297e+00	5.424932e+01
2.040000e-06	1.082148e-06	1.007883e-09	7.923039e+00	6.061580e+01
2.050000e-06	1.137106e-06	1.103968e-09	8.325423e+00	6.689453e+01
2.060000e-06	1.192037e-06	1.195885e-09	8.727605e+00	7.307437e+01
2.070000e-06	1.246839e-06	1.288118e-09	9.128843e+00	7.914479e+01
2.080000e-06	1.301554e-06	1.379687e-09	9.529438e+00	8.509594e+01
2.090000e-06	1.356181e-06	1.467160e-09	9.929396e+00	9.091868e+01
2.100000e-06	1.410702e-06	1.550674e-09	1.032858e+01	9.660464e+01
2.110000e-06	1.465213e-06	1.632887e-09	1.072769e+01	1.021463e+02
2.120000e-06	1.519524e-06	1.715575e-09	1.112533e+01	1.075369e+02
2.130000e-06	1.573652e-06	1.792310e-09	1.152163e+01	1.127708e+02
2.140000e-06	1.627707e-06	1.861158e-09	1.191740e+01	1.178430e+02
2.150000e-06	1.681684e-06	1.929325e-09	1.231260e+01	1.227496e+02
2.160000e-06	1.735582e-06	1.997510e-09	1.270722e+01	1.274875e+02
2.170000e-06	1.789317e-06	2.063032e-09	1.310064e+01	1.320547e+02
2.180000e-06	1.842913e-06	2.124856e-09	1.349305e+01	1.364499e+02
2.190000e-06	1.896402e-06	2.185731e-09	1.388468e+01	1.406728e+02
2.200000e-06	1.949759e-06	2.246839e-09	1.427533e+01	1.447242e+02
2.210000e-06	2.002962e-06	2.303038e-09	1.466486e+01	1.486054e+02
2.220000e-06	2.056008e-06	2.352897e-09	1.505324e+01	1.523187e+02
2.230000e-06	2.108920e-06	2.400398e-09	1.544064e+01	1.558671e+02
2.240000e-06	2.161661e-06	2.446548e-09	1.582679e+01	1.592545e+02
2.250000e-06	2.214238e-06	2.489724e-09	1.621174e+01	1.624852e+02
2.260000e-06	2.266590e-06	2.530469e-09	1.659504e+01	1.655642e+02
2.270000e-06	2.318736e-06	2.569958e-09	1.697683e+01	1.684972e+02
2.280000e-06	2.370764e-06	2.609830e-09	1.735775e+01	1.712903e+02
2.290000e-06	2.422609e-06	2.648972e-09	1.773734e+01	1.739499e+02
2.300000e-06	2.474308e-06	2.685234e-09	1.811586e+01	1.764829e+02
2.310000e-06	2.525799e-06	2.719841e-09	1.849286e+01	1.788965e+02
2.320000e-06	2.577018e-06	2.753070e-09	1.886786e+01	1.811978e+02
2.330000e-06	2.628031e-06	2.786155e-09	1.924136e+01	1.833945e+02
2.340000e-06	2.678856e-06	2.817759e-09	1.961348e+01	1.854941e+02
2.350000e-06	2.729385e-06	2.846407e-09	1.998343e+01	1.875040e+02
2.360000e-06	2.779580e-06	2.874073e-09	2.035093e+01	1.894318e+02
2.370000e-06	2.829493e-06	2.903268e-09	2.071638e+01	1.912849e+02
2.380000e-06	2.878994e-06	2.932808e-09	2.107881e+01	1.930703e+02
2.390000e-06	2.928188e-06	2.960226e-09	2.143898e+01	1.947951e+02
2.400000e-06	2.977210e-06	2.988207e-09	2.179790e+01	1.964658e+02
2.410000e-06	3.025930e-06	3.017701e-09	2.215461e+01	1.980888e+02
2.420000e-06	3.074310e-06	3.046330e-09	2.250883e+01	1.996699e+02
2.430000e-06	3.122419e-06	3.071280e-09	2.286107e+01	2.012147e+02
2.440000e-06	3.170333e-06	3.093656e-09	2.321187e+01	2.027281e+02
2.450000e-06	3.218098e-06	3.117274e-09	2.356159e+01	2.042149e+02
2.460000e-06	3.265691e-06	3.141830e-09	2.391004e+01	2.056791e+02
2.470000e-06	3.313097e-06	3.164220e-09	2.425713e+01	2.071243e+02
2.480000e-06	3.360364e-06	3.185394e-09	2.460320e+01	2.085535e+02
2.490000e-06	3.407435e-06	3.206698e-09	2.494784e+01	2.099695e+02
2.500000e-06	3.454278e-06	3.229021e-09	2.529080e+01	2.113742e+02
2.510000e-06	3.500840e-06	3.252410e-09	2.563171e+01	2.127693e+02
2.520000e-06	3.547088e-06	3.274634e-09	2.597031e+01	2.141559e+02
2.530000e-06	3.593070e-06	3.294062e-09	2.630697e+01	2.155347e+02
2.540000e-06	3.638787e-06	3.309517e-09	2.664170e+01	2.169059e+02
2.550000e-06	3.684259e-06	3.326797e-09	2.697462e+01	2.182692e+02
2.560000e-06	3.729516e-06	3.344533e-09	2.730598e+01	2.196243e+02
2.570000e-06	3.774516e-06	3.362327e-09	2.763545e+01	2.209703e+02
2.580000e-06	3.819257e-06	3.381032e-09	2.796302e+01	2.223059e+02
2.590000e-06	3.863771e-06	3.400377e-09	2.828893e+01	2.236297e+02
2.600000e-06	3.908053e-06	3.419274e-09	2.861315e+01	2.249401e+02
2.610000e-06	3.952116e-06	3.437728e-09	2.893576e+01	2.262354e+02
2.620000e-06	3.995974e-06	3.455549e-09	2.925687e+01	2.275135e+02
2.630000e-06	4.039621e-06	3.471282e-09	2.957644e+01	2.287725e+02
2.640000e-06	4.083051e-06	3.485654e-09	2.989441e+01	2.300102e+02
2.650000e-06	4.126247e-06	3.500759e-09	3.021068e+01	2.312246e+02
2.660000e-06	4.169142e-06	3.517227e-09	3.052474e+01	2.324137e+02
2.670000e-06	4.211575e-06	3.534281e-09	3.083541e+01	2.335755e+02
2.680000e-06	4.253431e-06	3.551869e-09	3.114186e+01	2.347081e+02
2.690000e-06	4.294824e-06	3.568622e-09	3.144493e+01	2.358099e+02
2.700000e-06	4.335846e-06	3.584246e-09	3.174527e+01	2.368792e+02
2.710000e-06	4.376426e-06	3.599322e-09	3.204239e+01	2.379148e+02
2.720000e-06	4.416657e-06	3.613051e-09	3.233694e+01	2.389155e+02
2.730000e-06	4.456672e-06	3.624106e-09	3.262991e+01	2.398804e+02
2.740000e-06	4.496435e-06	3.635680e-09	3.292104e+01	2.408089e+02
2.750000e-06	4.535987e-06	3.646444e-09	3.321062e+01	2.417006e+02
2.760000e-06	4.575332e-06	3.657823e-09	3.349869e+01	2.425553e+02
2.770000e-06	4.614349e-06	3.670772e-09	3.378436e+01	2.433732e+02
2.780000e-06	4.653010e-06	3.683987e-09	3.406742e+01	2.441548e+02
2.790000e-06	4.691320e-06	3.696487e-09	3.434791e+01	2.449007e+02
2.800000e-06	4.729261e-06	3.709528e-09	3.462570e+01	2.456119e+02
2.810000e-06	4.766890e-06	3.723249e-09	3.490120e+01	2.462895e+02
2.820000e-06	4.804246e-06	3.736104e-09	3.517471e+01	2.469348e+02
2.830000e-06	4.841266e-06	3.746450e-09	3.544575e+01	2.475496e+02
2.840000e-06	4.877967e-06	3.757435e-09	3.571446e+01	2.481356e+02
2.850000e-06	4.914419e-06	3.768278e-09	3.598134e+01	2.486948e+02
2.860000e-06	4.950557e-06	3.777336e-09	3.624594e+01	2.492291e+02
2.870000e-06	4.986446e-06	3.786190e-09	3.650870e+01	2.497408e+02
2.880000e-06	5.022133e-06	3.796363e-09	3.676998e+01	2.502322e+02
2.890000e-06	5.057507e-06	3.807446e-09	3.702898e+01	2.507055e+02
2.900000e-06	5.092518e-06	3.818957e-09	3.728532e+01	2.511631e+02
