# Temperatura_=_20.0
# Concentracion g/m^3_=_9000.0
# C_Vs_to_Am_M_A/Vsm_=_65563218390.804596
# pendiente_HvsI_1/m_=_3716.3
# ordenada_HvsI_A/m_=_1297.0
# frecuencia_Hz_=_135334.7857075215

Tiempo_(s)	Campo_(V.s)	Magnetizacion_(V.s)	Campo_(kA/m)	Magnetizacion_(A/m)
0.000000e+00	-6.565734e-06	-4.068626e-09	-4.773192e+01	-2.746560e+02
1.000000e-08	-6.566069e-06	-4.064656e-09	-4.773436e+01	-2.747443e+02
2.000000e-08	-6.566074e-06	-4.061950e-09	-4.773439e+01	-2.748230e+02
3.000000e-08	-6.565671e-06	-4.060940e-09	-4.773146e+01	-2.748907e+02
4.000000e-08	-6.564709e-06	-4.055567e-09	-4.772447e+01	-2.749463e+02
5.000000e-08	-6.563145e-06	-4.050590e-09	-4.771310e+01	-2.749885e+02
6.000000e-08	-6.560899e-06	-4.049069e-09	-4.769677e+01	-2.750164e+02
7.000000e-08	-6.558064e-06	-4.045836e-09	-4.767616e+01	-2.750289e+02
8.000000e-08	-6.554833e-06	-4.044900e-09	-4.765267e+01	-2.750252e+02
9.000000e-08	-6.551138e-06	-4.061612e-09	-4.762581e+01	-2.750047e+02
1.000000e-07	-6.546922e-06	-4.080308e-09	-4.759516e+01	-2.749667e+02
1.100000e-07	-6.542144e-06	-4.050542e-09	-4.756042e+01	-2.749109e+02
1.200000e-07	-6.536746e-06	-3.984464e-09	-4.752118e+01	-2.748370e+02
1.300000e-07	-6.530899e-06	-3.993653e-09	-4.747868e+01	-2.747450e+02
1.400000e-07	-6.524778e-06	-4.121960e-09	-4.743417e+01	-2.746349e+02
1.500000e-07	-6.518312e-06	-4.129239e-09	-4.738717e+01	-2.745072e+02
1.600000e-07	-6.511394e-06	-3.978570e-09	-4.733688e+01	-2.743621e+02
1.700000e-07	-6.504079e-06	-3.952545e-09	-4.728370e+01	-2.742003e+02
1.800000e-07	-6.496357e-06	-4.113289e-09	-4.722756e+01	-2.740225e+02
1.900000e-07	-6.488237e-06	-4.209538e-09	-4.716853e+01	-2.738297e+02
2.000000e-07	-6.479919e-06	-4.139509e-09	-4.710806e+01	-2.736229e+02
2.100000e-07	-6.471164e-06	-4.054474e-09	-4.704441e+01	-2.734032e+02
2.200000e-07	-6.461597e-06	-4.072051e-09	-4.697486e+01	-2.731719e+02
2.300000e-07	-6.451255e-06	-4.178856e-09	-4.689968e+01	-2.729303e+02
2.400000e-07	-6.440375e-06	-4.232676e-09	-4.682058e+01	-2.726799e+02
2.500000e-07	-6.429005e-06	-4.129571e-09	-4.673792e+01	-2.724222e+02
2.600000e-07	-6.417025e-06	-4.028114e-09	-4.665083e+01	-2.721586e+02
2.700000e-07	-6.404507e-06	-4.082376e-09	-4.655983e+01	-2.718907e+02
2.800000e-07	-6.391553e-06	-4.179274e-09	-4.646565e+01	-2.716199e+02
2.900000e-07	-6.378054e-06	-4.152971e-09	-4.636751e+01	-2.713478e+02
3.000000e-07	-6.363830e-06	-4.092369e-09	-4.626411e+01	-2.710758e+02
3.100000e-07	-6.349066e-06	-4.181951e-09	-4.615678e+01	-2.708052e+02
3.200000e-07	-6.333770e-06	-4.276153e-09	-4.604558e+01	-2.705373e+02
3.300000e-07	-6.317799e-06	-4.214543e-09	-4.592947e+01	-2.702733e+02
3.400000e-07	-6.301335e-06	-4.180546e-09	-4.580978e+01	-2.700143e+02
3.500000e-07	-6.284452e-06	-4.245427e-09	-4.568704e+01	-2.697610e+02
3.600000e-07	-6.267122e-06	-4.209659e-09	-4.556105e+01	-2.695143e+02
3.700000e-07	-6.249467e-06	-4.178353e-09	-4.543271e+01	-2.692748e+02
3.800000e-07	-6.231436e-06	-4.227274e-09	-4.530162e+01	-2.690428e+02
3.900000e-07	-6.212907e-06	-4.183202e-09	-4.516692e+01	-2.688186e+02
4.000000e-07	-6.193960e-06	-4.115589e-09	-4.502918e+01	-2.686022e+02
4.100000e-07	-6.174649e-06	-4.240377e-09	-4.488879e+01	-2.683936e+02
4.200000e-07	-6.155016e-06	-4.315807e-09	-4.474606e+01	-2.681923e+02
4.300000e-07	-6.135031e-06	-4.166855e-09	-4.460078e+01	-2.679978e+02
4.400000e-07	-6.114654e-06	-4.132948e-09	-4.445263e+01	-2.678095e+02
4.500000e-07	-6.093873e-06	-4.297630e-09	-4.430156e+01	-2.676264e+02
4.600000e-07	-6.072722e-06	-4.315986e-09	-4.414779e+01	-2.674476e+02
4.700000e-07	-6.051258e-06	-4.168417e-09	-4.399176e+01	-2.672719e+02
4.800000e-07	-6.029353e-06	-4.157776e-09	-4.383251e+01	-2.670979e+02
4.900000e-07	-6.006990e-06	-4.268130e-09	-4.366993e+01	-2.669243e+02
5.000000e-07	-5.984272e-06	-4.266316e-09	-4.350477e+01	-2.667494e+02
5.100000e-07	-5.961134e-06	-4.178061e-09	-4.333656e+01	-2.665717e+02
5.200000e-07	-5.937607e-06	-4.182333e-09	-4.316553e+01	-2.663894e+02
5.300000e-07	-5.913773e-06	-4.225536e-09	-4.299226e+01	-2.662009e+02
5.400000e-07	-5.889561e-06	-4.214331e-09	-4.281624e+01	-2.660043e+02
5.500000e-07	-5.864800e-06	-4.194648e-09	-4.263623e+01	-2.657980e+02
5.600000e-07	-5.839430e-06	-4.186042e-09	-4.245180e+01	-2.655802e+02
5.700000e-07	-5.813488e-06	-4.155388e-09	-4.226320e+01	-2.653493e+02
5.800000e-07	-5.786986e-06	-4.165848e-09	-4.207054e+01	-2.651035e+02
5.900000e-07	-5.759956e-06	-4.201525e-09	-4.187403e+01	-2.648415e+02
6.000000e-07	-5.732526e-06	-4.164793e-09	-4.167462e+01	-2.645618e+02
6.100000e-07	-5.704791e-06	-4.108384e-09	-4.147299e+01	-2.642630e+02
6.200000e-07	-5.676738e-06	-4.136318e-09	-4.126905e+01	-2.639441e+02
6.300000e-07	-5.648351e-06	-4.172873e-09	-4.106268e+01	-2.636041e+02
6.400000e-07	-5.619686e-06	-4.131470e-09	-4.085429e+01	-2.632421e+02
6.500000e-07	-5.590622e-06	-4.080773e-09	-4.064300e+01	-2.628575e+02
6.600000e-07	-5.561106e-06	-4.092804e-09	-4.042842e+01	-2.624498e+02
6.700000e-07	-5.531254e-06	-4.120741e-09	-4.021140e+01	-2.620189e+02
6.800000e-07	-5.501011e-06	-4.098902e-09	-3.999154e+01	-2.615646e+02
6.900000e-07	-5.470340e-06	-4.061907e-09	-3.976856e+01	-2.610870e+02
7.000000e-07	-5.439328e-06	-4.063785e-09	-3.954312e+01	-2.605866e+02
7.100000e-07	-5.408025e-06	-4.080594e-09	-3.931555e+01	-2.600638e+02
7.200000e-07	-5.376424e-06	-4.069979e-09	-3.908581e+01	-2.595193e+02
7.300000e-07	-5.344469e-06	-4.048668e-09	-3.885350e+01	-2.589540e+02
7.400000e-07	-5.312201e-06	-4.035090e-09	-3.861892e+01	-2.583690e+02
7.500000e-07	-5.279605e-06	-4.025165e-09	-3.838195e+01	-2.577654e+02
7.600000e-07	-5.246558e-06	-4.023678e-09	-3.814170e+01	-2.571445e+02
7.700000e-07	-5.212946e-06	-4.023345e-09	-3.789735e+01	-2.565078e+02
7.800000e-07	-5.178715e-06	-3.998825e-09	-3.764849e+01	-2.558566e+02
7.900000e-07	-5.143970e-06	-3.980290e-09	-3.739590e+01	-2.551927e+02
8.000000e-07	-5.108826e-06	-3.992857e-09	-3.714041e+01	-2.545176e+02
8.100000e-07	-5.073369e-06	-3.994433e-09	-3.688265e+01	-2.538329e+02
8.200000e-07	-5.037611e-06	-3.961423e-09	-3.662269e+01	-2.531403e+02
8.300000e-07	-5.001540e-06	-3.941110e-09	-3.636046e+01	-2.524413e+02
8.400000e-07	-4.965184e-06	-3.948980e-09	-3.609616e+01	-2.517375e+02
8.500000e-07	-4.928504e-06	-3.945531e-09	-3.582950e+01	-2.510303e+02
8.600000e-07	-4.891437e-06	-3.917761e-09	-3.556003e+01	-2.503212e+02
8.700000e-07	-4.854001e-06	-3.898591e-09	-3.528788e+01	-2.496113e+02
8.800000e-07	-4.816225e-06	-3.897222e-09	-3.501324e+01	-2.489018e+02
8.900000e-07	-4.778166e-06	-3.894620e-09	-3.473657e+01	-2.481936e+02
9.000000e-07	-4.739768e-06	-3.879505e-09	-3.445742e+01	-2.474874e+02
9.100000e-07	-4.700990e-06	-3.861299e-09	-3.417551e+01	-2.467839e+02
9.200000e-07	-4.661922e-06	-3.851423e-09	-3.389149e+01	-2.460834e+02
9.300000e-07	-4.622666e-06	-3.842532e-09	-3.360610e+01	-2.453861e+02
9.400000e-07	-4.583239e-06	-3.829532e-09	-3.331947e+01	-2.446919e+02
9.500000e-07	-4.543620e-06	-3.810165e-09	-3.303145e+01	-2.440006e+02
9.600000e-07	-4.503696e-06	-3.789426e-09	-3.274121e+01	-2.433117e+02
9.700000e-07	-4.463385e-06	-3.773414e-09	-3.244815e+01	-2.426244e+02
9.800000e-07	-4.422638e-06	-3.764107e-09	-3.215193e+01	-2.419378e+02
9.900000e-07	-4.381419e-06	-3.752032e-09	-3.185227e+01	-2.412509e+02
1.000000e-06	-4.339719e-06	-3.733575e-09	-3.154912e+01	-2.405623e+02
1.010000e-06	-4.297595e-06	-3.722480e-09	-3.124288e+01	-2.398705e+02
1.020000e-06	-4.255053e-06	-3.718822e-09	-3.093361e+01	-2.391740e+02
1.030000e-06	-4.212170e-06	-3.704256e-09	-3.062186e+01	-2.384707e+02
1.040000e-06	-4.169059e-06	-3.680770e-09	-3.030845e+01	-2.377590e+02
1.050000e-06	-4.125636e-06	-3.662738e-09	-2.999277e+01	-2.370368e+02
1.060000e-06	-4.081933e-06	-3.652215e-09	-2.967505e+01	-2.363019e+02
1.070000e-06	-4.037972e-06	-3.636499e-09	-2.935546e+01	-2.355524e+02
1.080000e-06	-3.993738e-06	-3.616874e-09	-2.903389e+01	-2.347859e+02
1.090000e-06	-3.949213e-06	-3.604332e-09	-2.871020e+01	-2.340005e+02
1.100000e-06	-3.904475e-06	-3.598711e-09	-2.838496e+01	-2.331940e+02
1.110000e-06	-3.859502e-06	-3.588817e-09	-2.805801e+01	-2.323644e+02
1.120000e-06	-3.814215e-06	-3.570683e-09	-2.772878e+01	-2.315097e+02
1.130000e-06	-3.768712e-06	-3.549379e-09	-2.739798e+01	-2.306282e+02
1.140000e-06	-3.722969e-06	-3.531217e-09	-2.706544e+01	-2.297181e+02
1.150000e-06	-3.676871e-06	-3.516193e-09	-2.673031e+01	-2.287779e+02
1.160000e-06	-3.630507e-06	-3.496867e-09	-2.639325e+01	-2.278063e+02
1.170000e-06	-3.583924e-06	-3.474366e-09	-2.605460e+01	-2.268021e+02
1.180000e-06	-3.537141e-06	-3.456098e-09	-2.571449e+01	-2.257645e+02
1.190000e-06	-3.490130e-06	-3.444748e-09	-2.537273e+01	-2.246927e+02
1.200000e-06	-3.442816e-06	-3.432086e-09	-2.502877e+01	-2.235863e+02
1.210000e-06	-3.395358e-06	-3.414691e-09	-2.468375e+01	-2.224451e+02
1.220000e-06	-3.347787e-06	-3.394264e-09	-2.433792e+01	-2.212691e+02
1.230000e-06	-3.299961e-06	-3.376574e-09	-2.399023e+01	-2.200585e+02
1.240000e-06	-3.251807e-06	-3.359307e-09	-2.364015e+01	-2.188140e+02
1.250000e-06	-3.203391e-06	-3.336752e-09	-2.328818e+01	-2.175362e+02
1.260000e-06	-3.154720e-06	-3.312488e-09	-2.293435e+01	-2.162262e+02
1.270000e-06	-3.105619e-06	-3.290946e-09	-2.257739e+01	-2.148850e+02
1.280000e-06	-3.056197e-06	-3.271851e-09	-2.221810e+01	-2.135140e+02
1.290000e-06	-3.006607e-06	-3.251818e-09	-2.185759e+01	-2.121147e+02
1.300000e-06	-2.956660e-06	-3.230894e-09	-2.149448e+01	-2.106888e+02
1.310000e-06	-2.906445e-06	-3.210583e-09	-2.112943e+01	-2.092378e+02
1.320000e-06	-2.856019e-06	-3.191040e-09	-2.076284e+01	-2.077637e+02
1.330000e-06	-2.805274e-06	-3.169835e-09	-2.039393e+01	-2.062682e+02
1.340000e-06	-2.754168e-06	-3.144235e-09	-2.002239e+01	-2.047530e+02
1.350000e-06	-2.702759e-06	-3.117506e-09	-1.964866e+01	-2.032201e+02
1.360000e-06	-2.651163e-06	-3.093071e-09	-1.927357e+01	-2.016709e+02
1.370000e-06	-2.599364e-06	-3.070211e-09	-1.889699e+01	-2.001071e+02
1.380000e-06	-2.547378e-06	-3.046541e-09	-1.851906e+01	-1.985300e+02
1.390000e-06	-2.495252e-06	-3.023295e-09	-1.814011e+01	-1.969407e+02
1.400000e-06	-2.442975e-06	-3.000153e-09	-1.776007e+01	-1.953403e+02
1.410000e-06	-2.390476e-06	-2.975221e-09	-1.737841e+01	-1.937294e+02
1.420000e-06	-2.337744e-06	-2.950051e-09	-1.699505e+01	-1.921082e+02
1.430000e-06	-2.284869e-06	-2.924168e-09	-1.661066e+01	-1.904768e+02
1.440000e-06	-2.231834e-06	-2.895410e-09	-1.622511e+01	-1.888348e+02
1.450000e-06	-2.178616e-06	-2.864708e-09	-1.583822e+01	-1.871813e+02
1.460000e-06	-2.125356e-06	-2.834710e-09	-1.545102e+01	-1.855151e+02
1.470000e-06	-2.072028e-06	-2.806186e-09	-1.506334e+01	-1.838345e+02
1.480000e-06	-2.018515e-06	-2.779148e-09	-1.467431e+01	-1.821374e+02
1.490000e-06	-1.964850e-06	-2.750851e-09	-1.428417e+01	-1.804213e+02
1.500000e-06	-1.911059e-06	-2.720425e-09	-1.389312e+01	-1.786829e+02
1.510000e-06	-1.857119e-06	-2.691796e-09	-1.350098e+01	-1.769188e+02
1.520000e-06	-1.803067e-06	-2.663279e-09	-1.310803e+01	-1.751250e+02
1.530000e-06	-1.748860e-06	-2.631421e-09	-1.271395e+01	-1.732970e+02
1.540000e-06	-1.694447e-06	-2.595884e-09	-1.231838e+01	-1.714299e+02
1.550000e-06	-1.639864e-06	-2.561457e-09	-1.192157e+01	-1.695184e+02
1.560000e-06	-1.585147e-06	-2.526411e-09	-1.152378e+01	-1.675568e+02
1.570000e-06	-1.530401e-06	-2.490708e-09	-1.112579e+01	-1.655390e+02
1.580000e-06	-1.475546e-06	-2.453909e-09	-1.072701e+01	-1.634589e+02
1.590000e-06	-1.420498e-06	-2.415928e-09	-1.032681e+01	-1.613097e+02
1.600000e-06	-1.365461e-06	-2.377542e-09	-9.926701e+00	-1.590847e+02
1.610000e-06	-1.310400e-06	-2.339197e-09	-9.526415e+00	-1.567768e+02
1.620000e-06	-1.255182e-06	-2.298972e-09	-9.124992e+00	-1.543791e+02
1.630000e-06	-1.199899e-06	-2.256090e-09	-8.723086e+00	-1.518845e+02
1.640000e-06	-1.144586e-06	-2.214083e-09	-8.320973e+00	-1.492858e+02
1.650000e-06	-1.089199e-06	-2.172464e-09	-7.918316e+00	-1.465760e+02
1.660000e-06	-1.033741e-06	-2.128537e-09	-7.515144e+00	-1.437483e+02
1.670000e-06	-9.782405e-07	-2.080718e-09	-7.111664e+00	-1.407961e+02
1.680000e-06	-9.226955e-07	-2.032470e-09	-6.707860e+00	-1.377130e+02
1.690000e-06	-8.671548e-07	-1.982637e-09	-6.304088e+00	-1.344930e+02
1.700000e-06	-8.115882e-07	-1.932145e-09	-5.900127e+00	-1.311307e+02
1.710000e-06	-7.559617e-07	-1.880341e-09	-5.495730e+00	-1.276208e+02
1.720000e-06	-7.003694e-07	-1.825016e-09	-5.091583e+00	-1.239588e+02
1.730000e-06	-6.447714e-07	-1.765010e-09	-4.687393e+00	-1.201409e+02
1.740000e-06	-5.891290e-07	-1.703862e-09	-4.282881e+00	-1.161637e+02
1.750000e-06	-5.334178e-07	-1.642813e-09	-3.877869e+00	-1.120246e+02
1.760000e-06	-4.776721e-07	-1.579371e-09	-3.472606e+00	-1.077219e+02
1.770000e-06	-4.219644e-07	-1.514053e-09	-3.067619e+00	-1.032545e+02
1.780000e-06	-3.662366e-07	-1.447101e-09	-2.662486e+00	-9.862228e+01
1.790000e-06	-3.104927e-07	-1.377261e-09	-2.257236e+00	-9.382583e+01
1.800000e-06	-2.547321e-07	-1.307078e-09	-1.851865e+00	-8.886674e+01
1.810000e-06	-1.989347e-07	-1.234052e-09	-1.446226e+00	-8.374745e+01
1.820000e-06	-1.431251e-07	-1.155880e-09	-1.040498e+00	-7.847128e+01
1.830000e-06	-8.734909e-08	-1.075707e-09	-6.350150e-01	-7.304250e+01
1.840000e-06	-3.160362e-08	-9.946847e-10	-2.297536e-01	-6.746624e+01
1.850000e-06	2.413880e-08	-9.105895e-10	1.754856e-01	-6.174852e+01
1.860000e-06	7.985621e-08	-8.233243e-10	5.805429e-01	-5.589622e+01
1.870000e-06	1.355521e-07	-7.317949e-10	9.854437e-01	-4.991705e+01
1.880000e-06	1.913046e-07	-6.381869e-10	1.390756e+00	-4.381951e+01
1.890000e-06	2.471091e-07	-5.466030e-10	1.796447e+00	-3.761284e+01
1.900000e-06	3.028923e-07	-4.529054e-10	2.201982e+00	-3.130701e+01
1.910000e-06	3.586433e-07	-3.537584e-10	2.607284e+00	-2.491260e+01
1.920000e-06	4.143327e-07	-2.520030e-10	3.012137e+00	-1.844078e+01
1.930000e-06	4.700131e-07	-1.495772e-10	3.416926e+00	-1.190326e+01
1.940000e-06	5.257336e-07	-4.495363e-11	3.822006e+00	-5.312169e+00
1.950000e-06	5.814070e-07	5.888881e-11	4.226743e+00	1.319988e+00
1.960000e-06	6.370128e-07	1.626885e-10	4.630989e+00	7.980412e+00
1.970000e-06	6.925913e-07	2.687970e-10	5.035037e+00	1.465609e+01
1.980000e-06	7.481621e-07	3.750452e-10	5.439028e+00	2.133390e+01
1.990000e-06	8.037085e-07	4.801320e-10	5.842843e+00	2.800065e+01
2.000000e-06	8.591910e-07	5.846819e-10	6.246192e+00	3.464321e+01
2.010000e-06	9.146803e-07	6.892326e-10	6.649591e+00	4.124857e+01
2.020000e-06	9.701458e-07	7.942703e-10	7.052817e+00	4.780392e+01
2.030000e-06	1.025531e-06	8.987290e-10	7.455459e+00	5.429677e+01
2.040000e-06	1.080936e-06	1.000385e-09	7.858248e+00	6.071497e+01
2.050000e-06	1.136297e-06	1.097266e-09	8.260715e+00	6.704682e+01
2.060000e-06	1.191571e-06	1.191563e-09	8.662544e+00	7.328117e+01
2.070000e-06	1.246747e-06	1.283577e-09	9.063667e+00	7.940741e+01
2.080000e-06	1.301826e-06	1.372950e-09	9.464082e+00	8.541560e+01
2.090000e-06	1.356897e-06	1.460329e-09	9.864443e+00	9.129653e+01
2.100000e-06	1.411889e-06	1.544961e-09	1.026423e+01	9.704170e+01
2.110000e-06	1.466728e-06	1.626762e-09	1.066290e+01	1.026434e+02
2.120000e-06	1.521426e-06	1.706707e-09	1.106054e+01	1.080949e+02
2.130000e-06	1.575990e-06	1.784764e-09	1.145722e+01	1.133902e+02
2.140000e-06	1.630356e-06	1.858066e-09	1.185245e+01	1.185241e+02
2.150000e-06	1.684641e-06	1.928436e-09	1.224709e+01	1.234926e+02
2.160000e-06	1.738843e-06	1.998552e-09	1.264113e+01	1.282923e+02
2.170000e-06	1.792851e-06	2.065671e-09	1.303376e+01	1.329211e+02
2.180000e-06	1.846778e-06	2.129368e-09	1.342581e+01	1.373773e+02
2.190000e-06	1.900618e-06	2.190030e-09	1.381721e+01	1.416606e+02
2.200000e-06	1.954296e-06	2.247984e-09	1.420745e+01	1.457712e+02
2.210000e-06	2.007812e-06	2.303413e-09	1.459650e+01	1.497104e+02
2.220000e-06	2.061236e-06	2.355782e-09	1.498488e+01	1.534803e+02
2.230000e-06	2.114572e-06	2.405420e-09	1.537263e+01	1.570835e+02
2.240000e-06	2.167784e-06	2.453898e-09	1.575947e+01	1.605236e+02
2.250000e-06	2.220848e-06	2.501655e-09	1.614524e+01	1.638049e+02
2.260000e-06	2.273696e-06	2.544083e-09	1.652943e+01	1.669322e+02
2.270000e-06	2.326366e-06	2.581792e-09	1.691234e+01	1.699108e+02
2.280000e-06	2.378839e-06	2.620398e-09	1.729381e+01	1.727467e+02
2.290000e-06	2.431037e-06	2.659776e-09	1.767328e+01	1.754462e+02
2.300000e-06	2.483069e-06	2.695855e-09	1.805155e+01	1.780160e+02
2.310000e-06	2.535014e-06	2.730152e-09	1.842918e+01	1.804631e+02
2.320000e-06	2.586815e-06	2.764977e-09	1.880577e+01	1.827948e+02
2.330000e-06	2.638374e-06	2.799225e-09	1.918059e+01	1.850184e+02
2.340000e-06	2.689736e-06	2.831336e-09	1.955399e+01	1.871415e+02
2.350000e-06	2.740900e-06	2.861532e-09	1.992594e+01	1.891715e+02
2.360000e-06	2.791825e-06	2.890659e-09	2.029615e+01	1.911160e+02
2.370000e-06	2.842450e-06	2.919494e-09	2.066420e+01	1.929824e+02
2.380000e-06	2.892690e-06	2.949177e-09	2.102943e+01	1.947779e+02
2.390000e-06	2.942623e-06	2.977624e-09	2.139243e+01	1.965095e+02
2.400000e-06	2.992178e-06	3.003579e-09	2.175269e+01	1.981839e+02
2.410000e-06	3.041276e-06	3.030689e-09	2.210963e+01	1.998077e+02
2.420000e-06	3.089958e-06	3.057505e-09	2.246354e+01	2.013869e+02
2.430000e-06	3.138323e-06	3.082122e-09	2.281515e+01	2.029272e+02
2.440000e-06	3.186487e-06	3.105814e-09	2.316529e+01	2.044338e+02
2.450000e-06	3.234483e-06	3.128779e-09	2.351421e+01	2.059117e+02
2.460000e-06	3.282312e-06	3.152040e-09	2.386193e+01	2.073650e+02
2.470000e-06	3.329998e-06	3.175733e-09	2.420860e+01	2.087978e+02
2.480000e-06	3.377577e-06	3.198519e-09	2.455449e+01	2.102133e+02
2.490000e-06	3.424954e-06	3.219140e-09	2.489891e+01	2.116144e+02
2.500000e-06	3.472090e-06	3.240062e-09	2.524159e+01	2.130035e+02
2.510000e-06	3.518951e-06	3.261455e-09	2.558226e+01	2.143825e+02
2.520000e-06	3.565550e-06	3.283068e-09	2.592102e+01	2.157528e+02
2.530000e-06	3.611920e-06	3.302975e-09	2.625812e+01	2.171152e+02
2.540000e-06	3.657979e-06	3.320907e-09	2.659297e+01	2.184705e+02
2.550000e-06	3.703789e-06	3.339979e-09	2.692600e+01	2.198185e+02
2.560000e-06	3.749337e-06	3.359909e-09	2.725713e+01	2.211591e+02
2.570000e-06	3.794655e-06	3.379502e-09	2.758659e+01	2.224916e+02
2.580000e-06	3.839744e-06	3.398214e-09	2.791437e+01	2.238150e+02
2.590000e-06	3.884527e-06	3.416036e-09	2.823994e+01	2.251281e+02
2.600000e-06	3.929080e-06	3.431729e-09	2.856383e+01	2.264295e+02
2.610000e-06	3.973354e-06	3.447053e-09	2.888570e+01	2.277176e+02
2.620000e-06	4.017353e-06	3.464384e-09	2.920556e+01	2.289904e+02
2.630000e-06	4.061190e-06	3.482529e-09	2.952425e+01	2.302460e+02
2.640000e-06	4.104920e-06	3.499400e-09	2.984216e+01	2.314826e+02
2.650000e-06	4.148541e-06	3.514958e-09	3.015928e+01	2.326979e+02
2.660000e-06	4.191899e-06	3.533734e-09	3.047449e+01	2.338901e+02
2.670000e-06	4.234817e-06	3.552801e-09	3.078649e+01	2.350572e+02
2.680000e-06	4.277297e-06	3.567784e-09	3.109532e+01	2.361972e+02
2.690000e-06	4.319319e-06	3.582952e-09	3.140081e+01	2.373084e+02
2.700000e-06	4.360774e-06	3.598508e-09	3.170219e+01	2.383892e+02
2.710000e-06	4.401700e-06	3.614046e-09	3.199971e+01	2.394381e+02
2.720000e-06	4.442238e-06	3.628495e-09	3.229442e+01	2.404539e+02
2.730000e-06	4.482483e-06	3.639442e-09	3.258699e+01	2.414354e+02
2.740000e-06	4.522495e-06	3.651394e-09	3.287788e+01	2.423820e+02
2.750000e-06	4.562325e-06	3.665026e-09	3.316743e+01	2.432931e+02
2.760000e-06	4.601923e-06	3.677064e-09	3.345530e+01	2.441683e+02
2.770000e-06	4.641263e-06	3.689244e-09	3.374130e+01	2.450076e+02
2.780000e-06	4.680326e-06	3.703462e-09	3.402528e+01	2.458112e+02
2.790000e-06	4.718957e-06	3.716951e-09	3.430612e+01	2.465797e+02
2.800000e-06	4.757159e-06	3.728762e-09	3.458384e+01	2.473136e+02
2.810000e-06	4.795076e-06	3.741593e-09	3.485950e+01	2.480141e+02
2.820000e-06	4.832687e-06	3.753636e-09	3.513292e+01	2.486822e+02
2.830000e-06	4.870005e-06	3.764194e-09	3.540422e+01	2.493195e+02
2.840000e-06	4.907037e-06	3.776436e-09	3.567344e+01	2.499274e+02
2.850000e-06	4.943737e-06	3.790127e-09	3.594024e+01	2.505078e+02
2.860000e-06	4.980103e-06	3.801904e-09	3.620462e+01	2.510625e+02
2.870000e-06	5.016175e-06	3.812288e-09	3.646685e+01	2.515938e+02
2.880000e-06	5.052044e-06	3.822586e-09	3.672762e+01	2.521035e+02
2.890000e-06	5.087721e-06	3.833186e-09	3.698698e+01	2.525941e+02
2.900000e-06	5.123135e-06	3.843595e-09	3.724444e+01	2.530677e+02
