# Temperatura_=_20.0
# Concentracion g/m^3_=_9000.0
# C_Vs_to_Am_M_A/Vsm_=_65563218390.804596
# pendiente_HvsI_1/m_=_3716.3
# ordenada_HvsI_A/m_=_1297.0
# frecuencia_Hz_=_135336.21283904085

Tiempo_(s)	Campo_(V.s)	Magnetizacion_(V.s)	Campo_(kA/m)	Magnetizacion_(A/m)
0.000000e+00	-6.514971e-06	-1.593412e-10	-4.773307e+01	-1.713078e+00
1.000000e-08	-6.515222e-06	-1.596790e-10	-4.773490e+01	-1.755585e+00
2.000000e-08	-6.515261e-06	-1.611342e-10	-4.773519e+01	-1.808291e+00
3.000000e-08	-6.515068e-06	-1.652046e-10	-4.773378e+01	-1.871565e+00
4.000000e-08	-6.514332e-06	-1.661850e-10	-4.772839e+01	-1.945714e+00
5.000000e-08	-6.512868e-06	-1.647412e-10	-4.771766e+01	-2.030973e+00
6.000000e-08	-6.510723e-06	-1.636602e-10	-4.770195e+01	-2.127502e+00
7.000000e-08	-6.507889e-06	-1.565853e-10	-4.768118e+01	-2.235390e+00
8.000000e-08	-6.504498e-06	-1.315465e-10	-4.765633e+01	-2.354648e+00
9.000000e-08	-6.500766e-06	-1.320912e-10	-4.762899e+01	-2.485209e+00
1.000000e-07	-6.496709e-06	-2.266291e-10	-4.759927e+01	-2.626929e+00
1.100000e-07	-6.491967e-06	-3.149060e-10	-4.756452e+01	-2.779588e+00
1.200000e-07	-6.486485e-06	-2.068181e-10	-4.752436e+01	-2.942890e+00
1.300000e-07	-6.480665e-06	2.273077e-11	-4.748172e+01	-3.116467e+00
1.400000e-07	-6.474681e-06	-2.794541e-11	-4.743788e+01	-3.299878e+00
1.500000e-07	-6.468376e-06	-3.328583e-10	-4.739168e+01	-3.492615e+00
1.600000e-07	-6.461524e-06	-3.740743e-10	-4.734148e+01	-3.694106e+00
1.700000e-07	-6.454211e-06	-1.014631e-10	-4.728790e+01	-3.903722e+00
1.800000e-07	-6.446566e-06	-4.823699e-11	-4.723189e+01	-4.120775e+00
1.900000e-07	-6.438520e-06	-1.920014e-10	-4.717293e+01	-4.344531e+00
2.000000e-07	-6.430240e-06	-3.610890e-10	-4.711227e+01	-4.574211e+00
2.100000e-07	-6.421794e-06	-3.041199e-10	-4.705039e+01	-4.808999e+00
2.200000e-07	-6.412697e-06	-1.816036e-10	-4.698374e+01	-5.048049e+00
2.300000e-07	-6.402492e-06	-9.952015e-11	-4.690897e+01	-5.290487e+00
2.400000e-07	-6.391643e-06	-2.839932e-10	-4.682949e+01	-5.535425e+00
2.500000e-07	-6.380481e-06	-4.072338e-10	-4.674770e+01	-5.781962e+00
2.600000e-07	-6.368642e-06	-1.761207e-10	-4.666096e+01	-6.029194e+00
2.700000e-07	-6.356087e-06	6.408630e-11	-4.656898e+01	-6.276220e+00
2.800000e-07	-6.343145e-06	-1.210348e-10	-4.647416e+01	-6.522148e+00
2.900000e-07	-6.329831e-06	-3.421635e-10	-4.637661e+01	-6.766102e+00
3.000000e-07	-6.315803e-06	-1.023462e-10	-4.627383e+01	-7.007229e+00
3.100000e-07	-6.301231e-06	1.253601e-10	-4.616706e+01	-7.244704e+00
3.200000e-07	-6.286225e-06	-7.300128e-11	-4.605712e+01	-7.477739e+00
3.300000e-07	-6.270306e-06	-1.878228e-10	-4.594049e+01	-7.705582e+00
3.400000e-07	-6.253664e-06	1.745549e-11	-4.581856e+01	-7.927529e+00
3.500000e-07	-6.236815e-06	2.047590e-11	-4.569511e+01	-8.142922e+00
3.600000e-07	-6.219639e-06	-1.548617e-11	-4.556927e+01	-8.351159e+00
3.700000e-07	-6.202040e-06	3.562944e-11	-4.544032e+01	-8.551693e+00
3.800000e-07	-6.184194e-06	-2.765402e-11	-4.530957e+01	-8.744035e+00
3.900000e-07	-6.166034e-06	-1.664917e-10	-4.517652e+01	-8.927760e+00
4.000000e-07	-6.147268e-06	6.530638e-11	-4.503903e+01	-9.102504e+00
4.100000e-07	-6.127970e-06	1.338870e-10	-4.489763e+01	-9.267968e+00
4.200000e-07	-6.108382e-06	-1.356625e-10	-4.475412e+01	-9.423917e+00
4.300000e-07	-6.088503e-06	-1.924330e-10	-4.460848e+01	-9.570181e+00
4.400000e-07	-6.068210e-06	1.083460e-10	-4.445980e+01	-9.706652e+00
4.500000e-07	-6.047602e-06	9.364401e-11	-4.430881e+01	-9.833287e+00
4.600000e-07	-6.026671e-06	-1.728086e-10	-4.415545e+01	-9.950100e+00
4.700000e-07	-6.005308e-06	-1.641099e-10	-4.399894e+01	-1.005716e+01
4.800000e-07	-5.983523e-06	9.308679e-11	-4.383932e+01	-1.015461e+01
4.900000e-07	-5.961439e-06	6.700527e-11	-4.367752e+01	-1.024262e+01
5.000000e-07	-5.938922e-06	-1.213121e-10	-4.351254e+01	-1.032141e+01
5.100000e-07	-5.915837e-06	-9.300376e-11	-4.334341e+01	-1.039127e+01
5.200000e-07	-5.892365e-06	3.096560e-11	-4.317144e+01	-1.045250e+01
5.300000e-07	-5.868644e-06	-4.762955e-13	-4.299764e+01	-1.050546e+01
5.400000e-07	-5.844680e-06	-4.115777e-11	-4.282206e+01	-1.055051e+01
5.500000e-07	-5.820345e-06	-3.092493e-11	-4.264377e+01	-1.058807e+01
5.600000e-07	-5.795439e-06	-7.207324e-11	-4.246129e+01	-1.061856e+01
5.700000e-07	-5.769779e-06	-3.420413e-11	-4.227329e+01	-1.064241e+01
5.800000e-07	-5.743418e-06	4.532731e-11	-4.208015e+01	-1.066009e+01
5.900000e-07	-5.716554e-06	-2.638615e-11	-4.188333e+01	-1.067204e+01
6.000000e-07	-5.689281e-06	-1.288005e-10	-4.168351e+01	-1.067873e+01
6.100000e-07	-5.661625e-06	-2.573341e-11	-4.148088e+01	-1.068061e+01
6.200000e-07	-5.633714e-06	4.862216e-11	-4.127639e+01	-1.067812e+01
6.300000e-07	-5.605625e-06	-3.946285e-11	-4.107059e+01	-1.067171e+01
6.400000e-07	-5.577205e-06	-1.133645e-10	-4.086237e+01	-1.066179e+01
6.500000e-07	-5.548355e-06	-3.660602e-11	-4.065099e+01	-1.064876e+01
6.600000e-07	-5.519088e-06	1.559945e-11	-4.043656e+01	-1.063300e+01
6.700000e-07	-5.489406e-06	-2.020552e-11	-4.021908e+01	-1.061487e+01
6.800000e-07	-5.459410e-06	-8.226385e-11	-3.999931e+01	-1.059469e+01
6.900000e-07	-5.429097e-06	-5.318473e-11	-3.977722e+01	-1.057277e+01
7.000000e-07	-5.398296e-06	-1.374950e-11	-3.955156e+01	-1.054936e+01
7.100000e-07	-5.367105e-06	-2.296281e-11	-3.932303e+01	-1.052472e+01
7.200000e-07	-5.335670e-06	-6.110873e-11	-3.909271e+01	-1.049904e+01
7.300000e-07	-5.303909e-06	-5.833459e-11	-3.886001e+01	-1.047249e+01
7.400000e-07	-5.271945e-06	-5.061660e-11	-3.862582e+01	-1.044523e+01
7.500000e-07	-5.239698e-06	-3.053394e-11	-3.838956e+01	-1.041736e+01
7.600000e-07	-5.207017e-06	-2.979699e-11	-3.815012e+01	-1.038896e+01
7.700000e-07	-5.173844e-06	-6.413609e-11	-3.790707e+01	-1.036009e+01
7.800000e-07	-5.140109e-06	-7.695057e-11	-3.765990e+01	-1.033077e+01
7.900000e-07	-5.105760e-06	-3.125664e-11	-3.740824e+01	-1.030100e+01
8.000000e-07	-5.070853e-06	-2.537446e-11	-3.715249e+01	-1.027077e+01
8.100000e-07	-5.035499e-06	-7.839125e-11	-3.689346e+01	-1.024003e+01
8.200000e-07	-4.999810e-06	-8.430887e-11	-3.663198e+01	-1.020873e+01
8.300000e-07	-4.963950e-06	-3.916380e-11	-3.636924e+01	-1.017678e+01
8.400000e-07	-4.927879e-06	-3.255369e-11	-3.610496e+01	-1.014411e+01
8.500000e-07	-4.891505e-06	-7.250584e-11	-3.583846e+01	-1.011061e+01
8.600000e-07	-4.854763e-06	-7.875490e-11	-3.556927e+01	-1.007620e+01
8.700000e-07	-4.817666e-06	-5.241472e-11	-3.529747e+01	-1.004076e+01
8.800000e-07	-4.780257e-06	-3.812172e-11	-3.502339e+01	-1.000419e+01
8.900000e-07	-4.742468e-06	-5.988266e-11	-3.474652e+01	-9.966384e+00
9.000000e-07	-4.704334e-06	-7.269433e-11	-3.446712e+01	-9.927252e+00
9.100000e-07	-4.665866e-06	-6.676960e-11	-3.418528e+01	-9.886699e+00
9.200000e-07	-4.627081e-06	-4.838923e-11	-3.390112e+01	-9.844645e+00
9.300000e-07	-4.588086e-06	-5.200940e-11	-3.361541e+01	-9.801020e+00
9.400000e-07	-4.548788e-06	-6.186046e-11	-3.332749e+01	-9.755767e+00
9.500000e-07	-4.509141e-06	-6.571286e-11	-3.303700e+01	-9.708844e+00
9.600000e-07	-4.469299e-06	-4.863647e-11	-3.274509e+01	-9.660224e+00
9.700000e-07	-4.429310e-06	-4.052491e-11	-3.245211e+01	-9.609898e+00
9.800000e-07	-4.389038e-06	-5.044143e-11	-3.215705e+01	-9.557872e+00
9.900000e-07	-4.348411e-06	-6.640900e-11	-3.185939e+01	-9.504171e+00
1.000000e-06	-4.307447e-06	-5.676144e-11	-3.155926e+01	-9.448837e+00
1.010000e-06	-4.266055e-06	-4.486451e-11	-3.125599e+01	-9.391928e+00
1.020000e-06	-4.224225e-06	-5.187423e-11	-3.094952e+01	-9.333522e+00
1.030000e-06	-4.181934e-06	-6.565390e-11	-3.063967e+01	-9.273708e+00
1.040000e-06	-4.139165e-06	-5.701706e-11	-3.032631e+01	-9.212593e+00
1.050000e-06	-4.096019e-06	-4.245412e-11	-3.001020e+01	-9.150297e+00
1.060000e-06	-4.052566e-06	-4.383775e-11	-2.969183e+01	-9.086950e+00
1.070000e-06	-4.008852e-06	-5.250546e-11	-2.937155e+01	-9.022693e+00
1.080000e-06	-3.964882e-06	-5.236667e-11	-2.904940e+01	-8.957677e+00
1.090000e-06	-3.920717e-06	-4.713013e-11	-2.872581e+01	-8.892056e+00
1.100000e-06	-3.876372e-06	-5.126712e-11	-2.840091e+01	-8.825991e+00
1.110000e-06	-3.831736e-06	-5.613340e-11	-2.807388e+01	-8.759645e+00
1.120000e-06	-3.786804e-06	-5.759689e-11	-2.774468e+01	-8.693178e+00
1.130000e-06	-3.741634e-06	-5.543540e-11	-2.741373e+01	-8.626752e+00
1.140000e-06	-3.696155e-06	-5.454237e-11	-2.708052e+01	-8.560521e+00
1.150000e-06	-3.650405e-06	-5.187931e-11	-2.674533e+01	-8.494635e+00
1.160000e-06	-3.604484e-06	-5.257255e-11	-2.640888e+01	-8.429236e+00
1.170000e-06	-3.558319e-06	-5.087683e-11	-2.607064e+01	-8.364454e+00
1.180000e-06	-3.511921e-06	-4.961264e-11	-2.573070e+01	-8.300408e+00
1.190000e-06	-3.465380e-06	-4.842292e-11	-2.538971e+01	-8.237205e+00
1.200000e-06	-3.418517e-06	-5.345541e-11	-2.504636e+01	-8.174937e+00
1.210000e-06	-3.371303e-06	-5.499796e-11	-2.470044e+01	-8.113678e+00
1.220000e-06	-3.323946e-06	-5.312167e-11	-2.435347e+01	-8.053490e+00
1.230000e-06	-3.276337e-06	-4.955308e-11	-2.400466e+01	-7.994415e+00
1.240000e-06	-3.228491e-06	-5.074019e-11	-2.365410e+01	-7.936477e+00
1.250000e-06	-3.180486e-06	-5.341748e-11	-2.330239e+01	-7.879684e+00
1.260000e-06	-3.132236e-06	-5.232856e-11	-2.294887e+01	-7.824026e+00
1.270000e-06	-3.083809e-06	-5.037882e-11	-2.259406e+01	-7.769476e+00
1.280000e-06	-3.035106e-06	-5.132104e-11	-2.223723e+01	-7.715991e+00
1.290000e-06	-2.986116e-06	-5.178811e-11	-2.187830e+01	-7.663511e+00
1.300000e-06	-2.936860e-06	-5.370966e-11	-2.151742e+01	-7.611963e+00
1.310000e-06	-2.887274e-06	-5.633997e-11	-2.115412e+01	-7.561259e+00
1.320000e-06	-2.837359e-06	-5.698971e-11	-2.078840e+01	-7.511301e+00
1.330000e-06	-2.787041e-06	-5.640116e-11	-2.041974e+01	-7.461978e+00
1.340000e-06	-2.736412e-06	-5.755346e-11	-2.004880e+01	-7.413174e+00
1.350000e-06	-2.685496e-06	-5.860611e-11	-1.967575e+01	-7.364763e+00
1.360000e-06	-2.634278e-06	-5.725460e-11	-1.930050e+01	-7.316616e+00
1.370000e-06	-2.582884e-06	-5.695453e-11	-1.892395e+01	-7.268600e+00
1.380000e-06	-2.531313e-06	-5.888008e-11	-1.854611e+01	-7.220582e+00
1.390000e-06	-2.479600e-06	-6.249783e-11	-1.816722e+01	-7.172431e+00
1.400000e-06	-2.427717e-06	-6.353030e-11	-1.778709e+01	-7.124016e+00
1.410000e-06	-2.375616e-06	-6.438307e-11	-1.740537e+01	-7.075215e+00
1.420000e-06	-2.323331e-06	-6.565076e-11	-1.702229e+01	-7.025910e+00
1.430000e-06	-2.270876e-06	-6.467172e-11	-1.663797e+01	-6.975994e+00
1.440000e-06	-2.218369e-06	-6.162411e-11	-1.625327e+01	-6.925367e+00
1.450000e-06	-2.165723e-06	-5.924054e-11	-1.586754e+01	-6.873944e+00
1.460000e-06	-2.112870e-06	-5.736843e-11	-1.548031e+01	-6.821651e+00
1.470000e-06	-2.059868e-06	-5.646473e-11	-1.509198e+01	-6.768429e+00
1.480000e-06	-2.006677e-06	-5.610541e-11	-1.470227e+01	-6.714231e+00
1.490000e-06	-1.953301e-06	-5.520929e-11	-1.431120e+01	-6.659031e+00
1.500000e-06	-1.899768e-06	-5.161111e-11	-1.391898e+01	-6.602812e+00
1.510000e-06	-1.846103e-06	-4.987545e-11	-1.352580e+01	-6.545578e+00
1.520000e-06	-1.792370e-06	-5.123947e-11	-1.313211e+01	-6.487347e+00
1.530000e-06	-1.738518e-06	-5.180082e-11	-1.273755e+01	-6.428152e+00
1.540000e-06	-1.684487e-06	-4.742755e-11	-1.234169e+01	-6.368043e+00
1.550000e-06	-1.630382e-06	-4.470960e-11	-1.194528e+01	-6.307081e+00
1.560000e-06	-1.576252e-06	-4.461582e-11	-1.154868e+01	-6.245342e+00
1.570000e-06	-1.522006e-06	-4.396905e-11	-1.115124e+01	-6.182915e+00
1.580000e-06	-1.467594e-06	-4.110417e-11	-1.075258e+01	-6.119897e+00
1.590000e-06	-1.413116e-06	-3.983815e-11	-1.035344e+01	-6.056395e+00
1.600000e-06	-1.358592e-06	-4.047389e-11	-9.953961e+00	-5.992526e+00
1.610000e-06	-1.303981e-06	-4.105685e-11	-9.553844e+00	-5.928407e+00
1.620000e-06	-1.249233e-06	-4.029379e-11	-9.152722e+00	-5.864164e+00
1.630000e-06	-1.194360e-06	-3.876642e-11	-8.750689e+00	-5.799921e+00
1.640000e-06	-1.139365e-06	-4.017539e-11	-8.347753e+00	-5.735804e+00
1.650000e-06	-1.084265e-06	-4.204788e-11	-7.944053e+00	-5.671935e+00
1.660000e-06	-1.029146e-06	-4.221725e-11	-7.540221e+00	-5.608432e+00
1.670000e-06	-9.739972e-07	-3.983509e-11	-7.136160e+00	-5.545407e+00
1.680000e-06	-9.187653e-07	-3.972416e-11	-6.731493e+00	-5.482964e+00
1.690000e-06	-8.634839e-07	-3.957469e-11	-6.326465e+00	-5.421198e+00
1.700000e-06	-8.081633e-07	-3.732983e-11	-5.921149e+00	-5.360190e+00
1.710000e-06	-7.528040e-07	-3.605328e-11	-5.515550e+00	-5.300010e+00
1.720000e-06	-6.973990e-07	-3.815564e-11	-5.109615e+00	-5.240714e+00
1.730000e-06	-6.419581e-07	-3.823847e-11	-4.703417e+00	-5.182343e+00
1.740000e-06	-5.865344e-07	-3.701933e-11	-4.297347e+00	-5.124919e+00
1.750000e-06	-5.310721e-07	-3.688291e-11	-3.890992e+00	-5.068452e+00
1.760000e-06	-4.755063e-07	-3.951013e-11	-3.483880e+00	-5.012930e+00
1.770000e-06	-4.199292e-07	-4.263188e-11	-3.076684e+00	-4.958329e+00
1.780000e-06	-3.643562e-07	-4.280844e-11	-2.669519e+00	-4.904603e+00
1.790000e-06	-3.087276e-07	-4.024248e-11	-2.261946e+00	-4.851693e+00
1.800000e-06	-2.530927e-07	-3.989541e-11	-1.854327e+00	-4.799522e+00
1.810000e-06	-1.974425e-07	-4.176418e-11	-1.446597e+00	-4.747999e+00
1.820000e-06	-1.418268e-07	-4.132746e-11	-1.039119e+00	-4.697019e+00
1.830000e-06	-8.630640e-08	-3.970411e-11	-6.323389e-01	-4.646464e+00
1.840000e-06	-3.077377e-08	-3.876228e-11	-2.254694e-01	-4.596204e+00
1.850000e-06	2.481276e-08	-3.968814e-11	1.817950e-01	-4.546102e+00
1.860000e-06	8.041515e-08	-4.238958e-11	5.891756e-01	-4.496012e+00
1.870000e-06	1.359986e-07	-4.327606e-11	9.964175e-01	-4.445783e+00
1.880000e-06	1.915483e-07	-4.247834e-11	1.403412e+00	-4.395262e+00
1.890000e-06	2.471441e-07	-4.340749e-11	1.810744e+00	-4.344294e+00
1.900000e-06	3.027423e-07	-4.411104e-11	2.218094e+00	-4.292726e+00
1.910000e-06	3.583109e-07	-4.258722e-11	2.625227e+00	-4.240408e+00
1.920000e-06	4.139072e-07	-3.900001e-11	3.032563e+00	-4.187198e+00
1.930000e-06	4.694791e-07	-3.712434e-11	3.439720e+00	-4.132961e+00
1.940000e-06	5.249781e-07	-3.708407e-11	3.846343e+00	-4.077574e+00
1.950000e-06	5.804002e-07	-3.835019e-11	4.252403e+00	-4.020925e+00
1.960000e-06	6.357793e-07	-4.000160e-11	4.658148e+00	-3.962919e+00
1.970000e-06	6.911708e-07	-4.061331e-11	5.063983e+00	-3.903477e+00
1.980000e-06	7.465604e-07	-3.971464e-11	5.469805e+00	-3.842538e+00
1.990000e-06	8.018664e-07	-3.830800e-11	5.875014e+00	-3.780061e+00
2.000000e-06	8.571068e-07	-3.556552e-11	6.279742e+00	-3.716027e+00
2.010000e-06	9.123219e-07	-3.397110e-11	6.684285e+00	-3.650437e+00
2.020000e-06	9.674495e-07	-3.301327e-11	7.088187e+00	-3.583316e+00
2.030000e-06	1.022529e-06	-3.085386e-11	7.491739e+00	-3.514712e+00
2.040000e-06	1.077563e-06	-3.065316e-11	7.894954e+00	-3.444696e+00
2.050000e-06	1.132453e-06	-3.396915e-11	8.297114e+00	-3.373362e+00
2.060000e-06	1.187201e-06	-3.591156e-11	8.698236e+00	-3.300825e+00
2.070000e-06	1.241895e-06	-3.606084e-11	9.098961e+00	-3.227223e+00
2.080000e-06	1.296473e-06	-3.831159e-11	9.498838e+00	-3.152714e+00
2.090000e-06	1.350942e-06	-4.009366e-11	9.897912e+00	-3.077476e+00
2.100000e-06	1.405452e-06	-3.888768e-11	1.029729e+01	-3.001701e+00
2.110000e-06	1.459894e-06	-3.710065e-11	1.069617e+01	-2.925601e+00
2.120000e-06	1.514169e-06	-3.492711e-11	1.109382e+01	-2.849396e+00
2.130000e-06	1.568322e-06	-3.330458e-11	1.149059e+01	-2.773322e+00
2.140000e-06	1.622354e-06	-3.341700e-11	1.188646e+01	-2.697619e+00
2.150000e-06	1.676334e-06	-3.456963e-11	1.228195e+01	-2.622534e+00
2.160000e-06	1.730199e-06	-3.668245e-11	1.267661e+01	-2.548318e+00
2.170000e-06	1.783859e-06	-3.881739e-11	1.306975e+01	-2.475219e+00
2.180000e-06	1.837446e-06	-4.047027e-11	1.346237e+01	-2.403484e+00
2.190000e-06	1.890981e-06	-4.125703e-11	1.385460e+01	-2.333353e+00
2.200000e-06	1.944382e-06	-4.058642e-11	1.424585e+01	-2.265055e+00
2.210000e-06	1.997672e-06	-3.793608e-11	1.463629e+01	-2.198809e+00
2.220000e-06	2.050782e-06	-3.674895e-11	1.502541e+01	-2.134818e+00
2.230000e-06	2.103666e-06	-3.521838e-11	1.541287e+01	-2.073267e+00
2.240000e-06	2.156363e-06	-3.393844e-11	1.579897e+01	-2.014322e+00
2.250000e-06	2.208927e-06	-3.300435e-11	1.618409e+01	-1.958126e+00
2.260000e-06	2.261338e-06	-3.727472e-11	1.656809e+01	-1.904795e+00
2.270000e-06	2.313547e-06	-4.333587e-11	1.695061e+01	-1.854422e+00
2.280000e-06	2.365586e-06	-4.535101e-11	1.733188e+01	-1.807069e+00
2.290000e-06	2.417446e-06	-4.590830e-11	1.771184e+01	-1.762771e+00
2.300000e-06	2.469153e-06	-4.650554e-11	1.809068e+01	-1.721532e+00
2.310000e-06	2.520734e-06	-4.540294e-11	1.846860e+01	-1.683324e+00
2.320000e-06	2.572045e-06	-4.185707e-11	1.884454e+01	-1.648091e+00
2.330000e-06	2.623042e-06	-3.814832e-11	1.921817e+01	-1.615744e+00
2.340000e-06	2.673852e-06	-3.716750e-11	1.959044e+01	-1.586164e+00
2.350000e-06	2.724418e-06	-3.896513e-11	1.996092e+01	-1.559203e+00
2.360000e-06	2.774595e-06	-4.411605e-11	2.032855e+01	-1.534686e+00
2.370000e-06	2.824436e-06	-4.933892e-11	2.069372e+01	-1.512410e+00
2.380000e-06	2.874052e-06	-5.109325e-11	2.105724e+01	-1.492149e+00
2.390000e-06	2.923310e-06	-5.204791e-11	2.141814e+01	-1.473654e+00
2.400000e-06	2.972200e-06	-5.142552e-11	2.177634e+01	-1.456656e+00
2.410000e-06	3.020777e-06	-4.907344e-11	2.213224e+01	-1.440870e+00
2.420000e-06	3.069056e-06	-4.468587e-11	2.248597e+01	-1.425996e+00
2.430000e-06	3.117163e-06	-4.230278e-11	2.283843e+01	-1.411724e+00
2.440000e-06	3.165154e-06	-4.376277e-11	2.319005e+01	-1.397738e+00
2.450000e-06	3.213000e-06	-4.714708e-11	2.354061e+01	-1.383716e+00
2.460000e-06	3.260633e-06	-4.838950e-11	2.388960e+01	-1.369338e+00
2.470000e-06	3.308023e-06	-4.968638e-11	2.423681e+01	-1.354285e+00
2.480000e-06	3.355223e-06	-5.224940e-11	2.458263e+01	-1.338248e+00
2.490000e-06	3.402196e-06	-5.457702e-11	2.492678e+01	-1.320925e+00
2.500000e-06	3.448910e-06	-5.310899e-11	2.526904e+01	-1.302033e+00
2.510000e-06	3.495432e-06	-4.920679e-11	2.560989e+01	-1.281302e+00
2.520000e-06	3.541688e-06	-4.631915e-11	2.594879e+01	-1.258484e+00
2.530000e-06	3.587675e-06	-4.665425e-11	2.628573e+01	-1.233356e+00
2.540000e-06	3.633431e-06	-4.832462e-11	2.662096e+01	-1.205720e+00
2.550000e-06	3.678960e-06	-4.887214e-11	2.695454e+01	-1.175407e+00
2.560000e-06	3.724240e-06	-4.986767e-11	2.728629e+01	-1.142278e+00
2.570000e-06	3.769154e-06	-5.222895e-11	2.761536e+01	-1.106228e+00
2.580000e-06	3.813793e-06	-5.320487e-11	2.794242e+01	-1.067185e+00
2.590000e-06	3.858241e-06	-5.216240e-11	2.826807e+01	-1.025112e+00
2.600000e-06	3.902471e-06	-5.168606e-11	2.859213e+01	-9.800082e-01
2.610000e-06	3.946525e-06	-5.119761e-11	2.891490e+01	-9.319078e-01
2.620000e-06	3.990396e-06	-4.841544e-11	2.923633e+01	-8.808809e-01
2.630000e-06	4.034090e-06	-4.653761e-11	2.955646e+01	-8.270321e-01
2.640000e-06	4.077632e-06	-4.732405e-11	2.987548e+01	-7.705001e-01
2.650000e-06	4.120914e-06	-4.824628e-11	3.019259e+01	-7.114558e-01
2.660000e-06	4.163781e-06	-4.667173e-11	3.050667e+01	-6.501006e-01
2.670000e-06	4.206161e-06	-4.283512e-11	3.081717e+01	-5.866641e-01
2.680000e-06	4.247910e-06	-4.154521e-11	3.112305e+01	-5.214017e-01
2.690000e-06	4.289100e-06	-4.056716e-11	3.142484e+01	-4.545914e-01
2.700000e-06	4.329911e-06	-3.824246e-11	3.172385e+01	-3.865311e-01
2.710000e-06	4.370478e-06	-3.702845e-11	3.202107e+01	-3.175346e-01
2.720000e-06	4.410780e-06	-3.643388e-11	3.231635e+01	-2.479286e-01
2.730000e-06	4.450777e-06	-3.761785e-11	3.260939e+01	-1.780483e-01
2.740000e-06	4.490544e-06	-3.878467e-11	3.290075e+01	-1.082342e-01
2.750000e-06	4.530058e-06	-4.207637e-11	3.319026e+01	-3.882725e-02
2.760000e-06	4.569383e-06	-4.517248e-11	3.347838e+01	2.983440e-02
2.770000e-06	4.608502e-06	-4.696064e-11	3.376499e+01	9.741979e-02
2.780000e-06	4.647270e-06	-4.915452e-11	3.404903e+01	1.636090e-01
2.790000e-06	4.685609e-06	-4.791416e-11	3.432993e+01	2.280969e-01
2.800000e-06	4.723599e-06	-4.505836e-11	3.460827e+01	2.905969e-01
2.810000e-06	4.761282e-06	-4.171828e-11	3.488436e+01	3.508443e-01
2.820000e-06	4.798585e-06	-3.906964e-11	3.515767e+01	4.085994e-01
2.830000e-06	4.835524e-06	-3.727165e-11	3.542831e+01	4.636507e-01
2.840000e-06	4.872147e-06	-3.547579e-11	3.569663e+01	5.158171e-01
2.850000e-06	4.908452e-06	-3.573595e-11	3.596263e+01	5.649504e-01
2.860000e-06	4.944517e-06	-3.826931e-11	3.622686e+01	6.109368e-01
2.870000e-06	4.980440e-06	-3.972901e-11	3.649006e+01	6.536988e-01
2.880000e-06	5.016143e-06	-4.027671e-11	3.675164e+01	6.931956e-01
