# Temperatura_=_20.0
# Concentracion g/m^3_=_9000.0
# C_Vs_to_Am_M_A/Vsm_=_65563218390.804596
# pendiente_HvsI_1/m_=_3716.3
# ordenada_HvsI_A/m_=_1297.0
# frecuencia_Hz_=_135343.11260411542

Tiempo_(s)	Campo_(V.s)	Magnetizacion_(V.s)	Campo_(kA/m)	Magnetizacion_(A/m)
0.000000e+00	-6.494565e-06	-4.208115e-09	-4.772979e+01	-2.765509e+02
1.000000e-08	-6.494883e-06	-4.206677e-09	-4.773214e+01	-2.765974e+02
2.000000e-08	-6.494891e-06	-4.205142e-09	-4.773220e+01	-2.766243e+02
3.000000e-08	-6.494488e-06	-4.204761e-09	-4.772923e+01	-2.766299e+02
4.000000e-08	-6.493551e-06	-4.205859e-09	-4.772234e+01	-2.766123e+02
5.000000e-08	-6.491934e-06	-4.206729e-09	-4.771046e+01	-2.765699e+02
6.000000e-08	-6.489590e-06	-4.202873e-09	-4.769324e+01	-2.765014e+02
7.000000e-08	-6.486729e-06	-4.193025e-09	-4.767221e+01	-2.764054e+02
8.000000e-08	-6.483458e-06	-4.181309e-09	-4.764817e+01	-2.762808e+02
9.000000e-08	-6.479755e-06	-4.212498e-09	-4.762096e+01	-2.761269e+02
1.000000e-07	-6.475531e-06	-4.253379e-09	-4.758992e+01	-2.759430e+02
1.100000e-07	-6.470688e-06	-4.226149e-09	-4.755432e+01	-2.757287e+02
1.200000e-07	-6.465279e-06	-4.104478e-09	-4.751457e+01	-2.754838e+02
1.300000e-07	-6.459500e-06	-4.118301e-09	-4.747210e+01	-2.752085e+02
1.400000e-07	-6.453409e-06	-4.257478e-09	-4.742733e+01	-2.749031e+02
1.500000e-07	-6.446945e-06	-4.302740e-09	-4.737983e+01	-2.745683e+02
1.600000e-07	-6.440057e-06	-4.136128e-09	-4.732921e+01	-2.742049e+02
1.700000e-07	-6.432804e-06	-4.121510e-09	-4.727590e+01	-2.738140e+02
1.800000e-07	-6.425207e-06	-4.236073e-09	-4.722007e+01	-2.733971e+02
1.900000e-07	-6.417254e-06	-4.290570e-09	-4.716162e+01	-2.729556e+02
2.000000e-07	-6.408941e-06	-4.253434e-09	-4.710053e+01	-2.724914e+02
2.100000e-07	-6.400134e-06	-4.195837e-09	-4.703580e+01	-2.720065e+02
2.200000e-07	-6.390688e-06	-4.181138e-09	-4.696638e+01	-2.715030e+02
2.300000e-07	-6.380580e-06	-4.219808e-09	-4.689210e+01	-2.709832e+02
2.400000e-07	-6.369930e-06	-4.299789e-09	-4.681383e+01	-2.704495e+02
2.500000e-07	-6.358685e-06	-4.200442e-09	-4.673119e+01	-2.699045e+02
2.600000e-07	-6.346782e-06	-4.053900e-09	-4.664371e+01	-2.693508e+02
2.700000e-07	-6.334368e-06	-4.123331e-09	-4.655248e+01	-2.687909e+02
2.800000e-07	-6.321552e-06	-4.282482e-09	-4.645829e+01	-2.682276e+02
2.900000e-07	-6.308228e-06	-4.160296e-09	-4.636037e+01	-2.676634e+02
3.000000e-07	-6.294389e-06	-3.958482e-09	-4.625867e+01	-2.671009e+02
3.100000e-07	-6.280097e-06	-4.068957e-09	-4.615363e+01	-2.665427e+02
3.200000e-07	-6.265088e-06	-4.213362e-09	-4.604332e+01	-2.659911e+02
3.300000e-07	-6.249321e-06	-4.027002e-09	-4.592745e+01	-2.654485e+02
3.400000e-07	-6.233053e-06	-3.958209e-09	-4.580789e+01	-2.649169e+02
3.500000e-07	-6.216362e-06	-4.051399e-09	-4.568523e+01	-2.643982e+02
3.600000e-07	-6.199194e-06	-4.029399e-09	-4.555906e+01	-2.638943e+02
3.700000e-07	-6.181628e-06	-3.978645e-09	-4.542997e+01	-2.634066e+02
3.800000e-07	-6.163815e-06	-4.081173e-09	-4.529906e+01	-2.629364e+02
3.900000e-07	-6.145607e-06	-4.010820e-09	-4.516524e+01	-2.624848e+02
4.000000e-07	-6.126877e-06	-3.907642e-09	-4.502759e+01	-2.620525e+02
4.100000e-07	-6.107689e-06	-4.055270e-09	-4.488657e+01	-2.616401e+02
4.200000e-07	-6.088127e-06	-4.129647e-09	-4.474281e+01	-2.612478e+02
4.300000e-07	-6.068233e-06	-3.947120e-09	-4.459660e+01	-2.608756e+02
4.400000e-07	-6.048000e-06	-3.912894e-09	-4.444791e+01	-2.605231e+02
4.500000e-07	-6.027482e-06	-4.097213e-09	-4.429711e+01	-2.601898e+02
4.600000e-07	-6.006620e-06	-4.107010e-09	-4.414379e+01	-2.598748e+02
4.700000e-07	-5.985355e-06	-3.944135e-09	-4.398752e+01	-2.595772e+02
4.800000e-07	-5.963688e-06	-3.930060e-09	-4.382828e+01	-2.592955e+02
4.900000e-07	-5.941578e-06	-4.071192e-09	-4.366579e+01	-2.590283e+02
5.000000e-07	-5.919012e-06	-4.063216e-09	-4.349995e+01	-2.587739e+02
5.100000e-07	-5.896039e-06	-3.948084e-09	-4.333112e+01	-2.585304e+02
5.200000e-07	-5.872755e-06	-3.944774e-09	-4.316000e+01	-2.582957e+02
5.300000e-07	-5.849186e-06	-4.018575e-09	-4.298678e+01	-2.580677e+02
5.400000e-07	-5.825250e-06	-3.996474e-09	-4.281087e+01	-2.578441e+02
5.500000e-07	-5.800867e-06	-3.971758e-09	-4.263168e+01	-2.576226e+02
5.600000e-07	-5.775986e-06	-3.970586e-09	-4.244882e+01	-2.574008e+02
5.700000e-07	-5.750442e-06	-3.943983e-09	-4.226110e+01	-2.571765e+02
5.800000e-07	-5.724200e-06	-3.943665e-09	-4.206824e+01	-2.569471e+02
5.900000e-07	-5.697425e-06	-4.000207e-09	-4.187146e+01	-2.567104e+02
6.000000e-07	-5.670239e-06	-3.957452e-09	-4.167167e+01	-2.564641e+02
6.100000e-07	-5.642708e-06	-3.879532e-09	-4.146934e+01	-2.562061e+02
6.200000e-07	-5.614886e-06	-3.916528e-09	-4.126487e+01	-2.559344e+02
6.300000e-07	-5.586780e-06	-3.975663e-09	-4.105831e+01	-2.556470e+02
6.400000e-07	-5.558339e-06	-3.923626e-09	-4.084929e+01	-2.553423e+02
6.500000e-07	-5.529526e-06	-3.864928e-09	-4.063754e+01	-2.550187e+02
6.600000e-07	-5.500355e-06	-3.885815e-09	-4.042316e+01	-2.546749e+02
6.700000e-07	-5.470818e-06	-3.922604e-09	-4.020608e+01	-2.543098e+02
6.800000e-07	-5.440896e-06	-3.900418e-09	-3.998618e+01	-2.539225e+02
6.900000e-07	-5.410585e-06	-3.857282e-09	-3.976342e+01	-2.535122e+02
7.000000e-07	-5.379812e-06	-3.857689e-09	-3.953726e+01	-2.530787e+02
7.100000e-07	-5.348649e-06	-3.878468e-09	-3.930824e+01	-2.526216e+02
7.200000e-07	-5.317213e-06	-3.865989e-09	-3.907721e+01	-2.521410e+02
7.300000e-07	-5.285565e-06	-3.842306e-09	-3.884462e+01	-2.516372e+02
7.400000e-07	-5.253705e-06	-3.835688e-09	-3.861048e+01	-2.511107e+02
7.500000e-07	-5.221549e-06	-3.823808e-09	-3.837416e+01	-2.505621e+02
7.600000e-07	-5.189025e-06	-3.822671e-09	-3.813513e+01	-2.499923e+02
7.700000e-07	-5.155966e-06	-3.826280e-09	-3.789218e+01	-2.494024e+02
7.800000e-07	-5.122245e-06	-3.800359e-09	-3.764436e+01	-2.487937e+02
7.900000e-07	-5.087926e-06	-3.771783e-09	-3.739214e+01	-2.481673e+02
8.000000e-07	-5.053164e-06	-3.789299e-09	-3.713667e+01	-2.475248e+02
8.100000e-07	-5.018008e-06	-3.793040e-09	-3.687830e+01	-2.468678e+02
8.200000e-07	-4.982520e-06	-3.757180e-09	-3.661749e+01	-2.461979e+02
8.300000e-07	-4.946792e-06	-3.737620e-09	-3.635492e+01	-2.455166e+02
8.400000e-07	-4.910775e-06	-3.752585e-09	-3.609023e+01	-2.448257e+02
8.500000e-07	-4.874413e-06	-3.746227e-09	-3.582299e+01	-2.441267e+02
8.600000e-07	-4.837758e-06	-3.718485e-09	-3.555361e+01	-2.434213e+02
8.700000e-07	-4.800842e-06	-3.703448e-09	-3.528230e+01	-2.427109e+02
8.800000e-07	-4.763629e-06	-3.708055e-09	-3.500882e+01	-2.419971e+02
8.900000e-07	-4.726058e-06	-3.703526e-09	-3.473270e+01	-2.412810e+02
9.000000e-07	-4.688119e-06	-3.684327e-09	-3.445388e+01	-2.405638e+02
9.100000e-07	-4.649829e-06	-3.664741e-09	-3.417248e+01	-2.398466e+02
9.200000e-07	-4.611224e-06	-3.658117e-09	-3.388876e+01	-2.391301e+02
9.300000e-07	-4.572318e-06	-3.651281e-09	-3.360284e+01	-2.384150e+02
9.400000e-07	-4.533082e-06	-3.636772e-09	-3.331449e+01	-2.377016e+02
9.500000e-07	-4.493577e-06	-3.617314e-09	-3.302416e+01	-2.369901e+02
9.600000e-07	-4.453903e-06	-3.603137e-09	-3.273258e+01	-2.362806e+02
9.700000e-07	-4.414040e-06	-3.597706e-09	-3.243963e+01	-2.355728e+02
9.800000e-07	-4.373896e-06	-3.591317e-09	-3.214460e+01	-2.348662e+02
9.900000e-07	-4.333388e-06	-3.572975e-09	-3.184689e+01	-2.341600e+02
1.000000e-06	-4.292524e-06	-3.550551e-09	-3.154658e+01	-2.334534e+02
1.010000e-06	-4.251220e-06	-3.542578e-09	-3.124303e+01	-2.327453e+02
1.020000e-06	-4.209303e-06	-3.539249e-09	-3.093497e+01	-2.320343e+02
1.030000e-06	-4.166939e-06	-3.520188e-09	-3.062363e+01	-2.313190e+02
1.040000e-06	-4.124280e-06	-3.494424e-09	-3.031012e+01	-2.305977e+02
1.050000e-06	-4.081215e-06	-3.482327e-09	-2.999363e+01	-2.298685e+02
1.060000e-06	-4.037802e-06	-3.477091e-09	-2.967458e+01	-2.291297e+02
1.070000e-06	-3.994178e-06	-3.464893e-09	-2.935398e+01	-2.283791e+02
1.080000e-06	-3.950289e-06	-3.445201e-09	-2.903142e+01	-2.276149e+02
1.090000e-06	-3.906184e-06	-3.431917e-09	-2.870729e+01	-2.268347e+02
1.100000e-06	-3.861910e-06	-3.421333e-09	-2.838191e+01	-2.260366e+02
1.110000e-06	-3.817351e-06	-3.409330e-09	-2.805444e+01	-2.252185e+02
1.120000e-06	-3.772535e-06	-3.390050e-09	-2.772508e+01	-2.243782e+02
1.130000e-06	-3.727476e-06	-3.371083e-09	-2.739393e+01	-2.235140e+02
1.140000e-06	-3.682165e-06	-3.356075e-09	-2.706093e+01	-2.226238e+02
1.150000e-06	-3.636662e-06	-3.344212e-09	-2.672652e+01	-2.217059e+02
1.160000e-06	-3.590934e-06	-3.328405e-09	-2.639046e+01	-2.207588e+02
1.170000e-06	-3.544955e-06	-3.308097e-09	-2.605255e+01	-2.197810e+02
1.180000e-06	-3.498731e-06	-3.289884e-09	-2.571284e+01	-2.187713e+02
1.190000e-06	-3.452230e-06	-3.277390e-09	-2.537110e+01	-2.177287e+02
1.200000e-06	-3.405484e-06	-3.263075e-09	-2.502755e+01	-2.166525e+02
1.210000e-06	-3.358429e-06	-3.242367e-09	-2.468173e+01	-2.155419e+02
1.220000e-06	-3.311133e-06	-3.222240e-09	-2.433415e+01	-2.143967e+02
1.230000e-06	-3.263646e-06	-3.206239e-09	-2.398516e+01	-2.132169e+02
1.240000e-06	-3.215937e-06	-3.188540e-09	-2.363453e+01	-2.120025e+02
1.250000e-06	-3.168066e-06	-3.166765e-09	-2.328272e+01	-2.107540e+02
1.260000e-06	-3.120040e-06	-3.146030e-09	-2.292977e+01	-2.094720e+02
1.270000e-06	-3.071814e-06	-3.128863e-09	-2.257535e+01	-2.081573e+02
1.280000e-06	-3.023294e-06	-3.110646e-09	-2.221877e+01	-2.068109e+02
1.290000e-06	-2.974461e-06	-3.088096e-09	-2.185988e+01	-2.054341e+02
1.300000e-06	-2.925370e-06	-3.067030e-09	-2.149910e+01	-2.040282e+02
1.310000e-06	-2.876018e-06	-3.047026e-09	-2.113640e+01	-2.025947e+02
1.320000e-06	-2.826342e-06	-3.025901e-09	-2.077132e+01	-2.011352e+02
1.330000e-06	-2.776252e-06	-3.002589e-09	-2.040320e+01	-1.996513e+02
1.340000e-06	-2.725815e-06	-2.979983e-09	-2.003254e+01	-1.981448e+02
1.350000e-06	-2.675095e-06	-2.957825e-09	-1.965978e+01	-1.966173e+02
1.360000e-06	-2.624136e-06	-2.935095e-09	-1.928528e+01	-1.950704e+02
1.370000e-06	-2.572905e-06	-2.910553e-09	-1.890877e+01	-1.935058e+02
1.380000e-06	-2.521333e-06	-2.885637e-09	-1.852976e+01	-1.919248e+02
1.390000e-06	-2.469609e-06	-2.861055e-09	-1.814963e+01	-1.903287e+02
1.400000e-06	-2.417786e-06	-2.838515e-09	-1.776877e+01	-1.887186e+02
1.410000e-06	-2.365806e-06	-2.814112e-09	-1.738676e+01	-1.870952e+02
1.420000e-06	-2.313671e-06	-2.786964e-09	-1.700361e+01	-1.854592e+02
1.430000e-06	-2.261379e-06	-2.760147e-09	-1.661930e+01	-1.838108e+02
1.440000e-06	-2.209008e-06	-2.735234e-09	-1.623442e+01	-1.821499e+02
1.450000e-06	-2.156541e-06	-2.709006e-09	-1.584883e+01	-1.804759e+02
1.460000e-06	-2.103882e-06	-2.680014e-09	-1.546183e+01	-1.787880e+02
1.470000e-06	-2.051127e-06	-2.651087e-09	-1.507413e+01	-1.770850e+02
1.480000e-06	-1.998229e-06	-2.623554e-09	-1.468537e+01	-1.753650e+02
1.490000e-06	-1.945157e-06	-2.595319e-09	-1.429533e+01	-1.736259e+02
1.500000e-06	-1.891883e-06	-2.564473e-09	-1.390381e+01	-1.718650e+02
1.510000e-06	-1.838402e-06	-2.531775e-09	-1.351077e+01	-1.700792e+02
1.520000e-06	-1.784852e-06	-2.500954e-09	-1.311722e+01	-1.682649e+02
1.530000e-06	-1.731158e-06	-2.469532e-09	-1.272261e+01	-1.664182e+02
1.540000e-06	-1.677289e-06	-2.438495e-09	-1.232671e+01	-1.645345e+02
1.550000e-06	-1.623321e-06	-2.405128e-09	-1.193010e+01	-1.626090e+02
1.560000e-06	-1.569273e-06	-2.372973e-09	-1.153289e+01	-1.606365e+02
1.570000e-06	-1.515183e-06	-2.340599e-09	-1.113537e+01	-1.586113e+02
1.580000e-06	-1.461055e-06	-2.305560e-09	-1.073757e+01	-1.565274e+02
1.590000e-06	-1.406804e-06	-2.268545e-09	-1.033887e+01	-1.543787e+02
1.600000e-06	-1.352370e-06	-2.228842e-09	-9.938826e+00	-1.521586e+02
1.610000e-06	-1.297826e-06	-2.189661e-09	-9.537974e+00	-1.498606e+02
1.620000e-06	-1.243209e-06	-2.147912e-09	-9.136577e+00	-1.474778e+02
1.630000e-06	-1.188534e-06	-2.106088e-09	-8.734765e+00	-1.450033e+02
1.640000e-06	-1.133817e-06	-2.066389e-09	-8.332641e+00	-1.424304e+02
1.650000e-06	-1.078955e-06	-2.027081e-09	-7.929445e+00	-1.397521e+02
1.660000e-06	-1.023980e-06	-1.984987e-09	-7.525421e+00	-1.369618e+02
1.670000e-06	-9.689503e-07	-1.942571e-09	-7.121000e+00	-1.340530e+02
1.680000e-06	-9.138680e-07	-1.897377e-09	-6.716190e+00	-1.310193e+02
1.690000e-06	-8.588036e-07	-1.848528e-09	-6.311512e+00	-1.278549e+02
1.700000e-06	-8.036716e-07	-1.797133e-09	-5.906336e+00	-1.245540e+02
1.710000e-06	-7.484595e-07	-1.746243e-09	-5.500572e+00	-1.211117e+02
1.720000e-06	-6.933138e-07	-1.692121e-09	-5.095296e+00	-1.175232e+02
1.730000e-06	-6.381767e-07	-1.635868e-09	-4.690083e+00	-1.137845e+02
1.740000e-06	-5.829051e-07	-1.578838e-09	-4.283881e+00	-1.098922e+02
1.750000e-06	-5.275167e-07	-1.521077e-09	-3.876821e+00	-1.058436e+02
1.760000e-06	-4.721073e-07	-1.461111e-09	-3.469606e+00	-1.016365e+02
1.770000e-06	-4.167085e-07	-1.398271e-09	-3.062470e+00	-9.726980e+01
1.780000e-06	-3.612594e-07	-1.330598e-09	-2.654964e+00	-9.274300e+01
1.790000e-06	-3.057601e-07	-1.260385e-09	-2.247090e+00	-8.805649e+01
1.800000e-06	-2.503034e-07	-1.190126e-09	-1.839527e+00	-8.321151e+01
1.810000e-06	-1.948525e-07	-1.117278e-09	-1.432008e+00	-7.821019e+01
1.820000e-06	-1.393797e-07	-1.039512e-09	-1.024328e+00	-7.305555e+01
1.830000e-06	-8.390476e-08	-9.596359e-10	-6.166321e-01	-6.775149e+01
1.840000e-06	-2.842838e-08	-8.799513e-10	-2.089256e-01	-6.230280e+01
1.850000e-06	2.702535e-08	-8.011053e-10	1.986145e-01	-5.671516e+01
1.860000e-06	8.248305e-08	-7.188781e-10	6.061837e-01	-5.099509e+01
1.870000e-06	1.379210e-07	-6.304678e-10	1.013608e+00	-4.514995e+01
1.880000e-06	1.933015e-07	-5.408334e-10	1.420610e+00	-3.918788e+01
1.890000e-06	2.486752e-07	-4.519001e-10	1.827562e+00	-3.311780e+01
1.900000e-06	3.040664e-07	-3.600103e-10	2.234642e+00	-2.694931e+01
1.910000e-06	3.594505e-07	-2.626803e-10	2.641670e+00	-2.069267e+01
1.920000e-06	4.148539e-07	-1.637894e-10	3.048840e+00	-1.435876e+01
1.930000e-06	4.702499e-07	-6.547754e-11	3.455956e+00	-7.958939e+00
1.940000e-06	5.255941e-07	3.347802e-11	3.862691e+00	-1.505062e+00
1.950000e-06	5.808917e-07	1.325424e-10	4.269084e+00	4.990648e+00
1.960000e-06	6.361810e-07	2.333996e-10	4.675416e+00	1.151566e+01
1.970000e-06	6.914558e-07	3.358598e-10	5.081641e+00	1.805722e+01
1.980000e-06	7.466350e-07	4.369585e-10	5.487163e+00	2.460243e+01
1.990000e-06	8.017680e-07	5.378591e-10	5.892346e+00	3.113833e+01
2.000000e-06	8.568898e-07	6.378195e-10	6.297446e+00	3.765200e+01
2.010000e-06	9.119257e-07	7.386416e-10	6.701916e+00	4.413061e+01
2.020000e-06	9.668512e-07	8.383127e-10	7.105574e+00	5.056155e+01
2.030000e-06	1.021704e-06	9.373653e-10	7.508699e+00	5.693246e+01
2.040000e-06	1.076522e-06	1.034660e-09	7.911563e+00	6.323137e+01
2.050000e-06	1.131334e-06	1.129756e-09	8.314386e+00	6.944671e+01
2.060000e-06	1.186070e-06	1.222227e-09	8.716656e+00	7.556745e+01
2.070000e-06	1.240678e-06	1.313163e-09	9.117982e+00	8.158310e+01
2.080000e-06	1.295270e-06	1.401932e-09	9.519185e+00	8.748384e+01
2.090000e-06	1.349752e-06	1.488798e-09	9.919587e+00	9.326053e+01
2.100000e-06	1.404071e-06	1.571874e-09	1.031879e+01	9.890478e+01
2.110000e-06	1.458264e-06	1.651566e-09	1.071706e+01	1.044090e+02
2.120000e-06	1.512256e-06	1.730097e-09	1.111386e+01	1.097664e+02
2.130000e-06	1.566107e-06	1.806822e-09	1.150962e+01	1.149711e+02
2.140000e-06	1.619913e-06	1.879113e-09	1.190505e+01	1.200182e+02
2.150000e-06	1.673665e-06	1.949225e-09	1.230008e+01	1.249034e+02
2.160000e-06	1.727338e-06	2.019032e-09	1.269454e+01	1.296236e+02
2.170000e-06	1.780930e-06	2.086411e-09	1.308840e+01	1.341766e+02
2.180000e-06	1.834374e-06	2.147356e-09	1.348116e+01	1.385609e+02
2.190000e-06	1.887665e-06	2.203721e-09	1.387281e+01	1.427761e+02
2.200000e-06	1.940802e-06	2.260645e-09	1.426332e+01	1.468225e+02
2.210000e-06	1.993756e-06	2.315430e-09	1.465250e+01	1.507015e+02
2.220000e-06	2.046606e-06	2.366840e-09	1.504090e+01	1.544151e+02
2.230000e-06	2.099327e-06	2.415846e-09	1.542835e+01	1.579660e+02
2.240000e-06	2.151861e-06	2.463831e-09	1.581444e+01	1.613580e+02
2.250000e-06	2.204236e-06	2.510364e-09	1.619935e+01	1.645950e+02
2.260000e-06	2.256433e-06	2.553748e-09	1.658296e+01	1.676821e+02
2.270000e-06	2.308446e-06	2.592258e-09	1.696521e+01	1.706247e+02
2.280000e-06	2.360294e-06	2.629425e-09	1.734625e+01	1.734285e+02
2.290000e-06	2.412043e-06	2.666510e-09	1.772656e+01	1.761000e+02
2.300000e-06	2.463659e-06	2.702014e-09	1.810590e+01	1.786457e+02
2.310000e-06	2.515018e-06	2.734127e-09	1.848335e+01	1.810728e+02
2.320000e-06	2.566131e-06	2.765752e-09	1.885899e+01	1.833883e+02
2.330000e-06	2.617042e-06	2.799453e-09	1.923314e+01	1.855996e+02
2.340000e-06	2.667719e-06	2.832008e-09	1.960557e+01	1.877142e+02
2.350000e-06	2.718082e-06	2.861772e-09	1.997570e+01	1.897395e+02
2.360000e-06	2.768065e-06	2.889893e-09	2.034304e+01	1.916828e+02
2.370000e-06	2.817674e-06	2.917940e-09	2.070763e+01	1.935515e+02
2.380000e-06	2.867014e-06	2.945291e-09	2.107023e+01	1.953527e+02
2.390000e-06	2.916097e-06	2.972122e-09	2.143095e+01	1.970932e+02
2.400000e-06	2.964807e-06	2.999326e-09	2.178893e+01	1.987797e+02
2.410000e-06	3.013135e-06	3.026249e-09	2.214410e+01	2.004184e+02
2.420000e-06	3.061214e-06	3.052751e-09	2.249744e+01	2.020152e+02
2.430000e-06	3.109139e-06	3.076917e-09	2.284966e+01	2.035756e+02
2.440000e-06	3.156946e-06	3.099575e-09	2.320100e+01	2.051047e+02
2.450000e-06	3.204630e-06	3.122189e-09	2.355144e+01	2.066071e+02
2.460000e-06	3.252133e-06	3.145347e-09	2.390055e+01	2.080868e+02
2.470000e-06	3.299420e-06	3.167952e-09	2.424807e+01	2.095476e+02
2.480000e-06	3.346502e-06	3.188763e-09	2.459408e+01	2.109925e+02
2.490000e-06	3.393356e-06	3.210120e-09	2.493842e+01	2.124241e+02
2.500000e-06	3.439922e-06	3.232105e-09	2.528064e+01	2.138446e+02
2.510000e-06	3.486223e-06	3.252760e-09	2.562092e+01	2.152556e+02
2.520000e-06	3.532295e-06	3.271897e-09	2.595951e+01	2.166582e+02
2.530000e-06	3.578134e-06	3.291322e-09	2.629639e+01	2.180532e+02
2.540000e-06	3.623676e-06	3.309415e-09	2.663109e+01	2.194407e+02
2.550000e-06	3.668984e-06	3.325509e-09	2.696406e+01	2.208207e+02
2.560000e-06	3.714102e-06	3.343635e-09	2.729565e+01	2.221926e+02
2.570000e-06	3.758946e-06	3.363142e-09	2.762521e+01	2.235555e+02
2.580000e-06	3.803502e-06	3.381291e-09	2.795266e+01	2.249084e+02
2.590000e-06	3.847847e-06	3.399762e-09	2.827856e+01	2.262497e+02
2.600000e-06	3.892030e-06	3.418254e-09	2.860327e+01	2.275778e+02
2.610000e-06	3.935951e-06	3.435653e-09	2.892606e+01	2.288910e+02
2.620000e-06	3.979665e-06	3.455154e-09	2.924732e+01	2.301872e+02
2.630000e-06	4.023239e-06	3.472378e-09	2.956755e+01	2.314644e+02
2.640000e-06	4.066642e-06	3.487245e-09	2.988653e+01	2.327206e+02
2.650000e-06	4.109727e-06	3.502249e-09	3.020316e+01	2.339535e+02
2.660000e-06	4.152373e-06	3.521098e-09	3.051658e+01	2.351613e+02
2.670000e-06	4.194506e-06	3.542192e-09	3.082623e+01	2.363418e+02
2.680000e-06	4.236135e-06	3.559448e-09	3.113217e+01	2.374931e+02
2.690000e-06	4.277359e-06	3.575177e-09	3.143513e+01	2.386136e+02
2.700000e-06	4.318167e-06	3.592678e-09	3.173503e+01	2.397016e+02
2.710000e-06	4.358579e-06	3.609964e-09	3.203203e+01	2.407558e+02
2.720000e-06	4.398653e-06	3.622405e-09	3.232654e+01	2.417750e+02
2.730000e-06	4.438472e-06	3.630359e-09	3.261918e+01	2.427582e+02
2.740000e-06	4.478081e-06	3.641947e-09	3.291027e+01	2.437049e+02
2.750000e-06	4.517530e-06	3.656879e-09	3.320019e+01	2.446145e+02
2.760000e-06	4.556783e-06	3.669590e-09	3.348867e+01	2.454871e+02
2.770000e-06	4.595706e-06	3.681127e-09	3.377472e+01	2.463226e+02
2.780000e-06	4.634236e-06	3.693979e-09	3.405788e+01	2.471215e+02
2.790000e-06	4.672415e-06	3.708601e-09	3.433847e+01	2.478845e+02
2.800000e-06	4.710302e-06	3.720823e-09	3.461691e+01	2.486125e+02
2.810000e-06	4.747916e-06	3.731440e-09	3.489334e+01	2.493067e+02
2.820000e-06	4.785216e-06	3.740340e-09	3.516746e+01	2.499686e+02
2.830000e-06	4.822074e-06	3.750754e-09	3.543834e+01	2.505996e+02
2.840000e-06	4.858555e-06	3.762083e-09	3.570645e+01	2.512018e+02
2.850000e-06	4.894763e-06	3.772528e-09	3.597255e+01	2.517769e+02
2.860000e-06	4.930734e-06	3.783048e-09	3.623691e+01	2.523272e+02
2.870000e-06	4.966528e-06	3.794796e-09	3.649997e+01	2.528548e+02
2.880000e-06	5.002105e-06	3.806391e-09	3.676142e+01	2.533622e+02
2.890000e-06	5.037384e-06	3.816891e-09	3.702070e+01	2.538515e+02
2.900000e-06	5.072366e-06	3.826451e-09	3.727778e+01	2.543253e+02
