# Temperatura_=_20.0
# Concentracion g/m^3_=_9000.0
# C_Vs_to_Am_M_A/Vsm_=_65563218390.804596
# pendiente_HvsI_1/m_=_3716.3
# ordenada_HvsI_A/m_=_1297.0
# frecuencia_Hz_=_135336.33285349034

Tiempo_(s)	Campo_(V.s)	Magnetizacion_(V.s)	Campo_(kA/m)	Magnetizacion_(A/m)
0.000000e+00	-6.522652e-06	-4.226313e-09	-4.771665e+01	-2.718497e+02
1.000000e-08	-6.522724e-06	-4.229934e-09	-4.771718e+01	-2.720067e+02
2.000000e-08	-6.522411e-06	-4.232827e-09	-4.771489e+01	-2.721528e+02
3.000000e-08	-6.521668e-06	-4.230602e-09	-4.770945e+01	-2.722861e+02
4.000000e-08	-6.520380e-06	-4.226191e-09	-4.770002e+01	-2.724049e+02
5.000000e-08	-6.518327e-06	-4.224302e-09	-4.768500e+01	-2.725075e+02
6.000000e-08	-6.515611e-06	-4.222737e-09	-4.766514e+01	-2.725925e+02
7.000000e-08	-6.512427e-06	-4.217426e-09	-4.764184e+01	-2.726584e+02
8.000000e-08	-6.508840e-06	-4.215333e-09	-4.761561e+01	-2.727041e+02
9.000000e-08	-6.504805e-06	-4.252236e-09	-4.758609e+01	-2.727286e+02
1.000000e-07	-6.500130e-06	-4.301283e-09	-4.755189e+01	-2.727311e+02
1.100000e-07	-6.494730e-06	-4.295199e-09	-4.751238e+01	-2.727110e+02
1.200000e-07	-6.488892e-06	-4.197849e-09	-4.746967e+01	-2.726680e+02
1.300000e-07	-6.482882e-06	-4.196054e-09	-4.742571e+01	-2.726019e+02
1.400000e-07	-6.476564e-06	-4.328641e-09	-4.737949e+01	-2.725128e+02
1.500000e-07	-6.469720e-06	-4.394376e-09	-4.732942e+01	-2.724010e+02
1.600000e-07	-6.462377e-06	-4.318087e-09	-4.727570e+01	-2.722671e+02
1.700000e-07	-6.454722e-06	-4.283204e-09	-4.721970e+01	-2.721118e+02
1.800000e-07	-6.446817e-06	-4.362769e-09	-4.716187e+01	-2.719361e+02
1.900000e-07	-6.438579e-06	-4.462479e-09	-4.710161e+01	-2.717412e+02
2.000000e-07	-6.430045e-06	-4.463692e-09	-4.703918e+01	-2.715284e+02
2.100000e-07	-6.421011e-06	-4.424938e-09	-4.697309e+01	-2.712993e+02
2.200000e-07	-6.411082e-06	-4.375504e-09	-4.690046e+01	-2.710554e+02
2.300000e-07	-6.400426e-06	-4.391835e-09	-4.682250e+01	-2.707986e+02
2.400000e-07	-6.389335e-06	-4.358789e-09	-4.674137e+01	-2.705307e+02
2.500000e-07	-6.377640e-06	-4.276799e-09	-4.665581e+01	-2.702538e+02
2.600000e-07	-6.365220e-06	-4.165633e-09	-4.656495e+01	-2.699697e+02
2.700000e-07	-6.352274e-06	-4.152170e-09	-4.647024e+01	-2.696806e+02
2.800000e-07	-6.338967e-06	-4.191636e-09	-4.637290e+01	-2.693884e+02
2.900000e-07	-6.325246e-06	-4.136028e-09	-4.627252e+01	-2.690953e+02
3.000000e-07	-6.310910e-06	-4.004414e-09	-4.616764e+01	-2.688030e+02
3.100000e-07	-6.295925e-06	-3.992482e-09	-4.605802e+01	-2.685134e+02
3.200000e-07	-6.280239e-06	-4.048129e-09	-4.594327e+01	-2.682284e+02
3.300000e-07	-6.263844e-06	-3.960037e-09	-4.582333e+01	-2.679495e+02
3.400000e-07	-6.246950e-06	-3.888078e-09	-4.569974e+01	-2.676783e+02
3.500000e-07	-6.229722e-06	-3.867637e-09	-4.557371e+01	-2.674159e+02
3.600000e-07	-6.212209e-06	-3.873053e-09	-4.544560e+01	-2.671636e+02
3.700000e-07	-6.194447e-06	-3.885275e-09	-4.531566e+01	-2.669223e+02
3.800000e-07	-6.176370e-06	-3.940026e-09	-4.518341e+01	-2.666926e+02
3.900000e-07	-6.157755e-06	-3.872604e-09	-4.504723e+01	-2.664750e+02
4.000000e-07	-6.138504e-06	-3.840983e-09	-4.490640e+01	-2.662697e+02
4.100000e-07	-6.118843e-06	-3.977340e-09	-4.476257e+01	-2.660767e+02
4.200000e-07	-6.098953e-06	-4.059245e-09	-4.461707e+01	-2.658959e+02
4.300000e-07	-6.078715e-06	-3.928724e-09	-4.446902e+01	-2.657266e+02
4.400000e-07	-6.058113e-06	-3.895529e-09	-4.431830e+01	-2.655683e+02
4.500000e-07	-6.037238e-06	-4.010237e-09	-4.416559e+01	-2.654199e+02
4.600000e-07	-6.015999e-06	-4.037698e-09	-4.401021e+01	-2.652802e+02
4.700000e-07	-5.994315e-06	-3.912749e-09	-4.385158e+01	-2.651481e+02
4.800000e-07	-5.972188e-06	-3.886746e-09	-4.368971e+01	-2.650218e+02
4.900000e-07	-5.949652e-06	-3.960839e-09	-4.352485e+01	-2.648998e+02
5.000000e-07	-5.926808e-06	-3.981406e-09	-4.335774e+01	-2.647801e+02
5.100000e-07	-5.903604e-06	-3.924293e-09	-4.318799e+01	-2.646608e+02
5.200000e-07	-5.879971e-06	-3.911676e-09	-4.301510e+01	-2.645399e+02
5.300000e-07	-5.855993e-06	-3.924396e-09	-4.283968e+01	-2.644152e+02
5.400000e-07	-5.831748e-06	-3.928746e-09	-4.266232e+01	-2.642845e+02
5.500000e-07	-5.807112e-06	-3.939808e-09	-4.248210e+01	-2.641456e+02
5.600000e-07	-5.781782e-06	-3.928823e-09	-4.229679e+01	-2.639964e+02
5.700000e-07	-5.755600e-06	-3.884589e-09	-4.210526e+01	-2.638347e+02
5.800000e-07	-5.728719e-06	-3.893945e-09	-4.190861e+01	-2.636584e+02
5.900000e-07	-5.701430e-06	-3.946660e-09	-4.170898e+01	-2.634656e+02
6.000000e-07	-5.673874e-06	-3.919913e-09	-4.150739e+01	-2.632542e+02
6.100000e-07	-5.646000e-06	-3.861387e-09	-4.130348e+01	-2.630226e+02
6.200000e-07	-5.617784e-06	-3.880377e-09	-4.109706e+01	-2.627692e+02
6.300000e-07	-5.589272e-06	-3.922689e-09	-4.088848e+01	-2.624926e+02
6.400000e-07	-5.560447e-06	-3.885914e-09	-4.067761e+01	-2.621915e+02
6.500000e-07	-5.531211e-06	-3.848971e-09	-4.046373e+01	-2.618649e+02
6.600000e-07	-5.501606e-06	-3.856347e-09	-4.024716e+01	-2.615121e+02
6.700000e-07	-5.471642e-06	-3.877918e-09	-4.002795e+01	-2.611324e+02
6.800000e-07	-5.441180e-06	-3.859787e-09	-3.980511e+01	-2.607255e+02
6.900000e-07	-5.410365e-06	-3.843721e-09	-3.957968e+01	-2.602913e+02
7.000000e-07	-5.379219e-06	-3.836539e-09	-3.935183e+01	-2.598301e+02
7.100000e-07	-5.347695e-06	-3.844514e-09	-3.912121e+01	-2.593420e+02
7.200000e-07	-5.315970e-06	-3.838247e-09	-3.888913e+01	-2.588278e+02
7.300000e-07	-5.284094e-06	-3.829026e-09	-3.865594e+01	-2.582882e+02
7.400000e-07	-5.251933e-06	-3.811172e-09	-3.842067e+01	-2.577242e+02
7.500000e-07	-5.219309e-06	-3.804749e-09	-3.818200e+01	-2.571371e+02
7.600000e-07	-5.186158e-06	-3.807021e-09	-3.793949e+01	-2.565282e+02
7.700000e-07	-5.152431e-06	-3.807106e-09	-3.769276e+01	-2.558989e+02
7.800000e-07	-5.118109e-06	-3.782156e-09	-3.744167e+01	-2.552511e+02
7.900000e-07	-5.083246e-06	-3.770123e-09	-3.718663e+01	-2.545863e+02
8.000000e-07	-5.047969e-06	-3.783254e-09	-3.692856e+01	-2.539065e+02
8.100000e-07	-5.012412e-06	-3.782401e-09	-3.666845e+01	-2.532134e+02
8.200000e-07	-4.976611e-06	-3.751373e-09	-3.640654e+01	-2.525089e+02
8.300000e-07	-4.940513e-06	-3.735361e-09	-3.614246e+01	-2.517951e+02
8.400000e-07	-4.904092e-06	-3.745292e-09	-3.587603e+01	-2.510736e+02
8.500000e-07	-4.867332e-06	-3.740573e-09	-3.560711e+01	-2.503463e+02
8.600000e-07	-4.830186e-06	-3.717102e-09	-3.533536e+01	-2.496149e+02
8.700000e-07	-4.792721e-06	-3.699665e-09	-3.506129e+01	-2.488810e+02
8.800000e-07	-4.754949e-06	-3.699779e-09	-3.478497e+01	-2.481460e+02
8.900000e-07	-4.716854e-06	-3.697728e-09	-3.450628e+01	-2.474112e+02
9.000000e-07	-4.678478e-06	-3.689096e-09	-3.422554e+01	-2.466778e+02
9.100000e-07	-4.639762e-06	-3.671822e-09	-3.394231e+01	-2.459466e+02
9.200000e-07	-4.600706e-06	-3.659691e-09	-3.365660e+01	-2.452185e+02
9.300000e-07	-4.561354e-06	-3.653762e-09	-3.336872e+01	-2.444938e+02
9.400000e-07	-4.521735e-06	-3.648070e-09	-3.307888e+01	-2.437728e+02
9.500000e-07	-4.481970e-06	-3.627463e-09	-3.278798e+01	-2.430556e+02
9.600000e-07	-4.442014e-06	-3.607871e-09	-3.249568e+01	-2.423419e+02
9.700000e-07	-4.401732e-06	-3.596982e-09	-3.220100e+01	-2.416313e+02
9.800000e-07	-4.361099e-06	-3.594673e-09	-3.190375e+01	-2.409230e+02
9.900000e-07	-4.320047e-06	-3.580269e-09	-3.160343e+01	-2.402162e+02
1.000000e-06	-4.278390e-06	-3.562191e-09	-3.129868e+01	-2.395096e+02
1.010000e-06	-4.236147e-06	-3.550650e-09	-3.098966e+01	-2.388020e+02
1.020000e-06	-4.193558e-06	-3.545929e-09	-3.067809e+01	-2.380918e+02
1.030000e-06	-4.150607e-06	-3.530641e-09	-3.036389e+01	-2.373773e+02
1.040000e-06	-4.107310e-06	-3.509694e-09	-3.004714e+01	-2.366567e+02
1.050000e-06	-4.063819e-06	-3.493121e-09	-2.972898e+01	-2.359279e+02
1.060000e-06	-4.020172e-06	-3.483871e-09	-2.940969e+01	-2.351889e+02
1.070000e-06	-3.976348e-06	-3.470954e-09	-2.908908e+01	-2.344375e+02
1.080000e-06	-3.932201e-06	-3.454991e-09	-2.876613e+01	-2.336715e+02
1.090000e-06	-3.887792e-06	-3.443052e-09	-2.844125e+01	-2.328889e+02
1.100000e-06	-3.843211e-06	-3.435581e-09	-2.811512e+01	-2.320872e+02
1.110000e-06	-3.798339e-06	-3.423918e-09	-2.778686e+01	-2.312645e+02
1.120000e-06	-3.753108e-06	-3.406337e-09	-2.745597e+01	-2.304186e+02
1.130000e-06	-3.707639e-06	-3.388900e-09	-2.712334e+01	-2.295476e+02
1.140000e-06	-3.661993e-06	-3.375192e-09	-2.678942e+01	-2.286496e+02
1.150000e-06	-3.616076e-06	-3.363509e-09	-2.645351e+01	-2.277230e+02
1.160000e-06	-3.569900e-06	-3.347763e-09	-2.611571e+01	-2.267661e+02
1.170000e-06	-3.523497e-06	-3.331950e-09	-2.577624e+01	-2.257779e+02
1.180000e-06	-3.476864e-06	-3.317907e-09	-2.543510e+01	-2.247570e+02
1.190000e-06	-3.429953e-06	-3.306005e-09	-2.509192e+01	-2.237027e+02
1.200000e-06	-3.382813e-06	-3.290339e-09	-2.474706e+01	-2.226143e+02
1.210000e-06	-3.335512e-06	-3.273066e-09	-2.440103e+01	-2.214914e+02
1.220000e-06	-3.287950e-06	-3.253128e-09	-2.405309e+01	-2.203339e+02
1.230000e-06	-3.240131e-06	-3.236520e-09	-2.370327e+01	-2.191418e+02
1.240000e-06	-3.192086e-06	-3.221522e-09	-2.335180e+01	-2.179156e+02
1.250000e-06	-3.143861e-06	-3.205636e-09	-2.299900e+01	-2.166559e+02
1.260000e-06	-3.095430e-06	-3.188624e-09	-2.264471e+01	-2.153633e+02
1.270000e-06	-3.046704e-06	-3.173855e-09	-2.228825e+01	-2.140390e+02
1.280000e-06	-2.997711e-06	-3.155779e-09	-2.192984e+01	-2.126842e+02
1.290000e-06	-2.948411e-06	-3.134360e-09	-2.156919e+01	-2.113002e+02
1.300000e-06	-2.898881e-06	-3.112138e-09	-2.120685e+01	-2.098885e+02
1.310000e-06	-2.849086e-06	-3.090716e-09	-2.084257e+01	-2.084508e+02
1.320000e-06	-2.798916e-06	-3.067177e-09	-2.047555e+01	-2.069886e+02
1.330000e-06	-2.748406e-06	-3.044999e-09	-2.010605e+01	-2.055038e+02
1.340000e-06	-2.697561e-06	-3.026289e-09	-1.973408e+01	-2.039980e+02
1.350000e-06	-2.646370e-06	-3.008101e-09	-1.935960e+01	-2.024729e+02
1.360000e-06	-2.594934e-06	-2.987859e-09	-1.898331e+01	-2.009301e+02
1.370000e-06	-2.543344e-06	-2.966184e-09	-1.860591e+01	-1.993711e+02
1.380000e-06	-2.491574e-06	-2.944694e-09	-1.822718e+01	-1.977971e+02
1.390000e-06	-2.439615e-06	-2.923786e-09	-1.784707e+01	-1.962094e+02
1.400000e-06	-2.387477e-06	-2.900531e-09	-1.746565e+01	-1.946086e+02
1.410000e-06	-2.335177e-06	-2.875248e-09	-1.708306e+01	-1.929955e+02
1.420000e-06	-2.282696e-06	-2.849889e-09	-1.669913e+01	-1.913702e+02
1.430000e-06	-2.230057e-06	-2.825915e-09	-1.631404e+01	-1.897327e+02
1.440000e-06	-2.177361e-06	-2.803516e-09	-1.592855e+01	-1.880825e+02
1.450000e-06	-2.124534e-06	-2.780017e-09	-1.554209e+01	-1.864187e+02
1.460000e-06	-2.071530e-06	-2.754938e-09	-1.515434e+01	-1.847400e+02
1.470000e-06	-2.018338e-06	-2.728636e-09	-1.476521e+01	-1.830446e+02
1.480000e-06	-1.964924e-06	-2.701846e-09	-1.437446e+01	-1.813304e+02
1.490000e-06	-1.911360e-06	-2.672349e-09	-1.398261e+01	-1.795945e+02
1.500000e-06	-1.857653e-06	-2.641579e-09	-1.358971e+01	-1.778340e+02
1.510000e-06	-1.803830e-06	-2.611217e-09	-1.319597e+01	-1.760450e+02
1.520000e-06	-1.749968e-06	-2.581155e-09	-1.280194e+01	-1.742235e+02
1.530000e-06	-1.695991e-06	-2.546284e-09	-1.240707e+01	-1.723649e+02
1.540000e-06	-1.641898e-06	-2.513368e-09	-1.201135e+01	-1.704643e+02
1.550000e-06	-1.587669e-06	-2.485324e-09	-1.161464e+01	-1.685162e+02
1.560000e-06	-1.533252e-06	-2.456593e-09	-1.121655e+01	-1.665149e+02
1.570000e-06	-1.478795e-06	-2.421138e-09	-1.081817e+01	-1.644542e+02
1.580000e-06	-1.424303e-06	-2.380620e-09	-1.041953e+01	-1.623277e+02
1.590000e-06	-1.369706e-06	-2.339342e-09	-1.002013e+01	-1.601289e+02
1.600000e-06	-1.314970e-06	-2.297697e-09	-9.619701e+00	-1.578507e+02
1.610000e-06	-1.260106e-06	-2.255910e-09	-9.218345e+00	-1.554863e+02
1.620000e-06	-1.205158e-06	-2.215240e-09	-8.816371e+00	-1.530285e+02
1.630000e-06	-1.150092e-06	-2.176643e-09	-8.413529e+00	-1.504702e+02
1.640000e-06	-1.094913e-06	-2.140048e-09	-8.009867e+00	-1.478044e+02
1.650000e-06	-1.039698e-06	-2.100202e-09	-7.605939e+00	-1.450241e+02
1.660000e-06	-9.844740e-07	-2.053607e-09	-7.201948e+00	-1.421226e+02
1.670000e-06	-9.292642e-07	-2.005558e-09	-6.798059e+00	-1.390932e+02
1.680000e-06	-8.739725e-07	-1.958826e-09	-6.393571e+00	-1.359298e+02
1.690000e-06	-8.185725e-07	-1.908429e-09	-5.988291e+00	-1.326266e+02
1.700000e-06	-7.631802e-07	-1.854635e-09	-5.583067e+00	-1.291782e+02
1.710000e-06	-7.077663e-07	-1.802807e-09	-5.177685e+00	-1.255798e+02
1.720000e-06	-6.522709e-07	-1.749887e-09	-4.771706e+00	-1.218270e+02
1.730000e-06	-5.967364e-07	-1.693813e-09	-4.365442e+00	-1.179162e+02
1.740000e-06	-5.412184e-07	-1.635464e-09	-3.959299e+00	-1.138445e+02
1.750000e-06	-4.856886e-07	-1.575570e-09	-3.553069e+00	-1.096097e+02
1.760000e-06	-4.300612e-07	-1.515889e-09	-3.146125e+00	-1.052103e+02
1.770000e-06	-3.743532e-07	-1.453126e-09	-2.738591e+00	-1.006458e+02
1.780000e-06	-3.187012e-07	-1.382799e-09	-2.331468e+00	-9.591637e+01
1.790000e-06	-2.631049e-07	-1.308886e-09	-1.924752e+00	-9.102327e+01
1.800000e-06	-2.075249e-07	-1.234432e-09	-1.518155e+00	-8.596851e+01
1.810000e-06	-1.519202e-07	-1.160803e-09	-1.111376e+00	-8.075507e+01
1.820000e-06	-9.625175e-08	-1.086009e-09	-7.041325e-01	-7.538685e+01
1.830000e-06	-4.058739e-08	-1.010656e-09	-2.969182e-01	-6.986865e+01
1.840000e-06	1.504324e-08	-9.343874e-10	1.100493e-01	-6.420619e+01
1.850000e-06	7.064830e-08	-8.544021e-10	5.168297e-01	-5.840607e+01
1.860000e-06	1.262313e-07	-7.679675e-10	9.234488e-01	-5.247577e+01
1.870000e-06	1.818502e-07	-6.757051e-10	1.330330e+00	-4.642357e+01
1.880000e-06	2.375176e-07	-5.808690e-10	1.737567e+00	-4.025855e+01
1.890000e-06	2.931505e-07	-4.851444e-10	2.144551e+00	-3.399052e+01
1.900000e-06	3.487585e-07	-3.878113e-10	2.551353e+00	-2.762998e+01
1.910000e-06	4.043649e-07	-2.872115e-10	2.958143e+00	-2.118805e+01
1.920000e-06	4.599224e-07	-1.845861e-10	3.364576e+00	-1.467640e+01
1.930000e-06	5.153938e-07	-8.426142e-11	3.770378e+00	-8.107177e+00
1.940000e-06	5.708205e-07	1.310437e-11	4.175853e+00	-1.492958e+00
1.950000e-06	6.262589e-07	1.104094e-10	4.581415e+00	5.153371e+00
1.960000e-06	6.816345e-07	2.114948e-10	4.986517e+00	1.181867e+01
1.970000e-06	7.370074e-07	3.169193e-10	5.391599e+00	1.848964e+01
1.980000e-06	7.924093e-07	4.222417e-10	5.796893e+00	2.515292e+01
1.990000e-06	8.477215e-07	5.249651e-10	6.201531e+00	3.179514e+01
2.000000e-06	9.029773e-07	6.280081e-10	6.605756e+00	3.840304e+01
2.010000e-06	9.582378e-07	7.326466e-10	7.010016e+00	4.496357e+01
2.020000e-06	1.013438e-06	8.348354e-10	7.413833e+00	5.146391e+01
2.030000e-06	1.068577e-06	9.331093e-10	7.817207e+00	5.789163e+01
2.040000e-06	1.123673e-06	1.027699e-09	8.220262e+00	6.423473e+01
2.050000e-06	1.178666e-06	1.121178e-09	8.622566e+00	7.048171e+01
2.060000e-06	1.233570e-06	1.212717e-09	9.024218e+00	7.662165e+01
2.070000e-06	1.288362e-06	1.300392e-09	9.425046e+00	8.264429e+01
2.080000e-06	1.342969e-06	1.386745e-09	9.824527e+00	8.854008e+01
2.090000e-06	1.397483e-06	1.471898e-09	1.022333e+01	9.430023e+01
2.100000e-06	1.451941e-06	1.553743e-09	1.062172e+01	9.991676e+01
2.110000e-06	1.506251e-06	1.632409e-09	1.101902e+01	1.053825e+02
2.120000e-06	1.560462e-06	1.706424e-09	1.141560e+01	1.106913e+02
2.130000e-06	1.614580e-06	1.777086e-09	1.181151e+01	1.158378e+02
2.140000e-06	1.668669e-06	1.845365e-09	1.220720e+01	1.208176e+02
2.150000e-06	1.722691e-06	1.912670e-09	1.260240e+01	1.256273e+02
2.160000e-06	1.776534e-06	1.977381e-09	1.299629e+01	1.302643e+02
2.170000e-06	1.830176e-06	2.040105e-09	1.338870e+01	1.347271e+02
2.180000e-06	1.883710e-06	2.100373e-09	1.378033e+01	1.390150e+02
2.190000e-06	1.937130e-06	2.157614e-09	1.417113e+01	1.431284e+02
2.200000e-06	1.990412e-06	2.211723e-09	1.456091e+01	1.470683e+02
2.210000e-06	2.043556e-06	2.261092e-09	1.494970e+01	1.508367e+02
2.220000e-06	2.096494e-06	2.306606e-09	1.533696e+01	1.544365e+02
2.230000e-06	2.149274e-06	2.349975e-09	1.572308e+01	1.578712e+02
2.240000e-06	2.201901e-06	2.392826e-09	1.610807e+01	1.611451e+02
2.250000e-06	2.254374e-06	2.434535e-09	1.649194e+01	1.642631e+02
2.260000e-06	2.306637e-06	2.473269e-09	1.687427e+01	1.672306e+02
2.270000e-06	2.358685e-06	2.511004e-09	1.725503e+01	1.700537e+02
2.280000e-06	2.410546e-06	2.550058e-09	1.763442e+01	1.727389e+02
2.290000e-06	2.462288e-06	2.588843e-09	1.801294e+01	1.752931e+02
2.300000e-06	2.513893e-06	2.624387e-09	1.839046e+01	1.777234e+02
2.310000e-06	2.565339e-06	2.656891e-09	1.876681e+01	1.800372e+02
2.320000e-06	2.616639e-06	2.688910e-09	1.914209e+01	1.822422e+02
2.330000e-06	2.667604e-06	2.719126e-09	1.951493e+01	1.843460e+02
2.340000e-06	2.718206e-06	2.745727e-09	1.988512e+01	1.863564e+02
2.350000e-06	2.768530e-06	2.771633e-09	2.025326e+01	1.882810e+02
2.360000e-06	2.818465e-06	2.798536e-09	2.061856e+01	1.901275e+02
2.370000e-06	2.868012e-06	2.827008e-09	2.098102e+01	1.919033e+02
2.380000e-06	2.917203e-06	2.855438e-09	2.134088e+01	1.936155e+02
2.390000e-06	2.966036e-06	2.882971e-09	2.169812e+01	1.952712e+02
2.400000e-06	3.014621e-06	2.908549e-09	2.205355e+01	1.968768e+02
2.410000e-06	3.063028e-06	2.931770e-09	2.240767e+01	1.984386e+02
2.420000e-06	3.111240e-06	2.954826e-09	2.276036e+01	1.999625e+02
2.430000e-06	3.159280e-06	2.974693e-09	2.311180e+01	2.014537e+02
2.440000e-06	3.207113e-06	2.995004e-09	2.346173e+01	2.029172e+02
2.450000e-06	3.254778e-06	3.015861e-09	2.381042e+01	2.043575e+02
2.460000e-06	3.302297e-06	3.036810e-09	2.415805e+01	2.057783e+02
2.470000e-06	3.349575e-06	3.057744e-09	2.450392e+01	2.071832e+02
2.480000e-06	3.396684e-06	3.079287e-09	2.484854e+01	2.085748e+02
2.490000e-06	3.443599e-06	3.100155e-09	2.519175e+01	2.099557e+02
2.500000e-06	3.490149e-06	3.118845e-09	2.553228e+01	2.113277e+02
2.510000e-06	3.536378e-06	3.137035e-09	2.587048e+01	2.126920e+02
2.520000e-06	3.582438e-06	3.153175e-09	2.620743e+01	2.140496e+02
2.530000e-06	3.628263e-06	3.167149e-09	2.654266e+01	2.154009e+02
2.540000e-06	3.673840e-06	3.183191e-09	2.687608e+01	2.167458e+02
2.550000e-06	3.719230e-06	3.199847e-09	2.720813e+01	2.180840e+02
2.560000e-06	3.764330e-06	3.214923e-09	2.753806e+01	2.194148e+02
2.570000e-06	3.809120e-06	3.231589e-09	2.786573e+01	2.207370e+02
2.580000e-06	3.853642e-06	3.250064e-09	2.819143e+01	2.220492e+02
2.590000e-06	3.897890e-06	3.265762e-09	2.851513e+01	2.233500e+02
2.600000e-06	3.941929e-06	3.279198e-09	2.883729e+01	2.246375e+02
2.610000e-06	3.985839e-06	3.293448e-09	2.915852e+01	2.259098e+02
2.620000e-06	4.029629e-06	3.306677e-09	2.947887e+01	2.271648e+02
2.630000e-06	4.073260e-06	3.319290e-09	2.979805e+01	2.284005e+02
2.640000e-06	4.116637e-06	3.332225e-09	3.011538e+01	2.296147e+02
2.650000e-06	4.159674e-06	3.347391e-09	3.043021e+01	2.308053e+02
2.660000e-06	4.202288e-06	3.366383e-09	3.074196e+01	2.319703e+02
2.670000e-06	4.244415e-06	3.384762e-09	3.105014e+01	2.331078e+02
2.680000e-06	4.285942e-06	3.399466e-09	3.135394e+01	2.342160e+02
2.690000e-06	4.326948e-06	3.413131e-09	3.165391e+01	2.352932e+02
2.700000e-06	4.367639e-06	3.427393e-09	3.195159e+01	2.363379e+02
2.710000e-06	4.408020e-06	3.439234e-09	3.224700e+01	2.373491e+02
2.720000e-06	4.448103e-06	3.447132e-09	3.254023e+01	2.383256e+02
2.730000e-06	4.487928e-06	3.457636e-09	3.283156e+01	2.392667e+02
2.740000e-06	4.527532e-06	3.469867e-09	3.312129e+01	2.401721e+02
2.750000e-06	4.566946e-06	3.483030e-09	3.340963e+01	2.410414e+02
2.760000e-06	4.606124e-06	3.496277e-09	3.369623e+01	2.418748e+02
2.770000e-06	4.644961e-06	3.508187e-09	3.398034e+01	2.426726e+02
2.780000e-06	4.683329e-06	3.519988e-09	3.426103e+01	2.434355e+02
2.790000e-06	4.721334e-06	3.532001e-09	3.453906e+01	2.441644e+02
2.800000e-06	4.759105e-06	3.542683e-09	3.481537e+01	2.448603e+02
2.810000e-06	4.796581e-06	3.551998e-09	3.508953e+01	2.455247e+02
2.820000e-06	4.833778e-06	3.560846e-09	3.536164e+01	2.461591e+02
2.830000e-06	4.870611e-06	3.571055e-09	3.563109e+01	2.467654e+02
2.840000e-06	4.907093e-06	3.582546e-09	3.589798e+01	2.473455e+02
2.850000e-06	4.943295e-06	3.593264e-09	3.616282e+01	2.479015e+02
2.860000e-06	4.979235e-06	3.604429e-09	3.642574e+01	2.484356e+02
2.870000e-06	5.014969e-06	3.616825e-09	3.668715e+01	2.489502e+02
2.880000e-06	5.050479e-06	3.628796e-09	3.694692e+01	2.494474e+02
2.890000e-06	5.085638e-06	3.636723e-09	3.720413e+01	2.499298e+02
2.900000e-06	5.120346e-06	3.641914e-09	3.745804e+01	2.503997e+02
