# Temperatura_=_20.0
# Concentracion g/m^3_=_9000.0
# C_Vs_to_Am_M_A/Vsm_=_65563218390.804596
# pendiente_HvsI_1/m_=_3716.3
# ordenada_HvsI_A/m_=_1297.0
# frecuencia_Hz_=_135338.5313009791

Tiempo_(s)	Campo_(V.s)	Magnetizacion_(V.s)	Campo_(kA/m)	Magnetizacion_(A/m)
0.000000e+00	-6.517173e-06	-4.015519e-09	-4.772767e+01	-2.720269e+02
1.000000e-08	-6.517193e-06	-4.012760e-09	-4.772782e+01	-2.720152e+02
2.000000e-08	-6.516919e-06	-4.010193e-09	-4.772581e+01	-2.719912e+02
3.000000e-08	-6.516232e-06	-4.010008e-09	-4.772078e+01	-2.719539e+02
4.000000e-08	-6.514929e-06	-4.009015e-09	-4.771124e+01	-2.719024e+02
5.000000e-08	-6.512891e-06	-4.007162e-09	-4.769632e+01	-2.718358e+02
6.000000e-08	-6.510133e-06	-4.006248e-09	-4.767612e+01	-2.717534e+02
7.000000e-08	-6.506814e-06	-4.006737e-09	-4.765181e+01	-2.716546e+02
8.000000e-08	-6.503082e-06	-3.989494e-09	-4.762448e+01	-2.715387e+02
9.000000e-08	-6.498973e-06	-3.968885e-09	-4.759439e+01	-2.714054e+02
1.000000e-07	-6.494342e-06	-4.003734e-09	-4.756047e+01	-2.712545e+02
1.100000e-07	-6.489034e-06	-4.089252e-09	-4.752160e+01	-2.710857e+02
1.200000e-07	-6.483211e-06	-4.075690e-09	-4.747896e+01	-2.708991e+02
1.300000e-07	-6.477052e-06	-3.911126e-09	-4.743386e+01	-2.706949e+02
1.400000e-07	-6.470642e-06	-3.824407e-09	-4.738691e+01	-2.704733e+02
1.500000e-07	-6.463898e-06	-3.992686e-09	-4.733752e+01	-2.702347e+02
1.600000e-07	-6.456687e-06	-4.119749e-09	-4.728471e+01	-2.699799e+02
1.700000e-07	-6.449072e-06	-3.976374e-09	-4.722895e+01	-2.697094e+02
1.800000e-07	-6.441144e-06	-3.853445e-09	-4.717088e+01	-2.694242e+02
1.900000e-07	-6.432853e-06	-3.905274e-09	-4.711017e+01	-2.691252e+02
2.000000e-07	-6.424189e-06	-4.027637e-09	-4.704672e+01	-2.688134e+02
2.100000e-07	-6.415064e-06	-4.025950e-09	-4.697989e+01	-2.684901e+02
2.200000e-07	-6.405223e-06	-3.895957e-09	-4.690782e+01	-2.681565e+02
2.300000e-07	-6.394424e-06	-3.748645e-09	-4.682874e+01	-2.678139e+02
2.400000e-07	-6.383037e-06	-3.855524e-09	-4.674535e+01	-2.674636e+02
2.500000e-07	-6.371389e-06	-4.090405e-09	-4.666004e+01	-2.671071e+02
2.600000e-07	-6.359157e-06	-4.015090e-09	-4.657046e+01	-2.667458e+02
2.700000e-07	-6.346190e-06	-3.745826e-09	-4.647550e+01	-2.663810e+02
2.800000e-07	-6.332825e-06	-3.822863e-09	-4.637763e+01	-2.660141e+02
2.900000e-07	-6.319160e-06	-4.131392e-09	-4.627755e+01	-2.656465e+02
3.000000e-07	-6.304771e-06	-4.105549e-09	-4.617218e+01	-2.652794e+02
3.100000e-07	-6.289699e-06	-3.863697e-09	-4.606180e+01	-2.649141e+02
3.200000e-07	-6.274172e-06	-3.934106e-09	-4.594809e+01	-2.645517e+02
3.300000e-07	-6.257951e-06	-4.132422e-09	-4.582930e+01	-2.641932e+02
3.400000e-07	-6.241123e-06	-4.077062e-09	-4.570606e+01	-2.638395e+02
3.500000e-07	-6.224043e-06	-4.023283e-09	-4.558098e+01	-2.634913e+02
3.600000e-07	-6.206635e-06	-4.014156e-09	-4.545349e+01	-2.631493e+02
3.700000e-07	-6.188766e-06	-3.930180e-09	-4.532263e+01	-2.628139e+02
3.800000e-07	-6.170589e-06	-3.982979e-09	-4.518951e+01	-2.624856e+02
3.900000e-07	-6.152098e-06	-4.184328e-09	-4.505409e+01	-2.621644e+02
4.000000e-07	-6.132996e-06	-4.089291e-09	-4.491421e+01	-2.618503e+02
4.100000e-07	-6.113351e-06	-3.903451e-09	-4.477034e+01	-2.615432e+02
4.200000e-07	-6.093437e-06	-4.082500e-09	-4.462450e+01	-2.612428e+02
4.300000e-07	-6.073358e-06	-4.283523e-09	-4.447745e+01	-2.609486e+02
4.400000e-07	-6.052941e-06	-4.100065e-09	-4.432793e+01	-2.606599e+02
4.500000e-07	-6.032032e-06	-3.959657e-09	-4.417481e+01	-2.603760e+02
4.600000e-07	-6.010746e-06	-4.139482e-09	-4.401892e+01	-2.600960e+02
4.700000e-07	-5.989143e-06	-4.257387e-09	-4.386071e+01	-2.598189e+02
4.800000e-07	-5.967125e-06	-4.098068e-09	-4.369947e+01	-2.595436e+02
4.900000e-07	-5.944607e-06	-4.013444e-09	-4.353456e+01	-2.592687e+02
5.000000e-07	-5.921660e-06	-4.108922e-09	-4.336651e+01	-2.589931e+02
5.100000e-07	-5.898317e-06	-4.143741e-09	-4.319556e+01	-2.587153e+02
5.200000e-07	-5.874589e-06	-4.095533e-09	-4.302179e+01	-2.584340e+02
5.300000e-07	-5.850578e-06	-4.082414e-09	-4.284595e+01	-2.581477e+02
5.400000e-07	-5.826217e-06	-4.053808e-09	-4.266755e+01	-2.578550e+02
5.500000e-07	-5.801332e-06	-4.032659e-09	-4.248530e+01	-2.575545e+02
5.600000e-07	-5.775892e-06	-4.107994e-09	-4.229900e+01	-2.572449e+02
5.700000e-07	-5.749847e-06	-4.109107e-09	-4.210826e+01	-2.569248e+02
5.800000e-07	-5.723103e-06	-3.979848e-09	-4.191240e+01	-2.565929e+02
5.900000e-07	-5.695824e-06	-3.973688e-09	-4.171263e+01	-2.562481e+02
6.000000e-07	-5.668295e-06	-4.099003e-09	-4.151103e+01	-2.558893e+02
6.100000e-07	-5.640515e-06	-4.074148e-09	-4.130758e+01	-2.555155e+02
6.200000e-07	-5.612374e-06	-3.957834e-09	-4.110150e+01	-2.551260e+02
6.300000e-07	-5.583972e-06	-3.962526e-09	-4.089350e+01	-2.547201e+02
6.400000e-07	-5.555212e-06	-4.032778e-09	-4.068288e+01	-2.542971e+02
6.500000e-07	-5.525960e-06	-4.016991e-09	-4.046865e+01	-2.538568e+02
6.600000e-07	-5.496316e-06	-3.957586e-09	-4.025156e+01	-2.533990e+02
6.700000e-07	-5.466290e-06	-3.932969e-09	-4.003167e+01	-2.529235e+02
6.800000e-07	-5.435914e-06	-3.961862e-09	-3.980921e+01	-2.524304e+02
6.900000e-07	-5.405139e-06	-3.983580e-09	-3.958383e+01	-2.519201e+02
7.000000e-07	-5.374015e-06	-3.960482e-09	-3.935590e+01	-2.513929e+02
7.100000e-07	-5.342627e-06	-3.925428e-09	-3.912604e+01	-2.508494e+02
7.200000e-07	-5.310972e-06	-3.923877e-09	-3.889422e+01	-2.502903e+02
7.300000e-07	-5.279102e-06	-3.939661e-09	-3.866082e+01	-2.497165e+02
7.400000e-07	-5.246943e-06	-3.942056e-09	-3.842531e+01	-2.491288e+02
7.500000e-07	-5.214370e-06	-3.906445e-09	-3.818677e+01	-2.485283e+02
7.600000e-07	-5.181237e-06	-3.872148e-09	-3.794412e+01	-2.479162e+02
7.700000e-07	-5.147455e-06	-3.889890e-09	-3.769672e+01	-2.472936e+02
7.800000e-07	-5.113077e-06	-3.918685e-09	-3.744496e+01	-2.466618e+02
7.900000e-07	-5.078165e-06	-3.881736e-09	-3.718928e+01	-2.460221e+02
8.000000e-07	-5.042818e-06	-3.831047e-09	-3.693043e+01	-2.453756e+02
8.100000e-07	-5.007192e-06	-3.845158e-09	-3.666952e+01	-2.447237e+02
8.200000e-07	-4.971331e-06	-3.871086e-09	-3.640690e+01	-2.440676e+02
8.300000e-07	-4.935258e-06	-3.839787e-09	-3.614272e+01	-2.434085e+02
8.400000e-07	-4.898933e-06	-3.798416e-09	-3.587671e+01	-2.427474e+02
8.500000e-07	-4.862247e-06	-3.803457e-09	-3.560804e+01	-2.420854e+02
8.600000e-07	-4.825165e-06	-3.818652e-09	-3.533647e+01	-2.414233e+02
8.700000e-07	-4.787780e-06	-3.806792e-09	-3.506268e+01	-2.407619e+02
8.800000e-07	-4.750136e-06	-3.775891e-09	-3.478701e+01	-2.401018e+02
8.900000e-07	-4.712153e-06	-3.759868e-09	-3.450884e+01	-2.394434e+02
9.000000e-07	-4.673822e-06	-3.762644e-09	-3.422813e+01	-2.387871e+02
9.100000e-07	-4.635149e-06	-3.766564e-09	-3.394492e+01	-2.381329e+02
9.200000e-07	-4.596187e-06	-3.742533e-09	-3.365958e+01	-2.374808e+02
9.300000e-07	-4.556957e-06	-3.710373e-09	-3.337229e+01	-2.368304e+02
9.400000e-07	-4.517423e-06	-3.700457e-09	-3.308276e+01	-2.361814e+02
9.500000e-07	-4.477661e-06	-3.708655e-09	-3.279157e+01	-2.355331e+02
9.600000e-07	-4.437723e-06	-3.696128e-09	-3.249909e+01	-2.348846e+02
9.700000e-07	-4.397540e-06	-3.662030e-09	-3.220481e+01	-2.342350e+02
9.800000e-07	-4.357037e-06	-3.640605e-09	-3.190820e+01	-2.335830e+02
9.900000e-07	-4.316134e-06	-3.646850e-09	-3.160865e+01	-2.329273e+02
1.000000e-06	-4.274668e-06	-3.646389e-09	-3.130498e+01	-2.322665e+02
1.010000e-06	-4.232732e-06	-3.620319e-09	-3.099787e+01	-2.315988e+02
1.020000e-06	-4.190485e-06	-3.594248e-09	-3.068847e+01	-2.309226e+02
1.030000e-06	-4.147819e-06	-3.590294e-09	-3.037602e+01	-2.302361e+02
1.040000e-06	-4.104723e-06	-3.585773e-09	-3.006041e+01	-2.295373e+02
1.050000e-06	-4.061248e-06	-3.563065e-09	-2.974202e+01	-2.288244e+02
1.060000e-06	-4.017453e-06	-3.536988e-09	-2.942130e+01	-2.280952e+02
1.070000e-06	-3.973443e-06	-3.522660e-09	-2.909899e+01	-2.273480e+02
1.080000e-06	-3.929220e-06	-3.515638e-09	-2.877513e+01	-2.265808e+02
1.090000e-06	-3.884844e-06	-3.503663e-09	-2.845015e+01	-2.257916e+02
1.100000e-06	-3.840324e-06	-3.484133e-09	-2.812412e+01	-2.249787e+02
1.110000e-06	-3.795526e-06	-3.462047e-09	-2.779604e+01	-2.241404e+02
1.120000e-06	-3.750431e-06	-3.447321e-09	-2.746580e+01	-2.232750e+02
1.130000e-06	-3.705090e-06	-3.436358e-09	-2.713375e+01	-2.223812e+02
1.140000e-06	-3.659467e-06	-3.418371e-09	-2.679963e+01	-2.214576e+02
1.150000e-06	-3.613585e-06	-3.391487e-09	-2.646362e+01	-2.205032e+02
1.160000e-06	-3.567455e-06	-3.373708e-09	-2.612580e+01	-2.195170e+02
1.170000e-06	-3.521060e-06	-3.363738e-09	-2.578603e+01	-2.184983e+02
1.180000e-06	-3.474444e-06	-3.348291e-09	-2.544464e+01	-2.174467e+02
1.190000e-06	-3.427725e-06	-3.326394e-09	-2.510250e+01	-2.163619e+02
1.200000e-06	-3.380733e-06	-3.309775e-09	-2.475836e+01	-2.152438e+02
1.210000e-06	-3.333386e-06	-3.297031e-09	-2.441162e+01	-2.140927e+02
1.220000e-06	-3.285812e-06	-3.279754e-09	-2.406322e+01	-2.129090e+02
1.230000e-06	-3.238003e-06	-3.256698e-09	-2.371309e+01	-2.116933e+02
1.240000e-06	-3.190027e-06	-3.235705e-09	-2.336175e+01	-2.104464e+02
1.250000e-06	-3.141817e-06	-3.216716e-09	-2.300869e+01	-2.091695e+02
1.260000e-06	-3.093365e-06	-3.197367e-09	-2.265386e+01	-2.078637e+02
1.270000e-06	-3.044758e-06	-3.178393e-09	-2.229789e+01	-2.065303e+02
1.280000e-06	-2.995932e-06	-3.158400e-09	-2.194032e+01	-2.051710e+02
1.290000e-06	-2.946795e-06	-3.138998e-09	-2.158047e+01	-2.037872e+02
1.300000e-06	-2.897234e-06	-3.120931e-09	-2.121752e+01	-2.023808e+02
1.310000e-06	-2.847328e-06	-3.101544e-09	-2.085204e+01	-2.009533e+02
1.320000e-06	-2.797203e-06	-3.077889e-09	-2.048496e+01	-1.995066e+02
1.330000e-06	-2.746630e-06	-3.053878e-09	-2.011459e+01	-1.980424e+02
1.340000e-06	-2.695713e-06	-3.033193e-09	-1.974170e+01	-1.965623e+02
1.350000e-06	-2.644664e-06	-3.011773e-09	-1.936785e+01	-1.950678e+02
1.360000e-06	-2.593377e-06	-2.985111e-09	-1.899226e+01	-1.935604e+02
1.370000e-06	-2.541873e-06	-2.959108e-09	-1.861508e+01	-1.920413e+02
1.380000e-06	-2.490066e-06	-2.938581e-09	-1.823567e+01	-1.905116e+02
1.390000e-06	-2.438001e-06	-2.919078e-09	-1.785439e+01	-1.889721e+02
1.400000e-06	-2.385915e-06	-2.893462e-09	-1.747294e+01	-1.874231e+02
1.410000e-06	-2.333750e-06	-2.865333e-09	-1.709091e+01	-1.858650e+02
1.420000e-06	-2.281369e-06	-2.840847e-09	-1.670731e+01	-1.842976e+02
1.430000e-06	-2.228769e-06	-2.815442e-09	-1.632210e+01	-1.827203e+02
1.440000e-06	-2.176006e-06	-2.784592e-09	-1.593570e+01	-1.811323e+02
1.450000e-06	-2.123131e-06	-2.753728e-09	-1.554847e+01	-1.795321e+02
1.460000e-06	-2.070055e-06	-2.726363e-09	-1.515978e+01	-1.779180e+02
1.470000e-06	-2.016790e-06	-2.700812e-09	-1.476970e+01	-1.762878e+02
1.480000e-06	-1.963459e-06	-2.673007e-09	-1.437914e+01	-1.746387e+02
1.490000e-06	-1.910009e-06	-2.640391e-09	-1.398770e+01	-1.729678e+02
1.500000e-06	-1.856410e-06	-2.607743e-09	-1.359518e+01	-1.712713e+02
1.510000e-06	-1.802662e-06	-2.579862e-09	-1.320156e+01	-1.695452e+02
1.520000e-06	-1.748756e-06	-2.552685e-09	-1.280679e+01	-1.677852e+02
1.530000e-06	-1.694764e-06	-2.520089e-09	-1.241139e+01	-1.659862e+02
1.540000e-06	-1.640723e-06	-2.485331e-09	-1.201562e+01	-1.641431e+02
1.550000e-06	-1.586549e-06	-2.455707e-09	-1.161888e+01	-1.622502e+02
1.560000e-06	-1.532265e-06	-2.426303e-09	-1.122134e+01	-1.603015e+02
1.570000e-06	-1.477941e-06	-2.388832e-09	-1.082351e+01	-1.582908e+02
1.580000e-06	-1.423483e-06	-2.348632e-09	-1.042469e+01	-1.562116e+02
1.590000e-06	-1.368866e-06	-2.310236e-09	-1.002472e+01	-1.540572e+02
1.600000e-06	-1.314171e-06	-2.272090e-09	-9.624163e+00	-1.518207e+02
1.610000e-06	-1.259440e-06	-2.229668e-09	-9.223349e+00	-1.494952e+02
1.620000e-06	-1.204595e-06	-2.185347e-09	-8.821695e+00	-1.470738e+02
1.630000e-06	-1.149567e-06	-2.143246e-09	-8.418705e+00	-1.445495e+02
1.640000e-06	-1.094434e-06	-2.103663e-09	-8.014945e+00	-1.419153e+02
1.650000e-06	-1.039241e-06	-2.063459e-09	-7.610747e+00	-1.391647e+02
1.660000e-06	-9.840127e-07	-2.018377e-09	-7.206290e+00	-1.362911e+02
1.670000e-06	-9.287730e-07	-1.970685e-09	-6.801749e+00	-1.332883e+02
1.680000e-06	-8.734984e-07	-1.922300e-09	-6.396952e+00	-1.301505e+02
1.690000e-06	-8.182182e-07	-1.872310e-09	-5.992115e+00	-1.268721e+02
1.700000e-06	-7.629628e-07	-1.820848e-09	-5.587460e+00	-1.234481e+02
1.710000e-06	-7.076595e-07	-1.767380e-09	-5.182453e+00	-1.198742e+02
1.720000e-06	-6.522497e-07	-1.710753e-09	-4.776666e+00	-1.161464e+02
1.730000e-06	-5.967866e-07	-1.650361e-09	-4.370489e+00	-1.122614e+02
1.740000e-06	-5.413018e-07	-1.590225e-09	-3.964154e+00	-1.082168e+02
1.750000e-06	-4.858182e-07	-1.530542e-09	-3.557827e+00	-1.040107e+02
1.760000e-06	-4.303553e-07	-1.467928e-09	-3.151651e+00	-9.964204e+01
1.770000e-06	-3.748449e-07	-1.401494e-09	-2.745128e+00	-9.511057e+01
1.780000e-06	-3.193082e-07	-1.332259e-09	-2.338412e+00	-9.041688e+01
1.790000e-06	-2.638161e-07	-1.263127e-09	-1.932023e+00	-8.556240e+01
1.800000e-06	-2.083019e-07	-1.190633e-09	-1.525472e+00	-8.054943e+01
1.810000e-06	-1.527463e-07	-1.112247e-09	-1.118618e+00	-7.538114e+01
1.820000e-06	-9.722082e-08	-1.032309e-09	-7.119841e-01	-7.006160e+01
1.830000e-06	-4.168628e-08	-9.539257e-10	-3.052841e-01	-6.459571e+01
1.840000e-06	1.382731e-08	-8.740386e-10	1.012625e-01	-5.898927e+01
1.850000e-06	6.936300e-08	-7.907050e-10	5.079710e-01	-5.324888e+01
1.860000e-06	1.249598e-07	-7.027446e-10	9.151272e-01	-4.738197e+01
1.870000e-06	1.805731e-07	-6.110881e-10	1.322404e+00	-4.139675e+01
1.880000e-06	2.361541e-07	-5.188991e-10	1.729444e+00	-3.530214e+01
1.890000e-06	2.916983e-07	-4.246287e-10	2.136215e+00	-2.910776e+01
1.900000e-06	3.472762e-07	-3.253962e-10	2.543232e+00	-2.282388e+01
1.910000e-06	4.028327e-07	-2.235651e-10	2.950093e+00	-1.646132e+01
1.920000e-06	4.583229e-07	-1.230500e-10	3.356468e+00	-1.003142e+01
1.930000e-06	5.138056e-07	-2.132958e-11	3.762789e+00	-3.545986e+00
1.940000e-06	5.692711e-07	7.925005e-11	4.168983e+00	2.982835e+00
1.950000e-06	6.247000e-07	1.806900e-10	4.574910e+00	9.542579e+00
1.960000e-06	6.800689e-07	2.852379e-10	4.980397e+00	1.612057e+01
1.970000e-06	7.353692e-07	3.885002e-10	5.385381e+00	2.270398e+01
1.980000e-06	7.906601e-07	4.917812e-10	5.790297e+00	2.927994e+01
1.990000e-06	8.459221e-07	5.982444e-10	6.195001e+00	3.583559e+01
2.000000e-06	9.011219e-07	7.032454e-10	6.599250e+00	4.235818e+01
2.010000e-06	9.562411e-07	8.046082e-10	7.002908e+00	4.883513e+01
2.020000e-06	1.011354e-06	9.065242e-10	7.406519e+00	5.525415e+01
2.030000e-06	1.066424e-06	1.008215e-09	7.809821e+00	6.160326e+01
2.040000e-06	1.121369e-06	1.104103e-09	8.212202e+00	6.787093e+01
2.050000e-06	1.176266e-06	1.197065e-09	8.614232e+00	7.404607e+01
2.060000e-06	1.231159e-06	1.290551e-09	9.016233e+00	8.011819e+01
2.070000e-06	1.285989e-06	1.379285e-09	9.417775e+00	8.607737e+01
2.080000e-06	1.340616e-06	1.463661e-09	9.817827e+00	9.191439e+01
2.090000e-06	1.395090e-06	1.548112e-09	1.021676e+01	9.762073e+01
2.100000e-06	1.449489e-06	1.632742e-09	1.061515e+01	1.031887e+02
2.110000e-06	1.503777e-06	1.713825e-09	1.101272e+01	1.086112e+02
2.120000e-06	1.557895e-06	1.790089e-09	1.140904e+01	1.138823e+02
2.130000e-06	1.611868e-06	1.861990e-09	1.180431e+01	1.189966e+02
2.140000e-06	1.665825e-06	1.932680e-09	1.219945e+01	1.239499e+02
2.150000e-06	1.719740e-06	2.002917e-09	1.259429e+01	1.287386e+02
2.160000e-06	1.773501e-06	2.067329e-09	1.298800e+01	1.333601e+02
2.170000e-06	1.827069e-06	2.126377e-09	1.338030e+01	1.378128e+02
2.180000e-06	1.880550e-06	2.184835e-09	1.377196e+01	1.420957e+02
2.190000e-06	1.933929e-06	2.241954e-09	1.416288e+01	1.462090e+02
2.200000e-06	1.987174e-06	2.297457e-09	1.455281e+01	1.501534e+02
2.210000e-06	2.040298e-06	2.349333e-09	1.494186e+01	1.539307e+02
2.220000e-06	2.093260e-06	2.397987e-09	1.532972e+01	1.575433e+02
2.230000e-06	2.146077e-06	2.444067e-09	1.571652e+01	1.609943e+02
2.240000e-06	2.198700e-06	2.490890e-09	1.610190e+01	1.642875e+02
2.250000e-06	2.251113e-06	2.536949e-09	1.648573e+01	1.674276e+02
2.260000e-06	2.303378e-06	2.574832e-09	1.686849e+01	1.704193e+02
2.270000e-06	2.355499e-06	2.609579e-09	1.725019e+01	1.732684e+02
2.280000e-06	2.407426e-06	2.647389e-09	1.763047e+01	1.759808e+02
2.290000e-06	2.459183e-06	2.685306e-09	1.800951e+01	1.785629e+02
2.300000e-06	2.510753e-06	2.720788e-09	1.838717e+01	1.810214e+02
2.310000e-06	2.562104e-06	2.756941e-09	1.876324e+01	1.833632e+02
2.320000e-06	2.613311e-06	2.794558e-09	1.913824e+01	1.855955e+02
2.330000e-06	2.664300e-06	2.829141e-09	1.951166e+01	1.877256e+02
2.340000e-06	2.714975e-06	2.860060e-09	1.988277e+01	1.897607e+02
2.350000e-06	2.765347e-06	2.886587e-09	2.025166e+01	1.917083e+02
2.360000e-06	2.815305e-06	2.910895e-09	2.061752e+01	1.935755e+02
2.370000e-06	2.864832e-06	2.938065e-09	2.098023e+01	1.953694e+02
2.380000e-06	2.914033e-06	2.966993e-09	2.134054e+01	1.970971e+02
2.390000e-06	2.962862e-06	2.995588e-09	2.169814e+01	1.987653e+02
2.400000e-06	3.011376e-06	3.024940e-09	2.205342e+01	2.003803e+02
2.410000e-06	3.059680e-06	3.055346e-09	2.240717e+01	2.019483e+02
2.420000e-06	3.107842e-06	3.085871e-09	2.275988e+01	2.034750e+02
2.430000e-06	3.155820e-06	3.111947e-09	2.311124e+01	2.049659e+02
2.440000e-06	3.203565e-06	3.131768e-09	2.346090e+01	2.064257e+02
2.450000e-06	3.251170e-06	3.150075e-09	2.380953e+01	2.078591e+02
2.460000e-06	3.298572e-06	3.169555e-09	2.415667e+01	2.092700e+02
2.470000e-06	3.345785e-06	3.190902e-09	2.450243e+01	2.106619e+02
2.480000e-06	3.392886e-06	3.211690e-09	2.484736e+01	2.120380e+02
2.490000e-06	3.439670e-06	3.233417e-09	2.518998e+01	2.134009e+02
2.500000e-06	3.486138e-06	3.257201e-09	2.553028e+01	2.147526e+02
2.510000e-06	3.532351e-06	3.281275e-09	2.586871e+01	2.160948e+02
2.520000e-06	3.578277e-06	3.302290e-09	2.620505e+01	2.174287e+02
2.530000e-06	3.623995e-06	3.320116e-09	2.653986e+01	2.187550e+02
2.540000e-06	3.669477e-06	3.337985e-09	2.687294e+01	2.200741e+02
2.550000e-06	3.714694e-06	3.355927e-09	2.720408e+01	2.213860e+02
2.560000e-06	3.759708e-06	3.372977e-09	2.753374e+01	2.226902e+02
2.570000e-06	3.804488e-06	3.391283e-09	2.786167e+01	2.239860e+02
2.580000e-06	3.848996e-06	3.410640e-09	2.818762e+01	2.252723e+02
2.590000e-06	3.893282e-06	3.428661e-09	2.851194e+01	2.265480e+02
2.600000e-06	3.937311e-06	3.445258e-09	2.883439e+01	2.278115e+02
2.610000e-06	3.981161e-06	3.462567e-09	2.915552e+01	2.290612e+02
2.620000e-06	4.024924e-06	3.479785e-09	2.947601e+01	2.302952e+02
2.630000e-06	4.068524e-06	3.495560e-09	2.979531e+01	2.315117e+02
2.640000e-06	4.111864e-06	3.509217e-09	3.011270e+01	2.327087e+02
2.650000e-06	4.154954e-06	3.524168e-09	3.042827e+01	2.338843e+02
2.660000e-06	4.197678e-06	3.542814e-09	3.074115e+01	2.350364e+02
2.670000e-06	4.239819e-06	3.559508e-09	3.104977e+01	2.361633e+02
2.680000e-06	4.281398e-06	3.575538e-09	3.135426e+01	2.372630e+02
2.690000e-06	4.322499e-06	3.591770e-09	3.165526e+01	2.383339e+02
2.700000e-06	4.363132e-06	3.606822e-09	3.195283e+01	2.393745e+02
2.710000e-06	4.403385e-06	3.619827e-09	3.224762e+01	2.403833e+02
2.720000e-06	4.443355e-06	3.631330e-09	3.254034e+01	2.413592e+02
2.730000e-06	4.483120e-06	3.643543e-09	3.283155e+01	2.423012e+02
2.740000e-06	4.522676e-06	3.655387e-09	3.312124e+01	2.432086e+02
2.750000e-06	4.562035e-06	3.669596e-09	3.340947e+01	2.440808e+02
2.760000e-06	4.601166e-06	3.685199e-09	3.369604e+01	2.449175e+02
2.770000e-06	4.639951e-06	3.698618e-09	3.398008e+01	2.457189e+02
2.780000e-06	4.678372e-06	3.708112e-09	3.426145e+01	2.464850e+02
2.790000e-06	4.716460e-06	3.716113e-09	3.454038e+01	2.472164e+02
2.800000e-06	4.754238e-06	3.725901e-09	3.481705e+01	2.479138e+02
2.810000e-06	4.791686e-06	3.737324e-09	3.509129e+01	2.485781e+02
2.820000e-06	4.828751e-06	3.748876e-09	3.536273e+01	2.492104e+02
2.830000e-06	4.865486e-06	3.760912e-09	3.563176e+01	2.498123e+02
2.840000e-06	4.901919e-06	3.772633e-09	3.589857e+01	2.503850e+02
2.850000e-06	4.938068e-06	3.783869e-09	3.616330e+01	2.509305e+02
2.860000e-06	4.973932e-06	3.795895e-09	3.642595e+01	2.514505e+02
2.870000e-06	5.009566e-06	3.805535e-09	3.668691e+01	2.519470e+02
2.880000e-06	5.045018e-06	3.813877e-09	3.694654e+01	2.524220e+02
2.890000e-06	5.080228e-06	3.821156e-09	3.720439e+01	2.528776e+02
2.900000e-06	5.115069e-06	3.829180e-09	3.745954e+01	2.533161e+02
