# Temperatura_=_20.0
# Concentracion g/m^3_=_12600.0
# C_Vs_to_Am_M_A/Vsm_=_65563218390.804596
# pendiente_HvsI_1/m_=_3716.3
# ordenada_HvsI_A/m_=_1297.0
# frecuencia_Hz_=_213150.86708232496

Tiempo_(s)	Campo_(V.s)	Magnetizacion_(V.s)	Campo_(kA/m)	Magnetizacion_(A/m)
0.000000e+00	-6.713524e-06	-3.870765e-09	-4.757927e+01	-2.537466e+02
1.000000e-08	-6.712823e-06	-3.869313e-09	-4.757430e+01	-2.537131e+02
2.000000e-08	-6.710811e-06	-3.865463e-09	-4.756005e+01	-2.536501e+02
3.000000e-08	-6.707571e-06	-3.864911e-09	-4.753708e+01	-2.535588e+02
4.000000e-08	-6.703299e-06	-3.864636e-09	-4.750681e+01	-2.534407e+02
5.000000e-08	-6.698020e-06	-3.865490e-09	-4.746939e+01	-2.532979e+02
6.000000e-08	-6.691548e-06	-3.865927e-09	-4.742353e+01	-2.531327e+02
7.000000e-08	-6.684035e-06	-3.867045e-09	-4.737028e+01	-2.529479e+02
8.000000e-08	-6.675518e-06	-3.881654e-09	-4.730992e+01	-2.527461e+02
9.000000e-08	-6.665572e-06	-3.850619e-09	-4.723943e+01	-2.525301e+02
1.000000e-07	-6.653915e-06	-3.802940e-09	-4.715682e+01	-2.523025e+02
1.100000e-07	-6.640634e-06	-3.821816e-09	-4.706270e+01	-2.520654e+02
1.200000e-07	-6.625905e-06	-3.836935e-09	-4.695831e+01	-2.518204e+02
1.300000e-07	-6.609815e-06	-3.946183e-09	-4.684428e+01	-2.515687e+02
1.400000e-07	-6.592581e-06	-3.888024e-09	-4.672214e+01	-2.513106e+02
1.500000e-07	-6.574405e-06	-3.662118e-09	-4.659333e+01	-2.510455e+02
1.600000e-07	-6.555363e-06	-3.847943e-09	-4.645838e+01	-2.507724e+02
1.700000e-07	-6.535437e-06	-3.870447e-09	-4.631716e+01	-2.504892e+02
1.800000e-07	-6.514376e-06	-3.761541e-09	-4.616789e+01	-2.501932e+02
1.900000e-07	-6.492203e-06	-3.935593e-09	-4.601075e+01	-2.498813e+02
2.000000e-07	-6.469185e-06	-3.760596e-09	-4.584762e+01	-2.495499e+02
2.100000e-07	-6.445072e-06	-3.602859e-09	-4.567673e+01	-2.491952e+02
2.200000e-07	-6.419589e-06	-3.927712e-09	-4.549614e+01	-2.488134e+02
2.300000e-07	-6.392736e-06	-3.901346e-09	-4.530582e+01	-2.484010e+02
2.400000e-07	-6.364712e-06	-3.653878e-09	-4.510721e+01	-2.479546e+02
2.500000e-07	-6.335762e-06	-3.751828e-09	-4.490204e+01	-2.474716e+02
2.600000e-07	-6.305754e-06	-3.759272e-09	-4.468937e+01	-2.469501e+02
2.700000e-07	-6.274638e-06	-3.804223e-09	-4.446885e+01	-2.463888e+02
2.800000e-07	-6.242579e-06	-3.815828e-09	-4.424165e+01	-2.457874e+02
2.900000e-07	-6.209460e-06	-3.660654e-09	-4.400693e+01	-2.451465e+02
3.000000e-07	-6.175042e-06	-3.706328e-09	-4.376301e+01	-2.444673e+02
3.100000e-07	-6.139308e-06	-3.758316e-09	-4.350976e+01	-2.437518e+02
3.200000e-07	-6.102440e-06	-3.706518e-09	-4.324847e+01	-2.430027e+02
3.300000e-07	-6.064512e-06	-3.709908e-09	-4.297967e+01	-2.422229e+02
3.400000e-07	-6.025590e-06	-3.692738e-09	-4.270383e+01	-2.414157e+02
3.500000e-07	-5.985733e-06	-3.644899e-09	-4.242136e+01	-2.405843e+02
3.600000e-07	-5.944786e-06	-3.638622e-09	-4.213117e+01	-2.397318e+02
3.700000e-07	-5.902571e-06	-3.701353e-09	-4.183199e+01	-2.388610e+02
3.800000e-07	-5.859118e-06	-3.665207e-09	-4.152403e+01	-2.379740e+02
3.900000e-07	-5.814668e-06	-3.572463e-09	-4.120901e+01	-2.370724e+02
4.000000e-07	-5.769197e-06	-3.602646e-09	-4.088676e+01	-2.361573e+02
4.100000e-07	-5.722672e-06	-3.610350e-09	-4.055703e+01	-2.352286e+02
4.200000e-07	-5.675207e-06	-3.603266e-09	-4.022064e+01	-2.342858e+02
4.300000e-07	-5.626757e-06	-3.582909e-09	-3.987727e+01	-2.333277e+02
4.400000e-07	-5.577062e-06	-3.532369e-09	-3.952507e+01	-2.323524e+02
4.500000e-07	-5.525964e-06	-3.522990e-09	-3.916294e+01	-2.313577e+02
4.600000e-07	-5.473603e-06	-3.513754e-09	-3.879186e+01	-2.303409e+02
4.700000e-07	-5.420254e-06	-3.525203e-09	-3.841376e+01	-2.292993e+02
4.800000e-07	-5.366049e-06	-3.510767e-09	-3.802961e+01	-2.282301e+02
4.900000e-07	-5.310938e-06	-3.445890e-09	-3.763903e+01	-2.271310e+02
5.000000e-07	-5.254919e-06	-3.409758e-09	-3.724202e+01	-2.259996e+02
5.100000e-07	-5.197967e-06	-3.430753e-09	-3.683840e+01	-2.248343e+02
5.200000e-07	-5.139959e-06	-3.463893e-09	-3.642729e+01	-2.236337e+02
5.300000e-07	-5.080842e-06	-3.407110e-09	-3.600832e+01	-2.223972e+02
5.400000e-07	-5.020809e-06	-3.335449e-09	-3.558287e+01	-2.211246e+02
5.500000e-07	-4.959988e-06	-3.336494e-09	-3.515182e+01	-2.198163e+02
5.600000e-07	-4.898351e-06	-3.361067e-09	-3.471500e+01	-2.184732e+02
5.700000e-07	-4.835895e-06	-3.352297e-09	-3.427237e+01	-2.170965e+02
5.800000e-07	-4.772646e-06	-3.283250e-09	-3.382412e+01	-2.156876e+02
5.900000e-07	-4.708573e-06	-3.230129e-09	-3.337003e+01	-2.142482e+02
6.000000e-07	-4.643609e-06	-3.238352e-09	-3.290962e+01	-2.127798e+02
6.100000e-07	-4.577678e-06	-3.259027e-09	-3.244237e+01	-2.112839e+02
6.200000e-07	-4.510756e-06	-3.227041e-09	-3.196808e+01	-2.097617e+02
6.300000e-07	-4.443013e-06	-3.149389e-09	-3.148798e+01	-2.082141e+02
6.400000e-07	-4.374649e-06	-3.123001e-09	-3.100348e+01	-2.066416e+02
6.500000e-07	-4.305632e-06	-3.146542e-09	-3.051435e+01	-2.050443e+02
6.600000e-07	-4.235917e-06	-3.139066e-09	-3.002028e+01	-2.034218e+02
6.700000e-07	-4.165483e-06	-3.078419e-09	-2.952111e+01	-2.017733e+02
6.800000e-07	-4.094293e-06	-3.019560e-09	-2.901658e+01	-2.000975e+02
6.900000e-07	-4.022332e-06	-3.017788e-09	-2.850659e+01	-1.983930e+02
7.000000e-07	-3.949635e-06	-3.022627e-09	-2.799138e+01	-1.966580e+02
7.100000e-07	-3.876142e-06	-2.982018e-09	-2.747052e+01	-1.948906e+02
7.200000e-07	-3.801706e-06	-2.926231e-09	-2.694299e+01	-1.930888e+02
7.300000e-07	-3.726463e-06	-2.897524e-09	-2.640974e+01	-1.912506e+02
7.400000e-07	-3.650541e-06	-2.895561e-09	-2.587167e+01	-1.893742e+02
7.500000e-07	-3.573988e-06	-2.871023e-09	-2.532913e+01	-1.874578e+02
7.600000e-07	-3.496659e-06	-2.820062e-09	-2.478110e+01	-1.855000e+02
7.700000e-07	-3.418505e-06	-2.785708e-09	-2.422721e+01	-1.834996e+02
7.800000e-07	-3.339773e-06	-2.767927e-09	-2.366923e+01	-1.814556e+02
7.900000e-07	-3.260453e-06	-2.742792e-09	-2.310709e+01	-1.793672e+02
8.000000e-07	-3.180415e-06	-2.700504e-09	-2.253985e+01	-1.772340e+02
8.100000e-07	-3.099652e-06	-2.660785e-09	-2.196748e+01	-1.750558e+02
8.200000e-07	-3.018353e-06	-2.632037e-09	-2.139130e+01	-1.728324e+02
8.300000e-07	-2.936665e-06	-2.597392e-09	-2.081238e+01	-1.705639e+02
8.400000e-07	-2.854528e-06	-2.558570e-09	-2.023027e+01	-1.682503e+02
8.500000e-07	-2.771900e-06	-2.523164e-09	-1.964467e+01	-1.658918e+02
8.600000e-07	-2.688789e-06	-2.492296e-09	-1.905566e+01	-1.634884e+02
8.700000e-07	-2.605225e-06	-2.455793e-09	-1.846343e+01	-1.610402e+02
8.800000e-07	-2.521288e-06	-2.412302e-09	-1.786857e+01	-1.585471e+02
8.900000e-07	-2.437047e-06	-2.374647e-09	-1.727154e+01	-1.560091e+02
9.000000e-07	-2.352435e-06	-2.337391e-09	-1.667189e+01	-1.534257e+02
9.100000e-07	-2.267480e-06	-2.295707e-09	-1.606981e+01	-1.507967e+02
9.200000e-07	-2.182244e-06	-2.253288e-09	-1.546573e+01	-1.481215e+02
9.300000e-07	-2.096588e-06	-2.215992e-09	-1.485868e+01	-1.453996e+02
9.400000e-07	-2.010498e-06	-2.178119e-09	-1.424856e+01	-1.426303e+02
9.500000e-07	-1.924119e-06	-2.130126e-09	-1.363638e+01	-1.398129e+02
9.600000e-07	-1.837461e-06	-2.084717e-09	-1.302223e+01	-1.369464e+02
9.700000e-07	-1.750536e-06	-2.045962e-09	-1.240619e+01	-1.340302e+02
9.800000e-07	-1.663361e-06	-2.003112e-09	-1.178837e+01	-1.310632e+02
9.900000e-07	-1.575796e-06	-1.951986e-09	-1.116779e+01	-1.280445e+02
1.000000e-06	-1.487802e-06	-1.898071e-09	-1.054417e+01	-1.249732e+02
1.010000e-06	-1.399549e-06	-1.853038e-09	-9.918716e+00	-1.218484e+02
1.020000e-06	-1.311187e-06	-1.811846e-09	-9.292485e+00	-1.186691e+02
1.030000e-06	-1.222675e-06	-1.762077e-09	-8.665197e+00	-1.154344e+02
1.040000e-06	-1.133951e-06	-1.707073e-09	-8.036397e+00	-1.121434e+02
1.050000e-06	-1.045000e-06	-1.655935e-09	-7.406000e+00	-1.087953e+02
1.060000e-06	-9.558849e-07	-1.614047e-09	-6.774431e+00	-1.053892e+02
1.070000e-06	-8.666926e-07	-1.566402e-09	-6.142318e+00	-1.019245e+02
1.080000e-06	-7.773303e-07	-1.504764e-09	-5.509001e+00	-9.840044e+01
1.090000e-06	-6.877028e-07	-1.443675e-09	-4.873804e+00	-9.481656e+01
1.100000e-06	-5.979471e-07	-1.390211e-09	-4.237698e+00	-9.117239e+01
1.110000e-06	-5.081463e-07	-1.338292e-09	-3.601272e+00	-8.746757e+01
1.120000e-06	-4.183018e-07	-1.277187e-09	-2.964538e+00	-8.370185e+01
1.130000e-06	-3.283539e-07	-1.213836e-09	-2.327070e+00	-7.987505e+01
1.140000e-06	-2.383042e-07	-1.157296e-09	-1.688880e+00	-7.598702e+01
1.150000e-06	-1.482142e-07	-1.100437e-09	-1.050406e+00	-7.203764e+01
1.160000e-06	-5.805627e-08	-1.039911e-09	-4.114494e-01	-6.802677e+01
1.170000e-06	3.208452e-08	-9.765239e-10	2.273855e-01	-6.395418e+01
1.180000e-06	1.222119e-07	-9.124159e-10	8.661252e-01	-5.981953e+01
1.190000e-06	2.123876e-07	-8.457957e-10	1.505208e+00	-5.562232e+01
1.200000e-06	3.025707e-07	-7.769331e-10	2.144343e+00	-5.136185e+01
1.210000e-06	3.926814e-07	-7.120523e-10	2.782964e+00	-4.703719e+01
1.220000e-06	4.826590e-07	-6.473715e-10	3.420642e+00	-4.264717e+01
1.230000e-06	5.725136e-07	-5.767803e-10	4.057449e+00	-3.819042e+01
1.240000e-06	6.623020e-07	-5.017689e-10	4.693786e+00	-3.366539e+01
1.250000e-06	7.519691e-07	-4.320334e-10	5.329264e+00	-2.907039e+01
1.260000e-06	8.414380e-07	-3.658303e-10	5.963337e+00	-2.440374e+01
1.270000e-06	9.307070e-07	-2.914262e-10	6.595993e+00	-1.966385e+01
1.280000e-06	1.019800e-06	-2.098789e-10	7.227404e+00	-1.484936e+01
1.290000e-06	1.108724e-06	-1.313318e-10	7.857617e+00	-9.959312e+00
1.300000e-06	1.197420e-06	-5.701348e-11	8.486211e+00	-4.993335e+00
1.310000e-06	1.285867e-06	1.706400e-11	9.113041e+00	4.820821e-02
1.320000e-06	1.374096e-06	9.796975e-11	9.738323e+00	5.164033e+00
1.330000e-06	1.462129e-06	1.811681e-10	1.036222e+01	1.035178e+01
1.340000e-06	1.549871e-06	2.584454e-10	1.098406e+01	1.560791e+01
1.350000e-06	1.637257e-06	3.315603e-10	1.160337e+01	2.092756e+01
1.360000e-06	1.724355e-06	4.119316e-10	1.222064e+01	2.630454e+01
1.370000e-06	1.811207e-06	5.003196e-10	1.283616e+01	3.173131e+01
1.380000e-06	1.897812e-06	5.868100e-10	1.344994e+01	3.719901e+01
1.390000e-06	1.984075e-06	6.708218e-10	1.406129e+01	4.269758e+01
1.400000e-06	2.069955e-06	7.561490e-10	1.466993e+01	4.821590e+01
1.410000e-06	2.155554e-06	8.432530e-10	1.527658e+01	5.374198e+01
1.420000e-06	2.240817e-06	9.294687e-10	1.588084e+01	5.926320e+01
1.430000e-06	2.325677e-06	1.012286e-09	1.648226e+01	6.476659e+01
1.440000e-06	2.410200e-06	1.093115e-09	1.708128e+01	7.023908e+01
1.450000e-06	2.494407e-06	1.174061e-09	1.767806e+01	7.566780e+01
1.460000e-06	2.578293e-06	1.252210e-09	1.827257e+01	8.104039e+01
1.470000e-06	2.661792e-06	1.330382e-09	1.886433e+01	8.634523e+01
1.480000e-06	2.744835e-06	1.412347e-09	1.945286e+01	9.157171e+01
1.490000e-06	2.827396e-06	1.494473e-09	2.003798e+01	9.671039e+01
1.500000e-06	2.909456e-06	1.569634e-09	2.061954e+01	1.017532e+02
1.510000e-06	2.991032e-06	1.642576e-09	2.119768e+01	1.066934e+02
1.520000e-06	3.072060e-06	1.718616e-09	2.177193e+01	1.115259e+02
1.530000e-06	3.152404e-06	1.794163e-09	2.234133e+01	1.162469e+02
1.540000e-06	3.232158e-06	1.861809e-09	2.290655e+01	1.208541e+02
1.550000e-06	3.311364e-06	1.924392e-09	2.346790e+01	1.253464e+02
1.560000e-06	3.389951e-06	1.991105e-09	2.402485e+01	1.297239e+02
1.570000e-06	3.467867e-06	2.060865e-09	2.457705e+01	1.339876e+02
1.580000e-06	3.545111e-06	2.124602e-09	2.512448e+01	1.381394e+02
1.590000e-06	3.621765e-06	2.184000e-09	2.566774e+01	1.421816e+02
1.600000e-06	3.697861e-06	2.245040e-09	2.620703e+01	1.461169e+02
1.610000e-06	3.773244e-06	2.309851e-09	2.674128e+01	1.499482e+02
1.620000e-06	3.847701e-06	2.368451e-09	2.726896e+01	1.536787e+02
1.630000e-06	3.921242e-06	2.417593e-09	2.779015e+01	1.573111e+02
1.640000e-06	3.993951e-06	2.464245e-09	2.830544e+01	1.608482e+02
1.650000e-06	4.065852e-06	2.512719e-09	2.881501e+01	1.642925e+02
1.660000e-06	4.137061e-06	2.564295e-09	2.931968e+01	1.676461e+02
1.670000e-06	4.207678e-06	2.613033e-09	2.982015e+01	1.709111e+02
1.680000e-06	4.277618e-06	2.659648e-09	3.031581e+01	1.740890e+02
1.690000e-06	4.346790e-06	2.708674e-09	3.080605e+01	1.771813e+02
1.700000e-06	4.415229e-06	2.757419e-09	3.129107e+01	1.801895e+02
1.710000e-06	4.483034e-06	2.800687e-09	3.177161e+01	1.831146e+02
1.720000e-06	4.550131e-06	2.839615e-09	3.224713e+01	1.859579e+02
1.730000e-06	4.616292e-06	2.879114e-09	3.271603e+01	1.887207e+02
1.740000e-06	4.681440e-06	2.917099e-09	3.317773e+01	1.914042e+02
1.750000e-06	4.745635e-06	2.950279e-09	3.363269e+01	1.940099e+02
1.760000e-06	4.808986e-06	2.983142e-09	3.408166e+01	1.965392e+02
1.770000e-06	4.871586e-06	3.019257e-09	3.452531e+01	1.989937e+02
1.780000e-06	4.933425e-06	3.055612e-09	3.496357e+01	2.013751e+02
1.790000e-06	4.994487e-06	3.089357e-09	3.539632e+01	2.036852e+02
1.800000e-06	5.054815e-06	3.122509e-09	3.582387e+01	2.059256e+02
1.810000e-06	5.114408e-06	3.155200e-09	3.624621e+01	2.080982e+02
1.820000e-06	5.173116e-06	3.185656e-09	3.666228e+01	2.102046e+02
1.830000e-06	5.230639e-06	3.212986e-09	3.706995e+01	2.122463e+02
1.840000e-06	5.286989e-06	3.239604e-09	3.746931e+01	2.142247e+02
1.850000e-06	5.342435e-06	3.267219e-09	3.786226e+01	2.161411e+02
1.860000e-06	5.397042e-06	3.294424e-09	3.824926e+01	2.179967e+02
1.870000e-06	5.450730e-06	3.320687e-09	3.862975e+01	2.197925e+02
1.880000e-06	5.503512e-06	3.345073e-09	3.900382e+01	2.215293e+02
1.890000e-06	5.555276e-06	3.369042e-09	3.937068e+01	2.232079e+02
1.900000e-06	5.605696e-06	3.395452e-09	3.972801e+01	2.248291e+02
1.910000e-06	5.654751e-06	3.420555e-09	4.007566e+01	2.263937e+02
1.920000e-06	5.702660e-06	3.442065e-09	4.041520e+01	2.279023e+02
1.930000e-06	5.749588e-06	3.461096e-09	4.074779e+01	2.293559e+02
1.940000e-06	5.795611e-06	3.480473e-09	4.107395e+01	2.307554e+02
1.950000e-06	5.840701e-06	3.502206e-09	4.139351e+01	2.321018e+02
1.960000e-06	5.884878e-06	3.524009e-09	4.170659e+01	2.333963e+02
1.970000e-06	5.928203e-06	3.543665e-09	4.201364e+01	2.346402e+02
1.980000e-06	5.970372e-06	3.561490e-09	4.231250e+01	2.358348e+02
1.990000e-06	6.011172e-06	3.579997e-09	4.260165e+01	2.369815e+02
2.000000e-06	6.050851e-06	3.599227e-09	4.288286e+01	2.380819e+02
2.010000e-06	6.089562e-06	3.617142e-09	4.315720e+01	2.391373e+02
2.020000e-06	6.127268e-06	3.631028e-09	4.342443e+01	2.401491e+02
2.030000e-06	6.163967e-06	3.643910e-09	4.368452e+01	2.411186e+02
2.040000e-06	6.199704e-06	3.658861e-09	4.393779e+01	2.420470e+02
2.050000e-06	6.234415e-06	3.674311e-09	4.418379e+01	2.429354e+02
2.060000e-06	6.267854e-06	3.688753e-09	4.442077e+01	2.437845e+02
2.070000e-06	6.299993e-06	3.699472e-09	4.464854e+01	2.445953e+02
2.080000e-06	6.331145e-06	3.709774e-09	4.486932e+01	2.453684e+02
2.090000e-06	6.361339e-06	3.724100e-09	4.508331e+01	2.461044e+02
2.100000e-06	6.390485e-06	3.739068e-09	4.528987e+01	2.468039e+02
2.110000e-06	6.418637e-06	3.750602e-09	4.548938e+01	2.474675e+02
2.120000e-06	6.445655e-06	3.760118e-09	4.568086e+01	2.480957e+02
2.130000e-06	6.471307e-06	3.770374e-09	4.586266e+01	2.486893e+02
2.140000e-06	6.495589e-06	3.779022e-09	4.603475e+01	2.492490e+02
2.150000e-06	6.518741e-06	3.787288e-09	4.619883e+01	2.497758e+02
2.160000e-06	6.540842e-06	3.796000e-09	4.635546e+01	2.502708e+02
2.170000e-06	6.561845e-06	3.802690e-09	4.650431e+01	2.507349e+02
2.180000e-06	6.581847e-06	3.810393e-09	4.664607e+01	2.511695e+02
2.190000e-06	6.600856e-06	3.820487e-09	4.678079e+01	2.515758e+02
2.200000e-06	6.618773e-06	3.829417e-09	4.690776e+01	2.519549e+02
2.210000e-06	6.635452e-06	3.834763e-09	4.702597e+01	2.523080e+02
2.220000e-06	6.650869e-06	3.839697e-09	4.713523e+01	2.526361e+02
2.230000e-06	6.665018e-06	3.846176e-09	4.723551e+01	2.529397e+02
2.240000e-06	6.677891e-06	3.851508e-09	4.732674e+01	2.532196e+02
2.250000e-06	6.689508e-06	3.853604e-09	4.740907e+01	2.534757e+02
2.260000e-06	6.699705e-06	3.856995e-09	4.748134e+01	2.537081e+02
2.270000e-06	6.708501e-06	3.860952e-09	4.754368e+01	2.539162e+02
2.280000e-06	6.716048e-06	3.863949e-09	4.759716e+01	2.540995e+02
2.290000e-06	6.722452e-06	3.867259e-09	4.764255e+01	2.542569e+02
2.300000e-06	6.727750e-06	3.870005e-09	4.768009e+01	2.543877e+02
2.310000e-06	6.732004e-06	3.871514e-09	4.771024e+01	2.544906e+02
2.320000e-06	6.735238e-06	3.871072e-09	4.773316e+01	2.545648e+02
2.330000e-06	6.737165e-06	3.872594e-09	4.774682e+01	2.546094e+02
2.340000e-06	6.737720e-06	3.874521e-09	4.775075e+01	2.546239e+02
2.350000e-06	6.737123e-06	3.875258e-09	4.774652e+01	2.546083e+02
2.360000e-06	6.735444e-06	3.875506e-09	4.773462e+01	2.545629e+02
2.370000e-06	6.732720e-06	3.875272e-09	4.771531e+01	2.544883e+02
2.380000e-06	6.729042e-06	3.875983e-09	4.768925e+01	2.543860e+02
2.390000e-06	6.724340e-06	3.874567e-09	4.765593e+01	2.542577e+02
2.400000e-06	6.718398e-06	3.869485e-09	4.761381e+01	2.541056e+02
2.410000e-06	6.711135e-06	3.859071e-09	4.756234e+01	2.539322e+02
2.420000e-06	6.702780e-06	3.829775e-09	4.750313e+01	2.537402e+02
2.430000e-06	6.693519e-06	3.858221e-09	4.743750e+01	2.535324e+02
2.440000e-06	6.682968e-06	3.923249e-09	4.736272e+01	2.533114e+02
2.450000e-06	6.670585e-06	3.883813e-09	4.727496e+01	2.530797e+02
2.460000e-06	6.656242e-06	3.853472e-09	4.717331e+01	2.528392e+02
2.470000e-06	6.640540e-06	3.703285e-09	4.706203e+01	2.525914e+02
2.480000e-06	6.624269e-06	3.811245e-09	4.694671e+01	2.523371e+02
2.490000e-06	6.607248e-06	4.043801e-09	4.682609e+01	2.520762e+02
2.500000e-06	6.588943e-06	3.752177e-09	4.669636e+01	2.518081e+02
2.510000e-06	6.569528e-06	3.819301e-09	4.655876e+01	2.515311e+02
2.520000e-06	6.549267e-06	3.913112e-09	4.641517e+01	2.512431e+02
2.530000e-06	6.527767e-06	3.641900e-09	4.626280e+01	2.509411e+02
2.540000e-06	6.504800e-06	3.896254e-09	4.610003e+01	2.506218e+02
2.550000e-06	6.480673e-06	4.014213e-09	4.592904e+01	2.502815e+02
2.560000e-06	6.455538e-06	3.631637e-09	4.575090e+01	2.499164e+02
2.570000e-06	6.429428e-06	3.756700e-09	4.556586e+01	2.495227e+02
2.580000e-06	6.402205e-06	3.941903e-09	4.537293e+01	2.490969e+02
2.590000e-06	6.373811e-06	3.741771e-09	4.517170e+01	2.486362e+02
2.600000e-06	6.344480e-06	3.832094e-09	4.496383e+01	2.481379e+02
2.610000e-06	6.313929e-06	3.765641e-09	4.474731e+01	2.476005e+02
2.620000e-06	6.281929e-06	3.732530e-09	4.452053e+01	2.470232e+02
2.630000e-06	6.248802e-06	3.890287e-09	4.428575e+01	2.464058e+02
2.640000e-06	6.214596e-06	3.668724e-09	4.404333e+01	2.457493e+02
2.650000e-06	6.179297e-06	3.745934e-09	4.379316e+01	2.450553e+02
2.660000e-06	6.143035e-06	3.832629e-09	4.353617e+01	2.443259e+02
2.670000e-06	6.105656e-06	3.627730e-09	4.327126e+01	2.435641e+02
2.680000e-06	6.066973e-06	3.688717e-09	4.299712e+01	2.427729e+02
2.690000e-06	6.027121e-06	3.702539e-09	4.271468e+01	2.419556e+02
2.700000e-06	5.986327e-06	3.728437e-09	4.242557e+01	2.411153e+02
2.710000e-06	5.944574e-06	3.660596e-09	4.212966e+01	2.402552e+02
2.720000e-06	5.901766e-06	3.572248e-09	4.182628e+01	2.393776e+02
2.730000e-06	5.857992e-06	3.712461e-09	4.151605e+01	2.384846e+02
2.740000e-06	5.813368e-06	3.632159e-09	4.119980e+01	2.375774e+02
2.750000e-06	5.767823e-06	3.615032e-09	4.087702e+01	2.366568e+02
2.760000e-06	5.721151e-06	3.615243e-09	4.054624e+01	2.357226e+02
2.770000e-06	5.673283e-06	3.528992e-09	4.020700e+01	2.347738e+02
2.780000e-06	5.624300e-06	3.595582e-09	3.985986e+01	2.338090e+02
2.790000e-06	5.574351e-06	3.557399e-09	3.950586e+01	2.328262e+02
2.800000e-06	5.523466e-06	3.579074e-09	3.914524e+01	2.318229e+02
2.810000e-06	5.471515e-06	3.522050e-09	3.877706e+01	2.307964e+02
2.820000e-06	5.418392e-06	3.431467e-09	3.840057e+01	2.297441e+02
2.830000e-06	5.364094e-06	3.530369e-09	3.801576e+01	2.286632e+02
2.840000e-06	5.308653e-06	3.529524e-09	3.762284e+01	2.275514e+02
2.850000e-06	5.252243e-06	3.470265e-09	3.722306e+01	2.264065e+02
2.860000e-06	5.194973e-06	3.374998e-09	3.681718e+01	2.252272e+02
2.870000e-06	5.136792e-06	3.395465e-09	3.640485e+01	2.240122e+02
2.880000e-06	5.077758e-06	3.463810e-09	3.598647e+01	2.227612e+02
2.890000e-06	5.017896e-06	3.396965e-09	3.556222e+01	2.214742e+02
2.900000e-06	4.957207e-06	3.336086e-09	3.513211e+01	2.201518e+02
2.910000e-06	4.895540e-06	3.294338e-09	3.469507e+01	2.187950e+02
2.920000e-06	4.832759e-06	3.336517e-09	3.425014e+01	2.174052e+02
2.930000e-06	4.768958e-06	3.343988e-09	3.379798e+01	2.159839e+02
2.940000e-06	4.704382e-06	3.270188e-09	3.334032e+01	2.145326e+02
