# Temperatura_=_20.0
# Concentracion g/m^3_=_12600.0
# C_Vs_to_Am_M_A/Vsm_=_65563218390.804596
# pendiente_HvsI_1/m_=_3716.3
# ordenada_HvsI_A/m_=_1297.0
# frecuencia_Hz_=_213155.82757741932

Tiempo_(s)	Campo_(V.s)	Magnetizacion_(V.s)	Campo_(kA/m)	Magnetizacion_(A/m)
0.000000e+00	-6.751550e-06	-4.163276e-09	-4.757497e+01	-2.708257e+02
1.000000e-08	-6.751054e-06	-4.161482e-09	-4.757147e+01	-2.708218e+02
2.000000e-08	-6.749126e-06	-4.162771e-09	-4.755789e+01	-2.707897e+02
3.000000e-08	-6.745849e-06	-4.162457e-09	-4.753480e+01	-2.707298e+02
4.000000e-08	-6.741629e-06	-4.161316e-09	-4.750506e+01	-2.706428e+02
5.000000e-08	-6.736398e-06	-4.160026e-09	-4.746820e+01	-2.705297e+02
6.000000e-08	-6.730034e-06	-4.157874e-09	-4.742336e+01	-2.703917e+02
7.000000e-08	-6.722615e-06	-4.154948e-09	-4.737108e+01	-2.702306e+02
8.000000e-08	-6.714171e-06	-4.146528e-09	-4.731158e+01	-2.700480e+02
9.000000e-08	-6.704363e-06	-4.138475e-09	-4.724247e+01	-2.698460e+02
1.000000e-07	-6.692812e-06	-4.172060e-09	-4.716107e+01	-2.696266e+02
1.100000e-07	-6.679632e-06	-4.182938e-09	-4.706820e+01	-2.693919e+02
1.200000e-07	-6.664925e-06	-4.163293e-09	-4.696456e+01	-2.691438e+02
1.300000e-07	-6.648738e-06	-4.119162e-09	-4.685051e+01	-2.688841e+02
1.400000e-07	-6.631541e-06	-4.037522e-09	-4.672932e+01	-2.686142e+02
1.500000e-07	-6.613454e-06	-4.144685e-09	-4.660187e+01	-2.683351e+02
1.600000e-07	-6.594400e-06	-4.215246e-09	-4.646761e+01	-2.680473e+02
1.700000e-07	-6.574573e-06	-4.071643e-09	-4.632790e+01	-2.677508e+02
1.800000e-07	-6.553633e-06	-4.118193e-09	-4.618034e+01	-2.674451e+02
1.900000e-07	-6.531386e-06	-4.107800e-09	-4.602358e+01	-2.671288e+02
2.000000e-07	-6.508307e-06	-3.999952e-09	-4.586095e+01	-2.668003e+02
2.100000e-07	-6.484278e-06	-4.140746e-09	-4.569163e+01	-2.664573e+02
2.200000e-07	-6.458683e-06	-4.121271e-09	-4.551128e+01	-2.660969e+02
2.300000e-07	-6.431673e-06	-3.936885e-09	-4.532095e+01	-2.657162e+02
2.400000e-07	-6.403666e-06	-4.003289e-09	-4.512360e+01	-2.653118e+02
2.500000e-07	-6.374740e-06	-4.070029e-09	-4.491977e+01	-2.648803e+02
2.600000e-07	-6.344790e-06	-4.013928e-09	-4.470873e+01	-2.644182e+02
2.700000e-07	-6.313654e-06	-3.980987e-09	-4.448932e+01	-2.639224e+02
2.800000e-07	-6.281441e-06	-3.930273e-09	-4.426233e+01	-2.633898e+02
2.900000e-07	-6.248138e-06	-3.954309e-09	-4.402767e+01	-2.628180e+02
3.000000e-07	-6.213550e-06	-3.995239e-09	-4.378394e+01	-2.622050e+02
3.100000e-07	-6.177712e-06	-3.940894e-09	-4.353141e+01	-2.615492e+02
3.200000e-07	-6.140758e-06	-3.905872e-09	-4.327101e+01	-2.608498e+02
3.300000e-07	-6.102743e-06	-3.909857e-09	-4.300314e+01	-2.601067e+02
3.400000e-07	-6.063696e-06	-3.902431e-09	-4.272799e+01	-2.593202e+02
3.500000e-07	-6.023749e-06	-3.913427e-09	-4.244650e+01	-2.584912e+02
3.600000e-07	-5.982788e-06	-3.921247e-09	-4.215787e+01	-2.576213e+02
3.700000e-07	-5.940397e-06	-3.878481e-09	-4.185916e+01	-2.567122e+02
3.800000e-07	-5.896748e-06	-3.820741e-09	-4.155159e+01	-2.557662e+02
3.900000e-07	-5.852185e-06	-3.838835e-09	-4.123757e+01	-2.547854e+02
4.000000e-07	-5.806634e-06	-3.868427e-09	-4.091659e+01	-2.537723e+02
4.100000e-07	-5.759992e-06	-3.823925e-09	-4.058793e+01	-2.527291e+02
4.200000e-07	-5.712339e-06	-3.777276e-09	-4.025215e+01	-2.516581e+02
4.300000e-07	-5.663720e-06	-3.769451e-09	-3.990955e+01	-2.505610e+02
4.400000e-07	-5.613750e-06	-3.780843e-09	-3.955743e+01	-2.494393e+02
4.500000e-07	-5.562317e-06	-3.770930e-09	-3.919501e+01	-2.482942e+02
4.600000e-07	-5.509775e-06	-3.724641e-09	-3.882477e+01	-2.471264e+02
4.700000e-07	-5.456317e-06	-3.698720e-09	-3.844808e+01	-2.459361e+02
4.800000e-07	-5.401956e-06	-3.694992e-09	-3.806503e+01	-2.447232e+02
4.900000e-07	-5.346741e-06	-3.679742e-09	-3.767595e+01	-2.434873e+02
5.000000e-07	-5.290647e-06	-3.648348e-09	-3.728068e+01	-2.422274e+02
5.100000e-07	-5.233438e-06	-3.617420e-09	-3.687755e+01	-2.409427e+02
5.200000e-07	-5.175040e-06	-3.607658e-09	-3.646606e+01	-2.396317e+02
5.300000e-07	-5.115705e-06	-3.598984e-09	-3.604795e+01	-2.382934e+02
5.400000e-07	-5.055557e-06	-3.574129e-09	-3.562411e+01	-2.369263e+02
5.500000e-07	-4.994561e-06	-3.546848e-09	-3.519430e+01	-2.355292e+02
5.600000e-07	-4.932717e-06	-3.532364e-09	-3.475852e+01	-2.341012e+02
5.700000e-07	-4.870083e-06	-3.520313e-09	-3.431717e+01	-2.326412e+02
5.800000e-07	-4.806691e-06	-3.483640e-09	-3.387048e+01	-2.311486e+02
5.900000e-07	-4.742423e-06	-3.442481e-09	-3.341761e+01	-2.296230e+02
6.000000e-07	-4.677082e-06	-3.438803e-09	-3.295718e+01	-2.280641e+02
6.100000e-07	-4.610659e-06	-3.435192e-09	-3.248913e+01	-2.264719e+02
6.200000e-07	-4.543343e-06	-3.391093e-09	-3.201479e+01	-2.248466e+02
6.300000e-07	-4.475391e-06	-3.337902e-09	-3.153596e+01	-2.231884e+02
6.400000e-07	-4.406879e-06	-3.326450e-09	-3.105319e+01	-2.214977e+02
6.500000e-07	-4.337651e-06	-3.339291e-09	-3.056537e+01	-2.197748e+02
6.600000e-07	-4.267589e-06	-3.307406e-09	-3.007167e+01	-2.180200e+02
6.700000e-07	-4.196698e-06	-3.240682e-09	-2.957214e+01	-2.162335e+02
6.800000e-07	-4.125119e-06	-3.207168e-09	-2.906776e+01	-2.144152e+02
6.900000e-07	-4.052874e-06	-3.217255e-09	-2.855868e+01	-2.125648e+02
7.000000e-07	-3.979808e-06	-3.205883e-09	-2.804382e+01	-2.106818e+02
7.100000e-07	-3.905833e-06	-3.140816e-09	-2.752255e+01	-2.087655e+02
7.200000e-07	-3.830996e-06	-3.085683e-09	-2.699521e+01	-2.068148e+02
7.300000e-07	-3.755415e-06	-3.080839e-09	-2.646263e+01	-2.048283e+02
7.400000e-07	-3.679153e-06	-3.082639e-09	-2.592525e+01	-2.028044e+02
7.500000e-07	-3.602189e-06	-3.037594e-09	-2.538292e+01	-2.007415e+02
7.600000e-07	-3.524564e-06	-2.970142e-09	-2.483593e+01	-1.986374e+02
7.700000e-07	-3.446187e-06	-2.941795e-09	-2.428364e+01	-1.964904e+02
7.800000e-07	-3.367068e-06	-2.938980e-09	-2.372613e+01	-1.942985e+02
7.900000e-07	-3.287310e-06	-2.913591e-09	-2.316411e+01	-1.920596e+02
8.000000e-07	-3.206839e-06	-2.857869e-09	-2.259708e+01	-1.897722e+02
8.100000e-07	-3.125717e-06	-2.805165e-09	-2.202545e+01	-1.874346e+02
8.200000e-07	-3.044105e-06	-2.781173e-09	-2.145037e+01	-1.850455e+02
8.300000e-07	-2.962032e-06	-2.761894e-09	-2.087204e+01	-1.826041e+02
8.400000e-07	-2.879491e-06	-2.723002e-09	-2.029041e+01	-1.801096e+02
8.500000e-07	-2.796497e-06	-2.669462e-09	-1.970559e+01	-1.775618e+02
8.600000e-07	-2.713077e-06	-2.621098e-09	-1.911777e+01	-1.749608e+02
8.700000e-07	-2.629286e-06	-2.591674e-09	-1.852733e+01	-1.723069e+02
8.800000e-07	-2.545127e-06	-2.564327e-09	-1.793430e+01	-1.696009e+02
8.900000e-07	-2.460635e-06	-2.520685e-09	-1.733893e+01	-1.668435e+02
9.000000e-07	-2.375724e-06	-2.462554e-09	-1.674060e+01	-1.640358e+02
9.100000e-07	-2.290349e-06	-2.411306e-09	-1.613901e+01	-1.611790e+02
9.200000e-07	-2.204667e-06	-2.381612e-09	-1.553525e+01	-1.582741e+02
9.300000e-07	-2.118666e-06	-2.353946e-09	-1.492924e+01	-1.553221e+02
9.400000e-07	-2.032258e-06	-2.303949e-09	-1.432036e+01	-1.523239e+02
9.500000e-07	-1.945468e-06	-2.239970e-09	-1.370879e+01	-1.492800e+02
9.600000e-07	-1.858391e-06	-2.189651e-09	-1.309520e+01	-1.461907e+02
9.700000e-07	-1.771102e-06	-2.160452e-09	-1.248012e+01	-1.430560e+02
9.800000e-07	-1.683623e-06	-2.123216e-09	-1.186370e+01	-1.398754e+02
9.900000e-07	-1.595796e-06	-2.060882e-09	-1.124481e+01	-1.366481e+02
1.000000e-06	-1.507519e-06	-1.994911e-09	-1.062277e+01	-1.333728e+02
1.010000e-06	-1.419008e-06	-1.949163e-09	-9.999077e+00	-1.300482e+02
1.020000e-06	-1.330306e-06	-1.917061e-09	-9.374036e+00	-1.266722e+02
1.030000e-06	-1.241370e-06	-1.866714e-09	-8.747347e+00	-1.232431e+02
1.040000e-06	-1.152159e-06	-1.796440e-09	-8.118720e+00	-1.197586e+02
1.050000e-06	-1.062633e-06	-1.736379e-09	-7.487874e+00	-1.162166e+02
1.060000e-06	-9.729449e-07	-1.697326e-09	-6.855881e+00	-1.126150e+02
1.070000e-06	-8.831172e-07	-1.655938e-09	-6.222908e+00	-1.089517e+02
1.080000e-06	-7.930622e-07	-1.591045e-09	-5.588334e+00	-1.052252e+02
1.090000e-06	-7.027658e-07	-1.517078e-09	-4.952057e+00	-1.014338e+02
1.100000e-06	-6.123646e-07	-1.455315e-09	-4.315043e+00	-9.757658e+01
1.110000e-06	-5.219075e-07	-1.406175e-09	-3.677634e+00	-9.365264e+01
1.120000e-06	-4.313237e-07	-1.351474e-09	-3.039334e+00	-8.966157e+01
1.130000e-06	-3.406079e-07	-1.281548e-09	-2.400102e+00	-8.560330e+01
1.140000e-06	-2.498465e-07	-1.212264e-09	-1.760550e+00	-8.147800e+01
1.150000e-06	-1.590440e-07	-1.151337e-09	-1.120708e+00	-7.728608e+01
1.160000e-06	-6.814117e-08	-1.095017e-09	-4.801585e-01	-7.302807e+01
1.170000e-06	2.281879e-08	-1.034148e-09	1.607932e-01	-6.870454e+01
1.180000e-06	1.137838e-07	-9.604416e-10	8.017803e-01	-6.431600e+01
1.190000e-06	2.047145e-07	-8.812592e-10	1.442526e+00	-5.986283e+01
1.200000e-06	2.955574e-07	-8.103276e-10	2.082653e+00	-5.534513e+01
1.210000e-06	3.863312e-07	-7.504400e-10	2.722293e+00	-5.076275e+01
1.220000e-06	4.770267e-07	-6.843156e-10	3.361381e+00	-4.611515e+01
1.230000e-06	5.676003e-07	-6.028994e-10	3.999610e+00	-4.140148e+01
1.240000e-06	6.580840e-07	-5.206163e-10	4.637206e+00	-3.662055e+01
1.250000e-06	7.485242e-07	-4.508064e-10	5.274495e+00	-3.177090e+01
1.260000e-06	8.387907e-07	-3.847835e-10	5.910560e+00	-2.685088e+01
1.270000e-06	9.287964e-07	-3.075299e-10	6.544788e+00	-2.185883e+01
1.280000e-06	1.018595e-06	-2.204407e-10	7.177555e+00	-1.679317e+01
1.290000e-06	1.108118e-06	-1.393638e-10	7.808381e+00	-1.165263e+01
1.300000e-06	1.197390e-06	-6.559108e-11	8.437438e+00	-6.436399e+00
1.310000e-06	1.286442e-06	1.068261e-11	9.064947e+00	-1.144362e+00
1.320000e-06	1.375169e-06	9.731913e-11	9.690162e+00	4.222732e+00
1.330000e-06	1.463569e-06	1.881363e-10	1.031308e+01	9.663095e+00
1.340000e-06	1.551730e-06	2.718835e-10	1.093430e+01	1.517375e+01
1.350000e-06	1.639619e-06	3.508037e-10	1.155361e+01	2.075040e+01
1.360000e-06	1.727198e-06	4.339278e-10	1.217075e+01	2.638742e+01
1.370000e-06	1.814487e-06	5.247359e-10	1.278583e+01	3.207775e+01
1.380000e-06	1.901512e-06	6.164827e-10	1.339905e+01	3.781302e+01
1.390000e-06	1.988267e-06	7.051628e-10	1.401037e+01	4.358358e+01
1.400000e-06	2.074722e-06	7.929746e-10	1.461958e+01	4.937864e+01
1.410000e-06	2.160816e-06	8.801629e-10	1.522625e+01	5.518651e+01
1.420000e-06	2.246534e-06	9.680298e-10	1.583026e+01	6.099477e+01
1.430000e-06	2.331871e-06	1.059205e-09	1.643159e+01	6.679056e+01
1.440000e-06	2.416805e-06	1.150497e-09	1.703008e+01	7.256084e+01
1.450000e-06	2.501338e-06	1.236868e-09	1.762574e+01	7.829270e+01
1.460000e-06	2.585562e-06	1.315818e-09	1.821923e+01	8.397359e+01
1.470000e-06	2.669443e-06	1.398589e-09	1.881030e+01	8.959166e+01
1.480000e-06	2.752890e-06	1.487394e-09	1.939831e+01	9.513594e+01
1.490000e-06	2.835900e-06	1.572943e-09	1.998324e+01	1.005965e+02
1.500000e-06	2.918402e-06	1.649962e-09	2.056460e+01	1.059648e+02
1.510000e-06	3.000441e-06	1.724717e-09	2.114268e+01	1.112335e+02
1.520000e-06	3.081890e-06	1.805932e-09	2.171662e+01	1.163968e+02
1.530000e-06	3.162706e-06	1.888968e-09	2.228609e+01	1.214501e+02
1.540000e-06	3.243015e-06	1.962441e-09	2.285199e+01	1.263903e+02
1.550000e-06	3.322731e-06	2.027831e-09	2.341371e+01	1.312156e+02
1.560000e-06	3.401808e-06	2.097719e-09	2.397092e+01	1.359253e+02
1.570000e-06	3.480251e-06	2.173181e-09	2.452368e+01	1.405196e+02
1.580000e-06	3.558053e-06	2.243759e-09	2.507191e+01	1.449994e+02
1.590000e-06	3.635214e-06	2.307111e-09	2.561563e+01	1.493664e+02
1.600000e-06	3.711714e-06	2.369317e-09	2.615469e+01	1.536227e+02
1.610000e-06	3.787565e-06	2.436847e-09	2.668917e+01	1.577705e+02
1.620000e-06	3.862685e-06	2.503005e-09	2.721851e+01	1.618122e+02
1.630000e-06	3.936912e-06	2.559766e-09	2.774155e+01	1.657501e+02
1.640000e-06	4.010196e-06	2.610812e-09	2.825795e+01	1.695866e+02
1.650000e-06	4.082601e-06	2.663697e-09	2.876815e+01	1.733235e+02
1.660000e-06	4.154259e-06	2.720099e-09	2.927309e+01	1.769628e+02
1.670000e-06	4.225239e-06	2.774607e-09	2.977325e+01	1.805061e+02
1.680000e-06	4.295539e-06	2.825931e-09	3.026862e+01	1.839548e+02
1.690000e-06	4.365101e-06	2.876250e-09	3.075880e+01	1.873101e+02
1.700000e-06	4.433874e-06	2.925442e-09	3.124340e+01	1.905734e+02
1.710000e-06	4.501952e-06	2.972819e-09	3.172312e+01	1.937457e+02
1.720000e-06	4.569458e-06	3.018817e-09	3.219880e+01	1.968283e+02
1.730000e-06	4.636166e-06	3.061054e-09	3.266886e+01	1.998226e+02
1.740000e-06	4.701820e-06	3.098098e-09	3.313150e+01	2.027301e+02
1.750000e-06	4.766428e-06	3.134431e-09	3.358675e+01	2.055523e+02
1.760000e-06	4.830180e-06	3.175440e-09	3.403599e+01	2.082913e+02
1.770000e-06	4.893218e-06	3.217527e-09	3.448019e+01	2.109490e+02
1.780000e-06	4.955499e-06	3.254227e-09	3.491906e+01	2.135278e+02
1.790000e-06	5.017012e-06	3.287462e-09	3.535250e+01	2.160299e+02
1.800000e-06	5.077718e-06	3.323686e-09	3.578027e+01	2.184578e+02
1.810000e-06	5.137675e-06	3.360451e-09	3.620276e+01	2.208140e+02
1.820000e-06	5.196864e-06	3.391675e-09	3.661984e+01	2.231008e+02
1.830000e-06	5.254921e-06	3.417471e-09	3.702894e+01	2.253203e+02
1.840000e-06	5.311720e-06	3.444218e-09	3.742917e+01	2.274746e+02
1.850000e-06	5.367574e-06	3.474489e-09	3.782275e+01	2.295655e+02
1.860000e-06	5.422588e-06	3.504589e-09	3.821041e+01	2.315944e+02
1.870000e-06	5.476681e-06	3.532622e-09	3.859158e+01	2.335625e+02
1.880000e-06	5.529870e-06	3.557992e-09	3.896637e+01	2.354707e+02
1.890000e-06	5.582099e-06	3.583157e-09	3.933440e+01	2.373195e+02
1.900000e-06	5.633104e-06	3.610531e-09	3.969381e+01	2.391093e+02
1.910000e-06	5.682549e-06	3.637102e-09	4.004223e+01	2.408402e+02
1.920000e-06	5.730740e-06	3.661097e-09	4.038181e+01	2.425123e+02
1.930000e-06	5.778033e-06	3.681777e-09	4.071506e+01	2.441254e+02
1.940000e-06	5.824396e-06	3.701616e-09	4.104175e+01	2.456796e+02
1.950000e-06	5.869745e-06	3.723157e-09	4.136131e+01	2.471749e+02
1.960000e-06	5.914100e-06	3.744928e-09	4.167386e+01	2.486114e+02
1.970000e-06	5.957678e-06	3.766244e-09	4.198093e+01	2.499895e+02
1.980000e-06	6.000215e-06	3.785636e-09	4.228067e+01	2.513098e+02
1.990000e-06	6.041308e-06	3.804769e-09	4.257024e+01	2.525730e+02
2.000000e-06	6.081228e-06	3.825771e-09	4.285153e+01	2.537803e+02
2.010000e-06	6.120227e-06	3.845388e-09	4.312634e+01	2.549329e+02
2.020000e-06	6.158239e-06	3.860075e-09	4.339419e+01	2.560324e+02
2.030000e-06	6.195243e-06	3.873644e-09	4.365494e+01	2.570804e+02
2.040000e-06	6.231328e-06	3.889315e-09	4.390921e+01	2.580787e+02
2.050000e-06	6.266534e-06	3.905819e-09	4.415729e+01	2.590292e+02
2.060000e-06	6.300422e-06	3.920932e-09	4.439609e+01	2.599339e+02
2.070000e-06	6.332874e-06	3.932898e-09	4.462476e+01	2.607948e+02
2.080000e-06	6.364284e-06	3.943991e-09	4.484609e+01	2.616135e+02
2.090000e-06	6.394682e-06	3.957786e-09	4.506030e+01	2.623921e+02
2.100000e-06	6.423975e-06	3.972951e-09	4.526671e+01	2.631320e+02
2.110000e-06	6.452292e-06	3.986279e-09	4.546625e+01	2.638349e+02
2.120000e-06	6.479676e-06	3.997212e-09	4.565920e+01	2.645022e+02
2.130000e-06	6.505798e-06	4.005244e-09	4.584328e+01	2.651350e+02
2.140000e-06	6.530426e-06	4.011685e-09	4.601682e+01	2.657346e+02
2.150000e-06	6.553820e-06	4.021398e-09	4.618166e+01	2.663020e+02
2.160000e-06	6.576145e-06	4.031562e-09	4.633897e+01	2.668381e+02
2.170000e-06	6.597359e-06	4.038760e-09	4.648846e+01	2.673437e+02
2.180000e-06	6.617550e-06	4.046861e-09	4.663074e+01	2.678196e+02
2.190000e-06	6.636838e-06	4.057011e-09	4.676665e+01	2.682665e+02
2.200000e-06	6.654961e-06	4.067824e-09	4.689436e+01	2.686851e+02
2.210000e-06	6.671737e-06	4.075584e-09	4.701256e+01	2.690759e+02
2.220000e-06	6.687332e-06	4.081309e-09	4.712246e+01	2.694395e+02
2.230000e-06	6.701680e-06	4.085856e-09	4.722356e+01	2.697763e+02
2.240000e-06	6.714782e-06	4.090405e-09	4.731589e+01	2.700866e+02
2.250000e-06	6.726743e-06	4.094527e-09	4.740017e+01	2.703707e+02
2.260000e-06	6.737270e-06	4.096622e-09	4.747435e+01	2.706287e+02
2.270000e-06	6.746195e-06	4.098331e-09	4.753723e+01	2.708606e+02
2.280000e-06	6.753851e-06	4.101079e-09	4.759118e+01	2.710663e+02
2.290000e-06	6.760458e-06	4.105515e-09	4.763774e+01	2.712455e+02
2.300000e-06	6.765926e-06	4.110941e-09	4.767627e+01	2.713980e+02
2.310000e-06	6.770264e-06	4.114214e-09	4.770684e+01	2.715233e+02
2.320000e-06	6.773654e-06	4.114548e-09	4.773073e+01	2.716211e+02
2.330000e-06	6.775824e-06	4.115728e-09	4.774602e+01	2.716909e+02
2.340000e-06	6.776495e-06	4.117523e-09	4.775075e+01	2.717326e+02
2.350000e-06	6.776012e-06	4.118200e-09	4.774734e+01	2.717458e+02
2.360000e-06	6.774530e-06	4.117451e-09	4.773690e+01	2.717307e+02
2.370000e-06	6.771911e-06	4.114743e-09	4.771845e+01	2.716874e+02
2.380000e-06	6.768194e-06	4.113557e-09	4.769226e+01	2.716166e+02
2.390000e-06	6.763558e-06	4.111762e-09	4.765959e+01	2.715191e+02
2.400000e-06	6.757713e-06	4.109395e-09	4.761840e+01	2.713959e+02
2.410000e-06	6.750467e-06	4.107387e-09	4.756734e+01	2.712485e+02
2.420000e-06	6.742154e-06	4.109041e-09	4.750876e+01	2.710786e+02
2.430000e-06	6.732899e-06	4.114027e-09	4.744355e+01	2.708881e+02
2.440000e-06	6.722531e-06	4.057406e-09	4.737049e+01	2.706789e+02
2.450000e-06	6.710426e-06	4.036329e-09	4.728519e+01	2.704532e+02
2.460000e-06	6.696162e-06	4.050787e-09	4.718468e+01	2.702129e+02
2.470000e-06	6.680415e-06	4.112644e-09	4.707372e+01	2.699601e+02
2.480000e-06	6.664198e-06	4.182801e-09	4.695945e+01	2.696962e+02
2.490000e-06	6.647464e-06	4.044720e-09	4.684153e+01	2.694225e+02
2.500000e-06	6.629273e-06	4.018057e-09	4.671335e+01	2.691399e+02
2.510000e-06	6.609723e-06	4.125565e-09	4.657558e+01	2.688488e+02
2.520000e-06	6.589576e-06	4.024002e-09	4.643362e+01	2.685487e+02
2.530000e-06	6.568223e-06	4.069168e-09	4.628315e+01	2.682390e+02
2.540000e-06	6.545125e-06	4.136801e-09	4.612039e+01	2.679181e+02
2.550000e-06	6.520874e-06	3.947484e-09	4.594951e+01	2.675841e+02
2.560000e-06	6.495644e-06	4.002139e-09	4.577173e+01	2.672346e+02
2.570000e-06	6.469448e-06	4.138310e-09	4.558714e+01	2.668665e+02
2.580000e-06	6.442176e-06	4.001355e-09	4.539496e+01	2.664768e+02
2.590000e-06	6.413644e-06	3.993267e-09	4.519391e+01	2.660620e+02
2.600000e-06	6.384223e-06	4.082908e-09	4.498659e+01	2.656187e+02
2.610000e-06	6.353609e-06	4.078407e-09	4.477087e+01	2.651435e+02
2.620000e-06	6.321462e-06	4.096363e-09	4.454434e+01	2.646334e+02
2.630000e-06	6.288240e-06	4.005340e-09	4.431025e+01	2.640855e+02
2.640000e-06	6.253961e-06	4.008276e-09	4.406870e+01	2.634974e+02
2.650000e-06	6.218537e-06	4.091066e-09	4.381908e+01	2.628674e+02
2.660000e-06	6.182201e-06	4.015397e-09	4.356304e+01	2.621943e+02
2.670000e-06	6.144736e-06	4.017861e-09	4.329904e+01	2.614775e+02
2.680000e-06	6.105915e-06	3.998597e-09	4.302549e+01	2.607170e+02
2.690000e-06	6.065877e-06	3.925031e-09	4.274336e+01	2.599134e+02
2.700000e-06	6.024831e-06	3.964380e-09	4.245413e+01	2.590679e+02
2.710000e-06	5.982861e-06	3.970629e-09	4.215838e+01	2.581821e+02
2.720000e-06	5.939890e-06	3.984217e-09	4.185559e+01	2.572580e+02
2.730000e-06	5.895991e-06	3.917012e-09	4.154625e+01	2.562978e+02
2.740000e-06	5.851184e-06	3.851817e-09	4.123052e+01	2.553039e+02
2.750000e-06	5.805422e-06	3.932032e-09	4.090806e+01	2.542786e+02
2.760000e-06	5.758581e-06	3.914569e-09	4.057799e+01	2.532241e+02
2.770000e-06	5.710526e-06	3.850605e-09	4.023937e+01	2.521424e+02
2.780000e-06	5.661353e-06	3.800279e-09	3.989287e+01	2.510353e+02
2.790000e-06	5.611164e-06	3.813980e-09	3.953921e+01	2.499042e+02
2.800000e-06	5.559955e-06	3.873264e-09	3.917837e+01	2.487500e+02
2.810000e-06	5.507727e-06	3.799057e-09	3.881034e+01	2.475733e+02
2.820000e-06	5.454340e-06	3.743636e-09	3.843415e+01	2.463740e+02
2.830000e-06	5.399650e-06	3.750829e-09	3.804877e+01	2.451521e+02
2.840000e-06	5.343821e-06	3.770256e-09	3.765537e+01	2.439067e+02
2.850000e-06	5.287131e-06	3.757538e-09	3.725591e+01	2.426371e+02
2.860000e-06	5.229645e-06	3.678218e-09	3.685083e+01	2.413420e+02
2.870000e-06	5.171226e-06	3.658570e-09	3.643918e+01	2.400204e+02
2.880000e-06	5.111913e-06	3.669793e-09	3.602123e+01	2.386707e+02
2.890000e-06	5.051825e-06	3.659470e-09	3.559782e+01	2.372918e+02
2.900000e-06	4.990920e-06	3.608053e-09	3.516865e+01	2.358825e+02
2.910000e-06	4.928951e-06	3.564761e-09	3.473198e+01	2.344418e+02
2.920000e-06	4.865851e-06	3.581513e-09	3.428735e+01	2.329689e+02
2.930000e-06	4.801853e-06	3.573078e-09	3.383638e+01	2.314632e+02
2.940000e-06	4.737106e-06	3.509925e-09	3.338014e+01	2.299243e+02
