# Temperatura_=_20.0
# Concentracion g/m^3_=_12600.0
# C_Vs_to_Am_M_A/Vsm_=_65563218390.804596
# pendiente_HvsI_1/m_=_3716.3
# ordenada_HvsI_A/m_=_1297.0
# frecuencia_Hz_=_213152.15809552404

Tiempo_(s)	Campo_(V.s)	Magnetizacion_(V.s)	Campo_(kA/m)	Magnetizacion_(A/m)
0.000000e+00	-6.738770e-06	-3.830439e-09	-4.757930e+01	-2.464437e+02
1.000000e-08	-6.738233e-06	-3.828827e-09	-4.757551e+01	-2.464081e+02
2.000000e-08	-6.736387e-06	-3.826740e-09	-4.756248e+01	-2.463398e+02
3.000000e-08	-6.733228e-06	-3.826786e-09	-4.754017e+01	-2.462425e+02
4.000000e-08	-6.729014e-06	-3.828705e-09	-4.751042e+01	-2.461214e+02
5.000000e-08	-6.723787e-06	-3.828927e-09	-4.747351e+01	-2.459829e+02
6.000000e-08	-6.717394e-06	-3.825644e-09	-4.742838e+01	-2.458342e+02
7.000000e-08	-6.710006e-06	-3.821411e-09	-4.737621e+01	-2.456833e+02
8.000000e-08	-6.701686e-06	-3.814625e-09	-4.731747e+01	-2.455384e+02
9.000000e-08	-6.691867e-06	-3.817366e-09	-4.724814e+01	-2.454076e+02
1.000000e-07	-6.680220e-06	-3.832160e-09	-4.716590e+01	-2.452984e+02
1.100000e-07	-6.667004e-06	-3.842992e-09	-4.707259e+01	-2.452172e+02
1.200000e-07	-6.652375e-06	-3.840043e-09	-4.696931e+01	-2.451688e+02
1.300000e-07	-6.636347e-06	-3.805716e-09	-4.685614e+01	-2.451562e+02
1.400000e-07	-6.619190e-06	-3.765223e-09	-4.673500e+01	-2.451805e+02
1.500000e-07	-6.601036e-06	-3.807944e-09	-4.660683e+01	-2.452401e+02
1.600000e-07	-6.581947e-06	-3.839737e-09	-4.647205e+01	-2.453315e+02
1.700000e-07	-6.562116e-06	-3.787176e-09	-4.633203e+01	-2.454485e+02
1.800000e-07	-6.541193e-06	-3.780825e-09	-4.618430e+01	-2.455831e+02
1.900000e-07	-6.518992e-06	-3.769970e-09	-4.602755e+01	-2.457253e+02
2.000000e-07	-6.495982e-06	-3.746458e-09	-4.586509e+01	-2.458640e+02
2.100000e-07	-6.472050e-06	-3.782194e-09	-4.569612e+01	-2.459869e+02
2.200000e-07	-6.446638e-06	-3.757430e-09	-4.551669e+01	-2.460816e+02
2.300000e-07	-6.419731e-06	-3.672846e-09	-4.532671e+01	-2.461359e+02
2.400000e-07	-6.391753e-06	-3.691896e-09	-4.512918e+01	-2.461381e+02
2.500000e-07	-6.362899e-06	-3.740671e-09	-4.492545e+01	-2.460780e+02
2.600000e-07	-6.332905e-06	-3.693820e-09	-4.471368e+01	-2.459471e+02
2.700000e-07	-6.301722e-06	-3.639348e-09	-4.449351e+01	-2.457390e+02
2.800000e-07	-6.269600e-06	-3.628209e-09	-4.426671e+01	-2.454494e+02
2.900000e-07	-6.236418e-06	-3.667756e-09	-4.403243e+01	-2.450766e+02
3.000000e-07	-6.201935e-06	-3.691556e-09	-4.378896e+01	-2.446214e+02
3.100000e-07	-6.166171e-06	-3.621833e-09	-4.353645e+01	-2.440866e+02
3.200000e-07	-6.129177e-06	-3.576791e-09	-4.327525e+01	-2.434771e+02
3.300000e-07	-6.091124e-06	-3.627151e-09	-4.300658e+01	-2.427996e+02
3.400000e-07	-6.052209e-06	-3.668299e-09	-4.273181e+01	-2.420619e+02
3.500000e-07	-6.012374e-06	-3.634678e-09	-4.245056e+01	-2.412726e+02
3.600000e-07	-5.971356e-06	-3.574071e-09	-4.216095e+01	-2.404405e+02
3.700000e-07	-5.928957e-06	-3.556771e-09	-4.186159e+01	-2.395743e+02
3.800000e-07	-5.885379e-06	-3.591770e-09	-4.155391e+01	-2.386819e+02
3.900000e-07	-5.840856e-06	-3.609694e-09	-4.123955e+01	-2.377702e+02
4.000000e-07	-5.795314e-06	-3.544688e-09	-4.091800e+01	-2.368448e+02
4.100000e-07	-5.748710e-06	-3.469227e-09	-4.058895e+01	-2.359097e+02
4.200000e-07	-5.701106e-06	-3.500857e-09	-4.025284e+01	-2.349673e+02
4.300000e-07	-5.652479e-06	-3.564003e-09	-3.990951e+01	-2.340183e+02
4.400000e-07	-5.602498e-06	-3.528124e-09	-3.955661e+01	-2.330618e+02
4.500000e-07	-5.550984e-06	-3.429965e-09	-3.919290e+01	-2.320957e+02
4.600000e-07	-5.498344e-06	-3.406450e-09	-3.882123e+01	-2.311165e+02
4.700000e-07	-5.444817e-06	-3.478830e-09	-3.844330e+01	-2.301204e+02
4.800000e-07	-5.390413e-06	-3.499983e-09	-3.805918e+01	-2.291027e+02
4.900000e-07	-5.335154e-06	-3.404897e-09	-3.766902e+01	-2.280588e+02
5.000000e-07	-5.278965e-06	-3.319485e-09	-3.727230e+01	-2.269844e+02
5.100000e-07	-5.221737e-06	-3.349581e-09	-3.686824e+01	-2.258756e+02
5.200000e-07	-5.163455e-06	-3.415638e-09	-3.645674e+01	-2.247293e+02
5.300000e-07	-5.104215e-06	-3.380821e-09	-3.603847e+01	-2.235432e+02
5.400000e-07	-5.044107e-06	-3.281709e-09	-3.561408e+01	-2.223160e+02
5.500000e-07	-4.983136e-06	-3.253248e-09	-3.518359e+01	-2.210475e+02
5.600000e-07	-4.921300e-06	-3.309542e-09	-3.474700e+01	-2.197384e+02
5.700000e-07	-4.858689e-06	-3.330708e-09	-3.430493e+01	-2.183902e+02
5.800000e-07	-4.795309e-06	-3.251587e-09	-3.385743e+01	-2.170050e+02
5.900000e-07	-4.731063e-06	-3.175330e-09	-3.340382e+01	-2.155852e+02
6.000000e-07	-4.665814e-06	-3.185905e-09	-3.294313e+01	-2.141338e+02
6.100000e-07	-4.599596e-06	-3.222904e-09	-3.247559e+01	-2.126533e+02
6.200000e-07	-4.532530e-06	-3.192762e-09	-3.200207e+01	-2.111462e+02
6.300000e-07	-4.464676e-06	-3.116682e-09	-3.152299e+01	-2.096145e+02
6.400000e-07	-4.396089e-06	-3.087144e-09	-3.103873e+01	-2.080596e+02
6.500000e-07	-4.326750e-06	-3.104899e-09	-3.054915e+01	-2.064823e+02
6.600000e-07	-4.256687e-06	-3.102216e-09	-3.005447e+01	-2.048826e+02
6.700000e-07	-4.185911e-06	-3.055894e-09	-2.955476e+01	-2.032597e+02
6.800000e-07	-4.114431e-06	-3.008178e-09	-2.905007e+01	-2.016123e+02
6.900000e-07	-4.042279e-06	-2.991067e-09	-2.854064e+01	-1.999385e+02
7.000000e-07	-3.969331e-06	-2.976526e-09	-2.802559e+01	-1.982360e+02
7.100000e-07	-3.895476e-06	-2.945565e-09	-2.750413e+01	-1.965021e+02
7.200000e-07	-3.820820e-06	-2.913292e-09	-2.697702e+01	-1.947341e+02
7.300000e-07	-3.745399e-06	-2.888808e-09	-2.644451e+01	-1.929293e+02
7.400000e-07	-3.669217e-06	-2.860975e-09	-2.590662e+01	-1.910852e+02
7.500000e-07	-3.592412e-06	-2.826533e-09	-2.536434e+01	-1.891997e+02
7.600000e-07	-3.514899e-06	-2.805863e-09	-2.481705e+01	-1.872710e+02
7.700000e-07	-3.436584e-06	-2.793882e-09	-2.426411e+01	-1.852977e+02
7.800000e-07	-3.357619e-06	-2.761172e-09	-2.370658e+01	-1.832790e+02
7.900000e-07	-3.278006e-06	-2.710617e-09	-2.314447e+01	-1.812145e+02
8.000000e-07	-3.197769e-06	-2.675798e-09	-2.257795e+01	-1.791042e+02
8.100000e-07	-3.116943e-06	-2.664974e-09	-2.200728e+01	-1.769484e+02
8.200000e-07	-3.035482e-06	-2.640109e-09	-2.143212e+01	-1.747476e+02
8.300000e-07	-2.953463e-06	-2.585031e-09	-2.085302e+01	-1.725026e+02
8.400000e-07	-2.871000e-06	-2.535931e-09	-2.027079e+01	-1.702141e+02
8.500000e-07	-2.788143e-06	-2.517189e-09	-1.968577e+01	-1.678827e+02
8.600000e-07	-2.704952e-06	-2.504786e-09	-1.909840e+01	-1.655090e+02
8.700000e-07	-2.621374e-06	-2.464235e-09	-1.850830e+01	-1.630934e+02
8.800000e-07	-2.537287e-06	-2.405052e-09	-1.791459e+01	-1.606360e+02
8.900000e-07	-2.452757e-06	-2.362551e-09	-1.731777e+01	-1.581365e+02
9.000000e-07	-2.367840e-06	-2.340078e-09	-1.671821e+01	-1.555947e+02
9.100000e-07	-2.282598e-06	-2.310218e-09	-1.611636e+01	-1.530097e+02
9.200000e-07	-2.197040e-06	-2.261151e-09	-1.551227e+01	-1.503809e+02
9.300000e-07	-2.111083e-06	-2.210112e-09	-1.490537e+01	-1.477071e+02
9.400000e-07	-2.024699e-06	-2.171795e-09	-1.429545e+01	-1.449873e+02
9.500000e-07	-1.937976e-06	-2.139561e-09	-1.368314e+01	-1.422202e+02
9.600000e-07	-1.851039e-06	-2.102838e-09	-1.306932e+01	-1.394047e+02
9.700000e-07	-1.763933e-06	-2.057575e-09	-1.245430e+01	-1.365395e+02
9.800000e-07	-1.676536e-06	-2.008490e-09	-1.183723e+01	-1.336235e+02
9.900000e-07	-1.588814e-06	-1.961748e-09	-1.121787e+01	-1.306556e+02
1.000000e-06	-1.500726e-06	-1.918803e-09	-1.059592e+01	-1.276349e+02
1.010000e-06	-1.412309e-06	-1.878658e-09	-9.971655e+00	-1.245605e+02
1.020000e-06	-1.323691e-06	-1.831638e-09	-9.345963e+00	-1.214314e+02
1.030000e-06	-1.234783e-06	-1.774815e-09	-8.718221e+00	-1.182469e+02
1.040000e-06	-1.145557e-06	-1.721534e-09	-8.088244e+00	-1.150062e+02
1.050000e-06	-1.056065e-06	-1.681012e-09	-7.456384e+00	-1.117086e+02
1.060000e-06	-9.663748e-07	-1.642108e-09	-6.823120e+00	-1.083533e+02
1.070000e-06	-8.765374e-07	-1.586979e-09	-6.188820e+00	-1.049397e+02
1.080000e-06	-7.865378e-07	-1.520667e-09	-5.553375e+00	-1.014671e+02
1.090000e-06	-6.964062e-07	-1.463892e-09	-4.916998e+00	-9.793483e+01
1.100000e-06	-6.061863e-07	-1.418511e-09	-4.279998e+00	-9.434228e+01
1.110000e-06	-5.158845e-07	-1.368140e-09	-3.642419e+00	-9.068890e+01
1.120000e-06	-4.255109e-07	-1.302637e-09	-3.004333e+00	-8.697419e+01
1.130000e-06	-3.351320e-07	-1.235792e-09	-2.366210e+00	-8.319773e+01
1.140000e-06	-2.447640e-07	-1.184169e-09	-1.728164e+00	-7.935916e+01
1.150000e-06	-1.543363e-07	-1.137682e-09	-1.089697e+00	-7.545821e+01
1.160000e-06	-6.382731e-08	-1.079890e-09	-4.506548e-01	-7.149462e+01
1.170000e-06	2.667829e-08	-1.010904e-09	1.883630e-01	-6.746817e+01
1.180000e-06	1.171590e-07	-9.441659e-10	8.272052e-01	-6.337862e+01
1.190000e-06	2.076249e-07	-8.849729e-10	1.465942e+00	-5.922568e+01
1.200000e-06	2.980474e-07	-8.257019e-10	2.104373e+00	-5.500894e+01
1.210000e-06	3.884801e-07	-7.596002e-10	2.742876e+00	-5.072787e+01
1.220000e-06	4.789051e-07	-6.881709e-10	3.381325e+00	-4.638179e+01
1.230000e-06	5.692651e-07	-6.172749e-10	4.019315e+00	-4.196983e+01
1.240000e-06	6.595021e-07	-5.521154e-10	4.656436e+00	-3.749096e+01
1.250000e-06	7.495966e-07	-4.909720e-10	5.292551e+00	-3.294404e+01
1.260000e-06	8.395090e-07	-4.225661e-10	5.927380e+00	-2.832784e+01
1.270000e-06	9.292757e-07	-3.429007e-10	6.561181e+00	-2.364119e+01
1.280000e-06	1.018982e-06	-2.638662e-10	7.194555e+00	-1.888304e+01
1.290000e-06	1.108483e-06	-1.946686e-10	7.826483e+00	-1.405267e+01
1.300000e-06	1.197691e-06	-1.262680e-10	8.456337e+00	-9.149776e+00
1.310000e-06	1.286662e-06	-4.745289e-11	9.084518e+00	-4.174723e+00
1.320000e-06	1.375326e-06	3.926736e-11	9.710531e+00	8.713289e-01
1.330000e-06	1.463576e-06	1.191819e-10	1.033363e+01	5.986246e+00
1.340000e-06	1.551477e-06	1.891139e-10	1.095426e+01	1.116677e+01
1.350000e-06	1.639054e-06	2.619948e-10	1.157259e+01	1.640841e+01
1.360000e-06	1.726403e-06	3.488634e-10	1.218933e+01	2.170536e+01
1.370000e-06	1.813592e-06	4.381976e-10	1.280492e+01	2.705050e+01
1.380000e-06	1.900536e-06	5.167059e-10	1.341879e+01	3.243536e+01
1.390000e-06	1.987198e-06	5.910996e-10	1.403067e+01	3.785028e+01
1.400000e-06	2.073530e-06	6.739493e-10	1.464022e+01	4.328452e+01
1.410000e-06	2.159460e-06	7.633088e-10	1.524693e+01	4.872642e+01
1.420000e-06	2.244993e-06	8.468095e-10	1.585084e+01	5.416368e+01
1.430000e-06	2.330194e-06	9.233615e-10	1.645241e+01	5.958361e+01
1.440000e-06	2.415071e-06	1.001437e-09	1.705169e+01	6.497343e+01
1.450000e-06	2.499608e-06	1.083039e-09	1.764856e+01	7.032053e+01
1.460000e-06	2.583705e-06	1.163431e-09	1.824233e+01	7.561284e+01
1.470000e-06	2.667297e-06	1.241811e-09	1.883254e+01	8.083901e+01
1.480000e-06	2.750517e-06	1.319805e-09	1.942011e+01	8.598875e+01
1.490000e-06	2.833387e-06	1.395342e-09	2.000522e+01	9.105291e+01
1.500000e-06	2.915751e-06	1.468074e-09	2.058676e+01	9.602374e+01
1.510000e-06	2.997582e-06	1.542287e-09	2.116452e+01	1.008949e+02
1.520000e-06	3.078836e-06	1.616544e-09	2.173822e+01	1.056614e+02
1.530000e-06	3.159475e-06	1.686702e-09	2.230758e+01	1.103199e+02
1.540000e-06	3.239556e-06	1.750073e-09	2.287299e+01	1.148682e+02
1.550000e-06	3.319062e-06	1.813929e-09	2.343434e+01	1.193054e+02
1.560000e-06	3.397931e-06	1.883486e-09	2.399120e+01	1.236314e+02
1.570000e-06	3.476161e-06	1.951033e-09	2.454354e+01	1.278474e+02
1.580000e-06	3.553765e-06	2.009521e-09	2.509147e+01	1.319548e+02
1.590000e-06	3.630768e-06	2.066231e-09	2.563515e+01	1.359557e+02
1.600000e-06	3.707130e-06	2.128786e-09	2.617431e+01	1.398523e+02
1.610000e-06	3.782754e-06	2.194548e-09	2.670825e+01	1.436471e+02
1.620000e-06	3.857658e-06	2.251231e-09	2.723712e+01	1.473424e+02
1.630000e-06	3.931710e-06	2.297898e-09	2.775996e+01	1.509404e+02
1.640000e-06	4.004805e-06	2.344656e-09	2.827605e+01	1.544432e+02
1.650000e-06	4.077097e-06	2.396915e-09	2.878647e+01	1.578528e+02
1.660000e-06	4.148669e-06	2.448453e-09	2.929181e+01	1.611706e+02
1.670000e-06	4.219586e-06	2.492337e-09	2.979252e+01	1.643983e+02
1.680000e-06	4.289806e-06	2.535596e-09	3.028831e+01	1.675372e+02
1.690000e-06	4.359270e-06	2.584001e-09	3.077876e+01	1.705886e+02
1.700000e-06	4.428003e-06	2.633247e-09	3.126405e+01	1.735541e+02
1.710000e-06	4.496017e-06	2.675851e-09	3.174427e+01	1.764350e+02
1.720000e-06	4.563328e-06	2.712016e-09	3.221952e+01	1.792329e+02
1.730000e-06	4.629753e-06	2.747868e-09	3.268852e+01	1.819496e+02
1.740000e-06	4.695139e-06	2.784483e-09	3.315018e+01	1.845869e+02
1.750000e-06	4.759606e-06	2.819513e-09	3.360535e+01	1.871470e+02
1.760000e-06	4.823303e-06	2.853428e-09	3.405508e+01	1.896320e+02
1.770000e-06	4.886276e-06	2.886955e-09	3.449971e+01	1.920440e+02
1.780000e-06	4.948477e-06	2.921992e-09	3.493888e+01	1.943853e+02
1.790000e-06	5.009812e-06	2.957205e-09	3.537194e+01	1.966579e+02
1.800000e-06	5.070335e-06	2.992161e-09	3.579927e+01	1.988639e+02
1.810000e-06	5.130129e-06	3.023557e-09	3.622144e+01	2.010050e+02
1.820000e-06	5.189108e-06	3.049442e-09	3.663786e+01	2.030827e+02
1.830000e-06	5.246995e-06	3.073606e-09	3.704658e+01	2.050982e+02
1.840000e-06	5.303672e-06	3.099608e-09	3.744675e+01	2.070525e+02
1.850000e-06	5.359433e-06	3.126626e-09	3.784045e+01	2.089465e+02
1.860000e-06	5.414408e-06	3.151018e-09	3.822860e+01	2.107806e+02
1.870000e-06	5.468425e-06	3.174679e-09	3.860999e+01	2.125554e+02
1.880000e-06	5.521433e-06	3.199452e-09	3.898426e+01	2.142711e+02
1.890000e-06	5.573391e-06	3.225543e-09	3.935111e+01	2.159282e+02
1.900000e-06	5.624181e-06	3.251945e-09	3.970971e+01	2.175272e+02
1.910000e-06	5.673684e-06	3.274669e-09	4.005922e+01	2.190689e+02
1.920000e-06	5.721895e-06	3.294569e-09	4.039963e+01	2.205541e+02
1.930000e-06	5.769123e-06	3.313264e-09	4.073308e+01	2.219840e+02
1.940000e-06	5.815401e-06	3.331269e-09	4.105983e+01	2.233600e+02
1.950000e-06	5.860651e-06	3.348194e-09	4.137931e+01	2.246840e+02
1.960000e-06	5.904999e-06	3.363958e-09	4.169244e+01	2.259576e+02
1.970000e-06	5.948433e-06	3.381177e-09	4.199910e+01	2.271831e+02
1.980000e-06	5.990785e-06	3.400667e-09	4.229813e+01	2.283623e+02
1.990000e-06	6.031828e-06	3.421766e-09	4.258791e+01	2.294973e+02
2.000000e-06	6.071730e-06	3.441791e-09	4.286965e+01	2.305900e+02
2.010000e-06	6.110679e-06	3.458027e-09	4.314465e+01	2.316419e+02
2.020000e-06	6.148618e-06	3.471436e-09	4.341251e+01	2.326545e+02
2.030000e-06	6.185501e-06	3.485139e-09	4.367293e+01	2.336286e+02
2.040000e-06	6.221439e-06	3.499056e-09	4.392667e+01	2.345648e+02
2.050000e-06	6.256455e-06	3.510572e-09	4.417390e+01	2.354633e+02
2.060000e-06	6.290129e-06	3.520434e-09	4.441166e+01	2.363241e+02
2.070000e-06	6.322438e-06	3.531478e-09	4.463978e+01	2.371467e+02
2.080000e-06	6.353751e-06	3.544201e-09	4.486086e+01	2.379308e+02
2.090000e-06	6.384063e-06	3.557890e-09	4.507488e+01	2.386758e+02
2.100000e-06	6.413315e-06	3.570466e-09	4.528141e+01	2.393814e+02
2.110000e-06	6.441570e-06	3.581029e-09	4.548091e+01	2.400473e+02
2.120000e-06	6.468731e-06	3.589596e-09	4.567269e+01	2.406738e+02
2.130000e-06	6.494526e-06	3.597791e-09	4.585481e+01	2.412614e+02
2.140000e-06	6.518922e-06	3.605554e-09	4.602706e+01	2.418111e+02
2.150000e-06	6.542200e-06	3.612347e-09	4.619141e+01	2.423246e+02
2.160000e-06	6.564462e-06	3.619746e-09	4.634859e+01	2.428038e+02
2.170000e-06	6.585610e-06	3.627184e-09	4.649791e+01	2.432510e+02
2.180000e-06	6.605754e-06	3.636801e-09	4.664014e+01	2.436687e+02
2.190000e-06	6.624936e-06	3.646804e-09	4.677558e+01	2.440598e+02
2.200000e-06	6.642903e-06	3.654915e-09	4.690243e+01	2.444268e+02
2.210000e-06	6.659612e-06	3.661074e-09	4.702040e+01	2.447720e+02
2.220000e-06	6.675063e-06	3.666376e-09	4.712949e+01	2.450973e+02
2.230000e-06	6.689229e-06	3.671856e-09	4.722951e+01	2.454043e+02
2.240000e-06	6.702204e-06	3.674279e-09	4.732112e+01	2.456934e+02
2.250000e-06	6.713988e-06	3.674597e-09	4.740433e+01	2.459646e+02
2.260000e-06	6.724329e-06	3.676380e-09	4.747734e+01	2.462171e+02
2.270000e-06	6.733188e-06	3.679993e-09	4.753989e+01	2.464492e+02
2.280000e-06	6.740848e-06	3.683855e-09	4.759397e+01	2.466587e+02
2.290000e-06	6.747400e-06	3.687047e-09	4.764023e+01	2.468430e+02
2.300000e-06	6.752844e-06	3.690805e-09	4.767867e+01	2.469993e+02
2.310000e-06	6.757266e-06	3.694349e-09	4.770989e+01	2.471247e+02
2.320000e-06	6.760623e-06	3.695262e-09	4.773359e+01	2.472168e+02
2.330000e-06	6.762555e-06	3.695479e-09	4.774724e+01	2.472738e+02
2.340000e-06	6.763053e-06	3.695827e-09	4.775075e+01	2.472948e+02
2.350000e-06	6.762450e-06	3.696303e-09	4.774650e+01	2.472799e+02
2.360000e-06	6.760875e-06	3.695111e-09	4.773537e+01	2.472308e+02
2.370000e-06	6.758259e-06	3.692845e-09	4.771691e+01	2.471504e+02
2.380000e-06	6.754636e-06	3.691120e-09	4.769133e+01	2.470428e+02
2.390000e-06	6.750102e-06	3.688440e-09	4.765931e+01	2.469139e+02
2.400000e-06	6.744260e-06	3.685752e-09	4.761806e+01	2.467703e+02
2.410000e-06	6.736971e-06	3.683416e-09	4.756660e+01	2.466197e+02
2.420000e-06	6.728618e-06	3.684507e-09	4.750762e+01	2.464701e+02
2.430000e-06	6.719364e-06	3.677439e-09	4.744229e+01	2.463299e+02
2.440000e-06	6.708891e-06	3.662890e-09	4.736834e+01	2.462069e+02
2.450000e-06	6.696556e-06	3.644183e-09	4.728125e+01	2.461081e+02
2.460000e-06	6.682144e-06	3.646552e-09	4.717949e+01	2.460395e+02
2.470000e-06	6.666396e-06	3.694556e-09	4.706830e+01	2.460051e+02
2.480000e-06	6.650223e-06	3.754014e-09	4.695411e+01	2.460073e+02
2.490000e-06	6.633442e-06	3.707030e-09	4.683563e+01	2.460459e+02
2.500000e-06	6.615197e-06	3.659240e-09	4.670681e+01	2.461188e+02
2.510000e-06	6.595736e-06	3.718902e-09	4.656941e+01	2.462212e+02
2.520000e-06	6.575691e-06	3.708040e-09	4.642788e+01	2.463462e+02
2.530000e-06	6.554283e-06	3.688303e-09	4.627673e+01	2.464851e+02
2.540000e-06	6.531195e-06	3.702980e-09	4.611371e+01	2.466273e+02
2.550000e-06	6.507034e-06	3.683952e-09	4.594312e+01	2.467611e+02
2.560000e-06	6.481893e-06	3.746543e-09	4.576561e+01	2.468742e+02
2.570000e-06	6.455847e-06	3.845945e-09	4.558171e+01	2.469541e+02
2.580000e-06	6.428699e-06	3.824708e-09	4.539004e+01	2.469888e+02
2.590000e-06	6.400251e-06	3.776637e-09	4.518918e+01	2.469672e+02
2.600000e-06	6.370898e-06	3.844294e-09	4.498193e+01	2.468796e+02
2.610000e-06	6.340352e-06	3.912475e-09	4.476626e+01	2.467185e+02
2.620000e-06	6.308253e-06	3.873697e-09	4.453962e+01	2.464781e+02
2.630000e-06	6.275051e-06	3.791099e-09	4.430520e+01	2.461552e+02
2.640000e-06	6.240795e-06	3.776561e-09	4.406333e+01	2.457492e+02
2.650000e-06	6.205473e-06	3.866133e-09	4.381394e+01	2.452616e+02
2.660000e-06	6.169244e-06	3.890710e-09	4.355815e+01	2.446962e+02
2.670000e-06	6.131768e-06	3.787412e-09	4.329355e+01	2.440586e+02
2.680000e-06	6.092955e-06	3.701851e-09	4.301950e+01	2.433560e+02
2.690000e-06	6.053002e-06	3.725615e-09	4.273742e+01	2.425965e+02
2.700000e-06	6.012084e-06	3.813589e-09	4.244851e+01	2.417890e+02
2.710000e-06	5.970273e-06	3.806090e-09	4.215330e+01	2.409422e+02
2.720000e-06	5.927396e-06	3.684077e-09	4.185057e+01	2.400645e+02
2.730000e-06	5.883548e-06	3.630956e-09	4.154098e+01	2.391636e+02
2.740000e-06	5.838775e-06	3.707049e-09	4.122485e+01	2.382458e+02
2.750000e-06	5.793044e-06	3.779692e-09	4.090198e+01	2.373161e+02
2.760000e-06	5.746242e-06	3.701286e-09	4.057153e+01	2.363779e+02
2.770000e-06	5.698214e-06	3.565986e-09	4.023242e+01	2.354328e+02
2.780000e-06	5.649143e-06	3.585748e-09	3.988596e+01	2.344809e+02
2.790000e-06	5.599086e-06	3.691892e-09	3.953252e+01	2.335208e+02
2.800000e-06	5.548046e-06	3.692192e-09	3.917216e+01	2.325499e+02
2.810000e-06	5.495931e-06	3.561631e-09	3.880420e+01	2.315644e+02
2.820000e-06	5.442552e-06	3.488255e-09	3.842731e+01	2.305601e+02
2.830000e-06	5.387937e-06	3.575021e-09	3.804170e+01	2.295325e+02
2.840000e-06	5.332253e-06	3.635033e-09	3.764854e+01	2.284768e+02
2.850000e-06	5.275657e-06	3.558168e-09	3.724894e+01	2.273891e+02
2.860000e-06	5.218180e-06	3.450744e-09	3.684313e+01	2.262655e+02
2.870000e-06	5.159850e-06	3.452587e-09	3.643129e+01	2.251034e+02
2.880000e-06	5.100660e-06	3.522175e-09	3.601338e+01	2.239009e+02
2.890000e-06	5.040701e-06	3.503017e-09	3.559003e+01	2.226572e+02
2.900000e-06	4.979887e-06	3.412594e-09	3.516065e+01	2.213723e+02
2.910000e-06	4.917967e-06	3.363473e-09	3.472346e+01	2.200473e+02
2.920000e-06	4.854983e-06	3.397230e-09	3.427876e+01	2.186839e+02
2.930000e-06	4.791068e-06	3.414023e-09	3.382749e+01	2.172845e+02
2.940000e-06	4.726303e-06	3.353948e-09	3.337022e+01	2.158517e+02
