# Temperatura_=_20.0
# Concentracion g/m^3_=_12600.0
# C_Vs_to_Am_M_A/Vsm_=_65563218390.804596
# pendiente_HvsI_1/m_=_3716.3
# ordenada_HvsI_A/m_=_1297.0
# frecuencia_Hz_=_213153.33307180708

Tiempo_(s)	Campo_(V.s)	Magnetizacion_(V.s)	Campo_(kA/m)	Magnetizacion_(A/m)
0.000000e+00	-6.720440e-06	-3.850483e-09	-4.757860e+01	-2.499590e+02
1.000000e-08	-6.719850e-06	-3.849704e-09	-4.757442e+01	-2.499218e+02
2.000000e-08	-6.717880e-06	-3.851225e-09	-4.756047e+01	-2.498519e+02
3.000000e-08	-6.714528e-06	-3.850844e-09	-4.753674e+01	-2.497532e+02
4.000000e-08	-6.710286e-06	-3.851021e-09	-4.750671e+01	-2.496304e+02
5.000000e-08	-6.705061e-06	-3.851141e-09	-4.746972e+01	-2.494899e+02
6.000000e-08	-6.698566e-06	-3.849176e-09	-4.742374e+01	-2.493388e+02
7.000000e-08	-6.691031e-06	-3.845895e-09	-4.737039e+01	-2.491847e+02
8.000000e-08	-6.682630e-06	-3.840020e-09	-4.731092e+01	-2.490354e+02
9.000000e-08	-6.672791e-06	-3.828408e-09	-4.724126e+01	-2.488985e+02
1.000000e-07	-6.661116e-06	-3.856615e-09	-4.715860e+01	-2.487806e+02
1.100000e-07	-6.647783e-06	-3.869235e-09	-4.706420e+01	-2.486872e+02
1.200000e-07	-6.632988e-06	-3.862009e-09	-4.695947e+01	-2.486222e+02
1.300000e-07	-6.616890e-06	-3.826375e-09	-4.684549e+01	-2.485876e+02
1.400000e-07	-6.599731e-06	-3.736196e-09	-4.672401e+01	-2.485830e+02
1.500000e-07	-6.581590e-06	-3.832052e-09	-4.659558e+01	-2.486059e+02
1.600000e-07	-6.562454e-06	-3.894020e-09	-4.646010e+01	-2.486515e+02
1.700000e-07	-6.542539e-06	-3.766170e-09	-4.631912e+01	-2.487130e+02
1.800000e-07	-6.521532e-06	-3.799487e-09	-4.617039e+01	-2.487817e+02
1.900000e-07	-6.499273e-06	-3.782124e-09	-4.601281e+01	-2.488474e+02
2.000000e-07	-6.476212e-06	-3.708961e-09	-4.584954e+01	-2.488990e+02
2.100000e-07	-6.452246e-06	-3.861450e-09	-4.567987e+01	-2.489249e+02
2.200000e-07	-6.426743e-06	-3.838862e-09	-4.549932e+01	-2.489136e+02
2.300000e-07	-6.399706e-06	-3.673421e-09	-4.530790e+01	-2.488542e+02
2.400000e-07	-6.371691e-06	-3.745909e-09	-4.510957e+01	-2.487372e+02
2.500000e-07	-6.342773e-06	-3.800407e-09	-4.490483e+01	-2.485544e+02
2.600000e-07	-6.312746e-06	-3.781358e-09	-4.469225e+01	-2.482996e+02
2.700000e-07	-6.281558e-06	-3.746395e-09	-4.447145e+01	-2.479690e+02
2.800000e-07	-6.249473e-06	-3.655913e-09	-4.424430e+01	-2.475610e+02
2.900000e-07	-6.216383e-06	-3.678497e-09	-4.401003e+01	-2.470763e+02
3.000000e-07	-6.181880e-06	-3.734199e-09	-4.376576e+01	-2.465176e+02
3.100000e-07	-6.146135e-06	-3.723449e-09	-4.351270e+01	-2.458897e+02
3.200000e-07	-6.109306e-06	-3.700095e-09	-4.325196e+01	-2.451989e+02
3.300000e-07	-6.071304e-06	-3.641713e-09	-4.298292e+01	-2.444526e+02
3.400000e-07	-6.032259e-06	-3.611655e-09	-4.270649e+01	-2.436586e+02
3.500000e-07	-5.992358e-06	-3.685910e-09	-4.242400e+01	-2.428252e+02
3.600000e-07	-5.951432e-06	-3.731121e-09	-4.213426e+01	-2.419601e+02
3.700000e-07	-5.909122e-06	-3.623133e-09	-4.183472e+01	-2.410705e+02
3.800000e-07	-5.865603e-06	-3.517652e-09	-4.152662e+01	-2.401623e+02
3.900000e-07	-5.821166e-06	-3.589933e-09	-4.121202e+01	-2.392401e+02
4.000000e-07	-5.775722e-06	-3.678834e-09	-4.089029e+01	-2.383070e+02
4.100000e-07	-5.729200e-06	-3.621897e-09	-4.056093e+01	-2.373644e+02
4.200000e-07	-5.681730e-06	-3.502297e-09	-4.022486e+01	-2.364124e+02
4.300000e-07	-5.633234e-06	-3.481580e-09	-3.988152e+01	-2.354496e+02
4.400000e-07	-5.583377e-06	-3.574725e-09	-3.952855e+01	-2.344733e+02
4.500000e-07	-5.532124e-06	-3.605797e-09	-3.916570e+01	-2.334801e+02
4.600000e-07	-5.479738e-06	-3.501824e-09	-3.879482e+01	-2.324661e+02
4.700000e-07	-5.426421e-06	-3.406142e-09	-3.841735e+01	-2.314270e+02
4.800000e-07	-5.372172e-06	-3.435172e-09	-3.803328e+01	-2.303590e+02
4.900000e-07	-5.316995e-06	-3.507101e-09	-3.764265e+01	-2.292583e+02
5.000000e-07	-5.260974e-06	-3.482961e-09	-3.724604e+01	-2.281221e+02
5.100000e-07	-5.204012e-06	-3.381146e-09	-3.684277e+01	-2.269483e+02
5.200000e-07	-5.145803e-06	-3.335299e-09	-3.643066e+01	-2.257359e+02
5.300000e-07	-5.086530e-06	-3.388604e-09	-3.601103e+01	-2.244849e+02
5.400000e-07	-5.026524e-06	-3.424513e-09	-3.558620e+01	-2.231959e+02
5.500000e-07	-4.965609e-06	-3.365838e-09	-3.515495e+01	-2.218708e+02
5.600000e-07	-4.903805e-06	-3.286959e-09	-3.471740e+01	-2.205116e+02
5.700000e-07	-4.841243e-06	-3.272728e-09	-3.427448e+01	-2.191212e+02
5.800000e-07	-4.777959e-06	-3.298424e-09	-3.382644e+01	-2.177022e+02
5.900000e-07	-4.713973e-06	-3.286117e-09	-3.337345e+01	-2.162575e+02
6.000000e-07	-4.648991e-06	-3.239432e-09	-3.291339e+01	-2.147893e+02
6.100000e-07	-4.582805e-06	-3.194619e-09	-3.244481e+01	-2.132996e+02
6.200000e-07	-4.515668e-06	-3.173000e-09	-3.196951e+01	-2.117895e+02
6.300000e-07	-4.447920e-06	-3.176997e-09	-3.148987e+01	-2.102596e+02
6.400000e-07	-4.379600e-06	-3.172395e-09	-3.100619e+01	-2.087095e+02
6.500000e-07	-4.310525e-06	-3.139124e-09	-3.051716e+01	-2.071380e+02
6.600000e-07	-4.240624e-06	-3.084509e-09	-3.002228e+01	-2.055435e+02
6.700000e-07	-4.169985e-06	-3.053111e-09	-2.952218e+01	-2.039234e+02
6.800000e-07	-4.098671e-06	-3.061754e-09	-2.901730e+01	-2.022753e+02
6.900000e-07	-4.026749e-06	-3.057798e-09	-2.850812e+01	-2.005960e+02
7.000000e-07	-3.954094e-06	-3.004769e-09	-2.799374e+01	-1.988825e+02
7.100000e-07	-3.880428e-06	-2.937033e-09	-2.747221e+01	-1.971322e+02
7.200000e-07	-3.805827e-06	-2.919776e-09	-2.694405e+01	-1.953424e+02
7.300000e-07	-3.730502e-06	-2.936688e-09	-2.641078e+01	-1.935110e+02
7.400000e-07	-3.654492e-06	-2.912660e-09	-2.587265e+01	-1.916364e+02
7.500000e-07	-3.577783e-06	-2.842744e-09	-2.532958e+01	-1.897174e+02
7.600000e-07	-3.500412e-06	-2.793085e-09	-2.478181e+01	-1.877535e+02
7.700000e-07	-3.422352e-06	-2.797437e-09	-2.422918e+01	-1.857446e+02
7.800000e-07	-3.343579e-06	-2.797231e-09	-2.367149e+01	-1.836909e+02
7.900000e-07	-3.264048e-06	-2.745835e-09	-2.310843e+01	-1.815928e+02
8.000000e-07	-3.183806e-06	-2.681933e-09	-2.254034e+01	-1.794511e+02
8.100000e-07	-3.102969e-06	-2.652270e-09	-2.196804e+01	-1.772664e+02
8.200000e-07	-3.021628e-06	-2.648642e-09	-2.139217e+01	-1.750392e+02
8.300000e-07	-2.939797e-06	-2.622343e-09	-2.081284e+01	-1.727698e+02
8.400000e-07	-2.857416e-06	-2.565702e-09	-2.022960e+01	-1.704585e+02
8.500000e-07	-2.774565e-06	-2.516096e-09	-1.964305e+01	-1.681048e+02
8.600000e-07	-2.691321e-06	-2.488376e-09	-1.905370e+01	-1.657083e+02
8.700000e-07	-2.607729e-06	-2.468106e-09	-1.846190e+01	-1.632681e+02
8.800000e-07	-2.523817e-06	-2.431800e-09	-1.786783e+01	-1.607832e+02
8.900000e-07	-2.439500e-06	-2.379073e-09	-1.727089e+01	-1.582522e+02
9.000000e-07	-2.354794e-06	-2.330189e-09	-1.667120e+01	-1.556740e+02
9.100000e-07	-2.269731e-06	-2.294652e-09	-1.606898e+01	-1.530471e+02
9.200000e-07	-2.184293e-06	-2.269455e-09	-1.546410e+01	-1.503706e+02
9.300000e-07	-2.098511e-06	-2.234811e-09	-1.485679e+01	-1.476436e+02
9.400000e-07	-2.012344e-06	-2.181045e-09	-1.424676e+01	-1.448652e+02
9.500000e-07	-1.925776e-06	-2.125415e-09	-1.363389e+01	-1.420353e+02
9.600000e-07	-1.838855e-06	-2.083792e-09	-1.301851e+01	-1.391537e+02
9.700000e-07	-1.751704e-06	-2.056236e-09	-1.240151e+01	-1.362206e+02
9.800000e-07	-1.664363e-06	-2.016677e-09	-1.178316e+01	-1.332365e+02
9.900000e-07	-1.576799e-06	-1.954065e-09	-1.116324e+01	-1.302020e+02
1.000000e-06	-1.488964e-06	-1.895280e-09	-1.054139e+01	-1.271177e+02
1.010000e-06	-1.400882e-06	-1.859810e-09	-9.917802e+00	-1.239840e+02
1.020000e-06	-1.312648e-06	-1.832588e-09	-9.293133e+00	-1.208015e+02
1.030000e-06	-1.224196e-06	-1.781406e-09	-8.666920e+00	-1.175703e+02
1.040000e-06	-1.135458e-06	-1.711156e-09	-8.038683e+00	-1.142902e+02
1.050000e-06	-1.046492e-06	-1.655554e-09	-7.408834e+00	-1.109607e+02
1.060000e-06	-9.573853e-07	-1.623963e-09	-6.777986e+00	-1.075810e+02
1.070000e-06	-8.681730e-07	-1.587150e-09	-6.146391e+00	-1.041499e+02
1.080000e-06	-7.787343e-07	-1.520138e-09	-5.513194e+00	-1.006658e+02
1.090000e-06	-6.889665e-07	-1.447492e-09	-4.877666e+00	-9.712694e+01
1.100000e-06	-5.990028e-07	-1.396689e-09	-4.240751e+00	-9.353150e+01
1.110000e-06	-5.089407e-07	-1.360289e-09	-3.603140e+00	-8.987746e+01
1.120000e-06	-4.187333e-07	-1.310007e-09	-2.964500e+00	-8.616291e+01
1.130000e-06	-3.284169e-07	-1.236812e-09	-2.325088e+00	-8.238606e+01
1.140000e-06	-2.380306e-07	-1.169696e-09	-1.685182e+00	-7.854532e+01
1.150000e-06	-1.475855e-07	-1.119960e-09	-1.044858e+00	-7.463937e+01
1.160000e-06	-5.713145e-08	-1.071500e-09	-4.044726e-01	-7.066718e+01
1.170000e-06	3.331246e-08	-1.006442e-09	2.358417e-01	-6.662800e+01
1.180000e-06	1.237915e-07	-9.280212e-10	8.764044e-01	-6.252135e+01
1.190000e-06	2.142445e-07	-8.574961e-10	1.516783e+00	-5.834693e+01
1.200000e-06	3.046054e-07	-8.006025e-10	2.156510e+00	-5.410460e+01
1.210000e-06	3.948856e-07	-7.461936e-10	2.795665e+00	-4.979427e+01
1.220000e-06	4.850438e-07	-6.786004e-10	3.433957e+00	-4.541580e+01
1.230000e-06	5.751156e-07	-6.018979e-10	4.071637e+00	-4.096898e+01
1.240000e-06	6.651124e-07	-5.332387e-10	4.708786e+00	-3.645345e+01
1.250000e-06	7.549976e-07	-4.742331e-10	5.345145e+00	-3.186867e+01
1.260000e-06	8.446907e-07	-4.081258e-10	5.980144e+00	-2.721396e+01
1.270000e-06	9.340580e-07	-3.257144e-10	6.612836e+00	-2.248856e+01
1.280000e-06	1.023149e-06	-2.399862e-10	7.243575e+00	-1.769170e+01
1.290000e-06	1.112025e-06	-1.666641e-10	7.872787e+00	-1.282276e+01
1.300000e-06	1.200663e-06	-9.879785e-11	8.500316e+00	-7.881431e+00
1.310000e-06	1.289070e-06	-2.357043e-11	9.126213e+00	-2.867908e+00
1.320000e-06	1.377248e-06	5.971154e-11	9.750483e+00	2.216915e+00
1.330000e-06	1.465182e-06	1.437016e-10	1.037303e+01	7.371236e+00
1.340000e-06	1.552851e-06	2.194831e-10	1.099370e+01	1.259217e+01
1.350000e-06	1.640297e-06	2.915404e-10	1.161279e+01	1.787557e+01
1.360000e-06	1.727469e-06	3.716561e-10	1.222993e+01	2.321597e+01
1.370000e-06	1.814361e-06	4.607553e-10	1.284510e+01	2.860646e+01
1.380000e-06	1.901035e-06	5.483617e-10	1.345873e+01	3.403877e+01
1.390000e-06	1.987429e-06	6.289358e-10	1.407037e+01	3.950325e+01
1.400000e-06	2.073432e-06	7.069658e-10	1.467925e+01	4.498910e+01
1.410000e-06	2.159062e-06	7.898866e-10	1.528548e+01	5.048450e+01
1.420000e-06	2.244391e-06	8.784878e-10	1.588958e+01	5.597687e+01
1.430000e-06	2.329360e-06	9.655087e-10	1.649113e+01	6.145318e+01
1.440000e-06	2.413933e-06	1.044088e-09	1.708988e+01	6.690025e+01
1.450000e-06	2.498158e-06	1.120007e-09	1.768617e+01	7.230508e+01
1.460000e-06	2.582031e-06	1.199442e-09	1.827997e+01	7.765515e+01
1.470000e-06	2.665577e-06	1.284278e-09	1.887145e+01	8.293872e+01
1.480000e-06	2.748752e-06	1.367043e-09	1.946030e+01	8.814508e+01
1.490000e-06	2.831447e-06	1.439379e-09	2.004575e+01	9.326479e+01
1.500000e-06	2.913665e-06	1.506810e-09	2.062783e+01	9.828976e+01
1.510000e-06	2.995268e-06	1.581123e-09	2.120555e+01	1.032134e+02
1.520000e-06	3.076209e-06	1.661985e-09	2.177859e+01	1.080306e+02
1.530000e-06	3.156665e-06	1.735806e-09	2.234819e+01	1.127376e+02
1.540000e-06	3.236641e-06	1.796661e-09	2.291440e+01	1.173321e+02
1.550000e-06	3.315935e-06	1.857643e-09	2.347578e+01	1.218129e+02
1.560000e-06	3.394564e-06	1.928103e-09	2.403244e+01	1.261801e+02
1.570000e-06	3.472617e-06	1.997991e-09	2.458503e+01	1.304342e+02
1.580000e-06	3.550036e-06	2.059205e-09	2.513314e+01	1.345766e+02
1.590000e-06	3.626851e-06	2.115362e-09	2.567696e+01	1.386093e+02
1.600000e-06	3.703027e-06	2.174945e-09	2.621627e+01	1.425342e+02
1.610000e-06	3.778493e-06	2.239892e-09	2.675054e+01	1.463536e+02
1.620000e-06	3.853140e-06	2.299775e-09	2.727902e+01	1.500699e+02
1.630000e-06	3.926867e-06	2.349093e-09	2.780098e+01	1.536854e+02
1.640000e-06	3.999618e-06	2.394418e-09	2.831604e+01	1.572022e+02
1.650000e-06	4.071575e-06	2.444131e-09	2.882547e+01	1.606225e+02
1.660000e-06	4.142921e-06	2.497111e-09	2.933057e+01	1.639485e+02
1.670000e-06	4.213621e-06	2.545241e-09	2.983111e+01	1.671823e+02
1.680000e-06	4.283615e-06	2.589915e-09	3.032664e+01	1.703260e+02
1.690000e-06	4.352829e-06	2.634727e-09	3.081666e+01	1.733820e+02
1.700000e-06	4.421317e-06	2.681084e-09	3.130153e+01	1.763526e+02
1.710000e-06	4.489138e-06	2.725815e-09	3.178168e+01	1.792404e+02
1.720000e-06	4.556265e-06	2.765253e-09	3.225692e+01	1.820480e+02
1.730000e-06	4.622452e-06	2.802279e-09	3.272551e+01	1.847781e+02
1.740000e-06	4.687518e-06	2.837775e-09	3.318615e+01	1.874335e+02
1.750000e-06	4.751662e-06	2.873393e-09	3.364027e+01	1.900170e+02
1.760000e-06	4.815100e-06	2.912209e-09	3.408939e+01	1.925310e+02
1.770000e-06	4.877854e-06	2.950781e-09	3.453367e+01	1.949780e+02
1.780000e-06	4.939829e-06	2.985182e-09	3.497243e+01	1.973600e+02
1.790000e-06	5.000995e-06	3.016835e-09	3.540547e+01	1.996785e+02
1.800000e-06	5.061414e-06	3.051232e-09	3.583322e+01	2.019349e+02
1.810000e-06	5.121092e-06	3.084668e-09	3.625572e+01	2.041297e+02
1.820000e-06	5.179850e-06	3.112372e-09	3.667170e+01	2.062631e+02
1.830000e-06	5.237374e-06	3.137842e-09	3.707896e+01	2.083349e+02
1.840000e-06	5.293761e-06	3.164821e-09	3.747816e+01	2.103446e+02
1.850000e-06	5.349313e-06	3.192838e-09	3.787145e+01	2.122911e+02
1.860000e-06	5.404010e-06	3.219390e-09	3.825869e+01	2.141737e+02
1.870000e-06	5.457776e-06	3.244487e-09	3.863934e+01	2.159913e+02
1.880000e-06	5.510594e-06	3.268063e-09	3.901327e+01	2.177432e+02
1.890000e-06	5.562324e-06	3.293068e-09	3.937950e+01	2.194291e+02
1.900000e-06	5.612791e-06	3.320014e-09	3.973679e+01	2.210489e+02
1.910000e-06	5.661933e-06	3.343641e-09	4.008470e+01	2.226035e+02
1.920000e-06	5.709910e-06	3.364718e-09	4.042436e+01	2.240939e+02
1.930000e-06	5.756859e-06	3.384982e-09	4.075675e+01	2.255222e+02
1.940000e-06	5.802808e-06	3.404307e-09	4.108205e+01	2.268907e+02
1.950000e-06	5.847855e-06	3.423691e-09	4.140097e+01	2.282025e+02
1.960000e-06	5.892041e-06	3.442352e-09	4.171380e+01	2.294610e+02
1.970000e-06	5.935320e-06	3.460046e-09	4.202019e+01	2.306697e+02
1.980000e-06	5.977515e-06	3.477541e-09	4.231892e+01	2.318324e+02
1.990000e-06	6.018342e-06	3.496032e-09	4.260796e+01	2.329525e+02
2.000000e-06	6.057974e-06	3.514820e-09	4.288855e+01	2.340331e+02
2.010000e-06	6.096641e-06	3.531841e-09	4.316230e+01	2.350770e+02
2.020000e-06	6.134290e-06	3.545741e-09	4.342884e+01	2.360863e+02
2.030000e-06	6.170992e-06	3.559001e-09	4.368868e+01	2.370624e+02
2.040000e-06	6.206847e-06	3.574588e-09	4.394252e+01	2.380058e+02
2.050000e-06	6.241644e-06	3.589003e-09	4.418887e+01	2.389166e+02
2.060000e-06	6.275042e-06	3.601616e-09	4.442532e+01	2.397940e+02
2.070000e-06	6.307157e-06	3.613502e-09	4.465268e+01	2.406368e+02
2.080000e-06	6.338265e-06	3.626085e-09	4.487292e+01	2.414436e+02
2.090000e-06	6.368346e-06	3.640196e-09	4.508588e+01	2.422126e+02
2.100000e-06	6.397398e-06	3.652795e-09	4.529156e+01	2.429423e+02
2.110000e-06	6.425483e-06	3.662987e-09	4.549039e+01	2.436313e+02
2.120000e-06	6.452546e-06	3.671751e-09	4.568199e+01	2.442787e+02
2.130000e-06	6.478312e-06	3.680295e-09	4.586441e+01	2.448842e+02
2.140000e-06	6.502718e-06	3.689572e-09	4.603719e+01	2.454482e+02
2.150000e-06	6.525942e-06	3.699680e-09	4.620161e+01	2.459718e+02
2.160000e-06	6.548049e-06	3.708595e-09	4.635813e+01	2.464567e+02
2.170000e-06	6.569065e-06	3.716171e-09	4.650691e+01	2.469056e+02
2.180000e-06	6.589109e-06	3.723260e-09	4.664882e+01	2.473211e+02
2.190000e-06	6.608192e-06	3.730620e-09	4.678391e+01	2.477065e+02
2.200000e-06	6.626022e-06	3.737321e-09	4.691015e+01	2.480651e+02
2.210000e-06	6.642613e-06	3.742297e-09	4.702761e+01	2.483999e+02
2.220000e-06	6.658050e-06	3.748107e-09	4.713690e+01	2.487136e+02
2.230000e-06	6.672232e-06	3.755909e-09	4.723730e+01	2.490083e+02
2.240000e-06	6.685136e-06	3.761911e-09	4.732866e+01	2.492852e+02
2.250000e-06	6.696780e-06	3.762952e-09	4.741109e+01	2.495449e+02
2.260000e-06	6.707029e-06	3.763549e-09	4.748365e+01	2.497868e+02
2.270000e-06	6.715785e-06	3.767433e-09	4.754564e+01	2.500096e+02
2.280000e-06	6.723328e-06	3.771351e-09	4.759905e+01	2.502112e+02
2.290000e-06	6.729813e-06	3.773989e-09	4.764496e+01	2.503890e+02
2.300000e-06	6.735143e-06	3.777469e-09	4.768269e+01	2.505400e+02
2.310000e-06	6.739380e-06	3.780188e-09	4.771268e+01	2.506613e+02
2.320000e-06	6.742554e-06	3.780842e-09	4.773516e+01	2.507503e+02
2.330000e-06	6.744346e-06	3.781647e-09	4.774784e+01	2.508048e+02
2.340000e-06	6.744757e-06	3.783593e-09	4.775075e+01	2.508237e+02
2.350000e-06	6.744168e-06	3.783819e-09	4.774658e+01	2.508072e+02
2.360000e-06	6.742568e-06	3.782625e-09	4.773525e+01	2.507566e+02
2.370000e-06	6.739821e-06	3.781240e-09	4.771581e+01	2.506746e+02
2.380000e-06	6.736081e-06	3.781882e-09	4.768933e+01	2.505655e+02
2.390000e-06	6.731483e-06	3.779841e-09	4.765677e+01	2.504348e+02
2.400000e-06	6.725624e-06	3.775628e-09	4.761530e+01	2.502891e+02
2.410000e-06	6.718313e-06	3.772803e-09	4.756354e+01	2.501358e+02
2.420000e-06	6.709977e-06	3.772217e-09	4.750452e+01	2.499826e+02
2.430000e-06	6.700656e-06	3.792151e-09	4.743853e+01	2.498374e+02
2.440000e-06	6.690109e-06	3.743395e-09	4.736387e+01	2.497072e+02
2.450000e-06	6.677819e-06	3.722838e-09	4.727685e+01	2.495985e+02
2.460000e-06	6.663328e-06	3.717024e-09	4.717426e+01	2.495161e+02
2.470000e-06	6.647453e-06	3.780954e-09	4.706187e+01	2.494631e+02
2.480000e-06	6.631221e-06	3.884556e-09	4.694696e+01	2.494405e+02
2.490000e-06	6.614397e-06	3.736366e-09	4.682785e+01	2.494473e+02
2.500000e-06	6.596067e-06	3.717032e-09	4.669807e+01	2.494799e+02
2.510000e-06	6.576499e-06	3.834538e-09	4.655954e+01	2.495328e+02
2.520000e-06	6.556370e-06	3.744750e-09	4.641703e+01	2.495983e+02
2.530000e-06	6.534871e-06	3.801712e-09	4.626483e+01	2.496670e+02
2.540000e-06	6.511642e-06	3.871768e-09	4.610037e+01	2.497284e+02
2.550000e-06	6.487420e-06	3.698763e-09	4.592889e+01	2.497710e+02
2.560000e-06	6.462266e-06	3.787800e-09	4.575080e+01	2.497833e+02
2.570000e-06	6.436145e-06	3.958149e-09	4.556588e+01	2.497540e+02
2.580000e-06	6.408925e-06	3.819304e-09	4.537317e+01	2.496726e+02
2.590000e-06	6.380416e-06	3.779511e-09	4.517133e+01	2.495300e+02
2.600000e-06	6.351080e-06	3.796485e-09	4.496364e+01	2.493190e+02
2.610000e-06	6.320517e-06	3.802810e-09	4.474727e+01	2.490342e+02
2.620000e-06	6.288352e-06	3.903614e-09	4.451955e+01	2.486726e+02
2.630000e-06	6.255148e-06	3.833386e-09	4.428447e+01	2.482337e+02
2.640000e-06	6.220900e-06	3.804541e-09	4.404201e+01	2.477188e+02
2.650000e-06	6.185546e-06	3.778874e-09	4.379172e+01	2.471318e+02
2.660000e-06	6.149329e-06	3.714850e-09	4.353531e+01	2.464779e+02
2.670000e-06	6.112023e-06	3.883414e-09	4.327120e+01	2.457638e+02
2.680000e-06	6.073299e-06	3.871342e-09	4.299704e+01	2.449974e+02
2.690000e-06	6.033309e-06	3.674119e-09	4.271393e+01	2.441866e+02
2.700000e-06	5.992388e-06	3.647091e-09	4.242422e+01	2.433396e+02
2.710000e-06	5.950586e-06	3.745630e-09	4.212827e+01	2.424639e+02
2.720000e-06	5.907683e-06	3.870338e-09	4.182453e+01	2.415661e+02
2.730000e-06	5.863868e-06	3.715773e-09	4.151434e+01	2.406518e+02
2.740000e-06	5.819261e-06	3.540884e-09	4.119853e+01	2.397248e+02
2.750000e-06	5.773678e-06	3.648411e-09	4.087582e+01	2.387878e+02
2.760000e-06	5.726969e-06	3.751354e-09	4.054513e+01	2.378415e+02
2.770000e-06	5.678968e-06	3.730057e-09	4.020530e+01	2.368854e+02
2.780000e-06	5.629918e-06	3.560214e-09	3.985804e+01	2.359175e+02
2.790000e-06	5.579970e-06	3.517421e-09	3.950443e+01	2.349348e+02
2.800000e-06	5.529018e-06	3.647065e-09	3.914370e+01	2.339337e+02
2.810000e-06	5.477049e-06	3.663565e-09	3.877578e+01	2.329101e+02
2.820000e-06	5.423871e-06	3.590043e-09	3.839930e+01	2.318599e+02
2.830000e-06	5.369315e-06	3.485311e-09	3.801306e+01	2.307791e+02
2.840000e-06	5.313667e-06	3.497438e-09	3.761909e+01	2.296644e+02
2.850000e-06	5.257266e-06	3.565152e-09	3.721978e+01	2.285133e+02
2.860000e-06	5.200034e-06	3.541938e-09	3.681460e+01	2.273242e+02
2.870000e-06	5.141768e-06	3.472571e-09	3.640210e+01	2.260962e+02
2.880000e-06	5.082574e-06	3.410869e-09	3.598302e+01	2.248298e+02
2.890000e-06	5.022708e-06	3.433777e-09	3.555919e+01	2.235261e+02
2.900000e-06	4.962107e-06	3.447329e-09	3.513015e+01	2.221870e+02
2.910000e-06	4.900365e-06	3.415713e-09	3.469304e+01	2.208149e+02
2.920000e-06	4.837397e-06	3.369193e-09	3.424724e+01	2.194127e+02
2.930000e-06	4.773517e-06	3.328446e-09	3.379500e+01	2.179830e+02
2.940000e-06	4.708930e-06	3.314197e-09	3.333774e+01	2.165286e+02
