# Temperatura_=_20.0
# Concentracion g/m^3_=_12600.0
# C_Vs_to_Am_M_A/Vsm_=_65563218390.804596
# pendiente_HvsI_1/m_=_3716.3
# ordenada_HvsI_A/m_=_1297.0
# frecuencia_Hz_=_213156.51267345925

Tiempo_(s)	Campo_(V.s)	Magnetizacion_(V.s)	Campo_(kA/m)	Magnetizacion_(A/m)
0.000000e+00	-6.791448e-06	-4.239698e-09	-4.757548e+01	-2.734846e+02
1.000000e-08	-6.791198e-06	-4.239059e-09	-4.757373e+01	-2.734387e+02
2.000000e-08	-6.789605e-06	-4.240629e-09	-4.756257e+01	-2.733637e+02
3.000000e-08	-6.786572e-06	-4.240133e-09	-4.754132e+01	-2.732633e+02
4.000000e-08	-6.782525e-06	-4.239403e-09	-4.751297e+01	-2.731420e+02
5.000000e-08	-6.777548e-06	-4.237896e-09	-4.747811e+01	-2.730045e+02
6.000000e-08	-6.771442e-06	-4.232855e-09	-4.743534e+01	-2.728565e+02
7.000000e-08	-6.764239e-06	-4.225686e-09	-4.738488e+01	-2.727034e+02
8.000000e-08	-6.756071e-06	-4.211003e-09	-4.732766e+01	-2.725508e+02
9.000000e-08	-6.746465e-06	-4.199611e-09	-4.726037e+01	-2.724039e+02
1.000000e-07	-6.735084e-06	-4.264979e-09	-4.718064e+01	-2.722674e+02
1.100000e-07	-6.722163e-06	-4.299522e-09	-4.709012e+01	-2.721450e+02
1.200000e-07	-6.707723e-06	-4.276593e-09	-4.698897e+01	-2.720397e+02
1.300000e-07	-6.691744e-06	-4.214678e-09	-4.687703e+01	-2.719527e+02
1.400000e-07	-6.674675e-06	-4.052068e-09	-4.675746e+01	-2.718844e+02
1.500000e-07	-6.656766e-06	-4.218490e-09	-4.663200e+01	-2.718334e+02
1.600000e-07	-6.637831e-06	-4.392166e-09	-4.649937e+01	-2.717968e+02
1.700000e-07	-6.618146e-06	-4.136245e-09	-4.636147e+01	-2.717705e+02
1.800000e-07	-6.597501e-06	-4.178152e-09	-4.621684e+01	-2.717489e+02
1.900000e-07	-6.575435e-06	-4.181700e-09	-4.606227e+01	-2.717254e+02
2.000000e-07	-6.552311e-06	-4.019153e-09	-4.590028e+01	-2.716925e+02
2.100000e-07	-6.528379e-06	-4.297478e-09	-4.573263e+01	-2.716422e+02
2.200000e-07	-6.503095e-06	-4.283672e-09	-4.555551e+01	-2.715661e+02
2.300000e-07	-6.476220e-06	-3.917715e-09	-4.536725e+01	-2.714560e+02
2.400000e-07	-6.448225e-06	-4.019459e-09	-4.517114e+01	-2.713041e+02
2.500000e-07	-6.419350e-06	-4.185551e-09	-4.496886e+01	-2.711034e+02
2.600000e-07	-6.389478e-06	-4.127407e-09	-4.475960e+01	-2.708476e+02
2.700000e-07	-6.358450e-06	-4.067735e-09	-4.454224e+01	-2.705318e+02
2.800000e-07	-6.326380e-06	-3.932104e-09	-4.431758e+01	-2.701525e+02
2.900000e-07	-6.293192e-06	-3.971428e-09	-4.408510e+01	-2.697075e+02
3.000000e-07	-6.258606e-06	-4.090883e-09	-4.384282e+01	-2.691961e+02
3.100000e-07	-6.222854e-06	-4.022420e-09	-4.359236e+01	-2.686191e+02
3.200000e-07	-6.186053e-06	-3.975875e-09	-4.333456e+01	-2.679784e+02
3.300000e-07	-6.148083e-06	-3.967012e-09	-4.306858e+01	-2.672773e+02
3.400000e-07	-6.109083e-06	-3.931557e-09	-4.279537e+01	-2.665196e+02
3.500000e-07	-6.069250e-06	-3.986485e-09	-4.251634e+01	-2.657102e+02
3.600000e-07	-6.028242e-06	-4.048552e-09	-4.222907e+01	-2.648539e+02
3.700000e-07	-5.985786e-06	-3.962438e-09	-4.193166e+01	-2.639560e+02
3.800000e-07	-5.942157e-06	-3.826438e-09	-4.162602e+01	-2.630212e+02
3.900000e-07	-5.897556e-06	-3.882807e-09	-4.131359e+01	-2.620541e+02
4.000000e-07	-5.851993e-06	-3.989987e-09	-4.099441e+01	-2.610587e+02
4.100000e-07	-5.805418e-06	-3.935857e-09	-4.066814e+01	-2.600379e+02
4.200000e-07	-5.757836e-06	-3.824022e-09	-4.033482e+01	-2.589941e+02
4.300000e-07	-5.709124e-06	-3.778907e-09	-3.999358e+01	-2.579287e+02
4.400000e-07	-5.658959e-06	-3.856363e-09	-3.964217e+01	-2.568421e+02
4.500000e-07	-5.607362e-06	-3.916683e-09	-3.928072e+01	-2.557340e+02
4.600000e-07	-5.554660e-06	-3.830637e-09	-3.891153e+01	-2.546034e+02
4.700000e-07	-5.501035e-06	-3.726090e-09	-3.853587e+01	-2.534486e+02
4.800000e-07	-5.446546e-06	-3.714680e-09	-3.815417e+01	-2.522676e+02
4.900000e-07	-5.391253e-06	-3.777365e-09	-3.776683e+01	-2.510583e+02
5.000000e-07	-5.335058e-06	-3.791258e-09	-3.737317e+01	-2.498183e+02
5.100000e-07	-5.277627e-06	-3.699484e-09	-3.697085e+01	-2.485454e+02
5.200000e-07	-5.218951e-06	-3.624291e-09	-3.655982e+01	-2.472379e+02
5.300000e-07	-5.159371e-06	-3.651326e-09	-3.614245e+01	-2.458941e+02
5.400000e-07	-5.099036e-06	-3.703167e-09	-3.571979e+01	-2.445130e+02
5.500000e-07	-5.037891e-06	-3.665390e-09	-3.529145e+01	-2.430941e+02
5.600000e-07	-4.975858e-06	-3.580064e-09	-3.485690e+01	-2.416373e+02
5.700000e-07	-4.913045e-06	-3.553934e-09	-3.441688e+01	-2.401430e+02
5.800000e-07	-4.849518e-06	-3.569014e-09	-3.397187e+01	-2.386120e+02
5.900000e-07	-4.785023e-06	-3.557647e-09	-3.352006e+01	-2.370455e+02
6.000000e-07	-4.719379e-06	-3.520713e-09	-3.306021e+01	-2.354448e+02
6.100000e-07	-4.652704e-06	-3.477522e-09	-3.259314e+01	-2.338114e+02
6.200000e-07	-4.585229e-06	-3.443228e-09	-3.212047e+01	-2.321466e+02
6.300000e-07	-4.517132e-06	-3.428136e-09	-3.164343e+01	-2.304518e+02
6.400000e-07	-4.448375e-06	-3.430126e-09	-3.116178e+01	-2.287279e+02
6.500000e-07	-4.378853e-06	-3.416219e-09	-3.067476e+01	-2.269756e+02
6.600000e-07	-4.308514e-06	-3.357617e-09	-3.018202e+01	-2.251953e+02
6.700000e-07	-4.237449e-06	-3.299719e-09	-2.968420e+01	-2.233868e+02
6.800000e-07	-4.165732e-06	-3.291059e-09	-2.918181e+01	-2.215497e+02
6.900000e-07	-4.093294e-06	-3.309412e-09	-2.867436e+01	-2.196830e+02
7.000000e-07	-4.019979e-06	-3.280239e-09	-2.816077e+01	-2.177855e+02
7.100000e-07	-3.945621e-06	-3.196439e-09	-2.763988e+01	-2.158556e+02
7.200000e-07	-3.870360e-06	-3.150406e-09	-2.711266e+01	-2.138916e+02
7.300000e-07	-3.794391e-06	-3.172473e-09	-2.658049e+01	-2.118914e+02
7.400000e-07	-3.717792e-06	-3.182785e-09	-2.604389e+01	-2.098531e+02
7.500000e-07	-3.640466e-06	-3.112934e-09	-2.550221e+01	-2.077747e+02
7.600000e-07	-3.562308e-06	-3.026801e-09	-2.495470e+01	-2.056542e+02
7.700000e-07	-3.483353e-06	-3.017116e-09	-2.440160e+01	-2.034899e+02
7.800000e-07	-3.403715e-06	-3.040468e-09	-2.384372e+01	-2.012800e+02
7.900000e-07	-3.323465e-06	-3.008217e-09	-2.328155e+01	-1.990234e+02
8.000000e-07	-3.242620e-06	-2.922312e-09	-2.271522e+01	-1.967187e+02
8.100000e-07	-3.161200e-06	-2.865934e-09	-2.214485e+01	-1.943650e+02
8.200000e-07	-3.079213e-06	-2.870917e-09	-2.157051e+01	-1.919617e+02
8.300000e-07	-2.996751e-06	-2.864638e-09	-2.099285e+01	-1.895081e+02
8.400000e-07	-2.913875e-06	-2.804839e-09	-2.041229e+01	-1.870039e+02
8.500000e-07	-2.830569e-06	-2.732583e-09	-1.982871e+01	-1.844489e+02
8.600000e-07	-2.746851e-06	-2.698813e-09	-1.924225e+01	-1.818429e+02
8.700000e-07	-2.662813e-06	-2.689844e-09	-1.865355e+01	-1.791857e+02
8.800000e-07	-2.578366e-06	-2.655429e-09	-1.806198e+01	-1.764774e+02
8.900000e-07	-2.493496e-06	-2.594407e-09	-1.746745e+01	-1.737177e+02
9.000000e-07	-2.408189e-06	-2.538157e-09	-1.686986e+01	-1.709065e+02
9.100000e-07	-2.322420e-06	-2.502065e-09	-1.626903e+01	-1.680436e+02
9.200000e-07	-2.236327e-06	-2.475466e-09	-1.566593e+01	-1.651286e+02
9.300000e-07	-2.149924e-06	-2.439227e-09	-1.506066e+01	-1.621613e+02
9.400000e-07	-2.063193e-06	-2.389225e-09	-1.445309e+01	-1.591411e+02
9.500000e-07	-1.976075e-06	-2.331311e-09	-1.384281e+01	-1.560675e+02
9.600000e-07	-1.888661e-06	-2.278699e-09	-1.323046e+01	-1.529399e+02
9.700000e-07	-1.801054e-06	-2.241676e-09	-1.261675e+01	-1.497576e+02
9.800000e-07	-1.713210e-06	-2.206007e-09	-1.200138e+01	-1.465200e+02
9.900000e-07	-1.625056e-06	-2.151813e-09	-1.138385e+01	-1.432262e+02
1.000000e-06	-1.536502e-06	-2.080659e-09	-1.076351e+01	-1.398756e+02
1.010000e-06	-1.447525e-06	-2.024286e-09	-1.014021e+01	-1.364674e+02
1.020000e-06	-1.358264e-06	-1.994588e-09	-9.514918e+00	-1.330010e+02
1.030000e-06	-1.268748e-06	-1.955243e-09	-8.887836e+00	-1.294757e+02
1.040000e-06	-1.178899e-06	-1.883284e-09	-8.258431e+00	-1.258909e+02
1.050000e-06	-1.088735e-06	-1.807301e-09	-7.626808e+00	-1.222461e+02
1.060000e-06	-9.982766e-07	-1.763578e-09	-6.993132e+00	-1.185410e+02
1.070000e-06	-9.076572e-07	-1.733351e-09	-6.358324e+00	-1.147751e+02
1.080000e-06	-8.169140e-07	-1.674816e-09	-5.722650e+00	-1.109483e+02
1.090000e-06	-7.260071e-07	-1.592289e-09	-5.085828e+00	-1.070605e+02
1.100000e-06	-6.349451e-07	-1.522400e-09	-4.447920e+00	-1.031116e+02
1.110000e-06	-5.437752e-07	-1.479027e-09	-3.809256e+00	-9.910165e+01
1.120000e-06	-4.525454e-07	-1.433657e-09	-3.170173e+00	-9.503081e+01
1.130000e-06	-3.612678e-07	-1.362304e-09	-2.530755e+00	-9.089915e+01
1.140000e-06	-2.700006e-07	-1.282223e-09	-1.891409e+00	-8.670676e+01
1.150000e-06	-1.786577e-07	-1.216465e-09	-1.251534e+00	-8.245368e+01
1.160000e-06	-8.723339e-08	-1.165242e-09	-6.110877e-01	-7.813983e+01
1.170000e-06	4.209189e-09	-1.107039e-09	2.948623e-02	-7.376496e+01
1.180000e-06	9.564409e-08	-1.030220e-09	6.700064e-01	-6.932865e+01
1.190000e-06	1.870386e-07	-9.493063e-10	1.310244e+00	-6.483023e+01
1.200000e-06	2.784236e-07	-8.801748e-10	1.950415e+00	-6.026875e+01
1.210000e-06	3.698096e-07	-8.216019e-10	2.590592e+00	-5.564302e+01
1.220000e-06	4.611457e-07	-7.557988e-10	3.230420e+00	-5.095155e+01
1.230000e-06	5.523545e-07	-6.737175e-10	3.869356e+00	-4.619263e+01
1.240000e-06	6.434864e-07	-5.870591e-10	4.507754e+00	-4.136436e+01
1.250000e-06	7.345334e-07	-5.137107e-10	5.145557e+00	-3.646472e+01
1.260000e-06	8.254531e-07	-4.509694e-10	5.782468e+00	-3.149168e+01
1.270000e-06	9.162671e-07	-3.796337e-10	6.418639e+00	-2.644333e+01
1.280000e-06	1.006939e-06	-2.911633e-10	7.053816e+00	-2.131801e+01
1.290000e-06	1.097396e-06	-2.019481e-10	7.687486e+00	-1.611447e+01
1.300000e-06	1.187583e-06	-1.256459e-10	8.319260e+00	-1.083203e+01
1.310000e-06	1.277402e-06	-5.738818e-11	8.948463e+00	-5.470772e+00
1.320000e-06	1.366894e-06	2.339079e-11	9.575372e+00	-3.165562e-02
1.330000e-06	1.456046e-06	1.195784e-10	1.019990e+01	5.483304e+00
1.340000e-06	1.544844e-06	2.104326e-10	1.082195e+01	1.107093e+01
1.350000e-06	1.633316e-06	2.858387e-10	1.144171e+01	1.672680e+01
1.360000e-06	1.721359e-06	3.614052e-10	1.205847e+01	2.244517e+01
1.370000e-06	1.809048e-06	4.546769e-10	1.267275e+01	2.821900e+01
1.380000e-06	1.896472e-06	5.569316e-10	1.328517e+01	3.403998e+01
1.390000e-06	1.983681e-06	6.491018e-10	1.389609e+01	3.989859e+01
1.400000e-06	2.070629e-06	7.279125e-10	1.450518e+01	4.578427e+01
1.410000e-06	2.157253e-06	8.103254e-10	1.511200e+01	5.168553e+01
1.420000e-06	2.243535e-06	9.061058e-10	1.571642e+01	5.759023e+01
1.430000e-06	2.329413e-06	1.005012e-09	1.631801e+01	6.348575e+01
1.440000e-06	2.414866e-06	1.092350e-09	1.691663e+01	6.935926e+01
1.450000e-06	2.499896e-06	1.170868e-09	1.751228e+01	7.519800e+01
1.460000e-06	2.584557e-06	1.251309e-09	1.810535e+01	8.098951e+01
1.470000e-06	2.668852e-06	1.342299e-09	1.869586e+01	8.672189e+01
1.480000e-06	2.752723e-06	1.435771e-09	1.928339e+01	9.238402e+01
1.490000e-06	2.836181e-06	1.518789e-09	1.986803e+01	9.796573e+01
1.500000e-06	2.919267e-06	1.593704e-09	2.045006e+01	1.034580e+02
1.510000e-06	3.001985e-06	1.672901e-09	2.102952e+01	1.088530e+02
1.520000e-06	3.084109e-06	1.759542e-09	2.160481e+01	1.141443e+02
1.530000e-06	3.165505e-06	1.844183e-09	2.217501e+01	1.193266e+02
1.540000e-06	3.246291e-06	1.918000e-09	2.274093e+01	1.243962e+02
1.550000e-06	3.326611e-06	1.984819e-09	2.330359e+01	1.293502e+02
1.560000e-06	3.406380e-06	2.056837e-09	2.386239e+01	1.341871e+02
1.570000e-06	3.485428e-06	2.136071e-09	2.441613e+01	1.389065e+02
1.580000e-06	3.563817e-06	2.210109e-09	2.496527e+01	1.435086e+02
1.590000e-06	3.641579e-06	2.274000e-09	2.551000e+01	1.479946e+02
1.600000e-06	3.718726e-06	2.335184e-09	2.605043e+01	1.523658e+02
1.610000e-06	3.795214e-06	2.402167e-09	2.658625e+01	1.566244e+02
1.620000e-06	3.871013e-06	2.471851e-09	2.711724e+01	1.607725e+02
1.630000e-06	3.946118e-06	2.533671e-09	2.764337e+01	1.648126e+02
1.640000e-06	4.020346e-06	2.584979e-09	2.816335e+01	1.687470e+02
1.650000e-06	4.093575e-06	2.634875e-09	2.867633e+01	1.725781e+02
1.660000e-06	4.165818e-06	2.692301e-09	2.918241e+01	1.763083e+02
1.670000e-06	4.237281e-06	2.751317e-09	2.968302e+01	1.799397e+02
1.680000e-06	4.308158e-06	2.803179e-09	3.017953e+01	1.834744e+02
1.690000e-06	4.378320e-06	2.849677e-09	3.067103e+01	1.869142e+02
1.700000e-06	4.447660e-06	2.899201e-09	3.115677e+01	1.902611e+02
1.710000e-06	4.516223e-06	2.951392e-09	3.163706e+01	1.935168e+02
1.720000e-06	4.584045e-06	3.000414e-09	3.211217e+01	1.966830e+02
1.730000e-06	4.651224e-06	3.043982e-09	3.258278e+01	1.997614e+02
1.740000e-06	4.717620e-06	3.082993e-09	3.304789e+01	2.027535e+02
1.750000e-06	4.782979e-06	3.121716e-09	3.350575e+01	2.056612e+02
1.760000e-06	4.847307e-06	3.163813e-09	3.395638e+01	2.084861e+02
1.770000e-06	4.910786e-06	3.206831e-09	3.440106e+01	2.112299e+02
1.780000e-06	4.973521e-06	3.245338e-09	3.484053e+01	2.138943e+02
1.790000e-06	5.035440e-06	3.280097e-09	3.527428e+01	2.164811e+02
1.800000e-06	5.096584e-06	3.316043e-09	3.570261e+01	2.189919e+02
1.810000e-06	5.156962e-06	3.351702e-09	3.612557e+01	2.214283e+02
1.820000e-06	5.216582e-06	3.384661e-09	3.654322e+01	2.237921e+02
1.830000e-06	5.275354e-06	3.413467e-09	3.695494e+01	2.260846e+02
1.840000e-06	5.332918e-06	3.442779e-09	3.735818e+01	2.283072e+02
1.850000e-06	5.389216e-06	3.473986e-09	3.775256e+01	2.304614e+02
1.860000e-06	5.444607e-06	3.504872e-09	3.814059e+01	2.325483e+02
1.870000e-06	5.499132e-06	3.535333e-09	3.852254e+01	2.345690e+02
1.880000e-06	5.552698e-06	3.562480e-09	3.889779e+01	2.365248e+02
1.890000e-06	5.605336e-06	3.587887e-09	3.926653e+01	2.384165e+02
1.900000e-06	5.656911e-06	3.614789e-09	3.962782e+01	2.402453e+02
1.910000e-06	5.707231e-06	3.642570e-09	3.998032e+01	2.420122e+02
1.920000e-06	5.756154e-06	3.667843e-09	4.032303e+01	2.437182e+02
1.930000e-06	5.803870e-06	3.689412e-09	4.065730e+01	2.453643e+02
1.940000e-06	5.850658e-06	3.709884e-09	4.098506e+01	2.469517e+02
1.950000e-06	5.896491e-06	3.731586e-09	4.130612e+01	2.484815e+02
1.960000e-06	5.941342e-06	3.754063e-09	4.162031e+01	2.499550e+02
1.970000e-06	5.985288e-06	3.774191e-09	4.192816e+01	2.513733e+02
1.980000e-06	6.028341e-06	3.791997e-09	4.222976e+01	2.527377e+02
1.990000e-06	6.070161e-06	3.810137e-09	4.252272e+01	2.540494e+02
2.000000e-06	6.110606e-06	3.829750e-09	4.280605e+01	2.553096e+02
2.010000e-06	6.150000e-06	3.848354e-09	4.308200e+01	2.565195e+02
2.020000e-06	6.188430e-06	3.862904e-09	4.335122e+01	2.576802e+02
2.030000e-06	6.225794e-06	3.876773e-09	4.361296e+01	2.587928e+02
2.040000e-06	6.262157e-06	3.892774e-09	4.386769e+01	2.598582e+02
2.050000e-06	6.297617e-06	3.909830e-09	4.411609e+01	2.608773e+02
2.060000e-06	6.331912e-06	3.925441e-09	4.435634e+01	2.618510e+02
2.070000e-06	6.364762e-06	3.937769e-09	4.458646e+01	2.627803e+02
2.080000e-06	6.396453e-06	3.950193e-09	4.480846e+01	2.636659e+02
2.090000e-06	6.427167e-06	3.964989e-09	4.502362e+01	2.645088e+02
2.100000e-06	6.456795e-06	3.979530e-09	4.523117e+01	2.653100e+02
2.110000e-06	6.485339e-06	3.990436e-09	4.543113e+01	2.660704e+02
2.120000e-06	6.512924e-06	3.999008e-09	4.562436e+01	2.667912e+02
2.130000e-06	6.539384e-06	4.008856e-09	4.580972e+01	2.674737e+02
2.140000e-06	6.564383e-06	4.019176e-09	4.598485e+01	2.681192e+02
2.150000e-06	6.588088e-06	4.030459e-09	4.615090e+01	2.687291e+02
2.160000e-06	6.610725e-06	4.041253e-09	4.630948e+01	2.693048e+02
2.170000e-06	6.632283e-06	4.049766e-09	4.646050e+01	2.698478e+02
2.180000e-06	6.652773e-06	4.058138e-09	4.660404e+01	2.703592e+02
2.190000e-06	6.672300e-06	4.068073e-09	4.674083e+01	2.708405e+02
2.200000e-06	6.690733e-06	4.077546e-09	4.686995e+01	2.712924e+02
2.210000e-06	6.707916e-06	4.084156e-09	4.699032e+01	2.717158e+02
2.220000e-06	6.723879e-06	4.088890e-09	4.710214e+01	2.721111e+02
2.230000e-06	6.738598e-06	4.094249e-09	4.720526e+01	2.724783e+02
2.240000e-06	6.752031e-06	4.100096e-09	4.729936e+01	2.728171e+02
2.250000e-06	6.764231e-06	4.105201e-09	4.738482e+01	2.731269e+02
2.260000e-06	6.775154e-06	4.109632e-09	4.746134e+01	2.734068e+02
2.270000e-06	6.784476e-06	4.113950e-09	4.752664e+01	2.736557e+02
2.280000e-06	6.792401e-06	4.118014e-09	4.758216e+01	2.738722e+02
2.290000e-06	6.799229e-06	4.122176e-09	4.762999e+01	2.740552e+02
2.300000e-06	6.804906e-06	4.126919e-09	4.766976e+01	2.742036e+02
2.310000e-06	6.809534e-06	4.129159e-09	4.770218e+01	2.743164e+02
2.320000e-06	6.813161e-06	4.127371e-09	4.772759e+01	2.743933e+02
2.330000e-06	6.815573e-06	4.126442e-09	4.774448e+01	2.744344e+02
2.340000e-06	6.816468e-06	4.128129e-09	4.775075e+01	2.744406e+02
2.350000e-06	6.816079e-06	4.130652e-09	4.774803e+01	2.744135e+02
2.360000e-06	6.814675e-06	4.130053e-09	4.773819e+01	2.743555e+02
2.370000e-06	6.812213e-06	4.124524e-09	4.772094e+01	2.742697e+02
2.380000e-06	6.808718e-06	4.123279e-09	4.769646e+01	2.741603e+02
2.390000e-06	6.804285e-06	4.122300e-09	4.766541e+01	2.740318e+02
2.400000e-06	6.798740e-06	4.121287e-09	4.762656e+01	2.738894e+02
2.410000e-06	6.791776e-06	4.119741e-09	4.757778e+01	2.737386e+02
2.420000e-06	6.783652e-06	4.126090e-09	4.752087e+01	2.735849e+02
2.430000e-06	6.774570e-06	4.144194e-09	4.745725e+01	2.734339e+02
2.440000e-06	6.764388e-06	4.057462e-09	4.738592e+01	2.732905e+02
2.450000e-06	6.752605e-06	4.016482e-09	4.730338e+01	2.731592e+02
2.460000e-06	6.738638e-06	4.037881e-09	4.720554e+01	2.730433e+02
2.470000e-06	6.722990e-06	4.137272e-09	4.709592e+01	2.729451e+02
2.480000e-06	6.706718e-06	4.307824e-09	4.698193e+01	2.728656e+02
2.490000e-06	6.690053e-06	4.081056e-09	4.686519e+01	2.728043e+02
2.500000e-06	6.672099e-06	3.974563e-09	4.673942e+01	2.727594e+02
2.510000e-06	6.652600e-06	4.204976e-09	4.660282e+01	2.727274e+02
2.520000e-06	6.632410e-06	4.070704e-09	4.646139e+01	2.727036e+02
2.530000e-06	6.611142e-06	4.140162e-09	4.631240e+01	2.726820e+02
2.540000e-06	6.588087e-06	4.260142e-09	4.615089e+01	2.726556e+02
2.550000e-06	6.563869e-06	3.908257e-09	4.598125e+01	2.726166e+02
2.560000e-06	6.538772e-06	4.033680e-09	4.580543e+01	2.725569e+02
2.570000e-06	6.512703e-06	4.373661e-09	4.562282e+01	2.724681e+02
2.580000e-06	6.485654e-06	4.163780e-09	4.543334e+01	2.723421e+02
2.590000e-06	6.457284e-06	4.085449e-09	4.523459e+01	2.721714e+02
2.600000e-06	6.427830e-06	4.151629e-09	4.502827e+01	2.719492e+02
2.610000e-06	6.397286e-06	4.159286e-09	4.481430e+01	2.716698e+02
2.620000e-06	6.365195e-06	4.312263e-09	4.458949e+01	2.713289e+02
2.630000e-06	6.331919e-06	4.157541e-09	4.435639e+01	2.709234e+02
2.640000e-06	6.297640e-06	4.105671e-09	4.411626e+01	2.704517e+02
2.650000e-06	6.262243e-06	4.231008e-09	4.386829e+01	2.699138e+02
2.660000e-06	6.225965e-06	4.089245e-09	4.361416e+01	2.693109e+02
2.670000e-06	6.188572e-06	4.197348e-09	4.335221e+01	2.686456e+02
2.680000e-06	6.149737e-06	4.256095e-09	4.308016e+01	2.679212e+02
2.690000e-06	6.109607e-06	4.045676e-09	4.279905e+01	2.671422e+02
2.700000e-06	6.068443e-06	4.017309e-09	4.251069e+01	2.663133e+02
2.710000e-06	6.026433e-06	4.088950e-09	4.221639e+01	2.654397e+02
2.720000e-06	5.983436e-06	4.229538e-09	4.191519e+01	2.645263e+02
2.730000e-06	5.939432e-06	4.095132e-09	4.160694e+01	2.635780e+02
2.740000e-06	5.894525e-06	3.890015e-09	4.129235e+01	2.625991e+02
2.750000e-06	5.848667e-06	4.012811e-09	4.097111e+01	2.615931e+02
2.760000e-06	5.801803e-06	4.098379e-09	4.064282e+01	2.605628e+02
2.770000e-06	5.753693e-06	4.093601e-09	4.030580e+01	2.595101e+02
2.780000e-06	5.704448e-06	3.933643e-09	3.996082e+01	2.584361e+02
2.790000e-06	5.654201e-06	3.855563e-09	3.960883e+01	2.573409e+02
2.800000e-06	5.602921e-06	3.992744e-09	3.924961e+01	2.562239e+02
2.810000e-06	5.550682e-06	3.999643e-09	3.888366e+01	2.550837e+02
2.820000e-06	5.497246e-06	3.951860e-09	3.850933e+01	2.539186e+02
2.830000e-06	5.442440e-06	3.848453e-09	3.812541e+01	2.527265e+02
2.840000e-06	5.386496e-06	3.824566e-09	3.773350e+01	2.515051e+02
2.850000e-06	5.329737e-06	3.910519e-09	3.733590e+01	2.502521e+02
2.860000e-06	5.272138e-06	3.895285e-09	3.693241e+01	2.489655e+02
2.870000e-06	5.213551e-06	3.828987e-09	3.652199e+01	2.476435e+02
2.880000e-06	5.154093e-06	3.754662e-09	3.610548e+01	2.462848e+02
2.890000e-06	5.093863e-06	3.771618e-09	3.568356e+01	2.448885e+02
2.900000e-06	5.032737e-06	3.788437e-09	3.525536e+01	2.434543e+02
2.910000e-06	4.970574e-06	3.741708e-09	3.481989e+01	2.419823e+02
2.920000e-06	4.907324e-06	3.706316e-09	3.437681e+01	2.404731e+02
2.930000e-06	4.843114e-06	3.676230e-09	3.392701e+01	2.389277e+02
2.940000e-06	4.778163e-06	3.650926e-09	3.347201e+01	2.373473e+02
