# Temperatura_=_20.0
# Concentracion g/m^3_=_12600.0
# C_Vs_to_Am_M_A/Vsm_=_65563218390.804596
# pendiente_HvsI_1/m_=_3716.3
# ordenada_HvsI_A/m_=_1297.0
# frecuencia_Hz_=_213151.31614370638

Tiempo_(s)	Campo_(V.s)	Magnetizacion_(V.s)	Campo_(kA/m)	Magnetizacion_(A/m)
0.000000e+00	-6.687024e-06	-3.823067e-09	-4.758100e+01	-2.493524e+02
1.000000e-08	-6.686650e-06	-3.821547e-09	-4.757833e+01	-2.493318e+02
2.000000e-08	-6.684965e-06	-3.823250e-09	-4.756634e+01	-2.492847e+02
3.000000e-08	-6.681852e-06	-3.823046e-09	-4.754419e+01	-2.492125e+02
4.000000e-08	-6.677718e-06	-3.822774e-09	-4.751478e+01	-2.491168e+02
5.000000e-08	-6.672599e-06	-3.823028e-09	-4.747835e+01	-2.489993e+02
6.000000e-08	-6.666420e-06	-3.818655e-09	-4.743439e+01	-2.488620e+02
7.000000e-08	-6.659204e-06	-3.813017e-09	-4.738304e+01	-2.487066e+02
8.000000e-08	-6.651004e-06	-3.801851e-09	-4.732469e+01	-2.485351e+02
9.000000e-08	-6.641470e-06	-3.768118e-09	-4.725686e+01	-2.483492e+02
1.000000e-07	-6.630157e-06	-3.814667e-09	-4.717636e+01	-2.481503e+02
1.100000e-07	-6.617173e-06	-3.852429e-09	-4.708397e+01	-2.479399e+02
1.200000e-07	-6.602725e-06	-3.842274e-09	-4.698117e+01	-2.477187e+02
1.300000e-07	-6.586867e-06	-3.824857e-09	-4.686834e+01	-2.474875e+02
1.400000e-07	-6.569880e-06	-3.646419e-09	-4.674747e+01	-2.472465e+02
1.500000e-07	-6.551996e-06	-3.751094e-09	-4.662021e+01	-2.469953e+02
1.600000e-07	-6.533141e-06	-3.953283e-09	-4.648605e+01	-2.467334e+02
1.700000e-07	-6.513484e-06	-3.712067e-09	-4.634619e+01	-2.464598e+02
1.800000e-07	-6.492855e-06	-3.766264e-09	-4.619940e+01	-2.461730e+02
1.900000e-07	-6.470992e-06	-3.813880e-09	-4.604383e+01	-2.458715e+02
2.000000e-07	-6.448209e-06	-3.574611e-09	-4.588172e+01	-2.455533e+02
2.100000e-07	-6.424511e-06	-3.822017e-09	-4.571310e+01	-2.452163e+02
2.200000e-07	-6.399409e-06	-3.908291e-09	-4.553449e+01	-2.448585e+02
2.300000e-07	-6.372813e-06	-3.564385e-09	-4.534525e+01	-2.444776e+02
2.400000e-07	-6.345106e-06	-3.645607e-09	-4.514810e+01	-2.440718e+02
2.500000e-07	-6.316489e-06	-3.813574e-09	-4.494448e+01	-2.436390e+02
2.600000e-07	-6.286839e-06	-3.741073e-09	-4.473351e+01	-2.431778e+02
2.700000e-07	-6.255993e-06	-3.708838e-09	-4.451402e+01	-2.426866e+02
2.800000e-07	-6.224119e-06	-3.587972e-09	-4.428723e+01	-2.421645e+02
2.900000e-07	-6.191303e-06	-3.606849e-09	-4.405373e+01	-2.416108e+02
3.000000e-07	-6.157249e-06	-3.765263e-09	-4.381142e+01	-2.410251e+02
3.100000e-07	-6.121919e-06	-3.699990e-09	-4.356003e+01	-2.404075e+02
3.200000e-07	-6.085429e-06	-3.580460e-09	-4.330039e+01	-2.397582e+02
3.300000e-07	-6.047842e-06	-3.581282e-09	-4.303294e+01	-2.390779e+02
3.400000e-07	-6.009258e-06	-3.614506e-09	-4.275840e+01	-2.383673e+02
3.500000e-07	-5.969753e-06	-3.650542e-09	-4.247731e+01	-2.376274e+02
3.600000e-07	-5.929231e-06	-3.639320e-09	-4.218898e+01	-2.368592e+02
3.700000e-07	-5.887359e-06	-3.562772e-09	-4.189104e+01	-2.360638e+02
3.800000e-07	-5.844169e-06	-3.492829e-09	-4.158372e+01	-2.352423e+02
3.900000e-07	-5.800022e-06	-3.568267e-09	-4.126960e+01	-2.343957e+02
4.000000e-07	-5.754979e-06	-3.628988e-09	-4.094910e+01	-2.335246e+02
4.100000e-07	-5.708907e-06	-3.523744e-09	-4.062128e+01	-2.326298e+02
4.200000e-07	-5.661801e-06	-3.459990e-09	-4.028610e+01	-2.317117e+02
4.300000e-07	-5.613700e-06	-3.491590e-09	-3.994384e+01	-2.307703e+02
4.400000e-07	-5.564440e-06	-3.533138e-09	-3.959334e+01	-2.298058e+02
4.500000e-07	-5.513731e-06	-3.515577e-09	-3.923252e+01	-2.288177e+02
4.600000e-07	-5.461689e-06	-3.430610e-09	-3.886222e+01	-2.278055e+02
4.700000e-07	-5.408693e-06	-3.407165e-09	-3.848513e+01	-2.267687e+02
4.800000e-07	-5.354828e-06	-3.439513e-09	-3.810186e+01	-2.257062e+02
4.900000e-07	-5.300120e-06	-3.440066e-09	-3.771259e+01	-2.246172e+02
5.000000e-07	-5.244620e-06	-3.395525e-09	-3.731768e+01	-2.235007e+02
5.100000e-07	-5.188149e-06	-3.342604e-09	-3.691587e+01	-2.223556e+02
5.200000e-07	-5.130544e-06	-3.336801e-09	-3.650598e+01	-2.211809e+02
5.300000e-07	-5.071836e-06	-3.355921e-09	-3.608825e+01	-2.199757e+02
5.400000e-07	-5.012174e-06	-3.346706e-09	-3.566373e+01	-2.187391e+02
5.500000e-07	-4.951705e-06	-3.293514e-09	-3.523347e+01	-2.174706e+02
5.600000e-07	-4.890365e-06	-3.252059e-09	-3.479701e+01	-2.161695e+02
5.700000e-07	-4.828193e-06	-3.265949e-09	-3.435463e+01	-2.148356e+02
5.800000e-07	-4.765355e-06	-3.267310e-09	-3.390751e+01	-2.134687e+02
5.900000e-07	-4.701730e-06	-3.212105e-09	-3.345479e+01	-2.120687e+02
6.000000e-07	-4.637145e-06	-3.172767e-09	-3.299524e+01	-2.106360e+02
6.100000e-07	-4.571596e-06	-3.171879e-09	-3.252883e+01	-2.091707e+02
6.200000e-07	-4.505029e-06	-3.167415e-09	-3.205518e+01	-2.076735e+02
6.300000e-07	-4.437606e-06	-3.131409e-09	-3.157543e+01	-2.061448e+02
6.400000e-07	-4.369575e-06	-3.089203e-09	-3.109137e+01	-2.045852e+02
6.500000e-07	-4.300922e-06	-3.078738e-09	-3.060287e+01	-2.029953e+02
6.600000e-07	-4.231515e-06	-3.069805e-09	-3.010901e+01	-2.013757e+02
6.700000e-07	-4.161349e-06	-3.036134e-09	-2.960975e+01	-1.997267e+02
6.800000e-07	-4.090549e-06	-2.989420e-09	-2.910598e+01	-1.980489e+02
6.900000e-07	-4.019078e-06	-2.963818e-09	-2.859743e+01	-1.963422e+02
7.000000e-07	-3.946847e-06	-2.960814e-09	-2.808348e+01	-1.946067e+02
7.100000e-07	-3.873899e-06	-2.933174e-09	-2.756443e+01	-1.928423e+02
7.200000e-07	-3.800138e-06	-2.887163e-09	-2.703959e+01	-1.910483e+02
7.300000e-07	-3.725441e-06	-2.852996e-09	-2.650809e+01	-1.892241e+02
7.400000e-07	-3.649861e-06	-2.842298e-09	-2.597030e+01	-1.873688e+02
7.500000e-07	-3.573594e-06	-2.826378e-09	-2.542763e+01	-1.854812e+02
7.600000e-07	-3.496757e-06	-2.778260e-09	-2.488090e+01	-1.835601e+02
7.700000e-07	-3.419226e-06	-2.734911e-09	-2.432923e+01	-1.816039e+02
7.800000e-07	-3.340970e-06	-2.713723e-09	-2.377241e+01	-1.796112e+02
7.900000e-07	-3.262109e-06	-2.701856e-09	-2.321128e+01	-1.775801e+02
8.000000e-07	-3.182560e-06	-2.672825e-09	-2.264526e+01	-1.755092e+02
8.100000e-07	-3.102308e-06	-2.619294e-09	-2.207423e+01	-1.733969e+02
8.200000e-07	-3.021494e-06	-2.577734e-09	-2.149920e+01	-1.712415e+02
8.300000e-07	-2.940109e-06	-2.555948e-09	-2.092011e+01	-1.690419e+02
8.400000e-07	-2.858263e-06	-2.535721e-09	-2.033774e+01	-1.667968e+02
8.500000e-07	-2.776045e-06	-2.495873e-09	-1.975273e+01	-1.645052e+02
8.600000e-07	-2.693405e-06	-2.441631e-09	-1.916471e+01	-1.621665e+02
8.700000e-07	-2.610269e-06	-2.406155e-09	-1.857316e+01	-1.597802e+02
8.800000e-07	-2.526648e-06	-2.386317e-09	-1.797816e+01	-1.573460e+02
8.900000e-07	-2.442665e-06	-2.359563e-09	-1.738059e+01	-1.548638e+02
9.000000e-07	-2.358363e-06	-2.310095e-09	-1.678075e+01	-1.523337e+02
9.100000e-07	-2.273749e-06	-2.253474e-09	-1.617868e+01	-1.497560e+02
9.200000e-07	-2.188805e-06	-2.219085e-09	-1.557427e+01	-1.471309e+02
9.300000e-07	-2.103502e-06	-2.195818e-09	-1.496730e+01	-1.444586e+02
9.400000e-07	-2.017828e-06	-2.159694e-09	-1.435770e+01	-1.417395e+02
9.500000e-07	-1.931784e-06	-2.104589e-09	-1.374546e+01	-1.389737e+02
9.600000e-07	-1.845392e-06	-2.049346e-09	-1.313074e+01	-1.361610e+02
9.700000e-07	-1.758737e-06	-2.014050e-09	-1.251415e+01	-1.333013e+02
9.800000e-07	-1.671886e-06	-1.984194e-09	-1.189617e+01	-1.303941e+02
9.900000e-07	-1.584788e-06	-1.941131e-09	-1.127643e+01	-1.274388e+02
1.000000e-06	-1.497352e-06	-1.882502e-09	-1.065429e+01	-1.244342e+02
1.010000e-06	-1.409637e-06	-1.826608e-09	-1.003016e+01	-1.213794e+02
1.020000e-06	-1.321692e-06	-1.788934e-09	-9.404397e+00	-1.182728e+02
1.030000e-06	-1.233459e-06	-1.751392e-09	-8.776578e+00	-1.151131e+02
1.040000e-06	-1.145015e-06	-1.699869e-09	-8.147267e+00	-1.118986e+02
1.050000e-06	-1.056427e-06	-1.637785e-09	-7.516924e+00	-1.086277e+02
1.060000e-06	-9.676773e-07	-1.585924e-09	-6.885432e+00	-1.052991e+02
1.070000e-06	-8.788165e-07	-1.548591e-09	-6.253149e+00	-1.019111e+02
1.080000e-06	-7.898939e-07	-1.502827e-09	-5.620427e+00	-9.846258e+01
1.090000e-06	-7.008739e-07	-1.443002e-09	-4.987013e+00	-9.495257e+01
1.100000e-06	-6.116860e-07	-1.378096e-09	-4.352403e+00	-9.138028e+01
1.110000e-06	-5.223253e-07	-1.322593e-09	-3.716564e+00	-8.774524e+01
1.120000e-06	-4.328478e-07	-1.274492e-09	-3.079895e+00	-8.404722e+01
1.130000e-06	-3.433353e-07	-1.219269e-09	-2.442975e+00	-8.028624e+01
1.140000e-06	-2.537917e-07	-1.157042e-09	-1.805835e+00	-7.646250e+01
1.150000e-06	-1.641294e-07	-1.091449e-09	-1.167850e+00	-7.257631e+01
1.160000e-06	-7.439553e-08	-1.032444e-09	-5.293555e-01	-6.862806e+01
1.170000e-06	1.525862e-08	-9.789878e-10	1.085715e-01	-6.461808e+01
1.180000e-06	1.048926e-07	-9.179352e-10	7.463552e-01	-6.054658e+01
1.190000e-06	1.946068e-07	-8.486458e-10	1.384709e+00	-5.641358e+01
1.200000e-06	2.843517e-07	-7.771219e-10	2.023282e+00	-5.221885e+01
1.210000e-06	3.740485e-07	-7.127515e-10	2.661513e+00	-4.796183e+01
1.220000e-06	4.636334e-07	-6.530043e-10	3.298947e+00	-4.364162e+01
1.230000e-06	5.530430e-07	-5.880549e-10	3.935134e+00	-3.925702e+01
1.240000e-06	6.423315e-07	-5.150119e-10	4.570459e+00	-3.480652e+01
1.250000e-06	7.315643e-07	-4.409582e-10	5.205388e+00	-3.028841e+01
1.260000e-06	8.206444e-07	-3.738263e-10	5.839231e+00	-2.570086e+01
1.270000e-06	9.095173e-07	-3.091439e-10	6.471598e+00	-2.104206e+01
1.280000e-06	9.982198e-07	-2.352664e-10	7.102754e+00	-1.631040e+01
1.290000e-06	1.086810e-06	-1.536649e-10	7.733113e+00	-1.150461e+01
1.300000e-06	1.175179e-06	-7.161102e-11	8.361890e+00	-6.623976e+00
1.310000e-06	1.263358e-06	-4.905295e-13	8.989322e+00	-1.668529e+00
1.320000e-06	1.351380e-06	6.709078e-11	9.615638e+00	3.360792e+00
1.330000e-06	1.439156e-06	1.462670e-10	1.024020e+01	8.461972e+00
1.340000e-06	1.526678e-06	2.329555e-10	1.086296e+01	1.363178e+01
1.350000e-06	1.613856e-06	3.156263e-10	1.148326e+01	1.886570e+01
1.360000e-06	1.700683e-06	3.900975e-10	1.210108e+01	2.415782e+01
1.370000e-06	1.787255e-06	4.686036e-10	1.271707e+01	2.950090e+01
1.380000e-06	1.873620e-06	5.562894e-10	1.333159e+01	3.488636e+01
1.390000e-06	1.959706e-06	6.458408e-10	1.394413e+01	4.030443e+01
1.400000e-06	2.045451e-06	7.289118e-10	1.455425e+01	4.574423e+01
1.410000e-06	2.130810e-06	8.057749e-10	1.516161e+01	5.119401e+01
1.420000e-06	2.215763e-06	8.847179e-10	1.576608e+01	5.664138e+01
1.430000e-06	2.300347e-06	9.708813e-10	1.636794e+01	6.207350e+01
1.440000e-06	2.384623e-06	1.057451e-09	1.696760e+01	6.747744e+01
1.450000e-06	2.468667e-06	1.137770e-09	1.756561e+01	7.284039e+01
1.460000e-06	2.552393e-06	1.211286e-09	1.816135e+01	7.814996e+01
1.470000e-06	2.635642e-06	1.289949e-09	1.875370e+01	8.339443e+01
1.480000e-06	2.718393e-06	1.374901e-09	1.934251e+01	8.856300e+01
1.490000e-06	2.800659e-06	1.455267e-09	1.992787e+01	9.364594e+01
1.500000e-06	2.882418e-06	1.526479e-09	2.050962e+01	9.863480e+01
1.510000e-06	2.963664e-06	1.596573e-09	2.108772e+01	1.035225e+02
1.520000e-06	3.044510e-06	1.672977e-09	2.166297e+01	1.083034e+02
1.530000e-06	3.124860e-06	1.749533e-09	2.223470e+01	1.129731e+02
1.540000e-06	3.204483e-06	1.818074e-09	2.280125e+01	1.175290e+02
1.550000e-06	3.283451e-06	1.880874e-09	2.336314e+01	1.219693e+02
1.560000e-06	3.361860e-06	1.946731e-09	2.392105e+01	1.262939e+02
1.570000e-06	3.439692e-06	2.015173e-09	2.447486e+01	1.305034e+02
1.580000e-06	3.516862e-06	2.078985e-09	2.502395e+01	1.345993e+02
1.590000e-06	3.593364e-06	2.136801e-09	2.556830e+01	1.385840e+02
1.600000e-06	3.669240e-06	2.193207e-09	2.610819e+01	1.424603e+02
1.610000e-06	3.744429e-06	2.254113e-09	2.664319e+01	1.462312e+02
1.620000e-06	3.818779e-06	2.313788e-09	2.717222e+01	1.499002e+02
1.630000e-06	3.892167e-06	2.364921e-09	2.769440e+01	1.534705e+02
1.640000e-06	3.964700e-06	2.412719e-09	2.821051e+01	1.569454e+02
1.650000e-06	4.036562e-06	2.461592e-09	2.872184e+01	1.603279e+02
1.660000e-06	4.107750e-06	2.512645e-09	2.922837e+01	1.636209e+02
1.670000e-06	4.178207e-06	2.561657e-09	2.972970e+01	1.668269e+02
1.680000e-06	4.247962e-06	2.606421e-09	3.022604e+01	1.699481e+02
1.690000e-06	4.317005e-06	2.650285e-09	3.071731e+01	1.729863e+02
1.700000e-06	4.385384e-06	2.695229e-09	3.120385e+01	1.759434e+02
1.710000e-06	4.453082e-06	2.740321e-09	3.168556e+01	1.788206e+02
1.720000e-06	4.519998e-06	2.782146e-09	3.216169e+01	1.816193e+02
1.730000e-06	4.585958e-06	2.821020e-09	3.263102e+01	1.843405e+02
1.740000e-06	4.650870e-06	2.857537e-09	3.309290e+01	1.869854e+02
1.750000e-06	4.714948e-06	2.891784e-09	3.354884e+01	1.895551e+02
1.760000e-06	4.778281e-06	2.926665e-09	3.399948e+01	1.920506e+02
1.770000e-06	4.840832e-06	2.962669e-09	3.444456e+01	1.944731e+02
1.780000e-06	4.902640e-06	2.997224e-09	3.488435e+01	1.968238e+02
1.790000e-06	4.963700e-06	3.029753e-09	3.531881e+01	1.991042e+02
1.800000e-06	5.023954e-06	3.061756e-09	3.574755e+01	2.013156e+02
1.810000e-06	5.083441e-06	3.092175e-09	3.617082e+01	2.034594e+02
1.820000e-06	5.142085e-06	3.120323e-09	3.658810e+01	2.055374e+02
1.830000e-06	5.199551e-06	3.147321e-09	3.699700e+01	2.075510e+02
1.840000e-06	5.255868e-06	3.174117e-09	3.739771e+01	2.095019e+02
1.850000e-06	5.311319e-06	3.200013e-09	3.779227e+01	2.113915e+02
1.860000e-06	5.365972e-06	3.226587e-09	3.818115e+01	2.132215e+02
1.870000e-06	5.419720e-06	3.253405e-09	3.856359e+01	2.149932e+02
1.880000e-06	5.472414e-06	3.277490e-09	3.893853e+01	2.167080e+02
1.890000e-06	5.523990e-06	3.300577e-09	3.930552e+01	2.183671e+02
1.900000e-06	5.574336e-06	3.324476e-09	3.966375e+01	2.199716e+02
1.910000e-06	5.623307e-06	3.348720e-09	4.001220e+01	2.215225e+02
1.920000e-06	5.671190e-06	3.371965e-09	4.035291e+01	2.230207e+02
1.930000e-06	5.718174e-06	3.391634e-09	4.068722e+01	2.244671e+02
1.940000e-06	5.764146e-06	3.408940e-09	4.101433e+01	2.258624e+02
1.950000e-06	5.809176e-06	3.426317e-09	4.133473e+01	2.272073e+02
1.960000e-06	5.853309e-06	3.444540e-09	4.164876e+01	2.285025e+02
1.970000e-06	5.896547e-06	3.462598e-09	4.195641e+01	2.297487e+02
1.980000e-06	5.938710e-06	3.480476e-09	4.225642e+01	2.309467e+02
1.990000e-06	5.979544e-06	3.499791e-09	4.254697e+01	2.320973e+02
2.000000e-06	6.019234e-06	3.519966e-09	4.282938e+01	2.332011e+02
2.010000e-06	6.057990e-06	3.537609e-09	4.310515e+01	2.342593e+02
2.020000e-06	6.095792e-06	3.550450e-09	4.337413e+01	2.352727e+02
2.030000e-06	6.132594e-06	3.562317e-09	4.363599e+01	2.362424e+02
2.040000e-06	6.168406e-06	3.576837e-09	4.389081e+01	2.371695e+02
2.050000e-06	6.203267e-06	3.590949e-09	4.413886e+01	2.380552e+02
2.060000e-06	6.236871e-06	3.602896e-09	4.437797e+01	2.389010e+02
2.070000e-06	6.269108e-06	3.614691e-09	4.460734e+01	2.397079e+02
2.080000e-06	6.300261e-06	3.627881e-09	4.482901e+01	2.404775e+02
2.090000e-06	6.330417e-06	3.642445e-09	4.504358e+01	2.412111e+02
2.100000e-06	6.359553e-06	3.655289e-09	4.525090e+01	2.419101e+02
2.110000e-06	6.387721e-06	3.664936e-09	4.545133e+01	2.425758e+02
2.120000e-06	6.414890e-06	3.674346e-09	4.564464e+01	2.432096e+02
2.130000e-06	6.440704e-06	3.684076e-09	4.582832e+01	2.438127e+02
2.140000e-06	6.465053e-06	3.691344e-09	4.600158e+01	2.443862e+02
2.150000e-06	6.488279e-06	3.698012e-09	4.616684e+01	2.449313e+02
2.160000e-06	6.510463e-06	3.706772e-09	4.632468e+01	2.454487e+02
2.170000e-06	6.531616e-06	3.717134e-09	4.647520e+01	2.459394e+02
2.180000e-06	6.551794e-06	3.726930e-09	4.661877e+01	2.464038e+02
2.190000e-06	6.571021e-06	3.737087e-09	4.675558e+01	2.468425e+02
2.200000e-06	6.589110e-06	3.745314e-09	4.688429e+01	2.472556e+02
2.210000e-06	6.605924e-06	3.750463e-09	4.700393e+01	2.476433e+02
2.220000e-06	6.621518e-06	3.755992e-09	4.711489e+01	2.480054e+02
2.230000e-06	6.635788e-06	3.762325e-09	4.721643e+01	2.483417e+02
2.240000e-06	6.648808e-06	3.767755e-09	4.730907e+01	2.486518e+02
2.250000e-06	6.660682e-06	3.770638e-09	4.739356e+01	2.489352e+02
2.260000e-06	6.671189e-06	3.772155e-09	4.746832e+01	2.491913e+02
2.270000e-06	6.680098e-06	3.774755e-09	4.753171e+01	2.494196e+02
2.280000e-06	6.687815e-06	3.779973e-09	4.758662e+01	2.496195e+02
2.290000e-06	6.694515e-06	3.786363e-09	4.763429e+01	2.497904e+02
2.300000e-06	6.700023e-06	3.791219e-09	4.767348e+01	2.499320e+02
2.310000e-06	6.704461e-06	3.793204e-09	4.770507e+01	2.500440e+02
2.320000e-06	6.707941e-06	3.793592e-09	4.772982e+01	2.501265e+02
2.330000e-06	6.710151e-06	3.796142e-09	4.774555e+01	2.501795e+02
2.340000e-06	6.710882e-06	3.798623e-09	4.775075e+01	2.502036e+02
2.350000e-06	6.710471e-06	3.799808e-09	4.774783e+01	2.501995e+02
2.360000e-06	6.709014e-06	3.801374e-09	4.773746e+01	2.501681e+02
2.370000e-06	6.706511e-06	3.798469e-09	4.771965e+01	2.501108e+02
2.380000e-06	6.703002e-06	3.798963e-09	4.769468e+01	2.500289e+02
2.390000e-06	6.698568e-06	3.798583e-09	4.766314e+01	2.499243e+02
2.400000e-06	6.692999e-06	3.796952e-09	4.762351e+01	2.497986e+02
2.410000e-06	6.685985e-06	3.794507e-09	4.757360e+01	2.496538e+02
2.420000e-06	6.677864e-06	3.794102e-09	4.751582e+01	2.494918e+02
2.430000e-06	6.668866e-06	3.839985e-09	4.745179e+01	2.493143e+02
2.440000e-06	6.658646e-06	3.766845e-09	4.737907e+01	2.491230e+02
2.450000e-06	6.646683e-06	3.714789e-09	4.729395e+01	2.489193e+02
2.460000e-06	6.632652e-06	3.709958e-09	4.719411e+01	2.487045e+02
2.470000e-06	6.617056e-06	3.759200e-09	4.708314e+01	2.484793e+02
2.480000e-06	6.600862e-06	3.938385e-09	4.696791e+01	2.482441e+02
2.490000e-06	6.584222e-06	3.750560e-09	4.684952e+01	2.479991e+02
2.500000e-06	6.566323e-06	3.637808e-09	4.672215e+01	2.477437e+02
2.510000e-06	6.546993e-06	3.876735e-09	4.658461e+01	2.474772e+02
2.520000e-06	6.526989e-06	3.710961e-09	4.644227e+01	2.471985e+02
2.530000e-06	6.505940e-06	3.743123e-09	4.629250e+01	2.469060e+02
2.540000e-06	6.483160e-06	3.962772e-09	4.613042e+01	2.465980e+02
2.550000e-06	6.459145e-06	3.611968e-09	4.595954e+01	2.462726e+02
2.560000e-06	6.434266e-06	3.619182e-09	4.578251e+01	2.459275e+02
2.570000e-06	6.408473e-06	3.936610e-09	4.559899e+01	2.455607e+02
2.580000e-06	6.381697e-06	3.682544e-09	4.540846e+01	2.451701e+02
2.590000e-06	6.353726e-06	3.593702e-09	4.520944e+01	2.447537e+02
2.600000e-06	6.324767e-06	3.736505e-09	4.500338e+01	2.443097e+02
2.610000e-06	6.294702e-06	3.711319e-09	4.478945e+01	2.438366e+02
2.620000e-06	6.263047e-06	3.868218e-09	4.456422e+01	2.433331e+02
2.630000e-06	6.230194e-06	3.707006e-09	4.433046e+01	2.427984e+02
2.640000e-06	6.196397e-06	3.552652e-09	4.408998e+01	2.422319e+02
2.650000e-06	6.161512e-06	3.771814e-09	4.384175e+01	2.416335e+02
2.660000e-06	6.125610e-06	3.719029e-09	4.358630e+01	2.410031e+02
2.670000e-06	6.088653e-06	3.719971e-09	4.332333e+01	2.403413e+02
2.680000e-06	6.050468e-06	3.701001e-09	4.305163e+01	2.396488e+02
2.690000e-06	6.010985e-06	3.537403e-09	4.277069e+01	2.389263e+02
2.700000e-06	5.970425e-06	3.643990e-09	4.248209e+01	2.381749e+02
2.710000e-06	5.929028e-06	3.683896e-09	4.218753e+01	2.373957e+02
2.720000e-06	5.886585e-06	3.703560e-09	4.188553e+01	2.365898e+02
2.730000e-06	5.843069e-06	3.586968e-09	4.157590e+01	2.357581e+02
2.740000e-06	5.798695e-06	3.458233e-09	4.126016e+01	2.349016e+02
2.750000e-06	5.753472e-06	3.649585e-09	4.093837e+01	2.340209e+02
2.760000e-06	5.707296e-06	3.643945e-09	4.060982e+01	2.331168e+02
2.770000e-06	5.659896e-06	3.552702e-09	4.027255e+01	2.321893e+02
2.780000e-06	5.611325e-06	3.472494e-09	3.992694e+01	2.312387e+02
2.790000e-06	5.561808e-06	3.456927e-09	3.957461e+01	2.302647e+02
2.800000e-06	5.511319e-06	3.601007e-09	3.921536e+01	2.292671e+02
2.810000e-06	5.459858e-06	3.523333e-09	3.884919e+01	2.282451e+02
2.820000e-06	5.407276e-06	3.447638e-09	3.847505e+01	2.271981e+02
2.830000e-06	5.353413e-06	3.430920e-09	3.809179e+01	2.261252e+02
2.840000e-06	5.298287e-06	3.436398e-09	3.769954e+01	2.250253e+02
2.850000e-06	5.242177e-06	3.489935e-09	3.730030e+01	2.238974e+02
2.860000e-06	5.185287e-06	3.419300e-09	3.689550e+01	2.227406e+02
2.870000e-06	5.127477e-06	3.367220e-09	3.648416e+01	2.215538e+02
2.880000e-06	5.068773e-06	3.338926e-09	3.606646e+01	2.203361e+02
2.890000e-06	5.009278e-06	3.365118e-09	3.564313e+01	2.190868e+02
2.900000e-06	4.949021e-06	3.366117e-09	3.521437e+01	2.178053e+02
2.910000e-06	4.887896e-06	3.288059e-09	3.477944e+01	2.164911e+02
2.920000e-06	4.825676e-06	3.267482e-09	3.433672e+01	2.151440e+02
2.930000e-06	4.762347e-06	3.273616e-09	3.388611e+01	2.137638e+02
2.940000e-06	4.698118e-06	3.265281e-09	3.342909e+01	2.123507e+02
