# Temperatura_=_20.0
# Concentracion g/m^3_=_9000.0
# C_Vs_to_Am_M_A/Vsm_=_65563218390.804596
# pendiente_HvsI_1/m_=_3716.3
# ordenada_HvsI_A/m_=_1297.0
# frecuencia_Hz_=_212870.9960539064

Tiempo_(s)	Campo_(V.s)	Magnetizacion_(V.s)	Campo_(kA/m)	Magnetizacion_(A/m)
0.000000e+00	-5.304284e-06	-4.073829e-09	-5.698123e+01	-2.668638e+02
1.000000e-08	-5.304310e-06	-4.074103e-09	-5.698151e+01	-2.669012e+02
2.000000e-08	-5.303360e-06	-4.076500e-09	-5.697131e+01	-2.669306e+02
3.000000e-08	-5.301176e-06	-4.075386e-09	-5.694785e+01	-2.669502e+02
4.000000e-08	-5.298007e-06	-4.073470e-09	-5.691380e+01	-2.669578e+02
5.000000e-08	-5.294107e-06	-4.072053e-09	-5.687191e+01	-2.669504e+02
6.000000e-08	-5.289389e-06	-4.070176e-09	-5.682122e+01	-2.669252e+02
7.000000e-08	-5.283788e-06	-4.068441e-09	-5.676105e+01	-2.668790e+02
8.000000e-08	-5.277280e-06	-4.066574e-09	-5.669114e+01	-2.668089e+02
9.000000e-08	-5.269967e-06	-4.092741e-09	-5.661258e+01	-2.667123e+02
1.000000e-07	-5.261694e-06	-4.104323e-09	-5.652370e+01	-2.665873e+02
1.100000e-07	-5.252059e-06	-4.095847e-09	-5.642020e+01	-2.664329e+02
1.200000e-07	-5.241155e-06	-4.046688e-09	-5.630307e+01	-2.662486e+02
1.300000e-07	-5.229313e-06	-4.035833e-09	-5.617585e+01	-2.660352e+02
1.400000e-07	-5.216660e-06	-4.119134e-09	-5.603993e+01	-2.657942e+02
1.500000e-07	-5.203142e-06	-4.080594e-09	-5.589471e+01	-2.655280e+02
1.600000e-07	-5.188788e-06	-3.981046e-09	-5.574051e+01	-2.652397e+02
1.700000e-07	-5.173290e-06	-4.103577e-09	-5.557403e+01	-2.649329e+02
1.800000e-07	-5.156449e-06	-4.040601e-09	-5.539311e+01	-2.646114e+02
1.900000e-07	-5.138787e-06	-3.980398e-09	-5.520338e+01	-2.642791e+02
2.000000e-07	-5.120629e-06	-4.152469e-09	-5.500832e+01	-2.639394e+02
2.100000e-07	-5.101654e-06	-4.038085e-09	-5.480448e+01	-2.635954e+02
2.200000e-07	-5.081720e-06	-3.955132e-09	-5.459034e+01	-2.632493e+02
2.300000e-07	-5.061038e-06	-4.135302e-09	-5.436816e+01	-2.629025e+02
2.400000e-07	-5.039519e-06	-4.115554e-09	-5.413700e+01	-2.625552e+02
2.500000e-07	-5.017062e-06	-3.905118e-09	-5.389574e+01	-2.622068e+02
2.600000e-07	-4.993829e-06	-4.006396e-09	-5.364617e+01	-2.618554e+02
2.700000e-07	-4.969914e-06	-4.041945e-09	-5.338927e+01	-2.614982e+02
2.800000e-07	-4.945104e-06	-3.940112e-09	-5.312274e+01	-2.611317e+02
2.900000e-07	-4.919072e-06	-3.979348e-09	-5.284309e+01	-2.607520e+02
3.000000e-07	-4.891912e-06	-3.956484e-09	-5.255132e+01	-2.603546e+02
3.100000e-07	-4.863889e-06	-3.957440e-09	-5.225029e+01	-2.599352e+02
3.200000e-07	-4.835071e-06	-3.952955e-09	-5.194071e+01	-2.594897e+02
3.300000e-07	-4.805435e-06	-3.914447e-09	-5.162234e+01	-2.590145e+02
3.400000e-07	-4.774964e-06	-3.950220e-09	-5.129502e+01	-2.585068e+02
3.500000e-07	-4.743765e-06	-3.930465e-09	-5.095985e+01	-2.579645e+02
3.600000e-07	-4.711835e-06	-3.861674e-09	-5.061685e+01	-2.573867e+02
3.700000e-07	-4.679111e-06	-3.924371e-09	-5.026531e+01	-2.567735e+02
3.800000e-07	-4.645399e-06	-3.936939e-09	-4.990316e+01	-2.561258e+02
3.900000e-07	-4.610581e-06	-3.842300e-09	-4.952913e+01	-2.554456e+02
4.000000e-07	-4.574859e-06	-3.861414e-09	-4.914539e+01	-2.547355e+02
4.100000e-07	-4.538441e-06	-3.922304e-09	-4.875417e+01	-2.539987e+02
4.200000e-07	-4.501275e-06	-3.856190e-09	-4.835491e+01	-2.532384e+02
4.300000e-07	-4.463202e-06	-3.798093e-09	-4.794592e+01	-2.524581e+02
4.400000e-07	-4.424340e-06	-3.862360e-09	-4.752843e+01	-2.516610e+02
4.500000e-07	-4.384900e-06	-3.849082e-09	-4.710476e+01	-2.508497e+02
4.600000e-07	-4.344918e-06	-3.777458e-09	-4.667525e+01	-2.500263e+02
4.700000e-07	-4.304121e-06	-3.791937e-09	-4.623699e+01	-2.491923e+02
4.800000e-07	-4.262208e-06	-3.813742e-09	-4.578674e+01	-2.483480e+02
4.900000e-07	-4.219332e-06	-3.775728e-09	-4.532614e+01	-2.474932e+02
5.000000e-07	-4.175774e-06	-3.735981e-09	-4.485821e+01	-2.466266e+02
5.100000e-07	-4.131610e-06	-3.749864e-09	-4.438379e+01	-2.457466e+02
5.200000e-07	-4.086786e-06	-3.750614e-09	-4.390226e+01	-2.448506e+02
5.300000e-07	-4.041219e-06	-3.709318e-09	-4.341276e+01	-2.439361e+02
5.400000e-07	-3.994861e-06	-3.688877e-09	-4.291477e+01	-2.430001e+02
5.500000e-07	-3.947866e-06	-3.686946e-09	-4.240992e+01	-2.420398e+02
5.600000e-07	-3.900421e-06	-3.674197e-09	-4.190024e+01	-2.410525e+02
5.700000e-07	-3.852263e-06	-3.649352e-09	-4.138291e+01	-2.400360e+02
5.800000e-07	-3.803095e-06	-3.635607e-09	-4.085471e+01	-2.389883e+02
5.900000e-07	-3.752967e-06	-3.624570e-09	-4.031622e+01	-2.379081e+02
6.000000e-07	-3.701964e-06	-3.593780e-09	-3.976832e+01	-2.367948e+02
6.100000e-07	-3.650138e-06	-3.588066e-09	-3.921158e+01	-2.356479e+02
6.200000e-07	-3.597598e-06	-3.584114e-09	-3.864717e+01	-2.344677e+02
6.300000e-07	-3.544429e-06	-3.540165e-09	-3.807600e+01	-2.332546e+02
6.400000e-07	-3.490668e-06	-3.505379e-09	-3.749847e+01	-2.320092e+02
6.500000e-07	-3.436263e-06	-3.510447e-09	-3.691403e+01	-2.307321e+02
6.600000e-07	-3.381230e-06	-3.505240e-09	-3.632284e+01	-2.294238e+02
6.700000e-07	-3.325688e-06	-3.459073e-09	-3.572618e+01	-2.280846e+02
6.800000e-07	-3.269676e-06	-3.428983e-09	-3.512447e+01	-2.267143e+02
6.900000e-07	-3.213106e-06	-3.428207e-09	-3.451676e+01	-2.253123e+02
7.000000e-07	-3.155721e-06	-3.413741e-09	-3.390031e+01	-2.238776e+02
7.100000e-07	-3.097415e-06	-3.380524e-09	-3.327395e+01	-2.224088e+02
7.200000e-07	-3.038409e-06	-3.346277e-09	-3.264008e+01	-2.209038e+02
7.300000e-07	-2.978935e-06	-3.325279e-09	-3.200118e+01	-2.193605e+02
7.400000e-07	-2.919078e-06	-3.305975e-09	-3.135818e+01	-2.177764e+02
7.500000e-07	-2.858744e-06	-3.281462e-09	-3.071004e+01	-2.161491e+02
7.600000e-07	-2.797901e-06	-3.255132e-09	-3.005642e+01	-2.144760e+02
7.700000e-07	-2.736631e-06	-3.220691e-09	-2.939823e+01	-2.127549e+02
7.800000e-07	-2.674960e-06	-3.194501e-09	-2.873574e+01	-2.109837e+02
7.900000e-07	-2.612870e-06	-3.179555e-09	-2.806873e+01	-2.091608e+02
8.000000e-07	-2.550279e-06	-3.153341e-09	-2.739635e+01	-2.072847e+02
8.100000e-07	-2.487233e-06	-3.111399e-09	-2.671908e+01	-2.053545e+02
8.200000e-07	-2.423884e-06	-3.074723e-09	-2.603856e+01	-2.033696e+02
8.300000e-07	-2.360251e-06	-3.056782e-09	-2.535498e+01	-2.013294e+02
8.400000e-07	-2.296258e-06	-3.028959e-09	-2.466754e+01	-1.992336e+02
8.500000e-07	-2.231833e-06	-2.983676e-09	-2.397545e+01	-1.970816e+02
8.600000e-07	-2.167091e-06	-2.948420e-09	-2.327996e+01	-1.948729e+02
8.700000e-07	-2.102009e-06	-2.922189e-09	-2.258081e+01	-1.926064e+02
8.800000e-07	-2.036340e-06	-2.890215e-09	-2.187537e+01	-1.902806e+02
8.900000e-07	-1.970048e-06	-2.850347e-09	-2.116323e+01	-1.878934e+02
9.000000e-07	-1.903392e-06	-2.811534e-09	-2.044718e+01	-1.854421e+02
9.100000e-07	-1.836475e-06	-2.773423e-09	-1.972832e+01	-1.829231e+02
9.200000e-07	-1.769232e-06	-2.731719e-09	-1.900596e+01	-1.803324e+02
9.300000e-07	-1.701715e-06	-2.689645e-09	-1.828065e+01	-1.776650e+02
9.400000e-07	-1.633947e-06	-2.642614e-09	-1.755266e+01	-1.749156e+02
9.500000e-07	-1.566009e-06	-2.593001e-09	-1.682284e+01	-1.720781e+02
9.600000e-07	-1.497909e-06	-2.548368e-09	-1.609127e+01	-1.691464e+02
9.700000e-07	-1.429592e-06	-2.504876e-09	-1.535738e+01	-1.661137e+02
9.800000e-07	-1.361034e-06	-2.457817e-09	-1.462090e+01	-1.629732e+02
9.900000e-07	-1.292204e-06	-2.405840e-09	-1.388150e+01	-1.597181e+02
1.000000e-06	-1.223102e-06	-2.357190e-09	-1.313916e+01	-1.563412e+02
1.010000e-06	-1.153803e-06	-2.307650e-09	-1.239472e+01	-1.528354e+02
1.020000e-06	-1.084253e-06	-2.247059e-09	-1.164758e+01	-1.491934e+02
1.030000e-06	-1.014443e-06	-2.184583e-09	-1.089764e+01	-1.454076e+02
1.040000e-06	-9.445100e-07	-2.124711e-09	-1.014639e+01	-1.414703e+02
1.050000e-06	-8.744304e-07	-2.066035e-09	-9.393562e+00	-1.373731e+02
1.060000e-06	-8.041542e-07	-2.002029e-09	-8.638621e+00	-1.331071e+02
1.070000e-06	-7.336527e-07	-1.932716e-09	-7.881258e+00	-1.286628e+02
1.080000e-06	-6.629845e-07	-1.863817e-09	-7.122105e+00	-1.240300e+02
1.090000e-06	-5.922143e-07	-1.792424e-09	-6.361857e+00	-1.191978e+02
1.100000e-06	-5.213596e-07	-1.715972e-09	-5.600702e+00	-1.141547e+02
1.110000e-06	-4.504130e-07	-1.633561e-09	-4.838558e+00	-1.088887e+02
1.120000e-06	-3.793492e-07	-1.548384e-09	-4.075156e+00	-1.033878e+02
1.130000e-06	-3.082483e-07	-1.460781e-09	-3.311355e+00	-9.764029e+01
1.140000e-06	-2.371201e-07	-1.369948e-09	-2.547261e+00	-9.163507e+01
1.150000e-06	-1.659413e-07	-1.273866e-09	-1.782623e+00	-8.536240e+01
1.160000e-06	-9.478951e-08	-1.171426e-09	-1.018276e+00	-7.881439e+01
1.170000e-06	-2.361953e-08	-1.065564e-09	-2.537326e-01	-7.198571e+01
1.180000e-06	4.759789e-08	-9.594250e-10	5.113199e-01	-6.487420e+01
1.190000e-06	1.187472e-07	-8.494657e-10	1.275641e+00	-5.748143e+01
1.200000e-06	1.898557e-07	-7.321401e-10	2.039523e+00	-4.981331e+01
1.210000e-06	2.609301e-07	-6.105647e-10	2.803040e+00	-4.188041e+01
1.220000e-06	3.319336e-07	-4.870858e-10	3.565794e+00	-3.369830e+01
1.230000e-06	4.028019e-07	-3.602612e-10	4.327096e+00	-2.528762e+01
1.240000e-06	4.735675e-07	-2.262684e-10	5.087296e+00	-1.667402e+01
1.250000e-06	5.442860e-07	-9.052161e-11	5.846988e+00	-7.887887e+00
1.260000e-06	6.148740e-07	4.484311e-11	6.605279e+00	1.036150e+00
1.270000e-06	6.853627e-07	1.812812e-10	7.362504e+00	1.005982e+01
1.280000e-06	7.557172e-07	3.177586e-10	8.118286e+00	1.914205e+01
1.290000e-06	8.259030e-07	4.580310e-10	8.872256e+00	2.823988e+01
1.300000e-06	8.959896e-07	5.960359e-10	9.625162e+00	3.730946e+01
1.310000e-06	9.659018e-07	7.337686e-10	1.037619e+01	4.630719e+01
1.320000e-06	1.035587e-06	8.690110e-10	1.112478e+01	5.519072e+01
1.330000e-06	1.105056e-06	1.005276e-09	1.187105e+01	6.392000e+01
1.340000e-06	1.174329e-06	1.138293e-09	1.261522e+01	7.245822e+01
1.350000e-06	1.243449e-06	1.264479e-09	1.335774e+01	8.077259e+01
1.360000e-06	1.312357e-06	1.385070e-09	1.409799e+01	8.883498e+01
1.370000e-06	1.381027e-06	1.498987e-09	1.483568e+01	9.662240e+01
1.380000e-06	1.449474e-06	1.612608e-09	1.557096e+01	1.041172e+02
1.390000e-06	1.517705e-06	1.719169e-09	1.630394e+01	1.113072e+02
1.400000e-06	1.585717e-06	1.819686e-09	1.703455e+01	1.181854e+02
1.410000e-06	1.653541e-06	1.918987e-09	1.776315e+01	1.247497e+02
1.420000e-06	1.721158e-06	2.016896e-09	1.848953e+01	1.310026e+02
1.430000e-06	1.788555e-06	2.106087e-09	1.921354e+01	1.369504e+02
1.440000e-06	1.855766e-06	2.189574e-09	1.993556e+01	1.426026e+02
1.450000e-06	1.922685e-06	2.271677e-09	2.065443e+01	1.479709e+02
1.460000e-06	1.989112e-06	2.350092e-09	2.136802e+01	1.530690e+02
1.470000e-06	2.055003e-06	2.422175e-09	2.207586e+01	1.579115e+02
1.480000e-06	2.120377e-06	2.489991e-09	2.277813e+01	1.625135e+02
1.490000e-06	2.185193e-06	2.556460e-09	2.347442e+01	1.668899e+02
1.500000e-06	2.249530e-06	2.619544e-09	2.416556e+01	1.710549e+02
1.510000e-06	2.313480e-06	2.681002e-09	2.485254e+01	1.750221e+02
1.520000e-06	2.377106e-06	2.738669e-09	2.553604e+01	1.788038e+02
1.530000e-06	2.440398e-06	2.790187e-09	2.621596e+01	1.824113e+02
1.540000e-06	2.503374e-06	2.840251e-09	2.689248e+01	1.858547e+02
1.550000e-06	2.565960e-06	2.890639e-09	2.756481e+01	1.891431e+02
1.560000e-06	2.628099e-06	2.937934e-09	2.823234e+01	1.922848e+02
1.570000e-06	2.689775e-06	2.978863e-09	2.889489e+01	1.952874e+02
1.580000e-06	2.750983e-06	3.018863e-09	2.955241e+01	1.981580e+02
1.590000e-06	2.811694e-06	3.059892e-09	3.020460e+01	2.009035e+02
1.600000e-06	2.871913e-06	3.099036e-09	3.085150e+01	2.035304e+02
1.610000e-06	2.931747e-06	3.134334e-09	3.149427e+01	2.060457e+02
1.620000e-06	2.991158e-06	3.166810e-09	3.213249e+01	2.084558e+02
1.630000e-06	3.049996e-06	3.200298e-09	3.276455e+01	2.107677e+02
1.640000e-06	3.108062e-06	3.233151e-09	3.338833e+01	2.129879e+02
1.650000e-06	3.165293e-06	3.263574e-09	3.400314e+01	2.151232e+02
1.660000e-06	3.221837e-06	3.292852e-09	3.461056e+01	2.171799e+02
1.670000e-06	3.277852e-06	3.320644e-09	3.521230e+01	2.191638e+02
1.680000e-06	3.333414e-06	3.348432e-09	3.580918e+01	2.210804e+02
1.690000e-06	3.388462e-06	3.377438e-09	3.640052e+01	2.229344e+02
1.700000e-06	3.442930e-06	3.405417e-09	3.698565e+01	2.247298e+02
1.710000e-06	3.496837e-06	3.429448e-09	3.756474e+01	2.264695e+02
1.720000e-06	3.550185e-06	3.451207e-09	3.813784e+01	2.281558e+02
1.730000e-06	3.602936e-06	3.475914e-09	3.870451e+01	2.297902e+02
1.740000e-06	3.655027e-06	3.501869e-09	3.926410e+01	2.313733e+02
1.750000e-06	3.706425e-06	3.524449e-09	3.981624e+01	2.329053e+02
1.760000e-06	3.756986e-06	3.544418e-09	4.035939e+01	2.343858e+02
1.770000e-06	3.806537e-06	3.564727e-09	4.089169e+01	2.358143e+02
1.780000e-06	3.855165e-06	3.585447e-09	4.141408e+01	2.371903e+02
1.790000e-06	3.903116e-06	3.604978e-09	4.192920e+01	2.385134e+02
1.800000e-06	3.950434e-06	3.623643e-09	4.243750e+01	2.397836e+02
1.810000e-06	3.997120e-06	3.641506e-09	4.293903e+01	2.410013e+02
1.820000e-06	4.043205e-06	3.658792e-09	4.343410e+01	2.421677e+02
1.830000e-06	4.088617e-06	3.676808e-09	4.392194e+01	2.432843e+02
1.840000e-06	4.133255e-06	3.692816e-09	4.440146e+01	2.443534e+02
1.850000e-06	4.177285e-06	3.706258e-09	4.487445e+01	2.453777e+02
1.860000e-06	4.220812e-06	3.720938e-09	4.534204e+01	2.463603e+02
1.870000e-06	4.263603e-06	3.736255e-09	4.580172e+01	2.473046e+02
1.880000e-06	4.305432e-06	3.751534e-09	4.625107e+01	2.482141e+02
1.890000e-06	4.346257e-06	3.767098e-09	4.668964e+01	2.490920e+02
1.900000e-06	4.386297e-06	3.780327e-09	4.711976e+01	2.499415e+02
1.910000e-06	4.425597e-06	3.792021e-09	4.754194e+01	2.507652e+02
1.920000e-06	4.464076e-06	3.803809e-09	4.795531e+01	2.515651e+02
1.930000e-06	4.501832e-06	3.815333e-09	4.836089e+01	2.523428e+02
1.940000e-06	4.538815e-06	3.826262e-09	4.875819e+01	2.530990e+02
1.950000e-06	4.575039e-06	3.837497e-09	4.914731e+01	2.538341e+02
1.960000e-06	4.610651e-06	3.847991e-09	4.952988e+01	2.545476e+02
1.970000e-06	4.645481e-06	3.858652e-09	4.990404e+01	2.552389e+02
1.980000e-06	4.679273e-06	3.869826e-09	5.026706e+01	2.559068e+02
1.990000e-06	4.712022e-06	3.879551e-09	5.061886e+01	2.565504e+02
2.000000e-06	4.743893e-06	3.890184e-09	5.096123e+01	2.571683e+02
2.010000e-06	4.774980e-06	3.900976e-09	5.129518e+01	2.577599e+02
2.020000e-06	4.805333e-06	3.910369e-09	5.162125e+01	2.583245e+02
2.030000e-06	4.834975e-06	3.917671e-09	5.193968e+01	2.588621e+02
2.040000e-06	4.863749e-06	3.924577e-09	5.224878e+01	2.593731e+02
2.050000e-06	4.891784e-06	3.932578e-09	5.254995e+01	2.598583e+02
2.060000e-06	4.919163e-06	3.939936e-09	5.284407e+01	2.603193e+02
2.070000e-06	4.945551e-06	3.947042e-09	5.312755e+01	2.607578e+02
2.080000e-06	4.970788e-06	3.954958e-09	5.339865e+01	2.611760e+02
2.090000e-06	4.995028e-06	3.961865e-09	5.365905e+01	2.615761e+02
2.100000e-06	5.018409e-06	3.967024e-09	5.391021e+01	2.619603e+02
2.110000e-06	5.040961e-06	3.972381e-09	5.415248e+01	2.623307e+02
2.120000e-06	5.062711e-06	3.978184e-09	5.438613e+01	2.626890e+02
2.130000e-06	5.083602e-06	3.983119e-09	5.461055e+01	2.630366e+02
2.140000e-06	5.103717e-06	3.988704e-09	5.482664e+01	2.633742e+02
2.150000e-06	5.123132e-06	3.995894e-09	5.503521e+01	2.637019e+02
2.160000e-06	5.141702e-06	4.002168e-09	5.523469e+01	2.640196e+02
2.170000e-06	5.159349e-06	4.008242e-09	5.542427e+01	2.643263e+02
2.180000e-06	5.176142e-06	4.012774e-09	5.560466e+01	2.646208e+02
2.190000e-06	5.192027e-06	4.016167e-09	5.577531e+01	2.649015e+02
2.200000e-06	5.206866e-06	4.021113e-09	5.593471e+01	2.651668e+02
2.210000e-06	5.220671e-06	4.026001e-09	5.608302e+01	2.654151e+02
2.220000e-06	5.233485e-06	4.031484e-09	5.622067e+01	2.656450e+02
2.230000e-06	5.245340e-06	4.036836e-09	5.634802e+01	2.658554e+02
2.240000e-06	5.256133e-06	4.042009e-09	5.646397e+01	2.660457e+02
2.250000e-06	5.265692e-06	4.046852e-09	5.656665e+01	2.662159e+02
2.260000e-06	5.274137e-06	4.049944e-09	5.665737e+01	2.663664e+02
2.270000e-06	5.281687e-06	4.051684e-09	5.673848e+01	2.664983e+02
2.280000e-06	5.288380e-06	4.053348e-09	5.681038e+01	2.666131e+02
2.290000e-06	5.294192e-06	4.056605e-09	5.687281e+01	2.667125e+02
2.300000e-06	5.299108e-06	4.059654e-09	5.692563e+01	2.667987e+02
2.310000e-06	5.303238e-06	4.062669e-09	5.696999e+01	2.668736e+02
2.320000e-06	5.306585e-06	4.066471e-09	5.700594e+01	2.669391e+02
2.330000e-06	5.308846e-06	4.070429e-09	5.703024e+01	2.669965e+02
2.340000e-06	5.309865e-06	4.072406e-09	5.704118e+01	2.670470e+02
2.350000e-06	5.309895e-06	4.073486e-09	5.704150e+01	2.670907e+02
2.360000e-06	5.309083e-06	4.074544e-09	5.703279e+01	2.671274e+02
2.370000e-06	5.307454e-06	4.072918e-09	5.701528e+01	2.671560e+02
2.380000e-06	5.305007e-06	4.072376e-09	5.698900e+01	2.671745e+02
2.390000e-06	5.301724e-06	4.071618e-09	5.695373e+01	2.671807e+02
2.400000e-06	5.297781e-06	4.070339e-09	5.691137e+01	2.671718e+02
2.410000e-06	5.293076e-06	4.070067e-09	5.686083e+01	2.671447e+02
2.420000e-06	5.287324e-06	4.075258e-09	5.679903e+01	2.670962e+02
2.430000e-06	5.280454e-06	4.062639e-09	5.672523e+01	2.670236e+02
2.440000e-06	5.272624e-06	4.017963e-09	5.664112e+01	2.669243e+02
2.450000e-06	5.263712e-06	4.030271e-09	5.654538e+01	2.667964e+02
2.460000e-06	5.253443e-06	4.051048e-09	5.643507e+01	2.666390e+02
2.470000e-06	5.242124e-06	4.101938e-09	5.631348e+01	2.664518e+02
2.480000e-06	5.230369e-06	4.029554e-09	5.618720e+01	2.662356e+02
2.490000e-06	5.218110e-06	4.003177e-09	5.605551e+01	2.659920e+02
2.500000e-06	5.204499e-06	4.155277e-09	5.590929e+01	2.657235e+02
2.510000e-06	5.189490e-06	4.013155e-09	5.574806e+01	2.654332e+02
2.520000e-06	5.173743e-06	4.012285e-09	5.557889e+01	2.651248e+02
2.530000e-06	5.157168e-06	4.131114e-09	5.540083e+01	2.648021e+02
2.540000e-06	5.139506e-06	3.951703e-09	5.521111e+01	2.644689e+02
2.550000e-06	5.121219e-06	3.930335e-09	5.501465e+01	2.641287e+02
2.560000e-06	5.102374e-06	4.092513e-09	5.481221e+01	2.637845e+02
2.570000e-06	5.082663e-06	3.915609e-09	5.460046e+01	2.634383e+02
2.580000e-06	5.062049e-06	3.803168e-09	5.437902e+01	2.630915e+02
2.590000e-06	5.040322e-06	4.090800e-09	5.414562e+01	2.627442e+02
2.600000e-06	5.017429e-06	4.032080e-09	5.389969e+01	2.623956e+02
2.610000e-06	4.993586e-06	3.897490e-09	5.364355e+01	2.620438e+02
2.620000e-06	4.968773e-06	4.079057e-09	5.337701e+01	2.616858e+02
2.630000e-06	4.943147e-06	4.040485e-09	5.310171e+01	2.613183e+02
2.640000e-06	4.916839e-06	3.948999e-09	5.281910e+01	2.609370e+02
2.650000e-06	4.889648e-06	4.005712e-09	5.252701e+01	2.605377e+02
2.660000e-06	4.861741e-06	3.964575e-09	5.222721e+01	2.601159e+02
2.670000e-06	4.833083e-06	3.993788e-09	5.191936e+01	2.596676e+02
2.680000e-06	4.803204e-06	3.951668e-09	5.159838e+01	2.591893e+02
2.690000e-06	4.772101e-06	3.903235e-09	5.126425e+01	2.586782e+02
2.700000e-06	4.740177e-06	4.048711e-09	5.092131e+01	2.581325e+02
2.710000e-06	4.707504e-06	3.919974e-09	5.057033e+01	2.575511e+02
2.720000e-06	4.673954e-06	3.831065e-09	5.020991e+01	2.569344e+02
2.730000e-06	4.639604e-06	3.998457e-09	4.984091e+01	2.562835e+02
2.740000e-06	4.604581e-06	3.928638e-09	4.946467e+01	2.556002e+02
2.750000e-06	4.568900e-06	3.839056e-09	4.908137e+01	2.548873e+02
2.760000e-06	4.532531e-06	3.879027e-09	4.869067e+01	2.541480e+02
2.770000e-06	4.495297e-06	3.899662e-09	4.829070e+01	2.533856e+02
2.780000e-06	4.456969e-06	3.858330e-09	4.787896e+01	2.526035e+02
2.790000e-06	4.417626e-06	3.792681e-09	4.745631e+01	2.518049e+02
2.800000e-06	4.377509e-06	3.870328e-09	4.702536e+01	2.509924e+02
2.810000e-06	4.336694e-06	3.853519e-09	4.658690e+01	2.501680e+02
2.820000e-06	4.295209e-06	3.747848e-09	4.614124e+01	2.493329e+02
2.830000e-06	4.253034e-06	3.794976e-09	4.568819e+01	2.484876e+02
2.840000e-06	4.210141e-06	3.813216e-09	4.522740e+01	2.476317e+02
2.850000e-06	4.166641e-06	3.778826e-09	4.476011e+01	2.467640e+02
2.860000e-06	4.122624e-06	3.725030e-09	4.428725e+01	2.458825e+02
2.870000e-06	4.078094e-06	3.725370e-09	4.380889e+01	2.449848e+02
2.880000e-06	4.032910e-06	3.768060e-09	4.332350e+01	2.440683e+02
2.890000e-06	3.986915e-06	3.702356e-09	4.282940e+01	2.431301e+02
2.900000e-06	3.940104e-06	3.689328e-09	4.232654e+01	2.421672e+02
2.910000e-06	3.892723e-06	3.696193e-09	4.181755e+01	2.411771e+02
2.920000e-06	3.844749e-06	3.660905e-09	4.130218e+01	2.401576e+02
2.930000e-06	3.795895e-06	3.652030e-09	4.077737e+01	2.391067e+02
2.940000e-06	3.746233e-06	3.642441e-09	4.024388e+01	2.380233e+02
2.950000e-06	3.695912e-06	3.634526e-09	3.970331e+01	2.369067e+02
