# Temperatura_=_20.0
# Concentracion g/m^3_=_9000.0
# C_Vs_to_Am_M_A/Vsm_=_65563218390.804596
# pendiente_HvsI_1/m_=_3716.3
# ordenada_HvsI_A/m_=_1297.0
# frecuencia_Hz_=_212875.40363651866

Tiempo_(s)	Campo_(V.s)	Magnetizacion_(V.s)	Campo_(kA/m)	Magnetizacion_(A/m)
0.000000e+00	-5.267992e-06	-5.714124e-11	-5.698871e+01	-5.087630e+00
1.000000e-08	-5.267636e-06	-6.009634e-11	-5.698486e+01	-5.108944e+00
2.000000e-08	-5.266479e-06	-6.240514e-11	-5.697234e+01	-5.128701e+00
3.000000e-08	-5.264190e-06	-6.340402e-11	-5.694758e+01	-5.147715e+00
4.000000e-08	-5.260747e-06	-6.369103e-11	-5.691033e+01	-5.166946e+00
5.000000e-08	-5.256553e-06	-6.353807e-11	-5.686496e+01	-5.187435e+00
6.000000e-08	-5.251614e-06	-6.244193e-11	-5.681153e+01	-5.210224e+00
7.000000e-08	-5.245830e-06	-5.238563e-11	-5.674896e+01	-5.236263e+00
8.000000e-08	-5.239226e-06	-5.646988e-11	-5.667752e+01	-5.266323e+00
9.000000e-08	-5.231686e-06	-9.428467e-11	-5.659595e+01	-5.300905e+00
1.000000e-07	-5.223172e-06	-1.012458e-10	-5.650385e+01	-5.340172e+00
1.100000e-07	-5.213433e-06	-6.472980e-11	-5.639849e+01	-5.383888e+00
1.200000e-07	-5.202350e-06	2.137142e-11	-5.627859e+01	-5.431384e+00
1.300000e-07	-5.190361e-06	-5.991634e-11	-5.614890e+01	-5.481556e+00
1.400000e-07	-5.177581e-06	-1.785649e-10	-5.601065e+01	-5.532882e+00
1.500000e-07	-5.163902e-06	-3.635005e-11	-5.586267e+01	-5.583480e+00
1.600000e-07	-5.149441e-06	-1.311940e-11	-5.570624e+01	-5.631183e+00
1.700000e-07	-5.134122e-06	-7.331725e-11	-5.554052e+01	-5.673645e+00
1.800000e-07	-5.117328e-06	-2.742135e-11	-5.535883e+01	-5.708464e+00
1.900000e-07	-5.099357e-06	-8.397248e-11	-5.516443e+01	-5.733313e+00
2.000000e-07	-5.081048e-06	-1.609604e-10	-5.496636e+01	-5.746082e+00
2.100000e-07	-5.062068e-06	3.192679e-11	-5.476104e+01	-5.745002e+00
2.200000e-07	-5.042052e-06	7.639940e-12	-5.454451e+01	-5.728766e+00
2.300000e-07	-5.021354e-06	-2.290390e-10	-5.432060e+01	-5.696623e+00
2.400000e-07	-5.000023e-06	-9.825754e-11	-5.408984e+01	-5.648444e+00
2.500000e-07	-4.977676e-06	2.008127e-11	-5.384809e+01	-5.584751e+00
2.600000e-07	-4.954328e-06	-7.380189e-11	-5.359552e+01	-5.506713e+00
2.700000e-07	-4.930205e-06	-1.525819e-10	-5.333455e+01	-5.416099e+00
2.800000e-07	-4.905351e-06	-1.414742e-10	-5.306568e+01	-5.315201e+00
2.900000e-07	-4.879567e-06	-6.905367e-11	-5.278676e+01	-5.206725e+00
3.000000e-07	-4.852491e-06	-3.008054e-11	-5.249385e+01	-5.093644e+00
3.100000e-07	-4.824355e-06	-1.340756e-10	-5.218948e+01	-4.979054e+00
3.200000e-07	-4.795518e-06	-1.211135e-10	-5.187752e+01	-4.866007e+00
3.300000e-07	-4.765839e-06	-5.902591e-11	-5.155646e+01	-4.757350e+00
3.400000e-07	-4.735369e-06	-1.242049e-10	-5.122684e+01	-4.655579e+00
3.500000e-07	-4.704154e-06	-5.755118e-11	-5.088915e+01	-4.562709e+00
3.600000e-07	-4.672155e-06	-4.393626e-11	-5.054299e+01	-4.480181e+00
3.700000e-07	-4.639480e-06	-1.769875e-10	-5.018951e+01	-4.408795e+00
3.800000e-07	-4.606107e-06	-1.043148e-10	-4.982849e+01	-4.348691e+00
3.900000e-07	-4.571545e-06	3.457372e-11	-4.945460e+01	-4.299364e+00
4.000000e-07	-4.535738e-06	-8.928643e-11	-4.906725e+01	-4.259720e+00
4.100000e-07	-4.499287e-06	-1.785977e-10	-4.867292e+01	-4.228169e+00
4.200000e-07	-4.462288e-06	-5.319264e-11	-4.827267e+01	-4.202743e+00
4.300000e-07	-4.424401e-06	-6.045929e-12	-4.786281e+01	-4.181239e+00
4.400000e-07	-4.385564e-06	-1.058360e-10	-4.744268e+01	-4.161368e+00
4.500000e-07	-4.346100e-06	-1.211411e-10	-4.701576e+01	-4.140912e+00
4.600000e-07	-4.306168e-06	-6.684698e-11	-4.658377e+01	-4.117863e+00
4.700000e-07	-4.265588e-06	-5.932041e-11	-4.614478e+01	-4.090552e+00
4.800000e-07	-4.224171e-06	-6.148128e-11	-4.569674e+01	-4.057749e+00
4.900000e-07	-4.181698e-06	-7.996419e-11	-4.523726e+01	-4.018728e+00
5.000000e-07	-4.138188e-06	-8.811575e-11	-4.476658e+01	-3.973296e+00
5.100000e-07	-4.094010e-06	-6.600606e-11	-4.428867e+01	-3.921792e+00
5.200000e-07	-4.049323e-06	-5.190312e-11	-4.380524e+01	-3.865036e+00
5.300000e-07	-4.004004e-06	-5.741085e-11	-4.331498e+01	-3.804261e+00
5.400000e-07	-3.957951e-06	-8.600603e-11	-4.281679e+01	-3.741002e+00
5.500000e-07	-3.911193e-06	-9.111473e-11	-4.231097e+01	-3.676980e+00
5.600000e-07	-3.863760e-06	-5.304391e-11	-4.179784e+01	-3.613970e+00
5.700000e-07	-3.815709e-06	-3.873993e-11	-4.127803e+01	-3.553662e+00
5.800000e-07	-3.767025e-06	-7.942121e-11	-4.075137e+01	-3.497547e+00
5.900000e-07	-3.717461e-06	-1.003781e-10	-4.021519e+01	-3.446802e+00
6.000000e-07	-3.666829e-06	-5.005719e-11	-3.966746e+01	-3.402210e+00
6.100000e-07	-3.615257e-06	-3.359435e-11	-3.910956e+01	-3.364107e+00
6.200000e-07	-3.562994e-06	-7.860035e-11	-3.854418e+01	-3.332362e+00
6.300000e-07	-3.510027e-06	-8.309429e-11	-3.797118e+01	-3.306391e+00
6.400000e-07	-3.456380e-06	-5.678467e-11	-3.739084e+01	-3.285200e+00
6.500000e-07	-3.402141e-06	-5.502160e-11	-3.680409e+01	-3.267460e+00
6.600000e-07	-3.347291e-06	-6.550974e-11	-3.621072e+01	-3.251600e+00
6.700000e-07	-3.291831e-06	-6.541851e-11	-3.561076e+01	-3.235922e+00
6.800000e-07	-3.235926e-06	-6.373620e-11	-3.500599e+01	-3.218713e+00
6.900000e-07	-3.179669e-06	-6.253045e-11	-3.439740e+01	-3.198362e+00
7.000000e-07	-3.122780e-06	-4.966434e-11	-3.378198e+01	-3.173466e+00
7.100000e-07	-3.065083e-06	-5.166980e-11	-3.315782e+01	-3.142919e+00
7.200000e-07	-3.006582e-06	-6.723919e-11	-3.252496e+01	-3.105970e+00
7.300000e-07	-2.947350e-06	-6.200376e-11	-3.188419e+01	-3.062270e+00
7.400000e-07	-2.887596e-06	-5.027898e-11	-3.123777e+01	-3.011870e+00
7.500000e-07	-2.827496e-06	-5.405566e-11	-3.058762e+01	-2.955207e+00
7.600000e-07	-2.767000e-06	-6.564086e-11	-2.993318e+01	-2.893052e+00
7.700000e-07	-2.706019e-06	-6.223478e-11	-2.927349e+01	-2.826438e+00
7.800000e-07	-2.644593e-06	-4.741108e-11	-2.860899e+01	-2.756575e+00
7.900000e-07	-2.582724e-06	-5.041769e-11	-2.793970e+01	-2.684751e+00
8.000000e-07	-2.520447e-06	-5.910087e-11	-2.726598e+01	-2.612230e+00
8.100000e-07	-2.457752e-06	-5.265999e-11	-2.658776e+01	-2.540160e+00
8.200000e-07	-2.394638e-06	-4.145549e-11	-2.590500e+01	-2.469485e+00
8.300000e-07	-2.331109e-06	-4.312574e-11	-2.521775e+01	-2.400888e+00
8.400000e-07	-2.267209e-06	-5.058683e-11	-2.452649e+01	-2.334741e+00
8.500000e-07	-2.203086e-06	-4.373604e-11	-2.383280e+01	-2.271091e+00
8.600000e-07	-2.138744e-06	-3.787571e-11	-2.313676e+01	-2.209670e+00
8.700000e-07	-2.074073e-06	-4.140318e-11	-2.243715e+01	-2.149929e+00
8.800000e-07	-2.008954e-06	-4.337613e-11	-2.173270e+01	-2.091089e+00
8.900000e-07	-1.943439e-06	-4.441355e-11	-2.102397e+01	-2.032219e+00
9.000000e-07	-1.877571e-06	-4.130427e-11	-2.031141e+01	-1.972317e+00
9.100000e-07	-1.811248e-06	-3.748374e-11	-1.959393e+01	-1.910398e+00
9.200000e-07	-1.744383e-06	-3.834253e-11	-1.887059e+01	-1.845581e+00
9.300000e-07	-1.677023e-06	-4.323862e-11	-1.814190e+01	-1.777164e+00
9.400000e-07	-1.609332e-06	-4.504600e-11	-1.740963e+01	-1.704688e+00
9.500000e-07	-1.541462e-06	-3.555376e-11	-1.667541e+01	-1.627981e+00
9.600000e-07	-1.473464e-06	-3.132419e-11	-1.593982e+01	-1.547176e+00
9.700000e-07	-1.405311e-06	-3.739284e-11	-1.520254e+01	-1.462710e+00
9.800000e-07	-1.336980e-06	-3.808933e-11	-1.446334e+01	-1.375296e+00
9.900000e-07	-1.268557e-06	-2.881380e-11	-1.372314e+01	-1.285878e+00
1.000000e-06	-1.199982e-06	-2.123694e-11	-1.298131e+01	-1.195565e+00
1.010000e-06	-1.131070e-06	-2.597417e-11	-1.223582e+01	-1.105555e+00
1.020000e-06	-1.061794e-06	-3.214914e-11	-1.148640e+01	-1.017051e+00
1.030000e-06	-9.922963e-07	-3.061996e-11	-1.073458e+01	-9.311779e-01
1.040000e-06	-9.227466e-07	-2.561279e-11	-9.982197e+00	-8.489064e-01
1.050000e-06	-8.530544e-07	-2.179286e-11	-9.228273e+00	-7.709850e-01
1.060000e-06	-7.830598e-07	-2.254650e-11	-8.471077e+00	-6.978922e-01
1.070000e-06	-7.128669e-07	-2.177722e-11	-7.711736e+00	-6.298062e-01
1.080000e-06	-6.425776e-07	-1.723029e-11	-6.951352e+00	-5.665965e-01
1.090000e-06	-5.722543e-07	-1.253133e-11	-6.190600e+00	-5.078384e-01
1.100000e-06	-5.018950e-07	-1.253337e-11	-5.429459e+00	-4.528462e-01
1.110000e-06	-4.313618e-07	-1.894901e-11	-4.666437e+00	-4.007260e-01
1.120000e-06	-3.607989e-07	-1.974634e-11	-3.903093e+00	-3.504411e-01
1.130000e-06	-2.902658e-07	-1.453250e-11	-3.140072e+00	-3.008860e-01
1.140000e-06	-2.196723e-07	-1.157944e-11	-2.376397e+00	-2.509646e-01
1.150000e-06	-1.489657e-07	-1.249536e-11	-1.611499e+00	-1.996647e-01
1.160000e-06	-7.809464e-08	-1.328294e-11	-8.448214e-01	-1.461261e-01
1.170000e-06	-7.274180e-09	-8.850276e-12	-7.869148e-02	-8.969564e-02
1.180000e-06	6.336688e-08	-4.165243e-12	6.854977e-01	-2.996703e-02
1.190000e-06	1.339919e-07	-3.492869e-12	1.449514e+00	3.319784e-02
1.200000e-06	2.046497e-07	-4.047626e-12	2.213884e+00	9.966612e-02
1.210000e-06	2.752216e-07	-5.113869e-12	2.977325e+00	1.690499e-01
1.220000e-06	3.456781e-07	-4.806447e-12	3.739518e+00	2.407385e-01
1.230000e-06	4.160658e-07	-3.319087e-12	4.500966e+00	3.139449e-01
1.240000e-06	4.864142e-07	-2.976138e-12	5.261990e+00	3.877608e-01
1.250000e-06	5.566683e-07	-2.852932e-12	6.021992e+00	4.612184e-01
1.260000e-06	6.267802e-07	-1.915795e-12	6.780456e+00	5.333519e-01
1.270000e-06	6.967643e-07	1.451323e-12	7.537539e+00	6.032554e-01
1.280000e-06	7.666347e-07	4.145804e-12	8.293392e+00	6.701334e-01
1.290000e-06	8.363707e-07	6.294064e-12	9.047790e+00	7.333402e-01
1.300000e-06	9.059808e-07	6.499494e-12	9.800826e+00	7.924062e-01
1.310000e-06	9.754297e-07	6.898885e-12	1.055212e+01	8.470503e-01
1.320000e-06	1.044678e-06	9.033113e-12	1.130124e+01	8.971787e-01
1.330000e-06	1.113751e-06	7.843238e-12	1.204847e+01	9.428700e-01
1.340000e-06	1.182578e-06	7.649987e-12	1.279304e+01	9.843511e-01
1.350000e-06	1.251203e-06	9.489729e-12	1.353541e+01	1.021965e+00
1.360000e-06	1.319675e-06	1.118219e-11	1.427613e+01	1.056134e+00
1.370000e-06	1.387948e-06	1.189634e-11	1.501471e+01	1.087323e+00
1.380000e-06	1.456061e-06	1.346520e-11	1.575155e+01	1.116006e+00
1.390000e-06	1.524059e-06	1.533972e-11	1.648715e+01	1.142637e+00
1.400000e-06	1.591923e-06	1.478530e-11	1.722129e+01	1.167628e+00
1.410000e-06	1.659587e-06	1.406433e-11	1.795328e+01	1.191342e+00
1.420000e-06	1.726945e-06	1.409164e-11	1.868195e+01	1.214086e+00
1.430000e-06	1.793859e-06	1.332666e-11	1.940582e+01	1.236123e+00
1.440000e-06	1.860369e-06	1.317067e-11	2.012532e+01	1.257687e+00
1.450000e-06	1.926512e-06	1.334933e-11	2.084084e+01	1.279002e+00
1.460000e-06	1.992120e-06	1.472167e-11	2.155059e+01	1.300307e+00
1.470000e-06	2.057154e-06	1.711041e-11	2.225413e+01	1.321882e+00
1.480000e-06	2.121739e-06	1.953891e-11	2.295280e+01	1.344062e+00
1.490000e-06	2.185985e-06	2.288187e-11	2.364781e+01	1.367259e+00
1.500000e-06	2.249978e-06	2.345852e-11	2.434008e+01	1.391964e+00
1.510000e-06	2.313666e-06	2.209750e-11	2.502905e+01	1.418742e+00
1.520000e-06	2.377010e-06	2.131225e-11	2.571430e+01	1.448222e+00
1.530000e-06	2.439971e-06	2.282843e-11	2.639541e+01	1.481072e+00
1.540000e-06	2.502483e-06	2.498709e-11	2.707166e+01	1.517964e+00
1.550000e-06	2.564600e-06	2.405586e-11	2.774363e+01	1.559538e+00
1.560000e-06	2.626301e-06	2.379308e-11	2.841111e+01	1.606358e+00
1.570000e-06	2.687508e-06	2.741068e-11	2.907325e+01	1.658871e+00
1.580000e-06	2.748213e-06	3.150422e-11	2.972994e+01	1.717363e+00
1.590000e-06	2.808484e-06	3.135818e-11	3.038195e+01	1.781932e+00
1.600000e-06	2.868412e-06	3.043218e-11	3.103025e+01	1.852456e+00
1.610000e-06	2.927933e-06	3.299411e-11	3.167413e+01	1.928589e+00
1.620000e-06	2.986873e-06	3.682895e-11	3.231175e+01	2.009756e+00
1.630000e-06	3.044988e-06	3.876710e-11	3.294043e+01	2.095172e+00
1.640000e-06	3.102273e-06	3.921379e-11	3.356013e+01	2.183870e+00
1.650000e-06	3.158897e-06	4.016397e-11	3.417269e+01	2.274742e+00
1.660000e-06	3.214980e-06	4.225251e-11	3.477939e+01	2.366587e+00
1.670000e-06	3.270676e-06	4.423604e-11	3.538191e+01	2.458172e+00
1.680000e-06	3.325884e-06	4.571260e-11	3.597915e+01	2.548289e+00
1.690000e-06	3.380480e-06	4.633355e-11	3.656976e+01	2.635817e+00
1.700000e-06	3.434544e-06	4.625071e-11	3.715462e+01	2.719770e+00
1.710000e-06	3.488050e-06	4.795791e-11	3.773344e+01	2.799350e+00
1.720000e-06	3.540886e-06	5.048170e-11	3.830501e+01	2.873977e+00
1.730000e-06	3.593053e-06	5.101727e-11	3.886936e+01	2.943310e+00
1.740000e-06	3.644535e-06	5.078687e-11	3.942628e+01	3.007257e+00
1.750000e-06	3.695142e-06	5.162912e-11	3.997374e+01	3.065962e+00
1.760000e-06	3.744722e-06	5.309643e-11	4.051009e+01	3.119787e+00
1.770000e-06	3.793426e-06	5.450888e-11	4.103698e+01	3.169273e+00
1.780000e-06	3.841514e-06	5.730435e-11	4.155719e+01	3.215104e+00
1.790000e-06	3.889086e-06	5.941246e-11	4.207181e+01	3.258051e+00
1.800000e-06	3.936069e-06	5.864728e-11	4.258007e+01	3.298924e+00
1.810000e-06	3.982340e-06	5.807531e-11	4.308063e+01	3.338517e+00
1.820000e-06	4.027875e-06	5.912377e-11	4.357323e+01	3.377567e+00
1.830000e-06	4.072668e-06	6.028851e-11	4.405779e+01	3.416709e+00
1.840000e-06	4.116857e-06	5.937958e-11	4.453582e+01	3.456452e+00
1.850000e-06	4.160606e-06	5.792212e-11	4.500909e+01	3.497154e+00
1.860000e-06	4.203738e-06	5.893249e-11	4.547569e+01	3.539020e+00
1.870000e-06	4.245886e-06	6.164452e-11	4.593164e+01	3.582104e+00
1.880000e-06	4.286906e-06	6.338851e-11	4.637540e+01	3.626324e+00
1.890000e-06	4.327009e-06	6.380368e-11	4.680923e+01	3.671481e+00
1.900000e-06	4.366463e-06	6.619091e-11	4.723604e+01	3.717291e+00
1.910000e-06	4.405257e-06	6.982098e-11	4.765571e+01	3.763416e+00
1.920000e-06	4.443298e-06	7.044129e-11	4.806724e+01	3.809489e+00
1.930000e-06	4.480557e-06	6.995452e-11	4.847030e+01	3.855152e+00
1.940000e-06	4.517054e-06	6.978533e-11	4.886513e+01	3.900074e+00
1.950000e-06	4.552975e-06	7.010322e-11	4.925371e+01	3.943971e+00
1.960000e-06	4.588319e-06	7.168188e-11	4.963606e+01	3.986618e+00
1.970000e-06	4.622675e-06	7.307312e-11	5.000772e+01	4.027855e+00
1.980000e-06	4.655826e-06	7.410749e-11	5.036635e+01	4.067579e+00
1.990000e-06	4.688046e-06	7.580234e-11	5.071489e+01	4.105743e+00
2.000000e-06	4.719556e-06	7.813420e-11	5.105578e+01	4.142338e+00
2.010000e-06	4.750302e-06	7.861737e-11	5.138838e+01	4.177380e+00
2.020000e-06	4.780245e-06	7.802587e-11	5.171230e+01	4.210900e+00
2.030000e-06	4.809386e-06	7.798164e-11	5.202755e+01	4.242927e+00
2.040000e-06	4.837724e-06	7.823596e-11	5.233411e+01	4.273478e+00
2.050000e-06	4.865405e-06	7.810992e-11	5.263355e+01	4.302561e+00
2.060000e-06	4.892316e-06	7.719961e-11	5.292467e+01	4.330170e+00
2.070000e-06	4.918090e-06	7.878684e-11	5.320349e+01	4.356295e+00
2.080000e-06	4.942723e-06	8.161131e-11	5.346998e+01	4.380931e+00
2.090000e-06	4.966531e-06	8.258358e-11	5.372752e+01	4.404093e+00
2.100000e-06	4.989565e-06	8.327569e-11	5.397671e+01	4.425835e+00
2.110000e-06	5.011780e-06	8.418674e-11	5.421703e+01	4.446260e+00
2.120000e-06	5.033190e-06	8.463854e-11	5.444864e+01	4.465536e+00
2.130000e-06	5.053792e-06	8.458310e-11	5.467151e+01	4.483903e+00
2.140000e-06	5.073690e-06	8.467077e-11	5.488677e+01	4.501675e+00
2.150000e-06	5.092884e-06	8.610997e-11	5.509440e+01	4.519231e+00
2.160000e-06	5.111125e-06	8.730130e-11	5.529173e+01	4.537004e+00
2.170000e-06	5.128391e-06	8.762056e-11	5.547851e+01	4.555458e+00
2.180000e-06	5.144793e-06	8.936750e-11	5.565595e+01	4.575059e+00
2.190000e-06	5.160182e-06	8.956542e-11	5.582243e+01	4.596244e+00
2.200000e-06	5.174509e-06	8.860340e-11	5.597741e+01	4.619388e+00
2.210000e-06	5.187912e-06	9.007075e-11	5.612241e+01	4.644766e+00
2.220000e-06	5.200415e-06	9.127511e-11	5.625767e+01	4.672531e+00
2.230000e-06	5.211944e-06	8.984831e-11	5.638238e+01	4.702684e+00
2.240000e-06	5.222342e-06	8.909790e-11	5.649487e+01	4.735070e+00
2.250000e-06	5.231456e-06	9.023499e-11	5.659346e+01	4.769372e+00
2.260000e-06	5.239539e-06	9.206103e-11	5.668091e+01	4.805127e+00
2.270000e-06	5.246805e-06	9.406140e-11	5.675951e+01	4.841749e+00
2.280000e-06	5.253212e-06	9.493469e-11	5.682882e+01	4.878572e+00
2.290000e-06	5.258759e-06	9.468624e-11	5.688882e+01	4.914889e+00
2.300000e-06	5.263411e-06	9.435501e-11	5.693915e+01	4.950014e+00
2.310000e-06	5.267251e-06	9.442779e-11	5.698069e+01	4.983336e+00
2.320000e-06	5.270289e-06	9.469491e-11	5.701355e+01	5.014374e+00
2.330000e-06	5.272189e-06	9.668548e-11	5.703411e+01	5.042824e+00
2.340000e-06	5.272872e-06	9.596523e-11	5.704150e+01	5.068603e+00
2.350000e-06	5.272739e-06	9.480345e-11	5.704006e+01	5.091865e+00
2.360000e-06	5.271816e-06	9.396825e-11	5.703008e+01	5.113012e+00
2.370000e-06	5.269989e-06	9.470220e-11	5.701031e+01	5.132675e+00
2.380000e-06	5.267354e-06	9.618109e-11	5.698181e+01	5.151685e+00
2.390000e-06	5.263890e-06	9.572417e-11	5.694434e+01	5.171014e+00
2.400000e-06	5.259683e-06	9.699300e-11	5.689883e+01	5.191707e+00
2.410000e-06	5.254742e-06	1.038812e-10	5.684537e+01	5.214800e+00
2.420000e-06	5.248774e-06	1.190781e-10	5.678080e+01	5.241230e+00
2.430000e-06	5.241612e-06	7.951098e-11	5.670334e+01	5.271744e+00
2.440000e-06	5.233493e-06	5.514720e-11	5.661550e+01	5.306814e+00
2.450000e-06	5.224430e-06	7.562482e-11	5.651745e+01	5.346563e+00
2.460000e-06	5.214136e-06	1.714758e-10	5.640609e+01	5.390713e+00
2.470000e-06	5.202718e-06	1.475153e-10	5.628258e+01	5.438554e+00
2.480000e-06	5.190820e-06	-1.087371e-11	5.615386e+01	5.488936e+00
2.490000e-06	5.178614e-06	6.304552e-11	5.602183e+01	5.540299e+00
2.500000e-06	5.165051e-06	1.924013e-10	5.587510e+01	5.590729e+00
2.510000e-06	5.149774e-06	6.746932e-11	5.570983e+01	5.638035e+00
2.520000e-06	5.133806e-06	1.480977e-10	5.553709e+01	5.679860e+00
2.530000e-06	5.117364e-06	1.810862e-10	5.535923e+01	5.713804e+00
2.540000e-06	5.099730e-06	-4.166973e-11	5.516847e+01	5.737556e+00
2.550000e-06	5.081247e-06	1.506205e-10	5.496851e+01	5.749032e+00
2.560000e-06	5.062405e-06	2.698555e-10	5.476469e+01	5.746506e+00
2.570000e-06	5.042683e-06	-1.016567e-11	5.455133e+01	5.728723e+00
2.580000e-06	5.021941e-06	2.211892e-12	5.432695e+01	5.694992e+00
2.590000e-06	5.000113e-06	2.424454e-10	5.409082e+01	5.645247e+00
2.600000e-06	4.977040e-06	5.705038e-11	5.384121e+01	5.580076e+00
2.610000e-06	4.953095e-06	-1.918192e-11	5.358218e+01	5.500711e+00
2.620000e-06	4.928285e-06	1.160793e-10	5.331379e+01	5.408977e+00
2.630000e-06	4.902577e-06	4.657051e-11	5.303567e+01	5.307214e+00
2.640000e-06	4.876317e-06	1.017990e-10	5.275160e+01	5.198160e+00
2.650000e-06	4.849238e-06	5.129824e-11	5.245866e+01	5.084808e+00
2.660000e-06	4.821237e-06	1.308430e-12	5.215575e+01	4.970257e+00
2.670000e-06	4.792606e-06	1.270361e-10	5.184602e+01	4.857546e+00
2.680000e-06	4.762808e-06	7.079196e-12	5.152367e+01	4.749492e+00
2.690000e-06	4.731571e-06	4.528442e-11	5.118575e+01	4.648548e+00
2.700000e-06	4.699619e-06	1.466663e-10	5.084010e+01	4.556677e+00
2.710000e-06	4.667094e-06	-5.354968e-11	5.048824e+01	4.475258e+00
2.720000e-06	4.633596e-06	5.135972e-12	5.012587e+01	4.405025e+00
2.730000e-06	4.599306e-06	1.623895e-10	4.975491e+01	4.346051e+00
2.740000e-06	4.564396e-06	5.841397e-11	4.937727e+01	4.297771e+00
2.750000e-06	4.528790e-06	-3.425987e-11	4.899208e+01	4.259034e+00
2.760000e-06	4.492416e-06	1.994795e-11	4.859859e+01	4.228209e+00
2.770000e-06	4.455181e-06	1.406600e-10	4.819579e+01	4.203297e+00
2.780000e-06	4.416933e-06	6.654379e-11	4.778202e+01	4.182079e+00
2.790000e-06	4.377624e-06	-2.935818e-11	4.735678e+01	4.162267e+00
2.800000e-06	4.337570e-06	6.300762e-11	4.692347e+01	4.141657e+00
2.810000e-06	4.296931e-06	7.907926e-11	4.648385e+01	4.118270e+00
2.820000e-06	4.255659e-06	5.706741e-11	4.603737e+01	4.090477e+00
2.830000e-06	4.213669e-06	3.929276e-11	4.558313e+01	4.057096e+00
2.840000e-06	4.170942e-06	4.280368e-11	4.512091e+01	4.017453e+00
2.850000e-06	4.127582e-06	6.248029e-11	4.465185e+01	3.971410e+00
2.860000e-06	4.083663e-06	2.576697e-11	4.417673e+01	3.919356e+00
2.870000e-06	4.039271e-06	6.426584e-11	4.369650e+01	3.862157e+00
2.880000e-06	3.994265e-06	6.206369e-11	4.320963e+01	3.801080e+00
2.890000e-06	3.948377e-06	3.949594e-12	4.271322e+01	3.737685e+00
2.900000e-06	3.901656e-06	3.846919e-11	4.220780e+01	3.673705e+00
2.910000e-06	3.854390e-06	7.186825e-11	4.169648e+01	3.610910e+00
2.920000e-06	3.806571e-06	5.011701e-11	4.117917e+01	3.550979e+00
2.930000e-06	3.757821e-06	6.557187e-12	4.065180e+01	3.495374e+00
2.940000e-06	3.708159e-06	4.343449e-11	4.011456e+01	3.445235e+00
2.950000e-06	3.657897e-06	7.644851e-11	3.957083e+01	3.401304e+00
