# Temperatura_=_20.0
# Concentracion g/m^3_=_9000.0
# C_Vs_to_Am_M_A/Vsm_=_65563218390.804596
# pendiente_HvsI_1/m_=_3716.3
# ordenada_HvsI_A/m_=_1297.0
# frecuencia_Hz_=_212871.4687073724

Tiempo_(s)	Campo_(V.s)	Magnetizacion_(V.s)	Campo_(kA/m)	Magnetizacion_(A/m)
0.000000e+00	-5.311354e-06	-2.355384e-10	-5.697383e+01	-1.613360e+01
1.000000e-08	-5.311033e-06	-2.371042e-10	-5.697038e+01	-1.612597e+01
2.000000e-08	-5.309711e-06	-2.328779e-10	-5.695620e+01	-1.614390e+01
3.000000e-08	-5.307248e-06	-2.301673e-10	-5.692978e+01	-1.618916e+01
4.000000e-08	-5.303810e-06	-2.312563e-10	-5.689290e+01	-1.626118e+01
5.000000e-08	-5.299549e-06	-2.318082e-10	-5.684719e+01	-1.635682e+01
6.000000e-08	-5.294505e-06	-2.343479e-10	-5.679309e+01	-1.647031e+01
7.000000e-08	-5.288632e-06	-2.453341e-10	-5.673009e+01	-1.659333e+01
8.000000e-08	-5.281857e-06	-2.619323e-10	-5.665742e+01	-1.671537e+01
9.000000e-08	-5.274153e-06	-2.394674e-10	-5.657478e+01	-1.682411e+01
1.000000e-07	-5.265305e-06	-1.502701e-10	-5.647986e+01	-1.690609e+01
1.100000e-07	-5.255258e-06	-1.348396e-10	-5.637209e+01	-1.694738e+01
1.200000e-07	-5.244087e-06	-2.532779e-10	-5.625227e+01	-1.693440e+01
1.300000e-07	-5.231924e-06	-4.302053e-10	-5.612179e+01	-1.685469e+01
1.400000e-07	-5.218937e-06	-2.709075e-10	-5.598248e+01	-1.669776e+01
1.500000e-07	-5.205107e-06	3.201358e-13	-5.583414e+01	-1.645573e+01
1.600000e-07	-5.190398e-06	-2.222196e-10	-5.567635e+01	-1.612394e+01
1.700000e-07	-5.174573e-06	-3.305121e-10	-5.550660e+01	-1.570138e+01
1.800000e-07	-5.157610e-06	-2.523819e-10	-5.532464e+01	-1.519088e+01
1.900000e-07	-5.139783e-06	-3.098289e-10	-5.513341e+01	-1.459914e+01
2.000000e-07	-5.121231e-06	-1.545257e-10	-5.493441e+01	-1.393654e+01
2.100000e-07	-5.101949e-06	5.692837e-12	-5.472758e+01	-1.321668e+01
2.200000e-07	-5.081868e-06	-3.424381e-10	-5.451218e+01	-1.245581e+01
2.300000e-07	-5.060949e-06	-3.521060e-10	-5.428778e+01	-1.167208e+01
2.400000e-07	-5.039176e-06	1.247928e-10	-5.405423e+01	-1.088467e+01
2.500000e-07	-5.016544e-06	-2.833390e-11	-5.381145e+01	-1.011284e+01
2.600000e-07	-4.993067e-06	-3.283193e-10	-5.355963e+01	-9.375065e+00
2.700000e-07	-4.968787e-06	-2.042405e-10	-5.329917e+01	-8.688106e+00
2.800000e-07	-4.943625e-06	-4.080730e-11	-5.302927e+01	-8.066265e+00
2.900000e-07	-4.917369e-06	-3.281499e-11	-5.274763e+01	-7.520749e+00
3.000000e-07	-4.890012e-06	-1.194297e-10	-5.245417e+01	-7.059230e+00
3.100000e-07	-4.861733e-06	-2.209186e-10	-5.215083e+01	-6.685597e+00
3.200000e-07	-4.832592e-06	-1.482331e-10	-5.183824e+01	-6.399930e+00
3.300000e-07	-4.802633e-06	-7.800520e-11	-5.151688e+01	-6.198686e+00
3.400000e-07	-4.771886e-06	-8.256295e-11	-5.118706e+01	-6.075073e+00
3.500000e-07	-4.740369e-06	-8.143216e-11	-5.084898e+01	-6.019597e+00
3.600000e-07	-4.708179e-06	-2.301935e-10	-5.050369e+01	-6.020729e+00
3.700000e-07	-4.675240e-06	-1.998335e-10	-5.015036e+01	-6.065665e+00
3.800000e-07	-4.641272e-06	3.323017e-11	-4.978598e+01	-6.141111e+00
3.900000e-07	-4.606214e-06	-6.679444e-11	-4.940993e+01	-6.234056e+00
4.000000e-07	-4.570248e-06	-3.103062e-10	-4.902413e+01	-6.332479e+00
4.100000e-07	-4.533559e-06	-1.609510e-10	-4.863057e+01	-6.425957e+00
4.200000e-07	-4.496136e-06	2.350984e-11	-4.822914e+01	-6.506129e+00
4.300000e-07	-4.457859e-06	-1.221445e-10	-4.781855e+01	-6.567003e+00
4.400000e-07	-4.418778e-06	-2.251732e-10	-4.739934e+01	-6.605087e+00
4.500000e-07	-4.379044e-06	-1.173504e-10	-4.697313e+01	-6.619355e+00
4.600000e-07	-4.338764e-06	-7.833600e-11	-4.654105e+01	-6.611046e+00
4.700000e-07	-4.297790e-06	-1.307146e-10	-4.610153e+01	-6.583334e+00
4.800000e-07	-4.255763e-06	-1.358104e-10	-4.565071e+01	-6.540880e+00
4.900000e-07	-4.212676e-06	-1.415015e-10	-4.518853e+01	-6.489324e+00
5.000000e-07	-4.168834e-06	-1.389764e-10	-4.471824e+01	-6.434740e+00
5.100000e-07	-4.124352e-06	-1.078247e-10	-4.424110e+01	-6.383103e+00
5.200000e-07	-4.079256e-06	-1.111582e-10	-4.375736e+01	-6.339797e+00
5.300000e-07	-4.033468e-06	-1.451993e-10	-4.326620e+01	-6.309211e+00
5.400000e-07	-3.986895e-06	-1.499683e-10	-4.276662e+01	-6.294427e+00
5.500000e-07	-3.939633e-06	-1.068568e-10	-4.225965e+01	-6.297037e+00
5.600000e-07	-3.891788e-06	-8.822540e-11	-4.174642e+01	-6.317084e+00
5.700000e-07	-3.843326e-06	-1.378559e-10	-4.122658e+01	-6.353123e+00
5.800000e-07	-3.794026e-06	-1.647083e-10	-4.069775e+01	-6.402405e+00
5.900000e-07	-3.743709e-06	-1.104532e-10	-4.015801e+01	-6.461139e+00
6.000000e-07	-3.692443e-06	-8.249192e-11	-3.960809e+01	-6.524841e+00
6.100000e-07	-3.640337e-06	-1.479173e-10	-3.904916e+01	-6.588699e+00
6.200000e-07	-3.587512e-06	-1.659331e-10	-3.848252e+01	-6.647966e+00
6.300000e-07	-3.534082e-06	-9.784591e-11	-3.790938e+01	-6.698319e+00
6.400000e-07	-3.480037e-06	-9.508069e-11	-3.732965e+01	-6.736170e+00
6.500000e-07	-3.425344e-06	-1.438647e-10	-3.674297e+01	-6.758906e+00
6.600000e-07	-3.370069e-06	-1.383516e-10	-3.615005e+01	-6.765047e+00
6.700000e-07	-3.314315e-06	-1.111981e-10	-3.555199e+01	-6.754302e+00
6.800000e-07	-3.258075e-06	-1.111336e-10	-3.494872e+01	-6.727532e+00
6.900000e-07	-3.201224e-06	-1.200511e-10	-3.433888e+01	-6.686630e+00
7.000000e-07	-3.143566e-06	-1.254934e-10	-3.372040e+01	-6.634314e+00
7.100000e-07	-3.085022e-06	-1.339045e-10	-3.309241e+01	-6.573882e+00
7.200000e-07	-3.025766e-06	-1.199768e-10	-3.245678e+01	-6.508913e+00
7.300000e-07	-2.966038e-06	-9.575620e-11	-3.181609e+01	-6.442978e+00
7.400000e-07	-2.905922e-06	-1.135157e-10	-3.117124e+01	-6.379352e+00
7.500000e-07	-2.845369e-06	-1.369006e-10	-3.052170e+01	-6.320771e+00
7.600000e-07	-2.784379e-06	-1.152143e-10	-2.986748e+01	-6.269241e+00
7.700000e-07	-2.722953e-06	-8.654839e-11	-2.920857e+01	-6.225909e+00
7.800000e-07	-2.661078e-06	-1.030757e-10	-2.854485e+01	-6.191020e+00
7.900000e-07	-2.598689e-06	-1.354532e-10	-2.787561e+01	-6.163941e+00
8.000000e-07	-2.535797e-06	-1.210649e-10	-2.720099e+01	-6.143254e+00
8.100000e-07	-2.472497e-06	-8.853107e-11	-2.652198e+01	-6.126914e+00
8.200000e-07	-2.408857e-06	-9.559945e-11	-2.583932e+01	-6.112445e+00
8.300000e-07	-2.344913e-06	-1.212639e-10	-2.515341e+01	-6.097166e+00
8.400000e-07	-2.280662e-06	-1.177237e-10	-2.446420e+01	-6.078420e+00
8.500000e-07	-2.216162e-06	-9.271263e-11	-2.377232e+01	-6.053789e+00
8.600000e-07	-2.151324e-06	-8.730775e-11	-2.307682e+01	-6.021282e+00
8.700000e-07	-2.086004e-06	-9.985883e-11	-2.237614e+01	-5.979468e+00
8.800000e-07	-2.020115e-06	-1.069166e-10	-2.166936e+01	-5.927563e+00
8.900000e-07	-1.953615e-06	-1.044395e-10	-2.095604e+01	-5.865450e+00
9.000000e-07	-1.886651e-06	-9.202079e-11	-2.023773e+01	-5.793638e+00
9.100000e-07	-1.819380e-06	-8.684324e-11	-1.951612e+01	-5.713167e+00
9.200000e-07	-1.751855e-06	-9.851783e-11	-1.879179e+01	-5.625465e+00
9.300000e-07	-1.684097e-06	-1.026685e-10	-1.806497e+01	-5.532173e+00
9.400000e-07	-1.616153e-06	-8.569646e-11	-1.733614e+01	-5.434954e+00
9.500000e-07	-1.548037e-06	-6.832537e-11	-1.660548e+01	-5.335298e+00
9.600000e-07	-1.479703e-06	-7.965726e-11	-1.587248e+01	-5.234348e+00
9.700000e-07	-1.411106e-06	-9.214525e-11	-1.513665e+01	-5.132756e+00
9.800000e-07	-1.342235e-06	-8.077681e-11	-1.439789e+01	-5.030579e+00
9.900000e-07	-1.273149e-06	-6.938362e-11	-1.365681e+01	-4.927226e+00
1.000000e-06	-1.203872e-06	-7.234426e-11	-1.291369e+01	-4.821466e+00
1.010000e-06	-1.134361e-06	-7.962214e-11	-1.216806e+01	-4.711480e+00
1.020000e-06	-1.064575e-06	-7.443126e-11	-1.141948e+01	-4.594968e+00
1.030000e-06	-9.945720e-07	-6.349815e-11	-1.066857e+01	-4.469289e+00
1.040000e-06	-9.244299e-07	-5.819750e-11	-9.916173e+00	-4.331627e+00
1.050000e-06	-8.541048e-07	-5.778657e-11	-9.161810e+00	-4.179179e+00
1.060000e-06	-7.835740e-07	-6.069192e-11	-8.405240e+00	-4.009321e+00
1.070000e-06	-7.128681e-07	-5.819819e-11	-7.646792e+00	-3.819776e+00
1.080000e-06	-6.420579e-07	-5.079062e-11	-6.887225e+00	-3.608741e+00
1.090000e-06	-5.711799e-07	-4.619588e-11	-6.126932e+00	-3.374975e+00
1.100000e-06	-5.001532e-07	-4.456512e-11	-5.365043e+00	-3.117850e+00
1.110000e-06	-4.289795e-07	-4.267458e-11	-4.601576e+00	-2.837342e+00
1.120000e-06	-3.577062e-07	-3.496170e-11	-3.837043e+00	-2.533993e+00
1.130000e-06	-2.863854e-07	-2.772548e-11	-3.071998e+00	-2.208819e+00
1.140000e-06	-2.150284e-07	-2.631133e-11	-2.306566e+00	-1.863196e+00
1.150000e-06	-1.436014e-07	-2.471468e-11	-1.540384e+00	-1.498732e+00
1.160000e-06	-7.217221e-08	-1.793730e-11	-7.741768e-01	-1.117122e+00
1.170000e-06	-7.653614e-10	-8.860649e-12	-8.209878e-03	-7.200246e-01
1.180000e-06	7.058057e-08	-4.258015e-12	7.571036e-01	-3.089463e-01
1.190000e-06	1.419019e-07	-1.427570e-12	1.522153e+00	1.148357e-01
1.200000e-06	2.131785e-07	5.462380e-12	2.286723e+00	5.503180e-01
1.210000e-06	2.843870e-07	1.239178e-11	3.050562e+00	9.967744e-01
1.220000e-06	3.555603e-07	1.987393e-11	3.814024e+00	1.453720e+00
1.230000e-06	4.266349e-07	2.798324e-11	4.576427e+00	1.920839e+00
1.240000e-06	4.975918e-07	3.405678e-11	5.337567e+00	2.397886e+00
1.250000e-06	5.684296e-07	4.238886e-11	6.097430e+00	2.884569e+00
1.260000e-06	6.391701e-07	5.107025e-11	6.856248e+00	3.380426e+00
1.270000e-06	7.097545e-07	6.205614e-11	7.613393e+00	3.884710e+00
1.280000e-06	7.801381e-07	6.962059e-11	8.368384e+00	4.396293e+00
1.290000e-06	8.504069e-07	7.545034e-11	9.122143e+00	4.913604e+00
1.300000e-06	9.205195e-07	8.353267e-11	9.874227e+00	5.434598e+00
1.310000e-06	9.904366e-07	9.215089e-11	1.062421e+01	5.956772e+00
1.320000e-06	1.060213e-06	1.026555e-10	1.137269e+01	6.477227e+00
1.330000e-06	1.129851e-06	1.103792e-10	1.211969e+01	6.992771e+00
1.340000e-06	1.199317e-06	1.174021e-10	1.286483e+01	7.500049e+00
1.350000e-06	1.268520e-06	1.229759e-10	1.360716e+01	7.995708e+00
1.360000e-06	1.337511e-06	1.297977e-10	1.434721e+01	8.476567e+00
1.370000e-06	1.406298e-06	1.368840e-10	1.508507e+01	8.939784e+00
1.380000e-06	1.474806e-06	1.426033e-10	1.581995e+01	9.383012e+00
1.390000e-06	1.543141e-06	1.472820e-10	1.655296e+01	9.804524e+00
1.400000e-06	1.611292e-06	1.529197e-10	1.728400e+01	1.020329e+01
1.410000e-06	1.679227e-06	1.611918e-10	1.801272e+01	1.057903e+01
1.420000e-06	1.746952e-06	1.697855e-10	1.873920e+01	1.093217e+01
1.430000e-06	1.814459e-06	1.750168e-10	1.946334e+01	1.126380e+01
1.440000e-06	1.881636e-06	1.799294e-10	2.018393e+01	1.157555e+01
1.450000e-06	1.948391e-06	1.857074e-10	2.089999e+01	1.186941e+01
1.460000e-06	2.014715e-06	1.907576e-10	2.161144e+01	1.214759e+01
1.470000e-06	2.080540e-06	1.945200e-10	2.231753e+01	1.241231e+01
1.480000e-06	2.145827e-06	1.970333e-10	2.301785e+01	1.266559e+01
1.490000e-06	2.210560e-06	2.014404e-10	2.371223e+01	1.290910e+01
1.500000e-06	2.274841e-06	2.056441e-10	2.440176e+01	1.314402e+01
1.510000e-06	2.338810e-06	2.118931e-10	2.508794e+01	1.337093e+01
1.520000e-06	2.402473e-06	2.181206e-10	2.577084e+01	1.358978e+01
1.530000e-06	2.465797e-06	2.192871e-10	2.645011e+01	1.379990e+01
1.540000e-06	2.528750e-06	2.206180e-10	2.712539e+01	1.400011e+01
1.550000e-06	2.591294e-06	2.252856e-10	2.779629e+01	1.418878e+01
1.560000e-06	2.653434e-06	2.286103e-10	2.846285e+01	1.436404e+01
1.570000e-06	2.715074e-06	2.274132e-10	2.912405e+01	1.452399e+01
1.580000e-06	2.776210e-06	2.254987e-10	2.977984e+01	1.466687e+01
1.590000e-06	2.836925e-06	2.289258e-10	3.043112e+01	1.479128e+01
1.600000e-06	2.897234e-06	2.345660e-10	3.107805e+01	1.489636e+01
1.610000e-06	2.957141e-06	2.377725e-10	3.172065e+01	1.498194e+01
1.620000e-06	3.016594e-06	2.377251e-10	3.235840e+01	1.504863e+01
1.630000e-06	3.075378e-06	2.368846e-10	3.298896e+01	1.509785e+01
1.640000e-06	3.133356e-06	2.391663e-10	3.361088e+01	1.513178e+01
1.650000e-06	3.190524e-06	2.409167e-10	3.422411e+01	1.515331e+01
1.660000e-06	3.247019e-06	2.393817e-10	3.483012e+01	1.516582e+01
1.670000e-06	3.303046e-06	2.372297e-10	3.543111e+01	1.517307e+01
1.680000e-06	3.358590e-06	2.395422e-10	3.602691e+01	1.517886e+01
1.690000e-06	3.413589e-06	2.450621e-10	3.661688e+01	1.518688e+01
1.700000e-06	3.468017e-06	2.466980e-10	3.720072e+01	1.520041e+01
1.710000e-06	3.521844e-06	2.450686e-10	3.777811e+01	1.522210e+01
1.720000e-06	3.575098e-06	2.446161e-10	3.834935e+01	1.525382e+01
1.730000e-06	3.627734e-06	2.468837e-10	3.891397e+01	1.529653e+01
1.740000e-06	3.679647e-06	2.480652e-10	3.947084e+01	1.535020e+01
1.750000e-06	3.730761e-06	2.461367e-10	4.001913e+01	1.541384e+01
1.760000e-06	3.780963e-06	2.451436e-10	4.055762e+01	1.548559e+01
1.770000e-06	3.830265e-06	2.464677e-10	4.108648e+01	1.556287e+01
1.780000e-06	3.878755e-06	2.477621e-10	4.160662e+01	1.564258e+01
1.790000e-06	3.926576e-06	2.479898e-10	4.211959e+01	1.572134e+01
1.800000e-06	3.973759e-06	2.481995e-10	4.262571e+01	1.579577e+01
1.810000e-06	4.020291e-06	2.489309e-10	4.312485e+01	1.586272e+01
1.820000e-06	4.066154e-06	2.496402e-10	4.361681e+01	1.591958e+01
1.830000e-06	4.111303e-06	2.495881e-10	4.410112e+01	1.596440e+01
1.840000e-06	4.155842e-06	2.497598e-10	4.457887e+01	1.599612e+01
1.850000e-06	4.199817e-06	2.503221e-10	4.505059e+01	1.601457e+01
1.860000e-06	4.243121e-06	2.506450e-10	4.551510e+01	1.602053e+01
1.870000e-06	4.285522e-06	2.504647e-10	4.596993e+01	1.601566e+01
1.880000e-06	4.326910e-06	2.501386e-10	4.641389e+01	1.600233e+01
1.890000e-06	4.367402e-06	2.516423e-10	4.684824e+01	1.598344e+01
1.900000e-06	4.407138e-06	2.523341e-10	4.727449e+01	1.596219e+01
1.910000e-06	4.446175e-06	2.504156e-10	4.769322e+01	1.594179e+01
1.920000e-06	4.484464e-06	2.500240e-10	4.810394e+01	1.592523e+01
1.930000e-06	4.521945e-06	2.516147e-10	4.850599e+01	1.591500e+01
1.940000e-06	4.558739e-06	2.527904e-10	4.890068e+01	1.591294e+01
1.950000e-06	4.594894e-06	2.519223e-10	4.928850e+01	1.592001e+01
1.960000e-06	4.630259e-06	2.505020e-10	4.966786e+01	1.593632e+01
1.970000e-06	4.664722e-06	2.498802e-10	5.003753e+01	1.596103e+01
1.980000e-06	4.698199e-06	2.493824e-10	5.039663e+01	1.599250e+01
1.990000e-06	4.730736e-06	2.491155e-10	5.074565e+01	1.602839e+01
2.000000e-06	4.762417e-06	2.485624e-10	5.108548e+01	1.606591e+01
2.010000e-06	4.793301e-06	2.500073e-10	5.141677e+01	1.610205e+01
2.020000e-06	4.823414e-06	2.525546e-10	5.173979e+01	1.613386e+01
2.030000e-06	4.852705e-06	2.544457e-10	5.205399e+01	1.615873e+01
2.040000e-06	4.881242e-06	2.552589e-10	5.236010e+01	1.617460e+01
2.050000e-06	4.909059e-06	2.548157e-10	5.265849e+01	1.618024e+01
2.060000e-06	4.936063e-06	2.547846e-10	5.294815e+01	1.617531e+01
2.070000e-06	4.962029e-06	2.552145e-10	5.322669e+01	1.616046e+01
2.080000e-06	4.986893e-06	2.552009e-10	5.349339e+01	1.613730e+01
2.090000e-06	5.010799e-06	2.547780e-10	5.374983e+01	1.610830e+01
2.100000e-06	5.033855e-06	2.554779e-10	5.399715e+01	1.607657e+01
2.110000e-06	5.056136e-06	2.575753e-10	5.423616e+01	1.604566e+01
2.120000e-06	5.077584e-06	2.565844e-10	5.446622e+01	1.601921e+01
2.130000e-06	5.098274e-06	2.541218e-10	5.468816e+01	1.600068e+01
2.140000e-06	5.118259e-06	2.533542e-10	5.490254e+01	1.599300e+01
2.150000e-06	5.137434e-06	2.542318e-10	5.510822e+01	1.599832e+01
2.160000e-06	5.155726e-06	2.554185e-10	5.530444e+01	1.601778e+01
2.170000e-06	5.173133e-06	2.548384e-10	5.549116e+01	1.605133e+01
2.180000e-06	5.189569e-06	2.556269e-10	5.566746e+01	1.609775e+01
2.190000e-06	5.204982e-06	2.581209e-10	5.583279e+01	1.615462e+01
2.200000e-06	5.219418e-06	2.614771e-10	5.598765e+01	1.621852e+01
2.210000e-06	5.232857e-06	2.633836e-10	5.613180e+01	1.628526e+01
2.220000e-06	5.245359e-06	2.643788e-10	5.626591e+01	1.635020e+01
2.230000e-06	5.256886e-06	2.649392e-10	5.638956e+01	1.640863e+01
2.240000e-06	5.267224e-06	2.650606e-10	5.650045e+01	1.645613e+01
2.250000e-06	5.276389e-06	2.649288e-10	5.659876e+01	1.648904e+01
2.260000e-06	5.284569e-06	2.636715e-10	5.668650e+01	1.650475e+01
2.270000e-06	5.291821e-06	2.631215e-10	5.676429e+01	1.650201e+01
2.280000e-06	5.298173e-06	2.631959e-10	5.683243e+01	1.648111e+01
2.290000e-06	5.303660e-06	2.645466e-10	5.689129e+01	1.644395e+01
2.300000e-06	5.308328e-06	2.657697e-10	5.694137e+01	1.639400e+01
2.310000e-06	5.312229e-06	2.662840e-10	5.698321e+01	1.633609e+01
2.320000e-06	5.315158e-06	2.657587e-10	5.701462e+01	1.627608e+01
2.330000e-06	5.316926e-06	2.646298e-10	5.703360e+01	1.622047e+01
2.340000e-06	5.317663e-06	2.643397e-10	5.704150e+01	1.617584e+01
2.350000e-06	5.317448e-06	2.655300e-10	5.703920e+01	1.614834e+01
2.360000e-06	5.316353e-06	2.667031e-10	5.702745e+01	1.614311e+01
2.370000e-06	5.314431e-06	2.710972e-10	5.700683e+01	1.616370e+01
2.380000e-06	5.311691e-06	2.747317e-10	5.697744e+01	1.621168e+01
2.390000e-06	5.308259e-06	2.735936e-10	5.694063e+01	1.628623e+01
2.400000e-06	5.304027e-06	2.700057e-10	5.689522e+01	1.638393e+01
2.410000e-06	5.298861e-06	2.631497e-10	5.683981e+01	1.649876e+01
2.420000e-06	5.292696e-06	2.454557e-10	5.677368e+01	1.662217e+01
2.430000e-06	5.285511e-06	2.347221e-10	5.669662e+01	1.674343e+01
2.440000e-06	5.277314e-06	3.323824e-10	5.660868e+01	1.685010e+01
2.450000e-06	5.267951e-06	3.942077e-10	5.650825e+01	1.692861e+01
2.460000e-06	5.257413e-06	3.136463e-10	5.639520e+01	1.696505e+01
2.470000e-06	5.245986e-06	9.209641e-11	5.627264e+01	1.694590e+01
2.480000e-06	5.233955e-06	1.452057e-10	5.614358e+01	1.685888e+01
2.490000e-06	5.221130e-06	4.636586e-10	5.600601e+01	1.669372e+01
2.500000e-06	5.207149e-06	3.645847e-10	5.585603e+01	1.644284e+01
2.510000e-06	5.191999e-06	1.301454e-10	5.569353e+01	1.610193e+01
2.520000e-06	5.175927e-06	2.587639e-10	5.552112e+01	1.567036e+01
2.530000e-06	5.158999e-06	1.583823e-10	5.533955e+01	1.515135e+01
2.540000e-06	5.141224e-06	1.641546e-10	5.514888e+01	1.455198e+01
2.550000e-06	5.122697e-06	5.369653e-10	5.495014e+01	1.388296e+01
2.560000e-06	5.103475e-06	2.298460e-10	5.474395e+01	1.315821e+01
2.570000e-06	5.083472e-06	-5.603937e-11	5.452938e+01	1.239419e+01
2.580000e-06	5.062408e-06	3.693172e-10	5.430343e+01	1.160920e+01
2.590000e-06	5.040192e-06	3.761901e-10	5.406513e+01	1.082246e+01
2.600000e-06	5.016967e-06	-1.004540e-10	5.381599e+01	1.005320e+01
2.610000e-06	4.992779e-06	7.723999e-11	5.355654e+01	9.319765e+00
2.620000e-06	4.967716e-06	2.612789e-10	5.328769e+01	8.638697e+00
2.630000e-06	4.941932e-06	5.623670e-11	5.301110e+01	8.024015e+00
2.640000e-06	4.915370e-06	1.040244e-10	5.272619e+01	7.486592e+00
2.650000e-06	4.888007e-06	5.178375e-11	5.243267e+01	7.033725e+00
2.660000e-06	4.859840e-06	4.425007e-11	5.213052e+01	6.668922e+00
2.670000e-06	4.830646e-06	1.090362e-10	5.181737e+01	6.391890e+00
2.680000e-06	4.800314e-06	6.086090e-11	5.149200e+01	6.198740e+00
2.690000e-06	4.768994e-06	2.110261e-10	5.115604e+01	6.082384e+00
2.700000e-06	4.736874e-06	3.230382e-11	5.081149e+01	6.033090e+00
2.710000e-06	4.703932e-06	-1.359347e-10	5.045813e+01	6.039169e+00
2.720000e-06	4.670098e-06	2.478676e-10	5.009520e+01	6.087732e+00
2.730000e-06	4.635462e-06	1.937873e-10	4.972366e+01	6.165478e+00
2.740000e-06	4.600164e-06	-1.223169e-10	4.934504e+01	6.259465e+00
2.750000e-06	4.564127e-06	1.442708e-11	4.895847e+01	6.357807e+00
2.760000e-06	4.527229e-06	1.945689e-10	4.856267e+01	6.450270e+00
2.770000e-06	4.489411e-06	1.194521e-10	4.815701e+01	6.528717e+00
2.780000e-06	4.450626e-06	-4.975954e-11	4.774097e+01	6.587403e+00
2.790000e-06	4.411035e-06	5.139687e-11	4.731629e+01	6.623088e+00
2.800000e-06	4.370710e-06	1.599381e-10	4.688373e+01	6.634984e+00
2.810000e-06	4.329652e-06	2.050142e-11	4.644330e+01	6.624540e+00
2.820000e-06	4.287850e-06	3.835031e-11	4.599490e+01	6.595099e+00
2.830000e-06	4.245334e-06	9.365449e-11	4.553885e+01	6.551445e+00
2.840000e-06	4.202215e-06	7.072445e-11	4.507632e+01	6.499286e+00
2.850000e-06	4.158511e-06	5.469803e-11	4.460751e+01	6.444710e+00
2.860000e-06	4.114243e-06	6.398991e-11	4.413265e+01	6.393653e+00
2.870000e-06	4.069355e-06	1.148401e-10	4.365115e+01	6.351417e+00
2.880000e-06	4.023759e-06	4.432929e-11	4.316205e+01	6.322272e+00
2.890000e-06	3.977480e-06	4.824434e-11	4.266562e+01	6.309157e+00
2.900000e-06	3.930492e-06	1.290607e-10	4.216160e+01	6.313511e+00
2.910000e-06	3.882761e-06	6.842504e-11	4.164960e+01	6.335221e+00
2.920000e-06	3.834264e-06	3.073883e-11	4.112938e+01	6.372704e+00
2.930000e-06	3.785012e-06	7.964111e-11	4.060106e+01	6.423091e+00
2.940000e-06	3.735018e-06	1.281760e-10	4.006478e+01	6.482509e+00
2.950000e-06	3.684326e-06	5.833362e-11	3.952102e+01	6.546420e+00
