# Temperatura_=_20.0
# Concentracion g/m^3_=_9000.0
# C_Vs_to_Am_M_A/Vsm_=_65563218390.804596
# pendiente_HvsI_1/m_=_3716.3
# ordenada_HvsI_A/m_=_1297.0
# frecuencia_Hz_=_212869.12146630193

Tiempo_(s)	Campo_(V.s)	Magnetizacion_(V.s)	Campo_(kA/m)	Magnetizacion_(A/m)
0.000000e+00	-5.300119e-06	-4.057550e-09	-5.698250e+01	-2.664634e+02
1.000000e-08	-5.299763e-06	-4.058602e-09	-5.697866e+01	-2.664499e+02
2.000000e-08	-5.298309e-06	-4.057024e-09	-5.696304e+01	-2.664296e+02
3.000000e-08	-5.295683e-06	-4.054404e-09	-5.693480e+01	-2.664019e+02
4.000000e-08	-5.292182e-06	-4.053937e-09	-5.689717e+01	-2.663655e+02
5.000000e-08	-5.287932e-06	-4.054628e-09	-5.685147e+01	-2.663186e+02
6.000000e-08	-5.282843e-06	-4.053288e-09	-5.679676e+01	-2.662588e+02
7.000000e-08	-5.276846e-06	-4.049480e-09	-5.673228e+01	-2.661835e+02
8.000000e-08	-5.269985e-06	-4.054310e-09	-5.665852e+01	-2.660901e+02
9.000000e-08	-5.262317e-06	-4.074855e-09	-5.657608e+01	-2.659758e+02
1.000000e-07	-5.253535e-06	-4.067706e-09	-5.648166e+01	-2.658382e+02
1.100000e-07	-5.243366e-06	-4.054442e-09	-5.637234e+01	-2.656754e+02
1.200000e-07	-5.232049e-06	-4.020193e-09	-5.625066e+01	-2.654859e+02
1.300000e-07	-5.219895e-06	-4.061700e-09	-5.611999e+01	-2.652690e+02
1.400000e-07	-5.206897e-06	-4.078075e-09	-5.598025e+01	-2.650247e+02
1.500000e-07	-5.193012e-06	-3.990293e-09	-5.583097e+01	-2.647538e+02
1.600000e-07	-5.178272e-06	-4.041491e-09	-5.567250e+01	-2.644575e+02
1.700000e-07	-5.162369e-06	-4.039879e-09	-5.550152e+01	-2.641379e+02
1.800000e-07	-5.145236e-06	-3.980453e-09	-5.531732e+01	-2.637972e+02
1.900000e-07	-5.127341e-06	-4.054365e-09	-5.512493e+01	-2.634382e+02
2.000000e-07	-5.108873e-06	-4.086792e-09	-5.492637e+01	-2.630636e+02
2.100000e-07	-5.089522e-06	-3.938528e-09	-5.471833e+01	-2.626759e+02
2.200000e-07	-5.069180e-06	-3.996867e-09	-5.449963e+01	-2.622774e+02
2.300000e-07	-5.048107e-06	-4.107643e-09	-5.427307e+01	-2.618702e+02
2.400000e-07	-5.026332e-06	-3.951215e-09	-5.403896e+01	-2.614555e+02
2.500000e-07	-5.003652e-06	-3.929499e-09	-5.379513e+01	-2.610339e+02
2.600000e-07	-4.980086e-06	-3.990660e-09	-5.354177e+01	-2.606056e+02
2.700000e-07	-4.955746e-06	-3.963709e-09	-5.328008e+01	-2.601700e+02
2.800000e-07	-4.930483e-06	-3.951371e-09	-5.300847e+01	-2.597259e+02
2.900000e-07	-4.904097e-06	-3.954951e-09	-5.272479e+01	-2.592717e+02
3.000000e-07	-4.876654e-06	-3.921414e-09	-5.242974e+01	-2.588053e+02
3.100000e-07	-4.848333e-06	-3.942159e-09	-5.212526e+01	-2.583247e+02
3.200000e-07	-4.819225e-06	-3.932020e-09	-5.181232e+01	-2.578277e+02
3.300000e-07	-4.789239e-06	-3.924567e-09	-5.148994e+01	-2.573122e+02
3.400000e-07	-4.758444e-06	-3.948951e-09	-5.115885e+01	-2.567764e+02
3.500000e-07	-4.727046e-06	-3.861132e-09	-5.082129e+01	-2.562190e+02
3.600000e-07	-4.694859e-06	-3.868324e-09	-5.047524e+01	-2.556388e+02
3.700000e-07	-4.661787e-06	-3.960068e-09	-5.011967e+01	-2.550355e+02
3.800000e-07	-4.627765e-06	-3.887580e-09	-4.975390e+01	-2.544090e+02
3.900000e-07	-4.592688e-06	-3.807356e-09	-4.937678e+01	-2.537598e+02
4.000000e-07	-4.556707e-06	-3.885099e-09	-4.898994e+01	-2.530885e+02
4.100000e-07	-4.520017e-06	-3.895884e-09	-4.859549e+01	-2.523962e+02
4.200000e-07	-4.482625e-06	-3.814577e-09	-4.819347e+01	-2.516840e+02
4.300000e-07	-4.444296e-06	-3.813075e-09	-4.778139e+01	-2.509529e+02
4.400000e-07	-4.405167e-06	-3.842903e-09	-4.736071e+01	-2.502041e+02
4.500000e-07	-4.365582e-06	-3.802713e-09	-4.693512e+01	-2.494381e+02
4.600000e-07	-4.325430e-06	-3.776537e-09	-4.650344e+01	-2.486553e+02
4.700000e-07	-4.284319e-06	-3.800933e-09	-4.606145e+01	-2.478559e+02
4.800000e-07	-4.242094e-06	-3.784013e-09	-4.560748e+01	-2.470394e+02
4.900000e-07	-4.198978e-06	-3.746275e-09	-4.514393e+01	-2.462051e+02
5.000000e-07	-4.155215e-06	-3.737381e-09	-4.467343e+01	-2.453519e+02
5.100000e-07	-4.110824e-06	-3.746335e-09	-4.419617e+01	-2.444783e+02
5.200000e-07	-4.065756e-06	-3.732019e-09	-4.371165e+01	-2.435828e+02
5.300000e-07	-4.019940e-06	-3.690991e-09	-4.321907e+01	-2.426638e+02
5.400000e-07	-3.973402e-06	-3.684736e-09	-4.271873e+01	-2.417196e+02
5.500000e-07	-3.926280e-06	-3.688119e-09	-4.221211e+01	-2.407488e+02
5.600000e-07	-3.878581e-06	-3.658188e-09	-4.169929e+01	-2.397500e+02
5.700000e-07	-3.830156e-06	-3.637039e-09	-4.117867e+01	-2.387222e+02
5.800000e-07	-3.780712e-06	-3.636393e-09	-4.064709e+01	-2.376647e+02
5.900000e-07	-3.730260e-06	-3.615701e-09	-4.010467e+01	-2.365769e+02
6.000000e-07	-3.679011e-06	-3.576401e-09	-3.955368e+01	-2.354587e+02
6.100000e-07	-3.626941e-06	-3.574006e-09	-3.899387e+01	-2.343099e+02
6.200000e-07	-3.574142e-06	-3.574390e-09	-3.842621e+01	-2.331308e+02
6.300000e-07	-3.520717e-06	-3.528954e-09	-3.785183e+01	-2.319213e+02
6.400000e-07	-3.466638e-06	-3.500706e-09	-3.727043e+01	-2.306815e+02
6.500000e-07	-3.411985e-06	-3.504896e-09	-3.668284e+01	-2.294113e+02
6.600000e-07	-3.356832e-06	-3.490220e-09	-3.608988e+01	-2.281101e+02
6.700000e-07	-3.301233e-06	-3.454964e-09	-3.549213e+01	-2.267774e+02
6.800000e-07	-3.245156e-06	-3.433141e-09	-3.488923e+01	-2.254121e+02
6.900000e-07	-3.188369e-06	-3.423062e-09	-3.427871e+01	-2.240128e+02
7.000000e-07	-3.130676e-06	-3.397160e-09	-3.365844e+01	-2.225778e+02
7.100000e-07	-3.072117e-06	-3.371228e-09	-3.302886e+01	-2.211053e+02
7.200000e-07	-3.013008e-06	-3.351515e-09	-3.239337e+01	-2.195930e+02
7.300000e-07	-2.953486e-06	-3.320138e-09	-3.175343e+01	-2.180389e+02
7.400000e-07	-2.893503e-06	-3.290306e-09	-3.110855e+01	-2.164409e+02
7.500000e-07	-2.833058e-06	-3.273038e-09	-3.045869e+01	-2.147968e+02
7.600000e-07	-2.772085e-06	-3.253038e-09	-2.980317e+01	-2.131050e+02
7.700000e-07	-2.710666e-06	-3.214365e-09	-2.914284e+01	-2.113639e+02
7.800000e-07	-2.648848e-06	-3.177577e-09	-2.847822e+01	-2.095723e+02
7.900000e-07	-2.586566e-06	-3.163080e-09	-2.780862e+01	-2.077294e+02
8.000000e-07	-2.523820e-06	-3.141038e-09	-2.713402e+01	-2.058345e+02
8.100000e-07	-2.460717e-06	-3.100989e-09	-2.645559e+01	-2.038874e+02
8.200000e-07	-2.397294e-06	-3.066293e-09	-2.577372e+01	-2.018877e+02
8.300000e-07	-2.333496e-06	-3.041776e-09	-2.508781e+01	-1.998352e+02
8.400000e-07	-2.269386e-06	-3.011669e-09	-2.439856e+01	-1.977295e+02
8.500000e-07	-2.204997e-06	-2.970545e-09	-2.370630e+01	-1.955700e+02
8.600000e-07	-2.140232e-06	-2.934847e-09	-2.301001e+01	-1.933556e+02
8.700000e-07	-2.074941e-06	-2.902432e-09	-2.230805e+01	-1.910847e+02
8.800000e-07	-2.009060e-06	-2.865598e-09	-2.159975e+01	-1.887550e+02
8.900000e-07	-1.942624e-06	-2.832017e-09	-2.088548e+01	-1.863637e+02
9.000000e-07	-1.875760e-06	-2.794632e-09	-2.016662e+01	-1.839072e+02
9.100000e-07	-1.808681e-06	-2.749728e-09	-1.944544e+01	-1.813811e+02
9.200000e-07	-1.741396e-06	-2.707364e-09	-1.872205e+01	-1.787807e+02
9.300000e-07	-1.673829e-06	-2.670125e-09	-1.799562e+01	-1.761004e+02
9.400000e-07	-1.606058e-06	-2.626945e-09	-1.726701e+01	-1.733344e+02
9.500000e-07	-1.538188e-06	-2.572017e-09	-1.653732e+01	-1.704765e+02
9.600000e-07	-1.470123e-06	-2.523858e-09	-1.580554e+01	-1.675201e+02
9.700000e-07	-1.401737e-06	-2.482164e-09	-1.507032e+01	-1.644588e+02
9.800000e-07	-1.333087e-06	-2.434502e-09	-1.433225e+01	-1.612859e+02
9.900000e-07	-1.264236e-06	-2.383575e-09	-1.359202e+01	-1.579948e+02
1.000000e-06	-1.195149e-06	-2.332285e-09	-1.284926e+01	-1.545785e+02
1.010000e-06	-1.125815e-06	-2.278921e-09	-1.210383e+01	-1.510304e+02
1.020000e-06	-1.056205e-06	-2.218401e-09	-1.135544e+01	-1.473434e+02
1.030000e-06	-9.863577e-07	-2.157253e-09	-1.060450e+01	-1.435102e+02
1.040000e-06	-9.163632e-07	-2.096901e-09	-9.851979e+00	-1.395228e+02
1.050000e-06	-8.462010e-07	-2.031473e-09	-9.097653e+00	-1.353730e+02
1.060000e-06	-7.758689e-07	-1.964411e-09	-8.341500e+00	-1.310516e+02
1.070000e-06	-7.053731e-07	-1.896275e-09	-7.583587e+00	-1.265486e+02
1.080000e-06	-6.347558e-07	-1.826081e-09	-6.824369e+00	-1.218534e+02
1.090000e-06	-5.640109e-07	-1.750660e-09	-6.063778e+00	-1.169544e+02
1.100000e-06	-4.931629e-07	-1.670474e-09	-5.302080e+00	-1.118394e+02
1.110000e-06	-4.222437e-07	-1.589414e-09	-4.539615e+00	-1.064958e+02
1.120000e-06	-3.511967e-07	-1.504282e-09	-3.775776e+00	-1.009111e+02
1.130000e-06	-2.800966e-07	-1.416111e-09	-3.011367e+00	-9.507303e+01
1.140000e-06	-2.090409e-07	-1.323720e-09	-2.247434e+00	-8.897027e+01
1.150000e-06	-1.379594e-07	-1.224785e-09	-1.483226e+00	-8.259310e+01
1.160000e-06	-6.683383e-08	-1.123565e-09	-7.185421e-01	-7.593393e+01
1.170000e-06	4.304421e-09	-1.019441e-09	4.627758e-02	-6.898806e+01
1.180000e-06	7.542439e-08	-9.117009e-10	8.109006e-01	-6.175428e+01
1.190000e-06	1.464601e-07	-7.986510e-10	1.574618e+00	-5.423548e+01
1.200000e-06	2.174326e-07	-6.790285e-10	2.337655e+00	-4.643915e+01
1.210000e-06	2.883679e-07	-5.567451e-10	3.100293e+00	-3.837771e+01
1.220000e-06	3.592585e-07	-4.297929e-10	3.862450e+00	-3.006882e+01
1.230000e-06	4.300641e-07	-2.986144e-10	4.623693e+00	-2.153531e+01
1.240000e-06	5.007960e-07	-1.640828e-10	5.384145e+00	-1.280510e+01
1.250000e-06	5.713872e-07	-2.903052e-11	6.143083e+00	-3.910819e+00
1.260000e-06	6.418344e-07	1.035720e-10	6.900472e+00	5.110754e+00
1.270000e-06	7.121620e-07	2.413871e-10	7.656577e+00	1.421938e+01
1.280000e-06	7.823457e-07	3.819299e-10	8.411133e+00	2.337227e+01
1.290000e-06	8.524125e-07	5.226106e-10	9.164434e+00	3.252502e+01
1.300000e-06	9.223263e-07	6.601436e-10	9.916089e+00	4.163275e+01
1.310000e-06	9.920686e-07	7.968910e-10	1.066590e+01	5.065114e+01
1.320000e-06	1.061677e-06	9.360190e-10	1.141428e+01	5.953753e+01
1.330000e-06	1.131149e-06	1.072144e-09	1.216118e+01	6.825194e+01
1.340000e-06	1.200382e-06	1.202627e-09	1.290552e+01	7.675801e+01
1.350000e-06	1.269354e-06	1.327088e-09	1.364705e+01	8.502369e+01
1.360000e-06	1.338089e-06	1.447366e-09	1.438603e+01	9.302193e+01
1.370000e-06	1.406596e-06	1.561770e-09	1.512256e+01	1.007310e+02
1.380000e-06	1.474862e-06	1.670655e-09	1.585650e+01	1.081348e+02
1.390000e-06	1.542861e-06	1.774116e-09	1.658757e+01	1.152226e+02
1.400000e-06	1.610649e-06	1.873756e-09	1.731636e+01	1.219891e+02
1.410000e-06	1.678277e-06	1.971552e-09	1.804344e+01	1.284340e+02
1.420000e-06	1.745733e-06	2.065878e-09	1.876868e+01	1.345614e+02
1.430000e-06	1.812989e-06	2.152724e-09	1.949176e+01	1.403792e+02
1.440000e-06	1.879965e-06	2.235837e-09	2.021182e+01	1.458982e+02
1.450000e-06	1.946607e-06	2.316750e-09	2.092831e+01	1.511318e+02
1.460000e-06	2.012813e-06	2.392986e-09	2.164010e+01	1.560948e+02
1.470000e-06	2.078419e-06	2.464441e-09	2.234544e+01	1.608030e+02
1.480000e-06	2.143367e-06	2.530769e-09	2.304371e+01	1.652724e+02
1.490000e-06	2.207779e-06	2.594181e-09	2.373621e+01	1.695188e+02
1.500000e-06	2.271836e-06	2.655018e-09	2.442490e+01	1.735573e+02
1.510000e-06	2.335599e-06	2.714438e-09	2.511043e+01	1.774019e+02
1.520000e-06	2.399050e-06	2.770257e-09	2.579260e+01	1.810657e+02
1.530000e-06	2.462152e-06	2.820245e-09	2.647103e+01	1.845602e+02
1.540000e-06	2.524886e-06	2.868803e-09	2.714549e+01	1.878961e+02
1.550000e-06	2.587218e-06	2.916557e-09	2.781562e+01	1.910826e+02
1.560000e-06	2.649130e-06	2.961140e-09	2.848125e+01	1.941283e+02
1.570000e-06	2.710581e-06	3.001563e-09	2.914193e+01	1.970407e+02
1.580000e-06	2.771577e-06	3.040815e-09	2.979770e+01	1.998271e+02
1.590000e-06	2.832072e-06	3.080974e-09	3.044809e+01	2.024943e+02
1.600000e-06	2.892082e-06	3.118988e-09	3.109327e+01	2.050486e+02
1.610000e-06	2.951729e-06	3.154986e-09	3.173455e+01	2.074967e+02
1.620000e-06	3.010960e-06	3.189014e-09	3.237135e+01	2.098449e+02
1.630000e-06	3.069652e-06	3.220995e-09	3.300236e+01	2.120995e+02
1.640000e-06	3.127618e-06	3.252196e-09	3.362556e+01	2.142669e+02
1.650000e-06	3.184674e-06	3.283000e-09	3.423898e+01	2.163530e+02
1.660000e-06	3.240906e-06	3.311823e-09	3.484353e+01	2.183636e+02
1.670000e-06	3.296610e-06	3.337358e-09	3.544242e+01	2.203042e+02
1.680000e-06	3.351911e-06	3.363885e-09	3.603697e+01	2.221796e+02
1.690000e-06	3.406686e-06	3.393154e-09	3.662587e+01	2.239939e+02
1.700000e-06	3.460870e-06	3.420137e-09	3.720841e+01	2.257506e+02
1.710000e-06	3.514530e-06	3.443552e-09	3.778532e+01	2.274522e+02
1.720000e-06	3.567646e-06	3.466437e-09	3.835637e+01	2.291006e+02
1.730000e-06	3.620152e-06	3.490769e-09	3.892088e+01	2.306970e+02
1.740000e-06	3.672000e-06	3.513943e-09	3.947831e+01	2.322419e+02
1.750000e-06	3.723071e-06	3.534341e-09	4.002737e+01	2.337352e+02
1.760000e-06	3.773245e-06	3.553408e-09	4.056681e+01	2.351766e+02
1.770000e-06	3.822454e-06	3.573333e-09	4.109586e+01	2.365658e+02
1.780000e-06	3.870780e-06	3.593030e-09	4.161542e+01	2.379023e+02
1.790000e-06	3.918444e-06	3.610827e-09	4.212786e+01	2.391859e+02
1.800000e-06	3.965541e-06	3.628643e-09	4.263422e+01	2.404171e+02
1.810000e-06	4.012041e-06	3.646156e-09	4.313414e+01	2.415965e+02
1.820000e-06	4.057828e-06	3.663615e-09	4.362641e+01	2.427256e+02
1.830000e-06	4.102847e-06	3.680244e-09	4.411041e+01	2.438063e+02
1.840000e-06	4.147205e-06	3.695477e-09	4.458731e+01	2.448411e+02
1.850000e-06	4.190977e-06	3.710664e-09	4.505792e+01	2.458332e+02
1.860000e-06	4.234144e-06	3.726689e-09	4.552202e+01	2.467859e+02
1.870000e-06	4.276567e-06	3.742552e-09	4.597811e+01	2.477027e+02
1.880000e-06	4.317979e-06	3.756553e-09	4.642334e+01	2.485873e+02
1.890000e-06	4.358351e-06	3.770211e-09	4.685738e+01	2.494431e+02
1.900000e-06	4.397968e-06	3.783821e-09	4.728332e+01	2.502733e+02
1.910000e-06	4.436937e-06	3.795311e-09	4.770228e+01	2.510803e+02
1.920000e-06	4.475162e-06	3.806766e-09	4.811324e+01	2.518663e+02
1.930000e-06	4.512616e-06	3.818242e-09	4.851591e+01	2.526325e+02
1.940000e-06	4.549288e-06	3.830325e-09	4.891018e+01	2.533796e+02
1.950000e-06	4.585262e-06	3.842956e-09	4.929695e+01	2.541076e+02
1.960000e-06	4.620607e-06	3.854139e-09	4.967694e+01	2.548158e+02
1.970000e-06	4.655141e-06	3.864881e-09	5.004822e+01	2.555032e+02
1.980000e-06	4.688565e-06	3.874098e-09	5.040758e+01	2.561684e+02
1.990000e-06	4.720908e-06	3.883336e-09	5.075530e+01	2.568100e+02
2.000000e-06	4.752406e-06	3.892850e-09	5.109393e+01	2.574264e+02
2.010000e-06	4.783127e-06	3.902635e-09	5.142422e+01	2.580165e+02
2.020000e-06	4.813104e-06	3.912531e-09	5.174651e+01	2.585795e+02
2.030000e-06	4.842324e-06	3.921754e-09	5.206066e+01	2.591149e+02
2.040000e-06	4.870771e-06	3.931567e-09	5.236650e+01	2.596229e+02
2.050000e-06	4.898505e-06	3.940297e-09	5.266467e+01	2.601042e+02
2.060000e-06	4.925437e-06	3.949526e-09	5.295422e+01	2.605602e+02
2.070000e-06	4.951305e-06	3.958458e-09	5.323234e+01	2.609925e+02
2.080000e-06	4.976103e-06	3.965699e-09	5.349894e+01	2.614033e+02
2.090000e-06	4.999970e-06	3.972385e-09	5.375554e+01	2.617948e+02
2.100000e-06	5.022986e-06	3.978157e-09	5.400299e+01	2.621694e+02
2.110000e-06	5.045207e-06	3.984533e-09	5.424189e+01	2.625293e+02
2.120000e-06	5.066564e-06	3.989628e-09	5.447151e+01	2.628763e+02
2.130000e-06	5.087035e-06	3.993035e-09	5.469159e+01	2.632120e+02
2.140000e-06	5.106819e-06	3.998257e-09	5.490429e+01	2.635373e+02
2.150000e-06	5.125938e-06	4.006177e-09	5.510984e+01	2.638525e+02
2.160000e-06	5.144208e-06	4.013950e-09	5.530627e+01	2.641575e+02
2.170000e-06	5.161545e-06	4.018851e-09	5.549266e+01	2.644514e+02
2.180000e-06	5.177982e-06	4.023505e-09	5.566938e+01	2.647329e+02
2.190000e-06	5.193550e-06	4.029024e-09	5.583676e+01	2.650004e+02
2.200000e-06	5.208108e-06	4.034928e-09	5.599327e+01	2.652521e+02
2.210000e-06	5.221552e-06	4.039373e-09	5.613781e+01	2.654859e+02
2.220000e-06	5.234006e-06	4.042547e-09	5.627171e+01	2.657002e+02
2.230000e-06	5.245534e-06	4.047985e-09	5.639564e+01	2.658935e+02
2.240000e-06	5.255971e-06	4.055190e-09	5.650786e+01	2.660646e+02
2.250000e-06	5.265169e-06	4.059937e-09	5.660674e+01	2.662130e+02
2.260000e-06	5.273212e-06	4.061469e-09	5.669322e+01	2.663389e+02
2.270000e-06	5.280383e-06	4.062231e-09	5.677031e+01	2.664427e+02
2.280000e-06	5.286721e-06	4.064378e-09	5.683844e+01	2.665258e+02
2.290000e-06	5.292139e-06	4.067786e-09	5.689670e+01	2.665898e+02
2.300000e-06	5.296688e-06	4.069594e-09	5.694560e+01	2.666367e+02
2.310000e-06	5.300426e-06	4.069854e-09	5.698580e+01	2.666687e+02
2.320000e-06	5.303298e-06	4.070790e-09	5.701667e+01	2.666882e+02
2.330000e-06	5.305045e-06	4.073071e-09	5.703546e+01	2.666971e+02
2.340000e-06	5.305607e-06	4.074587e-09	5.704150e+01	2.666973e+02
2.350000e-06	5.305251e-06	4.075991e-09	5.703767e+01	2.666900e+02
2.360000e-06	5.304121e-06	4.076606e-09	5.702552e+01	2.666758e+02
2.370000e-06	5.302152e-06	4.076147e-09	5.700435e+01	2.666548e+02
2.380000e-06	5.299330e-06	4.076392e-09	5.697401e+01	2.666263e+02
2.390000e-06	5.295745e-06	4.076470e-09	5.693547e+01	2.665889e+02
2.400000e-06	5.291456e-06	4.074312e-09	5.688935e+01	2.665408e+02
2.410000e-06	5.286386e-06	4.073554e-09	5.683484e+01	2.664796e+02
2.420000e-06	5.280282e-06	4.071534e-09	5.676922e+01	2.664026e+02
2.430000e-06	5.273077e-06	4.040854e-09	5.669176e+01	2.663072e+02
2.440000e-06	5.264837e-06	4.036162e-09	5.660317e+01	2.661907e+02
2.450000e-06	5.255443e-06	4.044537e-09	5.650217e+01	2.660506e+02
2.460000e-06	5.244781e-06	4.077455e-09	5.638755e+01	2.658852e+02
2.470000e-06	5.233249e-06	4.049812e-09	5.626357e+01	2.656930e+02
2.480000e-06	5.221400e-06	4.018797e-09	5.613618e+01	2.654733e+02
2.490000e-06	5.208855e-06	4.086870e-09	5.600130e+01	2.652264e+02
2.500000e-06	5.194809e-06	4.084309e-09	5.585028e+01	2.649528e+02
2.510000e-06	5.179459e-06	3.993253e-09	5.568525e+01	2.646541e+02
2.520000e-06	5.163464e-06	4.088036e-09	5.551330e+01	2.643322e+02
2.530000e-06	5.146587e-06	4.036308e-09	5.533184e+01	2.639896e+02
2.540000e-06	5.128657e-06	3.876883e-09	5.513908e+01	2.636289e+02
2.550000e-06	5.110118e-06	4.073170e-09	5.493976e+01	2.632528e+02
2.560000e-06	5.090998e-06	4.065430e-09	5.473419e+01	2.628640e+02
2.570000e-06	5.071004e-06	3.867511e-09	5.451924e+01	2.624646e+02
2.580000e-06	5.049948e-06	3.986659e-09	5.429286e+01	2.620565e+02
2.590000e-06	5.027717e-06	4.109159e-09	5.405385e+01	2.616411e+02
2.600000e-06	5.004419e-06	3.923849e-09	5.380337e+01	2.612189e+02
2.610000e-06	4.980163e-06	3.967536e-09	5.354259e+01	2.607899e+02
2.620000e-06	4.954986e-06	4.053062e-09	5.327191e+01	2.603535e+02
2.630000e-06	4.929089e-06	3.901971e-09	5.299349e+01	2.599084e+02
2.640000e-06	4.902472e-06	3.967823e-09	5.270732e+01	2.594531e+02
2.650000e-06	4.875013e-06	3.979924e-09	5.241211e+01	2.589854e+02
2.660000e-06	4.846814e-06	3.937515e-09	5.210893e+01	2.585032e+02
2.670000e-06	4.817691e-06	3.958669e-09	5.179583e+01	2.580045e+02
2.680000e-06	4.787294e-06	3.855498e-09	5.146903e+01	2.574870e+02
2.690000e-06	4.755803e-06	3.973695e-09	5.113045e+01	2.569491e+02
2.700000e-06	4.723581e-06	4.004776e-09	5.078403e+01	2.563894e+02
2.710000e-06	4.690591e-06	3.788306e-09	5.042935e+01	2.558069e+02
2.720000e-06	4.656694e-06	3.879477e-09	5.006493e+01	2.552013e+02
2.730000e-06	4.622075e-06	3.958868e-09	4.969272e+01	2.545725e+02
2.740000e-06	4.586835e-06	3.841733e-09	4.931385e+01	2.539210e+02
2.750000e-06	4.550904e-06	3.828769e-09	4.892755e+01	2.532476e+02
2.760000e-06	4.514135e-06	3.862928e-09	4.853224e+01	2.525532e+02
2.770000e-06	4.476475e-06	3.869404e-09	4.812736e+01	2.518391e+02
2.780000e-06	4.437848e-06	3.790767e-09	4.771207e+01	2.511062e+02
2.790000e-06	4.398250e-06	3.794683e-09	4.728634e+01	2.503556e+02
2.800000e-06	4.357908e-06	3.865803e-09	4.685262e+01	2.495879e+02
2.810000e-06	4.316909e-06	3.777513e-09	4.641183e+01	2.488035e+02
2.820000e-06	4.275246e-06	3.737979e-09	4.596391e+01	2.480024e+02
2.830000e-06	4.232825e-06	3.770941e-09	4.550783e+01	2.471841e+02
2.840000e-06	4.189722e-06	3.781531e-09	4.504443e+01	2.463480e+02
2.850000e-06	4.146088e-06	3.743262e-09	4.457531e+01	2.454928e+02
2.860000e-06	4.101896e-06	3.687365e-09	4.410019e+01	2.446170e+02
2.870000e-06	4.057108e-06	3.736108e-09	4.361867e+01	2.437193e+02
2.880000e-06	4.011621e-06	3.715391e-09	4.312963e+01	2.427978e+02
2.890000e-06	3.965339e-06	3.657655e-09	4.263204e+01	2.418510e+02
2.900000e-06	3.918390e-06	3.683307e-09	4.212729e+01	2.408774e+02
2.910000e-06	3.870870e-06	3.666736e-09	4.161639e+01	2.398758e+02
2.920000e-06	3.822573e-06	3.627484e-09	4.109714e+01	2.388451e+02
2.930000e-06	3.773380e-06	3.610103e-09	4.056826e+01	2.377845e+02
2.940000e-06	3.723405e-06	3.633099e-09	4.003097e+01	2.366937e+02
2.950000e-06	3.672813e-06	3.604818e-09	3.948705e+01	2.355724e+02
