# Temperatura_=_20.0
# Concentracion g/m^3_=_9000.0
# C_Vs_to_Am_M_A/Vsm_=_65563218390.804596
# pendiente_HvsI_1/m_=_3716.3
# ordenada_HvsI_A/m_=_1297.0
# frecuencia_Hz_=_212869.6515727635

Tiempo_(s)	Campo_(V.s)	Magnetizacion_(V.s)	Campo_(kA/m)	Magnetizacion_(A/m)
0.000000e+00	-5.294006e-06	-4.062520e-09	-5.698632e+01	-2.661862e+02
1.000000e-08	-5.293578e-06	-4.061886e-09	-5.698171e+01	-2.661802e+02
2.000000e-08	-5.292188e-06	-4.062951e-09	-5.696675e+01	-2.661829e+02
3.000000e-08	-5.289598e-06	-4.061819e-09	-5.693887e+01	-2.661937e+02
4.000000e-08	-5.285994e-06	-4.060727e-09	-5.690007e+01	-2.662102e+02
5.000000e-08	-5.281674e-06	-4.059606e-09	-5.685357e+01	-2.662283e+02
6.000000e-08	-5.276604e-06	-4.057640e-09	-5.679900e+01	-2.662423e+02
7.000000e-08	-5.270618e-06	-4.051148e-09	-5.673457e+01	-2.662450e+02
8.000000e-08	-5.263717e-06	-4.055274e-09	-5.666028e+01	-2.662285e+02
9.000000e-08	-5.255921e-06	-4.075487e-09	-5.657636e+01	-2.661842e+02
1.000000e-07	-5.247064e-06	-4.101698e-09	-5.648102e+01	-2.661034e+02
1.100000e-07	-5.236973e-06	-4.080778e-09	-5.637240e+01	-2.659781e+02
1.200000e-07	-5.225684e-06	-4.017716e-09	-5.625088e+01	-2.658011e+02
1.300000e-07	-5.213450e-06	-3.993421e-09	-5.611919e+01	-2.655667e+02
1.400000e-07	-5.200410e-06	-4.055834e-09	-5.597882e+01	-2.652708e+02
1.500000e-07	-5.186542e-06	-4.062244e-09	-5.582954e+01	-2.649118e+02
1.600000e-07	-5.171891e-06	-4.042346e-09	-5.567183e+01	-2.644900e+02
1.700000e-07	-5.156172e-06	-4.023616e-09	-5.550264e+01	-2.640079e+02
1.800000e-07	-5.139046e-06	-3.976551e-09	-5.531828e+01	-2.634702e+02
1.900000e-07	-5.121069e-06	-4.043980e-09	-5.512477e+01	-2.628836e+02
2.000000e-07	-5.102651e-06	-4.066140e-09	-5.492651e+01	-2.622563e+02
2.100000e-07	-5.083350e-06	-3.978092e-09	-5.471875e+01	-2.615974e+02
2.200000e-07	-5.063089e-06	-3.925023e-09	-5.450066e+01	-2.609169e+02
2.300000e-07	-5.042068e-06	-3.992932e-09	-5.427438e+01	-2.602246e+02
2.400000e-07	-5.020228e-06	-4.010945e-09	-5.403929e+01	-2.595300e+02
2.500000e-07	-4.997517e-06	-3.950435e-09	-5.379482e+01	-2.588417e+02
2.600000e-07	-4.973999e-06	-3.920003e-09	-5.354166e+01	-2.581669e+02
2.700000e-07	-4.949691e-06	-3.899236e-09	-5.328000e+01	-2.575111e+02
2.800000e-07	-4.924472e-06	-3.934804e-09	-5.300854e+01	-2.568780e+02
2.900000e-07	-4.898104e-06	-3.944364e-09	-5.272470e+01	-2.562692e+02
3.000000e-07	-4.870599e-06	-3.895403e-09	-5.242864e+01	-2.556844e+02
3.100000e-07	-4.842230e-06	-3.857047e-09	-5.212326e+01	-2.551213e+02
3.200000e-07	-4.813093e-06	-3.884856e-09	-5.180963e+01	-2.545761e+02
3.300000e-07	-4.783107e-06	-3.919961e-09	-5.148684e+01	-2.540438e+02
3.400000e-07	-4.752352e-06	-3.877719e-09	-5.115579e+01	-2.535182e+02
3.500000e-07	-4.720921e-06	-3.822096e-09	-5.081745e+01	-2.529930e+02
3.600000e-07	-4.688753e-06	-3.833991e-09	-5.047119e+01	-2.524614e+02
3.700000e-07	-4.655829e-06	-3.872361e-09	-5.011679e+01	-2.519172e+02
3.800000e-07	-4.621923e-06	-3.860137e-09	-4.975181e+01	-2.513546e+02
3.900000e-07	-4.586844e-06	-3.804601e-09	-4.937420e+01	-2.507688e+02
4.000000e-07	-4.550829e-06	-3.789374e-09	-4.898653e+01	-2.501563e+02
4.100000e-07	-4.514126e-06	-3.825593e-09	-4.859145e+01	-2.495145e+02
4.200000e-07	-4.476650e-06	-3.820628e-09	-4.818805e+01	-2.488423e+02
4.300000e-07	-4.438290e-06	-3.785295e-09	-4.777513e+01	-2.481394e+02
4.400000e-07	-4.399168e-06	-3.754907e-09	-4.735401e+01	-2.474069e+02
4.500000e-07	-4.359486e-06	-3.752209e-09	-4.692686e+01	-2.466464e+02
4.600000e-07	-4.319276e-06	-3.770995e-09	-4.649403e+01	-2.458601e+02
4.700000e-07	-4.278380e-06	-3.762864e-09	-4.605381e+01	-2.450504e+02
4.800000e-07	-4.236444e-06	-3.721223e-09	-4.560240e+01	-2.442197e+02
4.900000e-07	-4.193355e-06	-3.684523e-09	-4.513857e+01	-2.433702e+02
5.000000e-07	-4.149475e-06	-3.704212e-09	-4.466623e+01	-2.425037e+02
5.100000e-07	-4.105064e-06	-3.720677e-09	-4.418818e+01	-2.416210e+02
5.200000e-07	-4.060045e-06	-3.675064e-09	-4.370358e+01	-2.407226e+02
5.300000e-07	-4.014337e-06	-3.633900e-09	-4.321156e+01	-2.398081e+02
5.400000e-07	-3.967898e-06	-3.634950e-09	-4.271168e+01	-2.388762e+02
5.500000e-07	-3.920740e-06	-3.648558e-09	-4.220406e+01	-2.379252e+02
5.600000e-07	-3.873021e-06	-3.632164e-09	-4.169040e+01	-2.369527e+02
5.700000e-07	-3.824716e-06	-3.591409e-09	-4.117042e+01	-2.359562e+02
5.800000e-07	-3.775532e-06	-3.573044e-09	-4.064100e+01	-2.349329e+02
5.900000e-07	-3.725299e-06	-3.572674e-09	-4.010028e+01	-2.338799e+02
6.000000e-07	-3.674123e-06	-3.568870e-09	-3.954940e+01	-2.327947e+02
6.100000e-07	-3.622194e-06	-3.541126e-09	-3.899042e+01	-2.316751e+02
6.200000e-07	-3.569540e-06	-3.500920e-09	-3.842364e+01	-2.305194e+02
6.300000e-07	-3.516183e-06	-3.481564e-09	-3.784928e+01	-2.293261e+02
6.400000e-07	-3.462225e-06	-3.477950e-09	-3.726847e+01	-2.280946e+02
6.500000e-07	-3.407644e-06	-3.470072e-09	-3.668094e+01	-2.268245e+02
6.600000e-07	-3.352418e-06	-3.435989e-09	-3.608647e+01	-2.255160e+02
6.700000e-07	-3.296707e-06	-3.400541e-09	-3.548678e+01	-2.241694e+02
6.800000e-07	-3.240616e-06	-3.393042e-09	-3.488299e+01	-2.227855e+02
6.900000e-07	-3.184019e-06	-3.384344e-09	-3.427377e+01	-2.213647e+02
7.000000e-07	-3.126599e-06	-3.355555e-09	-3.365568e+01	-2.199078e+02
7.100000e-07	-3.068145e-06	-3.319133e-09	-3.302646e+01	-2.184150e+02
7.200000e-07	-3.008925e-06	-3.295907e-09	-3.238900e+01	-2.168865e+02
7.300000e-07	-2.949250e-06	-3.280160e-09	-3.174664e+01	-2.153218e+02
7.400000e-07	-2.889222e-06	-3.255649e-09	-3.110049e+01	-2.137204e+02
7.500000e-07	-2.828781e-06	-3.229878e-09	-3.044987e+01	-2.120810e+02
7.600000e-07	-2.767874e-06	-3.200482e-09	-2.979425e+01	-2.104021e+02
7.700000e-07	-2.706538e-06	-3.170562e-09	-2.913401e+01	-2.086820e+02
7.800000e-07	-2.644779e-06	-3.147104e-09	-2.846922e+01	-2.069185e+02
7.900000e-07	-2.582560e-06	-3.121389e-09	-2.779948e+01	-2.051094e+02
8.000000e-07	-2.519817e-06	-3.090603e-09	-2.712410e+01	-2.032523e+02
8.100000e-07	-2.456667e-06	-3.055565e-09	-2.644433e+01	-2.013451e+02
8.200000e-07	-2.393183e-06	-3.026867e-09	-2.576097e+01	-1.993854e+02
8.300000e-07	-2.329369e-06	-3.000401e-09	-2.507404e+01	-1.973710e+02
8.400000e-07	-2.265225e-06	-2.966183e-09	-2.438359e+01	-1.952999e+02
8.500000e-07	-2.200812e-06	-2.932643e-09	-2.369022e+01	-1.931703e+02
8.600000e-07	-2.136160e-06	-2.898317e-09	-2.299428e+01	-1.909802e+02
8.700000e-07	-2.071105e-06	-2.863589e-09	-2.229402e+01	-1.887277e+02
8.800000e-07	-2.005427e-06	-2.828097e-09	-2.158704e+01	-1.864110e+02
8.900000e-07	-1.939097e-06	-2.793295e-09	-2.087304e+01	-1.840279e+02
9.000000e-07	-1.872439e-06	-2.758217e-09	-2.015551e+01	-1.815761e+02
9.100000e-07	-1.805506e-06	-2.712863e-09	-1.943503e+01	-1.790527e+02
9.200000e-07	-1.738174e-06	-2.668677e-09	-1.871025e+01	-1.764547e+02
9.300000e-07	-1.670531e-06	-2.630556e-09	-1.798211e+01	-1.737783e+02
9.400000e-07	-1.602660e-06	-2.587252e-09	-1.725153e+01	-1.710193e+02
9.500000e-07	-1.534648e-06	-2.538242e-09	-1.651942e+01	-1.681728e+02
9.600000e-07	-1.466492e-06	-2.487210e-09	-1.578577e+01	-1.652334e+02
9.700000e-07	-1.398132e-06	-2.441910e-09	-1.504992e+01	-1.621950e+02
9.800000e-07	-1.329566e-06	-2.398843e-09	-1.431186e+01	-1.590510e+02
9.900000e-07	-1.260805e-06	-2.351323e-09	-1.357170e+01	-1.557941e+02
1.000000e-06	-1.191781e-06	-2.299082e-09	-1.282870e+01	-1.524165e+02
1.010000e-06	-1.122441e-06	-2.240174e-09	-1.208231e+01	-1.489100e+02
1.020000e-06	-1.052835e-06	-2.182263e-09	-1.133304e+01	-1.452658e+02
1.030000e-06	-9.830236e-07	-2.124812e-09	-1.058157e+01	-1.414744e+02
1.040000e-06	-9.130902e-07	-2.062969e-09	-9.828786e+00	-1.375262e+02
1.050000e-06	-8.430518e-07	-1.998270e-09	-9.074870e+00	-1.334109e+02
1.060000e-06	-7.728283e-07	-1.931843e-09	-8.318963e+00	-1.291178e+02
1.070000e-06	-7.024088e-07	-1.868064e-09	-7.560946e+00	-1.246357e+02
1.080000e-06	-6.318724e-07	-1.798756e-09	-6.801670e+00	-1.199533e+02
1.090000e-06	-5.612569e-07	-1.719359e-09	-6.041544e+00	-1.150590e+02
1.100000e-06	-4.905720e-07	-1.636348e-09	-5.280669e+00	-1.099409e+02
1.110000e-06	-4.197816e-07	-1.553770e-09	-4.518659e+00	-1.045877e+02
1.120000e-06	-3.488766e-07	-1.471806e-09	-3.755416e+00	-9.898822e+01
1.130000e-06	-2.778659e-07	-1.382247e-09	-2.991035e+00	-9.313226e+01
1.140000e-06	-2.067508e-07	-1.287872e-09	-2.225529e+00	-8.701078e+01
1.150000e-06	-1.355772e-07	-1.192897e-09	-1.459395e+00	-8.061639e+01
1.160000e-06	-6.441573e-08	-1.093947e-09	-6.933909e-01	-7.394389e+01
1.170000e-06	6.651753e-09	-9.901071e-10	7.160153e-02	-6.699077e+01
1.180000e-06	7.764150e-08	-8.791783e-10	8.357572e-01	-5.975769e+01
1.190000e-06	1.485886e-07	-7.636031e-10	1.599454e+00	-5.224901e+01
1.200000e-06	2.195085e-07	-6.448842e-10	2.362857e+00	-4.447315e+01
1.210000e-06	2.903749e-07	-5.225281e-10	3.125686e+00	-3.644294e+01
1.220000e-06	3.611942e-07	-3.977527e-10	3.888006e+00	-2.817582e+01
1.230000e-06	4.319572e-07	-2.665891e-10	4.649721e+00	-1.969391e+01
1.240000e-06	5.026002e-07	-1.335721e-10	5.410144e+00	-1.102393e+01
1.250000e-06	5.730995e-07	-1.636599e-12	6.169020e+00	-2.196924e+00
1.260000e-06	6.434895e-07	1.338128e-10	6.926720e+00	6.752171e+00
1.270000e-06	7.137678e-07	2.717316e-10	7.683218e+00	1.578510e+01
1.280000e-06	7.838753e-07	4.116009e-10	8.437877e+00	2.486105e+01
1.290000e-06	8.538046e-07	5.483157e-10	9.190617e+00	3.393748e+01
1.300000e-06	9.236356e-07	6.843900e-10	9.942300e+00	4.297115e+01
1.310000e-06	9.933187e-07	8.214083e-10	1.069239e+01	5.191903e+01
1.320000e-06	1.062796e-06	9.574235e-10	1.144026e+01	6.073942e+01
1.330000e-06	1.132091e-06	1.092262e-09	1.218618e+01	6.939287e+01
1.340000e-06	1.201182e-06	1.219786e-09	1.292989e+01	7.784312e+01
1.350000e-06	1.270081e-06	1.341618e-09	1.367155e+01	8.605794e+01
1.360000e-06	1.338800e-06	1.459697e-09	1.441125e+01	9.400972e+01
1.370000e-06	1.407286e-06	1.573667e-09	1.514847e+01	1.016760e+02
1.380000e-06	1.475553e-06	1.683151e-09	1.588331e+01	1.090397e+02
1.390000e-06	1.543659e-06	1.787320e-09	1.661642e+01	1.160892e+02
1.400000e-06	1.611600e-06	1.887640e-09	1.734776e+01	1.228185e+02
1.410000e-06	1.679394e-06	1.985668e-09	1.807752e+01	1.292263e+02
1.420000e-06	1.746975e-06	2.078666e-09	1.880498e+01	1.353162e+02
1.430000e-06	1.814235e-06	2.165255e-09	1.952899e+01	1.410957e+02
1.440000e-06	1.881074e-06	2.246599e-09	2.024846e+01	1.465756e+02
1.450000e-06	1.947427e-06	2.324941e-09	2.096270e+01	1.517694e+02
1.460000e-06	2.013273e-06	2.399126e-09	2.167150e+01	1.566921e+02
1.470000e-06	2.078597e-06	2.467812e-09	2.237466e+01	1.613601e+02
1.480000e-06	2.143470e-06	2.534010e-09	2.307298e+01	1.657899e+02
1.490000e-06	2.207974e-06	2.598600e-09	2.376732e+01	1.699979e+02
1.500000e-06	2.272160e-06	2.661181e-09	2.445824e+01	1.739996e+02
1.510000e-06	2.336045e-06	2.719990e-09	2.514592e+01	1.778096e+02
1.520000e-06	2.399607e-06	2.774593e-09	2.583012e+01	1.814410e+02
1.530000e-06	2.462792e-06	2.823921e-09	2.651025e+01	1.849057e+02
1.540000e-06	2.525497e-06	2.870292e-09	2.718524e+01	1.882140e+02
1.550000e-06	2.587747e-06	2.917024e-09	2.785531e+01	1.913750e+02
1.560000e-06	2.649631e-06	2.960957e-09	2.852145e+01	1.943967e+02
1.570000e-06	2.711067e-06	3.001301e-09	2.918277e+01	1.972863e+02
1.580000e-06	2.771978e-06	3.041403e-09	2.983843e+01	2.000502e+02
1.590000e-06	2.832417e-06	3.081769e-09	3.048901e+01	2.026947e+02
1.600000e-06	2.892504e-06	3.121082e-09	3.113580e+01	2.052259e+02
1.610000e-06	2.952256e-06	3.157532e-09	3.177900e+01	2.076497e+02
1.620000e-06	3.011450e-06	3.189669e-09	3.241618e+01	2.099725e+02
1.630000e-06	3.069809e-06	3.220188e-09	3.304437e+01	2.122007e+02
1.640000e-06	3.127233e-06	3.251242e-09	3.366251e+01	2.143408e+02
1.650000e-06	3.183902e-06	3.281434e-09	3.427251e+01	2.163995e+02
1.660000e-06	3.240072e-06	3.309185e-09	3.487714e+01	2.183832e+02
1.670000e-06	3.295855e-06	3.336420e-09	3.547760e+01	2.202981e+02
1.680000e-06	3.351163e-06	3.364262e-09	3.607296e+01	2.221500e+02
1.690000e-06	3.405845e-06	3.391977e-09	3.666157e+01	2.239440e+02
1.700000e-06	3.459999e-06	3.418257e-09	3.724450e+01	2.256843e+02
1.710000e-06	3.513648e-06	3.441541e-09	3.782200e+01	2.273742e+02
1.720000e-06	3.566619e-06	3.465447e-09	3.839219e+01	2.290160e+02
1.730000e-06	3.618991e-06	3.491433e-09	3.895594e+01	2.306111e+02
1.740000e-06	3.670740e-06	3.515749e-09	3.951298e+01	2.321597e+02
1.750000e-06	3.721547e-06	3.536558e-09	4.005989e+01	2.336616e+02
1.760000e-06	3.771300e-06	3.555413e-09	4.059544e+01	2.351157e+02
1.770000e-06	3.820139e-06	3.575090e-09	4.112116e+01	2.365206e+02
1.780000e-06	3.868318e-06	3.594000e-09	4.163977e+01	2.378749e+02
1.790000e-06	3.915982e-06	3.611958e-09	4.215284e+01	2.391772e+02
1.800000e-06	3.963034e-06	3.630782e-09	4.265933e+01	2.404266e+02
1.810000e-06	4.009386e-06	3.648987e-09	4.315827e+01	2.416227e+02
1.820000e-06	4.055030e-06	3.666116e-09	4.364960e+01	2.427660e+02
1.830000e-06	4.099912e-06	3.683482e-09	4.413272e+01	2.438577e+02
1.840000e-06	4.144179e-06	3.700111e-09	4.460922e+01	2.448999e+02
1.850000e-06	4.187981e-06	3.714917e-09	4.508073e+01	2.458954e+02
1.860000e-06	4.231114e-06	3.729652e-09	4.554502e+01	2.468480e+02
1.870000e-06	4.273291e-06	3.744442e-09	4.599903e+01	2.477616e+02
1.880000e-06	4.314393e-06	3.758564e-09	4.644146e+01	2.486405e+02
1.890000e-06	4.354652e-06	3.773340e-09	4.687482e+01	2.494892e+02
1.900000e-06	4.394238e-06	3.786425e-09	4.730094e+01	2.503117e+02
1.910000e-06	4.433104e-06	3.797353e-09	4.771930e+01	2.511116e+02
1.920000e-06	4.471267e-06	3.809833e-09	4.813010e+01	2.518919e+02
1.930000e-06	4.508680e-06	3.822726e-09	4.853283e+01	2.526547e+02
1.940000e-06	4.545318e-06	3.834385e-09	4.892721e+01	2.534011e+02
1.950000e-06	4.581322e-06	3.844297e-09	4.931477e+01	2.541313e+02
1.960000e-06	4.616597e-06	3.854704e-09	4.969448e+01	2.548447e+02
1.970000e-06	4.650862e-06	3.864448e-09	5.006332e+01	2.555399e+02
1.980000e-06	4.684069e-06	3.872698e-09	5.042077e+01	2.562149e+02
1.990000e-06	4.716369e-06	3.881687e-09	5.076846e+01	2.568674e+02
2.000000e-06	4.747935e-06	3.892295e-09	5.110824e+01	2.574948e+02
2.010000e-06	4.778745e-06	3.904211e-09	5.143989e+01	2.580951e+02
2.020000e-06	4.808736e-06	3.915319e-09	5.176272e+01	2.586664e+02
2.030000e-06	4.837903e-06	3.925440e-09	5.207669e+01	2.592074e+02
2.040000e-06	4.866321e-06	3.933289e-09	5.238258e+01	2.597178e+02
2.050000e-06	4.894117e-06	3.940010e-09	5.268179e+01	2.601980e+02
2.060000e-06	4.921088e-06	3.948103e-09	5.297212e+01	2.606492e+02
2.070000e-06	4.946843e-06	3.955328e-09	5.324935e+01	2.610735e+02
2.080000e-06	4.971423e-06	3.962018e-09	5.351393e+01	2.614736e+02
2.090000e-06	4.995166e-06	3.968610e-09	5.376951e+01	2.618527e+02
2.100000e-06	5.018185e-06	3.974675e-09	5.401730e+01	2.622143e+02
2.110000e-06	5.040372e-06	3.981830e-09	5.425613e+01	2.625615e+02
2.120000e-06	5.061687e-06	3.989714e-09	5.448557e+01	2.628976e+02
2.130000e-06	5.082234e-06	3.996239e-09	5.470674e+01	2.632248e+02
2.140000e-06	5.102127e-06	4.000844e-09	5.492087e+01	2.635449e+02
2.150000e-06	5.121283e-06	4.005987e-09	5.512708e+01	2.638586e+02
2.160000e-06	5.139474e-06	4.012042e-09	5.532290e+01	2.641657e+02
2.170000e-06	5.156728e-06	4.017051e-09	5.550862e+01	2.644649e+02
2.180000e-06	5.173090e-06	4.020237e-09	5.568475e+01	2.647540e+02
2.190000e-06	5.188418e-06	4.023798e-09	5.584974e+01	2.650303e+02
2.200000e-06	5.202655e-06	4.029373e-09	5.600298e+01	2.652904e+02
2.210000e-06	5.215949e-06	4.035131e-09	5.614609e+01	2.655307e+02
2.220000e-06	5.228348e-06	4.040560e-09	5.627955e+01	2.657478e+02
2.230000e-06	5.239781e-06	4.044912e-09	5.640263e+01	2.659388e+02
2.240000e-06	5.250030e-06	4.048569e-09	5.651295e+01	2.661012e+02
2.250000e-06	5.259018e-06	4.052642e-09	5.660970e+01	2.662340e+02
2.260000e-06	5.267048e-06	4.054810e-09	5.669614e+01	2.663368e+02
2.270000e-06	5.274215e-06	4.054570e-09	5.677328e+01	2.664107e+02
2.280000e-06	5.280499e-06	4.055526e-09	5.684092e+01	2.664582e+02
2.290000e-06	5.285880e-06	4.058947e-09	5.689884e+01	2.664826e+02
2.300000e-06	5.290417e-06	4.061578e-09	5.694768e+01	2.664883e+02
2.310000e-06	5.294222e-06	4.063594e-09	5.698864e+01	2.664803e+02
2.320000e-06	5.297060e-06	4.065266e-09	5.701919e+01	2.664639e+02
2.330000e-06	5.298637e-06	4.067159e-09	5.703617e+01	2.664443e+02
2.340000e-06	5.299132e-06	4.070579e-09	5.704150e+01	2.664261e+02
2.350000e-06	5.298822e-06	4.072351e-09	5.703817e+01	2.664132e+02
2.360000e-06	5.297731e-06	4.070519e-09	5.702641e+01	2.664081e+02
2.370000e-06	5.295782e-06	4.067972e-09	5.700544e+01	2.664116e+02
2.380000e-06	5.292992e-06	4.066576e-09	5.697541e+01	2.664231e+02
2.390000e-06	5.289462e-06	4.065056e-09	5.693740e+01	2.664399e+02
2.400000e-06	5.285216e-06	4.064351e-09	5.689170e+01	2.664579e+02
2.410000e-06	5.280094e-06	4.066623e-09	5.683657e+01	2.664711e+02
2.420000e-06	5.273879e-06	4.068485e-09	5.676966e+01	2.664723e+02
2.430000e-06	5.266575e-06	4.041992e-09	5.669104e+01	2.664534e+02
2.440000e-06	5.258331e-06	4.012676e-09	5.660230e+01	2.664058e+02
2.450000e-06	5.248968e-06	4.000160e-09	5.650151e+01	2.663209e+02
2.460000e-06	5.238250e-06	4.053301e-09	5.638615e+01	2.661907e+02
2.470000e-06	5.226667e-06	4.102688e-09	5.626146e+01	2.660082e+02
2.480000e-06	5.214811e-06	4.066210e-09	5.613384e+01	2.657677e+02
2.490000e-06	5.202277e-06	4.076193e-09	5.599892e+01	2.654656e+02
2.500000e-06	5.188179e-06	4.044601e-09	5.584717e+01	2.651002e+02
2.510000e-06	5.172762e-06	4.046057e-09	5.568122e+01	2.646722e+02
2.520000e-06	5.156795e-06	4.084731e-09	5.550934e+01	2.641843e+02
2.530000e-06	5.140046e-06	4.045068e-09	5.532905e+01	2.636414e+02
2.540000e-06	5.122169e-06	3.995697e-09	5.513661e+01	2.630504e+02
2.550000e-06	5.103612e-06	3.996550e-09	5.493686e+01	2.624194e+02
2.560000e-06	5.084597e-06	4.000196e-09	5.473218e+01	2.617579e+02
2.570000e-06	5.064667e-06	3.914655e-09	5.451764e+01	2.610757e+02
2.580000e-06	5.043589e-06	3.907907e-09	5.429075e+01	2.603828e+02
2.590000e-06	5.021281e-06	3.956771e-09	5.405062e+01	2.596884e+02
2.600000e-06	4.997860e-06	3.966477e-09	5.379852e+01	2.590012e+02
2.610000e-06	4.973611e-06	3.948801e-09	5.353749e+01	2.583281e+02
2.620000e-06	4.948514e-06	3.918753e-09	5.326733e+01	2.576744e+02
2.630000e-06	4.922631e-06	3.898296e-09	5.298872e+01	2.570437e+02
2.640000e-06	4.896056e-06	3.905277e-09	5.270266e+01	2.564373e+02
2.650000e-06	4.868665e-06	3.943036e-09	5.240781e+01	2.558547e+02
2.660000e-06	4.840533e-06	3.915725e-09	5.210499e+01	2.552936e+02
2.670000e-06	4.811544e-06	3.843744e-09	5.179295e+01	2.547500e+02
2.680000e-06	4.781192e-06	3.855444e-09	5.146623e+01	2.542186e+02
2.690000e-06	4.749703e-06	3.921351e-09	5.112727e+01	2.536934e+02
2.700000e-06	4.717598e-06	3.895297e-09	5.078168e+01	2.531678e+02
2.710000e-06	4.684724e-06	3.805597e-09	5.042782e+01	2.526352e+02
2.720000e-06	4.650864e-06	3.814283e-09	5.006334e+01	2.520894e+02
2.730000e-06	4.616194e-06	3.861656e-09	4.969015e+01	2.515246e+02
2.740000e-06	4.580920e-06	3.845536e-09	4.931044e+01	2.509364e+02
2.750000e-06	4.545067e-06	3.810724e-09	4.892451e+01	2.503210e+02
2.760000e-06	4.508402e-06	3.784059e-09	4.852984e+01	2.496762e+02
2.770000e-06	4.470714e-06	3.780340e-09	4.812415e+01	2.490009e+02
2.780000e-06	4.431989e-06	3.791082e-09	4.770730e+01	2.482950e+02
2.790000e-06	4.392357e-06	3.794027e-09	4.728069e+01	2.475596e+02
2.800000e-06	4.352070e-06	3.763444e-09	4.684703e+01	2.467964e+02
2.810000e-06	4.311070e-06	3.712259e-09	4.640569e+01	2.460076e+02
2.820000e-06	4.269306e-06	3.722415e-09	4.595613e+01	2.451956e+02
2.830000e-06	4.226857e-06	3.758249e-09	4.549920e+01	2.443630e+02
2.840000e-06	4.183725e-06	3.728258e-09	4.503491e+01	2.435117e+02
2.850000e-06	4.140039e-06	3.673827e-09	4.456467e+01	2.426435e+02
2.860000e-06	4.095900e-06	3.666552e-09	4.408953e+01	2.417593e+02
2.870000e-06	4.051181e-06	3.692430e-09	4.360817e+01	2.408593e+02
2.880000e-06	4.005739e-06	3.674989e-09	4.311902e+01	2.399431e+02
2.890000e-06	3.959470e-06	3.634061e-09	4.262096e+01	2.390093e+02
2.900000e-06	3.912497e-06	3.621341e-09	4.211533e+01	2.380563e+02
2.910000e-06	3.864907e-06	3.613965e-09	4.160306e+01	2.370815e+02
2.920000e-06	3.816559e-06	3.607474e-09	4.108262e+01	2.360825e+02
2.930000e-06	3.767358e-06	3.593286e-09	4.055301e+01	2.350563e+02
2.940000e-06	3.717463e-06	3.565994e-09	4.001592e+01	2.340002e+02
2.950000e-06	3.666991e-06	3.540304e-09	3.947262e+01	2.329116e+02
