# Temperatura_=_20.0
# Concentracion g/m^3_=_9000.0
# C_Vs_to_Am_M_A/Vsm_=_65563218390.804596
# pendiente_HvsI_1/m_=_3716.3
# ordenada_HvsI_A/m_=_1297.0
# frecuencia_Hz_=_212871.65848646974

Tiempo_(s)	Campo_(V.s)	Magnetizacion_(V.s)	Campo_(kA/m)	Magnetizacion_(A/m)
0.000000e+00	-5.289437e-06	-3.998753e-09	-5.698679e+01	-2.632198e+02
1.000000e-08	-5.289032e-06	-3.998728e-09	-5.698242e+01	-2.631901e+02
2.000000e-08	-5.287658e-06	-3.998919e-09	-5.696761e+01	-2.631563e+02
3.000000e-08	-5.284984e-06	-3.997957e-09	-5.693881e+01	-2.631189e+02
4.000000e-08	-5.281286e-06	-3.996496e-09	-5.689897e+01	-2.630769e+02
5.000000e-08	-5.276858e-06	-3.993439e-09	-5.685126e+01	-2.630287e+02
6.000000e-08	-5.271665e-06	-3.988945e-09	-5.679531e+01	-2.629719e+02
7.000000e-08	-5.265646e-06	-3.978880e-09	-5.673047e+01	-2.629029e+02
8.000000e-08	-5.258706e-06	-3.976956e-09	-5.665570e+01	-2.628177e+02
9.000000e-08	-5.250824e-06	-4.014125e-09	-5.657077e+01	-2.627119e+02
1.000000e-07	-5.242015e-06	-4.055942e-09	-5.647587e+01	-2.625807e+02
1.100000e-07	-5.231909e-06	-4.034341e-09	-5.636700e+01	-2.624195e+02
1.200000e-07	-5.220517e-06	-3.910143e-09	-5.624426e+01	-2.622240e+02
1.300000e-07	-5.208266e-06	-3.878232e-09	-5.611227e+01	-2.619904e+02
1.400000e-07	-5.195185e-06	-4.033457e-09	-5.597134e+01	-2.617159e+02
1.500000e-07	-5.181269e-06	-4.033694e-09	-5.582142e+01	-2.613985e+02
1.600000e-07	-5.166569e-06	-3.959071e-09	-5.566304e+01	-2.610375e+02
1.700000e-07	-5.150626e-06	-3.941958e-09	-5.549128e+01	-2.606335e+02
1.800000e-07	-5.133262e-06	-3.900710e-09	-5.530420e+01	-2.601881e+02
1.900000e-07	-5.115211e-06	-3.954748e-09	-5.510973e+01	-2.597042e+02
2.000000e-07	-5.096692e-06	-4.049397e-09	-5.491020e+01	-2.591859e+02
2.100000e-07	-5.077260e-06	-3.913710e-09	-5.470085e+01	-2.586378e+02
2.200000e-07	-5.056924e-06	-3.763844e-09	-5.448176e+01	-2.580653e+02
2.300000e-07	-5.035906e-06	-3.959873e-09	-5.425532e+01	-2.574742e+02
2.400000e-07	-5.014068e-06	-4.069878e-09	-5.402004e+01	-2.568704e+02
2.500000e-07	-4.991251e-06	-3.922847e-09	-5.377422e+01	-2.562593e+02
2.600000e-07	-4.967579e-06	-3.814730e-09	-5.351918e+01	-2.556462e+02
2.700000e-07	-4.943170e-06	-3.865222e-09	-5.325621e+01	-2.550354e+02
2.800000e-07	-4.917887e-06	-3.960549e-09	-5.298382e+01	-2.544305e+02
2.900000e-07	-4.891465e-06	-3.922645e-09	-5.269915e+01	-2.538340e+02
3.000000e-07	-4.863920e-06	-3.837396e-09	-5.240239e+01	-2.532474e+02
3.100000e-07	-4.835583e-06	-3.845993e-09	-5.209709e+01	-2.526708e+02
3.200000e-07	-4.806445e-06	-3.863668e-09	-5.178318e+01	-2.521037e+02
3.300000e-07	-4.776453e-06	-3.868873e-09	-5.146005e+01	-2.515443e+02
3.400000e-07	-4.745677e-06	-3.901056e-09	-5.112848e+01	-2.509900e+02
3.500000e-07	-4.714072e-06	-3.813945e-09	-5.078797e+01	-2.504377e+02
3.600000e-07	-4.681776e-06	-3.744254e-09	-5.044002e+01	-2.498840e+02
3.700000e-07	-4.648860e-06	-3.872384e-09	-5.008540e+01	-2.493249e+02
3.800000e-07	-4.614971e-06	-3.907755e-09	-4.972030e+01	-2.487567e+02
3.900000e-07	-4.579803e-06	-3.750602e-09	-4.934140e+01	-2.481757e+02
4.000000e-07	-4.543750e-06	-3.729648e-09	-4.895298e+01	-2.475788e+02
4.100000e-07	-4.507120e-06	-3.838803e-09	-4.855833e+01	-2.469630e+02
4.200000e-07	-4.469716e-06	-3.824795e-09	-4.815536e+01	-2.463262e+02
4.300000e-07	-4.431377e-06	-3.739871e-09	-4.774231e+01	-2.456665e+02
4.400000e-07	-4.392172e-06	-3.725294e-09	-4.731993e+01	-2.449829e+02
4.500000e-07	-4.352407e-06	-3.754015e-09	-4.689150e+01	-2.442749e+02
4.600000e-07	-4.312218e-06	-3.757183e-09	-4.645853e+01	-2.435423e+02
4.700000e-07	-4.271303e-06	-3.737673e-09	-4.601772e+01	-2.427854e+02
4.800000e-07	-4.229284e-06	-3.701991e-09	-4.556502e+01	-2.420048e+02
4.900000e-07	-4.186134e-06	-3.674642e-09	-4.510013e+01	-2.412012e+02
5.000000e-07	-4.142205e-06	-3.691031e-09	-4.462686e+01	-2.403752e+02
5.100000e-07	-4.097768e-06	-3.698995e-09	-4.414810e+01	-2.395275e+02
5.200000e-07	-4.052693e-06	-3.657059e-09	-4.366248e+01	-2.386585e+02
5.300000e-07	-4.006882e-06	-3.614275e-09	-4.316893e+01	-2.377683e+02
5.400000e-07	-3.960333e-06	-3.620529e-09	-4.266742e+01	-2.368569e+02
5.500000e-07	-3.913139e-06	-3.641154e-09	-4.215896e+01	-2.359237e+02
5.600000e-07	-3.865413e-06	-3.610565e-09	-4.164478e+01	-2.349679e+02
5.700000e-07	-3.817086e-06	-3.560118e-09	-4.112412e+01	-2.339885e+02
5.800000e-07	-3.767932e-06	-3.552826e-09	-4.059455e+01	-2.329839e+02
5.900000e-07	-3.717749e-06	-3.568085e-09	-4.005389e+01	-2.319527e+02
6.000000e-07	-3.666535e-06	-3.549640e-09	-3.950213e+01	-2.308931e+02
6.100000e-07	-3.614487e-06	-3.501393e-09	-3.894138e+01	-2.298034e+02
6.200000e-07	-3.561709e-06	-3.481746e-09	-3.837277e+01	-2.286816e+02
6.300000e-07	-3.508249e-06	-3.481168e-09	-3.779681e+01	-2.275262e+02
6.400000e-07	-3.454216e-06	-3.462119e-09	-3.721467e+01	-2.263353e+02
6.500000e-07	-3.399561e-06	-3.436508e-09	-3.662584e+01	-2.251077e+02
6.600000e-07	-3.344297e-06	-3.412096e-09	-3.603044e+01	-2.238420e+02
6.700000e-07	-3.288545e-06	-3.393552e-09	-3.542979e+01	-2.225371e+02
6.800000e-07	-3.232469e-06	-3.381585e-09	-3.482564e+01	-2.211921e+02
6.900000e-07	-3.175917e-06	-3.362784e-09	-3.421637e+01	-2.198064e+02
7.000000e-07	-3.118543e-06	-3.328598e-09	-3.359823e+01	-2.183793e+02
7.100000e-07	-3.060247e-06	-3.296730e-09	-3.297017e+01	-2.169106e+02
7.200000e-07	-3.001085e-06	-3.285822e-09	-3.233277e+01	-2.154000e+02
7.300000e-07	-2.941374e-06	-3.268459e-09	-3.168946e+01	-2.138471e+02
7.400000e-07	-2.881379e-06	-3.231163e-09	-3.104310e+01	-2.122518e+02
7.500000e-07	-2.820989e-06	-3.201369e-09	-3.039247e+01	-2.106138e+02
7.600000e-07	-2.760080e-06	-3.185560e-09	-2.973626e+01	-2.089329e+02
7.700000e-07	-2.698719e-06	-3.164857e-09	-2.907518e+01	-2.072085e+02
7.800000e-07	-2.636982e-06	-3.129787e-09	-2.841004e+01	-2.054402e+02
7.900000e-07	-2.574829e-06	-3.095144e-09	-2.774042e+01	-2.036271e+02
8.000000e-07	-2.512149e-06	-3.072353e-09	-2.706512e+01	-2.017682e+02
8.100000e-07	-2.449019e-06	-3.048292e-09	-2.638499e+01	-1.998624e+02
8.200000e-07	-2.385523e-06	-3.015404e-09	-2.570089e+01	-1.979081e+02
8.300000e-07	-2.321665e-06	-2.977038e-09	-2.501291e+01	-1.959036e+02
8.400000e-07	-2.257525e-06	-2.944225e-09	-2.432189e+01	-1.938467e+02
8.500000e-07	-2.193149e-06	-2.918333e-09	-2.362832e+01	-1.917352e+02
8.600000e-07	-2.128595e-06	-2.885879e-09	-2.293283e+01	-1.895661e+02
8.700000e-07	-2.063705e-06	-2.848383e-09	-2.223373e+01	-1.873367e+02
8.800000e-07	-1.998101e-06	-2.809175e-09	-2.152693e+01	-1.850436e+02
8.900000e-07	-1.931965e-06	-2.775427e-09	-2.081440e+01	-1.826832e+02
9.000000e-07	-1.865489e-06	-2.742866e-09	-2.009821e+01	-1.802517e+02
9.100000e-07	-1.798504e-06	-2.698791e-09	-1.937653e+01	-1.777453e+02
9.200000e-07	-1.731068e-06	-2.651338e-09	-1.865000e+01	-1.751596e+02
9.300000e-07	-1.663309e-06	-2.608959e-09	-1.791998e+01	-1.724902e+02
9.400000e-07	-1.595391e-06	-2.571093e-09	-1.718826e+01	-1.697327e+02
9.500000e-07	-1.527398e-06	-2.524834e-09	-1.645572e+01	-1.668823e+02
9.600000e-07	-1.459286e-06	-2.471610e-09	-1.572191e+01	-1.639341e+02
9.700000e-07	-1.391012e-06	-2.425669e-09	-1.498633e+01	-1.608830e+02
9.800000e-07	-1.322526e-06	-2.383143e-09	-1.424849e+01	-1.577236e+02
9.900000e-07	-1.253808e-06	-2.336570e-09	-1.350814e+01	-1.544502e+02
1.000000e-06	-1.184848e-06	-2.281839e-09	-1.276519e+01	-1.510566e+02
1.010000e-06	-1.115586e-06	-2.221893e-09	-1.201899e+01	-1.475363e+02
1.020000e-06	-1.046048e-06	-2.163571e-09	-1.126980e+01	-1.438818e+02
1.030000e-06	-9.762952e-07	-2.106631e-09	-1.051831e+01	-1.400853e+02
1.040000e-06	-9.064196e-07	-2.046750e-09	-9.765488e+00	-1.361380e+02
1.050000e-06	-8.364260e-07	-1.982591e-09	-9.011399e+00	-1.320301e+02
1.060000e-06	-7.662711e-07	-1.916948e-09	-8.255572e+00	-1.277513e+02
1.070000e-06	-6.959998e-07	-1.851018e-09	-7.498489e+00	-1.232901e+02
1.080000e-06	-6.255813e-07	-1.780465e-09	-6.739822e+00	-1.186346e+02
1.090000e-06	-5.550345e-07	-1.703917e-09	-5.979773e+00	-1.137720e+02
1.100000e-06	-4.843775e-07	-1.621890e-09	-5.218536e+00	-1.086895e+02
1.110000e-06	-4.135519e-07	-1.538270e-09	-4.455482e+00	-1.033739e+02
1.120000e-06	-3.426148e-07	-1.455987e-09	-3.691227e+00	-9.781265e+01
1.130000e-06	-2.716593e-07	-1.368141e-09	-2.926775e+00	-9.199392e+01
1.140000e-06	-2.006700e-07	-1.273839e-09	-2.161958e+00	-8.590723e+01
1.150000e-06	-1.296538e-07	-1.176848e-09	-1.396850e+00	-7.954401e+01
1.160000e-06	-5.857952e-08	-1.077228e-09	-6.311179e-01	-7.289814e+01
1.170000e-06	1.248149e-08	-9.721847e-10	1.344718e-01	-6.596655e+01
1.180000e-06	8.346793e-08	-8.617608e-10	8.992581e-01	-5.874973e+01
1.190000e-06	1.544180e-07	-7.499916e-10	1.663652e+00	-5.125221e+01
1.200000e-06	2.253220e-07	-6.331069e-10	2.427550e+00	-4.348299e+01
1.210000e-06	2.961540e-07	-5.116368e-10	3.190672e+00	-3.545573e+01
1.220000e-06	3.668475e-07	-3.869235e-10	3.952303e+00	-2.718896e+01
1.230000e-06	4.374451e-07	-2.544625e-10	4.712900e+00	-1.870604e+01
1.240000e-06	5.079838e-07	-1.208800e-10	5.472863e+00	-1.003496e+01
1.250000e-06	5.784003e-07	1.113599e-11	6.231509e+00	-1.208034e+00
1.260000e-06	6.487001e-07	1.447158e-10	6.988897e+00	7.738629e+00
1.270000e-06	7.188674e-07	2.813511e-10	7.744859e+00	1.676578e+01
1.280000e-06	7.889076e-07	4.199331e-10	8.499450e+00	2.583181e+01
1.290000e-06	8.588493e-07	5.566369e-10	9.252981e+00	3.489367e+01
1.300000e-06	9.286457e-07	6.941929e-10	1.000495e+01	4.390778e+01
1.310000e-06	9.982410e-07	8.311169e-10	1.075474e+01	5.283106e+01
1.320000e-06	1.067668e-06	9.682591e-10	1.150273e+01	6.162195e+01
1.330000e-06	1.136867e-06	1.101714e-09	1.224826e+01	7.024129e+01
1.340000e-06	1.205770e-06	1.229492e-09	1.299060e+01	7.865323e+01
1.350000e-06	1.274454e-06	1.353978e-09	1.373058e+01	8.682597e+01
1.360000e-06	1.342936e-06	1.471374e-09	1.446838e+01	9.473237e+01
1.370000e-06	1.411236e-06	1.582685e-09	1.520422e+01	1.023504e+02
1.380000e-06	1.479410e-06	1.690297e-09	1.593871e+01	1.096632e+02
1.390000e-06	1.547471e-06	1.794343e-09	1.667198e+01	1.166596e+02
1.400000e-06	1.615423e-06	1.894171e-09	1.740408e+01	1.233335e+02
1.410000e-06	1.683206e-06	1.990238e-09	1.813435e+01	1.296839e+02
1.420000e-06	1.750714e-06	2.082109e-09	1.886166e+01	1.357143e+02
1.430000e-06	1.817866e-06	2.168363e-09	1.958514e+01	1.414323e+02
1.440000e-06	1.884539e-06	2.249350e-09	2.030345e+01	1.468486e+02
1.450000e-06	1.950691e-06	2.326671e-09	2.101615e+01	1.519768e+02
1.460000e-06	2.016329e-06	2.398849e-09	2.172331e+01	1.568324e+02
1.470000e-06	2.081477e-06	2.466424e-09	2.242520e+01	1.614319e+02
1.480000e-06	2.146231e-06	2.531152e-09	2.312284e+01	1.657924e+02
1.490000e-06	2.210643e-06	2.594055e-09	2.381680e+01	1.699308e+02
1.500000e-06	2.274752e-06	2.654693e-09	2.450748e+01	1.738637e+02
1.510000e-06	2.338606e-06	2.712855e-09	2.519543e+01	1.776064e+02
1.520000e-06	2.402132e-06	2.767523e-09	2.587984e+01	1.811729e+02
1.530000e-06	2.465192e-06	2.816762e-09	2.655923e+01	1.845760e+02
1.540000e-06	2.527776e-06	2.863587e-09	2.723348e+01	1.878269e+02
1.550000e-06	2.589944e-06	2.909701e-09	2.790327e+01	1.909351e+02
1.560000e-06	2.651697e-06	2.951474e-09	2.856858e+01	1.939092e+02
1.570000e-06	2.712984e-06	2.990363e-09	2.922886e+01	1.967563e+02
1.580000e-06	2.773769e-06	3.030143e-09	2.988374e+01	1.994828e+02
1.590000e-06	2.834129e-06	3.070301e-09	3.053405e+01	2.020942e+02
1.600000e-06	2.894153e-06	3.107356e-09	3.118073e+01	2.045957e+02
1.610000e-06	2.953777e-06	3.140704e-09	3.182310e+01	2.069922e+02
1.620000e-06	3.012829e-06	3.173578e-09	3.245930e+01	2.092886e+02
1.630000e-06	3.071037e-06	3.205442e-09	3.308642e+01	2.114897e+02
1.640000e-06	3.128315e-06	3.236192e-09	3.370351e+01	2.136004e+02
1.650000e-06	3.184939e-06	3.266147e-09	3.431356e+01	2.156257e+02
1.660000e-06	3.241119e-06	3.295042e-09	3.491883e+01	2.175709e+02
1.670000e-06	3.296860e-06	3.322622e-09	3.551936e+01	2.194408e+02
1.680000e-06	3.352060e-06	3.350288e-09	3.611407e+01	2.212406e+02
1.690000e-06	3.406688e-06	3.378922e-09	3.670261e+01	2.229750e+02
1.700000e-06	3.460791e-06	3.404948e-09	3.728550e+01	2.246481e+02
1.710000e-06	3.514312e-06	3.428025e-09	3.786213e+01	2.262639e+02
1.720000e-06	3.567196e-06	3.450587e-09	3.843188e+01	2.278257e+02
1.730000e-06	3.619405e-06	3.473239e-09	3.899437e+01	2.293361e+02
1.740000e-06	3.670872e-06	3.494810e-09	3.954886e+01	2.307971e+02
1.750000e-06	3.721532e-06	3.516882e-09	4.009465e+01	2.322102e+02
1.760000e-06	3.771231e-06	3.538392e-09	4.063009e+01	2.335762e+02
1.770000e-06	3.820017e-06	3.557426e-09	4.115569e+01	2.348956e+02
1.780000e-06	3.868165e-06	3.575494e-09	4.167444e+01	2.361686e+02
1.790000e-06	3.915710e-06	3.594386e-09	4.218666e+01	2.373952e+02
1.800000e-06	3.962604e-06	3.613883e-09	4.269189e+01	2.385755e+02
1.810000e-06	4.008863e-06	3.630728e-09	4.319027e+01	2.397097e+02
1.820000e-06	4.054418e-06	3.645668e-09	4.368106e+01	2.407982e+02
1.830000e-06	4.099272e-06	3.661162e-09	4.416430e+01	2.418420e+02
1.840000e-06	4.143572e-06	3.677594e-09	4.464158e+01	2.428422e+02
1.850000e-06	4.187393e-06	3.692424e-09	4.511370e+01	2.438006e+02
1.860000e-06	4.230478e-06	3.705095e-09	4.557788e+01	2.447194e+02
1.870000e-06	4.272505e-06	3.718449e-09	4.603066e+01	2.456010e+02
1.880000e-06	4.313459e-06	3.734042e-09	4.647189e+01	2.464481e+02
1.890000e-06	4.353596e-06	3.749653e-09	4.690432e+01	2.472637e+02
1.900000e-06	4.393100e-06	3.761593e-09	4.732992e+01	2.480506e+02
1.910000e-06	4.431894e-06	3.772611e-09	4.774787e+01	2.488115e+02
1.920000e-06	4.469984e-06	3.784608e-09	4.815825e+01	2.495488e+02
1.930000e-06	4.507306e-06	3.796203e-09	4.856034e+01	2.502645e+02
1.940000e-06	4.543863e-06	3.807039e-09	4.895420e+01	2.509603e+02
1.950000e-06	4.579807e-06	3.817054e-09	4.934144e+01	2.516371e+02
1.960000e-06	4.614924e-06	3.827223e-09	4.971978e+01	2.522954e+02
1.970000e-06	4.648957e-06	3.837089e-09	5.008645e+01	2.529353e+02
1.980000e-06	4.681949e-06	3.846027e-09	5.044189e+01	2.535563e+02
1.990000e-06	4.714124e-06	3.854634e-09	5.078854e+01	2.541577e+02
2.000000e-06	4.745579e-06	3.864738e-09	5.112742e+01	2.547385e+02
2.010000e-06	4.776297e-06	3.875819e-09	5.145837e+01	2.552978e+02
2.020000e-06	4.806244e-06	3.883853e-09	5.178101e+01	2.558346e+02
2.030000e-06	4.835375e-06	3.890688e-09	5.209486e+01	2.563482e+02
2.040000e-06	4.863781e-06	3.899122e-09	5.240090e+01	2.568382e+02
2.050000e-06	4.891537e-06	3.908106e-09	5.269993e+01	2.573046e+02
2.060000e-06	4.918374e-06	3.915538e-09	5.298906e+01	2.577477e+02
2.070000e-06	4.943987e-06	3.921092e-09	5.326501e+01	2.581685e+02
2.080000e-06	4.968542e-06	3.928251e-09	5.352956e+01	2.585680e+02
2.090000e-06	4.992278e-06	3.935574e-09	5.378528e+01	2.589479e+02
2.100000e-06	5.015213e-06	3.940925e-09	5.403238e+01	2.593099e+02
2.110000e-06	5.037297e-06	3.946082e-09	5.427031e+01	2.596557e+02
2.120000e-06	5.058501e-06	3.951132e-09	5.449875e+01	2.599872e+02
2.130000e-06	5.078967e-06	3.956460e-09	5.471924e+01	2.603057e+02
2.140000e-06	5.098841e-06	3.961846e-09	5.493336e+01	2.606126e+02
2.150000e-06	5.117934e-06	3.966505e-09	5.513907e+01	2.609086e+02
2.160000e-06	5.136144e-06	3.971652e-09	5.533525e+01	2.611940e+02
2.170000e-06	5.153433e-06	3.977145e-09	5.552152e+01	2.614685e+02
2.180000e-06	5.169729e-06	3.983568e-09	5.569708e+01	2.617314e+02
2.190000e-06	5.184996e-06	3.988607e-09	5.586157e+01	2.619815e+02
2.200000e-06	5.199223e-06	3.992099e-09	5.601484e+01	2.622172e+02
2.210000e-06	5.212515e-06	3.997159e-09	5.615805e+01	2.624368e+02
2.220000e-06	5.224889e-06	4.002631e-09	5.629136e+01	2.626385e+02
2.230000e-06	5.236162e-06	4.006770e-09	5.641282e+01	2.628205e+02
2.240000e-06	5.246148e-06	4.009228e-09	5.652040e+01	2.629813e+02
2.250000e-06	5.254983e-06	4.011848e-09	5.661558e+01	2.631198e+02
2.260000e-06	5.262972e-06	4.014152e-09	5.670166e+01	2.632356e+02
2.270000e-06	5.270166e-06	4.016287e-09	5.677917e+01	2.633287e+02
2.280000e-06	5.276430e-06	4.019119e-09	5.684665e+01	2.633998e+02
2.290000e-06	5.281752e-06	4.023290e-09	5.690398e+01	2.634502e+02
2.300000e-06	5.286220e-06	4.027430e-09	5.695212e+01	2.634818e+02
2.310000e-06	5.289946e-06	4.029695e-09	5.699226e+01	2.634968e+02
2.320000e-06	5.292658e-06	4.030898e-09	5.702149e+01	2.634980e+02
2.330000e-06	5.294095e-06	4.032381e-09	5.703696e+01	2.634879e+02
2.340000e-06	5.294516e-06	4.036609e-09	5.704150e+01	2.634691e+02
2.350000e-06	5.294123e-06	4.039472e-09	5.703727e+01	2.634437e+02
2.360000e-06	5.292903e-06	4.037832e-09	5.702412e+01	2.634135e+02
2.370000e-06	5.290834e-06	4.035248e-09	5.700184e+01	2.633794e+02
2.380000e-06	5.287946e-06	4.033957e-09	5.697071e+01	2.633415e+02
2.390000e-06	5.284369e-06	4.034805e-09	5.693218e+01	2.632990e+02
2.400000e-06	5.280097e-06	4.034928e-09	5.688616e+01	2.632501e+02
2.410000e-06	5.274866e-06	4.039206e-09	5.682980e+01	2.631921e+02
2.420000e-06	5.268494e-06	4.056070e-09	5.676115e+01	2.631217e+02
2.430000e-06	5.261142e-06	4.022787e-09	5.668195e+01	2.630347e+02
2.440000e-06	5.252911e-06	3.961816e-09	5.659326e+01	2.629265e+02
2.450000e-06	5.243506e-06	3.933843e-09	5.649194e+01	2.627925e+02
2.460000e-06	5.232764e-06	4.044574e-09	5.637620e+01	2.626280e+02
2.470000e-06	5.221158e-06	4.138030e-09	5.625116e+01	2.624288e+02
2.480000e-06	5.209287e-06	4.018780e-09	5.612327e+01	2.621912e+02
2.490000e-06	5.196659e-06	3.941138e-09	5.598722e+01	2.619124e+02
2.500000e-06	5.182399e-06	3.996866e-09	5.583359e+01	2.615907e+02
2.510000e-06	5.166941e-06	3.995344e-09	5.566705e+01	2.612253e+02
2.520000e-06	5.150984e-06	4.019559e-09	5.549513e+01	2.608170e+02
2.530000e-06	5.134118e-06	4.070359e-09	5.531342e+01	2.603676e+02
2.540000e-06	5.116119e-06	3.906756e-09	5.511951e+01	2.598801e+02
2.550000e-06	5.097560e-06	3.893563e-09	5.491956e+01	2.593585e+02
2.560000e-06	5.078491e-06	4.079889e-09	5.471411e+01	2.588077e+02
2.570000e-06	5.058497e-06	3.961034e-09	5.449871e+01	2.582331e+02
2.580000e-06	5.037366e-06	3.796247e-09	5.427105e+01	2.576405e+02
2.590000e-06	5.014984e-06	3.954461e-09	5.402991e+01	2.570356e+02
2.600000e-06	4.991564e-06	4.017114e-09	5.377759e+01	2.564241e+02
2.610000e-06	4.967327e-06	3.865465e-09	5.351647e+01	2.558110e+02
2.620000e-06	4.942194e-06	3.826888e-09	5.324569e+01	2.552007e+02
2.630000e-06	4.916335e-06	3.833579e-09	5.296710e+01	2.545965e+02
2.640000e-06	4.889779e-06	3.868696e-09	5.268099e+01	2.540009e+02
2.650000e-06	4.862350e-06	3.871829e-09	5.238548e+01	2.534153e+02
2.660000e-06	4.834193e-06	3.822327e-09	5.208212e+01	2.528397e+02
2.670000e-06	4.805083e-06	3.849672e-09	5.176850e+01	2.522734e+02
2.680000e-06	4.774585e-06	3.773742e-09	5.143992e+01	2.517146e+02
2.690000e-06	4.743042e-06	3.793784e-09	5.110009e+01	2.511607e+02
2.700000e-06	4.710917e-06	3.930327e-09	5.075399e+01	2.506084e+02
2.710000e-06	4.678012e-06	3.769990e-09	5.039948e+01	2.500542e+02
2.720000e-06	4.644136e-06	3.670929e-09	5.003451e+01	2.494944e+02
2.730000e-06	4.609501e-06	3.820616e-09	4.966136e+01	2.489251e+02
2.740000e-06	4.574264e-06	3.842195e-09	4.928173e+01	2.483426e+02
2.750000e-06	4.538383e-06	3.740624e-09	4.889516e+01	2.477439e+02
2.760000e-06	4.501673e-06	3.682370e-09	4.849966e+01	2.471261e+02
2.770000e-06	4.463894e-06	3.740555e-09	4.809263e+01	2.464870e+02
2.780000e-06	4.425015e-06	3.771756e-09	4.767376e+01	2.458250e+02
2.790000e-06	4.385335e-06	3.704995e-09	4.724626e+01	2.451390e+02
2.800000e-06	4.345011e-06	3.692696e-09	4.681182e+01	2.444284e+02
2.810000e-06	4.303990e-06	3.683959e-09	4.636987e+01	2.436934e+02
2.820000e-06	4.262265e-06	3.677953e-09	4.592034e+01	2.429341e+02
2.830000e-06	4.219848e-06	3.686746e-09	4.546335e+01	2.421511e+02
2.840000e-06	4.176771e-06	3.667828e-09	4.499926e+01	2.413452e+02
2.850000e-06	4.133151e-06	3.649868e-09	4.452931e+01	2.405170e+02
2.860000e-06	4.089107e-06	3.616872e-09	4.405479e+01	2.396671e+02
2.870000e-06	4.044413e-06	3.633382e-09	4.357328e+01	2.387960e+02
2.880000e-06	3.998932e-06	3.639578e-09	4.308327e+01	2.379037e+02
2.890000e-06	3.952669e-06	3.581081e-09	4.258486e+01	2.369901e+02
2.900000e-06	3.905763e-06	3.568921e-09	4.207950e+01	2.360546e+02
2.910000e-06	3.858285e-06	3.582487e-09	4.156799e+01	2.350965e+02
2.920000e-06	3.809901e-06	3.574365e-09	4.104671e+01	2.341146e+02
2.930000e-06	3.760638e-06	3.531399e-09	4.051596e+01	2.331074e+02
2.940000e-06	3.710751e-06	3.509863e-09	3.997850e+01	2.320735e+02
2.950000e-06	3.660257e-06	3.527097e-09	3.943449e+01	2.310109e+02
