# Temperatura_=_20.0
# Concentracion g/m^3_=_9000.0
# C_Vs_to_Am_M_A/Vsm_=_65563218390.804596
# pendiente_HvsI_1/m_=_3716.3
# ordenada_HvsI_A/m_=_1297.0
# frecuencia_Hz_=_212870.78341781738

Tiempo_(s)	Campo_(V.s)	Magnetizacion_(V.s)	Campo_(kA/m)	Magnetizacion_(A/m)
0.000000e+00	-5.316054e-06	1.137554e-11	-5.699445e+01	3.372863e-01
1.000000e-08	-5.315842e-06	1.066262e-11	-5.699217e+01	3.210038e-01
2.000000e-08	-5.314712e-06	1.060037e-11	-5.698005e+01	3.086659e-01
3.000000e-08	-5.312314e-06	1.032167e-11	-5.695435e+01	3.014067e-01
4.000000e-08	-5.308834e-06	1.078620e-11	-5.691704e+01	2.999206e-01
5.000000e-08	-5.304645e-06	1.139953e-11	-5.687212e+01	3.044208e-01
6.000000e-08	-5.299714e-06	1.057928e-11	-5.681925e+01	3.146261e-01
7.000000e-08	-5.293887e-06	8.990445e-12	-5.675678e+01	3.297776e-01
8.000000e-08	-5.287161e-06	4.371780e-12	-5.668468e+01	3.486836e-01
9.000000e-08	-5.279551e-06	1.455652e-11	-5.660308e+01	3.697905e-01
1.000000e-07	-5.271001e-06	3.810020e-11	-5.651142e+01	3.912754e-01
1.100000e-07	-5.261148e-06	4.879704e-11	-5.640579e+01	4.111553e-01
1.200000e-07	-5.249936e-06	1.504002e-11	-5.628558e+01	4.274062e-01
1.300000e-07	-5.237854e-06	-3.283710e-11	-5.615604e+01	4.380855e-01
1.400000e-07	-5.224970e-06	1.182260e-11	-5.601791e+01	4.414503e-01
1.500000e-07	-5.211193e-06	6.168768e-11	-5.587020e+01	4.360652e-01
1.600000e-07	-5.196695e-06	3.769378e-11	-5.571477e+01	4.208931e-01
1.700000e-07	-5.181135e-06	9.493093e-12	-5.554795e+01	3.953632e-01
1.800000e-07	-5.164104e-06	2.179947e-12	-5.536535e+01	3.594134e-01
1.900000e-07	-5.146166e-06	-1.594906e-13	-5.517304e+01	3.135033e-01
2.000000e-07	-5.127810e-06	5.499893e-11	-5.497625e+01	2.585981e-01
2.100000e-07	-5.108664e-06	6.856621e-11	-5.477098e+01	1.961233e-01
2.200000e-07	-5.088501e-06	-4.161574e-11	-5.455481e+01	1.278936e-01
2.300000e-07	-5.067597e-06	-1.583719e-11	-5.433069e+01	5.601962e-02
2.400000e-07	-5.045954e-06	8.626566e-11	-5.409865e+01	-1.720243e-02
2.500000e-07	-5.023319e-06	4.031588e-11	-5.385597e+01	-8.941146e-02
2.600000e-07	-4.999824e-06	-6.510500e-11	-5.360408e+01	-1.583059e-01
2.700000e-07	-4.975617e-06	-8.018198e-11	-5.334455e+01	-2.217644e-01
2.800000e-07	-4.950519e-06	-2.433581e-11	-5.307547e+01	-2.779568e-01
2.900000e-07	-4.924317e-06	1.034358e-11	-5.279455e+01	-3.254376e-01
3.000000e-07	-4.897001e-06	-2.750439e-11	-5.250170e+01	-3.632182e-01
3.100000e-07	-4.868810e-06	-7.598320e-11	-5.219945e+01	-3.908126e-01
3.200000e-07	-4.839807e-06	-4.590058e-11	-5.188851e+01	-4.082543e-01
3.300000e-07	-4.809855e-06	-1.904017e-11	-5.156738e+01	-4.160846e-01
3.400000e-07	-4.779054e-06	-1.512147e-11	-5.123716e+01	-4.153107e-01
3.500000e-07	-4.747607e-06	-3.010118e-11	-5.090002e+01	-4.073387e-01
3.600000e-07	-4.715473e-06	-7.596242e-11	-5.055550e+01	-3.938835e-01
3.700000e-07	-4.682567e-06	-4.851263e-11	-5.020271e+01	-3.768617e-01
3.800000e-07	-4.648708e-06	2.433852e-11	-4.983970e+01	-3.582740e-01
3.900000e-07	-4.613696e-06	-1.119734e-11	-4.946433e+01	-3.400827e-01
4.000000e-07	-4.577696e-06	-7.876841e-11	-4.907837e+01	-3.240931e-01
4.100000e-07	-4.541022e-06	-4.072181e-11	-4.868517e+01	-3.118444e-01
4.200000e-07	-4.503690e-06	1.382278e-11	-4.828493e+01	-3.045165e-01
4.300000e-07	-4.465431e-06	-1.493292e-11	-4.787475e+01	-3.028593e-01
4.400000e-07	-4.426265e-06	-5.992546e-11	-4.745484e+01	-3.071468e-01
4.500000e-07	-4.386539e-06	-4.315261e-11	-4.702893e+01	-3.171605e-01
4.600000e-07	-4.346391e-06	-1.650694e-11	-4.659850e+01	-3.322012e-01
4.700000e-07	-4.305464e-06	-1.078672e-11	-4.615971e+01	-3.511302e-01
4.800000e-07	-4.263354e-06	-2.043196e-11	-4.570824e+01	-3.724367e-01
4.900000e-07	-4.220153e-06	-4.252359e-11	-4.524507e+01	-3.943274e-01
5.000000e-07	-4.176288e-06	-3.500980e-11	-4.477479e+01	-4.148332e-01
5.100000e-07	-4.131883e-06	-8.694337e-12	-4.429872e+01	-4.319278e-01
5.200000e-07	-4.086834e-06	-8.666354e-12	-4.381574e+01	-4.436490e-01
5.300000e-07	-4.041103e-06	-3.454608e-11	-4.332544e+01	-4.482187e-01
5.400000e-07	-3.994596e-06	-4.031554e-11	-4.282684e+01	-4.441521e-01
5.500000e-07	-3.947423e-06	-1.487337e-11	-4.232109e+01	-4.303513e-01
5.600000e-07	-3.899754e-06	-5.672856e-12	-4.181002e+01	-4.061766e-01
5.700000e-07	-3.851364e-06	-2.240597e-11	-4.129121e+01	-3.714934e-01
5.800000e-07	-3.801970e-06	-3.520072e-11	-4.076166e+01	-3.266890e-01
5.900000e-07	-3.751609e-06	-2.120900e-11	-4.022172e+01	-2.726607e-01
6.000000e-07	-3.700383e-06	-3.234081e-12	-3.967252e+01	-2.107755e-01
6.100000e-07	-3.648382e-06	-1.760285e-11	-3.911500e+01	-1.428017e-01
6.200000e-07	-3.595639e-06	-3.177511e-11	-3.854954e+01	-7.081933e-02
6.300000e-07	-3.542213e-06	-2.064526e-11	-3.797675e+01	2.888457e-03
6.400000e-07	-3.488202e-06	-1.230513e-11	-3.739768e+01	7.595460e-02
6.500000e-07	-3.433536e-06	-1.644076e-11	-3.681160e+01	1.460525e-01
6.600000e-07	-3.378211e-06	-2.134989e-11	-3.621845e+01	2.110179e-01
6.700000e-07	-3.322463e-06	-1.819953e-11	-3.562077e+01	2.689612e-01
6.800000e-07	-3.266402e-06	-1.291814e-11	-3.501973e+01	3.183647e-01
6.900000e-07	-3.209798e-06	-8.993083e-12	-3.441286e+01	3.581577e-01
7.000000e-07	-3.152270e-06	-1.173071e-11	-3.379609e+01	3.877669e-01
7.100000e-07	-3.093713e-06	-2.148621e-11	-3.316829e+01	4.071379e-01
7.200000e-07	-3.034423e-06	-1.761586e-11	-3.253264e+01	4.167276e-01
7.300000e-07	-2.974713e-06	-8.560984e-12	-3.189247e+01	4.174676e-01
7.400000e-07	-2.914681e-06	-1.210666e-11	-3.124885e+01	4.107001e-01
7.500000e-07	-2.854176e-06	-1.946170e-11	-3.060017e+01	3.980921e-01
7.600000e-07	-2.793135e-06	-1.689908e-11	-2.994574e+01	3.815305e-01
7.700000e-07	-2.731655e-06	-7.527029e-12	-2.928660e+01	3.630053e-01
7.800000e-07	-2.669829e-06	-8.307992e-12	-2.862375e+01	3.444886e-01
7.900000e-07	-2.607534e-06	-1.494892e-11	-2.795588e+01	3.278146e-01
8.000000e-07	-2.544643e-06	-1.337445e-11	-2.728161e+01	3.145688e-01
8.100000e-07	-2.481328e-06	-7.174792e-12	-2.660280e+01	3.059925e-01
8.200000e-07	-2.417739e-06	-4.417358e-12	-2.592104e+01	3.029080e-01
8.300000e-07	-2.353905e-06	-8.539070e-12	-2.523667e+01	3.056694e-01
8.400000e-07	-2.289739e-06	-1.073042e-11	-2.454873e+01	3.141407e-01
8.500000e-07	-2.225236e-06	-6.461605e-12	-2.385718e+01	3.277039e-01
8.600000e-07	-2.160476e-06	-4.112514e-12	-2.316288e+01	3.452955e-01
8.700000e-07	-2.095291e-06	-4.937203e-12	-2.246402e+01	3.654696e-01
8.800000e-07	-2.029310e-06	-7.455881e-12	-2.175663e+01	3.864846e-01
8.900000e-07	-1.962653e-06	-6.374963e-12	-2.104198e+01	4.064075e-01
9.000000e-07	-1.895660e-06	-1.519637e-12	-2.032374e+01	4.232303e-01
9.100000e-07	-1.828377e-06	-1.223402e-12	-1.960238e+01	4.349916e-01
9.200000e-07	-1.760859e-06	-4.917138e-12	-1.887851e+01	4.398963e-01
9.300000e-07	-1.693149e-06	-7.919232e-12	-1.815257e+01	4.364270e-01
9.400000e-07	-1.625215e-06	-5.198185e-12	-1.742424e+01	4.234394e-01
9.500000e-07	-1.557085e-06	-2.163143e-12	-1.669381e+01	4.002378e-01
9.600000e-07	-1.488784e-06	-4.251098e-12	-1.596154e+01	3.666242e-01
9.700000e-07	-1.420240e-06	-5.773573e-12	-1.522666e+01	3.229205e-01
9.800000e-07	-1.351385e-06	-4.892699e-12	-1.448846e+01	2.699602e-01
9.900000e-07	-1.282264e-06	-1.325514e-12	-1.374740e+01	2.090517e-01
1.000000e-06	-1.212962e-06	2.517550e-13	-1.300440e+01	1.419141e-01
1.010000e-06	-1.143456e-06	-1.335002e-12	-1.225921e+01	7.058991e-02
1.020000e-06	-1.073678e-06	-3.107169e-12	-1.151110e+01	-2.661114e-03
1.030000e-06	-1.003694e-06	-4.894458e-12	-1.076080e+01	-7.548024e-02
1.040000e-06	-9.336108e-07	-4.480572e-12	-1.000942e+01	-1.455339e-01
1.050000e-06	-8.633028e-07	-4.445809e-12	-9.255636e+00	-2.106363e-01
1.060000e-06	-7.926872e-07	-4.456566e-12	-8.498553e+00	-2.688640e-01
1.070000e-06	-7.219256e-07	-3.145864e-12	-7.739904e+00	-3.186549e-01
1.080000e-06	-6.510689e-07	-2.457905e-12	-6.980235e+00	-3.588877e-01
1.090000e-06	-5.800699e-07	-2.091917e-12	-6.219042e+00	-3.889351e-01
1.100000e-06	-5.089114e-07	-3.993216e-12	-5.456137e+00	-4.086899e-01
1.110000e-06	-4.376353e-07	-5.222934e-12	-4.691972e+00	-4.185610e-01
1.120000e-06	-3.663319e-07	-4.148315e-12	-3.927515e+00	-4.194404e-01
1.130000e-06	-2.950164e-07	-3.998285e-12	-3.162928e+00	-4.126429e-01
1.140000e-06	-2.236514e-07	-3.819237e-12	-2.397810e+00	-3.998218e-01
1.150000e-06	-1.521748e-07	-5.183679e-12	-1.631495e+00	-3.828659e-01
1.160000e-06	-8.067664e-08	-6.587138e-12	-8.649498e-01	-3.637838e-01
1.170000e-06	-9.242825e-09	-6.003514e-12	-9.909411e-02	-3.445814e-01
1.180000e-06	6.212845e-08	-4.619301e-12	6.660911e-01	-3.271413e-01
1.190000e-06	1.334584e-07	-4.016796e-12	1.430833e+00	-3.131088e-01
1.200000e-06	2.047807e-07	-6.041574e-12	2.195493e+00	-3.037935e-01
1.210000e-06	2.760834e-07	-7.120488e-12	2.959944e+00	-3.000906e-01
1.220000e-06	3.472660e-07	-6.039111e-12	3.723106e+00	-3.024269e-01
1.230000e-06	4.183076e-07	-7.010172e-12	4.484757e+00	-3.107347e-01
1.240000e-06	4.893242e-07	-9.177994e-12	5.246139e+00	-3.244552e-01
1.250000e-06	5.602885e-07	-9.698830e-12	6.006962e+00	-3.425713e-01
1.260000e-06	6.311062e-07	-8.236447e-12	6.766211e+00	-3.636668e-01
1.270000e-06	7.017488e-07	-6.303028e-12	7.523585e+00	-3.860108e-01
1.280000e-06	7.721767e-07	-5.848944e-12	8.278655e+00	-4.076600e-01
1.290000e-06	8.424107e-07	-5.262211e-12	9.031648e+00	-4.265750e-01
1.300000e-06	9.125306e-07	-5.582985e-12	9.783416e+00	-4.407420e-01
1.310000e-06	9.825335e-07	-5.010711e-12	1.053393e+01	-4.482951e-01
1.320000e-06	1.052399e-06	-5.965655e-12	1.128298e+01	-4.476296e-01
1.330000e-06	1.122115e-06	-8.407194e-12	1.203041e+01	-4.375019e-01
1.340000e-06	1.191633e-06	-7.377362e-12	1.277573e+01	-4.171093e-01
1.350000e-06	1.260970e-06	-5.540826e-12	1.351910e+01	-3.861443e-01
1.360000e-06	1.330102e-06	-3.642560e-12	1.426028e+01	-3.448218e-01
1.370000e-06	1.398925e-06	-3.505221e-12	1.499814e+01	-2.938765e-01
1.380000e-06	1.467507e-06	-3.051358e-12	1.573343e+01	-2.345310e-01
1.390000e-06	1.535868e-06	-1.698465e-12	1.646634e+01	-1.684358e-01
1.400000e-06	1.603955e-06	-2.408070e-12	1.719631e+01	-9.758556e-02
1.410000e-06	1.671860e-06	-4.207186e-12	1.792434e+01	-2.421558e-02
1.420000e-06	1.739617e-06	-4.966966e-12	1.865077e+01	4.931513e-02
1.430000e-06	1.807183e-06	-3.887339e-12	1.937516e+01	1.206479e-01
1.440000e-06	1.874569e-06	-4.691681e-12	2.009762e+01	1.875482e-01
1.450000e-06	1.941609e-06	-7.195075e-12	2.081636e+01	2.480222e-01
1.460000e-06	2.008129e-06	-7.488910e-12	2.152954e+01	3.004199e-01
1.470000e-06	2.074052e-06	-5.129795e-12	2.223631e+01	3.435178e-01
1.480000e-06	2.139373e-06	-2.805190e-12	2.293663e+01	3.765776e-01
1.490000e-06	2.204176e-06	-2.497748e-12	2.363140e+01	3.993777e-01
1.500000e-06	2.268543e-06	-2.455026e-12	2.432149e+01	4.122142e-01
1.510000e-06	2.332594e-06	-2.389663e-12	2.500819e+01	4.158736e-01
1.520000e-06	2.396356e-06	-2.087337e-12	2.569180e+01	4.115766e-01
1.530000e-06	2.459798e-06	-5.103642e-13	2.637196e+01	4.008990e-01
1.540000e-06	2.522871e-06	3.414793e-13	2.704819e+01	3.856708e-01
1.550000e-06	2.585495e-06	4.653783e-14	2.771959e+01	3.678636e-01
1.560000e-06	2.647651e-06	1.010550e-12	2.838598e+01	3.494686e-01
1.570000e-06	2.709371e-06	2.895752e-12	2.904769e+01	3.323758e-01
1.580000e-06	2.770674e-06	3.784791e-12	2.970493e+01	3.182592e-01
1.590000e-06	2.831484e-06	3.969190e-12	3.035689e+01	3.084757e-01
1.600000e-06	2.891777e-06	3.935816e-12	3.100330e+01	3.039831e-01
1.610000e-06	2.951695e-06	4.458423e-12	3.164569e+01	3.052822e-01
1.620000e-06	3.011242e-06	5.537774e-12	3.228411e+01	3.123865e-01
1.630000e-06	3.070235e-06	5.893419e-12	3.291659e+01	3.248207e-01
1.640000e-06	3.128430e-06	5.671539e-12	3.354051e+01	3.416486e-01
1.650000e-06	3.185699e-06	6.486987e-12	3.415450e+01	3.615285e-01
1.660000e-06	3.242179e-06	7.969345e-12	3.476003e+01	3.827937e-01
1.670000e-06	3.298145e-06	9.491844e-12	3.536005e+01	4.035514e-01
1.680000e-06	3.353726e-06	1.043221e-11	3.595594e+01	4.217969e-01
1.690000e-06	3.408834e-06	1.040127e-11	3.654676e+01	4.355347e-01
1.700000e-06	3.463366e-06	1.002923e-11	3.713141e+01	4.428997e-01
1.710000e-06	3.517327e-06	9.738936e-12	3.770994e+01	4.422724e-01
1.720000e-06	3.570747e-06	1.033722e-11	3.828267e+01	4.323797e-01
1.730000e-06	3.623524e-06	1.056850e-11	3.884851e+01	4.123777e-01
1.740000e-06	3.675567e-06	1.111372e-11	3.940646e+01	3.819095e-01
1.750000e-06	3.726871e-06	1.231387e-11	3.995651e+01	3.411358e-01
1.760000e-06	3.777285e-06	1.289838e-11	4.049701e+01	2.907364e-01
1.770000e-06	3.826622e-06	1.351849e-11	4.102596e+01	2.318815e-01
1.780000e-06	3.875051e-06	1.510652e-11	4.154517e+01	1.661762e-01
1.790000e-06	3.922929e-06	1.546982e-11	4.205848e+01	9.557946e-02
1.800000e-06	3.970253e-06	1.371428e-11	4.256585e+01	2.230270e-02
1.810000e-06	4.016850e-06	1.267123e-11	4.306542e+01	-5.130521e-02
1.820000e-06	4.062775e-06	1.356460e-11	4.355780e+01	-1.228814e-01
1.830000e-06	4.108009e-06	1.515099e-11	4.404276e+01	-1.901733e-01
1.840000e-06	4.152518e-06	1.578369e-11	4.451995e+01	-2.511561e-01
1.850000e-06	4.196512e-06	1.518832e-11	4.499162e+01	-3.041379e-01
1.860000e-06	4.240029e-06	1.527758e-11	4.545817e+01	-3.478454e-01
1.870000e-06	4.282732e-06	1.686251e-11	4.591600e+01	-3.814861e-01
1.880000e-06	4.324229e-06	1.755532e-11	4.636090e+01	-4.047829e-01
1.890000e-06	4.364648e-06	1.589658e-11	4.679423e+01	-4.179793e-01
1.900000e-06	4.404413e-06	1.555251e-11	4.722057e+01	-4.218156e-01
1.910000e-06	4.443554e-06	1.835328e-11	4.764020e+01	-4.174763e-01
1.920000e-06	4.481997e-06	2.045194e-11	4.805236e+01	-4.065134e-01
1.930000e-06	4.519710e-06	2.058828e-11	4.845669e+01	-3.907481e-01
1.940000e-06	4.556572e-06	2.036544e-11	4.885189e+01	-3.721588e-01
1.950000e-06	4.592735e-06	2.049402e-11	4.923960e+01	-3.527598e-01
1.960000e-06	4.628343e-06	2.204051e-11	4.962136e+01	-3.344798e-01
1.970000e-06	4.663141e-06	2.345614e-11	4.999443e+01	-3.190453e-01
1.980000e-06	4.696736e-06	2.349323e-11	5.035461e+01	-3.078767e-01
1.990000e-06	4.729224e-06	2.407404e-11	5.070293e+01	-3.020038e-01
2.000000e-06	4.760977e-06	2.450231e-11	5.104336e+01	-3.020035e-01
2.010000e-06	4.791981e-06	2.400180e-11	5.137575e+01	-3.079653e-01
2.020000e-06	4.822156e-06	2.443768e-11	5.169927e+01	-3.194860e-01
2.030000e-06	4.851550e-06	2.572043e-11	5.201441e+01	-3.356932e-01
2.040000e-06	4.880154e-06	2.698320e-11	5.232107e+01	-3.552971e-01
2.050000e-06	4.908101e-06	2.844054e-11	5.262070e+01	-3.766675e-01
2.060000e-06	4.935376e-06	2.950523e-11	5.291312e+01	-3.979305e-01
2.070000e-06	4.961534e-06	3.010483e-11	5.319357e+01	-4.170817e-01
2.080000e-06	4.986455e-06	3.021096e-11	5.346075e+01	-4.321058e-01
2.090000e-06	5.010435e-06	3.047426e-11	5.371784e+01	-4.410993e-01
2.100000e-06	5.033631e-06	3.113043e-11	5.396653e+01	-4.423869e-01
2.110000e-06	5.056042e-06	3.210837e-11	5.420681e+01	-4.346248e-01
2.120000e-06	5.077600e-06	3.351939e-11	5.443793e+01	-4.168872e-01
2.130000e-06	5.098334e-06	3.600339e-11	5.466022e+01	-3.887276e-01
2.140000e-06	5.118434e-06	3.842613e-11	5.487571e+01	-3.502142e-01
2.150000e-06	5.137863e-06	3.894754e-11	5.508402e+01	-3.019357e-01
2.160000e-06	5.156379e-06	3.915437e-11	5.528253e+01	-2.449777e-01
2.170000e-06	5.173883e-06	3.957001e-11	5.547020e+01	-1.808705e-01
2.180000e-06	5.190479e-06	3.923852e-11	5.564812e+01	-1.115125e-01
2.190000e-06	5.206169e-06	3.802752e-11	5.581634e+01	-3.907137e-02
2.200000e-06	5.220790e-06	3.649331e-11	5.597310e+01	3.412876e-02
2.210000e-06	5.234393e-06	3.740720e-11	5.611893e+01	1.057301e-01
2.220000e-06	5.247058e-06	3.855209e-11	5.625472e+01	1.734650e-01
2.230000e-06	5.258747e-06	3.818190e-11	5.638004e+01	2.352751e-01
2.240000e-06	5.269251e-06	3.900851e-11	5.649266e+01	2.894185e-01
2.250000e-06	5.278471e-06	4.076873e-11	5.659150e+01	3.345581e-01
2.260000e-06	5.286694e-06	4.182823e-11	5.667967e+01	3.698277e-01
2.270000e-06	5.294108e-06	4.153561e-11	5.675915e+01	3.948706e-01
2.280000e-06	5.300631e-06	4.152921e-11	5.682909e+01	4.098499e-01
2.290000e-06	5.306191e-06	4.097529e-11	5.688870e+01	4.154279e-01
2.300000e-06	5.310856e-06	4.051734e-11	5.693872e+01	4.127192e-01
2.310000e-06	5.314827e-06	4.053274e-11	5.698128e+01	4.032159e-01
2.320000e-06	5.317954e-06	4.124631e-11	5.701481e+01	3.886942e-01
2.330000e-06	5.319798e-06	4.171752e-11	5.703458e+01	3.711030e-01
2.340000e-06	5.320443e-06	4.081991e-11	5.704150e+01	3.524447e-01
2.350000e-06	5.320288e-06	4.061315e-11	5.703984e+01	3.346534e-01
2.360000e-06	5.319362e-06	4.013463e-11	5.702990e+01	3.194776e-01
2.370000e-06	5.317540e-06	4.022178e-11	5.701037e+01	3.083744e-01
2.380000e-06	5.314932e-06	4.122448e-11	5.698241e+01	3.024221e-01
2.390000e-06	5.311565e-06	4.096028e-11	5.694632e+01	3.022547e-01
2.400000e-06	5.307477e-06	4.076090e-11	5.690249e+01	3.080237e-01
2.410000e-06	5.302612e-06	4.040854e-11	5.685033e+01	3.193879e-01
2.420000e-06	5.296628e-06	3.360884e-11	5.678617e+01	3.355335e-01
2.430000e-06	5.289502e-06	3.606846e-11	5.670978e+01	3.552214e-01
2.440000e-06	5.281481e-06	5.787287e-11	5.662378e+01	3.768611e-01
2.450000e-06	5.272349e-06	8.046345e-11	5.652587e+01	3.986046e-01
2.460000e-06	5.261839e-06	5.584225e-11	5.641320e+01	4.184574e-01
2.470000e-06	5.250323e-06	2.194695e-12	5.628972e+01	4.343976e-01
2.480000e-06	5.238468e-06	8.256772e-12	5.616263e+01	4.444981e-01
2.490000e-06	5.226137e-06	8.108784e-11	5.603043e+01	4.470445e-01
2.500000e-06	5.212291e-06	8.016926e-11	5.588197e+01	4.406406e-01
2.510000e-06	5.196927e-06	3.917928e-11	5.571726e+01	4.242972e-01
2.520000e-06	5.181009e-06	5.933391e-11	5.554660e+01	3.974980e-01
2.530000e-06	5.164415e-06	1.611609e-11	5.536869e+01	3.602380e-01
2.540000e-06	5.146600e-06	5.199119e-11	5.517769e+01	3.130343e-01
2.550000e-06	5.128006e-06	1.295544e-10	5.497834e+01	2.569069e-01
2.560000e-06	5.109025e-06	2.262782e-11	5.477484e+01	1.933300e-01
2.570000e-06	5.089244e-06	-4.081247e-11	5.456276e+01	1.241594e-01
2.580000e-06	5.068387e-06	4.950814e-11	5.433915e+01	5.153642e-02
2.590000e-06	5.046271e-06	1.116093e-11	5.410205e+01	-2.222323e-02
2.600000e-06	5.022995e-06	-1.010478e-10	5.385250e+01	-9.475094e-02
2.610000e-06	4.998924e-06	-5.308292e-11	5.359443e+01	-1.637495e-01
2.620000e-06	4.973937e-06	-1.349883e-11	5.332654e+01	-2.271133e-01
2.630000e-06	4.948172e-06	-4.408888e-13	5.305030e+01	-2.830374e-01
2.640000e-06	4.921759e-06	-4.030366e-12	5.276713e+01	-3.301097e-01
2.650000e-06	4.894447e-06	-6.204232e-11	5.247431e+01	-3.673802e-01
2.660000e-06	4.866363e-06	-4.245547e-11	5.217321e+01	-3.944044e-01
2.670000e-06	4.837505e-06	-2.010317e-11	5.186383e+01	-4.112577e-01
2.680000e-06	4.807316e-06	-6.818722e-12	5.154016e+01	-4.185202e-01
2.690000e-06	4.775871e-06	1.065034e-13	5.120304e+01	-4.172329e-01
2.700000e-06	4.743828e-06	-7.624712e-11	5.085950e+01	-4.088284e-01
2.710000e-06	4.711121e-06	-5.526971e-11	5.050884e+01	-3.950388e-01
2.720000e-06	4.677358e-06	3.559413e-11	5.014686e+01	-3.777881e-01
2.730000e-06	4.642719e-06	3.644559e-12	4.977548e+01	-3.590734e-01
2.740000e-06	4.607516e-06	-5.930366e-11	4.939807e+01	-3.408432e-01
2.750000e-06	4.571655e-06	-5.176344e-11	4.901360e+01	-3.248794e-01
2.760000e-06	4.534911e-06	8.454023e-12	4.861965e+01	-3.126896e-01
2.770000e-06	4.497203e-06	1.542346e-11	4.821538e+01	-3.054166e-01
2.780000e-06	4.458528e-06	-3.619898e-11	4.780073e+01	-3.037692e-01
2.790000e-06	4.418977e-06	-2.978417e-11	4.737671e+01	-3.079798e-01
2.800000e-06	4.378726e-06	-1.106012e-11	4.694517e+01	-3.177902e-01
2.810000e-06	4.337792e-06	-6.480580e-12	4.650631e+01	-3.324662e-01
2.820000e-06	4.296166e-06	-2.426757e-12	4.606002e+01	-3.508419e-01
2.830000e-06	4.253771e-06	-1.808280e-11	4.560551e+01	-3.713887e-01
2.840000e-06	4.210612e-06	-2.291378e-11	4.514278e+01	-3.923067e-01
2.850000e-06	4.166933e-06	-1.860612e-11	4.467450e+01	-4.116330e-01
2.860000e-06	4.122809e-06	-3.689512e-12	4.420144e+01	-4.273596e-01
2.870000e-06	4.078062e-06	-7.354188e-12	4.372169e+01	-4.375557e-01
2.880000e-06	4.032501e-06	-2.687634e-11	4.323322e+01	-4.404859e-01
2.890000e-06	3.986177e-06	-1.573157e-11	4.273658e+01	-4.347177e-01
2.900000e-06	3.939143e-06	-5.989121e-12	4.223232e+01	-4.192129e-01
2.910000e-06	3.891471e-06	-1.036534e-11	4.172122e+01	-3.933965e-01
2.920000e-06	3.843105e-06	-2.223879e-11	4.120267e+01	-3.571997e-01
2.930000e-06	3.793896e-06	-1.928601e-11	4.067509e+01	-3.110741e-01
2.940000e-06	3.744003e-06	-5.489721e-12	4.014018e+01	-2.559765e-01
