# Temperatura_=_20.0
# Concentracion g/m^3_=_9000.0
# C_Vs_to_Am_M_A/Vsm_=_65563218390.804596
# pendiente_HvsI_1/m_=_3716.3
# ordenada_HvsI_A/m_=_1297.0
# frecuencia_Hz_=_134961.57670833392

Tiempo_(s)	Campo_(V.s)	Magnetizacion_(V.s)	Campo_(kA/m)	Magnetizacion_(A/m)
0.000000e+00	-2.546790e-06	-2.904129e-09	-1.987249e+01	-1.896881e+02
1.000000e-08	-2.547114e-06	-2.914578e-09	-1.987502e+01	-1.896601e+02
2.000000e-08	-2.547303e-06	-2.933457e-09	-1.987650e+01	-1.896180e+02
3.000000e-08	-2.547395e-06	-2.936096e-09	-1.987721e+01	-1.895624e+02
4.000000e-08	-2.547377e-06	-2.901790e-09	-1.987707e+01	-1.894937e+02
5.000000e-08	-2.547228e-06	-2.896872e-09	-1.987591e+01	-1.894123e+02
6.000000e-08	-2.546929e-06	-2.879304e-09	-1.987358e+01	-1.893188e+02
7.000000e-08	-2.546485e-06	-2.894223e-09	-1.987012e+01	-1.892136e+02
8.000000e-08	-2.545843e-06	-2.919427e-09	-1.986510e+01	-1.890975e+02
9.000000e-08	-2.544978e-06	-2.966005e-09	-1.985836e+01	-1.889710e+02
1.000000e-07	-2.543887e-06	-3.004362e-09	-1.984984e+01	-1.888347e+02
1.100000e-07	-2.542516e-06	-2.959587e-09	-1.983914e+01	-1.886895e+02
1.200000e-07	-2.540877e-06	-2.902312e-09	-1.982635e+01	-1.885358e+02
1.300000e-07	-2.538866e-06	-2.825289e-09	-1.981066e+01	-1.883745e+02
1.400000e-07	-2.536404e-06	-2.791348e-09	-1.979145e+01	-1.882063e+02
1.500000e-07	-2.533688e-06	-2.860839e-09	-1.977026e+01	-1.880318e+02
1.600000e-07	-2.530780e-06	-2.949222e-09	-1.974757e+01	-1.878517e+02
1.700000e-07	-2.527658e-06	-2.837663e-09	-1.972321e+01	-1.876668e+02
1.800000e-07	-2.524301e-06	-2.776575e-09	-1.969701e+01	-1.874776e+02
1.900000e-07	-2.520695e-06	-2.825703e-09	-1.966888e+01	-1.872848e+02
2.000000e-07	-2.517004e-06	-2.889989e-09	-1.964008e+01	-1.870891e+02
2.100000e-07	-2.513238e-06	-2.806797e-09	-1.961069e+01	-1.868909e+02
2.200000e-07	-2.509374e-06	-2.735085e-09	-1.958053e+01	-1.866909e+02
2.300000e-07	-2.505444e-06	-2.754638e-09	-1.954987e+01	-1.864894e+02
2.400000e-07	-2.501438e-06	-2.863876e-09	-1.951861e+01	-1.862870e+02
2.500000e-07	-2.497315e-06	-2.875760e-09	-1.948644e+01	-1.860841e+02
2.600000e-07	-2.493048e-06	-2.771766e-09	-1.945315e+01	-1.858809e+02
2.700000e-07	-2.488594e-06	-2.743166e-09	-1.941839e+01	-1.856778e+02
2.800000e-07	-2.484003e-06	-2.818608e-09	-1.938257e+01	-1.854750e+02
2.900000e-07	-2.479225e-06	-2.909056e-09	-1.934528e+01	-1.852727e+02
3.000000e-07	-2.474210e-06	-2.844405e-09	-1.930616e+01	-1.850710e+02
3.100000e-07	-2.469030e-06	-2.744226e-09	-1.926573e+01	-1.848699e+02
3.200000e-07	-2.463678e-06	-2.740984e-09	-1.922398e+01	-1.846695e+02
3.300000e-07	-2.458213e-06	-2.876040e-09	-1.918133e+01	-1.844698e+02
3.400000e-07	-2.452603e-06	-2.882194e-09	-1.913756e+01	-1.842705e+02
3.500000e-07	-2.446791e-06	-2.754041e-09	-1.909221e+01	-1.840716e+02
3.600000e-07	-2.440748e-06	-2.685205e-09	-1.904505e+01	-1.838728e+02
3.700000e-07	-2.434554e-06	-2.808553e-09	-1.899672e+01	-1.836740e+02
3.800000e-07	-2.428242e-06	-2.878283e-09	-1.894747e+01	-1.834747e+02
3.900000e-07	-2.421693e-06	-2.787552e-09	-1.889636e+01	-1.832748e+02
4.000000e-07	-2.414931e-06	-2.681132e-09	-1.884360e+01	-1.830737e+02
4.100000e-07	-2.408032e-06	-2.745697e-09	-1.878977e+01	-1.828712e+02
4.200000e-07	-2.400999e-06	-2.843113e-09	-1.873489e+01	-1.826668e+02
4.300000e-07	-2.393811e-06	-2.816524e-09	-1.867880e+01	-1.824601e+02
4.400000e-07	-2.386466e-06	-2.708927e-09	-1.862149e+01	-1.822505e+02
4.500000e-07	-2.378919e-06	-2.698301e-09	-1.856261e+01	-1.820377e+02
4.600000e-07	-2.371249e-06	-2.779263e-09	-1.850276e+01	-1.818212e+02
4.700000e-07	-2.363517e-06	-2.807745e-09	-1.844242e+01	-1.816005e+02
4.800000e-07	-2.355677e-06	-2.732368e-09	-1.838124e+01	-1.813750e+02
4.900000e-07	-2.347736e-06	-2.676011e-09	-1.831928e+01	-1.811444e+02
5.000000e-07	-2.339628e-06	-2.723606e-09	-1.825602e+01	-1.809082e+02
5.100000e-07	-2.331393e-06	-2.785140e-09	-1.819176e+01	-1.806659e+02
5.200000e-07	-2.323062e-06	-2.756800e-09	-1.812676e+01	-1.804171e+02
5.300000e-07	-2.314598e-06	-2.685131e-09	-1.806071e+01	-1.801615e+02
5.400000e-07	-2.305982e-06	-2.689846e-09	-1.799348e+01	-1.798985e+02
5.500000e-07	-2.297139e-06	-2.745949e-09	-1.792447e+01	-1.796279e+02
5.600000e-07	-2.287999e-06	-2.749496e-09	-1.785316e+01	-1.793494e+02
5.700000e-07	-2.278586e-06	-2.683436e-09	-1.777971e+01	-1.790626e+02
5.800000e-07	-2.268835e-06	-2.655642e-09	-1.770362e+01	-1.787673e+02
5.900000e-07	-2.258717e-06	-2.694019e-09	-1.762467e+01	-1.784632e+02
6.000000e-07	-2.248338e-06	-2.727334e-09	-1.754368e+01	-1.781503e+02
6.100000e-07	-2.237725e-06	-2.688026e-09	-1.746087e+01	-1.778282e+02
6.200000e-07	-2.226898e-06	-2.644019e-09	-1.737639e+01	-1.774969e+02
6.300000e-07	-2.215818e-06	-2.656723e-09	-1.728993e+01	-1.771563e+02
6.400000e-07	-2.204540e-06	-2.700376e-09	-1.720193e+01	-1.768063e+02
6.500000e-07	-2.193155e-06	-2.683100e-09	-1.711309e+01	-1.764468e+02
6.600000e-07	-2.181625e-06	-2.630876e-09	-1.702313e+01	-1.760780e+02
6.700000e-07	-2.169938e-06	-2.620784e-09	-1.693193e+01	-1.756997e+02
6.800000e-07	-2.158140e-06	-2.663979e-09	-1.683987e+01	-1.753120e+02
6.900000e-07	-2.146206e-06	-2.670004e-09	-1.674675e+01	-1.749150e+02
7.000000e-07	-2.134129e-06	-2.627146e-09	-1.665252e+01	-1.745087e+02
7.100000e-07	-2.121939e-06	-2.600185e-09	-1.655740e+01	-1.740933e+02
7.200000e-07	-2.109686e-06	-2.622426e-09	-1.646179e+01	-1.736688e+02
7.300000e-07	-2.097281e-06	-2.636845e-09	-1.636499e+01	-1.732354e+02
7.400000e-07	-2.084609e-06	-2.612969e-09	-1.626612e+01	-1.727931e+02
7.500000e-07	-2.071744e-06	-2.581271e-09	-1.616573e+01	-1.723421e+02
7.600000e-07	-2.058710e-06	-2.578976e-09	-1.606403e+01	-1.718824e+02
7.700000e-07	-2.045485e-06	-2.595154e-09	-1.596083e+01	-1.714142e+02
7.800000e-07	-2.032002e-06	-2.596641e-09	-1.585562e+01	-1.709375e+02
7.900000e-07	-2.018388e-06	-2.571127e-09	-1.574939e+01	-1.704525e+02
8.000000e-07	-2.004725e-06	-2.548844e-09	-1.564278e+01	-1.699592e+02
8.100000e-07	-1.990874e-06	-2.558484e-09	-1.553470e+01	-1.694577e+02
8.200000e-07	-1.976810e-06	-2.571050e-09	-1.542496e+01	-1.689479e+02
8.300000e-07	-1.962580e-06	-2.550900e-09	-1.531393e+01	-1.684299e+02
8.400000e-07	-1.948118e-06	-2.517148e-09	-1.520108e+01	-1.679037e+02
8.500000e-07	-1.933481e-06	-2.515632e-09	-1.508687e+01	-1.673693e+02
8.600000e-07	-1.918842e-06	-2.528921e-09	-1.497264e+01	-1.668266e+02
8.700000e-07	-1.904090e-06	-2.518838e-09	-1.485753e+01	-1.662754e+02
8.800000e-07	-1.888990e-06	-2.489664e-09	-1.473971e+01	-1.657158e+02
8.900000e-07	-1.873624e-06	-2.481156e-09	-1.461981e+01	-1.651475e+02
9.000000e-07	-1.858068e-06	-2.487203e-09	-1.449843e+01	-1.645705e+02
9.100000e-07	-1.842201e-06	-2.483646e-09	-1.437462e+01	-1.639845e+02
9.200000e-07	-1.826151e-06	-2.462068e-09	-1.424938e+01	-1.633894e+02
9.300000e-07	-1.809924e-06	-2.444536e-09	-1.412276e+01	-1.627850e+02
9.400000e-07	-1.793564e-06	-2.439292e-09	-1.399510e+01	-1.621709e+02
9.500000e-07	-1.777077e-06	-2.438673e-09	-1.386646e+01	-1.615470e+02
9.600000e-07	-1.760460e-06	-2.426344e-09	-1.373679e+01	-1.609130e+02
9.700000e-07	-1.743813e-06	-2.406229e-09	-1.360689e+01	-1.602687e+02
9.800000e-07	-1.727009e-06	-2.392114e-09	-1.347578e+01	-1.596137e+02
9.900000e-07	-1.710092e-06	-2.391042e-09	-1.334377e+01	-1.589478e+02
1.000000e-06	-1.693093e-06	-2.384896e-09	-1.321113e+01	-1.582706e+02
1.010000e-06	-1.675914e-06	-2.367142e-09	-1.307708e+01	-1.575820e+02
1.020000e-06	-1.658646e-06	-2.352317e-09	-1.294234e+01	-1.568816e+02
1.030000e-06	-1.641363e-06	-2.347450e-09	-1.280749e+01	-1.561692e+02
1.040000e-06	-1.623982e-06	-2.339704e-09	-1.267186e+01	-1.554444e+02
1.050000e-06	-1.606478e-06	-2.323555e-09	-1.253528e+01	-1.547071e+02
1.060000e-06	-1.588898e-06	-2.307403e-09	-1.239810e+01	-1.539570e+02
1.070000e-06	-1.571300e-06	-2.298457e-09	-1.226078e+01	-1.531938e+02
1.080000e-06	-1.553642e-06	-2.290800e-09	-1.212300e+01	-1.524174e+02
1.090000e-06	-1.535935e-06	-2.277463e-09	-1.198483e+01	-1.516275e+02
1.100000e-06	-1.518153e-06	-2.261679e-09	-1.184609e+01	-1.508240e+02
1.110000e-06	-1.500278e-06	-2.247526e-09	-1.170660e+01	-1.500068e+02
1.120000e-06	-1.482330e-06	-2.236758e-09	-1.156656e+01	-1.491758e+02
1.130000e-06	-1.464224e-06	-2.223900e-09	-1.142527e+01	-1.483307e+02
1.140000e-06	-1.445966e-06	-2.206943e-09	-1.128281e+01	-1.474716e+02
1.150000e-06	-1.427614e-06	-2.191492e-09	-1.113961e+01	-1.465984e+02
1.160000e-06	-1.409225e-06	-2.180230e-09	-1.099612e+01	-1.457110e+02
1.170000e-06	-1.390678e-06	-2.168440e-09	-1.085140e+01	-1.448095e+02
1.180000e-06	-1.371915e-06	-2.155618e-09	-1.070499e+01	-1.438938e+02
1.190000e-06	-1.352988e-06	-2.142476e-09	-1.055731e+01	-1.429640e+02
1.200000e-06	-1.334006e-06	-2.132484e-09	-1.040919e+01	-1.420202e+02
1.210000e-06	-1.314971e-06	-2.120152e-09	-1.026066e+01	-1.410622e+02
1.220000e-06	-1.295800e-06	-2.105904e-09	-1.011107e+01	-1.400903e+02
1.230000e-06	-1.276556e-06	-2.089642e-09	-9.960914e+00	-1.391046e+02
1.240000e-06	-1.257292e-06	-2.074632e-09	-9.810596e+00	-1.381050e+02
1.250000e-06	-1.238008e-06	-2.060823e-09	-9.660120e+00	-1.370916e+02
1.260000e-06	-1.218592e-06	-2.045497e-09	-9.508621e+00	-1.360646e+02
1.270000e-06	-1.199062e-06	-2.028000e-09	-9.356231e+00	-1.350240e+02
1.280000e-06	-1.179479e-06	-2.014572e-09	-9.203428e+00	-1.339699e+02
1.290000e-06	-1.159814e-06	-2.002138e-09	-9.049980e+00	-1.329023e+02
1.300000e-06	-1.140133e-06	-1.986119e-09	-8.896411e+00	-1.318213e+02
1.310000e-06	-1.120447e-06	-1.967433e-09	-8.742797e+00	-1.307269e+02
1.320000e-06	-1.100702e-06	-1.950375e-09	-8.588734e+00	-1.296191e+02
1.330000e-06	-1.080914e-06	-1.932865e-09	-8.434326e+00	-1.284978e+02
1.340000e-06	-1.061113e-06	-1.913315e-09	-8.279817e+00	-1.273631e+02
1.350000e-06	-1.041300e-06	-1.896038e-09	-8.125222e+00	-1.262148e+02
1.360000e-06	-1.021464e-06	-1.878069e-09	-7.970440e+00	-1.250529e+02
1.370000e-06	-1.001601e-06	-1.859835e-09	-7.815453e+00	-1.238771e+02
1.380000e-06	-9.817339e-07	-1.844559e-09	-7.660427e+00	-1.226874e+02
1.390000e-06	-9.618387e-07	-1.829423e-09	-7.505186e+00	-1.214834e+02
1.400000e-06	-9.419012e-07	-1.811242e-09	-7.349615e+00	-1.202650e+02
1.410000e-06	-9.219436e-07	-1.794524e-09	-7.193887e+00	-1.190319e+02
1.420000e-06	-9.019548e-07	-1.773377e-09	-7.037914e+00	-1.177836e+02
1.430000e-06	-8.819336e-07	-1.747162e-09	-6.881690e+00	-1.165200e+02
1.440000e-06	-8.618146e-07	-1.721578e-09	-6.724703e+00	-1.152404e+02
1.450000e-06	-8.416170e-07	-1.698491e-09	-6.567101e+00	-1.139446e+02
1.460000e-06	-8.213627e-07	-1.677414e-09	-6.409058e+00	-1.126320e+02
1.470000e-06	-8.010863e-07	-1.658367e-09	-6.250842e+00	-1.113021e+02
1.480000e-06	-7.807335e-07	-1.640711e-09	-6.092030e+00	-1.099545e+02
1.490000e-06	-7.603027e-07	-1.624484e-09	-5.932610e+00	-1.085884e+02
1.500000e-06	-7.398168e-07	-1.607669e-09	-5.772759e+00	-1.072034e+02
1.510000e-06	-7.192619e-07	-1.588574e-09	-5.612370e+00	-1.057989e+02
1.520000e-06	-6.986839e-07	-1.567114e-09	-5.451801e+00	-1.043741e+02
1.530000e-06	-6.780976e-07	-1.544530e-09	-5.291167e+00	-1.029285e+02
1.540000e-06	-6.574740e-07	-1.520892e-09	-5.130242e+00	-1.014614e+02
1.550000e-06	-6.368045e-07	-1.498909e-09	-4.968958e+00	-9.997223e+01
1.560000e-06	-6.161087e-07	-1.475732e-09	-4.807470e+00	-9.846026e+01
1.570000e-06	-5.952736e-07	-1.450278e-09	-4.644894e+00	-9.692487e+01
1.580000e-06	-5.743911e-07	-1.425817e-09	-4.481949e+00	-9.536543e+01
1.590000e-06	-5.535121e-07	-1.404239e-09	-4.319031e+00	-9.378132e+01
1.600000e-06	-5.324839e-07	-1.382251e-09	-4.154949e+00	-9.217196e+01
1.610000e-06	-5.112919e-07	-1.357409e-09	-3.989588e+00	-9.053675e+01
1.620000e-06	-4.901712e-07	-1.333643e-09	-3.824785e+00	-8.887517e+01
1.630000e-06	-4.691581e-07	-1.309173e-09	-3.660821e+00	-8.718670e+01
1.640000e-06	-4.480217e-07	-1.282837e-09	-3.495894e+00	-8.547088e+01
1.650000e-06	-4.267036e-07	-1.254524e-09	-3.329550e+00	-8.372728e+01
1.660000e-06	-4.053576e-07	-1.227374e-09	-3.162988e+00	-8.195552e+01
1.670000e-06	-3.840674e-07	-1.200297e-09	-2.996862e+00	-8.015527e+01
1.680000e-06	-3.627537e-07	-1.172060e-09	-2.830551e+00	-7.832626e+01
1.690000e-06	-3.413818e-07	-1.143234e-09	-2.663787e+00	-7.646827e+01
1.700000e-06	-3.200499e-07	-1.114511e-09	-2.497336e+00	-7.458115e+01
1.710000e-06	-2.987597e-07	-1.086339e-09	-2.331209e+00	-7.266479e+01
1.720000e-06	-2.773860e-07	-1.058686e-09	-2.164431e+00	-7.071918e+01
1.730000e-06	-2.559282e-07	-1.029216e-09	-1.996996e+00	-6.874433e+01
1.740000e-06	-2.344517e-07	-9.978539e-10	-1.829417e+00	-6.674037e+01
1.750000e-06	-2.129687e-07	-9.661625e-10	-1.661786e+00	-6.470745e+01
1.760000e-06	-1.914606e-07	-9.339731e-10	-1.493959e+00	-6.264582e+01
1.770000e-06	-1.699509e-07	-9.033494e-10	-1.326119e+00	-6.055577e+01
1.780000e-06	-1.484730e-07	-8.729658e-10	-1.158528e+00	-5.843770e+01
1.790000e-06	-1.269694e-07	-8.409337e-10	-9.907366e-01	-5.629202e+01
1.800000e-06	-1.054353e-07	-8.104899e-10	-8.227069e-01	-5.411926e+01
1.810000e-06	-8.385001e-08	-7.808555e-10	-6.542780e-01	-5.191998e+01
1.820000e-06	-6.227367e-08	-7.487289e-10	-4.859188e-01	-4.969482e+01
1.830000e-06	-4.076779e-08	-7.129942e-10	-3.181093e-01	-4.744446e+01
1.840000e-06	-1.926779e-08	-6.770765e-10	-1.503458e-01	-4.516967e+01
1.850000e-06	2.227257e-09	-6.426229e-10	1.737919e-02	-4.287123e+01
1.860000e-06	2.372865e-08	-6.077919e-10	1.851536e-01	-4.055002e+01
1.870000e-06	4.528736e-08	-5.742810e-10	3.533753e-01	-3.820694e+01
1.880000e-06	6.685695e-08	-5.419053e-10	5.216819e-01	-3.584294e+01
1.890000e-06	8.836556e-08	-5.087178e-10	6.895127e-01	-3.345903e+01
1.900000e-06	1.098495e-07	-4.729590e-10	8.571511e-01	-3.105622e+01
1.910000e-06	1.313665e-07	-4.366368e-10	1.025047e+00	-2.863561e+01
1.920000e-06	1.528404e-07	-4.010914e-10	1.192607e+00	-2.619828e+01
1.930000e-06	1.742815e-07	-3.638648e-10	1.359911e+00	-2.374538e+01
1.940000e-06	1.958264e-07	-3.263268e-10	1.528025e+00	-2.127806e+01
1.950000e-06	2.173125e-07	-2.896626e-10	1.695680e+00	-1.879749e+01
1.960000e-06	2.387135e-07	-2.532025e-10	1.862671e+00	-1.630489e+01
1.970000e-06	2.601245e-07	-2.166746e-10	2.029741e+00	-1.380145e+01
1.980000e-06	2.815349e-07	-1.782711e-10	2.196805e+00	-1.128841e+01
1.990000e-06	3.029977e-07	-1.397072e-10	2.364278e+00	-8.767002e+00
2.000000e-06	3.244617e-07	-1.026734e-10	2.531761e+00	-6.238463e+00
2.010000e-06	3.458638e-07	-6.584899e-11	2.698761e+00	-3.704037e+00
2.020000e-06	3.671584e-07	-2.904639e-11	2.864921e+00	-1.164969e+00
2.030000e-06	3.883606e-07	7.941925e-12	3.030361e+00	1.377499e+00
2.040000e-06	4.095462e-07	4.649847e-11	3.195672e+00	3.922129e+00
2.050000e-06	4.307184e-07	8.481309e-11	3.360877e+00	6.467689e+00
2.060000e-06	4.518462e-07	1.222395e-10	3.525736e+00	9.012955e+00
2.070000e-06	4.729168e-07	1.589390e-10	3.690150e+00	1.155671e+01
2.080000e-06	4.939559e-07	1.938828e-10	3.854317e+00	1.409776e+01
2.090000e-06	5.149909e-07	2.297974e-10	4.018452e+00	1.663491e+01
2.100000e-06	5.359742e-07	2.675508e-10	4.182183e+00	1.916699e+01
2.110000e-06	5.569768e-07	3.036048e-10	4.346066e+00	2.169284e+01
2.120000e-06	5.779347e-07	3.376835e-10	4.509600e+00	2.421131e+01
2.130000e-06	5.987706e-07	3.727578e-10	4.672181e+00	2.672129e+01
2.140000e-06	6.194799e-07	4.098268e-10	4.833775e+00	2.922167e+01
2.150000e-06	6.401547e-07	4.455950e-10	4.995099e+00	3.171137e+01
2.160000e-06	6.608440e-07	4.798370e-10	5.156537e+00	3.418933e+01
2.170000e-06	6.814390e-07	5.157988e-10	5.317239e+00	3.665451e+01
2.180000e-06	7.019737e-07	5.559106e-10	5.477471e+00	3.910588e+01
2.190000e-06	7.224484e-07	5.957088e-10	5.637234e+00	4.154246e+01
2.200000e-06	7.428863e-07	6.315533e-10	5.796710e+00	4.396329e+01
2.210000e-06	7.632385e-07	6.645140e-10	5.955518e+00	4.636742e+01
2.220000e-06	7.835494e-07	6.990467e-10	6.114002e+00	4.875393e+01
2.230000e-06	8.038179e-07	7.368276e-10	6.272157e+00	5.112194e+01
2.240000e-06	8.240028e-07	7.741289e-10	6.429659e+00	5.347060e+01
2.250000e-06	8.441576e-07	8.081546e-10	6.586925e+00	5.579908e+01
2.260000e-06	8.642662e-07	8.419872e-10	6.743832e+00	5.810659e+01
2.270000e-06	8.842852e-07	8.779919e-10	6.900039e+00	6.039236e+01
2.280000e-06	9.042401e-07	9.133235e-10	7.055747e+00	6.265568e+01
2.290000e-06	9.242072e-07	9.477090e-10	7.211550e+00	6.489584e+01
2.300000e-06	9.441509e-07	9.813353e-10	7.367169e+00	6.711220e+01
2.310000e-06	9.640294e-07	1.014628e-09	7.522280e+00	6.930414e+01
2.320000e-06	9.838899e-07	1.045647e-09	7.677251e+00	7.147108e+01
2.330000e-06	1.003741e-06	1.074378e-09	7.832149e+00	7.361250e+01
2.340000e-06	1.023551e-06	1.104534e-09	7.986725e+00	7.572790e+01
2.350000e-06	1.043359e-06	1.139526e-09	8.141289e+00	7.781684e+01
2.360000e-06	1.063191e-06	1.175293e-09	8.296034e+00	7.987891e+01
2.370000e-06	1.082984e-06	1.206679e-09	8.450481e+00	8.191376e+01
2.380000e-06	1.102725e-06	1.235296e-09	8.604514e+00	8.392109e+01
2.390000e-06	1.122419e-06	1.265554e-09	8.758191e+00	8.590063e+01
2.400000e-06	1.142070e-06	1.296553e-09	8.911521e+00	8.785217e+01
2.410000e-06	1.161693e-06	1.325449e-09	9.064642e+00	8.977556e+01
2.420000e-06	1.181263e-06	1.352393e-09	9.217347e+00	9.167069e+01
2.430000e-06	1.200805e-06	1.381082e-09	9.369828e+00	9.353749e+01
2.440000e-06	1.220279e-06	1.409592e-09	9.521788e+00	9.537596e+01
2.450000e-06	1.239646e-06	1.435436e-09	9.672901e+00	9.718615e+01
2.460000e-06	1.258874e-06	1.460131e-09	9.822939e+00	9.896813e+01
2.470000e-06	1.277982e-06	1.486618e-09	9.972041e+00	1.007221e+02
2.480000e-06	1.297047e-06	1.514599e-09	1.012080e+01	1.024481e+02
2.490000e-06	1.316021e-06	1.539812e-09	1.026886e+01	1.041466e+02
2.500000e-06	1.334931e-06	1.563430e-09	1.041641e+01	1.058176e+02
2.510000e-06	1.353705e-06	1.587634e-09	1.056290e+01	1.074617e+02
2.520000e-06	1.372298e-06	1.613504e-09	1.070798e+01	1.090790e+02
2.530000e-06	1.390694e-06	1.636972e-09	1.085153e+01	1.106702e+02
2.540000e-06	1.408941e-06	1.658896e-09	1.099390e+01	1.122354e+02
2.550000e-06	1.427154e-06	1.683495e-09	1.113602e+01	1.137753e+02
2.560000e-06	1.445274e-06	1.708909e-09	1.127741e+01	1.152904e+02
2.570000e-06	1.463309e-06	1.732387e-09	1.141814e+01	1.167811e+02
2.580000e-06	1.481204e-06	1.754033e-09	1.155777e+01	1.182480e+02
2.590000e-06	1.498966e-06	1.776909e-09	1.169637e+01	1.196917e+02
2.600000e-06	1.516748e-06	1.800548e-09	1.183512e+01	1.211128e+02
2.610000e-06	1.534494e-06	1.821980e-09	1.197359e+01	1.225117e+02
2.620000e-06	1.552099e-06	1.840975e-09	1.211096e+01	1.238892e+02
2.630000e-06	1.569620e-06	1.859156e-09	1.224768e+01	1.252459e+02
2.640000e-06	1.587017e-06	1.880070e-09	1.238342e+01	1.265822e+02
2.650000e-06	1.604404e-06	1.901682e-09	1.251909e+01	1.278988e+02
2.660000e-06	1.621817e-06	1.922101e-09	1.265497e+01	1.291964e+02
2.670000e-06	1.639030e-06	1.942171e-09	1.278928e+01	1.304754e+02
2.680000e-06	1.656178e-06	1.962333e-09	1.292309e+01	1.317363e+02
2.690000e-06	1.673292e-06	1.984647e-09	1.305662e+01	1.329798e+02
2.700000e-06	1.690331e-06	2.005575e-09	1.318958e+01	1.342063e+02
2.710000e-06	1.707245e-06	2.022315e-09	1.332156e+01	1.354162e+02
2.720000e-06	1.724070e-06	2.039695e-09	1.345284e+01	1.366100e+02
2.730000e-06	1.740872e-06	2.059247e-09	1.358395e+01	1.377882e+02
2.740000e-06	1.757495e-06	2.078183e-09	1.371366e+01	1.389510e+02
2.750000e-06	1.773966e-06	2.095075e-09	1.384218e+01	1.400988e+02
2.760000e-06	1.790255e-06	2.112689e-09	1.396928e+01	1.412319e+02
2.770000e-06	1.806354e-06	2.131000e-09	1.409491e+01	1.423506e+02
2.780000e-06	1.822410e-06	2.148494e-09	1.422019e+01	1.434550e+02
2.790000e-06	1.838209e-06	2.165888e-09	1.434346e+01	1.445452e+02
2.800000e-06	1.853640e-06	2.182557e-09	1.446388e+01	1.456216e+02
2.810000e-06	1.868844e-06	2.199719e-09	1.458251e+01	1.466840e+02
2.820000e-06	1.883855e-06	2.216068e-09	1.469964e+01	1.477326e+02
2.830000e-06	1.898693e-06	2.230445e-09	1.481542e+01	1.487673e+02
2.840000e-06	1.913329e-06	2.244497e-09	1.492962e+01	1.497882e+02
2.850000e-06	1.927772e-06	2.261299e-09	1.504232e+01	1.507951e+02
2.860000e-06	1.942023e-06	2.276708e-09	1.515352e+01	1.517881e+02
2.870000e-06	1.956124e-06	2.289787e-09	1.526355e+01	1.527668e+02
2.880000e-06	1.970097e-06	2.305369e-09	1.537258e+01	1.537313e+02
2.890000e-06	1.984011e-06	2.322067e-09	1.548115e+01	1.546814e+02
2.900000e-06	1.997824e-06	2.335076e-09	1.558893e+01	1.556168e+02
