# Temperatura_=_20.0
# Concentracion g/m^3_=_9000.0
# C_Vs_to_Am_M_A/Vsm_=_65563218390.804596
# pendiente_HvsI_1/m_=_3716.3
# ordenada_HvsI_A/m_=_1297.0
# frecuencia_Hz_=_134959.95850088124

Tiempo_(s)	Campo_(V.s)	Magnetizacion_(V.s)	Campo_(kA/m)	Magnetizacion_(A/m)
0.000000e+00	-2.540210e-06	1.198447e-11	-1.988057e+01	4.234179e-04
1.000000e-08	-2.540451e-06	3.446488e-11	-1.988246e+01	4.377134e-04
2.000000e-08	-2.540608e-06	4.168228e-11	-1.988369e+01	4.521587e-04
3.000000e-08	-2.540634e-06	-6.454514e-12	-1.988389e+01	4.663630e-04
4.000000e-08	-2.540470e-06	-1.075775e-10	-1.988261e+01	4.799275e-04
5.000000e-08	-2.540208e-06	-8.004830e-11	-1.988056e+01	4.924497e-04
6.000000e-08	-2.539850e-06	4.995871e-12	-1.987776e+01	5.035282e-04
7.000000e-08	-2.539372e-06	7.572116e-11	-1.987402e+01	5.127681e-04
8.000000e-08	-2.538755e-06	7.671972e-11	-1.986919e+01	5.197852e-04
9.000000e-08	-2.537879e-06	7.018884e-11	-1.986233e+01	5.242109e-04
1.000000e-07	-2.536685e-06	-2.588769e-13	-1.985298e+01	5.256965e-04
1.100000e-07	-2.535298e-06	-1.644692e-11	-1.984213e+01	5.239182e-04
1.200000e-07	-2.533658e-06	-3.110595e-11	-1.982930e+01	5.185801e-04
1.300000e-07	-2.531622e-06	-9.592768e-11	-1.981336e+01	5.094187e-04
1.400000e-07	-2.529239e-06	-8.580516e-11	-1.979471e+01	4.962061e-04
1.500000e-07	-2.526473e-06	1.464035e-11	-1.977306e+01	4.787526e-04
1.600000e-07	-2.523322e-06	3.656715e-11	-1.974840e+01	4.569100e-04
1.700000e-07	-2.519974e-06	-5.668986e-11	-1.972220e+01	4.305729e-04
1.800000e-07	-2.516527e-06	-1.023589e-10	-1.969522e+01	3.996808e-04
1.900000e-07	-2.512946e-06	-5.646829e-11	-1.966720e+01	3.642194e-04
2.000000e-07	-2.509257e-06	7.154750e-12	-1.963832e+01	3.242207e-04
2.100000e-07	-2.505457e-06	-4.899862e-11	-1.960858e+01	2.797634e-04
2.200000e-07	-2.501559e-06	-1.441978e-10	-1.957807e+01	2.309726e-04
2.300000e-07	-2.497598e-06	-1.179131e-10	-1.954708e+01	1.780186e-04
2.400000e-07	-2.493623e-06	-2.080847e-11	-1.951597e+01	1.211158e-04
2.500000e-07	-2.489555e-06	1.708191e-11	-1.948413e+01	6.052039e-05
2.600000e-07	-2.485332e-06	-3.593003e-11	-1.945108e+01	-3.471636e-06
2.700000e-07	-2.480891e-06	-1.096923e-10	-1.941632e+01	-7.052761e-05
2.800000e-07	-2.476194e-06	-4.667087e-11	-1.937956e+01	-1.402813e-04
2.900000e-07	-2.471352e-06	3.616449e-11	-1.934166e+01	-2.123365e-04
3.000000e-07	-2.466297e-06	2.758289e-11	-1.930211e+01	-2.862711e-04
3.100000e-07	-2.461004e-06	-8.033317e-11	-1.926068e+01	-3.616412e-04
3.200000e-07	-2.455533e-06	-6.712443e-11	-1.921786e+01	-4.379857e-04
3.300000e-07	-2.449902e-06	2.346418e-12	-1.917379e+01	-5.148309e-04
3.400000e-07	-2.444153e-06	2.145940e-11	-1.912880e+01	-5.916954e-04
3.500000e-07	-2.438269e-06	-5.920139e-11	-1.908275e+01	-6.680948e-04
3.600000e-07	-2.432235e-06	-8.858366e-11	-1.903552e+01	-7.435472e-04
3.700000e-07	-2.426040e-06	-4.593996e-11	-1.898704e+01	-8.175774e-04
3.800000e-07	-2.419611e-06	2.302357e-12	-1.893672e+01	-8.897222e-04
3.900000e-07	-2.412951e-06	-2.392943e-11	-1.888460e+01	-9.595352e-04
4.000000e-07	-2.406129e-06	-7.019730e-11	-1.883121e+01	-1.026591e-03
4.100000e-07	-2.399153e-06	-6.396005e-11	-1.877662e+01	-1.090490e-03
4.200000e-07	-2.392023e-06	-1.792070e-11	-1.872081e+01	-1.150861e-03
4.300000e-07	-2.384760e-06	-5.460931e-12	-1.866397e+01	-1.207368e-03
4.400000e-07	-2.377344e-06	-5.188991e-11	-1.860593e+01	-1.259711e-03
4.500000e-07	-2.369760e-06	-7.784411e-11	-1.854657e+01	-1.307627e-03
4.600000e-07	-2.362084e-06	-5.220972e-11	-1.848650e+01	-1.350899e-03
4.700000e-07	-2.354283e-06	-2.015525e-11	-1.842545e+01	-1.389352e-03
4.800000e-07	-2.346368e-06	-4.560861e-11	-1.836349e+01	-1.422855e-03
4.900000e-07	-2.338412e-06	-7.490289e-11	-1.830123e+01	-1.451328e-03
5.000000e-07	-2.330369e-06	-6.323377e-11	-1.823828e+01	-1.474735e-03
5.100000e-07	-2.322204e-06	-2.146327e-11	-1.817438e+01	-1.493087e-03
5.200000e-07	-2.313920e-06	-2.280207e-11	-1.810955e+01	-1.506445e-03
5.300000e-07	-2.305523e-06	-4.857397e-11	-1.804383e+01	-1.514911e-03
5.400000e-07	-2.296953e-06	-5.753370e-11	-1.797676e+01	-1.518637e-03
5.500000e-07	-2.288079e-06	-3.044664e-11	-1.790731e+01	-1.517811e-03
5.600000e-07	-2.278931e-06	-2.140729e-11	-1.783571e+01	-1.512667e-03
5.700000e-07	-2.269513e-06	-4.100763e-11	-1.776201e+01	-1.503471e-03
5.800000e-07	-2.259821e-06	-6.318217e-11	-1.768615e+01	-1.490526e-03
5.900000e-07	-2.249818e-06	-4.880098e-11	-1.760787e+01	-1.474163e-03
6.000000e-07	-2.239474e-06	-3.103347e-11	-1.752691e+01	-1.454740e-03
6.100000e-07	-2.228905e-06	-3.951566e-11	-1.744419e+01	-1.432636e-03
6.200000e-07	-2.218168e-06	-5.719980e-11	-1.736016e+01	-1.408250e-03
6.300000e-07	-2.207201e-06	-4.566130e-11	-1.727433e+01	-1.381990e-03
6.400000e-07	-2.195914e-06	-2.809422e-11	-1.718599e+01	-1.354273e-03
6.500000e-07	-2.184386e-06	-3.145991e-11	-1.709577e+01	-1.325521e-03
6.600000e-07	-2.172794e-06	-4.567912e-11	-1.700504e+01	-1.296153e-03
6.700000e-07	-2.161151e-06	-4.359268e-11	-1.691393e+01	-1.266580e-03
6.800000e-07	-2.149305e-06	-3.160167e-11	-1.682121e+01	-1.237203e-03
6.900000e-07	-2.137277e-06	-2.813137e-11	-1.672708e+01	-1.208406e-03
7.000000e-07	-2.125179e-06	-3.337737e-11	-1.663239e+01	-1.180556e-03
7.100000e-07	-2.113024e-06	-3.815808e-11	-1.653727e+01	-1.153990e-03
7.200000e-07	-2.100728e-06	-3.523189e-11	-1.644103e+01	-1.129021e-03
7.300000e-07	-2.088155e-06	-2.795402e-11	-1.634263e+01	-1.105928e-03
7.400000e-07	-2.075423e-06	-2.792511e-11	-1.624299e+01	-1.084956e-03
7.500000e-07	-2.062593e-06	-4.025590e-11	-1.614258e+01	-1.066311e-03
7.600000e-07	-2.049612e-06	-4.372089e-11	-1.604098e+01	-1.050159e-03
7.700000e-07	-2.036407e-06	-3.313089e-11	-1.593763e+01	-1.036626e-03
7.800000e-07	-2.023005e-06	-2.844058e-11	-1.583275e+01	-1.025792e-03
7.900000e-07	-2.009479e-06	-4.183505e-11	-1.572689e+01	-1.017695e-03
8.000000e-07	-1.995769e-06	-4.615271e-11	-1.561959e+01	-1.012328e-03
8.100000e-07	-1.981909e-06	-3.349927e-11	-1.551111e+01	-1.009638e-03
8.200000e-07	-1.967948e-06	-2.559766e-11	-1.540185e+01	-1.009531e-03
8.300000e-07	-1.953954e-06	-3.712993e-11	-1.529233e+01	-1.011870e-03
8.400000e-07	-1.939849e-06	-4.351206e-11	-1.518194e+01	-1.016477e-03
8.500000e-07	-1.925493e-06	-3.874505e-11	-1.506958e+01	-1.023134e-03
8.600000e-07	-1.910939e-06	-3.473263e-11	-1.495568e+01	-1.031590e-03
8.700000e-07	-1.896156e-06	-4.008765e-11	-1.483998e+01	-1.041560e-03
8.800000e-07	-1.881112e-06	-4.475270e-11	-1.472224e+01	-1.052729e-03
8.900000e-07	-1.865872e-06	-4.645404e-11	-1.460297e+01	-1.064757e-03
9.000000e-07	-1.850406e-06	-4.041380e-11	-1.448192e+01	-1.077283e-03
9.100000e-07	-1.834826e-06	-3.615571e-11	-1.435999e+01	-1.089928e-03
9.200000e-07	-1.819170e-06	-4.110818e-11	-1.423746e+01	-1.102300e-03
9.300000e-07	-1.803121e-06	-4.880987e-11	-1.411186e+01	-1.114000e-03
9.400000e-07	-1.787000e-06	-4.565093e-11	-1.398569e+01	-1.124626e-03
9.500000e-07	-1.770809e-06	-3.915901e-11	-1.385897e+01	-1.133776e-03
9.600000e-07	-1.754284e-06	-4.093866e-11	-1.372964e+01	-1.141057e-03
9.700000e-07	-1.737686e-06	-4.740503e-11	-1.359974e+01	-1.146084e-03
9.800000e-07	-1.720957e-06	-4.972161e-11	-1.346881e+01	-1.148491e-03
9.900000e-07	-1.704033e-06	-4.559582e-11	-1.333636e+01	-1.147931e-03
1.000000e-06	-1.686975e-06	-4.328198e-11	-1.320286e+01	-1.144083e-03
1.010000e-06	-1.669882e-06	-4.616008e-11	-1.306908e+01	-1.136653e-03
1.020000e-06	-1.652676e-06	-4.943722e-11	-1.293442e+01	-1.125379e-03
1.030000e-06	-1.635369e-06	-4.858685e-11	-1.279897e+01	-1.110038e-03
1.040000e-06	-1.618023e-06	-4.715489e-11	-1.266322e+01	-1.090443e-03
1.050000e-06	-1.600666e-06	-4.713755e-11	-1.252737e+01	-1.066448e-03
1.060000e-06	-1.583217e-06	-5.015326e-11	-1.239081e+01	-1.037952e-03
1.070000e-06	-1.565606e-06	-5.243921e-11	-1.225298e+01	-1.004899e-03
1.080000e-06	-1.547996e-06	-5.128561e-11	-1.211516e+01	-9.672770e-04
1.090000e-06	-1.530372e-06	-4.826496e-11	-1.197723e+01	-9.251223e-04
1.100000e-06	-1.512651e-06	-5.209860e-11	-1.183853e+01	-8.785173e-04
1.110000e-06	-1.494797e-06	-5.630246e-11	-1.169880e+01	-8.275909e-04
1.120000e-06	-1.476839e-06	-5.630868e-11	-1.155826e+01	-7.725168e-04
1.130000e-06	-1.458737e-06	-5.520169e-11	-1.141659e+01	-7.135128e-04
1.140000e-06	-1.440536e-06	-5.555543e-11	-1.127414e+01	-6.508386e-04
1.150000e-06	-1.422325e-06	-5.557136e-11	-1.113162e+01	-5.847930e-04
1.160000e-06	-1.404032e-06	-5.711392e-11	-1.098845e+01	-5.157115e-04
1.170000e-06	-1.385624e-06	-5.607096e-11	-1.084438e+01	-4.439630e-04
1.180000e-06	-1.367036e-06	-5.343402e-11	-1.069890e+01	-3.699459e-04
1.190000e-06	-1.348247e-06	-5.203073e-11	-1.055185e+01	-2.940841e-04
1.200000e-06	-1.329243e-06	-5.134997e-11	-1.040312e+01	-2.168231e-04
1.210000e-06	-1.310102e-06	-4.862722e-11	-1.025332e+01	-1.386252e-04
1.220000e-06	-1.290918e-06	-4.667535e-11	-1.010318e+01	-5.996497e-05
1.230000e-06	-1.271627e-06	-4.740334e-11	-9.952199e+00	1.867586e-05
1.240000e-06	-1.252271e-06	-4.751086e-11	-9.800713e+00	9.681299e-05
1.250000e-06	-1.232839e-06	-4.698620e-11	-9.648630e+00	1.739647e-04
1.260000e-06	-1.213302e-06	-4.762870e-11	-9.495730e+00	2.496566e-04
1.270000e-06	-1.193692e-06	-4.660104e-11	-9.342252e+00	3.234268e-04
1.280000e-06	-1.174020e-06	-4.580325e-11	-9.188295e+00	3.948303e-04
1.290000e-06	-1.154370e-06	-4.697530e-11	-9.034501e+00	4.634437e-04
1.300000e-06	-1.134695e-06	-4.575409e-11	-8.880521e+00	5.288692e-04
1.310000e-06	-1.114946e-06	-4.411807e-11	-8.725956e+00	5.907392e-04
1.320000e-06	-1.095191e-06	-4.482263e-11	-8.571346e+00	6.487195e-04
1.330000e-06	-1.075406e-06	-4.620886e-11	-8.416506e+00	7.025125e-04
1.340000e-06	-1.055567e-06	-4.402509e-11	-8.261241e+00	7.518607e-04
1.350000e-06	-1.035726e-06	-4.360521e-11	-8.105953e+00	7.965487e-04
1.360000e-06	-1.015866e-06	-4.391294e-11	-7.950526e+00	8.364052e-04
1.370000e-06	-9.959868e-07	-4.272254e-11	-7.794942e+00	8.713047e-04
1.380000e-06	-9.760928e-07	-4.019262e-11	-7.639244e+00	9.011687e-04
1.390000e-06	-9.561570e-07	-4.158202e-11	-7.483220e+00	9.259657e-04
1.400000e-06	-9.362148e-07	-4.119722e-11	-7.327146e+00	9.457115e-04
1.410000e-06	-9.162608e-07	-3.785643e-11	-7.170978e+00	9.604689e-04
1.420000e-06	-8.962185e-07	-3.810229e-11	-7.014120e+00	9.703459e-04
1.430000e-06	-8.761216e-07	-4.074488e-11	-6.856835e+00	9.754952e-04
1.440000e-06	-8.559287e-07	-4.118315e-11	-6.698798e+00	9.761111e-04
1.450000e-06	-8.356885e-07	-4.111157e-11	-6.540391e+00	9.724279e-04
1.460000e-06	-8.154800e-07	-4.405114e-11	-6.382232e+00	9.647164e-04
1.470000e-06	-7.952227e-07	-4.528241e-11	-6.223691e+00	9.532808e-04
1.480000e-06	-7.749572e-07	-4.411286e-11	-6.065087e+00	9.384553e-04
1.490000e-06	-7.546677e-07	-4.338055e-11	-5.906294e+00	9.205994e-04
1.500000e-06	-7.343140e-07	-4.099887e-11	-5.746999e+00	9.000944e-04
1.510000e-06	-7.139366e-07	-3.708626e-11	-5.587518e+00	8.773385e-04
1.520000e-06	-6.934320e-07	-3.485608e-11	-5.427042e+00	8.527420e-04
1.530000e-06	-6.728067e-07	-3.752606e-11	-5.265621e+00	8.267231e-04
1.540000e-06	-6.522430e-07	-3.926128e-11	-5.104682e+00	7.997022e-04
1.550000e-06	-6.316629e-07	-3.856116e-11	-4.943615e+00	7.720980e-04
1.560000e-06	-6.108931e-07	-3.716569e-11	-4.781064e+00	7.443217e-04
1.570000e-06	-5.899805e-07	-3.718477e-11	-4.617394e+00	7.167730e-04
1.580000e-06	-5.691565e-07	-3.856475e-11	-4.454418e+00	6.898352e-04
1.590000e-06	-5.483547e-07	-3.767689e-11	-4.291616e+00	6.638709e-04
1.600000e-06	-5.274116e-07	-3.629228e-11	-4.127708e+00	6.392177e-04
1.610000e-06	-5.064511e-07	-3.462438e-11	-3.963664e+00	6.161848e-04
1.620000e-06	-4.854426e-07	-3.489518e-11	-3.799244e+00	5.950488e-04
1.630000e-06	-4.642941e-07	-3.572863e-11	-3.633729e+00	5.760513e-04
1.640000e-06	-4.431514e-07	-3.573321e-11	-3.468258e+00	5.593958e-04
1.650000e-06	-4.220121e-07	-3.624875e-11	-3.302814e+00	5.452455e-04
1.660000e-06	-4.008064e-07	-3.779180e-11	-3.136852e+00	5.337215e-04
1.670000e-06	-3.795772e-07	-3.875410e-11	-2.970704e+00	5.249017e-04
1.680000e-06	-3.583460e-07	-3.776519e-11	-2.804541e+00	5.188196e-04
1.690000e-06	-3.370746e-07	-3.434641e-11	-2.638064e+00	5.154645e-04
1.700000e-06	-3.157264e-07	-3.220366e-11	-2.470986e+00	5.147813e-04
1.710000e-06	-2.943161e-07	-3.192535e-11	-2.303421e+00	5.166716e-04
1.720000e-06	-2.729282e-07	-3.186685e-11	-2.136031e+00	5.209947e-04
1.730000e-06	-2.515257e-07	-3.202571e-11	-1.968529e+00	5.275693e-04
1.740000e-06	-2.300142e-07	-3.261896e-11	-1.800172e+00	5.361761e-04
1.750000e-06	-2.085302e-07	-3.311491e-11	-1.632030e+00	5.465600e-04
1.760000e-06	-1.871214e-07	-3.203672e-11	-1.464478e+00	5.584335e-04
1.770000e-06	-1.657272e-07	-3.016344e-11	-1.297039e+00	5.714799e-04
1.780000e-06	-1.442667e-07	-2.902805e-11	-1.129082e+00	5.853573e-04
1.790000e-06	-1.227661e-07	-2.797355e-11	-9.608103e-01	5.997026e-04
1.800000e-06	-1.012357e-07	-2.524166e-11	-7.923062e-01	6.141359e-04
1.810000e-06	-7.968840e-08	-2.278155e-11	-6.236694e-01	6.282648e-04
1.820000e-06	-5.819868e-08	-2.293654e-11	-4.554833e-01	6.416896e-04
1.830000e-06	-3.673119e-08	-2.292296e-11	-2.874711e-01	6.540076e-04
1.840000e-06	-1.524394e-08	-2.210941e-11	-1.193044e-01	6.648183e-04
1.850000e-06	6.289565e-09	-2.225908e-11	4.922434e-02	6.737280e-04
1.860000e-06	2.784581e-08	-2.188545e-11	2.179311e-01	6.803548e-04
1.870000e-06	4.938164e-08	-1.917862e-11	3.864780e-01	6.843329e-04
1.880000e-06	7.087388e-08	-1.601355e-11	5.546838e-01	6.853174e-04
1.890000e-06	9.228747e-08	-1.461386e-11	7.222741e-01	6.829886e-04
1.900000e-06	1.137276e-07	-1.402350e-11	8.900721e-01	6.770556e-04
1.910000e-06	1.352696e-07	-1.378535e-11	1.058667e+00	6.672603e-04
1.920000e-06	1.567726e-07	-1.526376e-11	1.226957e+00	6.533808e-04
1.930000e-06	1.781920e-07	-1.690742e-11	1.394593e+00	6.352340e-04
1.940000e-06	1.995622e-07	-1.761041e-11	1.561844e+00	6.126782e-04
1.950000e-06	2.209343e-07	-1.805717e-11	1.729109e+00	5.856151e-04
1.960000e-06	2.423248e-07	-1.784955e-11	1.896519e+00	5.539918e-04
1.970000e-06	2.636305e-07	-1.838908e-11	2.063265e+00	5.178010e-04
1.980000e-06	2.849295e-07	-1.884283e-11	2.229958e+00	4.770824e-04
1.990000e-06	3.062505e-07	-1.852623e-11	2.396824e+00	4.319222e-04
2.000000e-06	3.275376e-07	-1.944136e-11	2.563424e+00	3.824526e-04
2.010000e-06	3.487606e-07	-2.111683e-11	2.729523e+00	3.288513e-04
2.020000e-06	3.699458e-07	-2.340581e-11	2.895325e+00	2.713394e-04
2.030000e-06	3.911108e-07	-2.507782e-11	3.060970e+00	2.101797e-04
2.040000e-06	4.122986e-07	-2.472749e-11	3.226793e+00	1.456742e-04
2.050000e-06	4.334798e-07	-2.375547e-11	3.392565e+00	7.816113e-05
2.060000e-06	4.546024e-07	-2.515001e-11	3.557878e+00	8.011860e-06
2.070000e-06	4.756866e-07	-2.503971e-11	3.722890e+00	-6.437304e-05
2.080000e-06	4.966573e-07	-2.253366e-11	3.887014e+00	-1.385677e-04
2.090000e-06	5.176180e-07	-2.042505e-11	4.051060e+00	-2.141250e-04
2.100000e-06	5.386161e-07	-1.892515e-11	4.215398e+00	-2.905818e-04
2.110000e-06	5.595417e-07	-1.790087e-11	4.379169e+00	-3.674625e-04
2.120000e-06	5.803985e-07	-1.715033e-11	4.542402e+00	-4.442851e-04
2.130000e-06	6.012407e-07	-1.689267e-11	4.705520e+00	-5.205653e-04
2.140000e-06	6.220246e-07	-1.655729e-11	4.868183e+00	-5.958218e-04
2.150000e-06	6.427109e-07	-1.594097e-11	5.030081e+00	-6.695811e-04
2.160000e-06	6.633756e-07	-1.409919e-11	5.191810e+00	-7.413823e-04
2.170000e-06	6.839898e-07	-1.320078e-11	5.353144e+00	-8.107821e-04
2.180000e-06	7.044528e-07	-1.491667e-11	5.513294e+00	-8.773589e-04
2.190000e-06	7.248136e-07	-1.849982e-11	5.672645e+00	-9.407174e-04
2.200000e-06	7.451291e-07	-1.964286e-11	5.831642e+00	-1.000492e-03
2.210000e-06	7.654423e-07	-1.854615e-11	5.990620e+00	-1.056352e-03
2.220000e-06	7.856884e-07	-2.012372e-11	6.149073e+00	-1.108003e-03
2.230000e-06	8.058631e-07	-2.365740e-11	6.306967e+00	-1.155190e-03
2.240000e-06	8.260129e-07	-2.421971e-11	6.464667e+00	-1.197701e-03
2.250000e-06	8.461126e-07	-2.289212e-11	6.621974e+00	-1.235369e-03
2.260000e-06	8.661656e-07	-2.242507e-11	6.778916e+00	-1.268073e-03
2.270000e-06	8.861823e-07	-2.234847e-11	6.935574e+00	-1.295736e-03
2.280000e-06	9.062012e-07	-2.331795e-11	7.092249e+00	-1.318332e-03
2.290000e-06	9.262058e-07	-2.455411e-11	7.248812e+00	-1.335880e-03
2.300000e-06	9.461566e-07	-2.489638e-11	7.404953e+00	-1.348447e-03
2.310000e-06	9.660674e-07	-2.466133e-11	7.560783e+00	-1.356144e-03
2.320000e-06	9.859402e-07	-2.442278e-11	7.716314e+00	-1.359127e-03
2.330000e-06	1.005817e-06	-2.320522e-11	7.871873e+00	-1.357594e-03
2.340000e-06	1.025693e-06	-2.226427e-11	8.027433e+00	-1.351782e-03
2.350000e-06	1.045521e-06	-2.251178e-11	8.182611e+00	-1.341965e-03
2.360000e-06	1.065331e-06	-2.285854e-11	8.337651e+00	-1.328450e-03
2.370000e-06	1.085119e-06	-2.026297e-11	8.492519e+00	-1.311573e-03
2.380000e-06	1.104866e-06	-1.828305e-11	8.647069e+00	-1.291695e-03
2.390000e-06	1.124601e-06	-2.027400e-11	8.801520e+00	-1.269200e-03
2.400000e-06	1.144326e-06	-2.369817e-11	8.955896e+00	-1.244485e-03
2.410000e-06	1.164005e-06	-2.462275e-11	9.109909e+00	-1.217964e-03
2.420000e-06	1.183577e-06	-2.412116e-11	9.263085e+00	-1.190054e-03
2.430000e-06	1.203066e-06	-2.592415e-11	9.415613e+00	-1.161175e-03
2.440000e-06	1.222462e-06	-2.670582e-11	9.567418e+00	-1.131746e-03
2.450000e-06	1.241770e-06	-2.344202e-11	9.718529e+00	-1.102178e-03
2.460000e-06	1.261050e-06	-1.929159e-11	9.869417e+00	-1.072868e-03
2.470000e-06	1.280226e-06	-1.904219e-11	1.001950e+01	-1.044200e-03
2.480000e-06	1.299272e-06	-1.878023e-11	1.016856e+01	-1.016532e-03
2.490000e-06	1.318225e-06	-1.428268e-11	1.031689e+01	-9.902022e-04
2.500000e-06	1.337005e-06	-1.016338e-11	1.046387e+01	-9.655155e-04
2.510000e-06	1.355593e-06	-9.407974e-12	1.060935e+01	-9.427465e-04
2.520000e-06	1.374105e-06	-8.663830e-12	1.075423e+01	-9.221336e-04
2.530000e-06	1.392621e-06	-7.177386e-12	1.089914e+01	-9.038773e-04
2.540000e-06	1.411035e-06	-5.350493e-12	1.104325e+01	-8.881375e-04
2.550000e-06	1.429245e-06	-4.228121e-12	1.118577e+01	-8.750318e-04
2.560000e-06	1.447327e-06	-2.857659e-12	1.132729e+01	-8.646346e-04
2.570000e-06	1.465315e-06	2.109930e-13	1.146807e+01	-8.569759e-04
2.580000e-06	1.483156e-06	3.480611e-12	1.160770e+01	-8.520414e-04
2.590000e-06	1.500842e-06	3.227644e-12	1.174612e+01	-8.497726e-04
2.600000e-06	1.518443e-06	2.809644e-12	1.188387e+01	-8.500675e-04
2.610000e-06	1.535977e-06	5.440886e-12	1.202110e+01	-8.527821e-04
2.620000e-06	1.553460e-06	6.974764e-12	1.215793e+01	-8.577321e-04
2.630000e-06	1.570868e-06	7.237444e-12	1.229416e+01	-8.646952e-04
2.640000e-06	1.588141e-06	7.647478e-12	1.242935e+01	-8.734135e-04
2.650000e-06	1.605379e-06	7.562261e-12	1.256426e+01	-8.835971e-04
2.660000e-06	1.622621e-06	7.936113e-12	1.269920e+01	-8.949271e-04
2.670000e-06	1.639748e-06	1.019280e-11	1.283324e+01	-9.070598e-04
2.680000e-06	1.656780e-06	1.001357e-11	1.296654e+01	-9.196306e-04
2.690000e-06	1.673697e-06	7.372078e-12	1.309894e+01	-9.322583e-04
2.700000e-06	1.690542e-06	6.668994e-12	1.323078e+01	-9.445499e-04
2.710000e-06	1.707367e-06	8.070427e-12	1.336245e+01	-9.561052e-04
2.720000e-06	1.724017e-06	7.572994e-12	1.349276e+01	-9.665216e-04
2.730000e-06	1.740587e-06	4.845107e-12	1.362245e+01	-9.753988e-04
2.740000e-06	1.757165e-06	4.295451e-12	1.375219e+01	-9.823440e-04
2.750000e-06	1.773526e-06	4.903063e-12	1.388024e+01	-9.869764e-04
2.760000e-06	1.789556e-06	5.572270e-12	1.400569e+01	-9.889316e-04
2.770000e-06	1.805425e-06	7.126573e-12	1.412989e+01	-9.878667e-04
2.780000e-06	1.821148e-06	7.973201e-12	1.425295e+01	-9.834641e-04
2.790000e-06	1.836663e-06	7.258707e-12	1.437437e+01	-9.754354e-04
2.800000e-06	1.851912e-06	5.841083e-12	1.449371e+01	-9.635254e-04
2.810000e-06	1.867021e-06	4.087603e-12	1.461196e+01	-9.475149e-04
2.820000e-06	1.881989e-06	3.407138e-12	1.472910e+01	-9.272243e-04
2.830000e-06	1.896708e-06	4.790711e-12	1.484430e+01	-9.025151e-04
2.840000e-06	1.911146e-06	4.523847e-12	1.495730e+01	-8.732929e-04
2.850000e-06	1.925308e-06	3.126728e-12	1.506813e+01	-8.395080e-04
2.860000e-06	1.939393e-06	5.523812e-12	1.517837e+01	-8.011572e-04
2.870000e-06	1.953421e-06	7.038679e-12	1.528816e+01	-7.582838e-04
2.880000e-06	1.967334e-06	6.612681e-12	1.539705e+01	-7.109775e-04
2.890000e-06	1.981185e-06	7.595176e-12	1.550545e+01	-6.593746e-04
2.900000e-06	1.994970e-06	1.016925e-11	1.561333e+01	-6.036560e-04
