# Temperatura_=_20.0
# Concentracion g/m^3_=_9000.0
# C_Vs_to_Am_M_A/Vsm_=_65563218390.804596
# pendiente_HvsI_1/m_=_3716.3
# ordenada_HvsI_A/m_=_1297.0
# frecuencia_Hz_=_134959.01513867854

Tiempo_(s)	Campo_(V.s)	Magnetizacion_(V.s)	Campo_(kA/m)	Magnetizacion_(A/m)
0.000000e+00	-2.540204e-06	-4.031044e-10	-1.987625e+01	-2.475473e+01
1.000000e-08	-2.540492e-06	-3.946428e-10	-1.987851e+01	-2.470999e+01
2.000000e-08	-2.540652e-06	-3.871049e-10	-1.987976e+01	-2.466299e+01
3.000000e-08	-2.540732e-06	-3.829191e-10	-1.988039e+01	-2.461406e+01
4.000000e-08	-2.540708e-06	-3.870598e-10	-1.988020e+01	-2.456356e+01
5.000000e-08	-2.540548e-06	-3.944832e-10	-1.987894e+01	-2.451185e+01
6.000000e-08	-2.540223e-06	-4.037167e-10	-1.987640e+01	-2.445927e+01
7.000000e-08	-2.539763e-06	-4.721207e-10	-1.987280e+01	-2.440620e+01
8.000000e-08	-2.539019e-06	-5.485521e-10	-1.986698e+01	-2.435299e+01
9.000000e-08	-2.538064e-06	-5.824117e-10	-1.985951e+01	-2.430000e+01
1.000000e-07	-2.536895e-06	-3.744112e-10	-1.985036e+01	-2.424758e+01
1.100000e-07	-2.535381e-06	-2.482281e-10	-1.983852e+01	-2.419607e+01
1.200000e-07	-2.533503e-06	-2.624096e-10	-1.982382e+01	-2.414579e+01
1.300000e-07	-2.531355e-06	-3.596000e-10	-1.980701e+01	-2.409704e+01
1.400000e-07	-2.528996e-06	-4.407863e-10	-1.978856e+01	-2.405012e+01
1.500000e-07	-2.526336e-06	-3.900742e-10	-1.976774e+01	-2.400528e+01
1.600000e-07	-2.523365e-06	-3.554322e-10	-1.974450e+01	-2.396277e+01
1.700000e-07	-2.520134e-06	-3.551217e-10	-1.971922e+01	-2.392281e+01
1.800000e-07	-2.516735e-06	-4.421942e-10	-1.969262e+01	-2.388557e+01
1.900000e-07	-2.513171e-06	-3.400478e-10	-1.966473e+01	-2.385122e+01
2.000000e-07	-2.509466e-06	-3.083573e-10	-1.963574e+01	-2.381987e+01
2.100000e-07	-2.505646e-06	-3.405603e-10	-1.960585e+01	-2.379161e+01
2.200000e-07	-2.501756e-06	-4.822524e-10	-1.957541e+01	-2.376651e+01
2.300000e-07	-2.497817e-06	-4.137910e-10	-1.954459e+01	-2.374457e+01
2.400000e-07	-2.493785e-06	-2.858716e-10	-1.951304e+01	-2.372579e+01
2.500000e-07	-2.489633e-06	-2.728909e-10	-1.948056e+01	-2.371012e+01
2.600000e-07	-2.485382e-06	-4.164434e-10	-1.944729e+01	-2.369748e+01
2.700000e-07	-2.480944e-06	-4.699855e-10	-1.941257e+01	-2.368774e+01
2.800000e-07	-2.476334e-06	-3.373660e-10	-1.937649e+01	-2.368078e+01
2.900000e-07	-2.471547e-06	-2.697209e-10	-1.933904e+01	-2.367641e+01
3.000000e-07	-2.466576e-06	-3.505633e-10	-1.930014e+01	-2.367443e+01
3.100000e-07	-2.461403e-06	-4.982959e-10	-1.925967e+01	-2.367460e+01
3.200000e-07	-2.456046e-06	-4.287563e-10	-1.921775e+01	-2.367668e+01
3.300000e-07	-2.450469e-06	-2.803085e-10	-1.917411e+01	-2.368038e+01
3.400000e-07	-2.444639e-06	-2.549442e-10	-1.912849e+01	-2.368543e+01
3.500000e-07	-2.438713e-06	-4.305218e-10	-1.908212e+01	-2.369150e+01
3.600000e-07	-2.432652e-06	-4.628220e-10	-1.903469e+01	-2.369828e+01
3.700000e-07	-2.426370e-06	-3.304931e-10	-1.898554e+01	-2.370545e+01
3.800000e-07	-2.419957e-06	-2.395390e-10	-1.893536e+01	-2.371267e+01
3.900000e-07	-2.413393e-06	-3.820000e-10	-1.888400e+01	-2.371962e+01
4.000000e-07	-2.406582e-06	-4.865533e-10	-1.883070e+01	-2.372595e+01
4.100000e-07	-2.399607e-06	-4.120729e-10	-1.877613e+01	-2.373135e+01
4.200000e-07	-2.392524e-06	-2.822112e-10	-1.872070e+01	-2.373550e+01
4.300000e-07	-2.385304e-06	-3.299365e-10	-1.866422e+01	-2.373810e+01
4.400000e-07	-2.377865e-06	-4.346931e-10	-1.860600e+01	-2.373887e+01
4.500000e-07	-2.370256e-06	-4.238532e-10	-1.854647e+01	-2.373753e+01
4.600000e-07	-2.362585e-06	-3.065773e-10	-1.848644e+01	-2.373385e+01
4.700000e-07	-2.354822e-06	-2.832961e-10	-1.842570e+01	-2.372759e+01
4.800000e-07	-2.346981e-06	-3.749320e-10	-1.836435e+01	-2.371858e+01
4.900000e-07	-2.339060e-06	-4.333573e-10	-1.830237e+01	-2.370664e+01
5.000000e-07	-2.330990e-06	-3.687109e-10	-1.823923e+01	-2.369164e+01
5.100000e-07	-2.322752e-06	-3.078155e-10	-1.817476e+01	-2.367347e+01
5.200000e-07	-2.314425e-06	-3.577963e-10	-1.810961e+01	-2.365207e+01
5.300000e-07	-2.306031e-06	-4.331771e-10	-1.804393e+01	-2.362741e+01
5.400000e-07	-2.297463e-06	-4.072608e-10	-1.797689e+01	-2.359947e+01
5.500000e-07	-2.288551e-06	-3.265210e-10	-1.790715e+01	-2.356830e+01
5.600000e-07	-2.279354e-06	-3.267606e-10	-1.783519e+01	-2.353395e+01
5.700000e-07	-2.269862e-06	-3.886781e-10	-1.776092e+01	-2.349653e+01
5.800000e-07	-2.260076e-06	-4.045585e-10	-1.768435e+01	-2.345615e+01
5.900000e-07	-2.250100e-06	-3.413721e-10	-1.760629e+01	-2.341299e+01
6.000000e-07	-2.239803e-06	-3.102706e-10	-1.752572e+01	-2.336722e+01
6.100000e-07	-2.229176e-06	-3.532509e-10	-1.744256e+01	-2.331904e+01
6.200000e-07	-2.218256e-06	-4.029173e-10	-1.735712e+01	-2.326871e+01
6.300000e-07	-2.207115e-06	-3.669634e-10	-1.726995e+01	-2.321646e+01
6.400000e-07	-2.195871e-06	-3.166631e-10	-1.718197e+01	-2.316256e+01
6.500000e-07	-2.184476e-06	-3.260859e-10	-1.709280e+01	-2.310730e+01
6.600000e-07	-2.172896e-06	-3.800853e-10	-1.700219e+01	-2.305097e+01
6.700000e-07	-2.161184e-06	-3.732957e-10	-1.691055e+01	-2.299385e+01
6.800000e-07	-2.149357e-06	-3.303478e-10	-1.681800e+01	-2.293627e+01
6.900000e-07	-2.137426e-06	-3.206167e-10	-1.672465e+01	-2.287850e+01
7.000000e-07	-2.125384e-06	-3.651192e-10	-1.663043e+01	-2.282084e+01
7.100000e-07	-2.113200e-06	-3.771470e-10	-1.653509e+01	-2.276358e+01
7.200000e-07	-2.100843e-06	-3.480488e-10	-1.643840e+01	-2.270699e+01
7.300000e-07	-2.088273e-06	-3.239087e-10	-1.634005e+01	-2.265132e+01
7.400000e-07	-2.075515e-06	-3.396488e-10	-1.624022e+01	-2.259682e+01
7.500000e-07	-2.062642e-06	-3.533913e-10	-1.613949e+01	-2.254368e+01
7.600000e-07	-2.049611e-06	-3.451451e-10	-1.603753e+01	-2.249211e+01
7.700000e-07	-2.036352e-06	-3.243075e-10	-1.593378e+01	-2.244226e+01
7.800000e-07	-2.022929e-06	-3.232869e-10	-1.582875e+01	-2.239426e+01
7.900000e-07	-2.009367e-06	-3.425682e-10	-1.572263e+01	-2.234820e+01
8.000000e-07	-1.995727e-06	-3.530978e-10	-1.561590e+01	-2.230416e+01
8.100000e-07	-1.981954e-06	-3.373480e-10	-1.550813e+01	-2.226215e+01
8.200000e-07	-1.967997e-06	-3.235095e-10	-1.539893e+01	-2.222216e+01
8.300000e-07	-1.953921e-06	-3.363827e-10	-1.528879e+01	-2.218416e+01
8.400000e-07	-1.939687e-06	-3.473243e-10	-1.517741e+01	-2.214805e+01
8.500000e-07	-1.925407e-06	-3.325270e-10	-1.506567e+01	-2.211372e+01
8.600000e-07	-1.910955e-06	-3.121463e-10	-1.495259e+01	-2.208101e+01
8.700000e-07	-1.896194e-06	-3.204018e-10	-1.483709e+01	-2.204972e+01
8.800000e-07	-1.881213e-06	-3.347015e-10	-1.471987e+01	-2.201965e+01
8.900000e-07	-1.865939e-06	-3.334492e-10	-1.460035e+01	-2.199051e+01
9.000000e-07	-1.850413e-06	-3.182854e-10	-1.447887e+01	-2.196205e+01
9.100000e-07	-1.834724e-06	-3.219630e-10	-1.435610e+01	-2.193393e+01
9.200000e-07	-1.818849e-06	-3.336653e-10	-1.423189e+01	-2.190583e+01
9.300000e-07	-1.802800e-06	-3.351733e-10	-1.410631e+01	-2.187739e+01
9.400000e-07	-1.786634e-06	-3.221979e-10	-1.397982e+01	-2.184824e+01
9.500000e-07	-1.770258e-06	-3.174139e-10	-1.385169e+01	-2.181799e+01
9.600000e-07	-1.753706e-06	-3.238375e-10	-1.372217e+01	-2.178625e+01
9.700000e-07	-1.737021e-06	-3.314564e-10	-1.359161e+01	-2.175261e+01
9.800000e-07	-1.720230e-06	-3.243845e-10	-1.346023e+01	-2.171669e+01
9.900000e-07	-1.703330e-06	-3.162009e-10	-1.332799e+01	-2.167807e+01
1.000000e-06	-1.686325e-06	-3.189691e-10	-1.319494e+01	-2.163637e+01
1.010000e-06	-1.669216e-06	-3.308566e-10	-1.306106e+01	-2.159121e+01
1.020000e-06	-1.652029e-06	-3.308950e-10	-1.292658e+01	-2.154222e+01
1.030000e-06	-1.634747e-06	-3.212441e-10	-1.279135e+01	-2.148905e+01
1.040000e-06	-1.617323e-06	-3.185339e-10	-1.265502e+01	-2.143139e+01
1.050000e-06	-1.599842e-06	-3.255848e-10	-1.251823e+01	-2.136893e+01
1.060000e-06	-1.582295e-06	-3.254459e-10	-1.238093e+01	-2.130140e+01
1.070000e-06	-1.564766e-06	-3.181484e-10	-1.224378e+01	-2.122858e+01
1.080000e-06	-1.547182e-06	-3.139370e-10	-1.210619e+01	-2.115025e+01
1.090000e-06	-1.529499e-06	-3.163893e-10	-1.196782e+01	-2.106626e+01
1.100000e-06	-1.511687e-06	-3.197993e-10	-1.182845e+01	-2.097648e+01
1.110000e-06	-1.493771e-06	-3.159157e-10	-1.168826e+01	-2.088081e+01
1.120000e-06	-1.475853e-06	-3.085142e-10	-1.154806e+01	-2.077923e+01
1.130000e-06	-1.457835e-06	-3.057195e-10	-1.140708e+01	-2.067173e+01
1.140000e-06	-1.439678e-06	-3.073273e-10	-1.126501e+01	-2.055834e+01
1.150000e-06	-1.421354e-06	-3.038700e-10	-1.112162e+01	-2.043915e+01
1.160000e-06	-1.402936e-06	-2.963180e-10	-1.097751e+01	-2.031428e+01
1.170000e-06	-1.384504e-06	-2.940340e-10	-1.083328e+01	-2.018391e+01
1.180000e-06	-1.365933e-06	-2.976956e-10	-1.068797e+01	-2.004821e+01
1.190000e-06	-1.347153e-06	-2.989181e-10	-1.054103e+01	-1.990745e+01
1.200000e-06	-1.328223e-06	-2.999940e-10	-1.039291e+01	-1.976188e+01
1.210000e-06	-1.309200e-06	-2.964959e-10	-1.024405e+01	-1.961181e+01
1.220000e-06	-1.290045e-06	-2.944957e-10	-1.009418e+01	-1.945758e+01
1.230000e-06	-1.270766e-06	-2.924465e-10	-9.943326e+00	-1.929954e+01
1.240000e-06	-1.251407e-06	-2.902264e-10	-9.791843e+00	-1.913806e+01
1.250000e-06	-1.232015e-06	-2.836320e-10	-9.640109e+00	-1.897354e+01
1.260000e-06	-1.212542e-06	-2.795581e-10	-9.487741e+00	-1.880640e+01
1.270000e-06	-1.192954e-06	-2.787881e-10	-9.334467e+00	-1.863704e+01
1.280000e-06	-1.173313e-06	-2.778756e-10	-9.180786e+00	-1.846589e+01
1.290000e-06	-1.153634e-06	-2.742307e-10	-9.026803e+00	-1.829338e+01
1.300000e-06	-1.133912e-06	-2.723834e-10	-8.872489e+00	-1.811992e+01
1.310000e-06	-1.114138e-06	-2.710838e-10	-8.717763e+00	-1.794591e+01
1.320000e-06	-1.094324e-06	-2.689465e-10	-8.562725e+00	-1.777177e+01
1.330000e-06	-1.074520e-06	-2.644496e-10	-8.407765e+00	-1.759787e+01
1.340000e-06	-1.054687e-06	-2.604170e-10	-8.252579e+00	-1.742457e+01
1.350000e-06	-1.034822e-06	-2.588361e-10	-8.097141e+00	-1.725220e+01
1.360000e-06	-1.014965e-06	-2.562989e-10	-7.941767e+00	-1.708107e+01
1.370000e-06	-9.950859e-07	-2.535817e-10	-7.786218e+00	-1.691146e+01
1.380000e-06	-9.751763e-07	-2.503173e-10	-7.630432e+00	-1.674362e+01
1.390000e-06	-9.552412e-07	-2.463094e-10	-7.474446e+00	-1.657773e+01
1.400000e-06	-9.353054e-07	-2.447506e-10	-7.318455e+00	-1.641398e+01
1.410000e-06	-9.153087e-07	-2.437238e-10	-7.161988e+00	-1.625248e+01
1.420000e-06	-8.952638e-07	-2.390516e-10	-7.005142e+00	-1.609332e+01
1.430000e-06	-8.752433e-07	-2.355723e-10	-6.848489e+00	-1.593653e+01
1.440000e-06	-8.551578e-07	-2.334659e-10	-6.691326e+00	-1.578212e+01
1.450000e-06	-8.350377e-07	-2.311056e-10	-6.533893e+00	-1.563002e+01
1.460000e-06	-8.148868e-07	-2.260947e-10	-6.376220e+00	-1.548016e+01
1.470000e-06	-7.946661e-07	-2.234632e-10	-6.217999e+00	-1.533239e+01
1.480000e-06	-7.743795e-07	-2.230965e-10	-6.059263e+00	-1.518654e+01
1.490000e-06	-7.540469e-07	-2.246013e-10	-5.900167e+00	-1.504240e+01
1.500000e-06	-7.337455e-07	-2.216497e-10	-5.741316e+00	-1.489969e+01
1.510000e-06	-7.134041e-07	-2.193531e-10	-5.582151e+00	-1.475815e+01
1.520000e-06	-6.929491e-07	-2.157070e-10	-5.422097e+00	-1.461744e+01
1.530000e-06	-6.723744e-07	-2.145637e-10	-5.261107e+00	-1.447721e+01
1.540000e-06	-6.517233e-07	-2.129199e-10	-5.099519e+00	-1.433709e+01
1.550000e-06	-6.309966e-07	-2.086843e-10	-4.937340e+00	-1.419666e+01
1.560000e-06	-6.101667e-07	-2.037681e-10	-4.774352e+00	-1.405551e+01
1.570000e-06	-5.893512e-07	-2.012397e-10	-4.611478e+00	-1.391321e+01
1.580000e-06	-5.685021e-07	-2.010369e-10	-4.448340e+00	-1.376931e+01
1.590000e-06	-5.475665e-07	-1.964231e-10	-4.284527e+00	-1.362334e+01
1.600000e-06	-5.265632e-07	-1.929545e-10	-4.120183e+00	-1.347487e+01
1.610000e-06	-5.054928e-07	-1.915845e-10	-3.955314e+00	-1.332342e+01
1.620000e-06	-4.843833e-07	-1.912644e-10	-3.790139e+00	-1.316857e+01
1.630000e-06	-4.632867e-07	-1.882512e-10	-3.625065e+00	-1.300985e+01
1.640000e-06	-4.421153e-07	-1.854311e-10	-3.459406e+00	-1.284686e+01
1.650000e-06	-4.209028e-07	-1.832352e-10	-3.293425e+00	-1.267919e+01
1.660000e-06	-3.997687e-07	-1.812519e-10	-3.128058e+00	-1.250645e+01
1.670000e-06	-3.785532e-07	-1.797270e-10	-2.962054e+00	-1.232828e+01
1.680000e-06	-3.572887e-07	-1.776249e-10	-2.795666e+00	-1.214434e+01
1.690000e-06	-3.360542e-07	-1.749373e-10	-2.629513e+00	-1.195435e+01
1.700000e-06	-3.147921e-07	-1.723089e-10	-2.463144e+00	-1.175803e+01
1.710000e-06	-2.934809e-07	-1.695221e-10	-2.296391e+00	-1.155515e+01
1.720000e-06	-2.721587e-07	-1.656904e-10	-2.129552e+00	-1.134552e+01
1.730000e-06	-2.508231e-07	-1.612270e-10	-1.962607e+00	-1.112897e+01
1.740000e-06	-2.294607e-07	-1.569518e-10	-1.795454e+00	-1.090540e+01
1.750000e-06	-2.081250e-07	-1.538653e-10	-1.628509e+00	-1.067473e+01
1.760000e-06	-1.867581e-07	-1.521695e-10	-1.461320e+00	-1.043693e+01
1.770000e-06	-1.653104e-07	-1.507908e-10	-1.293499e+00	-1.019199e+01
1.780000e-06	-1.438422e-07	-1.478815e-10	-1.125517e+00	-9.939978e+00
1.790000e-06	-1.223754e-07	-1.450016e-10	-9.575467e-01	-9.680970e+00
1.800000e-06	-1.008909e-07	-1.429750e-10	-7.894378e-01	-9.415091e+00
1.810000e-06	-7.937016e-08	-1.407661e-10	-6.210453e-01	-9.142504e+00
1.820000e-06	-5.784870e-08	-1.374540e-10	-4.526469e-01	-8.863403e+00
1.830000e-06	-3.635407e-08	-1.324827e-10	-2.844585e-01	-8.578019e+00
1.840000e-06	-1.488344e-08	-1.282791e-10	-1.164580e-01	-8.286610e+00
1.850000e-06	6.668332e-09	-1.244941e-10	5.217749e-02	-7.989462e+00
1.860000e-06	2.827587e-08	-1.197403e-10	2.212493e-01	-7.686888e+00
1.870000e-06	4.977539e-08	-1.155136e-10	3.894759e-01	-7.379219e+00
1.880000e-06	7.118343e-08	-1.140883e-10	5.569868e-01	-7.066809e+00
1.890000e-06	9.264208e-08	-1.116178e-10	7.248936e-01	-6.750025e+00
1.900000e-06	1.141102e-07	-1.059985e-10	8.928744e-01	-6.429245e+00
1.910000e-06	1.355375e-07	-9.888108e-11	1.060536e+00	-6.104858e+00
1.920000e-06	1.569704e-07	-9.298169e-11	1.228241e+00	-5.777259e+00
1.930000e-06	1.784048e-07	-8.654878e-11	1.395958e+00	-5.446843e+00
1.940000e-06	1.998098e-07	-8.022046e-11	1.563445e+00	-5.114005e+00
1.950000e-06	2.212034e-07	-7.436783e-11	1.730843e+00	-4.779136e+00
1.960000e-06	2.426503e-07	-6.840171e-11	1.898658e+00	-4.442622e+00
1.970000e-06	2.640552e-07	-6.108379e-11	2.066145e+00	-4.104836e+00
1.980000e-06	2.854511e-07	-5.464862e-11	2.233560e+00	-3.766141e+00
1.990000e-06	3.068256e-07	-5.045389e-11	2.400809e+00	-3.426886e+00
2.000000e-06	3.281666e-07	-4.637528e-11	2.567795e+00	-3.087401e+00
2.010000e-06	3.495478e-07	-4.012600e-11	2.735096e+00	-2.748000e+00
2.020000e-06	3.708623e-07	-3.306404e-11	2.901875e+00	-2.408977e+00
2.030000e-06	3.921873e-07	-2.768866e-11	3.068736e+00	-2.070602e+00
2.040000e-06	4.134581e-07	-2.080793e-11	3.235173e+00	-1.733125e+00
2.050000e-06	4.345600e-07	-1.259694e-11	3.400288e+00	-1.396772e+00
2.060000e-06	4.557030e-07	-6.506533e-12	3.565725e+00	-1.061748e+00
2.070000e-06	4.768327e-07	-4.836799e-12	3.731058e+00	-7.282309e-01
2.080000e-06	4.978875e-07	-3.691122e-12	3.895805e+00	-3.963772e-01
2.090000e-06	5.189002e-07	1.988707e-13	4.060222e+00	-6.632018e-02
2.100000e-06	5.398625e-07	6.616174e-12	4.224245e+00	2.618295e-01
2.110000e-06	5.607574e-07	1.134696e-11	4.387741e+00	5.879825e-01
2.120000e-06	5.814719e-07	1.444168e-11	4.549825e+00	9.120699e-01
2.130000e-06	6.021262e-07	1.814647e-11	4.711438e+00	1.234041e+00
2.140000e-06	6.228448e-07	2.561732e-11	4.873554e+00	1.553865e+00
2.150000e-06	6.435381e-07	3.066763e-11	5.035472e+00	1.871523e+00
2.160000e-06	6.640960e-07	3.335092e-11	5.196332e+00	2.187014e+00
2.170000e-06	6.845226e-07	3.869932e-11	5.356163e+00	2.500348e+00
2.180000e-06	7.048741e-07	4.775186e-11	5.515406e+00	2.811543e+00
2.190000e-06	7.253007e-07	5.549304e-11	5.675238e+00	3.120629e+00
2.200000e-06	7.457353e-07	6.024024e-11	5.835131e+00	3.427639e+00
2.210000e-06	7.660532e-07	6.433913e-11	5.994113e+00	3.732612e+00
2.220000e-06	7.863343e-07	7.016333e-11	6.152806e+00	4.035589e+00
2.230000e-06	8.066053e-07	7.707113e-11	6.311419e+00	4.336611e+00
2.240000e-06	8.267709e-07	8.143309e-11	6.469208e+00	4.635718e+00
2.250000e-06	8.468487e-07	8.454514e-11	6.626310e+00	4.932946e+00
2.260000e-06	8.669360e-07	8.833082e-11	6.783487e+00	5.228328e+00
2.270000e-06	8.869885e-07	9.420909e-11	6.940392e+00	5.521888e+00
2.280000e-06	9.069879e-07	9.952908e-11	7.096880e+00	5.813644e+00
2.290000e-06	9.269580e-07	1.047963e-10	7.253140e+00	6.103606e+00
2.300000e-06	9.469544e-07	1.093659e-10	7.409605e+00	6.391774e+00
2.310000e-06	9.668982e-07	1.149508e-10	7.565658e+00	6.678137e+00
2.320000e-06	9.867582e-07	1.193003e-10	7.721056e+00	6.962675e+00
2.330000e-06	1.006599e-06	1.195200e-10	7.876300e+00	7.245354e+00
2.340000e-06	1.026424e-06	1.202595e-10	8.031432e+00	7.526132e+00
2.350000e-06	1.046223e-06	1.257565e-10	8.186348e+00	7.804953e+00
2.360000e-06	1.066026e-06	1.322864e-10	8.341298e+00	8.081754e+00
2.370000e-06	1.085836e-06	1.372750e-10	8.496303e+00	8.356458e+00
2.380000e-06	1.105613e-06	1.393645e-10	8.651053e+00	8.628980e+00
2.390000e-06	1.125287e-06	1.431141e-10	8.804998e+00	8.899226e+00
2.400000e-06	1.144930e-06	1.494308e-10	8.958696e+00	9.167095e+00
2.410000e-06	1.164579e-06	1.535420e-10	9.112443e+00	9.432478e+00
2.420000e-06	1.184158e-06	1.548926e-10	9.265647e+00	9.695262e+00
2.430000e-06	1.203679e-06	1.588963e-10	9.418386e+00	9.955328e+00
2.440000e-06	1.223173e-06	1.647743e-10	9.570922e+00	1.021256e+01
2.450000e-06	1.242591e-06	1.685690e-10	9.722860e+00	1.046683e+01
2.460000e-06	1.261934e-06	1.711495e-10	9.874212e+00	1.071801e+01
2.470000e-06	1.281141e-06	1.748588e-10	1.002450e+01	1.096600e+01
2.480000e-06	1.300272e-06	1.796769e-10	1.017420e+01	1.121068e+01
2.490000e-06	1.319357e-06	1.832052e-10	1.032353e+01	1.145193e+01
2.500000e-06	1.338114e-06	1.844030e-10	1.047030e+01	1.168964e+01
2.510000e-06	1.356672e-06	1.849550e-10	1.061551e+01	1.192373e+01
2.520000e-06	1.375217e-06	1.884080e-10	1.076062e+01	1.215411e+01
2.530000e-06	1.393643e-06	1.923083e-10	1.090479e+01	1.238070e+01
2.540000e-06	1.411943e-06	1.955920e-10	1.104798e+01	1.260342e+01
2.550000e-06	1.430145e-06	1.991518e-10	1.119041e+01	1.282224e+01
2.560000e-06	1.448196e-06	2.047719e-10	1.133166e+01	1.303711e+01
2.570000e-06	1.466043e-06	2.085792e-10	1.147130e+01	1.324801e+01
2.580000e-06	1.483787e-06	2.115401e-10	1.161014e+01	1.345492e+01
2.590000e-06	1.501518e-06	2.157508e-10	1.174888e+01	1.365784e+01
2.600000e-06	1.519190e-06	2.179162e-10	1.188716e+01	1.385680e+01
2.610000e-06	1.536764e-06	2.189741e-10	1.202467e+01	1.405183e+01
2.620000e-06	1.554200e-06	2.204052e-10	1.216110e+01	1.424297e+01
2.630000e-06	1.571565e-06	2.209694e-10	1.229698e+01	1.443029e+01
2.640000e-06	1.588908e-06	2.223972e-10	1.243268e+01	1.461386e+01
2.650000e-06	1.606230e-06	2.250964e-10	1.256822e+01	1.479377e+01
2.660000e-06	1.623470e-06	2.266019e-10	1.270312e+01	1.497012e+01
2.670000e-06	1.640550e-06	2.279751e-10	1.283676e+01	1.514303e+01
2.680000e-06	1.657574e-06	2.309786e-10	1.296997e+01	1.531261e+01
2.690000e-06	1.674621e-06	2.353790e-10	1.310336e+01	1.547900e+01
2.700000e-06	1.691535e-06	2.394235e-10	1.323570e+01	1.564235e+01
2.710000e-06	1.708306e-06	2.418429e-10	1.336693e+01	1.580278e+01
2.720000e-06	1.724989e-06	2.435133e-10	1.349746e+01	1.596046e+01
2.730000e-06	1.741534e-06	2.446975e-10	1.362692e+01	1.611555e+01
2.740000e-06	1.757937e-06	2.450094e-10	1.375528e+01	1.626819e+01
2.750000e-06	1.774215e-06	2.477848e-10	1.388265e+01	1.641855e+01
2.760000e-06	1.790284e-06	2.521424e-10	1.400838e+01	1.656679e+01
2.770000e-06	1.806083e-06	2.544764e-10	1.413200e+01	1.671306e+01
2.780000e-06	1.821701e-06	2.555060e-10	1.425421e+01	1.685751e+01
2.790000e-06	1.837273e-06	2.568192e-10	1.437605e+01	1.700031e+01
2.800000e-06	1.852683e-06	2.593331e-10	1.449663e+01	1.714158e+01
2.810000e-06	1.867787e-06	2.609287e-10	1.461482e+01	1.728146e+01
2.820000e-06	1.882694e-06	2.615941e-10	1.473145e+01	1.742010e+01
2.830000e-06	1.897431e-06	2.634315e-10	1.484677e+01	1.755760e+01
2.840000e-06	1.911965e-06	2.664238e-10	1.496049e+01	1.769407e+01
2.850000e-06	1.926225e-06	2.683633e-10	1.507207e+01	1.782963e+01
2.860000e-06	1.940388e-06	2.690613e-10	1.518289e+01	1.796437e+01
2.870000e-06	1.954549e-06	2.705699e-10	1.529370e+01	1.809836e+01
2.880000e-06	1.968590e-06	2.734534e-10	1.540357e+01	1.823168e+01
2.890000e-06	1.982456e-06	2.759297e-10	1.551206e+01	1.836438e+01
2.900000e-06	1.996130e-06	2.758169e-10	1.561906e+01	1.849653e+01
