# Temperatura_=_20.0
# Concentracion g/m^3_=_9000.0
# C_Vs_to_Am_M_A/Vsm_=_65563218390.804596
# pendiente_HvsI_1/m_=_3716.3
# ordenada_HvsI_A/m_=_1297.0
# frecuencia_Hz_=_134954.5142851534

Tiempo_(s)	Campo_(V.s)	Magnetizacion_(V.s)	Campo_(kA/m)	Magnetizacion_(A/m)
0.000000e+00	-2.539381e-06	-2.978291e-09	-1.987961e+01	-1.924985e+02
1.000000e-08	-2.539660e-06	-3.002197e-09	-1.988179e+01	-1.924535e+02
2.000000e-08	-2.539855e-06	-3.019804e-09	-1.988332e+01	-1.923932e+02
3.000000e-08	-2.539907e-06	-2.972911e-09	-1.988373e+01	-1.923177e+02
4.000000e-08	-2.539838e-06	-2.927376e-09	-1.988319e+01	-1.922275e+02
5.000000e-08	-2.539680e-06	-2.816320e-09	-1.988195e+01	-1.921231e+02
6.000000e-08	-2.539307e-06	-2.799170e-09	-1.987903e+01	-1.920047e+02
7.000000e-08	-2.538675e-06	-2.989586e-09	-1.987408e+01	-1.918731e+02
8.000000e-08	-2.537833e-06	-3.206939e-09	-1.986749e+01	-1.917288e+02
9.000000e-08	-2.536825e-06	-3.209101e-09	-1.985960e+01	-1.915723e+02
1.000000e-07	-2.535620e-06	-2.965971e-09	-1.985017e+01	-1.914045e+02
1.100000e-07	-2.534121e-06	-2.838910e-09	-1.983843e+01	-1.912259e+02
1.200000e-07	-2.532196e-06	-2.878796e-09	-1.982336e+01	-1.910373e+02
1.300000e-07	-2.529957e-06	-3.023170e-09	-1.980583e+01	-1.908395e+02
1.400000e-07	-2.527496e-06	-3.029244e-09	-1.978657e+01	-1.906333e+02
1.500000e-07	-2.524684e-06	-2.939807e-09	-1.976456e+01	-1.904195e+02
1.600000e-07	-2.521525e-06	-2.875978e-09	-1.973982e+01	-1.901987e+02
1.700000e-07	-2.518167e-06	-2.949968e-09	-1.971353e+01	-1.899720e+02
1.800000e-07	-2.514664e-06	-2.945429e-09	-1.968611e+01	-1.897400e+02
1.900000e-07	-2.511054e-06	-2.782274e-09	-1.965785e+01	-1.895035e+02
2.000000e-07	-2.507378e-06	-2.734835e-09	-1.962907e+01	-1.892633e+02
2.100000e-07	-2.503646e-06	-2.902882e-09	-1.959986e+01	-1.890201e+02
2.200000e-07	-2.499843e-06	-3.019684e-09	-1.957008e+01	-1.887747e+02
2.300000e-07	-2.495909e-06	-2.821285e-09	-1.953929e+01	-1.885276e+02
2.400000e-07	-2.491827e-06	-2.690031e-09	-1.950733e+01	-1.882796e+02
2.500000e-07	-2.487623e-06	-2.825714e-09	-1.947442e+01	-1.880311e+02
2.600000e-07	-2.483255e-06	-3.073906e-09	-1.944022e+01	-1.877828e+02
2.700000e-07	-2.478679e-06	-2.990071e-09	-1.940440e+01	-1.875350e+02
2.800000e-07	-2.473964e-06	-2.719696e-09	-1.936749e+01	-1.872883e+02
2.900000e-07	-2.469017e-06	-2.687321e-09	-1.932876e+01	-1.870429e+02
3.000000e-07	-2.463872e-06	-2.957602e-09	-1.928848e+01	-1.867992e+02
3.100000e-07	-2.458594e-06	-3.099812e-09	-1.924717e+01	-1.865573e+02
3.200000e-07	-2.453085e-06	-2.861897e-09	-1.920403e+01	-1.863175e+02
3.300000e-07	-2.447363e-06	-2.633419e-09	-1.915925e+01	-1.860799e+02
3.400000e-07	-2.441552e-06	-2.791933e-09	-1.911375e+01	-1.858444e+02
3.500000e-07	-2.435623e-06	-3.067411e-09	-1.906734e+01	-1.856110e+02
3.600000e-07	-2.429539e-06	-2.959627e-09	-1.901970e+01	-1.853797e+02
3.700000e-07	-2.423268e-06	-2.653764e-09	-1.897061e+01	-1.851503e+02
3.800000e-07	-2.416723e-06	-2.658044e-09	-1.891937e+01	-1.849226e+02
3.900000e-07	-2.410027e-06	-2.943512e-09	-1.886695e+01	-1.846963e+02
4.000000e-07	-2.403274e-06	-2.999506e-09	-1.881409e+01	-1.844712e+02
4.100000e-07	-2.396288e-06	-2.756700e-09	-1.875940e+01	-1.842467e+02
4.200000e-07	-2.389015e-06	-2.632397e-09	-1.870246e+01	-1.840226e+02
4.300000e-07	-2.381555e-06	-2.817749e-09	-1.864407e+01	-1.837984e+02
4.400000e-07	-2.374021e-06	-2.968880e-09	-1.858509e+01	-1.835737e+02
4.500000e-07	-2.366469e-06	-2.841740e-09	-1.852597e+01	-1.833478e+02
4.600000e-07	-2.358780e-06	-2.653376e-09	-1.846577e+01	-1.831203e+02
4.700000e-07	-2.350961e-06	-2.705137e-09	-1.840456e+01	-1.828907e+02
4.800000e-07	-2.343126e-06	-2.878770e-09	-1.834322e+01	-1.826584e+02
4.900000e-07	-2.335142e-06	-2.871931e-09	-1.828072e+01	-1.824228e+02
5.000000e-07	-2.326979e-06	-2.700996e-09	-1.821681e+01	-1.821834e+02
5.100000e-07	-2.318707e-06	-2.656656e-09	-1.815205e+01	-1.819396e+02
5.200000e-07	-2.310341e-06	-2.799006e-09	-1.808656e+01	-1.816908e+02
5.300000e-07	-2.301817e-06	-2.874387e-09	-1.801983e+01	-1.814366e+02
5.400000e-07	-2.293087e-06	-2.756646e-09	-1.795149e+01	-1.811763e+02
5.500000e-07	-2.284125e-06	-2.650638e-09	-1.788133e+01	-1.809095e+02
5.600000e-07	-2.274904e-06	-2.720977e-09	-1.780914e+01	-1.806358e+02
5.700000e-07	-2.265472e-06	-2.824403e-09	-1.773530e+01	-1.803545e+02
5.800000e-07	-2.255623e-06	-2.773651e-09	-1.765820e+01	-1.800655e+02
5.900000e-07	-2.245347e-06	-2.654118e-09	-1.757775e+01	-1.797681e+02
6.000000e-07	-2.234868e-06	-2.656648e-09	-1.749572e+01	-1.794622e+02
6.100000e-07	-2.224231e-06	-2.762770e-09	-1.741245e+01	-1.791474e+02
6.200000e-07	-2.213328e-06	-2.783468e-09	-1.732710e+01	-1.788233e+02
6.300000e-07	-2.202231e-06	-2.680335e-09	-1.724022e+01	-1.784898e+02
6.400000e-07	-2.191000e-06	-2.623410e-09	-1.715230e+01	-1.781467e+02
6.500000e-07	-2.179557e-06	-2.695881e-09	-1.706272e+01	-1.777937e+02
6.600000e-07	-2.167916e-06	-2.754161e-09	-1.697158e+01	-1.774309e+02
6.700000e-07	-2.156204e-06	-2.688045e-09	-1.687990e+01	-1.770579e+02
6.800000e-07	-2.144434e-06	-2.609730e-09	-1.678776e+01	-1.766749e+02
6.900000e-07	-2.132495e-06	-2.640173e-09	-1.669429e+01	-1.762817e+02
7.000000e-07	-2.120390e-06	-2.708449e-09	-1.659953e+01	-1.758783e+02
7.100000e-07	-2.108142e-06	-2.684694e-09	-1.650364e+01	-1.754648e+02
7.200000e-07	-2.095708e-06	-2.612994e-09	-1.640630e+01	-1.750412e+02
7.300000e-07	-2.083084e-06	-2.605002e-09	-1.630748e+01	-1.746076e+02
7.400000e-07	-2.070289e-06	-2.654072e-09	-1.620731e+01	-1.741640e+02
7.500000e-07	-2.057324e-06	-2.663202e-09	-1.610581e+01	-1.737105e+02
7.600000e-07	-2.044166e-06	-2.616078e-09	-1.600281e+01	-1.732472e+02
7.700000e-07	-2.030911e-06	-2.579223e-09	-1.589904e+01	-1.727743e+02
7.800000e-07	-2.017519e-06	-2.596377e-09	-1.579419e+01	-1.722917e+02
7.900000e-07	-2.003891e-06	-2.623838e-09	-1.568751e+01	-1.717997e+02
8.000000e-07	-1.990193e-06	-2.602513e-09	-1.558027e+01	-1.712983e+02
8.100000e-07	-1.976431e-06	-2.552742e-09	-1.547254e+01	-1.707876e+02
8.200000e-07	-1.962478e-06	-2.548139e-09	-1.536331e+01	-1.702676e+02
8.300000e-07	-1.948328e-06	-2.580624e-09	-1.525254e+01	-1.697385e+02
8.400000e-07	-1.934033e-06	-2.575791e-09	-1.514063e+01	-1.692003e+02
8.500000e-07	-1.919558e-06	-2.526546e-09	-1.502731e+01	-1.686530e+02
8.600000e-07	-1.904902e-06	-2.506060e-09	-1.491257e+01	-1.680966e+02
8.700000e-07	-1.890039e-06	-2.530704e-09	-1.479622e+01	-1.675311e+02
8.800000e-07	-1.874899e-06	-2.536438e-09	-1.467770e+01	-1.669565e+02
8.900000e-07	-1.859619e-06	-2.500399e-09	-1.455807e+01	-1.663728e+02
9.000000e-07	-1.844169e-06	-2.473250e-09	-1.443712e+01	-1.657798e+02
9.100000e-07	-1.828325e-06	-2.483520e-09	-1.431309e+01	-1.651775e+02
9.200000e-07	-1.812392e-06	-2.493192e-09	-1.418836e+01	-1.645657e+02
9.300000e-07	-1.796358e-06	-2.472108e-09	-1.406284e+01	-1.639443e+02
9.400000e-07	-1.780113e-06	-2.441906e-09	-1.393566e+01	-1.633131e+02
9.500000e-07	-1.763774e-06	-2.436694e-09	-1.380775e+01	-1.626720e+02
9.600000e-07	-1.747229e-06	-2.446905e-09	-1.367822e+01	-1.620207e+02
9.700000e-07	-1.730521e-06	-2.437407e-09	-1.354742e+01	-1.613591e+02
9.800000e-07	-1.713680e-06	-2.405745e-09	-1.341559e+01	-1.606868e+02
9.900000e-07	-1.696756e-06	-2.387372e-09	-1.328310e+01	-1.600038e+02
1.000000e-06	-1.679723e-06	-2.392397e-09	-1.314975e+01	-1.593096e+02
1.010000e-06	-1.662589e-06	-2.395433e-09	-1.301562e+01	-1.586041e+02
1.020000e-06	-1.645451e-06	-2.372095e-09	-1.288146e+01	-1.578871e+02
1.030000e-06	-1.628240e-06	-2.343316e-09	-1.274672e+01	-1.571582e+02
1.040000e-06	-1.610937e-06	-2.338517e-09	-1.261126e+01	-1.564172e+02
1.050000e-06	-1.593511e-06	-2.343832e-09	-1.247484e+01	-1.556639e+02
1.060000e-06	-1.575955e-06	-2.328379e-09	-1.233740e+01	-1.548980e+02
1.070000e-06	-1.558357e-06	-2.299748e-09	-1.219964e+01	-1.541193e+02
1.080000e-06	-1.540725e-06	-2.286237e-09	-1.206161e+01	-1.533276e+02
1.090000e-06	-1.523051e-06	-2.285732e-09	-1.192324e+01	-1.525227e+02
1.100000e-06	-1.505342e-06	-2.275093e-09	-1.178461e+01	-1.517044e+02
1.110000e-06	-1.487511e-06	-2.250046e-09	-1.164502e+01	-1.508725e+02
1.120000e-06	-1.469544e-06	-2.230641e-09	-1.150436e+01	-1.500269e+02
1.130000e-06	-1.451453e-06	-2.223219e-09	-1.136274e+01	-1.491675e+02
1.140000e-06	-1.433223e-06	-2.214833e-09	-1.122002e+01	-1.482941e+02
1.150000e-06	-1.414937e-06	-2.197942e-09	-1.107687e+01	-1.474067e+02
1.160000e-06	-1.396532e-06	-2.177013e-09	-1.093278e+01	-1.465052e+02
1.170000e-06	-1.377979e-06	-2.164927e-09	-1.078754e+01	-1.455896e+02
1.180000e-06	-1.359264e-06	-2.158154e-09	-1.064104e+01	-1.446598e+02
1.190000e-06	-1.340397e-06	-2.146240e-09	-1.049333e+01	-1.437158e+02
1.200000e-06	-1.321462e-06	-2.127297e-09	-1.034510e+01	-1.427576e+02
1.210000e-06	-1.302437e-06	-2.111277e-09	-1.019616e+01	-1.417853e+02
1.220000e-06	-1.283240e-06	-2.101382e-09	-1.004587e+01	-1.407989e+02
1.230000e-06	-1.263880e-06	-2.089190e-09	-9.894318e+00	-1.397985e+02
1.240000e-06	-1.244450e-06	-2.072011e-09	-9.742207e+00	-1.387840e+02
1.250000e-06	-1.224957e-06	-2.054776e-09	-9.589605e+00	-1.377556e+02
1.260000e-06	-1.205469e-06	-2.044186e-09	-9.437045e+00	-1.367133e+02
1.270000e-06	-1.185952e-06	-2.031950e-09	-9.284254e+00	-1.356571e+02
1.280000e-06	-1.166352e-06	-2.013972e-09	-9.130814e+00	-1.345872e+02
1.290000e-06	-1.146717e-06	-1.995166e-09	-8.977102e+00	-1.335035e+02
1.300000e-06	-1.127021e-06	-1.979106e-09	-8.822911e+00	-1.324061e+02
1.310000e-06	-1.107280e-06	-1.964445e-09	-8.668366e+00	-1.312950e+02
1.320000e-06	-1.087519e-06	-1.948281e-09	-8.513668e+00	-1.301702e+02
1.330000e-06	-1.067749e-06	-1.928514e-09	-8.358900e+00	-1.290317e+02
1.340000e-06	-1.047939e-06	-1.911027e-09	-8.203817e+00	-1.278794e+02
1.350000e-06	-1.028086e-06	-1.897743e-09	-8.048396e+00	-1.267133e+02
1.360000e-06	-1.008215e-06	-1.882019e-09	-7.892836e+00	-1.255331e+02
1.370000e-06	-9.883345e-07	-1.861145e-09	-7.737202e+00	-1.243389e+02
1.380000e-06	-9.684200e-07	-1.841007e-09	-7.581300e+00	-1.231303e+02
1.390000e-06	-9.485109e-07	-1.825908e-09	-7.425441e+00	-1.219073e+02
1.400000e-06	-9.286282e-07	-1.812018e-09	-7.269789e+00	-1.206695e+02
1.410000e-06	-9.086872e-07	-1.792014e-09	-7.113680e+00	-1.194166e+02
1.420000e-06	-8.886648e-07	-1.764634e-09	-6.956935e+00	-1.181484e+02
1.430000e-06	-8.686314e-07	-1.739380e-09	-6.800103e+00	-1.168644e+02
1.440000e-06	-8.486271e-07	-1.716052e-09	-6.643499e+00	-1.155643e+02
1.450000e-06	-8.285085e-07	-1.692280e-09	-6.485999e+00	-1.142476e+02
1.460000e-06	-8.083255e-07	-1.671082e-09	-6.327996e+00	-1.129139e+02
1.470000e-06	-7.881432e-07	-1.652451e-09	-6.169999e+00	-1.115625e+02
1.480000e-06	-7.678621e-07	-1.636031e-09	-6.011228e+00	-1.101931e+02
1.490000e-06	-7.475514e-07	-1.617613e-09	-5.852225e+00	-1.088049e+02
1.500000e-06	-7.271985e-07	-1.596006e-09	-5.692892e+00	-1.073975e+02
1.510000e-06	-7.067254e-07	-1.574086e-09	-5.532617e+00	-1.059702e+02
1.520000e-06	-6.861237e-07	-1.554806e-09	-5.371337e+00	-1.045223e+02
1.530000e-06	-6.654100e-07	-1.535759e-09	-5.209179e+00	-1.030532e+02
1.540000e-06	-6.446870e-07	-1.512761e-09	-5.046948e+00	-1.015623e+02
1.550000e-06	-6.239392e-07	-1.486869e-09	-4.884523e+00	-1.000489e+02
1.560000e-06	-6.031192e-07	-1.461786e-09	-4.721534e+00	-9.851237e+01
1.570000e-06	-5.822448e-07	-1.443416e-09	-4.558118e+00	-9.695198e+01
1.580000e-06	-5.614321e-07	-1.424143e-09	-4.395186e+00	-9.536713e+01
1.590000e-06	-5.406063e-07	-1.398487e-09	-4.232150e+00	-9.375718e+01
1.600000e-06	-5.195579e-07	-1.373106e-09	-4.067372e+00	-9.212153e+01
1.610000e-06	-4.984539e-07	-1.349684e-09	-3.902159e+00	-9.045961e+01
1.620000e-06	-4.774126e-07	-1.322505e-09	-3.737436e+00	-8.877085e+01
1.630000e-06	-4.563130e-07	-1.291513e-09	-3.572258e+00	-8.705476e+01
1.640000e-06	-4.351364e-07	-1.262247e-09	-3.406476e+00	-8.531086e+01
1.650000e-06	-4.139321e-07	-1.236487e-09	-3.240478e+00	-8.353873e+01
1.660000e-06	-3.927080e-07	-1.211791e-09	-3.074325e+00	-8.173800e+01
1.670000e-06	-3.713939e-07	-1.184587e-09	-2.907466e+00	-7.990836e+01
1.680000e-06	-3.500507e-07	-1.156647e-09	-2.740381e+00	-7.804954e+01
1.690000e-06	-3.287679e-07	-1.128848e-09	-2.573767e+00	-7.616134e+01
1.700000e-06	-3.074395e-07	-1.100130e-09	-2.406798e+00	-7.424365e+01
1.710000e-06	-2.860305e-07	-1.072437e-09	-2.239197e+00	-7.229638e+01
1.720000e-06	-2.645947e-07	-1.043341e-09	-2.071386e+00	-7.031955e+01
1.730000e-06	-2.431387e-07	-1.010597e-09	-1.903417e+00	-6.831323e+01
1.740000e-06	-2.216376e-07	-9.785452e-10	-1.735096e+00	-6.627756e+01
1.750000e-06	-2.001473e-07	-9.504993e-10	-1.566858e+00	-6.421277e+01
1.760000e-06	-1.787253e-07	-9.220083e-10	-1.399156e+00	-6.211915e+01
1.770000e-06	-1.572846e-07	-8.883484e-10	-1.231307e+00	-5.999705e+01
1.780000e-06	-1.358262e-07	-8.553777e-10	-1.063319e+00	-5.784691e+01
1.790000e-06	-1.143589e-07	-8.258717e-10	-8.952615e-01	-5.566923e+01
1.800000e-06	-9.284827e-08	-7.941990e-10	-7.268650e-01	-5.346459e+01
1.810000e-06	-7.136840e-08	-7.615728e-10	-5.587093e-01	-5.123363e+01
1.820000e-06	-4.988229e-08	-7.279930e-10	-3.905048e-01	-4.897703e+01
1.830000e-06	-2.837471e-08	-6.959187e-10	-2.221321e-01	-4.669557e+01
1.840000e-06	-6.963697e-09	-6.626293e-10	-5.451548e-02	-4.439007e+01
1.850000e-06	1.448033e-08	-6.285040e-10	1.133596e-01	-4.206138e+01
1.860000e-06	3.597829e-08	-5.942543e-10	2.816569e-01	-3.971045e+01
1.870000e-06	5.738720e-08	-5.611058e-10	4.492571e-01	-3.733823e+01
1.880000e-06	7.879419e-08	-5.288045e-10	6.168423e-01	-3.494574e+01
1.890000e-06	1.003081e-07	-4.950572e-10	7.852644e-01	-3.253403e+01
1.900000e-06	1.218163e-07	-4.592365e-10	9.536420e-01	-3.010417e+01
1.910000e-06	1.432498e-07	-4.210095e-10	1.121435e+00	-2.765730e+01
1.920000e-06	1.647296e-07	-3.829532e-10	1.289590e+00	-2.519453e+01
1.930000e-06	1.862121e-07	-3.463623e-10	1.457766e+00	-2.271704e+01
1.940000e-06	2.076624e-07	-3.082812e-10	1.625690e+00	-2.022599e+01
1.950000e-06	2.291750e-07	-2.677617e-10	1.794102e+00	-1.772258e+01
1.960000e-06	2.505918e-07	-2.316971e-10	1.961764e+00	-1.520801e+01
1.970000e-06	2.718672e-07	-1.987924e-10	2.128319e+00	-1.268348e+01
1.980000e-06	2.931976e-07	-1.618844e-10	2.295304e+00	-1.015019e+01
1.990000e-06	3.145347e-07	-1.227567e-10	2.462343e+00	-7.609361e+00
2.000000e-06	3.359174e-07	-8.784257e-11	2.629737e+00	-5.062179e+00
2.010000e-06	3.572414e-07	-5.162904e-11	2.796673e+00	-2.509844e+00
2.020000e-06	3.783917e-07	-1.241005e-11	2.962249e+00	4.646217e-02
2.030000e-06	3.995189e-07	2.852819e-11	3.127644e+00	2.605566e+00
2.040000e-06	4.205886e-07	6.621718e-11	3.292589e+00	5.166309e+00
2.050000e-06	4.415908e-07	1.039298e-10	3.457004e+00	7.727546e+00
2.060000e-06	4.625721e-07	1.420566e-10	3.621258e+00	1.028815e+01
2.070000e-06	4.836477e-07	1.790228e-10	3.786248e+00	1.284701e+01
2.080000e-06	5.046632e-07	2.150029e-10	3.950768e+00	1.540304e+01
2.090000e-06	5.255609e-07	2.494167e-10	4.114367e+00	1.795516e+01
2.100000e-06	5.464394e-07	2.865188e-10	4.277814e+00	2.050232e+01
2.110000e-06	5.672624e-07	3.242878e-10	4.440828e+00	2.304349e+01
2.120000e-06	5.880123e-07	3.610441e-10	4.603269e+00	2.557765e+01
2.130000e-06	6.086765e-07	3.991119e-10	4.765039e+00	2.810380e+01
2.140000e-06	6.293227e-07	4.365786e-10	4.926668e+00	3.062096e+01
2.150000e-06	6.499368e-07	4.728854e-10	5.088047e+00	3.312819e+01
2.160000e-06	6.705009e-07	5.087047e-10	5.249033e+00	3.562453e+01
2.170000e-06	6.909986e-07	5.468242e-10	5.409500e+00	3.810906e+01
2.180000e-06	7.114357e-07	5.845096e-10	5.569492e+00	4.058089e+01
2.190000e-06	7.317693e-07	6.203923e-10	5.728674e+00	4.303911e+01
2.200000e-06	7.520815e-07	6.559847e-10	5.887689e+00	4.548285e+01
2.210000e-06	7.723606e-07	6.923190e-10	6.046444e+00	4.791126e+01
2.220000e-06	7.926033e-07	7.301724e-10	6.204915e+00	5.032350e+01
2.230000e-06	8.127935e-07	7.668149e-10	6.362974e+00	5.271873e+01
2.240000e-06	8.329131e-07	8.033640e-10	6.520481e+00	5.509615e+01
2.250000e-06	8.529477e-07	8.400726e-10	6.677323e+00	5.745496e+01
2.260000e-06	8.728900e-07	8.755773e-10	6.833442e+00	5.979438e+01
2.270000e-06	8.928615e-07	9.087433e-10	6.989788e+00	6.211366e+01
2.280000e-06	9.128638e-07	9.436884e-10	7.146378e+00	6.441204e+01
2.290000e-06	9.328227e-07	9.788252e-10	7.302626e+00	6.668880e+01
2.300000e-06	9.527465e-07	1.012424e-09	7.458600e+00	6.894324e+01
2.310000e-06	9.726530e-07	1.044572e-09	7.614438e+00	7.117466e+01
2.320000e-06	9.925024e-07	1.076613e-09	7.769830e+00	7.338242e+01
2.330000e-06	1.012325e-06	1.108313e-09	7.925010e+00	7.556587e+01
2.340000e-06	1.032135e-06	1.140979e-09	8.080095e+00	7.772441e+01
2.350000e-06	1.051911e-06	1.173911e-09	8.234914e+00	7.985744e+01
2.360000e-06	1.071671e-06	1.205759e-09	8.389604e+00	8.196443e+01
2.370000e-06	1.091402e-06	1.236556e-09	8.544065e+00	8.404484e+01
2.380000e-06	1.111122e-06	1.267142e-09	8.698447e+00	8.609820e+01
2.390000e-06	1.130786e-06	1.299252e-09	8.852385e+00	8.812407e+01
2.400000e-06	1.150381e-06	1.331818e-09	9.005787e+00	9.012203e+01
2.410000e-06	1.169965e-06	1.363385e-09	9.159102e+00	9.209172e+01
2.420000e-06	1.189487e-06	1.394162e-09	9.311926e+00	9.403282e+01
2.430000e-06	1.208955e-06	1.424770e-09	9.464333e+00	9.594505e+01
2.440000e-06	1.228397e-06	1.453968e-09	9.616535e+00	9.782819e+01
2.450000e-06	1.247756e-06	1.480181e-09	9.768089e+00	9.968205e+01
2.460000e-06	1.266992e-06	1.506226e-09	9.918682e+00	1.015065e+02
2.470000e-06	1.286087e-06	1.533801e-09	1.006816e+01	1.033015e+02
2.480000e-06	1.305004e-06	1.560860e-09	1.021625e+01	1.050670e+02
2.490000e-06	1.323756e-06	1.586362e-09	1.036306e+01	1.068030e+02
2.500000e-06	1.342374e-06	1.611024e-09	1.050881e+01	1.085097e+02
2.510000e-06	1.360939e-06	1.637882e-09	1.065415e+01	1.101871e+02
2.520000e-06	1.379489e-06	1.664009e-09	1.079937e+01	1.118355e+02
2.530000e-06	1.397930e-06	1.688246e-09	1.094373e+01	1.134550e+02
2.540000e-06	1.416149e-06	1.711295e-09	1.108636e+01	1.150461e+02
2.550000e-06	1.434293e-06	1.735231e-09	1.122840e+01	1.166090e+02
2.560000e-06	1.452404e-06	1.760247e-09	1.137018e+01	1.181442e+02
2.570000e-06	1.470372e-06	1.782458e-09	1.151085e+01	1.196520e+02
2.580000e-06	1.488251e-06	1.803562e-09	1.165081e+01	1.211330e+02
2.590000e-06	1.506000e-06	1.826566e-09	1.178976e+01	1.225877e+02
2.600000e-06	1.523600e-06	1.849663e-09	1.192754e+01	1.240166e+02
2.610000e-06	1.541095e-06	1.871423e-09	1.206450e+01	1.254204e+02
2.620000e-06	1.558474e-06	1.892450e-09	1.220055e+01	1.267997e+02
2.630000e-06	1.575761e-06	1.914046e-09	1.233588e+01	1.281551e+02
2.640000e-06	1.593022e-06	1.936784e-09	1.247101e+01	1.294873e+02
2.650000e-06	1.610273e-06	1.959564e-09	1.260606e+01	1.307970e+02
2.660000e-06	1.627520e-06	1.980185e-09	1.274108e+01	1.320848e+02
2.670000e-06	1.644666e-06	1.999413e-09	1.287531e+01	1.333516e+02
2.680000e-06	1.661661e-06	2.020762e-09	1.300836e+01	1.345979e+02
2.690000e-06	1.678520e-06	2.042014e-09	1.314034e+01	1.358245e+02
2.700000e-06	1.695343e-06	2.059159e-09	1.327203e+01	1.370321e+02
2.710000e-06	1.712027e-06	2.075613e-09	1.340264e+01	1.382214e+02
2.720000e-06	1.728614e-06	2.093927e-09	1.353250e+01	1.393929e+02
2.730000e-06	1.745146e-06	2.111999e-09	1.366192e+01	1.405475e+02
2.740000e-06	1.761465e-06	2.130054e-09	1.378967e+01	1.416856e+02
2.750000e-06	1.777615e-06	2.147680e-09	1.391610e+01	1.428078e+02
2.760000e-06	1.793676e-06	2.166739e-09	1.404184e+01	1.439148e+02
2.770000e-06	1.809522e-06	2.185802e-09	1.416589e+01	1.450070e+02
2.780000e-06	1.825157e-06	2.202209e-09	1.428829e+01	1.460848e+02
2.790000e-06	1.840629e-06	2.217111e-09	1.440941e+01	1.471488e+02
2.800000e-06	1.855879e-06	2.232330e-09	1.452880e+01	1.481993e+02
2.810000e-06	1.870904e-06	2.248340e-09	1.464642e+01	1.492366e+02
2.820000e-06	1.885710e-06	2.264413e-09	1.476233e+01	1.502610e+02
2.830000e-06	1.900461e-06	2.279926e-09	1.487780e+01	1.512728e+02
2.840000e-06	1.915025e-06	2.296088e-09	1.499182e+01	1.522722e+02
2.850000e-06	1.929366e-06	2.312512e-09	1.510409e+01	1.532592e+02
2.860000e-06	1.943562e-06	2.326598e-09	1.521522e+01	1.542340e+02
2.870000e-06	1.957579e-06	2.341337e-09	1.532496e+01	1.551967e+02
2.880000e-06	1.971490e-06	2.356037e-09	1.543386e+01	1.561473e+02
2.890000e-06	1.985374e-06	2.370382e-09	1.554255e+01	1.570857e+02
2.900000e-06	1.999074e-06	2.383966e-09	1.564980e+01	1.580118e+02
