# Temperatura_=_20.0
# Concentracion g/m^3_=_9000.0
# C_Vs_to_Am_M_A/Vsm_=_65563218390.804596
# pendiente_HvsI_1/m_=_3716.3
# ordenada_HvsI_A/m_=_1297.0
# frecuencia_Hz_=_134960.9298698508

Tiempo_(s)	Campo_(V.s)	Magnetizacion_(V.s)	Campo_(kA/m)	Magnetizacion_(A/m)
0.000000e+00	-2.541431e-06	-2.967115e-09	-1.986630e+01	-1.935494e+02
1.000000e-08	-2.541761e-06	-2.964986e-09	-1.986888e+01	-1.934330e+02
2.000000e-08	-2.541960e-06	-2.974715e-09	-1.987044e+01	-1.932946e+02
3.000000e-08	-2.541992e-06	-3.006721e-09	-1.987069e+01	-1.931346e+02
4.000000e-08	-2.541915e-06	-3.040337e-09	-1.987008e+01	-1.929537e+02
5.000000e-08	-2.541732e-06	-3.030195e-09	-1.986866e+01	-1.927525e+02
6.000000e-08	-2.541358e-06	-2.920513e-09	-1.986573e+01	-1.925318e+02
7.000000e-08	-2.540857e-06	-2.926346e-09	-1.986182e+01	-1.922925e+02
8.000000e-08	-2.540181e-06	-3.034162e-09	-1.985653e+01	-1.920354e+02
9.000000e-08	-2.539302e-06	-3.108928e-09	-1.984966e+01	-1.917618e+02
1.000000e-07	-2.538231e-06	-3.096840e-09	-1.984129e+01	-1.914727e+02
1.100000e-07	-2.536957e-06	-2.960297e-09	-1.983133e+01	-1.911693e+02
1.200000e-07	-2.535430e-06	-2.902258e-09	-1.981939e+01	-1.908529e+02
1.300000e-07	-2.533473e-06	-2.927044e-09	-1.980409e+01	-1.905248e+02
1.400000e-07	-2.531143e-06	-3.002379e-09	-1.978588e+01	-1.901864e+02
1.500000e-07	-2.528463e-06	-2.917041e-09	-1.976493e+01	-1.898391e+02
1.600000e-07	-2.525502e-06	-2.884876e-09	-1.974179e+01	-1.894842e+02
1.700000e-07	-2.522355e-06	-2.914524e-09	-1.971718e+01	-1.891232e+02
1.800000e-07	-2.518983e-06	-2.995096e-09	-1.969083e+01	-1.887575e+02
1.900000e-07	-2.515425e-06	-2.904421e-09	-1.966301e+01	-1.883885e+02
2.000000e-07	-2.511724e-06	-2.807897e-09	-1.963408e+01	-1.880175e+02
2.100000e-07	-2.507931e-06	-2.810411e-09	-1.960443e+01	-1.876460e+02
2.200000e-07	-2.504097e-06	-2.880326e-09	-1.957446e+01	-1.872751e+02
2.300000e-07	-2.500203e-06	-2.867444e-09	-1.954402e+01	-1.869062e+02
2.400000e-07	-2.496200e-06	-2.737903e-09	-1.951273e+01	-1.865403e+02
2.500000e-07	-2.492102e-06	-2.734815e-09	-1.948070e+01	-1.861785e+02
2.600000e-07	-2.487778e-06	-2.838595e-09	-1.944690e+01	-1.858219e+02
2.700000e-07	-2.483378e-06	-2.933004e-09	-1.941250e+01	-1.854712e+02
2.800000e-07	-2.478896e-06	-2.805193e-09	-1.937747e+01	-1.851274e+02
2.900000e-07	-2.474143e-06	-2.696975e-09	-1.934031e+01	-1.847911e+02
3.000000e-07	-2.469127e-06	-2.724995e-09	-1.930111e+01	-1.844629e+02
3.100000e-07	-2.463877e-06	-2.891451e-09	-1.926007e+01	-1.841431e+02
3.200000e-07	-2.458446e-06	-2.850598e-09	-1.921761e+01	-1.838323e+02
3.300000e-07	-2.452879e-06	-2.710709e-09	-1.917410e+01	-1.835305e+02
3.400000e-07	-2.447226e-06	-2.678278e-09	-1.912990e+01	-1.832379e+02
3.500000e-07	-2.441423e-06	-2.827616e-09	-1.908454e+01	-1.829545e+02
3.600000e-07	-2.435463e-06	-2.860256e-09	-1.903795e+01	-1.826800e+02
3.700000e-07	-2.429310e-06	-2.743990e-09	-1.898985e+01	-1.824144e+02
3.800000e-07	-2.422942e-06	-2.669697e-09	-1.894007e+01	-1.821571e+02
3.900000e-07	-2.416434e-06	-2.753296e-09	-1.888920e+01	-1.819077e+02
4.000000e-07	-2.409749e-06	-2.828945e-09	-1.883695e+01	-1.816656e+02
4.100000e-07	-2.402856e-06	-2.777455e-09	-1.878306e+01	-1.814303e+02
4.200000e-07	-2.395743e-06	-2.689845e-09	-1.872746e+01	-1.812008e+02
4.300000e-07	-2.388505e-06	-2.699817e-09	-1.867089e+01	-1.809764e+02
4.400000e-07	-2.381110e-06	-2.781279e-09	-1.861307e+01	-1.807562e+02
4.500000e-07	-2.373515e-06	-2.782628e-09	-1.855370e+01	-1.805392e+02
4.600000e-07	-2.365894e-06	-2.702812e-09	-1.849414e+01	-1.803245e+02
4.700000e-07	-2.358183e-06	-2.658878e-09	-1.843386e+01	-1.801109e+02
4.800000e-07	-2.350346e-06	-2.720269e-09	-1.837260e+01	-1.798974e+02
4.900000e-07	-2.342447e-06	-2.761377e-09	-1.831085e+01	-1.796829e+02
5.000000e-07	-2.334441e-06	-2.719365e-09	-1.824827e+01	-1.794663e+02
5.100000e-07	-2.326299e-06	-2.659477e-09	-1.818462e+01	-1.792466e+02
5.200000e-07	-2.318046e-06	-2.690930e-09	-1.812011e+01	-1.790226e+02
5.300000e-07	-2.309676e-06	-2.740593e-09	-1.805468e+01	-1.787933e+02
5.400000e-07	-2.301110e-06	-2.730463e-09	-1.798772e+01	-1.785578e+02
5.500000e-07	-2.292248e-06	-2.668930e-09	-1.791844e+01	-1.783149e+02
5.600000e-07	-2.283069e-06	-2.660367e-09	-1.784670e+01	-1.780639e+02
5.700000e-07	-2.273628e-06	-2.695835e-09	-1.777290e+01	-1.778038e+02
5.800000e-07	-2.264000e-06	-2.709859e-09	-1.769763e+01	-1.775339e+02
5.900000e-07	-2.254143e-06	-2.663889e-09	-1.762058e+01	-1.772534e+02
6.000000e-07	-2.243977e-06	-2.633239e-09	-1.754111e+01	-1.769618e+02
6.100000e-07	-2.233495e-06	-2.656006e-09	-1.745918e+01	-1.766584e+02
6.200000e-07	-2.222812e-06	-2.691883e-09	-1.737567e+01	-1.763429e+02
6.300000e-07	-2.211896e-06	-2.668046e-09	-1.729033e+01	-1.760147e+02
6.400000e-07	-2.200692e-06	-2.626867e-09	-1.720275e+01	-1.756736e+02
6.500000e-07	-2.189323e-06	-2.627427e-09	-1.711388e+01	-1.753195e+02
6.600000e-07	-2.177743e-06	-2.655860e-09	-1.702336e+01	-1.749522e+02
6.700000e-07	-2.165982e-06	-2.646695e-09	-1.693143e+01	-1.745717e+02
6.800000e-07	-2.154125e-06	-2.612613e-09	-1.683874e+01	-1.741780e+02
6.900000e-07	-2.142174e-06	-2.603562e-09	-1.674532e+01	-1.737712e+02
7.000000e-07	-2.130110e-06	-2.619308e-09	-1.665101e+01	-1.733517e+02
7.100000e-07	-2.117896e-06	-2.620038e-09	-1.655554e+01	-1.729196e+02
7.200000e-07	-2.105588e-06	-2.599952e-09	-1.645933e+01	-1.724753e+02
7.300000e-07	-2.093147e-06	-2.584935e-09	-1.636208e+01	-1.720192e+02
7.400000e-07	-2.080400e-06	-2.582138e-09	-1.626244e+01	-1.715517e+02
7.500000e-07	-2.067434e-06	-2.586382e-09	-1.616108e+01	-1.710733e+02
7.600000e-07	-2.054374e-06	-2.579098e-09	-1.605899e+01	-1.705846e+02
7.700000e-07	-2.041125e-06	-2.558991e-09	-1.595543e+01	-1.700860e+02
7.800000e-07	-2.027736e-06	-2.544852e-09	-1.585076e+01	-1.695781e+02
7.900000e-07	-2.014216e-06	-2.554429e-09	-1.574508e+01	-1.690615e+02
8.000000e-07	-2.000491e-06	-2.551547e-09	-1.563779e+01	-1.685367e+02
8.100000e-07	-1.986576e-06	-2.527835e-09	-1.552902e+01	-1.680043e+02
8.200000e-07	-1.972542e-06	-2.510819e-09	-1.541931e+01	-1.674648e+02
8.300000e-07	-1.958404e-06	-2.520769e-09	-1.530880e+01	-1.669187e+02
8.400000e-07	-1.944106e-06	-2.518161e-09	-1.519703e+01	-1.663663e+02
8.500000e-07	-1.929618e-06	-2.493388e-09	-1.508378e+01	-1.658082e+02
8.600000e-07	-1.914975e-06	-2.474655e-09	-1.496931e+01	-1.652447e+02
8.700000e-07	-1.900163e-06	-2.479207e-09	-1.485353e+01	-1.646761e+02
8.800000e-07	-1.885098e-06	-2.476792e-09	-1.473577e+01	-1.641026e+02
8.900000e-07	-1.869899e-06	-2.459613e-09	-1.461695e+01	-1.635244e+02
9.000000e-07	-1.854440e-06	-2.441509e-09	-1.449611e+01	-1.629417e+02
9.100000e-07	-1.838673e-06	-2.435619e-09	-1.437286e+01	-1.623543e+02
9.200000e-07	-1.822827e-06	-2.432638e-09	-1.424900e+01	-1.617624e+02
9.300000e-07	-1.806837e-06	-2.424014e-09	-1.412400e+01	-1.611657e+02
9.400000e-07	-1.790557e-06	-2.408316e-09	-1.399674e+01	-1.605641e+02
9.500000e-07	-1.774203e-06	-2.394573e-09	-1.386890e+01	-1.599574e+02
9.600000e-07	-1.757715e-06	-2.391008e-09	-1.374002e+01	-1.593451e+02
9.700000e-07	-1.740915e-06	-2.388651e-09	-1.360869e+01	-1.587269e+02
9.800000e-07	-1.724069e-06	-2.371167e-09	-1.347700e+01	-1.581024e+02
9.900000e-07	-1.707241e-06	-2.347915e-09	-1.334546e+01	-1.574709e+02
1.000000e-06	-1.690283e-06	-2.343931e-09	-1.321290e+01	-1.568320e+02
1.010000e-06	-1.673131e-06	-2.346608e-09	-1.307882e+01	-1.561849e+02
1.020000e-06	-1.655843e-06	-2.334069e-09	-1.294369e+01	-1.555290e+02
1.030000e-06	-1.638487e-06	-2.313578e-09	-1.280801e+01	-1.548637e+02
1.040000e-06	-1.621060e-06	-2.303053e-09	-1.267179e+01	-1.541881e+02
1.050000e-06	-1.603546e-06	-2.297981e-09	-1.253488e+01	-1.535015e+02
1.060000e-06	-1.585993e-06	-2.290036e-09	-1.239766e+01	-1.528032e+02
1.070000e-06	-1.568347e-06	-2.274040e-09	-1.225973e+01	-1.520923e+02
1.080000e-06	-1.550605e-06	-2.258188e-09	-1.212104e+01	-1.513681e+02
1.090000e-06	-1.532761e-06	-2.249337e-09	-1.198156e+01	-1.506298e+02
1.100000e-06	-1.514850e-06	-2.243146e-09	-1.184154e+01	-1.498768e+02
1.110000e-06	-1.496937e-06	-2.229508e-09	-1.170152e+01	-1.491082e+02
1.120000e-06	-1.478946e-06	-2.212594e-09	-1.156089e+01	-1.483234e+02
1.130000e-06	-1.460915e-06	-2.196715e-09	-1.141993e+01	-1.475218e+02
1.140000e-06	-1.442796e-06	-2.185300e-09	-1.127830e+01	-1.467027e+02
1.150000e-06	-1.424520e-06	-2.176028e-09	-1.113544e+01	-1.458657e+02
1.160000e-06	-1.406110e-06	-2.162159e-09	-1.099153e+01	-1.450102e+02
1.170000e-06	-1.387575e-06	-2.145867e-09	-1.084664e+01	-1.441358e+02
1.180000e-06	-1.368947e-06	-2.136213e-09	-1.070103e+01	-1.432422e+02
1.190000e-06	-1.350206e-06	-2.128449e-09	-1.055453e+01	-1.423290e+02
1.200000e-06	-1.331368e-06	-2.118632e-09	-1.040727e+01	-1.413961e+02
1.210000e-06	-1.312438e-06	-2.103092e-09	-1.025929e+01	-1.404434e+02
1.220000e-06	-1.293341e-06	-2.087183e-09	-1.011002e+01	-1.394706e+02
1.230000e-06	-1.274090e-06	-2.074077e-09	-9.959526e+00	-1.384778e+02
1.240000e-06	-1.254760e-06	-2.059405e-09	-9.808425e+00	-1.374651e+02
1.250000e-06	-1.235388e-06	-2.043606e-09	-9.656999e+00	-1.364326e+02
1.260000e-06	-1.215957e-06	-2.027838e-09	-9.505102e+00	-1.353805e+02
1.270000e-06	-1.196413e-06	-2.011437e-09	-9.352332e+00	-1.343090e+02
1.280000e-06	-1.176787e-06	-1.996850e-09	-9.198918e+00	-1.332183e+02
1.290000e-06	-1.157154e-06	-1.982405e-09	-9.045445e+00	-1.321089e+02
1.300000e-06	-1.137495e-06	-1.963783e-09	-8.891768e+00	-1.309811e+02
1.310000e-06	-1.117764e-06	-1.944773e-09	-8.737534e+00	-1.298352e+02
1.320000e-06	-1.097964e-06	-1.928197e-09	-8.582753e+00	-1.286718e+02
1.330000e-06	-1.078128e-06	-1.912556e-09	-8.427699e+00	-1.274913e+02
1.340000e-06	-1.058329e-06	-1.892860e-09	-8.272932e+00	-1.262941e+02
1.350000e-06	-1.038553e-06	-1.874430e-09	-8.118340e+00	-1.250808e+02
1.360000e-06	-1.018740e-06	-1.859039e-09	-7.963465e+00	-1.238516e+02
1.370000e-06	-9.988909e-07	-1.842631e-09	-7.808305e+00	-1.226072e+02
1.380000e-06	-9.790199e-07	-1.822888e-09	-7.652974e+00	-1.213479e+02
1.390000e-06	-9.591009e-07	-1.805216e-09	-7.497267e+00	-1.200741e+02
1.400000e-06	-9.391374e-07	-1.789669e-09	-7.341213e+00	-1.187861e+02
1.410000e-06	-9.191898e-07	-1.773359e-09	-7.185283e+00	-1.174843e+02
1.420000e-06	-8.992177e-07	-1.750436e-09	-7.029162e+00	-1.161689e+02
1.430000e-06	-8.791869e-07	-1.724113e-09	-6.872582e+00	-1.148401e+02
1.440000e-06	-8.591170e-07	-1.698811e-09	-6.715696e+00	-1.134981e+02
1.450000e-06	-8.389446e-07	-1.673596e-09	-6.558009e+00	-1.121428e+02
1.460000e-06	-8.187613e-07	-1.648940e-09	-6.400237e+00	-1.107744e+02
1.470000e-06	-7.985951e-07	-1.625482e-09	-6.242598e+00	-1.093926e+02
1.480000e-06	-7.783454e-07	-1.604288e-09	-6.084306e+00	-1.079975e+02
1.490000e-06	-7.580738e-07	-1.583904e-09	-5.925844e+00	-1.065886e+02
1.500000e-06	-7.377451e-07	-1.563647e-09	-5.766935e+00	-1.051658e+02
1.510000e-06	-7.173391e-07	-1.541016e-09	-5.607421e+00	-1.037286e+02
1.520000e-06	-6.968349e-07	-1.518193e-09	-5.447141e+00	-1.022766e+02
1.530000e-06	-6.762996e-07	-1.498209e-09	-5.286617e+00	-1.008092e+02
1.540000e-06	-6.558164e-07	-1.477253e-09	-5.126500e+00	-9.932588e+01
1.550000e-06	-6.352034e-07	-1.452286e-09	-4.965369e+00	-9.782589e+01
1.560000e-06	-6.144539e-07	-1.426634e-09	-4.803171e+00	-9.630853e+01
1.570000e-06	-5.937498e-07	-1.403587e-09	-4.641327e+00	-9.477300e+01
1.580000e-06	-5.729732e-07	-1.381635e-09	-4.478917e+00	-9.321848e+01
1.590000e-06	-5.520568e-07	-1.358831e-09	-4.315414e+00	-9.164410e+01
1.600000e-06	-5.311181e-07	-1.332845e-09	-4.151737e+00	-9.004895e+01
1.610000e-06	-5.100995e-07	-1.306620e-09	-3.987435e+00	-8.843210e+01
1.620000e-06	-4.889892e-07	-1.281466e-09	-3.822417e+00	-8.679261e+01
1.630000e-06	-4.679081e-07	-1.254441e-09	-3.657626e+00	-8.512952e+01
1.640000e-06	-4.467658e-07	-1.224456e-09	-3.492357e+00	-8.344190e+01
1.650000e-06	-4.255359e-07	-1.196856e-09	-3.326404e+00	-8.172881e+01
1.660000e-06	-4.043420e-07	-1.173943e-09	-3.160731e+00	-7.998935e+01
1.670000e-06	-3.831226e-07	-1.150907e-09	-2.994860e+00	-7.822263e+01
1.680000e-06	-3.618587e-07	-1.123594e-09	-2.828640e+00	-7.642783e+01
1.690000e-06	-3.406101e-07	-1.095119e-09	-2.662541e+00	-7.460417e+01
1.700000e-06	-3.193694e-07	-1.069672e-09	-2.496503e+00	-7.275093e+01
1.710000e-06	-2.981007e-07	-1.043352e-09	-2.330246e+00	-7.086747e+01
1.720000e-06	-2.768567e-07	-1.012985e-09	-2.164181e+00	-6.895320e+01
1.730000e-06	-2.555407e-07	-9.793603e-10	-1.997555e+00	-6.700764e+01
1.740000e-06	-2.341507e-07	-9.485918e-10	-1.830350e+00	-6.503040e+01
1.750000e-06	-2.127351e-07	-9.204475e-10	-1.662945e+00	-6.302119e+01
1.760000e-06	-1.912564e-07	-8.909215e-10	-1.495046e+00	-6.097982e+01
1.770000e-06	-1.698153e-07	-8.592064e-10	-1.327442e+00	-5.890619e+01
1.780000e-06	-1.484255e-07	-8.301298e-10	-1.160238e+00	-5.680034e+01
1.790000e-06	-1.270198e-07	-8.022283e-10	-9.929106e-01	-5.466242e+01
1.800000e-06	-1.055565e-07	-7.718812e-10	-8.251327e-01	-5.249268e+01
1.810000e-06	-8.404713e-08	-7.402585e-10	-6.569943e-01	-5.029150e+01
1.820000e-06	-6.259187e-08	-7.068584e-10	-4.892790e-01	-4.805938e+01
1.830000e-06	-4.121595e-08	-6.715091e-10	-3.221840e-01	-4.579693e+01
1.840000e-06	-1.981211e-08	-6.374383e-10	-1.548708e-01	-4.350488e+01
1.850000e-06	1.686526e-09	-6.025959e-10	1.318353e-02	-4.118407e+01
1.860000e-06	2.323622e-08	-5.670050e-10	1.816369e-01	-3.883544e+01
1.870000e-06	4.478000e-08	-5.334158e-10	3.500441e-01	-3.646005e+01
1.880000e-06	6.629936e-08	-5.014253e-10	5.182604e-01	-3.405905e+01
1.890000e-06	8.780863e-08	-4.675321e-10	6.863979e-01	-3.163369e+01
1.900000e-06	1.093143e-07	-4.308493e-10	8.545074e-01	-2.918530e+01
1.910000e-06	1.308003e-07	-3.939680e-10	1.022463e+00	-2.671529e+01
1.920000e-06	1.522616e-07	-3.569672e-10	1.190225e+00	-2.422514e+01
1.930000e-06	1.736720e-07	-3.192534e-10	1.357590e+00	-2.171641e+01
1.940000e-06	1.950741e-07	-2.803410e-10	1.524889e+00	-1.919069e+01
1.950000e-06	2.165345e-07	-2.425288e-10	1.692645e+00	-1.664964e+01
1.960000e-06	2.380108e-07	-2.058024e-10	1.860524e+00	-1.409496e+01
1.970000e-06	2.594320e-07	-1.684809e-10	2.027974e+00	-1.152835e+01
1.980000e-06	2.808302e-07	-1.311867e-10	2.195243e+00	-8.951569e+00
1.990000e-06	3.021987e-07	-9.361554e-11	2.362280e+00	-6.366360e+00
2.000000e-06	3.234273e-07	-5.651136e-11	2.528223e+00	-3.774485e+00
2.010000e-06	3.446267e-07	-2.070445e-11	2.693938e+00	-1.177695e+00
2.020000e-06	3.659239e-07	1.832343e-11	2.860418e+00	1.422271e+00
2.030000e-06	3.872340e-07	5.899251e-11	3.026998e+00	4.023693e+00
2.040000e-06	4.084632e-07	9.712390e-11	3.192947e+00	6.624880e+00
2.050000e-06	4.295427e-07	1.349527e-10	3.357724e+00	9.224177e+00
2.060000e-06	4.506794e-07	1.739790e-10	3.522950e+00	1.181997e+01
2.070000e-06	4.718825e-07	2.120008e-10	3.688694e+00	1.441069e+01
2.080000e-06	4.929003e-07	2.483138e-10	3.852989e+00	1.699481e+01
2.090000e-06	5.137600e-07	2.830440e-10	4.016049e+00	1.957089e+01
2.100000e-06	5.345404e-07	3.191578e-10	4.178489e+00	2.213752e+01
2.110000e-06	5.552891e-07	3.568717e-10	4.340681e+00	2.469337e+01
2.120000e-06	5.760410e-07	3.944814e-10	4.502898e+00	2.723717e+01
2.130000e-06	5.967920e-07	4.311075e-10	4.665108e+00	2.976771e+01
2.140000e-06	6.174828e-07	4.696865e-10	4.826848e+00	3.228388e+01
2.150000e-06	6.381543e-07	5.089578e-10	4.988436e+00	3.478459e+01
2.160000e-06	6.588048e-07	5.452687e-10	5.149860e+00	3.726888e+01
2.170000e-06	6.793240e-07	5.794131e-10	5.310259e+00	3.973581e+01
2.180000e-06	6.997787e-07	6.149089e-10	5.470153e+00	4.218453e+01
2.190000e-06	7.201634e-07	6.535987e-10	5.629499e+00	4.461426e+01
2.200000e-06	7.405150e-07	6.901352e-10	5.788587e+00	4.702429e+01
2.210000e-06	7.608312e-07	7.238952e-10	5.947398e+00	4.941395e+01
2.220000e-06	7.810857e-07	7.585810e-10	6.105728e+00	5.178265e+01
2.230000e-06	8.013136e-07	7.956316e-10	6.263848e+00	5.412986e+01
2.240000e-06	8.214589e-07	8.330313e-10	6.421324e+00	5.645509e+01
2.250000e-06	8.415151e-07	8.663501e-10	6.578102e+00	5.875790e+01
2.260000e-06	8.614937e-07	8.991747e-10	6.734275e+00	6.103793e+01
2.270000e-06	8.814748e-07	9.345199e-10	6.890466e+00	6.329482e+01
2.280000e-06	9.014587e-07	9.701778e-10	7.046680e+00	6.552827e+01
2.290000e-06	9.214735e-07	1.002768e-09	7.203135e+00	6.773803e+01
2.300000e-06	9.415121e-07	1.032335e-09	7.359777e+00	6.992387e+01
2.310000e-06	9.614754e-07	1.063837e-09	7.515829e+00	7.208559e+01
2.320000e-06	9.813755e-07	1.095362e-09	7.671388e+00	7.422301e+01
2.330000e-06	1.001219e-06	1.123983e-09	7.826504e+00	7.633599e+01
2.340000e-06	1.021021e-06	1.152023e-09	7.981293e+00	7.842441e+01
2.350000e-06	1.040827e-06	1.184527e-09	8.136120e+00	8.048816e+01
2.360000e-06	1.060601e-06	1.219148e-09	8.290694e+00	8.252716e+01
2.370000e-06	1.080331e-06	1.250456e-09	8.444919e+00	8.454133e+01
2.380000e-06	1.100070e-06	1.278789e-09	8.599216e+00	8.653060e+01
2.390000e-06	1.119818e-06	1.307607e-09	8.753590e+00	8.849495e+01
2.400000e-06	1.139507e-06	1.336534e-09	8.907497e+00	9.043433e+01
2.410000e-06	1.159141e-06	1.365761e-09	9.060976e+00	9.234872e+01
2.420000e-06	1.178748e-06	1.394030e-09	9.214240e+00	9.423810e+01
2.430000e-06	1.198284e-06	1.421144e-09	9.366952e+00	9.610248e+01
2.440000e-06	1.217736e-06	1.449771e-09	9.519014e+00	9.794186e+01
2.450000e-06	1.237090e-06	1.478577e-09	9.670299e+00	9.975627e+01
2.460000e-06	1.256389e-06	1.503149e-09	9.821164e+00	1.015457e+02
2.470000e-06	1.275555e-06	1.526829e-09	9.970980e+00	1.033103e+02
2.480000e-06	1.294594e-06	1.552885e-09	1.011981e+01	1.050500e+02
2.490000e-06	1.313502e-06	1.578953e-09	1.026762e+01	1.067650e+02
2.500000e-06	1.332317e-06	1.602073e-09	1.041469e+01	1.084553e+02
2.510000e-06	1.351012e-06	1.625151e-09	1.056083e+01	1.101210e+02
2.520000e-06	1.369571e-06	1.650393e-09	1.070590e+01	1.117622e+02
2.530000e-06	1.388061e-06	1.674783e-09	1.085044e+01	1.133792e+02
2.540000e-06	1.406351e-06	1.698298e-09	1.099341e+01	1.149720e+02
2.550000e-06	1.424546e-06	1.722378e-09	1.113564e+01	1.165408e+02
2.560000e-06	1.442639e-06	1.748321e-09	1.127707e+01	1.180858e+02
2.570000e-06	1.460607e-06	1.772656e-09	1.141753e+01	1.196073e+02
2.580000e-06	1.478446e-06	1.793513e-09	1.155697e+01	1.211055e+02
2.590000e-06	1.496226e-06	1.813577e-09	1.169596e+01	1.225807e+02
2.600000e-06	1.513949e-06	1.835995e-09	1.183450e+01	1.240330e+02
2.610000e-06	1.531565e-06	1.857396e-09	1.197221e+01	1.254629e+02
2.620000e-06	1.549096e-06	1.877899e-09	1.210924e+01	1.268707e+02
2.630000e-06	1.566508e-06	1.898836e-09	1.224535e+01	1.282567e+02
2.640000e-06	1.583901e-06	1.920228e-09	1.238131e+01	1.296213e+02
2.650000e-06	1.601274e-06	1.941762e-09	1.251712e+01	1.309647e+02
2.660000e-06	1.618614e-06	1.965403e-09	1.265266e+01	1.322875e+02
2.670000e-06	1.635829e-06	1.988527e-09	1.278724e+01	1.335900e+02
2.680000e-06	1.653020e-06	2.007241e-09	1.292162e+01	1.348726e+02
2.690000e-06	1.670194e-06	2.027861e-09	1.305586e+01	1.361357e+02
2.700000e-06	1.687267e-06	2.049488e-09	1.318932e+01	1.373798e+02
2.710000e-06	1.704288e-06	2.066377e-09	1.332238e+01	1.386052e+02
2.720000e-06	1.721118e-06	2.082655e-09	1.345393e+01	1.398123e+02
2.730000e-06	1.737796e-06	2.101549e-09	1.358431e+01	1.410016e+02
2.740000e-06	1.754479e-06	2.118956e-09	1.371472e+01	1.421734e+02
2.750000e-06	1.771001e-06	2.136416e-09	1.384387e+01	1.433282e+02
2.760000e-06	1.787269e-06	2.155691e-09	1.397104e+01	1.444663e+02
2.770000e-06	1.803364e-06	2.176453e-09	1.409685e+01	1.455880e+02
2.780000e-06	1.819135e-06	2.195451e-09	1.422014e+01	1.466937e+02
2.790000e-06	1.834607e-06	2.212479e-09	1.434108e+01	1.477837e+02
2.800000e-06	1.849991e-06	2.230329e-09	1.446134e+01	1.488582e+02
2.810000e-06	1.865194e-06	2.247897e-09	1.458017e+01	1.499176e+02
2.820000e-06	1.880187e-06	2.262210e-09	1.469738e+01	1.509620e+02
2.830000e-06	1.894990e-06	2.274818e-09	1.481309e+01	1.519917e+02
2.840000e-06	1.909542e-06	2.290325e-09	1.492684e+01	1.530068e+02
2.850000e-06	1.923979e-06	2.308799e-09	1.503969e+01	1.540075e+02
2.860000e-06	1.938348e-06	2.325009e-09	1.515202e+01	1.549938e+02
2.870000e-06	1.952576e-06	2.338356e-09	1.526324e+01	1.559659e+02
2.880000e-06	1.966599e-06	2.353989e-09	1.537286e+01	1.569238e+02
2.890000e-06	1.980466e-06	2.370656e-09	1.548125e+01	1.578675e+02
2.900000e-06	1.994234e-06	2.384595e-09	1.558888e+01	1.587971e+02
