# Temperatura_=_20.0
# Concentracion g/m^3_=_9000.0
# C_Vs_to_Am_M_A/Vsm_=_65563218390.804596
# pendiente_HvsI_1/m_=_3716.3
# ordenada_HvsI_A/m_=_1297.0
# frecuencia_Hz_=_134960.3056752875

Tiempo_(s)	Campo_(V.s)	Magnetizacion_(V.s)	Campo_(kA/m)	Magnetizacion_(A/m)
0.000000e+00	-2.542267e-06	-2.880749e-09	-1.987597e+01	-1.880440e+02
1.000000e-08	-2.542495e-06	-2.907554e-09	-1.987775e+01	-1.880720e+02
2.000000e-08	-2.542633e-06	-2.930470e-09	-1.987883e+01	-1.880883e+02
3.000000e-08	-2.542615e-06	-2.910759e-09	-1.987869e+01	-1.880928e+02
4.000000e-08	-2.542455e-06	-2.826240e-09	-1.987744e+01	-1.880860e+02
5.000000e-08	-2.542139e-06	-2.765644e-09	-1.987497e+01	-1.880681e+02
6.000000e-08	-2.541695e-06	-2.814243e-09	-1.987150e+01	-1.880394e+02
7.000000e-08	-2.541179e-06	-2.901184e-09	-1.986746e+01	-1.880001e+02
8.000000e-08	-2.540531e-06	-3.092235e-09	-1.986240e+01	-1.879507e+02
9.000000e-08	-2.539633e-06	-3.077932e-09	-1.985537e+01	-1.878916e+02
1.000000e-07	-2.538351e-06	-2.911821e-09	-1.984536e+01	-1.878230e+02
1.100000e-07	-2.536820e-06	-2.773721e-09	-1.983338e+01	-1.877455e+02
1.200000e-07	-2.535100e-06	-2.800222e-09	-1.981994e+01	-1.876595e+02
1.300000e-07	-2.532962e-06	-2.791978e-09	-1.980322e+01	-1.875654e+02
1.400000e-07	-2.530478e-06	-2.870193e-09	-1.978380e+01	-1.874637e+02
1.500000e-07	-2.527695e-06	-2.864539e-09	-1.976204e+01	-1.873549e+02
1.600000e-07	-2.524565e-06	-2.787871e-09	-1.973757e+01	-1.872393e+02
1.700000e-07	-2.521199e-06	-2.756040e-09	-1.971125e+01	-1.871175e+02
1.800000e-07	-2.517672e-06	-2.752948e-09	-1.968368e+01	-1.869898e+02
1.900000e-07	-2.514036e-06	-2.760091e-09	-1.965526e+01	-1.868567e+02
2.000000e-07	-2.510330e-06	-2.755999e-09	-1.962628e+01	-1.867187e+02
2.100000e-07	-2.506577e-06	-2.828721e-09	-1.959694e+01	-1.865760e+02
2.200000e-07	-2.502754e-06	-2.822821e-09	-1.956705e+01	-1.864291e+02
2.300000e-07	-2.498830e-06	-2.798782e-09	-1.953637e+01	-1.862784e+02
2.400000e-07	-2.494756e-06	-2.728619e-09	-1.950452e+01	-1.861241e+02
2.500000e-07	-2.490527e-06	-2.806193e-09	-1.947145e+01	-1.859665e+02
2.600000e-07	-2.486086e-06	-2.867679e-09	-1.943673e+01	-1.858059e+02
2.700000e-07	-2.481476e-06	-2.868673e-09	-1.940069e+01	-1.856424e+02
2.800000e-07	-2.476711e-06	-2.745868e-09	-1.936344e+01	-1.854764e+02
2.900000e-07	-2.471810e-06	-2.756712e-09	-1.932512e+01	-1.853080e+02
3.000000e-07	-2.466725e-06	-2.815850e-09	-1.928537e+01	-1.851372e+02
3.100000e-07	-2.461427e-06	-2.879091e-09	-1.924394e+01	-1.849641e+02
3.200000e-07	-2.455998e-06	-2.816357e-09	-1.920150e+01	-1.847889e+02
3.300000e-07	-2.450383e-06	-2.744325e-09	-1.915760e+01	-1.846114e+02
3.400000e-07	-2.444589e-06	-2.745880e-09	-1.911230e+01	-1.844318e+02
3.500000e-07	-2.438614e-06	-2.826719e-09	-1.906559e+01	-1.842498e+02
3.600000e-07	-2.432455e-06	-2.836129e-09	-1.901744e+01	-1.840655e+02
3.700000e-07	-2.426118e-06	-2.739395e-09	-1.896789e+01	-1.838787e+02
3.800000e-07	-2.419568e-06	-2.700953e-09	-1.891668e+01	-1.836892e+02
3.900000e-07	-2.412903e-06	-2.769937e-09	-1.886457e+01	-1.834970e+02
4.000000e-07	-2.406101e-06	-2.838754e-09	-1.881140e+01	-1.833017e+02
4.100000e-07	-2.399162e-06	-2.775142e-09	-1.875714e+01	-1.831032e+02
4.200000e-07	-2.392118e-06	-2.713867e-09	-1.870207e+01	-1.829013e+02
4.300000e-07	-2.384853e-06	-2.732576e-09	-1.864527e+01	-1.826956e+02
4.400000e-07	-2.377334e-06	-2.802000e-09	-1.858649e+01	-1.824859e+02
4.500000e-07	-2.369688e-06	-2.774921e-09	-1.852671e+01	-1.822720e+02
4.600000e-07	-2.361971e-06	-2.713390e-09	-1.846638e+01	-1.820535e+02
4.700000e-07	-2.354142e-06	-2.686770e-09	-1.840517e+01	-1.818302e+02
4.800000e-07	-2.346246e-06	-2.740858e-09	-1.834343e+01	-1.816018e+02
4.900000e-07	-2.338235e-06	-2.757804e-09	-1.828081e+01	-1.813679e+02
5.000000e-07	-2.330132e-06	-2.727752e-09	-1.821745e+01	-1.811284e+02
5.100000e-07	-2.321900e-06	-2.687854e-09	-1.815310e+01	-1.808828e+02
5.200000e-07	-2.313530e-06	-2.720192e-09	-1.808766e+01	-1.806310e+02
5.300000e-07	-2.305008e-06	-2.757312e-09	-1.802103e+01	-1.803727e+02
5.400000e-07	-2.296263e-06	-2.746286e-09	-1.795266e+01	-1.801075e+02
5.500000e-07	-2.287268e-06	-2.692402e-09	-1.788233e+01	-1.798354e+02
5.600000e-07	-2.277990e-06	-2.687553e-09	-1.780980e+01	-1.795560e+02
5.700000e-07	-2.268365e-06	-2.715200e-09	-1.773455e+01	-1.792691e+02
5.800000e-07	-2.258554e-06	-2.716108e-09	-1.765784e+01	-1.789746e+02
5.900000e-07	-2.248494e-06	-2.674218e-09	-1.757919e+01	-1.786723e+02
6.000000e-07	-2.238009e-06	-2.653038e-09	-1.749721e+01	-1.783619e+02
6.100000e-07	-2.227264e-06	-2.676156e-09	-1.741321e+01	-1.780434e+02
6.200000e-07	-2.216346e-06	-2.698009e-09	-1.732785e+01	-1.777166e+02
6.300000e-07	-2.205274e-06	-2.679419e-09	-1.724129e+01	-1.773815e+02
6.400000e-07	-2.193968e-06	-2.644785e-09	-1.715290e+01	-1.770378e+02
6.500000e-07	-2.182441e-06	-2.643286e-09	-1.706277e+01	-1.766855e+02
6.600000e-07	-2.170775e-06	-2.663248e-09	-1.697157e+01	-1.763246e+02
6.700000e-07	-2.159032e-06	-2.663952e-09	-1.687976e+01	-1.759550e+02
6.800000e-07	-2.147097e-06	-2.628670e-09	-1.678645e+01	-1.755766e+02
6.900000e-07	-2.135004e-06	-2.612636e-09	-1.669190e+01	-1.751894e+02
7.000000e-07	-2.122903e-06	-2.626358e-09	-1.659729e+01	-1.747933e+02
7.100000e-07	-2.110664e-06	-2.638047e-09	-1.650160e+01	-1.743884e+02
7.200000e-07	-2.098244e-06	-2.613478e-09	-1.640450e+01	-1.739746e+02
7.300000e-07	-2.085677e-06	-2.595763e-09	-1.630625e+01	-1.735518e+02
7.400000e-07	-2.072892e-06	-2.597676e-09	-1.620630e+01	-1.731201e+02
7.500000e-07	-2.059922e-06	-2.602681e-09	-1.610490e+01	-1.726795e+02
7.600000e-07	-2.046785e-06	-2.586624e-09	-1.600219e+01	-1.722298e+02
7.700000e-07	-2.033497e-06	-2.572715e-09	-1.589830e+01	-1.717711e+02
7.800000e-07	-2.020142e-06	-2.563609e-09	-1.579389e+01	-1.713033e+02
7.900000e-07	-2.006622e-06	-2.563355e-09	-1.568819e+01	-1.708265e+02
8.000000e-07	-1.992822e-06	-2.559733e-09	-1.558029e+01	-1.703404e+02
8.100000e-07	-1.978719e-06	-2.554532e-09	-1.547003e+01	-1.698452e+02
8.200000e-07	-1.964554e-06	-2.542225e-09	-1.535929e+01	-1.693407e+02
8.300000e-07	-1.950380e-06	-2.536143e-09	-1.524847e+01	-1.688268e+02
8.400000e-07	-1.936031e-06	-2.531017e-09	-1.513629e+01	-1.683034e+02
8.500000e-07	-1.921484e-06	-2.519886e-09	-1.502256e+01	-1.677706e+02
8.600000e-07	-1.906755e-06	-2.503271e-09	-1.490741e+01	-1.672280e+02
8.700000e-07	-1.891883e-06	-2.495980e-09	-1.479113e+01	-1.666757e+02
8.800000e-07	-1.876773e-06	-2.493338e-09	-1.467300e+01	-1.661135e+02
8.900000e-07	-1.861504e-06	-2.483075e-09	-1.455362e+01	-1.655412e+02
9.000000e-07	-1.845931e-06	-2.470334e-09	-1.443187e+01	-1.649588e+02
9.100000e-07	-1.830194e-06	-2.466268e-09	-1.430883e+01	-1.643660e+02
9.200000e-07	-1.814253e-06	-2.462536e-09	-1.418420e+01	-1.637627e+02
9.300000e-07	-1.798083e-06	-2.448533e-09	-1.405778e+01	-1.631488e+02
9.400000e-07	-1.781810e-06	-2.434768e-09	-1.393056e+01	-1.625240e+02
9.500000e-07	-1.765394e-06	-2.425762e-09	-1.380222e+01	-1.618882e+02
9.600000e-07	-1.748823e-06	-2.419116e-09	-1.367266e+01	-1.612413e+02
9.700000e-07	-1.732038e-06	-2.405978e-09	-1.354143e+01	-1.605830e+02
9.800000e-07	-1.715093e-06	-2.392643e-09	-1.340895e+01	-1.599133e+02
9.900000e-07	-1.698053e-06	-2.379137e-09	-1.327573e+01	-1.592319e+02
1.000000e-06	-1.680893e-06	-2.371171e-09	-1.314157e+01	-1.585387e+02
1.010000e-06	-1.663656e-06	-2.363447e-09	-1.300681e+01	-1.578335e+02
1.020000e-06	-1.646452e-06	-2.352514e-09	-1.287230e+01	-1.571163e+02
1.030000e-06	-1.629150e-06	-2.335125e-09	-1.273703e+01	-1.563868e+02
1.040000e-06	-1.611730e-06	-2.324314e-09	-1.260084e+01	-1.556449e+02
1.050000e-06	-1.594171e-06	-2.317576e-09	-1.246356e+01	-1.548907e+02
1.060000e-06	-1.576526e-06	-2.306108e-09	-1.232560e+01	-1.541239e+02
1.070000e-06	-1.558843e-06	-2.287232e-09	-1.218736e+01	-1.533444e+02
1.080000e-06	-1.541160e-06	-2.271776e-09	-1.204911e+01	-1.525523e+02
1.090000e-06	-1.523416e-06	-2.260403e-09	-1.191038e+01	-1.517474e+02
1.100000e-06	-1.505571e-06	-2.250497e-09	-1.177087e+01	-1.509298e+02
1.110000e-06	-1.487629e-06	-2.235992e-09	-1.163059e+01	-1.500994e+02
1.120000e-06	-1.469574e-06	-2.220087e-09	-1.148944e+01	-1.492561e+02
1.130000e-06	-1.451434e-06	-2.204143e-09	-1.134761e+01	-1.484001e+02
1.140000e-06	-1.433179e-06	-2.193427e-09	-1.120489e+01	-1.475312e+02
1.150000e-06	-1.414792e-06	-2.180757e-09	-1.106113e+01	-1.466496e+02
1.160000e-06	-1.396344e-06	-2.162169e-09	-1.091691e+01	-1.457552e+02
1.170000e-06	-1.377844e-06	-2.144890e-09	-1.077227e+01	-1.448481e+02
1.180000e-06	-1.359208e-06	-2.132039e-09	-1.062657e+01	-1.439284e+02
1.190000e-06	-1.340413e-06	-2.122395e-09	-1.047962e+01	-1.429960e+02
1.200000e-06	-1.321564e-06	-2.110069e-09	-1.033226e+01	-1.420510e+02
1.210000e-06	-1.302602e-06	-2.095326e-09	-1.018401e+01	-1.410935e+02
1.220000e-06	-1.283464e-06	-2.080035e-09	-1.003438e+01	-1.401235e+02
1.230000e-06	-1.264225e-06	-2.066537e-09	-9.883974e+00	-1.391411e+02
1.240000e-06	-1.244872e-06	-2.052050e-09	-9.732669e+00	-1.381462e+02
1.250000e-06	-1.225490e-06	-2.035054e-09	-9.581136e+00	-1.371389e+02
1.260000e-06	-1.206063e-06	-2.016709e-09	-9.429253e+00	-1.361191e+02
1.270000e-06	-1.186543e-06	-2.001927e-09	-9.276638e+00	-1.350870e+02
1.280000e-06	-1.166955e-06	-1.986293e-09	-9.123499e+00	-1.340423e+02
1.290000e-06	-1.147298e-06	-1.969567e-09	-8.969811e+00	-1.329851e+02
1.300000e-06	-1.127579e-06	-1.951883e-09	-8.815646e+00	-1.319153e+02
1.310000e-06	-1.107834e-06	-1.937482e-09	-8.661278e+00	-1.308327e+02
1.320000e-06	-1.088056e-06	-1.921798e-09	-8.506650e+00	-1.297373e+02
1.330000e-06	-1.068251e-06	-1.905321e-09	-8.351810e+00	-1.286288e+02
1.340000e-06	-1.048445e-06	-1.889488e-09	-8.196962e+00	-1.275071e+02
1.350000e-06	-1.028572e-06	-1.874414e-09	-8.041587e+00	-1.263719e+02
1.360000e-06	-1.008681e-06	-1.858540e-09	-7.886074e+00	-1.252230e+02
1.370000e-06	-9.888095e-07	-1.843954e-09	-7.730717e+00	-1.240600e+02
1.380000e-06	-9.689331e-07	-1.826260e-09	-7.575319e+00	-1.228827e+02
1.390000e-06	-9.490246e-07	-1.807660e-09	-7.419671e+00	-1.216907e+02
1.400000e-06	-9.289980e-07	-1.793659e-09	-7.263098e+00	-1.204835e+02
1.410000e-06	-9.089314e-07	-1.777685e-09	-7.106214e+00	-1.192608e+02
1.420000e-06	-8.889329e-07	-1.754972e-09	-6.949862e+00	-1.180220e+02
1.430000e-06	-8.689089e-07	-1.731459e-09	-6.793310e+00	-1.167668e+02
1.440000e-06	-8.488734e-07	-1.713443e-09	-6.636668e+00	-1.154945e+02
1.450000e-06	-8.288094e-07	-1.696233e-09	-6.479803e+00	-1.142046e+02
1.460000e-06	-8.085691e-07	-1.678820e-09	-6.321560e+00	-1.128965e+02
1.470000e-06	-7.882703e-07	-1.660763e-09	-6.162860e+00	-1.115697e+02
1.480000e-06	-7.679548e-07	-1.644984e-09	-6.004030e+00	-1.102236e+02
1.490000e-06	-7.475231e-07	-1.626909e-09	-5.844290e+00	-1.088574e+02
1.500000e-06	-7.270647e-07	-1.606338e-09	-5.684342e+00	-1.074707e+02
1.510000e-06	-7.065560e-07	-1.584947e-09	-5.524001e+00	-1.060627e+02
1.520000e-06	-6.859230e-07	-1.563467e-09	-5.362688e+00	-1.046327e+02
1.530000e-06	-6.652490e-07	-1.541834e-09	-5.201054e+00	-1.031802e+02
1.540000e-06	-6.445995e-07	-1.518015e-09	-5.039612e+00	-1.017045e+02
1.550000e-06	-6.239111e-07	-1.493119e-09	-4.877866e+00	-1.002049e+02
1.560000e-06	-6.031280e-07	-1.469750e-09	-4.715379e+00	-9.868089e+01
1.570000e-06	-5.823263e-07	-1.447887e-09	-4.552747e+00	-9.713179e+01
1.580000e-06	-5.615043e-07	-1.424448e-09	-4.389957e+00	-9.555703e+01
1.590000e-06	-5.406442e-07	-1.398006e-09	-4.226868e+00	-9.395606e+01
1.600000e-06	-5.196867e-07	-1.372674e-09	-4.063018e+00	-9.232836e+01
1.610000e-06	-4.987012e-07	-1.348551e-09	-3.898949e+00	-9.067341e+01
1.620000e-06	-4.777018e-07	-1.323413e-09	-3.734771e+00	-8.899078e+01
1.630000e-06	-4.565765e-07	-1.295361e-09	-3.569610e+00	-8.728004e+01
1.640000e-06	-4.353624e-07	-1.266697e-09	-3.403753e+00	-8.554083e+01
1.650000e-06	-4.141086e-07	-1.241237e-09	-3.237587e+00	-8.377282e+01
1.660000e-06	-3.928486e-07	-1.217692e-09	-3.071372e+00	-8.197575e+01
1.670000e-06	-3.715599e-07	-1.191992e-09	-2.904933e+00	-8.014940e+01
1.680000e-06	-3.502643e-07	-1.164342e-09	-2.738439e+00	-7.829361e+01
1.690000e-06	-3.289492e-07	-1.137094e-09	-2.571793e+00	-7.640827e+01
1.700000e-06	-3.075581e-07	-1.108979e-09	-2.404553e+00	-7.449335e+01
1.710000e-06	-2.860830e-07	-1.081222e-09	-2.236656e+00	-7.254887e+01
1.720000e-06	-2.646173e-07	-1.050015e-09	-2.068833e+00	-7.057491e+01
1.730000e-06	-2.432624e-07	-1.017309e-09	-1.901876e+00	-6.857162e+01
1.740000e-06	-2.218569e-07	-9.869353e-10	-1.734523e+00	-6.653921e+01
1.750000e-06	-2.003660e-07	-9.581618e-10	-1.566503e+00	-6.447795e+01
1.760000e-06	-1.789162e-07	-9.272947e-10	-1.398804e+00	-6.238818e+01
1.770000e-06	-1.573964e-07	-8.956910e-10	-1.230557e+00	-6.027030e+01
1.780000e-06	-1.359051e-07	-8.643636e-10	-1.062534e+00	-5.812477e+01
1.790000e-06	-1.144443e-07	-8.342330e-10	-8.947496e-01	-5.595213e+01
1.800000e-06	-9.298342e-08	-8.041710e-10	-7.269636e-01	-5.375295e+01
1.810000e-06	-7.151597e-08	-7.714033e-10	-5.591267e-01	-5.152787e+01
1.820000e-06	-4.996877e-08	-7.362252e-10	-3.906661e-01	-4.927760e+01
1.830000e-06	-2.848189e-08	-7.026742e-10	-2.226773e-01	-4.700288e+01
1.840000e-06	-7.067083e-09	-6.696050e-10	-5.525192e-02	-4.470451e+01
1.850000e-06	1.439587e-08	-6.350758e-10	1.125499e-01	-4.238334e+01
1.860000e-06	3.589824e-08	-6.027570e-10	2.806598e-01	-4.004028e+01
1.870000e-06	5.737435e-08	-5.703634e-10	4.485645e-01	-3.767626e+01
1.880000e-06	7.880885e-08	-5.359455e-10	6.161439e-01	-3.529225e+01
1.890000e-06	1.002006e-07	-5.015312e-10	7.833888e-01	-3.288928e+01
1.900000e-06	1.216117e-07	-4.657581e-10	9.507857e-01	-3.046840e+01
1.910000e-06	1.431299e-07	-4.276561e-10	1.119019e+00	-2.803068e+01
1.920000e-06	1.646276e-07	-3.898532e-10	1.287093e+00	-2.557724e+01
1.930000e-06	1.860761e-07	-3.537323e-10	1.454782e+00	-2.310922e+01
1.940000e-06	2.075549e-07	-3.180164e-10	1.622707e+00	-2.062775e+01
1.950000e-06	2.289726e-07	-2.817590e-10	1.790155e+00	-1.813403e+01
1.960000e-06	2.502861e-07	-2.450536e-10	1.956788e+00	-1.562924e+01
1.970000e-06	2.715753e-07	-2.069524e-10	2.123232e+00	-1.311459e+01
1.980000e-06	2.929173e-07	-1.697057e-10	2.290088e+00	-1.059129e+01
1.990000e-06	3.142414e-07	-1.328631e-10	2.456804e+00	-8.060564e+00
2.000000e-06	3.354763e-07	-9.630771e-11	2.622823e+00	-5.523639e+00
2.010000e-06	3.567070e-07	-5.865428e-11	2.788809e+00	-2.981748e+00
2.020000e-06	3.780160e-07	-2.142256e-11	2.955407e+00	-4.361218e-01
2.030000e-06	3.993002e-07	1.541401e-11	3.121811e+00	2.112008e+00
2.040000e-06	4.204217e-07	5.335714e-11	3.286944e+00	4.661413e+00
2.050000e-06	4.414661e-07	9.128417e-11	3.451473e+00	7.210871e+00
2.060000e-06	4.625830e-07	1.266215e-10	3.616569e+00	9.759167e+00
2.070000e-06	4.836515e-07	1.619695e-10	3.781287e+00	1.230509e+01
2.080000e-06	5.046451e-07	1.989183e-10	3.945420e+00	1.484745e+01
2.090000e-06	5.256318e-07	2.341050e-10	4.109498e+00	1.738506e+01
2.100000e-06	5.464945e-07	2.692663e-10	4.272607e+00	1.991674e+01
2.110000e-06	5.672690e-07	3.061381e-10	4.435026e+00	2.244133e+01
2.120000e-06	5.880315e-07	3.424633e-10	4.597352e+00	2.495770e+01
2.130000e-06	6.087166e-07	3.794136e-10	4.759072e+00	2.746471e+01
2.140000e-06	6.294454e-07	4.153983e-10	4.921135e+00	2.996127e+01
2.150000e-06	6.502031e-07	4.492381e-10	5.083422e+00	3.244627e+01
2.160000e-06	6.708435e-07	4.841399e-10	5.244793e+00	3.491865e+01
2.170000e-06	6.914258e-07	5.218642e-10	5.405710e+00	3.737737e+01
2.180000e-06	7.119580e-07	5.597340e-10	5.566235e+00	3.982140e+01
2.190000e-06	7.323580e-07	5.944613e-10	5.725726e+00	4.224973e+01
2.200000e-06	7.526784e-07	6.286523e-10	5.884595e+00	4.466140e+01
2.210000e-06	7.729504e-07	6.635813e-10	6.043086e+00	4.705545e+01
2.220000e-06	7.931130e-07	6.985962e-10	6.200722e+00	4.943097e+01
2.230000e-06	8.132382e-07	7.335272e-10	6.358064e+00	5.178706e+01
2.240000e-06	8.333390e-07	7.680766e-10	6.515216e+00	5.412286e+01
2.250000e-06	8.534341e-07	8.025568e-10	6.672324e+00	5.643755e+01
2.260000e-06	8.735472e-07	8.386215e-10	6.829573e+00	5.873032e+01
2.270000e-06	8.935687e-07	8.741812e-10	6.986105e+00	6.100041e+01
2.280000e-06	9.135107e-07	9.081711e-10	7.142016e+00	6.324711e+01
2.290000e-06	9.334422e-07	9.403238e-10	7.297844e+00	6.546972e+01
2.300000e-06	9.533596e-07	9.725783e-10	7.453563e+00	6.766760e+01
2.310000e-06	9.732238e-07	1.003245e-09	7.608865e+00	6.984014e+01
2.320000e-06	9.930602e-07	1.032302e-09	7.763950e+00	7.198678e+01
2.330000e-06	1.012921e-06	1.061849e-09	7.919228e+00	7.410700e+01
2.340000e-06	1.032792e-06	1.092898e-09	8.074581e+00	7.620033e+01
2.350000e-06	1.052644e-06	1.126261e-09	8.229788e+00	7.826633e+01
2.360000e-06	1.072461e-06	1.158065e-09	8.384725e+00	8.030463e+01
2.370000e-06	1.092213e-06	1.187022e-09	8.539143e+00	8.231489e+01
2.380000e-06	1.111941e-06	1.215711e-09	8.693383e+00	8.429684e+01
2.390000e-06	1.131639e-06	1.247882e-09	8.847386e+00	8.625024e+01
2.400000e-06	1.151266e-06	1.278388e-09	9.000836e+00	8.817492e+01
2.410000e-06	1.170888e-06	1.304564e-09	9.154245e+00	9.007073e+01
2.420000e-06	1.190532e-06	1.333432e-09	9.307829e+00	9.193762e+01
2.430000e-06	1.210098e-06	1.364704e-09	9.460797e+00	9.377554e+01
2.440000e-06	1.229494e-06	1.394229e-09	9.612440e+00	9.558453e+01
2.450000e-06	1.248761e-06	1.418719e-09	9.763069e+00	9.736465e+01
2.460000e-06	1.267950e-06	1.443151e-09	9.913095e+00	9.911605e+01
2.470000e-06	1.287038e-06	1.470754e-09	1.006233e+01	1.008389e+02
2.480000e-06	1.306051e-06	1.496802e-09	1.021098e+01	1.025334e+02
2.490000e-06	1.325013e-06	1.521358e-09	1.035923e+01	1.041998e+02
2.500000e-06	1.343869e-06	1.546765e-09	1.050664e+01	1.058385e+02
2.510000e-06	1.362610e-06	1.572455e-09	1.065317e+01	1.074498e+02
2.520000e-06	1.381207e-06	1.595651e-09	1.079856e+01	1.090340e+02
2.530000e-06	1.399677e-06	1.618687e-09	1.094297e+01	1.105917e+02
2.540000e-06	1.418038e-06	1.641719e-09	1.108651e+01	1.121233e+02
2.550000e-06	1.436266e-06	1.665519e-09	1.122902e+01	1.136293e+02
2.560000e-06	1.454352e-06	1.688665e-09	1.137042e+01	1.151102e+02
2.570000e-06	1.472311e-06	1.708547e-09	1.151084e+01	1.165665e+02
2.580000e-06	1.490224e-06	1.731524e-09	1.165088e+01	1.179988e+02
2.590000e-06	1.508034e-06	1.756726e-09	1.179012e+01	1.194078e+02
2.600000e-06	1.525743e-06	1.778265e-09	1.192857e+01	1.207940e+02
2.610000e-06	1.543327e-06	1.797337e-09	1.206605e+01	1.221580e+02
2.620000e-06	1.560797e-06	1.817385e-09	1.220264e+01	1.235004e+02
2.630000e-06	1.578263e-06	1.837892e-09	1.233919e+01	1.248218e+02
2.640000e-06	1.595688e-06	1.857984e-09	1.247542e+01	1.261229e+02
2.650000e-06	1.613037e-06	1.878043e-09	1.261106e+01	1.274043e+02
2.660000e-06	1.630296e-06	1.897454e-09	1.274599e+01	1.286665e+02
2.670000e-06	1.647462e-06	1.915446e-09	1.288020e+01	1.299101e+02
2.680000e-06	1.664588e-06	1.935511e-09	1.301409e+01	1.311357e+02
2.690000e-06	1.681641e-06	1.957281e-09	1.314742e+01	1.323438e+02
2.700000e-06	1.698589e-06	1.976931e-09	1.327992e+01	1.335349e+02
2.710000e-06	1.715451e-06	1.993290e-09	1.341175e+01	1.347095e+02
2.720000e-06	1.732144e-06	2.009518e-09	1.354226e+01	1.358681e+02
2.730000e-06	1.748766e-06	2.026355e-09	1.367221e+01	1.370111e+02
2.740000e-06	1.765340e-06	2.043662e-09	1.380180e+01	1.381389e+02
2.750000e-06	1.781666e-06	2.063038e-09	1.392944e+01	1.392517e+02
2.760000e-06	1.797771e-06	2.083246e-09	1.405535e+01	1.403500e+02
2.770000e-06	1.813658e-06	2.100990e-09	1.417955e+01	1.414340e+02
2.780000e-06	1.829360e-06	2.116445e-09	1.430231e+01	1.425040e+02
2.790000e-06	1.844987e-06	2.133188e-09	1.442449e+01	1.435601e+02
2.800000e-06	1.860368e-06	2.149924e-09	1.454474e+01	1.446024e+02
2.810000e-06	1.875520e-06	2.165347e-09	1.466321e+01	1.456312e+02
2.820000e-06	1.890454e-06	2.179088e-09	1.477996e+01	1.466465e+02
2.830000e-06	1.905097e-06	2.193760e-09	1.489444e+01	1.476482e+02
2.840000e-06	1.919580e-06	2.211389e-09	1.500767e+01	1.486366e+02
2.850000e-06	1.933884e-06	2.227594e-09	1.511950e+01	1.496114e+02
2.860000e-06	1.948033e-06	2.239528e-09	1.523013e+01	1.505727e+02
2.870000e-06	1.962112e-06	2.253973e-09	1.534019e+01	1.515204e+02
2.880000e-06	1.976041e-06	2.270527e-09	1.544909e+01	1.524543e+02
2.890000e-06	1.989740e-06	2.285035e-09	1.555620e+01	1.533744e+02
2.900000e-06	2.003337e-06	2.296147e-09	1.566251e+01	1.542805e+02
