# Temperatura_=_20.0
# Concentracion g/m^3_=_9000.0
# C_Vs_to_Am_M_A/Vsm_=_65563218390.804596
# pendiente_HvsI_1/m_=_3716.3
# ordenada_HvsI_A/m_=_1297.0
# frecuencia_Hz_=_134961.35478023413

Tiempo_(s)	Campo_(V.s)	Magnetizacion_(V.s)	Campo_(kA/m)	Magnetizacion_(A/m)
0.000000e+00	-2.540273e-06	-4.785795e-11	-1.986247e+01	-2.473371e-01
1.000000e-08	-2.540588e-06	-7.454465e-11	-1.986493e+01	-2.238840e-01
2.000000e-08	-2.540785e-06	-8.021908e-11	-1.986647e+01	-1.997513e-01
3.000000e-08	-2.540914e-06	-1.437965e-11	-1.986748e+01	-1.749939e-01
4.000000e-08	-2.540935e-06	1.172324e-10	-1.986764e+01	-1.496701e-01
5.000000e-08	-2.540773e-06	1.480388e-10	-1.986637e+01	-1.238410e-01
6.000000e-08	-2.540444e-06	3.372956e-11	-1.986381e+01	-9.757043e-02
7.000000e-08	-2.539974e-06	-1.778680e-10	-1.986013e+01	-7.092474e-02
8.000000e-08	-2.539442e-06	-3.238623e-10	-1.985597e+01	-4.397223e-02
9.000000e-08	-2.538671e-06	-1.914662e-10	-1.984994e+01	-1.678297e-02
1.000000e-07	-2.537573e-06	-3.767837e-11	-1.984135e+01	1.057165e-02
1.100000e-07	-2.536200e-06	3.856264e-11	-1.983062e+01	3.801919e-02
1.200000e-07	-2.534561e-06	5.467655e-11	-1.981781e+01	6.548658e-02
1.300000e-07	-2.532649e-06	-2.497101e-11	-1.980286e+01	9.290051e-02
1.400000e-07	-2.530342e-06	1.743621e-11	-1.978481e+01	1.201877e-01
1.500000e-07	-2.527634e-06	-2.514818e-11	-1.976364e+01	1.472755e-01
1.600000e-07	-2.524686e-06	-5.724821e-11	-1.974059e+01	1.740918e-01
1.700000e-07	-2.521479e-06	-9.786727e-11	-1.971551e+01	2.005660e-01
1.800000e-07	-2.517993e-06	1.044738e-10	-1.968826e+01	2.266289e-01
1.900000e-07	-2.514417e-06	1.065998e-10	-1.966030e+01	2.522133e-01
2.000000e-07	-2.510751e-06	-1.636220e-11	-1.963163e+01	2.772540e-01
2.100000e-07	-2.506986e-06	-1.600665e-10	-1.960220e+01	3.016887e-01
2.200000e-07	-2.503143e-06	-7.107770e-11	-1.957215e+01	3.254578e-01
2.300000e-07	-2.499266e-06	8.102424e-11	-1.954184e+01	3.485048e-01
2.400000e-07	-2.495326e-06	7.111459e-11	-1.951102e+01	3.707768e-01
2.500000e-07	-2.491275e-06	-8.802813e-11	-1.947935e+01	3.922245e-01
2.600000e-07	-2.487061e-06	-1.508231e-10	-1.944640e+01	4.128026e-01
2.700000e-07	-2.482667e-06	5.965275e-11	-1.941204e+01	4.324700e-01
2.800000e-07	-2.478051e-06	1.238332e-10	-1.937595e+01	4.511896e-01
2.900000e-07	-2.473228e-06	5.785997e-11	-1.933824e+01	4.689293e-01
3.000000e-07	-2.468293e-06	-1.550943e-10	-1.929965e+01	4.856613e-01
3.100000e-07	-2.463221e-06	-6.916574e-11	-1.926000e+01	5.013625e-01
3.200000e-07	-2.457866e-06	7.276468e-11	-1.921812e+01	5.160150e-01
3.300000e-07	-2.452259e-06	1.285521e-10	-1.917428e+01	5.296055e-01
3.400000e-07	-2.446507e-06	-7.933164e-11	-1.912931e+01	5.421257e-01
3.500000e-07	-2.440559e-06	-1.132009e-10	-1.908280e+01	5.535722e-01
3.600000e-07	-2.434451e-06	3.474557e-11	-1.903504e+01	5.639465e-01
3.700000e-07	-2.428149e-06	1.620276e-10	-1.898577e+01	5.732551e-01
3.800000e-07	-2.421727e-06	2.214267e-11	-1.893556e+01	5.815090e-01
3.900000e-07	-2.415214e-06	-1.069795e-10	-1.888462e+01	5.887241e-01
4.000000e-07	-2.408501e-06	-3.685454e-11	-1.883214e+01	5.949207e-01
4.100000e-07	-2.401508e-06	1.020376e-10	-1.877746e+01	6.001236e-01
4.200000e-07	-2.394334e-06	6.804644e-11	-1.872137e+01	6.043616e-01
4.300000e-07	-2.387069e-06	-6.516354e-11	-1.866456e+01	6.076676e-01
4.400000e-07	-2.379666e-06	-6.483169e-11	-1.860668e+01	6.100783e-01
4.500000e-07	-2.372100e-06	5.476106e-11	-1.854752e+01	6.116337e-01
4.600000e-07	-2.364449e-06	1.108782e-10	-1.848770e+01	6.123773e-01
4.700000e-07	-2.356734e-06	1.606280e-11	-1.842737e+01	6.123553e-01
4.800000e-07	-2.348914e-06	-3.990072e-11	-1.836623e+01	6.116168e-01
4.900000e-07	-2.341023e-06	1.866215e-11	-1.830453e+01	6.102129e-01
5.000000e-07	-2.333053e-06	9.781146e-11	-1.824221e+01	6.081970e-01
5.100000e-07	-2.324956e-06	3.862707e-11	-1.817890e+01	6.056241e-01
5.200000e-07	-2.316731e-06	-4.620783e-11	-1.811459e+01	6.025503e-01
5.300000e-07	-2.308318e-06	-3.776612e-11	-1.804880e+01	5.990330e-01
5.400000e-07	-2.299575e-06	5.420441e-11	-1.798044e+01	5.951299e-01
5.500000e-07	-2.290653e-06	5.479378e-11	-1.791068e+01	5.908991e-01
5.600000e-07	-2.281721e-06	-1.086213e-11	-1.784084e+01	5.863985e-01
5.700000e-07	-2.272499e-06	-3.300998e-11	-1.776873e+01	5.816855e-01
5.800000e-07	-2.262880e-06	4.169600e-11	-1.769352e+01	5.768169e-01
5.900000e-07	-2.253004e-06	7.350895e-11	-1.761630e+01	5.718480e-01
6.000000e-07	-2.242733e-06	2.772524e-11	-1.753599e+01	5.668327e-01
6.100000e-07	-2.232192e-06	-2.720148e-11	-1.745357e+01	5.618231e-01
6.200000e-07	-2.221412e-06	6.319905e-12	-1.736928e+01	5.568690e-01
6.300000e-07	-2.210377e-06	5.564625e-11	-1.728300e+01	5.520180e-01
6.400000e-07	-2.199260e-06	4.506468e-11	-1.719608e+01	5.473146e-01
6.500000e-07	-2.187975e-06	-1.333848e-11	-1.710784e+01	5.428004e-01
6.600000e-07	-2.176425e-06	-1.004214e-11	-1.701753e+01	5.385138e-01
6.700000e-07	-2.164689e-06	3.706791e-11	-1.692577e+01	5.344896e-01
6.800000e-07	-2.152884e-06	4.930090e-11	-1.683346e+01	5.307588e-01
6.900000e-07	-2.140928e-06	4.009547e-12	-1.673997e+01	5.273486e-01
7.000000e-07	-2.128808e-06	-1.357323e-11	-1.664521e+01	5.242822e-01
7.100000e-07	-2.116606e-06	1.724656e-11	-1.654980e+01	5.215784e-01
7.200000e-07	-2.104252e-06	3.889156e-11	-1.645321e+01	5.192519e-01
7.300000e-07	-2.091721e-06	1.470342e-11	-1.635523e+01	5.173126e-01
7.400000e-07	-2.079019e-06	-1.034378e-11	-1.625591e+01	5.157664e-01
7.500000e-07	-2.066151e-06	2.896765e-12	-1.615529e+01	5.146145e-01
7.600000e-07	-2.053199e-06	2.692515e-11	-1.605402e+01	5.138536e-01
7.700000e-07	-2.040161e-06	2.854274e-11	-1.595208e+01	5.134760e-01
7.800000e-07	-2.026886e-06	6.144687e-12	-1.584828e+01	5.134694e-01
7.900000e-07	-2.013405e-06	6.256973e-13	-1.574287e+01	5.138175e-01
8.000000e-07	-1.999807e-06	1.796161e-11	-1.563655e+01	5.144994e-01
8.100000e-07	-1.985998e-06	3.380875e-11	-1.552857e+01	5.154904e-01
8.200000e-07	-1.972036e-06	1.180555e-11	-1.541941e+01	5.167616e-01
8.300000e-07	-1.957948e-06	-6.184566e-12	-1.530925e+01	5.182807e-01
8.400000e-07	-1.943774e-06	6.851496e-12	-1.519842e+01	5.200115e-01
8.500000e-07	-1.929376e-06	3.111300e-11	-1.508585e+01	5.219146e-01
8.600000e-07	-1.914728e-06	1.836527e-11	-1.497131e+01	5.239477e-01
8.700000e-07	-1.899945e-06	6.952837e-13	-1.485573e+01	5.260654e-01
8.800000e-07	-1.884937e-06	7.016196e-12	-1.473838e+01	5.282200e-01
8.900000e-07	-1.869728e-06	2.846399e-11	-1.461945e+01	5.303614e-01
9.000000e-07	-1.854301e-06	2.319614e-11	-1.449884e+01	5.324378e-01
9.100000e-07	-1.838683e-06	6.284751e-12	-1.437672e+01	5.343957e-01
9.200000e-07	-1.822784e-06	2.520569e-12	-1.425240e+01	5.361803e-01
9.300000e-07	-1.806676e-06	1.901228e-11	-1.412645e+01	5.377361e-01
9.400000e-07	-1.790454e-06	2.607630e-11	-1.399961e+01	5.390069e-01
9.500000e-07	-1.774110e-06	1.652855e-11	-1.387181e+01	5.399363e-01
9.600000e-07	-1.757721e-06	6.443383e-12	-1.374367e+01	5.404682e-01
9.700000e-07	-1.741092e-06	1.407602e-11	-1.361365e+01	5.405471e-01
9.800000e-07	-1.724296e-06	2.661303e-11	-1.348232e+01	5.401180e-01
9.900000e-07	-1.707433e-06	2.555845e-11	-1.335047e+01	5.391277e-01
1.000000e-06	-1.690473e-06	1.031357e-11	-1.321785e+01	5.375242e-01
1.010000e-06	-1.673454e-06	5.461084e-12	-1.308479e+01	5.352576e-01
1.020000e-06	-1.656301e-06	1.621886e-11	-1.295066e+01	5.322801e-01
1.030000e-06	-1.639064e-06	1.830929e-11	-1.281589e+01	5.285467e-01
1.040000e-06	-1.621795e-06	1.006644e-11	-1.268086e+01	5.240152e-01
1.050000e-06	-1.604450e-06	5.668295e-12	-1.254524e+01	5.186466e-01
1.060000e-06	-1.586965e-06	1.347476e-11	-1.240853e+01	5.124051e-01
1.070000e-06	-1.569435e-06	1.863448e-11	-1.227146e+01	5.052591e-01
1.080000e-06	-1.551870e-06	1.585658e-11	-1.213412e+01	4.971803e-01
1.090000e-06	-1.534127e-06	1.115186e-11	-1.199538e+01	4.881450e-01
1.100000e-06	-1.516299e-06	1.547806e-11	-1.185599e+01	4.781337e-01
1.110000e-06	-1.498418e-06	2.014535e-11	-1.171617e+01	4.671313e-01
1.120000e-06	-1.480422e-06	2.184312e-11	-1.157546e+01	4.551272e-01
1.130000e-06	-1.462377e-06	1.803389e-11	-1.143437e+01	4.421159e-01
1.140000e-06	-1.444225e-06	1.572794e-11	-1.129244e+01	4.280962e-01
1.150000e-06	-1.425921e-06	1.771936e-11	-1.114932e+01	4.130722e-01
1.160000e-06	-1.407530e-06	2.098641e-11	-1.100551e+01	3.970527e-01
1.170000e-06	-1.388941e-06	1.900372e-11	-1.086017e+01	3.800513e-01
1.180000e-06	-1.370191e-06	1.601610e-11	-1.071356e+01	3.620866e-01
1.190000e-06	-1.351361e-06	1.355727e-11	-1.056633e+01	3.431819e-01
1.200000e-06	-1.332380e-06	1.578319e-11	-1.041792e+01	3.233653e-01
1.210000e-06	-1.313343e-06	1.257396e-11	-1.026906e+01	3.026694e-01
1.220000e-06	-1.294240e-06	9.337640e-12	-1.011970e+01	2.811314e-01
1.230000e-06	-1.274996e-06	6.986102e-12	-9.969231e+00	2.587926e-01
1.240000e-06	-1.255668e-06	9.397654e-12	-9.818107e+00	2.356988e-01
1.250000e-06	-1.236230e-06	8.033138e-12	-9.666117e+00	2.118992e-01
1.260000e-06	-1.216741e-06	3.716381e-12	-9.513732e+00	1.874471e-01
1.270000e-06	-1.197217e-06	2.563515e-12	-9.361073e+00	1.623991e-01
1.280000e-06	-1.177573e-06	5.168016e-12	-9.207480e+00	1.368148e-01
1.290000e-06	-1.157928e-06	6.946346e-12	-9.053869e+00	1.107568e-01
1.300000e-06	-1.138284e-06	3.723137e-12	-8.900272e+00	8.429025e-02
1.310000e-06	-1.118588e-06	1.356414e-12	-8.746268e+00	5.748250e-02
1.320000e-06	-1.098870e-06	9.225685e-13	-8.592099e+00	3.040276e-02
1.330000e-06	-1.079141e-06	3.358162e-12	-8.437831e+00	3.121821e-03
1.340000e-06	-1.059400e-06	5.817632e-13	-8.283479e+00	-2.428836e-02
1.350000e-06	-1.039623e-06	-2.572102e-12	-8.128844e+00	-5.175498e-02
1.360000e-06	-1.019795e-06	-3.662467e-12	-7.973807e+00	-7.920482e-02
1.370000e-06	-9.999215e-07	-7.372165e-13	-7.818415e+00	-1.065645e-01
1.380000e-06	-9.800328e-07	-1.735674e-12	-7.662904e+00	-1.337611e-01
1.390000e-06	-9.601236e-07	-5.709076e-12	-7.507234e+00	-1.607220e-01
1.400000e-06	-9.402137e-07	-1.165748e-11	-7.351558e+00	-1.873760e-01
1.410000e-06	-9.203018e-07	-1.260145e-11	-7.195866e+00	-2.136531e-01
1.420000e-06	-9.003304e-07	-9.726456e-12	-7.039709e+00	-2.394850e-01
1.430000e-06	-8.803153e-07	-3.717891e-12	-6.883210e+00	-2.648055e-01
1.440000e-06	-8.602509e-07	8.230629e-13	-6.726326e+00	-2.895509e-01
1.450000e-06	-8.401227e-07	4.746521e-12	-6.568944e+00	-3.136600e-01
1.460000e-06	-8.199394e-07	9.610385e-12	-6.411130e+00	-3.370749e-01
1.470000e-06	-7.996846e-07	9.226704e-12	-6.252756e+00	-3.597408e-01
1.480000e-06	-7.794003e-07	7.678101e-12	-6.094153e+00	-3.816066e-01
1.490000e-06	-7.591140e-07	8.965130e-12	-5.935534e+00	-4.026250e-01
1.500000e-06	-7.387650e-07	1.024197e-11	-5.776425e+00	-4.227526e-01
1.510000e-06	-7.183082e-07	9.293753e-12	-5.616472e+00	-4.419504e-01
1.520000e-06	-6.978313e-07	6.065279e-12	-5.456363e+00	-4.601838e-01
1.530000e-06	-6.773178e-07	4.593310e-12	-5.295967e+00	-4.774228e-01
1.540000e-06	-6.567108e-07	7.618543e-12	-5.134840e+00	-4.936420e-01
1.550000e-06	-6.360019e-07	1.287979e-11	-4.972917e+00	-5.088208e-01
1.560000e-06	-6.151428e-07	1.032338e-11	-4.809819e+00	-5.229437e-01
1.570000e-06	-5.941959e-07	6.642077e-12	-4.646034e+00	-5.359997e-01
1.580000e-06	-5.733563e-07	7.297093e-12	-4.483089e+00	-5.479832e-01
1.590000e-06	-5.524811e-07	8.874904e-12	-4.319866e+00	-5.588931e-01
1.600000e-06	-5.314917e-07	8.152361e-12	-4.155749e+00	-5.687334e-01
1.610000e-06	-5.104573e-07	7.256973e-12	-3.991280e+00	-5.775130e-01
1.620000e-06	-4.893495e-07	8.999190e-12	-3.826238e+00	-5.852452e-01
1.630000e-06	-4.682141e-07	9.473066e-12	-3.660979e+00	-5.919483e-01
1.640000e-06	-4.470658e-07	9.120337e-12	-3.495620e+00	-5.976447e-01
1.650000e-06	-4.259242e-07	9.132442e-12	-3.330314e+00	-6.023612e-01
1.660000e-06	-4.046716e-07	8.408982e-12	-3.164139e+00	-6.061289e-01
1.670000e-06	-3.833408e-07	7.391593e-12	-2.997353e+00	-6.089824e-01
1.680000e-06	-3.620949e-07	9.465136e-12	-2.831230e+00	-6.109603e-01
1.690000e-06	-3.408732e-07	9.399872e-12	-2.665297e+00	-6.121042e-01
1.700000e-06	-3.196155e-07	6.265591e-12	-2.499083e+00	-6.124590e-01
1.710000e-06	-2.983541e-07	5.211205e-12	-2.332839e+00	-6.120725e-01
1.720000e-06	-2.770105e-07	6.352572e-12	-2.165953e+00	-6.109947e-01
1.730000e-06	-2.556480e-07	6.677092e-12	-1.998919e+00	-6.092781e-01
1.740000e-06	-2.342719e-07	7.626292e-12	-1.831778e+00	-6.069767e-01
1.750000e-06	-2.128293e-07	8.514742e-12	-1.664118e+00	-6.041463e-01
1.760000e-06	-1.913449e-07	9.959430e-12	-1.496131e+00	-6.008435e-01
1.770000e-06	-1.698985e-07	9.641096e-12	-1.328441e+00	-5.971260e-01
1.780000e-06	-1.484446e-07	7.780499e-12	-1.160692e+00	-5.930518e-01
1.790000e-06	-1.269515e-07	8.026361e-12	-9.926377e-01	-5.886789e-01
1.800000e-06	-1.055491e-07	1.004621e-11	-8.252917e-01	-5.840650e-01
1.810000e-06	-8.413449e-08	1.066043e-11	-6.578500e-01	-5.792672e-01
1.820000e-06	-6.266294e-08	9.049945e-12	-4.899633e-01	-5.743415e-01
1.830000e-06	-4.115608e-08	9.370315e-12	-3.218006e-01	-5.693428e-01
1.840000e-06	-1.970943e-08	1.074422e-11	-1.541086e-01	-5.643240e-01
1.850000e-06	1.749782e-09	8.951407e-12	1.368159e-02	-5.593361e-01
1.860000e-06	2.330042e-08	7.906821e-12	1.821867e-01	-5.544278e-01
1.870000e-06	4.481792e-08	7.035936e-12	3.504326e-01	-5.496452e-01
1.880000e-06	6.632476e-08	4.265282e-12	5.185952e-01	-5.450314e-01
1.890000e-06	8.782388e-08	1.128140e-12	6.866974e-01	-5.406264e-01
1.900000e-06	1.093373e-07	2.199813e-12	8.549113e-01	-5.364669e-01
1.910000e-06	1.308600e-07	3.910692e-12	1.023198e+00	-5.325857e-01
1.920000e-06	1.523418e-07	3.078872e-12	1.191165e+00	-5.290121e-01
1.930000e-06	1.738254e-07	3.411455e-12	1.359146e+00	-5.257712e-01
1.940000e-06	1.952863e-07	6.225800e-12	1.526949e+00	-5.228840e-01
1.950000e-06	2.166840e-07	6.469162e-12	1.694258e+00	-5.203673e-01
1.960000e-06	2.381030e-07	5.368442e-12	1.861734e+00	-5.182334e-01
1.970000e-06	2.595211e-07	5.091701e-12	2.029203e+00	-5.164902e-01
1.980000e-06	2.808574e-07	3.588274e-12	2.196032e+00	-5.151413e-01
1.990000e-06	3.021589e-07	3.089441e-12	2.362589e+00	-5.141856e-01
2.000000e-06	3.234570e-07	3.893684e-12	2.529119e+00	-5.136176e-01
2.010000e-06	3.447590e-07	3.087501e-12	2.695680e+00	-5.134273e-01
2.020000e-06	3.661444e-07	2.184190e-12	2.862893e+00	-5.136003e-01
2.030000e-06	3.874803e-07	4.088650e-12	3.029720e+00	-5.141182e-01
2.040000e-06	4.086385e-07	6.008257e-12	3.195156e+00	-5.149579e-01
2.050000e-06	4.297501e-07	6.020821e-12	3.360228e+00	-5.160929e-01
2.060000e-06	4.508992e-07	4.672866e-12	3.525594e+00	-5.174924e-01
2.070000e-06	4.720196e-07	3.697273e-12	3.690734e+00	-5.191220e-01
2.080000e-06	4.930915e-07	2.883171e-12	3.855497e+00	-5.209441e-01
2.090000e-06	5.140433e-07	9.284486e-13	4.019319e+00	-5.229177e-01
2.100000e-06	5.349686e-07	-6.332207e-13	4.182935e+00	-5.249989e-01
2.110000e-06	5.558505e-07	-1.482800e-12	4.346211e+00	-5.271412e-01
2.120000e-06	5.766382e-07	-2.644211e-12	4.508750e+00	-5.292955e-01
2.130000e-06	5.974134e-07	-2.436295e-12	4.671192e+00	-5.314110e-01
2.140000e-06	6.181702e-07	-2.044712e-12	4.833490e+00	-5.334350e-01
2.150000e-06	6.388966e-07	-1.976084e-12	4.995551e+00	-5.353131e-01
2.160000e-06	6.595058e-07	6.802639e-14	5.156694e+00	-5.369903e-01
2.170000e-06	6.800777e-07	3.469982e-12	5.317547e+00	-5.384106e-01
2.180000e-06	7.006384e-07	7.208261e-12	5.478311e+00	-5.395178e-01
2.190000e-06	7.210962e-07	1.144451e-11	5.638271e+00	-5.402554e-01
2.200000e-06	7.414830e-07	1.258813e-11	5.797677e+00	-5.405677e-01
2.210000e-06	7.618031e-07	1.214604e-11	5.956560e+00	-5.403994e-01
2.220000e-06	7.820686e-07	1.457995e-11	6.115016e+00	-5.396963e-01
2.230000e-06	8.022709e-07	1.729189e-11	6.272979e+00	-5.384058e-01
2.240000e-06	8.223799e-07	1.960446e-11	6.430212e+00	-5.364768e-01
2.250000e-06	8.424428e-07	2.258279e-11	6.587084e+00	-5.338606e-01
2.260000e-06	8.624988e-07	2.457854e-11	6.743903e+00	-5.305106e-01
2.270000e-06	8.825224e-07	2.638158e-11	6.900468e+00	-5.263833e-01
2.280000e-06	9.024882e-07	2.843356e-11	7.056581e+00	-5.214378e-01
2.290000e-06	9.224493e-07	2.997627e-11	7.212658e+00	-5.156370e-01
2.300000e-06	9.423940e-07	3.112566e-11	7.368606e+00	-5.089470e-01
2.310000e-06	9.623050e-07	3.183045e-11	7.524290e+00	-5.013379e-01
2.320000e-06	9.821494e-07	2.954791e-11	7.679454e+00	-4.927836e-01
2.330000e-06	1.001955e-06	2.593556e-11	7.834317e+00	-4.832624e-01
2.340000e-06	1.021743e-06	2.441992e-11	7.989038e+00	-4.727571e-01
2.350000e-06	1.041504e-06	2.619754e-11	8.143549e+00	-4.612549e-01
2.360000e-06	1.061268e-06	3.094189e-11	8.298084e+00	-4.487476e-01
2.370000e-06	1.081035e-06	3.349694e-11	8.452641e+00	-4.352319e-01
2.380000e-06	1.100769e-06	3.316654e-11	8.606945e+00	-4.207093e-01
2.390000e-06	1.120426e-06	3.162882e-11	8.760641e+00	-4.051862e-01
2.400000e-06	1.140028e-06	3.161348e-11	8.913910e+00	-3.886737e-01
2.410000e-06	1.159637e-06	3.110501e-11	9.067232e+00	-3.711880e-01
2.420000e-06	1.179251e-06	2.971329e-11	9.220598e+00	-3.527501e-01
2.430000e-06	1.198762e-06	2.993267e-11	9.373154e+00	-3.333857e-01
2.440000e-06	1.218145e-06	3.126660e-11	9.524713e+00	-3.131250e-01
2.450000e-06	1.237478e-06	3.193392e-11	9.675878e+00	-2.920032e-01
2.460000e-06	1.256726e-06	3.061888e-11	9.826377e+00	-2.700593e-01
2.470000e-06	1.275843e-06	2.955959e-11	9.975854e+00	-2.473371e-01
2.480000e-06	1.294845e-06	2.935605e-11	1.012443e+01	-2.238840e-01
2.490000e-06	1.313743e-06	2.961201e-11	1.027219e+01	-1.997513e-01
2.500000e-06	1.332557e-06	2.933607e-11	1.041930e+01	-1.749939e-01
2.510000e-06	1.351310e-06	2.749203e-11	1.056593e+01	-1.496701e-01
2.520000e-06	1.369870e-06	2.546383e-11	1.071105e+01	-1.238410e-01
2.530000e-06	1.388211e-06	2.498358e-11	1.085446e+01	-9.757043e-02
2.540000e-06	1.406465e-06	2.549890e-11	1.099719e+01	-7.092474e-02
2.550000e-06	1.424642e-06	2.726068e-11	1.113931e+01	-4.397223e-02
2.560000e-06	1.442705e-06	2.954488e-11	1.128055e+01	-1.678297e-02
2.570000e-06	1.460657e-06	2.872730e-11	1.142092e+01	1.057165e-02
2.580000e-06	1.478528e-06	2.598547e-11	1.156065e+01	3.801919e-02
2.590000e-06	1.496346e-06	2.660573e-11	1.169997e+01	6.548658e-02
2.600000e-06	1.514027e-06	2.652895e-11	1.183822e+01	9.290051e-02
2.610000e-06	1.531560e-06	2.339864e-11	1.197531e+01	1.201877e-01
2.620000e-06	1.549071e-06	2.201630e-11	1.211223e+01	1.472755e-01
2.630000e-06	1.566507e-06	2.150683e-11	1.224856e+01	1.740918e-01
2.640000e-06	1.583866e-06	2.029510e-11	1.238430e+01	2.005660e-01
2.650000e-06	1.601130e-06	1.911152e-11	1.251928e+01	2.266289e-01
2.660000e-06	1.618286e-06	1.685997e-11	1.265342e+01	2.522133e-01
2.670000e-06	1.635452e-06	1.496853e-11	1.278764e+01	2.772540e-01
2.680000e-06	1.652526e-06	1.467763e-11	1.292115e+01	3.016887e-01
2.690000e-06	1.669507e-06	1.467241e-11	1.305392e+01	3.254578e-01
2.700000e-06	1.686378e-06	1.343984e-11	1.318583e+01	3.485048e-01
2.710000e-06	1.703102e-06	1.103726e-11	1.331660e+01	3.707768e-01
2.720000e-06	1.719711e-06	9.141915e-12	1.344647e+01	3.922245e-01
2.730000e-06	1.736285e-06	8.717517e-12	1.357606e+01	4.128026e-01
2.740000e-06	1.752799e-06	8.744850e-12	1.370518e+01	4.324700e-01
2.750000e-06	1.769146e-06	9.223123e-12	1.383301e+01	4.511896e-01
2.760000e-06	1.785390e-06	1.056414e-11	1.396002e+01	4.689293e-01
2.770000e-06	1.801543e-06	1.228123e-11	1.408631e+01	4.856613e-01
2.780000e-06	1.817420e-06	1.429704e-11	1.421046e+01	5.013625e-01
2.790000e-06	1.832975e-06	1.578538e-11	1.433208e+01	5.160150e-01
2.800000e-06	1.848359e-06	1.832315e-11	1.445237e+01	5.296055e-01
2.810000e-06	1.863529e-06	2.063822e-11	1.457098e+01	5.421257e-01
2.820000e-06	1.878559e-06	1.999994e-11	1.468850e+01	5.535722e-01
2.830000e-06	1.893430e-06	1.770295e-11	1.480478e+01	5.639465e-01
2.840000e-06	1.908076e-06	1.888920e-11	1.491930e+01	5.732551e-01
2.850000e-06	1.922564e-06	2.262354e-11	1.503259e+01	5.815090e-01
2.860000e-06	1.936965e-06	2.098396e-11	1.514519e+01	5.887241e-01
2.870000e-06	1.951261e-06	1.833041e-11	1.525697e+01	5.949207e-01
2.880000e-06	1.965281e-06	2.069706e-11	1.536659e+01	6.001236e-01
2.890000e-06	1.979091e-06	2.303146e-11	1.547457e+01	6.043616e-01
2.900000e-06	1.992847e-06	2.137157e-11	1.558213e+01	6.076676e-01
2.910000e-06	2.006515e-06	2.092964e-11	1.568900e+01	6.100783e-01
2.920000e-06	2.019971e-06	2.224181e-11	1.579421e+01	6.116337e-01
2.930000e-06	2.033251e-06	2.224581e-11	1.589805e+01	6.123773e-01
2.940000e-06	2.046395e-06	2.374543e-11	1.600082e+01	6.123553e-01
