# Temperatura_=_20.0
# Concentracion g/m^3_=_9000.0
# C_Vs_to_Am_M_A/Vsm_=_65563218390.804596
# pendiente_HvsI_1/m_=_3716.3
# ordenada_HvsI_A/m_=_1297.0
# frecuencia_Hz_=_134958.2069540808

Tiempo_(s)	Campo_(V.s)	Magnetizacion_(V.s)	Campo_(kA/m)	Magnetizacion_(A/m)
0.000000e+00	-2.535071e-06	-2.906762e-09	-1.987619e+01	-1.903177e+02
1.000000e-08	-2.535312e-06	-2.895198e-09	-1.987809e+01	-1.902392e+02
2.000000e-08	-2.535423e-06	-2.904677e-09	-1.987895e+01	-1.901436e+02
3.000000e-08	-2.535355e-06	-2.922920e-09	-1.987842e+01	-1.900317e+02
4.000000e-08	-2.535177e-06	-2.974405e-09	-1.987702e+01	-1.899039e+02
5.000000e-08	-2.534942e-06	-2.981407e-09	-1.987518e+01	-1.897610e+02
6.000000e-08	-2.534558e-06	-2.963035e-09	-1.987217e+01	-1.896038e+02
7.000000e-08	-2.534055e-06	-2.977404e-09	-1.986822e+01	-1.894331e+02
8.000000e-08	-2.533321e-06	-2.898154e-09	-1.986247e+01	-1.892497e+02
9.000000e-08	-2.532290e-06	-2.899263e-09	-1.985438e+01	-1.890545e+02
1.000000e-07	-2.530897e-06	-2.872426e-09	-1.984347e+01	-1.888486e+02
1.100000e-07	-2.529203e-06	-2.895582e-09	-1.983018e+01	-1.886330e+02
1.200000e-07	-2.527304e-06	-2.921391e-09	-1.981530e+01	-1.884086e+02
1.300000e-07	-2.525102e-06	-2.917443e-09	-1.979803e+01	-1.881765e+02
1.400000e-07	-2.522497e-06	-2.867909e-09	-1.977761e+01	-1.879378e+02
1.500000e-07	-2.519436e-06	-2.837955e-09	-1.975360e+01	-1.876935e+02
1.600000e-07	-2.516202e-06	-2.846585e-09	-1.972825e+01	-1.874446e+02
1.700000e-07	-2.512933e-06	-2.825102e-09	-1.970262e+01	-1.871922e+02
1.800000e-07	-2.509492e-06	-2.836889e-09	-1.967564e+01	-1.869372e+02
1.900000e-07	-2.505876e-06	-2.816228e-09	-1.964729e+01	-1.866807e+02
2.000000e-07	-2.502163e-06	-2.849860e-09	-1.961818e+01	-1.864236e+02
2.100000e-07	-2.498376e-06	-2.810244e-09	-1.958848e+01	-1.861666e+02
2.200000e-07	-2.494535e-06	-2.767144e-09	-1.955837e+01	-1.859107e+02
2.300000e-07	-2.490626e-06	-2.711824e-09	-1.952772e+01	-1.856566e+02
2.400000e-07	-2.486586e-06	-2.780951e-09	-1.949604e+01	-1.854050e+02
2.500000e-07	-2.482396e-06	-2.831167e-09	-1.946319e+01	-1.851564e+02
2.600000e-07	-2.478156e-06	-2.815549e-09	-1.942995e+01	-1.849114e+02
2.700000e-07	-2.473735e-06	-2.773344e-09	-1.939529e+01	-1.846705e+02
2.800000e-07	-2.469015e-06	-2.774497e-09	-1.935828e+01	-1.844340e+02
2.900000e-07	-2.464047e-06	-2.835289e-09	-1.931933e+01	-1.842022e+02
3.000000e-07	-2.458929e-06	-2.848218e-09	-1.927920e+01	-1.839753e+02
3.100000e-07	-2.453707e-06	-2.793571e-09	-1.923826e+01	-1.837533e+02
3.200000e-07	-2.448228e-06	-2.728644e-09	-1.919530e+01	-1.835363e+02
3.300000e-07	-2.442513e-06	-2.783973e-09	-1.915049e+01	-1.833242e+02
3.400000e-07	-2.436707e-06	-2.841790e-09	-1.910497e+01	-1.831168e+02
3.500000e-07	-2.430791e-06	-2.800092e-09	-1.905859e+01	-1.829139e+02
3.600000e-07	-2.424695e-06	-2.705545e-09	-1.901079e+01	-1.827150e+02
3.700000e-07	-2.418517e-06	-2.734829e-09	-1.896235e+01	-1.825198e+02
3.800000e-07	-2.412161e-06	-2.816892e-09	-1.891252e+01	-1.823279e+02
3.900000e-07	-2.405439e-06	-2.807514e-09	-1.885982e+01	-1.821386e+02
4.000000e-07	-2.398440e-06	-2.720509e-09	-1.880494e+01	-1.819513e+02
4.100000e-07	-2.391388e-06	-2.707696e-09	-1.874964e+01	-1.817654e+02
4.200000e-07	-2.384252e-06	-2.770550e-09	-1.869370e+01	-1.815802e+02
4.300000e-07	-2.376844e-06	-2.790740e-09	-1.863562e+01	-1.813948e+02
4.400000e-07	-2.369275e-06	-2.731215e-09	-1.857627e+01	-1.812085e+02
4.500000e-07	-2.361680e-06	-2.686070e-09	-1.851672e+01	-1.810205e+02
4.600000e-07	-2.354037e-06	-2.716483e-09	-1.845679e+01	-1.808299e+02
4.700000e-07	-2.346301e-06	-2.760933e-09	-1.839615e+01	-1.806359e+02
4.800000e-07	-2.338469e-06	-2.748243e-09	-1.833474e+01	-1.804376e+02
4.900000e-07	-2.330541e-06	-2.701335e-09	-1.827258e+01	-1.802342e+02
5.000000e-07	-2.322570e-06	-2.701351e-09	-1.821008e+01	-1.800250e+02
5.100000e-07	-2.314488e-06	-2.745070e-09	-1.814671e+01	-1.798089e+02
5.200000e-07	-2.306181e-06	-2.755989e-09	-1.808159e+01	-1.795854e+02
5.300000e-07	-2.297714e-06	-2.709029e-09	-1.801520e+01	-1.793535e+02
5.400000e-07	-2.288998e-06	-2.681353e-09	-1.794686e+01	-1.791127e+02
5.500000e-07	-2.279938e-06	-2.705905e-09	-1.787582e+01	-1.788623e+02
5.600000e-07	-2.270504e-06	-2.725493e-09	-1.780186e+01	-1.786016e+02
5.700000e-07	-2.260793e-06	-2.695725e-09	-1.772572e+01	-1.783301e+02
5.800000e-07	-2.250835e-06	-2.663413e-09	-1.764764e+01	-1.780472e+02
5.900000e-07	-2.240565e-06	-2.674144e-09	-1.756712e+01	-1.777527e+02
6.000000e-07	-2.230146e-06	-2.702391e-09	-1.748543e+01	-1.774460e+02
6.100000e-07	-2.219582e-06	-2.697318e-09	-1.740260e+01	-1.771269e+02
6.200000e-07	-2.208673e-06	-2.664283e-09	-1.731707e+01	-1.767951e+02
6.300000e-07	-2.197434e-06	-2.652863e-09	-1.722895e+01	-1.764505e+02
6.400000e-07	-2.186069e-06	-2.674524e-09	-1.713985e+01	-1.760929e+02
6.500000e-07	-2.174598e-06	-2.678374e-09	-1.704991e+01	-1.757223e+02
6.600000e-07	-2.163030e-06	-2.646284e-09	-1.695921e+01	-1.753387e+02
6.700000e-07	-2.151405e-06	-2.623188e-09	-1.686806e+01	-1.749423e+02
6.800000e-07	-2.139667e-06	-2.637341e-09	-1.677604e+01	-1.745330e+02
6.900000e-07	-2.127725e-06	-2.650709e-09	-1.668240e+01	-1.741111e+02
7.000000e-07	-2.115644e-06	-2.630102e-09	-1.658768e+01	-1.736769e+02
7.100000e-07	-2.103476e-06	-2.606328e-09	-1.649228e+01	-1.732306e+02
7.200000e-07	-2.091162e-06	-2.611456e-09	-1.639573e+01	-1.727725e+02
7.300000e-07	-2.078613e-06	-2.618557e-09	-1.629734e+01	-1.723030e+02
7.400000e-07	-2.065811e-06	-2.603677e-09	-1.619696e+01	-1.718224e+02
7.500000e-07	-2.052921e-06	-2.583757e-09	-1.609590e+01	-1.713312e+02
7.600000e-07	-2.039846e-06	-2.575873e-09	-1.599339e+01	-1.708298e+02
7.700000e-07	-2.026522e-06	-2.576441e-09	-1.588892e+01	-1.703185e+02
7.800000e-07	-2.013024e-06	-2.575935e-09	-1.578309e+01	-1.697979e+02
7.900000e-07	-1.999357e-06	-2.564598e-09	-1.567593e+01	-1.692683e+02
8.000000e-07	-1.985525e-06	-2.547069e-09	-1.556748e+01	-1.687302e+02
8.100000e-07	-1.971553e-06	-2.540534e-09	-1.545794e+01	-1.681840e+02
8.200000e-07	-1.957547e-06	-2.544186e-09	-1.534812e+01	-1.676299e+02
8.300000e-07	-1.943344e-06	-2.533105e-09	-1.523677e+01	-1.670685e+02
8.400000e-07	-1.928916e-06	-2.506844e-09	-1.512364e+01	-1.665001e+02
8.500000e-07	-1.914464e-06	-2.495212e-09	-1.501033e+01	-1.659248e+02
8.600000e-07	-1.899879e-06	-2.497879e-09	-1.489598e+01	-1.653430e+02
8.700000e-07	-1.885016e-06	-2.488105e-09	-1.477944e+01	-1.647550e+02
8.800000e-07	-1.870000e-06	-2.464875e-09	-1.466171e+01	-1.641608e+02
8.900000e-07	-1.854682e-06	-2.454437e-09	-1.454161e+01	-1.635607e+02
9.000000e-07	-1.838971e-06	-2.454746e-09	-1.441843e+01	-1.629546e+02
9.100000e-07	-1.823082e-06	-2.449138e-09	-1.429385e+01	-1.623427e+02
9.200000e-07	-1.807074e-06	-2.433567e-09	-1.416834e+01	-1.617248e+02
9.300000e-07	-1.791054e-06	-2.418578e-09	-1.404274e+01	-1.611011e+02
9.400000e-07	-1.774857e-06	-2.410819e-09	-1.391575e+01	-1.604712e+02
9.500000e-07	-1.758385e-06	-2.405611e-09	-1.378659e+01	-1.598352e+02
9.600000e-07	-1.741735e-06	-2.395027e-09	-1.365605e+01	-1.591927e+02
9.700000e-07	-1.725001e-06	-2.377429e-09	-1.352485e+01	-1.585435e+02
9.800000e-07	-1.708169e-06	-2.363624e-09	-1.339288e+01	-1.578874e+02
9.900000e-07	-1.691129e-06	-2.361901e-09	-1.325927e+01	-1.572240e+02
1.000000e-06	-1.673971e-06	-2.358093e-09	-1.312475e+01	-1.565530e+02
1.010000e-06	-1.656813e-06	-2.342119e-09	-1.299022e+01	-1.558739e+02
1.020000e-06	-1.639607e-06	-2.324928e-09	-1.285532e+01	-1.551864e+02
1.030000e-06	-1.622324e-06	-2.317097e-09	-1.271981e+01	-1.544901e+02
1.040000e-06	-1.604995e-06	-2.310659e-09	-1.258394e+01	-1.537844e+02
1.050000e-06	-1.587573e-06	-2.294800e-09	-1.244734e+01	-1.530689e+02
1.060000e-06	-1.570072e-06	-2.276677e-09	-1.231013e+01	-1.523431e+02
1.070000e-06	-1.552520e-06	-2.264699e-09	-1.217251e+01	-1.516065e+02
1.080000e-06	-1.534902e-06	-2.257556e-09	-1.203438e+01	-1.508588e+02
1.090000e-06	-1.517265e-06	-2.245580e-09	-1.189610e+01	-1.500993e+02
1.100000e-06	-1.499495e-06	-2.229530e-09	-1.175677e+01	-1.493277e+02
1.110000e-06	-1.481559e-06	-2.214600e-09	-1.161615e+01	-1.485434e+02
1.120000e-06	-1.463631e-06	-2.202326e-09	-1.147558e+01	-1.477461e+02
1.130000e-06	-1.445589e-06	-2.188286e-09	-1.133413e+01	-1.469354e+02
1.140000e-06	-1.427500e-06	-2.172748e-09	-1.119229e+01	-1.461108e+02
1.150000e-06	-1.409340e-06	-2.159218e-09	-1.104991e+01	-1.452719e+02
1.160000e-06	-1.390978e-06	-2.147772e-09	-1.090595e+01	-1.444185e+02
1.170000e-06	-1.372462e-06	-2.139016e-09	-1.076077e+01	-1.435503e+02
1.180000e-06	-1.353821e-06	-2.127959e-09	-1.061461e+01	-1.426669e+02
1.190000e-06	-1.335080e-06	-2.114054e-09	-1.046768e+01	-1.417682e+02
1.200000e-06	-1.316203e-06	-2.100811e-09	-1.031967e+01	-1.408538e+02
1.210000e-06	-1.297234e-06	-2.087831e-09	-1.017095e+01	-1.399237e+02
1.220000e-06	-1.278188e-06	-2.073216e-09	-1.002162e+01	-1.389777e+02
1.230000e-06	-1.259044e-06	-2.056291e-09	-9.871522e+00	-1.380156e+02
1.240000e-06	-1.239825e-06	-2.042015e-09	-9.720833e+00	-1.370374e+02
1.250000e-06	-1.220494e-06	-2.029313e-09	-9.569265e+00	-1.360430e+02
1.260000e-06	-1.201045e-06	-2.016817e-09	-9.416776e+00	-1.350323e+02
1.270000e-06	-1.181524e-06	-2.000747e-09	-9.263723e+00	-1.340055e+02
1.280000e-06	-1.161925e-06	-1.984710e-09	-9.110056e+00	-1.329624e+02
1.290000e-06	-1.142286e-06	-1.971088e-09	-8.956078e+00	-1.319030e+02
1.300000e-06	-1.122630e-06	-1.955570e-09	-8.801969e+00	-1.308275e+02
1.310000e-06	-1.102936e-06	-1.937147e-09	-8.647555e+00	-1.297358e+02
1.320000e-06	-1.083228e-06	-1.915814e-09	-8.493034e+00	-1.286279e+02
1.330000e-06	-1.063502e-06	-1.896587e-09	-8.338376e+00	-1.275040e+02
1.340000e-06	-1.043735e-06	-1.881120e-09	-8.183394e+00	-1.263641e+02
1.350000e-06	-1.023952e-06	-1.866565e-09	-8.028279e+00	-1.252081e+02
1.360000e-06	-1.004158e-06	-1.847659e-09	-7.873089e+00	-1.240362e+02
1.370000e-06	-9.843388e-07	-1.828473e-09	-7.717696e+00	-1.228483e+02
1.380000e-06	-9.644740e-07	-1.813432e-09	-7.561946e+00	-1.216443e+02
1.390000e-06	-9.445496e-07	-1.798310e-09	-7.405729e+00	-1.204243e+02
1.400000e-06	-9.246176e-07	-1.778503e-09	-7.249453e+00	-1.191882e+02
1.410000e-06	-9.046899e-07	-1.757781e-09	-7.093210e+00	-1.179359e+02
1.420000e-06	-8.847256e-07	-1.736976e-09	-6.936680e+00	-1.166673e+02
1.430000e-06	-8.646948e-07	-1.714734e-09	-6.779629e+00	-1.153822e+02
1.440000e-06	-8.446335e-07	-1.688468e-09	-6.622338e+00	-1.140805e+02
1.450000e-06	-8.245343e-07	-1.664583e-09	-6.464751e+00	-1.127619e+02
1.460000e-06	-8.043420e-07	-1.646117e-09	-6.306433e+00	-1.114261e+02
1.470000e-06	-7.840800e-07	-1.628647e-09	-6.147569e+00	-1.100728e+02
1.480000e-06	-7.637649e-07	-1.609395e-09	-5.988289e+00	-1.087018e+02
1.490000e-06	-7.434173e-07	-1.588376e-09	-5.828754e+00	-1.073127e+02
1.500000e-06	-7.230273e-07	-1.568031e-09	-5.668886e+00	-1.059050e+02
1.510000e-06	-7.026228e-07	-1.546912e-09	-5.508905e+00	-1.044783e+02
1.520000e-06	-6.822149e-07	-1.527858e-09	-5.348898e+00	-1.030321e+02
1.530000e-06	-6.617489e-07	-1.506885e-09	-5.188434e+00	-1.015661e+02
1.540000e-06	-6.412924e-07	-1.482379e-09	-5.028045e+00	-1.000795e+02
1.550000e-06	-6.207727e-07	-1.458646e-09	-4.867161e+00	-9.857203e+01
1.560000e-06	-6.000372e-07	-1.435709e-09	-4.704584e+00	-9.704296e+01
1.570000e-06	-5.792700e-07	-1.412264e-09	-4.541759e+00	-9.549179e+01
1.580000e-06	-5.584188e-07	-1.387988e-09	-4.378275e+00	-9.391792e+01
1.590000e-06	-5.374697e-07	-1.364008e-09	-4.214025e+00	-9.232078e+01
1.600000e-06	-5.165932e-07	-1.339837e-09	-4.050342e+00	-9.069980e+01
1.610000e-06	-4.956390e-07	-1.315156e-09	-3.886051e+00	-8.905439e+01
1.620000e-06	-4.746087e-07	-1.287558e-09	-3.721163e+00	-8.738401e+01
1.630000e-06	-4.535764e-07	-1.258999e-09	-3.556260e+00	-8.568809e+01
1.640000e-06	-4.325037e-07	-1.231743e-09	-3.391040e+00	-8.396613e+01
1.650000e-06	-4.113280e-07	-1.205546e-09	-3.225012e+00	-8.221762e+01
1.660000e-06	-3.901258e-07	-1.181335e-09	-3.058776e+00	-8.044211e+01
1.670000e-06	-3.689488e-07	-1.155345e-09	-2.892739e+00	-7.863917e+01
1.680000e-06	-3.477197e-07	-1.127392e-09	-2.726292e+00	-7.680841e+01
1.690000e-06	-3.264568e-07	-1.099880e-09	-2.559580e+00	-7.494950e+01
1.700000e-06	-3.051641e-07	-1.074436e-09	-2.392635e+00	-7.306216e+01
1.710000e-06	-2.838515e-07	-1.049774e-09	-2.225534e+00	-7.114615e+01
1.720000e-06	-2.626173e-07	-1.020788e-09	-2.059048e+00	-6.920132e+01
1.730000e-06	-2.413754e-07	-9.888915e-10	-1.892501e+00	-6.722754e+01
1.740000e-06	-2.200618e-07	-9.586949e-10	-1.725392e+00	-6.522478e+01
1.750000e-06	-1.987402e-07	-9.284203e-10	-1.558220e+00	-6.319307e+01
1.760000e-06	-1.773496e-07	-8.957070e-10	-1.390507e+00	-6.113249e+01
1.770000e-06	-1.559008e-07	-8.651458e-10	-1.222338e+00	-5.904322e+01
1.780000e-06	-1.344800e-07	-8.363680e-10	-1.054389e+00	-5.692551e+01
1.790000e-06	-1.130273e-07	-8.070932e-10	-8.861889e-01	-5.477965e+01
1.800000e-06	-9.153363e-08	-7.787616e-10	-7.176683e-01	-5.260605e+01
1.810000e-06	-7.014683e-08	-7.487217e-10	-5.499853e-01	-5.040516e+01
1.820000e-06	-4.874706e-08	-7.153011e-10	-3.822007e-01	-4.817752e+01
1.830000e-06	-2.724179e-08	-6.811844e-10	-2.135889e-01	-4.592374e+01
1.840000e-06	-5.700725e-09	-6.471636e-10	-4.469647e-02	-4.364449e+01
1.850000e-06	1.581881e-08	-6.117025e-10	1.240272e-01	-4.134052e+01
1.860000e-06	3.732024e-08	-5.784841e-10	2.926088e-01	-3.901264e+01
1.870000e-06	5.871948e-08	-5.467113e-10	4.603893e-01	-3.666172e+01
1.880000e-06	8.006129e-08	-5.138649e-10	6.277196e-01	-3.428871e+01
1.890000e-06	1.014349e-07	-4.815979e-10	7.952987e-01	-3.189458e+01
1.900000e-06	1.228784e-07	-4.475786e-10	9.634266e-01	-2.948040e+01
1.910000e-06	1.443432e-07	-4.121035e-10	1.131721e+00	-2.704726e+01
1.920000e-06	1.656871e-07	-3.751371e-10	1.299067e+00	-2.459629e+01
1.930000e-06	1.870160e-07	-3.392867e-10	1.466297e+00	-2.212868e+01
1.940000e-06	2.083185e-07	-3.033895e-10	1.633318e+00	-1.964566e+01
1.950000e-06	2.295892e-07	-2.657395e-10	1.800091e+00	-1.714847e+01
1.960000e-06	2.508804e-07	-2.276850e-10	1.967024e+00	-1.463840e+01
1.970000e-06	2.721678e-07	-1.901415e-10	2.133929e+00	-1.211675e+01
1.980000e-06	2.934336e-07	-1.535403e-10	2.300662e+00	-9.584860e+00
1.990000e-06	3.147090e-07	-1.175498e-10	2.467472e+00	-7.044067e+00
2.000000e-06	3.360129e-07	-8.169943e-11	2.634505e+00	-4.495725e+00
2.010000e-06	3.572309e-07	-4.404039e-11	2.800865e+00	-1.941197e+00
2.020000e-06	3.783333e-07	-5.709444e-12	2.966317e+00	6.181511e-01
2.030000e-06	3.994423e-07	3.108692e-11	3.131822e+00	3.180954e+00
2.040000e-06	4.204473e-07	6.773764e-11	3.296511e+00	5.745849e+00
2.050000e-06	4.413839e-07	1.069065e-10	3.460665e+00	8.311483e+00
2.060000e-06	4.624162e-07	1.449276e-10	3.625568e+00	1.087651e+01
2.070000e-06	4.833928e-07	1.808255e-10	3.790035e+00	1.343961e+01
2.080000e-06	5.043475e-07	2.153281e-10	3.954330e+00	1.599945e+01
2.090000e-06	5.253302e-07	2.512175e-10	4.118845e+00	1.855476e+01
2.100000e-06	5.462185e-07	2.865761e-10	4.282619e+00	2.110425e+01
2.110000e-06	5.669490e-07	3.208613e-10	4.445156e+00	2.364667e+01
2.120000e-06	5.876150e-07	3.560076e-10	4.607188e+00	2.618082e+01
2.130000e-06	6.082909e-07	3.940109e-10	4.769297e+00	2.870548e+01
2.140000e-06	6.289194e-07	4.321708e-10	4.931034e+00	3.121949e+01
2.150000e-06	6.495043e-07	4.685952e-10	5.092430e+00	3.372172e+01
2.160000e-06	6.700546e-07	5.054317e-10	5.253555e+00	3.621107e+01
2.170000e-06	6.905597e-07	5.436689e-10	5.414325e+00	3.868646e+01
2.180000e-06	7.110172e-07	5.830345e-10	5.574721e+00	4.114686e+01
2.190000e-06	7.313546e-07	6.203966e-10	5.734176e+00	4.359127e+01
2.200000e-06	7.515724e-07	6.548506e-10	5.892694e+00	4.601873e+01
2.210000e-06	7.717909e-07	6.897219e-10	6.051217e+00	4.842829e+01
2.220000e-06	7.919822e-07	7.257184e-10	6.209526e+00	5.081908e+01
2.230000e-06	8.120479e-07	7.626492e-10	6.366851e+00	5.319024e+01
2.240000e-06	8.320436e-07	7.973428e-10	6.523627e+00	5.554096e+01
2.250000e-06	8.520597e-07	8.309912e-10	6.680563e+00	5.787044e+01
2.260000e-06	8.720593e-07	8.665933e-10	6.837370e+00	6.017797e+01
2.270000e-06	8.920335e-07	9.014343e-10	6.993977e+00	6.246283e+01
2.280000e-06	9.119852e-07	9.342083e-10	7.150409e+00	6.472438e+01
2.290000e-06	9.318639e-07	9.656005e-10	7.306267e+00	6.696198e+01
2.300000e-06	9.517130e-07	1.000159e-09	7.461894e+00	6.917507e+01
2.310000e-06	9.715688e-07	1.034142e-09	7.617573e+00	7.136310e+01
2.320000e-06	9.914383e-07	1.063835e-09	7.773360e+00	7.352559e+01
2.330000e-06	1.011300e-06	1.093362e-09	7.929086e+00	7.566207e+01
2.340000e-06	1.031105e-06	1.127196e-09	8.084366e+00	7.777214e+01
2.350000e-06	1.050857e-06	1.162894e-09	8.239233e+00	7.985542e+01
2.360000e-06	1.070591e-06	1.195622e-09	8.393954e+00	8.191160e+01
2.370000e-06	1.090308e-06	1.224639e-09	8.548547e+00	8.394039e+01
2.380000e-06	1.110011e-06	1.254378e-09	8.703027e+00	8.594155e+01
2.390000e-06	1.129720e-06	1.287292e-09	8.857555e+00	8.791490e+01
2.400000e-06	1.149329e-06	1.320633e-09	9.011302e+00	8.986027e+01
2.410000e-06	1.168885e-06	1.348503e-09	9.164629e+00	9.177756e+01
2.420000e-06	1.188395e-06	1.374340e-09	9.317599e+00	9.366672e+01
2.430000e-06	1.207855e-06	1.403228e-09	9.470169e+00	9.552771e+01
2.440000e-06	1.227296e-06	1.433358e-09	9.622599e+00	9.736058e+01
2.450000e-06	1.246626e-06	1.458837e-09	9.774158e+00	9.916537e+01
2.460000e-06	1.265843e-06	1.481032e-09	9.924826e+00	1.009422e+02
2.470000e-06	1.284917e-06	1.505984e-09	1.007438e+01	1.026913e+02
2.480000e-06	1.303806e-06	1.533475e-09	1.022248e+01	1.044127e+02
2.490000e-06	1.322608e-06	1.559126e-09	1.036989e+01	1.061067e+02
2.500000e-06	1.341381e-06	1.581698e-09	1.051708e+01	1.077737e+02
2.510000e-06	1.359928e-06	1.606682e-09	1.066250e+01	1.094138e+02
2.520000e-06	1.378277e-06	1.631968e-09	1.080637e+01	1.110275e+02
2.530000e-06	1.396621e-06	1.655444e-09	1.095019e+01	1.126150e+02
2.540000e-06	1.414831e-06	1.678720e-09	1.109297e+01	1.141769e+02
2.550000e-06	1.432861e-06	1.702887e-09	1.123433e+01	1.157135e+02
2.560000e-06	1.450752e-06	1.726077e-09	1.137460e+01	1.172253e+02
2.570000e-06	1.468528e-06	1.747424e-09	1.151398e+01	1.187128e+02
2.580000e-06	1.486263e-06	1.769266e-09	1.165303e+01	1.201764e+02
2.590000e-06	1.503898e-06	1.791688e-09	1.179129e+01	1.216166e+02
2.600000e-06	1.521426e-06	1.814436e-09	1.192872e+01	1.230341e+02
2.610000e-06	1.538938e-06	1.835316e-09	1.206603e+01	1.244293e+02
2.620000e-06	1.556412e-06	1.856852e-09	1.220303e+01	1.258027e+02
2.630000e-06	1.573774e-06	1.879564e-09	1.233915e+01	1.271549e+02
2.640000e-06	1.591140e-06	1.900474e-09	1.247531e+01	1.284864e+02
2.650000e-06	1.608450e-06	1.920274e-09	1.261104e+01	1.297978e+02
2.660000e-06	1.625631e-06	1.940183e-09	1.274574e+01	1.310895e+02
2.670000e-06	1.642779e-06	1.960364e-09	1.288019e+01	1.323622e+02
2.680000e-06	1.659863e-06	1.980347e-09	1.301413e+01	1.336162e+02
2.690000e-06	1.676797e-06	1.999724e-09	1.314690e+01	1.348520e+02
2.700000e-06	1.693551e-06	2.017703e-09	1.327826e+01	1.360702e+02
2.710000e-06	1.710230e-06	2.036014e-09	1.340903e+01	1.372711e+02
2.720000e-06	1.726892e-06	2.054732e-09	1.353968e+01	1.384551e+02
2.730000e-06	1.743399e-06	2.071835e-09	1.366910e+01	1.396226e+02
2.740000e-06	1.759755e-06	2.088457e-09	1.379734e+01	1.407739e+02
2.750000e-06	1.776077e-06	2.105915e-09	1.392531e+01	1.419094e+02
2.760000e-06	1.792179e-06	2.125558e-09	1.405156e+01	1.430293e+02
2.770000e-06	1.808026e-06	2.144011e-09	1.417580e+01	1.441338e+02
2.780000e-06	1.823707e-06	2.159806e-09	1.429875e+01	1.452232e+02
2.790000e-06	1.839168e-06	2.177402e-09	1.441997e+01	1.462976e+02
2.800000e-06	1.854384e-06	2.195678e-09	1.453927e+01	1.473571e+02
2.810000e-06	1.869530e-06	2.213346e-09	1.465802e+01	1.484018e+02
2.820000e-06	1.884446e-06	2.228011e-09	1.477497e+01	1.494318e+02
2.830000e-06	1.899119e-06	2.243167e-09	1.489002e+01	1.504471e+02
2.840000e-06	1.913602e-06	2.261560e-09	1.500357e+01	1.514477e+02
2.850000e-06	1.927825e-06	2.277932e-09	1.511508e+01	1.524335e+02
2.860000e-06	1.941964e-06	2.291357e-09	1.522594e+01	1.534046e+02
2.870000e-06	1.956031e-06	2.307838e-09	1.533624e+01	1.543607e+02
2.880000e-06	1.969965e-06	2.325060e-09	1.544549e+01	1.553018e+02
2.890000e-06	1.983720e-06	2.338628e-09	1.555333e+01	1.562277e+02
2.900000e-06	1.997322e-06	2.351385e-09	1.565998e+01	1.571384e+02
