# Temperatura_=_20.0
# Concentracion g/m^3_=_9000.0
# C_Vs_to_Am_M_A/Vsm_=_65563218390.804596
# pendiente_HvsI_1/m_=_3716.3
# ordenada_HvsI_A/m_=_1297.0
# frecuencia_Hz_=_134958.7742960353

Tiempo_(s)	Campo_(V.s)	Magnetizacion_(V.s)	Campo_(kA/m)	Magnetizacion_(A/m)
0.000000e+00	-2.541183e-06	9.595557e-12	-1.987234e+01	9.456078e-04
1.000000e-08	-2.541449e-06	2.772438e-11	-1.987442e+01	9.764066e-04
2.000000e-08	-2.541603e-06	3.068944e-11	-1.987562e+01	1.008361e-03
3.000000e-08	-2.541702e-06	-1.326827e-11	-1.987640e+01	1.041190e-03
4.000000e-08	-2.541645e-06	-1.068701e-10	-1.987596e+01	1.074587e-03
5.000000e-08	-2.541427e-06	-9.010371e-11	-1.987424e+01	1.108226e-03
6.000000e-08	-2.541031e-06	3.703808e-11	-1.987115e+01	1.141764e-03
7.000000e-08	-2.540547e-06	1.621989e-10	-1.986737e+01	1.174844e-03
8.000000e-08	-2.539967e-06	1.705849e-10	-1.986283e+01	1.207099e-03
9.000000e-08	-2.539067e-06	4.330857e-11	-1.985579e+01	1.238158e-03
1.000000e-07	-2.537766e-06	-9.901575e-11	-1.984562e+01	1.267649e-03
1.100000e-07	-2.536214e-06	-9.163667e-11	-1.983348e+01	1.295201e-03
1.200000e-07	-2.534384e-06	9.087567e-12	-1.981917e+01	1.320453e-03
1.300000e-07	-2.532316e-06	-4.656893e-12	-1.980300e+01	1.343054e-03
1.400000e-07	-2.529890e-06	-7.141944e-11	-1.978403e+01	1.362668e-03
1.500000e-07	-2.526970e-06	-4.766316e-11	-1.976119e+01	1.378979e-03
1.600000e-07	-2.523876e-06	9.636824e-12	-1.973700e+01	1.391694e-03
1.700000e-07	-2.520675e-06	-3.809795e-11	-1.971197e+01	1.400547e-03
1.800000e-07	-2.517300e-06	-1.151139e-10	-1.968557e+01	1.405300e-03
1.900000e-07	-2.513748e-06	-1.076165e-10	-1.965779e+01	1.405748e-03
2.000000e-07	-2.510057e-06	2.933913e-11	-1.962893e+01	1.401722e-03
2.100000e-07	-2.506314e-06	9.715351e-11	-1.959966e+01	1.393088e-03
2.200000e-07	-2.502519e-06	-1.127057e-11	-1.956998e+01	1.379753e-03
2.300000e-07	-2.498629e-06	-1.435010e-10	-1.953956e+01	1.361661e-03
2.400000e-07	-2.494639e-06	-8.219475e-11	-1.950836e+01	1.338799e-03
2.500000e-07	-2.490525e-06	8.133620e-11	-1.947619e+01	1.311195e-03
2.600000e-07	-2.486231e-06	9.258421e-11	-1.944261e+01	1.278918e-03
2.700000e-07	-2.481749e-06	-8.401092e-11	-1.940756e+01	1.242077e-03
2.800000e-07	-2.477039e-06	-1.513832e-10	-1.937073e+01	1.200822e-03
2.900000e-07	-2.472230e-06	9.818330e-12	-1.933312e+01	1.155341e-03
3.000000e-07	-2.467273e-06	1.446060e-10	-1.929436e+01	1.105858e-03
3.100000e-07	-2.462047e-06	2.922952e-11	-1.925349e+01	1.052632e-03
3.200000e-07	-2.456600e-06	-1.356030e-10	-1.921089e+01	9.959547e-04
3.300000e-07	-2.450979e-06	-8.257826e-11	-1.916694e+01	9.361462e-04
3.400000e-07	-2.445218e-06	8.236204e-11	-1.912188e+01	8.735525e-04
3.500000e-07	-2.439316e-06	8.361290e-11	-1.907573e+01	8.085420e-04
3.600000e-07	-2.433278e-06	-8.306511e-11	-1.902851e+01	7.415019e-04
3.700000e-07	-2.427072e-06	-1.380392e-10	-1.897998e+01	6.728342e-04
3.800000e-07	-2.420762e-06	-4.486571e-12	-1.893064e+01	6.029515e-04
3.900000e-07	-2.414263e-06	9.561577e-11	-1.887981e+01	5.322728e-04
4.000000e-07	-2.407465e-06	-7.126017e-12	-1.882665e+01	4.612196e-04
4.100000e-07	-2.400441e-06	-1.237867e-10	-1.877172e+01	3.902111e-04
4.200000e-07	-2.393260e-06	-7.224249e-11	-1.871556e+01	3.196604e-04
4.300000e-07	-2.385907e-06	5.483029e-11	-1.865806e+01	2.499702e-04
4.400000e-07	-2.378419e-06	3.277089e-11	-1.859951e+01	1.815286e-04
4.500000e-07	-2.370870e-06	-8.710102e-11	-1.854047e+01	1.147053e-04
4.600000e-07	-2.363263e-06	-1.106468e-10	-1.848098e+01	4.984840e-05
4.700000e-07	-2.355574e-06	-4.843272e-12	-1.842086e+01	-1.271984e-05
4.800000e-07	-2.347793e-06	3.807299e-11	-1.836001e+01	-7.270544e-05
4.900000e-07	-2.339943e-06	-3.863643e-11	-1.829862e+01	-1.298458e-04
5.000000e-07	-2.331992e-06	-9.638583e-11	-1.823644e+01	-1.839120e-04
5.100000e-07	-2.323876e-06	-3.142957e-11	-1.817297e+01	-2.347111e-04
5.200000e-07	-2.315530e-06	4.121778e-11	-1.810771e+01	-2.820874e-04
5.300000e-07	-2.307006e-06	8.136395e-12	-1.804105e+01	-3.259239e-04
5.400000e-07	-2.298327e-06	-6.979428e-11	-1.797318e+01	-3.661434e-04
5.500000e-07	-2.289355e-06	-6.052040e-11	-1.790302e+01	-4.027083e-04
5.600000e-07	-2.280073e-06	8.822576e-12	-1.783043e+01	-4.356207e-04
5.700000e-07	-2.270543e-06	1.196987e-11	-1.775590e+01	-4.649220e-04
5.800000e-07	-2.260722e-06	-5.735466e-11	-1.767910e+01	-4.906920e-04
5.900000e-07	-2.250560e-06	-7.868805e-11	-1.759964e+01	-5.130471e-04
6.000000e-07	-2.240048e-06	-1.855132e-11	-1.751743e+01	-5.321389e-04
6.100000e-07	-2.229308e-06	1.610711e-11	-1.743344e+01	-5.481518e-04
6.200000e-07	-2.218454e-06	-2.537304e-11	-1.734856e+01	-5.613005e-04
6.300000e-07	-2.207369e-06	-6.670922e-11	-1.726187e+01	-5.718270e-04
6.400000e-07	-2.196031e-06	-3.771538e-11	-1.717321e+01	-5.799976e-04
6.500000e-07	-2.184593e-06	4.266779e-12	-1.708377e+01	-5.860992e-04
6.600000e-07	-2.172993e-06	-6.622958e-12	-1.699305e+01	-5.904359e-04
6.700000e-07	-2.161232e-06	-4.941667e-11	-1.690108e+01	-5.933247e-04
6.800000e-07	-2.149437e-06	-4.857466e-11	-1.680884e+01	-5.950920e-04
6.900000e-07	-2.137534e-06	-1.119775e-11	-1.671576e+01	-5.960690e-04
7.000000e-07	-2.125498e-06	2.777196e-12	-1.662164e+01	-5.965881e-04
7.100000e-07	-2.113377e-06	-3.035799e-11	-1.652685e+01	-5.969781e-04
7.200000e-07	-2.101054e-06	-4.956704e-11	-1.643048e+01	-5.975606e-04
7.300000e-07	-2.088469e-06	-2.686908e-11	-1.633206e+01	-5.986459e-04
7.400000e-07	-2.075708e-06	-2.535982e-12	-1.623227e+01	-6.005288e-04
7.500000e-07	-2.062694e-06	-1.965674e-11	-1.613050e+01	-6.034853e-04
7.600000e-07	-2.049554e-06	-4.418962e-11	-1.602774e+01	-6.077690e-04
7.700000e-07	-2.036373e-06	-3.616879e-11	-1.592467e+01	-6.136080e-04
7.800000e-07	-2.023019e-06	-9.130496e-12	-1.582023e+01	-6.212016e-04
7.900000e-07	-2.009456e-06	-1.125732e-11	-1.571417e+01	-6.307183e-04
8.000000e-07	-1.995756e-06	-3.357612e-11	-1.560704e+01	-6.422932e-04
8.100000e-07	-1.982029e-06	-3.652844e-11	-1.549969e+01	-6.560262e-04
8.200000e-07	-1.968166e-06	-1.546331e-11	-1.539129e+01	-6.719810e-04
8.300000e-07	-1.954042e-06	-8.220530e-12	-1.528083e+01	-6.901836e-04
8.400000e-07	-1.939756e-06	-2.669818e-11	-1.516912e+01	-7.106219e-04
8.500000e-07	-1.925298e-06	-3.955075e-11	-1.505605e+01	-7.332460e-04
8.600000e-07	-1.910565e-06	-2.963526e-11	-1.494084e+01	-7.579680e-04
8.700000e-07	-1.895683e-06	-1.437372e-11	-1.482446e+01	-7.846630e-04
8.800000e-07	-1.880632e-06	-1.942099e-11	-1.470675e+01	-8.131704e-04
8.900000e-07	-1.865320e-06	-3.296035e-11	-1.458701e+01	-8.432953e-04
9.000000e-07	-1.849888e-06	-3.106597e-11	-1.446633e+01	-8.748109e-04
9.100000e-07	-1.834220e-06	-1.640086e-11	-1.434381e+01	-9.074606e-04
9.200000e-07	-1.818279e-06	-1.648650e-11	-1.421915e+01	-9.409609e-04
9.300000e-07	-1.802196e-06	-3.338563e-11	-1.409338e+01	-9.750043e-04
9.400000e-07	-1.785942e-06	-4.088917e-11	-1.396627e+01	-1.009263e-03
9.500000e-07	-1.769602e-06	-2.699635e-11	-1.383849e+01	-1.043392e-03
9.600000e-07	-1.753078e-06	-1.931157e-11	-1.370927e+01	-1.077034e-03
9.700000e-07	-1.736418e-06	-3.029732e-11	-1.357898e+01	-1.109822e-03
9.800000e-07	-1.719686e-06	-4.359329e-11	-1.344814e+01	-1.141384e-03
9.900000e-07	-1.702853e-06	-3.766201e-11	-1.331650e+01	-1.171348e-03
1.000000e-06	-1.685905e-06	-2.648732e-11	-1.318397e+01	-1.199344e-03
1.010000e-06	-1.668831e-06	-2.897764e-11	-1.305045e+01	-1.225011e-03
1.020000e-06	-1.651697e-06	-4.139401e-11	-1.291645e+01	-1.248000e-03
1.030000e-06	-1.634512e-06	-4.382797e-11	-1.278207e+01	-1.267975e-03
1.040000e-06	-1.617240e-06	-3.469339e-11	-1.264700e+01	-1.284624e-03
1.050000e-06	-1.599895e-06	-3.074617e-11	-1.251136e+01	-1.297654e-03
1.060000e-06	-1.582466e-06	-3.857296e-11	-1.237506e+01	-1.306802e-03
1.070000e-06	-1.564847e-06	-4.470655e-11	-1.223728e+01	-1.311832e-03
1.080000e-06	-1.547165e-06	-3.969337e-11	-1.209900e+01	-1.312543e-03
1.090000e-06	-1.529502e-06	-3.363499e-11	-1.196088e+01	-1.308767e-03
1.100000e-06	-1.511791e-06	-3.765267e-11	-1.182238e+01	-1.300375e-03
1.110000e-06	-1.493966e-06	-4.645774e-11	-1.168298e+01	-1.287275e-03
1.120000e-06	-1.475979e-06	-4.792732e-11	-1.154232e+01	-1.269416e-03
1.130000e-06	-1.457884e-06	-4.390493e-11	-1.140082e+01	-1.246788e-03
1.140000e-06	-1.439708e-06	-4.209065e-11	-1.125868e+01	-1.219422e-03
1.150000e-06	-1.421420e-06	-4.409860e-11	-1.111567e+01	-1.187390e-03
1.160000e-06	-1.403008e-06	-4.479432e-11	-1.097168e+01	-1.150804e-03
1.170000e-06	-1.384396e-06	-4.143152e-11	-1.082613e+01	-1.109818e-03
1.180000e-06	-1.365575e-06	-3.612439e-11	-1.067895e+01	-1.064623e-03
1.190000e-06	-1.346748e-06	-3.611832e-11	-1.053172e+01	-1.015445e-03
1.200000e-06	-1.327848e-06	-3.892647e-11	-1.038392e+01	-9.625467e-04
1.210000e-06	-1.308767e-06	-3.759166e-11	-1.023470e+01	-9.062215e-04
1.220000e-06	-1.289590e-06	-3.413495e-11	-1.008474e+01	-8.467918e-04
1.230000e-06	-1.270285e-06	-3.535583e-11	-9.933776e+00	-7.846055e-04
1.240000e-06	-1.250983e-06	-3.746229e-11	-9.782832e+00	-7.200328e-04
1.250000e-06	-1.231649e-06	-3.580266e-11	-9.631633e+00	-6.534622e-04
1.260000e-06	-1.212204e-06	-3.454576e-11	-9.479569e+00	-5.852966e-04
1.270000e-06	-1.192709e-06	-3.595302e-11	-9.327117e+00	-5.159494e-04
1.280000e-06	-1.173183e-06	-3.648526e-11	-9.174420e+00	-4.458399e-04
1.290000e-06	-1.153587e-06	-3.579723e-11	-9.021177e+00	-3.753895e-04
1.300000e-06	-1.133924e-06	-3.478828e-11	-8.867418e+00	-3.050172e-04
1.310000e-06	-1.114237e-06	-3.550478e-11	-8.713460e+00	-2.351354e-04
1.320000e-06	-1.094523e-06	-3.779264e-11	-8.559298e+00	-1.661456e-04
1.330000e-06	-1.074788e-06	-3.955626e-11	-8.404963e+00	-9.843471e-05
1.340000e-06	-1.055041e-06	-3.816197e-11	-8.250537e+00	-3.237095e-05
1.350000e-06	-1.035259e-06	-3.655420e-11	-8.095841e+00	3.169977e-05
1.360000e-06	-1.015426e-06	-3.727810e-11	-7.940749e+00	9.345717e-05
1.370000e-06	-9.956023e-07	-3.712418e-11	-7.785723e+00	1.526097e-04
1.380000e-06	-9.757730e-07	-3.355529e-11	-7.630656e+00	2.088975e-04
1.390000e-06	-9.559051e-07	-3.098060e-11	-7.475286e+00	2.620943e-04
1.400000e-06	-9.360466e-07	-2.987048e-11	-7.319991e+00	3.120101e-04
1.410000e-06	-9.161416e-07	-2.876147e-11	-7.164331e+00	3.584924e-04
1.420000e-06	-8.961233e-07	-3.190912e-11	-7.007786e+00	4.014273e-04
1.430000e-06	-8.760935e-07	-3.840674e-11	-6.851151e+00	4.407407e-04
1.440000e-06	-8.560409e-07	-4.198064e-11	-6.694337e+00	4.763981e-04
1.450000e-06	-8.359317e-07	-4.274089e-11	-6.537080e+00	5.084049e-04
1.460000e-06	-8.158219e-07	-3.936212e-11	-6.379820e+00	5.368056e-04
1.470000e-06	-7.955974e-07	-3.230474e-11	-6.221662e+00	5.616830e-04
1.480000e-06	-7.752399e-07	-2.975137e-11	-6.062464e+00	5.831564e-04
1.490000e-06	-7.548734e-07	-3.047442e-11	-5.903196e+00	6.013800e-04
1.500000e-06	-7.344863e-07	-3.034798e-11	-5.743766e+00	6.165409e-04
1.510000e-06	-7.140478e-07	-2.732142e-11	-5.583935e+00	6.288559e-04
1.520000e-06	-6.935533e-07	-2.600887e-11	-5.423666e+00	6.385692e-04
1.530000e-06	-6.729414e-07	-2.567053e-11	-5.262478e+00	6.459489e-04
1.540000e-06	-6.522035e-07	-2.758498e-11	-5.100305e+00	6.512833e-04
1.550000e-06	-6.313609e-07	-3.191739e-11	-4.937314e+00	6.548777e-04
1.560000e-06	-6.104809e-07	-3.463885e-11	-4.774030e+00	6.570500e-04
1.570000e-06	-5.896162e-07	-3.412310e-11	-4.610866e+00	6.581272e-04
1.580000e-06	-5.687591e-07	-3.273766e-11	-4.447761e+00	6.584408e-04
1.590000e-06	-5.478953e-07	-3.228215e-11	-4.284604e+00	6.583228e-04
1.600000e-06	-5.270096e-07	-3.202547e-11	-4.121275e+00	6.581019e-04
1.610000e-06	-5.060642e-07	-3.126983e-11	-3.957479e+00	6.580988e-04
1.620000e-06	-4.849871e-07	-3.109139e-11	-3.792654e+00	6.586225e-04
1.630000e-06	-4.638463e-07	-3.392918e-11	-3.627330e+00	6.599668e-04
1.640000e-06	-4.427259e-07	-3.603982e-11	-3.462167e+00	6.624059e-04
1.650000e-06	-4.215352e-07	-3.472232e-11	-3.296453e+00	6.661914e-04
1.660000e-06	-4.002446e-07	-3.368982e-11	-3.129958e+00	6.715491e-04
1.670000e-06	-3.790056e-07	-3.451444e-11	-2.963867e+00	6.786762e-04
1.680000e-06	-3.577737e-07	-3.510723e-11	-2.797831e+00	6.877384e-04
1.690000e-06	-3.364686e-07	-3.448672e-11	-2.631223e+00	6.988680e-04
1.700000e-06	-3.151483e-07	-3.170876e-11	-2.464496e+00	7.121623e-04
1.710000e-06	-2.938473e-07	-3.011078e-11	-2.297919e+00	7.276818e-04
1.720000e-06	-2.725385e-07	-3.094100e-11	-2.131282e+00	7.454496e-04
1.730000e-06	-2.512311e-07	-3.227270e-11	-1.964656e+00	7.654505e-04
1.740000e-06	-2.298800e-07	-3.206345e-11	-1.797687e+00	7.876316e-04
1.750000e-06	-2.084720e-07	-3.158894e-11	-1.630275e+00	8.119018e-04
1.760000e-06	-1.870460e-07	-3.194287e-11	-1.462721e+00	8.381335e-04
1.770000e-06	-1.655402e-07	-3.225338e-11	-1.294543e+00	8.661633e-04
1.780000e-06	-1.439826e-07	-3.109615e-11	-1.125960e+00	8.957936e-04
1.790000e-06	-1.224273e-07	-2.864212e-11	-9.573954e-01	9.267951e-04
1.800000e-06	-1.009315e-07	-2.469436e-11	-7.892959e-01	9.589090e-04
1.810000e-06	-7.948093e-08	-2.166603e-11	-6.215499e-01	9.918497e-04
1.820000e-06	-5.798174e-08	-2.203554e-11	-4.534238e-01	1.025308e-03
1.830000e-06	-3.648857e-08	-2.188203e-11	-2.853447e-01	1.058955e-03
1.840000e-06	-1.505578e-08	-2.090098e-11	-1.177379e-01	1.092444e-03
1.850000e-06	6.344663e-09	-2.124451e-11	4.961599e-02	1.125416e-03
1.860000e-06	2.776971e-08	-2.140767e-11	2.171623e-01	1.157505e-03
1.870000e-06	4.923673e-08	-1.878892e-11	3.850368e-01	1.188338e-03
1.880000e-06	7.069855e-08	-1.542406e-11	5.528707e-01	1.217544e-03
1.890000e-06	9.220290e-08	-1.317333e-11	7.210372e-01	1.244752e-03
1.900000e-06	1.137118e-07	-1.093826e-11	8.892393e-01	1.269603e-03
1.910000e-06	1.351648e-07	-8.844048e-12	1.057004e+00	1.291748e-03
1.920000e-06	1.566592e-07	-8.928983e-12	1.225093e+00	1.310854e-03
1.930000e-06	1.781786e-07	-1.080314e-11	1.393377e+00	1.326609e-03
1.940000e-06	1.996411e-07	-1.112525e-11	1.561216e+00	1.338723e-03
1.950000e-06	2.210617e-07	-1.160875e-11	1.728728e+00	1.346935e-03
1.960000e-06	2.424741e-07	-1.097708e-11	1.896175e+00	1.351012e-03
1.970000e-06	2.639294e-07	-7.944470e-12	2.063958e+00	1.350755e-03
1.980000e-06	2.853990e-07	-6.732743e-12	2.231853e+00	1.345999e-03
1.990000e-06	3.068042e-07	-6.416465e-12	2.399244e+00	1.336619e-03
2.000000e-06	3.280883e-07	-5.105969e-12	2.565688e+00	1.322525e-03
2.010000e-06	3.494019e-07	-4.231059e-12	2.732362e+00	1.303670e-03
2.020000e-06	3.707225e-07	-6.564909e-12	2.899092e+00	1.280046e-03
2.030000e-06	3.919349e-07	-8.326678e-12	3.064976e+00	1.251689e-03
2.040000e-06	4.130979e-07	-9.031192e-12	3.230472e+00	1.218673e-03
2.050000e-06	4.342375e-07	-1.018316e-11	3.395787e+00	1.181115e-03
2.060000e-06	4.553674e-07	-1.091433e-11	3.561025e+00	1.139170e-03
2.070000e-06	4.764489e-07	-1.037290e-11	3.725884e+00	1.093032e-03
2.080000e-06	4.974716e-07	-8.075878e-12	3.890285e+00	1.042932e-03
2.090000e-06	5.184770e-07	-5.565471e-12	4.054549e+00	9.891339e-04
2.100000e-06	5.395032e-07	-4.624254e-12	4.218976e+00	9.319335e-04
2.110000e-06	5.604575e-07	-3.902128e-12	4.382841e+00	8.716555e-04
2.120000e-06	5.812947e-07	-5.485785e-14	4.545790e+00	8.086498e-04
2.130000e-06	6.021232e-07	3.426076e-12	4.708672e+00	7.432881e-04
2.140000e-06	6.229552e-07	3.245893e-12	4.871580e+00	6.759603e-04
2.150000e-06	6.436584e-07	2.056622e-12	5.033482e+00	6.070702e-04
2.160000e-06	6.642520e-07	2.154237e-12	5.194526e+00	5.370319e-04
2.170000e-06	6.848383e-07	9.968779e-13	5.355514e+00	4.662650e-04
2.180000e-06	7.053982e-07	-2.747696e-12	5.516294e+00	3.951908e-04
2.190000e-06	7.258961e-07	-6.625680e-12	5.676590e+00	3.242281e-04
2.200000e-06	7.462391e-07	-7.793438e-12	5.835674e+00	2.537883e-04
2.210000e-06	7.664952e-07	-5.687195e-12	5.994080e+00	1.842722e-04
2.220000e-06	7.868042e-07	-4.618597e-12	6.152898e+00	1.160652e-04
2.230000e-06	8.070886e-07	-5.632573e-12	6.311525e+00	4.953385e-05
2.240000e-06	8.272800e-07	-7.883037e-12	6.469424e+00	-1.497786e-05
2.250000e-06	8.473956e-07	-9.644991e-12	6.626729e+00	-7.715185e-05
2.260000e-06	8.674814e-07	-1.075802e-11	6.783803e+00	-1.366990e-04
2.270000e-06	8.875222e-07	-1.226286e-11	6.940524e+00	-1.933620e-04
2.280000e-06	9.074844e-07	-1.344099e-11	7.096631e+00	-2.469175e-04
2.290000e-06	9.273933e-07	-1.520078e-11	7.252321e+00	-2.971783e-04
2.300000e-06	9.472656e-07	-1.592845e-11	7.407724e+00	-3.439951e-04
2.310000e-06	9.671128e-07	-1.436495e-11	7.562932e+00	-3.872571e-04
2.320000e-06	9.869514e-07	-1.226874e-11	7.718072e+00	-4.268934e-04
2.330000e-06	1.006727e-06	-1.078416e-11	7.872717e+00	-4.628727e-04
2.340000e-06	1.026492e-06	-1.108637e-11	8.027282e+00	-4.952035e-04
2.350000e-06	1.046265e-06	-1.252367e-11	8.181915e+00	-5.239335e-04
2.360000e-06	1.065972e-06	-1.353975e-11	8.336023e+00	-5.491483e-04
2.370000e-06	1.085650e-06	-1.351126e-11	8.489910e+00	-5.709702e-04
2.380000e-06	1.105339e-06	-1.291622e-11	8.643877e+00	-5.895562e-04
2.390000e-06	1.125017e-06	-1.441643e-11	8.797760e+00	-6.050956e-04
2.400000e-06	1.144631e-06	-1.540449e-11	8.951148e+00	-6.178078e-04
2.410000e-06	1.164192e-06	-1.497200e-11	9.104116e+00	-6.279389e-04
2.420000e-06	1.183677e-06	-1.256761e-11	9.256491e+00	-6.357587e-04
2.430000e-06	1.203112e-06	-1.254672e-11	9.408475e+00	-6.415571e-04
2.440000e-06	1.222563e-06	-1.488754e-11	9.560579e+00	-6.456406e-04
2.450000e-06	1.241969e-06	-1.386930e-11	9.712336e+00	-6.483278e-04
2.460000e-06	1.261260e-06	-1.057721e-11	9.863194e+00	-6.499463e-04
2.470000e-06	1.280434e-06	-9.099791e-12	1.001314e+01	-6.508278e-04
2.480000e-06	1.299540e-06	-9.673699e-12	1.016255e+01	-6.513043e-04
2.490000e-06	1.318544e-06	-9.641745e-12	1.031117e+01	-6.517037e-04
2.500000e-06	1.337368e-06	-8.736907e-12	1.045837e+01	-6.523462e-04
2.510000e-06	1.356045e-06	-7.970743e-12	1.060442e+01	-6.535397e-04
2.520000e-06	1.374708e-06	-6.480697e-12	1.075037e+01	-6.555763e-04
2.530000e-06	1.393320e-06	-5.417571e-12	1.089592e+01	-6.587288e-04
2.540000e-06	1.411712e-06	-4.580966e-12	1.103975e+01	-6.632468e-04
2.550000e-06	1.429969e-06	-3.798749e-12	1.118252e+01	-6.693539e-04
2.560000e-06	1.448060e-06	-3.439004e-12	1.132399e+01	-6.772447e-04
2.570000e-06	1.465994e-06	-2.584691e-12	1.146424e+01	-6.870825e-04
2.580000e-06	1.483856e-06	-3.766486e-12	1.160392e+01	-6.989969e-04
2.590000e-06	1.501584e-06	-4.527719e-12	1.174256e+01	-7.130821e-04
2.600000e-06	1.519177e-06	-2.946137e-12	1.188014e+01	-7.293958e-04
2.610000e-06	1.536738e-06	1.240985e-13	1.201747e+01	-7.479578e-04
2.620000e-06	1.554203e-06	1.418362e-12	1.215404e+01	-7.687503e-04
2.630000e-06	1.571517e-06	2.986049e-12	1.228944e+01	-7.917169e-04
2.640000e-06	1.588816e-06	5.854583e-12	1.242472e+01	-8.167639e-04
2.650000e-06	1.606029e-06	7.487833e-12	1.255933e+01	-8.437606e-04
2.660000e-06	1.623207e-06	8.046918e-12	1.269367e+01	-8.725407e-04
2.670000e-06	1.640286e-06	8.524324e-12	1.282722e+01	-9.029042e-04
2.680000e-06	1.657267e-06	7.909665e-12	1.296002e+01	-9.346193e-04
2.690000e-06	1.674249e-06	6.595673e-12	1.309282e+01	-9.674248e-04
2.700000e-06	1.691070e-06	7.778074e-12	1.322436e+01	-1.001033e-03
2.710000e-06	1.707733e-06	1.034367e-11	1.335466e+01	-1.035134e-03
2.720000e-06	1.724354e-06	1.163125e-11	1.348464e+01	-1.069395e-03
2.730000e-06	1.740926e-06	1.323184e-11	1.361424e+01	-1.103471e-03
2.740000e-06	1.757337e-06	1.616137e-11	1.374257e+01	-1.137001e-03
2.750000e-06	1.773605e-06	1.660303e-11	1.386980e+01	-1.169618e-03
2.760000e-06	1.789803e-06	1.527828e-11	1.399646e+01	-1.200949e-03
2.770000e-06	1.805892e-06	1.524348e-11	1.412228e+01	-1.230623e-03
2.780000e-06	1.821695e-06	1.654936e-11	1.424586e+01	-1.258270e-03
2.790000e-06	1.837187e-06	1.568672e-11	1.436701e+01	-1.283532e-03
2.800000e-06	1.852551e-06	1.547196e-11	1.448716e+01	-1.306060e-03
2.810000e-06	1.867764e-06	1.695724e-11	1.460613e+01	-1.325524e-03
2.820000e-06	1.882598e-06	1.876238e-11	1.472213e+01	-1.341613e-03
2.830000e-06	1.897147e-06	2.039598e-11	1.483591e+01	-1.354039e-03
2.840000e-06	1.911661e-06	2.076246e-11	1.494941e+01	-1.362543e-03
2.850000e-06	1.926046e-06	1.972201e-11	1.506190e+01	-1.366894e-03
2.860000e-06	1.940202e-06	2.102317e-11	1.517260e+01	-1.366898e-03
2.870000e-06	1.954198e-06	2.440474e-11	1.528205e+01	-1.362391e-03
2.880000e-06	1.968103e-06	2.542898e-11	1.539079e+01	-1.353251e-03
2.890000e-06	1.981892e-06	2.492433e-11	1.549862e+01	-1.339392e-03
2.900000e-06	1.995599e-06	2.633541e-11	1.560581e+01	-1.320769e-03
2.910000e-06	2.009191e-06	2.880837e-11	1.571210e+01	-1.297380e-03
