# Temperatura_=_20.0
# Concentracion g/m^3_=_9000.0
# C_Vs_to_Am_M_A/Vsm_=_65563218390.804596
# pendiente_HvsI_1/m_=_3716.3
# ordenada_HvsI_A/m_=_1297.0
# frecuencia_Hz_=_134960.0140023803

Tiempo_(s)	Campo_(V.s)	Magnetizacion_(V.s)	Campo_(kA/m)	Magnetizacion_(A/m)
0.000000e+00	-2.535498e-06	-2.947806e-09	-1.987114e+01	-1.924926e+02
1.000000e-08	-2.535783e-06	-2.980414e-09	-1.987337e+01	-1.924137e+02
2.000000e-08	-2.535936e-06	-3.023512e-09	-1.987457e+01	-1.923192e+02
3.000000e-08	-2.536020e-06	-3.010057e-09	-1.987523e+01	-1.922096e+02
4.000000e-08	-2.535974e-06	-2.918635e-09	-1.987487e+01	-1.920855e+02
5.000000e-08	-2.535808e-06	-2.771731e-09	-1.987356e+01	-1.919476e+02
6.000000e-08	-2.535388e-06	-2.670671e-09	-1.987027e+01	-1.917965e+02
7.000000e-08	-2.534723e-06	-2.833632e-09	-1.986506e+01	-1.916331e+02
8.000000e-08	-2.534032e-06	-3.073434e-09	-1.985965e+01	-1.914582e+02
9.000000e-08	-2.533215e-06	-3.154340e-09	-1.985325e+01	-1.912725e+02
1.000000e-07	-2.532071e-06	-3.039511e-09	-1.984427e+01	-1.910769e+02
1.100000e-07	-2.530590e-06	-2.920422e-09	-1.983267e+01	-1.908722e+02
1.200000e-07	-2.528808e-06	-2.861699e-09	-1.981871e+01	-1.906594e+02
1.300000e-07	-2.526699e-06	-2.956577e-09	-1.980218e+01	-1.904394e+02
1.400000e-07	-2.524267e-06	-2.949822e-09	-1.978312e+01	-1.902130e+02
1.500000e-07	-2.521512e-06	-2.868530e-09	-1.976152e+01	-1.899811e+02
1.600000e-07	-2.518488e-06	-2.915706e-09	-1.973783e+01	-1.897445e+02
1.700000e-07	-2.515224e-06	-3.025229e-09	-1.971224e+01	-1.895041e+02
1.800000e-07	-2.511803e-06	-2.949122e-09	-1.968543e+01	-1.892607e+02
1.900000e-07	-2.508319e-06	-2.770056e-09	-1.965813e+01	-1.890150e+02
2.000000e-07	-2.504713e-06	-2.758355e-09	-1.962987e+01	-1.887679e+02
2.100000e-07	-2.500966e-06	-2.910998e-09	-1.960050e+01	-1.885200e+02
2.200000e-07	-2.497096e-06	-3.018828e-09	-1.957017e+01	-1.882718e+02
2.300000e-07	-2.493143e-06	-2.848457e-09	-1.953919e+01	-1.880241e+02
2.400000e-07	-2.489128e-06	-2.734328e-09	-1.950773e+01	-1.877774e+02
2.500000e-07	-2.484972e-06	-2.837324e-09	-1.947515e+01	-1.875320e+02
2.600000e-07	-2.480699e-06	-3.015054e-09	-1.944166e+01	-1.872884e+02
2.700000e-07	-2.476244e-06	-2.944475e-09	-1.940675e+01	-1.870469e+02
2.800000e-07	-2.471509e-06	-2.741945e-09	-1.936965e+01	-1.868079e+02
2.900000e-07	-2.466556e-06	-2.696033e-09	-1.933083e+01	-1.865713e+02
3.000000e-07	-2.461468e-06	-2.904539e-09	-1.929095e+01	-1.863375e+02
3.100000e-07	-2.456308e-06	-3.007024e-09	-1.925051e+01	-1.861064e+02
3.200000e-07	-2.450960e-06	-2.813862e-09	-1.920859e+01	-1.858780e+02
3.300000e-07	-2.445337e-06	-2.635783e-09	-1.916453e+01	-1.856523e+02
3.400000e-07	-2.439538e-06	-2.795754e-09	-1.911908e+01	-1.854290e+02
3.500000e-07	-2.433618e-06	-3.002947e-09	-1.907268e+01	-1.852081e+02
3.600000e-07	-2.427562e-06	-2.889729e-09	-1.902523e+01	-1.849891e+02
3.700000e-07	-2.421274e-06	-2.652093e-09	-1.897594e+01	-1.847717e+02
3.800000e-07	-2.414788e-06	-2.690616e-09	-1.892511e+01	-1.845557e+02
3.900000e-07	-2.408194e-06	-2.904481e-09	-1.887343e+01	-1.843405e+02
4.000000e-07	-2.401412e-06	-2.914176e-09	-1.882028e+01	-1.841256e+02
4.100000e-07	-2.394426e-06	-2.728428e-09	-1.876553e+01	-1.839107e+02
4.200000e-07	-2.387236e-06	-2.665412e-09	-1.870918e+01	-1.836951e+02
4.300000e-07	-2.379898e-06	-2.817237e-09	-1.865167e+01	-1.834784e+02
4.400000e-07	-2.372452e-06	-2.914624e-09	-1.859331e+01	-1.832598e+02
4.500000e-07	-2.364850e-06	-2.808700e-09	-1.853374e+01	-1.830388e+02
4.600000e-07	-2.357141e-06	-2.676606e-09	-1.847332e+01	-1.828149e+02
4.700000e-07	-2.349392e-06	-2.730374e-09	-1.841259e+01	-1.825873e+02
4.800000e-07	-2.341562e-06	-2.852341e-09	-1.835123e+01	-1.823556e+02
4.900000e-07	-2.333599e-06	-2.828044e-09	-1.828881e+01	-1.821191e+02
5.000000e-07	-2.325532e-06	-2.690983e-09	-1.822560e+01	-1.818773e+02
5.100000e-07	-2.317269e-06	-2.675507e-09	-1.816084e+01	-1.816296e+02
5.200000e-07	-2.308777e-06	-2.791928e-09	-1.809428e+01	-1.813754e+02
5.300000e-07	-2.300121e-06	-2.836864e-09	-1.802644e+01	-1.811143e+02
5.400000e-07	-2.291355e-06	-2.734825e-09	-1.795774e+01	-1.808459e+02
5.500000e-07	-2.282523e-06	-2.670651e-09	-1.788853e+01	-1.805695e+02
5.600000e-07	-2.273416e-06	-2.735247e-09	-1.781715e+01	-1.802850e+02
5.700000e-07	-2.263952e-06	-2.805598e-09	-1.774298e+01	-1.799919e+02
5.800000e-07	-2.254172e-06	-2.751677e-09	-1.766634e+01	-1.796899e+02
5.900000e-07	-2.244021e-06	-2.664269e-09	-1.758678e+01	-1.793788e+02
6.000000e-07	-2.233562e-06	-2.674329e-09	-1.750481e+01	-1.790583e+02
6.100000e-07	-2.222838e-06	-2.753873e-09	-1.742076e+01	-1.787283e+02
6.200000e-07	-2.211966e-06	-2.758385e-09	-1.733556e+01	-1.783886e+02
6.300000e-07	-2.200980e-06	-2.675458e-09	-1.724946e+01	-1.780391e+02
6.400000e-07	-2.189778e-06	-2.636912e-09	-1.716167e+01	-1.776798e+02
6.500000e-07	-2.178463e-06	-2.697975e-09	-1.707299e+01	-1.773108e+02
6.600000e-07	-2.167003e-06	-2.736943e-09	-1.698318e+01	-1.769319e+02
6.700000e-07	-2.155391e-06	-2.679072e-09	-1.689217e+01	-1.765434e+02
6.800000e-07	-2.143654e-06	-2.623012e-09	-1.680019e+01	-1.761453e+02
6.900000e-07	-2.131732e-06	-2.653247e-09	-1.670675e+01	-1.757377e+02
7.000000e-07	-2.119598e-06	-2.695841e-09	-1.661166e+01	-1.753208e+02
7.100000e-07	-2.107378e-06	-2.666885e-09	-1.651589e+01	-1.748948e+02
7.200000e-07	-2.095057e-06	-2.619477e-09	-1.641932e+01	-1.744599e+02
7.300000e-07	-2.082617e-06	-2.618961e-09	-1.632183e+01	-1.740163e+02
7.400000e-07	-2.069951e-06	-2.645958e-09	-1.622256e+01	-1.735641e+02
7.500000e-07	-2.057013e-06	-2.644697e-09	-1.612116e+01	-1.731037e+02
7.600000e-07	-2.043935e-06	-2.613900e-09	-1.601867e+01	-1.726352e+02
7.700000e-07	-2.030690e-06	-2.588292e-09	-1.591487e+01	-1.721588e+02
7.800000e-07	-2.017359e-06	-2.596672e-09	-1.581039e+01	-1.716748e+02
7.900000e-07	-2.003888e-06	-2.613951e-09	-1.570482e+01	-1.711834e+02
8.000000e-07	-1.990229e-06	-2.599636e-09	-1.559777e+01	-1.706846e+02
8.100000e-07	-1.976426e-06	-2.560899e-09	-1.548959e+01	-1.701787e+02
8.200000e-07	-1.962499e-06	-2.557239e-09	-1.538045e+01	-1.696658e+02
8.300000e-07	-1.948298e-06	-2.578508e-09	-1.526914e+01	-1.691459e+02
8.400000e-07	-1.933923e-06	-2.566770e-09	-1.515649e+01	-1.686192e+02
8.500000e-07	-1.919416e-06	-2.524232e-09	-1.504279e+01	-1.680856e+02
8.600000e-07	-1.904701e-06	-2.513486e-09	-1.492747e+01	-1.675452e+02
8.700000e-07	-1.889862e-06	-2.531314e-09	-1.481117e+01	-1.669979e+02
8.800000e-07	-1.874866e-06	-2.525928e-09	-1.469365e+01	-1.664436e+02
8.900000e-07	-1.859505e-06	-2.495813e-09	-1.457326e+01	-1.658823e+02
9.000000e-07	-1.843878e-06	-2.482702e-09	-1.445079e+01	-1.653138e+02
9.100000e-07	-1.828175e-06	-2.488449e-09	-1.432772e+01	-1.647378e+02
9.200000e-07	-1.812231e-06	-2.487243e-09	-1.420276e+01	-1.641542e+02
9.300000e-07	-1.796131e-06	-2.468343e-09	-1.407659e+01	-1.635627e+02
9.400000e-07	-1.779860e-06	-2.445746e-09	-1.394907e+01	-1.629629e+02
9.500000e-07	-1.763427e-06	-2.438971e-09	-1.382028e+01	-1.623547e+02
9.600000e-07	-1.746855e-06	-2.444430e-09	-1.369040e+01	-1.617376e+02
9.700000e-07	-1.730053e-06	-2.436961e-09	-1.355872e+01	-1.611112e+02
9.800000e-07	-1.713190e-06	-2.408741e-09	-1.342656e+01	-1.604751e+02
9.900000e-07	-1.696237e-06	-2.390454e-09	-1.329370e+01	-1.598290e+02
1.000000e-06	-1.679149e-06	-2.393495e-09	-1.315978e+01	-1.591724e+02
1.010000e-06	-1.662005e-06	-2.391158e-09	-1.302542e+01	-1.585048e+02
1.020000e-06	-1.644817e-06	-2.366975e-09	-1.289072e+01	-1.578258e+02
1.030000e-06	-1.627542e-06	-2.343156e-09	-1.275533e+01	-1.571350e+02
1.040000e-06	-1.610129e-06	-2.339032e-09	-1.261886e+01	-1.564318e+02
1.050000e-06	-1.592671e-06	-2.339570e-09	-1.248204e+01	-1.557159e+02
1.060000e-06	-1.575132e-06	-2.321719e-09	-1.234458e+01	-1.549868e+02
1.070000e-06	-1.557509e-06	-2.298466e-09	-1.220647e+01	-1.542440e+02
1.080000e-06	-1.539895e-06	-2.287472e-09	-1.206842e+01	-1.534872e+02
1.090000e-06	-1.522229e-06	-2.284558e-09	-1.192997e+01	-1.527160e+02
1.100000e-06	-1.504426e-06	-2.273108e-09	-1.179045e+01	-1.519299e+02
1.110000e-06	-1.486537e-06	-2.252002e-09	-1.165025e+01	-1.511288e+02
1.120000e-06	-1.468598e-06	-2.233079e-09	-1.150966e+01	-1.503121e+02
1.130000e-06	-1.450556e-06	-2.224490e-09	-1.136826e+01	-1.494797e+02
1.140000e-06	-1.432354e-06	-2.216841e-09	-1.122561e+01	-1.486313e+02
1.150000e-06	-1.414059e-06	-2.201614e-09	-1.108223e+01	-1.477667e+02
1.160000e-06	-1.395664e-06	-2.180568e-09	-1.093806e+01	-1.468856e+02
1.170000e-06	-1.377175e-06	-2.166598e-09	-1.079316e+01	-1.459880e+02
1.180000e-06	-1.358651e-06	-2.160447e-09	-1.064798e+01	-1.450737e+02
1.190000e-06	-1.339977e-06	-2.149635e-09	-1.050163e+01	-1.441427e+02
1.200000e-06	-1.321063e-06	-2.131389e-09	-1.035340e+01	-1.431948e+02
1.210000e-06	-1.301962e-06	-2.117747e-09	-1.020370e+01	-1.422302e+02
1.220000e-06	-1.282805e-06	-2.110250e-09	-1.005356e+01	-1.412487e+02
1.230000e-06	-1.263606e-06	-2.098275e-09	-9.903098e+00	-1.402504e+02
1.240000e-06	-1.244289e-06	-2.081048e-09	-9.751704e+00	-1.392354e+02
1.250000e-06	-1.224879e-06	-2.064424e-09	-9.599585e+00	-1.382038e+02
1.260000e-06	-1.205400e-06	-2.052406e-09	-9.446931e+00	-1.371557e+02
1.270000e-06	-1.185846e-06	-2.039233e-09	-9.293681e+00	-1.360912e+02
1.280000e-06	-1.166263e-06	-2.021630e-09	-9.140203e+00	-1.350105e+02
1.290000e-06	-1.146669e-06	-2.003742e-09	-8.986640e+00	-1.339137e+02
1.300000e-06	-1.127045e-06	-1.988494e-09	-8.832845e+00	-1.328009e+02
1.310000e-06	-1.107358e-06	-1.971845e-09	-8.678558e+00	-1.316723e+02
1.320000e-06	-1.087610e-06	-1.954462e-09	-8.523789e+00	-1.305280e+02
1.330000e-06	-1.067825e-06	-1.936226e-09	-8.368725e+00	-1.293682e+02
1.340000e-06	-1.048015e-06	-1.918593e-09	-8.213471e+00	-1.281931e+02
1.350000e-06	-1.028183e-06	-1.902940e-09	-8.058051e+00	-1.270026e+02
1.360000e-06	-1.008356e-06	-1.885855e-09	-7.902661e+00	-1.257970e+02
1.370000e-06	-9.885158e-07	-1.867239e-09	-7.747169e+00	-1.245762e+02
1.380000e-06	-9.686370e-07	-1.847974e-09	-7.591375e+00	-1.233404e+02
1.390000e-06	-9.487574e-07	-1.830496e-09	-7.435575e+00	-1.220895e+02
1.400000e-06	-9.288632e-07	-1.814090e-09	-7.279661e+00	-1.208235e+02
1.410000e-06	-9.088943e-07	-1.794397e-09	-7.123161e+00	-1.195423e+02
1.420000e-06	-8.888675e-07	-1.768236e-09	-6.966208e+00	-1.182459e+02
1.430000e-06	-8.688048e-07	-1.740841e-09	-6.808973e+00	-1.169341e+02
1.440000e-06	-8.487172e-07	-1.717184e-09	-6.651543e+00	-1.156067e+02
1.450000e-06	-8.286200e-07	-1.695110e-09	-6.494038e+00	-1.142635e+02
1.460000e-06	-8.083895e-07	-1.676342e-09	-6.335488e+00	-1.129043e+02
1.470000e-06	-7.881161e-07	-1.659128e-09	-6.176601e+00	-1.115287e+02
1.480000e-06	-7.678749e-07	-1.641990e-09	-6.017968e+00	-1.101364e+02
1.490000e-06	-7.476163e-07	-1.623000e-09	-5.859198e+00	-1.087270e+02
1.500000e-06	-7.273473e-07	-1.603135e-09	-5.700346e+00	-1.073001e+02
1.510000e-06	-7.069382e-07	-1.581169e-09	-5.540396e+00	-1.058553e+02
1.520000e-06	-6.864278e-07	-1.558387e-09	-5.379653e+00	-1.043919e+02
1.530000e-06	-6.659025e-07	-1.536301e-09	-5.218792e+00	-1.029096e+02
1.540000e-06	-6.453518e-07	-1.511686e-09	-5.057733e+00	-1.014077e+02
1.550000e-06	-6.246899e-07	-1.486729e-09	-4.895803e+00	-9.988564e+01
1.560000e-06	-6.039057e-07	-1.462929e-09	-4.732913e+00	-9.834286e+01
1.570000e-06	-5.831205e-07	-1.440899e-09	-4.570016e+00	-9.677873e+01
1.580000e-06	-5.622957e-07	-1.418810e-09	-4.406808e+00	-9.519262e+01
1.590000e-06	-5.413958e-07	-1.393079e-09	-4.243012e+00	-9.358390e+01
1.600000e-06	-5.204346e-07	-1.367234e-09	-4.078736e+00	-9.195193e+01
1.610000e-06	-4.994882e-07	-1.341812e-09	-3.914575e+00	-9.029609e+01
1.620000e-06	-4.784526e-07	-1.314905e-09	-3.749715e+00	-8.861575e+01
1.630000e-06	-4.573245e-07	-1.286903e-09	-3.584131e+00	-8.691031e+01
1.640000e-06	-4.362232e-07	-1.259113e-09	-3.418756e+00	-8.517919e+01
1.650000e-06	-4.151283e-07	-1.230615e-09	-3.253432e+00	-8.342183e+01
1.660000e-06	-3.940569e-07	-1.204088e-09	-3.088292e+00	-8.163769e+01
1.670000e-06	-3.729092e-07	-1.178435e-09	-2.922553e+00	-7.982630e+01
1.680000e-06	-3.516541e-07	-1.150693e-09	-2.755974e+00	-7.798721e+01
1.690000e-06	-3.303491e-07	-1.121733e-09	-2.589003e+00	-7.612000e+01
1.700000e-06	-3.090933e-07	-1.093214e-09	-2.422418e+00	-7.422434e+01
1.710000e-06	-2.878524e-07	-1.065701e-09	-2.255949e+00	-7.229993e+01
1.720000e-06	-2.665672e-07	-1.034395e-09	-2.089133e+00	-7.034653e+01
1.730000e-06	-2.452119e-07	-1.000297e-09	-1.921768e+00	-6.836397e+01
1.740000e-06	-2.238158e-07	-9.680590e-10	-1.754083e+00	-6.635215e+01
1.750000e-06	-2.024169e-07	-9.401950e-10	-1.586376e+00	-6.431103e+01
1.760000e-06	-1.810162e-07	-9.116619e-10	-1.418655e+00	-6.224064e+01
1.770000e-06	-1.595257e-07	-8.803087e-10	-1.250231e+00	-6.014110e+01
1.780000e-06	-1.380183e-07	-8.485686e-10	-1.081673e+00	-5.801259e+01
1.790000e-06	-1.166396e-07	-8.189274e-10	-9.141250e-01	-5.585537e+01
1.800000e-06	-9.525785e-08	-7.897654e-10	-7.465522e-01	-5.366978e+01
1.810000e-06	-7.389195e-08	-7.585725e-10	-5.791040e-01	-5.145623e+01
1.820000e-06	-5.254825e-08	-7.240874e-10	-4.118297e-01	-4.921522e+01
1.830000e-06	-3.112689e-08	-6.885200e-10	-2.439468e-01	-4.694731e+01
1.840000e-06	-9.641766e-09	-6.545145e-10	-7.556419e-02	-4.465315e+01
1.850000e-06	1.178709e-08	-6.221051e-10	9.237748e-02	-4.233345e+01
1.860000e-06	3.316937e-08	-5.899031e-10	2.599541e-01	-3.998900e+01
1.870000e-06	5.464846e-08	-5.567475e-10	4.282894e-01	-3.762067e+01
1.880000e-06	7.621642e-08	-5.242360e-10	5.973212e-01	-3.522936e+01
1.890000e-06	9.772342e-08	-4.926640e-10	7.658753e-01	-3.281608e+01
1.900000e-06	1.191225e-07	-4.588551e-10	9.335837e-01	-3.038187e+01
1.910000e-06	1.404367e-07	-4.216144e-10	1.100627e+00	-2.792782e+01
1.920000e-06	1.618219e-07	-3.838934e-10	1.268226e+00	-2.545511e+01
1.930000e-06	1.832724e-07	-3.477260e-10	1.436337e+00	-2.296493e+01
1.940000e-06	2.046769e-07	-3.109144e-10	1.604088e+00	-2.045853e+01
1.950000e-06	2.260586e-07	-2.727640e-10	1.771660e+00	-1.793720e+01
1.960000e-06	2.474617e-07	-2.352618e-10	1.939400e+00	-1.540227e+01
1.970000e-06	2.688226e-07	-1.981876e-10	2.106809e+00	-1.285510e+01
1.980000e-06	2.900620e-07	-1.610330e-10	2.273266e+00	-1.029707e+01
1.990000e-06	3.113208e-07	-1.226157e-10	2.439875e+00	-7.729576e+00
2.000000e-06	3.325073e-07	-8.436159e-11	2.605917e+00	-5.154051e+00
2.010000e-06	3.536123e-07	-4.688286e-11	2.771320e+00	-2.571927e+00
2.020000e-06	3.747419e-07	-9.766491e-12	2.936917e+00	1.535149e-02
2.030000e-06	3.958753e-07	2.890268e-11	3.102543e+00	2.606337e+00
2.040000e-06	4.170433e-07	6.815184e-11	3.268440e+00	5.199581e+00
2.050000e-06	4.381340e-07	1.065285e-10	3.433732e+00	7.793641e+00
2.060000e-06	4.591527e-07	1.425457e-10	3.598459e+00	1.038708e+01
2.070000e-06	4.801425e-07	1.788392e-10	3.762959e+00	1.297848e+01
2.080000e-06	5.011257e-07	2.154236e-10	3.927408e+00	1.556643e+01
2.090000e-06	5.220518e-07	2.492547e-10	4.091410e+00	1.814954e+01
2.100000e-06	5.428221e-07	2.838348e-10	4.254190e+00	2.072645e+01
2.110000e-06	5.635628e-07	3.195572e-10	4.416739e+00	2.329581e+01
2.120000e-06	5.843020e-07	3.558716e-10	4.579276e+00	2.585632e+01
2.130000e-06	6.050472e-07	3.943438e-10	4.741859e+00	2.840670e+01
2.140000e-06	6.257827e-07	4.315825e-10	4.904367e+00	3.094569e+01
2.150000e-06	6.463646e-07	4.661116e-10	5.065671e+00	3.347209e+01
2.160000e-06	6.668299e-07	5.014630e-10	5.226061e+00	3.598473e+01
2.170000e-06	6.872943e-07	5.409495e-10	5.386444e+00	3.848247e+01
2.180000e-06	7.076851e-07	5.806495e-10	5.546250e+00	4.096422e+01
2.190000e-06	7.280261e-07	6.155851e-10	5.705666e+00	4.342893e+01
2.200000e-06	7.483448e-07	6.507743e-10	5.864907e+00	4.587561e+01
2.210000e-06	7.685557e-07	6.897458e-10	6.023304e+00	4.830328e+01
2.220000e-06	7.887104e-07	7.286488e-10	6.181260e+00	5.071104e+01
2.230000e-06	8.088650e-07	7.643251e-10	6.339215e+00	5.309803e+01
2.240000e-06	8.289344e-07	7.994480e-10	6.496501e+00	5.546343e+01
2.250000e-06	8.489397e-07	8.350005e-10	6.653287e+00	5.780647e+01
2.260000e-06	8.689616e-07	8.686771e-10	6.810202e+00	6.012644e+01
2.270000e-06	8.889570e-07	9.013680e-10	6.966909e+00	6.242266e+01
2.280000e-06	9.088914e-07	9.344554e-10	7.123138e+00	6.469452e+01
2.290000e-06	9.287826e-07	9.686526e-10	7.279029e+00	6.694146e+01
2.300000e-06	9.486747e-07	1.003165e-09	7.434927e+00	6.916295e+01
2.310000e-06	9.685604e-07	1.034512e-09	7.590775e+00	7.135853e+01
2.320000e-06	9.884217e-07	1.065427e-09	7.746431e+00	7.352778e+01
2.330000e-06	1.008270e-06	1.097457e-09	7.901983e+00	7.567033e+01
2.340000e-06	1.028058e-06	1.129977e-09	8.057068e+00	7.778587e+01
2.350000e-06	1.047799e-06	1.162668e-09	8.211779e+00	7.987412e+01
2.360000e-06	1.067548e-06	1.195585e-09	8.366557e+00	8.193487e+01
2.370000e-06	1.087276e-06	1.226141e-09	8.521171e+00	8.396794e+01
2.380000e-06	1.106934e-06	1.254629e-09	8.675229e+00	8.597321e+01
2.390000e-06	1.126560e-06	1.284548e-09	8.829042e+00	8.795059e+01
2.400000e-06	1.146164e-06	1.315543e-09	8.982687e+00	8.990005e+01
2.410000e-06	1.165682e-06	1.345545e-09	9.135648e+00	9.182159e+01
2.420000e-06	1.185108e-06	1.374210e-09	9.287896e+00	9.371528e+01
2.430000e-06	1.204479e-06	1.402114e-09	9.439713e+00	9.558120e+01
2.440000e-06	1.223798e-06	1.428177e-09	9.591114e+00	9.741948e+01
2.450000e-06	1.242986e-06	1.454879e-09	9.741497e+00	9.923030e+01
2.460000e-06	1.262080e-06	1.481622e-09	9.891135e+00	1.010139e+02
2.470000e-06	1.281165e-06	1.507184e-09	1.004071e+01	1.027704e+02
2.480000e-06	1.300152e-06	1.532627e-09	1.018952e+01	1.045002e+02
2.490000e-06	1.318952e-06	1.558507e-09	1.033686e+01	1.062036e+02
2.500000e-06	1.337647e-06	1.585847e-09	1.048337e+01	1.078809e+02
2.510000e-06	1.356325e-06	1.613441e-09	1.062975e+01	1.095324e+02
2.520000e-06	1.374869e-06	1.637351e-09	1.077508e+01	1.111586e+02
2.530000e-06	1.393244e-06	1.658584e-09	1.091909e+01	1.127598e+02
2.540000e-06	1.411504e-06	1.681089e-09	1.106220e+01	1.143365e+02
2.550000e-06	1.429614e-06	1.706117e-09	1.120413e+01	1.158891e+02
2.560000e-06	1.447616e-06	1.729045e-09	1.134522e+01	1.174180e+02
2.570000e-06	1.465528e-06	1.749808e-09	1.148560e+01	1.189238e+02
2.580000e-06	1.483369e-06	1.773820e-09	1.162542e+01	1.204069e+02
2.590000e-06	1.501122e-06	1.800478e-09	1.176455e+01	1.218678e+02
2.600000e-06	1.518808e-06	1.824099e-09	1.190316e+01	1.233069e+02
2.610000e-06	1.536410e-06	1.844531e-09	1.204111e+01	1.247247e+02
2.620000e-06	1.553936e-06	1.864829e-09	1.217846e+01	1.261217e+02
2.630000e-06	1.571375e-06	1.886570e-09	1.231513e+01	1.274983e+02
2.640000e-06	1.588680e-06	1.908146e-09	1.245076e+01	1.288551e+02
2.650000e-06	1.605988e-06	1.927439e-09	1.258641e+01	1.301924e+02
2.660000e-06	1.623269e-06	1.946689e-09	1.272184e+01	1.315107e+02
2.670000e-06	1.640376e-06	1.966946e-09	1.285591e+01	1.328103e+02
2.680000e-06	1.657431e-06	1.988080e-09	1.298958e+01	1.340917e+02
2.690000e-06	1.674395e-06	2.008172e-09	1.312252e+01	1.353552e+02
2.700000e-06	1.691228e-06	2.025920e-09	1.325444e+01	1.366012e+02
2.710000e-06	1.708011e-06	2.043470e-09	1.338598e+01	1.378300e+02
2.720000e-06	1.724717e-06	2.063111e-09	1.351691e+01	1.390418e+02
2.730000e-06	1.741265e-06	2.080934e-09	1.364660e+01	1.402370e+02
2.740000e-06	1.757686e-06	2.097781e-09	1.377529e+01	1.414158e+02
2.750000e-06	1.773867e-06	2.117427e-09	1.390210e+01	1.425784e+02
2.760000e-06	1.789747e-06	2.137971e-09	1.402655e+01	1.437249e+02
2.770000e-06	1.805623e-06	2.155951e-09	1.415098e+01	1.448556e+02
2.780000e-06	1.821396e-06	2.173483e-09	1.427459e+01	1.459705e+02
2.790000e-06	1.836837e-06	2.193049e-09	1.439561e+01	1.470698e+02
2.800000e-06	1.852016e-06	2.212576e-09	1.451457e+01	1.481535e+02
2.810000e-06	1.867082e-06	2.229675e-09	1.463264e+01	1.492216e+02
2.820000e-06	1.882033e-06	2.245845e-09	1.474982e+01	1.502742e+02
2.830000e-06	1.896742e-06	2.263291e-09	1.486510e+01	1.513113e+02
2.840000e-06	1.911199e-06	2.281198e-09	1.497840e+01	1.523329e+02
2.850000e-06	1.925480e-06	2.296985e-09	1.509032e+01	1.533389e+02
2.860000e-06	1.939565e-06	2.310002e-09	1.520071e+01	1.543292e+02
2.870000e-06	1.953629e-06	2.324927e-09	1.531093e+01	1.553039e+02
2.880000e-06	1.967591e-06	2.342499e-09	1.542035e+01	1.562628e+02
2.890000e-06	1.981377e-06	2.356867e-09	1.552839e+01	1.572059e+02
2.900000e-06	1.995116e-06	2.368701e-09	1.563607e+01	1.581331e+02
