# Temperatura_=_20.0
# Concentracion g/m^3_=_9000.0
# C_Vs_to_Am_M_A/Vsm_=_65563218390.804596
# pendiente_HvsI_1/m_=_3716.3
# ordenada_HvsI_A/m_=_1297.0
# frecuencia_Hz_=_134954.62343566222

Tiempo_(s)	Campo_(V.s)	Magnetizacion_(V.s)	Campo_(kA/m)	Magnetizacion_(A/m)
0.000000e+00	-2.536022e-06	-2.946188e-09	-1.987590e+01	-1.914728e+02
1.000000e-08	-2.536338e-06	-2.941513e-09	-1.987838e+01	-1.914658e+02
2.000000e-08	-2.536572e-06	-2.928444e-09	-1.988021e+01	-1.914458e+02
3.000000e-08	-2.536712e-06	-2.910288e-09	-1.988131e+01	-1.914130e+02
4.000000e-08	-2.536728e-06	-2.878917e-09	-1.988144e+01	-1.913677e+02
5.000000e-08	-2.536583e-06	-2.916009e-09	-1.988030e+01	-1.913101e+02
6.000000e-08	-2.536236e-06	-2.986531e-09	-1.987758e+01	-1.912407e+02
7.000000e-08	-2.535736e-06	-3.167773e-09	-1.987366e+01	-1.911598e+02
8.000000e-08	-2.535139e-06	-3.167787e-09	-1.986898e+01	-1.910678e+02
9.000000e-08	-2.534494e-06	-3.069757e-09	-1.986392e+01	-1.909652e+02
1.000000e-07	-2.533482e-06	-2.932701e-09	-1.985600e+01	-1.908524e+02
1.100000e-07	-2.532070e-06	-2.804063e-09	-1.984493e+01	-1.907300e+02
1.200000e-07	-2.530514e-06	-2.854647e-09	-1.983273e+01	-1.905984e+02
1.300000e-07	-2.528777e-06	-2.918692e-09	-1.981912e+01	-1.904583e+02
1.400000e-07	-2.526665e-06	-2.913894e-09	-1.980257e+01	-1.903102e+02
1.500000e-07	-2.524027e-06	-2.891923e-09	-1.978189e+01	-1.901547e+02
1.600000e-07	-2.521023e-06	-2.973867e-09	-1.975835e+01	-1.899923e+02
1.700000e-07	-2.517793e-06	-2.933595e-09	-1.973304e+01	-1.898237e+02
1.800000e-07	-2.514377e-06	-2.881844e-09	-1.970626e+01	-1.896494e+02
1.900000e-07	-2.510769e-06	-2.809207e-09	-1.967798e+01	-1.894700e+02
2.000000e-07	-2.507070e-06	-2.914631e-09	-1.964899e+01	-1.892861e+02
2.100000e-07	-2.503324e-06	-2.991096e-09	-1.961963e+01	-1.890982e+02
2.200000e-07	-2.499512e-06	-2.927630e-09	-1.958976e+01	-1.889069e+02
2.300000e-07	-2.495606e-06	-2.783602e-09	-1.955915e+01	-1.887127e+02
2.400000e-07	-2.491640e-06	-2.776136e-09	-1.952806e+01	-1.885161e+02
2.500000e-07	-2.487586e-06	-2.900258e-09	-1.949629e+01	-1.883175e+02
2.600000e-07	-2.483350e-06	-2.931133e-09	-1.946309e+01	-1.881173e+02
2.700000e-07	-2.478988e-06	-2.851775e-09	-1.942891e+01	-1.879160e+02
2.800000e-07	-2.474468e-06	-2.760629e-09	-1.939348e+01	-1.877138e+02
2.900000e-07	-2.469746e-06	-2.827375e-09	-1.935647e+01	-1.875111e+02
3.000000e-07	-2.464883e-06	-2.951063e-09	-1.931836e+01	-1.873082e+02
3.100000e-07	-2.459848e-06	-2.930741e-09	-1.927890e+01	-1.871052e+02
3.200000e-07	-2.454556e-06	-2.785226e-09	-1.923742e+01	-1.869022e+02
3.300000e-07	-2.449062e-06	-2.757323e-09	-1.919436e+01	-1.866995e+02
3.400000e-07	-2.443381e-06	-2.871440e-09	-1.914984e+01	-1.864970e+02
3.500000e-07	-2.437549e-06	-2.923681e-09	-1.910413e+01	-1.862948e+02
3.600000e-07	-2.431570e-06	-2.804468e-09	-1.905727e+01	-1.860928e+02
3.700000e-07	-2.425414e-06	-2.725854e-09	-1.900902e+01	-1.858909e+02
3.800000e-07	-2.419182e-06	-2.804062e-09	-1.896018e+01	-1.856890e+02
3.900000e-07	-2.412798e-06	-2.913116e-09	-1.891015e+01	-1.854869e+02
4.000000e-07	-2.406089e-06	-2.858935e-09	-1.885757e+01	-1.852843e+02
4.100000e-07	-2.399225e-06	-2.765479e-09	-1.880377e+01	-1.850810e+02
4.200000e-07	-2.392173e-06	-2.768143e-09	-1.874849e+01	-1.848767e+02
4.300000e-07	-2.384934e-06	-2.856407e-09	-1.869176e+01	-1.846709e+02
4.400000e-07	-2.377634e-06	-2.853182e-09	-1.863455e+01	-1.844634e+02
4.500000e-07	-2.370070e-06	-2.772582e-09	-1.857527e+01	-1.842537e+02
4.600000e-07	-2.362331e-06	-2.716944e-09	-1.851461e+01	-1.840413e+02
4.700000e-07	-2.354564e-06	-2.769075e-09	-1.845374e+01	-1.838258e+02
4.800000e-07	-2.346740e-06	-2.813305e-09	-1.839242e+01	-1.836067e+02
4.900000e-07	-2.338830e-06	-2.783722e-09	-1.833042e+01	-1.833835e+02
5.000000e-07	-2.330863e-06	-2.726249e-09	-1.826798e+01	-1.831558e+02
5.100000e-07	-2.322850e-06	-2.752596e-09	-1.820519e+01	-1.829229e+02
5.200000e-07	-2.314662e-06	-2.808619e-09	-1.814101e+01	-1.826845e+02
5.300000e-07	-2.306306e-06	-2.804264e-09	-1.807552e+01	-1.824400e+02
5.400000e-07	-2.297815e-06	-2.742348e-09	-1.800897e+01	-1.821888e+02
5.500000e-07	-2.289062e-06	-2.723715e-09	-1.794037e+01	-1.819306e+02
5.600000e-07	-2.280051e-06	-2.762069e-09	-1.786975e+01	-1.816649e+02
5.700000e-07	-2.270748e-06	-2.773627e-09	-1.779684e+01	-1.813912e+02
5.800000e-07	-2.261037e-06	-2.731006e-09	-1.772072e+01	-1.811091e+02
5.900000e-07	-2.251086e-06	-2.698400e-09	-1.764274e+01	-1.808183e+02
6.000000e-07	-2.240984e-06	-2.730129e-09	-1.756356e+01	-1.805183e+02
6.100000e-07	-2.230583e-06	-2.756806e-09	-1.748205e+01	-1.802089e+02
6.200000e-07	-2.219771e-06	-2.735598e-09	-1.739730e+01	-1.798897e+02
6.300000e-07	-2.208771e-06	-2.693375e-09	-1.731109e+01	-1.795606e+02
6.400000e-07	-2.197653e-06	-2.703580e-09	-1.722396e+01	-1.792212e+02
6.500000e-07	-2.186326e-06	-2.726979e-09	-1.713518e+01	-1.788715e+02
6.600000e-07	-2.174849e-06	-2.716646e-09	-1.704524e+01	-1.785113e+02
6.700000e-07	-2.163181e-06	-2.675569e-09	-1.695379e+01	-1.781404e+02
6.800000e-07	-2.151367e-06	-2.675932e-09	-1.686120e+01	-1.777589e+02
6.900000e-07	-2.139459e-06	-2.697429e-09	-1.676787e+01	-1.773667e+02
7.000000e-07	-2.127452e-06	-2.700726e-09	-1.667377e+01	-1.769638e+02
7.100000e-07	-2.115313e-06	-2.670157e-09	-1.657862e+01	-1.765503e+02
7.200000e-07	-2.103066e-06	-2.657695e-09	-1.648264e+01	-1.761263e+02
7.300000e-07	-2.090676e-06	-2.663868e-09	-1.638554e+01	-1.756918e+02
7.400000e-07	-2.078110e-06	-2.670278e-09	-1.628705e+01	-1.752471e+02
7.500000e-07	-2.065388e-06	-2.648864e-09	-1.618734e+01	-1.747922e+02
7.600000e-07	-2.052458e-06	-2.623852e-09	-1.608601e+01	-1.743273e+02
7.700000e-07	-2.039347e-06	-2.616682e-09	-1.598324e+01	-1.738528e+02
7.800000e-07	-2.026053e-06	-2.627555e-09	-1.587906e+01	-1.733686e+02
7.900000e-07	-2.012597e-06	-2.623783e-09	-1.577360e+01	-1.728752e+02
8.000000e-07	-1.999033e-06	-2.596423e-09	-1.566729e+01	-1.723727e+02
8.100000e-07	-1.985278e-06	-2.580356e-09	-1.555949e+01	-1.718613e+02
8.200000e-07	-1.971380e-06	-2.593527e-09	-1.545056e+01	-1.713414e+02
8.300000e-07	-1.957421e-06	-2.599053e-09	-1.534116e+01	-1.708130e+02
8.400000e-07	-1.943291e-06	-2.570943e-09	-1.523041e+01	-1.702764e+02
8.500000e-07	-1.928978e-06	-2.544543e-09	-1.511823e+01	-1.697318e+02
8.600000e-07	-1.914559e-06	-2.547362e-09	-1.500523e+01	-1.691793e+02
8.700000e-07	-1.899846e-06	-2.555104e-09	-1.488991e+01	-1.686192e+02
8.800000e-07	-1.884886e-06	-2.534457e-09	-1.477267e+01	-1.680516e+02
8.900000e-07	-1.869864e-06	-2.510146e-09	-1.465493e+01	-1.674765e+02
9.000000e-07	-1.854443e-06	-2.505329e-09	-1.453407e+01	-1.668941e+02
9.100000e-07	-1.838693e-06	-2.511655e-09	-1.441063e+01	-1.663043e+02
9.200000e-07	-1.822857e-06	-2.500982e-09	-1.428652e+01	-1.657073e+02
9.300000e-07	-1.806907e-06	-2.479876e-09	-1.416151e+01	-1.651029e+02
9.400000e-07	-1.790822e-06	-2.463069e-09	-1.403545e+01	-1.644911e+02
9.500000e-07	-1.774484e-06	-2.463988e-09	-1.390740e+01	-1.638718e+02
9.600000e-07	-1.757969e-06	-2.459777e-09	-1.377796e+01	-1.632449e+02
9.700000e-07	-1.741309e-06	-2.443191e-09	-1.364740e+01	-1.626102e+02
9.800000e-07	-1.724586e-06	-2.419126e-09	-1.351633e+01	-1.619675e+02
9.900000e-07	-1.707677e-06	-2.410742e-09	-1.338381e+01	-1.613166e+02
1.000000e-06	-1.690653e-06	-2.413897e-09	-1.325038e+01	-1.606571e+02
1.010000e-06	-1.673630e-06	-2.407162e-09	-1.311696e+01	-1.599889e+02
1.020000e-06	-1.656412e-06	-2.383949e-09	-1.298202e+01	-1.593114e+02
1.030000e-06	-1.639161e-06	-2.369908e-09	-1.284682e+01	-1.586244e+02
1.040000e-06	-1.621923e-06	-2.366807e-09	-1.271171e+01	-1.579276e+02
1.050000e-06	-1.604569e-06	-2.358161e-09	-1.257570e+01	-1.572204e+02
1.060000e-06	-1.587161e-06	-2.340418e-09	-1.243927e+01	-1.565024e+02
1.070000e-06	-1.569701e-06	-2.323437e-09	-1.230242e+01	-1.557733e+02
1.080000e-06	-1.552149e-06	-2.312936e-09	-1.216487e+01	-1.550325e+02
1.090000e-06	-1.534507e-06	-2.305297e-09	-1.202660e+01	-1.542797e+02
1.100000e-06	-1.516819e-06	-2.292304e-09	-1.188797e+01	-1.535143e+02
1.110000e-06	-1.499079e-06	-2.274337e-09	-1.174893e+01	-1.527358e+02
1.120000e-06	-1.481273e-06	-2.259975e-09	-1.160938e+01	-1.519439e+02
1.130000e-06	-1.463406e-06	-2.249198e-09	-1.146935e+01	-1.511381e+02
1.140000e-06	-1.445354e-06	-2.235143e-09	-1.132786e+01	-1.503179e+02
1.150000e-06	-1.427112e-06	-2.221322e-09	-1.118490e+01	-1.494829e+02
1.160000e-06	-1.408804e-06	-2.209829e-09	-1.104141e+01	-1.486327e+02
1.170000e-06	-1.390398e-06	-2.197615e-09	-1.089715e+01	-1.477669e+02
1.180000e-06	-1.371825e-06	-2.189356e-09	-1.075158e+01	-1.468852e+02
1.190000e-06	-1.353122e-06	-2.178326e-09	-1.060500e+01	-1.459872e+02
1.200000e-06	-1.334273e-06	-2.166611e-09	-1.045728e+01	-1.450726e+02
1.210000e-06	-1.315295e-06	-2.151877e-09	-1.030854e+01	-1.441412e+02
1.220000e-06	-1.296221e-06	-2.138449e-09	-1.015904e+01	-1.431927e+02
1.230000e-06	-1.277104e-06	-2.123024e-09	-1.000922e+01	-1.422268e+02
1.240000e-06	-1.257898e-06	-2.108240e-09	-9.858689e+00	-1.412435e+02
1.250000e-06	-1.238595e-06	-2.094250e-09	-9.707409e+00	-1.402425e+02
1.260000e-06	-1.219168e-06	-2.080093e-09	-9.555147e+00	-1.392237e+02
1.270000e-06	-1.199610e-06	-2.063660e-09	-9.401867e+00	-1.381871e+02
1.280000e-06	-1.180012e-06	-2.046958e-09	-9.248265e+00	-1.371327e+02
1.290000e-06	-1.160369e-06	-2.031999e-09	-9.094313e+00	-1.360602e+02
1.300000e-06	-1.140676e-06	-2.016537e-09	-8.939971e+00	-1.349699e+02
1.310000e-06	-1.120925e-06	-1.998188e-09	-8.785177e+00	-1.338617e+02
1.320000e-06	-1.101185e-06	-1.982333e-09	-8.630462e+00	-1.327356e+02
1.330000e-06	-1.081414e-06	-1.964281e-09	-8.475506e+00	-1.315918e+02
1.340000e-06	-1.061596e-06	-1.945303e-09	-8.320191e+00	-1.304303e+02
1.350000e-06	-1.041798e-06	-1.929794e-09	-8.165021e+00	-1.292512e+02
1.360000e-06	-1.022021e-06	-1.912724e-09	-8.010022e+00	-1.280546e+02
1.370000e-06	-1.002228e-06	-1.891787e-09	-7.854896e+00	-1.268406e+02
1.380000e-06	-9.823917e-07	-1.873635e-09	-7.699430e+00	-1.256095e+02
1.390000e-06	-9.625616e-07	-1.858505e-09	-7.544013e+00	-1.243611e+02
1.400000e-06	-9.426813e-07	-1.840571e-09	-7.388202e+00	-1.230958e+02
1.410000e-06	-9.227189e-07	-1.822055e-09	-7.231748e+00	-1.218136e+02
1.420000e-06	-9.027286e-07	-1.801693e-09	-7.075076e+00	-1.205145e+02
1.430000e-06	-8.827264e-07	-1.777326e-09	-6.918310e+00	-1.191986e+02
1.440000e-06	-8.626990e-07	-1.752077e-09	-6.761346e+00	-1.178660e+02
1.450000e-06	-8.426282e-07	-1.730111e-09	-6.604043e+00	-1.165166e+02
1.460000e-06	-8.224634e-07	-1.709078e-09	-6.446002e+00	-1.151506e+02
1.470000e-06	-8.022211e-07	-1.689349e-09	-6.287355e+00	-1.137678e+02
1.480000e-06	-7.819576e-07	-1.669176e-09	-6.128540e+00	-1.123682e+02
1.490000e-06	-7.616645e-07	-1.650933e-09	-5.969495e+00	-1.109516e+02
1.500000e-06	-7.413280e-07	-1.626876e-09	-5.810109e+00	-1.095180e+02
1.510000e-06	-7.209382e-07	-1.604649e-09	-5.650305e+00	-1.080671e+02
1.520000e-06	-7.004882e-07	-1.584700e-09	-5.490030e+00	-1.065987e+02
1.530000e-06	-6.799866e-07	-1.564825e-09	-5.329350e+00	-1.051126e+02
1.540000e-06	-6.595130e-07	-1.540846e-09	-5.168889e+00	-1.036085e+02
1.550000e-06	-6.389936e-07	-1.514765e-09	-5.008070e+00	-1.020861e+02
1.560000e-06	-6.183528e-07	-1.493500e-09	-4.846299e+00	-1.005448e+02
1.570000e-06	-5.976192e-07	-1.471121e-09	-4.683801e+00	-9.898451e+01
1.580000e-06	-5.768090e-07	-1.447518e-09	-4.520702e+00	-9.740460e+01
1.590000e-06	-5.560136e-07	-1.421159e-09	-4.357720e+00	-9.580464e+01
1.600000e-06	-5.351175e-07	-1.395505e-09	-4.193948e+00	-9.418415e+01
1.610000e-06	-5.140774e-07	-1.371822e-09	-4.029047e+00	-9.254260e+01
1.620000e-06	-4.930115e-07	-1.347953e-09	-3.863945e+00	-9.087946e+01
1.630000e-06	-4.719596e-07	-1.319523e-09	-3.698952e+00	-8.919416e+01
1.640000e-06	-4.508762e-07	-1.291982e-09	-3.533712e+00	-8.748615e+01
1.650000e-06	-4.297564e-07	-1.267086e-09	-3.368187e+00	-8.575485e+01
1.660000e-06	-4.085686e-07	-1.241516e-09	-3.202129e+00	-8.399970e+01
1.670000e-06	-3.872774e-07	-1.214706e-09	-3.035261e+00	-8.222012e+01
1.680000e-06	-3.659443e-07	-1.186024e-09	-2.868064e+00	-8.041557e+01
1.690000e-06	-3.446357e-07	-1.158421e-09	-2.701060e+00	-7.858549e+01
1.700000e-06	-3.233307e-07	-1.131857e-09	-2.534083e+00	-7.672939e+01
1.710000e-06	-3.020233e-07	-1.103018e-09	-2.367088e+00	-7.484676e+01
1.720000e-06	-2.807475e-07	-1.074155e-09	-2.200340e+00	-7.293716e+01
1.730000e-06	-2.594032e-07	-1.044582e-09	-2.033055e+00	-7.100017e+01
1.740000e-06	-2.380399e-07	-1.014478e-09	-1.865622e+00	-6.903543e+01
1.750000e-06	-2.167162e-07	-9.845948e-10	-1.698499e+00	-6.704262e+01
1.760000e-06	-1.953903e-07	-9.535284e-10	-1.531359e+00	-6.502148e+01
1.770000e-06	-1.740434e-07	-9.218840e-10	-1.364054e+00	-6.297181e+01
1.780000e-06	-1.526585e-07	-8.917990e-10	-1.196451e+00	-6.089348e+01
1.790000e-06	-1.312788e-07	-8.611943e-10	-1.028889e+00	-5.878644e+01
1.800000e-06	-1.098897e-07	-8.301856e-10	-8.612532e-01	-5.665068e+01
1.810000e-06	-8.852851e-08	-7.995625e-10	-6.938363e-01	-5.448632e+01
1.820000e-06	-6.720849e-08	-7.689685e-10	-5.267421e-01	-5.229351e+01
1.830000e-06	-4.581145e-08	-7.367890e-10	-3.590442e-01	-5.007251e+01
1.840000e-06	-2.436990e-08	-7.043507e-10	-1.909975e-01	-4.782366e+01
1.850000e-06	-2.936598e-09	-6.720772e-10	-2.301539e-02	-4.554740e+01
1.860000e-06	1.852925e-08	-6.373629e-10	1.452218e-01	-4.324424e+01
1.870000e-06	3.999504e-08	-6.042908e-10	3.134585e-01	-4.091477e+01
1.880000e-06	6.147773e-08	-5.726585e-10	4.818276e-01	-3.855970e+01
1.890000e-06	8.296350e-08	-5.406270e-10	6.502209e-01	-3.617979e+01
1.900000e-06	1.044223e-07	-5.063578e-10	8.184026e-01	-3.377591e+01
1.910000e-06	1.258375e-07	-4.705267e-10	9.862432e-01	-3.134901e+01
1.920000e-06	1.471760e-07	-4.332269e-10	1.153482e+00	-2.890012e+01
1.930000e-06	1.685087e-07	-3.948350e-10	1.320676e+00	-2.643033e+01
1.940000e-06	1.898813e-07	-3.583419e-10	1.488182e+00	-2.394083e+01
1.950000e-06	2.112726e-07	-3.213779e-10	1.655835e+00	-2.143287e+01
1.960000e-06	2.326353e-07	-2.850756e-10	1.823264e+00	-1.890775e+01
1.970000e-06	2.540367e-07	-2.506677e-10	1.990996e+00	-1.636687e+01
1.980000e-06	2.754451e-07	-2.141677e-10	2.158783e+00	-1.381164e+01
1.990000e-06	2.967733e-07	-1.756793e-10	2.325941e+00	-1.124355e+01
2.000000e-06	3.180896e-07	-1.360881e-10	2.493006e+00	-8.664122e+00
2.010000e-06	3.394574e-07	-9.850109e-11	2.660475e+00	-6.074926e+00
2.020000e-06	3.607251e-07	-6.102581e-11	2.827159e+00	-3.477553e+00
2.030000e-06	3.818887e-07	-2.223894e-11	2.993027e+00	-8.736240e-01
2.040000e-06	4.029865e-07	1.608456e-11	3.158380e+00	1.735220e+00
2.050000e-06	4.239600e-07	5.342976e-11	3.322758e+00	4.347327e+00
2.060000e-06	4.449679e-07	9.135382e-11	3.487406e+00	6.961040e+00
2.070000e-06	4.660383e-07	1.276409e-10	3.652544e+00	9.574701e+00
2.080000e-06	4.870340e-07	1.629741e-10	3.817097e+00	1.218666e+01
2.090000e-06	5.079980e-07	1.986593e-10	3.981401e+00	1.479528e+01
2.100000e-06	5.289668e-07	2.349376e-10	4.145742e+00	1.739895e+01
2.110000e-06	5.497752e-07	2.738757e-10	4.308826e+00	1.999607e+01
2.120000e-06	5.705122e-07	3.117135e-10	4.471351e+00	2.258509e+01
2.130000e-06	5.912319e-07	3.468418e-10	4.633741e+00	2.516448e+01
2.140000e-06	6.119191e-07	3.852294e-10	4.795875e+00	2.773277e+01
2.150000e-06	6.325873e-07	4.255302e-10	4.957861e+00	3.028851e+01
2.160000e-06	6.532009e-07	4.625068e-10	5.119419e+00	3.283034e+01
2.170000e-06	6.737490e-07	4.997265e-10	5.280463e+00	3.535691e+01
2.180000e-06	6.941564e-07	5.394568e-10	5.440405e+00	3.786695e+01
2.190000e-06	7.144838e-07	5.802189e-10	5.599719e+00	4.035928e+01
2.200000e-06	7.347734e-07	6.185376e-10	5.758738e+00	4.283273e+01
2.210000e-06	7.549894e-07	6.538924e-10	5.917179e+00	4.528624e+01
2.220000e-06	7.752235e-07	6.898592e-10	6.075763e+00	4.771879e+01
2.230000e-06	7.954377e-07	7.277946e-10	6.234190e+00	5.012946e+01
2.240000e-06	8.156104e-07	7.659026e-10	6.392292e+00	5.251737e+01
2.250000e-06	8.357752e-07	8.014111e-10	6.550333e+00	5.488174e+01
2.260000e-06	8.558665e-07	8.355356e-10	6.707797e+00	5.722184e+01
2.270000e-06	8.759228e-07	8.706785e-10	6.864987e+00	5.953702e+01
2.280000e-06	8.959120e-07	9.061909e-10	7.021650e+00	6.182671e+01
2.290000e-06	9.158564e-07	9.404345e-10	7.177964e+00	6.409039e+01
2.300000e-06	9.358203e-07	9.730111e-10	7.334430e+00	6.632762e+01
2.310000e-06	9.557355e-07	1.006099e-09	7.490513e+00	6.853805e+01
2.320000e-06	9.756002e-07	1.038912e-09	7.646202e+00	7.072134e+01
2.330000e-06	9.954374e-07	1.071379e-09	7.801674e+00	7.287727e+01
2.340000e-06	1.015225e-06	1.102612e-09	7.956760e+00	7.500565e+01
2.350000e-06	1.035028e-06	1.134513e-09	8.111962e+00	7.710635e+01
2.360000e-06	1.054822e-06	1.168069e-09	8.267094e+00	7.917930e+01
2.370000e-06	1.074581e-06	1.199558e-09	8.421954e+00	8.122448e+01
2.380000e-06	1.094311e-06	1.228504e-09	8.576591e+00	8.324193e+01
2.390000e-06	1.114005e-06	1.255809e-09	8.730938e+00	8.523171e+01
2.400000e-06	1.133673e-06	1.284958e-09	8.885085e+00	8.719395e+01
2.410000e-06	1.153253e-06	1.315652e-09	9.038540e+00	8.912879e+01
2.420000e-06	1.172770e-06	1.344414e-09	9.191507e+00	9.103644e+01
2.430000e-06	1.192299e-06	1.374236e-09	9.344562e+00	9.291712e+01
2.440000e-06	1.211711e-06	1.405338e-09	9.496706e+00	9.477106e+01
2.450000e-06	1.231019e-06	1.435997e-09	9.648033e+00	9.659857e+01
2.460000e-06	1.250187e-06	1.464311e-09	9.798259e+00	9.839992e+01
2.470000e-06	1.269314e-06	1.490001e-09	9.948161e+00	1.001754e+02
2.480000e-06	1.288437e-06	1.515652e-09	1.009804e+01	1.019255e+02
2.490000e-06	1.307370e-06	1.540724e-09	1.024642e+01	1.036503e+02
2.500000e-06	1.326237e-06	1.564967e-09	1.039429e+01	1.053504e+02
2.510000e-06	1.344991e-06	1.589621e-09	1.054128e+01	1.070261e+02
2.520000e-06	1.363543e-06	1.615308e-09	1.068668e+01	1.086776e+02
2.530000e-06	1.381976e-06	1.639909e-09	1.083115e+01	1.103055e+02
2.540000e-06	1.400283e-06	1.665632e-09	1.097463e+01	1.119101e+02
2.550000e-06	1.418362e-06	1.691074e-09	1.111631e+01	1.134917e+02
2.560000e-06	1.436283e-06	1.715696e-09	1.125677e+01	1.150507e+02
2.570000e-06	1.454138e-06	1.737473e-09	1.139671e+01	1.165874e+02
2.580000e-06	1.471894e-06	1.758197e-09	1.153587e+01	1.181023e+02
2.590000e-06	1.489605e-06	1.782794e-09	1.167468e+01	1.195956e+02
2.600000e-06	1.507261e-06	1.807016e-09	1.181306e+01	1.210677e+02
2.610000e-06	1.524833e-06	1.828467e-09	1.195078e+01	1.225190e+02
2.620000e-06	1.542357e-06	1.848642e-09	1.208812e+01	1.239496e+02
2.630000e-06	1.559824e-06	1.870438e-09	1.222502e+01	1.253600e+02
2.640000e-06	1.577199e-06	1.893276e-09	1.236119e+01	1.267503e+02
2.650000e-06	1.594513e-06	1.915450e-09	1.249689e+01	1.281210e+02
2.660000e-06	1.611684e-06	1.936148e-09	1.263146e+01	1.294722e+02
2.670000e-06	1.628750e-06	1.956523e-09	1.276522e+01	1.308041e+02
2.680000e-06	1.645884e-06	1.976148e-09	1.289951e+01	1.321171e+02
2.690000e-06	1.663063e-06	1.995181e-09	1.303415e+01	1.334113e+02
2.700000e-06	1.680026e-06	2.015534e-09	1.316710e+01	1.346869e+02
2.710000e-06	1.696776e-06	2.033947e-09	1.329837e+01	1.359441e+02
2.720000e-06	1.713533e-06	2.050263e-09	1.342970e+01	1.371831e+02
2.730000e-06	1.730143e-06	2.069726e-09	1.355988e+01	1.384041e+02
2.740000e-06	1.746606e-06	2.088544e-09	1.368891e+01	1.396072e+02
2.750000e-06	1.762964e-06	2.105755e-09	1.381712e+01	1.407925e+02
2.760000e-06	1.779064e-06	2.124634e-09	1.394329e+01	1.419602e+02
2.770000e-06	1.795039e-06	2.144893e-09	1.406850e+01	1.431104e+02
2.780000e-06	1.810761e-06	2.163187e-09	1.419172e+01	1.442432e+02
2.790000e-06	1.826173e-06	2.180327e-09	1.431251e+01	1.453587e+02
2.800000e-06	1.841468e-06	2.197631e-09	1.443238e+01	1.464570e+02
2.810000e-06	1.856617e-06	2.214175e-09	1.455111e+01	1.475382e+02
2.820000e-06	1.871682e-06	2.230694e-09	1.466919e+01	1.486024e+02
2.830000e-06	1.886487e-06	2.245953e-09	1.478522e+01	1.496496e+02
2.840000e-06	1.900966e-06	2.261666e-09	1.489869e+01	1.506799e+02
2.850000e-06	1.915307e-06	2.279830e-09	1.501109e+01	1.516934e+02
2.860000e-06	1.929597e-06	2.294685e-09	1.512309e+01	1.526901e+02
2.870000e-06	1.943773e-06	2.307049e-09	1.523419e+01	1.536701e+02
2.880000e-06	1.957759e-06	2.323238e-09	1.534381e+01	1.546335e+02
2.890000e-06	1.971667e-06	2.339901e-09	1.545281e+01	1.555804e+02
2.900000e-06	1.985412e-06	2.353554e-09	1.556054e+01	1.565107e+02
