# Temperatura_=_20.0
# Concentracion g/m^3_=_9000.0
# C_Vs_to_Am_M_A/Vsm_=_65563218390.804596
# pendiente_HvsI_1/m_=_3716.3
# ordenada_HvsI_A/m_=_1297.0
# frecuencia_Hz_=_134955.34054045193

Tiempo_(s)	Campo_(V.s)	Magnetizacion_(V.s)	Campo_(kA/m)	Magnetizacion_(A/m)
0.000000e+00	-2.530768e-06	-2.938171e-09	-1.987836e+01	-1.918744e+02
1.000000e-08	-2.530998e-06	-2.958288e-09	-1.988017e+01	-1.918191e+02
2.000000e-08	-2.531109e-06	-3.009787e-09	-1.988104e+01	-1.917488e+02
3.000000e-08	-2.531129e-06	-3.037040e-09	-1.988120e+01	-1.916638e+02
4.000000e-08	-2.531066e-06	-2.967287e-09	-1.988070e+01	-1.915646e+02
5.000000e-08	-2.530858e-06	-2.754321e-09	-1.987907e+01	-1.914519e+02
6.000000e-08	-2.530501e-06	-2.796888e-09	-1.987627e+01	-1.913262e+02
7.000000e-08	-2.529934e-06	-2.942572e-09	-1.987181e+01	-1.911881e+02
8.000000e-08	-2.529251e-06	-3.136586e-09	-1.986645e+01	-1.910383e+02
9.000000e-08	-2.528367e-06	-3.162005e-09	-1.985950e+01	-1.908775e+02
1.000000e-07	-2.527251e-06	-2.953174e-09	-1.985073e+01	-1.907064e+02
1.100000e-07	-2.525854e-06	-2.828969e-09	-1.983977e+01	-1.905259e+02
1.200000e-07	-2.524052e-06	-2.882440e-09	-1.982561e+01	-1.903365e+02
1.300000e-07	-2.521975e-06	-2.976597e-09	-1.980929e+01	-1.901392e+02
1.400000e-07	-2.519559e-06	-2.873087e-09	-1.979032e+01	-1.899346e+02
1.500000e-07	-2.516779e-06	-2.859854e-09	-1.976849e+01	-1.897236e+02
1.600000e-07	-2.513689e-06	-2.895216e-09	-1.974421e+01	-1.895068e+02
1.700000e-07	-2.510388e-06	-3.002930e-09	-1.971828e+01	-1.892851e+02
1.800000e-07	-2.506871e-06	-2.857170e-09	-1.969066e+01	-1.890591e+02
1.900000e-07	-2.503222e-06	-2.741088e-09	-1.966199e+01	-1.888295e+02
2.000000e-07	-2.499512e-06	-2.782555e-09	-1.963285e+01	-1.885970e+02
2.100000e-07	-2.495682e-06	-2.981112e-09	-1.960277e+01	-1.883622e+02
2.200000e-07	-2.491773e-06	-2.979266e-09	-1.957207e+01	-1.881257e+02
2.300000e-07	-2.487840e-06	-2.769522e-09	-1.954117e+01	-1.878880e+02
2.400000e-07	-2.483829e-06	-2.695282e-09	-1.950967e+01	-1.876497e+02
2.500000e-07	-2.479702e-06	-2.868097e-09	-1.947726e+01	-1.874110e+02
2.600000e-07	-2.475493e-06	-3.039741e-09	-1.944420e+01	-1.871725e+02
2.700000e-07	-2.471089e-06	-2.901897e-09	-1.940960e+01	-1.869345e+02
2.800000e-07	-2.466437e-06	-2.688000e-09	-1.937306e+01	-1.866972e+02
2.900000e-07	-2.461616e-06	-2.709998e-09	-1.933520e+01	-1.864608e+02
3.000000e-07	-2.456618e-06	-2.969840e-09	-1.929594e+01	-1.862256e+02
3.100000e-07	-2.451369e-06	-2.976250e-09	-1.925471e+01	-1.859915e+02
3.200000e-07	-2.445897e-06	-2.760765e-09	-1.921173e+01	-1.857587e+02
3.300000e-07	-2.440259e-06	-2.655869e-09	-1.916744e+01	-1.855271e+02
3.400000e-07	-2.434446e-06	-2.859015e-09	-1.912179e+01	-1.852966e+02
3.500000e-07	-2.428507e-06	-2.962509e-09	-1.907513e+01	-1.850672e+02
3.600000e-07	-2.422443e-06	-2.824512e-09	-1.902751e+01	-1.848387e+02
3.700000e-07	-2.416144e-06	-2.661436e-09	-1.897803e+01	-1.846108e+02
3.800000e-07	-2.409663e-06	-2.753324e-09	-1.892712e+01	-1.843832e+02
3.900000e-07	-2.403111e-06	-2.899334e-09	-1.887566e+01	-1.841558e+02
4.000000e-07	-2.396404e-06	-2.875447e-09	-1.882298e+01	-1.839281e+02
4.100000e-07	-2.389422e-06	-2.722953e-09	-1.876813e+01	-1.836998e+02
4.200000e-07	-2.382209e-06	-2.705360e-09	-1.871148e+01	-1.834705e+02
4.300000e-07	-2.374834e-06	-2.828050e-09	-1.865355e+01	-1.832397e+02
4.400000e-07	-2.367305e-06	-2.879498e-09	-1.859441e+01	-1.830071e+02
4.500000e-07	-2.359656e-06	-2.769060e-09	-1.853434e+01	-1.827721e+02
4.600000e-07	-2.351872e-06	-2.681316e-09	-1.847319e+01	-1.825344e+02
4.700000e-07	-2.344046e-06	-2.747966e-09	-1.841172e+01	-1.822934e+02
4.800000e-07	-2.336204e-06	-2.833819e-09	-1.835012e+01	-1.820488e+02
4.900000e-07	-2.328196e-06	-2.786908e-09	-1.828722e+01	-1.818000e+02
5.000000e-07	-2.320018e-06	-2.685877e-09	-1.822299e+01	-1.815466e+02
5.100000e-07	-2.311737e-06	-2.705283e-09	-1.815794e+01	-1.812881e+02
5.200000e-07	-2.303440e-06	-2.791102e-09	-1.809277e+01	-1.810242e+02
5.300000e-07	-2.295004e-06	-2.798580e-09	-1.802651e+01	-1.807545e+02
5.400000e-07	-2.286282e-06	-2.711165e-09	-1.795801e+01	-1.804785e+02
5.500000e-07	-2.277363e-06	-2.680837e-09	-1.788795e+01	-1.801959e+02
5.600000e-07	-2.268243e-06	-2.734215e-09	-1.781631e+01	-1.799064e+02
5.700000e-07	-2.258851e-06	-2.772993e-09	-1.774255e+01	-1.796097e+02
5.800000e-07	-2.249081e-06	-2.709890e-09	-1.766580e+01	-1.793055e+02
5.900000e-07	-2.238950e-06	-2.652473e-09	-1.758623e+01	-1.789936e+02
6.000000e-07	-2.228644e-06	-2.679089e-09	-1.750528e+01	-1.786737e+02
6.100000e-07	-2.218138e-06	-2.740952e-09	-1.742276e+01	-1.783457e+02
6.200000e-07	-2.207295e-06	-2.715797e-09	-1.733759e+01	-1.780094e+02
6.300000e-07	-2.196198e-06	-2.652304e-09	-1.725043e+01	-1.776647e+02
6.400000e-07	-2.184936e-06	-2.645625e-09	-1.716197e+01	-1.773115e+02
6.500000e-07	-2.173530e-06	-2.696943e-09	-1.707237e+01	-1.769497e+02
6.600000e-07	-2.162021e-06	-2.696260e-09	-1.698197e+01	-1.765794e+02
6.700000e-07	-2.150322e-06	-2.649547e-09	-1.689008e+01	-1.762004e+02
6.800000e-07	-2.138437e-06	-2.629035e-09	-1.679673e+01	-1.758128e+02
6.900000e-07	-2.126483e-06	-2.656708e-09	-1.670284e+01	-1.754166e+02
7.000000e-07	-2.114396e-06	-2.669358e-09	-1.660790e+01	-1.750118e+02
7.100000e-07	-2.102239e-06	-2.644439e-09	-1.651241e+01	-1.745984e+02
7.200000e-07	-2.089944e-06	-2.613057e-09	-1.641583e+01	-1.741766e+02
7.300000e-07	-2.077438e-06	-2.611271e-09	-1.631760e+01	-1.737463e+02
7.400000e-07	-2.064772e-06	-2.629263e-09	-1.621812e+01	-1.733077e+02
7.500000e-07	-2.051889e-06	-2.625217e-09	-1.611692e+01	-1.728607e+02
7.600000e-07	-2.038861e-06	-2.593170e-09	-1.601459e+01	-1.724055e+02
7.700000e-07	-2.025713e-06	-2.574227e-09	-1.591132e+01	-1.719421e+02
7.800000e-07	-2.012357e-06	-2.591335e-09	-1.580642e+01	-1.714705e+02
7.900000e-07	-1.998830e-06	-2.597555e-09	-1.570016e+01	-1.709908e+02
8.000000e-07	-1.985171e-06	-2.568428e-09	-1.559287e+01	-1.705029e+02
8.100000e-07	-1.971346e-06	-2.542417e-09	-1.548428e+01	-1.700069e+02
8.200000e-07	-1.957348e-06	-2.556809e-09	-1.537434e+01	-1.695028e+02
8.300000e-07	-1.943188e-06	-2.563832e-09	-1.526311e+01	-1.689904e+02
8.400000e-07	-1.928931e-06	-2.538152e-09	-1.515113e+01	-1.684698e+02
8.500000e-07	-1.914511e-06	-2.508962e-09	-1.503786e+01	-1.679409e+02
8.600000e-07	-1.899860e-06	-2.511684e-09	-1.492279e+01	-1.674036e+02
8.700000e-07	-1.884972e-06	-2.519331e-09	-1.480584e+01	-1.668577e+02
8.800000e-07	-1.869796e-06	-2.508786e-09	-1.468664e+01	-1.663031e+02
8.900000e-07	-1.854489e-06	-2.485336e-09	-1.456641e+01	-1.657396e+02
9.000000e-07	-1.839087e-06	-2.475804e-09	-1.444544e+01	-1.651671e+02
9.100000e-07	-1.823446e-06	-2.478611e-09	-1.432258e+01	-1.645853e+02
9.200000e-07	-1.807651e-06	-2.477640e-09	-1.419852e+01	-1.639941e+02
9.300000e-07	-1.791644e-06	-2.455663e-09	-1.407278e+01	-1.633931e+02
9.400000e-07	-1.775304e-06	-2.431951e-09	-1.394444e+01	-1.627821e+02
9.500000e-07	-1.758759e-06	-2.427123e-09	-1.381448e+01	-1.621610e+02
9.600000e-07	-1.742198e-06	-2.432639e-09	-1.368440e+01	-1.615292e+02
9.700000e-07	-1.725521e-06	-2.416955e-09	-1.355341e+01	-1.608867e+02
9.800000e-07	-1.708641e-06	-2.389328e-09	-1.342082e+01	-1.602331e+02
9.900000e-07	-1.691621e-06	-2.380236e-09	-1.328714e+01	-1.595682e+02
1.000000e-06	-1.674505e-06	-2.384908e-09	-1.315269e+01	-1.588915e+02
1.010000e-06	-1.657400e-06	-2.378112e-09	-1.301834e+01	-1.582030e+02
1.020000e-06	-1.640209e-06	-2.357378e-09	-1.288331e+01	-1.575022e+02
1.030000e-06	-1.622927e-06	-2.339799e-09	-1.274757e+01	-1.567889e+02
1.040000e-06	-1.605566e-06	-2.333312e-09	-1.261120e+01	-1.560628e+02
1.050000e-06	-1.588122e-06	-2.328946e-09	-1.247418e+01	-1.553238e+02
1.060000e-06	-1.570587e-06	-2.314556e-09	-1.233645e+01	-1.545716e+02
1.070000e-06	-1.552994e-06	-2.296516e-09	-1.219827e+01	-1.538059e+02
1.080000e-06	-1.535363e-06	-2.285271e-09	-1.205978e+01	-1.530266e+02
1.090000e-06	-1.517643e-06	-2.279638e-09	-1.192060e+01	-1.522336e+02
1.100000e-06	-1.499908e-06	-2.268134e-09	-1.178129e+01	-1.514266e+02
1.110000e-06	-1.482109e-06	-2.250899e-09	-1.164149e+01	-1.506055e+02
1.120000e-06	-1.464138e-06	-2.234127e-09	-1.150033e+01	-1.497704e+02
1.130000e-06	-1.446046e-06	-2.222112e-09	-1.135823e+01	-1.489209e+02
1.140000e-06	-1.427948e-06	-2.210627e-09	-1.121607e+01	-1.480573e+02
1.150000e-06	-1.409796e-06	-2.197475e-09	-1.107349e+01	-1.471793e+02
1.160000e-06	-1.391466e-06	-2.180433e-09	-1.092951e+01	-1.462870e+02
1.170000e-06	-1.373013e-06	-2.169286e-09	-1.078457e+01	-1.453804e+02
1.180000e-06	-1.354401e-06	-2.161407e-09	-1.063838e+01	-1.444596e+02
1.190000e-06	-1.335588e-06	-2.151851e-09	-1.049061e+01	-1.435245e+02
1.200000e-06	-1.316736e-06	-2.136796e-09	-1.034253e+01	-1.425753e+02
1.210000e-06	-1.297794e-06	-2.124549e-09	-1.019375e+01	-1.416120e+02
1.220000e-06	-1.278674e-06	-2.111714e-09	-1.004357e+01	-1.406347e+02
1.230000e-06	-1.259455e-06	-2.096475e-09	-9.892614e+00	-1.396436e+02
1.240000e-06	-1.240280e-06	-2.079093e-09	-9.741998e+00	-1.386386e+02
1.250000e-06	-1.221070e-06	-2.063376e-09	-9.591111e+00	-1.376199e+02
1.260000e-06	-1.201677e-06	-2.047504e-09	-9.438785e+00	-1.365876e+02
1.270000e-06	-1.182166e-06	-2.031547e-09	-9.285527e+00	-1.355418e+02
1.280000e-06	-1.162597e-06	-2.016997e-09	-9.131826e+00	-1.344825e+02
1.290000e-06	-1.142965e-06	-2.001282e-09	-8.977621e+00	-1.334099e+02
1.300000e-06	-1.123250e-06	-1.986121e-09	-8.822761e+00	-1.323238e+02
1.310000e-06	-1.103506e-06	-1.971186e-09	-8.667681e+00	-1.312245e+02
1.320000e-06	-1.083761e-06	-1.954336e-09	-8.512591e+00	-1.301118e+02
1.330000e-06	-1.063952e-06	-1.935150e-09	-8.357000e+00	-1.289858e+02
1.340000e-06	-1.044100e-06	-1.920155e-09	-8.201064e+00	-1.278463e+02
1.350000e-06	-1.024253e-06	-1.906349e-09	-8.045175e+00	-1.266933e+02
1.360000e-06	-1.004405e-06	-1.889218e-09	-7.889277e+00	-1.255267e+02
1.370000e-06	-9.845060e-07	-1.869249e-09	-7.732976e+00	-1.243462e+02
1.380000e-06	-9.645955e-07	-1.852500e-09	-7.576585e+00	-1.231518e+02
1.390000e-06	-9.446837e-07	-1.835451e-09	-7.420184e+00	-1.219431e+02
1.400000e-06	-9.247370e-07	-1.818438e-09	-7.263509e+00	-1.207199e+02
1.410000e-06	-9.047376e-07	-1.797896e-09	-7.106421e+00	-1.194818e+02
1.420000e-06	-8.846697e-07	-1.776175e-09	-6.948793e+00	-1.182285e+02
1.430000e-06	-8.646066e-07	-1.755055e-09	-6.791204e+00	-1.169596e+02
1.440000e-06	-8.445310e-07	-1.733244e-09	-6.633517e+00	-1.156746e+02
1.450000e-06	-8.244421e-07	-1.709573e-09	-6.475726e+00	-1.143730e+02
1.460000e-06	-8.043395e-07	-1.687095e-09	-6.317826e+00	-1.130544e+02
1.470000e-06	-7.841727e-07	-1.669744e-09	-6.159422e+00	-1.117182e+02
1.480000e-06	-7.639201e-07	-1.654781e-09	-6.000345e+00	-1.103639e+02
1.490000e-06	-7.436150e-07	-1.636557e-09	-5.840855e+00	-1.089907e+02
1.500000e-06	-7.232493e-07	-1.612925e-09	-5.680889e+00	-1.075981e+02
1.510000e-06	-7.028783e-07	-1.590571e-09	-5.520881e+00	-1.061854e+02
1.520000e-06	-6.823766e-07	-1.571605e-09	-5.359847e+00	-1.047519e+02
1.530000e-06	-6.618162e-07	-1.548580e-09	-5.198352e+00	-1.032971e+02
1.540000e-06	-6.412814e-07	-1.520593e-09	-5.037058e+00	-1.018201e+02
1.550000e-06	-6.206684e-07	-1.496110e-09	-4.875149e+00	-1.003203e+02
1.560000e-06	-6.000522e-07	-1.474190e-09	-4.713215e+00	-9.879704e+01
1.570000e-06	-5.793081e-07	-1.450541e-09	-4.550278e+00	-9.724958e+01
1.580000e-06	-5.585197e-07	-1.427104e-09	-4.386991e+00	-9.567728e+01
1.590000e-06	-5.377867e-07	-1.404776e-09	-4.224140e+00	-9.407948e+01
1.600000e-06	-5.169495e-07	-1.381713e-09	-4.060471e+00	-9.245555e+01
1.610000e-06	-4.959521e-07	-1.356899e-09	-3.895543e+00	-9.080491e+01
1.620000e-06	-4.749775e-07	-1.330152e-09	-3.730794e+00	-8.912697e+01
1.630000e-06	-4.539330e-07	-1.301718e-09	-3.565497e+00	-8.742122e+01
1.640000e-06	-4.327861e-07	-1.272413e-09	-3.399394e+00	-8.568717e+01
1.650000e-06	-4.117354e-07	-1.244682e-09	-3.234048e+00	-8.392437e+01
1.660000e-06	-3.907084e-07	-1.220264e-09	-3.068887e+00	-8.213244e+01
1.670000e-06	-3.695828e-07	-1.193046e-09	-2.902953e+00	-8.031105e+01
1.680000e-06	-3.482517e-07	-1.164495e-09	-2.735404e+00	-7.845992e+01
1.690000e-06	-3.269795e-07	-1.138567e-09	-2.568318e+00	-7.657884e+01
1.700000e-06	-3.058213e-07	-1.112998e-09	-2.402127e+00	-7.466767e+01
1.710000e-06	-2.846113e-07	-1.085248e-09	-2.235530e+00	-7.272631e+01
1.720000e-06	-2.633649e-07	-1.053486e-09	-2.068646e+00	-7.075477e+01
1.730000e-06	-2.421005e-07	-1.021652e-09	-1.901621e+00	-6.875309e+01
1.740000e-06	-2.208684e-07	-9.911019e-10	-1.734850e+00	-6.672141e+01
1.750000e-06	-1.995870e-07	-9.593165e-10	-1.567691e+00	-6.465993e+01
1.760000e-06	-1.782948e-07	-9.260741e-10	-1.400448e+00	-6.256892e+01
1.770000e-06	-1.570245e-07	-8.953363e-10	-1.233376e+00	-6.044874e+01
1.780000e-06	-1.357518e-07	-8.650343e-10	-1.066287e+00	-5.829979e+01
1.790000e-06	-1.144824e-07	-8.332706e-10	-8.992223e-01	-5.612258e+01
1.800000e-06	-9.309410e-08	-8.033435e-10	-7.312240e-01	-5.391765e+01
1.810000e-06	-7.165773e-08	-7.739024e-10	-5.628482e-01	-5.168563e+01
1.820000e-06	-5.035101e-08	-7.402403e-10	-3.954909e-01	-4.942722e+01
1.830000e-06	-2.896892e-08	-7.038355e-10	-2.275415e-01	-4.714316e+01
1.840000e-06	-7.500244e-09	-6.685293e-10	-5.891199e-02	-4.483428e+01
1.850000e-06	1.388311e-08	-6.341263e-10	1.090473e-01	-4.250144e+01
1.860000e-06	3.528648e-08	-5.984916e-10	2.771639e-01	-4.014558e+01
1.870000e-06	5.664723e-08	-5.638618e-10	4.449457e-01	-3.776766e+01
1.880000e-06	7.795931e-08	-5.318767e-10	6.123451e-01	-3.536871e+01
1.890000e-06	9.932645e-08	-4.983374e-10	7.801771e-01	-3.294979e+01
1.900000e-06	1.207040e-07	-4.616301e-10	9.480909e-01	-3.051201e+01
1.910000e-06	1.420349e-07	-4.242906e-10	1.115638e+00	-2.805652e+01
1.920000e-06	1.633598e-07	-3.852657e-10	1.283139e+00	-2.558448e+01
1.930000e-06	1.846994e-07	-3.472862e-10	1.450754e+00	-2.309709e+01
1.940000e-06	2.059697e-07	-3.104805e-10	1.617825e+00	-2.059557e+01
1.950000e-06	2.272031e-07	-2.723293e-10	1.784607e+00	-1.808118e+01
1.960000e-06	2.484512e-07	-2.348576e-10	1.951504e+00	-1.555516e+01
1.970000e-06	2.696874e-07	-1.984293e-10	2.118307e+00	-1.301879e+01
1.980000e-06	2.908359e-07	-1.618395e-10	2.284422e+00	-1.047335e+01
1.990000e-06	3.119966e-07	-1.239262e-10	2.450632e+00	-7.920118e+00
2.000000e-06	3.331820e-07	-8.589305e-11	2.617037e+00	-5.360388e+00
2.010000e-06	3.542741e-07	-4.766657e-11	2.782708e+00	-2.795443e+00
2.020000e-06	3.753217e-07	-1.061951e-11	2.948030e+00	-2.265662e-01
2.030000e-06	3.964011e-07	2.819982e-11	3.113602e+00	2.344968e+00
2.040000e-06	4.174563e-07	6.797956e-11	3.278984e+00	4.917892e+00
2.050000e-06	4.384031e-07	1.065182e-10	3.443514e+00	7.490951e+00
2.060000e-06	4.593380e-07	1.426735e-10	3.607951e+00	1.006290e+01
2.070000e-06	4.803059e-07	1.789024e-10	3.772647e+00	1.263252e+01
2.080000e-06	5.012067e-07	2.174041e-10	3.936816e+00	1.519860e+01
2.090000e-06	5.220531e-07	2.548642e-10	4.100558e+00	1.775994e+01
2.100000e-06	5.428187e-07	2.912019e-10	4.263665e+00	2.031538e+01
2.110000e-06	5.635152e-07	3.283945e-10	4.426230e+00	2.286376e+01
2.120000e-06	5.841651e-07	3.668568e-10	4.588427e+00	2.540396e+01
2.130000e-06	6.047186e-07	4.054547e-10	4.749868e+00	2.793488e+01
2.140000e-06	6.252213e-07	4.416874e-10	4.910911e+00	3.045542e+01
2.150000e-06	6.457220e-07	4.752683e-10	5.071937e+00	3.296455e+01
2.160000e-06	6.662014e-07	5.114745e-10	5.232796e+00	3.546121e+01
2.170000e-06	6.866455e-07	5.513819e-10	5.393378e+00	3.794442e+01
2.180000e-06	7.070958e-07	5.915556e-10	5.554008e+00	4.041319e+01
2.190000e-06	7.274595e-07	6.290006e-10	5.713959e+00	4.286656e+01
2.200000e-06	7.476823e-07	6.643315e-10	5.872802e+00	4.530363e+01
2.210000e-06	7.678497e-07	6.997629e-10	6.031211e+00	4.772349e+01
2.220000e-06	7.880372e-07	7.368934e-10	6.189777e+00	5.012527e+01
2.230000e-06	8.082236e-07	7.732591e-10	6.348335e+00	5.250814e+01
2.240000e-06	8.283656e-07	8.077319e-10	6.506543e+00	5.487128e+01
2.250000e-06	8.484155e-07	8.430604e-10	6.664028e+00	5.721393e+01
2.260000e-06	8.684144e-07	8.781012e-10	6.821113e+00	5.953534e+01
2.270000e-06	8.884033e-07	9.109828e-10	6.978120e+00	6.183479e+01
2.280000e-06	9.083835e-07	9.455958e-10	7.135058e+00	6.411159e+01
2.290000e-06	9.283525e-07	9.819625e-10	7.291908e+00	6.636512e+01
2.300000e-06	9.482558e-07	1.016463e-09	7.448242e+00	6.859474e+01
2.310000e-06	9.681213e-07	1.049111e-09	7.604279e+00	7.079988e+01
2.320000e-06	9.879672e-07	1.080185e-09	7.760162e+00	7.298001e+01
2.330000e-06	1.007767e-06	1.110975e-09	7.915685e+00	7.513461e+01
2.340000e-06	1.027537e-06	1.141994e-09	8.070966e+00	7.726323e+01
2.350000e-06	1.047302e-06	1.172671e-09	8.226220e+00	7.936544e+01
2.360000e-06	1.067056e-06	1.204850e-09	8.381379e+00	8.144084e+01
2.370000e-06	1.086753e-06	1.236601e-09	8.536091e+00	8.348911e+01
2.380000e-06	1.106381e-06	1.266184e-09	8.690264e+00	8.550993e+01
2.390000e-06	1.125966e-06	1.296174e-09	8.844099e+00	8.750305e+01
2.400000e-06	1.145561e-06	1.326753e-09	8.998010e+00	8.946825e+01
2.410000e-06	1.165109e-06	1.355399e-09	9.151555e+00	9.140536e+01
2.420000e-06	1.184544e-06	1.384234e-09	9.304213e+00	9.331425e+01
2.430000e-06	1.203905e-06	1.414001e-09	9.456286e+00	9.519483e+01
2.440000e-06	1.223206e-06	1.441805e-09	9.607886e+00	9.704709e+01
2.450000e-06	1.242436e-06	1.467177e-09	9.758931e+00	9.887100e+01
2.460000e-06	1.261594e-06	1.492248e-09	9.909413e+00	1.006666e+02
2.470000e-06	1.280721e-06	1.518345e-09	1.005965e+01	1.024341e+02
2.480000e-06	1.299701e-06	1.542766e-09	1.020873e+01	1.041735e+02
2.490000e-06	1.318420e-06	1.566582e-09	1.035576e+01	1.058850e+02
2.500000e-06	1.337068e-06	1.593542e-09	1.050224e+01	1.075689e+02
2.510000e-06	1.355652e-06	1.621091e-09	1.064820e+01	1.092254e+02
2.520000e-06	1.374103e-06	1.644268e-09	1.079313e+01	1.108549e+02
2.530000e-06	1.392388e-06	1.668172e-09	1.093676e+01	1.124575e+02
2.540000e-06	1.410491e-06	1.693340e-09	1.107895e+01	1.140338e+02
2.550000e-06	1.428632e-06	1.718465e-09	1.122144e+01	1.155841e+02
2.560000e-06	1.446657e-06	1.740564e-09	1.136302e+01	1.171089e+02
2.570000e-06	1.464506e-06	1.759961e-09	1.150322e+01	1.186085e+02
2.580000e-06	1.482317e-06	1.783478e-09	1.164312e+01	1.200835e+02
2.590000e-06	1.500038e-06	1.808946e-09	1.178231e+01	1.215344e+02
2.600000e-06	1.517725e-06	1.830672e-09	1.192124e+01	1.229616e+02
2.610000e-06	1.535274e-06	1.851492e-09	1.205908e+01	1.243658e+02
2.620000e-06	1.552672e-06	1.873428e-09	1.219574e+01	1.257474e+02
2.630000e-06	1.570063e-06	1.894195e-09	1.233234e+01	1.271070e+02
2.640000e-06	1.587464e-06	1.913203e-09	1.246901e+01	1.284451e+02
2.650000e-06	1.604795e-06	1.932113e-09	1.260514e+01	1.297623e+02
2.660000e-06	1.622029e-06	1.951614e-09	1.274051e+01	1.310591e+02
2.670000e-06	1.639181e-06	1.969009e-09	1.287523e+01	1.323361e+02
2.680000e-06	1.656217e-06	1.989178e-09	1.300905e+01	1.335937e+02
2.690000e-06	1.673124e-06	2.012710e-09	1.314185e+01	1.348324e+02
2.700000e-06	1.690007e-06	2.031033e-09	1.327446e+01	1.360529e+02
2.710000e-06	1.706848e-06	2.047272e-09	1.340674e+01	1.372554e+02
2.720000e-06	1.723474e-06	2.066200e-09	1.353733e+01	1.384405e+02
2.730000e-06	1.739890e-06	2.085313e-09	1.366628e+01	1.396086e+02
2.740000e-06	1.756251e-06	2.102638e-09	1.379478e+01	1.407601e+02
2.750000e-06	1.772469e-06	2.118090e-09	1.392217e+01	1.418953e+02
2.760000e-06	1.788426e-06	2.134864e-09	1.404751e+01	1.430146e+02
2.770000e-06	1.804200e-06	2.152796e-09	1.417141e+01	1.441182e+02
2.780000e-06	1.819797e-06	2.170420e-09	1.429392e+01	1.452066e+02
2.790000e-06	1.834997e-06	2.186554e-09	1.441331e+01	1.462798e+02
2.800000e-06	1.850074e-06	2.204172e-09	1.453173e+01	1.473380e+02
2.810000e-06	1.865121e-06	2.221346e-09	1.464992e+01	1.483816e+02
2.820000e-06	1.879970e-06	2.237552e-09	1.476656e+01	1.494106e+02
2.830000e-06	1.894651e-06	2.254475e-09	1.488187e+01	1.504250e+02
2.840000e-06	1.909054e-06	2.272143e-09	1.499500e+01	1.514251e+02
2.850000e-06	1.923287e-06	2.286870e-09	1.510679e+01	1.524108e+02
2.860000e-06	1.937454e-06	2.300614e-09	1.521807e+01	1.533823e+02
2.870000e-06	1.951540e-06	2.317337e-09	1.532871e+01	1.543394e+02
2.880000e-06	1.965436e-06	2.333443e-09	1.543786e+01	1.552821e+02
2.890000e-06	1.979149e-06	2.344824e-09	1.554558e+01	1.562106e+02
2.900000e-06	1.992749e-06	2.355714e-09	1.565240e+01	1.571246e+02
