# Temperatura_=_20.0
# Concentracion g/m^3_=_9000.0
# C_Vs_to_Am_M_A/Vsm_=_65563218390.804596
# pendiente_HvsI_1/m_=_3716.3
# ordenada_HvsI_A/m_=_1297.0
# frecuencia_Hz_=_134957.64277372573

Tiempo_(s)	Campo_(V.s)	Magnetizacion_(V.s)	Campo_(kA/m)	Magnetizacion_(A/m)
0.000000e+00	-2.538782e-06	-2.932832e-09	-1.988206e+01	-1.907826e+02
1.000000e-08	-2.538973e-06	-2.938655e-09	-1.988355e+01	-1.907501e+02
2.000000e-08	-2.539082e-06	-2.944182e-09	-1.988441e+01	-1.907024e+02
3.000000e-08	-2.539183e-06	-2.927992e-09	-1.988520e+01	-1.906396e+02
4.000000e-08	-2.539193e-06	-2.901202e-09	-1.988528e+01	-1.905624e+02
5.000000e-08	-2.538961e-06	-2.938897e-09	-1.988346e+01	-1.904710e+02
6.000000e-08	-2.538546e-06	-3.011288e-09	-1.988022e+01	-1.903661e+02
7.000000e-08	-2.538050e-06	-3.039194e-09	-1.987633e+01	-1.902482e+02
8.000000e-08	-2.537397e-06	-2.979712e-09	-1.987122e+01	-1.901179e+02
9.000000e-08	-2.536430e-06	-2.920715e-09	-1.986364e+01	-1.899759e+02
1.000000e-07	-2.535134e-06	-2.884955e-09	-1.985350e+01	-1.898230e+02
1.100000e-07	-2.533503e-06	-2.865573e-09	-1.984072e+01	-1.896598e+02
1.200000e-07	-2.531692e-06	-2.958433e-09	-1.982654e+01	-1.894871e+02
1.300000e-07	-2.529540e-06	-2.901910e-09	-1.980968e+01	-1.893058e+02
1.400000e-07	-2.526921e-06	-2.891196e-09	-1.978918e+01	-1.891165e+02
1.500000e-07	-2.524021e-06	-2.938534e-09	-1.976646e+01	-1.889202e+02
1.600000e-07	-2.520942e-06	-2.951986e-09	-1.974235e+01	-1.887176e+02
1.700000e-07	-2.517711e-06	-2.850266e-09	-1.971704e+01	-1.885095e+02
1.800000e-07	-2.514344e-06	-2.830760e-09	-1.969068e+01	-1.882967e+02
1.900000e-07	-2.510853e-06	-2.877938e-09	-1.966334e+01	-1.880801e+02
2.000000e-07	-2.507150e-06	-2.924842e-09	-1.963434e+01	-1.878603e+02
2.100000e-07	-2.503362e-06	-2.868023e-09	-1.960468e+01	-1.876381e+02
2.200000e-07	-2.499509e-06	-2.766688e-09	-1.957450e+01	-1.874142e+02
2.300000e-07	-2.495556e-06	-2.763256e-09	-1.954355e+01	-1.871893e+02
2.400000e-07	-2.491528e-06	-2.817827e-09	-1.951200e+01	-1.869638e+02
2.500000e-07	-2.487413e-06	-2.868894e-09	-1.947977e+01	-1.867385e+02
2.600000e-07	-2.483120e-06	-2.788154e-09	-1.944615e+01	-1.865137e+02
2.700000e-07	-2.478688e-06	-2.764179e-09	-1.941144e+01	-1.862899e+02
2.800000e-07	-2.474016e-06	-2.776558e-09	-1.937486e+01	-1.860676e+02
2.900000e-07	-2.469063e-06	-2.893001e-09	-1.933607e+01	-1.858469e+02
3.000000e-07	-2.463990e-06	-2.864556e-09	-1.929634e+01	-1.856282e+02
3.100000e-07	-2.458761e-06	-2.776029e-09	-1.925539e+01	-1.854117e+02
3.200000e-07	-2.453325e-06	-2.738807e-09	-1.921282e+01	-1.851974e+02
3.300000e-07	-2.447660e-06	-2.844579e-09	-1.916845e+01	-1.849855e+02
3.400000e-07	-2.441845e-06	-2.864791e-09	-1.912291e+01	-1.847758e+02
3.500000e-07	-2.435909e-06	-2.782404e-09	-1.907643e+01	-1.845683e+02
3.600000e-07	-2.429836e-06	-2.730879e-09	-1.902887e+01	-1.843629e+02
3.700000e-07	-2.423584e-06	-2.791239e-09	-1.897991e+01	-1.841594e+02
3.800000e-07	-2.417139e-06	-2.847163e-09	-1.892943e+01	-1.839574e+02
3.900000e-07	-2.410538e-06	-2.806661e-09	-1.887774e+01	-1.837567e+02
4.000000e-07	-2.403723e-06	-2.749098e-09	-1.882437e+01	-1.835568e+02
4.100000e-07	-2.396729e-06	-2.749978e-09	-1.876960e+01	-1.833575e+02
4.200000e-07	-2.389573e-06	-2.798942e-09	-1.871356e+01	-1.831581e+02
4.300000e-07	-2.382271e-06	-2.796391e-09	-1.865637e+01	-1.829583e+02
4.400000e-07	-2.374843e-06	-2.753342e-09	-1.859820e+01	-1.827574e+02
4.500000e-07	-2.367253e-06	-2.718422e-09	-1.853876e+01	-1.825550e+02
4.600000e-07	-2.359517e-06	-2.750166e-09	-1.847818e+01	-1.823505e+02
4.700000e-07	-2.351693e-06	-2.775534e-09	-1.841690e+01	-1.821432e+02
4.800000e-07	-2.343770e-06	-2.760577e-09	-1.835485e+01	-1.819326e+02
4.900000e-07	-2.335779e-06	-2.720320e-09	-1.829228e+01	-1.817180e+02
5.000000e-07	-2.327715e-06	-2.736639e-09	-1.822913e+01	-1.814990e+02
5.100000e-07	-2.319541e-06	-2.766767e-09	-1.816511e+01	-1.812748e+02
5.200000e-07	-2.311261e-06	-2.763626e-09	-1.810027e+01	-1.810450e+02
5.300000e-07	-2.302797e-06	-2.722916e-09	-1.803399e+01	-1.808089e+02
5.400000e-07	-2.294060e-06	-2.715019e-09	-1.796556e+01	-1.805660e+02
5.500000e-07	-2.285132e-06	-2.732380e-09	-1.789564e+01	-1.803159e+02
5.600000e-07	-2.276048e-06	-2.738192e-09	-1.782450e+01	-1.800579e+02
5.700000e-07	-2.266566e-06	-2.707172e-09	-1.775024e+01	-1.797918e+02
5.800000e-07	-2.256701e-06	-2.686369e-09	-1.767299e+01	-1.795171e+02
5.900000e-07	-2.246571e-06	-2.698931e-09	-1.759366e+01	-1.792333e+02
6.000000e-07	-2.236150e-06	-2.718013e-09	-1.751205e+01	-1.789403e+02
6.100000e-07	-2.225449e-06	-2.702855e-09	-1.742825e+01	-1.786376e+02
6.200000e-07	-2.214502e-06	-2.677593e-09	-1.734252e+01	-1.783251e+02
6.300000e-07	-2.203384e-06	-2.681561e-09	-1.725545e+01	-1.780026e+02
6.400000e-07	-2.192117e-06	-2.699258e-09	-1.716721e+01	-1.776699e+02
6.500000e-07	-2.180652e-06	-2.684716e-09	-1.707743e+01	-1.773268e+02
6.600000e-07	-2.169065e-06	-2.656037e-09	-1.698669e+01	-1.769734e+02
6.700000e-07	-2.157411e-06	-2.653173e-09	-1.689541e+01	-1.766095e+02
6.800000e-07	-2.145581e-06	-2.663540e-09	-1.680278e+01	-1.762353e+02
6.900000e-07	-2.133594e-06	-2.657757e-09	-1.670890e+01	-1.758506e+02
7.000000e-07	-2.121561e-06	-2.639231e-09	-1.661466e+01	-1.754557e+02
7.100000e-07	-2.109325e-06	-2.631033e-09	-1.651884e+01	-1.750505e+02
7.200000e-07	-2.096802e-06	-2.630502e-09	-1.642077e+01	-1.746353e+02
7.300000e-07	-2.084188e-06	-2.630347e-09	-1.632198e+01	-1.742101e+02
7.400000e-07	-2.071510e-06	-2.619415e-09	-1.622270e+01	-1.737750e+02
7.500000e-07	-2.058615e-06	-2.603000e-09	-1.612172e+01	-1.733304e+02
7.600000e-07	-2.045516e-06	-2.590169e-09	-1.601913e+01	-1.728763e+02
7.700000e-07	-2.032246e-06	-2.595383e-09	-1.591521e+01	-1.724129e+02
7.800000e-07	-2.018767e-06	-2.595972e-09	-1.580965e+01	-1.719405e+02
7.900000e-07	-2.005105e-06	-2.577259e-09	-1.570266e+01	-1.714591e+02
8.000000e-07	-1.991331e-06	-2.558640e-09	-1.559479e+01	-1.709689e+02
8.100000e-07	-1.977523e-06	-2.565300e-09	-1.548665e+01	-1.704702e+02
8.200000e-07	-1.963555e-06	-2.567011e-09	-1.537726e+01	-1.699630e+02
8.300000e-07	-1.949459e-06	-2.544504e-09	-1.526687e+01	-1.694475e+02
8.400000e-07	-1.935139e-06	-2.521987e-09	-1.515473e+01	-1.689237e+02
8.500000e-07	-1.920603e-06	-2.522849e-09	-1.504089e+01	-1.683917e+02
8.600000e-07	-1.905994e-06	-2.522301e-09	-1.492648e+01	-1.678516e+02
8.700000e-07	-1.891069e-06	-2.507024e-09	-1.480960e+01	-1.673034e+02
8.800000e-07	-1.875959e-06	-2.489833e-09	-1.469127e+01	-1.667470e+02
8.900000e-07	-1.860727e-06	-2.484610e-09	-1.457199e+01	-1.661825e+02
9.000000e-07	-1.845218e-06	-2.482831e-09	-1.445053e+01	-1.656096e+02
9.100000e-07	-1.829529e-06	-2.477247e-09	-1.432766e+01	-1.650284e+02
9.200000e-07	-1.813632e-06	-2.465890e-09	-1.420317e+01	-1.644387e+02
9.300000e-07	-1.797542e-06	-2.451181e-09	-1.407716e+01	-1.638402e+02
9.400000e-07	-1.781273e-06	-2.443285e-09	-1.394975e+01	-1.632329e+02
9.500000e-07	-1.764829e-06	-2.440180e-09	-1.382097e+01	-1.626164e+02
9.600000e-07	-1.748196e-06	-2.428335e-09	-1.369072e+01	-1.619904e+02
9.700000e-07	-1.731440e-06	-2.408925e-09	-1.355949e+01	-1.613548e+02
9.800000e-07	-1.714604e-06	-2.397290e-09	-1.342764e+01	-1.607092e+02
9.900000e-07	-1.697670e-06	-2.395844e-09	-1.329503e+01	-1.600533e+02
1.000000e-06	-1.680679e-06	-2.389666e-09	-1.316197e+01	-1.593866e+02
1.010000e-06	-1.663495e-06	-2.373507e-09	-1.302739e+01	-1.587090e+02
1.020000e-06	-1.646229e-06	-2.360747e-09	-1.289218e+01	-1.580200e+02
1.030000e-06	-1.628980e-06	-2.353044e-09	-1.275709e+01	-1.573192e+02
1.040000e-06	-1.611633e-06	-2.345311e-09	-1.262125e+01	-1.566063e+02
1.050000e-06	-1.594131e-06	-2.332849e-09	-1.248418e+01	-1.558810e+02
1.060000e-06	-1.576578e-06	-2.318992e-09	-1.234672e+01	-1.551428e+02
1.070000e-06	-1.559041e-06	-2.305066e-09	-1.220938e+01	-1.543914e+02
1.080000e-06	-1.541443e-06	-2.295777e-09	-1.207156e+01	-1.536266e+02
1.090000e-06	-1.523783e-06	-2.285390e-09	-1.193326e+01	-1.528479e+02
1.100000e-06	-1.506066e-06	-2.271473e-09	-1.179451e+01	-1.520550e+02
1.110000e-06	-1.488222e-06	-2.255090e-09	-1.165477e+01	-1.512478e+02
1.120000e-06	-1.470150e-06	-2.241131e-09	-1.151324e+01	-1.504259e+02
1.130000e-06	-1.451932e-06	-2.227571e-09	-1.137057e+01	-1.495892e+02
1.140000e-06	-1.433695e-06	-2.215180e-09	-1.122775e+01	-1.487374e+02
1.150000e-06	-1.415367e-06	-2.200029e-09	-1.108422e+01	-1.478703e+02
1.160000e-06	-1.397003e-06	-2.184348e-09	-1.094040e+01	-1.469879e+02
1.170000e-06	-1.378566e-06	-2.173239e-09	-1.079602e+01	-1.460901e+02
1.180000e-06	-1.359960e-06	-2.163031e-09	-1.065030e+01	-1.451767e+02
1.190000e-06	-1.341190e-06	-2.149531e-09	-1.050331e+01	-1.442476e+02
1.200000e-06	-1.322239e-06	-2.134870e-09	-1.035490e+01	-1.433030e+02
1.210000e-06	-1.303235e-06	-2.121008e-09	-1.020607e+01	-1.423428e+02
1.220000e-06	-1.284111e-06	-2.107320e-09	-1.005631e+01	-1.413671e+02
1.230000e-06	-1.264836e-06	-2.092641e-09	-9.905358e+00	-1.403759e+02
1.240000e-06	-1.245489e-06	-2.076795e-09	-9.753844e+00	-1.393692e+02
1.250000e-06	-1.226031e-06	-2.061549e-09	-9.601466e+00	-1.383473e+02
1.260000e-06	-1.206572e-06	-2.046407e-09	-9.449075e+00	-1.373102e+02
1.270000e-06	-1.187089e-06	-2.032270e-09	-9.296498e+00	-1.362580e+02
1.280000e-06	-1.167494e-06	-2.015492e-09	-9.143038e+00	-1.351909e+02
1.290000e-06	-1.147854e-06	-1.997744e-09	-8.989236e+00	-1.341090e+02
1.300000e-06	-1.128174e-06	-1.980407e-09	-8.835111e+00	-1.330124e+02
1.310000e-06	-1.108437e-06	-1.964134e-09	-8.680548e+00	-1.319013e+02
1.320000e-06	-1.088672e-06	-1.946210e-09	-8.525763e+00	-1.307759e+02
1.330000e-06	-1.068875e-06	-1.928076e-09	-8.370726e+00	-1.296361e+02
1.340000e-06	-1.049045e-06	-1.912781e-09	-8.215426e+00	-1.284822e+02
1.350000e-06	-1.029203e-06	-1.899055e-09	-8.060034e+00	-1.273141e+02
1.360000e-06	-1.009368e-06	-1.881303e-09	-7.904701e+00	-1.261319e+02
1.370000e-06	-9.895428e-07	-1.864929e-09	-7.749445e+00	-1.249357e+02
1.380000e-06	-9.696529e-07	-1.849154e-09	-7.593680e+00	-1.237253e+02
1.390000e-06	-9.497408e-07	-1.830462e-09	-7.437742e+00	-1.225008e+02
1.400000e-06	-9.297976e-07	-1.811693e-09	-7.281560e+00	-1.212621e+02
1.410000e-06	-9.098353e-07	-1.794532e-09	-7.125229e+00	-1.200089e+02
1.420000e-06	-8.898834e-07	-1.775721e-09	-6.968978e+00	-1.187413e+02
1.430000e-06	-8.699113e-07	-1.754224e-09	-6.812571e+00	-1.174588e+02
1.440000e-06	-8.499318e-07	-1.729643e-09	-6.656104e+00	-1.161613e+02
1.450000e-06	-8.298666e-07	-1.704610e-09	-6.498967e+00	-1.148484e+02
1.460000e-06	-8.096680e-07	-1.682891e-09	-6.340784e+00	-1.135198e+02
1.470000e-06	-7.894764e-07	-1.663007e-09	-6.182658e+00	-1.121750e+02
1.480000e-06	-7.692381e-07	-1.644825e-09	-6.024164e+00	-1.108137e+02
1.490000e-06	-7.488885e-07	-1.624373e-09	-5.864800e+00	-1.094353e+02
1.500000e-06	-7.284811e-07	-1.602532e-09	-5.704982e+00	-1.080392e+02
1.510000e-06	-7.079579e-07	-1.581847e-09	-5.544258e+00	-1.066250e+02
1.520000e-06	-6.874181e-07	-1.561281e-09	-5.383404e+00	-1.051921e+02
1.530000e-06	-6.669249e-07	-1.538702e-09	-5.222915e+00	-1.037397e+02
1.540000e-06	-6.463866e-07	-1.514630e-09	-5.062073e+00	-1.022672e+02
1.550000e-06	-6.257351e-07	-1.492694e-09	-4.900343e+00	-1.007740e+02
1.560000e-06	-6.048968e-07	-1.470775e-09	-4.737152e+00	-9.925936e+01
1.570000e-06	-5.840698e-07	-1.447005e-09	-4.574048e+00	-9.772254e+01
1.580000e-06	-5.632991e-07	-1.423303e-09	-4.411386e+00	-9.616285e+01
1.590000e-06	-5.423851e-07	-1.400321e-09	-4.247602e+00	-9.457956e+01
1.600000e-06	-5.214163e-07	-1.376870e-09	-4.083388e+00	-9.297199e+01
1.610000e-06	-5.004888e-07	-1.352098e-09	-3.919497e+00	-9.133941e+01
1.620000e-06	-4.795781e-07	-1.324869e-09	-3.755739e+00	-8.968117e+01
1.630000e-06	-4.585318e-07	-1.296719e-09	-3.590918e+00	-8.799660e+01
1.640000e-06	-4.373236e-07	-1.270432e-09	-3.424829e+00	-8.628507e+01
1.650000e-06	-4.160265e-07	-1.244977e-09	-3.258044e+00	-8.454601e+01
1.660000e-06	-3.947191e-07	-1.218789e-09	-3.091179e+00	-8.277886e+01
1.670000e-06	-3.734356e-07	-1.191150e-09	-2.924500e+00	-8.098312e+01
1.680000e-06	-3.521110e-07	-1.166067e-09	-2.757500e+00	-7.915836e+01
1.690000e-06	-3.307985e-07	-1.140405e-09	-2.590595e+00	-7.730417e+01
1.700000e-06	-3.094946e-07	-1.110986e-09	-2.423757e+00	-7.542024e+01
1.710000e-06	-2.881959e-07	-1.082419e-09	-2.256959e+00	-7.350631e+01
1.720000e-06	-2.668899e-07	-1.054220e-09	-2.090105e+00	-7.156220e+01
1.730000e-06	-2.455231e-07	-1.022393e-09	-1.922775e+00	-6.958778e+01
1.740000e-06	-2.241242e-07	-9.899429e-10	-1.755193e+00	-6.758302e+01
1.750000e-06	-2.027315e-07	-9.588282e-10	-1.587659e+00	-6.554797e+01
1.760000e-06	-1.813705e-07	-9.283714e-10	-1.420374e+00	-6.348275e+01
1.770000e-06	-1.599696e-07	-8.989550e-10	-1.252776e+00	-6.138756e+01
1.780000e-06	-1.385303e-07	-8.712051e-10	-1.084878e+00	-5.926271e+01
1.790000e-06	-1.171057e-07	-8.419197e-10	-9.170945e-01	-5.710856e+01
1.800000e-06	-9.566802e-08	-8.111667e-10	-7.492086e-01	-5.492557e+01
1.810000e-06	-7.426632e-08	-7.803399e-10	-5.816048e-01	-5.271428e+01
1.820000e-06	-5.282466e-08	-7.471216e-10	-4.136878e-01	-5.047531e+01
1.830000e-06	-3.130506e-08	-7.131221e-10	-2.451605e-01	-4.820935e+01
1.840000e-06	-9.907154e-09	-6.785106e-10	-7.758628e-02	-4.591720e+01
1.850000e-06	1.152473e-08	-6.442212e-10	9.025404e-02	-4.359969e+01
1.860000e-06	3.305953e-08	-6.125529e-10	2.589004e-01	-4.125774e+01
1.870000e-06	5.454751e-08	-5.820662e-10	4.271800e-01	-3.889233e+01
1.880000e-06	7.602769e-08	-5.488773e-10	5.953986e-01	-3.650453e+01
1.890000e-06	9.741684e-08	-5.145092e-10	7.629043e-01	-3.409543e+01
1.900000e-06	1.187986e-07	-4.793871e-10	9.303524e-01	-3.166619e+01
1.910000e-06	1.402710e-07	-4.417672e-10	1.098510e+00	-2.921803e+01
1.920000e-06	1.616290e-07	-4.028167e-10	1.265772e+00	-2.675218e+01
1.930000e-06	1.829910e-07	-3.650694e-10	1.433065e+00	-2.426995e+01
1.940000e-06	2.044278e-07	-3.286081e-10	1.600943e+00	-2.177265e+01
1.950000e-06	2.257837e-07	-2.922368e-10	1.768189e+00	-1.926164e+01
1.960000e-06	2.471681e-07	-2.569282e-10	1.935657e+00	-1.673829e+01
1.970000e-06	2.685781e-07	-2.203434e-10	2.103326e+00	-1.420399e+01
1.980000e-06	2.899292e-07	-1.817662e-10	2.270534e+00	-1.166014e+01
1.990000e-06	3.112535e-07	-1.424831e-10	2.437532e+00	-9.108156e+00
2.000000e-06	3.325051e-07	-1.046145e-10	2.603960e+00	-6.549442e+00
2.010000e-06	3.537749e-07	-6.873894e-11	2.770531e+00	-3.985411e+00
2.020000e-06	3.750199e-07	-3.191004e-11	2.936908e+00	-1.417463e+00
2.030000e-06	3.961926e-07	6.882513e-12	3.102719e+00	1.153010e+00
2.040000e-06	4.173722e-07	4.456257e-11	3.268583e+00	3.724632e+00
2.050000e-06	4.385053e-07	8.171403e-11	3.434083e+00	6.296048e+00
2.060000e-06	4.596173e-07	1.185456e-10	3.599418e+00	8.865922e+00
2.070000e-06	4.806531e-07	1.536013e-10	3.764158e+00	1.143294e+01
2.080000e-06	5.015846e-07	1.879522e-10	3.928079e+00	1.399583e+01
2.090000e-06	5.224917e-07	2.229370e-10	4.091809e+00	1.655334e+01
2.100000e-06	5.433223e-07	2.595760e-10	4.254941e+00	1.910424e+01
2.110000e-06	5.641312e-07	2.958974e-10	4.417902e+00	2.164735e+01
2.120000e-06	5.849011e-07	3.308254e-10	4.580559e+00	2.418152e+01
2.130000e-06	6.056310e-07	3.680461e-10	4.742901e+00	2.670564e+01
2.140000e-06	6.263188e-07	4.064692e-10	4.904914e+00	2.921863e+01
2.150000e-06	6.469348e-07	4.410084e-10	5.066366e+00	3.171945e+01
2.160000e-06	6.675018e-07	4.743323e-10	5.227433e+00	3.420709e+01
2.170000e-06	6.879616e-07	5.112964e-10	5.387660e+00	3.668061e+01
2.180000e-06	7.083515e-07	5.500692e-10	5.547341e+00	3.913907e+01
2.190000e-06	7.286926e-07	5.872888e-10	5.706639e+00	4.158158e+01
2.200000e-06	7.490099e-07	6.245607e-10	5.865750e+00	4.400730e+01
2.210000e-06	7.693169e-07	6.610339e-10	6.024782e+00	4.641542e+01
2.220000e-06	7.895774e-07	6.970042e-10	6.183448e+00	4.880515e+01
2.230000e-06	8.097326e-07	7.346450e-10	6.341290e+00	5.117575e+01
2.240000e-06	8.298194e-07	7.713859e-10	6.498597e+00	5.352653e+01
2.250000e-06	8.498847e-07	8.056080e-10	6.655735e+00	5.585681e+01
2.260000e-06	8.699031e-07	8.376728e-10	6.812506e+00	5.816594e+01
2.270000e-06	8.898945e-07	8.709483e-10	6.969065e+00	6.045333e+01
2.280000e-06	9.098926e-07	9.073766e-10	7.125678e+00	6.271839e+01
2.290000e-06	9.298366e-07	9.423337e-10	7.281866e+00	6.496060e+01
2.300000e-06	9.497259e-07	9.744550e-10	7.437625e+00	6.717942e+01
2.310000e-06	9.695813e-07	1.006474e-09	7.593120e+00	6.937439e+01
2.320000e-06	9.894477e-07	1.038431e-09	7.748701e+00	7.154504e+01
2.330000e-06	1.009315e-06	1.068573e-09	7.904286e+00	7.369096e+01
2.340000e-06	1.029127e-06	1.099416e-09	8.059440e+00	7.581176e+01
2.350000e-06	1.048894e-06	1.133264e-09	8.214245e+00	7.790707e+01
2.360000e-06	1.068643e-06	1.166325e-09	8.368902e+00	7.997656e+01
2.370000e-06	1.088405e-06	1.196420e-09	8.523671e+00	8.201993e+01
2.380000e-06	1.108105e-06	1.226944e-09	8.677944e+00	8.403690e+01
2.390000e-06	1.127741e-06	1.258815e-09	8.831721e+00	8.602724e+01
2.400000e-06	1.147420e-06	1.289431e-09	8.985837e+00	8.799072e+01
2.410000e-06	1.167034e-06	1.318980e-09	9.139436e+00	8.992718e+01
2.420000e-06	1.186497e-06	1.348254e-09	9.291859e+00	9.183646e+01
2.430000e-06	1.205964e-06	1.378787e-09	9.444314e+00	9.371845e+01
2.440000e-06	1.225400e-06	1.408960e-09	9.596521e+00	9.557307e+01
2.450000e-06	1.244678e-06	1.434781e-09	9.747492e+00	9.740027e+01
2.460000e-06	1.263847e-06	1.458937e-09	9.897611e+00	9.920003e+01
2.470000e-06	1.282925e-06	1.485370e-09	1.004702e+01	1.009724e+02
2.480000e-06	1.301876e-06	1.511502e-09	1.019543e+01	1.027173e+02
2.490000e-06	1.320793e-06	1.535938e-09	1.034358e+01	1.044350e+02
2.500000e-06	1.339707e-06	1.560021e-09	1.049170e+01	1.061256e+02
2.510000e-06	1.358422e-06	1.585433e-09	1.063826e+01	1.077891e+02
2.520000e-06	1.376831e-06	1.611487e-09	1.078243e+01	1.094259e+02
2.530000e-06	1.395119e-06	1.637115e-09	1.092565e+01	1.110360e+02
2.540000e-06	1.413360e-06	1.662280e-09	1.106850e+01	1.126198e+02
2.550000e-06	1.431504e-06	1.686287e-09	1.121060e+01	1.141776e+02
2.560000e-06	1.449550e-06	1.709694e-09	1.135192e+01	1.157096e+02
2.570000e-06	1.467407e-06	1.732142e-09	1.149176e+01	1.172163e+02
2.580000e-06	1.485066e-06	1.754732e-09	1.163005e+01	1.186979e+02
2.590000e-06	1.502690e-06	1.778606e-09	1.176807e+01	1.201550e+02
2.600000e-06	1.520287e-06	1.800898e-09	1.190588e+01	1.215878e+02
2.610000e-06	1.537841e-06	1.821687e-09	1.204336e+01	1.229969e+02
2.620000e-06	1.555295e-06	1.842624e-09	1.218004e+01	1.243827e+02
2.630000e-06	1.572663e-06	1.864399e-09	1.231606e+01	1.257458e+02
2.640000e-06	1.590016e-06	1.885438e-09	1.245195e+01	1.270865e+02
2.650000e-06	1.607291e-06	1.904376e-09	1.258724e+01	1.284054e+02
2.660000e-06	1.624540e-06	1.925922e-09	1.272232e+01	1.297030e+02
2.670000e-06	1.641628e-06	1.947322e-09	1.285614e+01	1.309798e+02
2.680000e-06	1.658684e-06	1.965473e-09	1.298971e+01	1.322364e+02
2.690000e-06	1.675775e-06	1.984304e-09	1.312356e+01	1.334732e+02
2.700000e-06	1.692707e-06	2.004665e-09	1.325616e+01	1.346908e+02
2.710000e-06	1.709546e-06	2.024805e-09	1.338803e+01	1.358896e+02
2.720000e-06	1.726291e-06	2.044915e-09	1.351917e+01	1.370702e+02
2.730000e-06	1.742844e-06	2.060423e-09	1.364880e+01	1.382331e+02
2.740000e-06	1.759225e-06	2.075755e-09	1.377709e+01	1.393786e+02
2.750000e-06	1.775485e-06	2.094574e-09	1.390443e+01	1.405073e+02
2.760000e-06	1.791646e-06	2.113592e-09	1.403099e+01	1.416195e+02
2.770000e-06	1.807586e-06	2.129981e-09	1.415582e+01	1.427158e+02
2.780000e-06	1.823170e-06	2.146111e-09	1.427786e+01	1.437963e+02
2.790000e-06	1.838539e-06	2.166851e-09	1.439822e+01	1.448615e+02
2.800000e-06	1.853768e-06	2.187727e-09	1.451749e+01	1.459117e+02
2.810000e-06	1.868666e-06	2.203400e-09	1.463416e+01	1.469472e+02
2.820000e-06	1.883412e-06	2.216588e-09	1.474964e+01	1.479682e+02
2.830000e-06	1.898172e-06	2.232406e-09	1.486523e+01	1.489750e+02
2.840000e-06	1.912698e-06	2.249559e-09	1.497898e+01	1.499678e+02
2.850000e-06	1.927104e-06	2.264297e-09	1.509180e+01	1.509466e+02
2.860000e-06	1.941371e-06	2.275401e-09	1.520353e+01	1.519117e+02
2.870000e-06	1.955406e-06	2.289228e-09	1.531345e+01	1.528632e+02
2.880000e-06	1.969325e-06	2.306485e-09	1.542245e+01	1.538011e+02
2.890000e-06	1.983095e-06	2.321110e-09	1.553029e+01	1.547255e+02
2.900000e-06	1.996771e-06	2.331699e-09	1.563739e+01	1.556364e+02
