# Temperatura_=_20.0
# Concentracion g/m^3_=_12600.0
# C_Vs_to_Am_M_A/Vsm_=_65563218390.804596
# pendiente_HvsI_1/m_=_3716.3
# ordenada_HvsI_A/m_=_1297.0
# frecuencia_Hz_=_302066.2543408269

Tiempo_(s)	Campo_(V.s)	Magnetizacion_(V.s)	Campo_(kA/m)	Magnetizacion_(A/m)
0.000000e+00	-6.781870e-06	-3.738506e-09	-4.744896e+01	-2.465279e+02
1.000000e-08	-6.779521e-06	-3.743687e-09	-4.743253e+01	-2.464253e+02
2.000000e-08	-6.774873e-06	-3.744766e-09	-4.740000e+01	-2.462882e+02
3.000000e-08	-6.768153e-06	-3.742420e-09	-4.735299e+01	-2.461172e+02
4.000000e-08	-6.759225e-06	-3.735724e-09	-4.729052e+01	-2.459115e+02
5.000000e-08	-6.747858e-06	-3.725387e-09	-4.721100e+01	-2.456692e+02
6.000000e-08	-6.733961e-06	-3.718796e-09	-4.711376e+01	-2.453875e+02
7.000000e-08	-6.717627e-06	-3.701271e-09	-4.699948e+01	-2.450636e+02
8.000000e-08	-6.699132e-06	-3.689279e-09	-4.687009e+01	-2.446947e+02
9.000000e-08	-6.678469e-06	-3.755100e-09	-4.672552e+01	-2.442791e+02
1.000000e-07	-6.655247e-06	-3.782159e-09	-4.656305e+01	-2.438161e+02
1.100000e-07	-6.629216e-06	-3.723811e-09	-4.638092e+01	-2.433071e+02
1.200000e-07	-6.600653e-06	-3.686243e-09	-4.618108e+01	-2.427548e+02
1.300000e-07	-6.570012e-06	-3.658102e-09	-4.596671e+01	-2.421635e+02
1.400000e-07	-6.537481e-06	-3.597874e-09	-4.573911e+01	-2.415387e+02
1.500000e-07	-6.503008e-06	-3.690659e-09	-4.549792e+01	-2.408862e+02
1.600000e-07	-6.466574e-06	-3.791510e-09	-4.524301e+01	-2.402116e+02
1.700000e-07	-6.428132e-06	-3.589902e-09	-4.497405e+01	-2.395194e+02
1.800000e-07	-6.387533e-06	-3.632275e-09	-4.469001e+01	-2.388123e+02
1.900000e-07	-6.344451e-06	-3.690084e-09	-4.438858e+01	-2.380907e+02
2.000000e-07	-6.298934e-06	-3.604569e-09	-4.407012e+01	-2.373524e+02
2.100000e-07	-6.251069e-06	-3.688867e-09	-4.373524e+01	-2.365927e+02
2.200000e-07	-6.200553e-06	-3.597579e-09	-4.338181e+01	-2.358045e+02
2.300000e-07	-6.147458e-06	-3.526642e-09	-4.301033e+01	-2.349791e+02
2.400000e-07	-6.092034e-06	-3.560652e-09	-4.262256e+01	-2.341073e+02
2.500000e-07	-6.034324e-06	-3.562595e-09	-4.221880e+01	-2.331796e+02
2.600000e-07	-5.974326e-06	-3.577521e-09	-4.179902e+01	-2.321879e+02
2.700000e-07	-5.912110e-06	-3.529565e-09	-4.136373e+01	-2.311261e+02
2.800000e-07	-5.847739e-06	-3.492801e-09	-4.091336e+01	-2.299904e+02
2.900000e-07	-5.781172e-06	-3.479828e-09	-4.044763e+01	-2.287801e+02
3.000000e-07	-5.712436e-06	-3.499047e-09	-3.996673e+01	-2.274971e+02
3.100000e-07	-5.641604e-06	-3.492755e-09	-3.947116e+01	-2.261462e+02
3.200000e-07	-5.568558e-06	-3.403677e-09	-3.896009e+01	-2.247337e+02
3.300000e-07	-5.493256e-06	-3.399281e-09	-3.843324e+01	-2.232669e+02
3.400000e-07	-5.415765e-06	-3.393521e-09	-3.789108e+01	-2.217534e+02
3.500000e-07	-5.336136e-06	-3.373526e-09	-3.733397e+01	-2.201997e+02
3.600000e-07	-5.254471e-06	-3.343695e-09	-3.676260e+01	-2.186105e+02
3.700000e-07	-5.170999e-06	-3.285208e-09	-3.617859e+01	-2.169887e+02
3.800000e-07	-5.085876e-06	-3.267298e-09	-3.558303e+01	-2.153343e+02
3.900000e-07	-4.999061e-06	-3.263414e-09	-3.497564e+01	-2.136450e+02
4.000000e-07	-4.910546e-06	-3.265229e-09	-3.435635e+01	-2.119165e+02
4.100000e-07	-4.820314e-06	-3.221491e-09	-3.372504e+01	-2.101429e+02
4.200000e-07	-4.728325e-06	-3.170325e-09	-3.308145e+01	-2.083176e+02
4.300000e-07	-4.634725e-06	-3.141964e-09	-3.242658e+01	-2.064340e+02
4.400000e-07	-4.539559e-06	-3.136996e-09	-3.176076e+01	-2.044861e+02
4.500000e-07	-4.442738e-06	-3.129485e-09	-3.108336e+01	-2.024694e+02
4.600000e-07	-4.344211e-06	-3.072687e-09	-3.039402e+01	-2.003807e+02
4.700000e-07	-4.244076e-06	-3.015893e-09	-2.969343e+01	-1.982185e+02
4.800000e-07	-4.142529e-06	-2.988550e-09	-2.898296e+01	-1.959825e+02
4.900000e-07	-4.039591e-06	-2.979781e-09	-2.826276e+01	-1.936736e+02
5.000000e-07	-3.935157e-06	-2.946849e-09	-2.753210e+01	-1.912930e+02
5.100000e-07	-3.829206e-06	-2.887434e-09	-2.679082e+01	-1.888416e+02
5.200000e-07	-3.721696e-06	-2.832945e-09	-2.603863e+01	-1.863196e+02
5.300000e-07	-3.612794e-06	-2.803417e-09	-2.527670e+01	-1.837262e+02
5.400000e-07	-3.502824e-06	-2.784879e-09	-2.450730e+01	-1.810592e+02
5.500000e-07	-3.391612e-06	-2.739642e-09	-2.372922e+01	-1.783151e+02
5.600000e-07	-3.278955e-06	-2.675086e-09	-2.294102e+01	-1.754894e+02
5.700000e-07	-3.164908e-06	-2.623664e-09	-2.214310e+01	-1.725770e+02
5.800000e-07	-3.049443e-06	-2.599205e-09	-2.133525e+01	-1.695728e+02
5.900000e-07	-2.932672e-06	-2.567389e-09	-2.051827e+01	-1.664722e+02
6.000000e-07	-2.814846e-06	-2.508635e-09	-1.969391e+01	-1.632717e+02
6.100000e-07	-2.696117e-06	-2.439198e-09	-1.886322e+01	-1.599691e+02
6.200000e-07	-2.576372e-06	-2.389019e-09	-1.802544e+01	-1.565637e+02
6.300000e-07	-2.455535e-06	-2.355870e-09	-1.718001e+01	-1.530560e+02
6.400000e-07	-2.333826e-06	-2.308663e-09	-1.632848e+01	-1.494478e+02
6.500000e-07	-2.211284e-06	-2.235986e-09	-1.547112e+01	-1.457413e+02
6.600000e-07	-2.087863e-06	-2.160154e-09	-1.460761e+01	-1.419384e+02
6.700000e-07	-1.963645e-06	-2.106386e-09	-1.373853e+01	-1.380404e+02
6.800000e-07	-1.838755e-06	-2.061900e-09	-1.286474e+01	-1.340475e+02
6.900000e-07	-1.713342e-06	-1.999897e-09	-1.198730e+01	-1.299580e+02
7.000000e-07	-1.587429e-06	-1.920007e-09	-1.110635e+01	-1.257687e+02
7.100000e-07	-1.460973e-06	-1.851080e-09	-1.022161e+01	-1.214744e+02
7.200000e-07	-1.334016e-06	-1.798071e-09	-9.333366e+00	-1.170692e+02
7.300000e-07	-1.206679e-06	-1.739865e-09	-8.442458e+00	-1.125461e+02
7.400000e-07	-1.078956e-06	-1.662985e-09	-7.548853e+00	-1.078984e+02
7.500000e-07	-9.507915e-07	-1.578383e-09	-6.652158e+00	-1.031200e+02
7.600000e-07	-8.222790e-07	-1.504876e-09	-5.753027e+00	-9.820626e+01
7.700000e-07	-6.934333e-07	-1.437456e-09	-4.851566e+00	-9.315420e+01
7.800000e-07	-5.643268e-07	-1.360577e-09	-3.948280e+00	-8.796281e+01
7.900000e-07	-4.350977e-07	-1.269327e-09	-3.044136e+00	-8.263281e+01
8.000000e-07	-3.057563e-07	-1.176719e-09	-2.139206e+00	-7.716628e+01
8.100000e-07	-1.763077e-07	-1.095004e-09	-1.233527e+00	-7.156599e+01
8.200000e-07	-4.680848e-08	-1.016773e-09	-3.274928e-01	-6.583457e+01
8.300000e-07	8.274911e-08	-9.259567e-10	5.789493e-01	-5.997372e+01
8.400000e-07	2.123307e-07	-8.245883e-10	1.485559e+00	-5.398344e+01
8.500000e-07	3.418460e-07	-7.296182e-10	2.391705e+00	-4.786159e+01
8.600000e-07	4.712824e-07	-6.430696e-10	3.297300e+00	-4.160367e+01
8.700000e-07	6.006332e-07	-5.507107e-10	4.202295e+00	-3.520304e+01
8.800000e-07	7.298939e-07	-4.455258e-10	5.106660e+00	-2.865155e+01
8.900000e-07	8.589681e-07	-3.373077e-10	6.009720e+00	-2.194048e+01
9.000000e-07	9.877272e-07	-2.353990e-10	6.910576e+00	-1.506187e+01
9.100000e-07	1.116107e-06	-1.361474e-10	7.808774e+00	-8.009899e+00
9.200000e-07	1.244021e-06	-2.664706e-11	8.703721e+00	-7.823641e-01
9.300000e-07	1.371403e-06	9.328309e-11	9.594941e+00	6.617987e+00
9.400000e-07	1.498274e-06	2.116746e-10	1.048258e+01	1.418243e+01
9.500000e-07	1.624580e-06	3.264984e-10	1.136628e+01	2.189560e+01
9.600000e-07	1.750346e-06	4.446687e-10	1.224620e+01	2.973535e+01
9.700000e-07	1.875645e-06	5.689469e-10	1.312284e+01	3.767309e+01
9.800000e-07	2.000338e-06	6.942047e-10	1.399525e+01	4.567466e+01
9.900000e-07	2.124239e-06	8.170813e-10	1.486211e+01	5.370156e+01
1.000000e-06	2.247296e-06	9.386243e-10	1.572308e+01	6.171262e+01
1.010000e-06	2.369514e-06	1.062406e-09	1.657816e+01	6.966571e+01
1.020000e-06	2.490854e-06	1.184655e-09	1.742712e+01	7.751967e+01
1.030000e-06	2.611246e-06	1.302636e-09	1.826943e+01	8.523594e+01
1.040000e-06	2.730597e-06	1.415911e-09	1.910446e+01	9.278009e+01
1.050000e-06	2.848965e-06	1.525378e-09	1.993262e+01	1.001230e+02
1.060000e-06	2.966349e-06	1.632668e-09	2.075388e+01	1.072415e+02
1.070000e-06	3.082620e-06	1.738858e-09	2.156737e+01	1.141187e+02
1.080000e-06	3.197659e-06	1.842327e-09	2.237223e+01	1.207442e+02
1.090000e-06	3.311398e-06	1.941074e-09	2.316801e+01	1.271132e+02
1.100000e-06	3.423834e-06	2.035033e-09	2.395465e+01	1.332258e+02
1.110000e-06	3.535000e-06	2.124711e-09	2.473242e+01	1.390865e+02
1.120000e-06	3.644992e-06	2.211286e-09	2.550197e+01	1.447026e+02
1.130000e-06	3.753851e-06	2.294807e-09	2.626360e+01	1.500835e+02
1.140000e-06	3.861470e-06	2.375059e-09	2.701655e+01	1.552399e+02
1.150000e-06	3.967690e-06	2.451459e-09	2.775971e+01	1.601825e+02
1.160000e-06	4.072421e-06	2.523300e-09	2.849246e+01	1.649216e+02
1.170000e-06	4.175637e-06	2.591072e-09	2.921460e+01	1.694668e+02
1.180000e-06	4.277376e-06	2.658011e-09	2.992641e+01	1.738268e+02
1.190000e-06	4.377682e-06	2.722552e-09	3.062820e+01	1.780088e+02
1.200000e-06	4.476437e-06	2.782330e-09	3.131913e+01	1.820192e+02
1.210000e-06	4.573461e-06	2.838843e-09	3.199795e+01	1.858634e+02
1.220000e-06	4.668751e-06	2.895516e-09	3.266464e+01	1.895462e+02
1.230000e-06	4.762449e-06	2.950708e-09	3.332020e+01	1.930719e+02
1.240000e-06	4.854598e-06	3.002775e-09	3.396491e+01	1.964447e+02
1.250000e-06	4.945038e-06	3.053134e-09	3.459767e+01	1.996686e+02
1.260000e-06	5.033594e-06	3.100809e-09	3.521724e+01	2.027479e+02
1.270000e-06	5.120279e-06	3.144767e-09	3.582373e+01	2.056869e+02
1.280000e-06	5.205202e-06	3.187537e-09	3.641789e+01	2.084901e+02
1.290000e-06	5.288340e-06	3.229055e-09	3.699956e+01	2.111621e+02
1.300000e-06	5.369599e-06	3.269051e-09	3.756808e+01	2.137074e+02
1.310000e-06	5.448895e-06	3.306530e-09	3.812288e+01	2.161303e+02
1.320000e-06	5.526130e-06	3.341412e-09	3.866325e+01	2.184350e+02
1.330000e-06	5.601228e-06	3.374308e-09	3.918867e+01	2.206252e+02
1.340000e-06	5.674149e-06	3.406362e-09	3.969885e+01	2.227043e+02
1.350000e-06	5.744952e-06	3.435942e-09	4.019422e+01	2.246751e+02
1.360000e-06	5.813765e-06	3.462100e-09	4.067567e+01	2.265403e+02
1.370000e-06	5.880561e-06	3.487652e-09	4.114300e+01	2.283021e+02
1.380000e-06	5.945198e-06	3.513692e-09	4.159523e+01	2.299627e+02
1.390000e-06	6.007705e-06	3.539791e-09	4.203256e+01	2.315245e+02
1.400000e-06	6.068252e-06	3.562841e-09	4.245617e+01	2.329901e+02
1.410000e-06	6.126750e-06	3.583316e-09	4.286545e+01	2.343624e+02
1.420000e-06	6.183034e-06	3.603683e-09	4.325923e+01	2.356452e+02
1.430000e-06	6.237060e-06	3.624098e-09	4.363722e+01	2.368424e+02
1.440000e-06	6.288629e-06	3.641751e-09	4.399803e+01	2.379591e+02
1.450000e-06	6.337616e-06	3.655803e-09	4.434076e+01	2.390002e+02
1.460000e-06	6.384207e-06	3.668870e-09	4.466673e+01	2.399712e+02
1.470000e-06	6.428636e-06	3.683142e-09	4.497758e+01	2.408774e+02
1.480000e-06	6.470849e-06	3.696511e-09	4.527291e+01	2.417236e+02
1.490000e-06	6.510627e-06	3.708639e-09	4.555122e+01	2.425142e+02
1.500000e-06	6.548126e-06	3.720655e-09	4.581358e+01	2.432524e+02
1.510000e-06	6.583491e-06	3.731255e-09	4.606101e+01	2.439402e+02
1.520000e-06	6.616464e-06	3.741107e-09	4.629171e+01	2.445786e+02
1.530000e-06	6.647072e-06	3.750734e-09	4.650585e+01	2.451674e+02
1.540000e-06	6.675519e-06	3.760456e-09	4.670488e+01	2.457053e+02
1.550000e-06	6.701525e-06	3.768270e-09	4.688683e+01	2.461906e+02
1.560000e-06	6.724926e-06	3.773778e-09	4.705055e+01	2.466210e+02
1.570000e-06	6.745986e-06	3.778616e-09	4.719790e+01	2.469948e+02
1.580000e-06	6.764748e-06	3.782471e-09	4.732917e+01	2.473105e+02
1.590000e-06	6.780982e-06	3.786026e-09	4.744274e+01	2.475676e+02
1.600000e-06	6.794666e-06	3.789990e-09	4.753849e+01	2.477669e+02
1.610000e-06	6.805794e-06	3.794301e-09	4.761634e+01	2.479102e+02
1.620000e-06	6.814228e-06	3.799055e-09	4.767535e+01	2.480004e+02
1.630000e-06	6.820164e-06	3.802939e-09	4.771688e+01	2.480411e+02
1.640000e-06	6.823790e-06	3.804321e-09	4.774225e+01	2.480364e+02
1.650000e-06	6.825005e-06	3.806894e-09	4.775075e+01	2.479904e+02
1.660000e-06	6.823841e-06	3.805049e-09	4.774261e+01	2.479065e+02
1.670000e-06	6.820524e-06	3.795824e-09	4.771940e+01	2.477872e+02
1.680000e-06	6.814934e-06	3.790974e-09	4.768029e+01	2.476339e+02
1.690000e-06	6.806961e-06	3.787678e-09	4.762451e+01	2.474465e+02
1.700000e-06	6.796866e-06	3.787712e-09	4.755387e+01	2.472236e+02
1.710000e-06	6.784499e-06	3.791984e-09	4.746735e+01	2.469629e+02
1.720000e-06	6.769636e-06	3.807924e-09	4.736336e+01	2.466615e+02
1.730000e-06	6.752589e-06	3.807995e-09	4.724410e+01	2.463166e+02
1.740000e-06	6.733478e-06	3.707578e-09	4.711038e+01	2.459256e+02
1.750000e-06	6.711627e-06	3.676222e-09	4.695750e+01	2.454875e+02
1.760000e-06	6.686503e-06	3.729608e-09	4.678173e+01	2.450025e+02
1.770000e-06	6.658638e-06	3.740576e-09	4.658677e+01	2.444725e+02
1.780000e-06	6.628579e-06	3.807242e-09	4.637647e+01	2.439010e+02
1.790000e-06	6.596684e-06	3.839515e-09	4.615332e+01	2.432929e+02
1.800000e-06	6.563337e-06	3.611440e-09	4.592000e+01	2.426541e+02
1.810000e-06	6.527987e-06	3.632605e-09	4.567268e+01	2.419902e+02
1.820000e-06	6.490111e-06	3.716577e-09	4.540768e+01	2.413065e+02
1.830000e-06	6.450072e-06	3.600648e-09	4.512755e+01	2.406067e+02
1.840000e-06	6.407936e-06	3.721819e-09	4.483275e+01	2.398925e+02
1.850000e-06	6.363620e-06	3.567773e-09	4.452270e+01	2.391631e+02
1.860000e-06	6.317029e-06	3.511994e-09	4.419672e+01	2.384151e+02
1.870000e-06	6.268014e-06	3.713478e-09	4.385379e+01	2.376427e+02
1.880000e-06	6.216775e-06	3.646198e-09	4.349530e+01	2.368379e+02
1.890000e-06	6.162940e-06	3.656789e-09	4.311865e+01	2.359917e+02
1.900000e-06	6.106470e-06	3.536909e-09	4.272356e+01	2.350945e+02
1.910000e-06	6.047808e-06	3.495413e-09	4.231313e+01	2.341376e+02
1.920000e-06	5.986857e-06	3.607031e-09	4.188670e+01	2.331135e+02
1.930000e-06	5.923635e-06	3.517416e-09	4.144437e+01	2.320172e+02
1.940000e-06	5.858223e-06	3.541567e-09	4.098672e+01	2.308463e+02
1.950000e-06	5.790726e-06	3.459584e-09	4.051448e+01	2.296014e+02
1.960000e-06	5.721045e-06	3.458159e-09	4.002696e+01	2.282857e+02
1.970000e-06	5.648979e-06	3.480920e-09	3.952275e+01	2.269048e+02
1.980000e-06	5.574780e-06	3.407253e-09	3.900363e+01	2.254657e+02
1.990000e-06	5.498410e-06	3.447400e-09	3.846930e+01	2.239759e+02
2.000000e-06	5.419848e-06	3.354260e-09	3.791965e+01	2.224425e+02
2.010000e-06	5.339312e-06	3.357601e-09	3.735618e+01	2.208714e+02
2.020000e-06	5.256941e-06	3.368313e-09	3.677988e+01	2.192664e+02
2.030000e-06	5.172773e-06	3.339880e-09	3.619100e+01	2.176291e+02
2.040000e-06	5.086710e-06	3.301067e-09	3.558887e+01	2.159584e+02
2.050000e-06	4.998812e-06	3.210587e-09	3.497390e+01	2.142511e+02
2.060000e-06	4.909235e-06	3.231772e-09	3.434718e+01	2.125020e+02
2.070000e-06	4.818146e-06	3.224515e-09	3.370988e+01	2.107048e+02
2.080000e-06	4.725404e-06	3.205408e-09	3.306101e+01	2.088527e+02
2.090000e-06	4.630856e-06	3.124568e-09	3.239951e+01	2.069395e+02
2.100000e-06	4.534623e-06	3.073279e-09	3.172623e+01	2.049597e+02
2.110000e-06	4.436866e-06	3.081999e-09	3.104227e+01	2.029094e+02
2.120000e-06	4.337700e-06	3.068801e-09	3.034847e+01	2.007862e+02
2.130000e-06	4.237000e-06	3.034134e-09	2.964392e+01	1.985892e+02
2.140000e-06	4.134633e-06	2.958042e-09	2.892772e+01	1.963188e+02
2.150000e-06	4.030630e-06	2.927034e-09	2.820007e+01	1.939759e+02
2.160000e-06	3.925200e-06	2.918628e-09	2.746243e+01	1.915619e+02
2.170000e-06	3.818527e-06	2.906508e-09	2.671610e+01	1.890773e+02
2.180000e-06	3.710528e-06	2.842810e-09	2.596049e+01	1.865219e+02
2.190000e-06	3.601206e-06	2.772857e-09	2.519563e+01	1.838942e+02
2.200000e-06	3.490533e-06	2.744537e-09	2.442131e+01	1.811914e+02
2.210000e-06	3.378457e-06	2.737540e-09	2.363718e+01	1.784096e+02
2.220000e-06	3.265054e-06	2.694002e-09	2.284376e+01	1.755438e+02
2.230000e-06	3.150391e-06	2.607959e-09	2.204153e+01	1.725889e+02
2.240000e-06	3.034378e-06	2.544403e-09	2.122985e+01	1.695400e+02
2.250000e-06	2.917076e-06	2.524659e-09	2.040915e+01	1.663929e+02
2.260000e-06	2.798698e-06	2.511376e-09	1.958093e+01	1.631447e+02
2.270000e-06	2.679169e-06	2.443311e-09	1.874465e+01	1.597939e+02
2.280000e-06	2.558510e-06	2.351797e-09	1.790046e+01	1.563404e+02
2.290000e-06	2.436972e-06	2.291261e-09	1.705013e+01	1.527854e+02
2.300000e-06	2.314731e-06	2.273800e-09	1.619488e+01	1.491308e+02
2.310000e-06	2.191790e-06	2.239449e-09	1.533473e+01	1.453788e+02
2.320000e-06	2.068047e-06	2.157590e-09	1.446897e+01	1.415312e+02
2.330000e-06	1.943478e-06	2.067602e-09	1.359743e+01	1.375888e+02
2.340000e-06	1.818239e-06	2.015687e-09	1.272121e+01	1.335508e+02
2.350000e-06	1.692473e-06	1.984783e-09	1.184129e+01	1.294150e+02
2.360000e-06	1.566189e-06	1.924055e-09	1.095775e+01	1.251772e+02
2.370000e-06	1.439344e-06	1.829829e-09	1.007029e+01	1.208318e+02
2.380000e-06	1.311985e-06	1.740506e-09	9.179227e+00	1.163722e+02
2.390000e-06	1.184183e-06	1.687733e-09	8.285069e+00	1.117916e+02
2.400000e-06	1.055887e-06	1.640635e-09	7.387454e+00	1.070834e+02
2.410000e-06	9.272066e-07	1.560982e-09	6.487147e+00	1.022422e+02
2.420000e-06	7.982398e-07	1.458208e-09	5.584838e+00	9.726405e+01
2.430000e-06	6.690398e-07	1.373290e-09	4.680898e+00	9.214684e+01
2.440000e-06	5.397154e-07	1.317303e-09	3.776088e+00	8.689044e+01
2.450000e-06	4.102477e-07	1.253520e-09	2.870274e+00	8.149626e+01
2.460000e-06	2.806196e-07	1.156678e-09	1.963339e+00	7.596681e+01
2.470000e-06	1.509102e-07	1.049638e-09	1.055835e+00	7.030488e+01
2.480000e-06	2.116814e-08	9.662723e-10	1.481017e-01	6.451277e+01
2.490000e-06	-1.085630e-07	8.960605e-10	-7.595549e-01	5.859148e+01
2.500000e-06	-2.382738e-07	8.072074e-10	-1.667069e+00	5.254005e+01
2.510000e-06	-3.679802e-07	6.971472e-10	-2.574552e+00	4.635526e+01
2.520000e-06	-4.975956e-07	5.892955e-10	-3.481399e+00	4.003155e+01
2.530000e-06	-6.270659e-07	4.977901e-10	-4.387230e+00	3.356148e+01
2.540000e-06	-7.563932e-07	4.068656e-10	-5.292061e+00	2.693650e+01
2.550000e-06	-8.855462e-07	3.001526e-10	-6.195672e+00	2.014807e+01
2.560000e-06	-1.014354e-06	1.844279e-10	-7.096868e+00	1.318904e+01
2.570000e-06	-1.142727e-06	7.577554e-11	-7.995020e+00	6.055083e+00
2.580000e-06	-1.270665e-06	-2.488962e-11	-8.890131e+00	-1.253843e+00
2.590000e-06	-1.398145e-06	-1.341720e-10	-9.782037e+00	-8.732326e+00
2.600000e-06	-1.525124e-06	-2.583214e-10	-1.067044e+01	-1.636861e+01
2.610000e-06	-1.651521e-06	-3.829146e-10	-1.155477e+01	-2.414418e+01
2.620000e-06	-1.777262e-06	-4.978185e-10	-1.243451e+01	-3.203382e+01
2.630000e-06	-1.902257e-06	-6.105906e-10	-1.330903e+01	-4.000621e+01
2.640000e-06	-2.026505e-06	-7.307026e-10	-1.417832e+01	-4.802500e+01
2.650000e-06	-2.149999e-06	-8.564595e-10	-1.504234e+01	-5.605024e+01
2.660000e-06	-2.272639e-06	-9.788749e-10	-1.590039e+01	-6.404008e+01
2.670000e-06	-2.394422e-06	-1.095312e-09	-1.675244e+01	-7.195261e+01
2.680000e-06	-2.515391e-06	-1.210799e-09	-1.759879e+01	-7.974769e+01
2.690000e-06	-2.635435e-06	-1.329136e-09	-1.843867e+01	-8.738850e+01
2.700000e-06	-2.754406e-06	-1.447486e-09	-1.927104e+01	-9.484295e+01
2.710000e-06	-2.872240e-06	-1.558819e-09	-2.009546e+01	-1.020846e+02
2.720000e-06	-2.988886e-06	-1.662209e-09	-2.091157e+01	-1.090933e+02
2.730000e-06	-3.104306e-06	-1.762929e-09	-2.171910e+01	-1.158551e+02
2.740000e-06	-3.218485e-06	-1.862701e-09	-2.251795e+01	-1.223622e+02
2.750000e-06	-3.331333e-06	-1.959535e-09	-2.330748e+01	-1.286123e+02
2.760000e-06	-3.442804e-06	-2.050183e-09	-2.408738e+01	-1.346077e+02
2.770000e-06	-3.552980e-06	-2.134430e-09	-2.485822e+01	-1.403542e+02
2.780000e-06	-3.661974e-06	-2.216962e-09	-2.562079e+01	-1.458603e+02
2.790000e-06	-3.769846e-06	-2.299093e-09	-2.637551e+01	-1.511361e+02
2.800000e-06	-3.876500e-06	-2.377557e-09	-2.712171e+01	-1.561924e+02
2.810000e-06	-3.981840e-06	-2.450004e-09	-2.785871e+01	-1.610397e+02
2.820000e-06	-4.085748e-06	-2.516949e-09	-2.858570e+01	-1.656882e+02
2.830000e-06	-4.188069e-06	-2.584588e-09	-2.930158e+01	-1.701469e+02
2.840000e-06	-4.288815e-06	-2.653959e-09	-3.000644e+01	-1.744238e+02
2.850000e-06	-4.388067e-06	-2.718801e-09	-3.070086e+01	-1.785259e+02
2.860000e-06	-4.485903e-06	-2.776773e-09	-3.138536e+01	-1.824589e+02
2.870000e-06	-4.582232e-06	-2.831909e-09	-3.205932e+01	-1.862281e+02
2.880000e-06	-4.676906e-06	-2.888600e-09	-3.272170e+01	-1.898379e+02
2.890000e-06	-4.769873e-06	-2.944428e-09	-3.337214e+01	-1.932926e+02
2.900000e-06	-4.861091e-06	-2.994909e-09	-3.401034e+01	-1.965962e+02
2.910000e-06	-4.950603e-06	-3.039961e-09	-3.463661e+01	-1.997530e+02
2.920000e-06	-5.038337e-06	-3.083538e-09	-3.525043e+01	-2.027670e+02
2.930000e-06	-5.124157e-06	-3.128305e-09	-3.585087e+01	-2.056429e+02
2.940000e-06	-5.208117e-06	-3.171319e-09	-3.643829e+01	-2.083851e+02
