# Temperatura_=_20.0
# Concentracion g/m^3_=_12600.0
# C_Vs_to_Am_M_A/Vsm_=_65563218390.804596
# pendiente_HvsI_1/m_=_3716.3
# ordenada_HvsI_A/m_=_1297.0
# frecuencia_Hz_=_302062.19467590476

Tiempo_(s)	Campo_(V.s)	Magnetizacion_(V.s)	Campo_(kA/m)	Magnetizacion_(A/m)
0.000000e+00	-6.772877e-06	-3.734110e-09	-4.745776e+01	-2.462113e+02
1.000000e-08	-6.771048e-06	-3.736383e-09	-4.744494e+01	-2.461108e+02
2.000000e-08	-6.766888e-06	-3.737285e-09	-4.741579e+01	-2.459731e+02
3.000000e-08	-6.760588e-06	-3.734264e-09	-4.737165e+01	-2.457998e+02
4.000000e-08	-6.752155e-06	-3.729377e-09	-4.731256e+01	-2.455907e+02
5.000000e-08	-6.741305e-06	-3.723400e-09	-4.723653e+01	-2.453439e+02
6.000000e-08	-6.727835e-06	-3.720660e-09	-4.714215e+01	-2.450558e+02
7.000000e-08	-6.711912e-06	-3.712188e-09	-4.703057e+01	-2.447220e+02
8.000000e-08	-6.693823e-06	-3.692829e-09	-4.690382e+01	-2.443377e+02
9.000000e-08	-6.673684e-06	-3.708089e-09	-4.676271e+01	-2.438990e+02
1.000000e-07	-6.651077e-06	-3.741750e-09	-4.660430e+01	-2.434032e+02
1.100000e-07	-6.625603e-06	-3.720950e-09	-4.642580e+01	-2.428500e+02
1.200000e-07	-6.597520e-06	-3.690145e-09	-4.622903e+01	-2.422417e+02
1.300000e-07	-6.567282e-06	-3.677752e-09	-4.601714e+01	-2.415831e+02
1.400000e-07	-6.535144e-06	-3.643028e-09	-4.579196e+01	-2.408817e+02
1.500000e-07	-6.501165e-06	-3.633677e-09	-4.555386e+01	-2.401465e+02
1.600000e-07	-6.465221e-06	-3.727647e-09	-4.530201e+01	-2.393872e+02
1.700000e-07	-6.427177e-06	-3.654932e-09	-4.503543e+01	-2.386132e+02
1.800000e-07	-6.387040e-06	-3.586826e-09	-4.475419e+01	-2.378321e+02
1.900000e-07	-6.344512e-06	-3.641910e-09	-4.445619e+01	-2.370488e+02
2.000000e-07	-6.299507e-06	-3.585894e-09	-4.414084e+01	-2.362649e+02
2.100000e-07	-6.252243e-06	-3.633222e-09	-4.380966e+01	-2.354779e+02
2.200000e-07	-6.202351e-06	-3.615484e-09	-4.346006e+01	-2.346815e+02
2.300000e-07	-6.149802e-06	-3.513897e-09	-4.309185e+01	-2.338662e+02
2.400000e-07	-6.094937e-06	-3.523783e-09	-4.270741e+01	-2.330201e+02
2.500000e-07	-6.037785e-06	-3.526237e-09	-4.230694e+01	-2.321304e+02
2.600000e-07	-5.978380e-06	-3.541342e-09	-4.189069e+01	-2.311845e+02
2.700000e-07	-5.916794e-06	-3.541187e-09	-4.145916e+01	-2.301717e+02
2.800000e-07	-5.853007e-06	-3.481888e-09	-4.101220e+01	-2.290840e+02
2.900000e-07	-5.786981e-06	-3.439288e-09	-4.054955e+01	-2.279171e+02
3.000000e-07	-5.718778e-06	-3.455917e-09	-4.007165e+01	-2.266709e+02
3.100000e-07	-5.648450e-06	-3.486996e-09	-3.957886e+01	-2.253486e+02
3.200000e-07	-5.575967e-06	-3.417269e-09	-3.907097e+01	-2.239571e+02
3.300000e-07	-5.501234e-06	-3.368415e-09	-3.854731e+01	-2.225050e+02
3.400000e-07	-5.424250e-06	-3.363851e-09	-3.800788e+01	-2.210019e+02
3.500000e-07	-5.345139e-06	-3.343653e-09	-3.745355e+01	-2.194567e+02
3.600000e-07	-5.264004e-06	-3.335563e-09	-3.688504e+01	-2.178768e+02
3.700000e-07	-5.181046e-06	-3.286353e-09	-3.630375e+01	-2.162667e+02
3.800000e-07	-5.096378e-06	-3.239301e-09	-3.571048e+01	-2.146278e+02
3.900000e-07	-5.009999e-06	-3.227031e-09	-3.510521e+01	-2.129582e+02
4.000000e-07	-4.921992e-06	-3.242126e-09	-3.448855e+01	-2.112528e+02
4.100000e-07	-4.832242e-06	-3.224982e-09	-3.385967e+01	-2.095046e+02
4.200000e-07	-4.740666e-06	-3.161268e-09	-3.321799e+01	-2.077053e+02
4.300000e-07	-4.647485e-06	-3.112657e-09	-3.256507e+01	-2.058466e+02
4.400000e-07	-4.552743e-06	-3.104108e-09	-3.190121e+01	-2.039212e+02
4.500000e-07	-4.456350e-06	-3.113606e-09	-3.122578e+01	-2.019236e+02
4.600000e-07	-4.358266e-06	-3.077259e-09	-3.053851e+01	-1.998509e+02
4.700000e-07	-4.258623e-06	-3.008872e-09	-2.984030e+01	-1.977024e+02
4.800000e-07	-4.157505e-06	-2.962822e-09	-2.913176e+01	-1.954799e+02
4.900000e-07	-4.054957e-06	-2.949896e-09	-2.841321e+01	-1.931865e+02
5.000000e-07	-3.950961e-06	-2.937862e-09	-2.768451e+01	-1.908260e+02
5.100000e-07	-3.845415e-06	-2.888631e-09	-2.694494e+01	-1.884022e+02
5.200000e-07	-3.738345e-06	-2.818358e-09	-2.619470e+01	-1.859172e+02
5.300000e-07	-3.629952e-06	-2.773477e-09	-2.543518e+01	-1.833714e+02
5.400000e-07	-3.520324e-06	-2.763024e-09	-2.466702e+01	-1.807628e+02
5.500000e-07	-3.409414e-06	-2.739623e-09	-2.388987e+01	-1.780867e+02
5.600000e-07	-3.297194e-06	-2.681279e-09	-2.310354e+01	-1.753368e+02
5.700000e-07	-3.183562e-06	-2.618897e-09	-2.230731e+01	-1.725048e+02
5.800000e-07	-3.068479e-06	-2.582684e-09	-2.150093e+01	-1.695824e+02
5.900000e-07	-2.952102e-06	-2.558086e-09	-2.068547e+01	-1.665613e+02
6.000000e-07	-2.834592e-06	-2.514274e-09	-1.986207e+01	-1.634347e+02
6.100000e-07	-2.716092e-06	-2.446851e-09	-1.903174e+01	-1.601979e+02
6.200000e-07	-2.596654e-06	-2.382777e-09	-1.819483e+01	-1.568485e+02
6.300000e-07	-2.476210e-06	-2.341514e-09	-1.735088e+01	-1.533865e+02
6.400000e-07	-2.354860e-06	-2.304417e-09	-1.650057e+01	-1.498141e+02
6.500000e-07	-2.232658e-06	-2.245471e-09	-1.564430e+01	-1.461348e+02
6.600000e-07	-2.109559e-06	-2.171108e-09	-1.478174e+01	-1.423526e+02
6.700000e-07	-1.985634e-06	-2.108199e-09	-1.391340e+01	-1.384711e+02
6.800000e-07	-1.861084e-06	-2.059202e-09	-1.304068e+01	-1.344927e+02
6.900000e-07	-1.735976e-06	-2.003571e-09	-1.216404e+01	-1.304176e+02
7.000000e-07	-1.610325e-06	-1.931500e-09	-1.128360e+01	-1.262441e+02
7.100000e-07	-1.484185e-06	-1.857920e-09	-1.039973e+01	-1.219678e+02
7.200000e-07	-1.357592e-06	-1.794103e-09	-9.512686e+00	-1.175827e+02
7.300000e-07	-1.230571e-06	-1.733091e-09	-8.622647e+00	-1.130816e+02
7.400000e-07	-1.103121e-06	-1.663990e-09	-7.729599e+00	-1.084567e+02
7.500000e-07	-9.752694e-07	-1.587391e-09	-6.833743e+00	-1.037010e+02
7.600000e-07	-8.470124e-07	-1.512376e-09	-5.935042e+00	-9.880917e+01
7.700000e-07	-7.183644e-07	-1.441185e-09	-5.033601e+00	-9.377757e+01
7.800000e-07	-5.894750e-07	-1.364052e-09	-4.130469e+00	-8.860506e+01
7.900000e-07	-4.604386e-07	-1.277232e-09	-3.226308e+00	-8.329267e+01
8.000000e-07	-3.312771e-07	-1.189344e-09	-2.321269e+00	-7.784310e+01
8.100000e-07	-2.020028e-07	-1.105450e-09	-1.415439e+00	-7.225988e+01
8.200000e-07	-7.265339e-08	-1.020975e-09	-5.090845e-01	-6.654641e+01
8.300000e-07	5.671821e-08	-9.298179e-10	3.974262e-01	-6.070488e+01
8.400000e-07	1.860546e-07	-8.358365e-10	1.303690e+00	-5.473535e+01
8.500000e-07	3.153231e-07	-7.462605e-10	2.209478e+00	-4.863517e+01
8.600000e-07	4.445541e-07	-6.567492e-10	3.115004e+00	-4.239880e+01
8.700000e-07	5.737317e-07	-5.583473e-10	4.020156e+00	-3.601808e+01
8.800000e-07	7.028384e-07	-4.530299e-10	4.924810e+00	-2.948307e+01
8.900000e-07	8.318020e-07	-3.509208e-10	5.828462e+00	-2.278329e+01
9.000000e-07	9.604719e-07	-2.539576e-10	6.730056e+00	-1.590927e+01
9.100000e-07	1.088732e-06	-1.507915e-10	7.628780e+00	-8.854314e+00
9.200000e-07	1.216582e-06	-3.480821e-11	8.524626e+00	-1.616111e+00
9.300000e-07	1.343953e-06	8.329908e-11	9.417121e+00	5.801773e+00
9.400000e-07	1.470742e-06	1.935671e-10	1.030554e+01	1.338889e+01
9.500000e-07	1.597005e-06	3.033693e-10	1.119026e+01	2.112740e+01
9.600000e-07	1.722785e-06	4.255597e-10	1.207161e+01	2.899218e+01
9.700000e-07	1.848037e-06	5.568765e-10	1.294925e+01	3.695154e+01
9.800000e-07	1.972661e-06	6.825171e-10	1.382249e+01	4.496845e+01
9.900000e-07	2.096604e-06	7.987547e-10	1.469097e+01	5.300217e+01
1.000000e-06	2.219718e-06	9.164606e-10	1.555363e+01	6.101021e+01
1.010000e-06	2.341946e-06	1.045395e-09	1.641009e+01	6.895026e+01
1.020000e-06	2.463355e-06	1.174677e-09	1.726080e+01	7.678208e+01
1.030000e-06	2.583826e-06	1.289265e-09	1.810495e+01	8.446915e+01
1.040000e-06	2.703222e-06	1.393775e-09	1.894156e+01	9.197985e+01
1.050000e-06	2.821562e-06	1.501884e-09	1.977077e+01	9.928831e+01
1.060000e-06	2.938923e-06	1.616080e-09	2.059312e+01	1.063747e+02
1.070000e-06	3.055202e-06	1.725578e-09	2.140789e+01	1.132252e+02
1.080000e-06	3.170205e-06	1.823724e-09	2.221372e+01	1.198315e+02
1.090000e-06	3.283936e-06	1.917260e-09	2.301064e+01	1.261900e+02
1.100000e-06	3.396438e-06	2.014013e-09	2.379894e+01	1.323012e+02
1.110000e-06	3.507650e-06	2.111610e-09	2.457821e+01	1.381685e+02
1.120000e-06	3.617674e-06	2.201681e-09	2.534915e+01	1.437977e+02
1.130000e-06	3.726618e-06	2.279945e-09	2.611253e+01	1.491957e+02
1.140000e-06	3.834369e-06	2.353780e-09	2.686754e+01	1.543705e+02
1.150000e-06	3.940746e-06	2.432623e-09	2.761293e+01	1.593303e+02
1.160000e-06	4.045632e-06	2.510698e-09	2.834787e+01	1.640833e+02
1.170000e-06	4.148968e-06	2.578935e-09	2.907195e+01	1.686378e+02
1.180000e-06	4.250841e-06	2.639413e-09	2.978577e+01	1.730015e+02
1.190000e-06	4.351303e-06	2.700581e-09	3.048971e+01	1.771820e+02
1.200000e-06	4.450190e-06	2.765446e-09	3.118262e+01	1.811865e+02
1.210000e-06	4.547375e-06	2.829150e-09	3.186360e+01	1.850216e+02
1.220000e-06	4.642864e-06	2.884737e-09	3.253269e+01	1.886938e+02
1.230000e-06	4.736725e-06	2.933350e-09	3.319038e+01	1.922088e+02
1.240000e-06	4.829011e-06	2.982693e-09	3.383703e+01	1.955720e+02
1.250000e-06	4.919639e-06	3.035281e-09	3.447206e+01	1.987883e+02
1.260000e-06	5.008411e-06	3.085208e-09	3.509409e+01	2.018622e+02
1.270000e-06	5.095302e-06	3.125755e-09	3.570294e+01	2.047978e+02
1.280000e-06	5.180494e-06	3.162851e-09	3.629988e+01	2.075993e+02
1.290000e-06	5.263959e-06	3.204641e-09	3.688472e+01	2.102703e+02
1.300000e-06	5.345442e-06	3.249576e-09	3.745568e+01	2.128148e+02
1.310000e-06	5.424878e-06	3.289751e-09	3.801229e+01	2.152368e+02
1.320000e-06	5.502343e-06	3.321633e-09	3.855508e+01	2.175403e+02
1.330000e-06	5.577806e-06	3.351937e-09	3.908386e+01	2.197295e+02
1.340000e-06	5.651094e-06	3.386500e-09	3.959739e+01	2.218085e+02
1.350000e-06	5.722204e-06	3.420107e-09	4.009566e+01	2.237815e+02
1.360000e-06	5.791341e-06	3.447302e-09	4.058011e+01	2.256521e+02
1.370000e-06	5.858451e-06	3.468340e-09	4.105034e+01	2.274239e+02
1.380000e-06	5.923381e-06	3.490972e-09	4.150531e+01	2.290998e+02
1.390000e-06	5.986183e-06	3.519950e-09	4.194537e+01	2.306824e+02
1.400000e-06	6.046985e-06	3.547578e-09	4.237141e+01	2.321738e+02
1.410000e-06	6.105816e-06	3.568232e-09	4.278364e+01	2.335761e+02
1.420000e-06	6.162448e-06	3.584796e-09	4.318046e+01	2.348912e+02
1.430000e-06	6.216820e-06	3.603138e-09	4.356145e+01	2.361213e+02
1.440000e-06	6.268891e-06	3.624001e-09	4.392631e+01	2.372692e+02
1.450000e-06	6.318345e-06	3.642193e-09	4.427283e+01	2.383379e+02
1.460000e-06	6.365279e-06	3.654970e-09	4.460171e+01	2.393316e+02
1.470000e-06	6.410044e-06	3.666302e-09	4.491538e+01	2.402548e+02
1.480000e-06	6.452645e-06	3.679703e-09	4.521388e+01	2.411124e+02
1.490000e-06	6.492878e-06	3.694602e-09	4.549579e+01	2.419095e+02
1.500000e-06	6.530829e-06	3.708363e-09	4.576172e+01	2.426509e+02
1.510000e-06	6.566635e-06	3.718057e-09	4.601261e+01	2.433408e+02
1.520000e-06	6.600111e-06	3.726119e-09	4.624718e+01	2.439823e+02
1.530000e-06	6.631175e-06	3.736043e-09	4.646485e+01	2.445772e+02
1.540000e-06	6.659959e-06	3.747365e-09	4.666654e+01	2.451259e+02
1.550000e-06	6.686332e-06	3.756449e-09	4.685134e+01	2.456275e+02
1.560000e-06	6.710131e-06	3.760864e-09	4.701810e+01	2.460800e+02
1.570000e-06	6.731577e-06	3.763714e-09	4.716837e+01	2.464809e+02
1.580000e-06	6.750811e-06	3.768516e-09	4.730314e+01	2.468272e+02
1.590000e-06	6.767598e-06	3.775321e-09	4.742076e+01	2.471167e+02
1.600000e-06	6.781810e-06	3.782114e-09	4.752035e+01	2.473478e+02
1.610000e-06	6.793472e-06	3.786179e-09	4.760207e+01	2.475203e+02
1.620000e-06	6.802470e-06	3.789466e-09	4.766512e+01	2.476354e+02
1.630000e-06	6.808888e-06	3.793764e-09	4.771009e+01	2.476957e+02
1.640000e-06	6.812998e-06	3.797510e-09	4.773889e+01	2.477050e+02
1.650000e-06	6.814691e-06	3.799577e-09	4.775075e+01	2.476675e+02
1.660000e-06	6.813934e-06	3.798077e-09	4.774545e+01	2.475877e+02
1.670000e-06	6.811014e-06	3.788901e-09	4.772498e+01	2.474691e+02
1.680000e-06	6.805900e-06	3.783638e-09	4.768915e+01	2.473143e+02
1.690000e-06	6.798388e-06	3.782683e-09	4.763651e+01	2.471241e+02
1.700000e-06	6.788608e-06	3.781455e-09	4.756798e+01	2.468974e+02
1.710000e-06	6.776668e-06	3.780045e-09	4.748432e+01	2.466315e+02
1.720000e-06	6.762373e-06	3.780562e-09	4.738415e+01	2.463223e+02
1.730000e-06	6.745850e-06	3.790041e-09	4.726838e+01	2.459652e+02
1.740000e-06	6.727308e-06	3.749277e-09	4.713845e+01	2.455556e+02
1.750000e-06	6.706255e-06	3.695316e-09	4.699093e+01	2.450901e+02
1.760000e-06	6.681983e-06	3.712100e-09	4.682086e+01	2.445672e+02
1.770000e-06	6.654725e-06	3.725532e-09	4.662987e+01	2.439875e+02
1.780000e-06	6.625136e-06	3.731895e-09	4.642253e+01	2.433546e+02
1.790000e-06	6.593625e-06	3.786897e-09	4.620173e+01	2.426747e+02
1.800000e-06	6.560628e-06	3.694975e-09	4.597052e+01	2.419559e+02
1.810000e-06	6.525806e-06	3.601225e-09	4.572652e+01	2.412078e+02
1.820000e-06	6.488512e-06	3.678217e-09	4.546520e+01	2.404402e+02
1.830000e-06	6.449004e-06	3.613300e-09	4.518837e+01	2.396616e+02
1.840000e-06	6.407401e-06	3.652695e-09	4.489685e+01	2.388787e+02
1.850000e-06	6.363595e-06	3.644984e-09	4.458990e+01	2.380947e+02
1.860000e-06	6.317613e-06	3.500039e-09	4.426771e+01	2.373095e+02
1.870000e-06	6.269229e-06	3.621515e-09	4.392868e+01	2.365187e+02
1.880000e-06	6.218545e-06	3.649148e-09	4.357354e+01	2.357144e+02
1.890000e-06	6.165338e-06	3.635047e-09	4.320072e+01	2.348859e+02
1.900000e-06	6.109442e-06	3.601516e-09	4.280905e+01	2.340207e+02
1.910000e-06	6.051323e-06	3.467419e-09	4.240181e+01	2.331060e+02
1.920000e-06	5.991023e-06	3.520119e-09	4.197929e+01	2.321297e+02
1.930000e-06	5.928399e-06	3.544909e-09	4.154048e+01	2.310825e+02
1.940000e-06	5.863507e-06	3.547074e-09	4.108577e+01	2.299579e+02
1.950000e-06	5.796500e-06	3.489800e-09	4.061625e+01	2.287535e+02
1.960000e-06	5.727422e-06	3.394196e-09	4.013222e+01	2.274708e+02
1.970000e-06	5.656036e-06	3.436935e-09	3.963202e+01	2.261150e+02
1.980000e-06	5.582424e-06	3.423475e-09	3.911622e+01	2.246937e+02
1.990000e-06	5.506741e-06	3.447445e-09	3.858590e+01	2.232163e+02
2.000000e-06	5.428870e-06	3.382839e-09	3.804026e+01	2.216922e+02
2.010000e-06	5.348904e-06	3.299690e-09	3.747994e+01	2.201297e+02
2.020000e-06	5.267035e-06	3.335792e-09	3.690628e+01	2.185349e+02
2.030000e-06	5.183415e-06	3.343016e-09	3.632035e+01	2.169111e+02
2.040000e-06	5.097930e-06	3.326544e-09	3.572135e+01	2.152579e+02
2.050000e-06	5.010474e-06	3.218177e-09	3.510855e+01	2.135719e+02
2.060000e-06	4.921265e-06	3.178898e-09	3.448345e+01	2.118472e+02
2.070000e-06	4.830521e-06	3.207389e-09	3.384761e+01	2.100759e+02
2.080000e-06	4.738210e-06	3.209822e-09	3.320079e+01	2.082496e+02
2.090000e-06	4.644123e-06	3.148798e-09	3.254151e+01	2.063603e+02
2.100000e-06	4.548264e-06	3.052411e-09	3.186982e+01	2.044015e+02
2.110000e-06	4.450876e-06	3.043911e-09	3.118742e+01	2.023688e+02
2.120000e-06	4.352071e-06	3.060331e-09	3.049509e+01	2.002604e+02
2.130000e-06	4.251848e-06	3.054419e-09	2.979283e+01	1.980767e+02
2.140000e-06	4.150085e-06	2.977676e-09	2.907977e+01	1.958204e+02
2.150000e-06	4.046671e-06	2.900155e-09	2.835515e+01	1.934949e+02
2.160000e-06	3.941769e-06	2.886686e-09	2.762009e+01	1.911042e+02
2.170000e-06	3.835525e-06	2.898857e-09	2.687564e+01	1.886513e+02
2.180000e-06	3.727946e-06	2.865407e-09	2.612183e+01	1.861378e+02
2.190000e-06	3.619083e-06	2.778582e-09	2.535903e+01	1.835628e+02
2.200000e-06	3.508881e-06	2.723857e-09	2.458684e+01	1.809231e+02
2.210000e-06	3.397288e-06	2.714607e-09	2.380490e+01	1.782132e+02
2.220000e-06	3.284333e-06	2.701701e-09	2.301342e+01	1.754258e+02
2.230000e-06	3.170068e-06	2.632976e-09	2.221277e+01	1.725524e+02
2.240000e-06	3.054529e-06	2.549739e-09	2.140318e+01	1.695847e+02
2.250000e-06	2.937752e-06	2.505357e-09	2.058492e+01	1.665149e+02
2.260000e-06	2.819840e-06	2.495739e-09	1.975871e+01	1.633371e+02
2.270000e-06	2.700731e-06	2.455742e-09	1.892411e+01	1.600478e+02
2.280000e-06	2.580422e-06	2.368821e-09	1.808110e+01	1.566455e+02
2.290000e-06	2.459187e-06	2.292060e-09	1.723160e+01	1.531314e+02
2.300000e-06	2.337244e-06	2.261771e-09	1.637714e+01	1.495085e+02
2.310000e-06	2.214600e-06	2.241387e-09	1.551777e+01	1.457804e+02
2.320000e-06	2.091239e-06	2.176647e-09	1.465338e+01	1.419513e+02
2.330000e-06	1.967110e-06	2.087112e-09	1.378360e+01	1.380241e+02
2.340000e-06	1.842253e-06	2.019800e-09	1.290872e+01	1.340005e+02
2.350000e-06	1.716803e-06	1.981522e-09	1.202969e+01	1.298797e+02
2.360000e-06	1.590835e-06	1.928573e-09	1.114703e+01	1.256586e+02
2.370000e-06	1.464357e-06	1.844573e-09	1.026079e+01	1.213322e+02
2.380000e-06	1.337372e-06	1.757899e-09	9.371005e+00	1.168938e+02
2.390000e-06	1.209879e-06	1.696957e-09	8.477662e+00	1.123356e+02
2.400000e-06	1.081908e-06	1.646497e-09	7.580961e+00	1.076504e+02
2.410000e-06	9.534685e-07	1.572867e-09	6.680983e+00	1.028316e+02
2.420000e-06	8.246404e-07	1.480722e-09	5.778281e+00	9.787473e+01
2.430000e-06	6.956194e-07	1.398068e-09	4.874226e+00	9.277726e+01
2.440000e-06	5.664474e-07	1.332409e-09	3.969114e+00	8.753912e+01
2.450000e-06	4.370822e-07	1.258334e-09	3.062649e+00	8.216218e+01
2.460000e-06	3.075616e-07	1.161891e-09	2.155094e+00	7.664965e+01
2.470000e-06	1.780067e-07	1.062858e-09	1.247299e+00	7.100514e+01
2.480000e-06	4.842364e-08	9.817767e-10	3.393059e-01	6.523160e+01
2.490000e-06	-8.122790e-08	9.052605e-10	-5.691664e-01	5.933034e+01
2.500000e-06	-2.108679e-07	8.121930e-10	-1.477558e+00	5.330021e+01
2.510000e-06	-3.404803e-07	7.087997e-10	-2.385756e+00	4.713721e+01
2.520000e-06	-4.700382e-07	6.136915e-10	-3.293572e+00	4.083452e+01
2.530000e-06	-5.994866e-07	5.252512e-10	-4.200621e+00	3.438302e+01
2.540000e-06	-7.287801e-07	4.226914e-10	-5.106585e+00	2.777234e+01
2.550000e-06	-8.578787e-07	3.041064e-10	-6.011182e+00	2.099227e+01
2.560000e-06	-9.867232e-07	1.905134e-10	-6.914000e+00	1.403440e+01
2.570000e-06	-1.115170e-06	9.155917e-11	-7.814032e+00	6.893875e+00
2.580000e-06	-1.243186e-06	-1.169984e-11	-8.711040e+00	-4.290414e-01
2.590000e-06	-1.370646e-06	-1.342268e-10	-9.604159e+00	-7.927687e+00
2.600000e-06	-1.497471e-06	-2.619854e-10	-1.049283e+01	-1.558821e+01
2.610000e-06	-1.623729e-06	-3.740906e-10	-1.137752e+01	-2.338934e+01
2.620000e-06	-1.749417e-06	-4.762778e-10	-1.225822e+01	-3.130279e+01
2.630000e-06	-1.874517e-06	-5.937849e-10	-1.313480e+01	-3.929419e+01
2.640000e-06	-1.998882e-06	-7.300001e-10	-1.400623e+01	-4.732457e+01
2.650000e-06	-2.122340e-06	-8.608351e-10	-1.487130e+01	-5.535213e+01
2.660000e-06	-2.244897e-06	-9.731293e-10	-1.573006e+01	-6.333423e+01
2.670000e-06	-2.366653e-06	-1.082659e-09	-1.658321e+01	-7.122929e+01
2.680000e-06	-2.487637e-06	-1.206489e-09	-1.743095e+01	-7.899862e+01
2.690000e-06	-2.607711e-06	-1.335673e-09	-1.827231e+01	-8.660785e+01
2.700000e-06	-2.726673e-06	-1.449956e-09	-1.910588e+01	-9.402795e+01
2.710000e-06	-2.844524e-06	-1.545587e-09	-1.993167e+01	-1.012359e+02
2.720000e-06	-2.961227e-06	-1.641327e-09	-2.074941e+01	-1.082146e+02
2.730000e-06	-3.076624e-06	-1.751113e-09	-2.155800e+01	-1.149528e+02
2.740000e-06	-3.190759e-06	-1.861147e-09	-2.235775e+01	-1.214447e+02
2.750000e-06	-3.303636e-06	-1.952948e-09	-2.314868e+01	-1.276886e+02
2.760000e-06	-3.415175e-06	-2.029706e-09	-2.393024e+01	-1.336864e+02
2.770000e-06	-3.525432e-06	-2.113051e-09	-2.470281e+01	-1.394428e+02
2.780000e-06	-3.634505e-06	-2.209224e-09	-2.546709e+01	-1.449642e+02
2.790000e-06	-3.742489e-06	-2.298973e-09	-2.622374e+01	-1.502580e+02
2.800000e-06	-3.849341e-06	-2.368695e-09	-2.697245e+01	-1.553324e+02
2.810000e-06	-3.954868e-06	-2.429489e-09	-2.771188e+01	-1.601956e+02
2.820000e-06	-4.058953e-06	-2.500137e-09	-2.844121e+01	-1.648559e+02
2.830000e-06	-4.161488e-06	-2.579837e-09	-2.915968e+01	-1.693213e+02
2.840000e-06	-4.262451e-06	-2.649810e-09	-2.986712e+01	-1.735995e+02
2.850000e-06	-4.361936e-06	-2.703395e-09	-3.056422e+01	-1.776978e+02
2.860000e-06	-4.459947e-06	-2.755183e-09	-3.125098e+01	-1.816233e+02
2.870000e-06	-4.556485e-06	-2.818938e-09	-3.192743e+01	-1.853825e+02
2.880000e-06	-4.651439e-06	-2.886785e-09	-3.259278e+01	-1.889814e+02
2.890000e-06	-4.744658e-06	-2.940676e-09	-3.324597e+01	-1.924257e+02
2.900000e-06	-4.836140e-06	-2.980028e-09	-3.388698e+01	-1.957206e+02
2.910000e-06	-4.925889e-06	-3.020933e-09	-3.451585e+01	-1.988707e+02
2.920000e-06	-5.013891e-06	-3.072062e-09	-3.513249e+01	-2.018804e+02
2.930000e-06	-5.100080e-06	-3.123012e-09	-3.573642e+01	-2.047537e+02
2.940000e-06	-5.184413e-06	-3.161862e-09	-3.632734e+01	-2.074945e+02
