# Temperatura_=_20.0
# Concentracion g/m^3_=_12600.0
# C_Vs_to_Am_M_A/Vsm_=_65563218390.804596
# pendiente_HvsI_1/m_=_3716.3
# ordenada_HvsI_A/m_=_1297.0
# frecuencia_Hz_=_302062.64665689267

Tiempo_(s)	Campo_(V.s)	Magnetizacion_(V.s)	Campo_(kA/m)	Magnetizacion_(A/m)
0.000000e+00	-6.769664e-06	-3.742935e-09	-4.745101e+01	-2.464955e+02
1.000000e-08	-6.767471e-06	-3.746664e-09	-4.743564e+01	-2.463925e+02
2.000000e-08	-6.762992e-06	-3.744278e-09	-4.740424e+01	-2.462540e+02
3.000000e-08	-6.756437e-06	-3.738723e-09	-4.735830e+01	-2.460771e+02
4.000000e-08	-6.747678e-06	-3.733099e-09	-4.729690e+01	-2.458571e+02
5.000000e-08	-6.736480e-06	-3.727013e-09	-4.721841e+01	-2.455885e+02
6.000000e-08	-6.722742e-06	-3.722286e-09	-4.712211e+01	-2.452656e+02
7.000000e-08	-6.706589e-06	-3.706303e-09	-4.700890e+01	-2.448835e+02
8.000000e-08	-6.688302e-06	-3.688272e-09	-4.688071e+01	-2.444394e+02
9.000000e-08	-6.667887e-06	-3.731182e-09	-4.673762e+01	-2.439327e+02
1.000000e-07	-6.644935e-06	-3.755778e-09	-4.657674e+01	-2.433662e+02
1.100000e-07	-6.619149e-06	-3.713532e-09	-4.639599e+01	-2.427456e+02
1.200000e-07	-6.590784e-06	-3.687810e-09	-4.619717e+01	-2.420798e+02
1.300000e-07	-6.560309e-06	-3.673220e-09	-4.598357e+01	-2.413794e+02
1.400000e-07	-6.527955e-06	-3.615493e-09	-4.575678e+01	-2.406562e+02
1.500000e-07	-6.493736e-06	-3.651841e-09	-4.551693e+01	-2.399218e+02
1.600000e-07	-6.457521e-06	-3.749908e-09	-4.526309e+01	-2.391858e+02
1.700000e-07	-6.419246e-06	-3.607131e-09	-4.499481e+01	-2.384554e+02
1.800000e-07	-6.378878e-06	-3.612666e-09	-4.471185e+01	-2.377336e+02
1.900000e-07	-6.336083e-06	-3.663202e-09	-4.441188e+01	-2.370192e+02
2.000000e-07	-6.290827e-06	-3.585857e-09	-4.409467e+01	-2.363065e+02
2.100000e-07	-6.243247e-06	-3.660824e-09	-4.376117e+01	-2.355858e+02
2.200000e-07	-6.193021e-06	-3.606186e-09	-4.340911e+01	-2.348445e+02
2.300000e-07	-6.140212e-06	-3.526391e-09	-4.303895e+01	-2.340681e+02
2.400000e-07	-6.085092e-06	-3.539898e-09	-4.265260e+01	-2.332421e+02
2.500000e-07	-6.027637e-06	-3.545317e-09	-4.224987e+01	-2.323532e+02
2.600000e-07	-5.967902e-06	-3.572183e-09	-4.183117e+01	-2.313906e+02
2.700000e-07	-5.906001e-06	-3.539536e-09	-4.139729e+01	-2.303473e+02
2.800000e-07	-5.841941e-06	-3.483084e-09	-4.094826e+01	-2.292206e+02
2.900000e-07	-5.775658e-06	-3.456001e-09	-4.048367e+01	-2.280120e+02
3.000000e-07	-5.707233e-06	-3.482815e-09	-4.000405e+01	-2.267268e+02
3.100000e-07	-5.636746e-06	-3.497998e-09	-3.950998e+01	-2.253732e+02
3.200000e-07	-5.564062e-06	-3.411070e-09	-3.900051e+01	-2.239610e+02
3.300000e-07	-5.489092e-06	-3.377773e-09	-3.847502e+01	-2.225004e+02
3.400000e-07	-5.411900e-06	-3.375037e-09	-3.793396e+01	-2.210002e+02
3.500000e-07	-5.332545e-06	-3.370369e-09	-3.737773e+01	-2.194673e+02
3.600000e-07	-5.251155e-06	-3.350676e-09	-3.680724e+01	-2.179051e+02
3.700000e-07	-5.167965e-06	-3.284703e-09	-3.622413e+01	-2.163139e+02
3.800000e-07	-5.083046e-06	-3.247732e-09	-3.562890e+01	-2.146905e+02
3.900000e-07	-4.996446e-06	-3.246486e-09	-3.502189e+01	-2.130290e+02
4.000000e-07	-4.908197e-06	-3.264682e-09	-3.440332e+01	-2.113214e+02
4.100000e-07	-4.818204e-06	-3.224969e-09	-3.377253e+01	-2.095592e+02
4.200000e-07	-4.726501e-06	-3.153757e-09	-3.312974e+01	-2.077338e+02
4.300000e-07	-4.633215e-06	-3.119193e-09	-3.247587e+01	-2.058384e+02
4.400000e-07	-4.538327e-06	-3.127832e-09	-3.181076e+01	-2.038681e+02
4.500000e-07	-4.441781e-06	-3.130356e-09	-3.113404e+01	-2.018203e+02
4.600000e-07	-4.343553e-06	-3.070177e-09	-3.044553e+01	-1.996952e+02
4.700000e-07	-4.243678e-06	-3.000076e-09	-2.974547e+01	-1.974948e+02
4.800000e-07	-4.142310e-06	-2.969640e-09	-2.903494e+01	-1.952227e+02
4.900000e-07	-4.039570e-06	-2.969993e-09	-2.831480e+01	-1.928829e+02
5.000000e-07	-3.935460e-06	-2.944008e-09	-2.758505e+01	-1.904788e+02
5.100000e-07	-3.829848e-06	-2.873852e-09	-2.684478e+01	-1.880125e+02
5.200000e-07	-3.722694e-06	-2.805422e-09	-2.609370e+01	-1.854843e+02
5.300000e-07	-3.614153e-06	-2.778918e-09	-2.533290e+01	-1.828920e+02
5.400000e-07	-3.504400e-06	-2.771755e-09	-2.456360e+01	-1.802311e+02
5.500000e-07	-3.393396e-06	-2.727657e-09	-2.378553e+01	-1.774955e+02
5.600000e-07	-3.280999e-06	-2.654441e-09	-2.299770e+01	-1.746776e+02
5.700000e-07	-3.167187e-06	-2.600730e-09	-2.219996e+01	-1.717697e+02
5.800000e-07	-3.052007e-06	-2.582353e-09	-2.139261e+01	-1.687648e+02
5.900000e-07	-2.935579e-06	-2.556705e-09	-2.057653e+01	-1.656572e+02
6.000000e-07	-2.818043e-06	-2.497117e-09	-1.975268e+01	-1.624433e+02
6.100000e-07	-2.699505e-06	-2.422036e-09	-1.892180e+01	-1.591220e+02
6.200000e-07	-2.580011e-06	-2.368417e-09	-1.808423e+01	-1.556942e+02
6.300000e-07	-2.459536e-06	-2.337730e-09	-1.723977e+01	-1.521631e+02
6.400000e-07	-2.338131e-06	-2.293845e-09	-1.638880e+01	-1.485328e+02
6.500000e-07	-2.215883e-06	-2.218332e-09	-1.553192e+01	-1.448078e+02
6.600000e-07	-2.092774e-06	-2.138479e-09	-1.466901e+01	-1.409922e+02
6.700000e-07	-1.968818e-06	-2.085139e-09	-1.380015e+01	-1.370884e+02
6.800000e-07	-1.844198e-06	-2.040962e-09	-1.292665e+01	-1.330968e+02
6.900000e-07	-1.719050e-06	-1.978164e-09	-1.204944e+01	-1.290155e+02
7.000000e-07	-1.593400e-06	-1.897871e-09	-1.116871e+01	-1.248398e+02
7.100000e-07	-1.467255e-06	-1.827588e-09	-1.028451e+01	-1.205632e+02
7.200000e-07	-1.340605e-06	-1.773615e-09	-9.396785e+00	-1.161778e+02
7.300000e-07	-1.213483e-06	-1.716326e-09	-8.505737e+00	-1.116750e+02
7.400000e-07	-1.085953e-06	-1.642317e-09	-7.611832e+00	-1.070465e+02
7.500000e-07	-9.580846e-07	-1.560439e-09	-6.715559e+00	-1.022854e+02
7.600000e-07	-8.298703e-07	-1.487262e-09	-5.816859e+00	-9.738662e+01
7.700000e-07	-7.013057e-07	-1.419570e-09	-4.915704e+00	-9.234740e+01
7.800000e-07	-5.724652e-07	-1.342309e-09	-4.012614e+00	-8.716736e+01
7.900000e-07	-4.434570e-07	-1.251629e-09	-3.108350e+00	-8.184809e+01
8.000000e-07	-3.143393e-07	-1.161924e-09	-2.203317e+00	-7.639260e+01
8.100000e-07	-1.851143e-07	-1.081217e-09	-1.297533e+00	-7.080440e+01
8.200000e-07	-5.578708e-08	-1.000131e-09	-3.910317e-01	-6.508652e+01
8.300000e-07	7.358667e-08	-9.087613e-10	5.157954e-01	-5.924063e+01
8.400000e-07	2.029460e-07	-8.111732e-10	1.422522e+00	-5.326630e+01
8.500000e-07	3.322788e-07	-7.178338e-10	2.329062e+00	-4.716054e+01
8.600000e-07	4.615665e-07	-6.275820e-10	3.235286e+00	-4.091779e+01
8.700000e-07	5.907555e-07	-5.315859e-10	4.140818e+00	-3.453034e+01
8.800000e-07	7.198061e-07	-4.279797e-10	5.045380e+00	-2.798911e+01
8.900000e-07	8.486617e-07	-3.243019e-10	5.948575e+00	-2.128485e+01
9.000000e-07	9.771689e-07	-2.241761e-10	6.849329e+00	-1.440951e+01
9.100000e-07	1.105265e-06	-1.206077e-10	7.747200e+00	-7.357749e+00
9.200000e-07	1.232950e-06	-7.338319e-12	8.642189e+00	-1.283392e-01
9.300000e-07	1.360148e-06	1.099288e-10	9.533767e+00	7.274616e+00
9.400000e-07	1.486841e-06	2.232922e-10	1.042180e+01	1.484082e+01
9.500000e-07	1.612995e-06	3.364416e-10	1.130606e+01	2.255337e+01
9.600000e-07	1.738667e-06	4.571381e-10	1.218694e+01	3.038879e+01
9.700000e-07	1.863859e-06	5.843227e-10	1.306446e+01	3.831760e+01
9.800000e-07	1.988379e-06	7.086836e-10	1.393727e+01	4.630531e+01
9.900000e-07	2.112150e-06	8.275072e-10	1.480482e+01	5.431372e+01
1.000000e-06	2.235082e-06	9.471432e-10	1.566649e+01	6.230250e+01
1.010000e-06	2.357120e-06	1.073837e-09	1.652190e+01	7.023088e+01
1.020000e-06	2.478277e-06	1.199431e-09	1.737113e+01	7.805932e+01
1.030000e-06	2.598472e-06	1.314645e-09	1.821363e+01	8.575095e+01
1.040000e-06	2.717635e-06	1.422075e-09	1.904888e+01	9.327293e+01
1.050000e-06	2.835783e-06	1.530863e-09	1.987703e+01	1.005973e+02
1.060000e-06	2.952991e-06	1.643381e-09	2.069857e+01	1.077017e+02
1.070000e-06	3.069129e-06	1.751584e-09	2.151263e+01	1.145696e+02
1.080000e-06	3.183971e-06	1.850471e-09	2.231760e+01	1.211900e+02
1.090000e-06	3.297489e-06	1.944260e-09	2.311328e+01	1.275573e+02
1.100000e-06	3.409728e-06	2.040710e-09	2.390001e+01	1.336708e+02
1.110000e-06	3.520720e-06	2.138312e-09	2.467800e+01	1.395334e+02
1.120000e-06	3.630504e-06	2.227561e-09	2.544751e+01	1.451514e+02
1.130000e-06	3.739159e-06	2.305119e-09	2.620911e+01	1.505332e+02
1.140000e-06	3.846640e-06	2.379098e-09	2.696248e+01	1.556884e+02
1.150000e-06	3.952746e-06	2.457651e-09	2.770622e+01	1.606276e+02
1.160000e-06	4.057347e-06	2.536141e-09	2.843941e+01	1.653609e+02
1.170000e-06	4.160424e-06	2.603437e-09	2.916191e+01	1.698981e+02
1.180000e-06	4.262078e-06	2.662020e-09	2.987444e+01	1.742483e+02
1.190000e-06	4.362320e-06	2.722888e-09	3.057707e+01	1.784194e+02
1.200000e-06	4.460987e-06	2.789191e-09	3.126866e+01	1.824181e+02
1.210000e-06	4.557946e-06	2.851756e-09	3.194829e+01	1.862505e+02
1.220000e-06	4.653181e-06	2.904172e-09	3.261582e+01	1.899215e+02
1.230000e-06	4.746810e-06	2.951042e-09	3.327210e+01	1.934357e+02
1.240000e-06	4.838919e-06	3.001110e-09	3.391772e+01	1.967974e+02
1.250000e-06	4.929357e-06	3.055720e-09	3.455163e+01	2.000106e+02
1.260000e-06	5.017928e-06	3.105629e-09	3.517246e+01	2.030798e+02
1.270000e-06	5.104600e-06	3.144973e-09	3.577998e+01	2.060092e+02
1.280000e-06	5.189510e-06	3.183436e-09	3.637514e+01	2.088037e+02
1.290000e-06	5.272649e-06	3.227945e-09	3.695789e+01	2.114682e+02
1.300000e-06	5.353813e-06	3.273800e-09	3.752680e+01	2.140076e+02
1.310000e-06	5.432918e-06	3.312580e-09	3.808128e+01	2.164267e+02
1.320000e-06	5.510067e-06	3.342362e-09	3.862204e+01	2.187298e+02
1.330000e-06	5.585238e-06	3.371409e-09	3.914894e+01	2.209209e+02
1.340000e-06	5.658239e-06	3.405167e-09	3.966063e+01	2.230031e+02
1.350000e-06	5.729075e-06	3.439447e-09	4.015715e+01	2.249789e+02
1.360000e-06	5.797926e-06	3.467640e-09	4.063975e+01	2.268500e+02
1.370000e-06	5.864760e-06	3.490011e-09	4.110821e+01	2.286177e+02
1.380000e-06	5.929401e-06	3.514626e-09	4.156130e+01	2.302830e+02
1.390000e-06	5.991908e-06	3.544372e-09	4.199944e+01	2.318470e+02
1.400000e-06	6.052499e-06	3.571193e-09	4.242414e+01	2.333114e+02
1.410000e-06	6.111122e-06	3.590368e-09	4.283505e+01	2.346784e+02
1.420000e-06	6.167495e-06	3.605210e-09	4.323019e+01	2.359514e+02
1.430000e-06	6.221561e-06	3.623540e-09	4.360916e+01	2.371348e+02
1.440000e-06	6.273198e-06	3.644960e-09	4.397110e+01	2.382340e+02
1.450000e-06	6.322206e-06	3.662144e-09	4.431462e+01	2.392553e+02
1.460000e-06	6.368839e-06	3.673447e-09	4.464149e+01	2.402054e+02
1.470000e-06	6.413434e-06	3.684605e-09	4.495407e+01	2.410908e+02
1.480000e-06	6.455802e-06	3.699736e-09	4.525104e+01	2.419178e+02
1.490000e-06	6.495688e-06	3.716162e-09	4.553061e+01	2.426913e+02
1.500000e-06	6.533297e-06	3.728492e-09	4.579423e+01	2.434152e+02
1.510000e-06	6.568747e-06	3.735830e-09	4.604271e+01	2.440912e+02
1.520000e-06	6.601802e-06	3.743896e-09	4.627440e+01	2.447199e+02
1.530000e-06	6.632508e-06	3.754709e-09	4.648963e+01	2.452999e+02
1.540000e-06	6.661075e-06	3.765054e-09	4.668987e+01	2.458288e+02
1.550000e-06	6.687237e-06	3.772294e-09	4.687325e+01	2.463037e+02
1.560000e-06	6.710821e-06	3.777225e-09	4.703856e+01	2.467216e+02
1.570000e-06	6.732043e-06	3.783142e-09	4.718731e+01	2.470801e+02
1.580000e-06	6.750981e-06	3.789382e-09	4.732005e+01	2.473781e+02
1.590000e-06	6.767437e-06	3.794627e-09	4.743540e+01	2.476158e+02
1.600000e-06	6.781309e-06	3.799333e-09	4.753263e+01	2.477952e+02
1.610000e-06	6.792580e-06	3.803159e-09	4.761163e+01	2.479196e+02
1.620000e-06	6.801178e-06	3.806193e-09	4.767190e+01	2.479935e+02
1.630000e-06	6.807276e-06	3.808109e-09	4.771465e+01	2.480216e+02
1.640000e-06	6.811062e-06	3.808890e-09	4.774118e+01	2.480089e+02
1.650000e-06	6.812427e-06	3.810428e-09	4.775075e+01	2.479589e+02
1.660000e-06	6.811399e-06	3.809350e-09	4.774355e+01	2.478740e+02
1.670000e-06	6.808215e-06	3.802074e-09	4.772122e+01	2.477543e+02
1.680000e-06	6.802803e-06	3.798191e-09	4.768330e+01	2.475979e+02
1.690000e-06	6.795050e-06	3.795472e-09	4.762895e+01	2.474011e+02
1.700000e-06	6.785101e-06	3.793789e-09	4.755922e+01	2.471588e+02
1.710000e-06	6.772920e-06	3.793975e-09	4.747383e+01	2.468652e+02
1.720000e-06	6.758286e-06	3.801653e-09	4.737126e+01	2.465149e+02
1.730000e-06	6.741421e-06	3.806040e-09	4.725304e+01	2.461038e+02
1.740000e-06	6.722532e-06	3.733877e-09	4.712065e+01	2.456300e+02
1.750000e-06	6.700979e-06	3.699702e-09	4.696957e+01	2.450945e+02
1.760000e-06	6.676194e-06	3.732414e-09	4.679584e+01	2.445015e+02
1.770000e-06	6.648594e-06	3.733096e-09	4.660239e+01	2.438582e+02
1.780000e-06	6.618699e-06	3.764323e-09	4.639284e+01	2.431745e+02
1.790000e-06	6.586971e-06	3.806742e-09	4.617045e+01	2.424615e+02
1.800000e-06	6.553795e-06	3.635804e-09	4.593790e+01	2.417313e+02
1.810000e-06	6.518609e-06	3.609169e-09	4.569128e+01	2.409946e+02
1.820000e-06	6.480915e-06	3.688542e-09	4.542706e+01	2.402601e+02
1.830000e-06	6.441143e-06	3.598926e-09	4.514829e+01	2.395331e+02
1.840000e-06	6.399281e-06	3.694818e-09	4.485487e+01	2.388147e+02
1.850000e-06	6.355149e-06	3.599661e-09	4.454552e+01	2.381015e+02
1.860000e-06	6.308748e-06	3.508126e-09	4.422028e+01	2.373860e+02
1.870000e-06	6.259960e-06	3.657939e-09	4.387831e+01	2.366570e+02
1.880000e-06	6.208971e-06	3.629587e-09	4.352091e+01	2.359008e+02
1.890000e-06	6.155434e-06	3.643955e-09	4.314565e+01	2.351027e+02
1.900000e-06	6.099260e-06	3.547095e-09	4.275190e+01	2.342485e+02
1.910000e-06	6.040857e-06	3.464279e-09	4.234254e+01	2.333260e+02
1.920000e-06	5.980155e-06	3.560806e-09	4.191706e+01	2.323261e+02
1.930000e-06	5.917202e-06	3.534887e-09	4.147580e+01	2.312437e+02
1.940000e-06	5.852049e-06	3.550181e-09	4.101911e+01	2.300781e+02
1.950000e-06	5.784788e-06	3.443793e-09	4.054766e+01	2.288326e+02
1.960000e-06	5.715416e-06	3.396036e-09	4.006140e+01	2.275140e+02
1.970000e-06	5.643687e-06	3.455675e-09	3.955864e+01	2.261314e+02
1.980000e-06	5.569815e-06	3.433042e-09	3.904084e+01	2.246951e+02
1.990000e-06	5.493824e-06	3.443646e-09	3.850819e+01	2.232146e+02
2.000000e-06	5.415651e-06	3.330319e-09	3.796025e+01	2.216981e+02
2.010000e-06	5.335504e-06	3.311213e-09	3.739846e+01	2.201509e+02
2.020000e-06	5.253485e-06	3.363828e-09	3.682357e+01	2.185750e+02
2.030000e-06	5.169662e-06	3.360680e-09	3.623602e+01	2.169689e+02
2.040000e-06	5.083943e-06	3.296893e-09	3.563519e+01	2.153282e+02
2.050000e-06	4.996354e-06	3.179112e-09	3.502124e+01	2.136459e+02
2.060000e-06	4.907048e-06	3.202760e-09	3.439526e+01	2.119136e+02
2.070000e-06	4.816156e-06	3.240129e-09	3.375817e+01	2.101225e+02
2.080000e-06	4.723676e-06	3.216263e-09	3.310994e+01	2.082649e+02
2.090000e-06	4.629483e-06	3.106252e-09	3.244971e+01	2.063347e+02
2.100000e-06	4.533554e-06	3.036071e-09	3.177731e+01	2.043281e+02
2.110000e-06	4.436051e-06	3.069820e-09	3.109388e+01	2.022438e+02
2.120000e-06	4.337136e-06	3.085578e-09	3.040054e+01	2.000829e+02
2.130000e-06	4.236699e-06	3.037427e-09	2.969654e+01	1.978482e+02
2.140000e-06	4.134692e-06	2.934672e-09	2.898154e+01	1.955437e+02
2.150000e-06	4.031108e-06	2.897078e-09	2.825548e+01	1.931732e+02
2.160000e-06	3.926033e-06	2.917378e-09	2.751898e+01	1.907396e+02
2.170000e-06	3.819635e-06	2.917485e-09	2.677320e+01	1.882443e+02
2.180000e-06	3.711954e-06	2.839588e-09	2.601842e+01	1.856862e+02
2.190000e-06	3.602932e-06	2.751984e-09	2.525425e+01	1.830623e+02
2.200000e-06	3.492521e-06	2.731391e-09	2.448034e+01	1.803671e+02
2.210000e-06	3.380786e-06	2.740021e-09	2.369714e+01	1.775937e+02
2.220000e-06	3.267732e-06	2.697852e-09	2.290471e+01	1.747345e+02
2.230000e-06	3.153345e-06	2.601549e-09	2.210293e+01	1.717820e+02
2.240000e-06	3.037637e-06	2.530772e-09	2.129189e+01	1.687295e+02
2.250000e-06	2.920706e-06	2.513688e-09	2.047228e+01	1.655724e+02
2.260000e-06	2.802643e-06	2.504591e-09	1.964473e+01	1.623081e+02
2.270000e-06	2.683411e-06	2.437307e-09	1.880899e+01	1.589366e+02
2.280000e-06	2.563042e-06	2.339299e-09	1.796529e+01	1.554600e+02
2.290000e-06	2.441772e-06	2.277160e-09	1.711526e+01	1.518817e+02
2.300000e-06	2.319792e-06	2.263635e-09	1.626026e+01	1.482064e+02
2.310000e-06	2.197105e-06	2.233621e-09	1.540030e+01	1.444385e+02
2.320000e-06	2.073704e-06	2.152841e-09	1.453534e+01	1.405813e+02
2.330000e-06	1.949543e-06	2.063470e-09	1.366505e+01	1.366363e+02
2.340000e-06	1.824608e-06	2.010959e-09	1.278933e+01	1.326030e+02
2.350000e-06	1.699032e-06	1.978989e-09	1.190912e+01	1.284781e+02
2.360000e-06	1.572967e-06	1.918703e-09	1.102549e+01	1.242560e+02
2.370000e-06	1.446478e-06	1.825638e-09	1.013889e+01	1.199295e+02
2.380000e-06	1.319464e-06	1.736965e-09	9.248599e+00	1.154902e+02
2.390000e-06	1.191926e-06	1.681678e-09	8.354636e+00	1.109295e+02
2.400000e-06	1.063970e-06	1.632862e-09	7.457746e+00	1.062397e+02
2.410000e-06	9.355903e-07	1.553906e-09	6.557889e+00	1.014147e+02
2.420000e-06	8.068647e-07	1.454350e-09	5.655605e+00	9.645045e+01
2.430000e-06	6.779059e-07	1.371683e-09	4.751686e+00	9.134529e+01
2.440000e-06	5.487866e-07	1.311901e-09	3.846643e+00	8.609983e+01
2.450000e-06	4.195318e-07	1.241545e-09	2.940649e+00	8.071642e+01
2.460000e-06	2.901327e-07	1.143298e-09	2.033644e+00	7.519841e+01
2.470000e-06	1.606133e-07	1.040510e-09	1.125796e+00	6.954920e+01
2.480000e-06	3.096793e-08	9.581306e-10	2.170653e-01	6.377133e+01
2.490000e-06	-9.869986e-08	8.836967e-10	-6.918228e-01	5.786554e+01
2.500000e-06	-2.283054e-07	7.912885e-10	-1.600275e+00	5.183024e+01
2.510000e-06	-3.578751e-07	6.849611e-10	-2.508476e+00	4.566124e+01
2.520000e-06	-4.873703e-07	5.869068e-10	-3.416154e+00	3.935190e+01
2.530000e-06	-6.167218e-07	4.992813e-10	-4.322825e+00	3.289375e+01
2.540000e-06	-7.458992e-07	4.020998e-10	-5.228276e+00	2.627746e+01
2.550000e-06	-8.748978e-07	2.868176e-10	-6.132473e+00	1.949417e+01
2.560000e-06	-1.003633e-06	1.705582e-10	-7.034823e+00	1.253689e+01
2.570000e-06	-1.131921e-06	6.714431e-11	-7.934038e+00	5.402031e+00
2.580000e-06	-1.259700e-06	-3.534875e-11	-8.829691e+00	-1.909298e+00
2.590000e-06	-1.386969e-06	-1.534064e-10	-9.721761e+00	-9.390200e+00
2.600000e-06	-1.513660e-06	-2.813633e-10	-1.060979e+01	-1.702733e+01
2.610000e-06	-1.639805e-06	-3.971918e-10	-1.149398e+01	-2.480070e+01
2.620000e-06	-1.765401e-06	-5.009956e-10	-1.237433e+01	-3.268395e+01
2.630000e-06	-1.890322e-06	-6.155269e-10	-1.324995e+01	-4.064514e+01
2.640000e-06	-2.014452e-06	-7.473106e-10	-1.412002e+01	-4.864785e+01
2.650000e-06	-2.137703e-06	-8.766683e-10	-1.498393e+01	-5.665270e+01
2.660000e-06	-2.260097e-06	-9.892532e-10	-1.584184e+01	-6.461895e+01
2.670000e-06	-2.381724e-06	-1.099458e-09	-1.669436e+01	-7.250619e+01
2.680000e-06	-2.502511e-06	-1.223336e-09	-1.754100e+01	-8.027595e+01
2.690000e-06	-2.622345e-06	-1.353415e-09	-1.838096e+01	-8.789309e+01
2.700000e-06	-2.741110e-06	-1.469788e-09	-1.921343e+01	-9.532695e+01
2.710000e-06	-2.858778e-06	-1.567399e-09	-2.003820e+01	-1.025521e+02
2.720000e-06	-2.975289e-06	-1.664655e-09	-2.085487e+01	-1.095489e+02
2.730000e-06	-3.090569e-06	-1.774606e-09	-2.166291e+01	-1.163033e+02
2.740000e-06	-3.204608e-06	-1.883908e-09	-2.246225e+01	-1.228071e+02
2.750000e-06	-3.317338e-06	-1.975361e-09	-2.325241e+01	-1.290569e+02
2.760000e-06	-3.428688e-06	-2.053727e-09	-2.403291e+01	-1.350538e+02
2.770000e-06	-3.538690e-06	-2.138272e-09	-2.480395e+01	-1.408024e+02
2.780000e-06	-3.647566e-06	-2.232529e-09	-2.556711e+01	-1.463100e+02
2.790000e-06	-3.755366e-06	-2.320921e-09	-2.632271e+01	-1.515859e+02
2.800000e-06	-3.861923e-06	-2.392207e-09	-2.706961e+01	-1.566399e+02
2.810000e-06	-3.967148e-06	-2.455293e-09	-2.780717e+01	-1.614827e+02
2.820000e-06	-4.070957e-06	-2.526227e-09	-2.853480e+01	-1.661243e+02
2.830000e-06	-4.173284e-06	-2.605172e-09	-2.925205e+01	-1.705741e+02
2.840000e-06	-4.274078e-06	-2.676527e-09	-2.995855e+01	-1.748407e+02
2.850000e-06	-4.373303e-06	-2.731598e-09	-3.065406e+01	-1.789314e+02
2.860000e-06	-4.471035e-06	-2.782412e-09	-3.133909e+01	-1.828527e+02
2.870000e-06	-4.567286e-06	-2.843768e-09	-3.201375e+01	-1.866100e+02
2.880000e-06	-4.661911e-06	-2.910264e-09	-3.267701e+01	-1.902082e+02
2.890000e-06	-4.754795e-06	-2.965451e-09	-3.332807e+01	-1.936516e+02
2.900000e-06	-4.845964e-06	-3.005736e-09	-3.396711e+01	-1.969443e+02
2.910000e-06	-4.935460e-06	-3.046408e-09	-3.459442e+01	-2.000905e+02
2.920000e-06	-5.023231e-06	-3.098515e-09	-3.520963e+01	-2.030947e+02
2.930000e-06	-5.109065e-06	-3.151477e-09	-3.581128e+01	-2.059614e+02
2.940000e-06	-5.192974e-06	-3.191385e-09	-3.639943e+01	-2.086954e+02
