# Temperatura_=_20.0
# Concentracion g/m^3_=_12600.0
# C_Vs_to_Am_M_A/Vsm_=_65563218390.804596
# pendiente_HvsI_1/m_=_3716.3
# ordenada_HvsI_A/m_=_1297.0
# frecuencia_Hz_=_302064.531880488

Tiempo_(s)	Campo_(V.s)	Magnetizacion_(V.s)	Campo_(kA/m)	Magnetizacion_(A/m)
0.000000e+00	-6.780149e-06	-3.651078e-09	-4.745525e+01	-2.403357e+02
1.000000e-08	-6.778118e-06	-3.654152e-09	-4.744103e+01	-2.402018e+02
2.000000e-08	-6.773763e-06	-3.652044e-09	-4.741055e+01	-2.400242e+02
3.000000e-08	-6.767274e-06	-3.645183e-09	-4.736514e+01	-2.398059e+02
4.000000e-08	-6.758631e-06	-3.639688e-09	-4.730464e+01	-2.395499e+02
5.000000e-08	-6.747592e-06	-3.636726e-09	-4.722738e+01	-2.392587e+02
6.000000e-08	-6.733984e-06	-3.633722e-09	-4.713213e+01	-2.389341e+02
7.000000e-08	-6.717876e-06	-3.619566e-09	-4.701939e+01	-2.385774e+02
8.000000e-08	-6.699569e-06	-3.604253e-09	-4.689125e+01	-2.381890e+02
9.000000e-08	-6.679139e-06	-3.633014e-09	-4.674826e+01	-2.377694e+02
1.000000e-07	-6.656251e-06	-3.658333e-09	-4.658807e+01	-2.373186e+02
1.100000e-07	-6.630613e-06	-3.627435e-09	-4.640862e+01	-2.368368e+02
1.200000e-07	-6.602350e-06	-3.598112e-09	-4.621081e+01	-2.363246e+02
1.300000e-07	-6.571892e-06	-3.581981e-09	-4.599763e+01	-2.357833e+02
1.400000e-07	-6.539512e-06	-3.550487e-09	-4.577100e+01	-2.352144e+02
1.500000e-07	-6.505283e-06	-3.572719e-09	-4.553142e+01	-2.346201e+02
1.600000e-07	-6.469134e-06	-3.644766e-09	-4.527841e+01	-2.340028e+02
1.700000e-07	-6.430928e-06	-3.550967e-09	-4.501100e+01	-2.333646e+02
1.800000e-07	-6.390585e-06	-3.524084e-09	-4.472863e+01	-2.327072e+02
1.900000e-07	-6.347770e-06	-3.561740e-09	-4.442896e+01	-2.320310e+02
2.000000e-07	-6.302513e-06	-3.504640e-09	-4.411220e+01	-2.313351e+02
2.100000e-07	-6.255028e-06	-3.551427e-09	-4.377985e+01	-2.306169e+02
2.200000e-07	-6.204892e-06	-3.509863e-09	-4.342894e+01	-2.298719e+02
2.300000e-07	-6.152135e-06	-3.432716e-09	-4.305969e+01	-2.290942e+02
2.400000e-07	-6.097076e-06	-3.450483e-09	-4.267432e+01	-2.282765e+02
2.500000e-07	-6.039667e-06	-3.445925e-09	-4.227251e+01	-2.274112e+02
2.600000e-07	-5.979948e-06	-3.456927e-09	-4.185452e+01	-2.264905e+02
2.700000e-07	-5.918067e-06	-3.458240e-09	-4.142141e+01	-2.255075e+02
2.800000e-07	-5.854060e-06	-3.412747e-09	-4.097341e+01	-2.244569e+02
2.900000e-07	-5.787828e-06	-3.369469e-09	-4.050985e+01	-2.233355e+02
3.000000e-07	-5.719400e-06	-3.389401e-09	-4.003091e+01	-2.221426e+02
3.100000e-07	-5.648879e-06	-3.413348e-09	-3.953733e+01	-2.208800e+02
3.200000e-07	-5.576192e-06	-3.342097e-09	-3.902858e+01	-2.195516e+02
3.300000e-07	-5.501266e-06	-3.304218e-09	-3.850416e+01	-2.181634e+02
3.400000e-07	-5.424069e-06	-3.295126e-09	-3.796384e+01	-2.167222e+02
3.500000e-07	-5.344700e-06	-3.276495e-09	-3.740833e+01	-2.152351e+02
3.600000e-07	-5.263310e-06	-3.265766e-09	-3.683867e+01	-2.137084e+02
3.700000e-07	-5.180103e-06	-3.216649e-09	-3.625629e+01	-2.121472e+02
3.800000e-07	-5.095239e-06	-3.171874e-09	-3.566232e+01	-2.105544e+02
3.900000e-07	-5.008713e-06	-3.161901e-09	-3.505671e+01	-2.089304e+02
4.000000e-07	-4.920501e-06	-3.181262e-09	-3.443930e+01	-2.072734e+02
4.100000e-07	-4.830550e-06	-3.163893e-09	-3.380972e+01	-2.055792e+02
4.200000e-07	-4.738840e-06	-3.102589e-09	-3.316783e+01	-2.038420e+02
4.300000e-07	-4.645525e-06	-3.055492e-09	-3.251470e+01	-2.020551e+02
4.400000e-07	-4.550668e-06	-3.053810e-09	-3.185078e+01	-2.002115e+02
4.500000e-07	-4.454097e-06	-3.065922e-09	-3.117487e+01	-1.983047e+02
4.600000e-07	-4.355808e-06	-3.022772e-09	-3.048693e+01	-1.963294e+02
4.700000e-07	-4.255918e-06	-2.950665e-09	-2.978779e+01	-1.942815e+02
4.800000e-07	-4.154557e-06	-2.910128e-09	-2.907835e+01	-1.921588e+02
4.900000e-07	-4.051869e-06	-2.908613e-09	-2.835962e+01	-1.899605e+02
5.000000e-07	-3.947698e-06	-2.898302e-09	-2.763051e+01	-1.876868e+02
5.100000e-07	-3.841943e-06	-2.840939e-09	-2.689032e+01	-1.853386e+02
5.200000e-07	-3.734696e-06	-2.766983e-09	-2.613968e+01	-1.829167e+02
5.300000e-07	-3.626068e-06	-2.731081e-09	-2.537938e+01	-1.804215e+02
5.400000e-07	-3.516255e-06	-2.729122e-09	-2.461078e+01	-1.778523e+02
5.500000e-07	-3.405201e-06	-2.700496e-09	-2.383350e+01	-1.752071e+02
5.600000e-07	-3.292726e-06	-2.632426e-09	-2.304627e+01	-1.724827e+02
5.700000e-07	-3.178872e-06	-2.569961e-09	-2.224939e+01	-1.696749e+02
5.800000e-07	-3.063635e-06	-2.543651e-09	-2.144282e+01	-1.667786e+02
5.900000e-07	-2.947047e-06	-2.527065e-09	-2.062681e+01	-1.637890e+02
6.000000e-07	-2.829359e-06	-2.481437e-09	-1.980309e+01	-1.607015e+02
6.100000e-07	-2.710693e-06	-2.407526e-09	-1.897254e+01	-1.575125e+02
6.200000e-07	-2.591035e-06	-2.345643e-09	-1.813503e+01	-1.542198e+02
6.300000e-07	-2.470352e-06	-2.313658e-09	-1.729035e+01	-1.508225e+02
6.400000e-07	-2.348767e-06	-2.279466e-09	-1.643936e+01	-1.473213e+02
6.500000e-07	-2.226383e-06	-2.213195e-09	-1.558278e+01	-1.437176e+02
6.600000e-07	-2.103160e-06	-2.131621e-09	-1.472032e+01	-1.400136e+02
6.700000e-07	-1.979094e-06	-2.070420e-09	-1.385196e+01	-1.362110e+02
6.800000e-07	-1.854325e-06	-2.028895e-09	-1.297869e+01	-1.323109e+02
6.900000e-07	-1.729021e-06	-1.978044e-09	-1.210167e+01	-1.283129e+02
7.000000e-07	-1.603208e-06	-1.903605e-09	-1.122108e+01	-1.242150e+02
7.100000e-07	-1.476904e-06	-1.828361e-09	-1.033707e+01	-1.200134e+02
7.200000e-07	-1.350114e-06	-1.769697e-09	-9.449644e+00	-1.157026e+02
7.300000e-07	-1.222844e-06	-1.716467e-09	-8.558866e+00	-1.112760e+02
7.400000e-07	-1.095158e-06	-1.650034e-09	-7.665173e+00	-1.067263e+02
7.500000e-07	-9.670993e-07	-1.569904e-09	-6.768868e+00	-1.020469e+02
7.600000e-07	-8.386428e-07	-1.492133e-09	-5.869782e+00	-9.723163e+01
7.700000e-07	-7.098103e-07	-1.421418e-09	-4.968066e+00	-9.227626e+01
7.800000e-07	-5.807371e-07	-1.346921e-09	-4.064663e+00	-8.717835e+01
7.900000e-07	-4.515173e-07	-1.261718e-09	-3.160235e+00	-8.193748e+01
8.000000e-07	-3.221968e-07	-1.172365e-09	-2.255102e+00	-7.655489e+01
8.100000e-07	-1.928116e-07	-1.086654e-09	-1.349516e+00	-7.103293e+01
8.200000e-07	-6.335356e-08	-1.004525e-09	-4.434208e-01	-6.537423e+01
8.300000e-07	6.617944e-08	-9.198337e-10	4.631995e-01	-5.958074e+01
8.400000e-07	1.957498e-07	-8.279013e-10	1.370081e+00	-5.365289e+01
8.500000e-07	3.252543e-07	-7.329915e-10	2.276502e+00	-4.758891e+01
8.600000e-07	4.546529e-07	-6.382201e-10	3.182182e+00	-4.138444e+01
8.700000e-07	5.839410e-07	-5.412269e-10	4.087088e+00	-3.503266e+01
8.800000e-07	7.131267e-07	-4.408222e-10	4.991278e+00	-2.852485e+01
8.900000e-07	8.421762e-07	-3.405316e-10	5.894513e+00	-2.185143e+01
9.000000e-07	9.709758e-07	-2.403182e-10	6.796001e+00	-1.500341e+01
9.100000e-07	1.099418e-06	-1.339983e-10	7.694983e+00	-7.974050e+00
9.200000e-07	1.227400e-06	-2.038396e-11	8.590751e+00	-7.606013e-01
9.300000e-07	1.354877e-06	9.345916e-11	9.482984e+00	6.634063e+00
9.400000e-07	1.481800e-06	2.049988e-10	1.037134e+01	1.420017e+01
9.500000e-07	1.608106e-06	3.216781e-10	1.125537e+01	2.192025e+01
9.600000e-07	1.733888e-06	4.468538e-10	1.213573e+01	2.976897e+01
9.700000e-07	1.859213e-06	5.735237e-10	1.301290e+01	3.771361e+01
9.800000e-07	1.983953e-06	6.935885e-10	1.388597e+01	4.571517e+01
9.900000e-07	2.107966e-06	8.117668e-10	1.475396e+01	5.373011e+01
1.000000e-06	2.231162e-06	9.366427e-10	1.561623e+01	6.171233e+01
1.010000e-06	2.353476e-06	1.067141e-09	1.647232e+01	6.961556e+01
1.020000e-06	2.474891e-06	1.191015e-09	1.732212e+01	7.739553e+01
1.030000e-06	2.595407e-06	1.301453e-09	1.816563e+01	8.501212e+01
1.040000e-06	2.714919e-06	1.407396e-09	1.900211e+01	9.243097e+01
1.050000e-06	2.833369e-06	1.516782e-09	1.983116e+01	9.962463e+01
1.060000e-06	2.950834e-06	1.625705e-09	2.065331e+01	1.065732e+02
1.070000e-06	3.067227e-06	1.727597e-09	2.146796e+01	1.132641e+02
1.080000e-06	3.182325e-06	1.821594e-09	2.227356e+01	1.196917e+02
1.090000e-06	3.296129e-06	1.913767e-09	2.307009e+01	1.258564e+02
1.100000e-06	3.408686e-06	2.007788e-09	2.385789e+01	1.317630e+02
1.110000e-06	3.519951e-06	2.100622e-09	2.463664e+01	1.374196e+02
1.120000e-06	3.629985e-06	2.185441e-09	2.540679e+01	1.428364e+02
1.130000e-06	3.738901e-06	2.261624e-09	2.616911e+01	1.480241e+02
1.140000e-06	3.846630e-06	2.335806e-09	2.692312e+01	1.529934e+02
1.150000e-06	3.953016e-06	2.412582e-09	2.766773e+01	1.577539e+02
1.160000e-06	4.057999e-06	2.486537e-09	2.840252e+01	1.623145e+02
1.170000e-06	4.161455e-06	2.549741e-09	2.912663e+01	1.666827e+02
1.180000e-06	4.263370e-06	2.606563e-09	2.983995e+01	1.708654e+02
1.190000e-06	4.363832e-06	2.666025e-09	3.054310e+01	1.748686e+02
1.200000e-06	4.462758e-06	2.729128e-09	3.123549e+01	1.786982e+02
1.210000e-06	4.559990e-06	2.789273e-09	3.191604e+01	1.823603e+02
1.220000e-06	4.655470e-06	2.841015e-09	3.258431e+01	1.858610e+02
1.230000e-06	4.749275e-06	2.888428e-09	3.324087e+01	1.892069e+02
1.240000e-06	4.841503e-06	2.938038e-09	3.388639e+01	1.924050e+02
1.250000e-06	4.932076e-06	2.988969e-09	3.452032e+01	1.954621e+02
1.260000e-06	5.020827e-06	3.035017e-09	3.514150e+01	1.983849e+02
1.270000e-06	5.107741e-06	3.072470e-09	3.574982e+01	2.011797e+02
1.280000e-06	5.192872e-06	3.108583e-09	3.634566e+01	2.038521e+02
1.290000e-06	5.276209e-06	3.150022e-09	3.692895e+01	2.064066e+02
1.300000e-06	5.357584e-06	3.193853e-09	3.749851e+01	2.088471e+02
1.310000e-06	5.436957e-06	3.232501e-09	3.805405e+01	2.111762e+02
1.320000e-06	5.514415e-06	3.262311e-09	3.859619e+01	2.133958e+02
1.330000e-06	5.589819e-06	3.289159e-09	3.912395e+01	2.155074e+02
1.340000e-06	5.662992e-06	3.321568e-09	3.963610e+01	2.175120e+02
1.350000e-06	5.734016e-06	3.354510e-09	4.013321e+01	2.194109e+02
1.360000e-06	5.803061e-06	3.380977e-09	4.061647e+01	2.212054e+02
1.370000e-06	5.870074e-06	3.401424e-09	4.108550e+01	2.228973e+02
1.380000e-06	5.934905e-06	3.422343e-09	4.153926e+01	2.244893e+02
1.390000e-06	5.997617e-06	3.448881e-09	4.197819e+01	2.259842e+02
1.400000e-06	6.058352e-06	3.475299e-09	4.240328e+01	2.273858e+02
1.410000e-06	6.117023e-06	3.495566e-09	4.281394e+01	2.286982e+02
1.420000e-06	6.173523e-06	3.510485e-09	4.320938e+01	2.299259e+02
1.430000e-06	6.227850e-06	3.527421e-09	4.358963e+01	2.310733e+02
1.440000e-06	6.279783e-06	3.548580e-09	4.395311e+01	2.321453e+02
1.450000e-06	6.329076e-06	3.566188e-09	4.429812e+01	2.331462e+02
1.460000e-06	6.375935e-06	3.576385e-09	4.462609e+01	2.340804e+02
1.470000e-06	6.420600e-06	3.585649e-09	4.493871e+01	2.349518e+02
1.480000e-06	6.463029e-06	3.599720e-09	4.523568e+01	2.357642e+02
1.490000e-06	6.503103e-06	3.615161e-09	4.551616e+01	2.365208e+02
1.500000e-06	6.540917e-06	3.627115e-09	4.578083e+01	2.372243e+02
1.510000e-06	6.576547e-06	3.634225e-09	4.603021e+01	2.378771e+02
1.520000e-06	6.609796e-06	3.641532e-09	4.626292e+01	2.384808e+02
1.530000e-06	6.640655e-06	3.653065e-09	4.647891e+01	2.390367e+02
1.540000e-06	6.669289e-06	3.664792e-09	4.667932e+01	2.395452e+02
1.550000e-06	6.695576e-06	3.672261e-09	4.686331e+01	2.400063e+02
1.560000e-06	6.719315e-06	3.675928e-09	4.702946e+01	2.404192e+02
1.570000e-06	6.740651e-06	3.679226e-09	4.717879e+01	2.407829e+02
1.580000e-06	6.759760e-06	3.684112e-09	4.731255e+01	2.410959e+02
1.590000e-06	6.776449e-06	3.689540e-09	4.742935e+01	2.413568e+02
1.600000e-06	6.790520e-06	3.694216e-09	4.752783e+01	2.415641e+02
1.610000e-06	6.801949e-06	3.698280e-09	4.760783e+01	2.417169e+02
1.620000e-06	6.810684e-06	3.701542e-09	4.766896e+01	2.418149e+02
1.630000e-06	6.816926e-06	3.704809e-09	4.771266e+01	2.418584e+02
1.640000e-06	6.820867e-06	3.708132e-09	4.774024e+01	2.418487e+02
1.650000e-06	6.822369e-06	3.710353e-09	4.775075e+01	2.417878e+02
1.660000e-06	6.821447e-06	3.708485e-09	4.774430e+01	2.416781e+02
1.670000e-06	6.818338e-06	3.699493e-09	4.772253e+01	2.415230e+02
1.680000e-06	6.812982e-06	3.694920e-09	4.768505e+01	2.413254e+02
1.690000e-06	6.805278e-06	3.693168e-09	4.763113e+01	2.410887e+02
1.700000e-06	6.795393e-06	3.690833e-09	4.756194e+01	2.408155e+02
1.710000e-06	6.783298e-06	3.689404e-09	4.747729e+01	2.405080e+02
1.720000e-06	6.768820e-06	3.692035e-09	4.737596e+01	2.401677e+02
1.730000e-06	6.752136e-06	3.693268e-09	4.725918e+01	2.397956e+02
1.740000e-06	6.733381e-06	3.642354e-09	4.712791e+01	2.393921e+02
1.750000e-06	6.712008e-06	3.606581e-09	4.697832e+01	2.389574e+02
1.760000e-06	6.687405e-06	3.630040e-09	4.680612e+01	2.384915e+02
1.770000e-06	6.659950e-06	3.639891e-09	4.661395e+01	2.379949e+02
1.780000e-06	6.630195e-06	3.657880e-09	4.640570e+01	2.374684e+02
1.790000e-06	6.598542e-06	3.685184e-09	4.618415e+01	2.369134e+02
1.800000e-06	6.565409e-06	3.581714e-09	4.595225e+01	2.363318e+02
1.810000e-06	6.530346e-06	3.549578e-09	4.570684e+01	2.357259e+02
1.820000e-06	6.492804e-06	3.606101e-09	4.544408e+01	2.350981e+02
1.830000e-06	6.453065e-06	3.536630e-09	4.516594e+01	2.344503e+02
1.840000e-06	6.411213e-06	3.588369e-09	4.487301e+01	2.337835e+02
1.850000e-06	6.367170e-06	3.546068e-09	4.456475e+01	2.330978e+02
1.860000e-06	6.320913e-06	3.463242e-09	4.424099e+01	2.323913e+02
1.870000e-06	6.272256e-06	3.580566e-09	4.390043e+01	2.316607e+02
1.880000e-06	6.221313e-06	3.574980e-09	4.354387e+01	2.309007e+02
1.890000e-06	6.167815e-06	3.576633e-09	4.316944e+01	2.301048e+02
1.900000e-06	6.111634e-06	3.527329e-09	4.277622e+01	2.292654e+02
1.910000e-06	6.053259e-06	3.422305e-09	4.236764e+01	2.283747e+02
1.920000e-06	5.992694e-06	3.458753e-09	4.194374e+01	2.274252e+02
1.930000e-06	5.929824e-06	3.462434e-09	4.150370e+01	2.264107e+02
1.940000e-06	5.864729e-06	3.487520e-09	4.104809e+01	2.253269e+02
1.950000e-06	5.797513e-06	3.421444e-09	4.057763e+01	2.241717e+02
1.960000e-06	5.728149e-06	3.347555e-09	4.009215e+01	2.229454e+02
1.970000e-06	5.656479e-06	3.371380e-09	3.959052e+01	2.216510e+02
1.980000e-06	5.582682e-06	3.362964e-09	3.907400e+01	2.202935e+02
1.990000e-06	5.506700e-06	3.399941e-09	3.854219e+01	2.188791e+02
2.000000e-06	5.428477e-06	3.317890e-09	3.799470e+01	2.174151e+02
2.010000e-06	5.348258e-06	3.244852e-09	3.743323e+01	2.159083e+02
2.020000e-06	5.266185e-06	3.271355e-09	3.685879e+01	2.143645e+02
2.030000e-06	5.182358e-06	3.294815e-09	3.627208e+01	2.127878e+02
2.040000e-06	5.096596e-06	3.272290e-09	3.567181e+01	2.111800e+02
2.050000e-06	5.008880e-06	3.151683e-09	3.505788e+01	2.095404e+02
2.060000e-06	4.919475e-06	3.117828e-09	3.443212e+01	2.078661e+02
2.070000e-06	4.828552e-06	3.151929e-09	3.379574e+01	2.061521e+02
2.080000e-06	4.736000e-06	3.168779e-09	3.314796e+01	2.043921e+02
2.090000e-06	4.641675e-06	3.094629e-09	3.248776e+01	2.025792e+02
2.100000e-06	4.545643e-06	2.993005e-09	3.181562e+01	2.007064e+02
2.110000e-06	4.448057e-06	2.984674e-09	3.113260e+01	1.987677e+02
2.120000e-06	4.349094e-06	3.013035e-09	3.043994e+01	1.967585e+02
2.130000e-06	4.248651e-06	3.007703e-09	2.973693e+01	1.946755e+02
2.140000e-06	4.146603e-06	2.917314e-09	2.902268e+01	1.925171e+02
2.150000e-06	4.042880e-06	2.842136e-09	2.829670e+01	1.902830e+02
2.160000e-06	3.937624e-06	2.843596e-09	2.756000e+01	1.879740e+02
2.170000e-06	3.831140e-06	2.868532e-09	2.681470e+01	1.855909e+02
2.180000e-06	3.723422e-06	2.823404e-09	2.606077e+01	1.831344e+02
2.190000e-06	3.614370e-06	2.724287e-09	2.529750e+01	1.806044e+02
2.200000e-06	3.503925e-06	2.671845e-09	2.452448e+01	1.779996e+02
2.210000e-06	3.392068e-06	2.677229e-09	2.374158e+01	1.753175e+02
2.220000e-06	3.278845e-06	2.665169e-09	2.294912e+01	1.725543e+02
2.230000e-06	3.164339e-06	2.583840e-09	2.214767e+01	1.697055e+02
2.240000e-06	3.048528e-06	2.493589e-09	2.133709e+01	1.667659e+02
2.250000e-06	2.931420e-06	2.458563e-09	2.051743e+01	1.637307e+02
2.260000e-06	2.813196e-06	2.460801e-09	1.968997e+01	1.605958e+02
2.270000e-06	2.693876e-06	2.417783e-09	1.885483e+01	1.573582e+02
2.280000e-06	2.573436e-06	2.321946e-09	1.801185e+01	1.540164e+02
2.290000e-06	2.452064e-06	2.244071e-09	1.716235e+01	1.505701e+02
2.300000e-06	2.329963e-06	2.222572e-09	1.630775e+01	1.470204e+02
2.310000e-06	2.207187e-06	2.206222e-09	1.544842e+01	1.433693e+02
2.320000e-06	2.083699e-06	2.138947e-09	1.458411e+01	1.396187e+02
2.330000e-06	1.959419e-06	2.045798e-09	1.371426e+01	1.357702e+02
2.340000e-06	1.834367e-06	1.981430e-09	1.283900e+01	1.318241e+02
2.350000e-06	1.708714e-06	1.949054e-09	1.195954e+01	1.277796e+02
2.360000e-06	1.582534e-06	1.900359e-09	1.107639e+01	1.236335e+02
2.370000e-06	1.455863e-06	1.815807e-09	1.018980e+01	1.193813e+02
2.380000e-06	1.328691e-06	1.725519e-09	9.299702e+00	1.150170e+02
2.390000e-06	1.201018e-06	1.662986e-09	8.406100e+00	1.105335e+02
2.400000e-06	1.072921e-06	1.613603e-09	7.509533e+00	1.059238e+02
2.410000e-06	9.444387e-07	1.541972e-09	6.610264e+00	1.011813e+02
2.420000e-06	8.156028e-07	1.449609e-09	5.708523e+00	9.630086e+01
2.430000e-06	6.864715e-07	1.365780e-09	4.804713e+00	9.127887e+01
2.440000e-06	5.571656e-07	1.300056e-09	3.899683e+00	8.611392e+01
2.450000e-06	4.276838e-07	1.230371e-09	2.993421e+00	8.080640e+01
2.460000e-06	2.979698e-07	1.141923e-09	2.085534e+00	7.535816e+01
2.470000e-06	1.681869e-07	1.048258e-09	1.177164e+00	6.977179e+01
2.480000e-06	3.841625e-08	9.635782e-10	2.688809e-01	6.404972e+01
2.490000e-06	-9.136275e-08	8.810568e-10	-6.394612e-01	5.819330e+01
2.500000e-06	-2.211418e-07	7.885666e-10	-1.547803e+00	5.220201e+01
2.510000e-06	-3.509100e-07	6.913188e-10	-2.456070e+00	4.607289e+01
2.520000e-06	-4.805939e-07	5.971241e-10	-3.363746e+00	3.980039e+01
2.530000e-06	-6.101364e-07	5.013042e-10	-4.270433e+00	3.337672e+01
2.540000e-06	-7.395234e-07	3.964340e-10	-5.176032e+00	2.679260e+01
2.550000e-06	-8.687117e-07	2.867873e-10	-6.080239e+00	2.003853e+01
2.560000e-06	-9.975542e-07	1.824808e-10	-6.982027e+00	1.310634e+01
2.570000e-06	-1.125942e-06	8.017567e-11	-7.880633e+00	5.990926e+00
2.580000e-06	-1.253925e-06	-3.189078e-11	-8.776404e+00	-1.308023e+00
2.590000e-06	-1.381462e-06	-1.544701e-10	-9.669052e+00	-8.784570e+00
2.600000e-06	-1.508432e-06	-2.741197e-10	-1.055773e+01	-1.642543e+01
2.610000e-06	-1.634833e-06	-3.828318e-10	-1.144243e+01	-2.420947e+01
2.620000e-06	-1.760644e-06	-4.926940e-10	-1.232300e+01	-3.210782e+01
2.630000e-06	-1.885789e-06	-6.167875e-10	-1.319891e+01	-4.008467e+01
2.640000e-06	-2.010207e-06	-7.462410e-10	-1.406973e+01	-4.809868e+01
2.650000e-06	-2.133765e-06	-8.651534e-10	-1.493453e+01	-5.610484e+01
2.660000e-06	-2.256386e-06	-9.752615e-10	-1.579277e+01	-6.405668e+01
2.670000e-06	-2.378244e-06	-1.092656e-09	-1.664568e+01	-7.190859e+01
2.680000e-06	-2.499346e-06	-1.219922e-09	-1.749329e+01	-7.961800e+01
2.690000e-06	-2.619441e-06	-1.342624e-09	-1.833385e+01	-8.714727e+01
2.700000e-06	-2.738398e-06	-1.451263e-09	-1.916645e+01	-9.446514e+01
2.710000e-06	-2.856249e-06	-1.550678e-09	-1.999130e+01	-1.015476e+02
2.720000e-06	-2.972981e-06	-1.653471e-09	-2.080832e+01	-1.083783e+02
2.730000e-06	-3.088500e-06	-1.760712e-09	-2.161686e+01	-1.149479e+02
2.740000e-06	-3.202746e-06	-1.860199e-09	-2.241649e+01	-1.212537e+02
2.750000e-06	-3.315670e-06	-1.946398e-09	-2.320685e+01	-1.272983e+02
2.760000e-06	-3.427259e-06	-2.025264e-09	-2.398788e+01	-1.330883e+02
2.770000e-06	-3.537556e-06	-2.108567e-09	-2.475987e+01	-1.386329e+02
2.780000e-06	-3.646680e-06	-2.198306e-09	-2.552365e+01	-1.439426e+02
2.790000e-06	-3.754647e-06	-2.281800e-09	-2.627932e+01	-1.490282e+02
2.800000e-06	-3.861384e-06	-2.351601e-09	-2.702639e+01	-1.539000e+02
2.810000e-06	-3.966871e-06	-2.415092e-09	-2.776470e+01	-1.585673e+02
2.820000e-06	-4.070992e-06	-2.482678e-09	-2.849346e+01	-1.630383e+02
2.830000e-06	-4.173565e-06	-2.554084e-09	-2.921139e+01	-1.673202e+02
2.840000e-06	-4.274519e-06	-2.618747e-09	-2.991798e+01	-1.714194e+02
2.850000e-06	-4.373908e-06	-2.671091e-09	-3.061362e+01	-1.753419e+02
2.860000e-06	-4.471863e-06	-2.721326e-09	-3.129922e+01	-1.790936e+02
2.870000e-06	-4.568365e-06	-2.780641e-09	-3.197465e+01	-1.826806e+02
2.880000e-06	-4.663216e-06	-2.843980e-09	-3.263853e+01	-1.861092e+02
2.890000e-06	-4.756359e-06	-2.896630e-09	-3.329045e+01	-1.893863e+02
2.900000e-06	-4.847797e-06	-2.936062e-09	-3.393043e+01	-1.925186e+02
2.910000e-06	-4.937561e-06	-2.975578e-09	-3.455871e+01	-1.955131e+02
2.920000e-06	-5.025582e-06	-3.023979e-09	-3.517478e+01	-1.983764e+02
2.930000e-06	-5.111695e-06	-3.071746e-09	-3.577750e+01	-2.011143e+02
2.940000e-06	-5.195878e-06	-3.106952e-09	-3.636671e+01	-2.037321e+02
