# Temperatura_=_20.0
# Concentracion g/m^3_=_9000.0
# C_Vs_to_Am_M_A/Vsm_=_65563218390.804596
# pendiente_HvsI_1/m_=_3716.3
# ordenada_HvsI_A/m_=_1297.0
# frecuencia_Hz_=_301303.9207769872

Tiempo_(s)	Campo_(V.s)	Magnetizacion_(V.s)	Campo_(kA/m)	Magnetizacion_(A/m)
0.000000e+00	-8.165820e-06	-3.848656e-09	-5.697564e+01	-2.500476e+02
1.000000e-08	-8.163801e-06	-3.849121e-09	-5.696156e+01	-2.500722e+02
2.000000e-08	-8.159069e-06	-3.848919e-09	-5.692854e+01	-2.500679e+02
3.000000e-08	-8.151703e-06	-3.845159e-09	-5.687715e+01	-2.500253e+02
4.000000e-08	-8.141486e-06	-3.843256e-09	-5.680586e+01	-2.499374e+02
5.000000e-08	-8.128315e-06	-3.843290e-09	-5.671396e+01	-2.498004e+02
6.000000e-08	-8.112179e-06	-3.839051e-09	-5.660138e+01	-2.496158e+02
7.000000e-08	-8.093490e-06	-3.826408e-09	-5.647097e+01	-2.493900e+02
8.000000e-08	-8.072428e-06	-3.788908e-09	-5.632402e+01	-2.491347e+02
9.000000e-08	-8.048475e-06	-3.782904e-09	-5.615689e+01	-2.488652e+02
1.000000e-07	-8.021291e-06	-3.826999e-09	-5.596722e+01	-2.485989e+02
1.100000e-07	-7.991037e-06	-3.835009e-09	-5.575613e+01	-2.483524e+02
1.200000e-07	-7.957805e-06	-3.825072e-09	-5.552425e+01	-2.481397e+02
1.300000e-07	-7.921731e-06	-3.842618e-09	-5.527256e+01	-2.479693e+02
1.400000e-07	-7.883351e-06	-3.825654e-09	-5.500476e+01	-2.478431e+02
1.500000e-07	-7.842772e-06	-3.731142e-09	-5.472163e+01	-2.477554e+02
1.600000e-07	-7.799512e-06	-3.785227e-09	-5.441979e+01	-2.476933e+02
1.700000e-07	-7.753417e-06	-3.852788e-09	-5.409817e+01	-2.476382e+02
1.800000e-07	-7.704555e-06	-3.723112e-09	-5.375725e+01	-2.475676e+02
1.900000e-07	-7.652609e-06	-3.779126e-09	-5.339480e+01	-2.474585e+02
2.000000e-07	-7.597658e-06	-3.834674e-09	-5.301139e+01	-2.472898e+02
2.100000e-07	-7.539970e-06	-3.769096e-09	-5.260888e+01	-2.470452e+02
2.200000e-07	-7.479562e-06	-3.750215e-09	-5.218740e+01	-2.467154e+02
2.300000e-07	-7.416565e-06	-3.769512e-09	-5.174784e+01	-2.462987e+02
2.400000e-07	-7.350831e-06	-3.794853e-09	-5.128919e+01	-2.458015e+02
2.500000e-07	-7.282305e-06	-3.711574e-09	-5.081107e+01	-2.452365e+02
2.600000e-07	-7.211127e-06	-3.746343e-09	-5.031444e+01	-2.446211e+02
2.700000e-07	-7.137156e-06	-3.766509e-09	-4.979832e+01	-2.439743e+02
2.800000e-07	-7.060336e-06	-3.701957e-09	-4.926231e+01	-2.433139e+02
2.900000e-07	-6.980788e-06	-3.686342e-09	-4.870728e+01	-2.426538e+02
3.000000e-07	-6.898729e-06	-3.708266e-09	-4.813473e+01	-2.420017e+02
3.100000e-07	-6.814317e-06	-3.719439e-09	-4.754576e+01	-2.413583e+02
3.200000e-07	-6.727570e-06	-3.641582e-09	-4.694050e+01	-2.407172e+02
3.300000e-07	-6.638525e-06	-3.658809e-09	-4.631920e+01	-2.400658e+02
3.400000e-07	-6.547154e-06	-3.678330e-09	-4.568167e+01	-2.393879e+02
3.500000e-07	-6.453464e-06	-3.623624e-09	-4.502797e+01	-2.386656e+02
3.600000e-07	-6.357466e-06	-3.595193e-09	-4.435816e+01	-2.378827e+02
3.700000e-07	-6.259096e-06	-3.619128e-09	-4.367180e+01	-2.370270e+02
3.800000e-07	-6.158455e-06	-3.602654e-09	-4.296959e+01	-2.360917e+02
3.900000e-07	-6.055598e-06	-3.540224e-09	-4.225192e+01	-2.350767e+02
4.000000e-07	-5.950580e-06	-3.555041e-09	-4.151918e+01	-2.339883e+02
4.100000e-07	-5.843467e-06	-3.560679e-09	-4.077181e+01	-2.328374e+02
4.200000e-07	-5.734311e-06	-3.515029e-09	-4.001020e+01	-2.316377e+02
4.300000e-07	-5.623056e-06	-3.484267e-09	-3.923393e+01	-2.304028e+02
4.400000e-07	-5.509596e-06	-3.498384e-09	-3.844229e+01	-2.291440e+02
4.500000e-07	-5.393903e-06	-3.470934e-09	-3.763506e+01	-2.278672e+02
4.600000e-07	-5.276147e-06	-3.425539e-09	-3.681343e+01	-2.265721e+02
4.700000e-07	-5.156504e-06	-3.418925e-09	-3.597864e+01	-2.252518e+02
4.800000e-07	-5.035035e-06	-3.410589e-09	-3.513112e+01	-2.238931e+02
4.900000e-07	-4.911739e-06	-3.365357e-09	-3.427084e+01	-2.224784e+02
5.000000e-07	-4.786682e-06	-3.331233e-09	-3.339827e+01	-2.209882e+02
5.100000e-07	-4.659964e-06	-3.327985e-09	-3.251412e+01	-2.194041e+02
5.200000e-07	-4.531518e-06	-3.298711e-09	-3.161791e+01	-2.177110e+02
5.300000e-07	-4.401422e-06	-3.255947e-09	-3.071019e+01	-2.158994e+02
5.400000e-07	-4.269718e-06	-3.230059e-09	-2.979125e+01	-2.139665e+02
5.500000e-07	-4.136532e-06	-3.214828e-09	-2.886196e+01	-2.119158e+02
5.600000e-07	-4.001919e-06	-3.173520e-09	-2.792272e+01	-2.097560e+02
5.700000e-07	-3.865785e-06	-3.135108e-09	-2.697287e+01	-2.074986e+02
5.800000e-07	-3.728229e-06	-3.107641e-09	-2.601309e+01	-2.051551e+02
5.900000e-07	-3.589198e-06	-3.072031e-09	-2.504303e+01	-2.027337e+02
6.000000e-07	-3.448600e-06	-3.027629e-09	-2.406203e+01	-2.002367e+02
6.100000e-07	-3.306599e-06	-2.989550e-09	-2.307124e+01	-1.976587e+02
6.200000e-07	-3.163357e-06	-2.953200e-09	-2.207180e+01	-1.949857e+02
6.300000e-07	-3.018982e-06	-2.901202e-09	-2.106444e+01	-1.921962e+02
6.400000e-07	-2.873496e-06	-2.852499e-09	-2.004934e+01	-1.892625e+02
6.500000e-07	-2.726984e-06	-2.806085e-09	-1.902708e+01	-1.861544e+02
6.600000e-07	-2.579615e-06	-2.755808e-09	-1.799883e+01	-1.828417e+02
6.700000e-07	-2.431456e-06	-2.693525e-09	-1.696508e+01	-1.792978e+02
6.800000e-07	-2.282460e-06	-2.635060e-09	-1.592548e+01	-1.755018e+02
6.900000e-07	-2.132679e-06	-2.580230e-09	-1.488041e+01	-1.714392e+02
7.000000e-07	-1.982196e-06	-2.514481e-09	-1.383044e+01	-1.671016e+02
7.100000e-07	-1.830994e-06	-2.442866e-09	-1.277545e+01	-1.624837e+02
7.200000e-07	-1.679064e-06	-2.372494e-09	-1.171539e+01	-1.575792e+02
7.300000e-07	-1.526552e-06	-2.297973e-09	-1.065126e+01	-1.523758e+02
7.400000e-07	-1.373568e-06	-2.209010e-09	-9.583843e+00	-1.468496e+02
7.500000e-07	-1.220070e-06	-2.117212e-09	-8.512837e+00	-1.409607e+02
7.600000e-07	-1.066065e-06	-2.022379e-09	-7.438293e+00	-1.346498e+02
7.700000e-07	-9.115915e-07	-1.914346e-09	-6.360478e+00	-1.278375e+02
7.800000e-07	-7.567275e-07	-1.792197e-09	-5.279940e+00	-1.204271e+02
7.900000e-07	-6.015965e-07	-1.667740e-09	-4.197539e+00	-1.123099e+02
8.000000e-07	-4.462902e-07	-1.535410e-09	-3.113916e+00	-1.033736e+02
8.100000e-07	-2.908860e-07	-1.385268e-09	-2.029608e+00	-9.351374e+01
8.200000e-07	-1.353959e-07	-1.221097e-09	-9.447020e-01	-8.264566e+01
8.300000e-07	2.023949e-08	-1.044260e-09	1.412177e-01	-7.071688e+01
8.400000e-07	1.759445e-07	-8.498774e-10	1.227623e+00	-5.771807e+01
8.500000e-07	3.314830e-07	-6.336667e-10	2.312867e+00	-4.369122e+01
8.600000e-07	4.868585e-07	-4.061572e-10	3.396974e+00	-2.873400e+01
8.700000e-07	6.421309e-07	-1.676719e-10	4.480361e+00	-1.299931e+01
8.800000e-07	7.971535e-07	8.298388e-11	5.562005e+00	3.309949e+00
8.900000e-07	9.518266e-07	3.395066e-10	6.641211e+00	1.995083e+01
9.000000e-07	1.106116e-06	5.965422e-10	7.717740e+00	3.665423e+01
9.100000e-07	1.260027e-06	8.499925e-10	8.791626e+00	5.314133e+01
9.200000e-07	1.413455e-06	1.095668e-09	9.862147e+00	6.914126e+01
9.300000e-07	1.566259e-06	1.325238e-09	1.092831e+01	8.440806e+01
9.400000e-07	1.718491e-06	1.538612e-09	1.199049e+01	9.873557e+01
9.500000e-07	1.870155e-06	1.736868e-09	1.304869e+01	1.119687e+02
9.600000e-07	2.021084e-06	1.918005e-09	1.410178e+01	1.240101e+02
9.700000e-07	2.171224e-06	2.079759e-09	1.514935e+01	1.348220e+02
9.800000e-07	2.320622e-06	2.222802e-09	1.619175e+01	1.444228e+02
9.900000e-07	2.469210e-06	2.348407e-09	1.722850e+01	1.528798e+02
1.000000e-06	2.616940e-06	2.458007e-09	1.825926e+01	1.602976e+02
1.010000e-06	2.763778e-06	2.555685e-09	1.928380e+01	1.668061e+02
1.020000e-06	2.909595e-06	2.643936e-09	2.030121e+01	1.725463e+02
1.030000e-06	3.054338e-06	2.723169e-09	2.131113e+01	1.776576e+02
1.040000e-06	3.197992e-06	2.792770e-09	2.231346e+01	1.822679e+02
1.050000e-06	3.340485e-06	2.858004e-09	2.330767e+01	1.864849e+02
1.060000e-06	3.481718e-06	2.918601e-09	2.429311e+01	1.903928e+02
1.070000e-06	3.621581e-06	2.973776e-09	2.526897e+01	1.940503e+02
1.080000e-06	3.760071e-06	3.023581e-09	2.623527e+01	1.974933e+02
1.090000e-06	3.897149e-06	3.071607e-09	2.719170e+01	2.007391e+02
1.100000e-06	4.032716e-06	3.116274e-09	2.813761e+01	2.037918e+02
1.110000e-06	4.166790e-06	3.156281e-09	2.907308e+01	2.066487e+02
1.120000e-06	4.299433e-06	3.192662e-09	2.999858e+01	2.093057e+02
1.130000e-06	4.430561e-06	3.225213e-09	3.091350e+01	2.117621e+02
1.140000e-06	4.560056e-06	3.257031e-09	3.181703e+01	2.140232e+02
1.150000e-06	4.687946e-06	3.286831e-09	3.270936e+01	2.161012e+02
1.160000e-06	4.814170e-06	3.317464e-09	3.359007e+01	2.180150e+02
1.170000e-06	4.938774e-06	3.346504e-09	3.445947e+01	2.197878e+02
1.180000e-06	5.061698e-06	3.371937e-09	3.531716e+01	2.214448e+02
1.190000e-06	5.182763e-06	3.395217e-09	3.616187e+01	2.230099e+02
1.200000e-06	5.301956e-06	3.417658e-09	3.699352e+01	2.245031e+02
1.210000e-06	5.419222e-06	3.437559e-09	3.781171e+01	2.259390e+02
1.220000e-06	5.534390e-06	3.453826e-09	3.861528e+01	2.273259e+02
1.230000e-06	5.647313e-06	3.470652e-09	3.940318e+01	2.286656e+02
1.240000e-06	5.758097e-06	3.488026e-09	4.017616e+01	2.299552e+02
1.250000e-06	5.866958e-06	3.505643e-09	4.093572e+01	2.311888e+02
1.260000e-06	5.973871e-06	3.522722e-09	4.168168e+01	2.323595e+02
1.270000e-06	6.078632e-06	3.538169e-09	4.241264e+01	2.334617e+02
1.280000e-06	6.181133e-06	3.553508e-09	4.312782e+01	2.344927e+02
1.290000e-06	6.281398e-06	3.568766e-09	4.382740e+01	2.354536e+02
1.300000e-06	6.379348e-06	3.582767e-09	4.451083e+01	2.363492e+02
1.310000e-06	6.474875e-06	3.593200e-09	4.517736e+01	2.371878e+02
1.320000e-06	6.568137e-06	3.603329e-09	4.582808e+01	2.379796e+02
1.330000e-06	6.659222e-06	3.613779e-09	4.646361e+01	2.387350e+02
1.340000e-06	6.747893e-06	3.624330e-09	4.708230e+01	2.394635e+02
1.350000e-06	6.834200e-06	3.635835e-09	4.768449e+01	2.401717e+02
1.360000e-06	6.918259e-06	3.647397e-09	4.827100e+01	2.408630e+02
1.370000e-06	6.999909e-06	3.658204e-09	4.884069e+01	2.415370e+02
1.380000e-06	7.079002e-06	3.667309e-09	4.939255e+01	2.421903e+02
1.390000e-06	7.155516e-06	3.676289e-09	4.992642e+01	2.428173e+02
1.400000e-06	7.229324e-06	3.684935e-09	5.044140e+01	2.434118e+02
1.410000e-06	7.300383e-06	3.692088e-09	5.093720e+01	2.439681e+02
1.420000e-06	7.368896e-06	3.697096e-09	5.141524e+01	2.444825e+02
1.430000e-06	7.434783e-06	3.701445e-09	5.187495e+01	2.449541e+02
1.440000e-06	7.497996e-06	3.707952e-09	5.231601e+01	2.453853e+02
1.450000e-06	7.558659e-06	3.715641e-09	5.273928e+01	2.457812e+02
1.460000e-06	7.616681e-06	3.722390e-09	5.314412e+01	2.461489e+02
1.470000e-06	7.671974e-06	3.728647e-09	5.352991e+01	2.464964e+02
1.480000e-06	7.724331e-06	3.735892e-09	5.389523e+01	2.468311e+02
1.490000e-06	7.773528e-06	3.742532e-09	5.423850e+01	2.471587e+02
1.500000e-06	7.819776e-06	3.746318e-09	5.456118e+01	2.474823e+02
1.510000e-06	7.863322e-06	3.749306e-09	5.486501e+01	2.478017e+02
1.520000e-06	7.904048e-06	3.752926e-09	5.514917e+01	2.481138e+02
1.530000e-06	7.941893e-06	3.755096e-09	5.541323e+01	2.484134e+02
1.540000e-06	7.977059e-06	3.756316e-09	5.565860e+01	2.486940e+02
1.550000e-06	8.009456e-06	3.759679e-09	5.588464e+01	2.489491e+02
1.560000e-06	8.038980e-06	3.765541e-09	5.609064e+01	2.491739e+02
1.570000e-06	8.065706e-06	3.770708e-09	5.627711e+01	2.493658e+02
1.580000e-06	8.089517e-06	3.774148e-09	5.644326e+01	2.495249e+02
1.590000e-06	8.110507e-06	3.777169e-09	5.658971e+01	2.496546e+02
1.600000e-06	8.128736e-06	3.779008e-09	5.671690e+01	2.497599e+02
1.610000e-06	8.144003e-06	3.778090e-09	5.682342e+01	2.498474e+02
1.620000e-06	8.156242e-06	3.776896e-09	5.690881e+01	2.499232e+02
1.630000e-06	8.165331e-06	3.776730e-09	5.697223e+01	2.499919e+02
1.640000e-06	8.171452e-06	3.776130e-09	5.701494e+01	2.500550e+02
1.650000e-06	8.174813e-06	3.776168e-09	5.703839e+01	2.501110e+02
1.660000e-06	8.175258e-06	3.777141e-09	5.704150e+01	2.501549e+02
1.670000e-06	8.172892e-06	3.779493e-09	5.702499e+01	2.501787e+02
1.680000e-06	8.167862e-06	3.780925e-09	5.698989e+01	2.501731e+02
1.690000e-06	8.160159e-06	3.783205e-09	5.693615e+01	2.501290e+02
1.700000e-06	8.149808e-06	3.783251e-09	5.686392e+01	2.500394e+02
1.710000e-06	8.136594e-06	3.777935e-09	5.677172e+01	2.499007e+02
1.720000e-06	8.120518e-06	3.777731e-09	5.665956e+01	2.497145e+02
1.730000e-06	8.101964e-06	3.797188e-09	5.653010e+01	2.494875e+02
1.740000e-06	8.080945e-06	3.836096e-09	5.638345e+01	2.492314e+02
1.750000e-06	8.056701e-06	3.780969e-09	5.621428e+01	2.489618e+02
1.760000e-06	8.028552e-06	3.748261e-09	5.601788e+01	2.486958e+02
1.770000e-06	7.996934e-06	3.752808e-09	5.579727e+01	2.484504e+02
1.780000e-06	7.962779e-06	3.707562e-09	5.555896e+01	2.482391e+02
1.790000e-06	7.926502e-06	3.703513e-09	5.530584e+01	2.480703e+02
1.800000e-06	7.888012e-06	3.824980e-09	5.503728e+01	2.479456e+02
1.810000e-06	7.847274e-06	3.763381e-09	5.475305e+01	2.478591e+02
1.820000e-06	7.803906e-06	3.745456e-09	5.445045e+01	2.477977e+02
1.830000e-06	7.757802e-06	3.856723e-09	5.412876e+01	2.477424e+02
1.840000e-06	7.708928e-06	3.723169e-09	5.378776e+01	2.476709e+02
1.850000e-06	7.656977e-06	3.753082e-09	5.342528e+01	2.475600e+02
1.860000e-06	7.602015e-06	3.775202e-09	5.304179e+01	2.473888e+02
1.870000e-06	7.544192e-06	3.758542e-09	5.263834e+01	2.471414e+02
1.880000e-06	7.483798e-06	3.744471e-09	5.221695e+01	2.468084e+02
1.890000e-06	7.420660e-06	3.690653e-09	5.177641e+01	2.463888e+02
1.900000e-06	7.354624e-06	3.807882e-09	5.131566e+01	2.458888e+02
1.910000e-06	7.285839e-06	3.708488e-09	5.083573e+01	2.453217e+02
1.920000e-06	7.214249e-06	3.674487e-09	5.033622e+01	2.447049e+02
1.930000e-06	7.140108e-06	3.752880e-09	4.981891e+01	2.440573e+02
1.940000e-06	7.063212e-06	3.718332e-09	4.928238e+01	2.433968e+02
1.950000e-06	6.983427e-06	3.702216e-09	4.872570e+01	2.427369e+02
1.960000e-06	6.901217e-06	3.644294e-09	4.815209e+01	2.420852e+02
1.970000e-06	6.816608e-06	3.722483e-09	4.756175e+01	2.414420e+02
1.980000e-06	6.729458e-06	3.660846e-09	4.695367e+01	2.408008e+02
1.990000e-06	6.639845e-06	3.639366e-09	4.632841e+01	2.401488e+02
2.000000e-06	6.548033e-06	3.683336e-09	4.568781e+01	2.394696e+02
2.010000e-06	6.453905e-06	3.649494e-09	4.503105e+01	2.387454e+02
2.020000e-06	6.357391e-06	3.625973e-09	4.435763e+01	2.379602e+02
2.030000e-06	6.258705e-06	3.607228e-09	4.366907e+01	2.371017e+02
2.040000e-06	6.157801e-06	3.649838e-09	4.296503e+01	2.361635e+02
2.050000e-06	6.054544e-06	3.581324e-09	4.224457e+01	2.351458e+02
2.060000e-06	5.949128e-06	3.565317e-09	4.150905e+01	2.340550e+02
2.070000e-06	5.841798e-06	3.574746e-09	4.076017e+01	2.329021e+02
2.080000e-06	5.732404e-06	3.560983e-09	3.999689e+01	2.317009e+02
2.090000e-06	5.620790e-06	3.516220e-09	3.921812e+01	2.304651e+02
2.100000e-06	5.507072e-06	3.508573e-09	3.842467e+01	2.292055e+02
2.110000e-06	5.391262e-06	3.515346e-09	3.761663e+01	2.279281e+02
2.120000e-06	5.273245e-06	3.466660e-09	3.679319e+01	2.266324e+02
2.130000e-06	5.153159e-06	3.446342e-09	3.595531e+01	2.253110e+02
2.140000e-06	5.031272e-06	3.440473e-09	3.510486e+01	2.239506e+02
2.150000e-06	4.907629e-06	3.427498e-09	3.424216e+01	2.225335e+02
2.160000e-06	4.782199e-06	3.382456e-09	3.336699e+01	2.210403e+02
2.170000e-06	4.655030e-06	3.367695e-09	3.247969e+01	2.194526e+02
2.180000e-06	4.526187e-06	3.349949e-09	3.158071e+01	2.177554e+02
2.190000e-06	4.395840e-06	3.317862e-09	3.067124e+01	2.159395e+02
2.200000e-06	4.263991e-06	3.280080e-09	2.975129e+01	2.140023e+02
2.210000e-06	4.130569e-06	3.260115e-09	2.882036e+01	2.119475e+02
2.220000e-06	3.995650e-06	3.230441e-09	2.787898e+01	2.097840e+02
2.230000e-06	3.859214e-06	3.189231e-09	2.692702e+01	2.075234e+02
2.240000e-06	3.721359e-06	3.160512e-09	2.596516e+01	2.051771e+02
2.250000e-06	3.582185e-06	3.129241e-09	2.499409e+01	2.027530e+02
2.260000e-06	3.441655e-06	3.084238e-09	2.401357e+01	2.002533e+02
2.270000e-06	3.299808e-06	3.036352e-09	2.302386e+01	1.976722e+02
2.280000e-06	3.156656e-06	3.003302e-09	2.202504e+01	1.949955e+02
2.290000e-06	3.012229e-06	2.963758e-09	2.101733e+01	1.922013e+02
2.300000e-06	2.866732e-06	2.913077e-09	2.000214e+01	1.892620e+02
2.310000e-06	2.720331e-06	2.862720e-09	1.898066e+01	1.861471e+02
2.320000e-06	2.572999e-06	2.819155e-09	1.795267e+01	1.828266e+02
2.330000e-06	2.424747e-06	2.766534e-09	1.691826e+01	1.792740e+02
2.340000e-06	2.275644e-06	2.706025e-09	1.587793e+01	1.754687e+02
2.350000e-06	2.125753e-06	2.648000e-09	1.483209e+01	1.713964e+02
2.360000e-06	1.975082e-06	2.587534e-09	1.378080e+01	1.670489e+02
2.370000e-06	1.823690e-06	2.515747e-09	1.272449e+01	1.624209e+02
2.380000e-06	1.671631e-06	2.440537e-09	1.166352e+01	1.575060e+02
2.390000e-06	1.518955e-06	2.364595e-09	1.059826e+01	1.522916e+02
2.400000e-06	1.365749e-06	2.279126e-09	9.529288e+00	1.467533e+02
2.410000e-06	1.212089e-06	2.183405e-09	8.457152e+00	1.408505e+02
2.420000e-06	1.058068e-06	2.087213e-09	7.382491e+00	1.345231e+02
2.430000e-06	9.037103e-07	1.987147e-09	6.305488e+00	1.276913e+02
2.440000e-06	7.490889e-07	1.869978e-09	5.226643e+00	1.202576e+02
2.450000e-06	5.942847e-07	1.740225e-09	4.146523e+00	1.121130e+02
2.460000e-06	4.392523e-07	1.603667e-09	3.064809e+00	1.031455e+02
2.470000e-06	2.839848e-07	1.455764e-09	1.981457e+00	9.325096e+01
2.480000e-06	1.285958e-07	1.289767e-09	8.972554e-01	8.234569e+01
2.490000e-06	-2.678618e-08	1.108290e-09	-1.868961e-01	7.037859e+01
2.500000e-06	-1.821621e-07	9.130701e-10	-1.271006e+00	5.734203e+01
2.510000e-06	-3.374810e-07	6.999002e-10	-2.354717e+00	4.327997e+01
2.520000e-06	-4.925792e-07	4.732618e-10	-3.436889e+00	2.829204e+01
2.530000e-06	-6.474609e-07	2.361028e-10	-4.517550e+00	1.253308e+01
2.540000e-06	-8.021697e-07	-1.320785e-11	-5.597005e+00	-3.792382e+00
2.550000e-06	-9.566123e-07	-2.714536e-10	-6.674602e+00	-2.044022e+01
2.560000e-06	-1.110707e-06	-5.300745e-10	-7.749774e+00	-3.714068e+01
2.570000e-06	-1.264407e-06	-7.839003e-10	-8.822185e+00	-5.361493e+01
2.580000e-06	-1.417689e-06	-1.032921e-09	-9.891688e+00	-6.959269e+01
2.590000e-06	-1.570488e-06	-1.270478e-09	-1.095782e+01	-8.482920e+01
2.600000e-06	-1.722727e-06	-1.489175e-09	-1.202004e+01	-9.911995e+01
2.610000e-06	-1.874304e-06	-1.690548e-09	-1.307764e+01	-1.123118e+02
2.620000e-06	-2.025097e-06	-1.873751e-09	-1.412978e+01	-1.243096e+02
2.630000e-06	-2.175111e-06	-2.036373e-09	-1.517648e+01	-1.350776e+02
2.640000e-06	-2.324390e-06	-2.179603e-09	-1.621804e+01	-1.446361e+02
2.650000e-06	-2.472868e-06	-2.308371e-09	-1.725402e+01	-1.530539e+02
2.660000e-06	-2.620429e-06	-2.424173e-09	-1.828361e+01	-1.604370e+02
2.670000e-06	-2.767074e-06	-2.524189e-09	-1.930679e+01	-1.669156e+02
2.680000e-06	-2.912836e-06	-2.612960e-09	-2.032382e+01	-1.726308e+02
2.690000e-06	-3.057604e-06	-2.696301e-09	-2.133392e+01	-1.777222e+02
2.700000e-06	-3.201201e-06	-2.772207e-09	-2.233585e+01	-1.823166e+02
2.710000e-06	-3.343541e-06	-2.839223e-09	-2.332900e+01	-1.865214e+02
2.720000e-06	-3.484579e-06	-2.899146e-09	-2.431307e+01	-1.904194e+02
2.730000e-06	-3.624281e-06	-2.955483e-09	-2.528781e+01	-1.940687e+02
2.740000e-06	-3.762633e-06	-3.008471e-09	-2.625314e+01	-1.975045e+02
2.750000e-06	-3.899593e-06	-3.057518e-09	-2.720876e+01	-2.007434e+02
2.760000e-06	-4.035074e-06	-3.102551e-09	-2.815406e+01	-2.037891e+02
2.770000e-06	-4.169083e-06	-3.144276e-09	-2.908908e+01	-2.066389e+02
2.780000e-06	-4.301621e-06	-3.184763e-09	-3.001384e+01	-2.092887e+02
2.790000e-06	-4.432662e-06	-3.224180e-09	-3.092816e+01	-2.117380e+02
2.800000e-06	-4.562199e-06	-3.262350e-09	-3.183198e+01	-2.139922e+02
2.810000e-06	-4.690163e-06	-3.297559e-09	-3.272483e+01	-2.160640e+02
2.820000e-06	-4.816462e-06	-3.329194e-09	-3.360606e+01	-2.179723e+02
2.830000e-06	-4.941015e-06	-3.359821e-09	-3.447510e+01	-2.197406e+02
2.840000e-06	-5.063822e-06	-3.388887e-09	-3.533197e+01	-2.213939e+02
2.850000e-06	-5.184857e-06	-3.415172e-09	-3.617648e+01	-2.229560e+02
2.860000e-06	-5.303930e-06	-3.439115e-09	-3.700728e+01	-2.244469e+02
2.870000e-06	-5.420860e-06	-3.461026e-09	-3.782314e+01	-2.258810e+02
2.880000e-06	-5.535591e-06	-3.481131e-09	-3.862367e+01	-2.272662e+02
2.890000e-06	-5.648164e-06	-3.501597e-09	-3.940912e+01	-2.286042e+02
2.900000e-06	-5.758632e-06	-3.522698e-09	-4.017989e+01	-2.298919e+02
2.910000e-06	-5.867120e-06	-3.541831e-09	-4.093685e+01	-2.311233e+02
2.920000e-06	-5.973666e-06	-3.560306e-09	-4.168025e+01	-2.322916e+02
2.930000e-06	-6.078073e-06	-3.579747e-09	-4.240874e+01	-2.333913e+02
2.940000e-06	-6.180201e-06	-3.598705e-09	-4.312132e+01	-2.344198e+02
