# Temperatura_=_20.0
# Concentracion g/m^3_=_9000.0
# C_Vs_to_Am_M_A/Vsm_=_65563218390.804596
# pendiente_HvsI_1/m_=_3716.3
# ordenada_HvsI_A/m_=_1297.0
# frecuencia_Hz_=_301297.0956945936

Tiempo_(s)	Campo_(V.s)	Magnetizacion_(V.s)	Campo_(kA/m)	Magnetizacion_(A/m)
0.000000e+00	-8.123759e-06	-5.401661e-09	-5.697890e+01	-3.541741e+02
1.000000e-08	-8.121269e-06	-5.399275e-09	-5.696143e+01	-3.541455e+02
2.000000e-08	-8.116081e-06	-5.399391e-09	-5.692505e+01	-3.540943e+02
3.000000e-08	-8.108260e-06	-5.397147e-09	-5.687019e+01	-3.540144e+02
4.000000e-08	-8.097616e-06	-5.392687e-09	-5.679554e+01	-3.539003e+02
5.000000e-08	-8.083991e-06	-5.388130e-09	-5.669997e+01	-3.537476e+02
6.000000e-08	-8.067470e-06	-5.385736e-09	-5.658409e+01	-3.535549e+02
7.000000e-08	-8.048478e-06	-5.378658e-09	-5.645089e+01	-3.533243e+02
8.000000e-08	-8.027095e-06	-5.380711e-09	-5.630091e+01	-3.530617e+02
9.000000e-08	-8.002727e-06	-5.378769e-09	-5.612999e+01	-3.527758e+02
1.000000e-07	-7.975117e-06	-5.408319e-09	-5.593635e+01	-3.524769e+02
1.100000e-07	-7.944497e-06	-5.415237e-09	-5.572158e+01	-3.521756e+02
1.200000e-07	-7.910991e-06	-5.384895e-09	-5.548657e+01	-3.518799e+02
1.300000e-07	-7.874740e-06	-5.351780e-09	-5.523231e+01	-3.515945e+02
1.400000e-07	-7.836239e-06	-5.319935e-09	-5.496227e+01	-3.513184e+02
1.500000e-07	-7.795544e-06	-5.340020e-09	-5.467685e+01	-3.510453e+02
1.600000e-07	-7.752139e-06	-5.337394e-09	-5.437241e+01	-3.507632e+02
1.700000e-07	-7.705933e-06	-5.361071e-09	-5.404832e+01	-3.504560e+02
1.800000e-07	-7.656868e-06	-5.320305e-09	-5.370419e+01	-3.501054e+02
1.900000e-07	-7.604633e-06	-5.308446e-09	-5.333782e+01	-3.496934e+02
2.000000e-07	-7.549456e-06	-5.344523e-09	-5.295082e+01	-3.492045e+02
2.100000e-07	-7.491579e-06	-5.306181e-09	-5.254487e+01	-3.486285e+02
2.200000e-07	-7.431080e-06	-5.296113e-09	-5.212054e+01	-3.479615e+02
2.300000e-07	-7.368017e-06	-5.282116e-09	-5.167823e+01	-3.472069e+02
2.400000e-07	-7.302184e-06	-5.270508e-09	-5.121649e+01	-3.463747e+02
2.500000e-07	-7.233632e-06	-5.270705e-09	-5.073567e+01	-3.454801e+02
2.600000e-07	-7.162390e-06	-5.270758e-09	-5.023599e+01	-3.445414e+02
2.700000e-07	-7.088315e-06	-5.241731e-09	-4.971644e+01	-3.435767e+02
2.800000e-07	-7.011487e-06	-5.205462e-09	-4.917758e+01	-3.426017e+02
2.900000e-07	-6.931946e-06	-5.217669e-09	-4.861969e+01	-3.416264e+02
3.000000e-07	-6.849901e-06	-5.210176e-09	-4.804424e+01	-3.406542e+02
3.100000e-07	-6.765643e-06	-5.182923e-09	-4.745327e+01	-3.396807e+02
3.200000e-07	-6.679169e-06	-5.169187e-09	-4.684675e+01	-3.386947e+02
3.300000e-07	-6.590290e-06	-5.141576e-09	-4.622336e+01	-3.376792e+02
3.400000e-07	-6.498969e-06	-5.129355e-09	-4.558285e+01	-3.366145e+02
3.500000e-07	-6.405343e-06	-5.110128e-09	-4.492617e+01	-3.354809e+02
3.600000e-07	-6.309432e-06	-5.092030e-09	-4.425347e+01	-3.342613e+02
3.700000e-07	-6.211202e-06	-5.066073e-09	-4.356449e+01	-3.329442e+02
3.800000e-07	-6.110728e-06	-5.046034e-09	-4.285978e+01	-3.315250e+02
3.900000e-07	-6.008068e-06	-5.029559e-09	-4.213974e+01	-3.300063e+02
4.000000e-07	-5.903224e-06	-5.004080e-09	-4.140438e+01	-3.283972e+02
4.100000e-07	-5.796298e-06	-4.981693e-09	-4.065441e+01	-3.267114e+02
4.200000e-07	-5.687353e-06	-4.949569e-09	-3.989029e+01	-3.249644e+02
4.300000e-07	-5.576378e-06	-4.933210e-09	-3.911193e+01	-3.231708e+02
4.400000e-07	-5.463224e-06	-4.905347e-09	-3.831828e+01	-3.213407e+02
4.500000e-07	-5.347826e-06	-4.877406e-09	-3.750890e+01	-3.194780e+02
4.600000e-07	-5.230419e-06	-4.849338e-09	-3.668542e+01	-3.175793e+02
4.700000e-07	-5.111199e-06	-4.819152e-09	-3.584923e+01	-3.156331e+02
4.800000e-07	-4.990106e-06	-4.782668e-09	-3.499990e+01	-3.136220e+02
4.900000e-07	-4.867125e-06	-4.740817e-09	-3.413732e+01	-3.115245e+02
5.000000e-07	-4.742443e-06	-4.708592e-09	-3.326282e+01	-3.093183e+02
5.100000e-07	-4.616162e-06	-4.671644e-09	-3.237711e+01	-3.069831e+02
5.200000e-07	-4.488223e-06	-4.634561e-09	-3.147976e+01	-3.045040e+02
5.300000e-07	-4.358558e-06	-4.591177e-09	-3.057031e+01	-3.018731e+02
5.400000e-07	-4.227257e-06	-4.552432e-09	-2.964938e+01	-2.990901e+02
5.500000e-07	-4.094461e-06	-4.512137e-09	-2.871797e+01	-2.961615e+02
5.600000e-07	-3.960269e-06	-4.468086e-09	-2.777677e+01	-2.930990e+02
5.700000e-07	-3.824729e-06	-4.420582e-09	-2.682611e+01	-2.899156e+02
5.800000e-07	-3.687727e-06	-4.367799e-09	-2.586519e+01	-2.866223e+02
5.900000e-07	-3.549157e-06	-4.317463e-09	-2.489329e+01	-2.832246e+02
6.000000e-07	-3.409156e-06	-4.263695e-09	-2.391134e+01	-2.797191e+02
6.100000e-07	-3.267840e-06	-4.210103e-09	-2.292017e+01	-2.760924e+02
6.200000e-07	-3.125162e-06	-4.146447e-09	-2.191944e+01	-2.723202e+02
6.300000e-07	-2.981231e-06	-4.081169e-09	-2.090993e+01	-2.683696e+02
6.400000e-07	-2.836157e-06	-4.015181e-09	-1.989241e+01	-2.642017e+02
6.500000e-07	-2.690134e-06	-3.947327e-09	-1.886822e+01	-2.597756e+02
6.600000e-07	-2.543319e-06	-3.873585e-09	-1.783848e+01	-2.550524e+02
6.700000e-07	-2.395740e-06	-3.793044e-09	-1.680338e+01	-2.499994e+02
6.800000e-07	-2.247412e-06	-3.712899e-09	-1.576303e+01	-2.445916e+02
6.900000e-07	-2.098358e-06	-3.628514e-09	-1.471759e+01	-2.388128e+02
7.000000e-07	-1.948608e-06	-3.538317e-09	-1.366726e+01	-2.326532e+02
7.100000e-07	-1.798118e-06	-3.437423e-09	-1.261175e+01	-2.261054e+02
7.200000e-07	-1.647038e-06	-3.333180e-09	-1.155209e+01	-2.191581e+02
7.300000e-07	-1.495463e-06	-3.222224e-09	-1.048896e+01	-2.117892e+02
7.400000e-07	-1.343295e-06	-3.103506e-09	-9.421682e+00	-2.039583e+02
7.500000e-07	-1.190490e-06	-2.974796e-09	-8.349926e+00	-1.956015e+02
7.600000e-07	-1.037159e-06	-2.833449e-09	-7.274485e+00	-1.866274e+02
7.700000e-07	-8.833615e-07	-2.678573e-09	-6.195773e+00	-1.769176e+02
7.800000e-07	-7.291066e-07	-2.509747e-09	-5.113851e+00	-1.663312e+02
7.900000e-07	-5.745159e-07	-2.331104e-09	-4.029573e+00	-1.547131e+02
8.000000e-07	-4.197087e-07	-2.134685e-09	-2.943778e+00	-1.419071e+02
8.100000e-07	-2.647658e-07	-1.919631e-09	-1.857030e+00	-1.277711e+02
8.200000e-07	-1.097171e-07	-1.683610e-09	-7.695402e-01	-1.121939e+02
8.300000e-07	4.532005e-08	-1.427342e-09	3.178685e-01	-9.511276e+01
8.400000e-07	2.003449e-07	-1.147952e-09	1.405191e+00	-7.652688e+01
8.500000e-07	3.553587e-07	-8.448113e-10	2.492436e+00	-5.650846e+01
8.600000e-07	5.101872e-07	-5.221607e-10	3.578381e+00	-3.520735e+01
8.700000e-07	6.647896e-07	-1.814416e-10	4.662740e+00	-1.284953e+01
8.800000e-07	8.191174e-07	1.723506e-10	5.745174e+00	1.027121e+01
8.900000e-07	9.731069e-07	5.359890e-10	6.825234e+00	3.380789e+01
9.000000e-07	1.126703e-06	9.009247e-10	7.902532e+00	5.738005e+01
9.100000e-07	1.279736e-06	1.261382e-09	8.975885e+00	8.059687e+01
9.200000e-07	1.432118e-06	1.606425e-09	1.004467e+01	1.030816e+02
9.300000e-07	1.583876e-06	1.930468e-09	1.110908e+01	1.244948e+02
9.400000e-07	1.735075e-06	2.230661e-09	1.216957e+01	1.445546e+02
9.500000e-07	1.885675e-06	2.506804e-09	1.322585e+01	1.630516e+02
9.600000e-07	2.035548e-06	2.757977e-09	1.427704e+01	1.798578e+02
9.700000e-07	2.184668e-06	2.982543e-09	1.532296e+01	1.949280e+02
9.800000e-07	2.333075e-06	3.182102e-09	1.636386e+01	2.082950e+02
9.900000e-07	2.480788e-06	3.356768e-09	1.739990e+01	2.200590e+02
1.000000e-06	2.627715e-06	3.511750e-09	1.843042e+01	2.303712e+02
1.010000e-06	2.773721e-06	3.648764e-09	1.945449e+01	2.394168e+02
1.020000e-06	2.918673e-06	3.772459e-09	2.047116e+01	2.473951e+02
1.030000e-06	3.062522e-06	3.884273e-09	2.148009e+01	2.545030e+02
1.040000e-06	3.205211e-06	3.984972e-09	2.248090e+01	2.609195e+02
1.050000e-06	3.346679e-06	4.077638e-09	2.347313e+01	2.667955e+02
1.060000e-06	3.487004e-06	4.160267e-09	2.445735e+01	2.722478e+02
1.070000e-06	3.626100e-06	4.237853e-09	2.543295e+01	2.773580e+02
1.080000e-06	3.763676e-06	4.307492e-09	2.639789e+01	2.821753e+02
1.090000e-06	3.899687e-06	4.372247e-09	2.735185e+01	2.867224e+02
1.100000e-06	4.034258e-06	4.434117e-09	2.829571e+01	2.910040e+02
1.110000e-06	4.167348e-06	4.492691e-09	2.922919e+01	2.950149e+02
1.120000e-06	4.299058e-06	4.545566e-09	3.015298e+01	2.987484e+02
1.130000e-06	4.429308e-06	4.592021e-09	3.106654e+01	3.022022e+02
1.140000e-06	4.557870e-06	4.638612e-09	3.196826e+01	3.053827e+02
1.150000e-06	4.684798e-06	4.682798e-09	3.285851e+01	3.083063e+02
1.160000e-06	4.810171e-06	4.724487e-09	3.373786e+01	3.109986e+02
1.170000e-06	4.933956e-06	4.763105e-09	3.460607e+01	3.134920e+02
1.180000e-06	5.055939e-06	4.800015e-09	3.546164e+01	3.158211e+02
1.190000e-06	5.176008e-06	4.833480e-09	3.630379e+01	3.180192e+02
1.200000e-06	5.294196e-06	4.864315e-09	3.713274e+01	3.201142e+02
1.210000e-06	5.410468e-06	4.892608e-09	3.794826e+01	3.221262e+02
1.220000e-06	5.524590e-06	4.920093e-09	3.874869e+01	3.240660e+02
1.230000e-06	5.636510e-06	4.947231e-09	3.953368e+01	3.259354e+02
1.240000e-06	5.746450e-06	4.973851e-09	4.030479e+01	3.277292e+02
1.250000e-06	5.854480e-06	4.999810e-09	4.106250e+01	3.294381e+02
1.260000e-06	5.960439e-06	5.021989e-09	4.180568e+01	3.310511e+02
1.270000e-06	6.064166e-06	5.043002e-09	4.253320e+01	3.325596e+02
1.280000e-06	6.165739e-06	5.063716e-09	4.324562e+01	3.339591e+02
1.290000e-06	6.265166e-06	5.083600e-09	4.394299e+01	3.352513e+02
1.300000e-06	6.362225e-06	5.102123e-09	4.462375e+01	3.364440e+02
1.310000e-06	6.456902e-06	5.119562e-09	4.528780e+01	3.375502e+02
1.320000e-06	6.549448e-06	5.137210e-09	4.593690e+01	3.385867e+02
1.330000e-06	6.639691e-06	5.152881e-09	4.656985e+01	3.395711e+02
1.340000e-06	6.727448e-06	5.168111e-09	4.718537e+01	3.405197e+02
1.350000e-06	6.812943e-06	5.184253e-09	4.778502e+01	3.414448e+02
1.360000e-06	6.896113e-06	5.199886e-09	4.836836e+01	3.423537e+02
1.370000e-06	6.976788e-06	5.215185e-09	4.893420e+01	3.432474e+02
1.380000e-06	7.054973e-06	5.229251e-09	4.948258e+01	3.441217e+02
1.390000e-06	7.130591e-06	5.241746e-09	5.001296e+01	3.449679e+02
1.400000e-06	7.203497e-06	5.253379e-09	5.052431e+01	3.457751e+02
1.410000e-06	7.273750e-06	5.263351e-09	5.101705e+01	3.465325e+02
1.420000e-06	7.341462e-06	5.272998e-09	5.149198e+01	3.472311e+02
1.430000e-06	7.406515e-06	5.282636e-09	5.194825e+01	3.478664e+02
1.440000e-06	7.468937e-06	5.291811e-09	5.238607e+01	3.484381e+02
1.450000e-06	7.528849e-06	5.301855e-09	5.280628e+01	3.489514e+02
1.460000e-06	7.586116e-06	5.313056e-09	5.320795e+01	3.494156e+02
1.470000e-06	7.640678e-06	5.323679e-09	5.359063e+01	3.498426e+02
1.480000e-06	7.692279e-06	5.331964e-09	5.395256e+01	3.502454e+02
1.490000e-06	7.740678e-06	5.339389e-09	5.429202e+01	3.506357e+02
1.500000e-06	7.786198e-06	5.346482e-09	5.461129e+01	3.510224e+02
1.510000e-06	7.829036e-06	5.353337e-09	5.491176e+01	3.514101e+02
1.520000e-06	7.869036e-06	5.358870e-09	5.519231e+01	3.517989e+02
1.530000e-06	7.906266e-06	5.362799e-09	5.545343e+01	3.521841e+02
1.540000e-06	7.940785e-06	5.367678e-09	5.569554e+01	3.525581e+02
1.550000e-06	7.972475e-06	5.374412e-09	5.591781e+01	3.529111e+02
1.560000e-06	8.001453e-06	5.382035e-09	5.612106e+01	3.532331e+02
1.570000e-06	8.027647e-06	5.388010e-09	5.630478e+01	3.535157e+02
1.580000e-06	8.050890e-06	5.393230e-09	5.646780e+01	3.537534e+02
1.590000e-06	8.071387e-06	5.397695e-09	5.661157e+01	3.539441e+02
1.600000e-06	8.089113e-06	5.400867e-09	5.673589e+01	3.540895e+02
1.610000e-06	8.103853e-06	5.402631e-09	5.683928e+01	3.541943e+02
1.620000e-06	8.115532e-06	5.404224e-09	5.692120e+01	3.542651e+02
1.630000e-06	8.124085e-06	5.406499e-09	5.698119e+01	3.543088e+02
1.640000e-06	8.129746e-06	5.408576e-09	5.702089e+01	3.543315e+02
1.650000e-06	8.132649e-06	5.410158e-09	5.704125e+01	3.543370e+02
1.660000e-06	8.132685e-06	5.408323e-09	5.704150e+01	3.543262e+02
1.670000e-06	8.129989e-06	5.409938e-09	5.702259e+01	3.542969e+02
1.680000e-06	8.124654e-06	5.407879e-09	5.698518e+01	3.542448e+02
1.690000e-06	8.116581e-06	5.406390e-09	5.692855e+01	3.541638e+02
1.700000e-06	8.105768e-06	5.405515e-09	5.685271e+01	3.540483e+02
1.710000e-06	8.092102e-06	5.404558e-09	5.675686e+01	3.538942e+02
1.720000e-06	8.075688e-06	5.404063e-09	5.664173e+01	3.537000e+02
1.730000e-06	8.056916e-06	5.395742e-09	5.651007e+01	3.534682e+02
1.740000e-06	8.035580e-06	5.391109e-09	5.636042e+01	3.532046e+02
1.750000e-06	8.010838e-06	5.356520e-09	5.618689e+01	3.529180e+02
1.760000e-06	7.982212e-06	5.323682e-09	5.598610e+01	3.526189e+02
1.770000e-06	7.950257e-06	5.342533e-09	5.576198e+01	3.523176e+02
1.780000e-06	7.915898e-06	5.378584e-09	5.552099e+01	3.520223e+02
1.790000e-06	7.879404e-06	5.392206e-09	5.526503e+01	3.517372e+02
1.800000e-06	7.840698e-06	5.382352e-09	5.499355e+01	3.514614e+02
1.810000e-06	7.799664e-06	5.390530e-09	5.470574e+01	3.511882e+02
1.820000e-06	7.755981e-06	5.331213e-09	5.439936e+01	3.509055e+02
1.830000e-06	7.709625e-06	5.363225e-09	5.407422e+01	3.505970e+02
1.840000e-06	7.660475e-06	5.374353e-09	5.372949e+01	3.502446e+02
1.850000e-06	7.608343e-06	5.323158e-09	5.336385e+01	3.498300e+02
1.860000e-06	7.553294e-06	5.349113e-09	5.297773e+01	3.493382e+02
1.870000e-06	7.495411e-06	5.300073e-09	5.257175e+01	3.487590e+02
1.880000e-06	7.434953e-06	5.317535e-09	5.214771e+01	3.480888e+02
1.890000e-06	7.371804e-06	5.308119e-09	5.170479e+01	3.473311e+02
1.900000e-06	7.305778e-06	5.281891e-09	5.124170e+01	3.464964e+02
1.910000e-06	7.236939e-06	5.261858e-09	5.075887e+01	3.455999e+02
1.920000e-06	7.165355e-06	5.240787e-09	5.025679e+01	3.446600e+02
1.930000e-06	7.091193e-06	5.276805e-09	4.973663e+01	3.436947e+02
1.940000e-06	7.014176e-06	5.230983e-09	4.919644e+01	3.427195e+02
1.950000e-06	6.934410e-06	5.221960e-09	4.863697e+01	3.417443e+02
1.960000e-06	6.852262e-06	5.189032e-09	4.806079e+01	3.407722e+02
1.970000e-06	6.767669e-06	5.169663e-09	4.746747e+01	3.397985e+02
1.980000e-06	6.680590e-06	5.179196e-09	4.685672e+01	3.388117e+02
1.990000e-06	6.591107e-06	5.154861e-09	4.622909e+01	3.377948e+02
2.000000e-06	6.499435e-06	5.147841e-09	4.558612e+01	3.367280e+02
2.010000e-06	6.405406e-06	5.106467e-09	4.492661e+01	3.355915e+02
2.020000e-06	6.309003e-06	5.105011e-09	4.425046e+01	3.343686e+02
2.030000e-06	6.210457e-06	5.082218e-09	4.355926e+01	3.330479e+02
2.040000e-06	6.109735e-06	5.067234e-09	4.285282e+01	3.316251e+02
2.050000e-06	6.006705e-06	5.033761e-09	4.213018e+01	3.301029e+02
2.060000e-06	5.901456e-06	5.011860e-09	4.139198e+01	3.284908e+02
2.070000e-06	5.794243e-06	4.994467e-09	4.064000e+01	3.268026e+02
2.080000e-06	5.685034e-06	4.958566e-09	3.987403e+01	3.250537e+02
2.090000e-06	5.573698e-06	4.938613e-09	3.909313e+01	3.232586e+02
2.100000e-06	5.460216e-06	4.906619e-09	3.829719e+01	3.214273e+02
2.110000e-06	5.344631e-06	4.876313e-09	3.748649e+01	3.195635e+02
2.120000e-06	5.226906e-06	4.836422e-09	3.666078e+01	3.176633e+02
2.130000e-06	5.107128e-06	4.819819e-09	3.582068e+01	3.157151e+02
2.140000e-06	4.985507e-06	4.790019e-09	3.496764e+01	3.137013e+02
2.150000e-06	4.862180e-06	4.756006e-09	3.410265e+01	3.116003e+02
2.160000e-06	4.737186e-06	4.719058e-09	3.322595e+01	3.093898e+02
2.170000e-06	4.610446e-06	4.686376e-09	3.233701e+01	3.070497e+02
2.180000e-06	4.481989e-06	4.647956e-09	3.143604e+01	3.045653e+02
2.190000e-06	4.351940e-06	4.606527e-09	3.052389e+01	3.019289e+02
2.200000e-06	4.220447e-06	4.566664e-09	2.960162e+01	2.991405e+02
2.210000e-06	4.087559e-06	4.522184e-09	2.866956e+01	2.962069e+02
2.220000e-06	3.953114e-06	4.478751e-09	2.772659e+01	2.931398e+02
2.230000e-06	3.817122e-06	4.434008e-09	2.677276e+01	2.899523e+02
2.240000e-06	3.679821e-06	4.387248e-09	2.580975e+01	2.866553e+02
2.250000e-06	3.541243e-06	4.331469e-09	2.483778e+01	2.832538e+02
2.260000e-06	3.401367e-06	4.274443e-09	2.385671e+01	2.797444e+02
2.270000e-06	3.260120e-06	4.219190e-09	2.286602e+01	2.761128e+02
2.280000e-06	3.117400e-06	4.163891e-09	2.186500e+01	2.723349e+02
2.290000e-06	2.973391e-06	4.101107e-09	2.085494e+01	2.683773e+02
2.300000e-06	2.828433e-06	4.036034e-09	1.983823e+01	2.642008e+02
2.310000e-06	2.682593e-06	3.967327e-09	1.881533e+01	2.597647e+02
2.320000e-06	2.535824e-06	3.894861e-09	1.778591e+01	2.550303e+02
2.330000e-06	2.388295e-06	3.819744e-09	1.675116e+01	2.499650e+02
2.340000e-06	2.240062e-06	3.740152e-09	1.571148e+01	2.445442e+02
2.350000e-06	2.091004e-06	3.654475e-09	1.466600e+01	2.387519e+02
2.360000e-06	1.941110e-06	3.562617e-09	1.361467e+01	2.325786e+02
2.370000e-06	1.790452e-06	3.465180e-09	1.255798e+01	2.260168e+02
2.380000e-06	1.638996e-06	3.362527e-09	1.149569e+01	2.190549e+02
2.390000e-06	1.486930e-06	3.249926e-09	1.042912e+01	2.116702e+02
2.400000e-06	1.334411e-06	3.127793e-09	9.359370e+00	2.038219e+02
2.410000e-06	1.181484e-06	2.999498e-09	8.286762e+00	1.954447e+02
2.420000e-06	1.028201e-06	2.864764e-09	7.211655e+00	1.864465e+02
2.430000e-06	8.746045e-07	2.716101e-09	6.134352e+00	1.767080e+02
2.440000e-06	7.207450e-07	2.549531e-09	5.055204e+00	1.660874e+02
2.450000e-06	5.666455e-07	2.367144e-09	3.974372e+00	1.544296e+02
2.460000e-06	4.123385e-07	2.168108e-09	2.892084e+00	1.415784e+02
2.470000e-06	2.578107e-07	1.954330e-09	1.808248e+00	1.273925e+02
2.480000e-06	1.031540e-07	1.721303e-09	7.235077e-01	1.117624e+02
2.490000e-06	-5.146628e-08	1.465264e-09	-3.609772e-01	9.462711e+01
2.500000e-06	-2.060142e-07	1.185991e-09	-1.444954e+00	7.598837e+01
2.510000e-06	-3.605081e-07	8.845612e-10	-2.528553e+00	5.592109e+01
2.520000e-06	-5.148455e-07	5.638994e-10	-3.611053e+00	3.457791e+01
2.530000e-06	-6.689185e-07	2.243264e-10	-4.691700e+00	1.218742e+01
2.540000e-06	-8.227725e-07	-1.319564e-10	-5.770810e+00	-1.095442e+01
2.550000e-06	-9.763626e-07	-4.970029e-10	-6.848069e+00	-3.449906e+01
2.560000e-06	-1.129589e-06	-8.630485e-10	-7.922777e+00	-5.806525e+01
2.570000e-06	-1.282463e-06	-1.224653e-09	-8.995012e+00	-8.126226e+01
2.580000e-06	-1.434938e-06	-1.572364e-09	-1.006446e+01	-1.037143e+02
2.590000e-06	-1.587016e-06	-1.899263e-09	-1.113110e+01	-1.250836e+02
2.600000e-06	-1.738585e-06	-2.203659e-09	-1.219419e+01	-1.450908e+02
2.610000e-06	-1.889394e-06	-2.484235e-09	-1.325194e+01	-1.635291e+02
2.620000e-06	-2.039273e-06	-2.736771e-09	-1.430317e+01	-1.802736e+02
2.630000e-06	-2.188221e-06	-2.962382e-09	-1.534787e+01	-1.952819e+02
2.640000e-06	-2.336425e-06	-3.164231e-09	-1.638736e+01	-2.085896e+02
2.650000e-06	-2.483981e-06	-3.343576e-09	-1.742230e+01	-2.202989e+02
2.660000e-06	-2.630749e-06	-3.502717e-09	-1.845170e+01	-2.305626e+02
2.670000e-06	-2.776571e-06	-3.643223e-09	-1.947448e+01	-2.395665e+02
2.680000e-06	-2.921467e-06	-3.768630e-09	-2.049076e+01	-2.475105e+02
2.690000e-06	-3.065419e-06	-3.881576e-09	-2.150042e+01	-2.545908e+02
2.700000e-06	-3.208131e-06	-3.983570e-09	-2.250137e+01	-2.609855e+02
2.710000e-06	-3.349361e-06	-4.076322e-09	-2.349195e+01	-2.668446e+02
2.720000e-06	-3.489229e-06	-4.159968e-09	-2.447296e+01	-2.722835e+02
2.730000e-06	-3.627806e-06	-4.236516e-09	-2.544492e+01	-2.773826e+02
2.740000e-06	-3.765124e-06	-4.310325e-09	-2.640805e+01	-2.821899e+02
2.750000e-06	-3.901174e-06	-4.380192e-09	-2.736228e+01	-2.867276e+02
2.760000e-06	-4.035688e-06	-4.442810e-09	-2.830575e+01	-2.909996e+02
2.770000e-06	-4.168647e-06	-4.501117e-09	-2.923830e+01	-2.950008e+02
2.780000e-06	-4.300234e-06	-4.558838e-09	-3.016123e+01	-2.987243e+02
2.790000e-06	-4.430443e-06	-4.614752e-09	-3.107450e+01	-3.021681e+02
2.800000e-06	-4.559186e-06	-4.666030e-09	-3.197749e+01	-3.053391e+02
2.810000e-06	-4.686277e-06	-4.712542e-09	-3.286888e+01	-3.082539e+02
2.820000e-06	-4.811550e-06	-4.756470e-09	-3.374753e+01	-3.109386e+02
2.830000e-06	-4.935143e-06	-4.799617e-09	-3.461440e+01	-3.134255e+02
2.840000e-06	-5.057128e-06	-4.839530e-09	-3.546998e+01	-3.157494e+02
2.850000e-06	-5.177330e-06	-4.875571e-09	-3.631306e+01	-3.179434e+02
2.860000e-06	-5.295440e-06	-4.909656e-09	-3.714147e+01	-3.200352e+02
2.870000e-06	-5.411282e-06	-4.940531e-09	-3.795397e+01	-3.220445e+02
2.880000e-06	-5.524937e-06	-4.968760e-09	-3.875113e+01	-3.239817e+02
2.890000e-06	-5.636422e-06	-4.996451e-09	-3.953307e+01	-3.258485e+02
2.900000e-06	-5.745872e-06	-5.022971e-09	-4.030073e+01	-3.276396e+02
2.910000e-06	-5.853484e-06	-5.047550e-09	-4.105551e+01	-3.293451e+02
2.920000e-06	-5.959153e-06	-5.070950e-09	-4.179666e+01	-3.309546e+02
2.930000e-06	-6.062636e-06	-5.094208e-09	-4.252247e+01	-3.324592e+02
2.940000e-06	-6.163808e-06	-5.116581e-09	-4.323208e+01	-3.338549e+02
