# Temperatura_=_20.0
# Concentracion g/m^3_=_9000.0
# C_Vs_to_Am_M_A/Vsm_=_65563218390.804596
# pendiente_HvsI_1/m_=_3716.3
# ordenada_HvsI_A/m_=_1297.0
# frecuencia_Hz_=_301295.7958862119

Tiempo_(s)	Campo_(V.s)	Magnetizacion_(V.s)	Campo_(kA/m)	Magnetizacion_(A/m)
0.000000e+00	-8.158861e-06	-5.406247e-09	-5.697961e+01	-3.547126e+02
1.000000e-08	-8.156529e-06	-5.401966e-09	-5.696333e+01	-3.546987e+02
2.000000e-08	-8.151527e-06	-5.403194e-09	-5.692840e+01	-3.546742e+02
3.000000e-08	-8.143864e-06	-5.401902e-09	-5.687488e+01	-3.546312e+02
4.000000e-08	-8.133363e-06	-5.399983e-09	-5.680155e+01	-3.545596e+02
5.000000e-08	-8.119937e-06	-5.398014e-09	-5.670778e+01	-3.544495e+02
6.000000e-08	-8.103586e-06	-5.398566e-09	-5.659359e+01	-3.542924e+02
7.000000e-08	-8.084647e-06	-5.403286e-09	-5.646132e+01	-3.540834e+02
8.000000e-08	-8.063292e-06	-5.391310e-09	-5.631218e+01	-3.538217e+02
9.000000e-08	-8.039050e-06	-5.357610e-09	-5.614288e+01	-3.535109e+02
1.000000e-07	-8.011600e-06	-5.402861e-09	-5.595118e+01	-3.531581e+02
1.100000e-07	-7.981069e-06	-5.428521e-09	-5.573796e+01	-3.527730e+02
1.200000e-07	-7.947555e-06	-5.397899e-09	-5.550390e+01	-3.523659e+02
1.300000e-07	-7.911255e-06	-5.367906e-09	-5.525039e+01	-3.519461e+02
1.400000e-07	-7.872686e-06	-5.356831e-09	-5.498103e+01	-3.515197e+02
1.500000e-07	-7.831947e-06	-5.324810e-09	-5.469652e+01	-3.510886e+02
1.600000e-07	-7.788520e-06	-5.312658e-09	-5.439324e+01	-3.506502e+02
1.700000e-07	-7.742221e-06	-5.412852e-09	-5.406990e+01	-3.501973e+02
1.800000e-07	-7.693133e-06	-5.287785e-09	-5.372708e+01	-3.497193e+02
1.900000e-07	-7.640957e-06	-5.292735e-09	-5.336269e+01	-3.492040e+02
2.000000e-07	-7.585732e-06	-5.353549e-09	-5.297702e+01	-3.486393e+02
2.100000e-07	-7.527723e-06	-5.294248e-09	-5.257189e+01	-3.480157e+02
2.200000e-07	-7.467081e-06	-5.308356e-09	-5.214838e+01	-3.473271e+02
2.300000e-07	-7.403845e-06	-5.261396e-09	-5.170675e+01	-3.465726e+02
2.400000e-07	-7.337849e-06	-5.283662e-09	-5.124586e+01	-3.457562e+02
2.500000e-07	-7.269167e-06	-5.262906e-09	-5.076619e+01	-3.448861e+02
2.600000e-07	-7.197793e-06	-5.257912e-09	-5.026773e+01	-3.439733e+02
2.700000e-07	-7.123593e-06	-5.242249e-09	-4.974954e+01	-3.430297e+02
2.800000e-07	-7.046622e-06	-5.212158e-09	-4.921199e+01	-3.420656e+02
2.900000e-07	-6.966979e-06	-5.214045e-09	-4.865579e+01	-3.410882e+02
3.000000e-07	-6.884793e-06	-5.178819e-09	-4.808182e+01	-3.400994e+02
3.100000e-07	-6.800238e-06	-5.196564e-09	-4.749130e+01	-3.390958e+02
3.200000e-07	-6.713391e-06	-5.165097e-09	-4.688478e+01	-3.380686e+02
3.300000e-07	-6.624224e-06	-5.117413e-09	-4.626206e+01	-3.370049e+02
3.400000e-07	-6.532673e-06	-5.125632e-09	-4.562269e+01	-3.358894e+02
3.500000e-07	-6.438756e-06	-5.109745e-09	-4.496680e+01	-3.347073e+02
3.600000e-07	-6.342550e-06	-5.073698e-09	-4.429492e+01	-3.334459e+02
3.700000e-07	-6.244059e-06	-5.049059e-09	-4.360708e+01	-3.320972e+02
3.800000e-07	-6.143306e-06	-5.050607e-09	-4.290344e+01	-3.306590e+02
3.900000e-07	-6.040321e-06	-5.016832e-09	-4.218421e+01	-3.291351e+02
4.000000e-07	-5.935182e-06	-4.979097e-09	-4.144995e+01	-3.275346e+02
4.100000e-07	-5.827902e-06	-4.969742e-09	-4.070073e+01	-3.258704e+02
4.200000e-07	-5.718537e-06	-4.949518e-09	-3.993695e+01	-3.241563e+02
4.300000e-07	-5.607154e-06	-4.920245e-09	-3.915908e+01	-3.224048e+02
4.400000e-07	-5.493644e-06	-4.890825e-09	-3.836635e+01	-3.206243e+02
4.500000e-07	-5.378001e-06	-4.872486e-09	-3.755873e+01	-3.188170e+02
4.600000e-07	-5.260249e-06	-4.842986e-09	-3.673637e+01	-3.169780e+02
4.700000e-07	-5.140498e-06	-4.804214e-09	-3.590006e+01	-3.150952e+02
4.800000e-07	-5.018957e-06	-4.777096e-09	-3.505124e+01	-3.131507e+02
4.900000e-07	-4.895635e-06	-4.742458e-09	-3.418999e+01	-3.111229e+02
5.000000e-07	-4.770577e-06	-4.700931e-09	-3.331661e+01	-3.089894e+02
5.100000e-07	-4.643817e-06	-4.663280e-09	-3.243135e+01	-3.067303e+02
5.200000e-07	-4.515332e-06	-4.636309e-09	-3.153404e+01	-3.043302e+02
5.300000e-07	-4.385226e-06	-4.594689e-09	-3.062541e+01	-3.017808e+02
5.400000e-07	-4.253526e-06	-4.547258e-09	-2.970565e+01	-2.990809e+02
5.500000e-07	-4.120300e-06	-4.514180e-09	-2.877523e+01	-2.962362e+02
5.600000e-07	-3.985526e-06	-4.476174e-09	-2.783400e+01	-2.932567e+02
5.700000e-07	-3.849221e-06	-4.429366e-09	-2.688208e+01	-2.901543e+02
5.800000e-07	-3.711577e-06	-4.375161e-09	-2.592081e+01	-2.869385e+02
5.900000e-07	-3.572588e-06	-4.330542e-09	-2.495013e+01	-2.836137e+02
6.000000e-07	-3.432078e-06	-4.276554e-09	-2.396885e+01	-2.801758e+02
6.100000e-07	-3.290082e-06	-4.216792e-09	-2.297718e+01	-2.766105e+02
6.200000e-07	-3.146893e-06	-4.155963e-09	-2.197718e+01	-2.728936e+02
6.300000e-07	-3.002656e-06	-4.094916e-09	-2.096986e+01	-2.689923e+02
6.400000e-07	-2.857294e-06	-4.030128e-09	-1.995469e+01	-2.648678e+02
6.500000e-07	-2.710815e-06	-3.957715e-09	-1.893171e+01	-2.604796e+02
6.600000e-07	-2.563410e-06	-3.888839e-09	-1.790227e+01	-2.557894e+02
6.700000e-07	-2.415228e-06	-3.811706e-09	-1.686740e+01	-2.507646e+02
6.800000e-07	-2.266253e-06	-3.730619e-09	-1.582699e+01	-2.453809e+02
6.900000e-07	-2.116465e-06	-3.644049e-09	-1.478091e+01	-2.396224e+02
7.000000e-07	-1.965943e-06	-3.554612e-09	-1.372970e+01	-2.334798e+02
7.100000e-07	-1.814770e-06	-3.454713e-09	-1.267394e+01	-2.269465e+02
7.200000e-07	-1.662946e-06	-3.348798e-09	-1.161363e+01	-2.200120e+02
7.300000e-07	-1.510501e-06	-3.240200e-09	-1.054900e+01	-2.126554e+02
7.400000e-07	-1.357520e-06	-3.121312e-09	-9.480606e+00	-2.048378e+02
7.500000e-07	-1.204060e-06	-2.992470e-09	-8.408878e+00	-1.964965e+02
7.600000e-07	-1.050176e-06	-2.851862e-09	-7.334185e+00	-1.875414e+02
7.700000e-07	-8.959383e-07	-2.701805e-09	-6.257028e+00	-1.778553e+02
7.800000e-07	-7.414150e-07	-2.533104e-09	-5.177873e+00	-1.672975e+02
7.900000e-07	-5.866508e-07	-2.350571e-09	-4.097035e+00	-1.557126e+02
8.000000e-07	-4.316971e-07	-2.153368e-09	-3.014873e+00	-1.429429e+02
8.100000e-07	-2.765811e-07	-1.941112e-09	-1.931579e+00	-1.288440e+02
8.200000e-07	-1.213504e-07	-1.707334e-09	-8.474832e-01	-1.133015e+02
8.300000e-07	3.394733e-08	-1.450353e-09	2.370804e-01	-9.624831e+01
8.400000e-07	1.892622e-07	-1.172298e-09	1.321764e+00	-7.767935e+01
8.500000e-07	3.444812e-07	-8.684758e-10	2.405778e+00	-5.766222e+01
8.600000e-07	4.995329e-07	-5.450616e-10	3.488623e+00	-3.634273e+01
8.700000e-07	6.544261e-07	-2.032339e-10	4.570362e+00	-1.394378e+01
8.800000e-07	8.091037e-07	1.508779e-10	5.650595e+00	9.242561e+00
8.900000e-07	9.634990e-07	5.179490e-10	6.728856e+00	3.286937e+01
9.000000e-07	1.117560e-06	8.870641e-10	7.804781e+00	5.655446e+01
9.100000e-07	1.271192e-06	1.247519e-09	8.877716e+00	7.990358e+01
9.200000e-07	1.424327e-06	1.593350e-09	9.947173e+00	1.025350e+02
9.300000e-07	1.576974e-06	1.919870e-09	1.101322e+01	1.241034e+02
9.400000e-07	1.729087e-06	2.224625e-09	1.207555e+01	1.443203e+02
9.500000e-07	1.880571e-06	2.502199e-09	1.313347e+01	1.629699e+02
9.600000e-07	2.031330e-06	2.755373e-09	1.418635e+01	1.799184e+02
9.700000e-07	2.181337e-06	2.982712e-09	1.523396e+01	1.951159e+02
9.800000e-07	2.330632e-06	3.185146e-09	1.627660e+01	2.085923e+02
9.900000e-07	2.479145e-06	3.361715e-09	1.731378e+01	2.204461e+02
1.000000e-06	2.626731e-06	3.517435e-09	1.834448e+01	2.308288e+02
1.010000e-06	2.773347e-06	3.657139e-09	1.936842e+01	2.399272e+02
1.020000e-06	2.918982e-06	3.781207e-09	2.038550e+01	2.479434e+02
1.030000e-06	3.063551e-06	3.894191e-09	2.139514e+01	2.550775e+02
1.040000e-06	3.207006e-06	3.994574e-09	2.239699e+01	2.615118e+02
1.050000e-06	3.349295e-06	4.086604e-09	2.339071e+01	2.674004e+02
1.060000e-06	3.490323e-06	4.169107e-09	2.437561e+01	2.728622e+02
1.070000e-06	3.629983e-06	4.247536e-09	2.535097e+01	2.779803e+02
1.080000e-06	3.768220e-06	4.320391e-09	2.631639e+01	2.828039e+02
1.090000e-06	3.905045e-06	4.386974e-09	2.727194e+01	2.873552e+02
1.100000e-06	4.040431e-06	4.450022e-09	2.821744e+01	2.916374e+02
1.110000e-06	4.174334e-06	4.508544e-09	2.915259e+01	2.956437e+02
1.120000e-06	4.306764e-06	4.561773e-09	3.007745e+01	2.993653e+02
1.130000e-06	4.437618e-06	4.608020e-09	3.099131e+01	3.027988e+02
1.140000e-06	4.566812e-06	4.653763e-09	3.189357e+01	3.059496e+02
1.150000e-06	4.694477e-06	4.695613e-09	3.278515e+01	3.088344e+02
1.160000e-06	4.820533e-06	4.735342e-09	3.366550e+01	3.114798e+02
1.170000e-06	4.944895e-06	4.773380e-09	3.453401e+01	3.139196e+02
1.180000e-06	5.067493e-06	4.811237e-09	3.539021e+01	3.161909e+02
1.190000e-06	5.188267e-06	4.844844e-09	3.623366e+01	3.183294e+02
1.200000e-06	5.307233e-06	4.876270e-09	3.706450e+01	3.203656e+02
1.210000e-06	5.424198e-06	4.905928e-09	3.788136e+01	3.223216e+02
1.220000e-06	5.538972e-06	4.931508e-09	3.868291e+01	3.242097e+02
1.230000e-06	5.651620e-06	4.956091e-09	3.946962e+01	3.260327e+02
1.240000e-06	5.762201e-06	4.978622e-09	4.024189e+01	3.277856e+02
1.250000e-06	5.870838e-06	5.001744e-09	4.100059e+01	3.294586e+02
1.260000e-06	5.977491e-06	5.022938e-09	4.174543e+01	3.310400e+02
1.270000e-06	6.081888e-06	5.044808e-09	4.247451e+01	3.325203e+02
1.280000e-06	6.184043e-06	5.066642e-09	4.318794e+01	3.338942e+02
1.290000e-06	6.284011e-06	5.086902e-09	4.388609e+01	3.351630e+02
1.300000e-06	6.381653e-06	5.106400e-09	4.456801e+01	3.363346e+02
1.310000e-06	6.476951e-06	5.121966e-09	4.523354e+01	3.374226e+02
1.320000e-06	6.570045e-06	5.137220e-09	4.588369e+01	3.384447e+02
1.330000e-06	6.660858e-06	5.152482e-09	4.651790e+01	3.394200e+02
1.340000e-06	6.749298e-06	5.167847e-09	4.713555e+01	3.403661e+02
1.350000e-06	6.835401e-06	5.183648e-09	4.773688e+01	3.412966e+02
1.360000e-06	6.919144e-06	5.199228e-09	4.832171e+01	3.422194e+02
1.370000e-06	7.000389e-06	5.215546e-09	4.888911e+01	3.431360e+02
1.380000e-06	7.079094e-06	5.231050e-09	4.943877e+01	3.440414e+02
1.390000e-06	7.155243e-06	5.245389e-09	4.997058e+01	3.449258e+02
1.400000e-06	7.228672e-06	5.258315e-09	5.048339e+01	3.457766e+02
1.410000e-06	7.299404e-06	5.268569e-09	5.097737e+01	3.465809e+02
1.420000e-06	7.367619e-06	5.277059e-09	5.145376e+01	3.473279e+02
1.430000e-06	7.433212e-06	5.286547e-09	5.191185e+01	3.480108e+02
1.440000e-06	7.496156e-06	5.296948e-09	5.235144e+01	3.486283e+02
1.450000e-06	7.556556e-06	5.307886e-09	5.277325e+01	3.491845e+02
1.460000e-06	7.614279e-06	5.318981e-09	5.317638e+01	3.496887e+02
1.470000e-06	7.669211e-06	5.330998e-09	5.356002e+01	3.501533e+02
1.480000e-06	7.721200e-06	5.341948e-09	5.392309e+01	3.505920e+02
1.490000e-06	7.770091e-06	5.349998e-09	5.426454e+01	3.510176e+02
1.500000e-06	7.816029e-06	5.356856e-09	5.458536e+01	3.514397e+02
1.510000e-06	7.859210e-06	5.364123e-09	5.488692e+01	3.518635e+02
1.520000e-06	7.899653e-06	5.371280e-09	5.516937e+01	3.522887e+02
1.530000e-06	7.937337e-06	5.375649e-09	5.543255e+01	3.527099e+02
1.540000e-06	7.972236e-06	5.379550e-09	5.567627e+01	3.531180e+02
1.550000e-06	8.004305e-06	5.385504e-09	5.590023e+01	3.535010e+02
1.560000e-06	8.033631e-06	5.392973e-09	5.610504e+01	3.538470e+02
1.570000e-06	8.060192e-06	5.399977e-09	5.629053e+01	3.541457e+02
1.580000e-06	8.083830e-06	5.405949e-09	5.645561e+01	3.543903e+02
1.590000e-06	8.104653e-06	5.411136e-09	5.660104e+01	3.545784e+02
1.600000e-06	8.122699e-06	5.415908e-09	5.672707e+01	3.547125e+02
1.610000e-06	8.137746e-06	5.417969e-09	5.683215e+01	3.547993e+02
1.620000e-06	8.149726e-06	5.419150e-09	5.691582e+01	3.548485e+02
1.630000e-06	8.158589e-06	5.420806e-09	5.697771e+01	3.548709e+02
1.640000e-06	8.164462e-06	5.421497e-09	5.701873e+01	3.548767e+02
1.650000e-06	8.167536e-06	5.422206e-09	5.704020e+01	3.548736e+02
1.660000e-06	8.167722e-06	5.420806e-09	5.704150e+01	3.548652e+02
1.670000e-06	8.165174e-06	5.427150e-09	5.702370e+01	3.548510e+02
1.680000e-06	8.159988e-06	5.424294e-09	5.698749e+01	3.548260e+02
1.690000e-06	8.152092e-06	5.420624e-09	5.693234e+01	3.547822e+02
1.700000e-06	8.141492e-06	5.417807e-09	5.685831e+01	3.547094e+02
1.710000e-06	8.128056e-06	5.413114e-09	5.676448e+01	3.545976e+02
1.720000e-06	8.111843e-06	5.404845e-09	5.665125e+01	3.544388e+02
1.730000e-06	8.093190e-06	5.388192e-09	5.652098e+01	3.542279e+02
1.740000e-06	8.071990e-06	5.435469e-09	5.637293e+01	3.539644e+02
1.750000e-06	8.047466e-06	5.391348e-09	5.620166e+01	3.536519e+02
1.760000e-06	8.019101e-06	5.334719e-09	5.600357e+01	3.532977e+02
1.770000e-06	7.987322e-06	5.356705e-09	5.578163e+01	3.529117e+02
1.780000e-06	7.953000e-06	5.378738e-09	5.554193e+01	3.525040e+02
1.790000e-06	7.916488e-06	5.344339e-09	5.528693e+01	3.520839e+02
1.800000e-06	7.877808e-06	5.417644e-09	5.501680e+01	3.516573e+02
1.810000e-06	7.836881e-06	5.418647e-09	5.473098e+01	3.512260e+02
1.820000e-06	7.793247e-06	5.275215e-09	5.442625e+01	3.507873e+02
1.830000e-06	7.746887e-06	5.395539e-09	5.410248e+01	3.503336e+02
1.840000e-06	7.697683e-06	5.335149e-09	5.375885e+01	3.498545e+02
1.850000e-06	7.645435e-06	5.323379e-09	5.339397e+01	3.493376e+02
1.860000e-06	7.590340e-06	5.349076e-09	5.300920e+01	3.487710e+02
1.870000e-06	7.532467e-06	5.251317e-09	5.260502e+01	3.481451e+02
1.880000e-06	7.471946e-06	5.337221e-09	5.218236e+01	3.474542e+02
1.890000e-06	7.408668e-06	5.260436e-09	5.174044e+01	3.466974e+02
1.900000e-06	7.342552e-06	5.291821e-09	5.127870e+01	3.458789e+02
1.910000e-06	7.273642e-06	5.259187e-09	5.079745e+01	3.450070e+02
1.920000e-06	7.201928e-06	5.200359e-09	5.029662e+01	3.440929e+02
1.930000e-06	7.127540e-06	5.268241e-09	4.977711e+01	3.431484e+02
1.940000e-06	7.050364e-06	5.207972e-09	4.923813e+01	3.421838e+02
1.950000e-06	6.970444e-06	5.248132e-09	4.867998e+01	3.412059e+02
1.960000e-06	6.888086e-06	5.146358e-09	4.810481e+01	3.402167e+02
1.970000e-06	6.803284e-06	5.167875e-09	4.751258e+01	3.392124e+02
1.980000e-06	6.715982e-06	5.179946e-09	4.690288e+01	3.381842e+02
1.990000e-06	6.626325e-06	5.125377e-09	4.627674e+01	3.371188e+02
2.000000e-06	6.534409e-06	5.139916e-09	4.563481e+01	3.360013e+02
2.010000e-06	6.440159e-06	5.085370e-09	4.497660e+01	3.348165e+02
2.020000e-06	6.343584e-06	5.104930e-09	4.430213e+01	3.335521e+02
2.030000e-06	6.244775e-06	5.049506e-09	4.361208e+01	3.322002e+02
2.040000e-06	6.143722e-06	5.064228e-09	4.290635e+01	3.307589e+02
2.050000e-06	6.040398e-06	5.024819e-09	4.218475e+01	3.292320e+02
2.060000e-06	5.934976e-06	4.996713e-09	4.144851e+01	3.276290e+02
2.070000e-06	5.827529e-06	4.975418e-09	4.069813e+01	3.259627e+02
2.080000e-06	5.717975e-06	4.947755e-09	3.993303e+01	3.242471e+02
2.090000e-06	5.606333e-06	4.931105e-09	3.915334e+01	3.224945e+02
2.100000e-06	5.492559e-06	4.881069e-09	3.835878e+01	3.207130e+02
2.110000e-06	5.376596e-06	4.868362e-09	3.754891e+01	3.189047e+02
2.120000e-06	5.258524e-06	4.831176e-09	3.672432e+01	3.170644e+02
2.130000e-06	5.138474e-06	4.813282e-09	3.588593e+01	3.151798e+02
2.140000e-06	5.016567e-06	4.773480e-09	3.503455e+01	3.132326e+02
2.150000e-06	4.892833e-06	4.755143e-09	3.417042e+01	3.112014e+02
2.160000e-06	4.767326e-06	4.717312e-09	3.329391e+01	3.090638e+02
2.170000e-06	4.640157e-06	4.680603e-09	3.240579e+01	3.067998e+02
2.180000e-06	4.511346e-06	4.643434e-09	3.150621e+01	3.043945e+02
2.190000e-06	4.380972e-06	4.607472e-09	3.059570e+01	3.018397e+02
2.200000e-06	4.249055e-06	4.564049e-09	2.967443e+01	2.991345e+02
2.210000e-06	4.115573e-06	4.517958e-09	2.874222e+01	2.962848e+02
2.220000e-06	3.980657e-06	4.481056e-09	2.780000e+01	2.933007e+02
2.230000e-06	3.844254e-06	4.433790e-09	2.684739e+01	2.901941e+02
2.240000e-06	3.706331e-06	4.385588e-09	2.588417e+01	2.869744e+02
2.250000e-06	3.567018e-06	4.332598e-09	2.491124e+01	2.836457e+02
2.260000e-06	3.426451e-06	4.282741e-09	2.392955e+01	2.802035e+02
2.270000e-06	3.284650e-06	4.224310e-09	2.293925e+01	2.766333e+02
2.280000e-06	3.141542e-06	4.166915e-09	2.193981e+01	2.729104e+02
2.290000e-06	2.997178e-06	4.106502e-09	2.093161e+01	2.690018e+02
2.300000e-06	2.851731e-06	4.044148e-09	1.991583e+01	2.648686e+02
2.310000e-06	2.705364e-06	3.974273e-09	1.889364e+01	2.604703e+02
2.320000e-06	2.558035e-06	3.903645e-09	1.786473e+01	2.557686e+02
2.330000e-06	2.409741e-06	3.828959e-09	1.682908e+01	2.507313e+02
2.340000e-06	2.260592e-06	3.746643e-09	1.578746e+01	2.453345e+02
2.350000e-06	2.110677e-06	3.661375e-09	1.474048e+01	2.395623e+02
2.360000e-06	1.960090e-06	3.573460e-09	1.368882e+01	2.334060e+02
2.370000e-06	1.808916e-06	3.475775e-09	1.263305e+01	2.268585e+02
2.380000e-06	1.657170e-06	3.368423e-09	1.157329e+01	2.199094e+02
2.390000e-06	1.504791e-06	3.256609e-09	1.050912e+01	2.125372e+02
2.400000e-06	1.351768e-06	3.138808e-09	9.440441e+00	2.047021e+02
2.410000e-06	1.198144e-06	3.010042e-09	8.367562e+00	1.963405e+02
2.420000e-06	1.044068e-06	2.871449e-09	7.291531e+00	1.873616e+02
2.430000e-06	8.897253e-07	2.722065e-09	6.213638e+00	1.776468e+02
2.440000e-06	7.351677e-07	2.557257e-09	5.134242e+00	1.670550e+02
2.450000e-06	5.803880e-07	2.377612e-09	4.053297e+00	1.554305e+02
2.460000e-06	4.253957e-07	2.181873e-09	2.970866e+00	1.426157e+02
2.470000e-06	2.702428e-07	1.968526e-09	1.887314e+00	1.284669e+02
2.480000e-06	1.149816e-07	1.732730e-09	8.030054e-01	1.128713e+02
2.490000e-06	-4.031405e-08	1.474856e-09	-2.815441e-01	9.576372e+01
2.500000e-06	-1.955636e-07	1.196392e-09	-1.365772e+00	7.714141e+01
2.510000e-06	-3.507136e-07	8.957424e-10	-2.449303e+00	5.707478e+01
2.520000e-06	-5.056879e-07	5.738408e-10	-3.531608e+00	3.571246e+01
2.530000e-06	-6.604689e-07	2.331769e-10	-4.612564e+00	1.327998e+01
2.540000e-06	-8.150687e-07	-1.205675e-10	-5.692253e+00	-9.928341e+00
2.550000e-06	-9.694526e-07	-4.834760e-10	-6.770435e+00	-3.356396e+01
2.560000e-06	-1.123559e-06	-8.507486e-10	-7.846681e+00	-5.724384e+01
2.570000e-06	-1.277261e-06	-1.215359e-09	-8.920095e+00	-8.057375e+01
2.580000e-06	-1.430440e-06	-1.567289e-09	-9.989867e+00	-1.031729e+02
2.590000e-06	-1.582983e-06	-1.898249e-09	-1.105519e+01	-1.246976e+02
2.600000e-06	-1.734852e-06	-2.204494e-09	-1.211581e+01	-1.448618e+02
2.610000e-06	-1.886062e-06	-2.486222e-09	-1.317182e+01	-1.634524e+02
2.620000e-06	-2.036651e-06	-2.741556e-09	-1.422350e+01	-1.803387e+02
2.630000e-06	-2.186570e-06	-2.969300e-09	-1.527051e+01	-1.954738e+02
2.640000e-06	-2.335729e-06	-3.170688e-09	-1.631220e+01	-2.088902e+02
2.650000e-06	-2.484092e-06	-3.349111e-09	-1.734833e+01	-2.206886e+02
2.660000e-06	-2.631556e-06	-3.508991e-09	-1.837818e+01	-2.310221e+02
2.670000e-06	-2.778018e-06	-3.650803e-09	-1.940104e+01	-2.400783e+02
2.680000e-06	-2.923522e-06	-3.776369e-09	-2.041721e+01	-2.480597e+02
2.690000e-06	-3.068059e-06	-3.888655e-09	-2.142662e+01	-2.551657e+02
2.700000e-06	-3.211359e-06	-3.991213e-09	-2.242740e+01	-2.615781e+02
2.710000e-06	-3.353384e-06	-4.084336e-09	-2.341926e+01	-2.674496e+02
2.720000e-06	-3.494158e-06	-4.168034e-09	-2.440240e+01	-2.728980e+02
2.730000e-06	-3.633602e-06	-4.245382e-09	-2.537625e+01	-2.780049e+02
2.740000e-06	-3.771684e-06	-4.318150e-09	-2.634057e+01	-2.828185e+02
2.750000e-06	-3.908339e-06	-4.385410e-09	-2.729494e+01	-2.873603e+02
2.760000e-06	-4.043563e-06	-4.446775e-09	-2.823931e+01	-2.916328e+02
2.770000e-06	-4.177368e-06	-4.505585e-09	-2.917378e+01	-2.956290e+02
2.780000e-06	-4.309713e-06	-4.562563e-09	-3.009805e+01	-2.993403e+02
2.790000e-06	-4.440518e-06	-4.615908e-09	-3.101156e+01	-3.027635e+02
2.800000e-06	-4.569789e-06	-4.665733e-09	-3.191436e+01	-3.059046e+02
2.810000e-06	-4.697407e-06	-4.713508e-09	-3.280561e+01	-3.087803e+02
2.820000e-06	-4.823320e-06	-4.758924e-09	-3.368496e+01	-3.114177e+02
2.830000e-06	-4.947654e-06	-4.801004e-09	-3.455328e+01	-3.138508e+02
2.840000e-06	-5.070281e-06	-4.838792e-09	-3.540968e+01	-3.161168e+02
2.850000e-06	-5.191042e-06	-4.874506e-09	-3.625305e+01	-3.182512e+02
2.860000e-06	-5.309824e-06	-4.907381e-09	-3.708260e+01	-3.202842e+02
2.870000e-06	-5.426519e-06	-4.936003e-09	-3.789756e+01	-3.222376e+02
2.880000e-06	-5.540967e-06	-4.963634e-09	-3.869685e+01	-3.241234e+02
2.890000e-06	-5.653167e-06	-4.991943e-09	-3.948042e+01	-3.259440e+02
2.900000e-06	-5.763353e-06	-5.018563e-09	-4.024994e+01	-3.276943e+02
2.910000e-06	-5.871568e-06	-5.041917e-09	-4.100568e+01	-3.293642e+02
2.920000e-06	-5.977819e-06	-5.065090e-09	-4.174772e+01	-3.309421e+02
2.930000e-06	-6.081990e-06	-5.089493e-09	-4.247522e+01	-3.324187e+02
2.940000e-06	-6.183852e-06	-5.112847e-09	-4.318661e+01	-3.337888e+02
