# Temperatura_=_20.0
# Concentracion g/m^3_=_9000.0
# C_Vs_to_Am_M_A/Vsm_=_65563218390.804596
# pendiente_HvsI_1/m_=_3716.3
# ordenada_HvsI_A/m_=_1297.0
# frecuencia_Hz_=_301299.8988669035

Tiempo_(s)	Campo_(V.s)	Magnetizacion_(V.s)	Campo_(kA/m)	Magnetizacion_(A/m)
0.000000e+00	-8.189046e-06	-5.466442e-09	-5.697848e+01	-3.591144e+02
1.000000e-08	-8.186878e-06	-5.463567e-09	-5.696340e+01	-3.590969e+02
2.000000e-08	-8.181951e-06	-5.464204e-09	-5.692912e+01	-3.590749e+02
3.000000e-08	-8.174427e-06	-5.462596e-09	-5.687677e+01	-3.590388e+02
4.000000e-08	-8.164089e-06	-5.460033e-09	-5.680484e+01	-3.589764e+02
5.000000e-08	-8.150799e-06	-5.456550e-09	-5.671237e+01	-3.588753e+02
6.000000e-08	-8.134558e-06	-5.455927e-09	-5.659937e+01	-3.587245e+02
7.000000e-08	-8.115696e-06	-5.456417e-09	-5.646813e+01	-3.585171e+02
8.000000e-08	-8.094446e-06	-5.444299e-09	-5.632027e+01	-3.582511e+02
9.000000e-08	-8.070292e-06	-5.435682e-09	-5.615220e+01	-3.579300e+02
1.000000e-07	-8.042907e-06	-5.480165e-09	-5.596166e+01	-3.575621e+02
1.100000e-07	-8.012441e-06	-5.487772e-09	-5.574969e+01	-3.571589e+02
1.200000e-07	-7.979001e-06	-5.451718e-09	-5.551701e+01	-3.567334e+02
1.300000e-07	-7.942802e-06	-5.429227e-09	-5.526514e+01	-3.562976e+02
1.400000e-07	-7.904284e-06	-5.417721e-09	-5.499714e+01	-3.558600e+02
1.500000e-07	-7.863505e-06	-5.379631e-09	-5.471341e+01	-3.554244e+02
1.600000e-07	-7.820025e-06	-5.388022e-09	-5.441088e+01	-3.549889e+02
1.700000e-07	-7.773752e-06	-5.457138e-09	-5.408891e+01	-3.545456e+02
1.800000e-07	-7.724654e-06	-5.350022e-09	-5.374730e+01	-3.540821e+02
1.900000e-07	-7.672387e-06	-5.376960e-09	-5.338362e+01	-3.535833e+02
2.000000e-07	-7.617149e-06	-5.414916e-09	-5.299929e+01	-3.530336e+02
2.100000e-07	-7.559222e-06	-5.361865e-09	-5.259623e+01	-3.524191e+02
2.200000e-07	-7.498591e-06	-5.365526e-09	-5.217437e+01	-3.517304e+02
2.300000e-07	-7.435306e-06	-5.337275e-09	-5.173404e+01	-3.509637e+02
2.400000e-07	-7.369292e-06	-5.362314e-09	-5.127472e+01	-3.501212e+02
2.500000e-07	-7.300518e-06	-5.312366e-09	-5.079621e+01	-3.492109e+02
2.600000e-07	-7.229004e-06	-5.316760e-09	-5.029862e+01	-3.482451e+02
2.700000e-07	-7.154704e-06	-5.317103e-09	-4.978165e+01	-3.472381e+02
2.800000e-07	-7.077671e-06	-5.277870e-09	-4.924566e+01	-3.462038e+02
2.900000e-07	-6.997956e-06	-5.263601e-09	-4.869101e+01	-3.451532e+02
3.000000e-07	-6.915700e-06	-5.249912e-09	-4.811868e+01	-3.440925e+02
3.100000e-07	-6.831096e-06	-5.261419e-09	-4.753002e+01	-3.430216e+02
3.200000e-07	-6.744128e-06	-5.208559e-09	-4.692490e+01	-3.419344e+02
3.300000e-07	-6.654788e-06	-5.187835e-09	-4.630329e+01	-3.408190e+02
3.400000e-07	-6.563059e-06	-5.192884e-09	-4.566504e+01	-3.396603e+02
3.500000e-07	-6.468954e-06	-5.159779e-09	-4.501027e+01	-3.384418e+02
3.600000e-07	-6.372524e-06	-5.126716e-09	-4.433933e+01	-3.371484e+02
3.700000e-07	-6.273777e-06	-5.120391e-09	-4.365225e+01	-3.357691e+02
3.800000e-07	-6.172771e-06	-5.112574e-09	-4.294946e+01	-3.342979e+02
3.900000e-07	-6.069509e-06	-5.066788e-09	-4.223098e+01	-3.327356e+02
4.000000e-07	-5.964139e-06	-5.044159e-09	-4.149783e+01	-3.310886e+02
4.100000e-07	-5.856647e-06	-5.036046e-09	-4.074991e+01	-3.293678e+02
4.200000e-07	-5.747000e-06	-5.001168e-09	-3.998700e+01	-3.275864e+02
4.300000e-07	-5.635264e-06	-4.963025e-09	-3.920955e+01	-3.257567e+02
4.400000e-07	-5.521408e-06	-4.945873e-09	-3.841735e+01	-3.238881e+02
4.500000e-07	-5.405398e-06	-4.921902e-09	-3.761017e+01	-3.219840e+02
4.600000e-07	-5.287272e-06	-4.883979e-09	-3.678826e+01	-3.200411e+02
4.700000e-07	-5.167261e-06	-4.854666e-09	-3.595324e+01	-3.180488e+02
4.800000e-07	-5.045429e-06	-4.832415e-09	-3.510554e+01	-3.159903e+02
4.900000e-07	-4.921749e-06	-4.789374e-09	-3.424499e+01	-3.138447e+02
5.000000e-07	-4.796274e-06	-4.747312e-09	-3.337195e+01	-3.115896e+02
5.100000e-07	-4.669057e-06	-4.716555e-09	-3.248679e+01	-3.092048e+02
5.200000e-07	-4.540175e-06	-4.678865e-09	-3.159004e+01	-3.066745e+02
5.300000e-07	-4.409643e-06	-4.627794e-09	-3.068181e+01	-3.039899e+02
5.400000e-07	-4.277494e-06	-4.582451e-09	-2.976233e+01	-3.011496e+02
5.500000e-07	-4.143837e-06	-4.549865e-09	-2.883236e+01	-2.981596e+02
5.600000e-07	-4.008667e-06	-4.503460e-09	-2.789187e+01	-2.950309e+02
5.700000e-07	-3.871976e-06	-4.453847e-09	-2.694079e+01	-2.917769e+02
5.800000e-07	-3.733842e-06	-4.402834e-09	-2.597966e+01	-2.884095e+02
5.900000e-07	-3.594340e-06	-4.354398e-09	-2.500902e+01	-2.849355e+02
6.000000e-07	-3.453379e-06	-4.296668e-09	-2.402823e+01	-2.813534e+02
6.100000e-07	-3.310952e-06	-4.238173e-09	-2.303724e+01	-2.776515e+02
6.200000e-07	-3.167284e-06	-4.175989e-09	-2.203761e+01	-2.738076e+02
6.300000e-07	-3.022529e-06	-4.106189e-09	-2.103042e+01	-2.697899e+02
6.400000e-07	-2.876677e-06	-4.037467e-09	-2.001560e+01	-2.655603e+02
6.500000e-07	-2.729804e-06	-3.968364e-09	-1.899367e+01	-2.610777e+02
6.600000e-07	-2.582047e-06	-3.897951e-09	-1.796560e+01	-2.563026e+02
6.700000e-07	-2.433460e-06	-3.814769e-09	-1.693175e+01	-2.512009e+02
6.800000e-07	-2.283995e-06	-3.732825e-09	-1.589179e+01	-2.457464e+02
6.900000e-07	-2.133681e-06	-3.647707e-09	-1.484592e+01	-2.399214e+02
7.000000e-07	-1.982700e-06	-3.556948e-09	-1.379541e+01	-2.337154e+02
7.100000e-07	-1.831099e-06	-3.456304e-09	-1.274058e+01	-2.271205e+02
7.200000e-07	-1.678811e-06	-3.351317e-09	-1.168098e+01	-2.201260e+02
7.300000e-07	-1.525844e-06	-3.241851e-09	-1.061665e+01	-2.127110e+02
7.400000e-07	-1.372208e-06	-3.120006e-09	-9.547671e+00	-2.048367e+02
7.500000e-07	-1.218061e-06	-2.990758e-09	-8.475132e+00	-1.964409e+02
7.600000e-07	-1.063557e-06	-2.849332e-09	-7.400116e+00	-1.874332e+02
7.700000e-07	-9.087189e-07	-2.696053e-09	-6.322767e+00	-1.776957e+02
7.800000e-07	-7.536041e-07	-2.526249e-09	-5.243495e+00	-1.670863e+02
7.900000e-07	-5.982608e-07	-2.346814e-09	-4.162633e+00	-1.554472e+02
8.000000e-07	-4.426649e-07	-2.151742e-09	-3.080014e+00	-1.426178e+02
8.100000e-07	-2.869216e-07	-1.936272e-09	-1.996369e+00	-1.284501e+02
8.200000e-07	-1.311213e-07	-1.699937e-09	-9.123278e-01	-1.128262e+02
8.300000e-07	2.474395e-08	-1.442604e-09	1.721657e-01	-9.567609e+01
8.400000e-07	1.806196e-07	-1.162659e-09	1.256731e+00	-7.699237e+01
8.500000e-07	3.364407e-07	-8.555193e-10	2.340917e+00	-5.684196e+01
8.600000e-07	4.920853e-07	-5.298477e-10	3.423875e+00	-3.537162e+01
8.700000e-07	6.474918e-07	-1.870926e-10	4.505177e+00	-1.280692e+01
8.800000e-07	8.026818e-07	1.694356e-10	5.584972e+00	1.055570e+01
8.900000e-07	9.576192e-07	5.376532e-10	6.663009e+00	3.436366e+01
9.000000e-07	1.112235e-06	9.077211e-10	7.738812e+00	5.822831e+01
9.100000e-07	1.266553e-06	1.271920e-09	8.812534e+00	8.174882e+01
9.200000e-07	1.420465e-06	1.623412e-09	9.883438e+00	1.045375e+02
9.300000e-07	1.573822e-06	1.953384e-09	1.095048e+01	1.262443e+02
9.400000e-07	1.726523e-06	2.258734e-09	1.201296e+01	1.465777e+02
9.500000e-07	1.878484e-06	2.537702e-09	1.307029e+01	1.653212e+02
9.600000e-07	2.029754e-06	2.791724e-09	1.412281e+01	1.823421e+02
9.700000e-07	2.180381e-06	3.018547e-09	1.517085e+01	1.975940e+02
9.800000e-07	2.330235e-06	3.220412e-09	1.621352e+01	2.111114e+02
9.900000e-07	2.479208e-06	3.397865e-09	1.725005e+01	2.229986e+02
1.000000e-06	2.627237e-06	3.553991e-09	1.828003e+01	2.334131e+02
1.010000e-06	2.774302e-06	3.693396e-09	1.930329e+01	2.425469e+02
1.020000e-06	2.920455e-06	3.818143e-09	2.032021e+01	2.506066e+02
1.030000e-06	3.065564e-06	3.930232e-09	2.132986e+01	2.577946e+02
1.040000e-06	3.209550e-06	4.030615e-09	2.233170e+01	2.642944e+02
1.050000e-06	3.352413e-06	4.124881e-09	2.332572e+01	2.702589e+02
1.060000e-06	3.494005e-06	4.210138e-09	2.431090e+01	2.758048e+02
1.070000e-06	3.634207e-06	4.288778e-09	2.528641e+01	2.810117e+02
1.080000e-06	3.772996e-06	4.361304e-09	2.625209e+01	2.859251e+02
1.090000e-06	3.910378e-06	4.428236e-09	2.720798e+01	2.905637e+02
1.100000e-06	4.046313e-06	4.490934e-09	2.815380e+01	2.949281e+02
1.110000e-06	4.180766e-06	4.548925e-09	2.908931e+01	2.990098e+02
1.120000e-06	4.313726e-06	4.603487e-09	3.001443e+01	3.028003e+02
1.130000e-06	4.445137e-06	4.653428e-09	3.092878e+01	3.062974e+02
1.140000e-06	4.574984e-06	4.701269e-09	3.183224e+01	3.095092e+02
1.150000e-06	4.703227e-06	4.745132e-09	3.272454e+01	3.124556e+02
1.160000e-06	4.829810e-06	4.788088e-09	3.360529e+01	3.151666e+02
1.170000e-06	4.954765e-06	4.828574e-09	3.447471e+01	3.176791e+02
1.180000e-06	5.077989e-06	4.865772e-09	3.533209e+01	3.200321e+02
1.190000e-06	5.199361e-06	4.899855e-09	3.617658e+01	3.222621e+02
1.200000e-06	5.318864e-06	4.932619e-09	3.700808e+01	3.243989e+02
1.210000e-06	5.436375e-06	4.963917e-09	3.782570e+01	3.264623e+02
1.220000e-06	5.551777e-06	4.992272e-09	3.862865e+01	3.284612e+02
1.230000e-06	5.665032e-06	5.020448e-09	3.941667e+01	3.303945e+02
1.240000e-06	5.776148e-06	5.046127e-09	4.018981e+01	3.322529e+02
1.250000e-06	5.885234e-06	5.071097e-09	4.094881e+01	3.340225e+02
1.260000e-06	5.992261e-06	5.095221e-09	4.169349e+01	3.356889e+02
1.270000e-06	6.097095e-06	5.117871e-09	4.242292e+01	3.372406e+02
1.280000e-06	6.199753e-06	5.138730e-09	4.313720e+01	3.386723e+02
1.290000e-06	6.300262e-06	5.159648e-09	4.383653e+01	3.399863e+02
1.300000e-06	6.398474e-06	5.181217e-09	4.451988e+01	3.411925e+02
1.310000e-06	6.494288e-06	5.199291e-09	4.518655e+01	3.423077e+02
1.320000e-06	6.587828e-06	5.216054e-09	4.583738e+01	3.433525e+02
1.330000e-06	6.679116e-06	5.232175e-09	4.647256e+01	3.443489e+02
1.340000e-06	6.768012e-06	5.248089e-09	4.709108e+01	3.453163e+02
1.350000e-06	6.854522e-06	5.263667e-09	4.769301e+01	3.462691e+02
1.360000e-06	6.938690e-06	5.278786e-09	4.827864e+01	3.472148e+02
1.370000e-06	7.020450e-06	5.294966e-09	4.884752e+01	3.481529e+02
1.380000e-06	7.099692e-06	5.310063e-09	4.939888e+01	3.490762e+02
1.390000e-06	7.176321e-06	5.323341e-09	4.993206e+01	3.499716e+02
1.400000e-06	7.250243e-06	5.335901e-09	5.044639e+01	3.508236e+02
1.410000e-06	7.321457e-06	5.347893e-09	5.094190e+01	3.516168e+02
1.420000e-06	7.390143e-06	5.358270e-09	5.141980e+01	3.523391e+02
1.430000e-06	7.456223e-06	5.368320e-09	5.187958e+01	3.529838e+02
1.440000e-06	7.519559e-06	5.378085e-09	5.232027e+01	3.535509e+02
1.450000e-06	7.580343e-06	5.387176e-09	5.274320e+01	3.540477e+02
1.460000e-06	7.638540e-06	5.397538e-09	5.314812e+01	3.544870e+02
1.470000e-06	7.693970e-06	5.407807e-09	5.353380e+01	3.548860e+02
1.480000e-06	7.746474e-06	5.416790e-09	5.389911e+01	3.552628e+02
1.490000e-06	7.795809e-06	5.424149e-09	5.424238e+01	3.556342e+02
1.500000e-06	7.842121e-06	5.430574e-09	5.456462e+01	3.560128e+02
1.510000e-06	7.885695e-06	5.437723e-09	5.486780e+01	3.564051e+02
1.520000e-06	7.926430e-06	5.445320e-09	5.515123e+01	3.568112e+02
1.530000e-06	7.964328e-06	5.450585e-09	5.541492e+01	3.572242e+02
1.540000e-06	7.999543e-06	5.454141e-09	5.565994e+01	3.576322e+02
1.550000e-06	8.031960e-06	5.459355e-09	5.588550e+01	3.580201e+02
1.560000e-06	8.061568e-06	5.467317e-09	5.609151e+01	3.583722e+02
1.570000e-06	8.088384e-06	5.475341e-09	5.627809e+01	3.586750e+02
1.580000e-06	8.112260e-06	5.481145e-09	5.644422e+01	3.589192e+02
1.590000e-06	8.133306e-06	5.485130e-09	5.659065e+01	3.591008e+02
1.600000e-06	8.151608e-06	5.489005e-09	5.671800e+01	3.592223e+02
1.610000e-06	8.166913e-06	5.492488e-09	5.682449e+01	3.592912e+02
1.620000e-06	8.179067e-06	5.494332e-09	5.690905e+01	3.593193e+02
1.630000e-06	8.188107e-06	5.495830e-09	5.697195e+01	3.593200e+02
1.640000e-06	8.194238e-06	5.497044e-09	5.701461e+01	3.593059e+02
1.650000e-06	8.197615e-06	5.497808e-09	5.703810e+01	3.592871e+02
1.660000e-06	8.198103e-06	5.497472e-09	5.704150e+01	3.592690e+02
1.670000e-06	8.195748e-06	5.499894e-09	5.702512e+01	3.592514e+02
1.680000e-06	8.190682e-06	5.496208e-09	5.698987e+01	3.592291e+02
1.690000e-06	8.182867e-06	5.493783e-09	5.693549e+01	3.591923e+02
1.700000e-06	8.172360e-06	5.493357e-09	5.686238e+01	3.591287e+02
1.710000e-06	8.159014e-06	5.491269e-09	5.676952e+01	3.590260e+02
1.720000e-06	8.142853e-06	5.485464e-09	5.665708e+01	3.588732e+02
1.730000e-06	8.124273e-06	5.474365e-09	5.652780e+01	3.586637e+02
1.740000e-06	8.103177e-06	5.498840e-09	5.638102e+01	3.583957e+02
1.750000e-06	8.078754e-06	5.441494e-09	5.621108e+01	3.580728e+02
1.760000e-06	8.050456e-06	5.403300e-09	5.601419e+01	3.577033e+02
1.770000e-06	8.018743e-06	5.429118e-09	5.579354e+01	3.572991e+02
1.780000e-06	7.984457e-06	5.447357e-09	5.555498e+01	3.568731e+02
1.790000e-06	7.948013e-06	5.438678e-09	5.530140e+01	3.564370e+02
1.800000e-06	7.909347e-06	5.507479e-09	5.503237e+01	3.559995e+02
1.810000e-06	7.868353e-06	5.468833e-09	5.474714e+01	3.555640e+02
1.820000e-06	7.824727e-06	5.364012e-09	5.444359e+01	3.551283e+02
1.830000e-06	7.778403e-06	5.453984e-09	5.412127e+01	3.546845e+02
1.840000e-06	7.729267e-06	5.388329e-09	5.377939e+01	3.542201e+02
1.850000e-06	7.677054e-06	5.405262e-09	5.341610e+01	3.537197e+02
1.860000e-06	7.621886e-06	5.394951e-09	5.303224e+01	3.531678e+02
1.870000e-06	7.563860e-06	5.337294e-09	5.262851e+01	3.525509e+02
1.880000e-06	7.503163e-06	5.393222e-09	5.220618e+01	3.518594e+02
1.890000e-06	7.439754e-06	5.320628e-09	5.176499e+01	3.510899e+02
1.900000e-06	7.373463e-06	5.381631e-09	5.130375e+01	3.502448e+02
1.910000e-06	7.304388e-06	5.317626e-09	5.082313e+01	3.493323e+02
1.920000e-06	7.232569e-06	5.266569e-09	5.032342e+01	3.483648e+02
1.930000e-06	7.158066e-06	5.325411e-09	4.980504e+01	3.473565e+02
1.940000e-06	7.080743e-06	5.283974e-09	4.926704e+01	3.463215e+02
1.950000e-06	7.000654e-06	5.297245e-09	4.870978e+01	3.452705e+02
1.960000e-06	6.918163e-06	5.206487e-09	4.813582e+01	3.442094e+02
1.970000e-06	6.833251e-06	5.245272e-09	4.754501e+01	3.431381e+02
1.980000e-06	6.745822e-06	5.216168e-09	4.693669e+01	3.420501e+02
1.990000e-06	6.655973e-06	5.180798e-09	4.631153e+01	3.409334e+02
2.000000e-06	6.563863e-06	5.198101e-09	4.567064e+01	3.397728e+02
2.010000e-06	6.469390e-06	5.149341e-09	4.501331e+01	3.385519e+02
2.020000e-06	6.372564e-06	5.145384e-09	4.433960e+01	3.372556e+02
2.030000e-06	6.273562e-06	5.098974e-09	4.365076e+01	3.358730e+02
2.040000e-06	6.172352e-06	5.126355e-09	4.294655e+01	3.343986e+02
2.050000e-06	6.068867e-06	5.073875e-09	4.222651e+01	3.328331e+02
2.060000e-06	5.963220e-06	5.041989e-09	4.149143e+01	3.311833e+02
2.070000e-06	5.855542e-06	5.022604e-09	4.074222e+01	3.294601e+02
2.080000e-06	5.745745e-06	5.003498e-09	3.997826e+01	3.276767e+02
2.090000e-06	5.633800e-06	4.972119e-09	3.919937e+01	3.258455e+02
2.100000e-06	5.519692e-06	4.933803e-09	3.840541e+01	3.239755e+02
2.110000e-06	5.403452e-06	4.920522e-09	3.759663e+01	3.220702e+02
2.120000e-06	5.285069e-06	4.870221e-09	3.677293e+01	3.201258e+02
2.130000e-06	5.164651e-06	4.845415e-09	3.593507e+01	3.181314e+02
2.140000e-06	5.042418e-06	4.817985e-09	3.508459e+01	3.160702e+02
2.150000e-06	4.918377e-06	4.796303e-09	3.422153e+01	3.139210e+02
2.160000e-06	4.792588e-06	4.743582e-09	3.334630e+01	3.116616e+02
2.170000e-06	4.665089e-06	4.708119e-09	3.245918e+01	3.092718e+02
2.180000e-06	4.535917e-06	4.675654e-09	3.156041e+01	3.067361e+02
2.190000e-06	4.405136e-06	4.637593e-09	3.065045e+01	3.040459e+02
2.200000e-06	4.272794e-06	4.588035e-09	2.972963e+01	3.012001e+02
2.210000e-06	4.138965e-06	4.543125e-09	2.879847e+01	2.982049e+02
2.220000e-06	4.003676e-06	4.501752e-09	2.785714e+01	2.950715e+02
2.230000e-06	3.866829e-06	4.454309e-09	2.690497e+01	2.918133e+02
2.240000e-06	3.728512e-06	4.408728e-09	2.594258e+01	2.884420e+02
2.250000e-06	3.588830e-06	4.354979e-09	2.497068e+01	2.849642e+02
2.260000e-06	3.447856e-06	4.295368e-09	2.398981e+01	2.813781e+02
2.270000e-06	3.305648e-06	4.233748e-09	2.300034e+01	2.776716e+02
2.280000e-06	3.162110e-06	4.180783e-09	2.200161e+01	2.738220e+02
2.290000e-06	3.017306e-06	4.120646e-09	2.099408e+01	2.697975e+02
2.300000e-06	2.871431e-06	4.051868e-09	1.997910e+01	2.655595e+02
2.310000e-06	2.724586e-06	3.979674e-09	1.895737e+01	2.610671e+02
2.320000e-06	2.576789e-06	3.911975e-09	1.792902e+01	2.562809e+02
2.330000e-06	2.428166e-06	3.838607e-09	1.689491e+01	2.511670e+02
2.340000e-06	2.278705e-06	3.755133e-09	1.585498e+01	2.456995e+02
2.350000e-06	2.128339e-06	3.666718e-09	1.480875e+01	2.398611e+02
2.360000e-06	1.977211e-06	3.576267e-09	1.375722e+01	2.336412e+02
2.370000e-06	1.825528e-06	3.478319e-09	1.270182e+01	2.270323e+02
2.380000e-06	1.673296e-06	3.373914e-09	1.164261e+01	2.200233e+02
2.390000e-06	1.520427e-06	3.261491e-09	1.057896e+01	2.125926e+02
2.400000e-06	1.366931e-06	3.139005e-09	9.510958e+00	2.047010e+02
2.410000e-06	1.212859e-06	3.007210e-09	8.438942e+00	1.962849e+02
2.420000e-06	1.058301e-06	2.870200e-09	7.363545e+00	1.872534e+02
2.430000e-06	9.033556e-07	2.722712e-09	6.285449e+00	1.774873e+02
2.440000e-06	7.481473e-07	2.555351e-09	5.205527e+00	1.668439e+02
2.450000e-06	5.927400e-07	2.371714e-09	4.124220e+00	1.551651e+02
2.460000e-06	4.371257e-07	2.174694e-09	3.041473e+00	1.422903e+02
2.470000e-06	2.813185e-07	1.962702e-09	1.957383e+00	1.280723e+02
2.480000e-06	1.254206e-07	1.727323e-09	8.726631e-01	1.123948e+02
2.490000e-06	-3.049362e-08	1.467093e-09	-2.121713e-01	9.518961e+01
2.500000e-06	-1.864199e-07	1.185158e-09	-1.297089e+00	7.645188e+01
2.510000e-06	-3.422390e-07	8.813968e-10	-2.381262e+00	5.625132e+01
2.520000e-06	-4.979082e-07	5.576366e-10	-3.464391e+00	3.473755e+01
2.530000e-06	-6.533941e-07	2.151459e-10	-4.546244e+00	1.213886e+01
2.540000e-06	-8.086517e-07	-1.429258e-10	-5.626510e+00	-1.124603e+01
2.550000e-06	-9.636279e-07	-5.096924e-10	-6.704818e+00	-3.506285e+01
2.560000e-06	-1.118255e-06	-8.787385e-10	-7.780692e+00	-5.892212e+01
2.570000e-06	-1.272459e-06	-1.244544e-09	-8.853629e+00	-8.242303e+01
2.580000e-06	-1.426119e-06	-1.599004e-09	-9.922777e+00	-1.051788e+02
2.590000e-06	-1.579172e-06	-1.933224e-09	-1.098771e+01	-1.268412e+02
2.600000e-06	-1.731622e-06	-2.241938e-09	-1.204844e+01	-1.471211e+02
2.610000e-06	-1.883460e-06	-2.525015e-09	-1.310491e+01	-1.658048e+02
2.620000e-06	-2.034711e-06	-2.781070e-09	-1.415729e+01	-1.827628e+02
2.630000e-06	-2.185312e-06	-3.009312e-09	-1.520516e+01	-1.979517e+02
2.640000e-06	-2.335034e-06	-3.211423e-09	-1.624691e+01	-2.114088e+02
2.650000e-06	-2.483829e-06	-3.391017e-09	-1.728221e+01	-2.232404e+02
2.660000e-06	-2.631776e-06	-3.550518e-09	-1.831161e+01	-2.336057e+02
2.670000e-06	-2.778850e-06	-3.692557e-09	-1.933493e+01	-2.426976e+02
2.680000e-06	-2.924953e-06	-3.820633e-09	-2.035150e+01	-2.507227e+02
2.690000e-06	-3.069960e-06	-3.936130e-09	-2.136044e+01	-2.578832e+02
2.700000e-06	-3.213824e-06	-4.040221e-09	-2.236144e+01	-2.643614e+02
2.710000e-06	-3.356510e-06	-4.134620e-09	-2.335423e+01	-2.703092e+02
2.720000e-06	-3.497876e-06	-4.219998e-09	-2.433784e+01	-2.758419e+02
2.730000e-06	-3.637917e-06	-4.298896e-09	-2.531223e+01	-2.810377e+02
2.740000e-06	-3.776683e-06	-4.373524e-09	-2.627775e+01	-2.859411e+02
2.750000e-06	-3.914019e-06	-4.442602e-09	-2.723331e+01	-2.905700e+02
2.760000e-06	-4.049821e-06	-4.505770e-09	-2.817821e+01	-2.949244e+02
2.770000e-06	-4.184146e-06	-4.565773e-09	-2.911283e+01	-2.989959e+02
2.780000e-06	-4.317023e-06	-4.623116e-09	-3.003737e+01	-3.027759e+02
2.790000e-06	-4.448416e-06	-4.676878e-09	-3.095159e+01	-3.062626e+02
2.800000e-06	-4.578239e-06	-4.727442e-09	-3.185488e+01	-3.094646e+02
2.810000e-06	-4.706453e-06	-4.775491e-09	-3.274698e+01	-3.124020e+02
2.820000e-06	-4.833046e-06	-4.819844e-09	-3.362780e+01	-3.151053e+02
2.830000e-06	-4.957897e-06	-4.862465e-09	-3.449650e+01	-3.176113e+02
2.840000e-06	-5.080942e-06	-4.901952e-09	-3.535264e+01	-3.199594e+02
2.850000e-06	-5.202175e-06	-4.938131e-09	-3.619616e+01	-3.221856e+02
2.860000e-06	-5.321497e-06	-4.972258e-09	-3.702639e+01	-3.243195e+02
2.870000e-06	-5.438762e-06	-5.003335e-09	-3.784231e+01	-3.263805e+02
2.880000e-06	-5.553809e-06	-5.032445e-09	-3.864280e+01	-3.283772e+02
2.890000e-06	-5.666622e-06	-5.060811e-09	-3.942773e+01	-3.303080e+02
2.900000e-06	-5.777324e-06	-5.088616e-09	-4.019799e+01	-3.321635e+02
2.910000e-06	-5.886019e-06	-5.113598e-09	-4.095428e+01	-3.339296e+02
2.920000e-06	-5.992721e-06	-5.138449e-09	-4.169670e+01	-3.355921e+02
2.930000e-06	-6.097338e-06	-5.161924e-09	-4.242461e+01	-3.371396e+02
2.940000e-06	-6.199724e-06	-5.184192e-09	-4.313700e+01	-3.385670e+02
