# Temperatura_=_20.0
# Concentracion g/m^3_=_9000.0
# C_Vs_to_Am_M_A/Vsm_=_65563218390.804596
# pendiente_HvsI_1/m_=_3716.3
# ordenada_HvsI_A/m_=_1297.0
# frecuencia_Hz_=_301311.13690742844

Tiempo_(s)	Campo_(V.s)	Magnetizacion_(V.s)	Campo_(kA/m)	Magnetizacion_(A/m)
0.000000e+00	-8.268930e-06	-6.021944e-11	-5.697028e+01	-3.722293e+00
1.000000e-08	-8.266952e-06	-6.290703e-11	-5.695665e+01	-3.783020e+00
2.000000e-08	-8.262195e-06	-6.306402e-11	-5.692388e+01	-3.822653e+00
3.000000e-08	-8.254792e-06	-6.271975e-11	-5.687287e+01	-3.842307e+00
4.000000e-08	-8.244556e-06	-6.298172e-11	-5.680235e+01	-3.845921e+00
5.000000e-08	-8.231371e-06	-6.362078e-11	-5.671151e+01	-3.839871e+00
6.000000e-08	-8.215229e-06	-6.298895e-11	-5.660030e+01	-3.832238e+00
7.000000e-08	-8.196459e-06	-5.901420e-11	-5.647098e+01	-3.831834e+00
8.000000e-08	-8.175294e-06	-4.396105e-11	-5.632516e+01	-3.847102e+00
9.000000e-08	-8.151213e-06	-6.359690e-11	-5.615925e+01	-3.885032e+00
1.000000e-07	-8.123806e-06	-8.835396e-11	-5.597042e+01	-3.950245e+00
1.100000e-07	-8.093296e-06	-8.167412e-11	-5.576022e+01	-4.044368e+00
1.200000e-07	-8.059809e-06	-7.520866e-11	-5.552950e+01	-4.165765e+00
1.300000e-07	-8.023440e-06	-8.562585e-11	-5.527893e+01	-4.309690e+00
1.400000e-07	-7.984732e-06	-8.192933e-11	-5.501224e+01	-4.468815e+00
1.500000e-07	-7.943813e-06	-1.899039e-11	-5.473033e+01	-4.634079e+00
1.600000e-07	-7.900175e-06	-8.365505e-11	-5.442968e+01	-4.795737e+00
1.700000e-07	-7.853658e-06	-1.023223e-10	-5.410919e+01	-4.944477e+00
1.800000e-07	-7.804285e-06	-2.490023e-11	-5.376902e+01	-5.072458e+00
1.900000e-07	-7.751770e-06	-9.831403e-11	-5.340722e+01	-5.174130e+00
2.000000e-07	-7.696240e-06	-8.371088e-11	-5.302463e+01	-5.246756e+00
2.100000e-07	-7.637915e-06	-4.892703e-11	-5.262279e+01	-5.290552e+00
2.200000e-07	-7.576888e-06	-6.498307e-11	-5.220233e+01	-5.308459e+00
2.300000e-07	-7.513250e-06	-7.654122e-11	-5.176388e+01	-5.305592e+00
2.400000e-07	-7.446832e-06	-9.214990e-11	-5.130629e+01	-5.288436e+00
2.500000e-07	-7.377616e-06	-4.430579e-11	-5.082941e+01	-5.263925e+00
2.600000e-07	-7.305602e-06	-7.698089e-11	-5.033326e+01	-5.238532e+00
2.700000e-07	-7.230768e-06	-9.433925e-11	-4.981767e+01	-5.217475e+00
2.800000e-07	-7.153172e-06	-7.546223e-11	-4.928307e+01	-5.204167e+00
2.900000e-07	-7.072814e-06	-6.161280e-11	-4.872942e+01	-5.199950e+00
3.000000e-07	-6.989962e-06	-7.518341e-11	-4.815860e+01	-5.204142e+00
3.100000e-07	-6.904823e-06	-9.963410e-11	-4.757202e+01	-5.214374e+00
3.200000e-07	-6.817295e-06	-5.242887e-11	-4.696898e+01	-5.227141e+00
3.300000e-07	-6.727316e-06	-7.754295e-11	-4.634905e+01	-5.238482e+00
3.400000e-07	-6.634892e-06	-9.218943e-11	-4.571228e+01	-5.244666e+00
3.500000e-07	-6.540098e-06	-6.367571e-11	-4.505918e+01	-5.242803e+00
3.600000e-07	-6.442927e-06	-5.820563e-11	-4.438970e+01	-5.231262e+00
3.700000e-07	-6.343435e-06	-9.066567e-11	-4.370424e+01	-5.209869e+00
3.800000e-07	-6.241698e-06	-8.665579e-11	-4.300330e+01	-5.179842e+00
3.900000e-07	-6.137594e-06	-4.786876e-11	-4.228606e+01	-5.143509e+00
4.000000e-07	-6.031282e-06	-7.241889e-11	-4.155360e+01	-5.103844e+00
4.100000e-07	-5.922914e-06	-8.631349e-11	-4.080698e+01	-5.063917e+00
4.200000e-07	-5.812454e-06	-6.629078e-11	-4.004595e+01	-5.026345e+00
4.300000e-07	-5.699809e-06	-5.343377e-11	-3.926986e+01	-4.992838e+00
4.400000e-07	-5.584876e-06	-8.014730e-11	-3.847800e+01	-4.963905e+00
4.500000e-07	-5.467813e-06	-7.724310e-11	-3.767148e+01	-4.938778e+00
4.600000e-07	-5.348756e-06	-6.006012e-11	-3.685121e+01	-4.915546e+00
4.700000e-07	-5.227725e-06	-7.180111e-11	-3.601735e+01	-4.891492e+00
4.800000e-07	-5.104823e-06	-8.380778e-11	-3.517059e+01	-4.863562e+00
4.900000e-07	-4.980138e-06	-6.810240e-11	-3.431155e+01	-4.828903e+00
5.000000e-07	-4.853712e-06	-5.807737e-11	-3.344052e+01	-4.785361e+00
5.100000e-07	-4.725462e-06	-7.360862e-11	-3.255692e+01	-4.731889e+00
5.200000e-07	-4.595449e-06	-6.669614e-11	-3.166117e+01	-4.668765e+00
5.300000e-07	-4.463786e-06	-5.120227e-11	-3.075406e+01	-4.597618e+00
5.400000e-07	-4.330500e-06	-5.220506e-11	-2.983576e+01	-4.521227e+00
5.500000e-07	-4.195795e-06	-6.291443e-11	-2.890768e+01	-4.443146e+00
5.600000e-07	-4.059555e-06	-5.432780e-11	-2.796903e+01	-4.367197e+00
5.700000e-07	-3.921608e-06	-5.194869e-11	-2.701862e+01	-4.296921e+00
5.800000e-07	-3.782118e-06	-6.138435e-11	-2.605758e+01	-4.235054e+00
5.900000e-07	-3.641155e-06	-6.088337e-11	-2.508639e+01	-4.183125e+00
6.000000e-07	-3.498703e-06	-5.302894e-11	-2.410494e+01	-4.141224e+00
6.100000e-07	-3.354868e-06	-5.297474e-11	-2.311397e+01	-4.107982e+00
6.200000e-07	-3.209824e-06	-5.737672e-11	-2.211466e+01	-4.080756e+00
6.300000e-07	-3.063758e-06	-4.893271e-11	-2.110831e+01	-4.056001e+00
6.400000e-07	-2.916695e-06	-4.662226e-11	-2.009510e+01	-4.029764e+00
6.500000e-07	-2.768594e-06	-5.188374e-11	-1.907472e+01	-3.998231e+00
6.600000e-07	-2.619546e-06	-5.529519e-11	-1.804783e+01	-3.958242e+00
6.700000e-07	-2.469717e-06	-4.956833e-11	-1.701556e+01	-3.907701e+00
6.800000e-07	-2.319101e-06	-4.857617e-11	-1.597787e+01	-3.845820e+00
6.900000e-07	-2.167565e-06	-5.350518e-11	-1.493383e+01	-3.773172e+00
7.000000e-07	-2.015082e-06	-5.072340e-11	-1.388327e+01	-3.691533e+00
7.100000e-07	-1.861822e-06	-4.581103e-11	-1.282736e+01	-3.603559e+00
7.200000e-07	-1.707926e-06	-4.597955e-11	-1.176706e+01	-3.512335e+00
7.300000e-07	-1.553429e-06	-4.725327e-11	-1.070263e+01	-3.420876e+00
7.400000e-07	-1.398474e-06	-4.360856e-11	-9.635036e+00	-3.331639e+00
7.500000e-07	-1.243037e-06	-4.442873e-11	-8.564124e+00	-3.246146e+00
7.600000e-07	-1.087006e-06	-4.634932e-11	-7.489126e+00	-3.164736e+00
7.700000e-07	-9.305534e-07	-4.536547e-11	-6.411215e+00	-3.086511e+00
7.800000e-07	-7.738742e-07	-4.161758e-11	-5.331746e+00	-3.009461e+00
7.900000e-07	-6.169288e-07	-4.196535e-11	-4.250442e+00	-2.930753e+00
8.000000e-07	-4.597073e-07	-4.324432e-11	-3.167236e+00	-2.847143e+00
8.100000e-07	-3.024044e-07	-3.859245e-11	-2.083470e+00	-2.755434e+00
8.200000e-07	-1.451396e-07	-3.628402e-11	-9.999652e-01	-2.652929e+00
8.300000e-07	1.223909e-08	-3.693673e-11	8.432342e-02	-2.537817e+00
8.400000e-07	1.697422e-07	-3.592158e-11	1.169469e+00	-2.409414e+00
8.500000e-07	3.271045e-07	-3.079789e-11	2.253645e+00	-2.268270e+00
8.600000e-07	4.843172e-07	-2.988027e-11	3.336791e+00	-2.116097e+00
8.700000e-07	6.414591e-07	-3.146775e-11	4.419448e+00	-1.955559e+00
8.800000e-07	7.983841e-07	-2.896933e-11	5.500611e+00	-1.789951e+00
8.900000e-07	9.549009e-07	-2.620416e-11	6.578961e+00	-1.622811e+00
9.000000e-07	1.111029e-06	-2.566714e-11	7.654634e+00	-1.457540e+00
9.100000e-07	1.266847e-06	-2.356705e-11	8.728172e+00	-1.297054e+00
9.200000e-07	1.422178e-06	-1.940202e-11	9.798348e+00	-1.143537e+00
9.300000e-07	1.576955e-06	-1.914888e-11	1.086472e+01	-9.982990e-01
9.400000e-07	1.731256e-06	-1.941060e-11	1.192780e+01	-8.617619e-01
9.500000e-07	1.885064e-06	-1.620634e-11	1.298749e+01	-7.335482e-01
9.600000e-07	2.038299e-06	-1.199551e-11	1.404323e+01	-6.126579e-01
9.700000e-07	2.190703e-06	-9.758349e-12	1.509324e+01	-4.976903e-01
9.800000e-07	2.342084e-06	-8.343204e-12	1.613621e+01	-3.870775e-01
9.900000e-07	2.492490e-06	-6.561671e-12	1.717246e+01	-2.792923e-01
1.000000e-06	2.641990e-06	-6.925125e-12	1.820247e+01	-1.730066e-01
1.010000e-06	2.790605e-06	-8.409361e-12	1.922638e+01	-6.718616e-02
1.020000e-06	2.938244e-06	-7.004932e-12	2.024356e+01	3.887635e-02
1.030000e-06	3.084885e-06	-4.580918e-12	2.125387e+01	1.455801e-01
1.040000e-06	3.230562e-06	-4.383927e-12	2.225754e+01	2.530657e-01
1.050000e-06	3.375024e-06	-1.869395e-12	2.325284e+01	3.612734e-01
1.060000e-06	3.518105e-06	1.244611e-13	2.423861e+01	4.699892e-01
1.070000e-06	3.659883e-06	1.361241e-12	2.521542e+01	5.788658e-01
1.080000e-06	3.800310e-06	3.431838e-12	2.618292e+01	6.874138e-01
1.090000e-06	3.939324e-06	8.320556e-12	2.714068e+01	7.949700e-01
1.100000e-06	4.076952e-06	1.156870e-11	2.808889e+01	9.006577e-01
1.110000e-06	4.213013e-06	1.240616e-11	2.902631e+01	1.003360e+00
1.120000e-06	4.347399e-06	1.294785e-11	2.995219e+01	1.101729e+00
1.130000e-06	4.480208e-06	1.345687e-11	3.086720e+01	1.194241e+00
1.140000e-06	4.611424e-06	1.486363e-11	3.177124e+01	1.279316e+00
1.150000e-06	4.741061e-06	1.478705e-11	3.266439e+01	1.355487e+00
1.160000e-06	4.868919e-06	1.515433e-11	3.354529e+01	1.421602e+00
1.170000e-06	4.995005e-06	1.676744e-11	3.441398e+01	1.477036e+00
1.180000e-06	5.119455e-06	1.793418e-11	3.527141e+01	1.521874e+00
1.190000e-06	5.242190e-06	1.797655e-11	3.611701e+01	1.557022e+00
1.200000e-06	5.362999e-06	1.963700e-11	3.694934e+01	1.584227e+00
1.210000e-06	5.481783e-06	2.049584e-11	3.776773e+01	1.605979e+00
1.220000e-06	5.598589e-06	1.996877e-11	3.857248e+01	1.625292e+00
1.230000e-06	5.713275e-06	1.930867e-11	3.936263e+01	1.645392e+00
1.240000e-06	5.825657e-06	1.821101e-11	4.013691e+01	1.669336e+00
1.250000e-06	5.935863e-06	1.848399e-11	4.089620e+01	1.699619e+00
1.260000e-06	6.044119e-06	1.921216e-11	4.164204e+01	1.737820e+00
1.270000e-06	6.150317e-06	1.947796e-11	4.237372e+01	1.784356e+00
1.280000e-06	6.254250e-06	2.142018e-11	4.308978e+01	1.838370e+00
1.290000e-06	6.355872e-06	2.407085e-11	4.378992e+01	1.897795e+00
1.300000e-06	6.455247e-06	2.693476e-11	4.447459e+01	1.959594e+00
1.310000e-06	6.552226e-06	2.728369e-11	4.514274e+01	2.020154e+00
1.320000e-06	6.646759e-06	2.702454e-11	4.579404e+01	2.075775e+00
1.330000e-06	6.739009e-06	2.599626e-11	4.642961e+01	2.123206e+00
1.340000e-06	6.828933e-06	2.453971e-11	4.704917e+01	2.160141e+00
1.350000e-06	6.916416e-06	2.504712e-11	4.765189e+01	2.185604e+00
1.360000e-06	7.001546e-06	2.614025e-11	4.823841e+01	2.200157e+00
1.370000e-06	7.084271e-06	2.788661e-11	4.880836e+01	2.205898e+00
1.380000e-06	7.164425e-06	2.928961e-11	4.936059e+01	2.206239e+00
1.390000e-06	7.242022e-06	3.112488e-11	4.989521e+01	2.205483e+00
1.400000e-06	7.316982e-06	3.297874e-11	5.041166e+01	2.208257e+00
1.410000e-06	7.389148e-06	3.345896e-11	5.090887e+01	2.218878e+00
1.420000e-06	7.458635e-06	3.203533e-11	5.138761e+01	2.240745e+00
1.430000e-06	7.525540e-06	3.049221e-11	5.184856e+01	2.275845e+00
1.440000e-06	7.589738e-06	3.113245e-11	5.229086e+01	2.324441e+00
1.450000e-06	7.651280e-06	3.206155e-11	5.271487e+01	2.385019e+00
1.460000e-06	7.710224e-06	3.309682e-11	5.312098e+01	2.454479e+00
1.470000e-06	7.766448e-06	3.469585e-11	5.350834e+01	2.528571e+00
1.480000e-06	7.819843e-06	3.749565e-11	5.387622e+01	2.602510e+00
1.490000e-06	7.869993e-06	3.998200e-11	5.422173e+01	2.671691e+00
1.500000e-06	7.916892e-06	3.993009e-11	5.454485e+01	2.732382e+00
1.510000e-06	7.961080e-06	4.029354e-11	5.484930e+01	2.782323e+00
1.520000e-06	8.002488e-06	4.220824e-11	5.513458e+01	2.821102e+00
1.530000e-06	8.040981e-06	4.249873e-11	5.539978e+01	2.850275e+00
1.540000e-06	8.076740e-06	3.950630e-11	5.564615e+01	2.873183e+00
1.550000e-06	8.109639e-06	3.857268e-11	5.587281e+01	2.894495e+00
1.560000e-06	8.139688e-06	4.162376e-11	5.607985e+01	2.919534e+00
1.570000e-06	8.166954e-06	4.403654e-11	5.626770e+01	2.953473e+00
1.580000e-06	8.191246e-06	4.582139e-11	5.643506e+01	3.000522e+00
1.590000e-06	8.212686e-06	4.653874e-11	5.658278e+01	3.063228e+00
1.600000e-06	8.231326e-06	4.750528e-11	5.671120e+01	3.141990e+00
1.610000e-06	8.246974e-06	4.773866e-11	5.681901e+01	3.234867e+00
1.620000e-06	8.259519e-06	4.794197e-11	5.690544e+01	3.337737e+00
1.630000e-06	8.268873e-06	4.839247e-11	5.696989e+01	3.444761e+00
1.640000e-06	8.275207e-06	4.734322e-11	5.701352e+01	3.549143e+00
1.650000e-06	8.278683e-06	4.826314e-11	5.703747e+01	3.644044e+00
1.660000e-06	8.279267e-06	5.174376e-11	5.704150e+01	3.723554e+00
1.670000e-06	8.277063e-06	5.256639e-11	5.702631e+01	3.783575e+00
1.680000e-06	8.272140e-06	5.248182e-11	5.699239e+01	3.822492e+00
1.690000e-06	8.264429e-06	5.302578e-11	5.693927e+01	3.841524e+00
1.700000e-06	8.253973e-06	5.434401e-11	5.686723e+01	3.844705e+00
1.710000e-06	8.240660e-06	5.549980e-11	5.677551e+01	3.838486e+00
1.720000e-06	8.224531e-06	5.854468e-11	5.666439e+01	3.830993e+00
1.730000e-06	8.205931e-06	7.222162e-11	5.653624e+01	3.831044e+00
1.740000e-06	8.184811e-06	7.162028e-11	5.639073e+01	3.847047e+00
1.750000e-06	8.160408e-06	3.819014e-11	5.622260e+01	3.885922e+00
1.760000e-06	8.132058e-06	3.821328e-11	5.602727e+01	3.952194e+00
1.770000e-06	8.100217e-06	4.107762e-11	5.580790e+01	4.047373e+00
1.780000e-06	8.065790e-06	1.961963e-11	5.557071e+01	4.169708e+00
1.790000e-06	8.029126e-06	4.570421e-11	5.531811e+01	4.314349e+00
1.800000e-06	7.990184e-06	1.288176e-10	5.504981e+01	4.473892e+00
1.810000e-06	7.949052e-06	4.511458e-11	5.476642e+01	4.639230e+00
1.820000e-06	7.905242e-06	7.125059e-11	5.446458e+01	4.800615e+00
1.830000e-06	7.858514e-06	1.279431e-10	5.414264e+01	4.948772e+00
1.840000e-06	7.809059e-06	3.848286e-11	5.380191e+01	5.075928e+00
1.850000e-06	7.756543e-06	1.189464e-10	5.344010e+01	5.176627e+00
1.860000e-06	7.700993e-06	9.332100e-11	5.305737e+01	5.248237e+00
1.870000e-06	7.642620e-06	8.169741e-11	5.265520e+01	5.291076e+00
1.880000e-06	7.581575e-06	7.349865e-11	5.223463e+01	5.308178e+00
1.890000e-06	7.517792e-06	6.772443e-11	5.179518e+01	5.304718e+00
1.900000e-06	7.451137e-06	1.511636e-10	5.133594e+01	5.287214e+00
1.910000e-06	7.381608e-06	5.801003e-11	5.085691e+01	5.262600e+00
1.920000e-06	7.309201e-06	6.089545e-11	5.035805e+01	5.237316e+00
1.930000e-06	7.234208e-06	1.032729e-10	4.984138e+01	5.216524e+00
1.940000e-06	7.156357e-06	1.029695e-10	4.930501e+01	5.203564e+00
1.950000e-06	7.075651e-06	8.349929e-11	4.874897e+01	5.199705e+00
1.960000e-06	6.992569e-06	4.888525e-11	4.817656e+01	5.204196e+00
1.970000e-06	6.906955e-06	1.102708e-10	4.758671e+01	5.214619e+00
1.980000e-06	6.818759e-06	6.192509e-11	4.697907e+01	5.227439e+00
1.990000e-06	6.728254e-06	7.778109e-11	4.635552e+01	5.238690e+00
2.000000e-06	6.635545e-06	1.063238e-10	4.571678e+01	5.244665e+00
2.010000e-06	6.540385e-06	8.619783e-11	4.506116e+01	5.242510e+00
2.020000e-06	6.442826e-06	6.760815e-11	4.438901e+01	5.230647e+00
2.030000e-06	6.343069e-06	8.232693e-11	4.370171e+01	5.208951e+00
2.040000e-06	6.240973e-06	1.196252e-10	4.299831e+01	5.178688e+00
2.050000e-06	6.136490e-06	7.270764e-11	4.227845e+01	5.142217e+00
2.060000e-06	6.029915e-06	6.923429e-11	4.154418e+01	5.102525e+00
2.070000e-06	5.921387e-06	8.748305e-11	4.079646e+01	5.062675e+00
2.080000e-06	5.810635e-06	9.404571e-11	4.003341e+01	5.025260e+00
2.090000e-06	5.697659e-06	6.758430e-11	3.925505e+01	4.991950e+00
2.100000e-06	5.582560e-06	7.596511e-11	3.846205e+01	4.963209e+00
2.110000e-06	5.465227e-06	9.061893e-11	3.765367e+01	4.938223e+00
2.120000e-06	5.345695e-06	7.417208e-11	3.683013e+01	4.915046e+00
2.130000e-06	5.224242e-06	7.283673e-11	3.599335e+01	4.890941e+00
2.140000e-06	5.101040e-06	8.739553e-11	3.514453e+01	4.862852e+00
2.150000e-06	4.976001e-06	8.825834e-11	3.428306e+01	4.827941e+00
2.160000e-06	4.849084e-06	6.720534e-11	3.340863e+01	4.784090e+00
2.170000e-06	4.720381e-06	7.621702e-11	3.252192e+01	4.730295e+00
2.180000e-06	4.590083e-06	8.687289e-11	3.162420e+01	4.666883e+00
2.190000e-06	4.458215e-06	7.945998e-11	3.071567e+01	4.595529e+00
2.200000e-06	4.324729e-06	6.929762e-11	2.979600e+01	4.519048e+00
2.210000e-06	4.189635e-06	7.902088e-11	2.886525e+01	4.441012e+00
2.220000e-06	4.053029e-06	7.995773e-11	2.792407e+01	4.365243e+00
2.230000e-06	3.914968e-06	7.147494e-11	2.697287e+01	4.295261e+00
2.240000e-06	3.775442e-06	7.424205e-11	2.601159e+01	4.233765e+00
2.250000e-06	3.634393e-06	7.934400e-11	2.503981e+01	4.182236e+00
2.260000e-06	3.491907e-06	7.164400e-11	2.405812e+01	4.140711e+00
2.270000e-06	3.348145e-06	6.479016e-11	2.306765e+01	4.107770e+00
2.280000e-06	3.203138e-06	7.120727e-11	2.206860e+01	4.080731e+00
2.290000e-06	3.057010e-06	7.455740e-11	2.106182e+01	4.056027e+00
2.300000e-06	2.909945e-06	6.853438e-11	2.004859e+01	4.029698e+00
2.310000e-06	2.761967e-06	6.546032e-11	1.902907e+01	3.997947e+00
2.320000e-06	2.612855e-06	7.112304e-11	1.800174e+01	3.957645e+00
2.330000e-06	2.462658e-06	6.944957e-11	1.696693e+01	3.906738e+00
2.340000e-06	2.311622e-06	6.484376e-11	1.592634e+01	3.844490e+00
2.350000e-06	2.159826e-06	6.636993e-11	1.488051e+01	3.771518e+00
2.360000e-06	2.007186e-06	6.656117e-11	1.382887e+01	3.689637e+00
2.370000e-06	1.853846e-06	5.962566e-11	1.277240e+01	3.601528e+00
2.380000e-06	1.699995e-06	5.597583e-11	1.171242e+01	3.510281e+00
2.390000e-06	1.545647e-06	5.866795e-11	1.064901e+01	3.418897e+00
2.400000e-06	1.390771e-06	5.727812e-11	9.581964e+00	3.329809e+00
2.410000e-06	1.235485e-06	5.129316e-11	8.512095e+00	3.244498e+00
2.420000e-06	1.079867e-06	5.075955e-11	7.439936e+00	3.163259e+00
2.430000e-06	9.238045e-07	5.255678e-11	6.364717e+00	3.085150e+00
2.440000e-06	7.671986e-07	4.937138e-11	5.285753e+00	3.008128e+00
2.450000e-06	6.102321e-07	4.683489e-11	4.204304e+00	2.929337e+00
2.460000e-06	4.531065e-07	4.667795e-11	3.121759e+00	2.845526e+00
2.470000e-06	2.957131e-07	4.560175e-11	2.037368e+00	2.753507e+00
2.480000e-06	1.380890e-07	4.233198e-11	9.513889e-01	2.650612e+00
2.490000e-06	-1.952550e-08	4.059051e-11	-1.345245e-01	2.535064e+00
2.500000e-06	-1.770447e-07	3.924498e-11	-1.219781e+00	2.406224e+00
2.510000e-06	-3.345844e-07	3.418446e-11	-2.305179e+00	2.264684e+00
2.520000e-06	-4.919783e-07	3.017407e-11	-3.389573e+00	2.112197e+00
2.530000e-06	-6.490475e-07	2.914156e-11	-4.471729e+00	1.951453e+00
2.540000e-06	-8.058247e-07	2.640685e-11	-5.551874e+00	1.785763e+00
2.550000e-06	-9.621891e-07	2.208473e-11	-6.629175e+00	1.618669e+00
2.560000e-06	-1.118011e-06	1.961320e-11	-7.702737e+00	1.453556e+00
2.570000e-06	-1.273391e-06	1.788686e-11	-8.773259e+00	1.293321e+00
2.580000e-06	-1.428465e-06	1.472939e-11	-9.841667e+00	1.140117e+00
2.590000e-06	-1.583094e-06	1.222613e-11	-1.090701e+01	9.952219e-01
2.600000e-06	-1.737134e-06	1.150263e-11	-1.196829e+01	8.590274e-01
2.610000e-06	-1.890590e-06	8.766254e-12	-1.302556e+01	7.311301e-01
2.620000e-06	-2.043352e-06	3.396490e-12	-1.407804e+01	6.105115e-01
2.630000e-06	-2.195285e-06	-6.718538e-14	-1.512481e+01	4.957613e-01
2.640000e-06	-2.346457e-06	1.167197e-13	-1.616634e+01	3.853095e-01
2.650000e-06	-2.496979e-06	-1.585520e-12	-1.720339e+01	2.776337e-01
2.660000e-06	-2.646647e-06	-4.524571e-12	-1.823455e+01	1.714150e-01
2.670000e-06	-2.795111e-06	-5.072486e-12	-1.925742e+01	6.563068e-02
2.680000e-06	-2.942535e-06	-3.682540e-12	-2.027313e+01	-4.041505e-02
2.690000e-06	-3.089076e-06	-5.080834e-12	-2.128274e+01	-1.471112e-01
2.700000e-06	-3.234545e-06	-9.496788e-12	-2.228498e+01	-2.545901e-01
2.710000e-06	-3.378806e-06	-1.191162e-11	-2.327889e+01	-3.627860e-01
2.720000e-06	-3.521876e-06	-1.464137e-11	-2.426460e+01	-4.714797e-01
2.730000e-06	-3.663645e-06	-1.744400e-11	-2.524134e+01	-5.803194e-01
2.740000e-06	-3.803841e-06	-1.918804e-11	-2.620725e+01	-6.888101e-01
2.750000e-06	-3.942551e-06	-1.994822e-11	-2.716291e+01	-7.962815e-01
2.760000e-06	-4.079810e-06	-2.023608e-11	-2.810858e+01	-9.018488e-01
2.770000e-06	-4.215627e-06	-1.962735e-11	-2.904432e+01	-1.004387e+00
2.780000e-06	-4.350050e-06	-1.855479e-11	-2.997045e+01	-1.102538e+00
2.790000e-06	-4.482828e-06	-1.972611e-11	-3.088525e+01	-1.194777e+00
2.800000e-06	-4.613963e-06	-2.301588e-11	-3.178873e+01	-1.279524e+00
2.810000e-06	-4.743519e-06	-2.561362e-11	-3.268133e+01	-1.355319e+00
2.820000e-06	-4.871395e-06	-2.633718e-11	-3.356235e+01	-1.421024e+00
2.830000e-06	-4.997628e-06	-2.864441e-11	-3.443206e+01	-1.476039e+00
2.840000e-06	-5.122074e-06	-3.109895e-11	-3.528945e+01	-1.520476e+00
2.850000e-06	-5.244640e-06	-3.198324e-11	-3.613389e+01	-1.555271e+00
2.860000e-06	-5.365404e-06	-3.209416e-11	-3.696591e+01	-1.582201e+00
2.870000e-06	-5.484160e-06	-3.063910e-11	-3.778410e+01	-1.603777e+00
2.880000e-06	-5.600599e-06	-2.833986e-11	-3.858633e+01	-1.623028e+00
2.890000e-06	-5.714750e-06	-2.759072e-11	-3.937280e+01	-1.643180e+00
2.900000e-06	-5.826644e-06	-2.951658e-11	-4.014371e+01	-1.667278e+00
2.910000e-06	-5.936391e-06	-3.140890e-11	-4.089984e+01	-1.697787e+00
2.920000e-06	-6.044208e-06	-3.253558e-11	-4.164266e+01	-1.736252e+00
2.930000e-06	-6.149989e-06	-3.495144e-11	-4.237145e+01	-1.783043e+00
2.940000e-06	-6.253590e-06	-3.778365e-11	-4.308523e+01	-1.837258e+00
