# Temperatura_=_20.0
# Concentracion g/m^3_=_9000.0
# C_Vs_to_Am_M_A/Vsm_=_65563218390.804596
# pendiente_HvsI_1/m_=_3716.3
# ordenada_HvsI_A/m_=_1297.0
# frecuencia_Hz_=_301308.92280359514

Tiempo_(s)	Campo_(V.s)	Magnetizacion_(V.s)	Campo_(kA/m)	Magnetizacion_(A/m)
0.000000e+00	-8.154306e-06	-2.697985e-11	-5.695932e+01	-3.297419e-01
1.000000e-08	-8.149840e-06	-3.015378e-11	-5.692812e+01	-3.816021e-01
2.000000e-08	-8.142828e-06	-2.846442e-11	-5.687914e+01	-4.059579e-01
3.000000e-08	-8.133049e-06	-2.683163e-11	-5.681083e+01	-4.042234e-01
4.000000e-08	-8.120294e-06	-2.288725e-11	-5.672174e+01	-3.817500e-01
5.000000e-08	-8.104534e-06	-1.632699e-11	-5.661165e+01	-3.474754e-01
6.000000e-08	-8.086172e-06	-8.068024e-12	-5.648339e+01	-3.130745e-01
7.000000e-08	-8.065491e-06	2.468331e-11	-5.633893e+01	-2.916974e-01
8.000000e-08	-8.041921e-06	-2.077815e-11	-5.617429e+01	-2.964470e-01
9.000000e-08	-8.015120e-06	-7.173716e-11	-5.598708e+01	-3.387829e-01
1.000000e-07	-7.985289e-06	-5.125772e-11	-5.577870e+01	-4.270566e-01
1.100000e-07	-7.952504e-06	-2.887631e-11	-5.554969e+01	-5.653728e-01
1.200000e-07	-7.916850e-06	-3.340955e-11	-5.530064e+01	-7.529305e-01
1.300000e-07	-7.878819e-06	-1.804108e-11	-5.503499e+01	-9.839392e-01
1.400000e-07	-7.838739e-06	4.622478e-11	-5.475502e+01	-1.248133e+00
1.500000e-07	-7.796098e-06	-8.379821e-11	-5.445717e+01	-1.531829e+00
1.600000e-07	-7.750507e-06	-5.439093e-11	-5.413871e+01	-1.819394e+00
1.700000e-07	-7.702144e-06	5.107991e-11	-5.380088e+01	-2.094955e+00
1.800000e-07	-7.650709e-06	-7.685956e-11	-5.344160e+01	-2.344128e+00
1.900000e-07	-7.596211e-06	-4.267118e-11	-5.306092e+01	-2.555548e+00
2.000000e-07	-7.538985e-06	-1.972085e-11	-5.266119e+01	-2.722032e+00
2.100000e-07	-7.479035e-06	-2.285619e-11	-5.224243e+01	-2.841201e+00
2.200000e-07	-7.416498e-06	-2.378221e-11	-5.180559e+01	-2.915531e+00
2.300000e-07	-7.351222e-06	-6.026913e-11	-5.134963e+01	-2.951806e+00
2.400000e-07	-7.283141e-06	2.579653e-12	-5.087407e+01	-2.960075e+00
2.500000e-07	-7.212433e-06	-4.928662e-11	-5.038016e+01	-2.952249e+00
2.600000e-07	-7.138914e-06	-5.232799e-11	-4.986662e+01	-2.940538e+00
2.700000e-07	-7.062621e-06	-2.294999e-11	-4.933370e+01	-2.935923e+00
2.800000e-07	-6.983621e-06	-2.054098e-11	-4.878187e+01	-2.946857e+00
2.900000e-07	-6.901998e-06	-5.178916e-11	-4.821171e+01	-2.978370e+00
3.000000e-07	-6.818033e-06	-7.695107e-11	-4.762520e+01	-3.031661e+00
3.100000e-07	-6.731706e-06	8.599872e-12	-4.702219e+01	-3.104219e+00
3.200000e-07	-6.643037e-06	-4.892426e-11	-4.640283e+01	-3.190433e+00
3.300000e-07	-6.552039e-06	-6.451806e-11	-4.576719e+01	-3.282587e+00
3.400000e-07	-6.458670e-06	-2.609162e-11	-4.511499e+01	-3.372087e+00
3.500000e-07	-6.363060e-06	-1.850822e-11	-4.444714e+01	-3.450751e+00
3.600000e-07	-6.265141e-06	-5.764779e-11	-4.376316e+01	-3.511968e+00
3.700000e-07	-6.164895e-06	-5.105228e-11	-4.306292e+01	-3.551595e+00
3.800000e-07	-6.062474e-06	-2.338768e-12	-4.234749e+01	-3.568460e+00
3.900000e-07	-5.957961e-06	-4.759624e-11	-4.161744e+01	-3.564431e+00
4.000000e-07	-5.851278e-06	-5.519154e-11	-4.087224e+01	-3.544064e+00
4.100000e-07	-5.742445e-06	-3.010343e-11	-4.011203e+01	-3.513887e+00
4.200000e-07	-5.631588e-06	-1.520673e-11	-3.933767e+01	-3.481446e+00
4.300000e-07	-5.518655e-06	-5.655694e-11	-3.854881e+01	-3.454254e+00
4.400000e-07	-5.403521e-06	-4.523299e-11	-3.774458e+01	-3.438788e+00
4.500000e-07	-5.286228e-06	-1.961344e-11	-3.692527e+01	-3.439683e+00
4.600000e-07	-5.167039e-06	-3.598835e-11	-3.609271e+01	-3.459214e+00
4.700000e-07	-5.046069e-06	-5.003281e-11	-3.524771e+01	-3.497122e+00
4.800000e-07	-4.923209e-06	-3.198967e-11	-3.438952e+01	-3.550804e+00
4.900000e-07	-4.798560e-06	-2.024895e-11	-3.351881e+01	-3.615795e+00
5.000000e-07	-4.672199e-06	-4.764924e-11	-3.263616e+01	-3.686482e+00
5.100000e-07	-4.544154e-06	-4.003511e-11	-3.174174e+01	-3.756919e+00
5.200000e-07	-4.414433e-06	-2.754161e-11	-3.083562e+01	-3.821621e+00
5.300000e-07	-4.283046e-06	-3.411946e-11	-2.991786e+01	-3.876237e+00
5.400000e-07	-4.150171e-06	-5.173277e-11	-2.898970e+01	-3.918003e+00
5.500000e-07	-4.015832e-06	-3.882186e-11	-2.805132e+01	-3.945931e+00
5.600000e-07	-3.880028e-06	-3.574532e-11	-2.710270e+01	-3.960730e+00
5.700000e-07	-3.742832e-06	-5.056850e-11	-2.614436e+01	-3.964477e+00
5.800000e-07	-3.604150e-06	-5.030041e-11	-2.517565e+01	-3.960132e+00
5.900000e-07	-3.463955e-06	-4.398990e-11	-2.419636e+01	-3.950963e+00
6.000000e-07	-3.322389e-06	-4.649528e-11	-2.320749e+01	-3.939982e+00
6.100000e-07	-3.179578e-06	-5.372835e-11	-2.220993e+01	-3.929493e+00
6.200000e-07	-3.035523e-06	-4.112651e-11	-2.120368e+01	-3.920790e+00
6.300000e-07	-2.890228e-06	-3.984462e-11	-2.018877e+01	-3.914070e+00
6.400000e-07	-2.743940e-06	-4.599077e-11	-1.916692e+01	-3.908540e+00
6.500000e-07	-2.596784e-06	-4.881251e-11	-1.813901e+01	-3.902697e+00
6.600000e-07	-2.448843e-06	-4.037697e-11	-1.710561e+01	-3.894706e+00
6.700000e-07	-2.300207e-06	-4.045565e-11	-1.606736e+01	-3.882836e+00
6.800000e-07	-2.150771e-06	-4.894740e-11	-1.502353e+01	-3.865829e+00
6.900000e-07	-2.000512e-06	-4.503299e-11	-1.397394e+01	-3.843190e+00
7.000000e-07	-1.849543e-06	-4.115185e-11	-1.291940e+01	-3.815300e+00
7.100000e-07	-1.697913e-06	-4.421099e-11	-1.186023e+01	-3.783376e+00
7.200000e-07	-1.545678e-06	-4.975923e-11	-1.079684e+01	-3.749263e+00
7.300000e-07	-1.392949e-06	-4.506488e-11	-9.730002e+00	-3.715103e+00
7.400000e-07	-1.239780e-06	-4.784188e-11	-8.660090e+00	-3.682946e+00
7.500000e-07	-1.086071e-06	-5.259695e-11	-7.586405e+00	-3.654356e+00
7.600000e-07	-9.318848e-07	-5.031333e-11	-6.509386e+00	-3.630094e+00
7.700000e-07	-7.774107e-07	-4.444286e-11	-5.430356e+00	-3.609920e+00
7.800000e-07	-6.225465e-07	-4.464731e-11	-4.348601e+00	-3.592553e+00
7.900000e-07	-4.672795e-07	-4.903018e-11	-3.264032e+00	-3.575793e+00
8.000000e-07	-3.119255e-07	-4.570429e-11	-2.178856e+00	-3.556794e+00
8.100000e-07	-1.565536e-07	-4.607409e-11	-1.093555e+00	-3.532434e+00
8.200000e-07	-1.011307e-09	-4.899297e-11	-7.064163e-03	-3.499740e+00
8.300000e-07	1.545710e-07	-5.084506e-11	1.079707e+00	-3.456287e+00
8.400000e-07	3.099560e-07	-4.748499e-11	2.165100e+00	-3.400522e+00
8.500000e-07	4.651861e-07	-4.723757e-11	3.249410e+00	-3.331969e+00
8.600000e-07	6.203294e-07	-4.873181e-11	4.333114e+00	-3.251278e+00
8.700000e-07	7.751974e-07	-4.562784e-11	5.414895e+00	-3.160121e+00
8.800000e-07	9.296193e-07	-4.571575e-11	6.493561e+00	-3.060955e+00
8.900000e-07	1.083623e-06	-4.730533e-11	7.569306e+00	-2.956699e+00
9.000000e-07	1.237258e-06	-4.547152e-11	8.642470e+00	-2.850362e+00
9.100000e-07	1.390429e-06	-3.951457e-11	9.712402e+00	-2.744691e+00
9.200000e-07	1.543076e-06	-4.054582e-11	1.077867e+01	-2.641888e+00
9.300000e-07	1.695237e-06	-4.249963e-11	1.184154e+01	-2.543430e+00
9.400000e-07	1.846762e-06	-3.957537e-11	1.289997e+01	-2.450012e+00
9.500000e-07	1.997608e-06	-3.528860e-11	1.395366e+01	-2.361609e+00
9.600000e-07	2.147801e-06	-3.389551e-11	1.500278e+01	-2.277649e+00
9.700000e-07	2.297272e-06	-3.425069e-11	1.604687e+01	-2.197241e+00
9.800000e-07	2.445977e-06	-3.235890e-11	1.708560e+01	-2.119427e+00
9.900000e-07	2.593792e-06	-3.348573e-11	1.811811e+01	-2.043412e+00
1.000000e-06	2.740598e-06	-3.540431e-11	1.914358e+01	-1.968736e+00
1.010000e-06	2.886378e-06	-3.261605e-11	2.016188e+01	-1.895353e+00
1.020000e-06	3.031103e-06	-2.876127e-11	2.117281e+01	-1.823629e+00
1.030000e-06	3.174730e-06	-3.036559e-11	2.217607e+01	-1.754250e+00
1.040000e-06	3.317236e-06	-3.057238e-11	2.317150e+01	-1.688078e+00
1.050000e-06	3.458497e-06	-2.747920e-11	2.415823e+01	-1.625978e+00
1.060000e-06	3.598445e-06	-2.600534e-11	2.513579e+01	-1.568661e+00
1.070000e-06	3.736976e-06	-2.502420e-11	2.610346e+01	-1.516568e+00
1.080000e-06	3.874060e-06	-2.217083e-11	2.706102e+01	-1.469822e+00
1.090000e-06	4.009741e-06	-2.002727e-11	2.800877e+01	-1.428250e+00
1.100000e-06	4.143993e-06	-2.176642e-11	2.894655e+01	-1.391475e+00
1.110000e-06	4.276770e-06	-2.216433e-11	2.987402e+01	-1.359046e+00
1.120000e-06	4.407980e-06	-2.222002e-11	3.079055e+01	-1.330587e+00
1.130000e-06	4.537532e-06	-2.407681e-11	3.169549e+01	-1.305916e+00
1.140000e-06	4.665494e-06	-2.516437e-11	3.258932e+01	-1.285125e+00
1.150000e-06	4.791885e-06	-2.345031e-11	3.347219e+01	-1.268572e+00
1.160000e-06	4.916623e-06	-2.064762e-11	3.434351e+01	-1.256810e+00
1.170000e-06	5.039609e-06	-2.228578e-11	3.520259e+01	-1.250434e+00
1.180000e-06	5.160751e-06	-2.468574e-11	3.604879e+01	-1.249892e+00
1.190000e-06	5.280044e-06	-2.451701e-11	3.688207e+01	-1.255292e+00
1.200000e-06	5.397401e-06	-2.372396e-11	3.770183e+01	-1.266230e+00
1.210000e-06	5.512645e-06	-2.654816e-11	3.850683e+01	-1.281705e+00
1.220000e-06	5.625734e-06	-2.942854e-11	3.929678e+01	-1.300126e+00
1.230000e-06	5.736753e-06	-3.226435e-11	4.007227e+01	-1.319428e+00
1.240000e-06	5.845828e-06	-3.328284e-11	4.083418e+01	-1.337294e+00
1.250000e-06	5.952892e-06	-3.229434e-11	4.158203e+01	-1.351452e+00
1.260000e-06	6.057720e-06	-3.249068e-11	4.231428e+01	-1.359997e+00
1.270000e-06	6.160298e-06	-3.177687e-11	4.303081e+01	-1.361695e+00
1.280000e-06	6.260682e-06	-3.129812e-11	4.373200e+01	-1.356204e+00
1.290000e-06	6.358848e-06	-2.947998e-11	4.441771e+01	-1.344173e+00
1.300000e-06	6.454719e-06	-3.121830e-11	4.508739e+01	-1.327193e+00
1.310000e-06	6.548324e-06	-3.466154e-11	4.574124e+01	-1.307585e+00
1.320000e-06	6.639649e-06	-3.743737e-11	4.637916e+01	-1.288059e+00
1.330000e-06	6.728587e-06	-3.870972e-11	4.700041e+01	-1.271277e+00
1.340000e-06	6.815175e-06	-3.822080e-11	4.760524e+01	-1.259395e+00
1.350000e-06	6.899454e-06	-3.827452e-11	4.819394e+01	-1.253650e+00
1.360000e-06	6.981268e-06	-3.631675e-11	4.876543e+01	-1.254064e+00
1.370000e-06	7.060557e-06	-3.502136e-11	4.931928e+01	-1.259321e+00
1.380000e-06	7.137281e-06	-3.453000e-11	4.985521e+01	-1.266851e+00
1.390000e-06	7.211294e-06	-3.451006e-11	5.037221e+01	-1.273119e+00
1.400000e-06	7.282648e-06	-3.404120e-11	5.087062e+01	-1.274088e+00
1.410000e-06	7.351452e-06	-3.589054e-11	5.135123e+01	-1.265798e+00
1.420000e-06	7.417614e-06	-4.028038e-11	5.181339e+01	-1.244972e+00
1.430000e-06	7.481088e-06	-4.114114e-11	5.225676e+01	-1.209560e+00
1.440000e-06	7.542038e-06	-3.910216e-11	5.268251e+01	-1.159127e+00
1.450000e-06	7.600370e-06	-3.702893e-11	5.308997e+01	-1.095023e+00
1.460000e-06	7.656000e-06	-3.638733e-11	5.347856e+01	-1.020289e+00
1.470000e-06	7.708789e-06	-3.452214e-11	5.384730e+01	-9.392958e-01
1.480000e-06	7.758349e-06	-3.247913e-11	5.419349e+01	-8.571696e-01
1.490000e-06	7.804861e-06	-3.236871e-11	5.451838e+01	-7.790638e-01
1.500000e-06	7.848691e-06	-3.312005e-11	5.482454e+01	-7.093933e-01
1.510000e-06	7.889742e-06	-3.357038e-11	5.511129e+01	-6.511427e-01
1.520000e-06	7.927941e-06	-3.447186e-11	5.537811e+01	-6.053588e-01
1.530000e-06	7.963404e-06	-3.585027e-11	5.562583e+01	-5.709169e-01
1.540000e-06	7.996071e-06	-3.493459e-11	5.585401e+01	-5.446109e-01
1.550000e-06	8.025952e-06	-3.286545e-11	5.606274e+01	-5.215724e-01
1.560000e-06	8.053114e-06	-3.116223e-11	5.625247e+01	-4.959705e-01
1.570000e-06	8.077365e-06	-2.918309e-11	5.642187e+01	-4.619043e-01
1.580000e-06	8.098729e-06	-2.718639e-11	5.657110e+01	-4.143591e-01
1.590000e-06	8.117342e-06	-2.583992e-11	5.670112e+01	-3.500869e-01
1.600000e-06	8.133039e-06	-2.654235e-11	5.681076e+01	-2.682708e-01
1.610000e-06	8.145696e-06	-2.769029e-11	5.689917e+01	-1.708609e-01
1.620000e-06	8.155227e-06	-2.768924e-11	5.696575e+01	-6.250952e-02
1.630000e-06	8.161705e-06	-2.759720e-11	5.701100e+01	4.990973e-02
1.640000e-06	8.165313e-06	-2.669545e-11	5.703620e+01	1.581543e-01
1.650000e-06	8.166071e-06	-2.229132e-11	5.704150e+01	2.537355e-01
1.660000e-06	8.164107e-06	-2.227124e-11	5.702778e+01	3.291667e-01
1.670000e-06	8.159525e-06	-2.117741e-11	5.699577e+01	3.791640e-01
1.680000e-06	8.152209e-06	-1.882487e-11	5.694467e+01	4.016281e-01
1.690000e-06	8.142201e-06	-1.715082e-11	5.687476e+01	3.982548e-01
1.700000e-06	8.129344e-06	-1.663168e-11	5.678495e+01	3.746692e-01
1.710000e-06	8.113611e-06	-8.929966e-12	5.667505e+01	3.400387e-01
1.720000e-06	8.095409e-06	1.876230e-11	5.654791e+01	3.061890e-01
1.730000e-06	8.074828e-06	1.706564e-11	5.640415e+01	2.863197e-01
1.740000e-06	8.051105e-06	-5.879432e-11	5.623844e+01	2.934687e-01
1.750000e-06	8.023534e-06	-4.782432e-11	5.604585e+01	3.389193e-01
1.760000e-06	7.992430e-06	-2.947856e-11	5.582858e+01	4.307526e-01
1.770000e-06	7.958601e-06	-4.967268e-11	5.559228e+01	5.727384e-01
1.780000e-06	7.922600e-06	2.827803e-12	5.534081e+01	7.637148e-01
1.790000e-06	7.884356e-06	7.944631e-11	5.507367e+01	9.975477e-01
1.800000e-06	7.843926e-06	-8.172887e-11	5.479126e+01	1.263687e+00
1.810000e-06	7.800979e-06	-2.340903e-13	5.449126e+01	1.548255e+00
1.820000e-06	7.755211e-06	8.661807e-11	5.417156e+01	1.835547e+00
1.830000e-06	7.706704e-06	-1.578462e-11	5.383273e+01	2.109738e+00
1.840000e-06	7.655263e-06	1.217360e-10	5.347341e+01	2.356613e+00
1.850000e-06	7.600839e-06	1.888531e-11	5.309325e+01	2.565073e+00
1.860000e-06	7.543460e-06	6.139488e-11	5.269244e+01	2.728263e+00
1.870000e-06	7.483511e-06	5.279770e-11	5.227369e+01	2.844157e+00
1.880000e-06	7.420967e-06	1.487620e-11	5.183681e+01	2.915564e+00
1.890000e-06	7.355488e-06	1.412591e-10	5.137942e+01	2.949541e+00
1.900000e-06	7.287216e-06	-9.028420e-12	5.090254e+01	2.956317e+00
1.910000e-06	7.216141e-06	4.310954e-11	5.040607e+01	2.947881e+00
1.920000e-06	7.142432e-06	7.786629e-11	4.989119e+01	2.936402e+00
1.930000e-06	7.065982e-06	7.368471e-11	4.935717e+01	2.932719e+00
1.940000e-06	6.986639e-06	5.210651e-11	4.880295e+01	2.945066e+00
1.950000e-06	6.904813e-06	-2.433612e-13	4.823138e+01	2.978206e+00
1.960000e-06	6.820597e-06	1.227349e-10	4.764311e+01	3.033064e+00
1.970000e-06	6.733861e-06	2.632355e-11	4.703725e+01	3.106880e+00
1.980000e-06	6.644663e-06	6.532581e-11	4.641418e+01	3.193858e+00
1.990000e-06	6.553271e-06	7.927269e-11	4.577579e+01	3.286175e+00
2.000000e-06	6.459573e-06	6.335900e-11	4.512130e+01	3.375227e+00
2.010000e-06	6.363456e-06	4.930203e-11	4.444990e+01	3.452904e+00
2.020000e-06	6.265160e-06	5.531541e-11	4.376329e+01	3.512749e+00
2.030000e-06	6.164735e-06	1.170417e-10	4.306180e+01	3.550818e+00
2.040000e-06	6.062026e-06	4.703954e-11	4.234436e+01	3.566159e+00
2.050000e-06	5.957088e-06	6.615461e-11	4.161134e+01	3.560849e+00
2.060000e-06	5.850160e-06	7.605322e-11	4.086444e+01	3.539613e+00
2.070000e-06	5.741202e-06	9.381846e-11	4.010334e+01	3.509084e+00
2.080000e-06	5.630020e-06	5.181881e-11	3.932672e+01	3.476842e+00
2.090000e-06	5.516654e-06	6.704756e-11	3.853483e+01	3.450355e+00
2.100000e-06	5.401257e-06	8.376490e-11	3.772877e+01	3.435996e+00
2.110000e-06	5.283708e-06	6.024018e-11	3.690767e+01	3.438243e+00
2.120000e-06	5.164022e-06	6.163620e-11	3.607164e+01	3.459190e+00
2.130000e-06	5.042511e-06	7.698879e-11	3.522286e+01	3.498403e+00
2.140000e-06	4.919230e-06	8.616053e-11	3.436172e+01	3.553124e+00
2.150000e-06	4.794267e-06	5.992917e-11	3.348883e+01	3.618782e+00
2.160000e-06	4.667560e-06	7.887223e-11	3.260376e+01	3.689713e+00
2.170000e-06	4.539065e-06	8.867847e-11	3.170620e+01	3.759978e+00
2.180000e-06	4.408964e-06	8.279661e-11	3.079742e+01	3.824153e+00
2.190000e-06	4.277337e-06	6.793973e-11	2.987798e+01	3.877987e+00
2.200000e-06	4.144327e-06	8.446549e-11	2.894888e+01	3.918842e+00
2.210000e-06	4.009856e-06	8.520819e-11	2.800958e+01	3.945857e+00
2.220000e-06	3.873760e-06	7.673774e-11	2.705892e+01	3.959849e+00
2.230000e-06	3.736245e-06	7.902922e-11	2.609836e+01	3.962978e+00
2.240000e-06	3.597459e-06	8.497677e-11	2.512891e+01	3.958246e+00
2.250000e-06	3.457358e-06	7.706879e-11	2.415027e+01	3.948919e+00
2.260000e-06	3.315959e-06	7.047661e-11	2.316258e+01	3.937974e+00
2.270000e-06	3.173195e-06	7.983061e-11	2.216535e+01	3.927648e+00
2.280000e-06	3.029119e-06	8.166950e-11	2.115895e+01	3.919158e+00
2.290000e-06	2.883937e-06	7.587290e-11	2.014483e+01	3.912626e+00
2.300000e-06	2.737820e-06	7.502864e-11	1.912417e+01	3.907196e+00
2.310000e-06	2.590737e-06	8.398277e-11	1.809677e+01	3.901326e+00
2.320000e-06	2.442690e-06	8.097326e-11	1.706263e+01	3.893179e+00
2.330000e-06	2.293843e-06	7.464605e-11	1.602292e+01	3.881040e+00
2.340000e-06	2.144343e-06	7.583474e-11	1.497862e+01	3.863704e+00
2.350000e-06	1.994094e-06	7.970037e-11	1.392911e+01	3.840732e+00
2.360000e-06	1.843113e-06	7.553160e-11	1.287448e+01	3.812570e+00
2.370000e-06	1.691504e-06	7.338218e-11	1.181547e+01	3.780489e+00
2.380000e-06	1.539189e-06	7.525802e-11	1.075152e+01	3.746366e+00
2.390000e-06	1.386153e-06	7.298071e-11	9.682530e+00	3.712350e+00
2.400000e-06	1.232627e-06	6.747693e-11	8.610122e+00	3.680469e+00
2.410000e-06	1.078769e-06	6.967386e-11	7.535398e+00	3.652240e+00
2.420000e-06	9.244965e-07	7.273355e-11	6.457777e+00	3.628356e+00
2.430000e-06	7.698227e-07	6.685065e-11	5.377352e+00	3.608503e+00
2.440000e-06	6.149228e-07	6.486029e-11	4.295348e+00	3.591328e+00
2.450000e-06	4.598813e-07	6.883913e-11	3.212355e+00	3.574573e+00
2.460000e-06	3.046083e-07	7.012461e-11	2.127745e+00	3.555361e+00
2.470000e-06	1.492721e-07	6.599907e-11	1.042693e+00	3.530566e+00
2.480000e-06	-6.021646e-09	6.507478e-11	-4.206229e-02	3.497241e+00
2.490000e-06	-1.613279e-07	6.630841e-11	-1.126905e+00	3.453013e+00
2.500000e-06	-3.166306e-07	6.225053e-11	-2.211723e+00	3.396403e+00
2.510000e-06	-4.717843e-07	5.760069e-11	-3.295500e+00	3.327014e+00
2.520000e-06	-6.267233e-07	5.627826e-11	-4.377777e+00	3.245575e+00
2.530000e-06	-7.815372e-07	5.370738e-11	-5.459180e+00	3.153822e+00
2.540000e-06	-9.360444e-07	4.997394e-11	-6.538441e+00	3.054258e+00
2.550000e-06	-1.090090e-06	5.088878e-11	-7.614480e+00	2.949821e+00
2.560000e-06	-1.243708e-06	5.231624e-11	-8.687529e+00	2.843511e+00
2.570000e-06	-1.396910e-06	4.864140e-11	-9.757671e+00	2.738045e+00
2.580000e-06	-1.549591e-06	4.352108e-11	-1.082418e+01	2.635579e+00
2.590000e-06	-1.701630e-06	4.266493e-11	-1.188620e+01	2.537533e+00
2.600000e-06	-1.853008e-06	4.096160e-11	-1.294360e+01	2.444547e+00
2.610000e-06	-2.003715e-06	3.527553e-11	-1.399631e+01	2.356551e+00
2.620000e-06	-2.153662e-06	3.225741e-11	-1.504372e+01	2.272943e+00
2.630000e-06	-2.302783e-06	3.329023e-11	-1.608536e+01	2.192816e+00
2.640000e-06	-2.451103e-06	3.236403e-11	-1.712140e+01	2.115220e+00
2.650000e-06	-2.598652e-06	3.077308e-11	-1.815206e+01	2.039377e+00
2.660000e-06	-2.745340e-06	3.137850e-11	-1.917670e+01	1.964855e+00
2.670000e-06	-2.891122e-06	3.187455e-11	-2.019501e+01	1.891639e+00
2.680000e-06	-3.035895e-06	3.139979e-11	-2.120628e+01	1.820123e+00
2.690000e-06	-3.179440e-06	3.094403e-11	-2.220897e+01	1.751009e+00
2.700000e-06	-3.321702e-06	2.979383e-11	-2.320269e+01	1.685166e+00
2.710000e-06	-3.462648e-06	2.634877e-11	-2.418723e+01	1.623452e+00
2.720000e-06	-3.602276e-06	2.330939e-11	-2.516256e+01	1.566563e+00
2.730000e-06	-3.740619e-06	2.333404e-11	-2.612891e+01	1.514918e+00
2.740000e-06	-3.877612e-06	2.494400e-11	-2.708583e+01	1.468616e+00
2.750000e-06	-4.013122e-06	2.652661e-11	-2.803239e+01	1.427466e+00
2.760000e-06	-4.147130e-06	2.704403e-11	-2.896846e+01	1.391082e+00
2.770000e-06	-4.279691e-06	2.581543e-11	-2.989442e+01	1.359013e+00
2.780000e-06	-4.410741e-06	2.277216e-11	-3.080983e+01	1.330893e+00
2.790000e-06	-4.540359e-06	2.012049e-11	-3.171524e+01	1.306559e+00
2.800000e-06	-4.668409e-06	1.924504e-11	-3.260969e+01	1.286121e+00
2.810000e-06	-4.794707e-06	1.976823e-11	-3.349190e+01	1.269956e+00
2.820000e-06	-4.919383e-06	1.849274e-11	-3.436279e+01	1.258626e+00
2.830000e-06	-5.042359e-06	1.750678e-11	-3.522180e+01	1.252720e+00
2.840000e-06	-5.163496e-06	1.866750e-11	-3.606796e+01	1.252670e+00
2.850000e-06	-5.282655e-06	1.904866e-11	-3.690031e+01	1.258551e+00
2.860000e-06	-5.399729e-06	1.828978e-11	-3.771809e+01	1.269919e+00
2.870000e-06	-5.514578e-06	1.839983e-11	-3.852033e+01	1.285730e+00
2.880000e-06	-5.627146e-06	1.998407e-11	-3.930665e+01	1.304352e+00
2.890000e-06	-5.737661e-06	1.960999e-11	-4.007861e+01	1.323695e+00
2.900000e-06	-5.846257e-06	1.819204e-11	-4.083717e+01	1.341435e+00
2.910000e-06	-5.952886e-06	1.672888e-11	-4.158200e+01	1.355315e+00
2.920000e-06	-6.057346e-06	1.543434e-11	-4.231167e+01	1.363468e+00
2.930000e-06	-6.159563e-06	1.393425e-11	-4.302568e+01	1.364718e+00
