# Temperatura_=_20.0
# Concentracion g/m^3_=_9000.0
# C_Vs_to_Am_M_A/Vsm_=_65563218390.804596
# pendiente_HvsI_1/m_=_3716.3
# ordenada_HvsI_A/m_=_1297.0
# frecuencia_Hz_=_301293.4431912243

Tiempo_(s)	Campo_(V.s)	Magnetizacion_(V.s)	Campo_(kA/m)	Magnetizacion_(A/m)
0.000000e+00	-8.208886e-06	-5.409674e-09	-5.698078e+01	-3.548686e+02
1.000000e-08	-8.206552e-06	-5.405577e-09	-5.696458e+01	-3.548323e+02
2.000000e-08	-8.201513e-06	-5.406473e-09	-5.692961e+01	-3.547748e+02
3.000000e-08	-8.193796e-06	-5.404938e-09	-5.687604e+01	-3.546871e+02
4.000000e-08	-8.183239e-06	-5.402545e-09	-5.680276e+01	-3.545599e+02
5.000000e-08	-8.169726e-06	-5.399387e-09	-5.670896e+01	-3.543859e+02
6.000000e-08	-8.153231e-06	-5.398767e-09	-5.659446e+01	-3.541606e+02
7.000000e-08	-8.134165e-06	-5.404493e-09	-5.646212e+01	-3.538845e+02
8.000000e-08	-8.112727e-06	-5.396463e-09	-5.631331e+01	-3.535624e+02
9.000000e-08	-8.088368e-06	-5.368403e-09	-5.614422e+01	-3.532036e+02
1.000000e-07	-8.060704e-06	-5.404008e-09	-5.595220e+01	-3.528203e+02
1.100000e-07	-8.029928e-06	-5.417446e-09	-5.573857e+01	-3.524258e+02
1.200000e-07	-7.996194e-06	-5.387444e-09	-5.550441e+01	-3.520319e+02
1.300000e-07	-7.959718e-06	-5.367216e-09	-5.525122e+01	-3.516473e+02
1.400000e-07	-7.921009e-06	-5.360222e-09	-5.498253e+01	-3.512753e+02
1.500000e-07	-7.880028e-06	-5.325301e-09	-5.469806e+01	-3.509134e+02
1.600000e-07	-7.836262e-06	-5.316187e-09	-5.439426e+01	-3.505529e+02
1.700000e-07	-7.789631e-06	-5.404799e-09	-5.407058e+01	-3.501799e+02
1.800000e-07	-7.740182e-06	-5.294948e-09	-5.372734e+01	-3.497773e+02
1.900000e-07	-7.687652e-06	-5.305110e-09	-5.336271e+01	-3.493268e+02
2.000000e-07	-7.632078e-06	-5.343228e-09	-5.297695e+01	-3.488123e+02
2.100000e-07	-7.573737e-06	-5.287744e-09	-5.257199e+01	-3.482214e+02
2.200000e-07	-7.512796e-06	-5.307194e-09	-5.214897e+01	-3.475479e+02
2.300000e-07	-7.449223e-06	-5.263766e-09	-5.170769e+01	-3.467922e+02
2.400000e-07	-7.382803e-06	-5.283871e-09	-5.124665e+01	-3.459618e+02
2.500000e-07	-7.313667e-06	-5.255681e-09	-5.076675e+01	-3.450693e+02
2.600000e-07	-7.241868e-06	-5.256300e-09	-5.026837e+01	-3.441310e+02
2.700000e-07	-7.167209e-06	-5.246615e-09	-4.975013e+01	-3.431638e+02
2.800000e-07	-7.089717e-06	-5.215044e-09	-4.921223e+01	-3.421826e+02
2.900000e-07	-7.009564e-06	-5.209627e-09	-4.865586e+01	-3.411976e+02
3.000000e-07	-6.926934e-06	-5.175704e-09	-4.808230e+01	-3.402128e+02
3.100000e-07	-6.841953e-06	-5.194750e-09	-4.749241e+01	-3.392250e+02
3.200000e-07	-6.754619e-06	-5.162950e-09	-4.688620e+01	-3.382243e+02
3.300000e-07	-6.664886e-06	-5.124750e-09	-4.626333e+01	-3.371953e+02
3.400000e-07	-6.572758e-06	-5.126258e-09	-4.562384e+01	-3.361199e+02
3.500000e-07	-6.478259e-06	-5.109110e-09	-4.496789e+01	-3.349797e+02
3.600000e-07	-6.381480e-06	-5.080166e-09	-4.429611e+01	-3.337589e+02
3.700000e-07	-6.282355e-06	-5.056820e-09	-4.360805e+01	-3.324469e+02
3.800000e-07	-6.180901e-06	-5.052799e-09	-4.290382e+01	-3.310392e+02
3.900000e-07	-6.077283e-06	-5.019295e-09	-4.218457e+01	-3.295388e+02
4.000000e-07	-5.971539e-06	-4.989268e-09	-4.145057e+01	-3.279543e+02
4.100000e-07	-5.863682e-06	-4.979808e-09	-4.070189e+01	-3.262989e+02
4.200000e-07	-5.753675e-06	-4.955903e-09	-3.993830e+01	-3.245871e+02
4.300000e-07	-5.641531e-06	-4.921169e-09	-3.915986e+01	-3.228322e+02
4.400000e-07	-5.527227e-06	-4.893390e-09	-3.836644e+01	-3.210431e+02
4.500000e-07	-5.410780e-06	-4.875728e-09	-3.755814e+01	-3.192221e+02
4.600000e-07	-5.292272e-06	-4.846542e-09	-3.673553e+01	-3.173641e+02
4.700000e-07	-5.171754e-06	-4.808713e-09	-3.589897e+01	-3.154563e+02
4.800000e-07	-5.049374e-06	-4.781299e-09	-3.504949e+01	-3.134797e+02
4.900000e-07	-4.925255e-06	-4.745561e-09	-3.418794e+01	-3.114119e+02
5.000000e-07	-4.799381e-06	-4.705315e-09	-3.331420e+01	-3.092294e+02
5.100000e-07	-4.671732e-06	-4.669823e-09	-3.242815e+01	-3.069118e+02
5.200000e-07	-4.542430e-06	-4.638999e-09	-3.153061e+01	-3.044441e+02
5.300000e-07	-4.411508e-06	-4.595137e-09	-3.062184e+01	-3.018187e+02
5.400000e-07	-4.279040e-06	-4.546881e-09	-2.970233e+01	-2.990363e+02
5.500000e-07	-4.145051e-06	-4.512990e-09	-2.877227e+01	-2.961048e+02
5.600000e-07	-4.009476e-06	-4.471579e-09	-2.783119e+01	-2.930372e+02
5.700000e-07	-3.872378e-06	-4.422525e-09	-2.687954e+01	-2.898484e+02
5.800000e-07	-3.733791e-06	-4.367850e-09	-2.591757e+01	-2.865510e+02
5.900000e-07	-3.593737e-06	-4.321075e-09	-2.494540e+01	-2.831519e+02
6.000000e-07	-3.452185e-06	-4.266033e-09	-2.396284e+01	-2.796490e+02
6.100000e-07	-3.309290e-06	-4.207126e-09	-2.297096e+01	-2.760294e+02
6.200000e-07	-3.165234e-06	-4.146515e-09	-2.197101e+01	-2.722694e+02
6.300000e-07	-3.020053e-06	-4.081759e-09	-2.096326e+01	-2.683356e+02
6.400000e-07	-2.873786e-06	-4.015399e-09	-1.994797e+01	-2.641883e+02
6.500000e-07	-2.726515e-06	-3.945778e-09	-1.892571e+01	-2.597853e+02
6.600000e-07	-2.578400e-06	-3.878211e-09	-1.789759e+01	-2.550863e+02
6.700000e-07	-2.429451e-06	-3.799129e-09	-1.686368e+01	-2.500569e+02
6.800000e-07	-2.279643e-06	-3.716797e-09	-1.582381e+01	-2.446708e+02
6.900000e-07	-2.128991e-06	-3.630202e-09	-1.477808e+01	-2.389102e+02
7.000000e-07	-1.977551e-06	-3.541096e-09	-1.372688e+01	-2.327647e+02
7.100000e-07	-1.825413e-06	-3.442008e-09	-1.267084e+01	-2.262264e+02
7.200000e-07	-1.672635e-06	-3.335559e-09	-1.161035e+01	-2.192843e+02
7.300000e-07	-1.519276e-06	-3.225417e-09	-1.054583e+01	-2.119172e+02
7.400000e-07	-1.365345e-06	-3.105319e-09	-9.477340e+00	-2.040863e+02
7.500000e-07	-1.210809e-06	-2.976870e-09	-8.404655e+00	-1.957294e+02
7.600000e-07	-1.055812e-06	-2.836045e-09	-7.328766e+00	-1.867577e+02
7.700000e-07	-9.005132e-07	-2.684207e-09	-6.250781e+00	-1.770552e+02
7.800000e-07	-7.449585e-07	-2.514907e-09	-5.171020e+00	-1.664834e+02
7.900000e-07	-5.892256e-07	-2.335797e-09	-4.090024e+00	-1.548895e+02
8.000000e-07	-4.332871e-07	-2.142170e-09	-3.007599e+00	-1.421190e+02
8.100000e-07	-2.771854e-07	-1.929048e-09	-1.924042e+00	-1.280309e+02
8.200000e-07	-1.209747e-07	-1.693597e-09	-8.397279e-01	-1.125146e+02
8.300000e-07	3.529623e-08	-1.436220e-09	2.450036e-01	-9.550652e+01
8.400000e-07	1.914936e-07	-1.160438e-09	1.329225e+00	-7.700455e+01
8.500000e-07	3.475762e-07	-8.573074e-10	2.412650e+00	-5.707827e+01
8.600000e-07	5.035426e-07	-5.350249e-10	3.495267e+00	-3.587404e+01
8.700000e-07	6.593650e-07	-1.972364e-10	4.576886e+00	-1.361351e+01
8.800000e-07	8.150099e-07	1.537101e-10	5.657272e+00	9.414532e+00
8.900000e-07	9.704299e-07	5.174441e-10	6.736097e+00	3.286854e+01
9.000000e-07	1.125555e-06	8.831002e-10	7.812874e+00	5.637361e+01
9.100000e-07	1.280334e-06	1.240380e-09	8.887254e+00	7.954428e+01
9.200000e-07	1.434623e-06	1.585765e-09	9.958225e+00	1.020086e+02
9.300000e-07	1.588286e-06	1.910921e-09	1.102485e+01	1.234309e+02
9.400000e-07	1.741267e-06	2.212139e-09	1.208675e+01	1.435320e+02
9.500000e-07	1.893584e-06	2.486762e-09	1.314404e+01	1.621035e+02
9.600000e-07	2.045250e-06	2.738296e-09	1.419681e+01	1.790168e+02
9.700000e-07	2.196138e-06	2.964698e-09	1.524417e+01	1.942244e+02
9.800000e-07	2.346208e-06	3.167128e-09	1.628586e+01	2.077550e+02
9.900000e-07	2.495409e-06	3.346261e-09	1.732152e+01	2.197032e+02
1.000000e-06	2.643720e-06	3.505232e-09	1.835100e+01	2.302138e+02
1.010000e-06	2.791174e-06	3.647151e-09	1.937453e+01	2.394643e+02
1.020000e-06	2.937677e-06	3.772992e-09	2.039146e+01	2.476467e+02
1.030000e-06	3.083114e-06	3.888277e-09	2.140098e+01	2.549506e+02
1.040000e-06	3.227420e-06	3.990595e-09	2.240267e+01	2.615485e+02
1.050000e-06	3.370549e-06	4.083615e-09	2.339618e+01	2.675863e+02
1.060000e-06	3.512419e-06	4.167354e-09	2.438094e+01	2.731773e+02
1.070000e-06	3.652932e-06	4.247403e-09	2.535630e+01	2.784015e+02
1.080000e-06	3.792035e-06	4.321357e-09	2.632185e+01	2.833080e+02
1.090000e-06	3.929719e-06	4.388551e-09	2.727757e+01	2.879215e+02
1.100000e-06	4.065897e-06	4.452362e-09	2.822283e+01	2.922495e+02
1.110000e-06	4.200545e-06	4.511533e-09	2.915747e+01	2.962908e+02
1.120000e-06	4.333738e-06	4.565642e-09	3.008201e+01	3.000429e+02
1.130000e-06	4.465432e-06	4.612231e-09	3.099614e+01	3.035079e+02
1.140000e-06	4.595551e-06	4.659360e-09	3.189935e+01	3.066956e+02
1.150000e-06	4.723996e-06	4.703036e-09	3.279093e+01	3.096253e+02
1.160000e-06	4.850671e-06	4.744663e-09	3.367023e+01	3.123241e+02
1.170000e-06	4.975664e-06	4.785056e-09	3.453784e+01	3.148245e+02
1.180000e-06	5.099042e-06	4.822961e-09	3.539426e+01	3.171606e+02
1.190000e-06	5.220625e-06	4.855950e-09	3.623821e+01	3.193639e+02
1.200000e-06	5.340251e-06	4.888207e-09	3.706857e+01	3.214602e+02
1.210000e-06	5.457921e-06	4.920188e-09	3.788536e+01	3.234672e+02
1.220000e-06	5.573570e-06	4.947866e-09	3.868812e+01	3.253938e+02
1.230000e-06	5.686973e-06	4.972821e-09	3.947529e+01	3.272405e+02
1.240000e-06	5.798104e-06	4.994331e-09	4.024669e+01	3.290018e+02
1.250000e-06	5.907217e-06	5.019025e-09	4.100408e+01	3.306688e+02
1.260000e-06	6.014410e-06	5.042710e-09	4.174815e+01	3.322325e+02
1.270000e-06	6.119479e-06	5.063908e-09	4.247747e+01	3.336866e+02
1.280000e-06	6.222257e-06	5.084196e-09	4.319089e+01	3.350301e+02
1.290000e-06	6.322806e-06	5.103580e-09	4.388883e+01	3.362677e+02
1.300000e-06	6.421069e-06	5.122872e-09	4.457091e+01	3.374106e+02
1.310000e-06	6.516939e-06	5.139902e-09	4.523638e+01	3.384746e+02
1.320000e-06	6.610473e-06	5.155997e-09	4.588563e+01	3.394780e+02
1.330000e-06	6.701736e-06	5.170841e-09	4.651912e+01	3.404395e+02
1.340000e-06	6.790611e-06	5.186000e-09	4.713603e+01	3.413750e+02
1.350000e-06	6.877094e-06	5.201907e-09	4.773634e+01	3.422958e+02
1.360000e-06	6.961334e-06	5.217203e-09	4.832108e+01	3.432071e+02
1.370000e-06	7.043184e-06	5.231754e-09	4.888923e+01	3.441078e+02
1.380000e-06	7.122391e-06	5.245983e-09	4.943904e+01	3.449910e+02
1.390000e-06	7.199008e-06	5.259437e-09	4.997086e+01	3.458459e+02
1.400000e-06	7.272983e-06	5.271110e-09	5.048435e+01	3.466599e+02
1.410000e-06	7.344225e-06	5.281685e-09	5.097887e+01	3.474212e+02
1.420000e-06	7.412894e-06	5.291357e-09	5.145552e+01	3.481208e+02
1.430000e-06	7.478888e-06	5.301349e-09	5.191361e+01	3.487545e+02
1.440000e-06	7.542160e-06	5.310713e-09	5.235280e+01	3.493234e+02
1.450000e-06	7.602906e-06	5.320256e-09	5.277446e+01	3.498342e+02
1.460000e-06	7.661039e-06	5.330435e-09	5.317798e+01	3.502975e+02
1.470000e-06	7.716421e-06	5.340236e-09	5.356241e+01	3.507266e+02
1.480000e-06	7.768900e-06	5.348842e-09	5.392668e+01	3.511352e+02
1.490000e-06	7.818093e-06	5.356578e-09	5.426815e+01	3.515349e+02
1.500000e-06	7.864221e-06	5.364418e-09	5.458834e+01	3.519338e+02
1.510000e-06	7.907707e-06	5.371977e-09	5.489019e+01	3.523351e+02
1.520000e-06	7.948382e-06	5.378591e-09	5.517253e+01	3.527369e+02
1.530000e-06	7.986239e-06	5.383040e-09	5.543531e+01	3.531325e+02
1.540000e-06	8.021382e-06	5.386872e-09	5.567925e+01	3.535120e+02
1.550000e-06	8.053640e-06	5.391969e-09	5.590316e+01	3.538638e+02
1.560000e-06	8.083036e-06	5.399134e-09	5.610721e+01	3.541769e+02
1.570000e-06	8.109664e-06	5.405502e-09	5.629205e+01	3.544428e+02
1.580000e-06	8.133384e-06	5.410361e-09	5.645670e+01	3.546566e+02
1.590000e-06	8.154251e-06	5.415991e-09	5.660154e+01	3.548178e+02
1.600000e-06	8.172357e-06	5.420991e-09	5.672722e+01	3.549302e+02
1.610000e-06	8.187502e-06	5.423169e-09	5.683235e+01	3.550012e+02
1.620000e-06	8.199561e-06	5.422879e-09	5.691606e+01	3.550397e+02
1.630000e-06	8.208464e-06	5.424571e-09	5.697785e+01	3.550551e+02
1.640000e-06	8.214350e-06	5.425521e-09	5.701871e+01	3.550549e+02
1.650000e-06	8.217416e-06	5.423809e-09	5.703999e+01	3.550434e+02
1.660000e-06	8.217633e-06	5.420652e-09	5.704150e+01	3.550211e+02
1.670000e-06	8.215114e-06	5.423132e-09	5.702401e+01	3.549842e+02
1.680000e-06	8.209932e-06	5.419643e-09	5.698804e+01	3.549257e+02
1.690000e-06	8.202010e-06	5.417539e-09	5.693305e+01	3.548367e+02
1.700000e-06	8.191374e-06	5.416784e-09	5.685922e+01	3.547080e+02
1.710000e-06	8.177848e-06	5.413129e-09	5.676534e+01	3.545322e+02
1.720000e-06	8.161443e-06	5.403893e-09	5.665146e+01	3.543051e+02
1.730000e-06	8.142588e-06	5.380357e-09	5.652059e+01	3.540272e+02
1.740000e-06	8.121203e-06	5.418229e-09	5.637214e+01	3.537036e+02
1.750000e-06	8.096444e-06	5.374745e-09	5.620028e+01	3.533437e+02
1.760000e-06	8.067869e-06	5.332116e-09	5.600193e+01	3.529598e+02
1.770000e-06	8.035977e-06	5.356402e-09	5.578056e+01	3.525651e+02
1.780000e-06	8.001508e-06	5.376493e-09	5.554130e+01	3.521714e+02
1.790000e-06	7.964762e-06	5.343855e-09	5.528623e+01	3.517871e+02
1.800000e-06	7.925868e-06	5.403784e-09	5.501625e+01	3.514156e+02
1.810000e-06	7.884775e-06	5.392470e-09	5.473101e+01	3.510540e+02
1.820000e-06	7.840915e-06	5.280121e-09	5.442656e+01	3.506933e+02
1.830000e-06	7.794233e-06	5.396905e-09	5.410253e+01	3.503195e+02
1.840000e-06	7.744682e-06	5.335454e-09	5.375858e+01	3.499154e+02
1.850000e-06	7.692020e-06	5.337251e-09	5.339303e+01	3.494630e+02
1.860000e-06	7.636433e-06	5.345214e-09	5.300719e+01	3.489459e+02
1.870000e-06	7.578089e-06	5.266133e-09	5.260220e+01	3.483521e+02
1.880000e-06	7.517166e-06	5.344530e-09	5.217931e+01	3.476756e+02
1.890000e-06	7.453484e-06	5.265191e-09	5.173727e+01	3.469171e+02
1.900000e-06	7.386889e-06	5.305285e-09	5.127501e+01	3.460842e+02
1.910000e-06	7.317487e-06	5.267452e-09	5.079327e+01	3.451897e+02
1.920000e-06	7.245300e-06	5.210059e-09	5.029219e+01	3.442501e+02
1.930000e-06	7.170392e-06	5.267348e-09	4.977223e+01	3.432822e+02
1.940000e-06	7.092671e-06	5.210246e-09	4.923274e+01	3.423007e+02
1.950000e-06	7.012296e-06	5.247449e-09	4.867483e+01	3.413157e+02
1.960000e-06	6.929460e-06	5.152065e-09	4.809984e+01	3.403309e+02
1.970000e-06	6.844088e-06	5.177806e-09	4.750724e+01	3.393428e+02
1.980000e-06	6.756241e-06	5.178299e-09	4.689746e+01	3.383413e+02
1.990000e-06	6.666080e-06	5.134995e-09	4.627162e+01	3.373110e+02
2.000000e-06	6.573599e-06	5.149850e-09	4.562968e+01	3.362336e+02
2.010000e-06	6.478717e-06	5.094901e-09	4.497107e+01	3.350907e+02
2.020000e-06	6.381554e-06	5.107670e-09	4.429662e+01	3.338669e+02
2.030000e-06	6.282149e-06	5.051847e-09	4.360662e+01	3.325514e+02
2.040000e-06	6.180453e-06	5.072166e-09	4.290071e+01	3.311404e+02
2.050000e-06	6.076490e-06	5.031239e-09	4.217906e+01	3.296367e+02
2.060000e-06	5.970461e-06	5.000849e-09	4.144308e+01	3.280495e+02
2.070000e-06	5.862409e-06	4.977443e-09	4.069305e+01	3.263918e+02
2.080000e-06	5.752153e-06	4.954600e-09	3.992773e+01	3.246783e+02
2.090000e-06	5.639772e-06	4.940795e-09	3.914765e+01	3.229220e+02
2.100000e-06	5.525216e-06	4.897202e-09	3.835248e+01	3.211317e+02
2.110000e-06	5.408487e-06	4.881921e-09	3.754222e+01	3.193095e+02
2.120000e-06	5.289679e-06	4.835910e-09	3.671753e+01	3.174500e+02
2.130000e-06	5.168896e-06	4.815996e-09	3.587914e+01	3.155401e+02
2.140000e-06	5.046247e-06	4.782122e-09	3.502779e+01	3.135607e+02
2.150000e-06	4.921773e-06	4.761701e-09	3.416376e+01	3.114891e+02
2.160000e-06	4.795564e-06	4.716434e-09	3.328771e+01	3.093021e+02
2.170000e-06	4.667610e-06	4.678379e-09	3.239953e+01	3.069794e+02
2.180000e-06	4.538015e-06	4.644248e-09	3.149997e+01	3.045061e+02
2.190000e-06	4.406840e-06	4.610461e-09	3.058944e+01	3.018751e+02
2.200000e-06	4.274044e-06	4.566027e-09	2.966765e+01	2.990871e+02
2.210000e-06	4.139723e-06	4.517979e-09	2.873528e+01	2.961505e+02
2.220000e-06	4.003982e-06	4.476763e-09	2.779306e+01	2.930783e+02
2.230000e-06	3.866772e-06	4.430147e-09	2.684064e+01	2.898854e+02
2.240000e-06	3.728082e-06	4.384320e-09	2.587793e+01	2.865843e+02
2.250000e-06	3.587921e-06	4.329679e-09	2.490503e+01	2.831815e+02
2.260000e-06	3.446399e-06	4.273626e-09	2.392268e+01	2.796748e+02
2.270000e-06	3.303624e-06	4.212498e-09	2.293163e+01	2.760507e+02
2.280000e-06	3.159565e-06	4.157664e-09	2.193166e+01	2.722850e+02
2.290000e-06	3.014337e-06	4.099935e-09	2.092358e+01	2.683443e+02
2.300000e-06	2.868066e-06	4.037308e-09	1.990826e+01	2.641886e+02
2.310000e-06	2.720818e-06	3.966372e-09	1.888616e+01	2.597757e+02
2.320000e-06	2.572570e-06	3.895967e-09	1.785712e+01	2.550655e+02
2.330000e-06	2.423408e-06	3.822637e-09	1.682173e+01	2.500237e+02
2.340000e-06	2.273505e-06	3.741236e-09	1.578120e+01	2.446244e+02
2.350000e-06	2.122756e-06	3.653505e-09	1.473480e+01	2.388503e+02
2.360000e-06	1.971127e-06	3.562390e-09	1.368229e+01	2.326908e+02
2.370000e-06	1.818902e-06	3.464798e-09	1.262564e+01	2.261383e+02
2.380000e-06	1.666192e-06	3.360569e-09	1.156563e+01	2.191815e+02
2.390000e-06	1.512901e-06	3.249892e-09	1.050158e+01	2.117986e+02
2.400000e-06	1.358995e-06	3.130866e-09	9.433266e+00	2.039501e+02
2.410000e-06	1.204549e-06	3.000840e-09	8.361201e+00	1.955730e+02
2.420000e-06	1.049656e-06	2.862628e-09	7.286035e+00	1.865773e+02
2.430000e-06	8.943940e-07	2.714757e-09	6.208305e+00	1.768463e+02
2.440000e-06	7.388331e-07	2.550978e-09	5.128502e+00	1.662406e+02
2.450000e-06	5.830271e-07	2.369596e-09	4.046997e+00	1.546073e+02
2.460000e-06	4.270449e-07	2.170574e-09	2.964269e+00	1.417920e+02
2.470000e-06	2.708733e-07	1.956385e-09	1.880227e+00	1.276546e+02
2.480000e-06	1.145376e-07	1.721853e-09	7.950460e-01	1.120858e+02
2.490000e-06	-4.180112e-08	1.466338e-09	-2.901563e-01	9.502400e+01
2.500000e-06	-1.980565e-07	1.188207e-09	-1.374780e+00	7.646950e+01
2.510000e-06	-3.542229e-07	8.880250e-10	-2.458787e+00	5.649459e+01
2.520000e-06	-5.101935e-07	5.675873e-10	-3.541434e+00	3.524838e+01
2.530000e-06	-6.659424e-07	2.296950e-10	-4.622542e+00	1.295510e+01
2.540000e-06	-8.214884e-07	-1.214563e-10	-5.702242e+00	-1.009431e+01
2.550000e-06	-9.767922e-07	-4.843371e-10	-6.780260e+00	-3.355674e+01
2.560000e-06	-1.131713e-06	-8.493039e-10	-7.855617e+00	-5.705650e+01
2.570000e-06	-1.286135e-06	-1.209814e-09	-8.927518e+00	-8.020821e+01
2.580000e-06	-1.440043e-06	-1.558467e-09	-9.995851e+00	-1.026408e+02
2.590000e-06	-1.593328e-06	-1.888202e-09	-1.105986e+01	-1.240204e+02
2.600000e-06	-1.746022e-06	-2.194534e-09	-1.211976e+01	-1.440700e+02
2.610000e-06	-1.898194e-06	-2.474926e-09	-1.317604e+01	-1.625840e+02
2.620000e-06	-2.049737e-06	-2.729122e-09	-1.422795e+01	-1.794367e+02
2.630000e-06	-2.200566e-06	-2.956892e-09	-1.527491e+01	-1.945835e+02
2.640000e-06	-2.350612e-06	-3.160194e-09	-1.631643e+01	-2.080557e+02
2.650000e-06	-2.499774e-06	-3.342017e-09	-1.735181e+01	-2.199498e+02
2.660000e-06	-2.647986e-06	-3.503859e-09	-1.838061e+01	-2.304122e+02
2.670000e-06	-2.795269e-06	-3.647186e-09	-1.940295e+01	-2.396212e+02
2.680000e-06	-2.941584e-06	-3.775217e-09	-2.041857e+01	-2.477691e+02
2.690000e-06	-3.086844e-06	-3.892766e-09	-2.142688e+01	-2.550449e+02
2.700000e-06	-3.231032e-06	-4.000035e-09	-2.242774e+01	-2.616204e+02
2.710000e-06	-3.374055e-06	-4.094161e-09	-2.342051e+01	-2.676405e+02
2.720000e-06	-3.515745e-06	-4.177997e-09	-2.440403e+01	-2.732173e+02
2.730000e-06	-3.656035e-06	-4.256330e-09	-2.537783e+01	-2.784295e+02
2.740000e-06	-3.794940e-06	-4.331021e-09	-2.634202e+01	-2.833253e+02
2.750000e-06	-3.932433e-06	-4.399248e-09	-2.729641e+01	-2.879285e+02
2.760000e-06	-4.068515e-06	-4.461122e-09	-2.824100e+01	-2.922463e+02
2.770000e-06	-4.203114e-06	-4.520851e-09	-2.917530e+01	-2.962773e+02
2.780000e-06	-4.336165e-06	-4.579367e-09	-3.009886e+01	-3.000191e+02
2.790000e-06	-4.467662e-06	-4.634012e-09	-3.101163e+01	-3.034740e+02
2.800000e-06	-4.597643e-06	-4.684782e-09	-3.191387e+01	-3.066521e+02
2.810000e-06	-4.726116e-06	-4.732500e-09	-3.280565e+01	-3.095730e+02
2.820000e-06	-4.852888e-06	-4.775295e-09	-3.368562e+01	-3.122642e+02
2.830000e-06	-4.977842e-06	-4.817250e-09	-3.455296e+01	-3.147582e+02
2.840000e-06	-5.101071e-06	-4.857196e-09	-3.540834e+01	-3.170890e+02
2.850000e-06	-5.222582e-06	-4.893330e-09	-3.625179e+01	-3.192881e+02
2.860000e-06	-5.342219e-06	-4.925973e-09	-3.708223e+01	-3.213809e+02
2.870000e-06	-5.459747e-06	-4.955762e-09	-3.789804e+01	-3.233850e+02
2.880000e-06	-5.574956e-06	-4.984195e-09	-3.869774e+01	-3.253087e+02
2.890000e-06	-5.687908e-06	-5.011532e-09	-3.948178e+01	-3.271525e+02
2.900000e-06	-5.798685e-06	-5.037939e-09	-4.025072e+01	-3.289106e+02
2.910000e-06	-5.907395e-06	-5.060843e-09	-4.100532e+01	-3.305741e+02
2.920000e-06	-6.014222e-06	-5.083853e-09	-4.174685e+01	-3.321340e+02
2.930000e-06	-6.119059e-06	-5.107829e-09	-4.247455e+01	-3.335842e+02
2.940000e-06	-6.221589e-06	-5.129523e-09	-4.318625e+01	-3.349237e+02
