# Temperatura_=_20.0
# Concentracion g/m^3_=_9000.0
# C_Vs_to_Am_M_A/Vsm_=_65563218390.804596
# pendiente_HvsI_1/m_=_3716.3
# ordenada_HvsI_A/m_=_1297.0
# frecuencia_Hz_=_301303.0122477487

Tiempo_(s)	Campo_(V.s)	Magnetizacion_(V.s)	Campo_(kA/m)	Magnetizacion_(A/m)
0.000000e+00	-8.218592e-06	-5.446804e-09	-5.697487e+01	-3.573446e+02
1.000000e-08	-8.216572e-06	-5.449028e-09	-5.696087e+01	-3.573291e+02
2.000000e-08	-8.211819e-06	-5.451001e-09	-5.692792e+01	-3.572960e+02
3.000000e-08	-8.204506e-06	-5.448473e-09	-5.687722e+01	-3.572362e+02
4.000000e-08	-8.194343e-06	-5.444418e-09	-5.680677e+01	-3.571401e+02
5.000000e-08	-8.181145e-06	-5.440264e-09	-5.671527e+01	-3.569998e+02
6.000000e-08	-8.164951e-06	-5.437359e-09	-5.660301e+01	-3.568111e+02
7.000000e-08	-8.146185e-06	-5.432818e-09	-5.647292e+01	-3.565745e+02
8.000000e-08	-8.125094e-06	-5.416080e-09	-5.632671e+01	-3.562956e+02
9.000000e-08	-8.101045e-06	-5.445543e-09	-5.615998e+01	-3.559850e+02
1.000000e-07	-8.073695e-06	-5.489107e-09	-5.597039e+01	-3.556564e+02
1.100000e-07	-8.043208e-06	-5.470924e-09	-5.575904e+01	-3.553245e+02
1.200000e-07	-8.009776e-06	-5.429584e-09	-5.552727e+01	-3.550025e+02
1.300000e-07	-7.973611e-06	-5.416658e-09	-5.527656e+01	-3.546999e+02
1.400000e-07	-7.935063e-06	-5.406324e-09	-5.500932e+01	-3.544200e+02
1.500000e-07	-7.894259e-06	-5.351754e-09	-5.472645e+01	-3.541588e+02
1.600000e-07	-7.850789e-06	-5.417083e-09	-5.442510e+01	-3.539055e+02
1.700000e-07	-7.804458e-06	-5.414561e-09	-5.410391e+01	-3.536425e+02
1.800000e-07	-7.755326e-06	-5.319255e-09	-5.376331e+01	-3.533485e+02
1.900000e-07	-7.703080e-06	-5.404844e-09	-5.340112e+01	-3.530004e+02
2.000000e-07	-7.647765e-06	-5.386576e-09	-5.301765e+01	-3.525769e+02
2.100000e-07	-7.589712e-06	-5.336658e-09	-5.261520e+01	-3.520613e+02
2.200000e-07	-7.529021e-06	-5.342132e-09	-5.219447e+01	-3.514436e+02
2.300000e-07	-7.465674e-06	-5.340855e-09	-5.175532e+01	-3.507219e+02
2.400000e-07	-7.399547e-06	-5.349791e-09	-5.129690e+01	-3.499028e+02
2.500000e-07	-7.330694e-06	-5.289427e-09	-5.081958e+01	-3.489996e+02
2.600000e-07	-7.259104e-06	-5.317890e-09	-5.032328e+01	-3.480308e+02
2.700000e-07	-7.184711e-06	-5.301683e-09	-4.980756e+01	-3.470167e+02
2.800000e-07	-7.107524e-06	-5.260709e-09	-4.927246e+01	-3.459763e+02
2.900000e-07	-7.027574e-06	-5.254748e-09	-4.871822e+01	-3.449243e+02
3.000000e-07	-6.945100e-06	-5.252155e-09	-4.814647e+01	-3.438689e+02
3.100000e-07	-6.860302e-06	-5.246245e-09	-4.755861e+01	-3.428104e+02
3.200000e-07	-6.773210e-06	-5.182346e-09	-4.695486e+01	-3.417415e+02
3.300000e-07	-6.683694e-06	-5.199106e-09	-4.633429e+01	-3.406483e+02
3.400000e-07	-6.591695e-06	-5.181884e-09	-4.569651e+01	-3.395126e+02
3.500000e-07	-6.497343e-06	-5.134455e-09	-4.504243e+01	-3.383154e+02
3.600000e-07	-6.400720e-06	-5.117383e-09	-4.437259e+01	-3.370391e+02
3.700000e-07	-6.301825e-06	-5.120965e-09	-4.368701e+01	-3.356711e+02
3.800000e-07	-6.200591e-06	-5.089961e-09	-4.298521e+01	-3.342052e+02
3.900000e-07	-6.097036e-06	-5.040858e-09	-4.226732e+01	-3.326425e+02
4.000000e-07	-5.991364e-06	-5.049634e-09	-4.153476e+01	-3.309911e+02
4.100000e-07	-5.883645e-06	-5.029358e-09	-4.078800e+01	-3.292638e+02
4.200000e-07	-5.773814e-06	-4.987315e-09	-4.002661e+01	-3.274761e+02
4.300000e-07	-5.661820e-06	-4.959435e-09	-3.925021e+01	-3.256428e+02
4.400000e-07	-5.547630e-06	-4.954132e-09	-3.845860e+01	-3.237746e+02
4.500000e-07	-5.431301e-06	-4.910664e-09	-3.765215e+01	-3.218762e+02
4.600000e-07	-5.312873e-06	-4.870185e-09	-3.683116e+01	-3.199445e+02
4.700000e-07	-5.192513e-06	-4.852802e-09	-3.599677e+01	-3.179684e+02
4.800000e-07	-5.070355e-06	-4.821984e-09	-3.514992e+01	-3.159301e+02
4.900000e-07	-4.946387e-06	-4.772261e-09	-3.429052e+01	-3.138076e+02
5.000000e-07	-4.820685e-06	-4.736808e-09	-3.341910e+01	-3.115775e+02
5.100000e-07	-4.693216e-06	-4.715649e-09	-3.253542e+01	-3.092189e+02
5.200000e-07	-4.564016e-06	-4.667396e-09	-3.163975e+01	-3.067159e+02
5.300000e-07	-4.433112e-06	-4.620938e-09	-3.073227e+01	-3.040605e+02
5.400000e-07	-4.300615e-06	-4.586534e-09	-2.981374e+01	-3.012526e+02
5.500000e-07	-4.166636e-06	-4.553114e-09	-2.888494e+01	-2.983000e+02
5.600000e-07	-4.031062e-06	-4.497877e-09	-2.794508e+01	-2.952160e+02
5.700000e-07	-3.893946e-06	-4.451831e-09	-2.699453e+01	-2.920156e+02
5.800000e-07	-3.755368e-06	-4.409955e-09	-2.603385e+01	-2.887124e+02
5.900000e-07	-3.615301e-06	-4.355464e-09	-2.506285e+01	-2.853137e+02
6.000000e-07	-3.473758e-06	-4.298061e-09	-2.408161e+01	-2.818176e+02
6.100000e-07	-3.330849e-06	-4.244626e-09	-2.309090e+01	-2.782108e+02
6.200000e-07	-3.186758e-06	-4.187234e-09	-2.209200e+01	-2.744685e+02
6.300000e-07	-3.041538e-06	-4.116626e-09	-2.108527e+01	-2.705558e+02
6.400000e-07	-2.895217e-06	-4.052172e-09	-2.007091e+01	-2.664306e+02
6.500000e-07	-2.747886e-06	-3.985181e-09	-1.904955e+01	-2.620482e+02
6.600000e-07	-2.599688e-06	-3.911794e-09	-1.802218e+01	-2.573661e+02
6.700000e-07	-2.450744e-06	-3.830761e-09	-1.698963e+01	-2.523478e+02
6.800000e-07	-2.300900e-06	-3.752708e-09	-1.595084e+01	-2.469657e+02
6.900000e-07	-2.150095e-06	-3.669130e-09	-1.490540e+01	-2.412026e+02
7.000000e-07	-1.998497e-06	-3.572136e-09	-1.385446e+01	-2.350489e+02
7.100000e-07	-1.846256e-06	-3.473408e-09	-1.279905e+01	-2.284995e+02
7.200000e-07	-1.693388e-06	-3.373922e-09	-1.173930e+01	-2.215467e+02
7.300000e-07	-1.539954e-06	-3.265289e-09	-1.067563e+01	-2.141730e+02
7.400000e-07	-1.386028e-06	-3.140760e-09	-9.608555e+00	-2.063429e+02
7.500000e-07	-1.231540e-06	-3.012407e-09	-8.537572e+00	-1.979967e+02
7.600000e-07	-1.076493e-06	-2.873911e-09	-7.462719e+00	-1.890459e+02
7.700000e-07	-9.209963e-07	-2.719556e-09	-6.384749e+00	-1.793730e+02
7.800000e-07	-7.651781e-07	-2.551239e-09	-5.304549e+00	-1.688351e+02
7.900000e-07	-6.091087e-07	-2.372497e-09	-4.222608e+00	-1.572726e+02
8.000000e-07	-4.527735e-07	-2.177913e-09	-3.138824e+00	-1.445221e+02
8.100000e-07	-2.962728e-07	-1.963285e-09	-2.053893e+00	-1.304320e+02
8.200000e-07	-1.397006e-07	-1.730946e-09	-9.684657e-01	-1.148808e+02
8.300000e-07	1.688861e-08	-1.474695e-09	1.170793e-01	-9.779497e+01
8.400000e-07	1.734602e-07	-1.193780e-09	1.202502e+00	-7.916399e+01
8.500000e-07	3.299737e-07	-8.883466e-10	2.287522e+00	-5.905246e+01
8.600000e-07	4.863722e-07	-5.650268e-10	3.371745e+00	-3.760566e+01
8.700000e-07	6.426440e-07	-2.225678e-10	4.455089e+00	-1.504865e+01
8.800000e-07	7.986821e-07	1.375552e-10	5.536814e+00	8.321805e+00
8.900000e-07	9.543667e-07	5.059736e-10	6.616087e+00	3.215204e+01
9.000000e-07	1.109661e-06	8.764807e-10	7.692653e+00	5.605180e+01
9.100000e-07	1.264505e-06	1.242165e-09	8.766099e+00	7.961828e+01
9.200000e-07	1.418764e-06	1.594347e-09	9.835490e+00	1.024617e+02
9.300000e-07	1.572433e-06	1.923211e-09	1.090080e+01	1.242297e+02
9.400000e-07	1.725558e-06	2.229808e-09	1.196233e+01	1.446289e+02
9.500000e-07	1.878149e-06	2.511379e-09	1.302015e+01	1.634407e+02
9.600000e-07	2.030177e-06	2.764852e-09	1.407408e+01	1.805307e+02
9.700000e-07	2.181495e-06	2.990941e-09	1.512307e+01	1.958508e+02
9.800000e-07	2.331901e-06	3.191822e-09	1.616576e+01	2.094340e+02
9.900000e-07	2.481402e-06	3.370709e-09	1.720216e+01	2.213831e+02
1.000000e-06	2.630086e-06	3.529326e-09	1.823291e+01	2.318544e+02
1.010000e-06	2.777853e-06	3.670822e-09	1.925729e+01	2.410389e+02
1.020000e-06	2.924559e-06	3.797842e-09	2.027432e+01	2.491423e+02
1.030000e-06	3.070163e-06	3.911575e-09	2.128371e+01	2.563670e+02
1.040000e-06	3.214755e-06	4.012975e-09	2.228609e+01	2.628962e+02
1.050000e-06	3.358244e-06	4.107651e-09	2.328081e+01	2.688836e+02
1.060000e-06	3.500472e-06	4.193085e-09	2.426680e+01	2.744470e+02
1.070000e-06	3.641366e-06	4.271778e-09	2.524354e+01	2.796672e+02
1.080000e-06	3.780765e-06	4.345761e-09	2.620992e+01	2.845915e+02
1.090000e-06	3.918686e-06	4.414291e-09	2.716604e+01	2.892402e+02
1.100000e-06	4.055216e-06	4.476180e-09	2.811253e+01	2.936152e+02
1.110000e-06	4.190204e-06	4.532929e-09	2.904833e+01	2.977093e+02
1.120000e-06	4.323731e-06	4.586785e-09	2.997400e+01	3.015143e+02
1.130000e-06	4.455813e-06	4.636279e-09	3.088964e+01	3.050277e+02
1.140000e-06	4.586204e-06	4.683551e-09	3.179357e+01	3.082568e+02
1.150000e-06	4.714953e-06	4.727684e-09	3.268612e+01	3.112198e+02
1.160000e-06	4.842042e-06	4.770559e-09	3.356715e+01	3.139449e+02
1.170000e-06	4.967466e-06	4.810945e-09	3.443665e+01	3.164667e+02
1.180000e-06	5.091169e-06	4.847415e-09	3.529421e+01	3.188225e+02
1.190000e-06	5.213013e-06	4.882244e-09	3.613889e+01	3.210474e+02
1.200000e-06	5.333043e-06	4.915166e-09	3.697098e+01	3.231704e+02
1.210000e-06	5.451124e-06	4.946308e-09	3.778958e+01	3.252115e+02
1.220000e-06	5.567043e-06	4.975445e-09	3.859317e+01	3.271807e+02
1.230000e-06	5.680790e-06	5.004023e-09	3.938172e+01	3.290787e+02
1.240000e-06	5.792406e-06	5.030004e-09	4.015549e+01	3.308986e+02
1.250000e-06	5.901976e-06	5.052821e-09	4.091508e+01	3.326292e+02
1.260000e-06	6.009491e-06	5.075106e-09	4.166042e+01	3.342586e+02
1.270000e-06	6.114878e-06	5.096124e-09	4.239101e+01	3.357773e+02
1.280000e-06	6.218059e-06	5.117299e-09	4.310630e+01	3.371813e+02
1.290000e-06	6.319026e-06	5.138047e-09	4.380625e+01	3.384730e+02
1.300000e-06	6.417710e-06	5.157994e-09	4.449037e+01	3.396618e+02
1.310000e-06	6.513992e-06	5.176267e-09	4.515784e+01	3.407625e+02
1.320000e-06	6.607974e-06	5.193303e-09	4.580936e+01	3.417937e+02
1.330000e-06	6.699628e-06	5.208811e-09	4.644475e+01	3.427746e+02
1.340000e-06	6.788934e-06	5.223648e-09	4.706386e+01	3.437221e+02
1.350000e-06	6.875834e-06	5.239127e-09	4.766629e+01	3.446488e+02
1.360000e-06	6.960359e-06	5.253625e-09	4.825225e+01	3.455612e+02
1.370000e-06	7.042557e-06	5.268813e-09	4.882209e+01	3.464592e+02
1.380000e-06	7.122230e-06	5.283252e-09	4.937441e+01	3.473367e+02
1.390000e-06	7.199303e-06	5.295301e-09	4.990872e+01	3.481832e+02
1.400000e-06	7.273712e-06	5.306242e-09	5.042455e+01	3.489864e+02
1.410000e-06	7.345379e-06	5.316255e-09	5.092138e+01	3.497347e+02
1.420000e-06	7.414413e-06	5.324823e-09	5.139995e+01	3.504192e+02
1.430000e-06	7.480805e-06	5.333142e-09	5.186021e+01	3.510362e+02
1.440000e-06	7.544516e-06	5.343780e-09	5.230189e+01	3.515875e+02
1.450000e-06	7.605678e-06	5.354209e-09	5.272589e+01	3.520807e+02
1.460000e-06	7.664153e-06	5.363817e-09	5.313126e+01	3.525280e+02
1.470000e-06	7.719808e-06	5.373219e-09	5.351709e+01	3.529439e+02
1.480000e-06	7.772625e-06	5.381945e-09	5.388324e+01	3.533436e+02
1.490000e-06	7.822279e-06	5.389843e-09	5.422746e+01	3.537399e+02
1.500000e-06	7.868846e-06	5.397178e-09	5.455028e+01	3.541417e+02
1.510000e-06	7.912692e-06	5.404485e-09	5.485424e+01	3.545522e+02
1.520000e-06	7.953706e-06	5.410737e-09	5.513857e+01	3.549691e+02
1.530000e-06	7.991860e-06	5.415107e-09	5.540307e+01	3.553847e+02
1.540000e-06	8.027331e-06	5.419263e-09	5.564897e+01	3.557876e+02
1.550000e-06	8.060000e-06	5.425733e-09	5.587545e+01	3.561646e+02
1.560000e-06	8.089833e-06	5.432704e-09	5.608226e+01	3.565029e+02
1.570000e-06	8.116868e-06	5.438904e-09	5.626968e+01	3.567923e+02
1.580000e-06	8.140949e-06	5.443986e-09	5.643662e+01	3.570269e+02
1.590000e-06	8.162182e-06	5.448232e-09	5.658381e+01	3.572057e+02
1.600000e-06	8.180685e-06	5.451816e-09	5.671208e+01	3.573326e+02
1.610000e-06	8.196252e-06	5.453315e-09	5.682001e+01	3.574154e+02
1.620000e-06	8.208689e-06	5.454448e-09	5.690622e+01	3.574643e+02
1.630000e-06	8.217914e-06	5.456478e-09	5.697017e+01	3.574899e+02
1.640000e-06	8.224150e-06	5.458812e-09	5.701340e+01	3.575012e+02
1.650000e-06	8.227625e-06	5.460100e-09	5.703749e+01	3.575035e+02
1.660000e-06	8.228203e-06	5.461007e-09	5.704150e+01	3.574983e+02
1.670000e-06	8.225945e-06	5.458693e-09	5.702585e+01	3.574822e+02
1.680000e-06	8.220976e-06	5.454382e-09	5.699140e+01	3.574483e+02
1.690000e-06	8.213271e-06	5.452643e-09	5.693798e+01	3.573874e+02
1.700000e-06	8.202846e-06	5.450944e-09	5.686572e+01	3.572898e+02
1.710000e-06	8.189529e-06	5.447984e-09	5.677340e+01	3.571479e+02
1.720000e-06	8.173385e-06	5.447405e-09	5.666148e+01	3.569574e+02
1.730000e-06	8.154792e-06	5.452742e-09	5.653259e+01	3.567191e+02
1.740000e-06	8.133734e-06	5.442176e-09	5.638660e+01	3.564389e+02
1.750000e-06	8.109426e-06	5.369847e-09	5.621809e+01	3.561274e+02
1.760000e-06	8.081231e-06	5.363385e-09	5.602263e+01	3.557984e+02
1.770000e-06	8.049527e-06	5.396372e-09	5.580284e+01	3.554667e+02
1.780000e-06	8.015241e-06	5.402134e-09	5.556515e+01	3.551453e+02
1.790000e-06	7.978757e-06	5.421318e-09	5.531223e+01	3.548435e+02
1.800000e-06	7.940035e-06	5.481142e-09	5.504379e+01	3.545643e+02
1.810000e-06	7.899104e-06	5.369402e-09	5.476004e+01	3.543037e+02
1.820000e-06	7.855509e-06	5.370562e-09	5.445782e+01	3.540503e+02
1.830000e-06	7.809108e-06	5.446141e-09	5.413615e+01	3.537866e+02
1.840000e-06	7.759909e-06	5.365363e-09	5.379508e+01	3.534910e+02
1.850000e-06	7.707568e-06	5.437272e-09	5.343223e+01	3.531406e+02
1.860000e-06	7.652281e-06	5.377716e-09	5.304896e+01	3.527141e+02
1.870000e-06	7.594222e-06	5.371757e-09	5.264647e+01	3.521950e+02
1.880000e-06	7.533476e-06	5.371037e-09	5.222535e+01	3.515735e+02
1.890000e-06	7.470034e-06	5.333943e-09	5.178554e+01	3.508482e+02
1.900000e-06	7.403725e-06	5.399787e-09	5.132586e+01	3.500258e+02
1.910000e-06	7.334582e-06	5.276397e-09	5.084653e+01	3.491199e+02
1.920000e-06	7.262671e-06	5.299803e-09	5.034801e+01	3.481491e+02
1.930000e-06	7.188102e-06	5.334616e-09	4.983107e+01	3.471338e+02
1.940000e-06	7.110666e-06	5.289849e-09	4.929425e+01	3.460927e+02
1.950000e-06	7.030443e-06	5.266782e-09	4.873811e+01	3.450405e+02
1.960000e-06	6.947818e-06	5.218081e-09	4.816532e+01	3.439851e+02
1.970000e-06	6.862696e-06	5.278881e-09	4.757521e+01	3.429264e+02
1.980000e-06	6.775001e-06	5.201742e-09	4.696727e+01	3.418569e+02
1.990000e-06	6.684968e-06	5.202198e-09	4.634312e+01	3.407624e+02
2.000000e-06	6.592694e-06	5.200884e-09	4.570344e+01	3.396249e+02
2.010000e-06	6.498003e-06	5.156327e-09	4.504700e+01	3.384251e+02
2.020000e-06	6.400970e-06	5.138936e-09	4.437432e+01	3.371458e+02
2.030000e-06	6.301743e-06	5.125960e-09	4.368644e+01	3.357743e+02
2.040000e-06	6.200248e-06	5.135641e-09	4.298283e+01	3.343049e+02
2.050000e-06	6.096423e-06	5.056724e-09	4.226307e+01	3.327389e+02
2.060000e-06	5.990489e-06	5.050850e-09	4.152869e+01	3.310845e+02
2.070000e-06	5.882588e-06	5.043305e-09	4.078068e+01	3.293548e+02
2.080000e-06	5.772538e-06	5.012999e-09	4.001776e+01	3.275652e+02
2.090000e-06	5.660310e-06	4.958283e-09	3.923974e+01	3.257305e+02
2.100000e-06	5.545863e-06	4.943767e-09	3.844635e+01	3.238612e+02
2.110000e-06	5.429167e-06	4.927322e-09	3.763736e+01	3.219617e+02
2.120000e-06	5.310329e-06	4.875676e-09	3.681352e+01	3.200287e+02
2.130000e-06	5.189566e-06	4.849141e-09	3.597634e+01	3.180507e+02
2.140000e-06	5.067015e-06	4.826742e-09	3.512677e+01	3.160098e+02
2.150000e-06	4.942650e-06	4.795066e-09	3.426461e+01	3.138838e+02
2.160000e-06	4.816463e-06	4.746975e-09	3.338983e+01	3.116495e+02
2.170000e-06	4.688500e-06	4.727155e-09	3.250273e+01	3.092859e+02
2.180000e-06	4.558937e-06	4.689975e-09	3.160455e+01	3.067776e+02
2.190000e-06	4.427780e-06	4.636635e-09	3.069531e+01	3.041167e+02
2.200000e-06	4.295006e-06	4.587918e-09	2.977486e+01	3.013034e+02
2.210000e-06	4.160746e-06	4.557870e-09	2.884411e+01	2.983459e+02
2.220000e-06	4.025034e-06	4.510966e-09	2.790330e+01	2.952574e+02
2.230000e-06	3.887811e-06	4.455407e-09	2.695200e+01	2.920532e+02
2.240000e-06	3.749130e-06	4.411566e-09	2.599061e+01	2.887465e+02
2.250000e-06	3.608970e-06	4.365415e-09	2.501896e+01	2.853444e+02
2.260000e-06	3.467448e-06	4.305810e-09	2.403787e+01	2.818446e+02
2.270000e-06	3.324697e-06	4.246026e-09	2.304825e+01	2.782335e+02
2.280000e-06	3.180596e-06	4.193579e-09	2.204928e+01	2.744858e+02
2.290000e-06	3.035293e-06	4.130628e-09	2.104198e+01	2.705662e+02
2.300000e-06	2.889081e-06	4.062070e-09	2.002837e+01	2.664326e+02
2.310000e-06	2.741889e-06	3.996827e-09	1.900798e+01	2.620403e+02
2.320000e-06	2.593568e-06	3.931533e-09	1.797975e+01	2.573467e+02
2.330000e-06	2.444370e-06	3.851576e-09	1.694545e+01	2.523158e+02
2.340000e-06	2.294415e-06	3.768748e-09	1.590589e+01	2.469204e+02
2.350000e-06	2.143632e-06	3.689929e-09	1.486059e+01	2.411434e+02
2.360000e-06	1.992029e-06	3.602541e-09	1.380962e+01	2.349757e+02
2.370000e-06	1.839740e-06	3.500844e-09	1.275388e+01	2.284120e+02
2.380000e-06	1.686854e-06	3.395136e-09	1.169401e+01	2.214446e+02
2.390000e-06	1.533397e-06	3.285456e-09	1.063018e+01	2.140553e+02
2.400000e-06	1.379439e-06	3.163538e-09	9.562872e+00	2.062080e+02
2.410000e-06	1.224938e-06	3.031974e-09	8.491808e+00	1.978418e+02
2.420000e-06	1.069888e-06	2.898111e-09	7.416928e+00	1.888675e+02
2.430000e-06	9.144851e-07	2.750329e-09	6.339611e+00	1.791662e+02
2.440000e-06	7.587619e-07	2.582083e-09	5.260069e+00	1.685946e+02
2.450000e-06	6.026882e-07	2.402497e-09	4.178098e+00	1.569925e+02
2.460000e-06	4.463875e-07	2.208066e-09	3.094553e+00	1.441966e+02
2.470000e-06	2.899248e-07	1.991881e-09	2.009886e+00	1.300561e+02
2.480000e-06	1.333556e-07	1.754665e-09	9.244795e-01	1.144511e+02
2.490000e-06	-2.325818e-08	1.499413e-09	-1.612358e-01	9.730982e+01
2.500000e-06	-1.798504e-07	1.221164e-09	-1.246802e+00	7.862438e+01
2.510000e-06	-3.363441e-07	9.168158e-10	-2.331685e+00	5.846217e+01
2.520000e-06	-4.926795e-07	5.934863e-10	-3.415470e+00	3.697139e+01
2.530000e-06	-6.487998e-07	2.526292e-10	-4.497764e+00	1.437983e+01
2.540000e-06	-8.046554e-07	-1.058264e-10	-5.578223e+00	-9.013421e+00
2.550000e-06	-9.602203e-07	-4.743446e-10	-6.656667e+00	-3.285301e+01
2.560000e-06	-1.115359e-06	-8.453562e-10	-7.732157e+00	-5.674780e+01
2.570000e-06	-1.269953e-06	-1.212444e-09	-8.803867e+00	-8.029502e+01
2.580000e-06	-1.424057e-06	-1.568240e-09	-9.872184e+00	-1.031058e+02
2.590000e-06	-1.577742e-06	-1.902221e-09	-1.093760e+01	-1.248296e+02
2.600000e-06	-1.730967e-06	-2.210002e-09	-1.199982e+01	-1.451754e+02
2.610000e-06	-1.883568e-06	-2.494913e-09	-1.305771e+01	-1.639275e+02
2.620000e-06	-2.035375e-06	-2.753620e-09	-1.411011e+01	-1.809546e+02
2.630000e-06	-2.186308e-06	-2.982874e-09	-1.515645e+01	-1.962116e+02
2.640000e-06	-2.336414e-06	-3.185435e-09	-1.619704e+01	-2.097343e+02
2.650000e-06	-2.485829e-06	-3.367547e-09	-1.723285e+01	-2.216277e+02
2.660000e-06	-2.634490e-06	-3.530026e-09	-1.826344e+01	-2.320496e+02
2.670000e-06	-2.782125e-06	-3.672690e-09	-1.928691e+01	-2.411919e+02
2.680000e-06	-2.928667e-06	-3.798822e-09	-2.030280e+01	-2.492606e+02
2.690000e-06	-3.074252e-06	-3.911528e-09	-2.131206e+01	-2.564574e+02
2.700000e-06	-3.218752e-06	-4.013244e-09	-2.231380e+01	-2.629648e+02
2.710000e-06	-3.361944e-06	-4.106893e-09	-2.330647e+01	-2.689353e+02
2.720000e-06	-3.503875e-06	-4.194295e-09	-2.429039e+01	-2.744853e+02
2.730000e-06	-3.644582e-06	-4.274456e-09	-2.526584e+01	-2.796943e+02
2.740000e-06	-3.783880e-06	-4.348280e-09	-2.623151e+01	-2.846085e+02
2.750000e-06	-3.921754e-06	-4.418124e-09	-2.718731e+01	-2.892475e+02
2.760000e-06	-4.058151e-06	-4.484530e-09	-2.813287e+01	-2.936126e+02
2.770000e-06	-4.192984e-06	-4.545545e-09	-2.906760e+01	-2.976965e+02
2.780000e-06	-4.326447e-06	-4.601461e-09	-2.999283e+01	-3.014911e+02
2.790000e-06	-4.458372e-06	-4.654406e-09	-3.090738e+01	-3.049942e+02
2.800000e-06	-4.588712e-06	-4.706201e-09	-3.181096e+01	-3.082134e+02
2.810000e-06	-4.717504e-06	-4.753884e-09	-3.270380e+01	-3.111673e+02
2.820000e-06	-4.844533e-06	-4.797066e-09	-3.358442e+01	-3.138845e+02
2.830000e-06	-4.969909e-06	-4.839864e-09	-3.445358e+01	-3.163997e+02
2.840000e-06	-5.093554e-06	-4.881366e-09	-3.531074e+01	-3.187503e+02
2.850000e-06	-5.215323e-06	-4.919928e-09	-3.615490e+01	-3.209711e+02
2.860000e-06	-5.335221e-06	-4.954992e-09	-3.698608e+01	-3.230909e+02
2.870000e-06	-5.453103e-06	-4.985163e-09	-3.780329e+01	-3.251293e+02
2.880000e-06	-5.568757e-06	-5.011759e-09	-3.860506e+01	-3.270961e+02
2.890000e-06	-5.682108e-06	-5.038634e-09	-3.939086e+01	-3.289914e+02
2.900000e-06	-5.793254e-06	-5.065485e-09	-4.016137e+01	-3.308083e+02
2.910000e-06	-5.902378e-06	-5.089614e-09	-4.091786e+01	-3.325355e+02
2.920000e-06	-6.009572e-06	-5.112840e-09	-4.166098e+01	-3.341611e+02
2.930000e-06	-6.114688e-06	-5.136350e-09	-4.238969e+01	-3.356758e+02
2.940000e-06	-6.217496e-06	-5.158095e-09	-4.310240e+01	-3.370757e+02
