# Temperatura_=_20.0
# Concentracion g/m^3_=_9000.0
# C_Vs_to_Am_M_A/Vsm_=_65563218390.804596
# pendiente_HvsI_1/m_=_3716.3
# ordenada_HvsI_A/m_=_1297.0
# frecuencia_Hz_=_301309.3246447001

Tiempo_(s)	Campo_(V.s)	Magnetizacion_(V.s)	Campo_(kA/m)	Magnetizacion_(A/m)
0.000000e+00	-8.176765e-06	-2.140133e-10	-5.697262e+01	-1.296955e+01
1.000000e-08	-8.174559e-06	-2.134232e-10	-5.695725e+01	-1.302298e+01
2.000000e-08	-8.169645e-06	-2.125483e-10	-5.692302e+01	-1.305826e+01
3.000000e-08	-8.162144e-06	-2.109844e-10	-5.687075e+01	-1.307309e+01
4.000000e-08	-8.151838e-06	-2.110050e-10	-5.679894e+01	-1.306775e+01
5.000000e-08	-8.138564e-06	-2.107972e-10	-5.670646e+01	-1.304543e+01
6.000000e-08	-8.122403e-06	-2.092895e-10	-5.659385e+01	-1.301209e+01
7.000000e-08	-8.103691e-06	-2.029576e-10	-5.646347e+01	-1.297606e+01
8.000000e-08	-8.082599e-06	-1.837842e-10	-5.631651e+01	-1.294727e+01
9.000000e-08	-8.058606e-06	-1.716307e-10	-5.614933e+01	-1.293620e+01
1.000000e-07	-8.031327e-06	-2.055209e-10	-5.595926e+01	-1.295269e+01
1.100000e-07	-8.000955e-06	-2.281735e-10	-5.574765e+01	-1.300481e+01
1.200000e-07	-7.967623e-06	-2.287453e-10	-5.551540e+01	-1.309783e+01
1.300000e-07	-7.931518e-06	-2.351234e-10	-5.526384e+01	-1.323346e+01
1.400000e-07	-7.893116e-06	-2.146986e-10	-5.499627e+01	-1.340958e+01
1.500000e-07	-7.852556e-06	-1.625661e-10	-5.471366e+01	-1.362023e+01
1.600000e-07	-7.809296e-06	-2.058879e-10	-5.441224e+01	-1.385623e+01
1.700000e-07	-7.763128e-06	-2.607715e-10	-5.409056e+01	-1.410606e+01
1.800000e-07	-7.714166e-06	-1.796728e-10	-5.374941e+01	-1.435702e+01
1.900000e-07	-7.662075e-06	-2.155492e-10	-5.338646e+01	-1.459655e+01
2.000000e-07	-7.606994e-06	-2.591125e-10	-5.300267e+01	-1.481356e+01
2.100000e-07	-7.549196e-06	-2.250688e-10	-5.259996e+01	-1.499941e+01
2.200000e-07	-7.488717e-06	-2.283683e-10	-5.217856e+01	-1.514881e+01
2.300000e-07	-7.425607e-06	-2.386485e-10	-5.173884e+01	-1.526006e+01
2.400000e-07	-7.359707e-06	-2.463504e-10	-5.127967e+01	-1.533507e+01
2.500000e-07	-7.291102e-06	-2.116682e-10	-5.080166e+01	-1.537877e+01
2.600000e-07	-7.219830e-06	-2.446429e-10	-5.030506e+01	-1.539833e+01
2.700000e-07	-7.145725e-06	-2.587962e-10	-4.978872e+01	-1.540202e+01
2.800000e-07	-7.068802e-06	-2.185251e-10	-4.925275e+01	-1.539812e+01
2.900000e-07	-6.989160e-06	-2.233956e-10	-4.869784e+01	-1.539379e+01
3.000000e-07	-6.907006e-06	-2.454914e-10	-4.812542e+01	-1.539422e+01
3.100000e-07	-6.822509e-06	-2.555703e-10	-4.753668e+01	-1.540209e+01
3.200000e-07	-6.735690e-06	-2.196093e-10	-4.693176e+01	-1.541741e+01
3.300000e-07	-6.646557e-06	-2.298885e-10	-4.631071e+01	-1.543771e+01
3.400000e-07	-6.555047e-06	-2.510421e-10	-4.567310e+01	-1.545864e+01
3.500000e-07	-6.461182e-06	-2.257370e-10	-4.501909e+01	-1.547470e+01
3.600000e-07	-6.365036e-06	-2.197906e-10	-4.434918e+01	-1.548022e+01
3.700000e-07	-6.266498e-06	-2.373583e-10	-4.366260e+01	-1.547023e+01
3.800000e-07	-6.165611e-06	-2.351181e-10	-4.295966e+01	-1.544124e+01
3.900000e-07	-6.062519e-06	-2.091859e-10	-4.224136e+01	-1.539175e+01
4.000000e-07	-5.957329e-06	-2.248229e-10	-4.150843e+01	-1.532242e+01
4.100000e-07	-5.850060e-06	-2.372683e-10	-4.076102e+01	-1.523602e+01
4.200000e-07	-5.740667e-06	-2.161363e-10	-3.999881e+01	-1.513691e+01
4.300000e-07	-5.629108e-06	-2.121823e-10	-3.922151e+01	-1.503047e+01
4.400000e-07	-5.515421e-06	-2.294537e-10	-3.842938e+01	-1.492228e+01
4.500000e-07	-5.399627e-06	-2.232061e-10	-3.762257e+01	-1.481731e+01
4.600000e-07	-5.281710e-06	-2.066746e-10	-3.680097e+01	-1.471931e+01
4.700000e-07	-5.161835e-06	-2.171350e-10	-3.596572e+01	-1.463025e+01
4.800000e-07	-5.040204e-06	-2.223305e-10	-3.511825e+01	-1.455016e+01
4.900000e-07	-4.916810e-06	-2.056768e-10	-3.425849e+01	-1.447715e+01
5.000000e-07	-4.791612e-06	-2.003411e-10	-3.338615e+01	-1.440773e+01
5.100000e-07	-4.664674e-06	-2.109036e-10	-3.250169e+01	-1.433739e+01
5.200000e-07	-4.536018e-06	-2.067440e-10	-3.160527e+01	-1.426118e+01
5.300000e-07	-4.405717e-06	-1.952290e-10	-3.069738e+01	-1.417441e+01
5.400000e-07	-4.273816e-06	-1.987162e-10	-2.977835e+01	-1.407323e+01
5.500000e-07	-4.140375e-06	-2.047504e-10	-2.884858e+01	-1.395506e+01
5.600000e-07	-4.005463e-06	-1.961783e-10	-2.790856e+01	-1.381882e+01
5.700000e-07	-3.869046e-06	-1.922984e-10	-2.695806e+01	-1.366490e+01
5.800000e-07	-3.731214e-06	-1.966005e-10	-2.599770e+01	-1.349498e+01
5.900000e-07	-3.591932e-06	-1.939910e-10	-2.502723e+01	-1.331158e+01
6.000000e-07	-3.451099e-06	-1.851721e-10	-2.404596e+01	-1.311768e+01
6.100000e-07	-3.308889e-06	-1.850925e-10	-2.305510e+01	-1.291613e+01
6.200000e-07	-3.165495e-06	-1.854662e-10	-2.205598e+01	-1.270930e+01
6.300000e-07	-3.020969e-06	-1.764089e-10	-2.104897e+01	-1.249879e+01
6.400000e-07	-2.875292e-06	-1.709087e-10	-2.003395e+01	-1.228525e+01
6.500000e-07	-2.728593e-06	-1.708147e-10	-1.901181e+01	-1.206846e+01
6.600000e-07	-2.581030e-06	-1.680802e-10	-1.798364e+01	-1.184749e+01
6.700000e-07	-2.432668e-06	-1.594056e-10	-1.694991e+01	-1.162101e+01
6.800000e-07	-2.283509e-06	-1.557539e-10	-1.591063e+01	-1.138754e+01
6.900000e-07	-2.133537e-06	-1.560233e-10	-1.486568e+01	-1.114577e+01
7.000000e-07	-1.982787e-06	-1.511939e-10	-1.381531e+01	-1.089468e+01
7.100000e-07	-1.831382e-06	-1.436247e-10	-1.276038e+01	-1.063359e+01
7.200000e-07	-1.679300e-06	-1.419996e-10	-1.170073e+01	-1.036201e+01
7.300000e-07	-1.526508e-06	-1.399087e-10	-1.063614e+01	-1.007937e+01
7.400000e-07	-1.373180e-06	-1.334511e-10	-9.567803e+00	-9.784659e+00
7.500000e-07	-1.219390e-06	-1.296340e-10	-8.496251e+00	-9.476059e+00
7.600000e-07	-1.065133e-06	-1.272095e-10	-7.421443e+00	-9.150603e+00
7.700000e-07	-9.105381e-07	-1.214022e-10	-6.344287e+00	-8.803999e+00
7.800000e-07	-7.556972e-07	-1.118908e-10	-5.265414e+00	-8.430635e+00
7.900000e-07	-6.005868e-07	-1.069522e-10	-4.184663e+00	-8.023828e+00
8.000000e-07	-4.452151e-07	-1.025171e-10	-3.102091e+00	-7.576304e+00
8.100000e-07	-2.897079e-07	-9.490694e-11	-2.018576e+00	-7.080881e+00
8.200000e-07	-1.341165e-07	-8.680846e-11	-9.344736e-01	-6.531285e+00
8.300000e-07	2.162062e-08	-8.049068e-11	1.506444e-01	-5.923006e+00
8.400000e-07	1.774278e-07	-7.116214e-11	1.236250e+00	-5.254083e+00
8.500000e-07	3.330568e-07	-5.708441e-11	2.320615e+00	-4.525725e+00
8.600000e-07	4.884837e-07	-4.612934e-11	3.403571e+00	-3.742655e+00
8.700000e-07	6.438014e-07	-3.525069e-11	4.485766e+00	-2.913139e+00
8.800000e-07	7.988806e-07	-2.140337e-11	5.566300e+00	-2.048666e+00
8.900000e-07	9.535903e-07	-7.575738e-12	6.644259e+00	-1.163292e+00
9.000000e-07	1.108005e-06	4.655020e-12	7.720164e+00	-2.727237e-01
9.100000e-07	1.262115e-06	1.764827e-11	8.793945e+00	6.067794e-01
9.200000e-07	1.415752e-06	3.122506e-11	9.864430e+00	1.459567e+00
9.300000e-07	1.568883e-06	4.131626e-11	1.093139e+01	2.271698e+00
9.400000e-07	1.721466e-06	5.014863e-11	1.199453e+01	3.031869e+00
9.500000e-07	1.873376e-06	6.166530e-11	1.305298e+01	3.732081e+00
9.600000e-07	2.024551e-06	7.304715e-11	1.410631e+01	4.367979e+00
9.700000e-07	2.174983e-06	8.304844e-11	1.515447e+01	4.938847e+00
9.800000e-07	2.324626e-06	9.180595e-11	1.619712e+01	5.447288e+00
9.900000e-07	2.473462e-06	9.740338e-11	1.723416e+01	5.898625e+00
1.000000e-06	2.621427e-06	1.009390e-10	1.826512e+01	6.300122e+00
1.010000e-06	2.768435e-06	1.041091e-10	1.928942e+01	6.660115e+00
1.020000e-06	2.914481e-06	1.084959e-10	2.030701e+01	6.987157e+00
1.030000e-06	3.059475e-06	1.137976e-10	2.131727e+01	7.289261e+00
1.040000e-06	3.203356e-06	1.173056e-10	2.231978e+01	7.573310e+00
1.050000e-06	3.346079e-06	1.218649e-10	2.331422e+01	7.844680e+00
1.060000e-06	3.487550e-06	1.230025e-10	2.429993e+01	8.107086e+00
1.070000e-06	3.627697e-06	1.242188e-10	2.527643e+01	8.362624e+00
1.080000e-06	3.766435e-06	1.278634e-10	2.624310e+01	8.611985e+00
1.090000e-06	3.903723e-06	1.346292e-10	2.719967e+01	8.854775e+00
1.100000e-06	4.039514e-06	1.398376e-10	2.814582e+01	9.089880e+00
1.110000e-06	4.173822e-06	1.426191e-10	2.908162e+01	9.315833e+00
1.120000e-06	4.306679e-06	1.451884e-10	3.000732e+01	9.531123e+00
1.130000e-06	4.437950e-06	1.455358e-10	3.092197e+01	9.734426e+00
1.140000e-06	4.567626e-06	1.464962e-10	3.182550e+01	9.924751e+00
1.150000e-06	4.695706e-06	1.464866e-10	3.271791e+01	1.010149e+01
1.160000e-06	4.822086e-06	1.488087e-10	3.359848e+01	1.026443e+01
1.170000e-06	4.946802e-06	1.528927e-10	3.446746e+01	1.041366e+01
1.180000e-06	5.069793e-06	1.565151e-10	3.532441e+01	1.054956e+01
1.190000e-06	5.190972e-06	1.580603e-10	3.616874e+01	1.067272e+01
1.200000e-06	5.310317e-06	1.596426e-10	3.700030e+01	1.078386e+01
1.210000e-06	5.427716e-06	1.605940e-10	3.781829e+01	1.088392e+01
1.220000e-06	5.543014e-06	1.599242e-10	3.862163e+01	1.097396e+01
1.230000e-06	5.656139e-06	1.599321e-10	3.940985e+01	1.105522e+01
1.240000e-06	5.767099e-06	1.607422e-10	4.018298e+01	1.112911e+01
1.250000e-06	5.876052e-06	1.617090e-10	4.094212e+01	1.119716e+01
1.260000e-06	5.983030e-06	1.616280e-10	4.168750e+01	1.126098e+01
1.270000e-06	6.087768e-06	1.622124e-10	4.241728e+01	1.132213e+01
1.280000e-06	6.190237e-06	1.646975e-10	4.313124e+01	1.138200e+01
1.290000e-06	6.290579e-06	1.671513e-10	4.383039e+01	1.144169e+01
1.300000e-06	6.388644e-06	1.688689e-10	4.451367e+01	1.150187e+01
1.310000e-06	6.484314e-06	1.681335e-10	4.518026e+01	1.156273e+01
1.320000e-06	6.577755e-06	1.676662e-10	4.583132e+01	1.162393e+01
1.330000e-06	6.668953e-06	1.666485e-10	4.646676e+01	1.168468e+01
1.340000e-06	6.757712e-06	1.660536e-10	4.708520e+01	1.174385e+01
1.350000e-06	6.844080e-06	1.669316e-10	4.768698e+01	1.180017e+01
1.360000e-06	6.928198e-06	1.676699e-10	4.827308e+01	1.185243e+01
1.370000e-06	7.009922e-06	1.700313e-10	4.884250e+01	1.189971e+01
1.380000e-06	7.089080e-06	1.726156e-10	4.939405e+01	1.194156e+01
1.390000e-06	7.165666e-06	1.739084e-10	4.992767e+01	1.197808e+01
1.400000e-06	7.239569e-06	1.741214e-10	5.044259e+01	1.200996e+01
1.410000e-06	7.310783e-06	1.741547e-10	5.093879e+01	1.203842e+01
1.420000e-06	7.379414e-06	1.732268e-10	5.141699e+01	1.206496e+01
1.430000e-06	7.445374e-06	1.718540e-10	5.187657e+01	1.209120e+01
1.440000e-06	7.508627e-06	1.714545e-10	5.231729e+01	1.211856e+01
1.450000e-06	7.569401e-06	1.725085e-10	5.274074e+01	1.214805e+01
1.460000e-06	7.627624e-06	1.737261e-10	5.314641e+01	1.218003e+01
1.470000e-06	7.683055e-06	1.742861e-10	5.353264e+01	1.221419e+01
1.480000e-06	7.735491e-06	1.758290e-10	5.389799e+01	1.224955e+01
1.490000e-06	7.784711e-06	1.775008e-10	5.424094e+01	1.228464e+01
1.500000e-06	7.830935e-06	1.772502e-10	5.456301e+01	1.231779e+01
1.510000e-06	7.874473e-06	1.761911e-10	5.486636e+01	1.234745e+01
1.520000e-06	7.915218e-06	1.764392e-10	5.515026e+01	1.237256e+01
1.530000e-06	7.953102e-06	1.754137e-10	5.541422e+01	1.239285e+01
1.540000e-06	7.988266e-06	1.723677e-10	5.565924e+01	1.240903e+01
1.550000e-06	8.020617e-06	1.711633e-10	5.588464e+01	1.242281e+01
1.560000e-06	8.050186e-06	1.731994e-10	5.609067e+01	1.243679e+01
1.570000e-06	8.077002e-06	1.760274e-10	5.627751e+01	1.245413e+01
1.580000e-06	8.100883e-06	1.783579e-10	5.644391e+01	1.247810e+01
1.590000e-06	8.121958e-06	1.803456e-10	5.659075e+01	1.251153e+01
1.600000e-06	8.140241e-06	1.807514e-10	5.671814e+01	1.255631e+01
1.610000e-06	8.155552e-06	1.788717e-10	5.682482e+01	1.261289e+01
1.620000e-06	8.167788e-06	1.777933e-10	5.691007e+01	1.268004e+01
1.630000e-06	8.176839e-06	1.777754e-10	5.697314e+01	1.275480e+01
1.640000e-06	8.182915e-06	1.764798e-10	5.701547e+01	1.283265e+01
1.650000e-06	8.186221e-06	1.762817e-10	5.703851e+01	1.290800e+01
1.660000e-06	8.186650e-06	1.774739e-10	5.704150e+01	1.297489e+01
1.670000e-06	8.184295e-06	1.812017e-10	5.702509e+01	1.302776e+01
1.680000e-06	8.179263e-06	1.838603e-10	5.699003e+01	1.306237e+01
1.690000e-06	8.171448e-06	1.870980e-10	5.693558e+01	1.307648e+01
1.700000e-06	8.160937e-06	1.897540e-10	5.686234e+01	1.307050e+01
1.710000e-06	8.147652e-06	1.893117e-10	5.676978e+01	1.304769e+01
1.720000e-06	8.131528e-06	1.908133e-10	5.665743e+01	1.301413e+01
1.730000e-06	8.112928e-06	2.038854e-10	5.652783e+01	1.297821e+01
1.740000e-06	8.091878e-06	2.340414e-10	5.638116e+01	1.294991e+01
1.750000e-06	8.067569e-06	2.073027e-10	5.621179e+01	1.293968e+01
1.760000e-06	8.039398e-06	1.735566e-10	5.601550e+01	1.295735e+01
1.770000e-06	8.007805e-06	1.687167e-10	5.579538e+01	1.301089e+01
1.780000e-06	7.973635e-06	1.501691e-10	5.555729e+01	1.310545e+01
1.790000e-06	7.937278e-06	1.680243e-10	5.530397e+01	1.324262e+01
1.800000e-06	7.898699e-06	2.478726e-10	5.503517e+01	1.342012e+01
1.810000e-06	7.857865e-06	2.137193e-10	5.475065e+01	1.363188e+01
1.820000e-06	7.814382e-06	1.902214e-10	5.444768e+01	1.386862e+01
1.830000e-06	7.768150e-06	2.519429e-10	5.412555e+01	1.411874e+01
1.840000e-06	7.719151e-06	1.929122e-10	5.378414e+01	1.436953e+01
1.850000e-06	7.667079e-06	2.286960e-10	5.342132e+01	1.460847e+01
1.860000e-06	7.612051e-06	2.469293e-10	5.303791e+01	1.482452e+01
1.870000e-06	7.554185e-06	2.067580e-10	5.263472e+01	1.500917e+01
1.880000e-06	7.493670e-06	2.232897e-10	5.221308e+01	1.515724e+01
1.890000e-06	7.430459e-06	2.138870e-10	5.177264e+01	1.526718e+01
1.900000e-06	7.364349e-06	2.756829e-10	5.131202e+01	1.534099e+01
1.910000e-06	7.295461e-06	2.139365e-10	5.083203e+01	1.538373e+01
1.920000e-06	7.223840e-06	1.907361e-10	5.033300e+01	1.540260e+01
1.930000e-06	7.149540e-06	2.622761e-10	4.981530e+01	1.540592e+01
1.940000e-06	7.072384e-06	2.421564e-10	4.927771e+01	1.540192e+01
1.950000e-06	6.992438e-06	2.429165e-10	4.872068e+01	1.539771e+01
1.960000e-06	6.910098e-06	2.055830e-10	4.814696e+01	1.539840e+01
1.970000e-06	6.825302e-06	2.492421e-10	4.755614e+01	1.540658e+01
1.980000e-06	6.737961e-06	2.345898e-10	4.694758e+01	1.542216e+01
1.990000e-06	6.648221e-06	2.267673e-10	4.632230e+01	1.544261e+01
2.000000e-06	6.556247e-06	2.607878e-10	4.568146e+01	1.546348e+01
2.010000e-06	6.461946e-06	2.287145e-10	4.502441e+01	1.547929e+01
2.020000e-06	6.365304e-06	2.311386e-10	4.435104e+01	1.548437e+01
2.030000e-06	6.266456e-06	2.353310e-10	4.366231e+01	1.547378e+01
2.040000e-06	6.165348e-06	2.719602e-10	4.295782e+01	1.544410e+01
2.050000e-06	6.061865e-06	2.341254e-10	4.223680e+01	1.539390e+01
2.060000e-06	5.956202e-06	2.279498e-10	4.150057e+01	1.532394e+01
2.070000e-06	5.848624e-06	2.487171e-10	4.075101e+01	1.523702e+01
2.080000e-06	5.739002e-06	2.470845e-10	3.998721e+01	1.513759e+01
2.090000e-06	5.627192e-06	2.327818e-10	3.920816e+01	1.503102e+01
2.100000e-06	5.513242e-06	2.305639e-10	3.841420e+01	1.492289e+01
2.110000e-06	5.397156e-06	2.435091e-10	3.760536e+01	1.481815e+01
2.120000e-06	5.278986e-06	2.213796e-10	3.678199e+01	1.472047e+01
2.130000e-06	5.158834e-06	2.266474e-10	3.594482e+01	1.463178e+01
2.140000e-06	5.036810e-06	2.373205e-10	3.509460e+01	1.455201e+01
2.150000e-06	4.912985e-06	2.412440e-10	3.423183e+01	1.447922e+01
2.160000e-06	4.787381e-06	2.260368e-10	3.335667e+01	1.440989e+01
2.170000e-06	4.660115e-06	2.325761e-10	3.246993e+01	1.433945e+01
2.180000e-06	4.531212e-06	2.361286e-10	3.157178e+01	1.426297e+01
2.190000e-06	4.400671e-06	2.275453e-10	3.066222e+01	1.417577e+01
2.200000e-06	4.268563e-06	2.211145e-10	2.974174e+01	1.407405e+01
2.210000e-06	4.134923e-06	2.260482e-10	2.881059e+01	1.395527e+01
2.220000e-06	3.999843e-06	2.260167e-10	2.786941e+01	1.381841e+01
2.230000e-06	3.863280e-06	2.173157e-10	2.691788e+01	1.366392e+01
2.240000e-06	3.725222e-06	2.210783e-10	2.595595e+01	1.349350e+01
2.250000e-06	3.585765e-06	2.221067e-10	2.498427e+01	1.330971e+01
2.260000e-06	3.444936e-06	2.131155e-10	2.400302e+01	1.311551e+01
2.270000e-06	3.302845e-06	2.035103e-10	2.301298e+01	1.291376e+01
2.280000e-06	3.159523e-06	2.071508e-10	2.201437e+01	1.270681e+01
2.290000e-06	3.014937e-06	2.074670e-10	2.100695e+01	1.249622e+01
2.300000e-06	2.869274e-06	1.994749e-10	1.999202e+01	1.228260e+01
2.310000e-06	2.722719e-06	1.928753e-10	1.897088e+01	1.206570e+01
2.320000e-06	2.575198e-06	1.947071e-10	1.794301e+01	1.184459e+01
2.330000e-06	2.426681e-06	1.933521e-10	1.690820e+01	1.161791e+01
2.340000e-06	2.277276e-06	1.887610e-10	1.586721e+01	1.138420e+01
2.350000e-06	2.127121e-06	1.884341e-10	1.482098e+01	1.114214e+01
2.360000e-06	1.976253e-06	1.859307e-10	1.376979e+01	1.089074e+01
2.370000e-06	1.824765e-06	1.773217e-10	1.271428e+01	1.062931e+01
2.380000e-06	1.672736e-06	1.729647e-10	1.165500e+01	1.035737e+01
2.390000e-06	1.520038e-06	1.716083e-10	1.059105e+01	1.007435e+01
2.400000e-06	1.366654e-06	1.649576e-10	9.522331e+00	9.779211e+00
2.410000e-06	1.212789e-06	1.549433e-10	8.450258e+00	9.470097e+00
2.420000e-06	1.058588e-06	1.519639e-10	7.375842e+00	9.143997e+00
2.430000e-06	9.039947e-07	1.508339e-10	6.298695e+00	8.796571e+00
2.440000e-06	7.490011e-07	1.427916e-10	5.218758e+00	8.422162e+00
2.450000e-06	5.937531e-07	1.350006e-10	4.137049e+00	8.014057e+00
2.460000e-06	4.383368e-07	1.298468e-10	3.054166e+00	7.564972e+00
2.470000e-06	2.827133e-07	1.221605e-10	1.969840e+00	7.067744e+00
2.480000e-06	1.269966e-07	1.119053e-10	8.848646e-01	6.516146e+00
2.490000e-06	-2.867490e-08	1.032808e-10	-1.997959e-01	5.905746e+00
2.500000e-06	-1.843417e-07	9.232096e-11	-1.284424e+00	5.234689e+00
2.510000e-06	-3.399607e-07	7.674075e-11	-2.368718e+00	4.504303e+00
2.520000e-06	-4.953644e-07	6.306690e-11	-3.451513e+00	3.719441e+00
2.530000e-06	-6.505208e-07	5.251169e-11	-4.532585e+00	2.888490e+00
2.540000e-06	-8.055463e-07	4.044606e-11	-5.612744e+00	2.023045e+00
2.550000e-06	-9.603481e-07	2.707647e-11	-6.691345e+00	1.137237e+00
2.560000e-06	-1.114709e-06	1.317956e-11	-7.766875e+00	2.468138e-01
2.570000e-06	-1.268623e-06	-6.462320e-13	-8.839288e+00	-6.319684e-01
2.580000e-06	-1.422138e-06	-1.395538e-11	-9.908921e+00	-1.483501e+00
2.590000e-06	-1.575135e-06	-2.610867e-11	-1.097495e+01	-2.293924e+00
2.600000e-06	-1.727496e-06	-3.808552e-11	-1.203654e+01	-3.052041e+00
2.610000e-06	-1.879212e-06	-5.170984e-11	-1.309365e+01	-3.749981e+00
2.620000e-06	-2.030269e-06	-6.386500e-11	-1.414615e+01	-4.383518e+00
2.630000e-06	-2.180584e-06	-7.146537e-11	-1.519349e+01	-4.952065e+00
2.640000e-06	-2.330073e-06	-7.666366e-11	-1.623507e+01	-5.458331e+00
2.650000e-06	-2.478758e-06	-8.436863e-11	-1.727105e+01	-5.907725e+00
2.660000e-06	-2.626552e-06	-9.237523e-11	-1.830083e+01	-6.307562e+00
2.670000e-06	-2.773360e-06	-9.730648e-11	-1.932373e+01	-6.666203e+00
2.680000e-06	-2.919234e-06	-1.013533e-10	-2.034013e+01	-6.992194e+00
2.690000e-06	-3.064091e-06	-1.076651e-10	-2.134943e+01	-7.293513e+00
2.700000e-06	-3.207771e-06	-1.145756e-10	-2.235054e+01	-7.576997e+00
2.710000e-06	-3.350239e-06	-1.201710e-10	-2.334321e+01	-7.847964e+00
2.720000e-06	-3.491480e-06	-1.251912e-10	-2.432732e+01	-8.110068e+00
2.730000e-06	-3.631384e-06	-1.293684e-10	-2.530212e+01	-8.365352e+00
2.740000e-06	-3.769906e-06	-1.326957e-10	-2.626729e+01	-8.614462e+00
2.750000e-06	-3.907064e-06	-1.365264e-10	-2.722295e+01	-8.856970e+00
2.760000e-06	-4.042767e-06	-1.404451e-10	-2.816848e+01	-9.091746e+00
2.770000e-06	-4.177001e-06	-1.431364e-10	-2.910377e+01	-9.317314e+00
2.780000e-06	-4.309766e-06	-1.460095e-10	-3.002883e+01	-9.532167e+00
2.790000e-06	-4.440984e-06	-1.506668e-10	-3.094311e+01	-9.734992e+00
2.800000e-06	-4.570675e-06	-1.564560e-10	-3.184674e+01	-9.924811e+00
2.810000e-06	-4.698740e-06	-1.602732e-10	-3.273905e+01	-1.010103e+01
2.820000e-06	-4.825121e-06	-1.613425e-10	-3.361963e+01	-1.026345e+01
2.830000e-06	-4.949850e-06	-1.635027e-10	-3.448870e+01	-1.041217e+01
2.840000e-06	-5.072861e-06	-1.666088e-10	-3.534579e+01	-1.054757e+01
2.850000e-06	-5.194041e-06	-1.700827e-10	-3.619012e+01	-1.067025e+01
2.860000e-06	-5.313230e-06	-1.728278e-10	-3.702059e+01	-1.078096e+01
2.870000e-06	-5.430308e-06	-1.733539e-10	-3.783634e+01	-1.088061e+01
2.880000e-06	-5.545195e-06	-1.736213e-10	-3.863683e+01	-1.097029e+01
2.890000e-06	-5.657829e-06	-1.752009e-10	-3.942162e+01	-1.105123e+01
2.900000e-06	-5.768288e-06	-1.767789e-10	-4.019127e+01	-1.112485e+01
2.910000e-06	-5.876794e-06	-1.767356e-10	-4.094729e+01	-1.119270e+01
2.920000e-06	-5.983398e-06	-1.782835e-10	-4.169007e+01	-1.125636e+01
2.930000e-06	-6.087870e-06	-1.822187e-10	-4.241799e+01	-1.131741e+01
2.940000e-06	-6.190014e-06	-1.854938e-10	-4.312969e+01	-1.137723e+01
