# Temperatura_=_20.0
# Concentracion g/m^3_=_9000.0
# C_Vs_to_Am_M_A/Vsm_=_65563218390.804596
# pendiente_HvsI_1/m_=_3716.3
# ordenada_HvsI_A/m_=_1297.0
# frecuencia_Hz_=_301293.7847987771

Tiempo_(s)	Campo_(V.s)	Magnetizacion_(V.s)	Campo_(kA/m)	Magnetizacion_(A/m)
0.000000e+00	-8.207669e-06	-5.443554e-09	-5.697724e+01	-3.578118e+02
1.000000e-08	-8.205056e-06	-5.446892e-09	-5.695911e+01	-3.578095e+02
2.000000e-08	-8.199764e-06	-5.446068e-09	-5.692237e+01	-3.577927e+02
3.000000e-08	-8.191865e-06	-5.443992e-09	-5.686753e+01	-3.577546e+02
4.000000e-08	-8.181086e-06	-5.441782e-09	-5.679270e+01	-3.576874e+02
5.000000e-08	-8.167235e-06	-5.436820e-09	-5.669655e+01	-3.575838e+02
6.000000e-08	-8.150435e-06	-5.430536e-09	-5.657993e+01	-3.574381e+02
7.000000e-08	-8.131150e-06	-5.419280e-09	-5.644605e+01	-3.572480e+02
8.000000e-08	-8.109460e-06	-5.435224e-09	-5.629548e+01	-3.570143e+02
9.000000e-08	-8.084726e-06	-5.472208e-09	-5.612378e+01	-3.567413e+02
1.000000e-07	-8.056707e-06	-5.475847e-09	-5.592927e+01	-3.564356e+02
1.100000e-07	-8.025697e-06	-5.450742e-09	-5.571400e+01	-3.561052e+02
1.200000e-07	-7.991741e-06	-5.424343e-09	-5.547828e+01	-3.557572e+02
1.300000e-07	-7.954992e-06	-5.407422e-09	-5.522317e+01	-3.553967e+02
1.400000e-07	-7.916074e-06	-5.376251e-09	-5.495300e+01	-3.550253e+02
1.500000e-07	-7.874876e-06	-5.396395e-09	-5.466701e+01	-3.546403e+02
1.600000e-07	-7.830802e-06	-5.415791e-09	-5.436105e+01	-3.542348e+02
1.700000e-07	-7.783976e-06	-5.349138e-09	-5.403599e+01	-3.537985e+02
1.800000e-07	-7.734305e-06	-5.384432e-09	-5.369118e+01	-3.533190e+02
1.900000e-07	-7.681410e-06	-5.388562e-09	-5.332398e+01	-3.527836e+02
2.000000e-07	-7.625574e-06	-5.355805e-09	-5.293637e+01	-3.521817e+02
2.100000e-07	-7.567027e-06	-5.348316e-09	-5.252994e+01	-3.515060e+02
2.200000e-07	-7.505837e-06	-5.332731e-09	-5.210516e+01	-3.507542e+02
2.300000e-07	-7.441997e-06	-5.351537e-09	-5.166198e+01	-3.499296e+02
2.400000e-07	-7.375340e-06	-5.304976e-09	-5.119925e+01	-3.490405e+02
2.500000e-07	-7.306019e-06	-5.309093e-09	-5.071803e+01	-3.480989e+02
2.600000e-07	-7.233956e-06	-5.311277e-09	-5.021777e+01	-3.471193e+02
2.700000e-07	-7.159019e-06	-5.277927e-09	-4.969757e+01	-3.461154e+02
2.800000e-07	-7.081298e-06	-5.252127e-09	-4.915803e+01	-3.450988e+02
2.900000e-07	-7.000877e-06	-5.256974e-09	-4.859975e+01	-3.440763e+02
3.000000e-07	-6.918029e-06	-5.257946e-09	-4.802463e+01	-3.430489e+02
3.100000e-07	-6.832821e-06	-5.204784e-09	-4.743312e+01	-3.420116e+02
3.200000e-07	-6.745195e-06	-5.203893e-09	-4.682482e+01	-3.409535e+02
3.300000e-07	-6.655167e-06	-5.197863e-09	-4.619985e+01	-3.398598e+02
3.400000e-07	-6.562769e-06	-5.155542e-09	-4.555843e+01	-3.387139e+02
3.500000e-07	-6.468104e-06	-5.129099e-09	-4.490126e+01	-3.374996e+02
3.600000e-07	-6.371156e-06	-5.133591e-09	-4.422826e+01	-3.362040e+02
3.700000e-07	-6.271842e-06	-5.108890e-09	-4.353882e+01	-3.348189e+02
3.800000e-07	-6.170213e-06	-5.064808e-09	-4.283332e+01	-3.333426e+02
3.900000e-07	-6.066336e-06	-5.059007e-09	-4.211221e+01	-3.317792e+02
4.000000e-07	-5.960305e-06	-5.050897e-09	-4.137615e+01	-3.301382e+02
4.100000e-07	-5.852182e-06	-5.013201e-09	-4.062556e+01	-3.284324e+02
4.200000e-07	-5.742008e-06	-4.979500e-09	-3.986074e+01	-3.266753e+02
4.300000e-07	-5.629743e-06	-4.974166e-09	-3.908140e+01	-3.248781e+02
4.400000e-07	-5.515222e-06	-4.943813e-09	-3.828641e+01	-3.230479e+02
4.500000e-07	-5.398532e-06	-4.901633e-09	-3.747635e+01	-3.211851e+02
4.600000e-07	-5.279871e-06	-4.877635e-09	-3.665261e+01	-3.192832e+02
4.700000e-07	-5.159290e-06	-4.855129e-09	-3.581554e+01	-3.173287e+02
4.800000e-07	-5.036815e-06	-4.809026e-09	-3.496533e+01	-3.153029e+02
4.900000e-07	-4.912533e-06	-4.770141e-09	-3.410257e+01	-3.131845e+02
5.000000e-07	-4.786598e-06	-4.746026e-09	-3.322833e+01	-3.109522e+02
5.100000e-07	-4.658883e-06	-4.707883e-09	-3.234174e+01	-3.085877e+02
5.200000e-07	-4.529336e-06	-4.660478e-09	-3.144243e+01	-3.060786e+02
5.300000e-07	-4.398175e-06	-4.621133e-09	-3.053192e+01	-3.034193e+02
5.400000e-07	-4.265445e-06	-4.587628e-09	-2.961052e+01	-3.006120e+02
5.500000e-07	-4.131279e-06	-4.538250e-09	-2.867914e+01	-2.976648e+02
5.600000e-07	-3.995713e-06	-4.493497e-09	-2.773805e+01	-2.945899e+02
5.700000e-07	-3.858597e-06	-4.453808e-09	-2.678620e+01	-2.914002e+02
5.800000e-07	-3.719925e-06	-4.407297e-09	-2.582354e+01	-2.881052e+02
5.900000e-07	-3.579813e-06	-4.350012e-09	-2.485089e+01	-2.847081e+02
6.000000e-07	-3.438266e-06	-4.296025e-09	-2.386828e+01	-2.812027e+02
6.100000e-07	-3.295258e-06	-4.241976e-09	-2.287552e+01	-2.775723e+02
6.200000e-07	-3.150974e-06	-4.174907e-09	-2.187391e+01	-2.737900e+02
6.300000e-07	-3.005615e-06	-4.107169e-09	-2.086483e+01	-2.698204e+02
6.400000e-07	-2.859230e-06	-4.041620e-09	-1.984864e+01	-2.656229e+02
6.500000e-07	-2.711881e-06	-3.974188e-09	-1.882575e+01	-2.611561e+02
6.600000e-07	-2.563704e-06	-3.895734e-09	-1.779711e+01	-2.563817e+02
6.700000e-07	-2.414730e-06	-3.818588e-09	-1.676294e+01	-2.512680e+02
6.800000e-07	-2.264889e-06	-3.740780e-09	-1.572275e+01	-2.457922e+02
6.900000e-07	-2.114262e-06	-3.653466e-09	-1.467710e+01	-2.399404e+02
7.000000e-07	-1.962973e-06	-3.557716e-09	-1.362686e+01	-2.337050e+02
7.100000e-07	-1.810917e-06	-3.459470e-09	-1.257130e+01	-2.270803e+02
7.200000e-07	-1.658056e-06	-3.356698e-09	-1.151014e+01	-2.200563e+02
7.300000e-07	-1.504530e-06	-3.240247e-09	-1.044437e+01	-2.126109e+02
7.400000e-07	-1.350419e-06	-3.118934e-09	-9.374541e+00	-2.047029e+02
7.500000e-07	-1.195836e-06	-2.990534e-09	-8.301433e+00	-1.962666e+02
7.600000e-07	-1.040879e-06	-2.848867e-09	-7.225729e+00	-1.872081e+02
7.700000e-07	-8.855473e-07	-2.690486e-09	-6.147427e+00	-1.774062e+02
7.800000e-07	-7.299281e-07	-2.523341e-09	-5.067126e+00	-1.667169e+02
7.900000e-07	-5.740479e-07	-2.343717e-09	-3.985013e+00	-1.549828e+02
8.000000e-07	-4.178965e-07	-2.144044e-09	-2.901017e+00	-1.420461e+02
8.100000e-07	-2.615815e-07	-1.926978e-09	-1.815886e+00	-1.277641e+02
8.200000e-07	-1.051933e-07	-1.690728e-09	-7.302469e-01	-1.120267e+02
8.300000e-07	5.122464e-08	-1.432149e-09	3.555990e-01	-9.477297e+01
8.400000e-07	2.076009e-07	-1.147235e-09	1.441156e+00	-7.600579e+01
8.500000e-07	3.638766e-07	-8.427400e-10	2.526014e+00	-5.580162e+01
8.600000e-07	5.200129e-07	-5.181828e-10	3.609905e+00	-3.431524e+01
8.700000e-07	6.759820e-07	-1.750849e-10	4.692635e+00	-1.177769e+01
8.800000e-07	8.316980e-07	1.831092e-10	5.773607e+00	1.151251e+01
8.900000e-07	9.870955e-07	5.496881e-10	6.852370e+00	3.520441e+01
9.000000e-07	1.142177e-06	9.179994e-10	7.928941e+00	5.891469e+01
9.100000e-07	1.296921e-06	1.281198e-09	9.003163e+00	8.225100e+01
9.200000e-07	1.451210e-06	1.627033e-09	1.007423e+01	1.048365e+02
9.300000e-07	1.604919e-06	1.951705e-09	1.114127e+01	1.263331e+02
9.400000e-07	1.757959e-06	2.252201e-09	1.220367e+01	1.464613e+02
9.500000e-07	1.910193e-06	2.528798e-09	1.326047e+01	1.650151e+02
9.600000e-07	2.061644e-06	2.778665e-09	1.431183e+01	1.818704e+02
9.700000e-07	2.212346e-06	3.004013e-09	1.535800e+01	1.969860e+02
9.800000e-07	2.362215e-06	3.204557e-09	1.639838e+01	2.103986e+02
9.900000e-07	2.511296e-06	3.380064e-09	1.743330e+01	2.222114e+02
1.000000e-06	2.659512e-06	3.537496e-09	1.846220e+01	2.325781e+02
1.010000e-06	2.806767e-06	3.678553e-09	1.948444e+01	2.416849e+02
1.020000e-06	2.953166e-06	3.806082e-09	2.050073e+01	2.497319e+02
1.030000e-06	3.098526e-06	3.917346e-09	2.150982e+01	2.569149e+02
1.040000e-06	3.242628e-06	4.017401e-09	2.251017e+01	2.634118e+02
1.050000e-06	3.385559e-06	4.111084e-09	2.350239e+01	2.693713e+02
1.060000e-06	3.527274e-06	4.195855e-09	2.448616e+01	2.749081e+02
1.070000e-06	3.667649e-06	4.274650e-09	2.546064e+01	2.801012e+02
1.080000e-06	3.806667e-06	4.347397e-09	2.642570e+01	2.849976e+02
1.090000e-06	3.944193e-06	4.417665e-09	2.738040e+01	2.896183e+02
1.100000e-06	4.080119e-06	4.481265e-09	2.832399e+01	2.939665e+02
1.110000e-06	4.214563e-06	4.540074e-09	2.925730e+01	2.980362e+02
1.120000e-06	4.347594e-06	4.594003e-09	3.018079e+01	3.018204e+02
1.130000e-06	4.479105e-06	4.642898e-09	3.109373e+01	3.053167e+02
1.140000e-06	4.608989e-06	4.688628e-09	3.199538e+01	3.085322e+02
1.150000e-06	4.737207e-06	4.732591e-09	3.288546e+01	3.114838e+02
1.160000e-06	4.863756e-06	4.775496e-09	3.376396e+01	3.141982e+02
1.170000e-06	4.988654e-06	4.815539e-09	3.463099e+01	3.167083e+02
1.180000e-06	5.111835e-06	4.852586e-09	3.548611e+01	3.190496e+02
1.190000e-06	5.233138e-06	4.886227e-09	3.632819e+01	3.212560e+02
1.200000e-06	5.352518e-06	4.920040e-09	3.715693e+01	3.233558e+02
1.210000e-06	5.469942e-06	4.950880e-09	3.797207e+01	3.253693e+02
1.220000e-06	5.585224e-06	4.979144e-09	3.877235e+01	3.273075e+02
1.230000e-06	5.698285e-06	5.004294e-09	3.955722e+01	3.291726e+02
1.240000e-06	5.809266e-06	5.028572e-09	4.032765e+01	3.309596e+02
1.250000e-06	5.918251e-06	5.053433e-09	4.108422e+01	3.326593e+02
1.260000e-06	6.025232e-06	5.075491e-09	4.182687e+01	3.342616e+02
1.270000e-06	6.129992e-06	5.096199e-09	4.255411e+01	3.357582e+02
1.280000e-06	6.232506e-06	5.117771e-09	4.326576e+01	3.371457e+02
1.290000e-06	6.332852e-06	5.138865e-09	4.396235e+01	3.384265e+02
1.300000e-06	6.430809e-06	5.158824e-09	4.464237e+01	3.396096e+02
1.310000e-06	6.526350e-06	5.176367e-09	4.530561e+01	3.407088e+02
1.320000e-06	6.619678e-06	5.192009e-09	4.595349e+01	3.417418e+02
1.330000e-06	6.710779e-06	5.206453e-09	4.658590e+01	3.427268e+02
1.340000e-06	6.799438e-06	5.221280e-09	4.720137e+01	3.436804e+02
1.350000e-06	6.885685e-06	5.238094e-09	4.780009e+01	3.446150e+02
1.360000e-06	6.969613e-06	5.254006e-09	4.838272e+01	3.455377e+02
1.370000e-06	7.051118e-06	5.268942e-09	4.894852e+01	3.464489e+02
1.380000e-06	7.130062e-06	5.283612e-09	4.949655e+01	3.473435e+02
1.390000e-06	7.206414e-06	5.297309e-09	5.002658e+01	3.482120e+02
1.400000e-06	7.280032e-06	5.310354e-09	5.053763e+01	3.490424e+02
1.410000e-06	7.350916e-06	5.321322e-09	5.102970e+01	3.498230e+02
1.420000e-06	7.419286e-06	5.330407e-09	5.150433e+01	3.505442e+02
1.430000e-06	7.485000e-06	5.339005e-09	5.196051e+01	3.512007e+02
1.440000e-06	7.547983e-06	5.349672e-09	5.239773e+01	3.517921e+02
1.450000e-06	7.608516e-06	5.361000e-09	5.281795e+01	3.523236e+02
1.460000e-06	7.666389e-06	5.371368e-09	5.321971e+01	3.528047e+02
1.470000e-06	7.721459e-06	5.382156e-09	5.360199e+01	3.532480e+02
1.480000e-06	7.773576e-06	5.391782e-09	5.396379e+01	3.536669e+02
1.490000e-06	7.822387e-06	5.399997e-09	5.430263e+01	3.540738e+02
1.500000e-06	7.868198e-06	5.407980e-09	5.462066e+01	3.544778e+02
1.510000e-06	7.911299e-06	5.416175e-09	5.491986e+01	3.548838e+02
1.520000e-06	7.951588e-06	5.422290e-09	5.519954e+01	3.552917e+02
1.530000e-06	7.989100e-06	5.426415e-09	5.545995e+01	3.556967e+02
1.540000e-06	8.023917e-06	5.431321e-09	5.570165e+01	3.560901e+02
1.550000e-06	8.055909e-06	5.437927e-09	5.592373e+01	3.564613e+02
1.560000e-06	8.085120e-06	5.444831e-09	5.612651e+01	3.567996e+02
1.570000e-06	8.111512e-06	5.450644e-09	5.630972e+01	3.570956e+02
1.580000e-06	8.134929e-06	5.457556e-09	5.647228e+01	3.573433e+02
1.590000e-06	8.155591e-06	5.463911e-09	5.661572e+01	3.575406e+02
1.600000e-06	8.173477e-06	5.467918e-09	5.673989e+01	3.576895e+02
1.610000e-06	8.188320e-06	5.469735e-09	5.684292e+01	3.577957e+02
1.620000e-06	8.200004e-06	5.471444e-09	5.692403e+01	3.578673e+02
1.630000e-06	8.208507e-06	5.473792e-09	5.698306e+01	3.579132e+02
1.640000e-06	8.214111e-06	5.475301e-09	5.702196e+01	3.579416e+02
1.650000e-06	8.216925e-06	5.477648e-09	5.704150e+01	3.579582e+02
1.660000e-06	8.216830e-06	5.479609e-09	5.704084e+01	3.579657e+02
1.670000e-06	8.214013e-06	5.477499e-09	5.702128e+01	3.579629e+02
1.680000e-06	8.208466e-06	5.475714e-09	5.698278e+01	3.579454e+02
1.690000e-06	8.200138e-06	5.475176e-09	5.692497e+01	3.579065e+02
1.700000e-06	8.189104e-06	5.474693e-09	5.684837e+01	3.578381e+02
1.710000e-06	8.175152e-06	5.474939e-09	5.675151e+01	3.577331e+02
1.720000e-06	8.158449e-06	5.478574e-09	5.663556e+01	3.575859e+02
1.730000e-06	8.139450e-06	5.476505e-09	5.650367e+01	3.573941e+02
1.740000e-06	8.117862e-06	5.416490e-09	5.635381e+01	3.571589e+02
1.750000e-06	8.092757e-06	5.393171e-09	5.617953e+01	3.568846e+02
1.760000e-06	8.063716e-06	5.406444e-09	5.597793e+01	3.565780e+02
1.770000e-06	8.031362e-06	5.424562e-09	5.575333e+01	3.562468e+02
1.780000e-06	7.996654e-06	5.441970e-09	5.551239e+01	3.558983e+02
1.790000e-06	7.959715e-06	5.485432e-09	5.525596e+01	3.555374e+02
1.800000e-06	7.920546e-06	5.425736e-09	5.498405e+01	3.551656e+02
1.810000e-06	7.879135e-06	5.401840e-09	5.469658e+01	3.547800e+02
1.820000e-06	7.834919e-06	5.458444e-09	5.438963e+01	3.543736e+02
1.830000e-06	7.787940e-06	5.387102e-09	5.406350e+01	3.539360e+02
1.840000e-06	7.738127e-06	5.415726e-09	5.371771e+01	3.534547e+02
1.850000e-06	7.685126e-06	5.384168e-09	5.334977e+01	3.529171e+02
1.860000e-06	7.629230e-06	5.367713e-09	5.296175e+01	3.523127e+02
1.870000e-06	7.570639e-06	5.383653e-09	5.255501e+01	3.516342e+02
1.880000e-06	7.509407e-06	5.332717e-09	5.212994e+01	3.508798e+02
1.890000e-06	7.445384e-06	5.375845e-09	5.168550e+01	3.500527e+02
1.900000e-06	7.378529e-06	5.307253e-09	5.122139e+01	3.491615e+02
1.910000e-06	7.308926e-06	5.280687e-09	5.073821e+01	3.482183e+02
1.920000e-06	7.236545e-06	5.315139e-09	5.023574e+01	3.472376e+02
1.930000e-06	7.161503e-06	5.296725e-09	4.971481e+01	3.462331e+02
1.940000e-06	7.083498e-06	5.270981e-09	4.917330e+01	3.452162e+02
1.950000e-06	7.002775e-06	5.224884e-09	4.861293e+01	3.441935e+02
1.960000e-06	6.919748e-06	5.255608e-09	4.803656e+01	3.431659e+02
1.970000e-06	6.834101e-06	5.211326e-09	4.744200e+01	3.421280e+02
1.980000e-06	6.745845e-06	5.190056e-09	4.682933e+01	3.410690e+02
1.990000e-06	6.655307e-06	5.198303e-09	4.620082e+01	3.399737e+02
2.000000e-06	6.562561e-06	5.169668e-09	4.555698e+01	3.388257e+02
2.010000e-06	6.467406e-06	5.141779e-09	4.489642e+01	3.376087e+02
2.020000e-06	6.369971e-06	5.119949e-09	4.422004e+01	3.363099e+02
2.030000e-06	6.270405e-06	5.123092e-09	4.352885e+01	3.349216e+02
2.040000e-06	6.168504e-06	5.078276e-09	4.282146e+01	3.334420e+02
2.050000e-06	6.064225e-06	5.050245e-09	4.209756e+01	3.318757e+02
2.060000e-06	5.957883e-06	5.041012e-09	4.135934e+01	3.302322e+02
2.070000e-06	5.849611e-06	5.019469e-09	4.060772e+01	3.285243e+02
2.080000e-06	5.739169e-06	4.971237e-09	3.984104e+01	3.267656e+02
2.090000e-06	5.626569e-06	4.946173e-09	3.905937e+01	3.249672e+02
2.100000e-06	5.511845e-06	4.935592e-09	3.826297e+01	3.231358e+02
2.110000e-06	5.394884e-06	4.897977e-09	3.745103e+01	3.212718e+02
2.120000e-06	5.275791e-06	4.859346e-09	3.662429e+01	3.193683e+02
2.130000e-06	5.154783e-06	4.835641e-09	3.578426e+01	3.174115e+02
2.140000e-06	5.032010e-06	4.810960e-09	3.493197e+01	3.153829e+02
2.150000e-06	4.907469e-06	4.769168e-09	3.406742e+01	3.132608e+02
2.160000e-06	4.781056e-06	4.737859e-09	3.318986e+01	3.110240e+02
2.170000e-06	4.652876e-06	4.708341e-09	3.230004e+01	3.086545e+02
2.180000e-06	4.523124e-06	4.666693e-09	3.139931e+01	3.061401e+02
2.190000e-06	4.391866e-06	4.618222e-09	3.048813e+01	3.034755e+02
2.200000e-06	4.259055e-06	4.584075e-09	2.956615e+01	3.006629e+02
2.210000e-06	4.124607e-06	4.544712e-09	2.863282e+01	2.977110e+02
2.220000e-06	3.988663e-06	4.491685e-09	2.768911e+01	2.946318e+02
2.230000e-06	3.851301e-06	4.443474e-09	2.673554e+01	2.914382e+02
2.240000e-06	3.712550e-06	4.400720e-09	2.577235e+01	2.881396e+02
2.250000e-06	3.572373e-06	4.346987e-09	2.479924e+01	2.847387e+02
2.260000e-06	3.430759e-06	4.286521e-09	2.381616e+01	2.812292e+02
2.270000e-06	3.287804e-06	4.234074e-09	2.282378e+01	2.775939e+02
2.280000e-06	3.143584e-06	4.179108e-09	2.182261e+01	2.738056e+02
2.290000e-06	2.998209e-06	4.114368e-09	2.081342e+01	2.698285e+02
2.300000e-06	2.851886e-06	4.048380e-09	1.979766e+01	2.656222e+02
2.310000e-06	2.704703e-06	3.986392e-09	1.877592e+01	2.611451e+02
2.320000e-06	2.556585e-06	3.914291e-09	1.774769e+01	2.563590e+02
2.330000e-06	2.407544e-06	3.832558e-09	1.671306e+01	2.512327e+02
2.340000e-06	2.257523e-06	3.751028e-09	1.567162e+01	2.457437e+02
2.350000e-06	2.106599e-06	3.667296e-09	1.462391e+01	2.398783e+02
2.360000e-06	1.954949e-06	3.573346e-09	1.357116e+01	2.336291e+02
2.370000e-06	1.802679e-06	3.471854e-09	1.251411e+01	2.269904e+02
2.380000e-06	1.649789e-06	3.368781e-09	1.145276e+01	2.199518e+02
2.390000e-06	1.496341e-06	3.256566e-09	1.038753e+01	2.124907e+02
2.400000e-06	1.342407e-06	3.133375e-09	9.318921e+00	2.045652e+02
2.410000e-06	1.187980e-06	3.005062e-09	8.246899e+00	1.961084e+02
2.420000e-06	1.033121e-06	2.870032e-09	7.171873e+00	1.870256e+02
2.430000e-06	8.779347e-07	2.716324e-09	6.094580e+00	1.771946e+02
2.440000e-06	7.224767e-07	2.544821e-09	5.015398e+00	1.664707e+02
2.450000e-06	5.668192e-07	2.361568e-09	3.934831e+00	1.546964e+02
2.460000e-06	4.109472e-07	2.163556e-09	2.852775e+00	1.417140e+02
2.470000e-06	2.548863e-07	1.946547e-09	1.769409e+00	1.273816e+02
2.480000e-06	9.880658e-08	1.709173e-09	6.859105e-01	1.115907e+02
2.490000e-06	-5.726371e-08	1.451631e-09	-3.975219e-01	9.428254e+01
2.500000e-06	-2.133352e-07	1.169354e-09	-1.480963e+00	7.546227e+01
2.510000e-06	-3.693537e-07	8.648092e-10	-2.564036e+00	5.520918e+01
2.520000e-06	-5.252709e-07	5.419834e-10	-3.646405e+00	3.368085e+01
2.530000e-06	-6.809728e-07	2.008499e-10	-4.727280e+00	1.111092e+01
2.540000e-06	-8.363818e-07	-1.569734e-10	-5.806122e+00	-1.219993e+01
2.550000e-06	-9.914959e-07	-5.244892e-10	-6.882917e+00	-3.589921e+01
2.560000e-06	-1.146260e-06	-8.933171e-10	-7.957284e+00	-5.960286e+01
2.570000e-06	-1.300613e-06	-1.257268e-09	-9.028793e+00	-8.291868e+01
2.580000e-06	-1.454481e-06	-1.607828e-09	-1.009694e+01	-1.054708e+02
2.590000e-06	-1.607868e-06	-1.936567e-09	-1.116174e+01	-1.269229e+02
2.600000e-06	-1.760704e-06	-2.241646e-09	-1.222272e+01	-1.469980e+02
2.610000e-06	-1.912854e-06	-2.522622e-09	-1.327894e+01	-1.654928e+02
2.620000e-06	-2.064335e-06	-2.774761e-09	-1.433052e+01	-1.822861e+02
2.630000e-06	-2.215135e-06	-2.999670e-09	-1.537736e+01	-1.973399e+02
2.640000e-06	-2.365102e-06	-3.202900e-09	-1.641843e+01	-2.106932e+02
2.650000e-06	-2.514112e-06	-3.384269e-09	-1.745284e+01	-2.224514e+02
2.660000e-06	-2.662183e-06	-3.542449e-09	-1.848074e+01	-2.327698e+02
2.670000e-06	-2.809344e-06	-3.681840e-09	-1.950233e+01	-2.418353e+02
2.680000e-06	-2.955577e-06	-3.809355e-09	-2.051747e+01	-2.498481e+02
2.690000e-06	-3.100832e-06	-3.924657e-09	-2.152582e+01	-2.570038e+02
2.700000e-06	-3.244966e-06	-4.027012e-09	-2.252640e+01	-2.634790e+02
2.710000e-06	-3.387882e-06	-4.119272e-09	-2.351851e+01	-2.694217e+02
2.720000e-06	-3.529386e-06	-4.203991e-09	-2.450083e+01	-2.749450e+02
2.730000e-06	-3.669451e-06	-4.282504e-09	-2.547315e+01	-2.801269e+02
2.740000e-06	-3.808173e-06	-4.356826e-09	-2.643615e+01	-2.850132e+02
2.750000e-06	-3.945523e-06	-4.426161e-09	-2.738963e+01	-2.896242e+02
2.760000e-06	-4.081454e-06	-4.487514e-09	-2.833326e+01	-2.939626e+02
2.770000e-06	-4.215898e-06	-4.544940e-09	-2.926656e+01	-2.980223e+02
2.780000e-06	-4.348795e-06	-4.602253e-09	-3.018913e+01	-3.017961e+02
2.790000e-06	-4.480088e-06	-4.657685e-09	-3.110055e+01	-3.052822e+02
2.800000e-06	-4.609884e-06	-4.708552e-09	-3.200160e+01	-3.084879e+02
2.810000e-06	-4.738175e-06	-4.756289e-09	-3.289218e+01	-3.114306e+02
2.820000e-06	-4.864782e-06	-4.801993e-09	-3.377108e+01	-3.141371e+02
2.830000e-06	-4.989641e-06	-4.846008e-09	-3.463785e+01	-3.166405e+02
2.840000e-06	-5.112779e-06	-4.886328e-09	-3.549266e+01	-3.189765e+02
2.850000e-06	-5.234162e-06	-4.922307e-09	-3.633530e+01	-3.211786e+02
2.860000e-06	-5.353595e-06	-4.953506e-09	-3.716440e+01	-3.232750e+02
2.870000e-06	-5.470799e-06	-4.982897e-09	-3.797802e+01	-3.252856e+02
2.880000e-06	-5.585742e-06	-5.012221e-09	-3.877595e+01	-3.272213e+02
2.890000e-06	-5.698445e-06	-5.039577e-09	-3.955833e+01	-3.290837e+02
2.900000e-06	-5.808933e-06	-5.064750e-09	-4.032534e+01	-3.308677e+02
2.910000e-06	-5.917432e-06	-5.087433e-09	-4.107853e+01	-3.325641e+02
2.920000e-06	-6.024011e-06	-5.111507e-09	-4.181840e+01	-3.341627e+02
2.930000e-06	-6.128530e-06	-5.135999e-09	-4.254396e+01	-3.356555e+02
2.940000e-06	-6.230787e-06	-5.158589e-09	-4.325382e+01	-3.370391e+02
