# Temperatura_=_20.0
# Concentracion g/m^3_=_9000.0
# C_Vs_to_Am_M_A/Vsm_=_65563218390.804596
# pendiente_HvsI_1/m_=_3716.3
# ordenada_HvsI_A/m_=_1297.0
# frecuencia_Hz_=_301303.48366207257

Tiempo_(s)	Campo_(V.s)	Magnetizacion_(V.s)	Campo_(kA/m)	Magnetizacion_(A/m)
0.000000e+00	-8.173064e-06	-5.549739e-09	-5.697348e+01	-3.627863e+02
1.000000e-08	-8.171003e-06	-5.548918e-09	-5.695911e+01	-3.628249e+02
2.000000e-08	-8.166243e-06	-5.549843e-09	-5.692594e+01	-3.628429e+02
3.000000e-08	-8.158919e-06	-5.547464e-09	-5.687488e+01	-3.628280e+02
4.000000e-08	-8.148749e-06	-5.543482e-09	-5.680398e+01	-3.627679e+02
5.000000e-08	-8.135610e-06	-5.541155e-09	-5.671239e+01	-3.626529e+02
6.000000e-08	-8.119483e-06	-5.537218e-09	-5.659997e+01	-3.624773e+02
7.000000e-08	-8.100734e-06	-5.527939e-09	-5.646928e+01	-3.622412e+02
8.000000e-08	-8.079617e-06	-5.502249e-09	-5.632208e+01	-3.619509e+02
9.000000e-08	-8.055593e-06	-5.513373e-09	-5.615461e+01	-3.616176e+02
1.000000e-07	-8.028352e-06	-5.560058e-09	-5.596471e+01	-3.612565e+02
1.100000e-07	-7.998068e-06	-5.553387e-09	-5.575360e+01	-3.608839e+02
1.200000e-07	-7.964831e-06	-5.522844e-09	-5.552191e+01	-3.605147e+02
1.300000e-07	-7.928787e-06	-5.523939e-09	-5.527065e+01	-3.601596e+02
1.400000e-07	-7.890417e-06	-5.504188e-09	-5.500319e+01	-3.598233e+02
1.500000e-07	-7.849813e-06	-5.426855e-09	-5.472014e+01	-3.595029e+02
1.600000e-07	-7.806551e-06	-5.483404e-09	-5.441856e+01	-3.591881e+02
1.700000e-07	-7.760458e-06	-5.530165e-09	-5.409725e+01	-3.588622e+02
1.800000e-07	-7.711562e-06	-5.411946e-09	-5.375641e+01	-3.585040e+02
1.900000e-07	-7.659576e-06	-5.462753e-09	-5.339401e+01	-3.580911e+02
2.000000e-07	-7.604572e-06	-5.498801e-09	-5.301059e+01	-3.576026e+02
2.100000e-07	-7.546861e-06	-5.437410e-09	-5.260829e+01	-3.570223e+02
2.200000e-07	-7.486495e-06	-5.415916e-09	-5.218749e+01	-3.563410e+02
2.300000e-07	-7.423523e-06	-5.426394e-09	-5.174851e+01	-3.555575e+02
2.400000e-07	-7.357767e-06	-5.439042e-09	-5.129014e+01	-3.546790e+02
2.500000e-07	-7.289205e-06	-5.364055e-09	-5.081220e+01	-3.537193e+02
2.600000e-07	-7.217947e-06	-5.392416e-09	-5.031547e+01	-3.526972e+02
2.700000e-07	-7.143881e-06	-5.394190e-09	-4.979917e+01	-3.516326e+02
2.800000e-07	-7.067012e-06	-5.333084e-09	-4.926332e+01	-3.505440e+02
2.900000e-07	-6.987418e-06	-5.319496e-09	-4.870848e+01	-3.494451e+02
3.000000e-07	-6.905337e-06	-5.331828e-09	-4.813630e+01	-3.483427e+02
3.100000e-07	-6.820943e-06	-5.328790e-09	-4.754800e+01	-3.472353e+02
3.200000e-07	-6.734206e-06	-5.252804e-09	-4.694337e+01	-3.461137e+02
3.300000e-07	-6.645142e-06	-5.259055e-09	-4.632251e+01	-3.449626e+02
3.400000e-07	-6.553688e-06	-5.260024e-09	-4.568500e+01	-3.437624e+02
3.500000e-07	-6.459890e-06	-5.204698e-09	-4.503114e+01	-3.424929e+02
3.600000e-07	-6.363779e-06	-5.173630e-09	-4.436116e+01	-3.411366e+02
3.700000e-07	-6.265352e-06	-5.182347e-09	-4.367504e+01	-3.396810e+02
3.800000e-07	-6.164670e-06	-5.156311e-09	-4.297320e+01	-3.381210e+02
3.900000e-07	-6.061768e-06	-5.094477e-09	-4.225588e+01	-3.364594e+02
4.000000e-07	-5.956663e-06	-5.096168e-09	-4.152321e+01	-3.347064e+02
4.100000e-07	-5.849460e-06	-5.084097e-09	-4.077591e+01	-3.328771e+02
4.200000e-07	-5.740223e-06	-5.032908e-09	-4.001443e+01	-3.309895e+02
4.300000e-07	-5.628917e-06	-4.998570e-09	-3.923853e+01	-3.290603e+02
4.400000e-07	-5.515399e-06	-4.997526e-09	-3.844721e+01	-3.271022e+02
4.500000e-07	-5.399619e-06	-4.958983e-09	-3.764012e+01	-3.251209e+02
4.600000e-07	-5.281821e-06	-4.909098e-09	-3.681896e+01	-3.231137e+02
4.700000e-07	-5.162193e-06	-4.889559e-09	-3.598505e+01	-3.210692e+02
4.800000e-07	-5.040689e-06	-4.862010e-09	-3.513806e+01	-3.189687e+02
4.900000e-07	-4.917303e-06	-4.807228e-09	-3.427795e+01	-3.167885e+02
5.000000e-07	-4.792159e-06	-4.766329e-09	-3.340558e+01	-3.145032e+02
5.100000e-07	-4.665336e-06	-4.747873e-09	-3.252151e+01	-3.120894e+02
5.200000e-07	-4.536803e-06	-4.703680e-09	-3.162553e+01	-3.095291e+02
5.300000e-07	-4.406550e-06	-4.649086e-09	-3.071755e+01	-3.068116e+02
5.400000e-07	-4.274717e-06	-4.610945e-09	-2.979855e+01	-3.039352e+02
5.500000e-07	-4.141409e-06	-4.579240e-09	-2.886928e+01	-3.009058e+02
5.600000e-07	-4.006663e-06	-4.523814e-09	-2.792998e+01	-2.977357e+02
5.700000e-07	-3.870443e-06	-4.470430e-09	-2.698041e+01	-2.944396e+02
5.800000e-07	-3.732692e-06	-4.426564e-09	-2.602017e+01	-2.910311e+02
5.900000e-07	-3.593459e-06	-4.376802e-09	-2.504958e+01	-2.875180e+02
6.000000e-07	-3.452803e-06	-4.317960e-09	-2.406909e+01	-2.838997e+02
6.100000e-07	-3.310790e-06	-4.260186e-09	-2.307913e+01	-2.801644e+02
6.200000e-07	-3.167479e-06	-4.200885e-09	-2.208013e+01	-2.762890e+02
6.300000e-07	-3.022918e-06	-4.128873e-09	-2.107241e+01	-2.722405e+02
6.400000e-07	-2.877245e-06	-4.058822e-09	-2.005694e+01	-2.679788e+02
6.500000e-07	-2.730546e-06	-3.988943e-09	-1.903432e+01	-2.634611e+02
6.600000e-07	-2.583019e-06	-3.913850e-09	-1.800592e+01	-2.586462e+02
6.700000e-07	-2.434845e-06	-3.829777e-09	-1.697302e+01	-2.534990e+02
6.800000e-07	-2.285821e-06	-3.749130e-09	-1.593420e+01	-2.479929e+02
6.900000e-07	-2.135895e-06	-3.667687e-09	-1.488908e+01	-2.421109e+02
7.000000e-07	-1.985233e-06	-3.573021e-09	-1.383883e+01	-2.358435e+02
7.100000e-07	-1.833908e-06	-3.470497e-09	-1.278396e+01	-2.291848e+02
7.200000e-07	-1.681950e-06	-3.367622e-09	-1.172468e+01	-2.221264e+02
7.300000e-07	-1.529390e-06	-3.257823e-09	-1.066120e+01	-2.146493e+02
7.400000e-07	-1.376226e-06	-3.132519e-09	-9.593514e+00	-2.067165e+02
7.500000e-07	-1.222489e-06	-3.001564e-09	-8.521831e+00	-1.982668e+02
7.600000e-07	-1.068280e-06	-2.861726e-09	-7.446857e+00	-1.892103e+02
7.700000e-07	-9.136203e-07	-2.706594e-09	-6.368741e+00	-1.794283e+02
7.800000e-07	-7.585831e-07	-2.535254e-09	-5.287995e+00	-1.687770e+02
7.900000e-07	-6.032923e-07	-2.354979e-09	-4.205481e+00	-1.570967e+02
8.000000e-07	-4.478093e-07	-2.160174e-09	-3.121627e+00	-1.442243e+02
8.100000e-07	-2.921907e-07	-1.942855e-09	-2.036828e+00	-1.300092e+02
8.200000e-07	-1.364553e-07	-1.706566e-09	-9.512143e-01	-1.143313e+02
8.300000e-07	1.935657e-08	-1.450356e-09	1.349324e-01	-9.711895e+01
8.400000e-07	1.751487e-07	-1.168882e-09	1.220941e+00	-7.836384e+01
8.500000e-07	3.308937e-07	-8.602883e-10	2.306621e+00	-5.813273e+01
8.600000e-07	4.865061e-07	-5.342773e-10	3.391377e+00	-3.657297e+01
8.700000e-07	6.419338e-07	-1.925393e-10	4.474846e+00	-1.391131e+01
8.800000e-07	7.971782e-07	1.665906e-10	5.557037e+00	9.554299e+00
8.900000e-07	9.521381e-07	5.372363e-10	6.637244e+00	3.346958e+01
9.000000e-07	1.106672e-06	9.084254e-10	7.714482e+00	5.744434e+01
9.100000e-07	1.260692e-06	1.273251e-09	8.788141e+00	8.107644e+01
9.200000e-07	1.414122e-06	1.625778e-09	9.857681e+00	1.039773e+02
9.300000e-07	1.566955e-06	1.956912e-09	1.092306e+01	1.257961e+02
9.400000e-07	1.719231e-06	2.263856e-09	1.198456e+01	1.462412e+02
9.500000e-07	1.870919e-06	2.545667e-09	1.304196e+01	1.650957e+02
9.600000e-07	2.021935e-06	2.800186e-09	1.409468e+01	1.822269e+02
9.700000e-07	2.172228e-06	3.027331e-09	1.514235e+01	1.975878e+02
9.800000e-07	2.321752e-06	3.230326e-09	1.618466e+01	2.112124e+02
9.900000e-07	2.470424e-06	3.410277e-09	1.722104e+01	2.232040e+02
1.000000e-06	2.618314e-06	3.568279e-09	1.825197e+01	2.337190e+02
1.010000e-06	2.765369e-06	3.708234e-09	1.927707e+01	2.429482e+02
1.020000e-06	2.911314e-06	3.834384e-09	2.029443e+01	2.510970e+02
1.030000e-06	3.056178e-06	3.948745e-09	2.130427e+01	2.583673e+02
1.040000e-06	3.199980e-06	4.050854e-09	2.230669e+01	2.649424e+02
1.050000e-06	3.342633e-06	4.145222e-09	2.330110e+01	2.709757e+02
1.060000e-06	3.484103e-06	4.230519e-09	2.428728e+01	2.765852e+02
1.070000e-06	3.624239e-06	4.308191e-09	2.526415e+01	2.818524e+02
1.080000e-06	3.762907e-06	4.381306e-09	2.623079e+01	2.868251e+02
1.090000e-06	3.900071e-06	4.452223e-09	2.718694e+01	2.915245e+02
1.100000e-06	4.035757e-06	4.517582e-09	2.813279e+01	2.959533e+02
1.110000e-06	4.169929e-06	4.575734e-09	2.906809e+01	3.001047e+02
1.120000e-06	4.302676e-06	4.630506e-09	2.999346e+01	3.039709e+02
1.130000e-06	4.433984e-06	4.681698e-09	3.090879e+01	3.075494e+02
1.140000e-06	4.563641e-06	4.728766e-09	3.181261e+01	3.108470e+02
1.150000e-06	4.691647e-06	4.772167e-09	3.270493e+01	3.138809e+02
1.160000e-06	4.818030e-06	4.815067e-09	3.358593e+01	3.166782e+02
1.170000e-06	4.942777e-06	4.856438e-09	3.445553e+01	3.192724e+02
1.180000e-06	5.065815e-06	4.894923e-09	3.531321e+01	3.216994e+02
1.190000e-06	5.187013e-06	4.930395e-09	3.615807e+01	3.239931e+02
1.200000e-06	5.306378e-06	4.963824e-09	3.699015e+01	3.261816e+02
1.210000e-06	5.423772e-06	4.993943e-09	3.780849e+01	3.282845e+02
1.220000e-06	5.538950e-06	5.021557e-09	3.861138e+01	3.303118e+02
1.230000e-06	5.651957e-06	5.047331e-09	3.939913e+01	3.322645e+02
1.240000e-06	5.762940e-06	5.071702e-09	4.017279e+01	3.341367e+02
1.250000e-06	5.871940e-06	5.096265e-09	4.093261e+01	3.359181e+02
1.260000e-06	5.978931e-06	5.119793e-09	4.167843e+01	3.375978e+02
1.270000e-06	6.083792e-06	5.143080e-09	4.240941e+01	3.391676e+02
1.280000e-06	6.186451e-06	5.165084e-09	4.312503e+01	3.406240e+02
1.290000e-06	6.286921e-06	5.184593e-09	4.382539e+01	3.419702e+02
1.300000e-06	6.385039e-06	5.204934e-09	4.450937e+01	3.432156e+02
1.310000e-06	6.480683e-06	5.224345e-09	4.517609e+01	3.443749e+02
1.320000e-06	6.574073e-06	5.242027e-09	4.582710e+01	3.454663e+02
1.330000e-06	6.665235e-06	5.256951e-09	4.646258e+01	3.465084e+02
1.340000e-06	6.754025e-06	5.271276e-09	4.708152e+01	3.475177e+02
1.350000e-06	6.840435e-06	5.287110e-09	4.768388e+01	3.485064e+02
1.360000e-06	6.924556e-06	5.303182e-09	4.827028e+01	3.494809e+02
1.370000e-06	7.006247e-06	5.319478e-09	4.883974e+01	3.504413e+02
1.380000e-06	7.085341e-06	5.332789e-09	4.939109e+01	3.513820e+02
1.390000e-06	7.161910e-06	5.345097e-09	4.992484e+01	3.522937e+02
1.400000e-06	7.235786e-06	5.358626e-09	5.043982e+01	3.531648e+02
1.410000e-06	7.306879e-06	5.371849e-09	5.093541e+01	3.539847e+02
1.420000e-06	7.375400e-06	5.381665e-09	5.141306e+01	3.547452e+02
1.430000e-06	7.441310e-06	5.388314e-09	5.187251e+01	3.554428e+02
1.440000e-06	7.504543e-06	5.397471e-09	5.231330e+01	3.560791e+02
1.450000e-06	7.565261e-06	5.409183e-09	5.273656e+01	3.566605e+02
1.460000e-06	7.623371e-06	5.421346e-09	5.314163e+01	3.571975e+02
1.470000e-06	7.678765e-06	5.432343e-09	5.352778e+01	3.577025e+02
1.480000e-06	7.731250e-06	5.441820e-09	5.389365e+01	3.581879e+02
1.490000e-06	7.780521e-06	5.450340e-09	5.423711e+01	3.586639e+02
1.500000e-06	7.826794e-06	5.458178e-09	5.455967e+01	3.591367e+02
1.510000e-06	7.870314e-06	5.466085e-09	5.486305e+01	3.596078e+02
1.520000e-06	7.911019e-06	5.472250e-09	5.514679e+01	3.600733e+02
1.530000e-06	7.948971e-06	5.476266e-09	5.541135e+01	3.605253e+02
1.540000e-06	7.984203e-06	5.480172e-09	5.565695e+01	3.609531e+02
1.550000e-06	8.016588e-06	5.486516e-09	5.588271e+01	3.613451e+02
1.560000e-06	8.046183e-06	5.494160e-09	5.608900e+01	3.616911e+02
1.570000e-06	8.072990e-06	5.500344e-09	5.627588e+01	3.619842e+02
1.580000e-06	8.096850e-06	5.505415e-09	5.644220e+01	3.622217e+02
1.590000e-06	8.117892e-06	5.510006e-09	5.658888e+01	3.624060e+02
1.600000e-06	8.136187e-06	5.514051e-09	5.671642e+01	3.625440e+02
1.610000e-06	8.151540e-06	5.516156e-09	5.682344e+01	3.626456e+02
1.620000e-06	8.163852e-06	5.516439e-09	5.690926e+01	3.627222e+02
1.630000e-06	8.172957e-06	5.516417e-09	5.697273e+01	3.627846e+02
1.640000e-06	8.179043e-06	5.517372e-09	5.701516e+01	3.628405e+02
1.650000e-06	8.182376e-06	5.518831e-09	5.703840e+01	3.628935e+02
1.660000e-06	8.182822e-06	5.520716e-09	5.704150e+01	3.629423e+02
1.670000e-06	8.180513e-06	5.522209e-09	5.702540e+01	3.629803e+02
1.680000e-06	8.175580e-06	5.521662e-09	5.699102e+01	3.629974e+02
1.690000e-06	8.167900e-06	5.523821e-09	5.693748e+01	3.629811e+02
1.700000e-06	8.157512e-06	5.525336e-09	5.686507e+01	3.629193e+02
1.710000e-06	8.144301e-06	5.522174e-09	5.677298e+01	3.628021e+02
1.720000e-06	8.128235e-06	5.521772e-09	5.666098e+01	3.626243e+02
1.730000e-06	8.109726e-06	5.534545e-09	5.653196e+01	3.623863e+02
1.740000e-06	8.088753e-06	5.547320e-09	5.638576e+01	3.620942e+02
1.750000e-06	8.064507e-06	5.479458e-09	5.621674e+01	3.617597e+02
1.760000e-06	8.036402e-06	5.453761e-09	5.602083e+01	3.613979e+02
1.770000e-06	8.004789e-06	5.474450e-09	5.580045e+01	3.610252e+02
1.780000e-06	7.970625e-06	5.454968e-09	5.556230e+01	3.606563e+02
1.790000e-06	7.934326e-06	5.465120e-09	5.530927e+01	3.603019e+02
1.800000e-06	7.895741e-06	5.556745e-09	5.504030e+01	3.599663e+02
1.810000e-06	7.854904e-06	5.477714e-09	5.475562e+01	3.596463e+02
1.820000e-06	7.811466e-06	5.450016e-09	5.445282e+01	3.593315e+02
1.830000e-06	7.765268e-06	5.535004e-09	5.413078e+01	3.590048e+02
1.840000e-06	7.716300e-06	5.434049e-09	5.378943e+01	3.586451e+02
1.850000e-06	7.664265e-06	5.469799e-09	5.342670e+01	3.582298e+02
1.860000e-06	7.609227e-06	5.459713e-09	5.304304e+01	3.577383e+02
1.870000e-06	7.551362e-06	5.437434e-09	5.263967e+01	3.571546e+02
1.880000e-06	7.490957e-06	5.426240e-09	5.221859e+01	3.564696e+02
1.890000e-06	7.427893e-06	5.378806e-09	5.177898e+01	3.556826e+02
1.900000e-06	7.361882e-06	5.466085e-09	5.131883e+01	3.548009e+02
1.910000e-06	7.293004e-06	5.364171e-09	5.083869e+01	3.538387e+02
1.920000e-06	7.221325e-06	5.340485e-09	5.033902e+01	3.528147e+02
1.930000e-06	7.147118e-06	5.395168e-09	4.982173e+01	3.517490e+02
1.940000e-06	7.070097e-06	5.364462e-09	4.928483e+01	3.506599e+02
1.950000e-06	6.990234e-06	5.339288e-09	4.872811e+01	3.495608e+02
1.960000e-06	6.908005e-06	5.270380e-09	4.815490e+01	3.484582e+02
1.970000e-06	6.823294e-06	5.329207e-09	4.756439e+01	3.473505e+02
1.980000e-06	6.735984e-06	5.268416e-09	4.695576e+01	3.462283e+02
1.990000e-06	6.646264e-06	5.251128e-09	4.633033e+01	3.450758e+02
2.000000e-06	6.554397e-06	5.271109e-09	4.568994e+01	3.438734e+02
2.010000e-06	6.460218e-06	5.229261e-09	4.503343e+01	3.426012e+02
2.020000e-06	6.363665e-06	5.197224e-09	4.436037e+01	3.412415e+02
2.030000e-06	6.264930e-06	5.173581e-09	4.367210e+01	3.397822e+02
2.040000e-06	6.163906e-06	5.203224e-09	4.296787e+01	3.382185e+02
2.050000e-06	6.060533e-06	5.130797e-09	4.224727e+01	3.365535e+02
2.060000e-06	5.955050e-06	5.104111e-09	4.151196e+01	3.347975e+02
2.070000e-06	5.847648e-06	5.095164e-09	4.076328e+01	3.329659e+02
2.080000e-06	5.738129e-06	5.073281e-09	3.999983e+01	3.310765e+02
2.090000e-06	5.626416e-06	5.020113e-09	3.922109e+01	3.291461e+02
2.100000e-06	5.512600e-06	4.998047e-09	3.842769e+01	3.271871e+02
2.110000e-06	5.396662e-06	4.987949e-09	3.761950e+01	3.252050e+02
2.120000e-06	5.278524e-06	4.933415e-09	3.679598e+01	3.231967e+02
2.130000e-06	5.158301e-06	4.901947e-09	3.595792e+01	3.211506e+02
2.140000e-06	5.036283e-06	4.884962e-09	3.510734e+01	3.190477e+02
2.150000e-06	4.912575e-06	4.860975e-09	3.424499e+01	3.168642e+02
2.160000e-06	4.787104e-06	4.804033e-09	3.337034e+01	3.145747e+02
2.170000e-06	4.659842e-06	4.773333e-09	3.248322e+01	3.121561e+02
2.180000e-06	4.530909e-06	4.740707e-09	3.158444e+01	3.095903e+02
2.190000e-06	4.400400e-06	4.694772e-09	3.067468e+01	3.068671e+02
2.200000e-06	4.268422e-06	4.642543e-09	2.975467e+01	3.039851e+02
2.210000e-06	4.134916e-06	4.608474e-09	2.882402e+01	3.009505e+02
2.220000e-06	3.999851e-06	4.564835e-09	2.788250e+01	2.977756e+02
2.230000e-06	3.863277e-06	4.509460e-09	2.693045e+01	2.944753e+02
2.240000e-06	3.725333e-06	4.463306e-09	2.596886e+01	2.910630e+02
2.250000e-06	3.586093e-06	4.415229e-09	2.499824e+01	2.875462e+02
2.260000e-06	3.445474e-06	4.351743e-09	2.401800e+01	2.839240e+02
2.270000e-06	3.303498e-06	4.285159e-09	2.302830e+01	2.801842e+02
2.280000e-06	3.160176e-06	4.232555e-09	2.202922e+01	2.763033e+02
2.290000e-06	3.015611e-06	4.174884e-09	2.102147e+01	2.722479e+02
2.300000e-06	2.870036e-06	4.105085e-09	2.000669e+01	2.679779e+02
2.310000e-06	2.723537e-06	4.032894e-09	1.898546e+01	2.634502e+02
2.320000e-06	2.576091e-06	3.966664e-09	1.795763e+01	2.586241e+02
2.330000e-06	2.427753e-06	3.890670e-09	1.692358e+01	2.534645e+02
2.340000e-06	2.278593e-06	3.805193e-09	1.588381e+01	2.479452e+02
2.350000e-06	2.128576e-06	3.717870e-09	1.483805e+01	2.420496e+02
2.360000e-06	1.977713e-06	3.625560e-09	1.378641e+01	2.357683e+02
2.370000e-06	1.826171e-06	3.521709e-09	1.273003e+01	2.290956e+02
2.380000e-06	1.673982e-06	3.415261e-09	1.166913e+01	2.220226e+02
2.390000e-06	1.521244e-06	3.306407e-09	1.060442e+01	2.145300e+02
2.400000e-06	1.368042e-06	3.184914e-09	9.536461e+00	2.065801e+02
2.410000e-06	1.214282e-06	3.050742e-09	8.464622e+00	1.981104e+02
2.420000e-06	1.060071e-06	2.913616e-09	7.389629e+00	1.890302e+02
2.430000e-06	9.055757e-07	2.768417e-09	6.312663e+00	1.792197e+02
2.440000e-06	7.507847e-07	2.600664e-09	5.233633e+00	1.685346e+02
2.450000e-06	5.956983e-07	2.414821e-09	4.152544e+00	1.568146e+02
2.460000e-06	4.404172e-07	2.215321e-09	3.070097e+00	1.438966e+02
2.470000e-06	2.850206e-07	1.999097e-09	1.986846e+00	1.296311e+02
2.480000e-06	1.295239e-07	1.761278e-09	9.028961e-01	1.138994e+02
2.490000e-06	-2.600836e-08	1.502482e-09	-1.813013e-01	9.663166e+01
2.500000e-06	-1.815346e-07	1.221957e-09	-1.265457e+00	7.782223e+01
2.510000e-06	-3.370099e-07	9.155114e-10	-2.349257e+00	5.754068e+01
2.520000e-06	-4.923467e-07	5.893175e-10	-3.432092e+00	3.593722e+01
2.530000e-06	-6.475642e-07	2.470713e-10	-4.514095e+00	1.324135e+01
2.540000e-06	-8.025585e-07	-1.118864e-10	-5.594542e+00	-1.024667e+01
2.550000e-06	-9.572299e-07	-4.830123e-10	-6.672739e+00	-3.417092e+01
2.560000e-06	-1.111525e-06	-8.560805e-10	-7.748311e+00	-5.814034e+01
2.570000e-06	-1.265382e-06	-1.223957e-09	-8.820828e+00	-8.175284e+01
2.580000e-06	-1.418771e-06	-1.581035e-09	-9.890088e+00	-1.046207e+02
2.590000e-06	-1.571673e-06	-1.917854e-09	-1.095595e+01	-1.263951e+02
2.600000e-06	-1.724108e-06	-2.226996e-09	-1.201856e+01	-1.467866e+02
2.610000e-06	-1.875948e-06	-2.510657e-09	-1.307701e+01	-1.655813e+02
2.620000e-06	-2.026949e-06	-2.768988e-09	-1.412962e+01	-1.826496e+02
2.630000e-06	-2.177039e-06	-2.997701e-09	-1.517589e+01	-1.979474e+02
2.640000e-06	-2.326384e-06	-3.200304e-09	-1.621695e+01	-2.115116e+02
2.650000e-06	-2.474993e-06	-3.383256e-09	-1.725289e+01	-2.234474e+02
2.660000e-06	-2.622732e-06	-3.547761e-09	-1.828276e+01	-2.339131e+02
2.670000e-06	-2.769547e-06	-3.691944e-09	-1.930619e+01	-2.431001e+02
2.680000e-06	-2.915386e-06	-3.820757e-09	-2.032281e+01	-2.512141e+02
2.690000e-06	-3.060179e-06	-3.938944e-09	-2.133215e+01	-2.584566e+02
2.700000e-06	-3.203843e-06	-4.044292e-09	-2.233362e+01	-2.650098e+02
2.710000e-06	-3.346218e-06	-4.137564e-09	-2.332609e+01	-2.710261e+02
2.720000e-06	-3.487281e-06	-4.222440e-09	-2.430943e+01	-2.766222e+02
2.730000e-06	-3.627099e-06	-4.300535e-09	-2.528408e+01	-2.818782e+02
2.740000e-06	-3.765588e-06	-4.374255e-09	-2.624948e+01	-2.868409e+02
2.750000e-06	-3.902735e-06	-4.445360e-09	-2.720551e+01	-2.915307e+02
2.760000e-06	-4.038430e-06	-4.511825e-09	-2.815143e+01	-2.959497e+02
2.770000e-06	-4.172536e-06	-4.573815e-09	-2.908626e+01	-3.000910e+02
2.780000e-06	-4.305146e-06	-4.633299e-09	-3.001068e+01	-3.039469e+02
2.790000e-06	-4.436275e-06	-4.691619e-09	-3.092476e+01	-3.075152e+02
2.800000e-06	-4.565897e-06	-4.745912e-09	-3.182834e+01	-3.108029e+02
2.810000e-06	-4.693957e-06	-4.793405e-09	-3.272103e+01	-3.138279e+02
2.820000e-06	-4.820270e-06	-4.836067e-09	-3.360154e+01	-3.166173e+02
2.830000e-06	-4.944883e-06	-4.879471e-09	-3.447020e+01	-3.192049e+02
2.840000e-06	-5.067853e-06	-4.921977e-09	-3.532742e+01	-3.216266e+02
2.850000e-06	-5.188999e-06	-4.960228e-09	-3.617191e+01	-3.239160e+02
2.860000e-06	-5.308134e-06	-4.996539e-09	-3.700239e+01	-3.261011e+02
2.870000e-06	-5.425172e-06	-5.030027e-09	-3.781825e+01	-3.282012e+02
2.880000e-06	-5.540027e-06	-5.060603e-09	-3.861889e+01	-3.302259e+02
2.890000e-06	-5.652657e-06	-5.090395e-09	-3.940401e+01	-3.321759e+02
2.900000e-06	-5.763179e-06	-5.119897e-09	-4.017445e+01	-3.340449e+02
2.910000e-06	-5.871720e-06	-5.146659e-09	-4.093108e+01	-3.358228e+02
2.920000e-06	-5.978292e-06	-5.171065e-09	-4.167398e+01	-3.374987e+02
2.930000e-06	-6.082795e-06	-5.195771e-09	-4.240246e+01	-3.390645e+02
2.940000e-06	-6.185062e-06	-5.220182e-09	-4.311535e+01	-3.405169e+02
