# Temperatura_=_20.0
# Concentracion g/m^3_=_9000.0
# C_Vs_to_Am_M_A/Vsm_=_65563218390.804596
# pendiente_HvsI_1/m_=_3716.3
# ordenada_HvsI_A/m_=_1297.0
# frecuencia_Hz_=_301299.84284193197

Tiempo_(s)	Campo_(V.s)	Magnetizacion_(V.s)	Campo_(kA/m)	Magnetizacion_(A/m)
0.000000e+00	-8.214148e-06	-5.408017e-09	-5.697468e+01	-3.554428e+02
1.000000e-08	-8.212010e-06	-5.406614e-09	-5.695985e+01	-3.554725e+02
2.000000e-08	-8.207137e-06	-5.409342e-09	-5.692605e+01	-3.554961e+02
3.000000e-08	-8.199687e-06	-5.408583e-09	-5.687437e+01	-3.555036e+02
4.000000e-08	-8.189407e-06	-5.407000e-09	-5.680307e+01	-3.554826e+02
5.000000e-08	-8.176116e-06	-5.405308e-09	-5.671088e+01	-3.554204e+02
6.000000e-08	-8.159966e-06	-5.405752e-09	-5.659886e+01	-3.553061e+02
7.000000e-08	-8.141300e-06	-5.407887e-09	-5.646939e+01	-3.551322e+02
8.000000e-08	-8.120188e-06	-5.397115e-09	-5.632295e+01	-3.548963e+02
9.000000e-08	-8.096129e-06	-5.387330e-09	-5.615607e+01	-3.546007e+02
1.000000e-07	-8.068784e-06	-5.429753e-09	-5.596641e+01	-3.542523e+02
1.100000e-07	-8.038355e-06	-5.436961e-09	-5.575535e+01	-3.538613e+02
1.200000e-07	-8.005006e-06	-5.403582e-09	-5.552403e+01	-3.534390e+02
1.300000e-07	-7.968863e-06	-5.381152e-09	-5.527334e+01	-3.529959e+02
1.400000e-07	-7.930384e-06	-5.367983e-09	-5.500645e+01	-3.525398e+02
1.500000e-07	-7.889659e-06	-5.330759e-09	-5.472397e+01	-3.520739e+02
1.600000e-07	-7.846231e-06	-5.341260e-09	-5.442274e+01	-3.515969e+02
1.700000e-07	-7.799917e-06	-5.405518e-09	-5.410150e+01	-3.511024e+02
1.800000e-07	-7.750693e-06	-5.294302e-09	-5.376008e+01	-3.505802e+02
1.900000e-07	-7.698363e-06	-5.327053e-09	-5.339710e+01	-3.500182e+02
2.000000e-07	-7.643063e-06	-5.356136e-09	-5.301353e+01	-3.494042e+02
2.100000e-07	-7.585025e-06	-5.301883e-09	-5.261098e+01	-3.487283e+02
2.200000e-07	-7.524320e-06	-5.313540e-09	-5.218992e+01	-3.479847e+02
2.300000e-07	-7.460928e-06	-5.278728e-09	-5.175022e+01	-3.471727e+02
2.400000e-07	-7.394764e-06	-5.298816e-09	-5.129129e+01	-3.462969e+02
2.500000e-07	-7.325867e-06	-5.257024e-09	-5.081341e+01	-3.453668e+02
2.600000e-07	-7.254250e-06	-5.261043e-09	-5.031666e+01	-3.443950e+02
2.700000e-07	-7.179835e-06	-5.255415e-09	-4.980051e+01	-3.433952e+02
2.800000e-07	-7.102633e-06	-5.220812e-09	-4.926502e+01	-3.423795e+02
2.900000e-07	-7.022707e-06	-5.208438e-09	-4.871065e+01	-3.413566e+02
3.000000e-07	-6.940270e-06	-5.190173e-09	-4.813885e+01	-3.403296e+02
3.100000e-07	-6.855510e-06	-5.203195e-09	-4.755094e+01	-3.392955e+02
3.200000e-07	-6.768430e-06	-5.154974e-09	-4.694694e+01	-3.382453e+02
3.300000e-07	-6.678944e-06	-5.132946e-09	-4.632625e+01	-3.371651e+02
3.400000e-07	-6.587053e-06	-5.139594e-09	-4.568888e+01	-3.360381e+02
3.500000e-07	-6.492796e-06	-5.108174e-09	-4.503509e+01	-3.348471e+02
3.600000e-07	-6.396202e-06	-5.075457e-09	-4.436511e+01	-3.335774e+02
3.700000e-07	-6.297313e-06	-5.065750e-09	-4.367919e+01	-3.322187e+02
3.800000e-07	-6.196102e-06	-5.053279e-09	-4.297718e+01	-3.307672e+02
3.900000e-07	-6.092655e-06	-5.009799e-09	-4.225965e+01	-3.292254e+02
4.000000e-07	-5.987063e-06	-4.992194e-09	-4.152725e+01	-3.276023e+02
4.100000e-07	-5.879341e-06	-4.984546e-09	-4.078007e+01	-3.259111e+02
4.200000e-07	-5.769476e-06	-4.948918e-09	-4.001803e+01	-3.241667e+02
4.300000e-07	-5.657489e-06	-4.914654e-09	-3.924127e+01	-3.223835e+02
4.400000e-07	-5.543322e-06	-4.898731e-09	-3.844939e+01	-3.205717e+02
4.500000e-07	-5.426940e-06	-4.874375e-09	-3.764215e+01	-3.187353e+02
4.600000e-07	-5.308509e-06	-4.834649e-09	-3.682069e+01	-3.168710e+02
4.700000e-07	-5.188148e-06	-4.804092e-09	-3.598585e+01	-3.149679e+02
4.800000e-07	-5.065944e-06	-4.781290e-09	-3.513822e+01	-3.130084e+02
4.900000e-07	-4.941997e-06	-4.739023e-09	-3.427850e+01	-3.109706e+02
5.000000e-07	-4.816272e-06	-4.700489e-09	-3.340645e+01	-3.088315e+02
5.100000e-07	-4.688785e-06	-4.672366e-09	-3.252218e+01	-3.065695e+02
5.200000e-07	-4.559603e-06	-4.638628e-09	-3.162615e+01	-3.041682e+02
5.300000e-07	-4.428746e-06	-4.591737e-09	-3.071851e+01	-3.016178e+02
5.400000e-07	-4.296328e-06	-4.550627e-09	-2.980003e+01	-2.989162e+02
5.500000e-07	-4.162377e-06	-4.519169e-09	-2.887093e+01	-2.960686e+02
5.600000e-07	-4.026893e-06	-4.471644e-09	-2.793119e+01	-2.930853e+02
5.700000e-07	-3.889874e-06	-4.423289e-09	-2.698081e+01	-2.899788e+02
5.800000e-07	-3.751332e-06	-4.375748e-09	-2.601985e+01	-2.867599e+02
5.900000e-07	-3.611345e-06	-4.329645e-09	-2.504888e+01	-2.834343e+02
6.000000e-07	-3.469913e-06	-4.272387e-09	-2.406788e+01	-2.799994e+02
6.100000e-07	-3.327086e-06	-4.215847e-09	-2.307721e+01	-2.764420e+02
6.200000e-07	-3.183061e-06	-4.158031e-09	-2.207823e+01	-2.727386e+02
6.300000e-07	-3.037927e-06	-4.092975e-09	-2.107156e+01	-2.688563e+02
6.400000e-07	-2.891623e-06	-4.028200e-09	-2.005677e+01	-2.647557e+02
6.500000e-07	-2.744315e-06	-3.960953e-09	-1.903502e+01	-2.603949e+02
6.600000e-07	-2.596215e-06	-3.890239e-09	-1.800777e+01	-2.557342e+02
6.700000e-07	-2.447303e-06	-3.808010e-09	-1.697489e+01	-2.507394e+02
6.800000e-07	-2.297504e-06	-3.728181e-09	-1.593587e+01	-2.453845e+02
6.900000e-07	-2.146794e-06	-3.644578e-09	-1.489052e+01	-2.396530e+02
7.000000e-07	-1.995278e-06	-3.553229e-09	-1.383957e+01	-2.335352e+02
7.100000e-07	-1.843086e-06	-3.452835e-09	-1.278394e+01	-2.270251e+02
7.200000e-07	-1.690290e-06	-3.350402e-09	-1.172413e+01	-2.201137e+02
7.300000e-07	-1.536902e-06	-3.243198e-09	-1.066020e+01	-2.127818e+02
7.400000e-07	-1.382891e-06	-3.123067e-09	-9.591961e+00	-2.049927e+02
7.500000e-07	-1.228377e-06	-2.995273e-09	-8.520225e+00	-1.966853e+02
7.600000e-07	-1.073452e-06	-2.855635e-09	-7.445636e+00	-1.877709e+02
7.700000e-07	-9.181379e-07	-2.703578e-09	-6.368355e+00	-1.781322e+02
7.800000e-07	-7.624829e-07	-2.534888e-09	-5.288707e+00	-1.676272e+02
7.900000e-07	-6.065065e-07	-2.356846e-09	-4.206828e+00	-1.560977e+02
8.000000e-07	-4.502723e-07	-2.162495e-09	-3.123162e+00	-1.433816e+02
8.100000e-07	-2.939020e-07	-1.947416e-09	-2.038552e+00	-1.293290e+02
8.200000e-07	-1.374607e-07	-1.712472e-09	-9.534500e-01	-1.138195e+02
8.300000e-07	1.898010e-08	-1.457870e-09	1.316491e-01	-9.677950e+01
8.400000e-07	1.753837e-07	-1.180988e-09	1.216490e+00	-7.819835e+01
8.500000e-07	3.317515e-07	-8.751976e-10	2.301083e+00	-5.813924e+01
8.600000e-07	4.879771e-07	-5.496591e-10	3.384689e+00	-3.674543e+01
8.700000e-07	6.439865e-07	-2.074632e-10	4.466796e+00	-1.423953e+01
8.800000e-07	7.997664e-07	1.482526e-10	5.547311e+00	9.084277e+00
8.900000e-07	9.552656e-07	5.172497e-10	6.625879e+00	3.287456e+01
9.000000e-07	1.110411e-06	8.890496e-10	7.701994e+00	5.674264e+01
9.100000e-07	1.265169e-06	1.253373e-09	8.775421e+00	8.028628e+01
9.200000e-07	1.419425e-06	1.602897e-09	9.845367e+00	1.031151e+02
9.300000e-07	1.573076e-06	1.932038e-09	1.091111e+01	1.248749e+02
9.400000e-07	1.726193e-06	2.239151e-09	1.197316e+01	1.452695e+02
9.500000e-07	1.878800e-06	2.519610e-09	1.303166e+01	1.640765e+02
9.600000e-07	2.030756e-06	2.775285e-09	1.408566e+01	1.811575e+02
9.700000e-07	2.181917e-06	3.002706e-09	1.513413e+01	1.964604e+02
9.800000e-07	2.332211e-06	3.204736e-09	1.617660e+01	2.100147e+02
9.900000e-07	2.481637e-06	3.383044e-09	1.721304e+01	2.219206e+02
1.000000e-06	2.630184e-06	3.540482e-09	1.824339e+01	2.323332e+02
1.010000e-06	2.777818e-06	3.679331e-09	1.926740e+01	2.414432e+02
1.020000e-06	2.924432e-06	3.801982e-09	2.028434e+01	2.494575e+02
1.030000e-06	3.069947e-06	3.913088e-09	2.129366e+01	2.565808e+02
1.040000e-06	3.214462e-06	4.012032e-09	2.229603e+01	2.629993e+02
1.050000e-06	3.357885e-06	4.104512e-09	2.329084e+01	2.688700e+02
1.060000e-06	3.500007e-06	4.188142e-09	2.427662e+01	2.743139e+02
1.070000e-06	3.640807e-06	4.265496e-09	2.525323e+01	2.794146e+02
1.080000e-06	3.780186e-06	4.337051e-09	2.621999e+01	2.842217e+02
1.090000e-06	3.918079e-06	4.403616e-09	2.717644e+01	2.887568e+02
1.100000e-06	4.054525e-06	4.466522e-09	2.812285e+01	2.930223e+02
1.110000e-06	4.189433e-06	4.523497e-09	2.905860e+01	2.970107e+02
1.120000e-06	4.322825e-06	4.574368e-09	2.998383e+01	3.007132e+02
1.130000e-06	4.454724e-06	4.619403e-09	3.089869e+01	3.041264e+02
1.140000e-06	4.585025e-06	4.664236e-09	3.180248e+01	3.072567e+02
1.150000e-06	4.713728e-06	4.708123e-09	3.269519e+01	3.101217e+02
1.160000e-06	4.840734e-06	4.750574e-09	3.357613e+01	3.127495e+02
1.170000e-06	4.966016e-06	4.789181e-09	3.444510e+01	3.151751e+02
1.180000e-06	5.089610e-06	4.824996e-09	3.530237e+01	3.174367e+02
1.190000e-06	5.211432e-06	4.858897e-09	3.614734e+01	3.195704e+02
1.200000e-06	5.331415e-06	4.891849e-09	3.697957e+01	3.216062e+02
1.210000e-06	5.449369e-06	4.922294e-09	3.779772e+01	3.235653e+02
1.220000e-06	5.565200e-06	4.947716e-09	3.860114e+01	3.254583e+02
1.230000e-06	5.678955e-06	4.972042e-09	3.939016e+01	3.272856e+02
1.240000e-06	5.790520e-06	4.996157e-09	4.016400e+01	3.290401e+02
1.250000e-06	5.899990e-06	5.020308e-09	4.092330e+01	3.307093e+02
1.260000e-06	6.007465e-06	5.040919e-09	4.166876e+01	3.322801e+02
1.270000e-06	6.112798e-06	5.061130e-09	4.239937e+01	3.337416e+02
1.280000e-06	6.215928e-06	5.081850e-09	4.311469e+01	3.350885e+02
1.290000e-06	6.316856e-06	5.102168e-09	4.381475e+01	3.363226e+02
1.300000e-06	6.415506e-06	5.123546e-09	4.449900e+01	3.374531e+02
1.310000e-06	6.511748e-06	5.141303e-09	4.516655e+01	3.384960e+02
1.320000e-06	6.605641e-06	5.156660e-09	4.581781e+01	3.394712e+02
1.330000e-06	6.697282e-06	5.170406e-09	4.645344e+01	3.404002e+02
1.340000e-06	6.786560e-06	5.184936e-09	4.707269e+01	3.413026e+02
1.350000e-06	6.873345e-06	5.200184e-09	4.767465e+01	3.421937e+02
1.360000e-06	6.957775e-06	5.214927e-09	4.826027e+01	3.430822e+02
1.370000e-06	7.039907e-06	5.230151e-09	4.882995e+01	3.439693e+02
1.380000e-06	7.119491e-06	5.244821e-09	4.938196e+01	3.448496e+02
1.390000e-06	7.196423e-06	5.259331e-09	4.991557e+01	3.457119e+02
1.400000e-06	7.270688e-06	5.272191e-09	5.043068e+01	3.465421e+02
1.410000e-06	7.342246e-06	5.282857e-09	5.092702e+01	3.473257e+02
1.420000e-06	7.411213e-06	5.291153e-09	5.140539e+01	3.480507e+02
1.430000e-06	7.477536e-06	5.299149e-09	5.186541e+01	3.487095e+02
1.440000e-06	7.541100e-06	5.309751e-09	5.230631e+01	3.493006e+02
1.450000e-06	7.602123e-06	5.320818e-09	5.272957e+01	3.498288e+02
1.460000e-06	7.660604e-06	5.331033e-09	5.313520e+01	3.503043e+02
1.470000e-06	7.716310e-06	5.341525e-09	5.352159e+01	3.507409e+02
1.480000e-06	7.769089e-06	5.352307e-09	5.388768e+01	3.511541e+02
1.490000e-06	7.818733e-06	5.360749e-09	5.423201e+01	3.515581e+02
1.500000e-06	7.865314e-06	5.366555e-09	5.455511e+01	3.519638e+02
1.510000e-06	7.909090e-06	5.373354e-09	5.485875e+01	3.523770e+02
1.520000e-06	7.950055e-06	5.381342e-09	5.514288e+01	3.527975e+02
1.530000e-06	7.988199e-06	5.387242e-09	5.540746e+01	3.532196e+02
1.540000e-06	8.023640e-06	5.391509e-09	5.565328e+01	3.536329e+02
1.550000e-06	8.056270e-06	5.397572e-09	5.587961e+01	3.540247e+02
1.560000e-06	8.086095e-06	5.405812e-09	5.608648e+01	3.543814e+02
1.570000e-06	8.113106e-06	5.413606e-09	5.627383e+01	3.546919e+02
1.580000e-06	8.137129e-06	5.420033e-09	5.644046e+01	3.549485e+02
1.590000e-06	8.158334e-06	5.425954e-09	5.658755e+01	3.551488e+02
1.600000e-06	8.176790e-06	5.430039e-09	5.671556e+01	3.552955e+02
1.610000e-06	8.192269e-06	5.432002e-09	5.682292e+01	3.553965e+02
1.620000e-06	8.204599e-06	5.434049e-09	5.690845e+01	3.554624e+02
1.630000e-06	8.213722e-06	5.436587e-09	5.697172e+01	3.555056e+02
1.640000e-06	8.219888e-06	5.438543e-09	5.701449e+01	3.555373e+02
1.650000e-06	8.223283e-06	5.440113e-09	5.703804e+01	3.555661e+02
1.660000e-06	8.223782e-06	5.440200e-09	5.704150e+01	3.555958e+02
1.670000e-06	8.221533e-06	5.443180e-09	5.702590e+01	3.556254e+02
1.680000e-06	8.216592e-06	5.440795e-09	5.699163e+01	3.556486e+02
1.690000e-06	8.208838e-06	5.440989e-09	5.693785e+01	3.556554e+02
1.700000e-06	8.198400e-06	5.440834e-09	5.686545e+01	3.556331e+02
1.710000e-06	8.185130e-06	5.437088e-09	5.677340e+01	3.555693e+02
1.720000e-06	8.168994e-06	5.431602e-09	5.666148e+01	3.554529e+02
1.730000e-06	8.150392e-06	5.420780e-09	5.653245e+01	3.552769e+02
1.740000e-06	8.129287e-06	5.444131e-09	5.638607e+01	3.550388e+02
1.750000e-06	8.104928e-06	5.389174e-09	5.621711e+01	3.547411e+02
1.760000e-06	8.076720e-06	5.354805e-09	5.602145e+01	3.543911e+02
1.770000e-06	8.045030e-06	5.380608e-09	5.580165e+01	3.539988e+02
1.780000e-06	8.010725e-06	5.395175e-09	5.556370e+01	3.535756e+02
1.790000e-06	7.974143e-06	5.383443e-09	5.530996e+01	3.531319e+02
1.800000e-06	7.935283e-06	5.448713e-09	5.504042e+01	3.526754e+02
1.810000e-06	7.894231e-06	5.405874e-09	5.475568e+01	3.522092e+02
1.820000e-06	7.850612e-06	5.313214e-09	5.445313e+01	3.517318e+02
1.830000e-06	7.804228e-06	5.412397e-09	5.413141e+01	3.512364e+02
1.840000e-06	7.754999e-06	5.334378e-09	5.378995e+01	3.507131e+02
1.850000e-06	7.702710e-06	5.350292e-09	5.342726e+01	3.501494e+02
1.860000e-06	7.647508e-06	5.338686e-09	5.304437e+01	3.495333e+02
1.870000e-06	7.589444e-06	5.271649e-09	5.264163e+01	3.488551e+02
1.880000e-06	7.528706e-06	5.338923e-09	5.222034e+01	3.481091e+02
1.890000e-06	7.465293e-06	5.272953e-09	5.178050e+01	3.472946e+02
1.900000e-06	7.398991e-06	5.321024e-09	5.132061e+01	3.464168e+02
1.910000e-06	7.329810e-06	5.255419e-09	5.084076e+01	3.454850e+02
1.920000e-06	7.257840e-06	5.208999e-09	5.034157e+01	3.445120e+02
1.930000e-06	7.183261e-06	5.268701e-09	4.982427e+01	3.435114e+02
1.940000e-06	7.105839e-06	5.222814e-09	4.928726e+01	3.424954e+02
1.950000e-06	7.025643e-06	5.236759e-09	4.873101e+01	3.414723e+02
1.960000e-06	6.943031e-06	5.149424e-09	4.815800e+01	3.404451e+02
1.970000e-06	6.857912e-06	5.188371e-09	4.756760e+01	3.394107e+02
1.980000e-06	6.770233e-06	5.165855e-09	4.695945e+01	3.383597e+02
1.990000e-06	6.680183e-06	5.124803e-09	4.633484e+01	3.372781e+02
2.000000e-06	6.587897e-06	5.138482e-09	4.569473e+01	3.361491e+02
2.010000e-06	6.493212e-06	5.086347e-09	4.503798e+01	3.349555e+02
2.020000e-06	6.396150e-06	5.089788e-09	4.436475e+01	3.336828e+02
2.030000e-06	6.296868e-06	5.052261e-09	4.367611e+01	3.323209e+02
2.040000e-06	6.195338e-06	5.074197e-09	4.297188e+01	3.308660e+02
2.050000e-06	6.091516e-06	5.016924e-09	4.225175e+01	3.293212e+02
2.060000e-06	5.985563e-06	4.985590e-09	4.151685e+01	3.276954e+02
2.070000e-06	5.877581e-06	4.974522e-09	4.076786e+01	3.260020e+02
2.080000e-06	5.767509e-06	4.954324e-09	4.000439e+01	3.242561e+02
2.090000e-06	5.655326e-06	4.920825e-09	3.922627e+01	3.224717e+02
2.100000e-06	5.540953e-06	4.878067e-09	3.843296e+01	3.206590e+02
2.110000e-06	5.424396e-06	4.868644e-09	3.762450e+01	3.188217e+02
2.120000e-06	5.305733e-06	4.826616e-09	3.680143e+01	3.169563e+02
2.130000e-06	5.185094e-06	4.804605e-09	3.596466e+01	3.150515e+02
2.140000e-06	5.062575e-06	4.775425e-09	3.511485e+01	3.130896e+02
2.150000e-06	4.938252e-06	4.751634e-09	3.425253e+01	3.110487e+02
2.160000e-06	4.812176e-06	4.702121e-09	3.337804e+01	3.089055e+02
2.170000e-06	4.684382e-06	4.671097e-09	3.249164e+01	3.066388e+02
2.180000e-06	4.554915e-06	4.643555e-09	3.159364e+01	3.042323e+02
2.190000e-06	4.423751e-06	4.604868e-09	3.068386e+01	3.016765e+02
2.200000e-06	4.291009e-06	4.555451e-09	2.976314e+01	2.989696e+02
2.210000e-06	4.156814e-06	4.514203e-09	2.883234e+01	2.961170e+02
2.220000e-06	4.021128e-06	4.476587e-09	2.789120e+01	2.931290e+02
2.230000e-06	3.883923e-06	4.427706e-09	2.693952e+01	2.900183e+02
2.240000e-06	3.745251e-06	4.381953e-09	2.597768e+01	2.867956e+02
2.250000e-06	3.605168e-06	4.332025e-09	2.500604e+01	2.834662e+02
2.260000e-06	3.463757e-06	4.276799e-09	2.402519e+01	2.800272e+02
2.270000e-06	3.321076e-06	4.216704e-09	2.303553e+01	2.764651e+02
2.280000e-06	3.177125e-06	4.164205e-09	2.203706e+01	2.727560e+02
2.290000e-06	3.032009e-06	4.105511e-09	2.103051e+01	2.688666e+02
2.300000e-06	2.885924e-06	4.038360e-09	2.001724e+01	2.647574e+02
2.310000e-06	2.738829e-06	3.968843e-09	1.899696e+01	2.603866e+02
2.320000e-06	2.590611e-06	3.904644e-09	1.796890e+01	2.557145e+02
2.330000e-06	2.441498e-06	3.832569e-09	1.693463e+01	2.507072e+02
2.340000e-06	2.291562e-06	3.748749e-09	1.589465e+01	2.453392e+02
2.350000e-06	2.140742e-06	3.662183e-09	1.484854e+01	2.395939e+02
2.360000e-06	1.989167e-06	3.574114e-09	1.379719e+01	2.334623e+02
2.370000e-06	1.836977e-06	3.475796e-09	1.274157e+01	2.269381e+02
2.380000e-06	1.684146e-06	3.370263e-09	1.168151e+01	2.200121e+02
2.390000e-06	1.530694e-06	3.260663e-09	1.061714e+01	2.126647e+02
2.400000e-06	1.376766e-06	3.141512e-09	9.549475e+00	2.048582e+02
2.410000e-06	1.222380e-06	3.011734e-09	8.478625e+00	1.965309e+02
2.420000e-06	1.067458e-06	2.876315e-09	7.404064e+00	1.875928e+02
2.430000e-06	9.121061e-07	2.730949e-09	6.326518e+00	1.779258e+02
2.440000e-06	7.564580e-07	2.564612e-09	5.246917e+00	1.673870e+02
2.450000e-06	6.005358e-07	2.381743e-09	4.165415e+00	1.558179e+02
2.460000e-06	4.443530e-07	2.187380e-09	3.082105e+00	1.430565e+02
2.470000e-06	2.879485e-07	1.976013e-09	1.997258e+00	1.289538e+02
2.480000e-06	1.314274e-07	1.741262e-09	9.116020e-01	1.133905e+02
2.490000e-06	-2.515979e-08	1.483033e-09	-1.745125e-01	9.629526e+01
2.500000e-06	-1.817190e-07	1.204051e-09	-1.260433e+00	7.765978e+01
2.510000e-06	-3.381528e-07	9.030161e-10	-2.345483e+00	5.755006e+01
2.520000e-06	-4.944302e-07	5.813271e-10	-3.429449e+00	3.611226e+01
2.530000e-06	-6.505180e-07	2.408260e-10	-4.512100e+00	1.357170e+01
2.540000e-06	-8.063195e-07	-1.164114e-10	-5.592764e+00	-9.775084e+00
2.550000e-06	-9.617153e-07	-4.842025e-10	-6.670615e+00	-3.357498e+01
2.560000e-06	-1.116613e-06	-8.555948e-10	-7.745009e+00	-5.743839e+01
2.570000e-06	-1.271048e-06	-1.223141e-09	-8.816198e+00	-8.096307e+01
2.580000e-06	-1.425088e-06	-1.578181e-09	-9.884646e+00	-1.037595e+02
2.590000e-06	-1.578673e-06	-1.911590e-09	-1.094993e+01	-1.254752e+02
2.600000e-06	-1.731732e-06	-2.219207e-09	-1.201158e+01	-1.458165e+02
2.610000e-06	-1.884205e-06	-2.501746e-09	-1.306916e+01	-1.645637e+02
2.620000e-06	-2.035953e-06	-2.758774e-09	-1.412170e+01	-1.815816e+02
2.630000e-06	-2.186851e-06	-2.989997e-09	-1.516836e+01	-1.968210e+02
2.640000e-06	-2.336937e-06	-3.194486e-09	-1.620938e+01	-2.103143e+02
2.650000e-06	-2.486343e-06	-3.373700e-09	-1.724568e+01	-2.221640e+02
2.660000e-06	-2.634932e-06	-3.532308e-09	-1.827632e+01	-2.325265e+02
2.670000e-06	-2.782433e-06	-3.674641e-09	-1.929941e+01	-2.415938e+02
2.680000e-06	-2.928883e-06	-3.802848e-09	-2.031521e+01	-2.495729e+02
2.690000e-06	-3.074325e-06	-3.916329e-09	-2.132402e+01	-2.566679e+02
2.700000e-06	-3.218683e-06	-4.016817e-09	-2.232532e+01	-2.630643e+02
2.710000e-06	-3.361802e-06	-4.108514e-09	-2.331801e+01	-2.689179e+02
2.720000e-06	-3.503634e-06	-4.193910e-09	-2.430178e+01	-2.743483e+02
2.730000e-06	-3.644231e-06	-4.272053e-09	-2.527699e+01	-2.794379e+02
2.740000e-06	-3.783398e-06	-4.344575e-09	-2.624227e+01	-2.842350e+02
2.750000e-06	-3.921115e-06	-4.413217e-09	-2.719750e+01	-2.887605e+02
2.760000e-06	-4.057438e-06	-4.476366e-09	-2.814306e+01	-2.930162e+02
2.770000e-06	-4.192224e-06	-4.535411e-09	-2.907795e+01	-2.969946e+02
2.780000e-06	-4.325541e-06	-4.590901e-09	-3.000266e+01	-3.006868e+02
2.790000e-06	-4.457332e-06	-4.643378e-09	-3.091679e+01	-3.040897e+02
2.800000e-06	-4.587554e-06	-4.692528e-09	-3.182003e+01	-3.072101e+02
2.810000e-06	-4.716289e-06	-4.737891e-09	-3.271295e+01	-3.100661e+02
2.820000e-06	-4.843358e-06	-4.781115e-09	-3.359433e+01	-3.126859e+02
2.830000e-06	-4.968663e-06	-4.823039e-09	-3.446346e+01	-3.151050e+02
2.840000e-06	-5.092233e-06	-4.862334e-09	-3.532056e+01	-3.173615e+02
2.850000e-06	-5.214054e-06	-4.898329e-09	-3.616553e+01	-3.194912e+02
2.860000e-06	-5.333922e-06	-4.931234e-09	-3.699696e+01	-3.215240e+02
2.870000e-06	-5.451669e-06	-4.960593e-09	-3.781367e+01	-3.234806e+02
2.880000e-06	-5.567211e-06	-4.988077e-09	-3.861509e+01	-3.253712e+02
2.890000e-06	-5.680479e-06	-5.014656e-09	-3.940073e+01	-3.271961e+02
2.900000e-06	-5.791586e-06	-5.040000e-09	-4.017139e+01	-3.289477e+02
2.910000e-06	-5.900631e-06	-5.063270e-09	-4.092774e+01	-3.306137e+02
2.920000e-06	-6.007693e-06	-5.085376e-09	-4.167035e+01	-3.321807e+02
2.930000e-06	-6.112697e-06	-5.108105e-09	-4.239867e+01	-3.336382e+02
2.940000e-06	-6.215494e-06	-5.130512e-09	-4.311169e+01	-3.349810e+02
