# Temperatura_=_20.0
# Concentracion g/m^3_=_9000.0
# C_Vs_to_Am_M_A/Vsm_=_65563218390.804596
# pendiente_HvsI_1/m_=_3716.3
# ordenada_HvsI_A/m_=_1297.0
# frecuencia_Hz_=_301297.8221609142

Tiempo_(s)	Campo_(V.s)	Magnetizacion_(V.s)	Campo_(kA/m)	Magnetizacion_(A/m)
0.000000e+00	-8.269153e-06	-5.398871e-09	-5.697857e+01	-3.546217e+02
1.000000e-08	-8.266579e-06	-5.400043e-09	-5.696084e+01	-3.546064e+02
2.000000e-08	-8.261359e-06	-5.399737e-09	-5.692487e+01	-3.545665e+02
3.000000e-08	-8.253556e-06	-5.398581e-09	-5.687110e+01	-3.544921e+02
4.000000e-08	-8.242824e-06	-5.395952e-09	-5.679715e+01	-3.543741e+02
5.000000e-08	-8.229074e-06	-5.391966e-09	-5.670241e+01	-3.542056e+02
6.000000e-08	-8.212391e-06	-5.388759e-09	-5.658745e+01	-3.539841e+02
7.000000e-08	-8.193154e-06	-5.385566e-09	-5.645490e+01	-3.537120e+02
8.000000e-08	-8.171489e-06	-5.396235e-09	-5.630562e+01	-3.533964e+02
9.000000e-08	-8.146766e-06	-5.415152e-09	-5.613527e+01	-3.530488e+02
1.000000e-07	-8.118704e-06	-5.418857e-09	-5.594191e+01	-3.526832e+02
1.100000e-07	-8.087583e-06	-5.397905e-09	-5.572747e+01	-3.523134e+02
1.200000e-07	-8.053524e-06	-5.371289e-09	-5.549278e+01	-3.519513e+02
1.300000e-07	-8.016726e-06	-5.361481e-09	-5.523923e+01	-3.516043e+02
1.400000e-07	-7.977687e-06	-5.349683e-09	-5.497023e+01	-3.512738e+02
1.500000e-07	-7.936277e-06	-5.332886e-09	-5.468489e+01	-3.509545e+02
1.600000e-07	-7.892001e-06	-5.347573e-09	-5.437981e+01	-3.506344e+02
1.700000e-07	-7.844947e-06	-5.335149e-09	-5.405558e+01	-3.502968e+02
1.800000e-07	-7.795003e-06	-5.310395e-09	-5.371144e+01	-3.499221e+02
1.900000e-07	-7.741820e-06	-5.325190e-09	-5.334499e+01	-3.494905e+02
2.000000e-07	-7.685675e-06	-5.309403e-09	-5.295812e+01	-3.489854e+02
2.100000e-07	-7.626831e-06	-5.278876e-09	-5.255266e+01	-3.483950e+02
2.200000e-07	-7.565312e-06	-5.275102e-09	-5.212876e+01	-3.477151e+02
2.300000e-07	-7.501084e-06	-5.287258e-09	-5.168620e+01	-3.469487e+02
2.400000e-07	-7.434054e-06	-5.264144e-09	-5.122433e+01	-3.461064e+02
2.500000e-07	-7.364285e-06	-5.235070e-09	-5.074359e+01	-3.452042e+02
2.600000e-07	-7.291725e-06	-5.247812e-09	-5.024361e+01	-3.442609e+02
2.700000e-07	-7.216359e-06	-5.238249e-09	-4.972430e+01	-3.432955e+02
2.800000e-07	-7.138202e-06	-5.204770e-09	-4.918576e+01	-3.423236e+02
2.900000e-07	-7.057270e-06	-5.200075e-09	-4.862810e+01	-3.413549e+02
3.000000e-07	-6.973943e-06	-5.197821e-09	-4.805393e+01	-3.403918e+02
3.100000e-07	-6.888315e-06	-5.164636e-09	-4.746391e+01	-3.394284e+02
3.200000e-07	-6.800225e-06	-5.142891e-09	-4.685693e+01	-3.384517e+02
3.300000e-07	-6.709718e-06	-5.145693e-09	-4.623329e+01	-3.374432e+02
3.400000e-07	-6.616828e-06	-5.117884e-09	-4.559324e+01	-3.363817e+02
3.500000e-07	-6.521546e-06	-5.081705e-09	-4.493669e+01	-3.352468e+02
3.600000e-07	-6.423870e-06	-5.078496e-09	-4.426366e+01	-3.340219e+02
3.700000e-07	-6.323915e-06	-5.070155e-09	-4.357491e+01	-3.326967e+02
3.800000e-07	-6.221748e-06	-5.029602e-09	-4.287094e+01	-3.312687e+02
3.900000e-07	-6.117229e-06	-5.000928e-09	-4.215075e+01	-3.297433e+02
4.000000e-07	-6.010510e-06	-4.997898e-09	-4.141540e+01	-3.281329e+02
4.100000e-07	-5.901749e-06	-4.973965e-09	-4.066598e+01	-3.264542e+02
4.200000e-07	-5.790894e-06	-4.934556e-09	-3.990213e+01	-3.247253e+02
4.300000e-07	-5.677810e-06	-4.919085e-09	-3.912293e+01	-3.229622e+02
4.400000e-07	-5.562394e-06	-4.906081e-09	-3.832766e+01	-3.211755e+02
4.500000e-07	-5.444884e-06	-4.866892e-09	-3.751796e+01	-3.193680e+02
4.600000e-07	-5.325456e-06	-4.834360e-09	-3.669504e+01	-3.175338e+02
4.700000e-07	-5.204038e-06	-4.816503e-09	-3.585841e+01	-3.156583e+02
4.800000e-07	-5.080731e-06	-4.780763e-09	-3.500876e+01	-3.137200e+02
4.900000e-07	-4.955675e-06	-4.734522e-09	-3.414706e+01	-3.116934e+02
5.000000e-07	-4.828911e-06	-4.706191e-09	-3.327359e+01	-3.095526e+02
5.100000e-07	-4.700318e-06	-4.678186e-09	-3.238752e+01	-3.072749e+02
5.200000e-07	-4.569932e-06	-4.632471e-09	-3.148910e+01	-3.048439e+02
5.300000e-07	-4.437875e-06	-4.590844e-09	-3.057917e+01	-3.022517e+02
5.400000e-07	-4.304210e-06	-4.560069e-09	-2.965815e+01	-2.994995e+02
5.500000e-07	-4.169212e-06	-4.518037e-09	-2.872794e+01	-2.965965e+02
5.600000e-07	-4.032709e-06	-4.467693e-09	-2.778737e+01	-2.935573e+02
5.700000e-07	-3.894460e-06	-4.428632e-09	-2.683476e+01	-2.903982e+02
5.800000e-07	-3.754713e-06	-4.387512e-09	-2.587184e+01	-2.871332e+02
5.900000e-07	-3.613510e-06	-4.331546e-09	-2.489888e+01	-2.837695e+02
6.000000e-07	-3.470763e-06	-4.273525e-09	-2.391528e+01	-2.803043e+02
6.100000e-07	-3.326660e-06	-4.221797e-09	-2.292234e+01	-2.767233e+02
6.200000e-07	-3.181364e-06	-4.162234e-09	-2.192118e+01	-2.730001e+02
6.300000e-07	-3.035046e-06	-4.093745e-09	-2.091297e+01	-2.690987e+02
6.400000e-07	-2.887755e-06	-4.029457e-09	-1.989806e+01	-2.649764e+02
6.500000e-07	-2.739508e-06	-3.963500e-09	-1.887657e+01	-2.605886e+02
6.600000e-07	-2.590366e-06	-3.887884e-09	-1.784891e+01	-2.558936e+02
6.700000e-07	-2.440360e-06	-3.809415e-09	-1.681529e+01	-2.508566e+02
6.800000e-07	-2.289538e-06	-3.733419e-09	-1.577605e+01	-2.454521e+02
6.900000e-07	-2.137838e-06	-3.649263e-09	-1.473077e+01	-2.396650e+02
7.000000e-07	-1.985247e-06	-3.553484e-09	-1.367934e+01	-2.334875e+02
7.100000e-07	-1.831853e-06	-3.456957e-09	-1.262238e+01	-2.269150e+02
7.200000e-07	-1.677773e-06	-3.358722e-09	-1.156069e+01	-2.199395e+02
7.300000e-07	-1.523101e-06	-3.246053e-09	-1.049492e+01	-2.125410e+02
7.400000e-07	-1.367872e-06	-3.121583e-09	-9.425315e+00	-2.046804e+02
7.500000e-07	-1.212172e-06	-2.993816e-09	-8.352467e+00	-1.962928e+02
7.600000e-07	-1.056134e-06	-2.854867e-09	-7.277288e+00	-1.872837e+02
7.700000e-07	-8.997820e-07	-2.696803e-09	-6.199945e+00	-1.775297e+02
7.800000e-07	-7.430646e-07	-2.526560e-09	-5.120084e+00	-1.668826e+02
7.900000e-07	-5.860485e-07	-2.346723e-09	-4.038165e+00	-1.551792e+02
8.000000e-07	-4.288733e-07	-2.148741e-09	-2.955150e+00	-1.422549e+02
8.100000e-07	-2.715653e-07	-1.930784e-09	-1.871220e+00	-1.279601e+02
8.200000e-07	-1.141401e-07	-1.694621e-09	-7.864822e-01	-1.121786e+02
8.300000e-07	4.326318e-08	-1.435574e-09	2.981048e-01	-9.484501e+01
8.400000e-07	2.006557e-07	-1.148876e-09	1.382618e+00	-7.596041e+01
8.500000e-07	3.579944e-07	-8.397887e-10	2.466760e+00	-5.560259e+01
8.600000e-07	5.151740e-07	-5.137080e-10	3.549805e+00	-3.393113e+01
8.700000e-07	6.721386e-07	-1.689630e-10	4.631369e+00	-1.118510e+01
8.800000e-07	8.288319e-07	1.931390e-10	5.711064e+00	1.232618e+01
8.900000e-07	9.853004e-07	5.638235e-10	6.789209e+00	3.623906e+01
9.000000e-07	1.141450e-06	9.344562e-10	7.865155e+00	6.015680e+01
9.100000e-07	1.297215e-06	1.299142e-09	8.938455e+00	8.367408e+01
9.200000e-07	1.452606e-06	1.648567e-09	1.000917e+01	1.064028e+02
9.300000e-07	1.607515e-06	1.974757e-09	1.107658e+01	1.279961e+02
9.400000e-07	1.761849e-06	2.276080e-09	1.214001e+01	1.481695e+02
9.500000e-07	1.915565e-06	2.552278e-09	1.319919e+01	1.667156e+02
9.600000e-07	2.068554e-06	2.801190e-09	1.425336e+01	1.835125e+02
9.700000e-07	2.220623e-06	3.022880e-09	1.530120e+01	1.985248e+02
9.800000e-07	2.371725e-06	3.220444e-09	1.634236e+01	2.117975e+02
9.900000e-07	2.521919e-06	3.395410e-09	1.737728e+01	2.234436e+02
1.000000e-06	2.671166e-06	3.549867e-09	1.840566e+01	2.336272e+02
1.010000e-06	2.819515e-06	3.687213e-09	1.942786e+01	2.425445e+02
1.020000e-06	2.966959e-06	3.811574e-09	2.044382e+01	2.504041e+02
1.030000e-06	3.113414e-06	3.922865e-09	2.145297e+01	2.574086e+02
1.040000e-06	3.258823e-06	4.021254e-09	2.245491e+01	2.637400e+02
1.050000e-06	3.402964e-06	4.112792e-09	2.344811e+01	2.695491e+02
1.060000e-06	3.545801e-06	4.195082e-09	2.443233e+01	2.749504e+02
1.070000e-06	3.687348e-06	4.270186e-09	2.540766e+01	2.800214e+02
1.080000e-06	3.827511e-06	4.340541e-09	2.637345e+01	2.848063e+02
1.090000e-06	3.966263e-06	4.407597e-09	2.732952e+01	2.893232e+02
1.100000e-06	4.103476e-06	4.467449e-09	2.827499e+01	2.935722e+02
1.110000e-06	4.239039e-06	4.522624e-09	2.920908e+01	2.975452e+02
1.120000e-06	4.373043e-06	4.574939e-09	3.013244e+01	3.012335e+02
1.130000e-06	4.505536e-06	4.623847e-09	3.104538e+01	3.046345e+02
1.140000e-06	4.636542e-06	4.670399e-09	3.194808e+01	3.077554e+02
1.150000e-06	4.765936e-06	4.713465e-09	3.283966e+01	3.106141e+02
1.160000e-06	4.893482e-06	4.755163e-09	3.371852e+01	3.132381e+02
1.170000e-06	5.019254e-06	4.793171e-09	3.458515e+01	3.156616e+02
1.180000e-06	5.143368e-06	4.828783e-09	3.544036e+01	3.179207e+02
1.190000e-06	5.265761e-06	4.862340e-09	3.628371e+01	3.200496e+02
1.200000e-06	5.386195e-06	4.894121e-09	3.711356e+01	3.220765e+02
1.210000e-06	5.504563e-06	4.922454e-09	3.792917e+01	3.240209e+02
1.220000e-06	5.620967e-06	4.949955e-09	3.873125e+01	3.258930e+02
1.230000e-06	5.735226e-06	4.977224e-09	3.951855e+01	3.276940e+02
1.240000e-06	5.847134e-06	5.001579e-09	4.028966e+01	3.294181e+02
1.250000e-06	5.956946e-06	5.025225e-09	4.104632e+01	3.310559e+02
1.260000e-06	6.064825e-06	5.047664e-09	4.178966e+01	3.325970e+02
1.270000e-06	6.170553e-06	5.067830e-09	4.251817e+01	3.340338e+02
1.280000e-06	6.273963e-06	5.087399e-09	4.323072e+01	3.353635e+02
1.290000e-06	6.375109e-06	5.107440e-09	4.392767e+01	3.365897e+02
1.300000e-06	6.474054e-06	5.126817e-09	4.460945e+01	3.377219e+02
1.310000e-06	6.570599e-06	5.142329e-09	4.527469e+01	3.387748e+02
1.320000e-06	6.664671e-06	5.157462e-09	4.592289e+01	3.397661e+02
1.330000e-06	6.756441e-06	5.172641e-09	4.655524e+01	3.407135e+02
1.340000e-06	6.845852e-06	5.187583e-09	4.717132e+01	3.416327e+02
1.350000e-06	6.932850e-06	5.202827e-09	4.777078e+01	3.425348e+02
1.360000e-06	7.017555e-06	5.218419e-09	4.835444e+01	3.434251e+02
1.370000e-06	7.099834e-06	5.233908e-09	4.892138e+01	3.443025e+02
1.380000e-06	7.179471e-06	5.247097e-09	4.947012e+01	3.451606e+02
1.390000e-06	7.256476e-06	5.259038e-09	5.000073e+01	3.459893e+02
1.400000e-06	7.330764e-06	5.270588e-09	5.051261e+01	3.467764e+02
1.410000e-06	7.402317e-06	5.280656e-09	5.100564e+01	3.475108e+02
1.420000e-06	7.471286e-06	5.288716e-09	5.148087e+01	3.481842e+02
1.430000e-06	7.537630e-06	5.297281e-09	5.193802e+01	3.487927e+02
1.440000e-06	7.601246e-06	5.307988e-09	5.237636e+01	3.493380e+02
1.450000e-06	7.662258e-06	5.319224e-09	5.279677e+01	3.498264e+02
1.460000e-06	7.720624e-06	5.329734e-09	5.319894e+01	3.502687e+02
1.470000e-06	7.776223e-06	5.339309e-09	5.358204e+01	3.506775e+02
1.480000e-06	7.828892e-06	5.348367e-09	5.394495e+01	3.510658e+02
1.490000e-06	7.878300e-06	5.356178e-09	5.428540e+01	3.514446e+02
1.500000e-06	7.924613e-06	5.362230e-09	5.460452e+01	3.518213e+02
1.510000e-06	7.968209e-06	5.368357e-09	5.490492e+01	3.521985e+02
1.520000e-06	8.009018e-06	5.374748e-09	5.518612e+01	3.525740e+02
1.530000e-06	8.047003e-06	5.380003e-09	5.544785e+01	3.529415e+02
1.540000e-06	8.082246e-06	5.384552e-09	5.569069e+01	3.532917e+02
1.550000e-06	8.114670e-06	5.389970e-09	5.591411e+01	3.536143e+02
1.560000e-06	8.144301e-06	5.397438e-09	5.611828e+01	3.538999e+02
1.570000e-06	8.171060e-06	5.404479e-09	5.630267e+01	3.541414e+02
1.580000e-06	8.194803e-06	5.408895e-09	5.646626e+01	3.543358e+02
1.590000e-06	8.215669e-06	5.411771e-09	5.661004e+01	3.544840e+02
1.600000e-06	8.233689e-06	5.414646e-09	5.673421e+01	3.545908e+02
1.610000e-06	8.248748e-06	5.416692e-09	5.683797e+01	3.546638e+02
1.620000e-06	8.260708e-06	5.418681e-09	5.692038e+01	3.547118e+02
1.630000e-06	8.269475e-06	5.421442e-09	5.698079e+01	3.547428e+02
1.640000e-06	8.275305e-06	5.423388e-09	5.702096e+01	3.547627e+02
1.650000e-06	8.278279e-06	5.425766e-09	5.704145e+01	3.547737e+02
1.660000e-06	8.278285e-06	5.426765e-09	5.704150e+01	3.547741e+02
1.670000e-06	8.275530e-06	5.424328e-09	5.702251e+01	3.547581e+02
1.680000e-06	8.270058e-06	5.419628e-09	5.698481e+01	3.547171e+02
1.690000e-06	8.261832e-06	5.417650e-09	5.692813e+01	3.546413e+02
1.700000e-06	8.250897e-06	5.416678e-09	5.685278e+01	3.545215e+02
1.710000e-06	8.237048e-06	5.415623e-09	5.675735e+01	3.543512e+02
1.720000e-06	8.220435e-06	5.414013e-09	5.664288e+01	3.541278e+02
1.730000e-06	8.201445e-06	5.402079e-09	5.651203e+01	3.538540e+02
1.740000e-06	8.179822e-06	5.367371e-09	5.636304e+01	3.535370e+02
1.750000e-06	8.154705e-06	5.341840e-09	5.618997e+01	3.531886e+02
1.760000e-06	8.125656e-06	5.342397e-09	5.598980e+01	3.528225e+02
1.770000e-06	8.093250e-06	5.359288e-09	5.576652e+01	3.524528e+02
1.780000e-06	8.058375e-06	5.372327e-09	5.552621e+01	3.520912e+02
1.790000e-06	8.021204e-06	5.383495e-09	5.527008e+01	3.517448e+02
1.800000e-06	7.981805e-06	5.375920e-09	5.499860e+01	3.514149e+02
1.810000e-06	7.940210e-06	5.340237e-09	5.471199e+01	3.510957e+02
1.820000e-06	7.895886e-06	5.360024e-09	5.440658e+01	3.507753e+02
1.830000e-06	7.848756e-06	5.373824e-09	5.408183e+01	3.504368e+02
1.840000e-06	7.798729e-06	5.363666e-09	5.373712e+01	3.500603e+02
1.850000e-06	7.745497e-06	5.356174e-09	5.337032e+01	3.496264e+02
1.860000e-06	7.689305e-06	5.339842e-09	5.298313e+01	3.491184e+02
1.870000e-06	7.630411e-06	5.328504e-09	5.257732e+01	3.485249e+02
1.880000e-06	7.568869e-06	5.302903e-09	5.215327e+01	3.478417e+02
1.890000e-06	7.504539e-06	5.314763e-09	5.171000e+01	3.470724e+02
1.900000e-06	7.437340e-06	5.305965e-09	5.124697e+01	3.462277e+02
1.910000e-06	7.367221e-06	5.251166e-09	5.076381e+01	3.453237e+02
1.920000e-06	7.294297e-06	5.254445e-09	5.026133e+01	3.443793e+02
1.930000e-06	7.218793e-06	5.276565e-09	4.974107e+01	3.434134e+02
1.940000e-06	7.140385e-06	5.246534e-09	4.920080e+01	3.424415e+02
1.950000e-06	7.059253e-06	5.205749e-09	4.864176e+01	3.414730e+02
1.960000e-06	6.975733e-06	5.207467e-09	4.806627e+01	3.405100e+02
1.970000e-06	6.889591e-06	5.199002e-09	4.747271e+01	3.395465e+02
1.980000e-06	6.800901e-06	5.164017e-09	4.686159e+01	3.385690e+02
1.990000e-06	6.709992e-06	5.160180e-09	4.623518e+01	3.375589e+02
2.000000e-06	6.616833e-06	5.154980e-09	4.559327e+01	3.364951e+02
2.010000e-06	6.521149e-06	5.117475e-09	4.493396e+01	3.353573e+02
2.020000e-06	6.423152e-06	5.094966e-09	4.425871e+01	3.341290e+02
2.030000e-06	6.322975e-06	5.101050e-09	4.356844e+01	3.328001e+02
2.040000e-06	6.220443e-06	5.083000e-09	4.286195e+01	3.313684e+02
2.050000e-06	6.115588e-06	5.032792e-09	4.213944e+01	3.298398e+02
2.060000e-06	6.008658e-06	5.011416e-09	4.140264e+01	3.282266e+02
2.070000e-06	5.899740e-06	5.006448e-09	4.065214e+01	3.265458e+02
2.080000e-06	5.788572e-06	4.964697e-09	3.988614e+01	3.248155e+02
2.090000e-06	5.675206e-06	4.922698e-09	3.910499e+01	3.230514e+02
2.100000e-06	5.559699e-06	4.909019e-09	3.830909e+01	3.212639e+02
2.110000e-06	5.441898e-06	4.889397e-09	3.749738e+01	3.194556e+02
2.120000e-06	5.321935e-06	4.850077e-09	3.667078e+01	3.176202e+02
2.130000e-06	5.200130e-06	4.825515e-09	3.583148e+01	3.157429e+02
2.140000e-06	5.076564e-06	4.804756e-09	3.498005e+01	3.138019e+02
2.150000e-06	4.951018e-06	4.762198e-09	3.411498e+01	3.117717e+02
2.160000e-06	4.823629e-06	4.722202e-09	3.323720e+01	3.096264e+02
2.170000e-06	4.694633e-06	4.698791e-09	3.234835e+01	3.073434e+02
2.180000e-06	4.564089e-06	4.660980e-09	3.144884e+01	3.049067e+02
2.190000e-06	4.432045e-06	4.604631e-09	3.053899e+01	3.023088e+02
2.200000e-06	4.298298e-06	4.565456e-09	2.961741e+01	2.995510e+02
2.210000e-06	4.162868e-06	4.536659e-09	2.868423e+01	2.966428e+02
2.220000e-06	4.026017e-06	4.489549e-09	2.774126e+01	2.935990e+02
2.230000e-06	3.887727e-06	4.434527e-09	2.678837e+01	2.904360e+02
2.240000e-06	3.747928e-06	4.391670e-09	2.582509e+01	2.871674e+02
2.250000e-06	3.606525e-06	4.343772e-09	2.485075e+01	2.838001e+02
2.260000e-06	3.463703e-06	4.284414e-09	2.386663e+01	2.803312e+02
2.270000e-06	3.319727e-06	4.228186e-09	2.287457e+01	2.767456e+02
2.280000e-06	3.174576e-06	4.172028e-09	2.187440e+01	2.730167e+02
2.290000e-06	3.028289e-06	4.103992e-09	2.086642e+01	2.691082e+02
2.300000e-06	2.881082e-06	4.034313e-09	1.985209e+01	2.649771e+02
2.310000e-06	2.732945e-06	3.975291e-09	1.883135e+01	2.605791e+02
2.320000e-06	2.583609e-06	3.909611e-09	1.780235e+01	2.558724e+02
2.330000e-06	2.433220e-06	3.826875e-09	1.676610e+01	2.508226e+02
2.340000e-06	2.281970e-06	3.742622e-09	1.572391e+01	2.454047e+02
2.350000e-06	2.129917e-06	3.663436e-09	1.467619e+01	2.396037e+02
2.360000e-06	1.977200e-06	3.574472e-09	1.362389e+01	2.334122e+02
2.370000e-06	1.823924e-06	3.470793e-09	1.256774e+01	2.268255e+02
2.380000e-06	1.670062e-06	3.363332e-09	1.150756e+01	2.198353e+02
2.390000e-06	1.515602e-06	3.251890e-09	1.044325e+01	2.124211e+02
2.400000e-06	1.360639e-06	3.130324e-09	9.375478e+00	2.045430e+02
2.410000e-06	1.205248e-06	3.001542e-09	8.304756e+00	1.961350e+02
2.420000e-06	1.049385e-06	2.865951e-09	7.230783e+00	1.871017e+02
2.430000e-06	8.931522e-07	2.713200e-09	6.154262e+00	1.773184e+02
2.440000e-06	7.366264e-07	2.544076e-09	5.075722e+00	1.666364e+02
2.450000e-06	5.797838e-07	2.364501e-09	3.994998e+00	1.548923e+02
2.460000e-06	4.226911e-07	2.168145e-09	2.912552e+00	1.419214e+02
2.470000e-06	2.653481e-07	1.949180e-09	1.828380e+00	1.275753e+02
2.480000e-06	1.079011e-07	1.708896e-09	7.434920e-01	1.117391e+02
2.490000e-06	-4.952599e-08	1.449420e-09	-3.412587e-01	9.434967e+01
2.500000e-06	-2.069499e-07	1.166900e-09	-1.425988e+00	7.541063e+01
2.510000e-06	-3.642943e-07	8.601775e-10	-2.510169e+00	5.500266e+01
2.520000e-06	-5.214631e-07	5.335555e-10	-3.593140e+00	3.328825e+01
2.530000e-06	-6.784068e-07	1.888213e-10	-4.674560e+00	1.050919e+01
2.540000e-06	-8.350898e-07	-1.714668e-10	-5.754184e+00	-1.302296e+01
2.550000e-06	-9.914216e-07	-5.400198e-10	-6.831388e+00	-3.694297e+01
2.560000e-06	-1.147294e-06	-9.117384e-10	-7.905427e+00	-6.085336e+01
2.570000e-06	-1.302724e-06	-1.281391e-09	-8.976414e+00	-8.434898e+01
2.580000e-06	-1.457701e-06	-1.636882e-09	-1.004428e+01	-1.070428e+02
2.590000e-06	-1.612167e-06	-1.966835e-09	-1.110863e+01	-1.285899e+02
2.600000e-06	-1.766059e-06	-2.270890e-09	-1.216902e+01	-1.487082e+02
2.610000e-06	-1.919274e-06	-2.552321e-09	-1.322475e+01	-1.671934e+02
2.620000e-06	-2.071812e-06	-2.806394e-09	-1.427582e+01	-1.839267e+02
2.630000e-06	-2.223695e-06	-3.030755e-09	-1.532236e+01	-1.988757e+02
2.640000e-06	-2.374856e-06	-3.228659e-09	-1.636394e+01	-2.120880e+02
2.650000e-06	-2.525191e-06	-3.403774e-09	-1.739982e+01	-2.236787e+02
2.660000e-06	-2.674560e-06	-3.559462e-09	-1.842905e+01	-2.338136e+02
2.670000e-06	-2.822830e-06	-3.698950e-09	-1.945070e+01	-2.426896e+02
2.680000e-06	-2.969978e-06	-3.823755e-09	-2.046463e+01	-2.505152e+02
2.690000e-06	-3.116108e-06	-3.934839e-09	-2.147153e+01	-2.574927e+02
2.700000e-06	-3.261223e-06	-4.034576e-09	-2.247145e+01	-2.638030e+02
2.710000e-06	-3.405225e-06	-4.125548e-09	-2.346369e+01	-2.695958e+02
2.720000e-06	-3.548049e-06	-4.209354e-09	-2.444782e+01	-2.749842e+02
2.730000e-06	-3.689520e-06	-4.286112e-09	-2.542263e+01	-2.800444e+02
2.740000e-06	-3.829445e-06	-4.357287e-09	-2.638678e+01	-2.848196e+02
2.750000e-06	-3.967825e-06	-4.424443e-09	-2.734029e+01	-2.893269e+02
2.760000e-06	-4.104770e-06	-4.487492e-09	-2.828391e+01	-2.935662e+02
2.770000e-06	-4.240323e-06	-4.547303e-09	-2.921793e+01	-2.975292e+02
2.780000e-06	-4.374381e-06	-4.603608e-09	-3.014166e+01	-3.012072e+02
2.790000e-06	-4.506788e-06	-4.655804e-09	-3.105401e+01	-3.045981e+02
2.800000e-06	-4.637585e-06	-4.705973e-09	-3.195527e+01	-3.077092e+02
2.810000e-06	-4.766861e-06	-4.753319e-09	-3.284604e+01	-3.105590e+02
2.820000e-06	-4.894541e-06	-4.796032e-09	-3.372582e+01	-3.131753e+02
2.830000e-06	-5.020436e-06	-4.835318e-09	-3.459330e+01	-3.155923e+02
2.840000e-06	-5.144427e-06	-4.871777e-09	-3.544766e+01	-3.178462e+02
2.850000e-06	-5.266598e-06	-4.908237e-09	-3.628948e+01	-3.199710e+02
2.860000e-06	-5.387017e-06	-4.942060e-09	-3.711922e+01	-3.219946e+02
2.870000e-06	-5.505418e-06	-4.969592e-09	-3.793507e+01	-3.239363e+02
2.880000e-06	-5.621481e-06	-4.995305e-09	-3.873480e+01	-3.258059e+02
2.890000e-06	-5.735311e-06	-5.022137e-09	-3.951914e+01	-3.276043e+02
2.900000e-06	-5.846959e-06	-5.047205e-09	-4.028846e+01	-3.293255e+02
2.910000e-06	-5.956401e-06	-5.068732e-09	-4.104256e+01	-3.309600e+02
2.920000e-06	-6.063803e-06	-5.091138e-09	-4.178262e+01	-3.324975e+02
2.930000e-06	-6.169141e-06	-5.114253e-09	-4.250845e+01	-3.339305e+02
2.940000e-06	-6.272308e-06	-5.135036e-09	-4.321932e+01	-3.352564e+02
