# Temperatura_=_20.0
# Concentracion g/m^3_=_9000.0
# C_Vs_to_Am_M_A/Vsm_=_65563218390.804596
# pendiente_HvsI_1/m_=_3716.3
# ordenada_HvsI_A/m_=_1297.0
# frecuencia_Hz_=_301302.4709115073

Tiempo_(s)	Campo_(V.s)	Magnetizacion_(V.s)	Campo_(kA/m)	Magnetizacion_(A/m)
0.000000e+00	-8.200051e-06	-5.420544e-09	-5.697726e+01	-3.560918e+02
1.000000e-08	-8.198003e-06	-5.420631e-09	-5.696303e+01	-3.560482e+02
2.000000e-08	-8.193284e-06	-5.421624e-09	-5.693024e+01	-3.559954e+02
3.000000e-08	-8.185969e-06	-5.419457e-09	-5.687941e+01	-3.559270e+02
4.000000e-08	-8.175835e-06	-5.415561e-09	-5.680900e+01	-3.558353e+02
5.000000e-08	-8.162732e-06	-5.410965e-09	-5.671795e+01	-3.557128e+02
6.000000e-08	-8.146642e-06	-5.408496e-09	-5.660615e+01	-3.555539e+02
7.000000e-08	-8.127935e-06	-5.406729e-09	-5.647617e+01	-3.553558e+02
8.000000e-08	-8.106847e-06	-5.392254e-09	-5.632964e+01	-3.551196e+02
9.000000e-08	-8.082854e-06	-5.405593e-09	-5.616293e+01	-3.548496e+02
1.000000e-07	-8.055604e-06	-5.454004e-09	-5.597358e+01	-3.545529e+02
1.100000e-07	-8.025265e-06	-5.449233e-09	-5.576278e+01	-3.542376e+02
1.200000e-07	-7.991994e-06	-5.409680e-09	-5.553160e+01	-3.539118e+02
1.300000e-07	-7.955962e-06	-5.391733e-09	-5.528123e+01	-3.535810e+02
1.400000e-07	-7.917646e-06	-5.375554e-09	-5.501500e+01	-3.532474e+02
1.500000e-07	-7.877074e-06	-5.320503e-09	-5.473309e+01	-3.529088e+02
1.600000e-07	-7.833777e-06	-5.376494e-09	-5.443224e+01	-3.525584e+02
1.700000e-07	-7.787658e-06	-5.405431e-09	-5.411179e+01	-3.521856e+02
1.800000e-07	-7.738733e-06	-5.293873e-09	-5.377184e+01	-3.517774e+02
1.900000e-07	-7.686718e-06	-5.364883e-09	-5.341042e+01	-3.513202e+02
2.000000e-07	-7.631645e-06	-5.363129e-09	-5.302775e+01	-3.508022e+02
2.100000e-07	-7.573792e-06	-5.308858e-09	-5.262576e+01	-3.502149e+02
2.200000e-07	-7.513285e-06	-5.322856e-09	-5.220534e+01	-3.495547e+02
2.300000e-07	-7.450162e-06	-5.307162e-09	-5.176673e+01	-3.488236e+02
2.400000e-07	-7.384267e-06	-5.315573e-09	-5.130887e+01	-3.480290e+02
2.500000e-07	-7.315591e-06	-5.263123e-09	-5.083167e+01	-3.471824e+02
2.600000e-07	-7.244158e-06	-5.289678e-09	-5.033533e+01	-3.462975e+02
2.700000e-07	-7.169887e-06	-5.282373e-09	-4.981927e+01	-3.453881e+02
2.800000e-07	-7.092793e-06	-5.243194e-09	-4.928359e+01	-3.444654e+02
2.900000e-07	-7.012975e-06	-5.236030e-09	-4.872898e+01	-3.435361e+02
3.000000e-07	-6.930660e-06	-5.227063e-09	-4.815702e+01	-3.426009e+02
3.100000e-07	-6.846016e-06	-5.232628e-09	-4.756888e+01	-3.416541e+02
3.200000e-07	-6.759095e-06	-5.174647e-09	-4.696492e+01	-3.406839e+02
3.300000e-07	-6.669812e-06	-5.173986e-09	-4.634455e+01	-3.396744e+02
3.400000e-07	-6.578091e-06	-5.168503e-09	-4.570723e+01	-3.386074e+02
3.500000e-07	-6.484027e-06	-5.126876e-09	-4.505363e+01	-3.374653e+02
3.600000e-07	-6.387629e-06	-5.106941e-09	-4.438383e+01	-3.362335e+02
3.700000e-07	-6.288952e-06	-5.107244e-09	-4.369817e+01	-3.349028e+02
3.800000e-07	-6.187981e-06	-5.084183e-09	-4.299658e+01	-3.334708e+02
3.900000e-07	-6.084749e-06	-5.035966e-09	-4.227929e+01	-3.319415e+02
4.000000e-07	-5.979442e-06	-5.034449e-09	-4.154757e+01	-3.303251e+02
4.100000e-07	-5.871998e-06	-5.019284e-09	-4.080101e+01	-3.286356e+02
4.200000e-07	-5.762361e-06	-4.978405e-09	-4.003921e+01	-3.268885e+02
4.300000e-07	-5.650541e-06	-4.947735e-09	-3.926224e+01	-3.250974e+02
4.400000e-07	-5.536542e-06	-4.938947e-09	-3.847013e+01	-3.232718e+02
4.500000e-07	-5.420438e-06	-4.906740e-09	-3.766339e+01	-3.214144e+02
4.600000e-07	-5.302279e-06	-4.868016e-09	-3.684237e+01	-3.195205e+02
4.700000e-07	-5.182170e-06	-4.844147e-09	-3.600781e+01	-3.175780e+02
4.800000e-07	-5.060273e-06	-4.816776e-09	-3.516082e+01	-3.155687e+02
4.900000e-07	-4.936588e-06	-4.770664e-09	-3.430141e+01	-3.134708e+02
5.000000e-07	-4.811106e-06	-4.729758e-09	-3.342951e+01	-3.112620e+02
5.100000e-07	-4.683922e-06	-4.703850e-09	-3.254578e+01	-3.089225e+02
5.200000e-07	-4.554984e-06	-4.662927e-09	-3.164987e+01	-3.064380e+02
5.300000e-07	-4.424435e-06	-4.614838e-09	-3.074276e+01	-3.038016e+02
5.400000e-07	-4.292342e-06	-4.575210e-09	-2.982493e+01	-3.010140e+02
5.500000e-07	-4.158649e-06	-4.542813e-09	-2.889597e+01	-2.980830e+02
5.600000e-07	-4.023453e-06	-4.492879e-09	-2.795657e+01	-2.950210e+02
5.700000e-07	-3.886666e-06	-4.445205e-09	-2.700612e+01	-2.918419e+02
5.800000e-07	-3.748386e-06	-4.401268e-09	-2.604530e+01	-2.885575e+02
5.900000e-07	-3.608737e-06	-4.351935e-09	-2.507496e+01	-2.851732e+02
6.000000e-07	-3.467637e-06	-4.294637e-09	-2.409454e+01	-2.816854e+02
6.100000e-07	-3.325073e-06	-4.239757e-09	-2.310395e+01	-2.780799e+02
6.200000e-07	-3.181283e-06	-4.181809e-09	-2.210484e+01	-2.743316e+02
6.300000e-07	-3.036442e-06	-4.111473e-09	-2.109842e+01	-2.704060e+02
6.400000e-07	-2.890459e-06	-4.044089e-09	-2.008407e+01	-2.662627e+02
6.500000e-07	-2.743451e-06	-3.976671e-09	-1.906260e+01	-2.618591e+02
6.600000e-07	-2.595612e-06	-3.906977e-09	-1.803536e+01	-2.571552e+02
6.700000e-07	-2.446929e-06	-3.824865e-09	-1.700225e+01	-2.521172e+02
6.800000e-07	-2.297352e-06	-3.745114e-09	-1.596292e+01	-2.467200e+02
6.900000e-07	-2.146959e-06	-3.664512e-09	-1.491793e+01	-2.409477e+02
7.000000e-07	-1.995854e-06	-3.572207e-09	-1.386800e+01	-2.347921e+02
7.100000e-07	-1.844062e-06	-3.471709e-09	-1.281328e+01	-2.282478e+02
7.200000e-07	-1.691439e-06	-3.368506e-09	-1.175280e+01	-2.213064e+02
7.300000e-07	-1.538079e-06	-3.261002e-09	-1.068719e+01	-2.139490e+02
7.400000e-07	-1.384243e-06	-3.138441e-09	-9.618280e+00	-2.061386e+02
7.500000e-07	-1.229999e-06	-3.010640e-09	-8.546526e+00	-1.978140e+02
7.600000e-07	-1.075366e-06	-2.872357e-09	-7.472079e+00	-1.888857e+02
7.700000e-07	-9.203921e-07	-2.717469e-09	-6.395256e+00	-1.792361e+02
7.800000e-07	-7.650869e-07	-2.547349e-09	-5.316133e+00	-1.687228e+02
7.900000e-07	-6.094874e-07	-2.370228e-09	-4.234964e+00	-1.571877e+02
8.000000e-07	-4.536646e-07	-2.179942e-09	-3.152245e+00	-1.444693e+02
8.100000e-07	-2.976356e-07	-1.966054e-09	-2.068092e+00	-1.304185e+02
8.200000e-07	-1.414833e-07	-1.731244e-09	-9.830832e-01	-1.149159e+02
8.300000e-07	1.467438e-08	-1.475915e-09	1.019635e-01	-9.788915e+01
8.400000e-07	1.708620e-07	-1.197874e-09	1.187218e+00	-7.932840e+01
8.500000e-07	3.270652e-07	-8.925333e-10	2.272581e+00	-5.929731e+01
8.600000e-07	4.831127e-07	-5.687472e-10	3.356862e+00	-3.793891e+01
8.700000e-07	6.389031e-07	-2.294451e-10	4.439356e+00	-1.547481e+01
8.800000e-07	7.943859e-07	1.258545e-10	5.519713e+00	7.802571e+00
8.900000e-07	9.495257e-07	4.934600e-10	6.597688e+00	3.154427e+01
9.000000e-07	1.104333e-06	8.625064e-10	7.673351e+00	5.536447e+01
9.100000e-07	1.258822e-06	1.225861e-09	8.746804e+00	7.886395e+01
9.200000e-07	1.412956e-06	1.577779e-09	9.817788e+00	1.016550e+02
9.300000e-07	1.566627e-06	1.907735e-09	1.088555e+01	1.233858e+02
9.400000e-07	1.719688e-06	2.212803e-09	1.194908e+01	1.437611e+02
9.500000e-07	1.872025e-06	2.491986e-09	1.300759e+01	1.625590e+02
9.600000e-07	2.023612e-06	2.746716e-09	1.406088e+01	1.796402e+02
9.700000e-07	2.174439e-06	2.973988e-09	1.510888e+01	1.949509e+02
9.800000e-07	2.324457e-06	3.176876e-09	1.615126e+01	2.085181e+02
9.900000e-07	2.473695e-06	3.356341e-09	1.718823e+01	2.204396e+02
1.000000e-06	2.622030e-06	3.512934e-09	1.821892e+01	2.308678e+02
1.010000e-06	2.769353e-06	3.652345e-09	1.924258e+01	2.399918e+02
1.020000e-06	2.915764e-06	3.776864e-09	2.025990e+01	2.480176e+02
1.030000e-06	3.061178e-06	3.888112e-09	2.127030e+01	2.551502e+02
1.040000e-06	3.205453e-06	3.985348e-09	2.227278e+01	2.615774e+02
1.050000e-06	3.348551e-06	4.076593e-09	2.326708e+01	2.674588e+02
1.060000e-06	3.490461e-06	4.160403e-09	2.425313e+01	2.729187e+02
1.070000e-06	3.631049e-06	4.237815e-09	2.523000e+01	2.780446e+02
1.080000e-06	3.770224e-06	4.310502e-09	2.619704e+01	2.828891e+02
1.090000e-06	3.907998e-06	4.378650e-09	2.715435e+01	2.874765e+02
1.100000e-06	4.044243e-06	4.442340e-09	2.810103e+01	2.918108e+02
1.110000e-06	4.178913e-06	4.499428e-09	2.903677e+01	2.958842e+02
1.120000e-06	4.312122e-06	4.553761e-09	2.996236e+01	2.996864e+02
1.130000e-06	4.443864e-06	4.603718e-09	3.087776e+01	3.032108e+02
1.140000e-06	4.574055e-06	4.649867e-09	3.178238e+01	3.064597e+02
1.150000e-06	4.702548e-06	4.693493e-09	3.267520e+01	3.094459e+02
1.160000e-06	4.829317e-06	4.737060e-09	3.355604e+01	3.121929e+02
1.170000e-06	4.954442e-06	4.778474e-09	3.442546e+01	3.147315e+02
1.180000e-06	5.077923e-06	4.815702e-09	3.528346e+01	3.170970e+02
1.190000e-06	5.199679e-06	4.849536e-09	3.612946e+01	3.193241e+02
1.200000e-06	5.319506e-06	4.882391e-09	3.696208e+01	3.214431e+02
1.210000e-06	5.437294e-06	4.913761e-09	3.778051e+01	3.234769e+02
1.220000e-06	5.552983e-06	4.940930e-09	3.858436e+01	3.254394e+02
1.230000e-06	5.666441e-06	4.968247e-09	3.937272e+01	3.273352e+02
1.240000e-06	5.777741e-06	4.995201e-09	4.014608e+01	3.291611e+02
1.250000e-06	5.887046e-06	5.019998e-09	4.090557e+01	3.309086e+02
1.260000e-06	5.994373e-06	5.043197e-09	4.165132e+01	3.325670e+02
1.270000e-06	6.099543e-06	5.065457e-09	4.238209e+01	3.341268e+02
1.280000e-06	6.202441e-06	5.087807e-09	4.309706e+01	3.355820e+02
1.290000e-06	6.303186e-06	5.109011e-09	4.379708e+01	3.369319e+02
1.300000e-06	6.401723e-06	5.129040e-09	4.448176e+01	3.381821e+02
1.310000e-06	6.497855e-06	5.147089e-09	4.514972e+01	3.393433e+02
1.320000e-06	6.591601e-06	5.165399e-09	4.580110e+01	3.404304e+02
1.330000e-06	6.683136e-06	5.182911e-09	4.643713e+01	3.414595e+02
1.340000e-06	6.772381e-06	5.198970e-09	4.705723e+01	3.424462e+02
1.350000e-06	6.859230e-06	5.214963e-09	4.766069e+01	3.434027e+02
1.360000e-06	6.943770e-06	5.230301e-09	4.824811e+01	3.443366e+02
1.370000e-06	7.025860e-06	5.246088e-09	4.881851e+01	3.452500e+02
1.380000e-06	7.105335e-06	5.261280e-09	4.937074e+01	3.461398e+02
1.390000e-06	7.182241e-06	5.274860e-09	4.990511e+01	3.469988e+02
1.400000e-06	7.256432e-06	5.287686e-09	5.042061e+01	3.478173e+02
1.410000e-06	7.327861e-06	5.298918e-09	5.091693e+01	3.485856e+02
1.420000e-06	7.396787e-06	5.308159e-09	5.139586e+01	3.492961e+02
1.430000e-06	7.463068e-06	5.316692e-09	5.185641e+01	3.499446e+02
1.440000e-06	7.526592e-06	5.325675e-09	5.229780e+01	3.505316e+02
1.450000e-06	7.587570e-06	5.336370e-09	5.272150e+01	3.510624e+02
1.460000e-06	7.645927e-06	5.347630e-09	5.312699e+01	3.515463e+02
1.470000e-06	7.701560e-06	5.358383e-09	5.351354e+01	3.519951e+02
1.480000e-06	7.754282e-06	5.368801e-09	5.387988e+01	3.524213e+02
1.490000e-06	7.803771e-06	5.377267e-09	5.422375e+01	3.528361e+02
1.500000e-06	7.850228e-06	5.383768e-09	5.454655e+01	3.532472e+02
1.510000e-06	7.894060e-06	5.390343e-09	5.485111e+01	3.536582e+02
1.520000e-06	7.935082e-06	5.397606e-09	5.513615e+01	3.540677e+02
1.530000e-06	7.973203e-06	5.403436e-09	5.540103e+01	3.544696e+02
1.540000e-06	8.008641e-06	5.408045e-09	5.564727e+01	3.548545e+02
1.550000e-06	8.041268e-06	5.413399e-09	5.587397e+01	3.552109e+02
1.560000e-06	8.071046e-06	5.420636e-09	5.608088e+01	3.555277e+02
1.570000e-06	8.098055e-06	5.427999e-09	5.626855e+01	3.557954e+02
1.580000e-06	8.122089e-06	5.433478e-09	5.643555e+01	3.560084e+02
1.590000e-06	8.143281e-06	5.437090e-09	5.658280e+01	3.561650e+02
1.600000e-06	8.161776e-06	5.440471e-09	5.671131e+01	3.562682e+02
1.610000e-06	8.177301e-06	5.442818e-09	5.681919e+01	3.563251e+02
1.620000e-06	8.189761e-06	5.443714e-09	5.690576e+01	3.563451e+02
1.630000e-06	8.199041e-06	5.444175e-09	5.697024e+01	3.563387e+02
1.640000e-06	8.205281e-06	5.445500e-09	5.701360e+01	3.563156e+02
1.650000e-06	8.208722e-06	5.447454e-09	5.703751e+01	3.562831e+02
1.660000e-06	8.209296e-06	5.448183e-09	5.704150e+01	3.562449e+02
1.670000e-06	8.207071e-06	5.449046e-09	5.702604e+01	3.562011e+02
1.680000e-06	8.202197e-06	5.446545e-09	5.699217e+01	3.561479e+02
1.690000e-06	8.194626e-06	5.445699e-09	5.693957e+01	3.560788e+02
1.700000e-06	8.184308e-06	5.443564e-09	5.686787e+01	3.559861e+02
1.710000e-06	8.171118e-06	5.440288e-09	5.677622e+01	3.558623e+02
1.720000e-06	8.155068e-06	5.437774e-09	5.666470e+01	3.557020e+02
1.730000e-06	8.136558e-06	5.436639e-09	5.653609e+01	3.555025e+02
1.740000e-06	8.115588e-06	5.441862e-09	5.639038e+01	3.552650e+02
1.750000e-06	8.091382e-06	5.371904e-09	5.622218e+01	3.549939e+02
1.760000e-06	8.063337e-06	5.349030e-09	5.602732e+01	3.546963e+02
1.770000e-06	8.031758e-06	5.379220e-09	5.580789e+01	3.543806e+02
1.780000e-06	7.997566e-06	5.391278e-09	5.557031e+01	3.540544e+02
1.790000e-06	7.961173e-06	5.408628e-09	5.531744e+01	3.537235e+02
1.800000e-06	7.922530e-06	5.478497e-09	5.504893e+01	3.533898e+02
1.810000e-06	7.881692e-06	5.385432e-09	5.476518e+01	3.530509e+02
1.820000e-06	7.838228e-06	5.354487e-09	5.446317e+01	3.526999e+02
1.830000e-06	7.791975e-06	5.434243e-09	5.414179e+01	3.523260e+02
1.840000e-06	7.742917e-06	5.338499e-09	5.380091e+01	3.519163e+02
1.850000e-06	7.690778e-06	5.402030e-09	5.343863e+01	3.514571e+02
1.860000e-06	7.635691e-06	5.361398e-09	5.305586e+01	3.509367e+02
1.870000e-06	7.577773e-06	5.324029e-09	5.265343e+01	3.503468e+02
1.880000e-06	7.517208e-06	5.354667e-09	5.223259e+01	3.496840e+02
1.890000e-06	7.453970e-06	5.302701e-09	5.179319e+01	3.489505e+02
1.900000e-06	7.387816e-06	5.366189e-09	5.133353e+01	3.481538e+02
1.910000e-06	7.318837e-06	5.263070e-09	5.085423e+01	3.473056e+02
1.920000e-06	7.247105e-06	5.257445e-09	5.035581e+01	3.464196e+02
1.930000e-06	7.172761e-06	5.310992e-09	4.983924e+01	3.455095e+02
1.940000e-06	7.095593e-06	5.265875e-09	4.930304e+01	3.445865e+02
1.950000e-06	7.015579e-06	5.264588e-09	4.874707e+01	3.436570e+02
1.960000e-06	6.933135e-06	5.193095e-09	4.817422e+01	3.427215e+02
1.970000e-06	6.848206e-06	5.246711e-09	4.758410e+01	3.417740e+02
1.980000e-06	6.760755e-06	5.192404e-09	4.697645e+01	3.408027e+02
1.990000e-06	6.670911e-06	5.177177e-09	4.635218e+01	3.397915e+02
2.000000e-06	6.578765e-06	5.191538e-09	4.571191e+01	3.387221e+02
2.010000e-06	6.484261e-06	5.139453e-09	4.505526e+01	3.375769e+02
2.020000e-06	6.387434e-06	5.130473e-09	4.438247e+01	3.363417e+02
2.030000e-06	6.288445e-06	5.102773e-09	4.369465e+01	3.350074e+02
2.040000e-06	6.187196e-06	5.123092e-09	4.299113e+01	3.335718e+02
2.050000e-06	6.083602e-06	5.055654e-09	4.227132e+01	3.320391e+02
2.060000e-06	5.977884e-06	5.038990e-09	4.153675e+01	3.304198e+02
2.070000e-06	5.870195e-06	5.029497e-09	4.078848e+01	3.287280e+02
2.080000e-06	5.760354e-06	5.002786e-09	4.002526e+01	3.269791e+02
2.090000e-06	5.648328e-06	4.960204e-09	3.924686e+01	3.251867e+02
2.100000e-06	5.534180e-06	4.932692e-09	3.845372e+01	3.233599e+02
2.110000e-06	5.417840e-06	4.920958e-09	3.764534e+01	3.215013e+02
2.120000e-06	5.299344e-06	4.870023e-09	3.682198e+01	3.196059e+02
2.130000e-06	5.178877e-06	4.843210e-09	3.598493e+01	3.176614e+02
2.140000e-06	5.056611e-06	4.818030e-09	3.513537e+01	3.156493e+02
2.150000e-06	4.932539e-06	4.794685e-09	3.427327e+01	3.135478e+02
2.160000e-06	4.806639e-06	4.746302e-09	3.339847e+01	3.113346e+02
2.170000e-06	4.679061e-06	4.718459e-09	3.251201e+01	3.089901e+02
2.180000e-06	4.549848e-06	4.685357e-09	3.161418e+01	3.065003e+02
2.190000e-06	4.418988e-06	4.640746e-09	3.070491e+01	3.038584e+02
2.200000e-06	4.286579e-06	4.592621e-09	2.978488e+01	3.010655e+02
2.210000e-06	4.152619e-06	4.556838e-09	2.885407e+01	2.981295e+02
2.220000e-06	4.017180e-06	4.512697e-09	2.791299e+01	2.950630e+02
2.230000e-06	3.880289e-06	4.457934e-09	2.696181e+01	2.918801e+02
2.240000e-06	3.741917e-06	4.413390e-09	2.600035e+01	2.885920e+02
2.250000e-06	3.602077e-06	4.365626e-09	2.502869e+01	2.852041e+02
2.260000e-06	3.460859e-06	4.307708e-09	2.404744e+01	2.817124e+02
2.270000e-06	3.318433e-06	4.244967e-09	2.305781e+01	2.781023e+02
2.280000e-06	3.174776e-06	4.192555e-09	2.205963e+01	2.743483e+02
2.290000e-06	3.029840e-06	4.133091e-09	2.105255e+01	2.704156e+02
2.300000e-06	2.883787e-06	4.065576e-09	2.003771e+01	2.662637e+02
2.310000e-06	2.736802e-06	3.998033e-09	1.901641e+01	2.618501e+02
2.320000e-06	2.588918e-06	3.930590e-09	1.798885e+01	2.571348e+02
2.330000e-06	2.440144e-06	3.850779e-09	1.695511e+01	2.520843e+02
2.340000e-06	2.290458e-06	3.766497e-09	1.591503e+01	2.466738e+02
2.350000e-06	2.139904e-06	3.685560e-09	1.486892e+01	2.408880e+02
2.360000e-06	1.988660e-06	3.597999e-09	1.381801e+01	2.347186e+02
2.370000e-06	1.836843e-06	3.496113e-09	1.276313e+01	2.281602e+02
2.380000e-06	1.684389e-06	3.390321e-09	1.170382e+01	2.212044e+02
2.390000e-06	1.531247e-06	3.282150e-09	1.063972e+01	2.138315e+02
2.400000e-06	1.377504e-06	3.162808e-09	9.571454e+00	2.060040e+02
2.410000e-06	1.223273e-06	3.031472e-09	8.499798e+00	1.976595e+02
2.420000e-06	1.068613e-06	2.894146e-09	7.425154e+00	1.887077e+02
2.430000e-06	9.135591e-07	2.746509e-09	6.347777e+00	1.790297e+02
2.440000e-06	7.582366e-07	2.580463e-09	5.268534e+00	1.684827e+02
2.450000e-06	6.027046e-07	2.399875e-09	4.187835e+00	1.569081e+02
2.460000e-06	4.469639e-07	2.205199e-09	3.105686e+00	1.441446e+02
2.470000e-06	2.910319e-07	1.991538e-09	2.022207e+00	1.300437e+02
2.480000e-06	1.349625e-07	1.756868e-09	9.377740e-01	1.144876e+02
2.490000e-06	-2.109145e-08	1.502321e-09	-1.465519e-01	9.740579e+01
2.500000e-06	-1.771100e-07	1.224446e-09	-1.230632e+00	7.879095e+01
2.510000e-06	-3.330763e-07	9.206447e-10	-2.314349e+00	5.870949e+01
2.520000e-06	-4.888525e-07	5.961423e-10	-3.396745e+00	3.730732e+01
2.530000e-06	-6.444156e-07	2.549577e-10	-4.477659e+00	1.480874e+01
2.540000e-06	-7.997530e-07	-1.008699e-10	-5.557007e+00	-8.491531e+00
2.550000e-06	-9.548439e-07	-4.680485e-10	-6.634640e+00	-3.224284e+01
2.560000e-06	-1.109606e-06	-8.392655e-10	-7.709993e+00	-5.605849e+01
2.570000e-06	-1.263965e-06	-1.204937e-09	-8.782541e+00	-7.953921e+01
2.580000e-06	-1.417886e-06	-1.557953e-09	-9.852042e+00	-1.022982e+02
2.590000e-06	-1.571281e-06	-1.891181e-09	-1.091789e+01	-1.239852e+02
2.600000e-06	-1.724060e-06	-2.200462e-09	-1.197946e+01	-1.443076e+02
2.610000e-06	-1.876127e-06	-2.486141e-09	-1.303609e+01	-1.630461e+02
2.620000e-06	-2.027508e-06	-2.744461e-09	-1.408794e+01	-1.800646e+02
2.630000e-06	-2.178277e-06	-2.972288e-09	-1.513554e+01	-1.953120e+02
2.640000e-06	-2.328334e-06	-3.173955e-09	-1.617820e+01	-2.088185e+02
2.650000e-06	-2.477528e-06	-3.354683e-09	-1.721487e+01	-2.206837e+02
2.660000e-06	-2.625767e-06	-3.515598e-09	-1.824489e+01	-2.310619e+02
2.670000e-06	-2.773011e-06	-3.657146e-09	-1.926800e+01	-2.401431e+02
2.680000e-06	-2.919298e-06	-3.784051e-09	-2.028446e+01	-2.481336e+02
2.690000e-06	-3.064628e-06	-3.899064e-09	-2.129427e+01	-2.552379e+02
2.700000e-06	-3.208858e-06	-4.002173e-09	-2.229644e+01	-2.616431e+02
2.710000e-06	-3.351885e-06	-4.095311e-09	-2.329025e+01	-2.675075e+02
2.720000e-06	-3.493595e-06	-4.180851e-09	-2.427491e+01	-2.729543e+02
2.730000e-06	-3.633868e-06	-4.258084e-09	-2.524958e+01	-2.780693e+02
2.740000e-06	-3.772757e-06	-4.329314e-09	-2.621463e+01	-2.829044e+02
2.750000e-06	-3.910355e-06	-4.397997e-09	-2.717073e+01	-2.874829e+02
2.760000e-06	-4.046498e-06	-4.462822e-09	-2.811670e+01	-2.918080e+02
2.770000e-06	-4.181101e-06	-4.523278e-09	-2.905198e+01	-2.958720e+02
2.780000e-06	-4.314236e-06	-4.579262e-09	-2.997705e+01	-2.996643e+02
2.790000e-06	-4.445828e-06	-4.633277e-09	-3.089141e+01	-3.031788e+02
2.800000e-06	-4.575927e-06	-4.685811e-09	-3.179539e+01	-3.064180e+02
2.810000e-06	-4.704480e-06	-4.734401e-09	-3.268862e+01	-3.093953e+02
2.820000e-06	-4.831305e-06	-4.778242e-09	-3.356986e+01	-3.121342e+02
2.830000e-06	-4.956394e-06	-4.820710e-09	-3.443902e+01	-3.146661e+02
2.840000e-06	-5.079754e-06	-4.862037e-09	-3.529618e+01	-3.170261e+02
2.850000e-06	-5.201403e-06	-4.900288e-09	-3.614145e+01	-3.192488e+02
2.860000e-06	-5.321203e-06	-4.934170e-09	-3.697387e+01	-3.213644e+02
2.870000e-06	-5.438812e-06	-4.963697e-09	-3.779106e+01	-3.233956e+02
2.880000e-06	-5.554140e-06	-4.991281e-09	-3.859241e+01	-3.253557e+02
2.890000e-06	-5.667225e-06	-5.018642e-09	-3.937817e+01	-3.272491e+02
2.900000e-06	-5.778136e-06	-5.045694e-09	-4.014882e+01	-3.290723e+02
2.910000e-06	-5.887060e-06	-5.070103e-09	-4.090567e+01	-3.308168e+02
2.920000e-06	-5.994076e-06	-5.093340e-09	-4.164926e+01	-3.324719e+02
2.930000e-06	-6.099019e-06	-5.118101e-09	-4.237845e+01	-3.340281e+02
2.940000e-06	-6.201673e-06	-5.142332e-09	-4.309173e+01	-3.354795e+02
