# Temperatura_=_20.0
# Concentracion g/m^3_=_12600.0
# C_Vs_to_Am_M_A/Vsm_=_65563218390.804596
# pendiente_HvsI_1/m_=_3716.3
# ordenada_HvsI_A/m_=_1297.0
# frecuencia_Hz_=_134920.08830994475

Tiempo_(s)	Campo_(V.s)	Magnetizacion_(V.s)	Campo_(kA/m)	Magnetizacion_(A/m)
0.000000e+00	-2.603720e-06	-5.786782e-11	-1.984704e+01	-4.843932e+00
1.000000e-08	-2.603875e-06	-7.120634e-11	-1.984821e+01	-4.833544e+00
2.000000e-08	-2.603926e-06	-8.477895e-11	-1.984861e+01	-4.815532e+00
3.000000e-08	-2.603851e-06	-7.708731e-11	-1.984803e+01	-4.789638e+00
4.000000e-08	-2.603628e-06	-5.279165e-11	-1.984633e+01	-4.755743e+00
5.000000e-08	-2.603272e-06	-2.482210e-11	-1.984362e+01	-4.713866e+00
6.000000e-08	-2.602771e-06	-6.501532e-11	-1.983980e+01	-4.664170e+00
7.000000e-08	-2.602088e-06	-5.185245e-11	-1.983459e+01	-4.606955e+00
8.000000e-08	-2.601193e-06	8.714586e-12	-1.982777e+01	-4.542656e+00
9.000000e-08	-2.600133e-06	-2.984909e-12	-1.981970e+01	-4.471837e+00
1.000000e-07	-2.598854e-06	2.442747e-11	-1.980995e+01	-4.395175e+00
1.100000e-07	-2.597370e-06	-2.928357e-11	-1.979863e+01	-4.313448e+00
1.200000e-07	-2.595619e-06	-1.017140e-10	-1.978529e+01	-4.227522e+00
1.300000e-07	-2.593478e-06	-1.053519e-10	-1.976897e+01	-4.138331e+00
1.400000e-07	-2.590886e-06	-5.173128e-11	-1.974921e+01	-4.046859e+00
1.500000e-07	-2.587885e-06	-6.136931e-11	-1.972633e+01	-3.954119e+00
1.600000e-07	-2.584616e-06	-6.230751e-11	-1.970141e+01	-3.861134e+00
1.700000e-07	-2.581135e-06	-2.753065e-11	-1.967488e+01	-3.768918e+00
1.800000e-07	-2.577449e-06	-1.802128e-11	-1.964678e+01	-3.678451e+00
1.900000e-07	-2.573609e-06	-4.367879e-11	-1.961751e+01	-3.590668e+00
2.000000e-07	-2.569680e-06	-7.146699e-11	-1.958756e+01	-3.506434e+00
2.100000e-07	-2.565699e-06	-1.715555e-11	-1.955722e+01	-3.426532e+00
2.200000e-07	-2.561669e-06	2.365903e-11	-1.952650e+01	-3.351651e+00
2.300000e-07	-2.557487e-06	9.966302e-12	-1.949462e+01	-3.282371e+00
2.400000e-07	-2.553180e-06	-6.479299e-11	-1.946179e+01	-3.219157e+00
2.500000e-07	-2.548763e-06	-6.549247e-11	-1.942812e+01	-3.162350e+00
2.600000e-07	-2.544166e-06	-3.519968e-11	-1.939308e+01	-3.112169e+00
2.700000e-07	-2.539397e-06	-1.331944e-11	-1.935673e+01	-3.068702e+00
2.800000e-07	-2.534472e-06	-4.822328e-11	-1.931919e+01	-3.031919e+00
2.900000e-07	-2.529387e-06	-9.008470e-11	-1.928043e+01	-3.001668e+00
3.000000e-07	-2.524181e-06	-7.735255e-11	-1.924075e+01	-2.977685e+00
3.100000e-07	-2.518789e-06	-2.751435e-11	-1.919964e+01	-2.959606e+00
3.200000e-07	-2.513129e-06	-2.865074e-11	-1.915650e+01	-2.946973e+00
3.300000e-07	-2.507309e-06	-8.481688e-11	-1.911213e+01	-2.939251e+00
3.400000e-07	-2.501354e-06	-9.001189e-11	-1.906674e+01	-2.935841e+00
3.500000e-07	-2.495223e-06	-2.784523e-11	-1.902001e+01	-2.936093e+00
3.600000e-07	-2.488922e-06	-8.437685e-12	-1.897198e+01	-2.939322e+00
3.700000e-07	-2.482415e-06	-8.017789e-11	-1.892238e+01	-2.944824e+00
3.800000e-07	-2.475689e-06	-1.169470e-10	-1.887111e+01	-2.951890e+00
3.900000e-07	-2.468831e-06	-5.541047e-11	-1.881884e+01	-2.959823e+00
4.000000e-07	-2.461851e-06	-2.115556e-12	-1.876563e+01	-2.967944e+00
4.100000e-07	-2.454672e-06	-5.210340e-11	-1.871091e+01	-2.975615e+00
4.200000e-07	-2.447251e-06	-1.081042e-10	-1.865434e+01	-2.982239e+00
4.300000e-07	-2.439637e-06	-7.476439e-11	-1.859630e+01	-2.987277e+00
4.400000e-07	-2.431913e-06	-1.591589e-11	-1.853742e+01	-2.990251e+00
4.500000e-07	-2.424072e-06	-3.673119e-11	-1.847766e+01	-2.990751e+00
4.600000e-07	-2.416135e-06	-9.149608e-11	-1.841716e+01	-2.988440e+00
4.700000e-07	-2.408148e-06	-9.372404e-11	-1.835627e+01	-2.983053e+00
4.800000e-07	-2.400064e-06	-5.572629e-11	-1.829465e+01	-2.974399e+00
4.900000e-07	-2.391850e-06	-4.719315e-11	-1.823204e+01	-2.962360e+00
5.000000e-07	-2.383502e-06	-7.000691e-11	-1.816841e+01	-2.946885e+00
5.100000e-07	-2.375052e-06	-8.647503e-11	-1.810400e+01	-2.927990e+00
5.200000e-07	-2.366425e-06	-7.890208e-11	-1.803824e+01	-2.905749e+00
5.300000e-07	-2.357569e-06	-5.720732e-11	-1.797073e+01	-2.880290e+00
5.400000e-07	-2.348533e-06	-3.931811e-11	-1.790185e+01	-2.851784e+00
5.500000e-07	-2.339158e-06	-5.188493e-11	-1.783039e+01	-2.820443e+00
5.600000e-07	-2.329425e-06	-8.184058e-11	-1.775620e+01	-2.786509e+00
5.700000e-07	-2.319472e-06	-7.769288e-11	-1.768034e+01	-2.750246e+00
5.800000e-07	-2.309261e-06	-3.343763e-11	-1.760250e+01	-2.711932e+00
5.900000e-07	-2.298828e-06	-2.497773e-11	-1.752297e+01	-2.671857e+00
6.000000e-07	-2.288107e-06	-7.547788e-11	-1.744126e+01	-2.630308e+00
6.100000e-07	-2.277099e-06	-9.814531e-11	-1.735734e+01	-2.587570e+00
6.200000e-07	-2.265895e-06	-4.779845e-11	-1.727194e+01	-2.543918e+00
6.300000e-07	-2.254462e-06	-1.051404e-11	-1.718479e+01	-2.499611e+00
6.400000e-07	-2.242866e-06	-4.704525e-11	-1.709640e+01	-2.454893e+00
6.500000e-07	-2.231135e-06	-8.586888e-11	-1.700698e+01	-2.409984e+00
6.600000e-07	-2.219204e-06	-6.017280e-11	-1.691603e+01	-2.365085e+00
6.700000e-07	-2.207133e-06	-1.944011e-11	-1.682402e+01	-2.320371e+00
6.800000e-07	-2.194944e-06	-2.758044e-11	-1.673111e+01	-2.275993e+00
6.900000e-07	-2.182611e-06	-6.070053e-11	-1.663710e+01	-2.232081e+00
7.000000e-07	-2.170163e-06	-6.642217e-11	-1.654221e+01	-2.188739e+00
7.100000e-07	-2.157502e-06	-3.672295e-11	-1.644571e+01	-2.146048e+00
7.200000e-07	-2.144621e-06	-9.086738e-12	-1.634752e+01	-2.104072e+00
7.300000e-07	-2.131503e-06	-1.789895e-11	-1.624753e+01	-2.062854e+00
7.400000e-07	-2.118172e-06	-5.059211e-11	-1.614591e+01	-2.022418e+00
7.500000e-07	-2.104733e-06	-5.090848e-11	-1.604347e+01	-1.982775e+00
7.600000e-07	-2.091146e-06	-1.433467e-11	-1.593990e+01	-1.943921e+00
7.700000e-07	-2.077411e-06	-5.423579e-12	-1.583521e+01	-1.905839e+00
7.800000e-07	-2.063612e-06	-4.488763e-11	-1.573003e+01	-1.868501e+00
7.900000e-07	-2.049739e-06	-6.461774e-11	-1.562428e+01	-1.831870e+00
8.000000e-07	-2.035723e-06	-3.529930e-11	-1.551744e+01	-1.795898e+00
8.100000e-07	-2.021542e-06	-1.384783e-11	-1.540934e+01	-1.760530e+00
8.200000e-07	-2.007169e-06	-3.449310e-11	-1.529979e+01	-1.725704e+00
8.300000e-07	-1.992595e-06	-5.070829e-11	-1.518869e+01	-1.691349e+00
8.400000e-07	-1.977833e-06	-3.051562e-11	-1.507617e+01	-1.657389e+00
8.500000e-07	-1.962932e-06	-7.346969e-12	-1.496258e+01	-1.623740e+00
8.600000e-07	-1.947843e-06	-1.367281e-11	-1.484757e+01	-1.590315e+00
8.700000e-07	-1.932494e-06	-3.091150e-11	-1.473057e+01	-1.557020e+00
8.800000e-07	-1.916992e-06	-2.951480e-11	-1.461240e+01	-1.523756e+00
8.900000e-07	-1.901268e-06	-1.437908e-11	-1.449255e+01	-1.490423e+00
9.000000e-07	-1.885300e-06	-9.237609e-12	-1.437083e+01	-1.456918e+00
9.100000e-07	-1.869153e-06	-1.632258e-11	-1.424774e+01	-1.423139e+00
9.200000e-07	-1.852898e-06	-1.897248e-11	-1.412385e+01	-1.388985e+00
9.300000e-07	-1.836536e-06	-1.183415e-11	-1.399912e+01	-1.354360e+00
9.400000e-07	-1.819997e-06	-4.372436e-12	-1.387305e+01	-1.319175e+00
9.500000e-07	-1.803233e-06	-6.148138e-12	-1.374527e+01	-1.283351e+00
9.600000e-07	-1.786321e-06	-1.380742e-11	-1.361635e+01	-1.246821e+00
9.700000e-07	-1.769363e-06	-1.738096e-11	-1.348709e+01	-1.209537e+00
9.800000e-07	-1.752324e-06	-1.332123e-11	-1.335721e+01	-1.171468e+00
9.900000e-07	-1.735125e-06	-9.587362e-12	-1.322611e+01	-1.132606e+00
1.000000e-06	-1.717774e-06	-1.154073e-11	-1.309385e+01	-1.092970e+00
1.010000e-06	-1.700422e-06	-1.434337e-11	-1.296158e+01	-1.052605e+00
1.020000e-06	-1.682921e-06	-1.222314e-11	-1.282818e+01	-1.011588e+00
1.030000e-06	-1.665294e-06	-6.925440e-12	-1.269382e+01	-9.700282e-01
1.040000e-06	-1.647640e-06	-4.077176e-12	-1.255925e+01	-9.280660e-01
1.050000e-06	-1.629942e-06	-7.389295e-12	-1.242434e+01	-8.858763e-01
1.060000e-06	-1.612170e-06	-1.225809e-11	-1.228888e+01	-8.436657e-01
1.070000e-06	-1.594309e-06	-1.334343e-11	-1.215273e+01	-8.016717e-01
1.080000e-06	-1.576353e-06	-1.169272e-11	-1.201586e+01	-7.601603e-01
1.090000e-06	-1.558258e-06	-9.852226e-12	-1.187793e+01	-7.194222e-01
1.100000e-06	-1.540061e-06	-1.192412e-11	-1.173922e+01	-6.797686e-01
1.110000e-06	-1.521742e-06	-1.588018e-11	-1.159958e+01	-6.415263e-01
1.120000e-06	-1.503373e-06	-1.142234e-11	-1.145957e+01	-6.050311e-01
1.130000e-06	-1.484806e-06	-2.659502e-12	-1.131804e+01	-5.706218e-01
1.140000e-06	-1.466042e-06	-9.137109e-13	-1.117501e+01	-5.386329e-01
1.150000e-06	-1.447228e-06	-8.021187e-12	-1.103159e+01	-5.093867e-01
1.160000e-06	-1.428223e-06	-1.172028e-11	-1.088673e+01	-4.831858e-01
1.170000e-06	-1.409037e-06	-5.224660e-12	-1.074048e+01	-4.603056e-01
1.180000e-06	-1.389749e-06	-3.141419e-12	-1.059346e+01	-4.409862e-01
1.190000e-06	-1.370409e-06	-9.085070e-12	-1.044604e+01	-4.254255e-01
1.200000e-06	-1.350933e-06	-1.412878e-11	-1.029758e+01	-4.137730e-01
1.210000e-06	-1.331330e-06	-1.186998e-11	-1.014815e+01	-4.061230e-01
1.220000e-06	-1.311653e-06	-5.747438e-12	-9.998162e+00	-4.025110e-01
1.230000e-06	-1.291868e-06	-4.897451e-12	-9.847351e+00	-4.029088e-01
1.240000e-06	-1.272012e-06	-8.468257e-12	-9.695999e+00	-4.072230e-01
1.250000e-06	-1.252124e-06	-9.034529e-12	-9.544403e+00	-4.152932e-01
1.260000e-06	-1.232265e-06	-4.466611e-12	-9.393022e+00	-4.268928e-01
1.270000e-06	-1.212381e-06	-3.397172e-12	-9.241457e+00	-4.417303e-01
1.280000e-06	-1.192446e-06	-8.142712e-12	-9.089499e+00	-4.594531e-01
1.290000e-06	-1.172491e-06	-1.280029e-11	-8.937391e+00	-4.796520e-01
1.300000e-06	-1.152491e-06	-1.224233e-11	-8.784939e+00	-5.018670e-01
1.310000e-06	-1.132437e-06	-1.012301e-11	-8.632078e+00	-5.255948e-01
1.320000e-06	-1.112359e-06	-1.122228e-11	-8.479033e+00	-5.502974e-01
1.330000e-06	-1.092234e-06	-1.391260e-11	-8.325632e+00	-5.754110e-01
1.340000e-06	-1.072061e-06	-1.350199e-11	-8.171859e+00	-6.003562e-01
1.350000e-06	-1.051875e-06	-1.285905e-11	-8.017990e+00	-6.245486e-01
1.360000e-06	-1.031693e-06	-1.313899e-11	-7.864149e+00	-6.474096e-01
1.370000e-06	-1.011488e-06	-1.465879e-11	-7.710140e+00	-6.683767e-01
1.380000e-06	-9.912226e-07	-1.681871e-11	-7.555662e+00	-6.869146e-01
1.390000e-06	-9.708668e-07	-1.802555e-11	-7.400499e+00	-7.025249e-01
1.400000e-06	-9.504761e-07	-1.675505e-11	-7.245070e+00	-7.147556e-01
1.410000e-06	-9.300662e-07	-1.367090e-11	-7.089494e+00	-7.232089e-01
1.420000e-06	-9.095721e-07	-9.113140e-12	-6.933276e+00	-7.275492e-01
1.430000e-06	-8.889808e-07	-4.256715e-12	-6.776318e+00	-7.275083e-01
1.440000e-06	-8.682072e-07	-3.932098e-12	-6.617969e+00	-7.228901e-01
1.450000e-06	-8.474181e-07	-6.458751e-12	-6.459503e+00	-7.135736e-01
1.460000e-06	-8.266929e-07	-9.740123e-12	-6.301524e+00	-6.995138e-01
1.470000e-06	-8.059366e-07	-1.095572e-11	-6.143307e+00	-6.807421e-01
1.480000e-06	-7.851320e-07	-1.386573e-11	-5.984723e+00	-6.573635e-01
1.490000e-06	-7.642228e-07	-1.592149e-11	-5.825341e+00	-6.295540e-01
1.500000e-06	-7.432482e-07	-1.370626e-11	-5.665460e+00	-5.975552e-01
1.510000e-06	-7.221599e-07	-1.117325e-11	-5.504714e+00	-5.616684e-01
1.520000e-06	-7.009364e-07	-1.313138e-11	-5.342936e+00	-5.222471e-01
1.530000e-06	-6.796341e-07	-1.263160e-11	-5.180558e+00	-4.796893e-01
1.540000e-06	-6.583358e-07	-1.003030e-11	-5.018210e+00	-4.344279e-01
1.550000e-06	-6.370302e-07	-1.172862e-11	-4.855807e+00	-3.869221e-01
1.560000e-06	-6.155999e-07	-1.623860e-11	-4.692453e+00	-3.376470e-01
1.570000e-06	-5.941490e-07	-2.003102e-11	-4.528941e+00	-2.870845e-01
1.580000e-06	-5.726249e-07	-2.141638e-11	-4.364873e+00	-2.357134e-01
1.590000e-06	-5.510093e-07	-2.361912e-11	-4.200107e+00	-1.840010e-01
1.600000e-06	-5.293928e-07	-2.682562e-11	-4.035333e+00	-1.323939e-01
1.610000e-06	-5.076748e-07	-2.639509e-11	-3.869786e+00	-8.131138e-02
1.620000e-06	-4.859205e-07	-2.023116e-11	-3.703962e+00	-3.113800e-02
1.630000e-06	-4.641673e-07	-1.469911e-11	-3.538147e+00	1.778136e-02
1.640000e-06	-4.423902e-07	-1.346855e-11	-3.372149e+00	6.514597e-02
1.650000e-06	-4.206005e-07	-1.630114e-11	-3.206057e+00	1.107023e-01
1.660000e-06	-3.987695e-07	-1.760514e-11	-3.039648e+00	1.542458e-01
1.670000e-06	-3.769484e-07	-1.701895e-11	-2.873315e+00	1.956214e-01
1.680000e-06	-3.551703e-07	-1.772612e-11	-2.707310e+00	2.347230e-01
1.690000e-06	-3.333511e-07	-1.946904e-11	-2.540992e+00	2.714917e-01
1.700000e-06	-3.114321e-07	-1.860706e-11	-2.373912e+00	3.059128e-01
1.710000e-06	-2.894687e-07	-1.666877e-11	-2.206495e+00	3.380125e-01
1.720000e-06	-2.674882e-07	-1.558292e-11	-2.038947e+00	3.678534e-01
1.730000e-06	-2.455131e-07	-1.550843e-11	-1.871441e+00	3.955297e-01
1.740000e-06	-2.235404e-07	-1.793640e-11	-1.703952e+00	4.211617e-01
1.750000e-06	-2.015898e-07	-1.748558e-11	-1.536632e+00	4.448908e-01
1.760000e-06	-1.796631e-07	-1.349058e-11	-1.369495e+00	4.668734e-01
1.770000e-06	-1.576688e-07	-1.498541e-11	-1.201842e+00	4.872760e-01
1.780000e-06	-1.357058e-07	-1.980102e-11	-1.034427e+00	5.062701e-01
1.790000e-06	-1.138020e-07	-2.138425e-11	-8.674633e-01	5.240273e-01
1.800000e-06	-9.181925e-08	-2.016006e-11	-6.998985e-01	5.407155e-01
1.810000e-06	-6.981145e-08	-2.028247e-11	-5.321426e-01	5.564951e-01
1.820000e-06	-4.778633e-08	-2.126359e-11	-3.642546e-01	5.715168e-01
1.830000e-06	-2.574196e-08	-2.187928e-11	-1.962198e-01	5.859190e-01
1.840000e-06	-3.728542e-09	-2.130320e-11	-2.842107e-02	5.998268e-01
1.850000e-06	1.825269e-08	-1.810026e-11	1.391324e-01	6.133514e-01
1.860000e-06	4.023011e-08	-1.572731e-11	3.066568e-01	6.265903e-01
1.870000e-06	6.221139e-08	-1.437630e-11	4.742106e-01	6.396279e-01
1.880000e-06	8.412338e-08	-1.415589e-11	6.412362e-01	6.525371e-01
1.890000e-06	1.060218e-07	-1.477419e-11	8.081582e-01	6.653805e-01
1.900000e-06	1.278927e-07	-1.444026e-11	9.748712e-01	6.782130e-01
1.910000e-06	1.497556e-07	-1.147698e-11	1.141522e+00	6.910838e-01
1.920000e-06	1.717164e-07	-9.941589e-12	1.308920e+00	7.040387e-01
1.930000e-06	1.937229e-07	-1.022009e-11	1.476666e+00	7.171224e-01
1.940000e-06	2.157334e-07	-8.924769e-12	1.644443e+00	7.303807e-01
1.950000e-06	2.376500e-07	-4.455875e-12	1.811504e+00	7.438626e-01
1.960000e-06	2.595411e-07	-2.934183e-12	1.978370e+00	7.576213e-01
1.970000e-06	2.814838e-07	-5.937854e-12	2.145630e+00	7.717156e-01
1.980000e-06	3.033831e-07	-8.836640e-12	2.312559e+00	7.862106e-01
1.990000e-06	3.252854e-07	-9.084589e-12	2.479510e+00	8.011779e-01
2.000000e-06	3.471564e-07	-1.109211e-11	2.646223e+00	8.166947e-01
2.010000e-06	3.690004e-07	-1.576332e-11	2.812731e+00	8.328433e-01
2.020000e-06	3.908737e-07	-1.759973e-11	2.979462e+00	8.497096e-01
2.030000e-06	4.126748e-07	-1.552771e-11	3.145642e+00	8.673813e-01
2.040000e-06	4.343791e-07	-1.334897e-11	3.311085e+00	8.859457e-01
2.050000e-06	4.560581e-07	-1.331687e-11	3.476335e+00	9.054872e-01
2.060000e-06	4.777495e-07	-1.371203e-11	3.641679e+00	9.260847e-01
2.070000e-06	4.994542e-07	-1.223632e-11	3.807124e+00	9.478089e-01
2.080000e-06	5.211135e-07	-9.957249e-12	3.972224e+00	9.707198e-01
2.090000e-06	5.427589e-07	-9.246307e-12	4.137217e+00	9.948641e-01
2.100000e-06	5.643731e-07	-1.022849e-11	4.301972e+00	1.020273e+00
2.110000e-06	5.858784e-07	-1.256604e-11	4.465898e+00	1.046960e+00
2.120000e-06	6.072835e-07	-1.309698e-11	4.629061e+00	1.074919e+00
2.130000e-06	6.285923e-07	-1.220937e-11	4.791488e+00	1.104126e+00
2.140000e-06	6.498090e-07	-1.154780e-11	4.953214e+00	1.134536e+00
2.150000e-06	6.710552e-07	-1.113323e-11	5.115165e+00	1.166082e+00
2.160000e-06	6.923951e-07	-1.000733e-11	5.277829e+00	1.198680e+00
2.170000e-06	7.136118e-07	-8.933882e-12	5.439555e+00	1.232226e+00
2.180000e-06	7.346432e-07	-7.271001e-12	5.599868e+00	1.266602e+00
2.190000e-06	7.556368e-07	-5.862847e-12	5.759894e+00	1.301675e+00
2.200000e-06	7.765452e-07	-6.430746e-12	5.919269e+00	1.337299e+00
2.210000e-06	7.972742e-07	-6.917293e-12	6.077278e+00	1.373324e+00
2.220000e-06	8.179632e-07	-6.097661e-12	6.234981e+00	1.409591e+00
2.230000e-06	8.386783e-07	-5.750328e-12	6.392883e+00	1.445944e+00
2.240000e-06	8.593326e-07	-5.152530e-12	6.550322e+00	1.482226e+00
2.250000e-06	8.799860e-07	-4.989844e-12	6.707754e+00	1.518288e+00
2.260000e-06	9.005592e-07	-3.746796e-12	6.864575e+00	1.553988e+00
2.270000e-06	9.210097e-07	-1.411330e-12	7.020460e+00	1.589197e+00
2.280000e-06	9.414064e-07	-1.253435e-12	7.175935e+00	1.623799e+00
2.290000e-06	9.617174e-07	-3.344996e-12	7.330757e+00	1.657695e+00
2.300000e-06	9.819912e-07	-5.030701e-12	7.485296e+00	1.690802e+00
2.310000e-06	1.002239e-06	-4.932497e-12	7.639635e+00	1.723058e+00
2.320000e-06	1.022451e-06	-4.346189e-12	7.793704e+00	1.754418e+00
2.330000e-06	1.042635e-06	-3.731775e-12	7.947558e+00	1.784854e+00
2.340000e-06	1.062795e-06	-4.511280e-12	8.101225e+00	1.814356e+00
2.350000e-06	1.082917e-06	-3.387642e-12	8.254611e+00	1.842931e+00
2.360000e-06	1.103000e-06	-1.125069e-12	8.407694e+00	1.870599e+00
2.370000e-06	1.123067e-06	7.423246e-13	8.560659e+00	1.897390e+00
2.380000e-06	1.143126e-06	2.803363e-12	8.713559e+00	1.923346e+00
2.390000e-06	1.163163e-06	3.249522e-12	8.866286e+00	1.948512e+00
2.400000e-06	1.183180e-06	2.499348e-12	9.018870e+00	1.972938e+00
2.410000e-06	1.203194e-06	2.335199e-12	9.171427e+00	1.996675e+00
2.420000e-06	1.223157e-06	2.003796e-12	9.323601e+00	2.019772e+00
2.430000e-06	1.243050e-06	2.032612e-12	9.475234e+00	2.042272e+00
2.440000e-06	1.262893e-06	3.560240e-12	9.626487e+00	2.064215e+00
2.450000e-06	1.282727e-06	6.005499e-12	9.777672e+00	2.085632e+00
2.460000e-06	1.302511e-06	8.482155e-12	9.928482e+00	2.106546e+00
2.470000e-06	1.322129e-06	9.603451e-12	1.007802e+01	2.126972e+00
2.480000e-06	1.341583e-06	1.005223e-11	1.022631e+01	2.146918e+00
2.490000e-06	1.361003e-06	1.105766e-11	1.037434e+01	2.166384e+00
2.500000e-06	1.380379e-06	1.250000e-11	1.052204e+01	2.185366e+00
2.510000e-06	1.399581e-06	1.316700e-11	1.066840e+01	2.203856e+00
2.520000e-06	1.418592e-06	1.228556e-11	1.081332e+01	2.221847e+00
2.530000e-06	1.437499e-06	9.290451e-12	1.095744e+01	2.239334e+00
2.540000e-06	1.456310e-06	7.387780e-12	1.110082e+01	2.256317e+00
2.550000e-06	1.474932e-06	8.996812e-12	1.124277e+01	2.272808e+00
2.560000e-06	1.493411e-06	1.178934e-11	1.138363e+01	2.288830e+00
2.570000e-06	1.511862e-06	1.394296e-11	1.152428e+01	2.304421e+00
2.580000e-06	1.530190e-06	1.555403e-11	1.166398e+01	2.319638e+00
2.590000e-06	1.548363e-06	1.699737e-11	1.180250e+01	2.334561e+00
2.600000e-06	1.566375e-06	1.648244e-11	1.193980e+01	2.349289e+00
2.610000e-06	1.584243e-06	1.529755e-11	1.207600e+01	2.363947e+00
2.620000e-06	1.602144e-06	1.732476e-11	1.221245e+01	2.378683e+00
2.630000e-06	1.619902e-06	2.055414e-11	1.234781e+01	2.393668e+00
2.640000e-06	1.637481e-06	2.392459e-11	1.248181e+01	2.409094e+00
2.650000e-06	1.655033e-06	2.756120e-11	1.261560e+01	2.425172e+00
2.660000e-06	1.672532e-06	2.872104e-11	1.274899e+01	2.442127e+00
2.670000e-06	1.689909e-06	2.692855e-11	1.288145e+01	2.460196e+00
2.680000e-06	1.707141e-06	2.565063e-11	1.301280e+01	2.479619e+00
2.690000e-06	1.724328e-06	2.627067e-11	1.314381e+01	2.500637e+00
2.700000e-06	1.741492e-06	2.499306e-11	1.327464e+01	2.523483e+00
2.710000e-06	1.758501e-06	2.319642e-11	1.340429e+01	2.548378e+00
2.720000e-06	1.775387e-06	2.293433e-11	1.353301e+01	2.575518e+00
2.730000e-06	1.792230e-06	2.413667e-11	1.366140e+01	2.605076e+00
2.740000e-06	1.808835e-06	2.602549e-11	1.378797e+01	2.637187e+00
2.750000e-06	1.825246e-06	2.756057e-11	1.391306e+01	2.671947e+00
2.760000e-06	1.841618e-06	2.845678e-11	1.403786e+01	2.709404e+00
2.770000e-06	1.857863e-06	2.885065e-11	1.416169e+01	2.749560e+00
2.780000e-06	1.873981e-06	2.785330e-11	1.428455e+01	2.792357e+00
2.790000e-06	1.889916e-06	2.591497e-11	1.440601e+01	2.837686e+00
2.800000e-06	1.905571e-06	2.558635e-11	1.452534e+01	2.885379e+00
2.810000e-06	1.920960e-06	2.620694e-11	1.464265e+01	2.935211e+00
2.820000e-06	1.936110e-06	2.791149e-11	1.475813e+01	2.986905e+00
2.830000e-06	1.951112e-06	3.110426e-11	1.487249e+01	3.040132e+00
2.840000e-06	1.965941e-06	3.579331e-11	1.498552e+01	3.094519e+00
2.850000e-06	1.980545e-06	3.911904e-11	1.509684e+01	3.149656e+00
2.860000e-06	1.995009e-06	4.028881e-11	1.520710e+01	3.205100e+00
2.870000e-06	2.009353e-06	4.078621e-11	1.531644e+01	3.260389e+00
2.880000e-06	2.023550e-06	4.088552e-11	1.542465e+01	3.315049e+00
2.890000e-06	2.037605e-06	4.017170e-11	1.553179e+01	3.368606e+00
2.900000e-06	2.051524e-06	3.901553e-11	1.563788e+01	3.420596e+00
