# Temperatura_=_20.0
# Concentracion g/m^3_=_12600.0
# C_Vs_to_Am_M_A/Vsm_=_65563218390.804596
# pendiente_HvsI_1/m_=_3716.3
# ordenada_HvsI_A/m_=_1297.0
# frecuencia_Hz_=_134915.44582558458

Tiempo_(s)	Campo_(V.s)	Magnetizacion_(V.s)	Campo_(kA/m)	Magnetizacion_(A/m)
0.000000e+00	-2.611667e-06	-1.307622e-09	-1.983648e+01	-8.664267e+01
1.000000e-08	-2.611951e-06	-1.314654e-09	-1.983864e+01	-8.660718e+01
2.000000e-08	-2.612100e-06	-1.347482e-09	-1.983977e+01	-8.655955e+01
3.000000e-08	-2.612129e-06	-1.377103e-09	-1.983999e+01	-8.649929e+01
4.000000e-08	-2.612085e-06	-1.366688e-09	-1.983966e+01	-8.642601e+01
5.000000e-08	-2.611955e-06	-1.268789e-09	-1.983867e+01	-8.633938e+01
6.000000e-08	-2.611699e-06	-1.160553e-09	-1.983672e+01	-8.623920e+01
7.000000e-08	-2.611241e-06	-1.204519e-09	-1.983324e+01	-8.612537e+01
8.000000e-08	-2.610536e-06	-1.262498e-09	-1.982789e+01	-8.599793e+01
9.000000e-08	-2.609688e-06	-1.382904e-09	-1.982145e+01	-8.585708e+01
1.000000e-07	-2.608581e-06	-1.388216e-09	-1.981304e+01	-8.570311e+01
1.100000e-07	-2.607238e-06	-1.297008e-09	-1.980284e+01	-8.553651e+01
1.200000e-07	-2.605672e-06	-1.251038e-09	-1.979095e+01	-8.535787e+01
1.300000e-07	-2.603726e-06	-1.348032e-09	-1.977617e+01	-8.516793e+01
1.400000e-07	-2.601397e-06	-1.352633e-09	-1.975847e+01	-8.496755e+01
1.500000e-07	-2.598759e-06	-1.302314e-09	-1.973844e+01	-8.475772e+01
1.600000e-07	-2.595899e-06	-1.296204e-09	-1.971672e+01	-8.453950e+01
1.700000e-07	-2.592799e-06	-1.300837e-09	-1.969317e+01	-8.431405e+01
1.800000e-07	-2.589427e-06	-1.318203e-09	-1.966756e+01	-8.408258e+01
1.900000e-07	-2.585837e-06	-1.285052e-09	-1.964029e+01	-8.384635e+01
2.000000e-07	-2.582093e-06	-1.240052e-09	-1.961185e+01	-8.360663e+01
2.100000e-07	-2.578199e-06	-1.230914e-09	-1.958228e+01	-8.336468e+01
2.200000e-07	-2.574219e-06	-1.318303e-09	-1.955205e+01	-8.312173e+01
2.300000e-07	-2.570182e-06	-1.306530e-09	-1.952139e+01	-8.287897e+01
2.400000e-07	-2.566040e-06	-1.238557e-09	-1.948993e+01	-8.263749e+01
2.500000e-07	-2.561798e-06	-1.186120e-09	-1.945771e+01	-8.239833e+01
2.600000e-07	-2.557429e-06	-1.272407e-09	-1.942452e+01	-8.216236e+01
2.700000e-07	-2.552881e-06	-1.350732e-09	-1.938998e+01	-8.193039e+01
2.800000e-07	-2.548120e-06	-1.306429e-09	-1.935382e+01	-8.170303e+01
2.900000e-07	-2.543141e-06	-1.180857e-09	-1.931600e+01	-8.148078e+01
3.000000e-07	-2.538064e-06	-1.195445e-09	-1.927744e+01	-8.126397e+01
3.100000e-07	-2.532844e-06	-1.303852e-09	-1.923779e+01	-8.105278e+01
3.200000e-07	-2.527368e-06	-1.329967e-09	-1.919620e+01	-8.084722e+01
3.300000e-07	-2.521676e-06	-1.228911e-09	-1.915297e+01	-8.064716e+01
3.400000e-07	-2.515763e-06	-1.173529e-09	-1.910806e+01	-8.045232e+01
3.500000e-07	-2.509666e-06	-1.239575e-09	-1.906175e+01	-8.026228e+01
3.600000e-07	-2.503429e-06	-1.311451e-09	-1.901438e+01	-8.007648e+01
3.700000e-07	-2.497090e-06	-1.270511e-09	-1.896623e+01	-7.989429e+01
3.800000e-07	-2.490610e-06	-1.188910e-09	-1.891701e+01	-7.971494e+01
3.900000e-07	-2.483926e-06	-1.193204e-09	-1.886625e+01	-7.953760e+01
4.000000e-07	-2.477070e-06	-1.262715e-09	-1.881417e+01	-7.936139e+01
4.100000e-07	-2.470020e-06	-1.278877e-09	-1.876063e+01	-7.918539e+01
4.200000e-07	-2.462743e-06	-1.212490e-09	-1.870535e+01	-7.900863e+01
4.300000e-07	-2.455282e-06	-1.171714e-09	-1.864869e+01	-7.883017e+01
4.400000e-07	-2.447698e-06	-1.211633e-09	-1.859108e+01	-7.864907e+01
4.500000e-07	-2.440006e-06	-1.261536e-09	-1.853266e+01	-7.846441e+01
4.600000e-07	-2.432217e-06	-1.235525e-09	-1.847350e+01	-7.827535e+01
4.700000e-07	-2.424301e-06	-1.183536e-09	-1.841337e+01	-7.808105e+01
4.800000e-07	-2.416253e-06	-1.186975e-09	-1.835225e+01	-7.788079e+01
4.900000e-07	-2.408172e-06	-1.234342e-09	-1.829087e+01	-7.767391e+01
5.000000e-07	-2.400083e-06	-1.232683e-09	-1.822943e+01	-7.745981e+01
5.100000e-07	-2.391869e-06	-1.186672e-09	-1.816704e+01	-7.723800e+01
5.200000e-07	-2.383460e-06	-1.167190e-09	-1.810317e+01	-7.700807e+01
5.300000e-07	-2.374733e-06	-1.205485e-09	-1.803689e+01	-7.676971e+01
5.400000e-07	-2.365719e-06	-1.219783e-09	-1.796842e+01	-7.652267e+01
5.500000e-07	-2.356492e-06	-1.178408e-09	-1.789834e+01	-7.626680e+01
5.600000e-07	-2.347010e-06	-1.141591e-09	-1.782632e+01	-7.600202e+01
5.700000e-07	-2.337195e-06	-1.166701e-09	-1.775178e+01	-7.572831e+01
5.800000e-07	-2.327003e-06	-1.192331e-09	-1.767436e+01	-7.544573e+01
5.900000e-07	-2.316518e-06	-1.166832e-09	-1.759473e+01	-7.515438e+01
6.000000e-07	-2.305842e-06	-1.126875e-09	-1.751364e+01	-7.485441e+01
6.100000e-07	-2.294929e-06	-1.134922e-09	-1.743075e+01	-7.454601e+01
6.200000e-07	-2.283682e-06	-1.162827e-09	-1.734532e+01	-7.422939e+01
6.300000e-07	-2.272243e-06	-1.160760e-09	-1.725844e+01	-7.390481e+01
6.400000e-07	-2.260702e-06	-1.128972e-09	-1.717078e+01	-7.357251e+01
6.500000e-07	-2.249038e-06	-1.108392e-09	-1.708219e+01	-7.323276e+01
6.600000e-07	-2.237215e-06	-1.112165e-09	-1.699239e+01	-7.288584e+01
6.700000e-07	-2.225253e-06	-1.124188e-09	-1.690154e+01	-7.253204e+01
6.800000e-07	-2.213168e-06	-1.118335e-09	-1.680974e+01	-7.217161e+01
6.900000e-07	-2.200919e-06	-1.090078e-09	-1.671671e+01	-7.180485e+01
7.000000e-07	-2.188578e-06	-1.069843e-09	-1.662298e+01	-7.143203e+01
7.100000e-07	-2.176063e-06	-1.082215e-09	-1.652792e+01	-7.105343e+01
7.200000e-07	-2.163268e-06	-1.098174e-09	-1.643074e+01	-7.066931e+01
7.300000e-07	-2.150301e-06	-1.078462e-09	-1.633225e+01	-7.027995e+01
7.400000e-07	-2.137157e-06	-1.048344e-09	-1.623242e+01	-6.988563e+01
7.500000e-07	-2.123856e-06	-1.045405e-09	-1.613139e+01	-6.948662e+01
7.600000e-07	-2.110441e-06	-1.060927e-09	-1.602951e+01	-6.908322e+01
7.700000e-07	-2.096918e-06	-1.060517e-09	-1.592679e+01	-6.867571e+01
7.800000e-07	-2.083282e-06	-1.044347e-09	-1.582322e+01	-6.826439e+01
7.900000e-07	-2.069413e-06	-1.028399e-09	-1.571788e+01	-6.784957e+01
8.000000e-07	-2.055339e-06	-1.024172e-09	-1.561098e+01	-6.743155e+01
8.100000e-07	-2.041200e-06	-1.029602e-09	-1.550359e+01	-6.701066e+01
8.200000e-07	-2.026882e-06	-1.032318e-09	-1.539485e+01	-6.658721e+01
8.300000e-07	-2.012426e-06	-1.013406e-09	-1.528505e+01	-6.616152e+01
8.400000e-07	-1.997854e-06	-9.895482e-10	-1.517437e+01	-6.573391e+01
8.500000e-07	-1.982989e-06	-9.866644e-10	-1.506146e+01	-6.530468e+01
8.600000e-07	-1.967884e-06	-9.996420e-10	-1.494674e+01	-6.487412e+01
8.700000e-07	-1.952580e-06	-9.935920e-10	-1.483050e+01	-6.444251e+01
8.800000e-07	-1.936995e-06	-9.698128e-10	-1.471212e+01	-6.401009e+01
8.900000e-07	-1.921178e-06	-9.577540e-10	-1.459199e+01	-6.357708e+01
9.000000e-07	-1.905205e-06	-9.662502e-10	-1.447066e+01	-6.314366e+01
9.100000e-07	-1.889127e-06	-9.702855e-10	-1.434855e+01	-6.270996e+01
9.200000e-07	-1.872881e-06	-9.543587e-10	-1.422516e+01	-6.227607e+01
9.300000e-07	-1.856396e-06	-9.350670e-10	-1.409994e+01	-6.184205e+01
9.400000e-07	-1.839870e-06	-9.328468e-10	-1.397442e+01	-6.140788e+01
9.500000e-07	-1.823259e-06	-9.395026e-10	-1.384826e+01	-6.097350e+01
9.600000e-07	-1.806477e-06	-9.365343e-10	-1.372079e+01	-6.053879e+01
9.700000e-07	-1.789577e-06	-9.220775e-10	-1.359244e+01	-6.010358e+01
9.800000e-07	-1.772517e-06	-9.122722e-10	-1.346286e+01	-5.966765e+01
9.900000e-07	-1.755379e-06	-9.108589e-10	-1.333268e+01	-5.923074e+01
1.000000e-06	-1.738182e-06	-9.070620e-10	-1.320207e+01	-5.879254e+01
1.010000e-06	-1.720804e-06	-8.966370e-10	-1.307008e+01	-5.835272e+01
1.020000e-06	-1.703260e-06	-8.858574e-10	-1.293683e+01	-5.791091e+01
1.030000e-06	-1.685640e-06	-8.810453e-10	-1.280300e+01	-5.746672e+01
1.040000e-06	-1.668038e-06	-8.779538e-10	-1.266930e+01	-5.701977e+01
1.050000e-06	-1.650383e-06	-8.736283e-10	-1.253521e+01	-5.656966e+01
1.060000e-06	-1.632612e-06	-8.659417e-10	-1.240023e+01	-5.611600e+01
1.070000e-06	-1.614777e-06	-8.581078e-10	-1.226477e+01	-5.565845e+01
1.080000e-06	-1.596853e-06	-8.536574e-10	-1.212863e+01	-5.519664e+01
1.090000e-06	-1.578813e-06	-8.510027e-10	-1.199161e+01	-5.473030e+01
1.100000e-06	-1.560677e-06	-8.436762e-10	-1.185386e+01	-5.425915e+01
1.110000e-06	-1.542415e-06	-8.351780e-10	-1.171516e+01	-5.378298e+01
1.120000e-06	-1.523972e-06	-8.258937e-10	-1.157508e+01	-5.330164e+01
1.130000e-06	-1.505410e-06	-8.168339e-10	-1.143409e+01	-5.281500e+01
1.140000e-06	-1.486858e-06	-8.095545e-10	-1.129318e+01	-5.232302e+01
1.150000e-06	-1.468172e-06	-8.024288e-10	-1.115126e+01	-5.182569e+01
1.160000e-06	-1.449274e-06	-7.942820e-10	-1.100772e+01	-5.132306e+01
1.170000e-06	-1.430186e-06	-7.841793e-10	-1.086274e+01	-5.081521e+01
1.180000e-06	-1.410905e-06	-7.774654e-10	-1.071629e+01	-5.030227e+01
1.190000e-06	-1.391568e-06	-7.747848e-10	-1.056942e+01	-4.978439e+01
1.200000e-06	-1.372104e-06	-7.698480e-10	-1.042159e+01	-4.926176e+01
1.210000e-06	-1.352578e-06	-7.623295e-10	-1.027328e+01	-4.873456e+01
1.220000e-06	-1.333042e-06	-7.543093e-10	-1.012490e+01	-4.820297e+01
1.230000e-06	-1.313362e-06	-7.459192e-10	-9.975421e+00	-4.766717e+01
1.240000e-06	-1.293560e-06	-7.377801e-10	-9.825019e+00	-4.712732e+01
1.250000e-06	-1.273741e-06	-7.273124e-10	-9.674489e+00	-4.658353e+01
1.260000e-06	-1.253904e-06	-7.146861e-10	-9.523818e+00	-4.603589e+01
1.270000e-06	-1.234015e-06	-7.047810e-10	-9.372753e+00	-4.548444e+01
1.280000e-06	-1.214095e-06	-6.987080e-10	-9.221453e+00	-4.492915e+01
1.290000e-06	-1.194137e-06	-6.936266e-10	-9.069868e+00	-4.436993e+01
1.300000e-06	-1.174158e-06	-6.855409e-10	-8.918124e+00	-4.380665e+01
1.310000e-06	-1.154183e-06	-6.749463e-10	-8.766401e+00	-4.323910e+01
1.320000e-06	-1.134180e-06	-6.664100e-10	-8.614477e+00	-4.266701e+01
1.330000e-06	-1.114124e-06	-6.607756e-10	-8.462144e+00	-4.209005e+01
1.340000e-06	-1.094017e-06	-6.529642e-10	-8.309424e+00	-4.150784e+01
1.350000e-06	-1.073904e-06	-6.420659e-10	-8.156662e+00	-4.091998e+01
1.360000e-06	-1.053800e-06	-6.304704e-10	-8.003960e+00	-4.032599e+01
1.370000e-06	-1.033636e-06	-6.203535e-10	-7.850806e+00	-3.972543e+01
1.380000e-06	-1.013431e-06	-6.114216e-10	-7.697349e+00	-3.911781e+01
1.390000e-06	-9.931170e-07	-6.017139e-10	-7.543054e+00	-3.850265e+01
1.400000e-06	-9.726072e-07	-5.910386e-10	-7.387275e+00	-3.787953e+01
1.410000e-06	-9.520971e-07	-5.813343e-10	-7.231495e+00	-3.724802e+01
1.420000e-06	-9.316521e-07	-5.722304e-10	-7.076208e+00	-3.660778e+01
1.430000e-06	-9.111678e-07	-5.620674e-10	-6.920623e+00	-3.595852e+01
1.440000e-06	-8.906147e-07	-5.516038e-10	-6.764515e+00	-3.530005e+01
1.450000e-06	-8.699279e-07	-5.409116e-10	-6.607392e+00	-3.463224e+01
1.460000e-06	-8.490842e-07	-5.308295e-10	-6.449077e+00	-3.395510e+01
1.470000e-06	-8.282087e-07	-5.220293e-10	-6.290521e+00	-3.326872e+01
1.480000e-06	-8.072714e-07	-5.167327e-10	-6.131495e+00	-3.257332e+01
1.490000e-06	-7.862050e-07	-5.113856e-10	-5.971489e+00	-3.186922e+01
1.500000e-06	-7.650721e-07	-5.021975e-10	-5.810977e+00	-3.115688e+01
1.510000e-06	-7.438536e-07	-4.878743e-10	-5.649816e+00	-3.043685e+01
1.520000e-06	-7.226390e-07	-4.750382e-10	-5.488684e+00	-2.970978e+01
1.530000e-06	-7.014207e-07	-4.663156e-10	-5.327524e+00	-2.897642e+01
1.540000e-06	-6.801185e-07	-4.556608e-10	-5.165727e+00	-2.823761e+01
1.550000e-06	-6.586766e-07	-4.434870e-10	-5.002868e+00	-2.749424e+01
1.560000e-06	-6.371251e-07	-4.338290e-10	-4.839178e+00	-2.674726e+01
1.570000e-06	-6.155275e-07	-4.269201e-10	-4.675136e+00	-2.599763e+01
1.580000e-06	-5.939009e-07	-4.175451e-10	-4.510875e+00	-2.524634e+01
1.590000e-06	-5.722604e-07	-4.047825e-10	-4.346508e+00	-2.449435e+01
1.600000e-06	-5.506077e-07	-3.939896e-10	-4.182049e+00	-2.374262e+01
1.610000e-06	-5.289791e-07	-3.875698e-10	-4.017773e+00	-2.299202e+01
1.620000e-06	-5.073036e-07	-3.784369e-10	-3.853140e+00	-2.224337e+01
1.630000e-06	-4.855779e-07	-3.647548e-10	-3.688126e+00	-2.149742e+01
1.640000e-06	-4.637872e-07	-3.494666e-10	-3.522618e+00	-2.075477e+01
1.650000e-06	-4.420441e-07	-3.380751e-10	-3.357472e+00	-2.001595e+01
1.660000e-06	-4.203236e-07	-3.297116e-10	-3.192498e+00	-1.928133e+01
1.670000e-06	-3.984912e-07	-3.214942e-10	-3.026674e+00	-1.855118e+01
1.680000e-06	-3.766182e-07	-3.104177e-10	-2.860541e+00	-1.782561e+01
1.690000e-06	-3.547417e-07	-2.980258e-10	-2.694381e+00	-1.710458e+01
1.700000e-06	-3.328749e-07	-2.879397e-10	-2.528296e+00	-1.638795e+01
1.710000e-06	-3.109722e-07	-2.777976e-10	-2.361938e+00	-1.567543e+01
1.720000e-06	-2.889951e-07	-2.655075e-10	-2.195014e+00	-1.496661e+01
1.730000e-06	-2.669884e-07	-2.521529e-10	-2.027865e+00	-1.426098e+01
1.740000e-06	-2.449920e-07	-2.402502e-10	-1.860796e+00	-1.355793e+01
1.750000e-06	-2.229857e-07	-2.302073e-10	-1.693651e+00	-1.285680e+01
1.760000e-06	-2.009305e-07	-2.212574e-10	-1.526134e+00	-1.215684e+01
1.770000e-06	-1.788425e-07	-2.119563e-10	-1.358368e+00	-1.145729e+01
1.780000e-06	-1.568018e-07	-2.025847e-10	-1.190962e+00	-1.075737e+01
1.790000e-06	-1.347954e-07	-1.927891e-10	-1.023816e+00	-1.005630e+01
1.800000e-06	-1.127491e-07	-1.818424e-10	-8.563670e-01	-9.353340e+00
1.810000e-06	-9.065743e-08	-1.701508e-10	-6.885734e-01	-8.647787e+00
1.820000e-06	-6.856490e-08	-1.589581e-10	-5.207732e-01	-7.939008e+00
1.830000e-06	-4.654019e-08	-1.467253e-10	-3.534882e-01	-7.226450e+00
1.840000e-06	-2.454682e-08	-1.356005e-10	-1.864413e-01	-6.509656e+00
1.850000e-06	-2.531708e-09	-1.247737e-10	-1.922916e-02	-5.788273e+00
1.860000e-06	1.949654e-08	-1.118316e-10	1.480827e-01	-5.062063e+00
1.870000e-06	4.154427e-08	-9.988219e-11	3.155426e-01	-4.330906e+00
1.880000e-06	6.358253e-08	-8.847095e-11	4.829305e-01	-3.594801e+00
1.890000e-06	8.563440e-08	-7.596838e-11	6.504218e-01	-2.853863e+00
1.900000e-06	1.076102e-07	-6.349758e-11	8.173355e-01	-2.108321e+00
1.910000e-06	1.295760e-07	-5.073739e-11	9.841731e-01	-1.358505e+00
1.920000e-06	1.516359e-07	-3.709526e-11	1.151725e+00	-6.048402e-01
1.930000e-06	1.736856e-07	-2.396581e-11	1.319200e+00	1.521729e-01
1.940000e-06	1.956814e-07	-1.036497e-11	1.486265e+00	9.119684e-01
1.950000e-06	2.176840e-07	3.028002e-12	1.653382e+00	1.673935e+00
1.960000e-06	2.397587e-07	1.525504e-11	1.821047e+00	2.437433e+00
1.970000e-06	2.617851e-07	2.744968e-11	1.988345e+00	3.201815e+00
1.980000e-06	2.837229e-07	3.980741e-11	2.154970e+00	3.966439e+00
1.990000e-06	3.056652e-07	5.206678e-11	2.321629e+00	4.730693e+00
2.000000e-06	3.276212e-07	6.232301e-11	2.488392e+00	5.494008e+00
2.010000e-06	3.496134e-07	7.233207e-11	2.655430e+00	6.255874e+00
2.020000e-06	3.716133e-07	8.345111e-11	2.822527e+00	7.015852e+00
2.030000e-06	3.935360e-07	9.577150e-11	2.989037e+00	7.773586e+00
2.040000e-06	4.154047e-07	1.101678e-10	3.155137e+00	8.528812e+00
2.050000e-06	4.372700e-07	1.253714e-10	3.321212e+00	9.281361e+00
2.060000e-06	4.590957e-07	1.375006e-10	3.486984e+00	1.003116e+01
2.070000e-06	4.807963e-07	1.486959e-10	3.651808e+00	1.077825e+01
2.080000e-06	5.024169e-07	1.624163e-10	3.816024e+00	1.152273e+01
2.090000e-06	5.240542e-07	1.764798e-10	3.980366e+00	1.226483e+01
2.100000e-06	5.457109e-07	1.883635e-10	4.144856e+00	1.300482e+01
2.110000e-06	5.672901e-07	1.982482e-10	4.308757e+00	1.374306e+01
2.120000e-06	5.888130e-07	2.059769e-10	4.472231e+00	1.447996e+01
2.130000e-06	6.103939e-07	2.142358e-10	4.636145e+00	1.521596e+01
2.140000e-06	6.320153e-07	2.249909e-10	4.800366e+00	1.595152e+01
2.150000e-06	6.535140e-07	2.355465e-10	4.963656e+00	1.668712e+01
2.160000e-06	6.748733e-07	2.467363e-10	5.125887e+00	1.742323e+01
2.170000e-06	6.962019e-07	2.590288e-10	5.287886e+00	1.816027e+01
2.180000e-06	7.174491e-07	2.711598e-10	5.449265e+00	1.889863e+01
2.190000e-06	7.385475e-07	2.814926e-10	5.609515e+00	1.963866e+01
2.200000e-06	7.595315e-07	2.924229e-10	5.768894e+00	2.038061e+01
2.210000e-06	7.804771e-07	3.042980e-10	5.927983e+00	2.112468e+01
2.220000e-06	8.014142e-07	3.134589e-10	6.087008e+00	2.187096e+01
2.230000e-06	8.223409e-07	3.240538e-10	6.245953e+00	2.261947e+01
2.240000e-06	8.431861e-07	3.344271e-10	6.404280e+00	2.337011e+01
2.250000e-06	8.638905e-07	3.442191e-10	6.561536e+00	2.412272e+01
2.260000e-06	8.845549e-07	3.537231e-10	6.718489e+00	2.487702e+01
2.270000e-06	9.051251e-07	3.645030e-10	6.874726e+00	2.563266e+01
2.280000e-06	9.256094e-07	3.765904e-10	7.030312e+00	2.638920e+01
2.290000e-06	9.461118e-07	3.876507e-10	7.186034e+00	2.714614e+01
2.300000e-06	9.665373e-07	3.981066e-10	7.341173e+00	2.790292e+01
2.310000e-06	9.868317e-07	4.088021e-10	7.495315e+00	2.865895e+01
2.320000e-06	1.007046e-06	4.217592e-10	7.648849e+00	2.941361e+01
2.330000e-06	1.027250e-06	4.344129e-10	7.802310e+00	3.016624e+01
2.340000e-06	1.047414e-06	4.456485e-10	7.955459e+00	3.091622e+01
2.350000e-06	1.067555e-06	4.570277e-10	8.108436e+00	3.166292e+01
2.360000e-06	1.087703e-06	4.693024e-10	8.261467e+00	3.240575e+01
2.370000e-06	1.107836e-06	4.802946e-10	8.414382e+00	3.314417e+01
2.380000e-06	1.127916e-06	4.931306e-10	8.566899e+00	3.387770e+01
2.390000e-06	1.147930e-06	5.079038e-10	8.718910e+00	3.460589e+01
2.400000e-06	1.167920e-06	5.219814e-10	8.870740e+00	3.532842e+01
2.410000e-06	1.187885e-06	5.337911e-10	9.022384e+00	3.604500e+01
2.420000e-06	1.207813e-06	5.438298e-10	9.173744e+00	3.675546e+01
2.430000e-06	1.227708e-06	5.533558e-10	9.324850e+00	3.745967e+01
2.440000e-06	1.247548e-06	5.629557e-10	9.475545e+00	3.815764e+01
2.450000e-06	1.267343e-06	5.726925e-10	9.625892e+00	3.884940e+01
2.460000e-06	1.287092e-06	5.828702e-10	9.775896e+00	3.953511e+01
2.470000e-06	1.306841e-06	5.937567e-10	9.925892e+00	4.021494e+01
2.480000e-06	1.326521e-06	6.057922e-10	1.007537e+01	4.088917e+01
2.490000e-06	1.346036e-06	6.187213e-10	1.022359e+01	4.155809e+01
2.500000e-06	1.365458e-06	6.306129e-10	1.037111e+01	4.222204e+01
2.510000e-06	1.384817e-06	6.422923e-10	1.051815e+01	4.288139e+01
2.520000e-06	1.404074e-06	6.544545e-10	1.066441e+01	4.353651e+01
2.530000e-06	1.423142e-06	6.656005e-10	1.080924e+01	4.418780e+01
2.540000e-06	1.442131e-06	6.751582e-10	1.095347e+01	4.483561e+01
2.550000e-06	1.460996e-06	6.846396e-10	1.109675e+01	4.548030e+01
2.560000e-06	1.479689e-06	6.942777e-10	1.123873e+01	4.612219e+01
2.570000e-06	1.498276e-06	7.052503e-10	1.137990e+01	4.676157e+01
2.580000e-06	1.516699e-06	7.190017e-10	1.151984e+01	4.739869e+01
2.590000e-06	1.534962e-06	7.323757e-10	1.165855e+01	4.803374e+01
2.600000e-06	1.553162e-06	7.442754e-10	1.179678e+01	4.866688e+01
2.610000e-06	1.571241e-06	7.556436e-10	1.193410e+01	4.929821e+01
2.620000e-06	1.589194e-06	7.651999e-10	1.207046e+01	4.992777e+01
2.630000e-06	1.607048e-06	7.743400e-10	1.220606e+01	5.055556e+01
2.640000e-06	1.624703e-06	7.859187e-10	1.234016e+01	5.118156e+01
2.650000e-06	1.642332e-06	7.991921e-10	1.247406e+01	5.180567e+01
2.660000e-06	1.659986e-06	8.097045e-10	1.260815e+01	5.242779e+01
2.670000e-06	1.677562e-06	8.187611e-10	1.274164e+01	5.304777e+01
2.680000e-06	1.695018e-06	8.293160e-10	1.287423e+01	5.366546e+01
2.690000e-06	1.712288e-06	8.397780e-10	1.300540e+01	5.428069e+01
2.700000e-06	1.729456e-06	8.487564e-10	1.313579e+01	5.489327e+01
2.710000e-06	1.746609e-06	8.555389e-10	1.326608e+01	5.550302e+01
2.720000e-06	1.763660e-06	8.630778e-10	1.339558e+01	5.610977e+01
2.730000e-06	1.780628e-06	8.742551e-10	1.352446e+01	5.671337e+01
2.740000e-06	1.797459e-06	8.847305e-10	1.365230e+01	5.731364e+01
2.750000e-06	1.814128e-06	8.919607e-10	1.377891e+01	5.791047e+01
2.760000e-06	1.830731e-06	9.005157e-10	1.390501e+01	5.850372e+01
2.770000e-06	1.847157e-06	9.116069e-10	1.402977e+01	5.909331e+01
2.780000e-06	1.863426e-06	9.227152e-10	1.415334e+01	5.967912e+01
2.790000e-06	1.879514e-06	9.326826e-10	1.427553e+01	6.026110e+01
2.800000e-06	1.895335e-06	9.407875e-10	1.439570e+01	6.083916e+01
2.810000e-06	1.911102e-06	9.469194e-10	1.451546e+01	6.141323e+01
2.820000e-06	1.926703e-06	9.547453e-10	1.463395e+01	6.198326e+01
2.830000e-06	1.942023e-06	9.661324e-10	1.475031e+01	6.254915e+01
2.840000e-06	1.957118e-06	9.789604e-10	1.486496e+01	6.311081e+01
2.850000e-06	1.972022e-06	9.889184e-10	1.497816e+01	6.366812e+01
2.860000e-06	1.986808e-06	9.958336e-10	1.509047e+01	6.422096e+01
2.870000e-06	2.001438e-06	1.003217e-09	1.520159e+01	6.476913e+01
2.880000e-06	2.015889e-06	1.012557e-09	1.531135e+01	6.531245e+01
2.890000e-06	2.030153e-06	1.020733e-09	1.541969e+01	6.585066e+01
2.900000e-06	2.044285e-06	1.026046e-09	1.552703e+01	6.638348e+01
