# Temperatura_=_20.0
# Concentracion g/m^3_=_12600.0
# C_Vs_to_Am_M_A/Vsm_=_65563218390.804596
# pendiente_HvsI_1/m_=_3716.3
# ordenada_HvsI_A/m_=_1297.0
# frecuencia_Hz_=_134923.5592412431

Tiempo_(s)	Campo_(V.s)	Magnetizacion_(V.s)	Campo_(kA/m)	Magnetizacion_(A/m)
0.000000e+00	-2.604103e-06	-1.331628e-09	-1.982972e+01	-8.649130e+01
1.000000e-08	-2.604314e-06	-1.380629e-09	-1.983133e+01	-8.646749e+01
2.000000e-08	-2.604387e-06	-1.448253e-09	-1.983189e+01	-8.642917e+01
3.000000e-08	-2.604352e-06	-1.468533e-09	-1.983162e+01	-8.637578e+01
4.000000e-08	-2.604196e-06	-1.353470e-09	-1.983043e+01	-8.630691e+01
5.000000e-08	-2.603900e-06	-1.137121e-09	-1.982818e+01	-8.622230e+01
6.000000e-08	-2.603463e-06	-1.029969e-09	-1.982485e+01	-8.612184e+01
7.000000e-08	-2.602820e-06	-1.062143e-09	-1.981996e+01	-8.600562e+01
8.000000e-08	-2.601965e-06	-1.263039e-09	-1.981344e+01	-8.587390e+01
9.000000e-08	-2.600960e-06	-1.497184e-09	-1.980579e+01	-8.572715e+01
1.000000e-07	-2.599689e-06	-1.485424e-09	-1.979611e+01	-8.556598e+01
1.100000e-07	-2.598211e-06	-1.425200e-09	-1.978486e+01	-8.539121e+01
1.200000e-07	-2.596527e-06	-1.373315e-09	-1.977204e+01	-8.520382e+01
1.300000e-07	-2.594496e-06	-1.337051e-09	-1.975657e+01	-8.500493e+01
1.400000e-07	-2.592119e-06	-1.277907e-09	-1.973847e+01	-8.479580e+01
1.500000e-07	-2.589360e-06	-1.298705e-09	-1.971746e+01	-8.457780e+01
1.600000e-07	-2.586204e-06	-1.300201e-09	-1.969343e+01	-8.435237e+01
1.700000e-07	-2.582739e-06	-1.332285e-09	-1.966704e+01	-8.412104e+01
1.800000e-07	-2.579159e-06	-1.329102e-09	-1.963978e+01	-8.388534e+01
1.900000e-07	-2.575564e-06	-1.252805e-09	-1.961241e+01	-8.364683e+01
2.000000e-07	-2.571838e-06	-1.209439e-09	-1.958404e+01	-8.340702e+01
2.100000e-07	-2.567936e-06	-1.233077e-09	-1.955432e+01	-8.316736e+01
2.200000e-07	-2.563988e-06	-1.313807e-09	-1.952425e+01	-8.292925e+01
2.300000e-07	-2.559995e-06	-1.300002e-09	-1.949385e+01	-8.269393e+01
2.400000e-07	-2.555834e-06	-1.247039e-09	-1.946217e+01	-8.246254e+01
2.500000e-07	-2.551521e-06	-1.184169e-09	-1.942932e+01	-8.223604e+01
2.600000e-07	-2.547104e-06	-1.266622e-09	-1.939569e+01	-8.201524e+01
2.700000e-07	-2.542538e-06	-1.326063e-09	-1.936092e+01	-8.180073e+01
2.800000e-07	-2.537777e-06	-1.299900e-09	-1.932467e+01	-8.159293e+01
2.900000e-07	-2.532859e-06	-1.204436e-09	-1.928722e+01	-8.139205e+01
3.000000e-07	-2.527743e-06	-1.193964e-09	-1.924826e+01	-8.119807e+01
3.100000e-07	-2.522373e-06	-1.259331e-09	-1.920736e+01	-8.101080e+01
3.200000e-07	-2.516824e-06	-1.316117e-09	-1.916511e+01	-8.082983e+01
3.300000e-07	-2.511102e-06	-1.270056e-09	-1.912154e+01	-8.065459e+01
3.400000e-07	-2.505176e-06	-1.183633e-09	-1.907641e+01	-8.048433e+01
3.500000e-07	-2.499156e-06	-1.188525e-09	-1.903057e+01	-8.031814e+01
3.600000e-07	-2.493065e-06	-1.276552e-09	-1.898419e+01	-8.015500e+01
3.700000e-07	-2.486780e-06	-1.311604e-09	-1.893633e+01	-7.999378e+01
3.800000e-07	-2.480207e-06	-1.217190e-09	-1.888628e+01	-7.983328e+01
3.900000e-07	-2.473340e-06	-1.129756e-09	-1.883399e+01	-7.967224e+01
4.000000e-07	-2.466329e-06	-1.172137e-09	-1.878060e+01	-7.950938e+01
4.100000e-07	-2.459165e-06	-1.281070e-09	-1.872605e+01	-7.934342e+01
4.200000e-07	-2.451855e-06	-1.272497e-09	-1.867038e+01	-7.917313e+01
4.300000e-07	-2.444446e-06	-1.162998e-09	-1.861397e+01	-7.899731e+01
4.400000e-07	-2.436890e-06	-1.123054e-09	-1.855643e+01	-7.881485e+01
4.500000e-07	-2.429198e-06	-1.220748e-09	-1.849785e+01	-7.862473e+01
4.600000e-07	-2.421360e-06	-1.290595e-09	-1.843817e+01	-7.842608e+01
4.700000e-07	-2.413405e-06	-1.223205e-09	-1.837759e+01	-7.821811e+01
4.800000e-07	-2.405368e-06	-1.122862e-09	-1.831640e+01	-7.800022e+01
4.900000e-07	-2.397264e-06	-1.147199e-09	-1.825469e+01	-7.777192e+01
5.000000e-07	-2.389067e-06	-1.238581e-09	-1.819227e+01	-7.753289e+01
5.100000e-07	-2.380699e-06	-1.240620e-09	-1.812855e+01	-7.728297e+01
5.200000e-07	-2.372135e-06	-1.143049e-09	-1.806334e+01	-7.702214e+01
5.300000e-07	-2.363423e-06	-1.102113e-09	-1.799699e+01	-7.675052e+01
5.400000e-07	-2.354441e-06	-1.163773e-09	-1.792860e+01	-7.646835e+01
5.500000e-07	-2.345154e-06	-1.215945e-09	-1.785788e+01	-7.617602e+01
5.600000e-07	-2.335571e-06	-1.168783e-09	-1.778491e+01	-7.587399e+01
5.700000e-07	-2.325663e-06	-1.099612e-09	-1.770946e+01	-7.556283e+01
5.800000e-07	-2.315535e-06	-1.103201e-09	-1.763234e+01	-7.524316e+01
5.900000e-07	-2.305108e-06	-1.160783e-09	-1.755294e+01	-7.491566e+01
6.000000e-07	-2.294366e-06	-1.172053e-09	-1.747114e+01	-7.458104e+01
6.100000e-07	-2.283353e-06	-1.120330e-09	-1.738728e+01	-7.424001e+01
6.200000e-07	-2.272146e-06	-1.086794e-09	-1.730194e+01	-7.389329e+01
6.300000e-07	-2.260829e-06	-1.118908e-09	-1.721576e+01	-7.354155e+01
6.400000e-07	-2.249340e-06	-1.148962e-09	-1.712828e+01	-7.318544e+01
6.500000e-07	-2.237620e-06	-1.120218e-09	-1.703903e+01	-7.282555e+01
6.600000e-07	-2.225724e-06	-1.077328e-09	-1.694844e+01	-7.246241e+01
6.700000e-07	-2.213686e-06	-1.077120e-09	-1.685678e+01	-7.209646e+01
6.800000e-07	-2.201521e-06	-1.095352e-09	-1.676414e+01	-7.172808e+01
6.900000e-07	-2.189280e-06	-1.088915e-09	-1.667093e+01	-7.135754e+01
7.000000e-07	-2.176892e-06	-1.072052e-09	-1.657660e+01	-7.098505e+01
7.100000e-07	-2.164312e-06	-1.065925e-09	-1.648081e+01	-7.061073e+01
7.200000e-07	-2.151615e-06	-1.061654e-09	-1.638412e+01	-7.023460e+01
7.300000e-07	-2.138774e-06	-1.053940e-09	-1.628634e+01	-6.985664e+01
7.400000e-07	-2.125693e-06	-1.056743e-09	-1.618672e+01	-6.947672e+01
7.500000e-07	-2.112444e-06	-1.058376e-09	-1.608584e+01	-6.909469e+01
7.600000e-07	-2.099021e-06	-1.044393e-09	-1.598363e+01	-6.871034e+01
7.700000e-07	-2.085417e-06	-1.027182e-09	-1.588003e+01	-6.832341e+01
7.800000e-07	-2.071625e-06	-1.031492e-09	-1.577501e+01	-6.793364e+01
7.900000e-07	-2.057693e-06	-1.044009e-09	-1.566892e+01	-6.754074e+01
8.000000e-07	-2.043698e-06	-1.040335e-09	-1.556235e+01	-6.714442e+01
8.100000e-07	-2.029552e-06	-1.019470e-09	-1.545463e+01	-6.674442e+01
8.200000e-07	-2.015177e-06	-1.005852e-09	-1.534517e+01	-6.634048e+01
8.300000e-07	-2.000613e-06	-1.010423e-09	-1.523427e+01	-6.593238e+01
8.400000e-07	-1.985952e-06	-1.018422e-09	-1.512263e+01	-6.551992e+01
8.500000e-07	-1.971130e-06	-1.003365e-09	-1.500976e+01	-6.510296e+01
8.600000e-07	-1.956091e-06	-9.775822e-10	-1.489524e+01	-6.468142e+01
8.700000e-07	-1.940889e-06	-9.712352e-10	-1.477949e+01	-6.425523e+01
8.800000e-07	-1.925527e-06	-9.849785e-10	-1.466250e+01	-6.382440e+01
8.900000e-07	-1.909931e-06	-9.852086e-10	-1.454374e+01	-6.338898e+01
9.000000e-07	-1.894068e-06	-9.640330e-10	-1.442295e+01	-6.294906e+01
9.100000e-07	-1.878006e-06	-9.453040e-10	-1.430064e+01	-6.250480e+01
9.200000e-07	-1.861788e-06	-9.461794e-10	-1.417715e+01	-6.205635e+01
9.300000e-07	-1.845361e-06	-9.524745e-10	-1.405206e+01	-6.160394e+01
9.400000e-07	-1.828771e-06	-9.448914e-10	-1.392573e+01	-6.114778e+01
9.500000e-07	-1.812058e-06	-9.265292e-10	-1.379846e+01	-6.068812e+01
9.600000e-07	-1.795230e-06	-9.153493e-10	-1.367032e+01	-6.022522e+01
9.700000e-07	-1.778338e-06	-9.177155e-10	-1.354169e+01	-5.975931e+01
9.800000e-07	-1.761308e-06	-9.201114e-10	-1.341201e+01	-5.929065e+01
9.900000e-07	-1.744131e-06	-9.118055e-10	-1.328121e+01	-5.881945e+01
1.000000e-06	-1.726885e-06	-8.976582e-10	-1.314988e+01	-5.834591e+01
1.010000e-06	-1.709566e-06	-8.874993e-10	-1.301800e+01	-5.787020e+01
1.020000e-06	-1.692147e-06	-8.838705e-10	-1.288536e+01	-5.739244e+01
1.030000e-06	-1.674665e-06	-8.824936e-10	-1.275224e+01	-5.691274e+01
1.040000e-06	-1.657070e-06	-8.757515e-10	-1.261826e+01	-5.643114e+01
1.050000e-06	-1.639404e-06	-8.615601e-10	-1.248373e+01	-5.594765e+01
1.060000e-06	-1.621648e-06	-8.483963e-10	-1.234853e+01	-5.546223e+01
1.070000e-06	-1.603777e-06	-8.473812e-10	-1.221244e+01	-5.497481e+01
1.080000e-06	-1.585871e-06	-8.508405e-10	-1.207609e+01	-5.448525e+01
1.090000e-06	-1.567807e-06	-8.445993e-10	-1.193854e+01	-5.399340e+01
1.100000e-06	-1.549635e-06	-8.276371e-10	-1.180016e+01	-5.349906e+01
1.110000e-06	-1.531415e-06	-8.164387e-10	-1.166142e+01	-5.300200e+01
1.120000e-06	-1.513030e-06	-8.154394e-10	-1.152142e+01	-5.250199e+01
1.130000e-06	-1.494498e-06	-8.118673e-10	-1.138030e+01	-5.199874e+01
1.140000e-06	-1.475816e-06	-7.953921e-10	-1.123804e+01	-5.149198e+01
1.150000e-06	-1.456963e-06	-7.757653e-10	-1.109449e+01	-5.098142e+01
1.160000e-06	-1.437987e-06	-7.669965e-10	-1.094999e+01	-5.046677e+01
1.170000e-06	-1.418833e-06	-7.677205e-10	-1.080413e+01	-4.994773e+01
1.180000e-06	-1.399534e-06	-7.658950e-10	-1.065717e+01	-4.942404e+01
1.190000e-06	-1.380175e-06	-7.545470e-10	-1.050976e+01	-4.889543e+01
1.200000e-06	-1.360725e-06	-7.424194e-10	-1.036165e+01	-4.836165e+01
1.210000e-06	-1.341215e-06	-7.386180e-10	-1.021308e+01	-4.782248e+01
1.220000e-06	-1.321674e-06	-7.376362e-10	-1.006428e+01	-4.727771e+01
1.230000e-06	-1.302036e-06	-7.288735e-10	-9.914744e+00	-4.672718e+01
1.240000e-06	-1.282311e-06	-7.134191e-10	-9.764545e+00	-4.617073e+01
1.250000e-06	-1.262547e-06	-6.995584e-10	-9.614043e+00	-4.560826e+01
1.260000e-06	-1.242762e-06	-6.926108e-10	-9.463383e+00	-4.503966e+01
1.270000e-06	-1.222910e-06	-6.875021e-10	-9.312215e+00	-4.446488e+01
1.280000e-06	-1.203008e-06	-6.795089e-10	-9.160666e+00	-4.388389e+01
1.290000e-06	-1.183105e-06	-6.676607e-10	-9.009105e+00	-4.329667e+01
1.300000e-06	-1.163177e-06	-6.559617e-10	-8.857359e+00	-4.270326e+01
1.310000e-06	-1.143236e-06	-6.508368e-10	-8.705514e+00	-4.210369e+01
1.320000e-06	-1.123275e-06	-6.474981e-10	-8.553518e+00	-4.149803e+01
1.330000e-06	-1.103268e-06	-6.392739e-10	-8.401162e+00	-4.088638e+01
1.340000e-06	-1.083223e-06	-6.244533e-10	-8.248527e+00	-4.026883e+01
1.350000e-06	-1.063174e-06	-6.109383e-10	-8.095860e+00	-3.964552e+01
1.360000e-06	-1.043128e-06	-6.058338e-10	-7.943213e+00	-3.901659e+01
1.370000e-06	-1.023021e-06	-6.037978e-10	-7.790103e+00	-3.838220e+01
1.380000e-06	-1.002825e-06	-5.944829e-10	-7.636312e+00	-3.774254e+01
1.390000e-06	-9.825589e-07	-5.800842e-10	-7.481990e+00	-3.709780e+01
1.400000e-06	-9.621589e-07	-5.707272e-10	-7.326648e+00	-3.644819e+01
1.410000e-06	-9.417237e-07	-5.683114e-10	-7.171038e+00	-3.579393e+01
1.420000e-06	-9.213542e-07	-5.612315e-10	-7.015928e+00	-3.513526e+01
1.430000e-06	-9.009441e-07	-5.450508e-10	-6.860509e+00	-3.447244e+01
1.440000e-06	-8.803918e-07	-5.299650e-10	-6.704007e+00	-3.380573e+01
1.450000e-06	-8.597078e-07	-5.228605e-10	-6.546503e+00	-3.313540e+01
1.460000e-06	-8.389532e-07	-5.183762e-10	-6.388461e+00	-3.246175e+01
1.470000e-06	-8.180854e-07	-5.098553e-10	-6.229557e+00	-3.178508e+01
1.480000e-06	-7.970962e-07	-4.996824e-10	-6.069728e+00	-3.110569e+01
1.490000e-06	-7.760074e-07	-4.912411e-10	-5.909141e+00	-3.042389e+01
1.500000e-06	-7.548618e-07	-4.840834e-10	-5.748122e+00	-2.974000e+01
1.510000e-06	-7.337614e-07	-4.751927e-10	-5.587446e+00	-2.905433e+01
1.520000e-06	-7.125970e-07	-4.670501e-10	-5.426284e+00	-2.836720e+01
1.530000e-06	-6.912884e-07	-4.559002e-10	-5.264023e+00	-2.767891e+01
1.540000e-06	-6.699378e-07	-4.424107e-10	-5.101443e+00	-2.698975e+01
1.550000e-06	-6.485349e-07	-4.334872e-10	-4.938464e+00	-2.630001e+01
1.560000e-06	-6.270924e-07	-4.298444e-10	-4.775183e+00	-2.560994e+01
1.570000e-06	-6.056622e-07	-4.250510e-10	-4.611996e+00	-2.491979e+01
1.580000e-06	-5.841238e-07	-4.145780e-10	-4.447986e+00	-2.422976e+01
1.590000e-06	-5.624764e-07	-4.035309e-10	-4.283145e+00	-2.354003e+01
1.600000e-06	-5.408223e-07	-3.966939e-10	-4.118253e+00	-2.285076e+01
1.610000e-06	-5.191518e-07	-3.907494e-10	-3.953237e+00	-2.216204e+01
1.620000e-06	-4.974911e-07	-3.796115e-10	-3.788295e+00	-2.147396e+01
1.630000e-06	-4.758178e-07	-3.634171e-10	-3.623258e+00	-2.078654e+01
1.640000e-06	-4.540942e-07	-3.476945e-10	-3.457836e+00	-2.009978e+01
1.650000e-06	-4.323262e-07	-3.392053e-10	-3.292078e+00	-1.941364e+01
1.660000e-06	-4.105802e-07	-3.321549e-10	-3.126486e+00	-1.872801e+01
1.670000e-06	-3.888473e-07	-3.194967e-10	-2.960995e+00	-1.804280e+01
1.680000e-06	-3.670228e-07	-3.039153e-10	-2.794805e+00	-1.735783e+01
1.690000e-06	-3.451639e-07	-2.935433e-10	-2.628354e+00	-1.667294e+01
1.700000e-06	-3.233353e-07	-2.884394e-10	-2.462133e+00	-1.598792e+01
1.710000e-06	-3.014348e-07	-2.798326e-10	-2.295366e+00	-1.530253e+01
1.720000e-06	-2.794875e-07	-2.647688e-10	-2.128242e+00	-1.461655e+01
1.730000e-06	-2.575540e-07	-2.490472e-10	-1.961222e+00	-1.392974e+01
1.740000e-06	-2.355580e-07	-2.376015e-10	-1.793727e+00	-1.324185e+01
1.750000e-06	-2.135851e-07	-2.284622e-10	-1.626408e+00	-1.255265e+01
1.760000e-06	-1.916631e-07	-2.159221e-10	-1.459476e+00	-1.186192e+01
1.770000e-06	-1.696802e-07	-2.012601e-10	-1.292081e+00	-1.116946e+01
1.780000e-06	-1.476687e-07	-1.903277e-10	-1.124468e+00	-1.047508e+01
1.790000e-06	-1.257409e-07	-1.823624e-10	-9.574921e-01	-9.778651e+00
1.800000e-06	-1.038232e-07	-1.727706e-10	-7.905929e-01	-9.080045e+00
1.810000e-06	-8.185968e-08	-1.601938e-10	-6.233451e-01	-8.379185e+00
1.820000e-06	-5.991930e-08	-1.465394e-10	-4.562735e-01	-7.676029e+00
1.830000e-06	-3.797546e-08	-1.337459e-10	-2.891755e-01	-6.970572e+00
1.840000e-06	-1.604681e-08	-1.242485e-10	-1.221933e-01	-6.262843e+00
1.850000e-06	5.888816e-09	-1.148778e-10	4.484216e-02	-5.552909e+00
1.860000e-06	2.783775e-08	-1.012815e-10	2.119789e-01	-4.840866e+00
1.870000e-06	4.977858e-08	-8.565375e-11	3.790540e-01	-4.126837e+00
1.880000e-06	7.178307e-08	-7.368331e-11	5.466137e-01	-3.410966e+00
1.890000e-06	9.380803e-08	-6.520528e-11	7.143294e-01	-2.693414e+00
1.900000e-06	1.157960e-07	-5.675413e-11	8.817638e-01	-1.974350e+00
1.910000e-06	1.377732e-07	-4.573124e-11	1.049115e+00	-1.253943e+00
1.920000e-06	1.597087e-07	-3.118892e-11	1.216150e+00	-5.323586e-01
1.930000e-06	1.816515e-07	-1.766408e-11	1.383240e+00	1.902517e-01
1.940000e-06	2.036233e-07	-7.525871e-12	1.550551e+00	9.137558e-01
1.950000e-06	2.255370e-07	3.849423e-12	1.717419e+00	1.638048e+00
1.960000e-06	2.474098e-07	1.902825e-11	1.883976e+00	2.363053e+00
1.970000e-06	2.692720e-07	3.425217e-11	2.050453e+00	3.088733e+00
1.980000e-06	2.911074e-07	4.570193e-11	2.216725e+00	3.815089e+00
1.990000e-06	3.129337e-07	5.389098e-11	2.382928e+00	4.542163e+00
2.000000e-06	3.347872e-07	6.254433e-11	2.549337e+00	5.270037e+00
2.010000e-06	3.565861e-07	7.282755e-11	2.715332e+00	5.998837e+00
2.020000e-06	3.783551e-07	8.174429e-11	2.881099e+00	6.728724e+00
2.030000e-06	4.001167e-07	9.087789e-11	3.046808e+00	7.459893e+00
2.040000e-06	4.218202e-07	1.020913e-10	3.212077e+00	8.192568e+00
2.050000e-06	4.435121e-07	1.165013e-10	3.377256e+00	8.926992e+00
2.060000e-06	4.651778e-07	1.309216e-10	3.542236e+00	9.663422e+00
2.070000e-06	4.867675e-07	1.422709e-10	3.706637e+00	1.040212e+01
2.080000e-06	5.083371e-07	1.528475e-10	3.870885e+00	1.114333e+01
2.090000e-06	5.299230e-07	1.635928e-10	4.035258e+00	1.188730e+01
2.100000e-06	5.514691e-07	1.762464e-10	4.199327e+00	1.263423e+01
2.110000e-06	5.730432e-07	1.868811e-10	4.363609e+00	1.338429e+01
2.120000e-06	5.946047e-07	1.951400e-10	4.527796e+00	1.413760e+01
2.130000e-06	6.160625e-07	2.049341e-10	4.691193e+00	1.489424e+01
2.140000e-06	6.374012e-07	2.156220e-10	4.853683e+00	1.565418e+01
2.150000e-06	6.587100e-07	2.271946e-10	5.015945e+00	1.641738e+01
2.160000e-06	6.799693e-07	2.407324e-10	5.177830e+00	1.718366e+01
2.170000e-06	7.011004e-07	2.536708e-10	5.338740e+00	1.795281e+01
2.180000e-06	7.221726e-07	2.647611e-10	5.499200e+00	1.872452e+01
2.190000e-06	7.432348e-07	2.767405e-10	5.659585e+00	1.949839e+01
2.200000e-06	7.642511e-07	2.877236e-10	5.819620e+00	2.027395e+01
2.210000e-06	7.851835e-07	2.966798e-10	5.979015e+00	2.105067e+01
2.220000e-06	8.060446e-07	3.064973e-10	6.137868e+00	2.182794e+01
2.230000e-06	8.268441e-07	3.177175e-10	6.296252e+00	2.260510e+01
2.240000e-06	8.475141e-07	3.286254e-10	6.453651e+00	2.338145e+01
2.250000e-06	8.680540e-07	3.396266e-10	6.610058e+00	2.415625e+01
2.260000e-06	8.885819e-07	3.522037e-10	6.766373e+00	2.492875e+01
2.270000e-06	9.090599e-07	3.655757e-10	6.922310e+00	2.569819e+01
2.280000e-06	9.294328e-07	3.779713e-10	7.077445e+00	2.646383e+01
2.290000e-06	9.497595e-07	3.891583e-10	7.232229e+00	2.722494e+01
2.300000e-06	9.700517e-07	3.997533e-10	7.386750e+00	2.798086e+01
2.310000e-06	9.903394e-07	4.112354e-10	7.541236e+00	2.873096e+01
2.320000e-06	1.010626e-06	4.243822e-10	7.695718e+00	2.947469e+01
2.330000e-06	1.030811e-06	4.364254e-10	7.849421e+00	3.021159e+01
2.340000e-06	1.050921e-06	4.475412e-10	8.002555e+00	3.094128e+01
2.350000e-06	1.070988e-06	4.608117e-10	8.155361e+00	3.166348e+01
2.360000e-06	1.091009e-06	4.754025e-10	8.307816e+00	3.237803e+01
2.370000e-06	1.111014e-06	4.884033e-10	8.460148e+00	3.308487e+01
2.380000e-06	1.131012e-06	5.005367e-10	8.612429e+00	3.378405e+01
2.390000e-06	1.150944e-06	5.140428e-10	8.764205e+00	3.447574e+01
2.400000e-06	1.170832e-06	5.272552e-10	8.915652e+00	3.516020e+01
2.410000e-06	1.190760e-06	5.397436e-10	9.067396e+00	3.583780e+01
2.420000e-06	1.210673e-06	5.508434e-10	9.219036e+00	3.650900e+01
2.430000e-06	1.230509e-06	5.600179e-10	9.370077e+00	3.717434e+01
2.440000e-06	1.250297e-06	5.701218e-10	9.520762e+00	3.783441e+01
2.450000e-06	1.270046e-06	5.816231e-10	9.671143e+00	3.848988e+01
2.460000e-06	1.289716e-06	5.926401e-10	9.820929e+00	3.914143e+01
2.470000e-06	1.309298e-06	6.048606e-10	9.970045e+00	3.978977e+01
2.480000e-06	1.328835e-06	6.182852e-10	1.011881e+01	4.043562e+01
2.490000e-06	1.348311e-06	6.317235e-10	1.026712e+01	4.107968e+01
2.500000e-06	1.367717e-06	6.428175e-10	1.041489e+01	4.172261e+01
2.510000e-06	1.387041e-06	6.512750e-10	1.056204e+01	4.236504e+01
2.520000e-06	1.406207e-06	6.610432e-10	1.070799e+01	4.300752e+01
2.530000e-06	1.425273e-06	6.704058e-10	1.085317e+01	4.365056e+01
2.540000e-06	1.444263e-06	6.778639e-10	1.099778e+01	4.429455e+01
2.550000e-06	1.463057e-06	6.856202e-10	1.114089e+01	4.493981e+01
2.560000e-06	1.481706e-06	6.979266e-10	1.128290e+01	4.558655e+01
2.570000e-06	1.500264e-06	7.128384e-10	1.142421e+01	4.623489e+01
2.580000e-06	1.518707e-06	7.266842e-10	1.156465e+01	4.688484e+01
2.590000e-06	1.537070e-06	7.370073e-10	1.170448e+01	4.753629e+01
2.600000e-06	1.555284e-06	7.470746e-10	1.184318e+01	4.818907e+01
2.610000e-06	1.573363e-06	7.568421e-10	1.198084e+01	4.884288e+01
2.620000e-06	1.591300e-06	7.644494e-10	1.211743e+01	4.949735e+01
2.630000e-06	1.609094e-06	7.746070e-10	1.225293e+01	5.015202e+01
2.640000e-06	1.626824e-06	7.878528e-10	1.238794e+01	5.080639e+01
2.650000e-06	1.644456e-06	8.014288e-10	1.252221e+01	5.145988e+01
2.660000e-06	1.662022e-06	8.132960e-10	1.265596e+01	5.211188e+01
2.670000e-06	1.679503e-06	8.232339e-10	1.278908e+01	5.276178e+01
2.680000e-06	1.696821e-06	8.316783e-10	1.292095e+01	5.340890e+01
2.690000e-06	1.714052e-06	8.406907e-10	1.305216e+01	5.405263e+01
2.700000e-06	1.731208e-06	8.496921e-10	1.318280e+01	5.469231e+01
2.710000e-06	1.748359e-06	8.563473e-10	1.331341e+01	5.532736e+01
2.720000e-06	1.765482e-06	8.637318e-10	1.344379e+01	5.595720e+01
2.730000e-06	1.782401e-06	8.740251e-10	1.357262e+01	5.658131e+01
2.740000e-06	1.799111e-06	8.828658e-10	1.369987e+01	5.719922e+01
2.750000e-06	1.815768e-06	8.885835e-10	1.382671e+01	5.781054e+01
2.760000e-06	1.832390e-06	8.968712e-10	1.395328e+01	5.841491e+01
2.770000e-06	1.848748e-06	9.089696e-10	1.407785e+01	5.901206e+01
2.780000e-06	1.864925e-06	9.185499e-10	1.420103e+01	5.960179e+01
2.790000e-06	1.880962e-06	9.251382e-10	1.432315e+01	6.018394e+01
2.800000e-06	1.896834e-06	9.312735e-10	1.444401e+01	6.075844e+01
2.810000e-06	1.912682e-06	9.380272e-10	1.456469e+01	6.132526e+01
2.820000e-06	1.928305e-06	9.463072e-10	1.468366e+01	6.188442e+01
2.830000e-06	1.943556e-06	9.559583e-10	1.479979e+01	6.243599e+01
2.840000e-06	1.958591e-06	9.647106e-10	1.491428e+01	6.298008e+01
2.850000e-06	1.973437e-06	9.732210e-10	1.502733e+01	6.351682e+01
2.860000e-06	1.988057e-06	9.823741e-10	1.513865e+01	6.404638e+01
2.870000e-06	2.002473e-06	9.917334e-10	1.524843e+01	6.456892e+01
2.880000e-06	2.016823e-06	9.996599e-10	1.535770e+01	6.508461e+01
2.890000e-06	2.031074e-06	1.007094e-09	1.546622e+01	6.559362e+01
2.900000e-06	2.045151e-06	1.015852e-09	1.557342e+01	6.609612e+01
