# Temperatura_=_20.0
# Concentracion g/m^3_=_12600.0
# C_Vs_to_Am_M_A/Vsm_=_65563218390.804596
# pendiente_HvsI_1/m_=_3716.3
# ordenada_HvsI_A/m_=_1297.0
# frecuencia_Hz_=_134923.58777931528

Tiempo_(s)	Campo_(V.s)	Magnetizacion_(V.s)	Campo_(kA/m)	Magnetizacion_(A/m)
0.000000e+00	-2.605446e-06	-1.343763e-09	-1.983317e+01	-8.797173e+01
1.000000e-08	-2.605651e-06	-1.349713e-09	-1.983472e+01	-8.797444e+01
2.000000e-08	-2.605718e-06	-1.358805e-09	-1.983524e+01	-8.796092e+01
3.000000e-08	-2.605661e-06	-1.364747e-09	-1.983480e+01	-8.793071e+01
4.000000e-08	-2.605490e-06	-1.358050e-09	-1.983350e+01	-8.788357e+01
5.000000e-08	-2.605220e-06	-1.339317e-09	-1.983144e+01	-8.781944e+01
6.000000e-08	-2.604882e-06	-1.315239e-09	-1.982887e+01	-8.773849e+01
7.000000e-08	-2.604436e-06	-1.363926e-09	-1.982547e+01	-8.764112e+01
8.000000e-08	-2.603805e-06	-1.348626e-09	-1.982068e+01	-8.752791e+01
9.000000e-08	-2.602936e-06	-1.285356e-09	-1.981406e+01	-8.739964e+01
1.000000e-07	-2.601856e-06	-1.300800e-09	-1.980584e+01	-8.725730e+01
1.100000e-07	-2.600519e-06	-1.339072e-09	-1.979566e+01	-8.710200e+01
1.200000e-07	-2.598917e-06	-1.373445e-09	-1.978346e+01	-8.693501e+01
1.300000e-07	-2.597051e-06	-1.425678e-09	-1.976926e+01	-8.675770e+01
1.400000e-07	-2.594820e-06	-1.350927e-09	-1.975228e+01	-8.657151e+01
1.500000e-07	-2.592213e-06	-1.250553e-09	-1.973244e+01	-8.637793e+01
1.600000e-07	-2.589257e-06	-1.283345e-09	-1.970993e+01	-8.617847e+01
1.700000e-07	-2.585979e-06	-1.327172e-09	-1.968498e+01	-8.597462e+01
1.800000e-07	-2.582480e-06	-1.315075e-09	-1.965834e+01	-8.576779e+01
1.900000e-07	-2.578878e-06	-1.260276e-09	-1.963093e+01	-8.555935e+01
2.000000e-07	-2.575105e-06	-1.269029e-09	-1.960221e+01	-8.535053e+01
2.100000e-07	-2.571193e-06	-1.288553e-09	-1.957242e+01	-8.514244e+01
2.200000e-07	-2.567198e-06	-1.302332e-09	-1.954202e+01	-8.493602e+01
2.300000e-07	-2.563094e-06	-1.237271e-09	-1.951077e+01	-8.473204e+01
2.400000e-07	-2.558916e-06	-1.232446e-09	-1.947897e+01	-8.453111e+01
2.500000e-07	-2.554636e-06	-1.288588e-09	-1.944639e+01	-8.433361e+01
2.600000e-07	-2.550226e-06	-1.338065e-09	-1.941282e+01	-8.413977e+01
2.700000e-07	-2.545691e-06	-1.299107e-09	-1.937830e+01	-8.394958e+01
2.800000e-07	-2.541046e-06	-1.239050e-09	-1.934294e+01	-8.376289e+01
2.900000e-07	-2.536171e-06	-1.241109e-09	-1.930583e+01	-8.357936e+01
3.000000e-07	-2.530979e-06	-1.307180e-09	-1.926631e+01	-8.339850e+01
3.100000e-07	-2.525622e-06	-1.342130e-09	-1.922553e+01	-8.321966e+01
3.200000e-07	-2.520122e-06	-1.260860e-09	-1.918366e+01	-8.304212e+01
3.300000e-07	-2.514397e-06	-1.203099e-09	-1.914008e+01	-8.286504e+01
3.400000e-07	-2.508492e-06	-1.242427e-09	-1.909513e+01	-8.268752e+01
3.500000e-07	-2.502494e-06	-1.324142e-09	-1.904948e+01	-8.250864e+01
3.600000e-07	-2.496368e-06	-1.292295e-09	-1.900284e+01	-8.232747e+01
3.700000e-07	-2.490005e-06	-1.219821e-09	-1.895440e+01	-8.214308e+01
3.800000e-07	-2.483323e-06	-1.213587e-09	-1.890354e+01	-8.195460e+01
3.900000e-07	-2.476528e-06	-1.284447e-09	-1.885182e+01	-8.176122e+01
4.000000e-07	-2.469680e-06	-1.289286e-09	-1.879968e+01	-8.156222e+01
4.100000e-07	-2.462607e-06	-1.228819e-09	-1.874585e+01	-8.135697e+01
4.200000e-07	-2.455268e-06	-1.193733e-09	-1.868998e+01	-8.114496e+01
4.300000e-07	-2.447737e-06	-1.229363e-09	-1.863266e+01	-8.092581e+01
4.400000e-07	-2.440123e-06	-1.258662e-09	-1.857470e+01	-8.069926e+01
4.500000e-07	-2.432407e-06	-1.242280e-09	-1.851596e+01	-8.046519e+01
4.600000e-07	-2.424542e-06	-1.208975e-09	-1.845609e+01	-8.022360e+01
4.700000e-07	-2.416510e-06	-1.201437e-09	-1.839495e+01	-7.997461e+01
4.800000e-07	-2.408410e-06	-1.221451e-09	-1.833329e+01	-7.971845e+01
4.900000e-07	-2.400292e-06	-1.237866e-09	-1.827149e+01	-7.945544e+01
5.000000e-07	-2.392077e-06	-1.225083e-09	-1.820896e+01	-7.918601e+01
5.100000e-07	-2.383712e-06	-1.195139e-09	-1.814528e+01	-7.891061e+01
5.200000e-07	-2.375138e-06	-1.187658e-09	-1.808002e+01	-7.862977e+01
5.300000e-07	-2.366362e-06	-1.209002e-09	-1.801321e+01	-7.834402e+01
5.400000e-07	-2.357428e-06	-1.216813e-09	-1.794520e+01	-7.805392e+01
5.500000e-07	-2.348296e-06	-1.185062e-09	-1.787569e+01	-7.775998e+01
5.600000e-07	-2.338899e-06	-1.163558e-09	-1.780416e+01	-7.746270e+01
5.700000e-07	-2.329304e-06	-1.185729e-09	-1.773112e+01	-7.716253e+01
5.800000e-07	-2.319462e-06	-1.202984e-09	-1.765620e+01	-7.685985e+01
5.900000e-07	-2.309243e-06	-1.171923e-09	-1.757841e+01	-7.655496e+01
6.000000e-07	-2.298682e-06	-1.148356e-09	-1.749802e+01	-7.624808e+01
6.100000e-07	-2.287816e-06	-1.171849e-09	-1.741530e+01	-7.593934e+01
6.200000e-07	-2.276706e-06	-1.189303e-09	-1.733073e+01	-7.562877e+01
6.300000e-07	-2.265353e-06	-1.154854e-09	-1.724431e+01	-7.531630e+01
6.400000e-07	-2.253764e-06	-1.126929e-09	-1.715609e+01	-7.500180e+01
6.500000e-07	-2.242062e-06	-1.148044e-09	-1.706702e+01	-7.468502e+01
6.600000e-07	-2.230272e-06	-1.166313e-09	-1.697727e+01	-7.436565e+01
6.700000e-07	-2.218331e-06	-1.134901e-09	-1.688637e+01	-7.404334e+01
6.800000e-07	-2.206211e-06	-1.105898e-09	-1.679411e+01	-7.371765e+01
6.900000e-07	-2.193966e-06	-1.120157e-09	-1.670090e+01	-7.338814e+01
7.000000e-07	-2.181613e-06	-1.140974e-09	-1.660687e+01	-7.305434e+01
7.100000e-07	-2.169074e-06	-1.121561e-09	-1.651141e+01	-7.271578e+01
7.200000e-07	-2.156406e-06	-1.087807e-09	-1.641499e+01	-7.237201e+01
7.300000e-07	-2.143635e-06	-1.082169e-09	-1.631777e+01	-7.202258e+01
7.400000e-07	-2.130660e-06	-1.102800e-09	-1.621900e+01	-7.166713e+01
7.500000e-07	-2.117455e-06	-1.109277e-09	-1.611848e+01	-7.130533e+01
7.600000e-07	-2.104109e-06	-1.083043e-09	-1.601689e+01	-7.093690e+01
7.700000e-07	-2.090637e-06	-1.055661e-09	-1.591434e+01	-7.056167e+01
7.800000e-07	-2.076976e-06	-1.069501e-09	-1.581035e+01	-7.017953e+01
7.900000e-07	-2.063163e-06	-1.094923e-09	-1.570520e+01	-6.979045e+01
8.000000e-07	-2.049223e-06	-1.077637e-09	-1.559909e+01	-6.939449e+01
8.100000e-07	-2.035124e-06	-1.038089e-09	-1.549176e+01	-6.899178e+01
8.200000e-07	-2.020858e-06	-1.037162e-09	-1.538317e+01	-6.858254e+01
8.300000e-07	-2.006399e-06	-1.064187e-09	-1.527310e+01	-6.816703e+01
8.400000e-07	-1.991749e-06	-1.058406e-09	-1.516159e+01	-6.774559e+01
8.500000e-07	-1.976957e-06	-1.019417e-09	-1.504899e+01	-6.731860e+01
8.600000e-07	-1.962052e-06	-1.004402e-09	-1.493553e+01	-6.688647e+01
8.700000e-07	-1.946986e-06	-1.024083e-09	-1.482084e+01	-6.644962e+01
8.800000e-07	-1.931667e-06	-1.031571e-09	-1.470423e+01	-6.600849e+01
8.900000e-07	-1.916036e-06	-1.005491e-09	-1.458524e+01	-6.556350e+01
9.000000e-07	-1.900260e-06	-9.808429e-10	-1.446515e+01	-6.511505e+01
9.100000e-07	-1.884373e-06	-9.852580e-10	-1.434422e+01	-6.466351e+01
9.200000e-07	-1.868210e-06	-9.949043e-10	-1.422118e+01	-6.420920e+01
9.300000e-07	-1.851807e-06	-9.832334e-10	-1.409632e+01	-6.375239e+01
9.400000e-07	-1.835316e-06	-9.603233e-10	-1.397078e+01	-6.329327e+01
9.500000e-07	-1.818747e-06	-9.527667e-10	-1.384466e+01	-6.283200e+01
9.600000e-07	-1.801983e-06	-9.582487e-10	-1.371705e+01	-6.236863e+01
9.700000e-07	-1.785077e-06	-9.560271e-10	-1.358836e+01	-6.190318e+01
9.800000e-07	-1.768139e-06	-9.415981e-10	-1.345942e+01	-6.143558e+01
9.900000e-07	-1.751065e-06	-9.272548e-10	-1.332945e+01	-6.096571e+01
1.000000e-06	-1.733791e-06	-9.208115e-10	-1.319796e+01	-6.049338e+01
1.010000e-06	-1.716412e-06	-9.199562e-10	-1.306566e+01	-6.001837e+01
1.020000e-06	-1.698956e-06	-9.159758e-10	-1.293279e+01	-5.954042e+01
1.030000e-06	-1.681393e-06	-9.043705e-10	-1.279910e+01	-5.905926e+01
1.040000e-06	-1.663696e-06	-8.899106e-10	-1.266438e+01	-5.857458e+01
1.050000e-06	-1.645969e-06	-8.822428e-10	-1.252944e+01	-5.808609e+01
1.060000e-06	-1.628236e-06	-8.801564e-10	-1.239445e+01	-5.759352e+01
1.070000e-06	-1.610392e-06	-8.761155e-10	-1.225862e+01	-5.709661e+01
1.080000e-06	-1.592419e-06	-8.662301e-10	-1.212181e+01	-5.659514e+01
1.090000e-06	-1.574378e-06	-8.561390e-10	-1.198447e+01	-5.608893e+01
1.100000e-06	-1.556302e-06	-8.494368e-10	-1.184688e+01	-5.557786e+01
1.110000e-06	-1.538149e-06	-8.478349e-10	-1.170869e+01	-5.506187e+01
1.120000e-06	-1.519874e-06	-8.432327e-10	-1.156958e+01	-5.454095e+01
1.130000e-06	-1.501460e-06	-8.275689e-10	-1.142941e+01	-5.401516e+01
1.140000e-06	-1.482854e-06	-8.119261e-10	-1.128778e+01	-5.348461e+01
1.150000e-06	-1.464047e-06	-8.068117e-10	-1.114461e+01	-5.294949e+01
1.160000e-06	-1.445117e-06	-8.065120e-10	-1.100051e+01	-5.241001e+01
1.170000e-06	-1.426137e-06	-7.988817e-10	-1.085604e+01	-5.186644e+01
1.180000e-06	-1.407076e-06	-7.842078e-10	-1.071094e+01	-5.131909e+01
1.190000e-06	-1.387831e-06	-7.761687e-10	-1.056444e+01	-5.076826e+01
1.200000e-06	-1.368487e-06	-7.744330e-10	-1.041719e+01	-5.021429e+01
1.210000e-06	-1.349072e-06	-7.701631e-10	-1.026940e+01	-4.965751e+01
1.220000e-06	-1.329498e-06	-7.604408e-10	-1.012040e+01	-4.909821e+01
1.230000e-06	-1.309835e-06	-7.484290e-10	-9.970722e+00	-4.853668e+01
1.240000e-06	-1.290125e-06	-7.404830e-10	-9.820685e+00	-4.797315e+01
1.250000e-06	-1.270383e-06	-7.367305e-10	-9.670401e+00	-4.740780e+01
1.260000e-06	-1.250570e-06	-7.300963e-10	-9.519582e+00	-4.684075e+01
1.270000e-06	-1.230685e-06	-7.184037e-10	-9.368215e+00	-4.627203e+01
1.280000e-06	-1.210768e-06	-7.075111e-10	-9.216606e+00	-4.570162e+01
1.290000e-06	-1.190810e-06	-7.029437e-10	-9.064680e+00	-4.512941e+01
1.300000e-06	-1.170817e-06	-6.989553e-10	-8.912489e+00	-4.455520e+01
1.310000e-06	-1.150797e-06	-6.904777e-10	-8.760090e+00	-4.397872e+01
1.320000e-06	-1.130714e-06	-6.786007e-10	-8.607220e+00	-4.339963e+01
1.330000e-06	-1.110578e-06	-6.683798e-10	-8.453941e+00	-4.281752e+01
1.340000e-06	-1.090442e-06	-6.631011e-10	-8.300661e+00	-4.223191e+01
1.350000e-06	-1.070313e-06	-6.577565e-10	-8.147435e+00	-4.164231e+01
1.360000e-06	-1.050151e-06	-6.495807e-10	-7.993957e+00	-4.104815e+01
1.370000e-06	-1.029919e-06	-6.373945e-10	-7.839942e+00	-4.044889e+01
1.380000e-06	-1.009641e-06	-6.263403e-10	-7.685588e+00	-3.984396e+01
1.390000e-06	-9.893063e-07	-6.192012e-10	-7.530793e+00	-3.923280e+01
1.400000e-06	-9.688882e-07	-6.143514e-10	-7.375367e+00	-3.861492e+01
1.410000e-06	-9.484371e-07	-6.060919e-10	-7.219689e+00	-3.798983e+01
1.420000e-06	-9.279660e-07	-5.925572e-10	-7.063859e+00	-3.735712e+01
1.430000e-06	-9.073958e-07	-5.797690e-10	-6.907275e+00	-3.671648e+01
1.440000e-06	-8.868255e-07	-5.721169e-10	-6.750689e+00	-3.606764e+01
1.450000e-06	-8.662579e-07	-5.644633e-10	-6.594125e+00	-3.541046e+01
1.460000e-06	-8.455369e-07	-5.511894e-10	-6.436393e+00	-3.474489e+01
1.470000e-06	-8.247819e-07	-5.361719e-10	-6.278402e+00	-3.407099e+01
1.480000e-06	-8.039395e-07	-5.280086e-10	-6.119745e+00	-3.338893e+01
1.490000e-06	-7.829366e-07	-5.247446e-10	-5.959867e+00	-3.269898e+01
1.500000e-06	-7.619529e-07	-5.176634e-10	-5.800135e+00	-3.200152e+01
1.510000e-06	-7.409688e-07	-5.039754e-10	-5.640400e+00	-3.129703e+01
1.520000e-06	-7.198879e-07	-4.912614e-10	-5.479928e+00	-3.058605e+01
1.530000e-06	-6.986573e-07	-4.833379e-10	-5.318316e+00	-2.986922e+01
1.540000e-06	-6.773871e-07	-4.737277e-10	-5.156403e+00	-2.914724e+01
1.550000e-06	-6.560726e-07	-4.635273e-10	-4.994153e+00	-2.842084e+01
1.560000e-06	-6.346508e-07	-4.549973e-10	-4.831087e+00	-2.769078e+01
1.570000e-06	-6.132202e-07	-4.462889e-10	-4.667952e+00	-2.695785e+01
1.580000e-06	-5.917494e-07	-4.363808e-10	-4.504512e+00	-2.622282e+01
1.590000e-06	-5.702194e-07	-4.253482e-10	-4.340622e+00	-2.548643e+01
1.600000e-06	-5.486202e-07	-4.143400e-10	-4.176204e+00	-2.474941e+01
1.610000e-06	-5.270320e-07	-4.026322e-10	-4.011871e+00	-2.401240e+01
1.620000e-06	-5.054150e-07	-3.877130e-10	-3.847318e+00	-2.327601e+01
1.630000e-06	-4.837158e-07	-3.735891e-10	-3.682139e+00	-2.254076e+01
1.640000e-06	-4.620084e-07	-3.626103e-10	-3.516899e+00	-2.180708e+01
1.650000e-06	-4.402162e-07	-3.522925e-10	-3.351012e+00	-2.107532e+01
1.660000e-06	-4.183850e-07	-3.402448e-10	-3.184829e+00	-2.034572e+01
1.670000e-06	-3.965312e-07	-3.285393e-10	-3.018473e+00	-1.961845e+01
1.680000e-06	-3.746078e-07	-3.187868e-10	-2.851588e+00	-1.889357e+01
1.690000e-06	-3.527239e-07	-3.089705e-10	-2.685004e+00	-1.817106e+01
1.700000e-06	-3.308812e-07	-2.964986e-10	-2.518732e+00	-1.745081e+01
1.710000e-06	-3.089648e-07	-2.816007e-10	-2.351901e+00	-1.673265e+01
1.720000e-06	-2.870339e-07	-2.696225e-10	-2.184958e+00	-1.601633e+01
1.730000e-06	-2.651565e-07	-2.601996e-10	-2.018423e+00	-1.530158e+01
1.740000e-06	-2.432467e-07	-2.491540e-10	-1.851641e+00	-1.458807e+01
1.750000e-06	-2.212787e-07	-2.359781e-10	-1.684417e+00	-1.387546e+01
1.760000e-06	-1.993019e-07	-2.208652e-10	-1.517125e+00	-1.316338e+01
1.770000e-06	-1.773449e-07	-2.080416e-10	-1.349984e+00	-1.245149e+01
1.780000e-06	-1.553882e-07	-1.997737e-10	-1.182845e+00	-1.173946e+01
1.790000e-06	-1.334104e-07	-1.913392e-10	-1.015546e+00	-1.102697e+01
1.800000e-06	-1.113871e-07	-1.808141e-10	-8.479005e-01	-1.031375e+01
1.810000e-06	-8.934451e-08	-1.694784e-10	-6.801079e-01	-9.599585e+00
1.820000e-06	-6.730176e-08	-1.600589e-10	-5.123142e-01	-8.884290e+00
1.830000e-06	-4.524706e-08	-1.519633e-10	-3.444295e-01	-8.167749e+00
1.840000e-06	-2.325095e-08	-1.421281e-10	-1.769908e-01	-7.449894e+00
1.850000e-06	-1.303173e-09	-1.297851e-10	-9.920010e-03	-6.730717e+00
1.860000e-06	2.068567e-08	-1.150700e-10	1.574634e-01	-6.010258e+00
1.870000e-06	4.269082e-08	-1.011425e-10	3.249709e-01	-5.288606e+00
1.880000e-06	6.470805e-08	-8.948843e-11	4.925704e-01	-4.565888e+00
1.890000e-06	8.672780e-08	-7.842495e-11	6.601890e-01	-3.842264e+00
1.900000e-06	1.086991e-07	-6.717537e-11	8.274391e-01	-3.117915e+00
1.910000e-06	1.306780e-07	-5.367445e-11	9.947467e-01	-2.393034e+00
1.920000e-06	1.526834e-07	-3.998375e-11	1.162256e+00	-1.667813e+00
1.930000e-06	1.746864e-07	-2.965199e-11	1.329747e+00	-9.424350e-01
1.940000e-06	1.966867e-07	-2.177329e-11	1.497218e+00	-2.170629e-01
1.950000e-06	2.186751e-07	-9.807870e-12	1.664598e+00	5.081715e-01
1.960000e-06	2.406100e-07	6.165581e-12	1.831571e+00	1.233175e+00
1.970000e-06	2.625464e-07	1.980753e-11	1.998555e+00	1.957899e+00
1.980000e-06	2.845579e-07	2.868191e-11	2.166110e+00	2.682348e+00
1.990000e-06	3.065431e-07	3.597646e-11	2.333466e+00	3.406578e+00
2.000000e-06	3.284395e-07	4.546856e-11	2.500146e+00	4.130702e+00
2.010000e-06	3.503247e-07	5.579949e-11	2.666740e+00	4.854885e+00
2.020000e-06	3.722406e-07	6.467940e-11	2.833568e+00	5.579344e+00
2.030000e-06	3.941440e-07	7.526626e-11	3.000301e+00	6.304342e+00
2.040000e-06	4.160023e-07	8.797562e-11	3.166691e+00	7.030178e+00
2.050000e-06	4.377856e-07	1.001140e-10	3.332510e+00	7.757183e+00
2.060000e-06	4.595103e-07	1.114386e-10	3.497882e+00	8.485702e+00
2.070000e-06	4.812714e-07	1.222675e-10	3.663532e+00	9.216092e+00
2.080000e-06	5.030309e-07	1.351607e-10	3.829170e+00	9.948700e+00
2.090000e-06	5.246846e-07	1.500257e-10	3.994002e+00	1.068386e+01
2.100000e-06	5.462570e-07	1.660141e-10	4.158216e+00	1.142186e+01
2.110000e-06	5.677773e-07	1.791879e-10	4.322032e+00	1.216298e+01
2.120000e-06	5.891755e-07	1.893354e-10	4.484919e+00	1.290740e+01
2.130000e-06	6.105556e-07	1.989385e-10	4.647669e+00	1.365528e+01
2.140000e-06	6.319652e-07	2.108533e-10	4.810643e+00	1.440667e+01
2.150000e-06	6.533367e-07	2.249276e-10	4.973327e+00	1.516157e+01
2.160000e-06	6.746678e-07	2.375700e-10	5.135704e+00	1.591989e+01
2.170000e-06	6.958964e-07	2.483426e-10	5.297299e+00	1.668145e+01
2.180000e-06	7.170452e-07	2.595990e-10	5.458289e+00	1.744599e+01
2.190000e-06	7.381589e-07	2.730775e-10	5.619010e+00	1.821317e+01
2.200000e-06	7.592093e-07	2.864877e-10	5.779250e+00	1.898258e+01
2.210000e-06	7.801442e-07	2.987631e-10	5.938610e+00	1.975374e+01
2.220000e-06	8.010228e-07	3.100840e-10	6.097542e+00	2.052612e+01
2.230000e-06	8.218923e-07	3.210739e-10	6.256405e+00	2.129913e+01
2.240000e-06	8.426730e-07	3.317864e-10	6.414592e+00	2.207216e+01
2.250000e-06	8.633219e-07	3.430499e-10	6.571776e+00	2.284457e+01
2.260000e-06	8.839185e-07	3.551056e-10	6.728561e+00	2.361574e+01
2.270000e-06	9.044549e-07	3.686026e-10	6.884888e+00	2.438504e+01
2.280000e-06	9.249228e-07	3.817288e-10	7.040693e+00	2.515188e+01
2.290000e-06	9.453856e-07	3.929171e-10	7.196460e+00	2.591568e+01
2.300000e-06	9.657520e-07	4.028729e-10	7.351494e+00	2.667596e+01
2.310000e-06	9.860437e-07	4.138799e-10	7.505958e+00	2.743226e+01
2.320000e-06	1.006341e-06	4.260346e-10	7.660468e+00	2.818423e+01
2.330000e-06	1.026593e-06	4.383680e-10	7.814623e+00	2.893155e+01
2.340000e-06	1.046756e-06	4.502341e-10	7.968113e+00	2.967405e+01
2.350000e-06	1.066890e-06	4.621040e-10	8.121376e+00	3.041159e+01
2.360000e-06	1.087015e-06	4.752436e-10	8.274571e+00	3.114414e+01
2.370000e-06	1.107099e-06	4.870903e-10	8.427451e+00	3.187176e+01
2.380000e-06	1.127149e-06	4.995336e-10	8.580075e+00	3.259458e+01
2.390000e-06	1.147188e-06	5.114356e-10	8.732619e+00	3.331281e+01
2.400000e-06	1.167235e-06	5.217604e-10	8.885221e+00	3.402672e+01
2.410000e-06	1.187236e-06	5.328576e-10	9.037470e+00	3.473661e+01
2.420000e-06	1.207198e-06	5.439680e-10	9.189428e+00	3.544285e+01
2.430000e-06	1.227154e-06	5.538385e-10	9.341337e+00	3.614581e+01
2.440000e-06	1.247046e-06	5.637560e-10	9.492758e+00	3.684590e+01
2.450000e-06	1.266852e-06	5.757526e-10	9.643526e+00	3.754350e+01
2.460000e-06	1.286633e-06	5.883454e-10	9.794103e+00	3.823899e+01
2.470000e-06	1.306380e-06	6.013286e-10	9.944422e+00	3.893271e+01
2.480000e-06	1.326047e-06	6.142940e-10	1.009413e+01	3.962497e+01
2.490000e-06	1.345613e-06	6.271891e-10	1.024307e+01	4.031602e+01
2.500000e-06	1.365069e-06	6.383555e-10	1.039117e+01	4.100607e+01
2.510000e-06	1.384453e-06	6.489008e-10	1.053873e+01	4.169524e+01
2.520000e-06	1.403733e-06	6.604040e-10	1.068549e+01	4.238359e+01
2.530000e-06	1.422754e-06	6.708454e-10	1.083029e+01	4.307113e+01
2.540000e-06	1.441596e-06	6.793964e-10	1.097371e+01	4.375777e+01
2.550000e-06	1.460388e-06	6.874150e-10	1.111676e+01	4.444338e+01
2.560000e-06	1.479156e-06	6.969282e-10	1.125963e+01	4.512775e+01
2.570000e-06	1.497738e-06	7.066116e-10	1.140107e+01	4.581064e+01
2.580000e-06	1.516074e-06	7.175101e-10	1.154065e+01	4.649174e+01
2.590000e-06	1.534327e-06	7.289988e-10	1.167960e+01	4.717073e+01
2.600000e-06	1.552423e-06	7.400064e-10	1.181735e+01	4.784725e+01
2.610000e-06	1.570398e-06	7.489683e-10	1.195418e+01	4.852095e+01
2.620000e-06	1.588339e-06	7.565760e-10	1.209075e+01	4.919147e+01
2.630000e-06	1.606220e-06	7.673052e-10	1.222686e+01	4.985847e+01
2.640000e-06	1.623952e-06	7.812583e-10	1.236184e+01	5.052162e+01
2.650000e-06	1.641588e-06	7.950657e-10	1.249609e+01	5.118066e+01
2.660000e-06	1.659157e-06	8.077680e-10	1.262983e+01	5.183533e+01
2.670000e-06	1.676644e-06	8.200143e-10	1.276294e+01	5.248545e+01
2.680000e-06	1.694054e-06	8.320938e-10	1.289547e+01	5.313089e+01
2.690000e-06	1.711334e-06	8.422136e-10	1.302701e+01	5.377157e+01
2.700000e-06	1.728524e-06	8.488874e-10	1.315787e+01	5.440749e+01
2.710000e-06	1.745709e-06	8.525219e-10	1.328868e+01	5.503867e+01
2.720000e-06	1.762840e-06	8.579715e-10	1.341908e+01	5.566522e+01
2.730000e-06	1.779824e-06	8.676918e-10	1.354837e+01	5.628725e+01
2.740000e-06	1.796691e-06	8.779151e-10	1.367677e+01	5.690496e+01
2.750000e-06	1.813440e-06	8.867138e-10	1.380426e+01	5.751852e+01
2.760000e-06	1.829981e-06	8.958014e-10	1.393017e+01	5.812816e+01
2.770000e-06	1.846353e-06	9.076053e-10	1.405480e+01	5.873408e+01
2.780000e-06	1.862666e-06	9.193592e-10	1.417898e+01	5.933649e+01
2.790000e-06	1.878766e-06	9.283319e-10	1.430153e+01	5.993557e+01
2.800000e-06	1.894673e-06	9.351559e-10	1.442262e+01	6.053146e+01
2.810000e-06	1.910353e-06	9.423053e-10	1.454198e+01	6.112425e+01
2.820000e-06	1.925845e-06	9.514592e-10	1.465991e+01	6.171399e+01
2.830000e-06	1.941155e-06	9.624840e-10	1.477645e+01	6.230064e+01
2.840000e-06	1.956139e-06	9.737665e-10	1.489051e+01	6.288411e+01
2.850000e-06	1.970890e-06	9.838120e-10	1.500280e+01	6.346422e+01
2.860000e-06	1.985366e-06	9.927324e-10	1.511299e+01	6.404072e+01
2.870000e-06	1.999715e-06	1.002417e-09	1.522222e+01	6.461329e+01
2.880000e-06	2.014055e-06	1.012353e-09	1.533138e+01	6.518152e+01
2.890000e-06	2.028292e-06	1.021034e-09	1.543976e+01	6.574494e+01
2.900000e-06	2.042349e-06	1.030395e-09	1.554676e+01	6.630305e+01
