# Temperatura_=_20.0
# Concentracion g/m^3_=_12600.0
# C_Vs_to_Am_M_A/Vsm_=_65563218390.804596
# pendiente_HvsI_1/m_=_3716.3
# ordenada_HvsI_A/m_=_1297.0
# frecuencia_Hz_=_134924.3125247288

Tiempo_(s)	Campo_(V.s)	Magnetizacion_(V.s)	Campo_(kA/m)	Magnetizacion_(A/m)
0.000000e+00	-2.612860e-06	-1.324561e-09	-1.982888e+01	-8.693761e+01
1.000000e-08	-2.613087e-06	-1.333220e-09	-1.983061e+01	-8.691597e+01
2.000000e-08	-2.613195e-06	-1.359966e-09	-1.983143e+01	-8.688363e+01
3.000000e-08	-2.613183e-06	-1.391635e-09	-1.983134e+01	-8.684017e+01
4.000000e-08	-2.613070e-06	-1.415504e-09	-1.983048e+01	-8.678521e+01
5.000000e-08	-2.612884e-06	-1.359966e-09	-1.982907e+01	-8.671843e+01
6.000000e-08	-2.612634e-06	-1.233429e-09	-1.982717e+01	-8.663963e+01
7.000000e-08	-2.612245e-06	-1.131719e-09	-1.982422e+01	-8.654868e+01
8.000000e-08	-2.611586e-06	-1.119265e-09	-1.981922e+01	-8.644556e+01
9.000000e-08	-2.610711e-06	-1.342633e-09	-1.981258e+01	-8.633036e+01
1.000000e-07	-2.609609e-06	-1.483393e-09	-1.980421e+01	-8.620329e+01
1.100000e-07	-2.608284e-06	-1.537849e-09	-1.979416e+01	-8.606471e+01
1.200000e-07	-2.606730e-06	-1.357055e-09	-1.978236e+01	-8.591505e+01
1.300000e-07	-2.604770e-06	-1.262477e-09	-1.976749e+01	-8.575489e+01
1.400000e-07	-2.602339e-06	-1.245271e-09	-1.974904e+01	-8.558491e+01
1.500000e-07	-2.599517e-06	-1.336861e-09	-1.972763e+01	-8.540590e+01
1.600000e-07	-2.596448e-06	-1.344144e-09	-1.970433e+01	-8.521874e+01
1.700000e-07	-2.593226e-06	-1.270025e-09	-1.967988e+01	-8.502436e+01
1.800000e-07	-2.589823e-06	-1.283552e-09	-1.965406e+01	-8.482378e+01
1.900000e-07	-2.586209e-06	-1.301440e-09	-1.962663e+01	-8.461803e+01
2.000000e-07	-2.582422e-06	-1.328491e-09	-1.959789e+01	-8.440818e+01
2.100000e-07	-2.578555e-06	-1.192792e-09	-1.956855e+01	-8.419530e+01
2.200000e-07	-2.574606e-06	-1.201460e-09	-1.953858e+01	-8.398043e+01
2.300000e-07	-2.570550e-06	-1.262468e-09	-1.950780e+01	-8.376457e+01
2.400000e-07	-2.566443e-06	-1.388361e-09	-1.947663e+01	-8.354866e+01
2.500000e-07	-2.562241e-06	-1.268686e-09	-1.944474e+01	-8.333356e+01
2.600000e-07	-2.557855e-06	-1.166302e-09	-1.941145e+01	-8.312002e+01
2.700000e-07	-2.553195e-06	-1.171024e-09	-1.937609e+01	-8.290871e+01
2.800000e-07	-2.548341e-06	-1.340788e-09	-1.933926e+01	-8.270015e+01
2.900000e-07	-2.543468e-06	-1.367985e-09	-1.930227e+01	-8.249473e+01
3.000000e-07	-2.538499e-06	-1.221043e-09	-1.926457e+01	-8.229270e+01
3.100000e-07	-2.533231e-06	-1.121154e-09	-1.922458e+01	-8.209417e+01
3.200000e-07	-2.527732e-06	-1.219407e-09	-1.918285e+01	-8.189909e+01
3.300000e-07	-2.522087e-06	-1.373667e-09	-1.914001e+01	-8.170729e+01
3.400000e-07	-2.516239e-06	-1.315537e-09	-1.909563e+01	-8.151846e+01
3.500000e-07	-2.510214e-06	-1.153864e-09	-1.904991e+01	-8.133215e+01
3.600000e-07	-2.503983e-06	-1.123090e-09	-1.900262e+01	-8.114780e+01
3.700000e-07	-2.497559e-06	-1.294705e-09	-1.895387e+01	-8.096475e+01
3.800000e-07	-2.491004e-06	-1.355108e-09	-1.890413e+01	-8.078228e+01
3.900000e-07	-2.484266e-06	-1.222634e-09	-1.885299e+01	-8.059955e+01
4.000000e-07	-2.477309e-06	-1.090076e-09	-1.880019e+01	-8.041573e+01
4.100000e-07	-2.470238e-06	-1.181680e-09	-1.874653e+01	-8.022992e+01
4.200000e-07	-2.463102e-06	-1.309703e-09	-1.869237e+01	-8.004123e+01
4.300000e-07	-2.455709e-06	-1.277141e-09	-1.863627e+01	-7.984879e+01
4.400000e-07	-2.448099e-06	-1.138966e-09	-1.857852e+01	-7.965175e+01
4.500000e-07	-2.440382e-06	-1.134770e-09	-1.851996e+01	-7.944930e+01
4.600000e-07	-2.432542e-06	-1.239346e-09	-1.846046e+01	-7.924070e+01
4.700000e-07	-2.424629e-06	-1.277013e-09	-1.840041e+01	-7.902531e+01
4.800000e-07	-2.416625e-06	-1.192986e-09	-1.833967e+01	-7.880255e+01
4.900000e-07	-2.408481e-06	-1.138669e-09	-1.827786e+01	-7.857195e+01
5.000000e-07	-2.400254e-06	-1.177216e-09	-1.821543e+01	-7.833314e+01
5.100000e-07	-2.391983e-06	-1.231463e-09	-1.815266e+01	-7.808587e+01
5.200000e-07	-2.383531e-06	-1.210349e-09	-1.808851e+01	-7.782999e+01
5.300000e-07	-2.374808e-06	-1.160321e-09	-1.802232e+01	-7.756545e+01
5.400000e-07	-2.365865e-06	-1.148654e-09	-1.795445e+01	-7.729233e+01
5.500000e-07	-2.356618e-06	-1.183403e-09	-1.788428e+01	-7.701077e+01
5.600000e-07	-2.347021e-06	-1.201081e-09	-1.781145e+01	-7.672101e+01
5.700000e-07	-2.337211e-06	-1.174847e-09	-1.773699e+01	-7.642337e+01
5.800000e-07	-2.327123e-06	-1.136672e-09	-1.766044e+01	-7.611823e+01
5.900000e-07	-2.316710e-06	-1.141912e-09	-1.758142e+01	-7.580601e+01
6.000000e-07	-2.306060e-06	-1.173791e-09	-1.750059e+01	-7.548718e+01
6.100000e-07	-2.295189e-06	-1.173663e-09	-1.741809e+01	-7.516220e+01
6.200000e-07	-2.284024e-06	-1.135521e-09	-1.733337e+01	-7.483156e+01
6.300000e-07	-2.272609e-06	-1.119754e-09	-1.724673e+01	-7.449575e+01
6.400000e-07	-2.261062e-06	-1.146129e-09	-1.715910e+01	-7.415520e+01
6.500000e-07	-2.249396e-06	-1.157707e-09	-1.707057e+01	-7.381035e+01
6.600000e-07	-2.237564e-06	-1.127303e-09	-1.698078e+01	-7.346158e+01
6.700000e-07	-2.225581e-06	-1.097613e-09	-1.688984e+01	-7.310920e+01
6.800000e-07	-2.213507e-06	-1.106833e-09	-1.679822e+01	-7.275349e+01
6.900000e-07	-2.201319e-06	-1.121370e-09	-1.670571e+01	-7.239467e+01
7.000000e-07	-2.188984e-06	-1.111407e-09	-1.661211e+01	-7.203287e+01
7.100000e-07	-2.176490e-06	-1.084967e-09	-1.651729e+01	-7.166820e+01
7.200000e-07	-2.163729e-06	-1.076135e-09	-1.642045e+01	-7.130067e+01
7.300000e-07	-2.150777e-06	-1.083781e-09	-1.632216e+01	-7.093025e+01
7.400000e-07	-2.137718e-06	-1.094371e-09	-1.622305e+01	-7.055688e+01
7.500000e-07	-2.124426e-06	-1.081696e-09	-1.612218e+01	-7.018043e+01
7.600000e-07	-2.110966e-06	-1.057991e-09	-1.602003e+01	-6.980075e+01
7.700000e-07	-2.097455e-06	-1.049743e-09	-1.591750e+01	-6.941766e+01
7.800000e-07	-2.083817e-06	-1.070333e-09	-1.581400e+01	-6.903097e+01
7.900000e-07	-2.069999e-06	-1.076043e-09	-1.570913e+01	-6.864048e+01
8.000000e-07	-2.055965e-06	-1.049950e-09	-1.560263e+01	-6.824602e+01
8.100000e-07	-2.041747e-06	-1.025472e-09	-1.549473e+01	-6.784740e+01
8.200000e-07	-2.027527e-06	-1.037687e-09	-1.538682e+01	-6.744448e+01
8.300000e-07	-2.013146e-06	-1.053230e-09	-1.527768e+01	-6.703713e+01
8.400000e-07	-1.998473e-06	-1.036264e-09	-1.516633e+01	-6.662528e+01
8.500000e-07	-1.983620e-06	-1.004396e-09	-1.505361e+01	-6.620888e+01
8.600000e-07	-1.968586e-06	-1.000836e-09	-1.493952e+01	-6.578795e+01
8.700000e-07	-1.953411e-06	-1.016016e-09	-1.482436e+01	-6.536252e+01
8.800000e-07	-1.938083e-06	-1.014102e-09	-1.470803e+01	-6.493270e+01
8.900000e-07	-1.922379e-06	-9.884040e-10	-1.458885e+01	-6.449863e+01
9.000000e-07	-1.906326e-06	-9.713253e-10	-1.446703e+01	-6.406049e+01
9.100000e-07	-1.890254e-06	-9.770599e-10	-1.434506e+01	-6.361850e+01
9.200000e-07	-1.874163e-06	-9.809128e-10	-1.422295e+01	-6.317290e+01
9.300000e-07	-1.857778e-06	-9.657528e-10	-1.409860e+01	-6.272396e+01
9.400000e-07	-1.841167e-06	-9.452755e-10	-1.397254e+01	-6.227196e+01
9.500000e-07	-1.824443e-06	-9.415999e-10	-1.384562e+01	-6.181717e+01
9.600000e-07	-1.807625e-06	-9.474836e-10	-1.371799e+01	-6.135988e+01
9.700000e-07	-1.790656e-06	-9.424824e-10	-1.358922e+01	-6.090035e+01
9.800000e-07	-1.773488e-06	-9.237261e-10	-1.345893e+01	-6.043882e+01
9.900000e-07	-1.756280e-06	-9.109866e-10	-1.332833e+01	-5.997550e+01
1.000000e-06	-1.738998e-06	-9.097088e-10	-1.319718e+01	-5.951057e+01
1.010000e-06	-1.721568e-06	-9.089902e-10	-1.306491e+01	-5.904416e+01
1.020000e-06	-1.704084e-06	-8.967428e-10	-1.293222e+01	-5.857633e+01
1.030000e-06	-1.686494e-06	-8.825984e-10	-1.279874e+01	-5.810713e+01
1.040000e-06	-1.668750e-06	-8.766424e-10	-1.266407e+01	-5.763652e+01
1.050000e-06	-1.650904e-06	-8.769082e-10	-1.252864e+01	-5.716443e+01
1.060000e-06	-1.633052e-06	-8.711978e-10	-1.239316e+01	-5.669071e+01
1.070000e-06	-1.615182e-06	-8.606270e-10	-1.225755e+01	-5.621519e+01
1.080000e-06	-1.597187e-06	-8.515019e-10	-1.212099e+01	-5.573763e+01
1.090000e-06	-1.579096e-06	-8.481636e-10	-1.198369e+01	-5.525776e+01
1.100000e-06	-1.560913e-06	-8.422537e-10	-1.184571e+01	-5.477527e+01
1.110000e-06	-1.542608e-06	-8.340076e-10	-1.170679e+01	-5.428982e+01
1.120000e-06	-1.524118e-06	-8.256258e-10	-1.156646e+01	-5.380106e+01
1.130000e-06	-1.505509e-06	-8.159017e-10	-1.142524e+01	-5.330861e+01
1.140000e-06	-1.486798e-06	-8.057664e-10	-1.128325e+01	-5.281210e+01
1.150000e-06	-1.467959e-06	-7.978638e-10	-1.114028e+01	-5.231117e+01
1.160000e-06	-1.448994e-06	-7.929001e-10	-1.099635e+01	-5.180546e+01
1.170000e-06	-1.429852e-06	-7.844393e-10	-1.085109e+01	-5.129464e+01
1.180000e-06	-1.410599e-06	-7.730079e-10	-1.070497e+01	-5.077839e+01
1.190000e-06	-1.391222e-06	-7.655442e-10	-1.055793e+01	-5.025645e+01
1.200000e-06	-1.371694e-06	-7.639876e-10	-1.040973e+01	-4.972857e+01
1.210000e-06	-1.352080e-06	-7.598956e-10	-1.026088e+01	-4.919455e+01
1.220000e-06	-1.332406e-06	-7.495186e-10	-1.011157e+01	-4.865424e+01
1.230000e-06	-1.312711e-06	-7.375666e-10	-9.962108e+00	-4.810752e+01
1.240000e-06	-1.292977e-06	-7.327257e-10	-9.812350e+00	-4.755432e+01
1.250000e-06	-1.273141e-06	-7.315640e-10	-9.661811e+00	-4.699461e+01
1.260000e-06	-1.253249e-06	-7.232801e-10	-9.510853e+00	-4.642840e+01
1.270000e-06	-1.233354e-06	-7.089860e-10	-9.359873e+00	-4.585573e+01
1.280000e-06	-1.213439e-06	-6.991573e-10	-9.208736e+00	-4.527666e+01
1.290000e-06	-1.193508e-06	-6.961774e-10	-9.057481e+00	-4.469129e+01
1.300000e-06	-1.173551e-06	-6.899752e-10	-8.906030e+00	-4.409974e+01
1.310000e-06	-1.153566e-06	-6.773114e-10	-8.754365e+00	-4.350214e+01
1.320000e-06	-1.133558e-06	-6.653233e-10	-8.602525e+00	-4.289862e+01
1.330000e-06	-1.113542e-06	-6.602468e-10	-8.450627e+00	-4.228931e+01
1.340000e-06	-1.093489e-06	-6.555552e-10	-8.298444e+00	-4.167437e+01
1.350000e-06	-1.073375e-06	-6.446752e-10	-8.145801e+00	-4.105391e+01
1.360000e-06	-1.053252e-06	-6.310692e-10	-7.993087e+00	-4.042807e+01
1.370000e-06	-1.033110e-06	-6.204297e-10	-7.840228e+00	-3.979695e+01
1.380000e-06	-1.012921e-06	-6.105148e-10	-7.687015e+00	-3.916065e+01
1.390000e-06	-9.926720e-07	-6.001889e-10	-7.533346e+00	-3.851926e+01
1.400000e-06	-9.723600e-07	-5.895657e-10	-7.379199e+00	-3.787285e+01
1.410000e-06	-9.519481e-07	-5.794526e-10	-7.224294e+00	-3.722147e+01
1.420000e-06	-9.314364e-07	-5.699112e-10	-7.068632e+00	-3.656519e+01
1.430000e-06	-9.108703e-07	-5.596039e-10	-6.912556e+00	-3.590405e+01
1.440000e-06	-8.903133e-07	-5.492958e-10	-6.756550e+00	-3.523811e+01
1.450000e-06	-8.696963e-07	-5.379780e-10	-6.600089e+00	-3.456740e+01
1.460000e-06	-8.489060e-07	-5.267577e-10	-6.442312e+00	-3.389201e+01
1.470000e-06	-8.279960e-07	-5.139990e-10	-6.283627e+00	-3.321200e+01
1.480000e-06	-8.069812e-07	-5.032948e-10	-6.124147e+00	-3.252748e+01
1.490000e-06	-7.858686e-07	-4.976496e-10	-5.963923e+00	-3.183856e+01
1.500000e-06	-7.647349e-07	-4.923980e-10	-5.803541e+00	-3.114540e+01
1.510000e-06	-7.435573e-07	-4.818195e-10	-5.642825e+00	-3.044818e+01
1.520000e-06	-7.223661e-07	-4.704038e-10	-5.482006e+00	-2.974712e+01
1.530000e-06	-7.011399e-07	-4.612193e-10	-5.320921e+00	-2.904249e+01
1.540000e-06	-6.798422e-07	-4.512238e-10	-5.159294e+00	-2.833457e+01
1.550000e-06	-6.585114e-07	-4.404143e-10	-4.997415e+00	-2.762369e+01
1.560000e-06	-6.371027e-07	-4.324569e-10	-4.834946e+00	-2.691022e+01
1.570000e-06	-6.156068e-07	-4.253222e-10	-4.671814e+00	-2.619457e+01
1.580000e-06	-5.940522e-07	-4.146716e-10	-4.508237e+00	-2.547715e+01
1.590000e-06	-5.725484e-07	-4.003578e-10	-4.345046e+00	-2.475842e+01
1.600000e-06	-5.509703e-07	-3.863825e-10	-4.181290e+00	-2.403883e+01
1.610000e-06	-5.292741e-07	-3.755340e-10	-4.016639e+00	-2.331886e+01
1.620000e-06	-5.075580e-07	-3.640380e-10	-3.851836e+00	-2.259897e+01
1.630000e-06	-4.857859e-07	-3.516930e-10	-3.686609e+00	-2.187962e+01
1.640000e-06	-4.639662e-07	-3.392409e-10	-3.521020e+00	-2.116125e+01
1.650000e-06	-4.421721e-07	-3.280287e-10	-3.355626e+00	-2.044429e+01
1.660000e-06	-4.203867e-07	-3.165356e-10	-3.190297e+00	-1.972910e+01
1.670000e-06	-3.985433e-07	-3.055445e-10	-3.024528e+00	-1.901601e+01
1.680000e-06	-3.766597e-07	-2.937390e-10	-2.858455e+00	-1.830532e+01
1.690000e-06	-3.548165e-07	-2.812487e-10	-2.692687e+00	-1.759724e+01
1.700000e-06	-3.329883e-07	-2.695092e-10	-2.527034e+00	-1.689193e+01
1.710000e-06	-3.110860e-07	-2.582812e-10	-2.360819e+00	-1.618949e+01
1.720000e-06	-2.891802e-07	-2.475546e-10	-2.194577e+00	-1.548993e+01
1.730000e-06	-2.672704e-07	-2.381977e-10	-2.028304e+00	-1.479322e+01
1.740000e-06	-2.453458e-07	-2.286810e-10	-1.861919e+00	-1.409922e+01
1.750000e-06	-2.233979e-07	-2.178900e-10	-1.695357e+00	-1.340776e+01
1.760000e-06	-2.013995e-07	-2.052695e-10	-1.528412e+00	-1.271858e+01
1.770000e-06	-1.793626e-07	-1.925349e-10	-1.361176e+00	-1.203137e+01
1.780000e-06	-1.572726e-07	-1.827354e-10	-1.193535e+00	-1.134575e+01
1.790000e-06	-1.351494e-07	-1.734508e-10	-1.025643e+00	-1.066133e+01
1.800000e-06	-1.131099e-07	-1.633560e-10	-8.583861e-01	-9.977645e+00
1.810000e-06	-9.113300e-08	-1.528907e-10	-6.916045e-01	-9.294224e+00
1.820000e-06	-6.916722e-08	-1.429342e-10	-5.249071e-01	-8.610571e+00
1.830000e-06	-4.721731e-08	-1.352943e-10	-3.583302e-01	-7.926184e+00
1.840000e-06	-2.524965e-08	-1.298566e-10	-1.916185e-01	-7.240562e+00
1.850000e-06	-3.277790e-09	-1.203331e-10	-2.487501e-02	-6.553217e+00
1.860000e-06	1.874758e-08	-1.065571e-10	1.422746e-01	-5.863683e+00
1.870000e-06	4.079304e-08	-9.333837e-11	3.095767e-01	-5.171526e+00
1.880000e-06	6.283457e-08	-8.256960e-11	4.768489e-01	-4.476348e+00
1.890000e-06	8.486536e-08	-7.153209e-11	6.440397e-01	-3.777799e+00
1.900000e-06	1.069095e-07	-5.858816e-11	8.113315e-01	-3.075579e+00
1.910000e-06	1.289784e-07	-4.535975e-11	9.788114e-01	-2.369443e+00
1.920000e-06	1.509669e-07	-3.256574e-11	1.145682e+00	-1.659206e+00
1.930000e-06	1.729156e-07	-2.150421e-11	1.312249e+00	-9.447426e-01
1.940000e-06	1.949125e-07	-1.275172e-11	1.479183e+00	-2.259862e-01
1.950000e-06	2.169431e-07	-2.123772e-12	1.646372e+00	4.970697e-01
1.960000e-06	2.389877e-07	1.110218e-11	1.813667e+00	1.224376e+00
1.970000e-06	2.610165e-07	2.354072e-11	1.980843e+00	1.955830e+00
1.980000e-06	2.829657e-07	3.340175e-11	2.147415e+00	2.691283e+00
1.990000e-06	3.048711e-07	4.211695e-11	2.313654e+00	3.430542e+00
2.000000e-06	3.267584e-07	5.048931e-11	2.479756e+00	4.173377e+00
2.010000e-06	3.486132e-07	6.039231e-11	2.645611e+00	4.919531e+00
2.020000e-06	3.705132e-07	7.090602e-11	2.811809e+00	5.668720e+00
2.030000e-06	3.924355e-07	8.178756e-11	2.978176e+00	6.420648e+00
2.040000e-06	4.142982e-07	9.262506e-11	3.144092e+00	7.175005e+00
2.050000e-06	4.361163e-07	1.033080e-10	3.309668e+00	7.931480e+00
2.060000e-06	4.578785e-07	1.149829e-10	3.474820e+00	8.689763e+00
2.070000e-06	4.796451e-07	1.278415e-10	3.640006e+00	9.449550e+00
2.080000e-06	5.014146e-07	1.414484e-10	3.805214e+00	1.021055e+01
2.090000e-06	5.231014e-07	1.551041e-10	3.969795e+00	1.097248e+01
2.100000e-06	5.447242e-07	1.690547e-10	4.133889e+00	1.173509e+01
2.110000e-06	5.663389e-07	1.815750e-10	4.297922e+00	1.249813e+01
2.120000e-06	5.879284e-07	1.927895e-10	4.461764e+00	1.326137e+01
2.130000e-06	6.094818e-07	2.025690e-10	4.625331e+00	1.402462e+01
2.140000e-06	6.309996e-07	2.130614e-10	4.788629e+00	1.478768e+01
2.150000e-06	6.524937e-07	2.251342e-10	4.951747e+00	1.555038e+01
2.160000e-06	6.739233e-07	2.377641e-10	5.114375e+00	1.631256e+01
2.170000e-06	6.951994e-07	2.505248e-10	5.275839e+00	1.707407e+01
2.180000e-06	7.163951e-07	2.617075e-10	5.436692e+00	1.783477e+01
2.190000e-06	7.375962e-07	2.730958e-10	5.597587e+00	1.859452e+01
2.200000e-06	7.587823e-07	2.866187e-10	5.758367e+00	1.935319e+01
2.210000e-06	7.798504e-07	2.996667e-10	5.918252e+00	2.011065e+01
2.220000e-06	8.008057e-07	3.110518e-10	6.077281e+00	2.086675e+01
2.230000e-06	8.217018e-07	3.227017e-10	6.235860e+00	2.162135e+01
2.240000e-06	8.425603e-07	3.343613e-10	6.394155e+00	2.237430e+01
2.250000e-06	8.634176e-07	3.441831e-10	6.552440e+00	2.312544e+01
2.260000e-06	8.842130e-07	3.548174e-10	6.710255e+00	2.387460e+01
2.270000e-06	9.048406e-07	3.682155e-10	6.866797e+00	2.462162e+01
2.280000e-06	9.253403e-07	3.828540e-10	7.022369e+00	2.536632e+01
2.290000e-06	9.458033e-07	3.952218e-10	7.177661e+00	2.610852e+01
2.300000e-06	9.662377e-07	4.064358e-10	7.332737e+00	2.684803e+01
2.310000e-06	9.866464e-07	4.156873e-10	7.487618e+00	2.758469e+01
2.320000e-06	1.007026e-06	4.258019e-10	7.642275e+00	2.831833e+01
2.330000e-06	1.027340e-06	4.380494e-10	7.796442e+00	2.904878e+01
2.340000e-06	1.047529e-06	4.496969e-10	7.949653e+00	2.977590e+01
2.350000e-06	1.067643e-06	4.607746e-10	8.102300e+00	3.049958e+01
2.360000e-06	1.087738e-06	4.732445e-10	8.254797e+00	3.121970e+01
2.370000e-06	1.107808e-06	4.864113e-10	8.407111e+00	3.193619e+01
2.380000e-06	1.127864e-06	4.981924e-10	8.559313e+00	3.264901e+01
2.390000e-06	1.147880e-06	5.099555e-10	8.711214e+00	3.335813e+01
2.400000e-06	1.167886e-06	5.221343e-10	8.863035e+00	3.406357e+01
2.410000e-06	1.187888e-06	5.354112e-10	9.014833e+00	3.476539e+01
2.420000e-06	1.207857e-06	5.469488e-10	9.166374e+00	3.546366e+01
2.430000e-06	1.227780e-06	5.548564e-10	9.317568e+00	3.615849e+01
2.440000e-06	1.247636e-06	5.633836e-10	9.468260e+00	3.685004e+01
2.450000e-06	1.267436e-06	5.754709e-10	9.618518e+00	3.753847e+01
2.460000e-06	1.287238e-06	5.885713e-10	9.768796e+00	3.822398e+01
2.470000e-06	1.307002e-06	6.018666e-10	9.918781e+00	3.890679e+01
2.480000e-06	1.326620e-06	6.126020e-10	1.006766e+01	3.958711e+01
2.490000e-06	1.346173e-06	6.239161e-10	1.021605e+01	4.026520e+01
2.500000e-06	1.365663e-06	6.361675e-10	1.036396e+01	4.094128e+01
2.510000e-06	1.385009e-06	6.485697e-10	1.051077e+01	4.161561e+01
2.520000e-06	1.404240e-06	6.595422e-10	1.065672e+01	4.228839e+01
2.530000e-06	1.423402e-06	6.674019e-10	1.080214e+01	4.295986e+01
2.540000e-06	1.442511e-06	6.740924e-10	1.094715e+01	4.363019e+01
2.550000e-06	1.461480e-06	6.828357e-10	1.109111e+01	4.429955e+01
2.560000e-06	1.480200e-06	6.934759e-10	1.123317e+01	4.496808e+01
2.570000e-06	1.498722e-06	7.033311e-10	1.137374e+01	4.563588e+01
2.580000e-06	1.517191e-06	7.118776e-10	1.151390e+01	4.630302e+01
2.590000e-06	1.535629e-06	7.201642e-10	1.165383e+01	4.696951e+01
2.600000e-06	1.553951e-06	7.309518e-10	1.179287e+01	4.763534e+01
2.610000e-06	1.572067e-06	7.419618e-10	1.193035e+01	4.830045e+01
2.620000e-06	1.590023e-06	7.513607e-10	1.206662e+01	4.896476e+01
2.630000e-06	1.607910e-06	7.608582e-10	1.220236e+01	4.962812e+01
2.640000e-06	1.625703e-06	7.719599e-10	1.233739e+01	5.029038e+01
2.650000e-06	1.643378e-06	7.844998e-10	1.247152e+01	5.095133e+01
2.660000e-06	1.661000e-06	7.975459e-10	1.260526e+01	5.161075e+01
2.670000e-06	1.678496e-06	8.084432e-10	1.273804e+01	5.226838e+01
2.680000e-06	1.695876e-06	8.176482e-10	1.286993e+01	5.292398e+01
2.690000e-06	1.713268e-06	8.276048e-10	1.300192e+01	5.357724e+01
2.700000e-06	1.730560e-06	8.385032e-10	1.313315e+01	5.422790e+01
2.710000e-06	1.747712e-06	8.473674e-10	1.326331e+01	5.487566e+01
2.720000e-06	1.764787e-06	8.564852e-10	1.339289e+01	5.552022e+01
2.730000e-06	1.781790e-06	8.661858e-10	1.352193e+01	5.616131e+01
2.740000e-06	1.798629e-06	8.744653e-10	1.364972e+01	5.679865e+01
2.750000e-06	1.815328e-06	8.818760e-10	1.377645e+01	5.743198e+01
2.760000e-06	1.832048e-06	8.903233e-10	1.390333e+01	5.806104e+01
2.770000e-06	1.848657e-06	9.006978e-10	1.402938e+01	5.868560e+01
2.780000e-06	1.864999e-06	9.105010e-10	1.415340e+01	5.930544e+01
2.790000e-06	1.881145e-06	9.196258e-10	1.427593e+01	5.992034e+01
2.800000e-06	1.897224e-06	9.294325e-10	1.439795e+01	6.053011e+01
2.810000e-06	1.913161e-06	9.378484e-10	1.451890e+01	6.113458e+01
2.820000e-06	1.928655e-06	9.459020e-10	1.463648e+01	6.173355e+01
2.830000e-06	1.943872e-06	9.555501e-10	1.475197e+01	6.232686e+01
2.840000e-06	1.959050e-06	9.665996e-10	1.486715e+01	6.291435e+01
2.850000e-06	1.974022e-06	9.778020e-10	1.498077e+01	6.349585e+01
2.860000e-06	1.988776e-06	9.866054e-10	1.509274e+01	6.407118e+01
2.870000e-06	2.003431e-06	9.951466e-10	1.520396e+01	6.464018e+01
2.880000e-06	2.017936e-06	1.004206e-09	1.531403e+01	6.520266e+01
2.890000e-06	2.032250e-06	1.013771e-09	1.542266e+01	6.575842e+01
2.900000e-06	2.046371e-06	1.024740e-09	1.552982e+01	6.630726e+01
