# Temperatura_=_20.0
# Concentracion g/m^3_=_12600.0
# C_Vs_to_Am_M_A/Vsm_=_65563218390.804596
# pendiente_HvsI_1/m_=_3716.3
# ordenada_HvsI_A/m_=_1297.0
# frecuencia_Hz_=_134917.8315985369

Tiempo_(s)	Campo_(V.s)	Magnetizacion_(V.s)	Campo_(kA/m)	Magnetizacion_(A/m)
0.000000e+00	-2.604654e-06	-1.311909e-09	-1.983014e+01	-8.615082e+01
1.000000e-08	-2.604727e-06	-1.323501e-09	-1.983069e+01	-8.613185e+01
2.000000e-08	-2.604665e-06	-1.339319e-09	-1.983022e+01	-8.610281e+01
3.000000e-08	-2.604514e-06	-1.345473e-09	-1.982907e+01	-8.606375e+01
4.000000e-08	-2.604233e-06	-1.325743e-09	-1.982693e+01	-8.601474e+01
5.000000e-08	-2.603919e-06	-1.292188e-09	-1.982454e+01	-8.595594e+01
6.000000e-08	-2.603525e-06	-1.268760e-09	-1.982154e+01	-8.588757e+01
7.000000e-08	-2.602975e-06	-1.254266e-09	-1.981735e+01	-8.580993e+01
8.000000e-08	-2.602275e-06	-1.283594e-09	-1.981202e+01	-8.572334e+01
9.000000e-08	-2.601355e-06	-1.340519e-09	-1.980502e+01	-8.562824e+01
1.000000e-07	-2.600239e-06	-1.318189e-09	-1.979652e+01	-8.552508e+01
1.100000e-07	-2.598902e-06	-1.302409e-09	-1.978634e+01	-8.541437e+01
1.200000e-07	-2.597154e-06	-1.321796e-09	-1.977303e+01	-8.529668e+01
1.300000e-07	-2.594989e-06	-1.333686e-09	-1.975655e+01	-8.517258e+01
1.400000e-07	-2.592494e-06	-1.303902e-09	-1.973755e+01	-8.504269e+01
1.500000e-07	-2.589672e-06	-1.321098e-09	-1.971607e+01	-8.490762e+01
1.600000e-07	-2.586582e-06	-1.297972e-09	-1.969255e+01	-8.476797e+01
1.700000e-07	-2.583231e-06	-1.260338e-09	-1.966704e+01	-8.462435e+01
1.800000e-07	-2.579737e-06	-1.274596e-09	-1.964044e+01	-8.447732e+01
1.900000e-07	-2.576135e-06	-1.289978e-09	-1.961301e+01	-8.432741e+01
2.000000e-07	-2.572293e-06	-1.276745e-09	-1.958376e+01	-8.417508e+01
2.100000e-07	-2.568322e-06	-1.245586e-09	-1.955352e+01	-8.402076e+01
2.200000e-07	-2.564268e-06	-1.252938e-09	-1.952266e+01	-8.386479e+01
2.300000e-07	-2.560103e-06	-1.226379e-09	-1.949095e+01	-8.370743e+01
2.400000e-07	-2.555886e-06	-1.235228e-09	-1.945885e+01	-8.354888e+01
2.500000e-07	-2.551570e-06	-1.254468e-09	-1.942599e+01	-8.338924e+01
2.600000e-07	-2.547145e-06	-1.299498e-09	-1.939230e+01	-8.322851e+01
2.700000e-07	-2.542552e-06	-1.275473e-09	-1.935733e+01	-8.306665e+01
2.800000e-07	-2.537767e-06	-1.237037e-09	-1.932090e+01	-8.290350e+01
2.900000e-07	-2.532796e-06	-1.238490e-09	-1.928305e+01	-8.273885e+01
3.000000e-07	-2.527546e-06	-1.286432e-09	-1.924309e+01	-8.257240e+01
3.100000e-07	-2.522077e-06	-1.286995e-09	-1.920145e+01	-8.240381e+01
3.200000e-07	-2.516524e-06	-1.235779e-09	-1.915917e+01	-8.223268e+01
3.300000e-07	-2.510787e-06	-1.219058e-09	-1.911549e+01	-8.205860e+01
3.400000e-07	-2.504894e-06	-1.250349e-09	-1.907063e+01	-8.188109e+01
3.500000e-07	-2.498896e-06	-1.280781e-09	-1.902496e+01	-8.169971e+01
3.600000e-07	-2.492641e-06	-1.249243e-09	-1.897734e+01	-8.151398e+01
3.700000e-07	-2.486212e-06	-1.213594e-09	-1.892839e+01	-8.132347e+01
3.800000e-07	-2.479616e-06	-1.222223e-09	-1.887818e+01	-8.112774e+01
3.900000e-07	-2.472851e-06	-1.273389e-09	-1.882667e+01	-8.092642e+01
4.000000e-07	-2.465959e-06	-1.270392e-09	-1.877420e+01	-8.071916e+01
4.100000e-07	-2.458811e-06	-1.214146e-09	-1.871978e+01	-8.050569e+01
4.200000e-07	-2.451385e-06	-1.177165e-09	-1.866325e+01	-8.028578e+01
4.300000e-07	-2.443781e-06	-1.221951e-09	-1.860535e+01	-8.005928e+01
4.400000e-07	-2.436091e-06	-1.263042e-09	-1.854680e+01	-7.982609e+01
4.500000e-07	-2.428285e-06	-1.225652e-09	-1.848738e+01	-7.958619e+01
4.600000e-07	-2.420353e-06	-1.162238e-09	-1.842699e+01	-7.933962e+01
4.700000e-07	-2.412357e-06	-1.183050e-09	-1.836611e+01	-7.908648e+01
4.800000e-07	-2.404278e-06	-1.250678e-09	-1.830460e+01	-7.882693e+01
4.900000e-07	-2.396086e-06	-1.245740e-09	-1.824223e+01	-7.856115e+01
5.000000e-07	-2.387727e-06	-1.168539e-09	-1.817860e+01	-7.828940e+01
5.100000e-07	-2.379273e-06	-1.146419e-09	-1.811423e+01	-7.801192e+01
5.200000e-07	-2.370777e-06	-1.206369e-09	-1.804955e+01	-7.772900e+01
5.300000e-07	-2.362171e-06	-1.234475e-09	-1.798403e+01	-7.744092e+01
5.400000e-07	-2.353300e-06	-1.173926e-09	-1.791649e+01	-7.714794e+01
5.500000e-07	-2.344079e-06	-1.122832e-09	-1.784629e+01	-7.685033e+01
5.600000e-07	-2.334537e-06	-1.159051e-09	-1.777364e+01	-7.654830e+01
5.700000e-07	-2.324712e-06	-1.207767e-09	-1.769884e+01	-7.624205e+01
5.800000e-07	-2.314705e-06	-1.178612e-09	-1.762265e+01	-7.593171e+01
5.900000e-07	-2.304410e-06	-1.120515e-09	-1.754427e+01	-7.561738e+01
6.000000e-07	-2.293730e-06	-1.122296e-09	-1.746296e+01	-7.529908e+01
6.100000e-07	-2.282756e-06	-1.162272e-09	-1.737942e+01	-7.497679e+01
6.200000e-07	-2.271618e-06	-1.166624e-09	-1.729462e+01	-7.465042e+01
6.300000e-07	-2.260276e-06	-1.130517e-09	-1.720826e+01	-7.431985e+01
6.400000e-07	-2.248636e-06	-1.105039e-09	-1.711965e+01	-7.398487e+01
6.500000e-07	-2.236853e-06	-1.112499e-09	-1.702994e+01	-7.364525e+01
6.600000e-07	-2.225058e-06	-1.131999e-09	-1.694014e+01	-7.330073e+01
6.700000e-07	-2.213161e-06	-1.128651e-09	-1.684957e+01	-7.295100e+01
6.800000e-07	-2.201040e-06	-1.102729e-09	-1.675728e+01	-7.259575e+01
6.900000e-07	-2.188699e-06	-1.084846e-09	-1.666333e+01	-7.223468e+01
7.000000e-07	-2.176285e-06	-1.096063e-09	-1.656881e+01	-7.186747e+01
7.100000e-07	-2.163791e-06	-1.104764e-09	-1.647369e+01	-7.149384e+01
7.200000e-07	-2.151153e-06	-1.086563e-09	-1.637747e+01	-7.111355e+01
7.300000e-07	-2.138343e-06	-1.061624e-09	-1.627995e+01	-7.072640e+01
7.400000e-07	-2.125286e-06	-1.059728e-09	-1.618054e+01	-7.033226e+01
7.500000e-07	-2.112022e-06	-1.065805e-09	-1.607956e+01	-6.993104e+01
7.600000e-07	-2.098556e-06	-1.062051e-09	-1.597704e+01	-6.952277e+01
7.700000e-07	-2.084957e-06	-1.058131e-09	-1.587350e+01	-6.910752e+01
7.800000e-07	-2.071174e-06	-1.057901e-09	-1.576857e+01	-6.868548e+01
7.900000e-07	-2.057210e-06	-1.048203e-09	-1.566226e+01	-6.825691e+01
8.000000e-07	-2.043213e-06	-1.036943e-09	-1.555569e+01	-6.782214e+01
8.100000e-07	-2.029072e-06	-1.036981e-09	-1.544803e+01	-6.738162e+01
8.200000e-07	-2.014780e-06	-1.034878e-09	-1.533922e+01	-6.693585e+01
8.300000e-07	-2.000274e-06	-1.016334e-09	-1.522878e+01	-6.648541e+01
8.400000e-07	-1.985631e-06	-9.978136e-10	-1.511730e+01	-6.603091e+01
8.500000e-07	-1.970891e-06	-9.981528e-10	-1.500508e+01	-6.557303e+01
8.600000e-07	-1.955886e-06	-1.006209e-09	-1.489084e+01	-6.511247e+01
8.700000e-07	-1.940621e-06	-1.001677e-09	-1.477462e+01	-6.464995e+01
8.800000e-07	-1.925201e-06	-9.868473e-10	-1.465722e+01	-6.418616e+01
8.900000e-07	-1.909610e-06	-9.749695e-10	-1.453853e+01	-6.372181e+01
9.000000e-07	-1.893800e-06	-9.720172e-10	-1.441815e+01	-6.325754e+01
9.100000e-07	-1.877804e-06	-9.698402e-10	-1.429637e+01	-6.279394e+01
9.200000e-07	-1.861612e-06	-9.593034e-10	-1.417310e+01	-6.233156e+01
9.300000e-07	-1.845182e-06	-9.431310e-10	-1.404801e+01	-6.187084e+01
9.400000e-07	-1.828475e-06	-9.326686e-10	-1.392082e+01	-6.141213e+01
9.500000e-07	-1.811655e-06	-9.319858e-10	-1.379276e+01	-6.095569e+01
9.600000e-07	-1.794780e-06	-9.334572e-10	-1.366428e+01	-6.050165e+01
9.700000e-07	-1.777802e-06	-9.297585e-10	-1.353503e+01	-6.005006e+01
9.800000e-07	-1.760621e-06	-9.177034e-10	-1.340422e+01	-5.960081e+01
9.900000e-07	-1.743374e-06	-9.048336e-10	-1.327291e+01	-5.915370e+01
1.000000e-06	-1.726097e-06	-8.998814e-10	-1.314138e+01	-5.870841e+01
1.010000e-06	-1.708677e-06	-8.986214e-10	-1.300875e+01	-5.826452e+01
1.020000e-06	-1.691191e-06	-8.912440e-10	-1.287563e+01	-5.782152e+01
1.030000e-06	-1.673609e-06	-8.804194e-10	-1.274176e+01	-5.737880e+01
1.040000e-06	-1.655978e-06	-8.709630e-10	-1.260753e+01	-5.693568e+01
1.050000e-06	-1.638309e-06	-8.674779e-10	-1.247302e+01	-5.649144e+01
1.060000e-06	-1.620512e-06	-8.662693e-10	-1.233752e+01	-5.604531e+01
1.070000e-06	-1.602575e-06	-8.617163e-10	-1.220096e+01	-5.559649e+01
1.080000e-06	-1.584553e-06	-8.550484e-10	-1.206375e+01	-5.514421e+01
1.090000e-06	-1.566460e-06	-8.475046e-10	-1.192600e+01	-5.468766e+01
1.100000e-06	-1.548325e-06	-8.427796e-10	-1.178793e+01	-5.422612e+01
1.110000e-06	-1.530124e-06	-8.380863e-10	-1.164936e+01	-5.375886e+01
1.120000e-06	-1.511782e-06	-8.274034e-10	-1.150972e+01	-5.328526e+01
1.130000e-06	-1.493270e-06	-8.129005e-10	-1.136878e+01	-5.280474e+01
1.140000e-06	-1.474675e-06	-8.021482e-10	-1.122721e+01	-5.231683e+01
1.150000e-06	-1.456026e-06	-7.965696e-10	-1.108523e+01	-5.182114e+01
1.160000e-06	-1.437203e-06	-7.909656e-10	-1.094193e+01	-5.131738e+01
1.170000e-06	-1.418177e-06	-7.828076e-10	-1.079708e+01	-5.080536e+01
1.180000e-06	-1.399081e-06	-7.738017e-10	-1.065169e+01	-5.028501e+01
1.190000e-06	-1.379949e-06	-7.648321e-10	-1.050603e+01	-4.975634e+01
1.200000e-06	-1.360634e-06	-7.566337e-10	-1.035898e+01	-4.921948e+01
1.210000e-06	-1.341101e-06	-7.476722e-10	-1.021026e+01	-4.867464e+01
1.220000e-06	-1.321401e-06	-7.373109e-10	-1.006028e+01	-4.812209e+01
1.230000e-06	-1.301665e-06	-7.259893e-10	-9.910029e+00	-4.756220e+01
1.240000e-06	-1.281910e-06	-7.146233e-10	-9.759624e+00	-4.699538e+01
1.250000e-06	-1.262078e-06	-7.070166e-10	-9.608641e+00	-4.642209e+01
1.260000e-06	-1.242181e-06	-7.028461e-10	-9.457155e+00	-4.584282e+01
1.270000e-06	-1.222208e-06	-6.977748e-10	-9.305093e+00	-4.525807e+01
1.280000e-06	-1.202162e-06	-6.878467e-10	-9.152477e+00	-4.466835e+01
1.290000e-06	-1.182094e-06	-6.766769e-10	-8.999688e+00	-4.407413e+01
1.300000e-06	-1.162042e-06	-6.661567e-10	-8.847030e+00	-4.347588e+01
1.310000e-06	-1.141973e-06	-6.589027e-10	-8.694234e+00	-4.287401e+01
1.320000e-06	-1.121843e-06	-6.502364e-10	-8.540984e+00	-4.226891e+01
1.330000e-06	-1.101681e-06	-6.387000e-10	-8.387480e+00	-4.166088e+01
1.340000e-06	-1.081526e-06	-6.268858e-10	-8.234035e+00	-4.105017e+01
1.350000e-06	-1.061342e-06	-6.197368e-10	-8.080367e+00	-4.043696e+01
1.360000e-06	-1.041126e-06	-6.152941e-10	-7.926454e+00	-3.982137e+01
1.370000e-06	-1.020881e-06	-6.060542e-10	-7.772321e+00	-3.920342e+01
1.380000e-06	-1.000600e-06	-5.927038e-10	-7.617915e+00	-3.858311e+01
1.390000e-06	-9.802895e-07	-5.807651e-10	-7.463284e+00	-3.796033e+01
1.400000e-06	-9.599626e-07	-5.728365e-10	-7.308528e+00	-3.733493e+01
1.410000e-06	-9.395831e-07	-5.654193e-10	-7.153372e+00	-3.670674e+01
1.420000e-06	-9.190840e-07	-5.536988e-10	-6.997306e+00	-3.607550e+01
1.430000e-06	-8.984992e-07	-5.374108e-10	-6.840586e+00	-3.544096e+01
1.440000e-06	-8.778831e-07	-5.255363e-10	-6.683629e+00	-3.480284e+01
1.450000e-06	-8.572827e-07	-5.197343e-10	-6.526790e+00	-3.416085e+01
1.460000e-06	-8.365787e-07	-5.133425e-10	-6.369164e+00	-3.351472e+01
1.470000e-06	-8.156891e-07	-5.022012e-10	-6.210124e+00	-3.286418e+01
1.480000e-06	-7.946858e-07	-4.928360e-10	-6.050219e+00	-3.220900e+01
1.490000e-06	-7.736590e-07	-4.857343e-10	-5.890134e+00	-3.154898e+01
1.500000e-06	-7.526403e-07	-4.775476e-10	-5.730112e+00	-3.088397e+01
1.510000e-06	-7.315636e-07	-4.666834e-10	-5.569648e+00	-3.021387e+01
1.520000e-06	-7.104240e-07	-4.566396e-10	-5.408704e+00	-2.953864e+01
1.530000e-06	-6.892127e-07	-4.467215e-10	-5.247215e+00	-2.885830e+01
1.540000e-06	-6.679574e-07	-4.369383e-10	-5.085391e+00	-2.817292e+01
1.550000e-06	-6.466290e-07	-4.300667e-10	-4.923011e+00	-2.748266e+01
1.560000e-06	-6.251497e-07	-4.243683e-10	-4.759482e+00	-2.678770e+01
1.570000e-06	-6.036134e-07	-4.165337e-10	-4.595518e+00	-2.608832e+01
1.580000e-06	-5.820711e-07	-4.058078e-10	-4.431510e+00	-2.538481e+01
1.590000e-06	-5.604833e-07	-3.974031e-10	-4.267154e+00	-2.467753e+01
1.600000e-06	-5.387966e-07	-3.919777e-10	-4.102046e+00	-2.396687e+01
1.610000e-06	-5.170606e-07	-3.841183e-10	-3.936562e+00	-2.325324e+01
1.620000e-06	-4.953704e-07	-3.695690e-10	-3.771427e+00	-2.253707e+01
1.630000e-06	-4.736331e-07	-3.530469e-10	-3.605933e+00	-2.181880e+01
1.640000e-06	-4.518150e-07	-3.405485e-10	-3.439824e+00	-2.109888e+01
1.650000e-06	-4.300128e-07	-3.325636e-10	-3.273837e+00	-2.037771e+01
1.660000e-06	-4.082548e-07	-3.244631e-10	-3.108185e+00	-1.965572e+01
1.670000e-06	-3.864423e-07	-3.124874e-10	-2.942120e+00	-1.893328e+01
1.680000e-06	-3.645307e-07	-2.999891e-10	-2.775299e+00	-1.821072e+01
1.690000e-06	-3.425924e-07	-2.911221e-10	-2.608275e+00	-1.748835e+01
1.700000e-06	-3.207003e-07	-2.815547e-10	-2.441603e+00	-1.676641e+01
1.710000e-06	-2.988507e-07	-2.678761e-10	-2.275254e+00	-1.604512e+01
1.720000e-06	-2.769824e-07	-2.539310e-10	-2.108763e+00	-1.532463e+01
1.730000e-06	-2.550690e-07	-2.419820e-10	-1.941929e+00	-1.460502e+01
1.740000e-06	-2.331439e-07	-2.314133e-10	-1.775006e+00	-1.388636e+01
1.750000e-06	-2.112234e-07	-2.189149e-10	-1.608117e+00	-1.316864e+01
1.760000e-06	-1.893191e-07	-2.036805e-10	-1.441352e+00	-1.245180e+01
1.770000e-06	-1.673689e-07	-1.926770e-10	-1.274237e+00	-1.173577e+01
1.780000e-06	-1.453706e-07	-1.850308e-10	-1.106757e+00	-1.102042e+01
1.790000e-06	-1.233874e-07	-1.757436e-10	-9.393911e-01	-1.030559e+01
1.800000e-06	-1.013792e-07	-1.646561e-10	-7.718350e-01	-9.591109e+00
1.810000e-06	-7.934935e-08	-1.538815e-10	-6.041141e-01	-8.876778e+00
1.820000e-06	-5.733378e-08	-1.439204e-10	-4.365020e-01	-8.162391e+00
1.830000e-06	-3.530371e-08	-1.341481e-10	-2.687794e-01	-7.447739e+00
1.840000e-06	-1.324906e-08	-1.233490e-10	-1.008697e-01	-6.732612e+00
1.850000e-06	8.754711e-09	-1.109646e-10	6.665266e-02	-6.016809e+00
1.860000e-06	3.072486e-08	-9.842245e-11	2.339190e-01	-5.300139e+00
1.870000e-06	5.272391e-08	-8.676439e-11	4.014054e-01	-4.582428e+00
1.880000e-06	7.474229e-08	-7.507824e-11	5.690390e-01	-3.863520e+00
1.890000e-06	9.676915e-08	-6.144424e-11	7.367371e-01	-3.143280e+00
1.900000e-06	1.187735e-07	-4.881627e-11	9.042640e-01	-2.421595e+00
1.910000e-06	1.407687e-07	-3.770108e-11	1.071721e+00	-1.698373e+00
1.920000e-06	1.627495e-07	-2.692924e-11	1.239069e+00	-9.735471e-01
1.930000e-06	1.847170e-07	-1.593298e-11	1.406315e+00	-2.470688e-01
1.940000e-06	2.066593e-07	-3.190740e-12	1.573369e+00	4.810900e-01
1.950000e-06	2.285874e-07	1.032070e-11	1.740315e+00	1.210940e+00
1.960000e-06	2.505211e-07	2.282483e-11	1.907304e+00	1.942479e+00
1.970000e-06	2.724253e-07	3.221879e-11	2.074069e+00	2.675689e+00
1.980000e-06	2.943486e-07	4.084885e-11	2.240978e+00	3.410545e+00
1.990000e-06	3.163270e-07	5.054792e-11	2.408307e+00	4.147014e+00
2.000000e-06	3.382671e-07	6.086119e-11	2.575345e+00	4.885058e+00
2.010000e-06	3.601579e-07	7.103898e-11	2.742007e+00	5.624632e+00
2.020000e-06	3.820674e-07	8.007787e-11	2.908811e+00	6.365694e+00
2.030000e-06	4.039791e-07	9.068995e-11	3.075633e+00	7.108194e+00
2.040000e-06	4.258841e-07	1.038644e-10	3.242403e+00	7.852084e+00
2.050000e-06	4.477298e-07	1.180117e-10	3.408723e+00	8.597312e+00
2.060000e-06	4.694600e-07	1.287125e-10	3.574162e+00	9.343822e+00
2.070000e-06	4.910725e-07	1.376004e-10	3.738705e+00	1.009155e+01
2.080000e-06	5.126539e-07	1.502250e-10	3.903012e+00	1.084043e+01
2.090000e-06	5.342166e-07	1.645357e-10	4.067176e+00	1.159037e+01
2.100000e-06	5.557713e-07	1.771544e-10	4.231280e+00	1.234129e+01
2.110000e-06	5.773035e-07	1.858410e-10	4.395212e+00	1.309308e+01
2.120000e-06	5.987416e-07	1.925858e-10	4.558428e+00	1.384560e+01
2.130000e-06	6.200782e-07	2.035372e-10	4.720870e+00	1.459870e+01
2.140000e-06	6.413410e-07	2.186493e-10	4.882752e+00	1.535221e+01
2.150000e-06	6.625953e-07	2.311701e-10	5.044568e+00	1.610594e+01
2.160000e-06	6.838578e-07	2.398124e-10	5.206447e+00	1.685965e+01
2.170000e-06	7.050570e-07	2.487971e-10	5.367844e+00	1.761310e+01
2.180000e-06	7.261639e-07	2.594095e-10	5.528538e+00	1.836602e+01
2.190000e-06	7.472089e-07	2.721766e-10	5.688761e+00	1.911811e+01
2.200000e-06	7.681037e-07	2.844435e-10	5.847840e+00	1.986906e+01
2.210000e-06	7.888828e-07	2.948011e-10	6.006039e+00	2.061853e+01
2.220000e-06	8.096491e-07	3.046969e-10	6.164139e+00	2.136618e+01
2.230000e-06	8.304075e-07	3.172325e-10	6.322181e+00	2.211166e+01
2.240000e-06	8.511009e-07	3.315595e-10	6.479726e+00	2.285464e+01
2.250000e-06	8.717133e-07	3.435826e-10	6.636656e+00	2.359477e+01
2.260000e-06	8.922732e-07	3.530499e-10	6.793185e+00	2.433172e+01
2.270000e-06	9.127793e-07	3.644281e-10	6.949305e+00	2.506521e+01
2.280000e-06	9.331846e-07	3.766892e-10	7.104658e+00	2.579495e+01
2.290000e-06	9.535266e-07	3.865012e-10	7.259529e+00	2.652070e+01
2.300000e-06	9.738777e-07	3.951469e-10	7.414469e+00	2.724229e+01
2.310000e-06	9.941529e-07	4.044545e-10	7.568831e+00	2.795955e+01
2.320000e-06	1.014350e-06	4.158252e-10	7.722598e+00	2.867240e+01
2.330000e-06	1.034526e-06	4.267737e-10	7.876202e+00	2.938080e+01
2.340000e-06	1.054711e-06	4.384735e-10	8.029881e+00	3.008477e+01
2.350000e-06	1.074907e-06	4.489792e-10	8.183643e+00	3.078438e+01
2.360000e-06	1.095029e-06	4.583495e-10	8.336834e+00	3.147978e+01
2.370000e-06	1.115091e-06	4.697017e-10	8.489572e+00	3.217115e+01
2.380000e-06	1.135163e-06	4.838556e-10	8.642389e+00	3.285874e+01
2.390000e-06	1.155230e-06	4.982022e-10	8.795168e+00	3.354282e+01
2.400000e-06	1.175271e-06	5.099826e-10	8.947747e+00	3.422373e+01
2.410000e-06	1.195296e-06	5.198925e-10	9.100202e+00	3.490182e+01
2.420000e-06	1.215296e-06	5.290607e-10	9.252471e+00	3.557746e+01
2.430000e-06	1.235216e-06	5.412442e-10	9.404128e+00	3.625103e+01
2.440000e-06	1.255083e-06	5.539864e-10	9.555379e+00	3.692293e+01
2.450000e-06	1.274890e-06	5.651453e-10	9.706177e+00	3.759352e+01
2.460000e-06	1.294606e-06	5.758368e-10	9.856286e+00	3.826315e+01
2.470000e-06	1.314272e-06	5.888374e-10	1.000601e+01	3.893214e+01
2.480000e-06	1.333923e-06	6.038615e-10	1.015562e+01	3.960077e+01
2.490000e-06	1.353441e-06	6.174372e-10	1.030422e+01	4.026926e+01
2.500000e-06	1.372796e-06	6.270568e-10	1.045157e+01	4.093778e+01
2.510000e-06	1.392020e-06	6.369533e-10	1.059793e+01	4.160643e+01
2.520000e-06	1.411050e-06	6.507940e-10	1.074281e+01	4.227523e+01
2.530000e-06	1.429980e-06	6.636960e-10	1.088693e+01	4.294415e+01
2.540000e-06	1.448775e-06	6.728237e-10	1.103003e+01	4.361306e+01
2.550000e-06	1.467341e-06	6.806490e-10	1.117138e+01	4.428179e+01
2.560000e-06	1.485775e-06	6.911248e-10	1.131172e+01	4.495007e+01
2.570000e-06	1.504169e-06	7.041434e-10	1.145176e+01	4.561759e+01
2.580000e-06	1.522461e-06	7.172858e-10	1.159102e+01	4.628397e+01
2.590000e-06	1.540607e-06	7.280863e-10	1.172918e+01	4.694879e+01
2.600000e-06	1.558656e-06	7.373880e-10	1.186659e+01	4.761159e+01
2.610000e-06	1.576635e-06	7.456960e-10	1.200347e+01	4.827187e+01
2.620000e-06	1.594541e-06	7.550373e-10	1.213979e+01	4.892914e+01
2.630000e-06	1.612333e-06	7.680596e-10	1.227525e+01	4.958289e+01
2.640000e-06	1.630051e-06	7.810505e-10	1.241014e+01	5.023264e+01
2.650000e-06	1.647654e-06	7.926850e-10	1.254416e+01	5.087790e+01
2.660000e-06	1.665144e-06	8.041028e-10	1.267732e+01	5.151826e+01
2.670000e-06	1.682627e-06	8.145580e-10	1.281042e+01	5.215332e+01
2.680000e-06	1.700104e-06	8.257480e-10	1.294348e+01	5.278275e+01
2.690000e-06	1.717455e-06	8.367197e-10	1.307558e+01	5.340629e+01
2.700000e-06	1.734660e-06	8.440659e-10	1.320657e+01	5.402373e+01
2.710000e-06	1.751742e-06	8.493593e-10	1.333662e+01	5.463496e+01
2.720000e-06	1.768652e-06	8.583784e-10	1.346536e+01	5.523993e+01
2.730000e-06	1.785502e-06	8.694644e-10	1.359365e+01	5.583867e+01
2.740000e-06	1.802311e-06	8.782291e-10	1.372162e+01	5.643129e+01
2.750000e-06	1.818969e-06	8.844403e-10	1.384844e+01	5.701796e+01
2.760000e-06	1.835396e-06	8.930579e-10	1.397350e+01	5.759892e+01
2.770000e-06	1.851646e-06	9.066558e-10	1.409722e+01	5.817445e+01
2.780000e-06	1.867776e-06	9.176347e-10	1.422002e+01	5.874490e+01
2.790000e-06	1.883724e-06	9.224501e-10	1.434144e+01	5.931063e+01
2.800000e-06	1.899487e-06	9.273455e-10	1.446145e+01	5.987202e+01
2.810000e-06	1.915128e-06	9.360789e-10	1.458054e+01	6.042946e+01
2.820000e-06	1.930541e-06	9.461232e-10	1.469788e+01	6.098333e+01
2.830000e-06	1.945654e-06	9.550362e-10	1.481294e+01	6.153398e+01
2.840000e-06	1.960471e-06	9.631282e-10	1.492575e+01	6.208173e+01
2.850000e-06	1.975170e-06	9.730639e-10	1.503765e+01	6.262684e+01
2.860000e-06	1.989785e-06	9.839712e-10	1.514892e+01	6.316953e+01
2.870000e-06	2.004184e-06	9.935463e-10	1.525855e+01	6.370992e+01
2.880000e-06	2.018431e-06	1.001414e-09	1.536701e+01	6.424808e+01
2.890000e-06	2.032512e-06	1.007954e-09	1.547422e+01	6.478398e+01
2.900000e-06	2.046453e-06	1.015168e-09	1.558036e+01	6.531749e+01
