# Temperatura_=_20.0
# Concentracion g/m^3_=_12600.0
# C_Vs_to_Am_M_A/Vsm_=_65563218390.804596
# pendiente_HvsI_1/m_=_3716.3
# ordenada_HvsI_A/m_=_1297.0
# frecuencia_Hz_=_134917.4901471144

Tiempo_(s)	Campo_(V.s)	Magnetizacion_(V.s)	Campo_(kA/m)	Magnetizacion_(A/m)
0.000000e+00	-2.607184e-06	-1.289004e-09	-1.983934e+01	-8.588297e+01
1.000000e-08	-2.607321e-06	-1.296273e-09	-1.984039e+01	-8.582195e+01
2.000000e-08	-2.607346e-06	-1.309269e-09	-1.984057e+01	-8.574663e+01
3.000000e-08	-2.607263e-06	-1.318352e-09	-1.983995e+01	-8.565740e+01
4.000000e-08	-2.607044e-06	-1.305345e-09	-1.983828e+01	-8.555475e+01
5.000000e-08	-2.606710e-06	-1.270707e-09	-1.983574e+01	-8.543932e+01
6.000000e-08	-2.606241e-06	-1.263710e-09	-1.983217e+01	-8.531185e+01
7.000000e-08	-2.605651e-06	-1.264949e-09	-1.982768e+01	-8.517319e+01
8.000000e-08	-2.604958e-06	-1.311638e-09	-1.982240e+01	-8.502427e+01
9.000000e-08	-2.604058e-06	-1.291320e-09	-1.981556e+01	-8.486611e+01
1.000000e-07	-2.602939e-06	-1.289483e-09	-1.980704e+01	-8.469977e+01
1.100000e-07	-2.601466e-06	-1.276960e-09	-1.979583e+01	-8.452634e+01
1.200000e-07	-2.599625e-06	-1.289289e-09	-1.978183e+01	-8.434696e+01
1.300000e-07	-2.597446e-06	-1.283081e-09	-1.976524e+01	-8.416275e+01
1.400000e-07	-2.594871e-06	-1.270538e-09	-1.974565e+01	-8.397482e+01
1.500000e-07	-2.591902e-06	-1.266460e-09	-1.972306e+01	-8.378423e+01
1.600000e-07	-2.588635e-06	-1.278665e-09	-1.969820e+01	-8.359200e+01
1.700000e-07	-2.585149e-06	-1.315800e-09	-1.967167e+01	-8.339910e+01
1.800000e-07	-2.581475e-06	-1.279389e-09	-1.964371e+01	-8.320638e+01
1.900000e-07	-2.577696e-06	-1.254108e-09	-1.961495e+01	-8.301463e+01
2.000000e-07	-2.573788e-06	-1.237989e-09	-1.958522e+01	-8.282450e+01
2.100000e-07	-2.569797e-06	-1.299127e-09	-1.955485e+01	-8.263656e+01
2.200000e-07	-2.565754e-06	-1.281085e-09	-1.952409e+01	-8.245123e+01
2.300000e-07	-2.561622e-06	-1.242599e-09	-1.949264e+01	-8.226882e+01
2.400000e-07	-2.557383e-06	-1.212605e-09	-1.946039e+01	-8.208951e+01
2.500000e-07	-2.553058e-06	-1.278916e-09	-1.942747e+01	-8.191334e+01
2.600000e-07	-2.548591e-06	-1.312260e-09	-1.939348e+01	-8.174026e+01
2.700000e-07	-2.543951e-06	-1.262502e-09	-1.935817e+01	-8.157007e+01
2.800000e-07	-2.539120e-06	-1.195729e-09	-1.932141e+01	-8.140247e+01
2.900000e-07	-2.533985e-06	-1.227518e-09	-1.928233e+01	-8.123705e+01
3.000000e-07	-2.528627e-06	-1.303463e-09	-1.924157e+01	-8.107332e+01
3.100000e-07	-2.523158e-06	-1.289117e-09	-1.919995e+01	-8.091069e+01
3.200000e-07	-2.517511e-06	-1.204910e-09	-1.915698e+01	-8.074853e+01
3.300000e-07	-2.511683e-06	-1.175586e-09	-1.911263e+01	-8.058612e+01
3.400000e-07	-2.505693e-06	-1.263625e-09	-1.906705e+01	-8.042274e+01
3.500000e-07	-2.499637e-06	-1.309372e-09	-1.902097e+01	-8.025762e+01
3.600000e-07	-2.493469e-06	-1.241316e-09	-1.897403e+01	-8.008997e+01
3.700000e-07	-2.487086e-06	-1.155570e-09	-1.892546e+01	-7.991902e+01
3.800000e-07	-2.480496e-06	-1.210585e-09	-1.887531e+01	-7.974402e+01
3.900000e-07	-2.473651e-06	-1.301661e-09	-1.882323e+01	-7.956423e+01
4.000000e-07	-2.466610e-06	-1.275854e-09	-1.876965e+01	-7.937896e+01
4.100000e-07	-2.459408e-06	-1.160561e-09	-1.871485e+01	-7.918757e+01
4.200000e-07	-2.452052e-06	-1.152587e-09	-1.865887e+01	-7.898948e+01
4.300000e-07	-2.444553e-06	-1.249405e-09	-1.860180e+01	-7.878417e+01
4.400000e-07	-2.436822e-06	-1.281612e-09	-1.854298e+01	-7.857121e+01
4.500000e-07	-2.428922e-06	-1.186609e-09	-1.848286e+01	-7.835023e+01
4.600000e-07	-2.420912e-06	-1.130695e-09	-1.842191e+01	-7.812095e+01
4.700000e-07	-2.412834e-06	-1.198942e-09	-1.836044e+01	-7.788316e+01
4.800000e-07	-2.404721e-06	-1.268546e-09	-1.829871e+01	-7.763673e+01
4.900000e-07	-2.396514e-06	-1.216127e-09	-1.823626e+01	-7.738162e+01
5.000000e-07	-2.388171e-06	-1.131979e-09	-1.817277e+01	-7.711787e+01
5.100000e-07	-2.379637e-06	-1.144006e-09	-1.810783e+01	-7.684557e+01
5.200000e-07	-2.370988e-06	-1.218227e-09	-1.804201e+01	-7.656489e+01
5.300000e-07	-2.362196e-06	-1.220193e-09	-1.797511e+01	-7.627605e+01
5.400000e-07	-2.353152e-06	-1.144510e-09	-1.790629e+01	-7.597933e+01
5.500000e-07	-2.343883e-06	-1.107661e-09	-1.783576e+01	-7.567504e+01
5.600000e-07	-2.334342e-06	-1.155609e-09	-1.776316e+01	-7.536354e+01
5.700000e-07	-2.324498e-06	-1.194662e-09	-1.768825e+01	-7.504520e+01
5.800000e-07	-2.314463e-06	-1.155027e-09	-1.761189e+01	-7.472043e+01
5.900000e-07	-2.304176e-06	-1.095206e-09	-1.753361e+01	-7.438963e+01
6.000000e-07	-2.293610e-06	-1.099247e-09	-1.745321e+01	-7.405320e+01
6.100000e-07	-2.282751e-06	-1.146707e-09	-1.737057e+01	-7.371155e+01
6.200000e-07	-2.271567e-06	-1.151207e-09	-1.728547e+01	-7.336505e+01
6.300000e-07	-2.260160e-06	-1.100784e-09	-1.719867e+01	-7.301407e+01
6.400000e-07	-2.248557e-06	-1.069893e-09	-1.711038e+01	-7.265896e+01
6.500000e-07	-2.236724e-06	-1.097265e-09	-1.702033e+01	-7.230001e+01
6.600000e-07	-2.224668e-06	-1.120884e-09	-1.692859e+01	-7.193749e+01
6.700000e-07	-2.212526e-06	-1.097629e-09	-1.683620e+01	-7.157164e+01
6.800000e-07	-2.200288e-06	-1.062719e-09	-1.674307e+01	-7.120264e+01
6.900000e-07	-2.187966e-06	-1.063597e-09	-1.664931e+01	-7.083065e+01
7.000000e-07	-2.175560e-06	-1.079446e-09	-1.655490e+01	-7.045576e+01
7.100000e-07	-2.162951e-06	-1.075958e-09	-1.645896e+01	-7.007805e+01
7.200000e-07	-2.150158e-06	-1.056491e-09	-1.636161e+01	-6.969753e+01
7.300000e-07	-2.137117e-06	-1.046973e-09	-1.626237e+01	-6.931418e+01
7.400000e-07	-2.123845e-06	-1.042223e-09	-1.616138e+01	-6.892796e+01
7.500000e-07	-2.110462e-06	-1.039123e-09	-1.605954e+01	-6.853879e+01
7.600000e-07	-2.096949e-06	-1.037412e-09	-1.595671e+01	-6.814656e+01
7.700000e-07	-2.083277e-06	-1.035848e-09	-1.585268e+01	-6.775115e+01
7.800000e-07	-2.069453e-06	-1.025450e-09	-1.574749e+01	-6.735239e+01
7.900000e-07	-2.055504e-06	-1.015649e-09	-1.564134e+01	-6.695015e+01
8.000000e-07	-2.041390e-06	-1.014325e-09	-1.553394e+01	-6.654425e+01
8.100000e-07	-2.027134e-06	-1.015497e-09	-1.542546e+01	-6.613454e+01
8.200000e-07	-2.012839e-06	-1.004485e-09	-1.531668e+01	-6.572086e+01
8.300000e-07	-1.998454e-06	-9.851094e-10	-1.520722e+01	-6.530307e+01
8.400000e-07	-1.983832e-06	-9.730779e-10	-1.509596e+01	-6.488104e+01
8.500000e-07	-1.968888e-06	-9.766801e-10	-1.498224e+01	-6.445467e+01
8.600000e-07	-1.953768e-06	-9.814495e-10	-1.486719e+01	-6.402388e+01
8.700000e-07	-1.938521e-06	-9.714941e-10	-1.475116e+01	-6.358861e+01
8.800000e-07	-1.923021e-06	-9.552021e-10	-1.463321e+01	-6.314885e+01
8.900000e-07	-1.907211e-06	-9.502925e-10	-1.451291e+01	-6.270463e+01
9.000000e-07	-1.891063e-06	-9.531625e-10	-1.439003e+01	-6.225599e+01
9.100000e-07	-1.874752e-06	-9.470274e-10	-1.426591e+01	-6.180303e+01
9.200000e-07	-1.858417e-06	-9.315324e-10	-1.414161e+01	-6.134588e+01
9.300000e-07	-1.841902e-06	-9.198262e-10	-1.401594e+01	-6.088471e+01
9.400000e-07	-1.825184e-06	-9.191383e-10	-1.388872e+01	-6.041972e+01
9.500000e-07	-1.808441e-06	-9.195141e-10	-1.376131e+01	-5.995116e+01
9.600000e-07	-1.791549e-06	-9.124966e-10	-1.363277e+01	-5.947928e+01
9.700000e-07	-1.774443e-06	-9.002306e-10	-1.350261e+01	-5.900439e+01
9.800000e-07	-1.757283e-06	-8.914546e-10	-1.337203e+01	-5.852679e+01
9.900000e-07	-1.740076e-06	-8.852009e-10	-1.324109e+01	-5.804681e+01
1.000000e-06	-1.722755e-06	-8.787727e-10	-1.310929e+01	-5.756479e+01
1.010000e-06	-1.705324e-06	-8.714659e-10	-1.297665e+01	-5.708108e+01
1.020000e-06	-1.687770e-06	-8.643953e-10	-1.284307e+01	-5.659601e+01
1.030000e-06	-1.670150e-06	-8.568120e-10	-1.270900e+01	-5.610991e+01
1.040000e-06	-1.652448e-06	-8.496210e-10	-1.257429e+01	-5.562310e+01
1.050000e-06	-1.634627e-06	-8.438606e-10	-1.243868e+01	-5.513585e+01
1.060000e-06	-1.616787e-06	-8.402217e-10	-1.230293e+01	-5.464844e+01
1.070000e-06	-1.598884e-06	-8.334585e-10	-1.216669e+01	-5.416107e+01
1.080000e-06	-1.580858e-06	-8.228154e-10	-1.202952e+01	-5.367393e+01
1.090000e-06	-1.562664e-06	-8.135319e-10	-1.189108e+01	-5.318714e+01
1.100000e-06	-1.544410e-06	-8.096041e-10	-1.175218e+01	-5.270077e+01
1.110000e-06	-1.526155e-06	-8.035732e-10	-1.161326e+01	-5.221486e+01
1.120000e-06	-1.507766e-06	-7.905517e-10	-1.147334e+01	-5.172934e+01
1.130000e-06	-1.489210e-06	-7.756584e-10	-1.133213e+01	-5.124414e+01
1.140000e-06	-1.470512e-06	-7.688329e-10	-1.118985e+01	-5.075907e+01
1.150000e-06	-1.451653e-06	-7.679654e-10	-1.104634e+01	-5.027391e+01
1.160000e-06	-1.432643e-06	-7.616435e-10	-1.090168e+01	-4.978837e+01
1.170000e-06	-1.413545e-06	-7.487441e-10	-1.075636e+01	-4.930212e+01
1.180000e-06	-1.394263e-06	-7.380403e-10	-1.060963e+01	-4.881475e+01
1.190000e-06	-1.374853e-06	-7.350217e-10	-1.046193e+01	-4.832581e+01
1.200000e-06	-1.355433e-06	-7.320545e-10	-1.031416e+01	-4.783482e+01
1.210000e-06	-1.335909e-06	-7.234435e-10	-1.016559e+01	-4.734125e+01
1.220000e-06	-1.316270e-06	-7.099906e-10	-1.001615e+01	-4.684455e+01
1.230000e-06	-1.296522e-06	-6.989326e-10	-9.865874e+00	-4.634414e+01
1.240000e-06	-1.276681e-06	-6.939943e-10	-9.714890e+00	-4.583943e+01
1.250000e-06	-1.256822e-06	-6.870655e-10	-9.563778e+00	-4.532985e+01
1.260000e-06	-1.236946e-06	-6.768609e-10	-9.412530e+00	-4.481481e+01
1.270000e-06	-1.217009e-06	-6.674406e-10	-9.260822e+00	-4.429376e+01
1.280000e-06	-1.197011e-06	-6.627353e-10	-9.108643e+00	-4.376615e+01
1.290000e-06	-1.176947e-06	-6.593492e-10	-8.955972e+00	-4.323149e+01
1.300000e-06	-1.156865e-06	-6.513765e-10	-8.803152e+00	-4.268934e+01
1.310000e-06	-1.136800e-06	-6.397915e-10	-8.650469e+00	-4.213929e+01
1.320000e-06	-1.116728e-06	-6.275937e-10	-8.497731e+00	-4.158100e+01
1.330000e-06	-1.096621e-06	-6.193943e-10	-8.344731e+00	-4.101419e+01
1.340000e-06	-1.076494e-06	-6.119932e-10	-8.191574e+00	-4.043867e+01
1.350000e-06	-1.056341e-06	-6.008844e-10	-8.038221e+00	-3.985431e+01
1.360000e-06	-1.036148e-06	-5.884802e-10	-7.884560e+00	-3.926105e+01
1.370000e-06	-1.015952e-06	-5.792450e-10	-7.730881e+00	-3.865893e+01
1.380000e-06	-9.957178e-07	-5.725218e-10	-7.576906e+00	-3.804804e+01
1.390000e-06	-9.754239e-07	-5.667864e-10	-7.422480e+00	-3.742857e+01
1.400000e-06	-9.550288e-07	-5.585214e-10	-7.267283e+00	-3.680076e+01
1.410000e-06	-9.345614e-07	-5.475924e-10	-7.111537e+00	-3.616495e+01
1.420000e-06	-9.141076e-07	-5.366660e-10	-6.955894e+00	-3.552151e+01
1.430000e-06	-8.935638e-07	-5.280607e-10	-6.799566e+00	-3.487088e+01
1.440000e-06	-8.728782e-07	-5.188624e-10	-6.642159e+00	-3.421356e+01
1.450000e-06	-8.520934e-07	-5.083785e-10	-6.483997e+00	-3.355007e+01
1.460000e-06	-8.312539e-07	-4.985825e-10	-6.325419e+00	-3.288098e+01
1.470000e-06	-8.103651e-07	-4.929026e-10	-6.166466e+00	-3.220687e+01
1.480000e-06	-7.893993e-07	-4.887176e-10	-6.006928e+00	-3.152833e+01
1.490000e-06	-7.684190e-07	-4.814122e-10	-5.847278e+00	-3.084597e+01
1.500000e-06	-7.474351e-07	-4.690286e-10	-5.687601e+00	-3.016038e+01
1.510000e-06	-7.263514e-07	-4.569282e-10	-5.527165e+00	-2.947213e+01
1.520000e-06	-7.052020e-07	-4.496277e-10	-5.366229e+00	-2.878177e+01
1.530000e-06	-6.839612e-07	-4.431311e-10	-5.204597e+00	-2.808984e+01
1.540000e-06	-6.625445e-07	-4.352324e-10	-5.041627e+00	-2.739681e+01
1.550000e-06	-6.410577e-07	-4.264620e-10	-4.878123e+00	-2.670312e+01
1.560000e-06	-6.195923e-07	-4.193246e-10	-4.714782e+00	-2.600916e+01
1.570000e-06	-5.980882e-07	-4.118902e-10	-4.551147e+00	-2.531526e+01
1.580000e-06	-5.764883e-07	-4.043317e-10	-4.386783e+00	-2.462170e+01
1.590000e-06	-5.548418e-07	-3.961851e-10	-4.222064e+00	-2.392871e+01
1.600000e-06	-5.332081e-07	-3.875672e-10	-4.057443e+00	-2.323645e+01
1.610000e-06	-5.115637e-07	-3.776973e-10	-3.892740e+00	-2.254503e+01
1.620000e-06	-4.899390e-07	-3.664396e-10	-3.728187e+00	-2.185451e+01
1.630000e-06	-4.683306e-07	-3.545053e-10	-3.563758e+00	-2.116489e+01
1.640000e-06	-4.466538e-07	-3.434711e-10	-3.398808e+00	-2.047613e+01
1.650000e-06	-4.248795e-07	-3.320584e-10	-3.233117e+00	-1.978815e+01
1.660000e-06	-4.030003e-07	-3.208294e-10	-3.066628e+00	-1.910083e+01
1.670000e-06	-3.810829e-07	-3.095966e-10	-2.899847e+00	-1.841403e+01
1.680000e-06	-3.591678e-07	-2.987444e-10	-2.733084e+00	-1.772758e+01
1.690000e-06	-3.372276e-07	-2.882200e-10	-2.566131e+00	-1.704130e+01
1.700000e-06	-3.152422e-07	-2.773221e-10	-2.398833e+00	-1.635498e+01
1.710000e-06	-2.932881e-07	-2.663674e-10	-2.231773e+00	-1.566843e+01
1.720000e-06	-2.713227e-07	-2.556319e-10	-2.064628e+00	-1.498146e+01
1.730000e-06	-2.493155e-07	-2.442065e-10	-1.897164e+00	-1.429387e+01
1.740000e-06	-2.273252e-07	-2.331548e-10	-1.729829e+00	-1.360550e+01
1.750000e-06	-2.053147e-07	-2.218508e-10	-1.562341e+00	-1.291619e+01
1.760000e-06	-1.833353e-07	-2.086795e-10	-1.395089e+00	-1.222579e+01
1.770000e-06	-1.613191e-07	-1.976346e-10	-1.227556e+00	-1.153421e+01
1.780000e-06	-1.392595e-07	-1.884301e-10	-1.059694e+00	-1.084134e+01
1.790000e-06	-1.172454e-07	-1.788634e-10	-8.921775e-01	-1.014713e+01
1.800000e-06	-9.520464e-08	-1.668780e-10	-7.244589e-01	-9.451541e+00
1.810000e-06	-7.316628e-08	-1.548605e-10	-5.567582e-01	-8.754553e+00
1.820000e-06	-5.114861e-08	-1.439392e-10	-3.892150e-01	-8.056176e+00
1.830000e-06	-2.912858e-08	-1.348080e-10	-2.216537e-01	-7.356438e+00
1.840000e-06	-7.124690e-09	-1.237306e-10	-5.421527e-02	-6.655383e+00
1.850000e-06	1.490025e-08	-1.091317e-10	1.133833e-01	-5.953068e+00
1.860000e-06	3.694783e-08	-9.387184e-11	2.811542e-01	-5.249557e+00
1.870000e-06	5.897531e-08	-7.976790e-11	4.487721e-01	-4.544921e+00
1.880000e-06	8.099476e-08	-6.605120e-11	6.163290e-01	-3.839229e+00
1.890000e-06	1.030032e-07	-5.267941e-11	7.838021e-01	-3.132546e+00
1.900000e-06	1.250266e-07	-4.072230e-11	9.513885e-01	-2.424930e+00
1.910000e-06	1.470770e-07	-2.962242e-11	1.119181e+00	-1.716425e+00
1.920000e-06	1.690810e-07	-1.772142e-11	1.286621e+00	-1.007060e+00
1.930000e-06	1.910081e-07	-5.986109e-12	1.453474e+00	-2.968476e-01
1.940000e-06	2.129000e-07	4.111630e-12	1.620061e+00	4.142224e-01
1.950000e-06	2.348175e-07	1.521615e-11	1.786842e+00	1.126181e+00
1.960000e-06	2.567549e-07	2.672545e-11	1.953774e+00	1.839080e+00
1.970000e-06	2.786489e-07	3.682991e-11	2.120377e+00	2.552997e+00
1.980000e-06	3.005139e-07	4.572060e-11	2.286758e+00	3.268027e+00
1.990000e-06	3.224325e-07	5.435124e-11	2.453548e+00	3.984287e+00
2.000000e-06	3.444577e-07	6.204789e-11	2.621148e+00	4.701911e+00
2.010000e-06	3.664531e-07	7.000981e-11	2.788522e+00	5.421046e+00
2.020000e-06	3.883266e-07	7.850161e-11	2.954968e+00	6.141849e+00
2.030000e-06	4.101199e-07	8.923912e-11	3.120804e+00	6.864484e+00
2.040000e-06	4.318861e-07	1.006544e-10	3.286433e+00	7.589113e+00
2.050000e-06	4.536330e-07	1.117560e-10	3.451917e+00	8.315898e+00
2.060000e-06	4.753526e-07	1.218373e-10	3.617192e+00	9.044989e+00
2.070000e-06	4.970115e-07	1.315994e-10	3.782005e+00	9.776521e+00
2.080000e-06	5.185827e-07	1.427444e-10	3.946151e+00	1.051061e+01
2.090000e-06	5.401031e-07	1.557780e-10	4.109910e+00	1.124735e+01
2.100000e-06	5.616324e-07	1.687052e-10	4.273737e+00	1.198679e+01
2.110000e-06	5.831972e-07	1.779119e-10	4.437835e+00	1.272897e+01
2.120000e-06	6.046951e-07	1.855932e-10	4.601422e+00	1.347388e+01
2.130000e-06	6.261009e-07	1.949581e-10	4.764310e+00	1.422146e+01
2.140000e-06	6.474782e-07	2.046966e-10	4.926980e+00	1.497162e+01
2.150000e-06	6.688069e-07	2.142597e-10	5.089281e+00	1.572421e+01
2.160000e-06	6.900868e-07	2.243569e-10	5.251210e+00	1.647906e+01
2.170000e-06	7.113135e-07	2.350418e-10	5.412734e+00	1.723593e+01
2.180000e-06	7.324456e-07	2.467594e-10	5.573539e+00	1.799455e+01
2.190000e-06	7.535106e-07	2.579779e-10	5.733833e+00	1.875459e+01
2.200000e-06	7.744632e-07	2.680181e-10	5.893271e+00	1.951572e+01
2.210000e-06	7.953417e-07	2.763602e-10	6.052146e+00	2.027752e+01
2.220000e-06	8.162632e-07	2.846329e-10	6.211348e+00	2.103958e+01
2.230000e-06	8.370361e-07	2.937081e-10	6.369419e+00	2.180144e+01
2.240000e-06	8.576157e-07	3.035727e-10	6.526020e+00	2.256264e+01
2.250000e-06	8.782008e-07	3.148831e-10	6.682662e+00	2.332269e+01
2.260000e-06	8.988051e-07	3.286515e-10	6.839450e+00	2.408108e+01
2.270000e-06	9.193764e-07	3.437350e-10	6.995987e+00	2.483733e+01
2.280000e-06	9.398409e-07	3.563445e-10	7.151712e+00	2.559094e+01
2.290000e-06	9.602561e-07	3.656977e-10	7.307061e+00	2.634142e+01
2.300000e-06	9.806431e-07	3.746234e-10	7.462195e+00	2.708832e+01
2.310000e-06	1.000938e-06	3.859026e-10	7.616633e+00	2.783120e+01
2.320000e-06	1.021168e-06	3.976460e-10	7.770573e+00	2.856966e+01
2.330000e-06	1.041384e-06	4.085515e-10	7.924399e+00	2.930332e+01
2.340000e-06	1.061577e-06	4.189197e-10	8.078065e+00	3.003187e+01
2.350000e-06	1.081718e-06	4.300653e-10	8.231326e+00	3.075502e+01
2.360000e-06	1.101817e-06	4.423561e-10	8.384269e+00	3.147255e+01
2.370000e-06	1.121890e-06	4.556158e-10	8.537016e+00	3.218429e+01
2.380000e-06	1.141953e-06	4.696254e-10	8.689685e+00	3.289013e+01
2.390000e-06	1.162008e-06	4.830169e-10	8.842289e+00	3.359001e+01
2.400000e-06	1.182044e-06	4.961527e-10	8.994752e+00	3.428395e+01
2.410000e-06	1.202021e-06	5.077423e-10	9.146771e+00	3.497201e+01
2.420000e-06	1.221931e-06	5.184845e-10	9.298277e+00	3.565431e+01
2.430000e-06	1.241805e-06	5.296683e-10	9.449504e+00	3.633104e+01
2.440000e-06	1.261653e-06	5.403655e-10	9.600538e+00	3.700244e+01
2.450000e-06	1.281478e-06	5.511475e-10	9.751396e+00	3.766880e+01
2.460000e-06	1.301206e-06	5.631250e-10	9.901518e+00	3.833044e+01
2.470000e-06	1.320783e-06	5.762376e-10	1.005048e+01	3.898775e+01
2.480000e-06	1.340275e-06	5.902309e-10	1.019881e+01	3.964113e+01
2.490000e-06	1.359721e-06	6.026648e-10	1.034678e+01	4.029102e+01
2.500000e-06	1.379027e-06	6.125887e-10	1.049369e+01	4.093788e+01
2.510000e-06	1.398242e-06	6.219221e-10	1.063991e+01	4.158218e+01
2.520000e-06	1.417420e-06	6.319214e-10	1.078584e+01	4.222440e+01
2.530000e-06	1.436470e-06	6.405991e-10	1.093081e+01	4.286502e+01
2.540000e-06	1.455265e-06	6.496846e-10	1.107383e+01	4.350450e+01
2.550000e-06	1.473834e-06	6.630051e-10	1.121513e+01	4.414329e+01
2.560000e-06	1.492355e-06	6.769708e-10	1.135606e+01	4.478182e+01
2.570000e-06	1.510816e-06	6.902485e-10	1.149654e+01	4.542046e+01
2.580000e-06	1.529129e-06	7.041064e-10	1.163589e+01	4.605958e+01
2.590000e-06	1.547272e-06	7.163144e-10	1.177395e+01	4.669945e+01
2.600000e-06	1.565302e-06	7.262059e-10	1.191115e+01	4.734034e+01
2.610000e-06	1.583172e-06	7.363650e-10	1.204714e+01	4.798241e+01
2.620000e-06	1.600986e-06	7.474787e-10	1.218269e+01	4.862580e+01
2.630000e-06	1.618817e-06	7.609034e-10	1.231837e+01	4.927054e+01
2.640000e-06	1.636478e-06	7.745202e-10	1.245277e+01	4.991663e+01
2.650000e-06	1.654054e-06	7.853801e-10	1.258651e+01	5.056396e+01
2.660000e-06	1.671552e-06	7.956939e-10	1.271966e+01	5.121237e+01
2.670000e-06	1.688951e-06	8.075847e-10	1.285206e+01	5.186162e+01
2.680000e-06	1.706274e-06	8.182074e-10	1.298388e+01	5.251141e+01
2.690000e-06	1.723541e-06	8.256608e-10	1.311527e+01	5.316135e+01
2.700000e-06	1.740753e-06	8.315171e-10	1.324624e+01	5.381100e+01
2.710000e-06	1.757881e-06	8.393036e-10	1.337658e+01	5.445986e+01
2.720000e-06	1.774925e-06	8.507620e-10	1.350628e+01	5.510739e+01
2.730000e-06	1.791783e-06	8.615561e-10	1.363456e+01	5.575297e+01
2.740000e-06	1.808427e-06	8.692469e-10	1.376121e+01	5.639599e+01
2.750000e-06	1.824977e-06	8.775141e-10	1.388715e+01	5.703578e+01
2.760000e-06	1.841487e-06	8.903280e-10	1.401278e+01	5.767166e+01
2.770000e-06	1.857843e-06	9.039755e-10	1.413724e+01	5.830295e+01
2.780000e-06	1.873959e-06	9.131977e-10	1.425988e+01	5.892895e+01
2.790000e-06	1.889859e-06	9.199897e-10	1.438086e+01	5.954900e+01
2.800000e-06	1.905604e-06	9.278674e-10	1.450068e+01	6.016245e+01
2.810000e-06	1.921101e-06	9.359939e-10	1.461860e+01	6.076868e+01
2.820000e-06	1.936342e-06	9.445870e-10	1.473458e+01	6.136711e+01
2.830000e-06	1.951435e-06	9.537054e-10	1.484943e+01	6.195723e+01
2.840000e-06	1.966413e-06	9.640076e-10	1.496340e+01	6.253856e+01
2.850000e-06	1.981191e-06	9.736485e-10	1.507585e+01	6.311070e+01
2.860000e-06	1.995762e-06	9.811930e-10	1.518674e+01	6.367334e+01
2.870000e-06	2.010208e-06	9.901952e-10	1.529666e+01	6.422621e+01
2.880000e-06	2.024511e-06	1.000599e-09	1.540550e+01	6.476914e+01
2.890000e-06	2.038626e-06	1.008789e-09	1.551291e+01	6.530204e+01
2.900000e-06	2.052613e-06	1.015078e-09	1.561934e+01	6.582490e+01
