# Temperatura_=_20.0
# Concentracion g/m^3_=_12600.0
# C_Vs_to_Am_M_A/Vsm_=_65563218390.804596
# pendiente_HvsI_1/m_=_3716.3
# ordenada_HvsI_A/m_=_1297.0
# frecuencia_Hz_=_134918.977997655

Tiempo_(s)	Campo_(V.s)	Magnetizacion_(V.s)	Campo_(kA/m)	Magnetizacion_(A/m)
0.000000e+00	-2.614454e-06	-1.326538e-09	-1.984407e+01	-8.642162e+01
1.000000e-08	-2.614626e-06	-1.358892e-09	-1.984537e+01	-8.639168e+01
2.000000e-08	-2.614748e-06	-1.376726e-09	-1.984630e+01	-8.635056e+01
3.000000e-08	-2.614689e-06	-1.341495e-09	-1.984585e+01	-8.629783e+01
4.000000e-08	-2.614456e-06	-1.246304e-09	-1.984409e+01	-8.623313e+01
5.000000e-08	-2.614126e-06	-1.186608e-09	-1.984158e+01	-8.615620e+01
6.000000e-08	-2.613672e-06	-1.158770e-09	-1.983813e+01	-8.606688e+01
7.000000e-08	-2.613089e-06	-1.216877e-09	-1.983371e+01	-8.596511e+01
8.000000e-08	-2.612228e-06	-1.365876e-09	-1.982717e+01	-8.585098e+01
9.000000e-08	-2.611070e-06	-1.454388e-09	-1.981838e+01	-8.572467e+01
1.000000e-07	-2.609820e-06	-1.412256e-09	-1.980889e+01	-8.558650e+01
1.100000e-07	-2.608326e-06	-1.343727e-09	-1.979756e+01	-8.543693e+01
1.200000e-07	-2.606390e-06	-1.299187e-09	-1.978286e+01	-8.527653e+01
1.300000e-07	-2.603991e-06	-1.245323e-09	-1.976465e+01	-8.510596e+01
1.400000e-07	-2.601324e-06	-1.312116e-09	-1.974441e+01	-8.492604e+01
1.500000e-07	-2.598454e-06	-1.334992e-09	-1.972263e+01	-8.473762e+01
1.600000e-07	-2.595337e-06	-1.297367e-09	-1.969897e+01	-8.454168e+01
1.700000e-07	-2.591973e-06	-1.263587e-09	-1.967344e+01	-8.433923e+01
1.800000e-07	-2.588372e-06	-1.301882e-09	-1.964610e+01	-8.413134e+01
1.900000e-07	-2.584612e-06	-1.288510e-09	-1.961756e+01	-8.391908e+01
2.000000e-07	-2.580686e-06	-1.240698e-09	-1.958777e+01	-8.370355e+01
2.100000e-07	-2.576689e-06	-1.227820e-09	-1.955743e+01	-8.348582e+01
2.200000e-07	-2.572667e-06	-1.271738e-09	-1.952690e+01	-8.326692e+01
2.300000e-07	-2.568601e-06	-1.317011e-09	-1.949604e+01	-8.304784e+01
2.400000e-07	-2.564411e-06	-1.257737e-09	-1.946423e+01	-8.282948e+01
2.500000e-07	-2.560081e-06	-1.207357e-09	-1.943137e+01	-8.261266e+01
2.600000e-07	-2.555638e-06	-1.225764e-09	-1.939764e+01	-8.239809e+01
2.700000e-07	-2.550944e-06	-1.309566e-09	-1.936202e+01	-8.218637e+01
2.800000e-07	-2.546057e-06	-1.301441e-09	-1.932492e+01	-8.197795e+01
2.900000e-07	-2.541048e-06	-1.236056e-09	-1.928691e+01	-8.177318e+01
3.000000e-07	-2.535787e-06	-1.175592e-09	-1.924698e+01	-8.157225e+01
3.100000e-07	-2.530266e-06	-1.237234e-09	-1.920507e+01	-8.137520e+01
3.200000e-07	-2.524640e-06	-1.315421e-09	-1.916237e+01	-8.118196e+01
3.300000e-07	-2.518914e-06	-1.286309e-09	-1.911891e+01	-8.099231e+01
3.400000e-07	-2.512925e-06	-1.173078e-09	-1.907345e+01	-8.080589e+01
3.500000e-07	-2.506667e-06	-1.169694e-09	-1.902595e+01	-8.062224e+01
3.600000e-07	-2.500332e-06	-1.288447e-09	-1.897787e+01	-8.044078e+01
3.700000e-07	-2.493927e-06	-1.327408e-09	-1.892925e+01	-8.026085e+01
3.800000e-07	-2.487320e-06	-1.211998e-09	-1.887910e+01	-8.008168e+01
3.900000e-07	-2.480490e-06	-1.126159e-09	-1.882726e+01	-7.990246e+01
4.000000e-07	-2.473448e-06	-1.213149e-09	-1.877381e+01	-7.972233e+01
4.100000e-07	-2.466168e-06	-1.311246e-09	-1.871856e+01	-7.954040e+01
4.200000e-07	-2.458677e-06	-1.260036e-09	-1.866170e+01	-7.935576e+01
4.300000e-07	-2.451048e-06	-1.148618e-09	-1.860380e+01	-7.916750e+01
4.400000e-07	-2.443292e-06	-1.166583e-09	-1.854493e+01	-7.897473e+01
4.500000e-07	-2.435460e-06	-1.262868e-09	-1.848548e+01	-7.877662e+01
4.600000e-07	-2.427584e-06	-1.280347e-09	-1.842570e+01	-7.857235e+01
4.700000e-07	-2.419623e-06	-1.200072e-09	-1.836527e+01	-7.836118e+01
4.800000e-07	-2.411546e-06	-1.159033e-09	-1.830397e+01	-7.814245e+01
4.900000e-07	-2.403340e-06	-1.199020e-09	-1.824168e+01	-7.791557e+01
5.000000e-07	-2.394987e-06	-1.242153e-09	-1.817828e+01	-7.768005e+01
5.100000e-07	-2.386445e-06	-1.215308e-09	-1.811345e+01	-7.743546e+01
5.200000e-07	-2.377698e-06	-1.161354e-09	-1.804706e+01	-7.718152e+01
5.300000e-07	-2.368741e-06	-1.148780e-09	-1.797907e+01	-7.691799e+01
5.400000e-07	-2.359476e-06	-1.184060e-09	-1.790875e+01	-7.664477e+01
5.500000e-07	-2.349954e-06	-1.209217e-09	-1.783648e+01	-7.636185e+01
5.600000e-07	-2.340206e-06	-1.179960e-09	-1.776249e+01	-7.606928e+01
5.700000e-07	-2.330204e-06	-1.130117e-09	-1.768657e+01	-7.576723e+01
5.800000e-07	-2.319891e-06	-1.132594e-09	-1.760829e+01	-7.545592e+01
5.900000e-07	-2.309276e-06	-1.179056e-09	-1.752773e+01	-7.513568e+01
6.000000e-07	-2.298439e-06	-1.180913e-09	-1.744547e+01	-7.480685e+01
6.100000e-07	-2.287346e-06	-1.125150e-09	-1.736128e+01	-7.446988e+01
6.200000e-07	-2.276002e-06	-1.103306e-09	-1.727517e+01	-7.412522e+01
6.300000e-07	-2.264481e-06	-1.142449e-09	-1.718773e+01	-7.377337e+01
6.400000e-07	-2.252778e-06	-1.160002e-09	-1.709890e+01	-7.341487e+01
6.500000e-07	-2.240931e-06	-1.118284e-09	-1.700898e+01	-7.305025e+01
6.600000e-07	-2.228990e-06	-1.086429e-09	-1.691834e+01	-7.268007e+01
6.700000e-07	-2.216964e-06	-1.101339e-09	-1.682707e+01	-7.230487e+01
6.800000e-07	-2.204844e-06	-1.114484e-09	-1.673507e+01	-7.192519e+01
6.900000e-07	-2.192546e-06	-1.098655e-09	-1.664173e+01	-7.154155e+01
7.000000e-07	-2.180022e-06	-1.079166e-09	-1.654667e+01	-7.115445e+01
7.100000e-07	-2.167306e-06	-1.070046e-09	-1.645016e+01	-7.076436e+01
7.200000e-07	-2.154440e-06	-1.067078e-09	-1.635250e+01	-7.037171e+01
7.300000e-07	-2.141417e-06	-1.071700e-09	-1.625365e+01	-6.997690e+01
7.400000e-07	-2.128226e-06	-1.069192e-09	-1.615353e+01	-6.958027e+01
7.500000e-07	-2.114817e-06	-1.048988e-09	-1.605175e+01	-6.918212e+01
7.600000e-07	-2.101201e-06	-1.035446e-09	-1.594840e+01	-6.878273e+01
7.700000e-07	-2.087432e-06	-1.044953e-09	-1.584390e+01	-6.838229e+01
7.800000e-07	-2.073640e-06	-1.049941e-09	-1.573922e+01	-6.798096e+01
7.900000e-07	-2.059744e-06	-1.031348e-09	-1.563374e+01	-6.757885e+01
8.000000e-07	-2.045582e-06	-1.013521e-09	-1.552625e+01	-6.717602e+01
8.100000e-07	-2.031302e-06	-1.013749e-09	-1.541787e+01	-6.677249e+01
8.200000e-07	-2.016971e-06	-1.013005e-09	-1.530909e+01	-6.636821e+01
8.300000e-07	-2.002378e-06	-1.002694e-09	-1.519833e+01	-6.596311e+01
8.400000e-07	-1.987581e-06	-9.916599e-10	-1.508602e+01	-6.555707e+01
8.500000e-07	-1.972686e-06	-9.845773e-10	-1.497296e+01	-6.514992e+01
8.600000e-07	-1.957551e-06	-9.809110e-10	-1.485809e+01	-6.474148e+01
8.700000e-07	-1.942082e-06	-9.811943e-10	-1.474067e+01	-6.433152e+01
8.800000e-07	-1.926331e-06	-9.794197e-10	-1.462112e+01	-6.391978e+01
8.900000e-07	-1.910431e-06	-9.702825e-10	-1.450044e+01	-6.350600e+01
9.000000e-07	-1.894325e-06	-9.578459e-10	-1.437819e+01	-6.308988e+01
9.100000e-07	-1.877991e-06	-9.517107e-10	-1.425422e+01	-6.267113e+01
9.200000e-07	-1.861638e-06	-9.513948e-10	-1.413009e+01	-6.224943e+01
9.300000e-07	-1.845179e-06	-9.461376e-10	-1.400517e+01	-6.182447e+01
9.400000e-07	-1.828440e-06	-9.329948e-10	-1.387811e+01	-6.139597e+01
9.500000e-07	-1.811596e-06	-9.248446e-10	-1.375026e+01	-6.096362e+01
9.600000e-07	-1.794653e-06	-9.264308e-10	-1.362166e+01	-6.052715e+01
9.700000e-07	-1.777512e-06	-9.274896e-10	-1.349156e+01	-6.008631e+01
9.800000e-07	-1.760237e-06	-9.167582e-10	-1.336045e+01	-5.964087e+01
9.900000e-07	-1.742987e-06	-9.026644e-10	-1.322951e+01	-5.919064e+01
1.000000e-06	-1.725679e-06	-8.974033e-10	-1.309814e+01	-5.873547e+01
1.010000e-06	-1.708233e-06	-8.951433e-10	-1.296572e+01	-5.827523e+01
1.020000e-06	-1.690714e-06	-8.881698e-10	-1.283275e+01	-5.780984e+01
1.030000e-06	-1.673090e-06	-8.774477e-10	-1.269898e+01	-5.733928e+01
1.040000e-06	-1.655406e-06	-8.677078e-10	-1.256476e+01	-5.686355e+01
1.050000e-06	-1.637615e-06	-8.630486e-10	-1.242973e+01	-5.638271e+01
1.060000e-06	-1.619683e-06	-8.610434e-10	-1.229362e+01	-5.589685e+01
1.070000e-06	-1.601679e-06	-8.563759e-10	-1.215697e+01	-5.540612e+01
1.080000e-06	-1.583633e-06	-8.492156e-10	-1.202000e+01	-5.491068e+01
1.090000e-06	-1.565478e-06	-8.422976e-10	-1.188219e+01	-5.441075e+01
1.100000e-06	-1.547116e-06	-8.372991e-10	-1.174283e+01	-5.390656e+01
1.110000e-06	-1.528619e-06	-8.288130e-10	-1.160243e+01	-5.339835e+01
1.120000e-06	-1.510057e-06	-8.146809e-10	-1.146154e+01	-5.288641e+01
1.130000e-06	-1.491373e-06	-8.011021e-10	-1.131973e+01	-5.237100e+01
1.140000e-06	-1.472546e-06	-7.925636e-10	-1.117682e+01	-5.185240e+01
1.150000e-06	-1.453591e-06	-7.858569e-10	-1.103296e+01	-5.133085e+01
1.160000e-06	-1.434541e-06	-7.769640e-10	-1.088837e+01	-5.080660e+01
1.170000e-06	-1.415421e-06	-7.695386e-10	-1.074324e+01	-5.027987e+01
1.180000e-06	-1.396152e-06	-7.649726e-10	-1.059698e+01	-4.975082e+01
1.190000e-06	-1.376664e-06	-7.605097e-10	-1.044907e+01	-4.921959e+01
1.200000e-06	-1.357015e-06	-7.541934e-10	-1.029993e+01	-4.868625e+01
1.210000e-06	-1.337392e-06	-7.450240e-10	-1.015099e+01	-4.815083e+01
1.220000e-06	-1.317798e-06	-7.322052e-10	-1.000227e+01	-4.761329e+01
1.230000e-06	-1.298059e-06	-7.200998e-10	-9.852448e+00	-4.707354e+01
1.240000e-06	-1.278222e-06	-7.104345e-10	-9.701881e+00	-4.653141e+01
1.250000e-06	-1.258338e-06	-7.010602e-10	-9.550962e+00	-4.598667e+01
1.260000e-06	-1.238434e-06	-6.916166e-10	-9.399883e+00	-4.543904e+01
1.270000e-06	-1.218514e-06	-6.843382e-10	-9.248690e+00	-4.488818e+01
1.280000e-06	-1.198549e-06	-6.799148e-10	-9.097156e+00	-4.433368e+01
1.290000e-06	-1.178579e-06	-6.715084e-10	-8.945578e+00	-4.377511e+01
1.300000e-06	-1.158604e-06	-6.608538e-10	-8.793964e+00	-4.321198e+01
1.310000e-06	-1.138608e-06	-6.521166e-10	-8.642189e+00	-4.264381e+01
1.320000e-06	-1.118612e-06	-6.444479e-10	-8.490417e+00	-4.207006e+01
1.330000e-06	-1.098573e-06	-6.348045e-10	-8.338321e+00	-4.149023e+01
1.340000e-06	-1.078478e-06	-6.237217e-10	-8.185799e+00	-4.090381e+01
1.350000e-06	-1.058381e-06	-6.137719e-10	-8.033256e+00	-4.031031e+01
1.360000e-06	-1.038208e-06	-6.062738e-10	-7.880144e+00	-3.970929e+01
1.370000e-06	-1.017939e-06	-5.997728e-10	-7.726301e+00	-3.910036e+01
1.380000e-06	-9.975985e-07	-5.942352e-10	-7.571911e+00	-3.848317e+01
1.390000e-06	-9.772120e-07	-5.865307e-10	-7.417174e+00	-3.785746e+01
1.400000e-06	-9.567492e-07	-5.780714e-10	-7.261859e+00	-3.722306e+01
1.410000e-06	-9.362147e-07	-5.684704e-10	-7.106000e+00	-3.657986e+01
1.420000e-06	-9.156961e-07	-5.564888e-10	-6.950260e+00	-3.592788e+01
1.430000e-06	-8.951055e-07	-5.421225e-10	-6.793975e+00	-3.526721e+01
1.440000e-06	-8.744090e-07	-5.282349e-10	-6.636885e+00	-3.459805e+01
1.450000e-06	-8.536103e-07	-5.173591e-10	-6.479020e+00	-3.392072e+01
1.460000e-06	-8.327055e-07	-5.087750e-10	-6.320350e+00	-3.323561e+01
1.470000e-06	-8.117266e-07	-5.022089e-10	-6.161118e+00	-3.254322e+01
1.480000e-06	-7.906378e-07	-4.949278e-10	-6.001051e+00	-3.184412e+01
1.490000e-06	-7.695500e-07	-4.856410e-10	-5.840991e+00	-3.113897e+01
1.500000e-06	-7.484993e-07	-4.757265e-10	-5.681214e+00	-3.042848e+01
1.510000e-06	-7.272966e-07	-4.682811e-10	-5.520282e+00	-2.971342e+01
1.520000e-06	-7.059351e-07	-4.593898e-10	-5.358145e+00	-2.899460e+01
1.530000e-06	-6.845694e-07	-4.475257e-10	-5.195977e+00	-2.827284e+01
1.540000e-06	-6.631900e-07	-4.359181e-10	-5.033704e+00	-2.754897e+01
1.550000e-06	-6.417375e-07	-4.304682e-10	-4.870877e+00	-2.682381e+01
1.560000e-06	-6.202621e-07	-4.265137e-10	-4.707875e+00	-2.609815e+01
1.570000e-06	-5.987141e-07	-4.170525e-10	-4.544323e+00	-2.537273e+01
1.580000e-06	-5.770687e-07	-4.043145e-10	-4.380031e+00	-2.464826e+01
1.590000e-06	-5.553838e-07	-3.951261e-10	-4.215440e+00	-2.392534e+01
1.600000e-06	-5.336614e-07	-3.897481e-10	-4.050564e+00	-2.320452e+01
1.610000e-06	-5.119353e-07	-3.816227e-10	-3.885660e+00	-2.248624e+01
1.620000e-06	-4.902504e-07	-3.696372e-10	-3.721069e+00	-2.177086e+01
1.630000e-06	-4.685542e-07	-3.561506e-10	-3.556392e+00	-2.105861e+01
1.640000e-06	-4.468122e-07	-3.430395e-10	-3.391366e+00	-2.034964e+01
1.650000e-06	-4.250430e-07	-3.326001e-10	-3.226135e+00	-1.964398e+01
1.660000e-06	-4.032134e-07	-3.245723e-10	-3.060445e+00	-1.894155e+01
1.670000e-06	-3.813369e-07	-3.159855e-10	-2.894400e+00	-1.824219e+01
1.680000e-06	-3.594105e-07	-3.065785e-10	-2.727975e+00	-1.754563e+01
1.690000e-06	-3.374422e-07	-2.974509e-10	-2.561233e+00	-1.685153e+01
1.700000e-06	-3.155003e-07	-2.876392e-10	-2.394691e+00	-1.615947e+01
1.710000e-06	-2.935767e-07	-2.766700e-10	-2.228287e+00	-1.546899e+01
1.720000e-06	-2.716457e-07	-2.649399e-10	-2.061829e+00	-1.477957e+01
1.730000e-06	-2.496903e-07	-2.525767e-10	-1.895184e+00	-1.409065e+01
1.740000e-06	-2.276515e-07	-2.391323e-10	-1.727907e+00	-1.340168e+01
1.750000e-06	-2.055936e-07	-2.261266e-10	-1.560484e+00	-1.271210e+01
1.760000e-06	-1.835626e-07	-2.155406e-10	-1.393265e+00	-1.202136e+01
1.770000e-06	-1.615144e-07	-2.055635e-10	-1.225917e+00	-1.132894e+01
1.780000e-06	-1.395204e-07	-1.967035e-10	-1.058979e+00	-1.063438e+01
1.790000e-06	-1.174960e-07	-1.894143e-10	-8.918109e-01	-9.937248e+00
1.800000e-06	-9.542202e-08	-1.796509e-10	-7.242663e-01	-9.237182e+00
1.810000e-06	-7.337870e-08	-1.671599e-10	-5.569545e-01	-8.533891e+00
1.820000e-06	-5.134532e-08	-1.556940e-10	-3.897181e-01	-7.827160e+00
1.830000e-06	-2.939502e-08	-1.465839e-10	-2.231122e-01	-7.116848e+00
1.840000e-06	-7.495591e-09	-1.368878e-10	-5.689257e-02	-6.402894e+00
1.850000e-06	1.450532e-08	-1.233292e-10	1.100974e-01	-5.685312e+00
1.860000e-06	3.660365e-08	-1.081974e-10	2.778268e-01	-4.964188e+00
1.870000e-06	5.872749e-08	-9.487620e-11	4.457498e-01	-4.239677e+00
1.880000e-06	8.083285e-08	-8.389097e-11	6.135325e-01	-3.511990e+00
1.890000e-06	1.028628e-07	-7.247477e-11	7.807431e-01	-2.781392e+00
1.900000e-06	1.248283e-07	-6.000555e-11	9.474640e-01	-2.048184e+00
1.910000e-06	1.468021e-07	-4.786601e-11	1.114248e+00	-1.312698e+00
1.920000e-06	1.687679e-07	-3.720459e-11	1.280972e+00	-5.752831e-01
1.930000e-06	1.907072e-07	-2.496499e-11	1.447494e+00	1.637070e-01
1.940000e-06	2.126861e-07	-1.041055e-11	1.614317e+00	9.039241e-01
1.950000e-06	2.346572e-07	3.808476e-12	1.781081e+00	1.645037e+00
1.960000e-06	2.565911e-07	1.543032e-11	1.947562e+00	2.386740e+00
1.970000e-06	2.785941e-07	2.447038e-11	2.114568e+00	3.128764e+00
1.980000e-06	3.005425e-07	3.447435e-11	2.281159e+00	3.870882e+00
1.990000e-06	3.223816e-07	4.500344e-11	2.446921e+00	4.612914e+00
2.000000e-06	3.442460e-07	5.532168e-11	2.612875e+00	5.354731e+00
2.010000e-06	3.661087e-07	6.470543e-11	2.778816e+00	6.096258e+00
2.020000e-06	3.879348e-07	7.418907e-11	2.944479e+00	6.837469e+00
2.030000e-06	4.097518e-07	8.825762e-11	3.110073e+00	7.578391e+00
2.040000e-06	4.315309e-07	1.050036e-10	3.275380e+00	8.319096e+00
2.050000e-06	4.532344e-07	1.195580e-10	3.440112e+00	9.059691e+00
2.060000e-06	4.749005e-07	1.294121e-10	3.604560e+00	9.800321e+00
2.070000e-06	4.965617e-07	1.391154e-10	3.768972e+00	1.054115e+01
2.080000e-06	5.181796e-07	1.518039e-10	3.933055e+00	1.128235e+01
2.090000e-06	5.397169e-07	1.649608e-10	4.096526e+00	1.202412e+01
2.100000e-06	5.612334e-07	1.755930e-10	4.259839e+00	1.276661e+01
2.110000e-06	5.827247e-07	1.828399e-10	4.422962e+00	1.351000e+01
2.120000e-06	6.041868e-07	1.929213e-10	4.585862e+00	1.425440e+01
2.130000e-06	6.256494e-07	2.078653e-10	4.748766e+00	1.499991e+01
2.140000e-06	6.470312e-07	2.217971e-10	4.911057e+00	1.574657e+01
2.150000e-06	6.684077e-07	2.318455e-10	5.073307e+00	1.649439e+01
2.160000e-06	6.897755e-07	2.406030e-10	5.235492e+00	1.724330e+01
2.170000e-06	7.110324e-07	2.512255e-10	5.396835e+00	1.799318e+01
2.180000e-06	7.323316e-07	2.645968e-10	5.558499e+00	1.874385e+01
2.190000e-06	7.536054e-07	2.772503e-10	5.719969e+00	1.949508e+01
2.200000e-06	7.747372e-07	2.859528e-10	5.880363e+00	2.024656e+01
2.210000e-06	7.957952e-07	2.941968e-10	6.040196e+00	2.099796e+01
2.220000e-06	8.167165e-07	3.057148e-10	6.198991e+00	2.174887e+01
2.230000e-06	8.374974e-07	3.180308e-10	6.356721e+00	2.249886e+01
2.240000e-06	8.582211e-07	3.289437e-10	6.514017e+00	2.324748e+01
2.250000e-06	8.789243e-07	3.387418e-10	6.671157e+00	2.399426e+01
2.260000e-06	8.996024e-07	3.493605e-10	6.828107e+00	2.473870e+01
2.270000e-06	9.201347e-07	3.611021e-10	6.983950e+00	2.548035e+01
2.280000e-06	9.406088e-07	3.721073e-10	7.139352e+00	2.621875e+01
2.290000e-06	9.610687e-07	3.807667e-10	7.294645e+00	2.695347e+01
2.300000e-06	9.814326e-07	3.896460e-10	7.449210e+00	2.768413e+01
2.310000e-06	1.001758e-06	4.014372e-10	7.603485e+00	2.841040e+01
2.320000e-06	1.022024e-06	4.143273e-10	7.757302e+00	2.913202e+01
2.330000e-06	1.042194e-06	4.266942e-10	7.910395e+00	2.984877e+01
2.340000e-06	1.062291e-06	4.389780e-10	8.062936e+00	3.056054e+01
2.350000e-06	1.082377e-06	4.511411e-10	8.215390e+00	3.126726e+01
2.360000e-06	1.102442e-06	4.630692e-10	8.367689e+00	3.196896e+01
2.370000e-06	1.122489e-06	4.757195e-10	8.519851e+00	3.266575e+01
2.380000e-06	1.142516e-06	4.886967e-10	8.671853e+00	3.335779e+01
2.390000e-06	1.162525e-06	5.001504e-10	8.823727e+00	3.404532e+01
2.400000e-06	1.182495e-06	5.093349e-10	8.975300e+00	3.472865e+01
2.410000e-06	1.202387e-06	5.178039e-10	9.126287e+00	3.540813e+01
2.420000e-06	1.222267e-06	5.282627e-10	9.277172e+00	3.608415e+01
2.430000e-06	1.242139e-06	5.401015e-10	9.428006e+00	3.675715e+01
2.440000e-06	1.261986e-06	5.515548e-10	9.578651e+00	3.742756e+01
2.450000e-06	1.281846e-06	5.612814e-10	9.729392e+00	3.809582e+01
2.460000e-06	1.301691e-06	5.706895e-10	9.880018e+00	3.876238e+01
2.470000e-06	1.321440e-06	5.825813e-10	1.002991e+01	3.942765e+01
2.480000e-06	1.341044e-06	5.958127e-10	1.017871e+01	4.009201e+01
2.490000e-06	1.360543e-06	6.072477e-10	1.032671e+01	4.075581e+01
2.500000e-06	1.379943e-06	6.173358e-10	1.047396e+01	4.141933e+01
2.510000e-06	1.399222e-06	6.288630e-10	1.062029e+01	4.208278e+01
2.520000e-06	1.418427e-06	6.412424e-10	1.076606e+01	4.274634e+01
2.530000e-06	1.437562e-06	6.519370e-10	1.091130e+01	4.341007e+01
2.540000e-06	1.456642e-06	6.610145e-10	1.105611e+01	4.407399e+01
2.550000e-06	1.475554e-06	6.725066e-10	1.119966e+01	4.473803e+01
2.560000e-06	1.494195e-06	6.865849e-10	1.134115e+01	4.540205e+01
2.570000e-06	1.512638e-06	6.996021e-10	1.148113e+01	4.606584e+01
2.580000e-06	1.530947e-06	7.099482e-10	1.162010e+01	4.672914e+01
2.590000e-06	1.549164e-06	7.197167e-10	1.175837e+01	4.739163e+01
2.600000e-06	1.567312e-06	7.297610e-10	1.189611e+01	4.805294e+01
2.610000e-06	1.585370e-06	7.396107e-10	1.203317e+01	4.871268e+01
2.620000e-06	1.603358e-06	7.488519e-10	1.216971e+01	4.937042e+01
2.630000e-06	1.621285e-06	7.595539e-10	1.230578e+01	5.002574e+01
2.640000e-06	1.639058e-06	7.730865e-10	1.244068e+01	5.067821e+01
2.650000e-06	1.656607e-06	7.870388e-10	1.257388e+01	5.132741e+01
2.660000e-06	1.674022e-06	7.981526e-10	1.270606e+01	5.197296e+01
2.670000e-06	1.691436e-06	8.070895e-10	1.283823e+01	5.261451e+01
2.680000e-06	1.708841e-06	8.162668e-10	1.297034e+01	5.325175e+01
2.690000e-06	1.726118e-06	8.253647e-10	1.310148e+01	5.388441e+01
2.700000e-06	1.743279e-06	8.318971e-10	1.323173e+01	5.451229e+01
2.710000e-06	1.760400e-06	8.364574e-10	1.336168e+01	5.513525e+01
2.720000e-06	1.777491e-06	8.449745e-10	1.349140e+01	5.575320e+01
2.730000e-06	1.794502e-06	8.563815e-10	1.362052e+01	5.636611e+01
2.740000e-06	1.811426e-06	8.668157e-10	1.374897e+01	5.697401e+01
2.750000e-06	1.828170e-06	8.774451e-10	1.387606e+01	5.757697e+01
2.760000e-06	1.844642e-06	8.903083e-10	1.400109e+01	5.817513e+01
2.770000e-06	1.860895e-06	9.006787e-10	1.412445e+01	5.876863e+01
2.780000e-06	1.877025e-06	9.065627e-10	1.424688e+01	5.935764e+01
2.790000e-06	1.893118e-06	9.113526e-10	1.436903e+01	5.994237e+01
2.800000e-06	1.909005e-06	9.183755e-10	1.448962e+01	6.052301e+01
2.810000e-06	1.924691e-06	9.272805e-10	1.460867e+01	6.109974e+01
2.820000e-06	1.940361e-06	9.355871e-10	1.472761e+01	6.167272e+01
2.830000e-06	1.955731e-06	9.451293e-10	1.484427e+01	6.224209e+01
2.840000e-06	1.970748e-06	9.578646e-10	1.495825e+01	6.280793e+01
2.850000e-06	1.985625e-06	9.712706e-10	1.507117e+01	6.337027e+01
2.860000e-06	2.000240e-06	9.813160e-10	1.518210e+01	6.392910e+01
2.870000e-06	2.014624e-06	9.893339e-10	1.529127e+01	6.448433e+01
2.880000e-06	2.028881e-06	9.970048e-10	1.539949e+01	6.503580e+01
2.890000e-06	2.043102e-06	1.004643e-09	1.550743e+01	6.558328e+01
2.900000e-06	2.057287e-06	1.011341e-09	1.561510e+01	6.612649e+01
