# Temperatura_=_20.0
# Concentracion g/m^3_=_12600.0
# C_Vs_to_Am_M_A/Vsm_=_65563218390.804596
# pendiente_HvsI_1/m_=_3716.3
# ordenada_HvsI_A/m_=_1297.0
# frecuencia_Hz_=_134923.34002368443

Tiempo_(s)	Campo_(V.s)	Magnetizacion_(V.s)	Campo_(kA/m)	Magnetizacion_(A/m)
0.000000e+00	-2.614583e-06	-1.354088e-09	-1.983422e+01	-8.687942e+01
1.000000e-08	-2.614752e-06	-1.403529e-09	-1.983551e+01	-8.682858e+01
2.000000e-08	-2.614749e-06	-1.447335e-09	-1.983549e+01	-8.676559e+01
3.000000e-08	-2.614640e-06	-1.432240e-09	-1.983466e+01	-8.669050e+01
4.000000e-08	-2.614443e-06	-1.336862e-09	-1.983316e+01	-8.660349e+01
5.000000e-08	-2.614069e-06	-1.219304e-09	-1.983033e+01	-8.650485e+01
6.000000e-08	-2.613513e-06	-1.092693e-09	-1.982611e+01	-8.639497e+01
7.000000e-08	-2.612855e-06	-1.101886e-09	-1.982112e+01	-8.627437e+01
8.000000e-08	-2.611931e-06	-1.240169e-09	-1.981410e+01	-8.614368e+01
9.000000e-08	-2.610797e-06	-1.364737e-09	-1.980550e+01	-8.600360e+01
1.000000e-07	-2.609547e-06	-1.461212e-09	-1.979602e+01	-8.585494e+01
1.100000e-07	-2.607937e-06	-1.437771e-09	-1.978381e+01	-8.569857e+01
1.200000e-07	-2.605957e-06	-1.381411e-09	-1.976879e+01	-8.553542e+01
1.300000e-07	-2.603646e-06	-1.352097e-09	-1.975125e+01	-8.536645e+01
1.400000e-07	-2.601019e-06	-1.380944e-09	-1.973133e+01	-8.519267e+01
1.500000e-07	-2.598132e-06	-1.389347e-09	-1.970943e+01	-8.501505e+01
1.600000e-07	-2.595014e-06	-1.343179e-09	-1.968577e+01	-8.483459e+01
1.700000e-07	-2.591666e-06	-1.312483e-09	-1.966038e+01	-8.465221e+01
1.800000e-07	-2.588088e-06	-1.288786e-09	-1.963323e+01	-8.446880e+01
1.900000e-07	-2.584394e-06	-1.306018e-09	-1.960521e+01	-8.428518e+01
2.000000e-07	-2.580614e-06	-1.275584e-09	-1.957653e+01	-8.410207e+01
2.100000e-07	-2.576732e-06	-1.270179e-09	-1.954708e+01	-8.392010e+01
2.200000e-07	-2.572773e-06	-1.270085e-09	-1.951705e+01	-8.373976e+01
2.300000e-07	-2.568648e-06	-1.308648e-09	-1.948576e+01	-8.356144e+01
2.400000e-07	-2.564323e-06	-1.309660e-09	-1.945295e+01	-8.338539e+01
2.500000e-07	-2.559879e-06	-1.310328e-09	-1.941924e+01	-8.321172e+01
2.600000e-07	-2.555270e-06	-1.313906e-09	-1.938427e+01	-8.304040e+01
2.700000e-07	-2.550519e-06	-1.323671e-09	-1.934824e+01	-8.287127e+01
2.800000e-07	-2.545649e-06	-1.338205e-09	-1.931129e+01	-8.270405e+01
2.900000e-07	-2.540569e-06	-1.315415e-09	-1.927275e+01	-8.253830e+01
3.000000e-07	-2.535282e-06	-1.301762e-09	-1.923265e+01	-8.237352e+01
3.100000e-07	-2.529825e-06	-1.279662e-09	-1.919125e+01	-8.220906e+01
3.200000e-07	-2.524221e-06	-1.300520e-09	-1.914873e+01	-8.204422e+01
3.300000e-07	-2.518419e-06	-1.302365e-09	-1.910473e+01	-8.187820e+01
3.400000e-07	-2.512360e-06	-1.304676e-09	-1.905876e+01	-8.171019e+01
3.500000e-07	-2.506075e-06	-1.283367e-09	-1.901108e+01	-8.153930e+01
3.600000e-07	-2.499676e-06	-1.283068e-09	-1.896254e+01	-8.136466e+01
3.700000e-07	-2.493163e-06	-1.283547e-09	-1.891313e+01	-8.118540e+01
3.800000e-07	-2.486426e-06	-1.290979e-09	-1.886203e+01	-8.100067e+01
3.900000e-07	-2.479488e-06	-1.281112e-09	-1.880940e+01	-8.080964e+01
4.000000e-07	-2.472291e-06	-1.259241e-09	-1.875480e+01	-8.061158e+01
4.100000e-07	-2.464870e-06	-1.236548e-09	-1.869850e+01	-8.040580e+01
4.200000e-07	-2.457363e-06	-1.242249e-09	-1.864155e+01	-8.019170e+01
4.300000e-07	-2.449792e-06	-1.272449e-09	-1.858412e+01	-7.996879e+01
4.400000e-07	-2.442138e-06	-1.277184e-09	-1.852606e+01	-7.973666e+01
4.500000e-07	-2.434370e-06	-1.245528e-09	-1.846713e+01	-7.949503e+01
4.600000e-07	-2.426503e-06	-1.225238e-09	-1.840745e+01	-7.924370e+01
4.700000e-07	-2.418485e-06	-1.260739e-09	-1.834662e+01	-7.898262e+01
4.800000e-07	-2.410349e-06	-1.294297e-09	-1.828490e+01	-7.871181e+01
4.900000e-07	-2.402098e-06	-1.264216e-09	-1.822231e+01	-7.843142e+01
5.000000e-07	-2.393740e-06	-1.203961e-09	-1.815891e+01	-7.814168e+01
5.100000e-07	-2.385274e-06	-1.205989e-09	-1.809468e+01	-7.784292e+01
5.200000e-07	-2.376565e-06	-1.255645e-09	-1.802862e+01	-7.753553e+01
5.300000e-07	-2.367545e-06	-1.260857e-09	-1.796019e+01	-7.721998e+01
5.400000e-07	-2.358344e-06	-1.200747e-09	-1.789039e+01	-7.689677e+01
5.500000e-07	-2.348886e-06	-1.167410e-09	-1.781865e+01	-7.656647e+01
5.600000e-07	-2.339002e-06	-1.201706e-09	-1.774367e+01	-7.622964e+01
5.700000e-07	-2.328844e-06	-1.237359e-09	-1.766660e+01	-7.588688e+01
5.800000e-07	-2.318509e-06	-1.211288e-09	-1.758820e+01	-7.553876e+01
5.900000e-07	-2.307972e-06	-1.163502e-09	-1.750827e+01	-7.518586e+01
6.000000e-07	-2.297109e-06	-1.157620e-09	-1.742586e+01	-7.482873e+01
6.100000e-07	-2.285958e-06	-1.190147e-09	-1.734127e+01	-7.446786e+01
6.200000e-07	-2.274716e-06	-1.203355e-09	-1.725599e+01	-7.410373e+01
6.300000e-07	-2.263343e-06	-1.175215e-09	-1.716972e+01	-7.373675e+01
6.400000e-07	-2.251799e-06	-1.140352e-09	-1.708215e+01	-7.336728e+01
6.500000e-07	-2.240074e-06	-1.142689e-09	-1.699320e+01	-7.299563e+01
6.600000e-07	-2.228161e-06	-1.168975e-09	-1.690282e+01	-7.262204e+01
6.700000e-07	-2.216119e-06	-1.172976e-09	-1.681148e+01	-7.224670e+01
6.800000e-07	-2.203875e-06	-1.140508e-09	-1.671859e+01	-7.186974e+01
6.900000e-07	-2.191427e-06	-1.111856e-09	-1.662416e+01	-7.149124e+01
7.000000e-07	-2.178864e-06	-1.115507e-09	-1.652886e+01	-7.111122e+01
7.100000e-07	-2.166175e-06	-1.133934e-09	-1.643260e+01	-7.072969e+01
7.200000e-07	-2.153342e-06	-1.131305e-09	-1.633525e+01	-7.034659e+01
7.300000e-07	-2.140343e-06	-1.105984e-09	-1.623664e+01	-6.996185e+01
7.400000e-07	-2.127087e-06	-1.085669e-09	-1.613608e+01	-6.957538e+01
7.500000e-07	-2.113663e-06	-1.092230e-09	-1.603424e+01	-6.918707e+01
7.600000e-07	-2.100134e-06	-1.110544e-09	-1.593162e+01	-6.879681e+01
7.700000e-07	-2.086451e-06	-1.107307e-09	-1.582781e+01	-6.840448e+01
7.800000e-07	-2.072603e-06	-1.079491e-09	-1.572277e+01	-6.800998e+01
7.900000e-07	-2.058515e-06	-1.059761e-09	-1.561589e+01	-6.761322e+01
8.000000e-07	-2.044241e-06	-1.069271e-09	-1.550761e+01	-6.721410e+01
8.100000e-07	-2.029925e-06	-1.082012e-09	-1.539901e+01	-6.681257e+01
8.200000e-07	-2.015494e-06	-1.064635e-09	-1.528954e+01	-6.640858e+01
8.300000e-07	-2.000871e-06	-1.031055e-09	-1.517860e+01	-6.600211e+01
8.400000e-07	-1.986036e-06	-1.020757e-09	-1.506607e+01	-6.559315e+01
8.500000e-07	-1.970862e-06	-1.037107e-09	-1.495096e+01	-6.518170e+01
8.600000e-07	-1.955512e-06	-1.044978e-09	-1.483451e+01	-6.476779e+01
8.700000e-07	-1.940027e-06	-1.023986e-09	-1.471704e+01	-6.435146e+01
8.800000e-07	-1.924317e-06	-9.991930e-10	-1.459787e+01	-6.393275e+01
8.900000e-07	-1.908454e-06	-9.968983e-10	-1.447753e+01	-6.351170e+01
9.000000e-07	-1.892456e-06	-1.006212e-09	-1.435617e+01	-6.308836e+01
9.100000e-07	-1.876301e-06	-9.984984e-10	-1.423361e+01	-6.266274e+01
9.200000e-07	-1.860019e-06	-9.759127e-10	-1.411010e+01	-6.223489e+01
9.300000e-07	-1.843503e-06	-9.600248e-10	-1.398481e+01	-6.180479e+01
9.400000e-07	-1.826744e-06	-9.595723e-10	-1.385768e+01	-6.137243e+01
9.500000e-07	-1.809894e-06	-9.618502e-10	-1.372986e+01	-6.093777e+01
9.600000e-07	-1.792961e-06	-9.556966e-10	-1.360140e+01	-6.050074e+01
9.700000e-07	-1.775911e-06	-9.432792e-10	-1.347206e+01	-6.006124e+01
9.800000e-07	-1.758704e-06	-9.313136e-10	-1.334153e+01	-5.961914e+01
9.900000e-07	-1.741391e-06	-9.258183e-10	-1.321019e+01	-5.917430e+01
1.000000e-06	-1.724047e-06	-9.242657e-10	-1.307862e+01	-5.872652e+01
1.010000e-06	-1.706649e-06	-9.158724e-10	-1.294664e+01	-5.827560e+01
1.020000e-06	-1.689097e-06	-9.002605e-10	-1.281349e+01	-5.782130e+01
1.030000e-06	-1.671440e-06	-8.865919e-10	-1.267954e+01	-5.736339e+01
1.040000e-06	-1.653740e-06	-8.823982e-10	-1.254527e+01	-5.690160e+01
1.050000e-06	-1.635960e-06	-8.839013e-10	-1.241039e+01	-5.643565e+01
1.060000e-06	-1.618060e-06	-8.790364e-10	-1.227460e+01	-5.596528e+01
1.070000e-06	-1.600066e-06	-8.664957e-10	-1.213810e+01	-5.549021e+01
1.080000e-06	-1.582019e-06	-8.570525e-10	-1.200119e+01	-5.501018e+01
1.090000e-06	-1.563858e-06	-8.567103e-10	-1.186343e+01	-5.452494e+01
1.100000e-06	-1.545483e-06	-8.559589e-10	-1.172403e+01	-5.403426e+01
1.110000e-06	-1.527008e-06	-8.436147e-10	-1.158388e+01	-5.353793e+01
1.120000e-06	-1.508498e-06	-8.223190e-10	-1.144346e+01	-5.303578e+01
1.130000e-06	-1.489893e-06	-8.065339e-10	-1.130233e+01	-5.252765e+01
1.140000e-06	-1.471163e-06	-8.044727e-10	-1.116024e+01	-5.201343e+01
1.150000e-06	-1.452189e-06	-8.019017e-10	-1.101631e+01	-5.149304e+01
1.160000e-06	-1.433020e-06	-7.879516e-10	-1.087089e+01	-5.096642e+01
1.170000e-06	-1.413779e-06	-7.724338e-10	-1.072493e+01	-5.043357e+01
1.180000e-06	-1.394470e-06	-7.673126e-10	-1.057844e+01	-4.989451e+01
1.190000e-06	-1.375056e-06	-7.694355e-10	-1.043118e+01	-4.934929e+01
1.200000e-06	-1.355548e-06	-7.636843e-10	-1.028318e+01	-4.879799e+01
1.210000e-06	-1.335998e-06	-7.480637e-10	-1.013488e+01	-4.824073e+01
1.220000e-06	-1.316406e-06	-7.334567e-10	-9.986258e+00	-4.767762e+01
1.230000e-06	-1.296705e-06	-7.263181e-10	-9.836804e+00	-4.710882e+01
1.240000e-06	-1.276898e-06	-7.225126e-10	-9.686550e+00	-4.653450e+01
1.250000e-06	-1.257027e-06	-7.139364e-10	-9.535803e+00	-4.595481e+01
1.260000e-06	-1.237076e-06	-7.011432e-10	-9.384461e+00	-4.536993e+01
1.270000e-06	-1.217109e-06	-6.923434e-10	-9.232985e+00	-4.478004e+01
1.280000e-06	-1.197142e-06	-6.877514e-10	-9.081521e+00	-4.418531e+01
1.290000e-06	-1.177153e-06	-6.793257e-10	-8.929883e+00	-4.358590e+01
1.300000e-06	-1.157138e-06	-6.680319e-10	-8.778045e+00	-4.298198e+01
1.310000e-06	-1.137108e-06	-6.564074e-10	-8.626099e+00	-4.237368e+01
1.320000e-06	-1.117055e-06	-6.439731e-10	-8.473980e+00	-4.176115e+01
1.330000e-06	-1.096950e-06	-6.345135e-10	-8.321462e+00	-4.114451e+01
1.340000e-06	-1.076774e-06	-6.277237e-10	-8.168408e+00	-4.052387e+01
1.350000e-06	-1.056584e-06	-6.165848e-10	-8.015248e+00	-3.989932e+01
1.360000e-06	-1.036378e-06	-6.013255e-10	-7.861959e+00	-3.927097e+01
1.370000e-06	-1.016078e-06	-5.897151e-10	-7.707964e+00	-3.863889e+01
1.380000e-06	-9.957545e-07	-5.848181e-10	-7.553793e+00	-3.800317e+01
1.390000e-06	-9.753657e-07	-5.808869e-10	-7.399123e+00	-3.736387e+01
1.400000e-06	-9.548491e-07	-5.693588e-10	-7.243484e+00	-3.672108e+01
1.410000e-06	-9.343075e-07	-5.529204e-10	-7.087656e+00	-3.607487e+01
1.420000e-06	-9.136955e-07	-5.399448e-10	-6.931293e+00	-3.542532e+01
1.430000e-06	-8.929290e-07	-5.316580e-10	-6.773759e+00	-3.477254e+01
1.440000e-06	-8.721156e-07	-5.222742e-10	-6.615868e+00	-3.411662e+01
1.450000e-06	-8.512850e-07	-5.089884e-10	-6.457847e+00	-3.345767e+01
1.460000e-06	-8.304399e-07	-4.973986e-10	-6.299716e+00	-3.279582e+01
1.470000e-06	-8.096019e-07	-4.928724e-10	-6.141639e+00	-3.213121e+01
1.480000e-06	-7.886697e-07	-4.906336e-10	-5.982847e+00	-3.146398e+01
1.490000e-06	-7.675659e-07	-4.831472e-10	-5.822754e+00	-3.079430e+01
1.500000e-06	-7.463542e-07	-4.695595e-10	-5.661842e+00	-3.012233e+01
1.510000e-06	-7.251137e-07	-4.585154e-10	-5.500712e+00	-2.944824e+01
1.520000e-06	-7.038761e-07	-4.512693e-10	-5.339604e+00	-2.877221e+01
1.530000e-06	-6.825967e-07	-4.396403e-10	-5.178178e+00	-2.809442e+01
1.540000e-06	-6.611984e-07	-4.265491e-10	-5.015851e+00	-2.741503e+01
1.550000e-06	-6.397089e-07	-4.179586e-10	-4.852831e+00	-2.673422e+01
1.560000e-06	-6.181661e-07	-4.121818e-10	-4.689408e+00	-2.605212e+01
1.570000e-06	-5.966412e-07	-4.045737e-10	-4.526119e+00	-2.536887e+01
1.580000e-06	-5.750833e-07	-3.968061e-10	-4.362582e+00	-2.468458e+01
1.590000e-06	-5.534654e-07	-3.900057e-10	-4.198588e+00	-2.399934e+01
1.600000e-06	-5.317637e-07	-3.809963e-10	-4.033959e+00	-2.331322e+01
1.610000e-06	-5.099496e-07	-3.683854e-10	-3.868477e+00	-2.262623e+01
1.620000e-06	-4.881381e-07	-3.543139e-10	-3.703015e+00	-2.193839e+01
1.630000e-06	-4.663123e-07	-3.396627e-10	-3.537445e+00	-2.124966e+01
1.640000e-06	-4.444420e-07	-3.254761e-10	-3.371536e+00	-2.055998e+01
1.650000e-06	-4.225568e-07	-3.121169e-10	-3.205516e+00	-1.986927e+01
1.660000e-06	-4.007063e-07	-2.992583e-10	-3.039758e+00	-1.917742e+01
1.670000e-06	-3.789275e-07	-2.902055e-10	-2.874543e+00	-1.848428e+01
1.680000e-06	-3.570962e-07	-2.837593e-10	-2.708932e+00	-1.778970e+01
1.690000e-06	-3.351583e-07	-2.752799e-10	-2.542510e+00	-1.709351e+01
1.700000e-06	-3.131824e-07	-2.623093e-10	-2.375801e+00	-1.639554e+01
1.710000e-06	-2.911610e-07	-2.500566e-10	-2.208747e+00	-1.569561e+01
1.720000e-06	-2.691607e-07	-2.410923e-10	-2.041853e+00	-1.499354e+01
1.730000e-06	-2.471706e-07	-2.300933e-10	-1.875036e+00	-1.428917e+01
1.740000e-06	-2.251535e-07	-2.161943e-10	-1.708014e+00	-1.358234e+01
1.750000e-06	-2.031816e-07	-2.036419e-10	-1.541335e+00	-1.287295e+01
1.760000e-06	-1.812308e-07	-1.950299e-10	-1.374817e+00	-1.216090e+01
1.770000e-06	-1.592565e-07	-1.880724e-10	-1.208120e+00	-1.144611e+01
1.780000e-06	-1.372705e-07	-1.796154e-10	-1.041334e+00	-1.072857e+01
1.790000e-06	-1.152781e-07	-1.695136e-10	-8.744995e-01	-1.000829e+01
1.800000e-06	-9.326575e-08	-1.593070e-10	-7.075139e-01	-9.285336e+00
1.810000e-06	-7.119677e-08	-1.497276e-10	-5.400986e-01	-8.559794e+00
1.820000e-06	-4.911770e-08	-1.382965e-10	-3.726068e-01	-7.831808e+00
1.830000e-06	-2.708112e-08	-1.243499e-10	-2.054373e-01	-7.101557e+00
1.840000e-06	-5.071177e-09	-1.106299e-10	-3.846994e-02	-6.369254e+00
1.850000e-06	1.692802e-08	-9.728850e-11	1.284159e-01	-5.635144e+00
1.860000e-06	3.893688e-08	-8.470487e-11	2.953751e-01	-4.899497e+00
1.870000e-06	6.094753e-08	-7.414698e-11	4.623479e-01	-4.162603e+00
1.880000e-06	8.301768e-08	-6.436865e-11	6.297720e-01	-3.424760e+00
1.890000e-06	1.050945e-07	-5.522371e-11	7.972467e-01	-2.686274e+00
1.900000e-06	1.271036e-07	-4.572274e-11	9.642080e-01	-1.947444e+00
1.910000e-06	1.491194e-07	-3.432990e-11	1.131220e+00	-1.208556e+00
1.920000e-06	1.711499e-07	-2.284695e-11	1.298343e+00	-4.698755e-01
1.930000e-06	1.931632e-07	-1.151051e-11	1.465336e+00	2.683600e-01
1.940000e-06	2.151596e-07	1.381452e-12	1.632200e+00	1.005949e+00
1.950000e-06	2.371351e-07	1.434395e-11	1.798907e+00	1.742731e+00
1.960000e-06	2.590988e-07	2.441543e-11	1.965524e+00	2.478592e+00
1.970000e-06	2.810468e-07	3.294110e-11	2.132021e+00	3.213469e+00
1.980000e-06	3.029104e-07	4.234931e-11	2.297878e+00	3.947348e+00
1.990000e-06	3.247307e-07	5.062766e-11	2.463407e+00	4.680272e+00
2.000000e-06	3.465879e-07	5.541117e-11	2.629216e+00	5.412332e+00
2.010000e-06	3.684724e-07	6.035800e-11	2.795232e+00	6.143672e+00
2.020000e-06	3.903022e-07	7.185166e-11	2.960832e+00	6.874478e+00
2.030000e-06	4.120753e-07	8.786126e-11	3.126002e+00	7.604977e+00
2.040000e-06	4.338619e-07	1.006584e-10	3.291276e+00	8.335429e+00
2.050000e-06	4.556384e-07	1.087662e-10	3.456473e+00	9.066119e+00
2.060000e-06	4.773631e-07	1.181787e-10	3.621276e+00	9.797347e+00
2.070000e-06	4.990238e-07	1.327109e-10	3.785594e+00	1.052942e+01
2.080000e-06	5.207034e-07	1.472417e-10	3.950055e+00	1.126264e+01
2.090000e-06	5.423948e-07	1.576413e-10	4.114607e+00	1.199729e+01
2.100000e-06	5.640391e-07	1.655672e-10	4.278800e+00	1.273365e+01
2.110000e-06	5.856586e-07	1.722833e-10	4.442805e+00	1.347192e+01
2.120000e-06	6.071902e-07	1.810082e-10	4.606144e+00	1.421232e+01
2.130000e-06	6.286460e-07	1.937461e-10	4.768908e+00	1.495496e+01
2.140000e-06	6.501012e-07	2.066389e-10	4.931667e+00	1.569992e+01
2.150000e-06	6.715164e-07	2.184976e-10	5.094122e+00	1.644722e+01
2.160000e-06	6.928974e-07	2.310337e-10	5.256319e+00	1.719681e+01
2.170000e-06	7.142411e-07	2.423485e-10	5.418232e+00	1.794856e+01
2.180000e-06	7.355213e-07	2.524224e-10	5.579664e+00	1.870228e+01
2.190000e-06	7.567126e-07	2.641454e-10	5.740421e+00	1.945772e+01
2.200000e-06	7.778103e-07	2.769667e-10	5.900468e+00	2.021455e+01
2.210000e-06	7.987858e-07	2.877438e-10	6.059588e+00	2.097240e+01
2.220000e-06	8.196575e-07	2.978164e-10	6.217921e+00	2.173084e+01
2.230000e-06	8.405278e-07	3.111749e-10	6.376243e+00	2.248940e+01
2.240000e-06	8.613504e-07	3.247626e-10	6.534203e+00	2.324757e+01
2.250000e-06	8.821115e-07	3.348298e-10	6.691697e+00	2.400483e+01
2.260000e-06	9.027599e-07	3.463429e-10	6.848335e+00	2.476066e+01
2.270000e-06	9.232571e-07	3.613278e-10	7.003827e+00	2.551452e+01
2.280000e-06	9.436854e-07	3.735925e-10	7.158797e+00	2.626589e+01
2.290000e-06	9.641223e-07	3.807276e-10	7.313830e+00	2.701429e+01
2.300000e-06	9.845339e-07	3.888217e-10	7.468673e+00	2.775926e+01
2.310000e-06	1.004917e-06	4.029466e-10	7.623300e+00	2.850040e+01
2.320000e-06	1.025268e-06	4.185829e-10	7.777680e+00	2.923735e+01
2.330000e-06	1.045500e-06	4.299503e-10	7.931161e+00	2.996984e+01
2.340000e-06	1.065670e-06	4.383675e-10	8.084170e+00	3.069765e+01
2.350000e-06	1.085799e-06	4.482550e-10	8.236867e+00	3.142063e+01
2.360000e-06	1.105873e-06	4.607834e-10	8.389149e+00	3.213873e+01
2.370000e-06	1.125946e-06	4.744400e-10	8.541423e+00	3.285196e+01
2.380000e-06	1.145987e-06	4.876287e-10	8.693458e+00	3.356040e+01
2.390000e-06	1.165996e-06	4.989494e-10	8.845243e+00	3.426421e+01
2.400000e-06	1.186005e-06	5.092666e-10	8.997030e+00	3.496362e+01
2.410000e-06	1.205969e-06	5.191914e-10	9.148478e+00	3.565890e+01
2.420000e-06	1.225898e-06	5.298804e-10	9.299664e+00	3.635039e+01
2.430000e-06	1.245786e-06	5.417067e-10	9.450534e+00	3.703846e+01
2.440000e-06	1.265620e-06	5.523876e-10	9.600988e+00	3.772351e+01
2.450000e-06	1.285367e-06	5.623255e-10	9.750795e+00	3.840594e+01
2.460000e-06	1.304988e-06	5.721023e-10	9.899635e+00	3.908619e+01
2.470000e-06	1.324583e-06	5.823176e-10	1.004829e+01	3.976465e+01
2.480000e-06	1.344172e-06	5.929433e-10	1.019689e+01	4.044172e+01
2.490000e-06	1.363680e-06	6.028709e-10	1.034488e+01	4.111776e+01
2.500000e-06	1.383025e-06	6.134122e-10	1.049163e+01	4.179308e+01
2.510000e-06	1.402232e-06	6.259261e-10	1.063733e+01	4.246796e+01
2.520000e-06	1.421338e-06	6.384636e-10	1.078227e+01	4.314259e+01
2.530000e-06	1.440306e-06	6.495131e-10	1.092616e+01	4.381713e+01
2.540000e-06	1.459233e-06	6.591602e-10	1.106974e+01	4.449165e+01
2.550000e-06	1.478051e-06	6.688217e-10	1.121249e+01	4.516614e+01
2.560000e-06	1.496690e-06	6.806361e-10	1.135389e+01	4.584055e+01
2.570000e-06	1.515234e-06	6.938404e-10	1.149456e+01	4.651473e+01
2.580000e-06	1.533687e-06	7.043766e-10	1.163455e+01	4.718847e+01
2.590000e-06	1.551987e-06	7.123570e-10	1.177337e+01	4.786150e+01
2.600000e-06	1.570102e-06	7.207540e-10	1.191079e+01	4.853348e+01
2.610000e-06	1.588100e-06	7.312000e-10	1.204733e+01	4.920405e+01
2.620000e-06	1.605972e-06	7.423141e-10	1.218290e+01	4.987277e+01
2.630000e-06	1.623757e-06	7.531338e-10	1.231782e+01	5.053920e+01
2.640000e-06	1.641528e-06	7.658261e-10	1.245263e+01	5.120286e+01
2.650000e-06	1.659190e-06	7.803780e-10	1.258661e+01	5.186327e+01
2.660000e-06	1.676785e-06	7.943734e-10	1.272009e+01	5.251995e+01
2.670000e-06	1.694247e-06	8.036443e-10	1.285256e+01	5.317242e+01
2.680000e-06	1.711606e-06	8.114732e-10	1.298424e+01	5.382022e+01
2.690000e-06	1.728961e-06	8.211053e-10	1.311589e+01	5.446292e+01
2.700000e-06	1.746204e-06	8.306095e-10	1.324670e+01	5.510014e+01
2.710000e-06	1.763236e-06	8.396028e-10	1.337590e+01	5.573153e+01
2.720000e-06	1.780114e-06	8.495520e-10	1.350395e+01	5.635677e+01
2.730000e-06	1.796980e-06	8.607820e-10	1.363189e+01	5.697562e+01
2.740000e-06	1.813759e-06	8.711701e-10	1.375918e+01	5.758787e+01
2.750000e-06	1.830419e-06	8.811402e-10	1.388556e+01	5.819338e+01
2.760000e-06	1.846912e-06	8.905207e-10	1.401068e+01	5.879205e+01
2.770000e-06	1.863139e-06	8.998347e-10	1.413377e+01	5.938384e+01
2.780000e-06	1.879177e-06	9.086076e-10	1.425543e+01	5.996874e+01
2.790000e-06	1.895081e-06	9.163902e-10	1.437608e+01	6.054679e+01
2.800000e-06	1.910916e-06	9.243676e-10	1.449620e+01	6.111809e+01
2.810000e-06	1.926570e-06	9.337569e-10	1.461496e+01	6.168272e+01
2.820000e-06	1.941975e-06	9.455773e-10	1.473182e+01	6.224082e+01
2.830000e-06	1.957325e-06	9.574671e-10	1.484827e+01	6.279254e+01
2.840000e-06	1.972439e-06	9.689442e-10	1.496292e+01	6.333802e+01
2.850000e-06	1.987168e-06	9.803321e-10	1.507465e+01	6.387744e+01
2.860000e-06	2.001737e-06	9.909831e-10	1.518517e+01	6.441092e+01
2.870000e-06	2.016233e-06	1.000309e-09	1.529514e+01	6.493862e+01
2.880000e-06	2.030576e-06	1.006872e-09	1.540395e+01	6.546065e+01
2.890000e-06	2.044745e-06	1.012865e-09	1.551144e+01	6.597713e+01
2.900000e-06	2.058812e-06	1.020114e-09	1.561815e+01	6.648813e+01
