# Temperatura_=_20.0
# Concentracion g/m^3_=_12600.0
# C_Vs_to_Am_M_A/Vsm_=_65563218390.804596
# pendiente_HvsI_1/m_=_3716.3
# ordenada_HvsI_A/m_=_1297.0
# frecuencia_Hz_=_134916.4217865872

Tiempo_(s)	Campo_(V.s)	Magnetizacion_(V.s)	Campo_(kA/m)	Magnetizacion_(A/m)
0.000000e+00	-2.607016e-06	-1.329062e-09	-1.982900e+01	-8.649122e+01
1.000000e-08	-2.607198e-06	-1.349289e-09	-1.983039e+01	-8.648132e+01
2.000000e-08	-2.607346e-06	-1.372985e-09	-1.983151e+01	-8.646276e+01
3.000000e-08	-2.607394e-06	-1.372952e-09	-1.983187e+01	-8.643516e+01
4.000000e-08	-2.607276e-06	-1.340779e-09	-1.983098e+01	-8.639817e+01
5.000000e-08	-2.607008e-06	-1.298759e-09	-1.982894e+01	-8.635152e+01
6.000000e-08	-2.606610e-06	-1.248882e-09	-1.982591e+01	-8.629502e+01
7.000000e-08	-2.606103e-06	-1.191047e-09	-1.982205e+01	-8.622858e+01
8.000000e-08	-2.605452e-06	-1.213298e-09	-1.981710e+01	-8.615219e+01
9.000000e-08	-2.604605e-06	-1.354171e-09	-1.981066e+01	-8.606597e+01
1.000000e-07	-2.603550e-06	-1.415222e-09	-1.980264e+01	-8.597014e+01
1.100000e-07	-2.602344e-06	-1.476723e-09	-1.979346e+01	-8.586502e+01
1.200000e-07	-2.600804e-06	-1.365894e-09	-1.978175e+01	-8.575105e+01
1.300000e-07	-2.598919e-06	-1.271643e-09	-1.976741e+01	-8.562875e+01
1.400000e-07	-2.596703e-06	-1.255144e-09	-1.975056e+01	-8.549875e+01
1.500000e-07	-2.594043e-06	-1.353651e-09	-1.973032e+01	-8.536173e+01
1.600000e-07	-2.591117e-06	-1.342496e-09	-1.970807e+01	-8.521845e+01
1.700000e-07	-2.587930e-06	-1.264812e-09	-1.968383e+01	-8.506969e+01
1.800000e-07	-2.584441e-06	-1.258498e-09	-1.965729e+01	-8.491628e+01
1.900000e-07	-2.580743e-06	-1.300366e-09	-1.962917e+01	-8.475904e+01
2.000000e-07	-2.576924e-06	-1.358401e-09	-1.960011e+01	-8.459877e+01
2.100000e-07	-2.573017e-06	-1.239662e-09	-1.957040e+01	-8.443626e+01
2.200000e-07	-2.569040e-06	-1.192077e-09	-1.954015e+01	-8.427221e+01
2.300000e-07	-2.565007e-06	-1.226534e-09	-1.950948e+01	-8.410727e+01
2.400000e-07	-2.560882e-06	-1.374386e-09	-1.947811e+01	-8.394200e+01
2.500000e-07	-2.556665e-06	-1.324691e-09	-1.944603e+01	-8.377686e+01
2.600000e-07	-2.552320e-06	-1.223578e-09	-1.941298e+01	-8.361218e+01
2.700000e-07	-2.547792e-06	-1.168410e-09	-1.937854e+01	-8.344818e+01
2.800000e-07	-2.543067e-06	-1.304731e-09	-1.934260e+01	-8.328496e+01
2.900000e-07	-2.538173e-06	-1.384355e-09	-1.930538e+01	-8.312245e+01
3.000000e-07	-2.533170e-06	-1.284479e-09	-1.926732e+01	-8.296050e+01
3.100000e-07	-2.527911e-06	-1.146849e-09	-1.922732e+01	-8.279879e+01
3.200000e-07	-2.522368e-06	-1.197352e-09	-1.918516e+01	-8.263692e+01
3.300000e-07	-2.516656e-06	-1.364974e-09	-1.914172e+01	-8.247434e+01
3.400000e-07	-2.510785e-06	-1.355459e-09	-1.909707e+01	-8.231045e+01
3.500000e-07	-2.504733e-06	-1.186209e-09	-1.905104e+01	-8.214453e+01
3.600000e-07	-2.498453e-06	-1.107509e-09	-1.900327e+01	-8.197581e+01
3.700000e-07	-2.492019e-06	-1.264955e-09	-1.895433e+01	-8.180350e+01
3.800000e-07	-2.485479e-06	-1.371444e-09	-1.890459e+01	-8.162675e+01
3.900000e-07	-2.478733e-06	-1.266711e-09	-1.885327e+01	-8.144473e+01
4.000000e-07	-2.471782e-06	-1.106306e-09	-1.880040e+01	-8.125661e+01
4.100000e-07	-2.464681e-06	-1.161044e-09	-1.874640e+01	-8.106160e+01
4.200000e-07	-2.457384e-06	-1.302520e-09	-1.869089e+01	-8.085898e+01
4.300000e-07	-2.449908e-06	-1.306714e-09	-1.863403e+01	-8.064807e+01
4.400000e-07	-2.442302e-06	-1.168510e-09	-1.857618e+01	-8.042830e+01
4.500000e-07	-2.434568e-06	-1.127183e-09	-1.851735e+01	-8.019916e+01
4.600000e-07	-2.426720e-06	-1.218290e-09	-1.845767e+01	-7.996029e+01
4.700000e-07	-2.418746e-06	-1.286051e-09	-1.839702e+01	-7.971140e+01
4.800000e-07	-2.410641e-06	-1.223593e-09	-1.833537e+01	-7.945233e+01
4.900000e-07	-2.402406e-06	-1.145641e-09	-1.827273e+01	-7.918304e+01
5.000000e-07	-2.394140e-06	-1.157130e-09	-1.820986e+01	-7.890358e+01
5.100000e-07	-2.385794e-06	-1.226847e-09	-1.814638e+01	-7.861414e+01
5.200000e-07	-2.377279e-06	-1.236624e-09	-1.808161e+01	-7.831497e+01
5.300000e-07	-2.368613e-06	-1.177085e-09	-1.801570e+01	-7.800643e+01
5.400000e-07	-2.359680e-06	-1.129384e-09	-1.794776e+01	-7.768894e+01
5.500000e-07	-2.350528e-06	-1.160242e-09	-1.787815e+01	-7.736301e+01
5.600000e-07	-2.341080e-06	-1.215901e-09	-1.780628e+01	-7.702917e+01
5.700000e-07	-2.331379e-06	-1.205286e-09	-1.773250e+01	-7.668799e+01
5.800000e-07	-2.321509e-06	-1.135871e-09	-1.765743e+01	-7.634006e+01
5.900000e-07	-2.311344e-06	-1.115675e-09	-1.758011e+01	-7.598598e+01
6.000000e-07	-2.300772e-06	-1.168527e-09	-1.749970e+01	-7.562633e+01
6.100000e-07	-2.289796e-06	-1.193539e-09	-1.741622e+01	-7.526167e+01
6.200000e-07	-2.278634e-06	-1.143114e-09	-1.733132e+01	-7.489253e+01
6.300000e-07	-2.267319e-06	-1.099063e-09	-1.724526e+01	-7.451939e+01
6.400000e-07	-2.255804e-06	-1.122170e-09	-1.715767e+01	-7.414268e+01
6.500000e-07	-2.244116e-06	-1.155427e-09	-1.706878e+01	-7.376279e+01
6.600000e-07	-2.232311e-06	-1.138718e-09	-1.697899e+01	-7.338004e+01
6.700000e-07	-2.220412e-06	-1.096200e-09	-1.688848e+01	-7.299469e+01
6.800000e-07	-2.208345e-06	-1.085365e-09	-1.679670e+01	-7.260694e+01
6.900000e-07	-2.196148e-06	-1.103618e-09	-1.670393e+01	-7.221696e+01
7.000000e-07	-2.183844e-06	-1.119085e-09	-1.661034e+01	-7.182485e+01
7.100000e-07	-2.171316e-06	-1.099983e-09	-1.651506e+01	-7.143068e+01
7.200000e-07	-2.158567e-06	-1.067453e-09	-1.641809e+01	-7.103448e+01
7.300000e-07	-2.145739e-06	-1.060947e-09	-1.632052e+01	-7.063628e+01
7.400000e-07	-2.132788e-06	-1.087889e-09	-1.622202e+01	-7.023606e+01
7.500000e-07	-2.119589e-06	-1.091213e-09	-1.612162e+01	-6.983383e+01
7.600000e-07	-2.106213e-06	-1.056672e-09	-1.601988e+01	-6.942958e+01
7.700000e-07	-2.092742e-06	-1.030949e-09	-1.591742e+01	-6.902334e+01
7.800000e-07	-2.079113e-06	-1.051197e-09	-1.581376e+01	-6.861514e+01
7.900000e-07	-2.065245e-06	-1.068384e-09	-1.570828e+01	-6.820503e+01
8.000000e-07	-2.051196e-06	-1.045857e-09	-1.560143e+01	-6.779311e+01
8.100000e-07	-2.037031e-06	-1.012846e-09	-1.549368e+01	-6.737951e+01
8.200000e-07	-2.022691e-06	-1.015429e-09	-1.538462e+01	-6.696437e+01
8.300000e-07	-2.008215e-06	-1.034289e-09	-1.527451e+01	-6.654790e+01
8.400000e-07	-1.993618e-06	-1.027716e-09	-1.516348e+01	-6.613029e+01
8.500000e-07	-1.978755e-06	-9.978275e-10	-1.505044e+01	-6.571180e+01
8.600000e-07	-1.963738e-06	-9.859164e-10	-1.493622e+01	-6.529268e+01
8.700000e-07	-1.948618e-06	-1.000182e-09	-1.482121e+01	-6.487319e+01
8.800000e-07	-1.933324e-06	-1.006748e-09	-1.470488e+01	-6.445359e+01
8.900000e-07	-1.917695e-06	-9.860551e-10	-1.458601e+01	-6.403412e+01
9.000000e-07	-1.901812e-06	-9.635769e-10	-1.446521e+01	-6.361501e+01
9.100000e-07	-1.885771e-06	-9.646667e-10	-1.434320e+01	-6.319645e+01
9.200000e-07	-1.869432e-06	-9.733661e-10	-1.421893e+01	-6.277858e+01
9.300000e-07	-1.852881e-06	-9.654582e-10	-1.409304e+01	-6.236149e+01
9.400000e-07	-1.836179e-06	-9.440205e-10	-1.396600e+01	-6.194520e+01
9.500000e-07	-1.819391e-06	-9.345163e-10	-1.383831e+01	-6.152966e+01
9.600000e-07	-1.802564e-06	-9.424647e-10	-1.371032e+01	-6.111476e+01
9.700000e-07	-1.785661e-06	-9.454220e-10	-1.358176e+01	-6.070028e+01
9.800000e-07	-1.768591e-06	-9.275766e-10	-1.345192e+01	-6.028595e+01
9.900000e-07	-1.751354e-06	-9.084092e-10	-1.332082e+01	-5.987139e+01
1.000000e-06	-1.734090e-06	-9.051396e-10	-1.318951e+01	-5.945615e+01
1.010000e-06	-1.716749e-06	-9.102746e-10	-1.305762e+01	-5.903974e+01
1.020000e-06	-1.699266e-06	-9.041547e-10	-1.292464e+01	-5.862155e+01
1.030000e-06	-1.681693e-06	-8.893811e-10	-1.279098e+01	-5.820097e+01
1.040000e-06	-1.664136e-06	-8.811324e-10	-1.265744e+01	-5.777731e+01
1.050000e-06	-1.646506e-06	-8.832303e-10	-1.252335e+01	-5.734987e+01
1.060000e-06	-1.628719e-06	-8.832079e-10	-1.238806e+01	-5.691794e+01
1.070000e-06	-1.610876e-06	-8.751835e-10	-1.225234e+01	-5.648079e+01
1.080000e-06	-1.592993e-06	-8.626714e-10	-1.211632e+01	-5.603772e+01
1.090000e-06	-1.575010e-06	-8.569415e-10	-1.197955e+01	-5.558806e+01
1.100000e-06	-1.556863e-06	-8.550505e-10	-1.184152e+01	-5.513120e+01
1.110000e-06	-1.538556e-06	-8.510551e-10	-1.170228e+01	-5.466657e+01
1.120000e-06	-1.520209e-06	-8.412674e-10	-1.156273e+01	-5.419367e+01
1.130000e-06	-1.501826e-06	-8.289495e-10	-1.142290e+01	-5.371211e+01
1.140000e-06	-1.483259e-06	-8.208427e-10	-1.128168e+01	-5.322158e+01
1.150000e-06	-1.464496e-06	-8.171851e-10	-1.113898e+01	-5.272186e+01
1.160000e-06	-1.445549e-06	-8.133239e-10	-1.099487e+01	-5.221284e+01
1.170000e-06	-1.426458e-06	-8.022182e-10	-1.084966e+01	-5.169451e+01
1.180000e-06	-1.407289e-06	-7.905336e-10	-1.070386e+01	-5.116697e+01
1.190000e-06	-1.388016e-06	-7.845690e-10	-1.055727e+01	-5.063042e+01
1.200000e-06	-1.368625e-06	-7.842912e-10	-1.040978e+01	-5.008513e+01
1.210000e-06	-1.349129e-06	-7.796909e-10	-1.026150e+01	-4.953147e+01
1.220000e-06	-1.329446e-06	-7.667145e-10	-1.011178e+01	-4.896988e+01
1.230000e-06	-1.309654e-06	-7.545142e-10	-9.961247e+00	-4.840086e+01
1.240000e-06	-1.289889e-06	-7.506981e-10	-9.810916e+00	-4.782493e+01
1.250000e-06	-1.270066e-06	-7.500123e-10	-9.660136e+00	-4.724266e+01
1.260000e-06	-1.250137e-06	-7.406479e-10	-9.508561e+00	-4.665463e+01
1.270000e-06	-1.230196e-06	-7.272350e-10	-9.356887e+00	-4.606142e+01
1.280000e-06	-1.210275e-06	-7.185958e-10	-9.205367e+00	-4.546356e+01
1.290000e-06	-1.190312e-06	-7.167456e-10	-9.053532e+00	-4.486160e+01
1.300000e-06	-1.170308e-06	-7.095721e-10	-8.901377e+00	-4.425598e+01
1.310000e-06	-1.150268e-06	-6.953335e-10	-8.748950e+00	-4.364714e+01
1.320000e-06	-1.130201e-06	-6.819829e-10	-8.596320e+00	-4.303542e+01
1.330000e-06	-1.110106e-06	-6.758795e-10	-8.443479e+00	-4.242108e+01
1.340000e-06	-1.089992e-06	-6.712044e-10	-8.290493e+00	-4.180431e+01
1.350000e-06	-1.069881e-06	-6.618493e-10	-8.137528e+00	-4.118524e+01
1.360000e-06	-1.049754e-06	-6.498233e-10	-7.984444e+00	-4.056387e+01
1.370000e-06	-1.029577e-06	-6.406758e-10	-7.830974e+00	-3.994016e+01
1.380000e-06	-1.009311e-06	-6.350182e-10	-7.676833e+00	-3.931399e+01
1.390000e-06	-9.890414e-07	-6.277163e-10	-7.522662e+00	-3.868517e+01
1.400000e-06	-9.687998e-07	-6.173064e-10	-7.368704e+00	-3.805344e+01
1.410000e-06	-9.484094e-07	-6.062361e-10	-7.213614e+00	-3.741853e+01
1.420000e-06	-9.278471e-07	-5.978962e-10	-7.057217e+00	-3.678012e+01
1.430000e-06	-9.072323e-07	-5.882643e-10	-6.900421e+00	-3.613786e+01
1.440000e-06	-8.866193e-07	-5.757918e-10	-6.743638e+00	-3.549142e+01
1.450000e-06	-8.660327e-07	-5.617299e-10	-6.587056e+00	-3.484048e+01
1.460000e-06	-8.453726e-07	-5.538704e-10	-6.429915e+00	-3.418473e+01
1.470000e-06	-8.245746e-07	-5.461713e-10	-6.271725e+00	-3.352392e+01
1.480000e-06	-8.036953e-07	-5.351778e-10	-6.112917e+00	-3.285784e+01
1.490000e-06	-7.827344e-07	-5.234537e-10	-5.953488e+00	-3.218633e+01
1.500000e-06	-7.616906e-07	-5.132025e-10	-5.793429e+00	-3.150931e+01
1.510000e-06	-7.406124e-07	-5.040333e-10	-5.633108e+00	-3.082678e+01
1.520000e-06	-7.194298e-07	-4.960509e-10	-5.471993e+00	-3.013881e+01
1.530000e-06	-6.981695e-07	-4.852575e-10	-5.310286e+00	-2.944555e+01
1.540000e-06	-6.769240e-07	-4.707260e-10	-5.148693e+00	-2.874723e+01
1.550000e-06	-6.556497e-07	-4.596065e-10	-4.986880e+00	-2.804416e+01
1.560000e-06	-6.343228e-07	-4.554693e-10	-4.824667e+00	-2.733671e+01
1.570000e-06	-6.128954e-07	-4.506584e-10	-4.661690e+00	-2.662531e+01
1.580000e-06	-5.913314e-07	-4.382836e-10	-4.497674e+00	-2.591044e+01
1.590000e-06	-5.696822e-07	-4.245506e-10	-4.333011e+00	-2.519262e+01
1.600000e-06	-5.480245e-07	-4.150128e-10	-4.168282e+00	-2.447240e+01
1.610000e-06	-5.263343e-07	-4.063541e-10	-4.003306e+00	-2.375033e+01
1.620000e-06	-5.045811e-07	-3.932471e-10	-3.837850e+00	-2.302697e+01
1.630000e-06	-4.828736e-07	-3.771427e-10	-3.672743e+00	-2.230286e+01
1.640000e-06	-4.611718e-07	-3.615911e-10	-3.507679e+00	-2.157849e+01
1.650000e-06	-4.393503e-07	-3.503544e-10	-3.341704e+00	-2.085435e+01
1.660000e-06	-4.174918e-07	-3.419977e-10	-3.175448e+00	-2.013085e+01
1.670000e-06	-3.955729e-07	-3.335757e-10	-3.008733e+00	-1.940834e+01
1.680000e-06	-3.736070e-07	-3.231014e-10	-2.841660e+00	-1.868709e+01
1.690000e-06	-3.517136e-07	-3.127918e-10	-2.675138e+00	-1.796733e+01
1.700000e-06	-3.298761e-07	-3.007982e-10	-2.509042e+00	-1.724918e+01
1.710000e-06	-3.080243e-07	-2.884988e-10	-2.342837e+00	-1.653270e+01
1.720000e-06	-2.861162e-07	-2.764862e-10	-2.176203e+00	-1.581786e+01
1.730000e-06	-2.641770e-07	-2.623634e-10	-2.009334e+00	-1.510456e+01
1.740000e-06	-2.421979e-07	-2.491398e-10	-1.842160e+00	-1.439263e+01
1.750000e-06	-2.201924e-07	-2.398879e-10	-1.674786e+00	-1.368187e+01
1.760000e-06	-1.981916e-07	-2.300519e-10	-1.507448e+00	-1.297199e+01
1.770000e-06	-1.762235e-07	-2.177754e-10	-1.340359e+00	-1.226269e+01
1.780000e-06	-1.542621e-07	-2.069510e-10	-1.173319e+00	-1.155362e+01
1.790000e-06	-1.322511e-07	-1.984618e-10	-1.005903e+00	-1.084444e+01
1.800000e-06	-1.102429e-07	-1.880133e-10	-8.385091e-01	-1.013480e+01
1.810000e-06	-8.826735e-08	-1.752376e-10	-6.713626e-01	-9.424347e+00
1.820000e-06	-6.627321e-08	-1.630347e-10	-5.040749e-01	-8.712767e+00
1.830000e-06	-4.423918e-08	-1.533505e-10	-3.364838e-01	-7.999770e+00
1.840000e-06	-2.221092e-08	-1.450796e-10	-1.689365e-01	-7.285111e+00
1.850000e-06	-1.980922e-10	-1.343288e-10	-1.506692e-03	-6.568590e+00
1.860000e-06	2.179792e-08	-1.204449e-10	1.657952e-01	-5.850066e+00
1.870000e-06	4.376364e-08	-1.062356e-10	3.328668e-01	-5.129454e+00
1.880000e-06	6.573421e-08	-9.462840e-11	4.999753e-01	-4.406729e+00
1.890000e-06	8.773140e-08	-8.351627e-11	6.672862e-01	-3.681923e+00
1.900000e-06	1.097605e-07	-7.049024e-11	8.348400e-01	-2.955127e+00
1.910000e-06	1.317457e-07	-5.728676e-11	1.002060e+00	-2.226480e+00
1.920000e-06	1.537048e-07	-4.577126e-11	1.169081e+00	-1.496168e+00
1.930000e-06	1.756919e-07	-3.617553e-11	1.336315e+00	-7.644107e-01
1.940000e-06	1.977047e-07	-2.666678e-11	1.503745e+00	-3.145611e-02
1.950000e-06	2.197217e-07	-1.397239e-11	1.671206e+00	7.024322e-01
1.960000e-06	2.416768e-07	-1.374636e-14	1.838197e+00	1.436985e+00
1.970000e-06	2.636209e-07	1.180604e-11	2.005104e+00	2.171940e+00
1.980000e-06	2.855890e-07	2.242515e-11	2.172194e+00	2.907048e+00
1.990000e-06	3.075287e-07	3.547570e-11	2.339067e+00	3.642092e+00
2.000000e-06	3.294161e-07	4.765166e-11	2.505543e+00	4.376885e+00
2.010000e-06	3.512193e-07	5.724398e-11	2.671379e+00	5.111288e+00
2.020000e-06	3.729894e-07	6.655102e-11	2.836962e+00	5.845209e+00
2.030000e-06	3.948024e-07	7.899898e-11	3.002872e+00	6.578612e+00
2.040000e-06	4.166323e-07	9.393684e-11	3.168910e+00	7.311516e+00
2.050000e-06	4.384019e-07	1.084303e-10	3.334490e+00	8.043997e+00
2.060000e-06	4.601282e-07	1.198098e-10	3.499741e+00	8.776185e+00
2.070000e-06	4.817821e-07	1.322872e-10	3.664441e+00	9.508261e+00
2.080000e-06	5.033613e-07	1.466104e-10	3.828573e+00	1.024045e+01
2.090000e-06	5.249415e-07	1.591970e-10	3.992712e+00	1.097301e+01
2.100000e-06	5.464961e-07	1.712954e-10	4.156656e+00	1.170622e+01
2.110000e-06	5.680369e-07	1.827860e-10	4.320496e+00	1.244039e+01
2.120000e-06	5.895552e-07	1.951043e-10	4.484165e+00	1.317582e+01
2.130000e-06	6.110327e-07	2.085198e-10	4.647522e+00	1.391280e+01
2.140000e-06	6.324423e-07	2.197090e-10	4.810364e+00	1.465161e+01
2.150000e-06	6.537957e-07	2.296922e-10	4.972779e+00	1.539248e+01
2.160000e-06	6.750646e-07	2.412517e-10	5.134550e+00	1.613560e+01
2.170000e-06	6.961904e-07	2.535429e-10	5.295233e+00	1.688110e+01
2.180000e-06	7.172885e-07	2.649883e-10	5.455706e+00	1.762905e+01
2.190000e-06	7.384086e-07	2.754899e-10	5.616346e+00	1.837945e+01
2.200000e-06	7.594039e-07	2.869469e-10	5.776036e+00	1.913221e+01
2.210000e-06	7.802749e-07	3.013607e-10	5.934781e+00	1.988715e+01
2.220000e-06	8.011515e-07	3.171031e-10	6.093569e+00	2.064404e+01
2.230000e-06	8.220256e-07	3.305525e-10	6.252338e+00	2.140254e+01
2.240000e-06	8.428555e-07	3.411260e-10	6.410770e+00	2.216224e+01
2.250000e-06	8.635627e-07	3.535825e-10	6.568269e+00	2.292268e+01
2.260000e-06	8.841609e-07	3.681166e-10	6.724940e+00	2.368330e+01
2.270000e-06	9.047330e-07	3.813129e-10	6.881411e+00	2.444355e+01
2.280000e-06	9.252287e-07	3.925026e-10	7.037302e+00	2.520278e+01
2.290000e-06	9.456593e-07	4.031533e-10	7.192697e+00	2.596036e+01
2.300000e-06	9.660497e-07	4.150288e-10	7.347786e+00	2.671565e+01
2.310000e-06	9.864196e-07	4.262865e-10	7.502720e+00	2.746800e+01
2.320000e-06	1.006757e-06	4.381786e-10	7.657408e+00	2.821680e+01
2.330000e-06	1.027032e-06	4.501058e-10	7.811622e+00	2.896147e+01
2.340000e-06	1.047261e-06	4.616459e-10	7.965483e+00	2.970150e+01
2.350000e-06	1.067408e-06	4.751092e-10	8.118718e+00	3.043643e+01
2.360000e-06	1.087482e-06	4.894588e-10	8.271405e+00	3.116589e+01
2.370000e-06	1.107565e-06	4.991781e-10	8.424151e+00	3.188960e+01
2.380000e-06	1.127665e-06	5.080588e-10	8.577038e+00	3.260736e+01
2.390000e-06	1.147738e-06	5.190513e-10	8.729713e+00	3.331909e+01
2.400000e-06	1.167773e-06	5.312937e-10	8.882093e+00	3.402480e+01
2.410000e-06	1.187763e-06	5.443797e-10	9.034143e+00	3.472460e+01
2.420000e-06	1.207731e-06	5.551410e-10	9.186021e+00	3.541871e+01
2.430000e-06	1.227683e-06	5.633531e-10	9.337769e+00	3.610742e+01
2.440000e-06	1.247554e-06	5.733460e-10	9.488914e+00	3.679112e+01
2.450000e-06	1.267359e-06	5.862804e-10	9.639552e+00	3.747026e+01
2.460000e-06	1.287087e-06	5.974820e-10	9.789598e+00	3.814534e+01
2.470000e-06	1.306716e-06	6.061748e-10	9.938895e+00	3.881693e+01
2.480000e-06	1.326286e-06	6.151582e-10	1.008775e+01	3.948560e+01
2.490000e-06	1.345775e-06	6.271186e-10	1.023598e+01	4.015194e+01
2.500000e-06	1.365150e-06	6.397270e-10	1.038335e+01	4.081652e+01
2.510000e-06	1.384368e-06	6.505565e-10	1.052952e+01	4.147992e+01
2.520000e-06	1.403604e-06	6.611519e-10	1.067583e+01	4.214263e+01
2.530000e-06	1.422869e-06	6.711803e-10	1.082236e+01	4.280514e+01
2.540000e-06	1.441922e-06	6.806390e-10	1.096728e+01	4.346782e+01
2.550000e-06	1.460737e-06	6.908473e-10	1.111038e+01	4.413101e+01
2.560000e-06	1.479395e-06	7.023152e-10	1.125230e+01	4.479492e+01
2.570000e-06	1.497884e-06	7.120917e-10	1.139293e+01	4.545970e+01
2.580000e-06	1.516200e-06	7.200892e-10	1.153224e+01	4.612538e+01
2.590000e-06	1.534413e-06	7.305402e-10	1.167077e+01	4.679189e+01
2.600000e-06	1.552551e-06	7.437388e-10	1.180873e+01	4.745909e+01
2.610000e-06	1.570653e-06	7.553285e-10	1.194640e+01	4.812671e+01
2.620000e-06	1.588652e-06	7.630364e-10	1.208331e+01	4.879442e+01
2.630000e-06	1.606473e-06	7.726639e-10	1.221886e+01	4.946179e+01
2.640000e-06	1.624185e-06	7.856646e-10	1.235357e+01	5.012836e+01
2.650000e-06	1.641869e-06	7.989799e-10	1.248808e+01	5.079358e+01
2.660000e-06	1.659477e-06	8.094814e-10	1.262200e+01	5.145687e+01
2.670000e-06	1.676968e-06	8.184726e-10	1.275504e+01	5.211763e+01
2.680000e-06	1.694399e-06	8.276016e-10	1.288762e+01	5.277526e+01
2.690000e-06	1.711762e-06	8.368723e-10	1.301968e+01	5.342915e+01
2.700000e-06	1.729003e-06	8.471254e-10	1.315082e+01	5.407870e+01
2.710000e-06	1.746067e-06	8.545195e-10	1.328061e+01	5.472336e+01
2.720000e-06	1.763039e-06	8.607585e-10	1.340970e+01	5.536262e+01
2.730000e-06	1.779922e-06	8.701127e-10	1.353811e+01	5.599602e+01
2.740000e-06	1.796750e-06	8.802271e-10	1.366610e+01	5.662317e+01
2.750000e-06	1.813496e-06	8.890757e-10	1.379347e+01	5.724374e+01
2.760000e-06	1.830065e-06	8.987478e-10	1.391950e+01	5.785747e+01
2.770000e-06	1.846433e-06	9.099369e-10	1.404399e+01	5.846419e+01
2.780000e-06	1.862646e-06	9.200268e-10	1.416731e+01	5.906378e+01
2.790000e-06	1.878750e-06	9.295328e-10	1.428979e+01	5.965622e+01
2.800000e-06	1.894626e-06	9.392049e-10	1.441055e+01	6.024151e+01
2.810000e-06	1.910237e-06	9.478277e-10	1.452928e+01	6.081975e+01
2.820000e-06	1.925700e-06	9.558239e-10	1.464690e+01	6.139105e+01
2.830000e-06	1.941047e-06	9.642010e-10	1.476363e+01	6.195560e+01
2.840000e-06	1.956113e-06	9.739243e-10	1.487822e+01	6.251357e+01
2.850000e-06	1.970954e-06	9.838346e-10	1.499110e+01	6.306518e+01
2.860000e-06	1.985691e-06	9.918334e-10	1.510320e+01	6.361063e+01
2.870000e-06	2.000328e-06	9.980159e-10	1.521452e+01	6.415012e+01
2.880000e-06	2.014706e-06	1.006067e-09	1.532388e+01	6.468383e+01
2.890000e-06	2.028831e-06	1.015050e-09	1.543132e+01	6.521191e+01
2.900000e-06	2.042929e-06	1.023704e-09	1.553854e+01	6.573448e+01
