# Temperatura_=_20.0
# Concentracion g/m^3_=_12600.0
# C_Vs_to_Am_M_A/Vsm_=_65563218390.804596
# pendiente_HvsI_1/m_=_3716.3
# ordenada_HvsI_A/m_=_1297.0
# frecuencia_Hz_=_134923.72580528856

Tiempo_(s)	Campo_(V.s)	Magnetizacion_(V.s)	Campo_(kA/m)	Magnetizacion_(A/m)
0.000000e+00	-2.607499e-06	-1.409812e-09	-1.983463e+01	-8.935337e+01
1.000000e-08	-2.607651e-06	-1.444466e-09	-1.983578e+01	-8.930691e+01
2.000000e-08	-2.607691e-06	-1.435285e-09	-1.983608e+01	-8.924322e+01
3.000000e-08	-2.607618e-06	-1.351455e-09	-1.983553e+01	-8.916220e+01
4.000000e-08	-2.607427e-06	-1.247374e-09	-1.983408e+01	-8.906396e+01
5.000000e-08	-2.607090e-06	-1.156866e-09	-1.983152e+01	-8.894880e+01
6.000000e-08	-2.606651e-06	-1.152481e-09	-1.982817e+01	-8.881721e+01
7.000000e-08	-2.606084e-06	-1.290485e-09	-1.982387e+01	-8.866988e+01
8.000000e-08	-2.605325e-06	-1.435022e-09	-1.981809e+01	-8.850766e+01
9.000000e-08	-2.604362e-06	-1.520892e-09	-1.981076e+01	-8.833160e+01
1.000000e-07	-2.603190e-06	-1.484100e-09	-1.980185e+01	-8.814290e+01
1.100000e-07	-2.601811e-06	-1.448987e-09	-1.979136e+01	-8.794289e+01
1.200000e-07	-2.600119e-06	-1.321037e-09	-1.977849e+01	-8.773301e+01
1.300000e-07	-2.598094e-06	-1.332195e-09	-1.976309e+01	-8.751479e+01
1.400000e-07	-2.595765e-06	-1.341454e-09	-1.974537e+01	-8.728981e+01
1.500000e-07	-2.593086e-06	-1.337666e-09	-1.972499e+01	-8.705968e+01
1.600000e-07	-2.590045e-06	-1.337983e-09	-1.970185e+01	-8.682600e+01
1.700000e-07	-2.586796e-06	-1.347563e-09	-1.967714e+01	-8.659031e+01
1.800000e-07	-2.583327e-06	-1.329287e-09	-1.965075e+01	-8.635410e+01
1.900000e-07	-2.579636e-06	-1.283211e-09	-1.962268e+01	-8.611876e+01
2.000000e-07	-2.575835e-06	-1.317251e-09	-1.959376e+01	-8.588552e+01
2.100000e-07	-2.571921e-06	-1.293931e-09	-1.956399e+01	-8.565551e+01
2.200000e-07	-2.567910e-06	-1.330629e-09	-1.953348e+01	-8.542962e+01
2.300000e-07	-2.563748e-06	-1.291385e-09	-1.950183e+01	-8.520860e+01
2.400000e-07	-2.559488e-06	-1.317678e-09	-1.946942e+01	-8.499296e+01
2.500000e-07	-2.555195e-06	-1.309979e-09	-1.943676e+01	-8.478304e+01
2.600000e-07	-2.550832e-06	-1.348682e-09	-1.940357e+01	-8.457891e+01
2.700000e-07	-2.546339e-06	-1.323369e-09	-1.936940e+01	-8.438049e+01
2.800000e-07	-2.541610e-06	-1.318883e-09	-1.933342e+01	-8.418746e+01
2.900000e-07	-2.536590e-06	-1.296739e-09	-1.929524e+01	-8.399930e+01
3.000000e-07	-2.531349e-06	-1.299784e-09	-1.925537e+01	-8.381537e+01
3.100000e-07	-2.525977e-06	-1.321083e-09	-1.921450e+01	-8.363481e+01
3.200000e-07	-2.520536e-06	-1.315128e-09	-1.917312e+01	-8.345670e+01
3.300000e-07	-2.514840e-06	-1.297441e-09	-1.912979e+01	-8.327996e+01
3.400000e-07	-2.508867e-06	-1.278655e-09	-1.908435e+01	-8.310348e+01
3.500000e-07	-2.502789e-06	-1.304532e-09	-1.903812e+01	-8.292609e+01
3.600000e-07	-2.496564e-06	-1.301286e-09	-1.899077e+01	-8.274661e+01
3.700000e-07	-2.490202e-06	-1.289490e-09	-1.894238e+01	-8.256390e+01
3.800000e-07	-2.483724e-06	-1.266017e-09	-1.889310e+01	-8.237683e+01
3.900000e-07	-2.477020e-06	-1.280491e-09	-1.884210e+01	-8.218437e+01
4.000000e-07	-2.470124e-06	-1.276916e-09	-1.878964e+01	-8.198558e+01
4.100000e-07	-2.463022e-06	-1.270363e-09	-1.873562e+01	-8.177965e+01
4.200000e-07	-2.455681e-06	-1.259878e-09	-1.867978e+01	-8.156589e+01
4.300000e-07	-2.448151e-06	-1.274805e-09	-1.862250e+01	-8.134377e+01
4.400000e-07	-2.440487e-06	-1.272595e-09	-1.856420e+01	-8.111291e+01
4.500000e-07	-2.432759e-06	-1.264211e-09	-1.850542e+01	-8.087309e+01
4.600000e-07	-2.424921e-06	-1.260035e-09	-1.844580e+01	-8.062424e+01
4.700000e-07	-2.416966e-06	-1.265072e-09	-1.838529e+01	-8.036646e+01
4.800000e-07	-2.408882e-06	-1.255544e-09	-1.832379e+01	-8.009998e+01
4.900000e-07	-2.400671e-06	-1.244493e-09	-1.826134e+01	-7.982517e+01
5.000000e-07	-2.392338e-06	-1.240145e-09	-1.819795e+01	-7.954249e+01
5.100000e-07	-2.383829e-06	-1.241094e-09	-1.813322e+01	-7.925252e+01
5.200000e-07	-2.375163e-06	-1.231079e-09	-1.806730e+01	-7.895589e+01
5.300000e-07	-2.366357e-06	-1.222110e-09	-1.800032e+01	-7.865329e+01
5.400000e-07	-2.357349e-06	-1.220111e-09	-1.793180e+01	-7.834542e+01
5.500000e-07	-2.348093e-06	-1.220187e-09	-1.786138e+01	-7.803298e+01
5.600000e-07	-2.338514e-06	-1.211574e-09	-1.778852e+01	-7.771665e+01
5.700000e-07	-2.328643e-06	-1.206833e-09	-1.771343e+01	-7.739706e+01
5.800000e-07	-2.318658e-06	-1.205658e-09	-1.763748e+01	-7.707479e+01
5.900000e-07	-2.308439e-06	-1.198095e-09	-1.755975e+01	-7.675029e+01
6.000000e-07	-2.297812e-06	-1.188660e-09	-1.747891e+01	-7.642397e+01
6.100000e-07	-2.286939e-06	-1.193822e-09	-1.739620e+01	-7.609608e+01
6.200000e-07	-2.275899e-06	-1.199179e-09	-1.731222e+01	-7.576679e+01
6.300000e-07	-2.264633e-06	-1.181313e-09	-1.722653e+01	-7.543613e+01
6.400000e-07	-2.253154e-06	-1.159508e-09	-1.713921e+01	-7.510402e+01
6.500000e-07	-2.241449e-06	-1.161153e-09	-1.705017e+01	-7.477028e+01
6.600000e-07	-2.229569e-06	-1.166983e-09	-1.695980e+01	-7.443461e+01
6.700000e-07	-2.217538e-06	-1.145971e-09	-1.686828e+01	-7.409662e+01
6.800000e-07	-2.205356e-06	-1.126044e-09	-1.677562e+01	-7.375586e+01
6.900000e-07	-2.193088e-06	-1.131088e-09	-1.668230e+01	-7.341181e+01
7.000000e-07	-2.180720e-06	-1.139344e-09	-1.658822e+01	-7.306390e+01
7.100000e-07	-2.168197e-06	-1.122547e-09	-1.649296e+01	-7.271156e+01
7.200000e-07	-2.155521e-06	-1.105532e-09	-1.639654e+01	-7.235422e+01
7.300000e-07	-2.142628e-06	-1.103635e-09	-1.629846e+01	-7.199132e+01
7.400000e-07	-2.129541e-06	-1.108776e-09	-1.619891e+01	-7.162236e+01
7.500000e-07	-2.116310e-06	-1.100876e-09	-1.609827e+01	-7.124688e+01
7.600000e-07	-2.102974e-06	-1.087752e-09	-1.599682e+01	-7.086453e+01
7.700000e-07	-2.089466e-06	-1.076360e-09	-1.589407e+01	-7.047502e+01
7.800000e-07	-2.075664e-06	-1.078425e-09	-1.578908e+01	-7.007819e+01
7.900000e-07	-2.061687e-06	-1.082048e-09	-1.568276e+01	-6.967397e+01
8.000000e-07	-2.047614e-06	-1.071344e-09	-1.557571e+01	-6.926241e+01
8.100000e-07	-2.033427e-06	-1.049968e-09	-1.546779e+01	-6.884370e+01
8.200000e-07	-2.019066e-06	-1.046152e-09	-1.535856e+01	-6.841810e+01
8.300000e-07	-2.004604e-06	-1.053122e-09	-1.524855e+01	-6.798602e+01
8.400000e-07	-1.990020e-06	-1.043085e-09	-1.513761e+01	-6.754793e+01
8.500000e-07	-1.975200e-06	-1.017262e-09	-1.502487e+01	-6.710441e+01
8.600000e-07	-1.960216e-06	-1.010050e-09	-1.491090e+01	-6.665608e+01
8.700000e-07	-1.944992e-06	-1.022639e-09	-1.479509e+01	-6.620364e+01
8.800000e-07	-1.929572e-06	-1.024714e-09	-1.467780e+01	-6.574779e+01
8.900000e-07	-1.914030e-06	-1.005654e-09	-1.455957e+01	-6.528924e+01
9.000000e-07	-1.898309e-06	-9.906690e-10	-1.443998e+01	-6.482872e+01
9.100000e-07	-1.882404e-06	-9.953595e-10	-1.431900e+01	-6.436689e+01
9.200000e-07	-1.866185e-06	-9.997088e-10	-1.419562e+01	-6.390438e+01
9.300000e-07	-1.849742e-06	-9.844853e-10	-1.407055e+01	-6.344172e+01
9.400000e-07	-1.833191e-06	-9.620547e-10	-1.394465e+01	-6.297939e+01
9.500000e-07	-1.816434e-06	-9.566789e-10	-1.381718e+01	-6.251774e+01
9.600000e-07	-1.799563e-06	-9.626594e-10	-1.368885e+01	-6.205701e+01
9.700000e-07	-1.782593e-06	-9.587317e-10	-1.355976e+01	-6.159734e+01
9.800000e-07	-1.765513e-06	-9.389863e-10	-1.342984e+01	-6.113871e+01
9.900000e-07	-1.748387e-06	-9.240299e-10	-1.329957e+01	-6.068101e+01
1.000000e-06	-1.731154e-06	-9.226233e-10	-1.316848e+01	-6.022398e+01
1.010000e-06	-1.713784e-06	-9.224989e-10	-1.303635e+01	-5.976725e+01
1.020000e-06	-1.696335e-06	-9.108778e-10	-1.290362e+01	-5.931037e+01
1.030000e-06	-1.678872e-06	-8.973845e-10	-1.277078e+01	-5.885275e+01
1.040000e-06	-1.661305e-06	-8.907356e-10	-1.263715e+01	-5.839376e+01
1.050000e-06	-1.643660e-06	-8.902596e-10	-1.250293e+01	-5.793269e+01
1.060000e-06	-1.625903e-06	-8.864332e-10	-1.236786e+01	-5.746878e+01
1.070000e-06	-1.608010e-06	-8.765346e-10	-1.223175e+01	-5.700126e+01
1.080000e-06	-1.589997e-06	-8.666818e-10	-1.209473e+01	-5.652936e+01
1.090000e-06	-1.571878e-06	-8.639959e-10	-1.195690e+01	-5.605231e+01
1.100000e-06	-1.553714e-06	-8.601070e-10	-1.181873e+01	-5.556940e+01
1.110000e-06	-1.535475e-06	-8.516373e-10	-1.167999e+01	-5.507996e+01
1.120000e-06	-1.517089e-06	-8.418455e-10	-1.154014e+01	-5.458338e+01
1.130000e-06	-1.498521e-06	-8.338139e-10	-1.139889e+01	-5.407917e+01
1.140000e-06	-1.479828e-06	-8.280988e-10	-1.125670e+01	-5.356691e+01
1.150000e-06	-1.461094e-06	-8.223089e-10	-1.111420e+01	-5.304629e+01
1.160000e-06	-1.442243e-06	-8.165624e-10	-1.097080e+01	-5.251711e+01
1.170000e-06	-1.423255e-06	-8.093235e-10	-1.082636e+01	-5.197930e+01
1.180000e-06	-1.404142e-06	-8.043299e-10	-1.068097e+01	-5.143286e+01
1.190000e-06	-1.384849e-06	-8.003033e-10	-1.053422e+01	-5.087795e+01
1.200000e-06	-1.365400e-06	-7.959787e-10	-1.038627e+01	-5.031479e+01
1.210000e-06	-1.345804e-06	-7.903155e-10	-1.023721e+01	-4.974371e+01
1.220000e-06	-1.326118e-06	-7.812029e-10	-1.008746e+01	-4.916511e+01
1.230000e-06	-1.306401e-06	-7.685278e-10	-9.937485e+00	-4.857945e+01
1.240000e-06	-1.286642e-06	-7.577415e-10	-9.787176e+00	-4.798725e+01
1.250000e-06	-1.266789e-06	-7.499373e-10	-9.636166e+00	-4.738905e+01
1.260000e-06	-1.246887e-06	-7.402172e-10	-9.484776e+00	-4.678541e+01
1.270000e-06	-1.226973e-06	-7.292568e-10	-9.333293e+00	-4.617687e+01
1.280000e-06	-1.207062e-06	-7.192158e-10	-9.181833e+00	-4.556398e+01
1.290000e-06	-1.187110e-06	-7.097801e-10	-9.030063e+00	-4.494721e+01
1.300000e-06	-1.167071e-06	-6.989761e-10	-8.877630e+00	-4.432703e+01
1.310000e-06	-1.146980e-06	-6.904259e-10	-8.724801e+00	-4.370381e+01
1.320000e-06	-1.126934e-06	-6.822034e-10	-8.572321e+00	-4.307787e+01
1.330000e-06	-1.106902e-06	-6.730993e-10	-8.419944e+00	-4.244944e+01
1.340000e-06	-1.086809e-06	-6.622852e-10	-8.267096e+00	-4.181866e+01
1.350000e-06	-1.066639e-06	-6.508649e-10	-8.113669e+00	-4.118561e+01
1.360000e-06	-1.046419e-06	-6.412623e-10	-7.959862e+00	-4.055026e+01
1.370000e-06	-1.026212e-06	-6.305685e-10	-7.806154e+00	-3.991251e+01
1.380000e-06	-1.005971e-06	-6.181870e-10	-7.652180e+00	-3.927221e+01
1.390000e-06	-9.856280e-07	-6.086369e-10	-7.497438e+00	-3.862909e+01
1.400000e-06	-9.652100e-07	-6.023191e-10	-7.342123e+00	-3.798289e+01
1.410000e-06	-9.447619e-07	-5.950169e-10	-7.186580e+00	-3.733326e+01
1.420000e-06	-9.242117e-07	-5.829946e-10	-7.030259e+00	-3.667984e+01
1.430000e-06	-9.035715e-07	-5.684087e-10	-6.873254e+00	-3.602226e+01
1.440000e-06	-8.829116e-07	-5.568833e-10	-6.716099e+00	-3.536014e+01
1.450000e-06	-8.621962e-07	-5.478552e-10	-6.558521e+00	-3.469313e+01
1.460000e-06	-8.413593e-07	-5.399275e-10	-6.400020e+00	-3.402088e+01
1.470000e-06	-8.204017e-07	-5.293177e-10	-6.240600e+00	-3.334312e+01
1.480000e-06	-7.994363e-07	-5.200195e-10	-6.081122e+00	-3.265960e+01
1.490000e-06	-7.784749e-07	-5.133278e-10	-5.921673e+00	-3.197015e+01
1.500000e-06	-7.574638e-07	-5.061253e-10	-5.761847e+00	-3.127465e+01
1.510000e-06	-7.364128e-07	-4.955640e-10	-5.601717e+00	-3.057308e+01
1.520000e-06	-7.152835e-07	-4.833508e-10	-5.440991e+00	-2.986548e+01
1.530000e-06	-6.940556e-07	-4.715280e-10	-5.279516e+00	-2.915197e+01
1.540000e-06	-6.727822e-07	-4.608314e-10	-5.117694e+00	-2.843276e+01
1.550000e-06	-6.514637e-07	-4.517897e-10	-4.955530e+00	-2.770810e+01
1.560000e-06	-6.300475e-07	-4.424053e-10	-4.792622e+00	-2.697835e+01
1.570000e-06	-6.085617e-07	-4.316662e-10	-4.629184e+00	-2.624390e+01
1.580000e-06	-5.870788e-07	-4.209683e-10	-4.465769e+00	-2.550519e+01
1.590000e-06	-5.655889e-07	-4.113841e-10	-4.302301e+00	-2.476270e+01
1.600000e-06	-5.439783e-07	-4.026732e-10	-4.137914e+00	-2.401695e+01
1.610000e-06	-5.222737e-07	-3.927608e-10	-3.972812e+00	-2.326845e+01
1.620000e-06	-5.005589e-07	-3.784861e-10	-3.807632e+00	-2.251774e+01
1.630000e-06	-4.787947e-07	-3.631436e-10	-3.642078e+00	-2.176534e+01
1.640000e-06	-4.570129e-07	-3.490094e-10	-3.476389e+00	-2.101174e+01
1.650000e-06	-4.352103e-07	-3.370046e-10	-3.310542e+00	-2.025740e+01
1.660000e-06	-4.133697e-07	-3.252338e-10	-3.144405e+00	-1.950276e+01
1.670000e-06	-3.914774e-07	-3.124423e-10	-2.977875e+00	-1.874820e+01
1.680000e-06	-3.695521e-07	-3.027567e-10	-2.811095e+00	-1.799404e+01
1.690000e-06	-3.476319e-07	-2.964867e-10	-2.644353e+00	-1.724055e+01
1.700000e-06	-3.257619e-07	-2.869946e-10	-2.477993e+00	-1.648796e+01
1.710000e-06	-3.038987e-07	-2.722677e-10	-2.311685e+00	-1.573641e+01
1.720000e-06	-2.819767e-07	-2.579275e-10	-2.144930e+00	-1.498601e+01
1.730000e-06	-2.600667e-07	-2.491825e-10	-1.978266e+00	-1.423680e+01
1.740000e-06	-2.382244e-07	-2.413038e-10	-1.812116e+00	-1.348879e+01
1.750000e-06	-2.163720e-07	-2.285098e-10	-1.645891e+00	-1.274192e+01
1.760000e-06	-1.943840e-07	-2.114231e-10	-1.478633e+00	-1.199612e+01
1.770000e-06	-1.723599e-07	-1.977578e-10	-1.311100e+00	-1.125129e+01
1.780000e-06	-1.503595e-07	-1.912192e-10	-1.143749e+00	-1.050730e+01
1.790000e-06	-1.283457e-07	-1.868761e-10	-9.762956e-01	-9.764020e+00
1.800000e-06	-1.062795e-07	-1.783256e-10	-8.084427e-01	-9.021316e+00
1.810000e-06	-8.419243e-08	-1.636459e-10	-6.404318e-01	-8.279056e+00
1.820000e-06	-6.214867e-08	-1.490826e-10	-4.727501e-01	-7.537121e+00
1.830000e-06	-4.006895e-08	-1.390667e-10	-3.047950e-01	-6.795409e+00
1.840000e-06	-1.797572e-08	-1.299616e-10	-1.367370e-01	-6.053841e+00
1.850000e-06	4.106095e-09	-1.161268e-10	3.123409e-02	-5.312362e+00
1.860000e-06	2.616083e-08	-1.006593e-10	1.989993e-01	-4.570940e+00
1.870000e-06	4.816882e-08	-8.891932e-11	3.664087e-01	-3.829573e+00
1.880000e-06	7.017795e-08	-8.041942e-11	5.338270e-01	-3.088281e+00
1.890000e-06	9.218816e-08	-7.043369e-11	7.012534e-01	-2.347106e+00
1.900000e-06	1.142093e-07	-5.743859e-11	8.687628e-01	-1.606106e+00
1.910000e-06	1.361967e-07	-4.277198e-11	1.036016e+00	-8.653543e-01
1.920000e-06	1.581416e-07	-3.015963e-11	1.202946e+00	-1.249274e-01
1.930000e-06	1.801478e-07	-2.034653e-11	1.370341e+00	6.150959e-01
1.940000e-06	2.021924e-07	-9.138583e-12	1.538030e+00	1.354644e+00
1.950000e-06	2.241936e-07	5.136868e-12	1.705388e+00	2.093658e+00
1.960000e-06	2.461544e-07	2.018326e-11	1.872438e+00	2.832099e+00
1.970000e-06	2.680657e-07	3.148235e-11	2.039112e+00	3.569951e+00
1.980000e-06	2.899731e-07	4.007819e-11	2.205756e+00	4.307229e+00
1.990000e-06	3.119047e-07	4.905148e-11	2.372585e+00	5.043978e+00
2.000000e-06	3.337608e-07	5.928694e-11	2.538839e+00	5.780281e+00
2.010000e-06	3.555528e-07	6.924207e-11	2.704606e+00	6.516253e+00
2.020000e-06	3.773760e-07	7.679444e-11	2.870610e+00	7.252047e+00
2.030000e-06	3.992460e-07	8.775506e-11	3.036969e+00	7.987843e+00
2.040000e-06	4.211040e-07	1.036631e-10	3.203238e+00	8.723854e+00
2.050000e-06	4.429226e-07	1.193699e-10	3.369207e+00	9.460310e+00
2.060000e-06	4.646957e-07	1.305927e-10	3.534830e+00	1.019746e+01
2.070000e-06	4.864108e-07	1.398218e-10	3.700011e+00	1.093556e+01
2.080000e-06	5.080973e-07	1.517894e-10	3.864976e+00	1.167487e+01
2.090000e-06	5.296871e-07	1.648846e-10	4.029204e+00	1.241562e+01
2.100000e-06	5.512500e-07	1.779706e-10	4.193228e+00	1.315805e+01
2.110000e-06	5.728751e-07	1.887682e-10	4.357724e+00	1.390234e+01
2.120000e-06	5.944332e-07	1.966087e-10	4.521712e+00	1.464865e+01
2.130000e-06	6.158678e-07	2.059401e-10	4.684760e+00	1.539708e+01
2.140000e-06	6.372598e-07	2.185867e-10	4.847484e+00	1.614769e+01
2.150000e-06	6.586144e-07	2.325624e-10	5.009923e+00	1.690047e+01
2.160000e-06	6.798525e-07	2.452804e-10	5.171476e+00	1.765535e+01
2.170000e-06	7.010404e-07	2.571749e-10	5.332648e+00	1.841219e+01
2.180000e-06	7.222393e-07	2.687536e-10	5.493903e+00	1.917077e+01
2.190000e-06	7.434016e-07	2.799291e-10	5.654879e+00	1.993083e+01
2.200000e-06	7.644967e-07	2.927314e-10	5.815345e+00	2.069202e+01
2.210000e-06	7.855334e-07	3.039467e-10	5.975366e+00	2.145396e+01
2.220000e-06	8.064947e-07	3.133349e-10	6.134813e+00	2.221618e+01
2.230000e-06	8.273397e-07	3.236267e-10	6.293377e+00	2.297822e+01
2.240000e-06	8.480794e-07	3.343995e-10	6.451139e+00	2.373955e+01
2.250000e-06	8.687707e-07	3.449593e-10	6.608532e+00	2.449965e+01
2.260000e-06	8.894422e-07	3.545514e-10	6.765776e+00	2.525796e+01
2.270000e-06	9.100482e-07	3.665757e-10	6.922520e+00	2.601397e+01
2.280000e-06	9.305756e-07	3.791064e-10	7.078668e+00	2.676716e+01
2.290000e-06	9.510332e-07	3.888695e-10	7.234284e+00	2.751705e+01
2.300000e-06	9.714480e-07	3.983627e-10	7.389574e+00	2.826323e+01
2.310000e-06	9.918237e-07	4.105941e-10	7.544567e+00	2.900531e+01
2.320000e-06	1.012134e-06	4.238329e-10	7.699063e+00	2.974299e+01
2.330000e-06	1.032416e-06	4.348264e-10	7.853343e+00	3.047605e+01
2.340000e-06	1.052684e-06	4.453950e-10	8.007516e+00	3.120433e+01
2.350000e-06	1.072887e-06	4.583094e-10	8.161200e+00	3.192778e+01
2.360000e-06	1.093021e-06	4.718431e-10	8.314352e+00	3.264640e+01
2.370000e-06	1.113111e-06	4.836458e-10	8.467170e+00	3.336032e+01
2.380000e-06	1.133133e-06	4.950291e-10	8.619470e+00	3.406970e+01
2.390000e-06	1.153135e-06	5.075714e-10	8.771621e+00	3.477482e+01
2.400000e-06	1.173113e-06	5.201037e-10	8.923595e+00	3.547599e+01
2.410000e-06	1.193067e-06	5.309081e-10	9.075379e+00	3.617359e+01
2.420000e-06	1.213005e-06	5.413343e-10	9.227041e+00	3.686803e+01
2.430000e-06	1.232914e-06	5.525696e-10	9.378483e+00	3.755977e+01
2.440000e-06	1.252769e-06	5.643352e-10	9.529515e+00	3.824927e+01
2.450000e-06	1.272557e-06	5.752580e-10	9.680042e+00	3.893699e+01
2.460000e-06	1.292292e-06	5.837553e-10	9.830158e+00	3.962336e+01
2.470000e-06	1.311972e-06	5.941901e-10	9.979860e+00	4.030881e+01
2.480000e-06	1.331581e-06	6.062372e-10	1.012902e+01	4.099370e+01
2.490000e-06	1.351114e-06	6.180725e-10	1.027760e+01	4.167833e+01
2.500000e-06	1.370588e-06	6.282462e-10	1.042574e+01	4.236295e+01
2.510000e-06	1.389998e-06	6.368906e-10	1.057338e+01	4.304772e+01
2.520000e-06	1.409303e-06	6.481609e-10	1.072024e+01	4.373272e+01
2.530000e-06	1.428308e-06	6.619059e-10	1.086480e+01	4.441794e+01
2.540000e-06	1.447110e-06	6.728611e-10	1.100782e+01	4.510328e+01
2.550000e-06	1.465827e-06	6.816803e-10	1.115020e+01	4.578855e+01
2.560000e-06	1.484452e-06	6.930790e-10	1.129187e+01	4.647348e+01
2.570000e-06	1.503032e-06	7.055323e-10	1.143321e+01	4.715771e+01
2.580000e-06	1.521449e-06	7.193670e-10	1.157330e+01	4.784084e+01
2.590000e-06	1.539684e-06	7.310907e-10	1.171201e+01	4.852239e+01
2.600000e-06	1.557734e-06	7.414002e-10	1.184931e+01	4.920183e+01
2.610000e-06	1.575654e-06	7.520659e-10	1.198563e+01	4.987862e+01
2.620000e-06	1.593484e-06	7.628081e-10	1.212126e+01	5.055220e+01
2.630000e-06	1.611227e-06	7.751131e-10	1.225622e+01	5.122200e+01
2.640000e-06	1.628971e-06	7.878180e-10	1.239119e+01	5.188747e+01
2.650000e-06	1.646703e-06	8.005882e-10	1.252607e+01	5.254812e+01
2.660000e-06	1.664320e-06	8.140568e-10	1.266009e+01	5.320347e+01
2.670000e-06	1.681781e-06	8.260236e-10	1.279291e+01	5.385313e+01
2.680000e-06	1.699134e-06	8.344906e-10	1.292491e+01	5.449676e+01
2.690000e-06	1.716415e-06	8.422252e-10	1.305636e+01	5.513411e+01
2.700000e-06	1.733601e-06	8.519099e-10	1.318709e+01	5.576504e+01
2.710000e-06	1.750725e-06	8.616389e-10	1.331735e+01	5.638945e+01
2.720000e-06	1.767751e-06	8.725635e-10	1.344686e+01	5.700739e+01
2.730000e-06	1.784616e-06	8.844450e-10	1.357515e+01	5.761897e+01
2.740000e-06	1.801372e-06	8.938155e-10	1.370261e+01	5.822438e+01
2.750000e-06	1.818004e-06	9.009343e-10	1.382913e+01	5.882392e+01
2.760000e-06	1.834414e-06	9.124090e-10	1.395395e+01	5.941792e+01
2.770000e-06	1.850855e-06	9.250117e-10	1.407901e+01	6.000680e+01
2.780000e-06	1.867246e-06	9.355349e-10	1.420370e+01	6.059101e+01
2.790000e-06	1.883263e-06	9.431499e-10	1.432553e+01	6.117101e+01
2.800000e-06	1.899056e-06	9.500756e-10	1.444567e+01	6.174731e+01
2.810000e-06	1.914642e-06	9.599402e-10	1.456422e+01	6.232037e+01
2.820000e-06	1.930106e-06	9.712282e-10	1.468186e+01	6.289065e+01
2.830000e-06	1.945443e-06	9.816617e-10	1.479852e+01	6.345858e+01
2.840000e-06	1.960567e-06	9.900555e-10	1.491357e+01	6.402451e+01
2.850000e-06	1.975436e-06	1.000372e-09	1.502667e+01	6.458872e+01
2.860000e-06	1.990079e-06	1.011396e-09	1.513806e+01	6.515144e+01
2.870000e-06	2.004582e-06	1.020383e-09	1.524838e+01	6.571278e+01
2.880000e-06	2.018900e-06	1.026709e-09	1.535729e+01	6.627274e+01
2.890000e-06	2.033110e-06	1.032982e-09	1.546538e+01	6.683126e+01
2.900000e-06	2.047196e-06	1.043074e-09	1.557253e+01	6.738814e+01
