# Temperatura_=_20.0
# Concentracion g/m^3_=_12600.0
# C_Vs_to_Am_M_A/Vsm_=_65563218390.804596
# pendiente_HvsI_1/m_=_3716.3
# ordenada_HvsI_A/m_=_1297.0
# frecuencia_Hz_=_213174.7522271012

Tiempo_(s)	Campo_(V.s)	Magnetizacion_(V.s)	Campo_(kA/m)	Magnetizacion_(A/m)
0.000000e+00	-6.731304e-06	-4.122669e-09	-4.757050e+01	-2.683014e+02
1.000000e-08	-6.730903e-06	-4.122383e-09	-4.756766e+01	-2.682718e+02
2.000000e-08	-6.729219e-06	-4.120203e-09	-4.755576e+01	-2.682054e+02
3.000000e-08	-6.726184e-06	-4.120906e-09	-4.753431e+01	-2.681045e+02
4.000000e-08	-6.722114e-06	-4.123097e-09	-4.750555e+01	-2.679725e+02
5.000000e-08	-6.717057e-06	-4.123552e-09	-4.746981e+01	-2.678139e+02
6.000000e-08	-6.710874e-06	-4.120140e-09	-4.742612e+01	-2.676343e+02
7.000000e-08	-6.703609e-06	-4.117084e-09	-4.737477e+01	-2.674398e+02
8.000000e-08	-6.695360e-06	-4.125899e-09	-4.731648e+01	-2.672371e+02
9.000000e-08	-6.685832e-06	-4.118983e-09	-4.724914e+01	-2.670329e+02
1.000000e-07	-6.674588e-06	-4.090409e-09	-4.716968e+01	-2.668337e+02
1.100000e-07	-6.661637e-06	-4.088085e-09	-4.707816e+01	-2.666449e+02
1.200000e-07	-6.647177e-06	-4.081288e-09	-4.697597e+01	-2.664712e+02
1.300000e-07	-6.631355e-06	-4.123014e-09	-4.686415e+01	-2.663156e+02
1.400000e-07	-6.614398e-06	-4.128484e-09	-4.674431e+01	-2.661793e+02
1.500000e-07	-6.596444e-06	-4.007608e-09	-4.661743e+01	-2.660619e+02
1.600000e-07	-6.577521e-06	-4.061185e-09	-4.648370e+01	-2.659606e+02
1.700000e-07	-6.557750e-06	-4.106313e-09	-4.634398e+01	-2.658711e+02
1.800000e-07	-6.536989e-06	-4.018878e-09	-4.619726e+01	-2.657869e+02
1.900000e-07	-6.515015e-06	-4.092227e-09	-4.604197e+01	-2.657003e+02
2.000000e-07	-6.492026e-06	-4.076264e-09	-4.587951e+01	-2.656021e+02
2.100000e-07	-6.468095e-06	-3.947239e-09	-4.571038e+01	-2.654825e+02
2.200000e-07	-6.442850e-06	-4.058303e-09	-4.553198e+01	-2.653315e+02
2.300000e-07	-6.416111e-06	-4.114080e-09	-4.534301e+01	-2.651393e+02
2.400000e-07	-6.388246e-06	-3.992953e-09	-4.514609e+01	-2.648965e+02
2.500000e-07	-6.359492e-06	-3.997204e-09	-4.494288e+01	-2.645954e+02
2.600000e-07	-6.329668e-06	-3.995000e-09	-4.473211e+01	-2.642293e+02
2.700000e-07	-6.298713e-06	-3.995317e-09	-4.451335e+01	-2.637938e+02
2.800000e-07	-6.266773e-06	-4.026668e-09	-4.428763e+01	-2.632864e+02
2.900000e-07	-6.233805e-06	-3.973184e-09	-4.405465e+01	-2.627066e+02
3.000000e-07	-6.199530e-06	-3.943749e-09	-4.381242e+01	-2.620562e+02
3.100000e-07	-6.163992e-06	-3.937466e-09	-4.356127e+01	-2.613386e+02
3.200000e-07	-6.127329e-06	-3.927447e-09	-4.330217e+01	-2.605592e+02
3.300000e-07	-6.089513e-06	-3.953424e-09	-4.303492e+01	-2.597243e+02
3.400000e-07	-6.050682e-06	-3.952743e-09	-4.276050e+01	-2.588415e+02
3.500000e-07	-6.010885e-06	-3.897300e-09	-4.247925e+01	-2.579183e+02
3.600000e-07	-5.970012e-06	-3.853978e-09	-4.219040e+01	-2.569624e+02
3.700000e-07	-5.927889e-06	-3.896259e-09	-4.189272e+01	-2.559811e+02
3.800000e-07	-5.884522e-06	-3.924944e-09	-4.158624e+01	-2.549805e+02
3.900000e-07	-5.840155e-06	-3.854961e-09	-4.127270e+01	-2.539656e+02
4.000000e-07	-5.794804e-06	-3.796207e-09	-4.095220e+01	-2.529399e+02
4.100000e-07	-5.748452e-06	-3.796423e-09	-4.062463e+01	-2.519055e+02
4.200000e-07	-5.701135e-06	-3.837295e-09	-4.029024e+01	-2.508626e+02
4.300000e-07	-5.652772e-06	-3.835489e-09	-3.994845e+01	-2.498102e+02
4.400000e-07	-5.603209e-06	-3.762239e-09	-3.959819e+01	-2.487457e+02
4.500000e-07	-5.552232e-06	-3.723321e-09	-3.923793e+01	-2.476656e+02
4.600000e-07	-5.499976e-06	-3.747353e-09	-3.886864e+01	-2.465655e+02
4.700000e-07	-5.446743e-06	-3.778001e-09	-3.849244e+01	-2.454408e+02
4.800000e-07	-5.392585e-06	-3.741404e-09	-3.810970e+01	-2.442868e+02
4.900000e-07	-5.337535e-06	-3.661038e-09	-3.772065e+01	-2.430989e+02
5.000000e-07	-5.281615e-06	-3.635636e-09	-3.732546e+01	-2.418733e+02
5.100000e-07	-5.224770e-06	-3.668815e-09	-3.692373e+01	-2.406071e+02
5.200000e-07	-5.166829e-06	-3.677630e-09	-3.651426e+01	-2.392983e+02
5.300000e-07	-5.107754e-06	-3.612065e-09	-3.609678e+01	-2.379459e+02
5.400000e-07	-5.047782e-06	-3.553531e-09	-3.567295e+01	-2.365502e+02
5.500000e-07	-4.986993e-06	-3.565095e-09	-3.524336e+01	-2.351123e+02
5.600000e-07	-4.925369e-06	-3.584070e-09	-3.480786e+01	-2.336343e+02
5.700000e-07	-4.862884e-06	-3.553224e-09	-3.436627e+01	-2.321188e+02
5.800000e-07	-4.799621e-06	-3.493604e-09	-3.391918e+01	-2.305688e+02
5.900000e-07	-4.735602e-06	-3.465459e-09	-3.346676e+01	-2.289874e+02
6.000000e-07	-4.670597e-06	-3.465032e-09	-3.300737e+01	-2.273776e+02
6.100000e-07	-4.604511e-06	-3.450575e-09	-3.254033e+01	-2.257418e+02
6.200000e-07	-4.537483e-06	-3.413877e-09	-3.206664e+01	-2.240818e+02
6.300000e-07	-4.469680e-06	-3.374800e-09	-3.158748e+01	-2.223988e+02
6.400000e-07	-4.401228e-06	-3.354826e-09	-3.110372e+01	-2.206928e+02
6.500000e-07	-4.332174e-06	-3.338732e-09	-3.061571e+01	-2.189631e+02
6.600000e-07	-4.262408e-06	-3.311862e-09	-3.012267e+01	-2.172081e+02
6.700000e-07	-4.191860e-06	-3.280690e-09	-2.962411e+01	-2.154256e+02
6.800000e-07	-4.120609e-06	-3.250313e-09	-2.912057e+01	-2.136125e+02
6.900000e-07	-4.048697e-06	-3.221662e-09	-2.861237e+01	-2.117657e+02
7.000000e-07	-3.976036e-06	-3.190394e-09	-2.809887e+01	-2.098818e+02
7.100000e-07	-3.902456e-06	-3.162598e-09	-2.757887e+01	-2.079574e+02
7.200000e-07	-3.827913e-06	-3.141342e-09	-2.705207e+01	-2.059895e+02
7.300000e-07	-3.752545e-06	-3.112481e-09	-2.651944e+01	-2.039756e+02
7.400000e-07	-3.676462e-06	-3.073322e-09	-2.598176e+01	-2.019138e+02
7.500000e-07	-3.599761e-06	-3.035123e-09	-2.543971e+01	-1.998028e+02
7.600000e-07	-3.522475e-06	-3.008739e-09	-2.489353e+01	-1.976423e+02
7.700000e-07	-3.444459e-06	-2.986676e-09	-2.434218e+01	-1.954323e+02
7.800000e-07	-3.365693e-06	-2.949511e-09	-2.378554e+01	-1.931738e+02
7.900000e-07	-3.286259e-06	-2.898991e-09	-2.322417e+01	-1.908682e+02
8.000000e-07	-3.206112e-06	-2.854591e-09	-2.265777e+01	-1.885171e+02
8.100000e-07	-3.125307e-06	-2.829818e-09	-2.208671e+01	-1.861223e+02
8.200000e-07	-3.043998e-06	-2.806521e-09	-2.151210e+01	-1.836857e+02
8.300000e-07	-2.962175e-06	-2.760227e-09	-2.093386e+01	-1.812089e+02
8.400000e-07	-2.879843e-06	-2.704220e-09	-2.035201e+01	-1.786930e+02
8.500000e-07	-2.797090e-06	-2.667214e-09	-1.976719e+01	-1.761389e+02
8.600000e-07	-2.713929e-06	-2.648894e-09	-1.917949e+01	-1.735465e+02
8.700000e-07	-2.630336e-06	-2.617337e-09	-1.858873e+01	-1.709156e+02
8.800000e-07	-2.546300e-06	-2.559173e-09	-1.799484e+01	-1.682450e+02
8.900000e-07	-2.461860e-06	-2.500783e-09	-1.739810e+01	-1.655331e+02
9.000000e-07	-2.377072e-06	-2.463851e-09	-1.679890e+01	-1.627781e+02
9.100000e-07	-2.291990e-06	-2.436959e-09	-1.619762e+01	-1.599774e+02
9.200000e-07	-2.206565e-06	-2.394814e-09	-1.559392e+01	-1.571288e+02
9.300000e-07	-2.120769e-06	-2.335332e-09	-1.498759e+01	-1.542296e+02
9.400000e-07	-2.034551e-06	-2.281987e-09	-1.437828e+01	-1.512777e+02
9.500000e-07	-1.947968e-06	-2.250037e-09	-1.376640e+01	-1.482709e+02
9.600000e-07	-1.861139e-06	-2.222307e-09	-1.315277e+01	-1.452077e+02
9.700000e-07	-1.774125e-06	-2.173311e-09	-1.253784e+01	-1.420867e+02
9.800000e-07	-1.686881e-06	-2.109881e-09	-1.192128e+01	-1.389072e+02
9.900000e-07	-1.599362e-06	-2.055774e-09	-1.130278e+01	-1.356690e+02
1.000000e-06	-1.511491e-06	-2.015878e-09	-1.068179e+01	-1.323722e+02
1.010000e-06	-1.423213e-06	-1.972197e-09	-1.005792e+01	-1.290172e+02
1.020000e-06	-1.334685e-06	-1.911418e-09	-9.432294e+00	-1.256048e+02
1.030000e-06	-1.245929e-06	-1.844999e-09	-8.805049e+00	-1.221358e+02
1.040000e-06	-1.156954e-06	-1.791936e-09	-8.176259e+00	-1.186111e+02
1.050000e-06	-1.067790e-06	-1.750800e-09	-7.546127e+00	-1.150314e+02
1.060000e-06	-9.783947e-07	-1.704153e-09	-6.914369e+00	-1.113973e+02
1.070000e-06	-8.888443e-07	-1.642717e-09	-6.281511e+00	-1.077091e+02
1.080000e-06	-7.991065e-07	-1.575203e-09	-5.647330e+00	-1.039668e+02
1.090000e-06	-7.091668e-07	-1.517639e-09	-5.011721e+00	-1.001700e+02
1.100000e-06	-6.191169e-07	-1.470240e-09	-4.375333e+00	-9.631815e+01
1.110000e-06	-5.289241e-07	-1.415741e-09	-3.737936e+00	-9.241014e+01
1.120000e-06	-4.386460e-07	-1.345635e-09	-3.099936e+00	-8.844483e+01
1.130000e-06	-3.483128e-07	-1.272406e-09	-2.461545e+00	-8.442083e+01
1.140000e-06	-2.579049e-07	-1.213033e-09	-1.822628e+00	-8.033668e+01
1.150000e-06	-1.674066e-07	-1.162298e-09	-1.183072e+00	-7.619088e+01
1.160000e-06	-7.687864e-08	-1.101070e-09	-5.433056e-01	-7.198198e+01
1.170000e-06	1.365349e-08	-1.023483e-09	9.648999e-02	-6.770860e+01
1.180000e-06	1.041916e-07	-9.479857e-10	7.363279e-01	-6.336947e+01
1.190000e-06	1.946569e-07	-8.894089e-10	1.375651e+00	-5.896345e+01
1.200000e-06	2.850771e-07	-8.332157e-10	2.014655e+00	-5.448951e+01
1.210000e-06	3.754357e-07	-7.619454e-10	2.653225e+00	-4.994669e+01
1.220000e-06	4.656871e-07	-6.795186e-10	3.291036e+00	-4.533409e+01
1.230000e-06	5.558582e-07	-6.035289e-10	3.928280e+00	-4.065084e+01
1.240000e-06	6.459323e-07	-5.389703e-10	4.564839e+00	-3.589604e+01
1.250000e-06	7.358838e-07	-4.738892e-10	5.200531e+00	-3.106878e+01
1.260000e-06	8.257345e-07	-3.975444e-10	5.835511e+00	-2.616813e+01
1.270000e-06	9.154135e-07	-3.148775e-10	6.469277e+00	-2.119320e+01
1.280000e-06	1.004875e-06	-2.383802e-10	7.101509e+00	-1.614321e+01
1.290000e-06	1.094154e-06	-1.687093e-10	7.732448e+00	-1.101757e+01
1.300000e-06	1.183212e-06	-9.203569e-11	8.361826e+00	-5.816060e+00
1.310000e-06	1.272013e-06	-4.371405e-12	8.989383e+00	-5.389843e-01
1.320000e-06	1.360521e-06	8.603027e-11	9.614875e+00	4.812666e+00
1.330000e-06	1.448781e-06	1.690619e-10	1.023862e+01	1.023701e+01
1.340000e-06	1.536809e-06	2.451407e-10	1.086071e+01	1.573108e+01
1.350000e-06	1.624526e-06	3.248889e-10	1.148062e+01	2.129070e+01
1.360000e-06	1.711961e-06	4.141517e-10	1.209853e+01	2.691032e+01
1.370000e-06	1.799098e-06	5.066531e-10	1.271432e+01	3.258298e+01
1.380000e-06	1.885934e-06	5.921317e-10	1.332800e+01	3.830024e+01
1.390000e-06	1.972498e-06	6.728469e-10	1.393975e+01	4.405227e+01
1.400000e-06	2.058749e-06	7.599801e-10	1.454929e+01	4.982794e+01
1.410000e-06	2.144662e-06	8.564404e-10	1.515645e+01	5.561500e+01
1.420000e-06	2.230173e-06	9.520398e-10	1.576076e+01	6.140036e+01
1.430000e-06	2.315247e-06	1.038862e-09	1.636198e+01	6.717031e+01
1.440000e-06	2.399960e-06	1.120679e-09	1.696065e+01	7.291093e+01
1.450000e-06	2.484384e-06	1.207538e-09	1.755728e+01	7.860841e+01
1.460000e-06	2.568524e-06	1.298386e-09	1.815190e+01	8.424940e+01
1.470000e-06	2.652294e-06	1.385538e-09	1.874390e+01	8.982137e+01
1.480000e-06	2.735652e-06	1.464527e-09	1.933300e+01	9.531294e+01
1.490000e-06	2.818509e-06	1.539357e-09	1.991856e+01	1.007141e+02
1.500000e-06	2.900786e-06	1.618651e-09	2.050002e+01	1.060164e+02
1.510000e-06	2.982556e-06	1.701191e-09	2.107789e+01	1.112132e+02
1.520000e-06	3.063841e-06	1.778814e-09	2.165234e+01	1.162994e+02
1.530000e-06	3.144594e-06	1.850257e-09	2.222302e+01	1.212719e+02
1.540000e-06	3.224662e-06	1.921621e-09	2.278886e+01	1.261291e+02
1.550000e-06	3.304047e-06	1.996892e-09	2.334989e+01	1.308706e+02
1.560000e-06	3.382894e-06	2.071990e-09	2.390710e+01	1.354976e+02
1.570000e-06	3.461211e-06	2.141988e-09	2.446057e+01	1.400119e+02
1.580000e-06	3.538915e-06	2.205783e-09	2.500971e+01	1.444160e+02
1.590000e-06	3.615957e-06	2.268084e-09	2.555417e+01	1.487130e+02
1.600000e-06	3.692405e-06	2.333874e-09	2.609443e+01	1.529057e+02
1.610000e-06	3.768247e-06	2.400486e-09	2.663041e+01	1.569972e+02
1.620000e-06	3.843252e-06	2.461281e-09	2.716047e+01	1.609898e+02
1.630000e-06	3.917260e-06	2.514685e-09	2.768349e+01	1.648857e+02
1.640000e-06	3.990360e-06	2.568187e-09	2.820010e+01	1.686863e+02
1.650000e-06	4.062697e-06	2.624786e-09	2.871130e+01	1.723926e+02
1.660000e-06	4.134356e-06	2.681207e-09	2.921772e+01	1.760050e+02
1.670000e-06	4.205311e-06	2.733376e-09	2.971916e+01	1.795237e+02
1.680000e-06	4.275521e-06	2.780448e-09	3.021534e+01	1.829482e+02
1.690000e-06	4.344972e-06	2.828040e-09	3.070616e+01	1.862784e+02
1.700000e-06	4.413708e-06	2.877760e-09	3.119192e+01	1.895139e+02
1.710000e-06	4.481890e-06	2.926369e-09	3.167376e+01	1.926545e+02
1.720000e-06	4.549402e-06	2.971081e-09	3.215087e+01	1.957006e+02
1.730000e-06	4.615933e-06	3.012292e-09	3.262105e+01	1.986529e+02
1.740000e-06	4.681409e-06	3.053702e-09	3.308377e+01	2.015125e+02
1.750000e-06	4.745984e-06	3.095400e-09	3.354013e+01	2.042814e+02
1.760000e-06	4.809748e-06	3.135646e-09	3.399075e+01	2.069618e+02
1.770000e-06	4.872702e-06	3.172038e-09	3.443565e+01	2.095566e+02
1.780000e-06	4.934883e-06	3.205310e-09	3.487509e+01	2.120689e+02
1.790000e-06	4.996291e-06	3.239362e-09	3.530906e+01	2.145021e+02
1.800000e-06	5.056940e-06	3.273921e-09	3.573767e+01	2.168599e+02
1.810000e-06	5.116824e-06	3.309209e-09	3.616087e+01	2.191455e+02
1.820000e-06	5.175794e-06	3.342224e-09	3.657762e+01	2.213623e+02
1.830000e-06	5.233672e-06	3.373493e-09	3.698664e+01	2.235131e+02
1.840000e-06	5.290491e-06	3.405984e-09	3.738819e+01	2.256005e+02
1.850000e-06	5.346332e-06	3.437934e-09	3.778282e+01	2.276264e+02
1.860000e-06	5.401273e-06	3.469081e-09	3.817109e+01	2.295923e+02
1.870000e-06	5.455374e-06	3.495863e-09	3.855343e+01	2.314993e+02
1.880000e-06	5.508534e-06	3.519196e-09	3.892911e+01	2.333479e+02
1.890000e-06	5.560679e-06	3.543165e-09	3.929762e+01	2.351384e+02
1.900000e-06	5.611624e-06	3.568881e-09	3.965766e+01	2.368709e+02
1.910000e-06	5.661163e-06	3.595217e-09	4.000775e+01	2.385451e+02
1.920000e-06	5.709520e-06	3.618146e-09	4.034949e+01	2.401612e+02
1.930000e-06	5.756865e-06	3.639952e-09	4.068408e+01	2.417193e+02
1.940000e-06	5.803187e-06	3.663498e-09	4.101144e+01	2.432196e+02
1.950000e-06	5.848538e-06	3.688062e-09	4.133194e+01	2.446628e+02
1.960000e-06	5.893059e-06	3.709635e-09	4.164657e+01	2.460500e+02
1.970000e-06	5.936757e-06	3.726570e-09	4.195538e+01	2.473826e+02
1.980000e-06	5.979310e-06	3.744899e-09	4.225612e+01	2.486620e+02
1.990000e-06	6.020508e-06	3.766445e-09	4.254726e+01	2.498904e+02
2.000000e-06	6.060498e-06	3.786864e-09	4.282987e+01	2.510697e+02
2.010000e-06	6.099429e-06	3.802903e-09	4.310500e+01	2.522020e+02
2.020000e-06	6.137387e-06	3.817568e-09	4.337325e+01	2.532894e+02
2.030000e-06	6.174393e-06	3.835024e-09	4.363477e+01	2.543338e+02
2.040000e-06	6.210447e-06	3.852247e-09	4.388957e+01	2.553367e+02
2.050000e-06	6.245492e-06	3.865785e-09	4.413723e+01	2.562996e+02
2.060000e-06	6.279296e-06	3.876485e-09	4.437613e+01	2.572234e+02
2.070000e-06	6.311849e-06	3.887580e-09	4.460618e+01	2.581087e+02
2.080000e-06	6.343319e-06	3.900408e-09	4.482859e+01	2.589558e+02
2.090000e-06	6.373736e-06	3.912970e-09	4.504354e+01	2.597648e+02
2.100000e-06	6.403072e-06	3.924034e-09	4.525086e+01	2.605354e+02
2.110000e-06	6.431437e-06	3.935277e-09	4.545132e+01	2.612677e+02
2.120000e-06	6.458760e-06	3.948100e-09	4.564441e+01	2.619614e+02
2.130000e-06	6.484825e-06	3.961111e-09	4.582862e+01	2.626167e+02
2.140000e-06	6.509519e-06	3.972676e-09	4.600313e+01	2.632339e+02
2.150000e-06	6.532945e-06	3.982891e-09	4.616868e+01	2.638137e+02
2.160000e-06	6.555293e-06	3.991311e-09	4.632662e+01	2.643572e+02
2.170000e-06	6.576536e-06	3.998524e-09	4.647674e+01	2.648657e+02
2.180000e-06	6.596775e-06	4.004978e-09	4.661977e+01	2.653409e+02
2.190000e-06	6.616055e-06	4.010225e-09	4.675602e+01	2.657849e+02
2.200000e-06	6.634148e-06	4.015825e-09	4.688389e+01	2.661997e+02
2.210000e-06	6.650982e-06	4.021669e-09	4.700286e+01	2.665873e+02
2.220000e-06	6.666647e-06	4.026804e-09	4.711356e+01	2.669496e+02
2.230000e-06	6.681059e-06	4.034652e-09	4.721541e+01	2.672881e+02
2.240000e-06	6.694229e-06	4.043971e-09	4.730849e+01	2.676038e+02
2.250000e-06	6.706196e-06	4.049135e-09	4.739306e+01	2.678973e+02
2.260000e-06	6.716772e-06	4.050718e-09	4.746780e+01	2.681682e+02
2.270000e-06	6.725817e-06	4.053709e-09	4.753172e+01	2.684159e+02
2.280000e-06	6.733596e-06	4.059572e-09	4.758669e+01	2.686388e+02
2.290000e-06	6.740293e-06	4.063091e-09	4.763402e+01	2.688351e+02
2.300000e-06	6.745835e-06	4.063985e-09	4.767319e+01	2.690023e+02
2.310000e-06	6.750329e-06	4.064893e-09	4.770495e+01	2.691381e+02
2.320000e-06	6.753824e-06	4.067355e-09	4.772964e+01	2.692401e+02
2.330000e-06	6.756034e-06	4.069406e-09	4.774526e+01	2.693063e+02
2.340000e-06	6.756810e-06	4.068196e-09	4.775075e+01	2.693352e+02
2.350000e-06	6.756434e-06	4.066167e-09	4.774809e+01	2.693262e+02
2.360000e-06	6.755023e-06	4.065551e-09	4.773812e+01	2.692798e+02
2.370000e-06	6.752525e-06	4.064524e-09	4.772046e+01	2.691976e+02
2.380000e-06	6.749010e-06	4.062771e-09	4.769562e+01	2.690821e+02
2.390000e-06	6.744582e-06	4.060998e-09	4.766433e+01	2.689375e+02
2.400000e-06	6.739031e-06	4.059792e-09	4.762510e+01	2.687687e+02
2.410000e-06	6.732104e-06	4.057350e-09	4.757615e+01	2.685815e+02
2.420000e-06	6.724034e-06	4.040409e-09	4.751912e+01	2.683825e+02
2.430000e-06	6.715035e-06	4.041524e-09	4.745552e+01	2.681783e+02
2.440000e-06	6.704813e-06	4.071190e-09	4.738328e+01	2.679755e+02
2.450000e-06	6.692849e-06	4.056607e-09	4.729873e+01	2.677803e+02
2.460000e-06	6.678849e-06	4.050993e-09	4.719979e+01	2.675978e+02
2.470000e-06	6.663311e-06	3.984868e-09	4.708999e+01	2.674319e+02
2.480000e-06	6.647160e-06	4.016530e-09	4.697584e+01	2.672849e+02
2.490000e-06	6.630475e-06	4.154108e-09	4.685793e+01	2.671573e+02
2.500000e-06	6.612468e-06	4.027827e-09	4.673068e+01	2.670475e+02
2.510000e-06	6.593103e-06	4.020261e-09	4.659382e+01	2.669522e+02
2.520000e-06	6.573004e-06	4.107783e-09	4.645178e+01	2.668659e+02
2.530000e-06	6.551813e-06	3.971214e-09	4.630202e+01	2.667817e+02
2.540000e-06	6.529002e-06	4.036389e-09	4.614082e+01	2.666910e+02
2.550000e-06	6.504962e-06	4.159145e-09	4.597092e+01	2.665844e+02
2.560000e-06	6.479996e-06	4.001484e-09	4.579449e+01	2.664519e+02
2.570000e-06	6.454019e-06	4.013569e-09	4.561091e+01	2.662835e+02
2.580000e-06	6.426943e-06	4.148556e-09	4.541956e+01	2.660695e+02
2.590000e-06	6.398732e-06	4.102282e-09	4.522019e+01	2.658014e+02
2.600000e-06	6.369518e-06	4.124462e-09	4.501374e+01	2.654717e+02
2.610000e-06	6.339072e-06	4.084472e-09	4.479857e+01	2.650748e+02
2.620000e-06	6.307161e-06	4.040325e-09	4.457306e+01	2.646071e+02
2.630000e-06	6.274102e-06	4.109441e-09	4.433943e+01	2.640670e+02
2.640000e-06	6.240022e-06	4.031452e-09	4.409858e+01	2.634550e+02
2.650000e-06	6.204876e-06	4.059703e-09	4.385020e+01	2.627738e+02
2.660000e-06	6.168727e-06	4.085030e-09	4.359473e+01	2.620276e+02
2.670000e-06	6.131444e-06	3.937760e-09	4.333125e+01	2.612224e+02
2.680000e-06	6.092890e-06	3.959027e-09	4.305879e+01	2.603649e+02
2.690000e-06	6.053113e-06	4.025473e-09	4.277768e+01	2.594629e+02
2.700000e-06	6.012287e-06	4.031690e-09	4.248916e+01	2.585241e+02
2.710000e-06	5.970592e-06	3.948487e-09	4.219450e+01	2.575559e+02
2.720000e-06	5.927911e-06	3.854009e-09	4.189287e+01	2.565651e+02
2.730000e-06	5.884216e-06	3.945687e-09	4.158408e+01	2.555575e+02
2.740000e-06	5.839575e-06	3.972645e-09	4.126860e+01	2.545374e+02
2.750000e-06	5.793927e-06	3.913417e-09	4.094600e+01	2.535076e+02
2.760000e-06	5.747213e-06	3.845521e-09	4.061587e+01	2.524694e+02
2.770000e-06	5.699341e-06	3.808505e-09	4.027756e+01	2.514225e+02
2.780000e-06	5.650428e-06	3.889648e-09	3.993188e+01	2.503649e+02
2.790000e-06	5.600588e-06	3.879071e-09	3.957966e+01	2.492939e+02
2.800000e-06	5.549719e-06	3.808553e-09	3.922017e+01	2.482053e+02
2.810000e-06	5.497821e-06	3.750346e-09	3.885340e+01	2.470947e+02
2.820000e-06	5.444772e-06	3.739516e-09	3.847850e+01	2.459574e+02
2.830000e-06	5.390449e-06	3.806513e-09	3.809460e+01	2.447885e+02
2.840000e-06	5.334976e-06	3.778284e-09	3.770257e+01	2.435841e+02
2.850000e-06	5.278544e-06	3.702129e-09	3.730376e+01	2.423405e+02
2.860000e-06	5.221291e-06	3.659639e-09	3.689915e+01	2.410553e+02
2.870000e-06	5.163160e-06	3.680039e-09	3.648834e+01	2.397269e+02
2.880000e-06	5.104185e-06	3.702322e-09	3.607155e+01	2.383549e+02
2.890000e-06	5.044465e-06	3.644498e-09	3.564951e+01	2.369399e+02
2.900000e-06	4.983884e-06	3.597642e-09	3.522138e+01	2.354836e+02
2.910000e-06	4.922246e-06	3.579355e-09	3.478578e+01	2.339884e+02
2.920000e-06	4.859522e-06	3.581215e-09	3.434251e+01	2.324569e+02
2.930000e-06	4.795800e-06	3.563105e-09	3.389218e+01	2.308924e+02
2.940000e-06	4.731211e-06	3.527195e-09	3.343573e+01	2.292979e+02
