# Temperatura_=_20.0
# Concentracion g/m^3_=_12600.0
# C_Vs_to_Am_M_A/Vsm_=_65563218390.804596
# pendiente_HvsI_1/m_=_3716.3
# ordenada_HvsI_A/m_=_1297.0
# frecuencia_Hz_=_213175.2950102386

Tiempo_(s)	Campo_(V.s)	Magnetizacion_(V.s)	Campo_(kA/m)	Magnetizacion_(A/m)
0.000000e+00	-6.708042e-06	-4.025577e-09	-4.757477e+01	-2.595150e+02
1.000000e-08	-6.707635e-06	-4.023685e-09	-4.757188e+01	-2.594869e+02
2.000000e-08	-6.705946e-06	-4.021678e-09	-4.755990e+01	-2.594227e+02
3.000000e-08	-6.702868e-06	-4.021867e-09	-4.753807e+01	-2.593255e+02
4.000000e-08	-6.698768e-06	-4.023002e-09	-4.750899e+01	-2.592001e+02
5.000000e-08	-6.693746e-06	-4.022183e-09	-4.747338e+01	-2.590527e+02
6.000000e-08	-6.687564e-06	-4.018129e-09	-4.742953e+01	-2.588906e+02
7.000000e-08	-6.680232e-06	-4.015368e-09	-4.737753e+01	-2.587221e+02
8.000000e-08	-6.671971e-06	-4.021184e-09	-4.731895e+01	-2.585557e+02
9.000000e-08	-6.662470e-06	-4.008101e-09	-4.725156e+01	-2.584000e+02
1.000000e-07	-6.651179e-06	-4.001618e-09	-4.717148e+01	-2.582630e+02
1.100000e-07	-6.638139e-06	-4.009477e-09	-4.707900e+01	-2.581517e+02
1.200000e-07	-6.623623e-06	-3.998477e-09	-4.697605e+01	-2.580713e+02
1.300000e-07	-6.607738e-06	-4.014562e-09	-4.686339e+01	-2.580253e+02
1.400000e-07	-6.590708e-06	-3.983952e-09	-4.674261e+01	-2.580147e+02
1.500000e-07	-6.572734e-06	-3.943862e-09	-4.661514e+01	-2.580382e+02
1.600000e-07	-6.553798e-06	-4.012023e-09	-4.648084e+01	-2.580920e+02
1.700000e-07	-6.534077e-06	-3.972781e-09	-4.634097e+01	-2.581698e+02
1.800000e-07	-6.513443e-06	-3.923420e-09	-4.619463e+01	-2.582630e+02
1.900000e-07	-6.491562e-06	-3.987122e-09	-4.603945e+01	-2.583613e+02
2.000000e-07	-6.468664e-06	-3.954630e-09	-4.587705e+01	-2.584530e+02
2.100000e-07	-6.444848e-06	-3.935533e-09	-4.570814e+01	-2.585255e+02
2.200000e-07	-6.419747e-06	-3.981879e-09	-4.553012e+01	-2.585661e+02
2.300000e-07	-6.393139e-06	-3.916300e-09	-4.534141e+01	-2.585622e+02
2.400000e-07	-6.365335e-06	-3.884805e-09	-4.514422e+01	-2.585024e+02
2.500000e-07	-6.336637e-06	-3.956104e-09	-4.494069e+01	-2.583767e+02
2.600000e-07	-6.306918e-06	-3.935758e-09	-4.472992e+01	-2.581770e+02
2.700000e-07	-6.276031e-06	-3.872614e-09	-4.451086e+01	-2.578975e+02
2.800000e-07	-6.244099e-06	-3.831574e-09	-4.428439e+01	-2.575349e+02
2.900000e-07	-6.211226e-06	-3.849274e-09	-4.405125e+01	-2.570882e+02
3.000000e-07	-6.177132e-06	-3.910097e-09	-4.380945e+01	-2.565591e+02
3.100000e-07	-6.141681e-06	-3.882407e-09	-4.355802e+01	-2.559514e+02
3.200000e-07	-6.105054e-06	-3.796606e-09	-4.329826e+01	-2.552708e+02
3.300000e-07	-6.067370e-06	-3.767377e-09	-4.303100e+01	-2.545243e+02
3.400000e-07	-6.028755e-06	-3.838099e-09	-4.275713e+01	-2.537202e+02
3.500000e-07	-5.989165e-06	-3.895597e-09	-4.247635e+01	-2.528669e+02
3.600000e-07	-5.948519e-06	-3.796162e-09	-4.218808e+01	-2.519729e+02
3.700000e-07	-5.906596e-06	-3.703309e-09	-4.189075e+01	-2.510461e+02
3.800000e-07	-5.863287e-06	-3.758213e-09	-4.158360e+01	-2.500936e+02
3.900000e-07	-5.818966e-06	-3.840997e-09	-4.126926e+01	-2.491210e+02
4.000000e-07	-5.773686e-06	-3.800749e-09	-4.094813e+01	-2.481325e+02
4.100000e-07	-5.727372e-06	-3.661518e-09	-4.061966e+01	-2.471305e+02
4.200000e-07	-5.680078e-06	-3.633923e-09	-4.028424e+01	-2.461162e+02
4.300000e-07	-5.631815e-06	-3.731565e-09	-3.994195e+01	-2.450888e+02
4.400000e-07	-5.582481e-06	-3.766819e-09	-3.959206e+01	-2.440466e+02
4.500000e-07	-5.531744e-06	-3.667643e-09	-3.923223e+01	-2.429866e+02
4.600000e-07	-5.479681e-06	-3.560407e-09	-3.886299e+01	-2.419052e+02
4.700000e-07	-5.426599e-06	-3.596762e-09	-3.848652e+01	-2.407985e+02
4.800000e-07	-5.372571e-06	-3.681062e-09	-3.810334e+01	-2.396627e+02
4.900000e-07	-5.317634e-06	-3.651610e-09	-3.771372e+01	-2.384942e+02
5.000000e-07	-5.261788e-06	-3.541313e-09	-3.731765e+01	-2.372899e+02
5.100000e-07	-5.205026e-06	-3.491530e-09	-3.691508e+01	-2.360477e+02
5.200000e-07	-5.147263e-06	-3.543187e-09	-3.650541e+01	-2.347664e+02
5.300000e-07	-5.088359e-06	-3.572861e-09	-3.608766e+01	-2.334455e+02
5.400000e-07	-5.028474e-06	-3.513673e-09	-3.566294e+01	-2.320858e+02
5.500000e-07	-4.967840e-06	-3.439248e-09	-3.523291e+01	-2.306886e+02
5.600000e-07	-4.906367e-06	-3.422503e-09	-3.479693e+01	-2.292559e+02
5.700000e-07	-4.844068e-06	-3.451283e-09	-3.435510e+01	-2.277899e+02
5.800000e-07	-4.780992e-06	-3.453353e-09	-3.390774e+01	-2.262933e+02
5.900000e-07	-4.717103e-06	-3.401420e-09	-3.345463e+01	-2.247684e+02
6.000000e-07	-4.652399e-06	-3.338052e-09	-3.299574e+01	-2.232171e+02
6.100000e-07	-4.586684e-06	-3.311830e-09	-3.252967e+01	-2.216410e+02
6.200000e-07	-4.519816e-06	-3.327397e-09	-3.205543e+01	-2.200409e+02
6.300000e-07	-4.452107e-06	-3.330070e-09	-3.157523e+01	-2.184167e+02
6.400000e-07	-4.383804e-06	-3.279704e-09	-3.109081e+01	-2.167678e+02
6.500000e-07	-4.314879e-06	-3.208155e-09	-3.060198e+01	-2.150927e+02
6.600000e-07	-4.245219e-06	-3.182237e-09	-3.010793e+01	-2.133892e+02
6.700000e-07	-4.174788e-06	-3.212333e-09	-2.960843e+01	-2.116549e+02
6.800000e-07	-4.103654e-06	-3.214571e-09	-2.910393e+01	-2.098869e+02
6.900000e-07	-4.031823e-06	-3.139933e-09	-2.859449e+01	-2.080824e+02
7.000000e-07	-3.959342e-06	-3.062484e-09	-2.808044e+01	-2.062386e+02
7.100000e-07	-3.886113e-06	-3.060975e-09	-2.756108e+01	-2.043532e+02
7.200000e-07	-3.812010e-06	-3.097051e-09	-2.703553e+01	-2.024243e+02
7.300000e-07	-3.737051e-06	-3.067366e-09	-2.650391e+01	-2.004505e+02
7.400000e-07	-3.661313e-06	-2.973919e-09	-2.596676e+01	-1.984313e+02
7.500000e-07	-3.584886e-06	-2.917561e-09	-2.542472e+01	-1.963667e+02
7.600000e-07	-3.507767e-06	-2.933198e-09	-2.487778e+01	-1.942573e+02
7.700000e-07	-3.429939e-06	-2.946165e-09	-2.432581e+01	-1.921042e+02
7.800000e-07	-3.351485e-06	-2.884949e-09	-2.376940e+01	-1.899090e+02
7.900000e-07	-3.272348e-06	-2.796426e-09	-2.320814e+01	-1.876732e+02
8.000000e-07	-3.192422e-06	-2.764213e-09	-2.264129e+01	-1.853986e+02
8.100000e-07	-3.111849e-06	-2.777287e-09	-2.206985e+01	-1.830865e+02
8.200000e-07	-3.030721e-06	-2.761210e-09	-2.149447e+01	-1.807382e+02
8.300000e-07	-2.949108e-06	-2.688570e-09	-2.091566e+01	-1.783541e+02
8.400000e-07	-2.867027e-06	-2.619124e-09	-2.033353e+01	-1.759344e+02
8.500000e-07	-2.784404e-06	-2.600161e-09	-1.974754e+01	-1.734785e+02
8.600000e-07	-2.701362e-06	-2.599258e-09	-1.915859e+01	-1.709851e+02
8.700000e-07	-2.617935e-06	-2.565619e-09	-1.856691e+01	-1.684525e+02
8.800000e-07	-2.534098e-06	-2.496440e-09	-1.797233e+01	-1.658785e+02
8.900000e-07	-2.449952e-06	-2.436798e-09	-1.737554e+01	-1.632606e+02
9.000000e-07	-2.365501e-06	-2.410861e-09	-1.677660e+01	-1.605961e+02
9.100000e-07	-2.280698e-06	-2.394704e-09	-1.617516e+01	-1.578822e+02
9.200000e-07	-2.195551e-06	-2.354780e-09	-1.557128e+01	-1.551165e+02
9.300000e-07	-2.110055e-06	-2.285944e-09	-1.496493e+01	-1.522968e+02
9.400000e-07	-2.024094e-06	-2.224665e-09	-1.435528e+01	-1.494213e+02
9.500000e-07	-1.937719e-06	-2.198045e-09	-1.374269e+01	-1.464889e+02
9.600000e-07	-1.851099e-06	-2.181026e-09	-1.312836e+01	-1.434987e+02
9.700000e-07	-1.764254e-06	-2.133948e-09	-1.251244e+01	-1.404507e+02
9.800000e-07	-1.677109e-06	-2.059587e-09	-1.189439e+01	-1.373452e+02
9.900000e-07	-1.589596e-06	-2.000290e-09	-1.127373e+01	-1.341828e+02
1.000000e-06	-1.501779e-06	-1.972888e-09	-1.065091e+01	-1.309647e+02
1.010000e-06	-1.413751e-06	-1.944662e-09	-1.002661e+01	-1.276920e+02
1.020000e-06	-1.325594e-06	-1.882987e-09	-9.401378e+00	-1.243657e+02
1.030000e-06	-1.237262e-06	-1.803238e-09	-8.774905e+00	-1.209869e+02
1.040000e-06	-1.148630e-06	-1.748849e-09	-8.146313e+00	-1.175563e+02
1.050000e-06	-1.059777e-06	-1.721687e-09	-7.516150e+00	-1.140742e+02
1.060000e-06	-9.708323e-07	-1.682664e-09	-6.885336e+00	-1.105406e+02
1.070000e-06	-8.817468e-07	-1.612682e-09	-6.253523e+00	-1.069549e+02
1.080000e-06	-7.924411e-07	-1.536027e-09	-5.620150e+00	-1.033164e+02
1.090000e-06	-7.029572e-07	-1.486571e-09	-4.985512e+00	-9.962359e+01
1.100000e-06	-6.133659e-07	-1.453269e-09	-4.350113e+00	-9.587507e+01
1.110000e-06	-5.236720e-07	-1.400756e-09	-3.713986e+00	-9.206908e+01
1.120000e-06	-4.338609e-07	-1.324265e-09	-3.077028e+00	-8.820382e+01
1.130000e-06	-3.439187e-07	-1.249278e-09	-2.439140e+00	-8.427757e+01
1.140000e-06	-2.538499e-07	-1.197094e-09	-1.800354e+00	-8.028874e+01
1.150000e-06	-1.637339e-07	-1.152965e-09	-1.161233e+00	-7.623598e+01
1.160000e-06	-7.357221e-08	-1.092071e-09	-5.217887e-01	-7.211820e+01
1.170000e-06	1.661062e-08	-1.010879e-09	1.178058e-01	-6.793460e+01
1.180000e-06	1.067543e-07	-9.317395e-10	7.571225e-01	-6.368466e+01
1.190000e-06	1.968503e-07	-8.764305e-10	1.396101e+00	-5.936806e+01
1.200000e-06	2.869469e-07	-8.289032e-10	2.035084e+00	-5.498461e+01
1.210000e-06	3.770039e-07	-7.619003e-10	2.673786e+00	-5.053418e+01
1.220000e-06	4.669500e-07	-6.750925e-10	3.311702e+00	-4.601655e+01
1.230000e-06	5.567931e-07	-5.969016e-10	3.948887e+00	-4.143137e+01
1.240000e-06	6.465033e-07	-5.412457e-10	4.585130e+00	-3.677807e+01
1.250000e-06	7.361052e-07	-4.850822e-10	5.220605e+00	-3.205581e+01
1.260000e-06	8.255481e-07	-4.066930e-10	5.854951e+00	-2.726349e+01
1.270000e-06	9.147603e-07	-3.156115e-10	6.487662e+00	-2.239982e+01
1.280000e-06	1.003757e-06	-2.378326e-10	7.118847e+00	-1.746341e+01
1.290000e-06	1.092554e-06	-1.775501e-10	7.748608e+00	-1.245292e+01
1.300000e-06	1.181158e-06	-1.086843e-10	8.377008e+00	-7.367258e+00
1.310000e-06	1.269631e-06	-1.727886e-11	9.004472e+00	-2.205833e+00
1.320000e-06	1.357892e-06	7.897115e-11	9.630437e+00	3.031220e+00
1.330000e-06	1.445829e-06	1.560977e-10	1.025411e+01	8.342776e+00
1.340000e-06	1.533476e-06	2.216463e-10	1.087572e+01	1.372648e+01
1.350000e-06	1.620840e-06	2.999987e-10	1.149532e+01	1.917854e+01
1.360000e-06	1.707926e-06	3.949846e-10	1.211295e+01	2.469359e+01
1.370000e-06	1.794738e-06	4.896636e-10	1.272864e+01	3.026456e+01
1.380000e-06	1.881292e-06	5.690996e-10	1.334250e+01	3.588270e+01
1.390000e-06	1.967612e-06	6.427102e-10	1.395469e+01	4.153764e+01
1.400000e-06	2.053629e-06	7.296185e-10	1.456475e+01	4.721752e+01
1.410000e-06	2.139267e-06	8.291620e-10	1.517211e+01	5.290925e+01
1.420000e-06	2.224508e-06	9.243615e-10	1.577665e+01	5.859879e+01
1.430000e-06	2.309343e-06	1.004950e-09	1.637832e+01	6.427150e+01
1.440000e-06	2.393857e-06	1.079314e-09	1.697771e+01	6.991254e+01
1.450000e-06	2.478114e-06	1.162537e-09	1.757528e+01	7.550731e+01
1.460000e-06	2.562057e-06	1.253054e-09	1.817062e+01	8.104178e+01
1.470000e-06	2.645575e-06	1.339668e-09	1.876294e+01	8.650295e+01
1.480000e-06	2.728621e-06	1.413880e-09	1.935192e+01	9.187909e+01
1.490000e-06	2.811175e-06	1.484744e-09	1.993741e+01	9.716008e+01
1.500000e-06	2.893204e-06	1.566071e-09	2.051918e+01	1.023375e+02
1.510000e-06	2.974743e-06	1.653990e-09	2.109747e+01	1.074050e+02
1.520000e-06	3.055814e-06	1.732651e-09	2.167244e+01	1.123577e+02
1.530000e-06	3.136300e-06	1.798473e-09	2.224327e+01	1.171928e+02
1.540000e-06	3.216169e-06	1.863170e-09	2.280971e+01	1.219092e+02
1.550000e-06	3.295452e-06	1.937933e-09	2.337200e+01	1.265069e+02
1.560000e-06	3.374048e-06	2.016677e-09	2.392942e+01	1.309874e+02
1.570000e-06	3.451970e-06	2.082426e-09	2.448205e+01	1.353529e+02
1.580000e-06	3.529275e-06	2.134463e-09	2.503032e+01	1.396063e+02
1.590000e-06	3.605975e-06	2.189595e-09	2.557429e+01	1.437505e+02
1.600000e-06	3.682066e-06	2.258436e-09	2.611394e+01	1.477889e+02
1.610000e-06	3.757542e-06	2.327810e-09	2.664924e+01	1.517244e+02
1.620000e-06	3.832255e-06	2.384113e-09	2.717911e+01	1.555597e+02
1.630000e-06	3.905926e-06	2.430545e-09	2.770160e+01	1.592970e+02
1.640000e-06	3.978605e-06	2.481210e-09	2.821706e+01	1.629383e+02
1.650000e-06	4.050578e-06	2.540897e-09	2.872751e+01	1.664849e+02
1.660000e-06	4.121968e-06	2.597498e-09	2.923382e+01	1.699379e+02
1.670000e-06	4.192670e-06	2.642738e-09	2.973525e+01	1.732982e+02
1.680000e-06	4.262609e-06	2.682143e-09	3.023127e+01	1.765665e+02
1.690000e-06	4.331798e-06	2.727854e-09	3.072198e+01	1.797437e+02
1.700000e-06	4.400264e-06	2.779615e-09	3.120754e+01	1.828306e+02
1.710000e-06	4.468142e-06	2.826577e-09	3.168895e+01	1.858284e+02
1.720000e-06	4.535427e-06	2.865240e-09	3.216615e+01	1.887389e+02
1.730000e-06	4.601785e-06	2.901853e-09	3.263678e+01	1.915638e+02
1.740000e-06	4.666929e-06	2.944114e-09	3.309878e+01	1.943057e+02
1.750000e-06	4.731099e-06	2.989925e-09	3.355390e+01	1.969670e+02
1.760000e-06	4.794591e-06	3.029227e-09	3.400419e+01	1.995508e+02
1.770000e-06	4.857347e-06	3.060123e-09	3.444927e+01	2.020601e+02
1.780000e-06	4.919336e-06	3.089346e-09	3.488891e+01	2.044979e+02
1.790000e-06	4.980489e-06	3.123926e-09	3.532262e+01	2.068670e+02
1.800000e-06	5.040835e-06	3.162589e-09	3.575061e+01	2.091701e+02
1.810000e-06	5.100574e-06	3.197540e-09	3.617428e+01	2.114093e+02
1.820000e-06	5.159502e-06	3.224882e-09	3.659221e+01	2.135864e+02
1.830000e-06	5.217163e-06	3.251291e-09	3.700116e+01	2.157024e+02
1.840000e-06	5.273623e-06	3.284297e-09	3.740158e+01	2.177579e+02
1.850000e-06	5.329270e-06	3.318093e-09	3.779624e+01	2.197532e+02
1.860000e-06	5.384080e-06	3.344581e-09	3.818497e+01	2.216880e+02
1.870000e-06	5.437977e-06	3.364566e-09	3.856721e+01	2.235617e+02
1.880000e-06	5.490910e-06	3.386238e-09	3.894263e+01	2.253737e+02
1.890000e-06	5.542765e-06	3.413247e-09	3.931039e+01	2.271236e+02
1.900000e-06	5.593354e-06	3.439794e-09	3.966918e+01	2.288108e+02
1.910000e-06	5.642513e-06	3.460807e-09	4.001783e+01	2.304354e+02
1.920000e-06	5.690516e-06	3.479575e-09	4.035827e+01	2.319979e+02
1.930000e-06	5.737572e-06	3.502757e-09	4.069200e+01	2.334993e+02
1.940000e-06	5.783673e-06	3.528760e-09	4.101896e+01	2.349413e+02
1.950000e-06	5.828794e-06	3.551459e-09	4.133897e+01	2.363259e+02
1.960000e-06	5.872982e-06	3.568110e-09	4.165236e+01	2.376559e+02
1.970000e-06	5.916373e-06	3.582624e-09	4.196009e+01	2.389343e+02
1.980000e-06	5.958746e-06	3.600709e-09	4.226061e+01	2.401644e+02
1.990000e-06	5.999700e-06	3.621296e-09	4.255106e+01	2.413496e+02
2.000000e-06	6.039485e-06	3.639751e-09	4.283323e+01	2.424929e+02
2.010000e-06	6.078374e-06	3.654782e-09	4.310904e+01	2.435973e+02
2.020000e-06	6.116242e-06	3.669714e-09	4.337760e+01	2.446652e+02
2.030000e-06	6.153082e-06	3.687115e-09	4.363888e+01	2.456981e+02
2.040000e-06	6.189002e-06	3.704854e-09	4.389363e+01	2.466973e+02
2.050000e-06	6.223931e-06	3.718797e-09	4.414136e+01	2.476630e+02
2.060000e-06	6.257545e-06	3.728400e-09	4.437976e+01	2.485948e+02
2.070000e-06	6.289865e-06	3.739828e-09	4.460897e+01	2.494918e+02
2.080000e-06	6.321128e-06	3.755975e-09	4.483070e+01	2.503526e+02
2.090000e-06	6.351376e-06	3.771322e-09	4.504522e+01	2.511754e+02
2.100000e-06	6.380595e-06	3.781888e-09	4.525245e+01	2.519585e+02
2.110000e-06	6.408860e-06	3.790816e-09	4.545291e+01	2.527002e+02
2.120000e-06	6.436112e-06	3.802281e-09	4.564619e+01	2.533992e+02
2.130000e-06	6.462023e-06	3.815187e-09	4.582995e+01	2.540548e+02
2.140000e-06	6.486476e-06	3.826291e-09	4.600338e+01	2.546668e+02
2.150000e-06	6.509780e-06	3.833280e-09	4.616866e+01	2.552359e+02
2.160000e-06	6.532071e-06	3.837412e-09	4.632675e+01	2.557634e+02
2.170000e-06	6.553282e-06	3.843223e-09	4.647718e+01	2.562515e+02
2.180000e-06	6.573512e-06	3.850544e-09	4.662066e+01	2.567029e+02
2.190000e-06	6.592833e-06	3.856493e-09	4.675768e+01	2.571207e+02
2.200000e-06	6.611013e-06	3.861826e-09	4.688662e+01	2.575083e+02
2.210000e-06	6.627904e-06	3.867989e-09	4.700641e+01	2.578691e+02
2.220000e-06	6.643523e-06	3.874894e-09	4.711719e+01	2.582060e+02
2.230000e-06	6.657833e-06	3.883358e-09	4.721868e+01	2.585216e+02
2.240000e-06	6.670915e-06	3.890937e-09	4.731145e+01	2.588177e+02
2.250000e-06	6.682799e-06	3.893984e-09	4.739574e+01	2.590953e+02
2.260000e-06	6.693276e-06	3.895292e-09	4.747004e+01	2.593544e+02
2.270000e-06	6.702258e-06	3.899557e-09	4.753374e+01	2.595939e+02
2.280000e-06	6.710042e-06	3.904563e-09	4.758895e+01	2.598121e+02
2.290000e-06	6.716765e-06	3.906096e-09	4.763663e+01	2.600063e+02
2.300000e-06	6.722344e-06	3.906874e-09	4.767620e+01	2.601737e+02
2.310000e-06	6.726795e-06	3.908709e-09	4.770776e+01	2.603108e+02
2.320000e-06	6.730152e-06	3.911040e-09	4.773158e+01	2.604147e+02
2.330000e-06	6.732196e-06	3.912915e-09	4.774607e+01	2.604828e+02
2.340000e-06	6.732856e-06	3.913825e-09	4.775075e+01	2.605135e+02
2.350000e-06	6.732427e-06	3.912464e-09	4.774771e+01	2.605061e+02
2.360000e-06	6.730999e-06	3.911698e-09	4.773759e+01	2.604615e+02
2.370000e-06	6.728487e-06	3.911603e-09	4.771977e+01	2.603819e+02
2.380000e-06	6.724949e-06	3.910968e-09	4.769467e+01	2.602713e+02
2.390000e-06	6.720471e-06	3.907326e-09	4.766292e+01	2.601351e+02
2.400000e-06	6.714801e-06	3.903657e-09	4.762270e+01	2.599801e+02
2.410000e-06	6.707723e-06	3.900452e-09	4.757251e+01	2.598140e+02
2.420000e-06	6.699567e-06	3.887932e-09	4.751466e+01	2.596454e+02
2.430000e-06	6.690532e-06	3.905211e-09	4.745058e+01	2.594827e+02
2.440000e-06	6.680290e-06	3.905758e-09	4.737795e+01	2.593345e+02
2.450000e-06	6.668308e-06	3.888530e-09	4.729297e+01	2.592083e+02
2.460000e-06	6.654239e-06	3.885567e-09	4.719319e+01	2.591103e+02
2.470000e-06	6.638622e-06	3.870237e-09	4.708243e+01	2.590450e+02
2.480000e-06	6.622415e-06	3.942759e-09	4.696749e+01	2.590149e+02
2.490000e-06	6.605705e-06	3.965151e-09	4.684897e+01	2.590200e+02
2.500000e-06	6.587712e-06	3.874300e-09	4.672136e+01	2.590577e+02
2.510000e-06	6.568357e-06	3.944325e-09	4.658409e+01	2.591232e+02
2.520000e-06	6.548268e-06	3.963273e-09	4.644162e+01	2.592090e+02
2.530000e-06	6.527095e-06	3.883499e-09	4.629146e+01	2.593059e+02
2.540000e-06	6.504270e-06	3.949931e-09	4.612958e+01	2.594027e+02
2.550000e-06	6.480175e-06	3.940712e-09	4.595869e+01	2.594874e+02
2.560000e-06	6.455182e-06	3.898277e-09	4.578143e+01	2.595471e+02
2.570000e-06	6.429254e-06	4.025713e-09	4.559755e+01	2.595691e+02
2.580000e-06	6.402204e-06	4.034880e-09	4.540570e+01	2.595414e+02
2.590000e-06	6.373948e-06	3.953569e-09	4.520531e+01	2.594530e+02
2.600000e-06	6.344803e-06	3.989055e-09	4.499860e+01	2.592949e+02
2.610000e-06	6.314586e-06	4.020113e-09	4.478430e+01	2.590598e+02
2.620000e-06	6.282868e-06	4.100907e-09	4.455935e+01	2.587431e+02
2.630000e-06	6.249983e-06	4.043526e-09	4.432612e+01	2.583426e+02
2.640000e-06	6.216061e-06	3.874106e-09	4.408554e+01	2.578585e+02
2.650000e-06	6.180969e-06	3.960716e-09	4.383666e+01	2.572934e+02
2.660000e-06	6.144882e-06	4.058090e-09	4.358073e+01	2.566520e+02
2.670000e-06	6.107836e-06	4.021484e-09	4.331798e+01	2.559408e+02
2.680000e-06	6.069559e-06	3.908619e-09	4.304652e+01	2.551673e+02
2.690000e-06	6.029926e-06	3.804129e-09	4.276543e+01	2.543400e+02
2.700000e-06	5.989215e-06	3.946448e-09	4.247670e+01	2.534673e+02
2.710000e-06	5.947666e-06	4.013216e-09	4.218203e+01	2.525576e+02
2.720000e-06	5.905168e-06	3.878665e-09	4.188063e+01	2.516184e+02
2.730000e-06	5.861554e-06	3.773800e-09	4.157131e+01	2.506562e+02
2.740000e-06	5.817025e-06	3.794651e-09	4.125550e+01	2.496760e+02
2.750000e-06	5.771687e-06	3.947812e-09	4.093395e+01	2.486812e+02
2.760000e-06	5.725235e-06	3.903922e-09	4.060451e+01	2.476736e+02
2.770000e-06	5.677564e-06	3.739540e-09	4.026642e+01	2.466535e+02
2.780000e-06	5.628860e-06	3.721587e-09	3.992099e+01	2.456197e+02
2.790000e-06	5.579205e-06	3.793716e-09	3.956883e+01	2.445699e+02
2.800000e-06	5.528565e-06	3.859738e-09	3.920968e+01	2.435007e+02
2.810000e-06	5.476898e-06	3.752379e-09	3.884325e+01	2.424084e+02
2.820000e-06	5.424089e-06	3.650910e-09	3.846872e+01	2.412891e+02
2.830000e-06	5.370042e-06	3.683576e-09	3.808541e+01	2.401389e+02
2.840000e-06	5.314750e-06	3.725385e-09	3.769326e+01	2.389546e+02
2.850000e-06	5.258433e-06	3.722696e-09	3.729385e+01	2.377334e+02
2.860000e-06	5.201322e-06	3.635502e-09	3.688881e+01	2.364737e+02
2.870000e-06	5.143360e-06	3.593786e-09	3.647773e+01	2.351745e+02
2.880000e-06	5.084529e-06	3.603808e-09	3.606049e+01	2.338361e+02
2.890000e-06	5.024855e-06	3.610290e-09	3.563727e+01	2.324592e+02
2.900000e-06	4.964330e-06	3.596223e-09	3.520802e+01	2.310457e+02
2.910000e-06	4.902962e-06	3.536314e-09	3.477278e+01	2.295977e+02
2.920000e-06	4.840575e-06	3.493529e-09	3.433032e+01	2.281176e+02
2.930000e-06	4.777038e-06	3.482493e-09	3.387970e+01	2.266080e+02
2.940000e-06	4.712626e-06	3.504923e-09	3.342288e+01	2.250709e+02
