# Temperatura_=_20.0
# Concentracion g/m^3_=_12600.0
# C_Vs_to_Am_M_A/Vsm_=_65563218390.804596
# pendiente_HvsI_1/m_=_3716.3
# ordenada_HvsI_A/m_=_1297.0
# frecuencia_Hz_=_213175.3489734432

Tiempo_(s)	Campo_(V.s)	Magnetizacion_(V.s)	Campo_(kA/m)	Magnetizacion_(A/m)
0.000000e+00	-6.768805e-06	-4.159121e-09	-4.757404e+01	-2.703896e+02
1.000000e-08	-6.768410e-06	-4.160210e-09	-4.757127e+01	-2.703624e+02
2.000000e-08	-6.766741e-06	-4.160442e-09	-4.755953e+01	-2.702948e+02
3.000000e-08	-6.763717e-06	-4.161583e-09	-4.753828e+01	-2.701890e+02
4.000000e-08	-6.759629e-06	-4.162064e-09	-4.750955e+01	-2.700488e+02
5.000000e-08	-6.754598e-06	-4.160735e-09	-4.747419e+01	-2.698789e+02
6.000000e-08	-6.748429e-06	-4.158456e-09	-4.743083e+01	-2.696855e+02
7.000000e-08	-6.741157e-06	-4.156618e-09	-4.737972e+01	-2.694754e+02
8.000000e-08	-6.732911e-06	-4.158544e-09	-4.732176e+01	-2.692559e+02
9.000000e-08	-6.723366e-06	-4.168736e-09	-4.725468e+01	-2.690343e+02
1.000000e-07	-6.712076e-06	-4.151023e-09	-4.717532e+01	-2.688175e+02
1.100000e-07	-6.699147e-06	-4.138035e-09	-4.708445e+01	-2.686118e+02
1.200000e-07	-6.684723e-06	-4.133598e-09	-4.698308e+01	-2.684220e+02
1.300000e-07	-6.668806e-06	-4.128249e-09	-4.687120e+01	-2.682514e+02
1.400000e-07	-6.651745e-06	-4.175293e-09	-4.675129e+01	-2.681014e+02
1.500000e-07	-6.633764e-06	-4.119933e-09	-4.662491e+01	-2.679716e+02
1.600000e-07	-6.614804e-06	-4.063447e-09	-4.649166e+01	-2.678591e+02
1.700000e-07	-6.594983e-06	-4.145610e-09	-4.635235e+01	-2.677596e+02
1.800000e-07	-6.574127e-06	-4.080315e-09	-4.620576e+01	-2.676664e+02
1.900000e-07	-6.552046e-06	-4.077632e-09	-4.605057e+01	-2.675717e+02
2.000000e-07	-6.528967e-06	-4.185779e-09	-4.588836e+01	-2.674663e+02
2.100000e-07	-6.504914e-06	-4.067370e-09	-4.571930e+01	-2.673406e+02
2.200000e-07	-6.479574e-06	-4.024860e-09	-4.554120e+01	-2.671846e+02
2.300000e-07	-6.452789e-06	-4.126221e-09	-4.535295e+01	-2.669886e+02
2.400000e-07	-6.424843e-06	-4.067402e-09	-4.515653e+01	-2.667438e+02
2.500000e-07	-6.395918e-06	-4.035099e-09	-4.495323e+01	-2.664425e+02
2.600000e-07	-6.365921e-06	-4.067523e-09	-4.474240e+01	-2.660787e+02
2.700000e-07	-6.334780e-06	-4.007859e-09	-4.452353e+01	-2.656482e+02
2.800000e-07	-6.302645e-06	-3.994785e-09	-4.429767e+01	-2.651485e+02
2.900000e-07	-6.269537e-06	-4.006972e-09	-4.406498e+01	-2.645796e+02
3.000000e-07	-6.235127e-06	-4.007606e-09	-4.382312e+01	-2.639429e+02
3.100000e-07	-6.199447e-06	-4.020878e-09	-4.357235e+01	-2.632418e+02
3.200000e-07	-6.162621e-06	-3.955790e-09	-4.331352e+01	-2.624810e+02
3.300000e-07	-6.124612e-06	-3.901891e-09	-4.304638e+01	-2.616663e+02
3.400000e-07	-6.085545e-06	-3.971632e-09	-4.277180e+01	-2.608041e+02
3.500000e-07	-6.045620e-06	-4.016687e-09	-4.249119e+01	-2.599012e+02
3.600000e-07	-6.004680e-06	-3.927946e-09	-4.220345e+01	-2.589640e+02
3.700000e-07	-5.962308e-06	-3.836225e-09	-4.190564e+01	-2.579985e+02
3.800000e-07	-5.918644e-06	-3.884537e-09	-4.159875e+01	-2.570098e+02
3.900000e-07	-5.874061e-06	-3.952424e-09	-4.128540e+01	-2.560019e+02
4.000000e-07	-5.828560e-06	-3.912351e-09	-4.096560e+01	-2.549775e+02
4.100000e-07	-5.781943e-06	-3.814265e-09	-4.063796e+01	-2.539380e+02
4.200000e-07	-5.734269e-06	-3.766585e-09	-4.030288e+01	-2.528835e+02
4.300000e-07	-5.685702e-06	-3.833305e-09	-3.996153e+01	-2.518131e+02
4.400000e-07	-5.635893e-06	-3.889701e-09	-3.961145e+01	-2.507247e+02
4.500000e-07	-5.584588e-06	-3.818583e-09	-3.925086e+01	-2.496155e+02
4.600000e-07	-5.532046e-06	-3.709223e-09	-3.888157e+01	-2.484824e+02
4.700000e-07	-5.478548e-06	-3.696942e-09	-3.850557e+01	-2.473221e+02
4.800000e-07	-5.424183e-06	-3.781159e-09	-3.812346e+01	-2.461313e+02
4.900000e-07	-5.368897e-06	-3.798774e-09	-3.773489e+01	-2.449072e+02
5.000000e-07	-5.312744e-06	-3.687036e-09	-3.734023e+01	-2.436474e+02
5.100000e-07	-5.255526e-06	-3.597868e-09	-3.693807e+01	-2.423503e+02
5.200000e-07	-5.197033e-06	-3.637058e-09	-3.652696e+01	-2.410151e+02
5.300000e-07	-5.137552e-06	-3.706248e-09	-3.610890e+01	-2.396417e+02
5.400000e-07	-5.077350e-06	-3.664408e-09	-3.568578e+01	-2.382307e+02
5.500000e-07	-5.016314e-06	-3.555118e-09	-3.525679e+01	-2.367832e+02
5.600000e-07	-4.954362e-06	-3.514576e-09	-3.482136e+01	-2.353009e+02
5.700000e-07	-4.891575e-06	-3.559546e-09	-3.438007e+01	-2.337856e+02
5.800000e-07	-4.828046e-06	-3.585849e-09	-3.393356e+01	-2.322391e+02
5.900000e-07	-4.763745e-06	-3.524787e-09	-3.348163e+01	-2.306632e+02
6.000000e-07	-4.698401e-06	-3.432397e-09	-3.302236e+01	-2.290591e+02
6.100000e-07	-4.631897e-06	-3.409111e-09	-3.255494e+01	-2.274277e+02
6.200000e-07	-4.564508e-06	-3.445137e-09	-3.208130e+01	-2.257694e+02
6.300000e-07	-4.496477e-06	-3.446513e-09	-3.160315e+01	-2.240837e+02
6.400000e-07	-4.427805e-06	-3.379121e-09	-3.112050e+01	-2.223699e+02
6.500000e-07	-4.358423e-06	-3.306863e-09	-3.063285e+01	-2.206264e+02
6.600000e-07	-4.288208e-06	-3.295146e-09	-3.013935e+01	-2.188514e+02
6.700000e-07	-4.217260e-06	-3.315614e-09	-2.964070e+01	-2.170427e+02
6.800000e-07	-4.145692e-06	-3.298940e-09	-2.913769e+01	-2.151980e+02
6.900000e-07	-4.073446e-06	-3.232574e-09	-2.862991e+01	-2.133151e+02
7.000000e-07	-4.000365e-06	-3.173158e-09	-2.811627e+01	-2.113919e+02
7.100000e-07	-3.926268e-06	-3.164633e-09	-2.759548e+01	-2.094266e+02
7.200000e-07	-3.851310e-06	-3.171973e-09	-2.706865e+01	-2.074178e+02
7.300000e-07	-3.775632e-06	-3.143763e-09	-2.653675e+01	-2.053647e+02
7.400000e-07	-3.699194e-06	-3.080690e-09	-2.599951e+01	-2.032670e+02
7.500000e-07	-3.622070e-06	-3.029592e-09	-2.545745e+01	-2.011245e+02
7.600000e-07	-3.544268e-06	-3.016812e-09	-2.491062e+01	-1.989379e+02
7.700000e-07	-3.465747e-06	-3.010069e-09	-2.435875e+01	-1.967078e+02
7.800000e-07	-3.386485e-06	-2.973650e-09	-2.380166e+01	-1.944353e+02
7.900000e-07	-3.306472e-06	-2.910309e-09	-2.323929e+01	-1.921211e+02
8.000000e-07	-3.225834e-06	-2.858407e-09	-2.267253e+01	-1.897662e+02
8.100000e-07	-3.144583e-06	-2.839908e-09	-2.210147e+01	-1.873712e+02
8.200000e-07	-3.062782e-06	-2.826959e-09	-2.152654e+01	-1.849365e+02
8.300000e-07	-2.980526e-06	-2.784162e-09	-2.094840e+01	-1.824618e+02
8.400000e-07	-2.897763e-06	-2.719310e-09	-2.036671e+01	-1.799468e+02
8.500000e-07	-2.814562e-06	-2.673662e-09	-1.978194e+01	-1.773905e+02
8.600000e-07	-2.730921e-06	-2.659028e-09	-1.919407e+01	-1.747917e+02
8.700000e-07	-2.646861e-06	-2.639313e-09	-1.860327e+01	-1.721486e+02
8.800000e-07	-2.562447e-06	-2.585685e-09	-1.800997e+01	-1.694597e+02
8.900000e-07	-2.477662e-06	-2.516151e-09	-1.741406e+01	-1.667229e+02
9.000000e-07	-2.392520e-06	-2.469773e-09	-1.681565e+01	-1.639367e+02
9.100000e-07	-2.306953e-06	-2.448631e-09	-1.621424e+01	-1.610992e+02
9.200000e-07	-2.220971e-06	-2.417440e-09	-1.560993e+01	-1.582092e+02
9.300000e-07	-2.134656e-06	-2.358969e-09	-1.500327e+01	-1.552656e+02
9.400000e-07	-2.047993e-06	-2.297121e-09	-1.439416e+01	-1.522678e+02
9.500000e-07	-1.960997e-06	-2.258905e-09	-1.378272e+01	-1.492154e+02
9.600000e-07	-1.873737e-06	-2.234742e-09	-1.316942e+01	-1.461086e+02
9.700000e-07	-1.786265e-06	-2.194425e-09	-1.255463e+01	-1.429477e+02
9.800000e-07	-1.698598e-06	-2.131866e-09	-1.193847e+01	-1.397331e+02
9.900000e-07	-1.610609e-06	-2.067169e-09	-1.132004e+01	-1.364656e+02
1.000000e-06	-1.522237e-06	-2.019843e-09	-1.069893e+01	-1.331455e+02
1.010000e-06	-1.433538e-06	-1.981844e-09	-1.007551e+01	-1.297732e+02
1.020000e-06	-1.344536e-06	-1.930612e-09	-9.449969e+00	-1.263490e+02
1.030000e-06	-1.255271e-06	-1.862711e-09	-8.822577e+00	-1.228724e+02
1.040000e-06	-1.165684e-06	-1.797882e-09	-8.192924e+00	-1.193428e+02
1.050000e-06	-1.075815e-06	-1.753059e-09	-7.561286e+00	-1.157593e+02
1.060000e-06	-9.857356e-07	-1.713020e-09	-6.928169e+00	-1.121204e+02
1.070000e-06	-8.955171e-07	-1.655759e-09	-6.294075e+00	-1.084242e+02
1.080000e-06	-8.052178e-07	-1.583801e-09	-5.659413e+00	-1.046690e+02
1.090000e-06	-7.147630e-07	-1.519350e-09	-5.023659e+00	-1.008527e+02
1.100000e-06	-6.241135e-07	-1.472397e-09	-4.386535e+00	-9.697319e+01
1.110000e-06	-5.333712e-07	-1.422470e-09	-3.748760e+00	-9.302872e+01
1.120000e-06	-4.425817e-07	-1.354068e-09	-3.110652e+00	-8.901773e+01
1.130000e-06	-3.517302e-07	-1.278924e-09	-2.472110e+00	-8.493903e+01
1.140000e-06	-2.607812e-07	-1.214889e-09	-1.832881e+00	-8.079190e+01
1.150000e-06	-1.697266e-07	-1.161891e-09	-1.192911e+00	-7.657604e+01
1.160000e-06	-7.867480e-08	-1.101737e-09	-5.529600e-01	-7.229162e+01
1.170000e-06	1.233909e-08	-1.025789e-09	8.672440e-02	-6.793916e+01
1.180000e-06	1.033265e-07	-9.469273e-10	7.262228e-01	-6.351943e+01
1.190000e-06	1.943281e-07	-8.816908e-10	1.365820e+00	-5.903336e+01
1.200000e-06	2.853363e-07	-8.236737e-10	2.005465e+00	-5.448182e+01
1.210000e-06	3.762627e-07	-7.558752e-10	2.644534e+00	-4.986552e+01
1.220000e-06	4.671370e-07	-6.768684e-10	3.283237e+00	-4.518483e+01
1.230000e-06	5.579568e-07	-5.964828e-10	3.921558e+00	-4.043966e+01
1.240000e-06	6.486401e-07	-5.252242e-10	4.558918e+00	-3.562941e+01
1.250000e-06	7.392187e-07	-4.582918e-10	5.195543e+00	-3.075293e+01
1.260000e-06	8.296687e-07	-3.852676e-10	5.831264e+00	-2.580855e+01
1.270000e-06	9.199742e-07	-3.053861e-10	6.465970e+00	-2.079421e+01
1.280000e-06	1.010096e-06	-2.258424e-10	7.099384e+00	-1.570761e+01
1.290000e-06	1.099994e-06	-1.508811e-10	7.731227e+00	-1.054643e+01
1.300000e-06	1.189737e-06	-7.546204e-11	8.361981e+00	-5.308631e+00
1.310000e-06	1.279290e-06	8.410504e-12	8.991396e+00	7.263196e-03
1.320000e-06	1.368519e-06	9.907120e-11	9.618534e+00	5.401828e+00
1.330000e-06	1.457331e-06	1.872891e-10	1.024274e+01	1.087444e+01
1.340000e-06	1.545760e-06	2.660094e-10	1.086426e+01	1.642298e+01
1.350000e-06	1.633892e-06	3.423804e-10	1.148369e+01	2.204364e+01
1.360000e-06	1.721757e-06	4.280930e-10	1.210124e+01	2.773071e+01
1.370000e-06	1.809291e-06	5.235249e-10	1.271647e+01	3.347655e+01
1.380000e-06	1.896486e-06	6.164002e-10	1.332931e+01	3.927160e+01
1.390000e-06	1.983467e-06	6.998650e-10	1.394065e+01	4.510446e+01
1.400000e-06	2.070201e-06	7.851089e-10	1.455026e+01	5.096216e+01
1.410000e-06	2.156563e-06	8.802996e-10	1.515724e+01	5.683042e+01
1.420000e-06	2.242537e-06	9.794675e-10	1.576151e+01	6.269403e+01
1.430000e-06	2.328112e-06	1.068826e-09	1.636296e+01	6.853730e+01
1.440000e-06	2.413277e-06	1.149383e-09	1.696154e+01	7.434450e+01
1.450000e-06	2.498100e-06	1.232861e-09	1.755771e+01	8.010030e+01
1.460000e-06	2.582628e-06	1.322045e-09	1.815180e+01	8.579025e+01
1.470000e-06	2.666775e-06	1.411024e-09	1.874323e+01	9.140118e+01
1.480000e-06	2.750464e-06	1.494177e-09	1.933143e+01	9.692151e+01
1.490000e-06	2.833715e-06	1.572986e-09	1.991655e+01	1.023415e+02
1.500000e-06	2.916525e-06	1.655227e-09	2.049858e+01	1.076534e+02
1.510000e-06	2.998779e-06	1.739934e-09	2.107670e+01	1.128517e+02
1.520000e-06	3.080492e-06	1.818957e-09	2.165101e+01	1.179325e+02
1.530000e-06	3.161720e-06	1.890784e-09	2.222191e+01	1.228942e+02
1.540000e-06	3.242367e-06	1.958805e-09	2.278873e+01	1.277366e+02
1.550000e-06	3.322346e-06	2.029110e-09	2.335086e+01	1.324610e+02
1.560000e-06	3.401708e-06	2.102083e-09	2.390865e+01	1.370697e+02
1.570000e-06	3.480438e-06	2.171498e-09	2.446200e+01	1.415657e+02
1.580000e-06	3.558527e-06	2.235175e-09	2.501084e+01	1.459523e+02
1.590000e-06	3.636015e-06	2.296905e-09	2.555546e+01	1.502330e+02
1.600000e-06	3.712841e-06	2.363644e-09	2.609543e+01	1.544111e+02
1.610000e-06	3.788988e-06	2.430892e-09	2.663062e+01	1.584892e+02
1.620000e-06	3.864367e-06	2.492059e-09	2.716042e+01	1.624696e+02
1.630000e-06	3.938898e-06	2.546510e-09	2.768425e+01	1.663539e+02
1.640000e-06	4.012529e-06	2.599140e-09	2.820176e+01	1.701432e+02
1.650000e-06	4.085295e-06	2.653779e-09	2.871319e+01	1.738379e+02
1.660000e-06	4.157316e-06	2.708236e-09	2.921938e+01	1.774380e+02
1.670000e-06	4.228620e-06	2.759208e-09	2.972054e+01	1.809433e+02
1.680000e-06	4.299228e-06	2.806237e-09	3.021680e+01	1.843536e+02
1.690000e-06	4.369111e-06	2.853394e-09	3.070797e+01	1.876686e+02
1.700000e-06	4.438225e-06	2.904608e-09	3.119373e+01	1.908887e+02
1.710000e-06	4.506671e-06	2.955557e-09	3.167480e+01	1.940143e+02
1.720000e-06	4.574475e-06	2.999106e-09	3.215135e+01	1.970467e+02
1.730000e-06	4.641431e-06	3.036817e-09	3.262195e+01	1.999875e+02
1.740000e-06	4.707373e-06	3.075098e-09	3.308542e+01	2.028391e+02
1.750000e-06	4.772313e-06	3.117221e-09	3.354185e+01	2.056043e+02
1.760000e-06	4.836380e-06	3.157817e-09	3.399213e+01	2.082865e+02
1.770000e-06	4.899639e-06	3.193926e-09	3.443674e+01	2.108890e+02
1.780000e-06	4.962110e-06	3.228025e-09	3.487582e+01	2.134154e+02
1.790000e-06	5.023766e-06	3.262670e-09	3.530916e+01	2.158694e+02
1.800000e-06	5.084591e-06	3.299860e-09	3.573667e+01	2.182541e+02
1.810000e-06	5.144675e-06	3.336924e-09	3.615897e+01	2.205724e+02
1.820000e-06	5.203998e-06	3.369553e-09	3.657591e+01	2.228264e+02
1.830000e-06	5.262310e-06	3.398007e-09	3.698575e+01	2.250179e+02
1.840000e-06	5.319441e-06	3.428234e-09	3.738729e+01	2.271478e+02
1.850000e-06	5.375560e-06	3.460548e-09	3.778172e+01	2.292165e+02
1.860000e-06	5.430810e-06	3.490567e-09	3.817004e+01	2.312240e+02
1.870000e-06	5.485158e-06	3.516887e-09	3.855202e+01	2.331695e+02
1.880000e-06	5.538547e-06	3.542075e-09	3.892726e+01	2.350524e+02
1.890000e-06	5.590913e-06	3.568514e-09	3.929532e+01	2.368719e+02
1.900000e-06	5.642065e-06	3.595537e-09	3.965483e+01	2.386270e+02
1.910000e-06	5.691880e-06	3.620647e-09	4.000495e+01	2.403175e+02
1.920000e-06	5.740460e-06	3.642479e-09	4.034639e+01	2.419433e+02
1.930000e-06	5.787970e-06	3.663955e-09	4.068031e+01	2.435050e+02
1.940000e-06	5.834531e-06	3.686935e-09	4.100757e+01	2.450036e+02
1.950000e-06	5.880159e-06	3.709858e-09	4.132826e+01	2.464409e+02
1.960000e-06	5.924896e-06	3.729521e-09	4.164269e+01	2.478193e+02
1.970000e-06	5.968766e-06	3.747489e-09	4.195103e+01	2.491416e+02
1.980000e-06	6.011527e-06	3.766572e-09	4.225157e+01	2.504109e+02
1.990000e-06	6.052956e-06	3.786819e-09	4.254275e+01	2.516305e+02
2.000000e-06	6.093205e-06	3.805769e-09	4.282563e+01	2.528038e+02
2.010000e-06	6.132438e-06	3.822800e-09	4.310138e+01	2.539338e+02
2.020000e-06	6.170667e-06	3.839467e-09	4.337007e+01	2.550232e+02
2.030000e-06	6.207857e-06	3.855156e-09	4.363146e+01	2.560743e+02
2.040000e-06	6.244124e-06	3.870289e-09	4.388636e+01	2.570887e+02
2.050000e-06	6.279441e-06	3.883732e-09	4.413458e+01	2.580673e+02
2.060000e-06	6.313469e-06	3.895414e-09	4.437375e+01	2.590105e+02
2.070000e-06	6.346201e-06	3.908500e-09	4.460380e+01	2.599179e+02
2.080000e-06	6.377786e-06	3.921198e-09	4.482579e+01	2.607889e+02
2.090000e-06	6.408294e-06	3.933472e-09	4.504022e+01	2.616222e+02
2.100000e-06	6.437774e-06	3.945767e-09	4.524741e+01	2.624167e+02
2.110000e-06	6.466284e-06	3.957250e-09	4.544779e+01	2.631712e+02
2.120000e-06	6.493787e-06	3.968884e-09	4.564110e+01	2.638847e+02
2.130000e-06	6.520004e-06	3.981000e-09	4.582536e+01	2.645566e+02
2.140000e-06	6.544839e-06	3.992323e-09	4.599992e+01	2.651869e+02
2.150000e-06	6.568435e-06	4.000666e-09	4.616576e+01	2.657763e+02
2.160000e-06	6.590910e-06	4.007285e-09	4.632372e+01	2.663259e+02
2.170000e-06	6.612333e-06	4.015020e-09	4.647429e+01	2.668377e+02
2.180000e-06	6.632756e-06	4.022666e-09	4.661783e+01	2.673140e+02
2.190000e-06	6.652220e-06	4.029009e-09	4.675463e+01	2.677575e+02
2.200000e-06	6.670499e-06	4.035705e-09	4.688311e+01	2.681713e+02
2.210000e-06	6.687415e-06	4.042838e-09	4.700200e+01	2.685582e+02
2.220000e-06	6.703090e-06	4.050330e-09	4.711217e+01	2.689209e+02
2.230000e-06	6.717574e-06	4.058710e-09	4.721397e+01	2.692615e+02
2.240000e-06	6.730814e-06	4.065872e-09	4.730702e+01	2.695815e+02
2.250000e-06	6.742836e-06	4.069565e-09	4.739152e+01	2.698817e+02
2.260000e-06	6.753467e-06	4.072680e-09	4.746624e+01	2.701619e+02
2.270000e-06	6.762584e-06	4.076712e-09	4.753031e+01	2.704209e+02
2.280000e-06	6.770451e-06	4.080573e-09	4.758561e+01	2.706570e+02
2.290000e-06	6.777226e-06	4.084203e-09	4.763323e+01	2.708674e+02
2.300000e-06	6.782881e-06	4.087903e-09	4.767297e+01	2.710491e+02
2.310000e-06	6.787480e-06	4.090480e-09	4.770529e+01	2.711988e+02
2.320000e-06	6.791026e-06	4.092226e-09	4.773022e+01	2.713134e+02
2.330000e-06	6.793190e-06	4.093893e-09	4.774543e+01	2.713900e+02
2.340000e-06	6.793947e-06	4.093881e-09	4.775075e+01	2.714265e+02
2.350000e-06	6.793597e-06	4.091806e-09	4.774829e+01	2.714220e+02
2.360000e-06	6.792161e-06	4.088879e-09	4.773820e+01	2.713764e+02
2.370000e-06	6.789588e-06	4.087427e-09	4.772011e+01	2.712913e+02
2.380000e-06	6.786094e-06	4.084856e-09	4.769555e+01	2.711694e+02
2.390000e-06	6.781690e-06	4.083574e-09	4.766460e+01	2.710152e+02
2.400000e-06	6.775991e-06	4.082586e-09	4.762455e+01	2.708339e+02
2.410000e-06	6.768970e-06	4.079748e-09	4.757520e+01	2.706321e+02
2.420000e-06	6.760898e-06	4.073760e-09	4.751847e+01	2.704168e+02
2.430000e-06	6.751878e-06	4.049295e-09	4.745507e+01	2.701954e+02
2.440000e-06	6.741631e-06	4.064621e-09	4.738305e+01	2.699752e+02
2.450000e-06	6.729548e-06	4.065928e-09	4.729813e+01	2.697627e+02
2.460000e-06	6.715425e-06	4.064115e-09	4.719886e+01	2.695636e+02
2.470000e-06	6.699840e-06	4.054952e-09	4.708932e+01	2.693821e+02
2.480000e-06	6.683685e-06	4.017476e-09	4.697578e+01	2.692207e+02
2.490000e-06	6.666995e-06	4.097543e-09	4.685848e+01	2.690799e+02
2.500000e-06	6.648968e-06	4.100054e-09	4.673178e+01	2.689584e+02
2.510000e-06	6.629679e-06	4.027516e-09	4.659621e+01	2.688524e+02
2.520000e-06	6.609697e-06	4.119275e-09	4.645576e+01	2.687566e+02
2.530000e-06	6.588468e-06	4.061227e-09	4.630655e+01	2.686637e+02
2.540000e-06	6.565566e-06	3.971417e-09	4.614559e+01	2.685654e+02
2.550000e-06	6.541442e-06	4.132108e-09	4.597604e+01	2.684521e+02
2.560000e-06	6.516351e-06	4.132936e-09	4.579968e+01	2.683140e+02
2.570000e-06	6.490330e-06	4.046637e-09	4.561680e+01	2.681411e+02
2.580000e-06	6.463169e-06	4.152263e-09	4.542590e+01	2.679241e+02
2.590000e-06	6.434725e-06	4.126539e-09	4.522598e+01	2.676547e+02
2.600000e-06	6.405255e-06	4.074209e-09	4.501886e+01	2.673260e+02
2.610000e-06	6.374574e-06	4.175954e-09	4.480322e+01	2.669325e+02
2.620000e-06	6.342487e-06	4.162343e-09	4.457770e+01	2.664710e+02
2.630000e-06	6.309289e-06	4.137331e-09	4.434436e+01	2.659401e+02
2.640000e-06	6.275024e-06	4.053929e-09	4.410354e+01	2.653404e+02
2.650000e-06	6.239729e-06	3.996580e-09	4.385547e+01	2.646742e+02
2.660000e-06	6.203471e-06	4.181761e-09	4.360063e+01	2.639455e+02
2.670000e-06	6.166033e-06	4.165810e-09	4.333750e+01	2.631597e+02
2.680000e-06	6.127238e-06	3.965741e-09	4.306483e+01	2.623228e+02
2.690000e-06	6.087250e-06	3.940705e-09	4.278378e+01	2.614414e+02
2.700000e-06	6.046283e-06	4.036863e-09	4.249585e+01	2.605223e+02
2.710000e-06	6.004375e-06	4.131356e-09	4.220130e+01	2.595716e+02
2.720000e-06	5.961438e-06	3.998845e-09	4.189952e+01	2.585951e+02
2.730000e-06	5.917558e-06	3.860554e-09	4.159111e+01	2.575973e+02
2.740000e-06	5.872767e-06	3.928379e-09	4.127630e+01	2.565817e+02
2.750000e-06	5.826937e-06	4.004672e-09	4.095419e+01	2.555504e+02
2.760000e-06	5.780001e-06	4.019840e-09	4.062431e+01	2.545042e+02
2.770000e-06	5.731877e-06	3.880992e-09	4.028607e+01	2.534427e+02
2.780000e-06	5.682720e-06	3.792590e-09	3.994057e+01	2.523645e+02
2.790000e-06	5.632634e-06	3.876600e-09	3.958855e+01	2.512671e+02
2.800000e-06	5.581559e-06	3.934618e-09	3.922957e+01	2.501476e+02
2.810000e-06	5.529463e-06	3.903852e-09	3.886342e+01	2.490026e+02
2.820000e-06	5.476073e-06	3.759214e-09	3.848817e+01	2.478290e+02
2.830000e-06	5.421298e-06	3.720524e-09	3.810318e+01	2.466235e+02
2.840000e-06	5.365484e-06	3.825083e-09	3.771090e+01	2.453835e+02
2.850000e-06	5.308808e-06	3.848411e-09	3.731256e+01	2.441071e+02
2.860000e-06	5.251232e-06	3.757032e-09	3.690789e+01	2.427929e+02
2.870000e-06	5.192724e-06	3.646096e-09	3.649668e+01	2.414405e+02
2.880000e-06	5.133343e-06	3.669482e-09	3.607932e+01	2.400500e+02
2.890000e-06	5.073190e-06	3.731585e-09	3.565654e+01	2.386224e+02
2.900000e-06	5.012152e-06	3.701400e-09	3.522754e+01	2.371590e+02
2.910000e-06	4.949969e-06	3.615015e-09	3.479049e+01	2.356616e+02
2.920000e-06	4.886683e-06	3.557851e-09	3.434568e+01	2.341320e+02
2.930000e-06	4.822559e-06	3.586097e-09	3.389499e+01	2.325720e+02
2.940000e-06	4.757673e-06	3.612992e-09	3.343895e+01	2.309833e+02
