# Temperatura_=_20.0
# Concentracion g/m^3_=_12600.0
# C_Vs_to_Am_M_A/Vsm_=_65563218390.804596
# pendiente_HvsI_1/m_=_3716.3
# ordenada_HvsI_A/m_=_1297.0
# frecuencia_Hz_=_213177.75238406984

Tiempo_(s)	Campo_(V.s)	Magnetizacion_(V.s)	Campo_(kA/m)	Magnetizacion_(A/m)
0.000000e+00	-6.747826e-06	-4.471506e-09	-4.757317e+01	-2.911661e+02
1.000000e-08	-6.747604e-06	-4.469920e-09	-4.757160e+01	-2.911124e+02
2.000000e-08	-6.746130e-06	-4.468877e-09	-4.756121e+01	-2.910181e+02
3.000000e-08	-6.743157e-06	-4.469213e-09	-4.754025e+01	-2.908857e+02
4.000000e-08	-6.739115e-06	-4.470997e-09	-4.751175e+01	-2.907193e+02
5.000000e-08	-6.734235e-06	-4.470894e-09	-4.747734e+01	-2.905242e+02
6.000000e-08	-6.728253e-06	-4.466253e-09	-4.743517e+01	-2.903067e+02
7.000000e-08	-6.721114e-06	-4.461156e-09	-4.738484e+01	-2.900739e+02
8.000000e-08	-6.712976e-06	-4.457312e-09	-4.732746e+01	-2.898334e+02
9.000000e-08	-6.703561e-06	-4.454151e-09	-4.726109e+01	-2.895929e+02
1.000000e-07	-6.692394e-06	-4.482623e-09	-4.718236e+01	-2.893595e+02
1.100000e-07	-6.679547e-06	-4.492535e-09	-4.709178e+01	-2.891397e+02
1.200000e-07	-6.665241e-06	-4.466813e-09	-4.699092e+01	-2.889387e+02
1.300000e-07	-6.649456e-06	-4.427003e-09	-4.687964e+01	-2.887599e+02
1.400000e-07	-6.632526e-06	-4.353199e-09	-4.676028e+01	-2.886049e+02
1.500000e-07	-6.614685e-06	-4.425492e-09	-4.663450e+01	-2.884734e+02
1.600000e-07	-6.595778e-06	-4.506581e-09	-4.650121e+01	-2.883626e+02
1.700000e-07	-6.576041e-06	-4.393222e-09	-4.636206e+01	-2.882679e+02
1.800000e-07	-6.555410e-06	-4.387427e-09	-4.621661e+01	-2.881825e+02
1.900000e-07	-6.533479e-06	-4.395979e-09	-4.606199e+01	-2.880981e+02
2.000000e-07	-6.510559e-06	-4.354152e-09	-4.590040e+01	-2.880051e+02
2.100000e-07	-6.486865e-06	-4.462358e-09	-4.573335e+01	-2.878931e+02
2.200000e-07	-6.461872e-06	-4.428362e-09	-4.555714e+01	-2.877512e+02
2.300000e-07	-6.435286e-06	-4.277288e-09	-4.536971e+01	-2.875690e+02
2.400000e-07	-6.407479e-06	-4.356608e-09	-4.517367e+01	-2.873367e+02
2.500000e-07	-6.378807e-06	-4.444055e-09	-4.497153e+01	-2.870455e+02
2.600000e-07	-6.349090e-06	-4.385941e-09	-4.476202e+01	-2.866885e+02
2.700000e-07	-6.318126e-06	-4.299708e-09	-4.454372e+01	-2.862605e+02
2.800000e-07	-6.286158e-06	-4.240775e-09	-4.431833e+01	-2.857583e+02
2.900000e-07	-6.253351e-06	-4.326452e-09	-4.408704e+01	-2.851809e+02
3.000000e-07	-6.219282e-06	-4.391534e-09	-4.384685e+01	-2.845293e+02
3.100000e-07	-6.183825e-06	-4.295623e-09	-4.359687e+01	-2.838065e+02
3.200000e-07	-6.147222e-06	-4.215090e-09	-4.333882e+01	-2.830170e+02
3.300000e-07	-6.109458e-06	-4.218650e-09	-4.307258e+01	-2.821665e+02
3.400000e-07	-6.070625e-06	-4.275809e-09	-4.279880e+01	-2.812617e+02
3.500000e-07	-6.030947e-06	-4.313434e-09	-4.251906e+01	-2.803094e+02
3.600000e-07	-5.990369e-06	-4.235615e-09	-4.223298e+01	-2.793166e+02
3.700000e-07	-5.948408e-06	-4.138475e-09	-4.193715e+01	-2.782897e+02
3.800000e-07	-5.905033e-06	-4.165459e-09	-4.163135e+01	-2.772343e+02
3.900000e-07	-5.860690e-06	-4.260614e-09	-4.131873e+01	-2.761548e+02
4.000000e-07	-5.815415e-06	-4.227328e-09	-4.099953e+01	-2.750544e+02
4.100000e-07	-5.769101e-06	-4.096036e-09	-4.067301e+01	-2.739350e+02
4.200000e-07	-5.721790e-06	-4.068539e-09	-4.033946e+01	-2.727969e+02
4.300000e-07	-5.673437e-06	-4.146113e-09	-3.999856e+01	-2.716395e+02
4.400000e-07	-5.623842e-06	-4.181359e-09	-3.964891e+01	-2.704607e+02
4.500000e-07	-5.572868e-06	-4.091429e-09	-3.928954e+01	-2.692578e+02
4.600000e-07	-5.520645e-06	-3.991641e-09	-3.892136e+01	-2.680277e+02
4.700000e-07	-5.467380e-06	-4.016712e-09	-3.854583e+01	-2.667669e+02
4.800000e-07	-5.413189e-06	-4.081726e-09	-3.816378e+01	-2.654721e+02
4.900000e-07	-5.358139e-06	-4.055456e-09	-3.777567e+01	-2.641403e+02
5.000000e-07	-5.302217e-06	-3.958478e-09	-3.738141e+01	-2.627692e+02
5.100000e-07	-5.245298e-06	-3.908148e-09	-3.698012e+01	-2.613571e+02
5.200000e-07	-5.187239e-06	-3.939502e-09	-3.657080e+01	-2.599033e+02
5.300000e-07	-5.128107e-06	-3.963920e-09	-3.615391e+01	-2.584079e+02
5.400000e-07	-5.068104e-06	-3.915517e-09	-3.573088e+01	-2.568717e+02
5.500000e-07	-5.007300e-06	-3.838033e-09	-3.530220e+01	-2.552962e+02
5.600000e-07	-4.945607e-06	-3.814433e-09	-3.486725e+01	-2.536835e+02
5.700000e-07	-4.883052e-06	-3.839837e-09	-3.442623e+01	-2.520358e+02
5.800000e-07	-4.819757e-06	-3.836611e-09	-3.397999e+01	-2.503553e+02
5.900000e-07	-4.755725e-06	-3.777076e-09	-3.352856e+01	-2.486440e+02
6.000000e-07	-4.690767e-06	-3.719724e-09	-3.307060e+01	-2.469036e+02
6.100000e-07	-4.624667e-06	-3.704967e-09	-3.260458e+01	-2.451350e+02
6.200000e-07	-4.557575e-06	-3.707181e-09	-3.213158e+01	-2.433385e+02
6.300000e-07	-4.489777e-06	-3.687078e-09	-3.165358e+01	-2.415135e+02
6.400000e-07	-4.421342e-06	-3.638789e-09	-3.117111e+01	-2.396588e+02
6.500000e-07	-4.352225e-06	-3.590778e-09	-3.068383e+01	-2.377726e+02
6.600000e-07	-4.282322e-06	-3.565096e-09	-3.019100e+01	-2.358522e+02
6.700000e-07	-4.211687e-06	-3.557919e-09	-2.969301e+01	-2.338948e+02
6.800000e-07	-4.140346e-06	-3.537842e-09	-2.919005e+01	-2.318974e+02
6.900000e-07	-4.068304e-06	-3.488147e-09	-2.868214e+01	-2.298570e+02
7.000000e-07	-3.995571e-06	-3.435577e-09	-2.816937e+01	-2.277709e+02
7.100000e-07	-3.921953e-06	-3.409308e-09	-2.765034e+01	-2.256368e+02
7.200000e-07	-3.847390e-06	-3.402046e-09	-2.712467e+01	-2.234532e+02
7.300000e-07	-3.771992e-06	-3.377206e-09	-2.659310e+01	-2.212190e+02
7.400000e-07	-3.695876e-06	-3.323981e-09	-2.605647e+01	-2.189340e+02
7.500000e-07	-3.619107e-06	-3.269752e-09	-2.551524e+01	-2.165987e+02
7.600000e-07	-3.541686e-06	-3.241125e-09	-2.496941e+01	-2.142144e+02
7.700000e-07	-3.463575e-06	-3.229163e-09	-2.441872e+01	-2.117828e+02
7.800000e-07	-3.384723e-06	-3.195002e-09	-2.386280e+01	-2.093057e+02
7.900000e-07	-3.305149e-06	-3.134079e-09	-2.330179e+01	-2.067855e+02
8.000000e-07	-3.224825e-06	-3.080654e-09	-2.273549e+01	-2.042242e+02
8.100000e-07	-3.143810e-06	-3.052787e-09	-2.216432e+01	-2.016236e+02
8.200000e-07	-3.062274e-06	-3.032380e-09	-2.158948e+01	-1.989852e+02
8.300000e-07	-2.980298e-06	-2.990546e-09	-2.101154e+01	-1.963097e+02
8.400000e-07	-2.897898e-06	-2.931435e-09	-2.043060e+01	-1.935972e+02
8.500000e-07	-2.815062e-06	-2.880757e-09	-1.984660e+01	-1.908471e+02
8.600000e-07	-2.731814e-06	-2.849754e-09	-1.925969e+01	-1.880579e+02
8.700000e-07	-2.648138e-06	-2.824833e-09	-1.866976e+01	-1.852277e+02
8.800000e-07	-2.564066e-06	-2.778019e-09	-1.807704e+01	-1.823538e+02
8.900000e-07	-2.479620e-06	-2.711496e-09	-1.748169e+01	-1.794332e+02
9.000000e-07	-2.394796e-06	-2.655394e-09	-1.688366e+01	-1.764628e+02
9.100000e-07	-2.309563e-06	-2.623328e-09	-1.628276e+01	-1.734394e+02
9.200000e-07	-2.223969e-06	-2.593578e-09	-1.567931e+01	-1.703600e+02
9.300000e-07	-2.138045e-06	-2.538075e-09	-1.507353e+01	-1.672220e+02
9.400000e-07	-2.051733e-06	-2.469554e-09	-1.446502e+01	-1.640233e+02
9.500000e-07	-1.965024e-06	-2.419446e-09	-1.385371e+01	-1.607623e+02
9.600000e-07	-1.877958e-06	-2.389520e-09	-1.323988e+01	-1.574383e+02
9.700000e-07	-1.790664e-06	-2.351732e-09	-1.262444e+01	-1.540510e+02
9.800000e-07	-1.703192e-06	-2.289338e-09	-1.200775e+01	-1.506007e+02
9.900000e-07	-1.615477e-06	-2.218407e-09	-1.138935e+01	-1.470884e+02
1.000000e-06	-1.527415e-06	-2.162761e-09	-1.076850e+01	-1.435152e+02
1.010000e-06	-1.439048e-06	-2.121720e-09	-1.014550e+01	-1.398826e+02
1.020000e-06	-1.350480e-06	-2.072431e-09	-9.521085e+00	-1.361920e+02
1.030000e-06	-1.261690e-06	-2.002419e-09	-8.895098e+00	-1.324447e+02
1.040000e-06	-1.172571e-06	-1.931180e-09	-8.266799e+00	-1.286416e+02
1.050000e-06	-1.083096e-06	-1.878366e-09	-7.635983e+00	-1.247834e+02
1.060000e-06	-9.934091e-07	-1.834584e-09	-7.003680e+00	-1.208700e+02
1.070000e-06	-9.036046e-07	-1.776903e-09	-6.370545e+00	-1.169011e+02
1.080000e-06	-8.136074e-07	-1.701261e-09	-5.736052e+00	-1.128756e+02
1.090000e-06	-7.233525e-07	-1.630052e-09	-5.099741e+00	-1.087921e+02
1.100000e-06	-6.329199e-07	-1.577709e-09	-4.462179e+00	-1.046488e+02
1.110000e-06	-5.424490e-07	-1.528774e-09	-3.824345e+00	-1.004436e+02
1.120000e-06	-4.519352e-07	-1.461830e-09	-3.186209e+00	-9.617442e+01
1.130000e-06	-3.613035e-07	-1.381186e-09	-2.547243e+00	-9.183908e+01
1.140000e-06	-2.706138e-07	-1.310119e-09	-1.907867e+00	-8.743567e+01
1.150000e-06	-1.798903e-07	-1.253719e-09	-1.268253e+00	-8.296255e+01
1.160000e-06	-8.905461e-08	-1.194373e-09	-6.278481e-01	-7.841849e+01
1.170000e-06	1.816250e-09	-1.117676e-09	1.280483e-02	-7.380268e+01
1.180000e-06	9.262833e-08	-1.032003e-09	6.530433e-01	-6.911473e+01
1.190000e-06	1.833755e-07	-9.602087e-10	1.292824e+00	-6.435467e+01
1.200000e-06	2.741122e-07	-9.023166e-10	1.932531e+00	-5.952283e+01
1.210000e-06	3.648627e-07	-8.365340e-10	2.572335e+00	-5.461978e+01
1.220000e-06	4.555047e-07	-7.514470e-10	3.211375e+00	-4.964616e+01
1.230000e-06	5.460650e-07	-6.619944e-10	3.849839e+00	-4.460260e+01
1.240000e-06	6.365817e-07	-5.859599e-10	4.487994e+00	-3.948953e+01
1.250000e-06	7.269549e-07	-5.187668e-10	5.125139e+00	-3.430719e+01
1.260000e-06	8.171333e-07	-4.429796e-10	5.760910e+00	-2.905547e+01
1.270000e-06	9.071678e-07	-3.539788e-10	6.395666e+00	-2.373397e+01
1.280000e-06	9.970486e-07	-2.661108e-10	7.029339e+00	-1.834200e+01
1.290000e-06	1.086691e-06	-1.896237e-10	7.661331e+00	-1.287870e+01
1.300000e-06	1.176068e-06	-1.138876e-10	8.291454e+00	-7.343215e+00
1.310000e-06	1.265192e-06	-2.775156e-11	8.919786e+00	-1.734856e+00
1.320000e-06	1.354060e-06	6.835050e-11	9.546320e+00	3.946636e+00
1.330000e-06	1.442597e-06	1.623597e-10	1.017052e+01	9.700838e+00
1.340000e-06	1.530753e-06	2.462068e-10	1.079203e+01	1.552638e+01
1.350000e-06	1.618597e-06	3.284833e-10	1.141135e+01	2.142070e+01
1.360000e-06	1.706195e-06	4.195845e-10	1.202893e+01	2.737984e+01
1.370000e-06	1.793538e-06	5.193391e-10	1.264471e+01	3.339828e+01
1.380000e-06	1.880620e-06	6.144678e-10	1.325865e+01	3.946883e+01
1.390000e-06	1.967434e-06	7.001294e-10	1.387070e+01	4.558265e+01
1.400000e-06	2.053928e-06	7.879973e-10	1.448049e+01	5.172928e+01
1.410000e-06	2.140069e-06	8.865517e-10	1.508780e+01	5.789683e+01
1.420000e-06	2.225886e-06	9.897105e-10	1.569282e+01	6.407220e+01
1.430000e-06	2.311326e-06	1.085947e-09	1.629519e+01	7.024135e+01
1.440000e-06	2.396373e-06	1.172990e-09	1.689478e+01	7.638969e+01
1.450000e-06	2.481088e-06	1.260109e-09	1.749204e+01	8.250249e+01
1.460000e-06	2.565435e-06	1.354921e-09	1.808669e+01	8.856523e+01
1.470000e-06	2.649347e-06	1.452603e-09	1.867829e+01	9.456402e+01
1.480000e-06	2.732794e-06	1.540662e-09	1.926660e+01	1.004860e+02
1.490000e-06	2.815836e-06	1.621593e-09	1.985205e+01	1.063196e+02
1.500000e-06	2.898500e-06	1.707463e-09	2.043485e+01	1.120548e+02
1.510000e-06	2.980646e-06	1.799733e-09	2.101399e+01	1.176833e+02
1.520000e-06	3.062179e-06	1.887697e-09	2.158881e+01	1.231988e+02
1.530000e-06	3.143245e-06	1.965242e-09	2.216034e+01	1.285966e+02
1.540000e-06	3.223781e-06	2.039039e-09	2.272813e+01	1.338739e+02
1.550000e-06	3.303592e-06	2.118777e-09	2.329081e+01	1.390293e+02
1.560000e-06	3.382761e-06	2.202937e-09	2.384896e+01	1.440631e+02
1.570000e-06	3.461309e-06	2.279625e-09	2.440274e+01	1.489763e+02
1.580000e-06	3.539206e-06	2.345525e-09	2.495193e+01	1.537711e+02
1.590000e-06	3.616455e-06	2.411476e-09	2.549654e+01	1.584500e+02
1.600000e-06	3.693054e-06	2.485472e-09	2.603658e+01	1.630158e+02
1.610000e-06	3.769053e-06	2.560314e-09	2.657238e+01	1.674715e+02
1.620000e-06	3.844312e-06	2.626790e-09	2.710296e+01	1.718196e+02
1.630000e-06	3.918717e-06	2.684696e-09	2.762753e+01	1.760627e+02
1.640000e-06	3.992270e-06	2.741832e-09	2.814609e+01	1.802027e+02
1.650000e-06	4.064888e-06	2.803760e-09	2.865806e+01	1.842410e+02
1.660000e-06	4.136691e-06	2.865947e-09	2.916428e+01	1.881790e+02
1.670000e-06	4.207886e-06	2.922123e-09	2.966622e+01	1.920173e+02
1.680000e-06	4.278416e-06	2.972679e-09	3.016346e+01	1.957566e+02
1.690000e-06	4.348149e-06	3.024706e-09	3.065509e+01	1.993974e+02
1.700000e-06	4.417151e-06	3.080025e-09	3.114156e+01	2.029403e+02
1.710000e-06	4.485507e-06	3.133286e-09	3.162348e+01	2.063860e+02
1.720000e-06	4.553155e-06	3.181636e-09	3.210041e+01	2.097354e+02
1.730000e-06	4.620008e-06	3.225977e-09	3.257173e+01	2.129899e+02
1.740000e-06	4.685861e-06	3.272068e-09	3.303601e+01	2.161513e+02
1.750000e-06	4.750614e-06	3.320048e-09	3.349252e+01	2.192215e+02
1.760000e-06	4.814485e-06	3.365230e-09	3.394283e+01	2.222030e+02
1.770000e-06	4.877694e-06	3.406837e-09	3.438846e+01	2.250985e+02
1.780000e-06	4.940168e-06	3.444900e-09	3.482891e+01	2.279107e+02
1.790000e-06	5.001807e-06	3.483399e-09	3.526347e+01	2.306424e+02
1.800000e-06	5.062632e-06	3.524293e-09	3.569230e+01	2.332963e+02
1.810000e-06	5.122694e-06	3.562881e-09	3.611574e+01	2.358749e+02
1.820000e-06	5.181980e-06	3.596393e-09	3.653372e+01	2.383801e+02
1.830000e-06	5.240252e-06	3.628616e-09	3.694455e+01	2.408138e+02
1.840000e-06	5.297308e-06	3.664826e-09	3.734680e+01	2.431772e+02
1.850000e-06	5.353328e-06	3.701072e-09	3.774175e+01	2.454710e+02
1.860000e-06	5.408542e-06	3.733127e-09	3.813102e+01	2.476956e+02
1.870000e-06	5.462857e-06	3.761699e-09	3.851394e+01	2.498510e+02
1.880000e-06	5.516180e-06	3.789312e-09	3.888988e+01	2.519372e+02
1.890000e-06	5.568497e-06	3.817174e-09	3.925872e+01	2.539539e+02
1.900000e-06	5.619638e-06	3.845090e-09	3.961927e+01	2.559008e+02
1.910000e-06	5.669440e-06	3.871962e-09	3.997039e+01	2.577782e+02
1.920000e-06	5.717998e-06	3.895716e-09	4.031273e+01	2.595862e+02
1.930000e-06	5.765503e-06	3.919597e-09	4.064764e+01	2.613257e+02
1.940000e-06	5.812044e-06	3.946931e-09	4.097577e+01	2.629980e+02
1.950000e-06	5.857620e-06	3.973123e-09	4.129708e+01	2.646049e+02
1.960000e-06	5.902263e-06	3.994964e-09	4.161182e+01	2.661484e+02
1.970000e-06	5.946086e-06	4.015564e-09	4.192078e+01	2.676314e+02
1.980000e-06	5.988870e-06	4.037146e-09	4.222241e+01	2.690567e+02
1.990000e-06	6.030252e-06	4.059817e-09	4.251416e+01	2.704275e+02
2.000000e-06	6.070404e-06	4.081119e-09	4.279724e+01	2.717469e+02
2.010000e-06	6.109589e-06	4.098929e-09	4.307350e+01	2.730178e+02
2.020000e-06	6.147820e-06	4.114770e-09	4.334303e+01	2.742428e+02
2.030000e-06	6.185040e-06	4.132529e-09	4.360544e+01	2.754243e+02
2.040000e-06	6.221302e-06	4.151929e-09	4.386109e+01	2.765638e+02
2.050000e-06	6.256659e-06	4.167991e-09	4.411036e+01	2.776626e+02
2.060000e-06	6.290740e-06	4.179872e-09	4.435064e+01	2.787210e+02
2.070000e-06	6.323413e-06	4.193066e-09	4.458099e+01	2.797390e+02
2.080000e-06	6.354995e-06	4.209163e-09	4.480365e+01	2.807161e+02
2.090000e-06	6.385556e-06	4.224881e-09	4.501911e+01	2.816514e+02
2.100000e-06	6.415064e-06	4.237997e-09	4.522714e+01	2.825437e+02
2.110000e-06	6.443613e-06	4.250032e-09	4.542842e+01	2.833921e+02
2.120000e-06	6.471214e-06	4.262656e-09	4.562301e+01	2.841954e+02
2.130000e-06	6.497514e-06	4.275937e-09	4.580843e+01	2.849532e+02
2.140000e-06	6.522318e-06	4.289128e-09	4.598330e+01	2.856650e+02
2.150000e-06	6.545937e-06	4.299035e-09	4.614982e+01	2.863314e+02
2.160000e-06	6.568452e-06	4.307442e-09	4.630855e+01	2.869531e+02
2.170000e-06	6.589790e-06	4.316629e-09	4.645899e+01	2.875315e+02
2.180000e-06	6.610164e-06	4.325414e-09	4.660262e+01	2.880688e+02
2.190000e-06	6.629666e-06	4.333635e-09	4.674012e+01	2.885671e+02
2.200000e-06	6.648020e-06	4.340769e-09	4.686951e+01	2.890292e+02
2.210000e-06	6.665054e-06	4.347238e-09	4.698961e+01	2.894574e+02
2.220000e-06	6.680873e-06	4.353484e-09	4.710113e+01	2.898544e+02
2.230000e-06	6.695425e-06	4.360532e-09	4.720373e+01	2.902222e+02
2.240000e-06	6.708706e-06	4.368110e-09	4.729736e+01	2.905623e+02
2.250000e-06	6.720825e-06	4.373485e-09	4.738280e+01	2.908756e+02
2.260000e-06	6.731627e-06	4.377011e-09	4.745896e+01	2.911623e+02
2.270000e-06	6.740900e-06	4.382206e-09	4.752434e+01	2.914218e+02
2.280000e-06	6.748877e-06	4.388977e-09	4.758057e+01	2.916525e+02
2.290000e-06	6.755745e-06	4.393987e-09	4.762899e+01	2.918526e+02
2.300000e-06	6.761437e-06	4.395641e-09	4.766913e+01	2.920197e+02
2.310000e-06	6.766076e-06	4.396846e-09	4.770183e+01	2.921511e+02
2.320000e-06	6.769770e-06	4.398045e-09	4.772787e+01	2.922445e+02
2.330000e-06	6.772157e-06	4.398365e-09	4.774470e+01	2.922976e+02
2.340000e-06	6.773015e-06	4.398724e-09	4.775075e+01	2.923090e+02
2.350000e-06	6.772706e-06	4.398451e-09	4.774857e+01	2.922782e+02
2.360000e-06	6.771383e-06	4.397985e-09	4.773925e+01	2.922058e+02
2.370000e-06	6.768985e-06	4.395883e-09	4.772234e+01	2.920938e+02
2.380000e-06	6.765573e-06	4.394252e-09	4.769828e+01	2.919455e+02
2.390000e-06	6.761251e-06	4.392554e-09	4.766782e+01	2.917653e+02
2.400000e-06	6.755730e-06	4.392457e-09	4.762889e+01	2.915592e+02
2.410000e-06	6.748792e-06	4.391822e-09	4.757997e+01	2.913337e+02
2.420000e-06	6.740779e-06	4.390107e-09	4.752348e+01	2.910964e+02
2.430000e-06	6.731822e-06	4.394795e-09	4.746033e+01	2.908548e+02
2.440000e-06	6.721708e-06	4.345810e-09	4.738903e+01	2.906166e+02
2.450000e-06	6.709917e-06	4.323288e-09	4.730590e+01	2.903885e+02
2.460000e-06	6.695958e-06	4.337475e-09	4.720749e+01	2.901765e+02
2.470000e-06	6.680380e-06	4.397638e-09	4.709766e+01	2.899850e+02
2.480000e-06	6.664253e-06	4.477249e-09	4.698396e+01	2.898167e+02
2.490000e-06	6.647746e-06	4.350356e-09	4.686759e+01	2.896724e+02
2.500000e-06	6.629929e-06	4.309283e-09	4.674198e+01	2.895505e+02
2.510000e-06	6.610628e-06	4.423949e-09	4.660589e+01	2.894476e+02
2.520000e-06	6.590695e-06	4.363240e-09	4.646537e+01	2.893579e+02
2.530000e-06	6.569782e-06	4.397410e-09	4.631793e+01	2.892739e+02
2.540000e-06	6.547131e-06	4.436702e-09	4.615823e+01	2.891868e+02
2.550000e-06	6.523199e-06	4.286121e-09	4.598951e+01	2.890864e+02
2.560000e-06	6.498316e-06	4.384451e-09	4.581408e+01	2.889622e+02
2.570000e-06	6.472453e-06	4.533694e-09	4.563175e+01	2.888033e+02
2.580000e-06	6.445531e-06	4.390399e-09	4.544194e+01	2.885996e+02
2.590000e-06	6.417311e-06	4.359475e-09	4.524299e+01	2.883417e+02
2.600000e-06	6.388103e-06	4.433441e-09	4.503707e+01	2.880215e+02
2.610000e-06	6.357831e-06	4.481732e-09	4.482364e+01	2.876330e+02
2.620000e-06	6.326038e-06	4.541882e-09	4.459950e+01	2.871717e+02
2.630000e-06	6.293012e-06	4.372849e-09	4.436666e+01	2.866355e+02
2.640000e-06	6.258980e-06	4.308840e-09	4.412673e+01	2.860244e+02
2.650000e-06	6.223833e-06	4.436269e-09	4.387894e+01	2.853402e+02
2.660000e-06	6.187745e-06	4.430766e-09	4.362451e+01	2.845866e+02
2.670000e-06	6.150596e-06	4.424664e-09	4.336260e+01	2.837688e+02
2.680000e-06	6.112119e-06	4.326524e-09	4.309134e+01	2.828929e+02
2.690000e-06	6.072396e-06	4.231154e-09	4.281128e+01	2.819657e+02
2.700000e-06	6.031620e-06	4.340862e-09	4.252381e+01	2.809942e+02
2.710000e-06	5.989997e-06	4.397666e-09	4.223036e+01	2.799852e+02
2.720000e-06	5.947397e-06	4.331180e-09	4.193003e+01	2.789447e+02
2.730000e-06	5.903784e-06	4.178291e-09	4.162255e+01	2.778778e+02
2.740000e-06	5.859226e-06	4.181646e-09	4.130841e+01	2.767885e+02
2.750000e-06	5.813676e-06	4.336184e-09	4.098727e+01	2.756793e+02
2.760000e-06	5.767117e-06	4.292341e-09	4.065903e+01	2.745514e+02
2.770000e-06	5.719348e-06	4.161532e-09	4.032225e+01	2.734047e+02
2.780000e-06	5.670452e-06	4.095105e-09	3.997752e+01	2.722378e+02
2.790000e-06	5.620578e-06	4.169582e-09	3.962590e+01	2.710484e+02
2.800000e-06	5.569679e-06	4.244887e-09	3.926705e+01	2.698336e+02
2.810000e-06	5.517785e-06	4.137192e-09	3.890119e+01	2.685900e+02
2.820000e-06	5.464687e-06	4.051937e-09	3.852685e+01	2.673142e+02
2.830000e-06	5.410309e-06	4.048557e-09	3.814348e+01	2.660030e+02
2.840000e-06	5.354846e-06	4.092696e-09	3.775245e+01	2.646536e+02
2.850000e-06	5.298444e-06	4.098640e-09	3.735481e+01	2.632641e+02
2.860000e-06	5.241186e-06	4.017900e-09	3.695113e+01	2.618331e+02
2.870000e-06	5.183018e-06	3.961245e-09	3.654104e+01	2.603604e+02
2.880000e-06	5.123912e-06	3.950762e-09	3.612433e+01	2.588464e+02
2.890000e-06	5.064040e-06	3.977932e-09	3.570223e+01	2.572922e+02
2.900000e-06	5.003387e-06	3.958310e-09	3.527461e+01	2.556996e+02
2.910000e-06	4.941695e-06	3.894042e-09	3.483968e+01	2.540707e+02
2.920000e-06	4.878878e-06	3.855326e-09	3.439680e+01	2.524078e+02
2.930000e-06	4.815068e-06	3.850318e-09	3.394693e+01	2.507131e+02
2.940000e-06	4.750481e-06	3.855789e-09	3.349159e+01	2.489885e+02
