# Temperatura_=_20.0
# Concentracion g/m^3_=_12600.0
# C_Vs_to_Am_M_A/Vsm_=_65563218390.804596
# pendiente_HvsI_1/m_=_3716.3
# ordenada_HvsI_A/m_=_1297.0
# frecuencia_Hz_=_213177.08867235502

Tiempo_(s)	Campo_(V.s)	Magnetizacion_(V.s)	Campo_(kA/m)	Magnetizacion_(A/m)
0.000000e+00	-6.723887e-06	-2.006982e-10	-4.757975e+01	-1.156893e+01
1.000000e-08	-6.723533e-06	-2.033728e-10	-4.757724e+01	-1.157405e+01
2.000000e-08	-6.721913e-06	-2.021171e-10	-4.756578e+01	-1.157821e+01
3.000000e-08	-6.718878e-06	-2.022425e-10	-4.754430e+01	-1.158213e+01
4.000000e-08	-6.714729e-06	-2.033980e-10	-4.751494e+01	-1.158648e+01
5.000000e-08	-6.709619e-06	-2.042461e-10	-4.747878e+01	-1.159183e+01
6.000000e-08	-6.703418e-06	-2.049881e-10	-4.743490e+01	-1.159861e+01
7.000000e-08	-6.696172e-06	-2.076199e-10	-4.738363e+01	-1.160710e+01
8.000000e-08	-6.687935e-06	-2.255710e-10	-4.732534e+01	-1.161737e+01
9.000000e-08	-6.678365e-06	-2.220133e-10	-4.725762e+01	-1.162926e+01
1.000000e-07	-6.667082e-06	-1.624727e-10	-4.717778e+01	-1.164246e+01
1.100000e-07	-6.654181e-06	-1.505649e-10	-4.708649e+01	-1.165643e+01
1.200000e-07	-6.639855e-06	-1.701445e-10	-4.698512e+01	-1.167051e+01
1.300000e-07	-6.624110e-06	-2.738681e-10	-4.687370e+01	-1.168393e+01
1.400000e-07	-6.607182e-06	-3.536143e-10	-4.675392e+01	-1.169586e+01
1.500000e-07	-6.589205e-06	-1.204628e-10	-4.662671e+01	-1.170549e+01
1.600000e-07	-6.570291e-06	-9.760592e-11	-4.649286e+01	-1.171207e+01
1.700000e-07	-6.550582e-06	-2.717932e-10	-4.635340e+01	-1.171497e+01
1.800000e-07	-6.529816e-06	-1.770256e-10	-4.620646e+01	-1.171371e+01
1.900000e-07	-6.507891e-06	-2.638373e-10	-4.605131e+01	-1.170802e+01
2.000000e-07	-6.485066e-06	-2.966103e-10	-4.588980e+01	-1.169785e+01
2.100000e-07	-6.461260e-06	-3.080246e-11	-4.572134e+01	-1.168336e+01
2.200000e-07	-6.436165e-06	-1.700431e-10	-4.554376e+01	-1.166494e+01
2.300000e-07	-6.409650e-06	-3.452063e-10	-4.535614e+01	-1.164315e+01
2.400000e-07	-6.381904e-06	-1.103865e-10	-4.515980e+01	-1.161869e+01
2.500000e-07	-6.353174e-06	-8.205944e-11	-4.495650e+01	-1.159234e+01
2.600000e-07	-6.323361e-06	-1.792068e-10	-4.474554e+01	-1.156493e+01
2.700000e-07	-6.292355e-06	-1.868097e-10	-4.452612e+01	-1.153721e+01
2.800000e-07	-6.260313e-06	-2.012757e-10	-4.429939e+01	-1.150987e+01
2.900000e-07	-6.227285e-06	-1.098426e-10	-4.406568e+01	-1.148342e+01
3.000000e-07	-6.193058e-06	-1.172943e-10	-4.382348e+01	-1.145816e+01
3.100000e-07	-6.157562e-06	-2.333260e-10	-4.357230e+01	-1.143416e+01
3.200000e-07	-6.120879e-06	-1.908983e-10	-4.331272e+01	-1.141124e+01
3.300000e-07	-6.083136e-06	-1.025385e-10	-4.304565e+01	-1.138896e+01
3.400000e-07	-6.044403e-06	-1.537281e-10	-4.277156e+01	-1.136663e+01
3.500000e-07	-6.004722e-06	-2.236780e-10	-4.249077e+01	-1.134337e+01
3.600000e-07	-5.964021e-06	-1.674479e-10	-4.220276e+01	-1.131816e+01
3.700000e-07	-5.922057e-06	-1.222638e-10	-4.190581e+01	-1.128989e+01
3.800000e-07	-5.878835e-06	-1.649097e-10	-4.159996e+01	-1.125742e+01
3.900000e-07	-5.834589e-06	-1.815507e-10	-4.128687e+01	-1.121967e+01
4.000000e-07	-5.789344e-06	-1.824362e-10	-4.096671e+01	-1.117569e+01
4.100000e-07	-5.743060e-06	-1.464320e-10	-4.063919e+01	-1.112473e+01
4.200000e-07	-5.695786e-06	-1.163585e-10	-4.030467e+01	-1.106626e+01
4.300000e-07	-5.647556e-06	-1.667472e-10	-3.996338e+01	-1.100004e+01
4.400000e-07	-5.598224e-06	-2.054356e-10	-3.961430e+01	-1.092613e+01
4.500000e-07	-5.547451e-06	-1.712979e-10	-3.925502e+01	-1.084488e+01
4.600000e-07	-5.495311e-06	-1.057916e-10	-3.888606e+01	-1.075694e+01
4.700000e-07	-5.442119e-06	-1.114990e-10	-3.850967e+01	-1.066318e+01
4.800000e-07	-5.388010e-06	-1.883715e-10	-3.812677e+01	-1.056471e+01
4.900000e-07	-5.333073e-06	-2.031077e-10	-3.773803e+01	-1.046272e+01
5.000000e-07	-5.277248e-06	-1.284495e-10	-3.734300e+01	-1.035851e+01
5.100000e-07	-5.220448e-06	-8.529483e-11	-3.694107e+01	-1.025334e+01
5.200000e-07	-5.162589e-06	-1.456789e-10	-3.653165e+01	-1.014840e+01
5.300000e-07	-5.103574e-06	-1.971041e-10	-3.611405e+01	-1.004472e+01
5.400000e-07	-5.043608e-06	-1.602443e-10	-3.568971e+01	-9.943122e+00
5.500000e-07	-4.982915e-06	-1.087150e-10	-3.526024e+01	-9.844187e+00
5.600000e-07	-4.921429e-06	-1.087453e-10	-3.482515e+01	-9.748212e+00
5.700000e-07	-4.859084e-06	-1.489803e-10	-3.438398e+01	-9.655209e+00
5.800000e-07	-4.795890e-06	-1.681868e-10	-3.393680e+01	-9.564910e+00
5.900000e-07	-4.731869e-06	-1.428538e-10	-3.348377e+01	-9.476795e+00
6.000000e-07	-4.667059e-06	-1.029250e-10	-3.302516e+01	-9.390127e+00
6.100000e-07	-4.601286e-06	-1.064087e-10	-3.255974e+01	-9.304005e+00
6.200000e-07	-4.534428e-06	-1.487244e-10	-3.208664e+01	-9.217424e+00
6.300000e-07	-4.466700e-06	-1.593537e-10	-3.160738e+01	-9.129333e+00
6.400000e-07	-4.398337e-06	-1.250557e-10	-3.112363e+01	-9.038700e+00
6.500000e-07	-4.329331e-06	-9.537058e-11	-3.063532e+01	-8.944572e+00
6.600000e-07	-4.259605e-06	-1.115610e-10	-3.014193e+01	-8.846120e+00
6.700000e-07	-4.189154e-06	-1.459708e-10	-2.964340e+01	-8.742681e+00
6.800000e-07	-4.117970e-06	-1.431933e-10	-2.913968e+01	-8.633787e+00
6.900000e-07	-4.046008e-06	-1.087780e-10	-2.863047e+01	-8.519175e+00
7.000000e-07	-3.973302e-06	-9.329033e-11	-2.811598e+01	-8.398787e+00
7.100000e-07	-3.899938e-06	-1.198986e-10	-2.759684e+01	-8.272760e+00
7.200000e-07	-3.825684e-06	-1.442095e-10	-2.707141e+01	-8.141399e+00
7.300000e-07	-3.750490e-06	-1.267877e-10	-2.653931e+01	-8.005143e+00
7.400000e-07	-3.674556e-06	-9.810461e-11	-2.600199e+01	-7.864531e+00
7.500000e-07	-3.597960e-06	-9.952306e-11	-2.545998e+01	-7.720157e+00
7.600000e-07	-3.520700e-06	-1.195131e-10	-2.491327e+01	-7.572631e+00
7.700000e-07	-3.442744e-06	-1.232085e-10	-2.436163e+01	-7.422539e+00
7.800000e-07	-3.364213e-06	-1.062741e-10	-2.380593e+01	-7.270418e+00
7.900000e-07	-3.285054e-06	-9.181962e-11	-2.324578e+01	-7.116725e+00
8.000000e-07	-3.205144e-06	-9.502623e-11	-2.268032e+01	-6.961825e+00
8.100000e-07	-3.124472e-06	-1.062189e-10	-2.210947e+01	-6.805989e+00
8.200000e-07	-3.043110e-06	-1.047489e-10	-2.153374e+01	-6.649390e+00
8.300000e-07	-2.961291e-06	-8.834055e-11	-2.095476e+01	-6.492120e+00
8.400000e-07	-2.879025e-06	-7.917281e-11	-2.037263e+01	-6.334204e+00
8.500000e-07	-2.796295e-06	-8.686526e-11	-1.978721e+01	-6.175624e+00
8.600000e-07	-2.713134e-06	-9.556403e-11	-1.919875e+01	-6.016341e+00
8.700000e-07	-2.629549e-06	-8.961653e-11	-1.860729e+01	-5.856318e+00
8.800000e-07	-2.545586e-06	-7.643036e-11	-1.801314e+01	-5.695544e+00
8.900000e-07	-2.461281e-06	-7.206835e-11	-1.741658e+01	-5.534049e+00
9.000000e-07	-2.376682e-06	-7.665884e-11	-1.681794e+01	-5.371914e+00
9.100000e-07	-2.291751e-06	-7.825268e-11	-1.621695e+01	-5.209280e+00
9.200000e-07	-2.206398e-06	-7.015321e-11	-1.561297e+01	-5.046346e+00
9.300000e-07	-2.120625e-06	-6.107734e-11	-1.500602e+01	-4.883361e+00
9.400000e-07	-2.034480e-06	-6.202343e-11	-1.439644e+01	-4.720611e+00
9.500000e-07	-1.948003e-06	-6.720876e-11	-1.378451e+01	-4.558406e+00
9.600000e-07	-1.861241e-06	-6.751804e-11	-1.317056e+01	-4.397056e+00
9.700000e-07	-1.774183e-06	-6.082957e-11	-1.255452e+01	-4.236856e+00
9.800000e-07	-1.686854e-06	-5.672731e-11	-1.193656e+01	-4.078065e+00
9.900000e-07	-1.599262e-06	-5.975523e-11	-1.131674e+01	-3.920890e+00
1.000000e-06	-1.511378e-06	-6.000430e-11	-1.069485e+01	-3.765473e+00
1.010000e-06	-1.423220e-06	-5.182131e-11	-1.007103e+01	-3.611880e+00
1.020000e-06	-1.334812e-06	-4.163939e-11	-9.445433e+00	-3.460104e+00
1.030000e-06	-1.246211e-06	-3.909423e-11	-8.818470e+00	-3.310060e+00
1.040000e-06	-1.157404e-06	-4.240135e-11	-8.190053e+00	-3.161594e+00
1.050000e-06	-1.068354e-06	-4.174189e-11	-7.559918e+00	-3.014491e+00
1.060000e-06	-9.791611e-07	-3.539889e-11	-6.928765e+00	-2.868488e+00
1.070000e-06	-8.898468e-07	-3.208945e-11	-6.296757e+00	-2.723286e+00
1.080000e-06	-8.003774e-07	-3.477540e-11	-5.663652e+00	-2.578565e+00
1.090000e-06	-7.107985e-07	-3.863780e-11	-5.029771e+00	-2.433996e+00
1.100000e-06	-6.210476e-07	-3.843083e-11	-4.394674e+00	-2.289249e+00
1.110000e-06	-5.310848e-07	-3.328978e-11	-3.758076e+00	-2.144005e+00
1.120000e-06	-4.410473e-07	-2.794220e-11	-3.120951e+00	-1.997954e+00
1.130000e-06	-3.509987e-07	-2.749010e-11	-2.483747e+00	-1.850806e+00
1.140000e-06	-2.608349e-07	-2.855107e-11	-1.845727e+00	-1.702280e+00
1.150000e-06	-1.705480e-07	-2.520838e-11	-1.206836e+00	-1.552111e+00
1.160000e-06	-8.021193e-08	-1.852662e-11	-5.675977e-01	-1.400040e+00
1.170000e-06	1.011918e-08	-1.332636e-11	7.160562e-02	-1.245815e+00
1.180000e-06	1.003969e-07	-1.350854e-11	7.104309e-01	-1.089189e+00
1.190000e-06	1.907361e-07	-1.748028e-11	1.349692e+00	-9.299212e-01
1.200000e-06	2.811157e-07	-1.652669e-11	1.989238e+00	-7.677827e-01
1.210000e-06	3.714090e-07	-1.136353e-11	2.628174e+00	-6.025619e-01
1.220000e-06	4.615691e-07	-9.506179e-12	3.266167e+00	-4.340779e-01
1.230000e-06	5.516261e-07	-1.217969e-11	3.903431e+00	-2.621946e-01
1.240000e-06	6.416124e-07	-1.318624e-11	4.540195e+00	-8.683634e-02
1.250000e-06	7.314999e-07	-6.783855e-12	5.176259e+00	9.199388e-02
1.260000e-06	8.212641e-07	6.771574e-13	5.811451e+00	2.741986e-01
1.270000e-06	9.108467e-07	1.145709e-12	6.445357e+00	4.595718e-01
1.280000e-06	1.000240e-06	-2.809210e-12	7.077924e+00	6.477887e-01
1.290000e-06	1.089472e-06	-1.454922e-12	7.709353e+00	8.384020e-01
1.300000e-06	1.178525e-06	7.562278e-12	8.339509e+00	1.030844e+00
1.310000e-06	1.267313e-06	1.423504e-11	8.967795e+00	1.224439e+00
1.320000e-06	1.355743e-06	1.421270e-11	9.593545e+00	1.418417e+00
1.330000e-06	1.443875e-06	1.258771e-11	1.021719e+01	1.611945e+00
1.340000e-06	1.531829e-06	1.505687e-11	1.083957e+01	1.804159e+00
1.350000e-06	1.619524e-06	2.098578e-11	1.146012e+01	1.994196e+00
1.360000e-06	1.706856e-06	2.421455e-11	1.207810e+01	2.181243e+00
1.370000e-06	1.793862e-06	2.354826e-11	1.269377e+01	2.364572e+00
1.380000e-06	1.880667e-06	2.300588e-11	1.330803e+01	2.543580e+00
1.390000e-06	1.967269e-06	2.738688e-11	1.392084e+01	2.717827e+00
1.400000e-06	2.053566e-06	3.412740e-11	1.453150e+01	2.887059e+00
1.410000e-06	2.139499e-06	3.702532e-11	1.513958e+01	3.051226e+00
1.420000e-06	2.225000e-06	3.691485e-11	1.574461e+01	3.210490e+00
1.430000e-06	2.310100e-06	3.773825e-11	1.634679e+01	3.365217e+00
1.440000e-06	2.394879e-06	4.175955e-11	1.694671e+01	3.515959e+00
1.450000e-06	2.479361e-06	4.603663e-11	1.754452e+01	3.663425e+00
1.460000e-06	2.563467e-06	4.718764e-11	1.813967e+01	3.808442e+00
1.470000e-06	2.647180e-06	4.714822e-11	1.873204e+01	3.951906e+00
1.480000e-06	2.730504e-06	4.795801e-11	1.932166e+01	4.094729e+00
1.490000e-06	2.813341e-06	5.140838e-11	1.990784e+01	4.237787e+00
1.500000e-06	2.895637e-06	5.635979e-11	2.049018e+01	4.381864e+00
1.510000e-06	2.977408e-06	5.936443e-11	2.106881e+01	4.527607e+00
1.520000e-06	3.058698e-06	5.831891e-11	2.164404e+01	4.675485e+00
1.530000e-06	3.139440e-06	5.852009e-11	2.221539e+01	4.825761e+00
1.540000e-06	3.219577e-06	6.349110e-11	2.278245e+01	4.978474e+00
1.550000e-06	3.299078e-06	6.911766e-11	2.334502e+01	5.133438e+00
1.560000e-06	3.377977e-06	7.162081e-11	2.390333e+01	5.290256e+00
1.570000e-06	3.456258e-06	7.123867e-11	2.445726e+01	5.448339e+00
1.580000e-06	3.533851e-06	7.112940e-11	2.500633e+01	5.606950e+00
1.590000e-06	3.610795e-06	7.434939e-11	2.555080e+01	5.765242e+00
1.600000e-06	3.687142e-06	8.115834e-11	2.609105e+01	5.922317e+00
1.610000e-06	3.762792e-06	8.600753e-11	2.662637e+01	6.077278e+00
1.620000e-06	3.837510e-06	8.617043e-11	2.715509e+01	6.229281e+00
1.630000e-06	3.911322e-06	8.550058e-11	2.767740e+01	6.377588e+00
1.640000e-06	3.984382e-06	8.840995e-11	2.819439e+01	6.521608e+00
1.650000e-06	4.056702e-06	9.170022e-11	2.870614e+01	6.660928e+00
1.660000e-06	4.128278e-06	9.206235e-11	2.921263e+01	6.795335e+00
1.670000e-06	4.199141e-06	9.070647e-11	2.971407e+01	6.924822e+00
1.680000e-06	4.269281e-06	9.260395e-11	3.021040e+01	7.049578e+00
1.690000e-06	4.338699e-06	9.824099e-11	3.070161e+01	7.169975e+00
1.700000e-06	4.407397e-06	1.000939e-10	3.118774e+01	7.286536e+00
1.710000e-06	4.475404e-06	9.798903e-11	3.166897e+01	7.399891e+00
1.720000e-06	4.542680e-06	9.724948e-11	3.214503e+01	7.510743e+00
1.730000e-06	4.609052e-06	9.942151e-11	3.261470e+01	7.619811e+00
1.740000e-06	4.674459e-06	1.033833e-10	3.307753e+01	7.727793e+00
1.750000e-06	4.738979e-06	1.051789e-10	3.353409e+01	7.835317e+00
1.760000e-06	4.802683e-06	1.045206e-10	3.398487e+01	7.942907e+00
1.770000e-06	4.865649e-06	1.059226e-10	3.443043e+01	8.050962e+00
1.780000e-06	4.927868e-06	1.090528e-10	3.487071e+01	8.159730e+00
1.790000e-06	4.989259e-06	1.125270e-10	3.530513e+01	8.269310e+00
1.800000e-06	5.049847e-06	1.139270e-10	3.573386e+01	8.379653e+00
1.810000e-06	5.109691e-06	1.145583e-10	3.615733e+01	8.490578e+00
1.820000e-06	5.168595e-06	1.165202e-10	3.657415e+01	8.601795e+00
1.830000e-06	5.226375e-06	1.185387e-10	3.698301e+01	8.712932e+00
1.840000e-06	5.283127e-06	1.210696e-10	3.738460e+01	8.823571e+00
1.850000e-06	5.338963e-06	1.230353e-10	3.777971e+01	8.933273e+00
1.860000e-06	5.393949e-06	1.242243e-10	3.816880e+01	9.041616e+00
1.870000e-06	5.448009e-06	1.251796e-10	3.855134e+01	9.148218e+00
1.880000e-06	5.501085e-06	1.266409e-10	3.892692e+01	9.252757e+00
1.890000e-06	5.553160e-06	1.286240e-10	3.929541e+01	9.354984e+00
1.900000e-06	5.604000e-06	1.299803e-10	3.965518e+01	9.454729e+00
1.910000e-06	5.653468e-06	1.305870e-10	4.000522e+01	9.551896e+00
1.920000e-06	5.701712e-06	1.307344e-10	4.034660e+01	9.646454e+00
1.930000e-06	5.748936e-06	1.331866e-10	4.068077e+01	9.738421e+00
1.940000e-06	5.795211e-06	1.371549e-10	4.100822e+01	9.827847e+00
1.950000e-06	5.840543e-06	1.380635e-10	4.132901e+01	9.914790e+00
1.960000e-06	5.885003e-06	1.367699e-10	4.164361e+01	9.999295e+00
1.970000e-06	5.928468e-06	1.371123e-10	4.195118e+01	1.008138e+01
1.980000e-06	5.970718e-06	1.398007e-10	4.225015e+01	1.016103e+01
1.990000e-06	6.011762e-06	1.427369e-10	4.254059e+01	1.023818e+01
2.000000e-06	6.051746e-06	1.436599e-10	4.282352e+01	1.031269e+01
2.010000e-06	6.090736e-06	1.431849e-10	4.309943e+01	1.038443e+01
2.020000e-06	6.128721e-06	1.450173e-10	4.336822e+01	1.045321e+01
2.030000e-06	6.165747e-06	1.470313e-10	4.363022e+01	1.051885e+01
2.040000e-06	6.201857e-06	1.463506e-10	4.388574e+01	1.058115e+01
2.050000e-06	6.236886e-06	1.445640e-10	4.413362e+01	1.064000e+01
2.060000e-06	6.270584e-06	1.428668e-10	4.437207e+01	1.069530e+01
2.070000e-06	6.302994e-06	1.433772e-10	4.460141e+01	1.074707e+01
2.080000e-06	6.334340e-06	1.452826e-10	4.482322e+01	1.079541e+01
2.090000e-06	6.364679e-06	1.462774e-10	4.503791e+01	1.084051e+01
2.100000e-06	6.393977e-06	1.464519e-10	4.524523e+01	1.088266e+01
2.110000e-06	6.422327e-06	1.471311e-10	4.544584e+01	1.092227e+01
2.120000e-06	6.449657e-06	1.496576e-10	4.563923e+01	1.095979e+01
2.130000e-06	6.475696e-06	1.519627e-10	4.582349e+01	1.099573e+01
2.140000e-06	6.500383e-06	1.527959e-10	4.599818e+01	1.103062e+01
2.150000e-06	6.523847e-06	1.526830e-10	4.616422e+01	1.106497e+01
2.160000e-06	6.546264e-06	1.524717e-10	4.632285e+01	1.109925e+01
2.170000e-06	6.567603e-06	1.526906e-10	4.647385e+01	1.113381e+01
2.180000e-06	6.587889e-06	1.528457e-10	4.661739e+01	1.116892e+01
2.190000e-06	6.607211e-06	1.522771e-10	4.675412e+01	1.120471e+01
2.200000e-06	6.625395e-06	1.511926e-10	4.688280e+01	1.124115e+01
2.210000e-06	6.642318e-06	1.516129e-10	4.700254e+01	1.127807e+01
2.220000e-06	6.657927e-06	1.537432e-10	4.711300e+01	1.131516e+01
2.230000e-06	6.672246e-06	1.578510e-10	4.721432e+01	1.135199e+01
2.240000e-06	6.685368e-06	1.591843e-10	4.730718e+01	1.138804e+01
2.250000e-06	6.697270e-06	1.569161e-10	4.739140e+01	1.142275e+01
2.260000e-06	6.707802e-06	1.559592e-10	4.746593e+01	1.145553e+01
2.270000e-06	6.716913e-06	1.569176e-10	4.753039e+01	1.148584e+01
2.280000e-06	6.724802e-06	1.586671e-10	4.758622e+01	1.151320e+01
2.290000e-06	6.731561e-06	1.580958e-10	4.763405e+01	1.153728e+01
2.300000e-06	6.737171e-06	1.580508e-10	4.767375e+01	1.155787e+01
2.310000e-06	6.741718e-06	1.595169e-10	4.770593e+01	1.157493e+01
2.320000e-06	6.745146e-06	1.607560e-10	4.773018e+01	1.158860e+01
2.330000e-06	6.747252e-06	1.618539e-10	4.774509e+01	1.159919e+01
2.340000e-06	6.748053e-06	1.600745e-10	4.775075e+01	1.160718e+01
2.350000e-06	6.747703e-06	1.581728e-10	4.774827e+01	1.161315e+01
2.360000e-06	6.746308e-06	1.587769e-10	4.773840e+01	1.161777e+01
2.370000e-06	6.743894e-06	1.596137e-10	4.772132e+01	1.162177e+01
2.380000e-06	6.740467e-06	1.582156e-10	4.769707e+01	1.162583e+01
2.390000e-06	6.736041e-06	1.571463e-10	4.766575e+01	1.163058e+01
2.400000e-06	6.730430e-06	1.576245e-10	4.762604e+01	1.163655e+01
2.410000e-06	6.723567e-06	1.548052e-10	4.757748e+01	1.164411e+01
2.420000e-06	6.715580e-06	1.303356e-10	4.752097e+01	1.165342e+01
2.430000e-06	6.706548e-06	1.269265e-10	4.745705e+01	1.166447e+01
2.440000e-06	6.696288e-06	2.104430e-10	4.738445e+01	1.167702e+01
2.450000e-06	6.684307e-06	2.247405e-10	4.729967e+01	1.169067e+01
2.460000e-06	6.670371e-06	2.025643e-10	4.720106e+01	1.170480e+01
2.470000e-06	6.655005e-06	6.094588e-11	4.709232e+01	1.171870e+01
2.480000e-06	6.638973e-06	2.340095e-11	4.697887e+01	1.173158e+01
2.490000e-06	6.622286e-06	3.056194e-10	4.686080e+01	1.174260e+01
2.500000e-06	6.604333e-06	2.233231e-10	4.673375e+01	1.175097e+01
2.510000e-06	6.585149e-06	1.121324e-10	4.659800e+01	1.175598e+01
2.520000e-06	6.565123e-06	2.498586e-10	4.645630e+01	1.175708e+01
2.530000e-06	6.543963e-06	5.229332e-11	4.630656e+01	1.175387e+01
2.540000e-06	6.521289e-06	8.147258e-11	4.614612e+01	1.174617e+01
2.550000e-06	6.497361e-06	3.716397e-10	4.597680e+01	1.173405e+01
2.560000e-06	6.472510e-06	1.536547e-10	4.580095e+01	1.171776e+01
2.570000e-06	6.446689e-06	7.461482e-11	4.561823e+01	1.169777e+01
2.580000e-06	6.419772e-06	3.339743e-10	4.542776e+01	1.167470e+01
2.590000e-06	6.391656e-06	2.053476e-10	4.522880e+01	1.164931e+01
2.600000e-06	6.362449e-06	1.229632e-10	4.502213e+01	1.162241e+01
2.610000e-06	6.332063e-06	1.887344e-10	4.480711e+01	1.159479e+01
2.620000e-06	6.300313e-06	2.032852e-10	4.458244e+01	1.156719e+01
2.630000e-06	6.267428e-06	3.240973e-10	4.434974e+01	1.154022e+01
2.640000e-06	6.233469e-06	1.338978e-10	4.410944e+01	1.151430e+01
2.650000e-06	6.198409e-06	6.486705e-11	4.386135e+01	1.148964e+01
2.660000e-06	6.162360e-06	3.282701e-10	4.360625e+01	1.146619e+01
2.670000e-06	6.125229e-06	2.853909e-10	4.334351e+01	1.144365e+01
2.680000e-06	6.086842e-06	1.473136e-10	4.307187e+01	1.142146e+01
2.690000e-06	6.047202e-06	1.028764e-10	4.279137e+01	1.139886e+01
2.700000e-06	6.006528e-06	2.040440e-10	4.250355e+01	1.137488e+01
2.710000e-06	5.964930e-06	3.085042e-10	4.220919e+01	1.134845e+01
2.720000e-06	5.922312e-06	1.644116e-10	4.190762e+01	1.131845e+01
2.730000e-06	5.878699e-06	1.383206e-10	4.159901e+01	1.128375e+01
2.740000e-06	5.834175e-06	1.733449e-10	4.128394e+01	1.124333e+01
2.750000e-06	5.788726e-06	2.131600e-10	4.096234e+01	1.119632e+01
2.760000e-06	5.742203e-06	2.672096e-10	4.063313e+01	1.114205e+01
2.770000e-06	5.694525e-06	1.569079e-10	4.029575e+01	1.108013e+01
2.780000e-06	5.645765e-06	1.380172e-10	3.995071e+01	1.101044e+01
2.790000e-06	5.595978e-06	1.773891e-10	3.959840e+01	1.093319e+01
2.800000e-06	5.545137e-06	2.336847e-10	3.923864e+01	1.084885e+01
2.810000e-06	5.493225e-06	2.478848e-10	3.887130e+01	1.075820e+01
2.820000e-06	5.440261e-06	1.253996e-10	3.849652e+01	1.066220e+01
2.830000e-06	5.386054e-06	1.327509e-10	3.811294e+01	1.056201e+01
2.840000e-06	5.330581e-06	2.123091e-10	3.772040e+01	1.045889e+01
2.850000e-06	5.274204e-06	2.395495e-10	3.732146e+01	1.035411e+01
2.860000e-06	5.217070e-06	1.829835e-10	3.691716e+01	1.024893e+01
2.870000e-06	5.159052e-06	1.294607e-10	3.650662e+01	1.014446e+01
2.880000e-06	5.100134e-06	1.811754e-10	3.608970e+01	1.004165e+01
2.890000e-06	5.040367e-06	2.051102e-10	3.566678e+01	9.941218e+00
2.900000e-06	4.979745e-06	2.001743e-10	3.523780e+01	9.843617e+00
2.910000e-06	4.918186e-06	1.689307e-10	3.480220e+01	9.749018e+00
2.920000e-06	4.855533e-06	1.527603e-10	3.435885e+01	9.657303e+00
2.930000e-06	4.791866e-06	1.791664e-10	3.390833e+01	9.568088e+00
2.940000e-06	4.727431e-06	2.039068e-10	3.345237e+01	9.480748e+00
2.950000e-06	4.662285e-06	2.028433e-10	3.299138e+01	9.394468e+00
