# Temperatura_=_20.0
# Concentracion g/m^3_=_12600.0
# C_Vs_to_Am_M_A/Vsm_=_65563218390.804596
# pendiente_HvsI_1/m_=_3716.3
# ordenada_HvsI_A/m_=_1297.0
# frecuencia_Hz_=_213174.08158583174

Tiempo_(s)	Campo_(V.s)	Magnetizacion_(V.s)	Campo_(kA/m)	Magnetizacion_(A/m)
0.000000e+00	-6.664715e-06	-4.016175e-09	-4.757109e+01	-2.604526e+02
1.000000e-08	-6.664306e-06	-4.013541e-09	-4.756817e+01	-2.604015e+02
2.000000e-08	-6.662549e-06	-4.013484e-09	-4.755563e+01	-2.603026e+02
3.000000e-08	-6.659404e-06	-4.015968e-09	-4.753318e+01	-2.601600e+02
4.000000e-08	-6.655354e-06	-4.017833e-09	-4.750427e+01	-2.599799e+02
5.000000e-08	-6.650397e-06	-4.015944e-09	-4.746889e+01	-2.597708e+02
6.000000e-08	-6.644258e-06	-4.011607e-09	-4.742507e+01	-2.595431e+02
7.000000e-08	-6.637014e-06	-4.010144e-09	-4.737336e+01	-2.593085e+02
8.000000e-08	-6.628835e-06	-4.008762e-09	-4.731498e+01	-2.590797e+02
9.000000e-08	-6.619377e-06	-3.992866e-09	-4.724747e+01	-2.588692e+02
1.000000e-07	-6.608184e-06	-4.006521e-09	-4.716758e+01	-2.586891e+02
1.100000e-07	-6.595309e-06	-4.017934e-09	-4.707568e+01	-2.585499e+02
1.200000e-07	-6.580953e-06	-4.008991e-09	-4.697321e+01	-2.584602e+02
1.300000e-07	-6.565154e-06	-4.000792e-09	-4.686044e+01	-2.584258e+02
1.400000e-07	-6.548190e-06	-3.938617e-09	-4.673936e+01	-2.584492e+02
1.500000e-07	-6.530350e-06	-3.972497e-09	-4.661202e+01	-2.585295e+02
1.600000e-07	-6.511526e-06	-4.035065e-09	-4.647766e+01	-2.586622e+02
1.700000e-07	-6.491831e-06	-3.947066e-09	-4.633709e+01	-2.588391e+02
1.800000e-07	-6.471190e-06	-3.944962e-09	-4.618975e+01	-2.590490e+02
1.900000e-07	-6.449406e-06	-3.967849e-09	-4.603426e+01	-2.592779e+02
2.000000e-07	-6.426672e-06	-3.920757e-09	-4.587200e+01	-2.595095e+02
2.100000e-07	-6.402970e-06	-3.999356e-09	-4.570281e+01	-2.597264e+02
2.200000e-07	-6.377981e-06	-4.002253e-09	-4.552445e+01	-2.599107e+02
2.300000e-07	-6.351516e-06	-3.905327e-09	-4.533555e+01	-2.600447e+02
2.400000e-07	-6.323860e-06	-3.980429e-09	-4.513815e+01	-2.601121e+02
2.500000e-07	-6.295299e-06	-4.031815e-09	-4.493429e+01	-2.600988e+02
2.600000e-07	-6.265710e-06	-3.976721e-09	-4.472309e+01	-2.599930e+02
2.700000e-07	-6.234941e-06	-3.932048e-09	-4.450347e+01	-2.597863e+02
2.800000e-07	-6.203190e-06	-3.876265e-09	-4.427684e+01	-2.594740e+02
2.900000e-07	-6.170543e-06	-3.922551e-09	-4.404381e+01	-2.590547e+02
3.000000e-07	-6.136624e-06	-3.991428e-09	-4.380170e+01	-2.585307e+02
3.100000e-07	-6.101359e-06	-3.919428e-09	-4.354999e+01	-2.579074e+02
3.200000e-07	-6.064929e-06	-3.833174e-09	-4.328997e+01	-2.571931e+02
3.300000e-07	-6.027446e-06	-3.848829e-09	-4.302242e+01	-2.563981e+02
3.400000e-07	-5.988975e-06	-3.910355e-09	-4.274782e+01	-2.555344e+02
3.500000e-07	-5.949553e-06	-3.916058e-09	-4.246644e+01	-2.546145e+02
3.600000e-07	-5.909199e-06	-3.835767e-09	-4.217840e+01	-2.536508e+02
3.700000e-07	-5.867623e-06	-3.769647e-09	-4.188164e+01	-2.526553e+02
3.800000e-07	-5.824670e-06	-3.801551e-09	-4.157506e+01	-2.516382e+02
3.900000e-07	-5.780664e-06	-3.868173e-09	-4.126095e+01	-2.506080e+02
4.000000e-07	-5.735733e-06	-3.818083e-09	-4.094024e+01	-2.495712e+02
4.100000e-07	-5.689822e-06	-3.706961e-09	-4.061254e+01	-2.485315e+02
4.200000e-07	-5.642908e-06	-3.704737e-09	-4.027768e+01	-2.474903e+02
4.300000e-07	-5.595067e-06	-3.774006e-09	-3.993620e+01	-2.464470e+02
4.400000e-07	-5.546121e-06	-3.783484e-09	-3.958684e+01	-2.453987e+02
4.500000e-07	-5.495677e-06	-3.704370e-09	-3.922678e+01	-2.443409e+02
4.600000e-07	-5.443906e-06	-3.635858e-09	-3.885725e+01	-2.432681e+02
4.700000e-07	-5.391181e-06	-3.658882e-09	-3.848092e+01	-2.421743e+02
4.800000e-07	-5.337574e-06	-3.699088e-09	-3.809828e+01	-2.410532e+02
4.900000e-07	-5.283012e-06	-3.665549e-09	-3.770883e+01	-2.398989e+02
5.000000e-07	-5.227557e-06	-3.593318e-09	-3.731301e+01	-2.387067e+02
5.100000e-07	-5.171313e-06	-3.563187e-09	-3.691155e+01	-2.374726e+02
5.200000e-07	-5.113994e-06	-3.578879e-09	-3.650242e+01	-2.361942e+02
5.300000e-07	-5.055377e-06	-3.588380e-09	-3.608403e+01	-2.348706e+02
5.400000e-07	-4.995781e-06	-3.556502e-09	-3.565865e+01	-2.335023e+02
5.500000e-07	-4.935504e-06	-3.500667e-09	-3.522841e+01	-2.320909e+02
5.600000e-07	-4.874415e-06	-3.471179e-09	-3.479237e+01	-2.306392e+02
5.700000e-07	-4.812484e-06	-3.478037e-09	-3.435032e+01	-2.291508e+02
5.800000e-07	-4.749751e-06	-3.480350e-09	-3.390255e+01	-2.276295e+02
5.900000e-07	-4.686199e-06	-3.439716e-09	-3.344893e+01	-2.260792e+02
6.000000e-07	-4.621922e-06	-3.383548e-09	-3.299013e+01	-2.245034e+02
6.100000e-07	-4.556710e-06	-3.357016e-09	-3.252467e+01	-2.229049e+02
6.200000e-07	-4.490338e-06	-3.363856e-09	-3.205092e+01	-2.212858e+02
6.300000e-07	-4.423051e-06	-3.362846e-09	-3.157064e+01	-2.196469e+02
6.400000e-07	-4.355191e-06	-3.313002e-09	-3.108628e+01	-2.179881e+02
6.500000e-07	-4.286703e-06	-3.250198e-09	-3.059742e+01	-2.163081e+02
6.600000e-07	-4.217448e-06	-3.231096e-09	-3.010310e+01	-2.146047e+02
6.700000e-07	-4.147428e-06	-3.246032e-09	-2.960331e+01	-2.128750e+02
6.800000e-07	-4.076692e-06	-3.232023e-09	-2.909842e+01	-2.111153e+02
6.900000e-07	-4.005329e-06	-3.166391e-09	-2.858905e+01	-2.093219e+02
7.000000e-07	-3.933419e-06	-3.112610e-09	-2.807577e+01	-2.074911e+02
7.100000e-07	-3.860830e-06	-3.110214e-09	-2.755765e+01	-2.056195e+02
7.200000e-07	-3.787358e-06	-3.116584e-09	-2.703323e+01	-2.037042e+02
7.300000e-07	-3.712920e-06	-3.076603e-09	-2.650191e+01	-2.017432e+02
7.400000e-07	-3.637584e-06	-3.007476e-09	-2.596417e+01	-1.997350e+02
7.500000e-07	-3.561559e-06	-2.970457e-09	-2.542153e+01	-1.976793e+02
7.600000e-07	-3.484850e-06	-2.967258e-09	-2.487399e+01	-1.955765e+02
7.700000e-07	-3.407492e-06	-2.953154e-09	-2.432183e+01	-1.934276e+02
7.800000e-07	-3.329628e-06	-2.902485e-09	-2.376606e+01	-1.912343e+02
7.900000e-07	-3.251195e-06	-2.843464e-09	-2.320623e+01	-1.889985e+02
8.000000e-07	-3.171933e-06	-2.813643e-09	-2.264048e+01	-1.867223e+02
8.100000e-07	-3.091815e-06	-2.799152e-09	-2.206861e+01	-1.844077e+02
8.200000e-07	-3.011079e-06	-2.770556e-09	-2.149234e+01	-1.820562e+02
8.300000e-07	-2.929859e-06	-2.718844e-09	-2.091261e+01	-1.796687e+02
8.400000e-07	-2.848278e-06	-2.666879e-09	-2.033030e+01	-1.772456e+02
8.500000e-07	-2.766340e-06	-2.636448e-09	-1.974545e+01	-1.747865e+02
8.600000e-07	-2.683851e-06	-2.615402e-09	-1.915666e+01	-1.722903e+02
8.700000e-07	-2.600761e-06	-2.584046e-09	-1.856359e+01	-1.697552e+02
8.800000e-07	-2.517256e-06	-2.530869e-09	-1.796755e+01	-1.671787e+02
8.900000e-07	-2.433487e-06	-2.471674e-09	-1.736963e+01	-1.645580e+02
9.000000e-07	-2.349456e-06	-2.432987e-09	-1.676984e+01	-1.618903e+02
9.100000e-07	-2.265095e-06	-2.409153e-09	-1.616769e+01	-1.591727e+02
9.200000e-07	-2.180365e-06	-2.374550e-09	-1.556290e+01	-1.564023e+02
9.300000e-07	-2.095253e-06	-2.315045e-09	-1.495540e+01	-1.535769e+02
9.400000e-07	-2.009794e-06	-2.257009e-09	-1.434541e+01	-1.506948e+02
9.500000e-07	-1.924004e-06	-2.226812e-09	-1.373307e+01	-1.477549e+02
9.600000e-07	-1.837885e-06	-2.202393e-09	-1.311837e+01	-1.447569e+02
9.700000e-07	-1.751447e-06	-2.153116e-09	-1.250139e+01	-1.417009e+02
9.800000e-07	-1.664712e-06	-2.084777e-09	-1.188230e+01	-1.385880e+02
9.900000e-07	-1.577656e-06	-2.030003e-09	-1.126092e+01	-1.354194e+02
1.000000e-06	-1.490279e-06	-1.996572e-09	-1.063724e+01	-1.321966e+02
1.010000e-06	-1.402648e-06	-1.954823e-09	-1.001176e+01	-1.289214e+02
1.020000e-06	-1.314849e-06	-1.890449e-09	-9.385067e+00	-1.255952e+02
1.030000e-06	-1.226968e-06	-1.823246e-09	-8.757795e+00	-1.222193e+02
1.040000e-06	-1.138995e-06	-1.776394e-09	-8.129866e+00	-1.187945e+02
1.050000e-06	-1.050918e-06	-1.739826e-09	-7.501193e+00	-1.153209e+02
1.060000e-06	-9.628010e-07	-1.687101e-09	-6.872236e+00	-1.117981e+02
1.070000e-06	-8.746230e-07	-1.619748e-09	-6.242843e+00	-1.082248e+02
1.080000e-06	-7.862716e-07	-1.556686e-09	-5.612212e+00	-1.045993e+02
1.090000e-06	-6.976873e-07	-1.509888e-09	-4.979920e+00	-1.009194e+02
1.100000e-06	-6.089691e-07	-1.464692e-09	-4.346671e+00	-9.718238e+01
1.110000e-06	-5.201880e-07	-1.405703e-09	-3.712973e+00	-9.338542e+01
1.120000e-06	-4.312716e-07	-1.339618e-09	-3.078310e+00	-8.952572e+01
1.130000e-06	-3.422100e-07	-1.276799e-09	-2.442610e+00	-8.560065e+01
1.140000e-06	-2.529663e-07	-1.221887e-09	-1.805611e+00	-8.160794e+01
1.150000e-06	-1.636037e-07	-1.164464e-09	-1.167763e+00	-7.754584e+01
1.160000e-06	-7.426296e-08	-1.098270e-09	-5.300706e-01	-7.341318e+01
1.170000e-06	1.506353e-08	-1.026761e-09	1.075198e-01	-6.920941e+01
1.180000e-06	1.044010e-07	-9.556355e-10	7.451883e-01	-6.493457e+01
1.190000e-06	1.937105e-07	-8.938841e-10	1.382658e+00	-6.058923e+01
1.200000e-06	2.830007e-07	-8.365681e-10	2.019989e+00	-5.617436e+01
1.210000e-06	3.721681e-07	-7.714895e-10	2.656444e+00	-5.169115e+01
1.220000e-06	4.612285e-07	-6.956034e-10	3.292135e+00	-4.714085e+01
1.230000e-06	5.501886e-07	-6.211955e-10	3.927110e+00	-4.252456e+01
1.240000e-06	6.389638e-07	-5.568517e-10	4.560766e+00	-3.784312e+01
1.250000e-06	7.276023e-07	-4.916378e-10	5.193446e+00	-3.309695e+01
1.260000e-06	8.160633e-07	-4.150554e-10	5.824858e+00	-2.828594e+01
1.270000e-06	9.044021e-07	-3.331593e-10	6.455398e+00	-2.340954e+01
1.280000e-06	9.926247e-07	-2.572471e-10	7.085110e+00	-1.846671e+01
1.290000e-06	1.080690e-06	-1.887666e-10	7.713695e+00	-1.345616e+01
1.300000e-06	1.168643e-06	-1.150191e-10	8.341486e+00	-8.376465e+00
1.310000e-06	1.256505e-06	-2.917217e-11	8.968625e+00	-3.226383e+00
1.320000e-06	1.344288e-06	5.900330e-11	9.595193e+00	1.994868e+00
1.330000e-06	1.431899e-06	1.380633e-10	1.022054e+01	7.287285e+00
1.340000e-06	1.519252e-06	2.095676e-10	1.084405e+01	1.264976e+01
1.350000e-06	1.606280e-06	2.883086e-10	1.146523e+01	1.807980e+01
1.360000e-06	1.692964e-06	3.768752e-10	1.208396e+01	2.357327e+01
1.370000e-06	1.779339e-06	4.648916e-10	1.270048e+01	2.912425e+01
1.380000e-06	1.865406e-06	5.464733e-10	1.331481e+01	3.472494e+01
1.390000e-06	1.951211e-06	6.272160e-10	1.392726e+01	4.036566e+01
1.400000e-06	2.036764e-06	7.163644e-10	1.453792e+01	4.603503e+01
1.410000e-06	2.121995e-06	8.105462e-10	1.514628e+01	5.172015e+01
1.420000e-06	2.206734e-06	8.999547e-10	1.575112e+01	5.740691e+01
1.430000e-06	2.290986e-06	9.826481e-10	1.635249e+01	6.308041e+01
1.440000e-06	2.374971e-06	1.063675e-09	1.695196e+01	6.872539e+01
1.450000e-06	2.458789e-06	1.148154e-09	1.755023e+01	7.432668e+01
1.460000e-06	2.542370e-06	1.234302e-09	1.814680e+01	7.986970e+01
1.470000e-06	2.625556e-06	1.319301e-09	1.874057e+01	8.534089e+01
1.480000e-06	2.708167e-06	1.399470e-09	1.933022e+01	9.072809e+01
1.490000e-06	2.790169e-06	1.475948e-09	1.991554e+01	9.602085e+01
1.500000e-06	2.871631e-06	1.557688e-09	2.049699e+01	1.012107e+02
1.510000e-06	2.952606e-06	1.640913e-09	2.107497e+01	1.062912e+02
1.520000e-06	3.033215e-06	1.716332e-09	2.165034e+01	1.112579e+02
1.530000e-06	3.113364e-06	1.785025e-09	2.222242e+01	1.161085e+02
1.540000e-06	3.192860e-06	1.854862e-09	2.278985e+01	1.208423e+02
1.550000e-06	3.271585e-06	1.930040e-09	2.335177e+01	1.254601e+02
1.560000e-06	3.349659e-06	2.004820e-09	2.390904e+01	1.299642e+02
1.570000e-06	3.427271e-06	2.072326e-09	2.446301e+01	1.343573e+02
1.580000e-06	3.504234e-06	2.131774e-09	2.501235e+01	1.386428e+02
1.590000e-06	3.580483e-06	2.192738e-09	2.555660e+01	1.428244e+02
1.600000e-06	3.656148e-06	2.261383e-09	2.609668e+01	1.469053e+02
1.610000e-06	3.731162e-06	2.328585e-09	2.663211e+01	1.508886e+02
1.620000e-06	3.805268e-06	2.385728e-09	2.716106e+01	1.547766e+02
1.630000e-06	3.878299e-06	2.435280e-09	2.768234e+01	1.585712e+02
1.640000e-06	3.950521e-06	2.488231e-09	2.819784e+01	1.622733e+02
1.650000e-06	4.022248e-06	2.545479e-09	2.870981e+01	1.658836e+02
1.660000e-06	4.093337e-06	2.599140e-09	2.921723e+01	1.694021e+02
1.670000e-06	4.163619e-06	2.646808e-09	2.971888e+01	1.728285e+02
1.680000e-06	4.233169e-06	2.692336e-09	3.021532e+01	1.761626e+02
1.690000e-06	4.302014e-06	2.741827e-09	3.070671e+01	1.794041e+02
1.700000e-06	4.370179e-06	2.792333e-09	3.119325e+01	1.825532e+02
1.710000e-06	4.437816e-06	2.837637e-09	3.167603e+01	1.856103e+02
1.720000e-06	4.504687e-06	2.876916e-09	3.215334e+01	1.885767e+02
1.730000e-06	4.570412e-06	2.914556e-09	3.262247e+01	1.914540e+02
1.740000e-06	4.635101e-06	2.955195e-09	3.308420e+01	1.942446e+02
1.750000e-06	4.699051e-06	2.995478e-09	3.354066e+01	1.969515e+02
1.760000e-06	4.762256e-06	3.031045e-09	3.399181e+01	1.995779e+02
1.770000e-06	4.824635e-06	3.064915e-09	3.443705e+01	2.021274e+02
1.780000e-06	4.886243e-06	3.100663e-09	3.487679e+01	2.046036e+02
1.790000e-06	4.947117e-06	3.137721e-09	3.531130e+01	2.070100e+02
1.800000e-06	5.007282e-06	3.172141e-09	3.574074e+01	2.093497e+02
1.810000e-06	5.066765e-06	3.203935e-09	3.616531e+01	2.116253e+02
1.820000e-06	5.125302e-06	3.234794e-09	3.658314e+01	2.138387e+02
1.830000e-06	5.182516e-06	3.265169e-09	3.699152e+01	2.159913e+02
1.840000e-06	5.238626e-06	3.297336e-09	3.739202e+01	2.180836e+02
1.850000e-06	5.293942e-06	3.327865e-09	3.778685e+01	2.201154e+02
1.860000e-06	5.348408e-06	3.353422e-09	3.817561e+01	2.220863e+02
1.870000e-06	5.401965e-06	3.377158e-09	3.855789e+01	2.239953e+02
1.880000e-06	5.454576e-06	3.402141e-09	3.893341e+01	2.258411e+02
1.890000e-06	5.506070e-06	3.426799e-09	3.930097e+01	2.276227e+02
1.900000e-06	5.556243e-06	3.449069e-09	3.965909e+01	2.293393e+02
1.910000e-06	5.605065e-06	3.469480e-09	4.000757e+01	2.309907e+02
1.920000e-06	5.652802e-06	3.490450e-09	4.034831e+01	2.325770e+02
1.930000e-06	5.699663e-06	3.513571e-09	4.068278e+01	2.340993e+02
1.940000e-06	5.745610e-06	3.536599e-09	4.101074e+01	2.355595e+02
1.950000e-06	5.790577e-06	3.557913e-09	4.133171e+01	2.369601e+02
1.960000e-06	5.834660e-06	3.577274e-09	4.164636e+01	2.383043e+02
1.970000e-06	5.877887e-06	3.596015e-09	4.195490e+01	2.395958e+02
1.980000e-06	5.919862e-06	3.614731e-09	4.225451e+01	2.408386e+02
1.990000e-06	5.960462e-06	3.632593e-09	4.254430e+01	2.420367e+02
2.000000e-06	6.000047e-06	3.648751e-09	4.282685e+01	2.431939e+02
2.010000e-06	6.038672e-06	3.663051e-09	4.310255e+01	2.443135e+02
2.020000e-06	6.076284e-06	3.678837e-09	4.337101e+01	2.453982e+02
2.030000e-06	6.112915e-06	3.697075e-09	4.363248e+01	2.464497e+02
2.040000e-06	6.148678e-06	3.715090e-09	4.388774e+01	2.474690e+02
2.050000e-06	6.183432e-06	3.729722e-09	4.413581e+01	2.484558e+02
2.060000e-06	6.216796e-06	3.741926e-09	4.437395e+01	2.494093e+02
2.070000e-06	6.248931e-06	3.756048e-09	4.460333e+01	2.503275e+02
2.080000e-06	6.280043e-06	3.771151e-09	4.482539e+01	2.512081e+02
2.090000e-06	6.310139e-06	3.784094e-09	4.504021e+01	2.520484e+02
2.100000e-06	6.339273e-06	3.794323e-09	4.524816e+01	2.528458e+02
2.110000e-06	6.367433e-06	3.805733e-09	4.544916e+01	2.535977e+02
2.120000e-06	6.394510e-06	3.819796e-09	4.564243e+01	2.543024e+02
2.130000e-06	6.420279e-06	3.832197e-09	4.582636e+01	2.549589e+02
2.140000e-06	6.444701e-06	3.841775e-09	4.600068e+01	2.555669e+02
2.150000e-06	6.467917e-06	3.850873e-09	4.616639e+01	2.561278e+02
2.160000e-06	6.490049e-06	3.860396e-09	4.632436e+01	2.566435e+02
2.170000e-06	6.511135e-06	3.869178e-09	4.647487e+01	2.571172e+02
2.180000e-06	6.531246e-06	3.876196e-09	4.661842e+01	2.575531e+02
2.190000e-06	6.550425e-06	3.882808e-09	4.675531e+01	2.579557e+02
2.200000e-06	6.568435e-06	3.890159e-09	4.688387e+01	2.583298e+02
2.210000e-06	6.585216e-06	3.897523e-09	4.700365e+01	2.586803e+02
2.220000e-06	6.600826e-06	3.902747e-09	4.711506e+01	2.590113e+02
2.230000e-06	6.615144e-06	3.908559e-09	4.721726e+01	2.593264e+02
2.240000e-06	6.628200e-06	3.915784e-09	4.731045e+01	2.596277e+02
2.250000e-06	6.640064e-06	3.920119e-09	4.739513e+01	2.599163e+02
2.260000e-06	6.650537e-06	3.923081e-09	4.746989e+01	2.601916e+02
2.270000e-06	6.659461e-06	3.927574e-09	4.753358e+01	2.604516e+02
2.280000e-06	6.667159e-06	3.932597e-09	4.758853e+01	2.606929e+02
2.290000e-06	6.673811e-06	3.935496e-09	4.763601e+01	2.609110e+02
2.300000e-06	6.679294e-06	3.937421e-09	4.767515e+01	2.611007e+02
2.310000e-06	6.683695e-06	3.940701e-09	4.770656e+01	2.612564e+02
2.320000e-06	6.687048e-06	3.943664e-09	4.773050e+01	2.613727e+02
2.330000e-06	6.689145e-06	3.944220e-09	4.774546e+01	2.614451e+02
2.340000e-06	6.689886e-06	3.942911e-09	4.775075e+01	2.614701e+02
2.350000e-06	6.689475e-06	3.941855e-09	4.774782e+01	2.614459e+02
2.360000e-06	6.688048e-06	3.942795e-09	4.773763e+01	2.613729e+02
2.370000e-06	6.685570e-06	3.942266e-09	4.771994e+01	2.612536e+02
2.380000e-06	6.682083e-06	3.939822e-09	4.769506e+01	2.610931e+02
2.390000e-06	6.677699e-06	3.935346e-09	4.766377e+01	2.608987e+02
2.400000e-06	6.672133e-06	3.932635e-09	4.762403e+01	2.606798e+02
2.410000e-06	6.665123e-06	3.930478e-09	4.757400e+01	2.604474e+02
2.420000e-06	6.657010e-06	3.923346e-09	4.751609e+01	2.602137e+02
2.430000e-06	6.647996e-06	3.943305e-09	4.745175e+01	2.599914e+02
2.440000e-06	6.637825e-06	3.915089e-09	4.737915e+01	2.597931e+02
2.450000e-06	6.625973e-06	3.895537e-09	4.729456e+01	2.596301e+02
2.460000e-06	6.612114e-06	3.881972e-09	4.719563e+01	2.595123e+02
2.470000e-06	6.596689e-06	3.904490e-09	4.708553e+01	2.594468e+02
2.480000e-06	6.580592e-06	4.000005e-09	4.697064e+01	2.594382e+02
2.490000e-06	6.564014e-06	3.925173e-09	4.685231e+01	2.594874e+02
2.500000e-06	6.546121e-06	3.889970e-09	4.672459e+01	2.595920e+02
2.510000e-06	6.526800e-06	3.990248e-09	4.658669e+01	2.597457e+02
2.520000e-06	6.506897e-06	3.932172e-09	4.644462e+01	2.599389e+02
2.530000e-06	6.485993e-06	3.928185e-09	4.629541e+01	2.601592e+02
2.540000e-06	6.463267e-06	3.991992e-09	4.613320e+01	2.603913e+02
2.550000e-06	6.439305e-06	3.890003e-09	4.596216e+01	2.606184e+02
2.560000e-06	6.414498e-06	3.932696e-09	4.578510e+01	2.608228e+02
2.570000e-06	6.388739e-06	4.068290e-09	4.560124e+01	2.609864e+02
2.580000e-06	6.361986e-06	3.969932e-09	4.541029e+01	2.610923e+02
2.590000e-06	6.334038e-06	3.957287e-09	4.521079e+01	2.611249e+02
2.600000e-06	6.305155e-06	4.028750e-09	4.500464e+01	2.610711e+02
2.610000e-06	6.275163e-06	4.046968e-09	4.479056e+01	2.609207e+02
2.620000e-06	6.243596e-06	4.125556e-09	4.456524e+01	2.606668e+02
2.630000e-06	6.210864e-06	3.985408e-09	4.433161e+01	2.603062e+02
2.640000e-06	6.177123e-06	3.878387e-09	4.409077e+01	2.598392e+02
2.650000e-06	6.142211e-06	4.010637e-09	4.384158e+01	2.592695e+02
2.660000e-06	6.106393e-06	4.032991e-09	4.358592e+01	2.586040e+02
2.670000e-06	6.069689e-06	3.984684e-09	4.332394e+01	2.578519e+02
2.680000e-06	6.031749e-06	3.877189e-09	4.305313e+01	2.570244e+02
2.690000e-06	5.992403e-06	3.833047e-09	4.277229e+01	2.561337e+02
2.700000e-06	5.951972e-06	3.965121e-09	4.248370e+01	2.551925e+02
2.710000e-06	5.910738e-06	3.971575e-09	4.218939e+01	2.542130e+02
2.720000e-06	5.868487e-06	3.877893e-09	4.188781e+01	2.532065e+02
2.730000e-06	5.825162e-06	3.781600e-09	4.157857e+01	2.521825e+02
2.740000e-06	5.780970e-06	3.817759e-09	4.126313e+01	2.511486e+02
2.750000e-06	5.735974e-06	3.946687e-09	4.094197e+01	2.501101e+02
2.760000e-06	5.689959e-06	3.866793e-09	4.061352e+01	2.490696e+02
2.770000e-06	5.642706e-06	3.754483e-09	4.027624e+01	2.480276e+02
2.780000e-06	5.594387e-06	3.734346e-09	3.993135e+01	2.469824e+02
2.790000e-06	5.545076e-06	3.794553e-09	3.957938e+01	2.459303e+02
2.800000e-06	5.494675e-06	3.844418e-09	3.921963e+01	2.448665e+02
2.810000e-06	5.443247e-06	3.739538e-09	3.885255e+01	2.437849e+02
2.820000e-06	5.390811e-06	3.675512e-09	3.847828e+01	2.426794e+02
2.830000e-06	5.337101e-06	3.686643e-09	3.809491e+01	2.415440e+02
2.840000e-06	5.282016e-06	3.717759e-09	3.770173e+01	2.403731e+02
2.850000e-06	5.226010e-06	3.716345e-09	3.730197e+01	2.391623e+02
2.860000e-06	5.169343e-06	3.642432e-09	3.689749e+01	2.379084e+02
2.870000e-06	5.111770e-06	3.599063e-09	3.648655e+01	2.366096e+02
2.880000e-06	5.053184e-06	3.592899e-09	3.606838e+01	2.352657e+02
2.890000e-06	4.993786e-06	3.621997e-09	3.564441e+01	2.338776e+02
2.900000e-06	4.933740e-06	3.608271e-09	3.521581e+01	2.324476e+02
2.910000e-06	4.872857e-06	3.540108e-09	3.478125e+01	2.309788e+02
2.920000e-06	4.810818e-06	3.496772e-09	3.433843e+01	2.294750e+02
2.930000e-06	4.747643e-06	3.500822e-09	3.388750e+01	2.279401e+02
2.940000e-06	4.683617e-06	3.527461e-09	3.343050e+01	2.263778e+02
