# Temperatura_=_20.0
# Concentracion g/m^3_=_12600.0
# C_Vs_to_Am_M_A/Vsm_=_65563218390.804596
# pendiente_HvsI_1/m_=_3716.3
# ordenada_HvsI_A/m_=_1297.0
# frecuencia_Hz_=_213176.80096186377

Tiempo_(s)	Campo_(V.s)	Magnetizacion_(V.s)	Campo_(kA/m)	Magnetizacion_(A/m)
0.000000e+00	-6.768586e-06	-4.351743e-09	-4.756242e+01	-2.836847e+02
1.000000e-08	-6.768092e-06	-4.350429e-09	-4.755895e+01	-2.836265e+02
2.000000e-08	-6.766242e-06	-4.350516e-09	-4.754595e+01	-2.835300e+02
3.000000e-08	-6.763015e-06	-4.350761e-09	-4.752328e+01	-2.833990e+02
4.000000e-08	-6.758787e-06	-4.352820e-09	-4.749357e+01	-2.832382e+02
5.000000e-08	-6.753621e-06	-4.352281e-09	-4.745727e+01	-2.830537e+02
6.000000e-08	-6.747285e-06	-4.346704e-09	-4.741274e+01	-2.828523e+02
7.000000e-08	-6.739859e-06	-4.340289e-09	-4.736056e+01	-2.826414e+02
8.000000e-08	-6.731433e-06	-4.337713e-09	-4.730135e+01	-2.824283e+02
9.000000e-08	-6.721607e-06	-4.345931e-09	-4.723231e+01	-2.822203e+02
1.000000e-07	-6.710042e-06	-4.361938e-09	-4.715104e+01	-2.820238e+02
1.100000e-07	-6.696838e-06	-4.355845e-09	-4.705826e+01	-2.818442e+02
1.200000e-07	-6.682136e-06	-4.326284e-09	-4.695495e+01	-2.816854e+02
1.300000e-07	-6.666016e-06	-4.293106e-09	-4.684168e+01	-2.815494e+02
1.400000e-07	-6.648766e-06	-4.289887e-09	-4.672046e+01	-2.814363e+02
1.500000e-07	-6.630559e-06	-4.329363e-09	-4.659252e+01	-2.813442e+02
1.600000e-07	-6.611433e-06	-4.325263e-09	-4.645812e+01	-2.812691e+02
1.700000e-07	-6.591525e-06	-4.275012e-09	-4.631823e+01	-2.812050e+02
1.800000e-07	-6.570579e-06	-4.251808e-09	-4.617104e+01	-2.811443e+02
1.900000e-07	-6.548366e-06	-4.252502e-09	-4.601495e+01	-2.810781e+02
2.000000e-07	-6.525256e-06	-4.309221e-09	-4.585256e+01	-2.809964e+02
2.100000e-07	-6.501278e-06	-4.341189e-09	-4.568407e+01	-2.808888e+02
2.200000e-07	-6.475894e-06	-4.257300e-09	-4.550570e+01	-2.807449e+02
2.300000e-07	-6.448995e-06	-4.225735e-09	-4.531668e+01	-2.805550e+02
2.400000e-07	-6.420919e-06	-4.293560e-09	-4.511939e+01	-2.803102e+02
2.500000e-07	-6.391879e-06	-4.334054e-09	-4.491533e+01	-2.800030e+02
2.600000e-07	-6.361834e-06	-4.317447e-09	-4.470420e+01	-2.796277e+02
2.700000e-07	-6.330650e-06	-4.225009e-09	-4.448508e+01	-2.791803e+02
2.800000e-07	-6.298446e-06	-4.150261e-09	-4.425878e+01	-2.786591e+02
2.900000e-07	-6.265157e-06	-4.211384e-09	-4.402486e+01	-2.780642e+02
3.000000e-07	-6.230516e-06	-4.297625e-09	-4.378144e+01	-2.773979e+02
3.100000e-07	-6.194606e-06	-4.267623e-09	-4.352910e+01	-2.766640e+02
3.200000e-07	-6.157594e-06	-4.130769e-09	-4.326902e+01	-2.758677e+02
3.300000e-07	-6.119511e-06	-4.065246e-09	-4.300142e+01	-2.750154e+02
3.400000e-07	-6.080418e-06	-4.186873e-09	-4.272671e+01	-2.741139e+02
3.500000e-07	-6.040434e-06	-4.295003e-09	-4.244575e+01	-2.731704e+02
3.600000e-07	-5.999344e-06	-4.171349e-09	-4.215701e+01	-2.721917e+02
3.700000e-07	-5.956816e-06	-3.984630e-09	-4.185817e+01	-2.711842e+02
3.800000e-07	-5.913058e-06	-4.037394e-09	-4.155068e+01	-2.701534e+02
3.900000e-07	-5.868370e-06	-4.224027e-09	-4.123666e+01	-2.691035e+02
4.000000e-07	-5.822718e-06	-4.201422e-09	-4.091587e+01	-2.680374e+02
4.100000e-07	-5.776065e-06	-3.989669e-09	-4.058804e+01	-2.669568e+02
4.200000e-07	-5.728475e-06	-3.903944e-09	-4.025363e+01	-2.658619e+02
4.300000e-07	-5.679828e-06	-4.048887e-09	-3.991180e+01	-2.647517e+02
4.400000e-07	-5.629842e-06	-4.169314e-09	-3.956054e+01	-2.636241e+02
4.500000e-07	-5.578417e-06	-4.053120e-09	-3.919918e+01	-2.624760e+02
4.600000e-07	-5.525795e-06	-3.865008e-09	-3.882941e+01	-2.613041e+02
4.700000e-07	-5.472210e-06	-3.867515e-09	-3.845287e+01	-2.601046e+02
4.800000e-07	-5.417679e-06	-4.017703e-09	-3.806969e+01	-2.588735e+02
4.900000e-07	-5.362300e-06	-4.049648e-09	-3.768055e+01	-2.576073e+02
5.000000e-07	-5.306101e-06	-3.895544e-09	-3.728563e+01	-2.563028e+02
5.100000e-07	-5.248779e-06	-3.770004e-09	-3.688284e+01	-2.549578e+02
5.200000e-07	-5.190213e-06	-3.825079e-09	-3.647130e+01	-2.535703e+02
5.300000e-07	-5.130667e-06	-3.936462e-09	-3.605287e+01	-2.521395e+02
5.400000e-07	-5.070325e-06	-3.904138e-09	-3.562885e+01	-2.506652e+02
5.500000e-07	-5.009201e-06	-3.759609e-09	-3.519934e+01	-2.491480e+02
5.600000e-07	-4.947180e-06	-3.690734e-09	-3.476352e+01	-2.475891e+02
5.700000e-07	-4.884301e-06	-3.752876e-09	-3.432167e+01	-2.459900e+02
5.800000e-07	-4.820775e-06	-3.812182e-09	-3.387528e+01	-2.443526e+02
5.900000e-07	-4.756429e-06	-3.751077e-09	-3.342313e+01	-2.426790e+02
6.000000e-07	-4.690883e-06	-3.630972e-09	-3.296254e+01	-2.409710e+02
6.100000e-07	-4.624183e-06	-3.581783e-09	-3.249384e+01	-2.392304e+02
6.200000e-07	-4.556755e-06	-3.629496e-09	-3.202003e+01	-2.374584e+02
6.300000e-07	-4.488756e-06	-3.668266e-09	-3.154220e+01	-2.356561e+02
6.400000e-07	-4.420024e-06	-3.602745e-09	-3.105923e+01	-2.338239e+02
6.500000e-07	-4.350515e-06	-3.487722e-09	-3.057080e+01	-2.319618e+02
6.600000e-07	-4.280252e-06	-3.446555e-09	-3.007706e+01	-2.300692e+02
6.700000e-07	-4.209224e-06	-3.498783e-09	-2.957795e+01	-2.281454e+02
6.800000e-07	-4.137602e-06	-3.524082e-09	-2.907467e+01	-2.261890e+02
6.900000e-07	-4.065352e-06	-3.437894e-09	-2.856697e+01	-2.241988e+02
7.000000e-07	-3.992190e-06	-3.328084e-09	-2.805287e+01	-2.221730e+02
7.100000e-07	-3.917998e-06	-3.317034e-09	-2.753152e+01	-2.201103e+02
7.200000e-07	-3.842910e-06	-3.373541e-09	-2.700388e+01	-2.180089e+02
7.300000e-07	-3.767118e-06	-3.361495e-09	-2.647130e+01	-2.158675e+02
7.400000e-07	-3.690650e-06	-3.252868e-09	-2.593397e+01	-2.136848e+02
7.500000e-07	-3.613518e-06	-3.167048e-09	-2.539197e+01	-2.114598e+02
7.600000e-07	-3.535715e-06	-3.178071e-09	-2.484524e+01	-2.091914e+02
7.700000e-07	-3.457106e-06	-3.211671e-09	-2.429286e+01	-2.068789e+02
7.800000e-07	-3.377616e-06	-3.164758e-09	-2.373430e+01	-2.045215e+02
7.900000e-07	-3.297402e-06	-3.058761e-09	-2.317064e+01	-2.021186e+02
8.000000e-07	-3.216664e-06	-2.998368e-09	-2.260330e+01	-1.996696e+02
8.100000e-07	-3.135420e-06	-3.009390e-09	-2.203240e+01	-1.971737e+02
8.200000e-07	-3.053686e-06	-3.013630e-09	-2.145806e+01	-1.946304e+02
8.300000e-07	-2.971433e-06	-2.948573e-09	-2.088007e+01	-1.920387e+02
8.400000e-07	-2.888571e-06	-2.855728e-09	-2.029781e+01	-1.893977e+02
8.500000e-07	-2.805259e-06	-2.810416e-09	-1.971238e+01	-1.867065e+02
8.600000e-07	-2.721651e-06	-2.812478e-09	-1.912487e+01	-1.839641e+02
8.700000e-07	-2.637742e-06	-2.798132e-09	-1.853525e+01	-1.811694e+02
8.800000e-07	-2.553474e-06	-2.727802e-09	-1.794310e+01	-1.783216e+02
8.900000e-07	-2.468725e-06	-2.641712e-09	-1.734757e+01	-1.754198e+02
9.000000e-07	-2.383456e-06	-2.600019e-09	-1.674840e+01	-1.724634e+02
9.100000e-07	-2.297824e-06	-2.594879e-09	-1.614666e+01	-1.694518e+02
9.200000e-07	-2.211926e-06	-2.567784e-09	-1.554307e+01	-1.663848e+02
9.300000e-07	-2.125718e-06	-2.489236e-09	-1.493729e+01	-1.632624e+02
9.400000e-07	-2.039101e-06	-2.405353e-09	-1.432864e+01	-1.600846e+02
9.500000e-07	-1.952016e-06	-2.368646e-09	-1.371669e+01	-1.568518e+02
9.600000e-07	-1.864634e-06	-2.357674e-09	-1.310267e+01	-1.535644e+02
9.700000e-07	-1.777123e-06	-2.315776e-09	-1.248773e+01	-1.502227e+02
9.800000e-07	-1.689495e-06	-2.229533e-09	-1.187197e+01	-1.468271e+02
9.900000e-07	-1.601593e-06	-2.151236e-09	-1.125429e+01	-1.433779e+02
1.000000e-06	-1.513249e-06	-2.118655e-09	-1.063351e+01	-1.398752e+02
1.010000e-06	-1.424628e-06	-2.098685e-09	-1.001077e+01	-1.363185e+02
1.020000e-06	-1.335799e-06	-2.041476e-09	-9.386572e+00	-1.327075e+02
1.030000e-06	-1.246594e-06	-1.949347e-09	-8.759739e+00	-1.290413e+02
1.040000e-06	-1.156953e-06	-1.878679e-09	-8.129832e+00	-1.253187e+02
1.050000e-06	-1.067019e-06	-1.846702e-09	-7.497878e+00	-1.215384e+02
1.060000e-06	-9.768838e-07	-1.809847e-09	-6.864501e+00	-1.176988e+02
1.070000e-06	-8.865097e-07	-1.736164e-09	-6.229448e+00	-1.137981e+02
1.080000e-06	-7.959171e-07	-1.646431e-09	-5.592859e+00	-1.098347e+02
1.090000e-06	-7.051164e-07	-1.585993e-09	-4.954808e+00	-1.058070e+02
1.100000e-06	-6.142115e-07	-1.551343e-09	-4.316025e+00	-1.017137e+02
1.110000e-06	-5.232686e-07	-1.501529e-09	-3.676975e+00	-9.755362e+01
1.120000e-06	-4.322736e-07	-1.420636e-09	-3.037559e+00	-9.332607e+01
1.130000e-06	-3.412086e-07	-1.335023e-09	-2.397651e+00	-8.903071e+01
1.140000e-06	-2.500728e-07	-1.274885e-09	-1.757246e+00	-8.466756e+01
1.150000e-06	-1.589498e-07	-1.227084e-09	-1.116931e+00	-8.023702e+01
1.160000e-06	-6.782297e-08	-1.162914e-09	-4.765877e-01	-7.573974e+01
1.170000e-06	2.334061e-08	-1.076217e-09	1.640130e-01	-7.117654e+01
1.180000e-06	1.145086e-07	-9.885530e-10	8.046444e-01	-6.654827e+01
1.190000e-06	2.056984e-07	-9.233394e-10	1.445430e+00	-6.185566e+01
1.200000e-06	2.968892e-07	-8.683776e-10	2.086222e+00	-5.709921e+01
1.210000e-06	3.880262e-07	-7.991669e-10	2.726635e+00	-5.227901e+01
1.220000e-06	4.791034e-07	-7.110773e-10	3.366629e+00	-4.739467e+01
1.230000e-06	5.701116e-07	-6.251522e-10	4.006138e+00	-4.244523e+01
1.240000e-06	6.609827e-07	-5.584451e-10	4.644684e+00	-3.742917e+01
1.250000e-06	7.517030e-07	-4.962787e-10	5.282169e+00	-3.234442e+01
1.260000e-06	8.422938e-07	-4.176038e-10	5.918745e+00	-2.718848e+01
1.270000e-06	9.327074e-07	-3.230259e-10	6.554076e+00	-2.195856e+01
1.280000e-06	1.022937e-06	-2.347598e-10	7.188114e+00	-1.665180e+01
1.290000e-06	1.112896e-06	-1.627885e-10	7.820249e+00	-1.126555e+01
1.300000e-06	1.202554e-06	-8.926832e-11	8.450273e+00	-5.797633e+00
1.310000e-06	1.291881e-06	-9.986152e-14	9.077968e+00	-2.466504e-01
1.320000e-06	1.380882e-06	9.787942e-11	9.703367e+00	5.387696e+00
1.330000e-06	1.469567e-06	1.876957e-10	1.032655e+01	1.110434e+01
1.340000e-06	1.557853e-06	2.638615e-10	1.094693e+01	1.690059e+01
1.350000e-06	1.645832e-06	3.430723e-10	1.156516e+01	2.277199e+01
1.360000e-06	1.733572e-06	4.392225e-10	1.218170e+01	2.871217e+01
1.370000e-06	1.821041e-06	5.449870e-10	1.279634e+01	3.471284e+01
1.380000e-06	1.908229e-06	6.403093e-10	1.340900e+01	4.076387e+01
1.390000e-06	1.995165e-06	7.236101e-10	1.401990e+01	4.685343e+01
1.400000e-06	2.081807e-06	8.132813e-10	1.462872e+01	5.296821e+01
1.410000e-06	2.168063e-06	9.170088e-10	1.523484e+01	5.909378e+01
1.420000e-06	2.253940e-06	1.022194e-09	1.583829e+01	6.521491e+01
1.430000e-06	2.339442e-06	1.114136e-09	1.643911e+01	7.131601e+01
1.440000e-06	2.424620e-06	1.196506e-09	1.703765e+01	7.738155e+01
1.450000e-06	2.509464e-06	1.283581e-09	1.763385e+01	8.339647e+01
1.460000e-06	2.593884e-06	1.379777e-09	1.822706e+01	8.934661e+01
1.470000e-06	2.677879e-06	1.477083e-09	1.881729e+01	9.521900e+01
1.480000e-06	2.761482e-06	1.562714e-09	1.940476e+01	1.010022e+02
1.490000e-06	2.844714e-06	1.639490e-09	1.998963e+01	1.066865e+02
1.500000e-06	2.927519e-06	1.722779e-09	2.057149e+01	1.122640e+02
1.510000e-06	3.009814e-06	1.814447e-09	2.114977e+01	1.177287e+02
1.520000e-06	3.091467e-06	1.901441e-09	2.172354e+01	1.230764e+02
1.530000e-06	3.172495e-06	1.975314e-09	2.229292e+01	1.283047e+02
1.540000e-06	3.253002e-06	2.045023e-09	2.285864e+01	1.334123e+02
1.550000e-06	3.332970e-06	2.121782e-09	2.342057e+01	1.383998e+02
1.560000e-06	3.412376e-06	2.204656e-09	2.397855e+01	1.432682e+02
1.570000e-06	3.491094e-06	2.281109e-09	2.453170e+01	1.480194e+02
1.580000e-06	3.569067e-06	2.345402e-09	2.507961e+01	1.526559e+02
1.590000e-06	3.646415e-06	2.409123e-09	2.562313e+01	1.571800e+02
1.600000e-06	3.723183e-06	2.482898e-09	2.616257e+01	1.615943e+02
1.610000e-06	3.799253e-06	2.559400e-09	2.669711e+01	1.659009e+02
1.620000e-06	3.874565e-06	2.625537e-09	2.722632e+01	1.701017e+02
1.630000e-06	3.949110e-06	2.679170e-09	2.775014e+01	1.741982e+02
1.640000e-06	4.022731e-06	2.731452e-09	2.826747e+01	1.781916e+02
1.650000e-06	4.095405e-06	2.791216e-09	2.877815e+01	1.820826e+02
1.660000e-06	4.167293e-06	2.853378e-09	2.928331e+01	1.858720e+02
1.670000e-06	4.238523e-06	2.908194e-09	2.978384e+01	1.895602e+02
1.680000e-06	4.309103e-06	2.955240e-09	3.027979e+01	1.931477e+02
1.690000e-06	4.378934e-06	3.004120e-09	3.077050e+01	1.966353e+02
1.700000e-06	4.448007e-06	3.059403e-09	3.125586e+01	2.000240e+02
1.710000e-06	4.516394e-06	3.114041e-09	3.173642e+01	2.033150e+02
1.720000e-06	4.584062e-06	3.159665e-09	3.221191e+01	2.065102e+02
1.730000e-06	4.650883e-06	3.198694e-09	3.268146e+01	2.096117e+02
1.740000e-06	4.716687e-06	3.241438e-09	3.314386e+01	2.126222e+02
1.750000e-06	4.781528e-06	3.289008e-09	3.359949e+01	2.155444e+02
1.760000e-06	4.845517e-06	3.334215e-09	3.404914e+01	2.183814e+02
1.770000e-06	4.908719e-06	3.372496e-09	3.449326e+01	2.211365e+02
1.780000e-06	4.971182e-06	3.406751e-09	3.493218e+01	2.238129e+02
1.790000e-06	5.032830e-06	3.444543e-09	3.536538e+01	2.264134e+02
1.800000e-06	5.093678e-06	3.486359e-09	3.579295e+01	2.289407e+02
1.810000e-06	5.153817e-06	3.525050e-09	3.621555e+01	2.313971e+02
1.820000e-06	5.213159e-06	3.556133e-09	3.663254e+01	2.337843e+02
1.830000e-06	5.271414e-06	3.585131e-09	3.704189e+01	2.361036e+02
1.840000e-06	5.328510e-06	3.619817e-09	3.744311e+01	2.383559e+02
1.850000e-06	5.384575e-06	3.656759e-09	3.783707e+01	2.405413e+02
1.860000e-06	5.439750e-06	3.687904e-09	3.822478e+01	2.426601e+02
1.870000e-06	5.494064e-06	3.714216e-09	3.860644e+01	2.447118e+02
1.880000e-06	5.547379e-06	3.741056e-09	3.898108e+01	2.466961e+02
1.890000e-06	5.599553e-06	3.770442e-09	3.934771e+01	2.486129e+02
1.900000e-06	5.650516e-06	3.799566e-09	3.970582e+01	2.504620e+02
1.910000e-06	5.700197e-06	3.823988e-09	4.005492e+01	2.522435e+02
1.920000e-06	5.748660e-06	3.843768e-09	4.039547e+01	2.539581e+02
1.930000e-06	5.796101e-06	3.864722e-09	4.072884e+01	2.556070e+02
1.940000e-06	5.842575e-06	3.890448e-09	4.105541e+01	2.571916e+02
1.950000e-06	5.888021e-06	3.915923e-09	4.137475e+01	2.587140e+02
1.960000e-06	5.932484e-06	3.936206e-09	4.168719e+01	2.601765e+02
1.970000e-06	5.976006e-06	3.953819e-09	4.199302e+01	2.615819e+02
1.980000e-06	6.018439e-06	3.973739e-09	4.229119e+01	2.629330e+02
1.990000e-06	6.059670e-06	3.995958e-09	4.258092e+01	2.642327e+02
2.000000e-06	6.099763e-06	4.016457e-09	4.286265e+01	2.654837e+02
2.010000e-06	6.138825e-06	4.032996e-09	4.313714e+01	2.666885e+02
2.020000e-06	6.176862e-06	4.047560e-09	4.340442e+01	2.678492e+02
2.030000e-06	6.213873e-06	4.063875e-09	4.366449e+01	2.689675e+02
2.040000e-06	6.249899e-06	4.083096e-09	4.391764e+01	2.700443e+02
2.050000e-06	6.284916e-06	4.100843e-09	4.416370e+01	2.710803e+02
2.060000e-06	6.318753e-06	4.113417e-09	4.440148e+01	2.720755e+02
2.070000e-06	6.351319e-06	4.125753e-09	4.463032e+01	2.730297e+02
2.080000e-06	6.382829e-06	4.141102e-09	4.485174e+01	2.739423e+02
2.090000e-06	6.413332e-06	4.155960e-09	4.506608e+01	2.748125e+02
2.100000e-06	6.442703e-06	4.168022e-09	4.527247e+01	2.756396e+02
2.110000e-06	6.471045e-06	4.179457e-09	4.547163e+01	2.764231e+02
2.120000e-06	6.498393e-06	4.193489e-09	4.566380e+01	2.771627e+02
2.130000e-06	6.524449e-06	4.207860e-09	4.584689e+01	2.778586e+02
2.140000e-06	6.549089e-06	4.219951e-09	4.602004e+01	2.785116e+02
2.150000e-06	6.572555e-06	4.229222e-09	4.618493e+01	2.791227e+02
2.160000e-06	6.594920e-06	4.236499e-09	4.634209e+01	2.796939e+02
2.170000e-06	6.616175e-06	4.243376e-09	4.649144e+01	2.802271e+02
2.180000e-06	6.636462e-06	4.250187e-09	4.663400e+01	2.807249e+02
2.190000e-06	6.655754e-06	4.257878e-09	4.676956e+01	2.811898e+02
2.200000e-06	6.673872e-06	4.264726e-09	4.689688e+01	2.816245e+02
2.210000e-06	6.690745e-06	4.271755e-09	4.701544e+01	2.820313e+02
2.220000e-06	6.706383e-06	4.278206e-09	4.712533e+01	2.824121e+02
2.230000e-06	6.720748e-06	4.284896e-09	4.722627e+01	2.827684e+02
2.240000e-06	6.733900e-06	4.293206e-09	4.731869e+01	2.831007e+02
2.250000e-06	6.745775e-06	4.298238e-09	4.740213e+01	2.834091e+02
2.260000e-06	6.756149e-06	4.300917e-09	4.747503e+01	2.836926e+02
2.270000e-06	6.765094e-06	4.304215e-09	4.753789e+01	2.839497e+02
2.280000e-06	6.772845e-06	4.309283e-09	4.759235e+01	2.841782e+02
2.290000e-06	6.779512e-06	4.313209e-09	4.763920e+01	2.843755e+02
2.300000e-06	6.785023e-06	4.314510e-09	4.767793e+01	2.845388e+02
2.310000e-06	6.789405e-06	4.315622e-09	4.770872e+01	2.846653e+02
2.320000e-06	6.792770e-06	4.316868e-09	4.773237e+01	2.847528e+02
2.330000e-06	6.794796e-06	4.318913e-09	4.774660e+01	2.847994e+02
2.340000e-06	6.795386e-06	4.319240e-09	4.775075e+01	2.848045e+02
2.350000e-06	6.794902e-06	4.317394e-09	4.774735e+01	2.847682e+02
2.360000e-06	6.793366e-06	4.314885e-09	4.773655e+01	2.846923e+02
2.370000e-06	6.790720e-06	4.310908e-09	4.771796e+01	2.845797e+02
2.380000e-06	6.787081e-06	4.308499e-09	4.769239e+01	2.844344e+02
2.390000e-06	6.782520e-06	4.306378e-09	4.766034e+01	2.842621e+02
2.400000e-06	6.776661e-06	4.304436e-09	4.761917e+01	2.840689e+02
2.410000e-06	6.769335e-06	4.302895e-09	4.756769e+01	2.838622e+02
2.420000e-06	6.760985e-06	4.299675e-09	4.750901e+01	2.836492e+02
2.430000e-06	6.751729e-06	4.287147e-09	4.744398e+01	2.834374e+02
2.440000e-06	6.741227e-06	4.258494e-09	4.737018e+01	2.832337e+02
2.450000e-06	6.728849e-06	4.253523e-09	4.728320e+01	2.830441e+02
2.460000e-06	6.714338e-06	4.274981e-09	4.718123e+01	2.828734e+02
2.470000e-06	6.698546e-06	4.313559e-09	4.707026e+01	2.827245e+02
2.480000e-06	6.682327e-06	4.313845e-09	4.695629e+01	2.825988e+02
2.490000e-06	6.665490e-06	4.265432e-09	4.683797e+01	2.824954e+02
2.500000e-06	6.647222e-06	4.275170e-09	4.670961e+01	2.824114e+02
2.510000e-06	6.627660e-06	4.303538e-09	4.657215e+01	2.823420e+02
2.520000e-06	6.607480e-06	4.318765e-09	4.643034e+01	2.822803e+02
2.530000e-06	6.586013e-06	4.326576e-09	4.627949e+01	2.822182e+02
2.540000e-06	6.562825e-06	4.262864e-09	4.611656e+01	2.821461e+02
2.550000e-06	6.538605e-06	4.251488e-09	4.594637e+01	2.820538e+02
2.560000e-06	6.513433e-06	4.352510e-09	4.576948e+01	2.819311e+02
2.570000e-06	6.487204e-06	4.360791e-09	4.558518e+01	2.817675e+02
2.580000e-06	6.459915e-06	4.283045e-09	4.539341e+01	2.815538e+02
2.590000e-06	6.431319e-06	4.228661e-09	4.519247e+01	2.812816e+02
2.600000e-06	6.401651e-06	4.204351e-09	4.498400e+01	2.809442e+02
2.610000e-06	6.370813e-06	4.328003e-09	4.476730e+01	2.805367e+02
2.620000e-06	6.338571e-06	4.424180e-09	4.454074e+01	2.800560e+02
2.630000e-06	6.305284e-06	4.284962e-09	4.430683e+01	2.795014e+02
2.640000e-06	6.270905e-06	4.135616e-09	4.406525e+01	2.788739e+02
2.650000e-06	6.235404e-06	4.153422e-09	4.381579e+01	2.781764e+02
2.660000e-06	6.199088e-06	4.354017e-09	4.356060e+01	2.774136e+02
2.670000e-06	6.161638e-06	4.423673e-09	4.329744e+01	2.765911e+02
2.680000e-06	6.122707e-06	4.145764e-09	4.302387e+01	2.757156e+02
2.690000e-06	6.082531e-06	3.979445e-09	4.274156e+01	2.747942e+02
2.700000e-06	6.041363e-06	4.179413e-09	4.245228e+01	2.738339e+02
2.710000e-06	5.999303e-06	4.383946e-09	4.215672e+01	2.728414e+02
2.720000e-06	5.956252e-06	4.229863e-09	4.185420e+01	2.718227e+02
2.730000e-06	5.912238e-06	3.931565e-09	4.154492e+01	2.707827e+02
2.740000e-06	5.867249e-06	3.988086e-09	4.122879e+01	2.697251e+02
2.750000e-06	5.821223e-06	4.239648e-09	4.090537e+01	2.686522e+02
2.760000e-06	5.774216e-06	4.253753e-09	4.057505e+01	2.675651e+02
2.770000e-06	5.726052e-06	4.020950e-09	4.023660e+01	2.664633e+02
2.780000e-06	5.676738e-06	3.867774e-09	3.989008e+01	2.653455e+02
2.790000e-06	5.626431e-06	4.009078e-09	3.953657e+01	2.642089e+02
2.800000e-06	5.575146e-06	4.156601e-09	3.917620e+01	2.630505e+02
2.810000e-06	5.522828e-06	4.074230e-09	3.880856e+01	2.618665e+02
2.820000e-06	5.469174e-06	3.892807e-09	3.843154e+01	2.606530e+02
2.830000e-06	5.414132e-06	3.841587e-09	3.804476e+01	2.594064e+02
2.840000e-06	5.358107e-06	3.970453e-09	3.765108e+01	2.581232e+02
2.850000e-06	5.301266e-06	4.036529e-09	3.725166e+01	2.568006e+02
2.860000e-06	5.243558e-06	3.932775e-09	3.684615e+01	2.554365e+02
2.870000e-06	5.184944e-06	3.794522e-09	3.643427e+01	2.540295e+02
2.880000e-06	5.125493e-06	3.787003e-09	3.601652e+01	2.525789e+02
2.890000e-06	5.065393e-06	3.881747e-09	3.559420e+01	2.510851e+02
2.900000e-06	5.004453e-06	3.894578e-09	3.516597e+01	2.495488e+02
2.910000e-06	4.942224e-06	3.798067e-09	3.472870e+01	2.479714e+02
2.920000e-06	4.878862e-06	3.696996e-09	3.428346e+01	2.463547e+02
2.930000e-06	4.814721e-06	3.702976e-09	3.383274e+01	2.447006e+02
2.940000e-06	4.749779e-06	3.772476e-09	3.337640e+01	2.430112e+02
