# Temperatura_=_20.0
# Concentracion g/m^3_=_12600.0
# C_Vs_to_Am_M_A/Vsm_=_65563218390.804596
# pendiente_HvsI_1/m_=_3716.3
# ordenada_HvsI_A/m_=_1297.0
# frecuencia_Hz_=_213171.91203763732

Tiempo_(s)	Campo_(V.s)	Magnetizacion_(V.s)	Campo_(kA/m)	Magnetizacion_(A/m)
0.000000e+00	-6.710048e-06	-4.040692e-09	-4.757023e+01	-2.616110e+02
1.000000e-08	-6.709424e-06	-4.039818e-09	-4.756580e+01	-2.615735e+02
2.000000e-08	-6.707435e-06	-4.041989e-09	-4.755170e+01	-2.614917e+02
3.000000e-08	-6.704143e-06	-4.043119e-09	-4.752837e+01	-2.613683e+02
4.000000e-08	-6.699925e-06	-4.043618e-09	-4.749846e+01	-2.612080e+02
5.000000e-08	-6.694672e-06	-4.041540e-09	-4.746122e+01	-2.610169e+02
6.000000e-08	-6.688182e-06	-4.036952e-09	-4.741521e+01	-2.608032e+02
7.000000e-08	-6.680694e-06	-4.028609e-09	-4.736212e+01	-2.605759e+02
8.000000e-08	-6.672381e-06	-4.014651e-09	-4.730319e+01	-2.603450e+02
9.000000e-08	-6.662619e-06	-4.038535e-09	-4.723398e+01	-2.601205e+02
1.000000e-07	-6.651023e-06	-4.078902e-09	-4.715177e+01	-2.599122e+02
1.100000e-07	-6.637872e-06	-4.065139e-09	-4.705854e+01	-2.597286e+02
1.200000e-07	-6.623206e-06	-4.025957e-09	-4.695457e+01	-2.595769e+02
1.300000e-07	-6.607062e-06	-3.925713e-09	-4.684011e+01	-2.594618e+02
1.400000e-07	-6.589907e-06	-3.953977e-09	-4.671850e+01	-2.593859e+02
1.500000e-07	-6.571834e-06	-4.112372e-09	-4.659037e+01	-2.593488e+02
1.600000e-07	-6.552786e-06	-4.004006e-09	-4.645533e+01	-2.593471e+02
1.700000e-07	-6.533006e-06	-3.954454e-09	-4.631510e+01	-2.593749e+02
1.800000e-07	-6.512165e-06	-4.001094e-09	-4.616735e+01	-2.594234e+02
1.900000e-07	-6.490095e-06	-3.898611e-09	-4.601089e+01	-2.594817e+02
2.000000e-07	-6.467188e-06	-4.012926e-09	-4.584849e+01	-2.595371e+02
2.100000e-07	-6.443311e-06	-4.105139e-09	-4.567922e+01	-2.595759e+02
2.200000e-07	-6.417849e-06	-3.865295e-09	-4.549871e+01	-2.595840e+02
2.300000e-07	-6.390861e-06	-3.863157e-09	-4.530738e+01	-2.595472e+02
2.400000e-07	-6.362910e-06	-4.060980e-09	-4.510922e+01	-2.594528e+02
2.500000e-07	-6.334107e-06	-4.019664e-09	-4.490503e+01	-2.592894e+02
2.600000e-07	-6.304237e-06	-3.938667e-09	-4.469327e+01	-2.590477e+02
2.700000e-07	-6.273163e-06	-3.826284e-09	-4.447297e+01	-2.587211e+02
2.800000e-07	-6.241154e-06	-3.835772e-09	-4.424604e+01	-2.583057e+02
2.900000e-07	-6.208152e-06	-4.009837e-09	-4.401208e+01	-2.578006e+02
3.000000e-07	-6.173769e-06	-3.978152e-09	-4.376833e+01	-2.572076e+02
3.100000e-07	-6.138130e-06	-3.838572e-09	-4.351567e+01	-2.565312e+02
3.200000e-07	-6.101371e-06	-3.780052e-09	-4.325507e+01	-2.557781e+02
3.300000e-07	-6.063508e-06	-3.821958e-09	-4.298665e+01	-2.549567e+02
3.400000e-07	-6.024615e-06	-3.940533e-09	-4.271092e+01	-2.540768e+02
3.500000e-07	-5.984852e-06	-3.927789e-09	-4.242902e+01	-2.531485e+02
3.600000e-07	-5.944104e-06	-3.764680e-09	-4.214014e+01	-2.521820e+02
3.700000e-07	-5.901886e-06	-3.690254e-09	-4.184084e+01	-2.511869e+02
3.800000e-07	-5.858416e-06	-3.834674e-09	-4.153266e+01	-2.501717e+02
3.900000e-07	-5.814046e-06	-3.929568e-09	-4.121810e+01	-2.491432e+02
4.000000e-07	-5.768678e-06	-3.762525e-09	-4.089647e+01	-2.481067e+02
4.100000e-07	-5.722274e-06	-3.624324e-09	-4.056750e+01	-2.470652e+02
4.200000e-07	-5.674918e-06	-3.692213e-09	-4.023177e+01	-2.460199e+02
4.300000e-07	-5.626713e-06	-3.824013e-09	-3.989003e+01	-2.449700e+02
4.400000e-07	-5.577212e-06	-3.795685e-09	-3.953909e+01	-2.439132e+02
4.500000e-07	-5.526137e-06	-3.617407e-09	-3.917700e+01	-2.428456e+02
4.600000e-07	-5.473907e-06	-3.568653e-09	-3.880673e+01	-2.417626e+02
4.700000e-07	-5.420734e-06	-3.679721e-09	-3.842976e+01	-2.406588e+02
4.800000e-07	-5.366548e-06	-3.745164e-09	-3.804562e+01	-2.395289e+02
4.900000e-07	-5.311440e-06	-3.648362e-09	-3.765493e+01	-2.383678e+02
5.000000e-07	-5.255595e-06	-3.511552e-09	-3.725902e+01	-2.371709e+02
5.100000e-07	-5.198836e-06	-3.515372e-09	-3.685663e+01	-2.359347e+02
5.200000e-07	-5.140819e-06	-3.603622e-09	-3.644533e+01	-2.346568e+02
5.300000e-07	-5.081699e-06	-3.617456e-09	-3.602620e+01	-2.333358e+02
5.400000e-07	-5.021805e-06	-3.509041e-09	-3.560159e+01	-2.319715e+02
5.500000e-07	-4.961038e-06	-3.421942e-09	-3.517079e+01	-2.305649e+02
5.600000e-07	-4.899381e-06	-3.459408e-09	-3.473368e+01	-2.291178e+02
5.700000e-07	-4.836916e-06	-3.514971e-09	-3.429084e+01	-2.276327e+02
5.800000e-07	-4.773707e-06	-3.480036e-09	-3.384272e+01	-2.261123e+02
5.900000e-07	-4.709876e-06	-3.382313e-09	-3.339020e+01	-2.245597e+02
6.000000e-07	-4.645066e-06	-3.335890e-09	-3.293074e+01	-2.229777e+02
6.100000e-07	-4.579014e-06	-3.361409e-09	-3.246247e+01	-2.213684e+02
6.200000e-07	-4.511974e-06	-3.378441e-09	-3.198719e+01	-2.197336e+02
6.300000e-07	-4.444274e-06	-3.336454e-09	-3.150724e+01	-2.180743e+02
6.400000e-07	-4.375982e-06	-3.257869e-09	-3.102309e+01	-2.163906e+02
6.500000e-07	-4.306997e-06	-3.220087e-09	-3.053403e+01	-2.146818e+02
6.600000e-07	-4.237302e-06	-3.238684e-09	-3.003993e+01	-2.129465e+02
6.700000e-07	-4.166799e-06	-3.247186e-09	-2.954011e+01	-2.111827e+02
6.800000e-07	-4.095564e-06	-3.197174e-09	-2.903510e+01	-2.093878e+02
6.900000e-07	-4.023774e-06	-3.117349e-09	-2.852615e+01	-2.075592e+02
7.000000e-07	-3.951372e-06	-3.084849e-09	-2.801286e+01	-2.056942e+02
7.100000e-07	-3.878030e-06	-3.104199e-09	-2.749291e+01	-2.037903e+02
7.200000e-07	-3.803608e-06	-3.101159e-09	-2.696531e+01	-2.018454e+02
7.300000e-07	-3.728368e-06	-3.040606e-09	-2.643190e+01	-1.998577e+02
7.400000e-07	-3.652441e-06	-2.968857e-09	-2.589362e+01	-1.978262e+02
7.500000e-07	-3.575830e-06	-2.949788e-09	-2.535049e+01	-1.957504e+02
7.600000e-07	-3.498630e-06	-2.960591e-09	-2.480319e+01	-1.936305e+02
7.700000e-07	-3.420833e-06	-2.932262e-09	-2.425166e+01	-1.914670e+02
7.800000e-07	-3.342333e-06	-2.863377e-09	-2.369514e+01	-1.892610e+02
7.900000e-07	-3.263050e-06	-2.806173e-09	-2.313307e+01	-1.870137e+02
8.000000e-07	-3.182961e-06	-2.791069e-09	-2.256529e+01	-1.847264e+02
8.100000e-07	-3.102289e-06	-2.781114e-09	-2.199337e+01	-1.824004e+02
8.200000e-07	-3.021136e-06	-2.740015e-09	-2.141805e+01	-1.800365e+02
8.300000e-07	-2.939490e-06	-2.682623e-09	-2.083923e+01	-1.776355e+02
8.400000e-07	-2.857332e-06	-2.637560e-09	-2.025677e+01	-1.751974e+02
8.500000e-07	-2.774659e-06	-2.614499e-09	-1.967067e+01	-1.727218e+02
8.600000e-07	-2.691530e-06	-2.591282e-09	-1.908134e+01	-1.702079e+02
8.700000e-07	-2.608017e-06	-2.550542e-09	-1.848928e+01	-1.676541e+02
8.800000e-07	-2.524231e-06	-2.494621e-09	-1.789529e+01	-1.650588e+02
8.900000e-07	-2.440173e-06	-2.440995e-09	-1.729936e+01	-1.624200e+02
9.000000e-07	-2.355695e-06	-2.408190e-09	-1.670047e+01	-1.597354e+02
9.100000e-07	-2.270791e-06	-2.382276e-09	-1.609855e+01	-1.570029e+02
9.200000e-07	-2.185525e-06	-2.340887e-09	-1.549407e+01	-1.542205e+02
9.300000e-07	-2.099870e-06	-2.280413e-09	-1.488682e+01	-1.513864e+02
9.400000e-07	-2.013903e-06	-2.226466e-09	-1.427737e+01	-1.484992e+02
9.500000e-07	-1.927571e-06	-2.196850e-09	-1.366532e+01	-1.455580e+02
9.600000e-07	-1.840822e-06	-2.168651e-09	-1.305033e+01	-1.425623e+02
9.700000e-07	-1.753761e-06	-2.118540e-09	-1.243311e+01	-1.395118e+02
9.800000e-07	-1.666448e-06	-2.053924e-09	-1.181412e+01	-1.364069e+02
9.900000e-07	-1.578950e-06	-2.001534e-09	-1.119381e+01	-1.332478e+02
1.000000e-06	-1.491317e-06	-1.966664e-09	-1.057255e+01	-1.300352e+02
1.010000e-06	-1.403525e-06	-1.924381e-09	-9.950150e+00	-1.267697e+02
1.020000e-06	-1.315541e-06	-1.862500e-09	-9.326395e+00	-1.234515e+02
1.030000e-06	-1.227334e-06	-1.796344e-09	-8.701067e+00	-1.200809e+02
1.040000e-06	-1.138874e-06	-1.746642e-09	-8.073938e+00	-1.166578e+02
1.050000e-06	-1.050153e-06	-1.709477e-09	-7.444955e+00	-1.131814e+02
1.060000e-06	-9.611746e-07	-1.660173e-09	-6.814153e+00	-1.096509e+02
1.070000e-06	-8.719490e-07	-1.595812e-09	-6.181597e+00	-1.060649e+02
1.080000e-06	-7.825055e-07	-1.531907e-09	-5.547496e+00	-1.024217e+02
1.090000e-06	-6.928261e-07	-1.480843e-09	-4.911723e+00	-9.871936e+01
1.100000e-06	-6.029243e-07	-1.435560e-09	-4.274372e+00	-9.495580e+01
1.110000e-06	-5.128904e-07	-1.377763e-09	-3.636086e+00	-9.112901e+01
1.120000e-06	-4.227471e-07	-1.309247e-09	-2.997024e+00	-8.723711e+01
1.130000e-06	-3.325444e-07	-1.242426e-09	-2.357541e+00	-8.327848e+01
1.140000e-06	-2.422658e-07	-1.184650e-09	-1.717519e+00	-7.925186e+01
1.150000e-06	-1.519527e-07	-1.130838e-09	-1.077254e+00	-7.515643e+01
1.160000e-06	-6.158451e-08	-1.067904e-09	-4.365973e-01	-7.099179e+01
1.170000e-06	2.884726e-08	-9.928535e-10	2.045098e-01	-6.675800e+01
1.180000e-06	1.192218e-07	-9.182054e-10	8.452112e-01	-6.245546e+01
1.190000e-06	2.095918e-07	-8.588442e-10	1.485881e+00	-5.808485e+01
1.200000e-06	2.999677e-07	-8.040668e-10	2.126592e+00	-5.364699e+01
1.210000e-06	3.902917e-07	-7.340844e-10	2.766935e+00	-4.914270e+01
1.220000e-06	4.804930e-07	-6.522085e-10	3.406408e+00	-4.457267e+01
1.230000e-06	5.705094e-07	-5.762557e-10	4.044570e+00	-3.993731e+01
1.240000e-06	6.604102e-07	-5.136498e-10	4.681913e+00	-3.523667e+01
1.250000e-06	7.502522e-07	-4.500539e-10	5.318839e+00	-3.047037e+01
1.260000e-06	8.398945e-07	-3.721657e-10	5.954350e+00	-2.563762e+01
1.270000e-06	9.292744e-07	-2.879611e-10	6.588000e+00	-2.073723e+01
1.280000e-06	1.018370e-06	-2.136867e-10	7.219633e+00	-1.576780e+01
1.290000e-06	1.107199e-06	-1.476307e-10	7.849381e+00	-1.072783e+01
1.300000e-06	1.195743e-06	-7.427712e-11	8.477103e+00	-5.615973e+00
1.310000e-06	1.283970e-06	1.410621e-11	9.102580e+00	-4.313206e-01
1.320000e-06	1.371959e-06	1.028806e-10	9.726365e+00	4.826343e+00
1.330000e-06	1.459747e-06	1.806093e-10	1.034873e+01	1.015624e+01
1.340000e-06	1.547362e-06	2.538631e-10	1.096987e+01	1.555631e+01
1.350000e-06	1.634752e-06	3.351814e-10	1.158941e+01	2.102304e+01
1.360000e-06	1.721872e-06	4.268435e-10	1.220704e+01	2.655120e+01
1.370000e-06	1.808772e-06	5.167006e-10	1.282311e+01	3.213385e+01
1.380000e-06	1.895401e-06	5.991680e-10	1.343726e+01	3.776226e+01
1.390000e-06	1.981698e-06	6.809563e-10	1.404905e+01	4.342600e+01
1.400000e-06	2.067616e-06	7.700278e-10	1.465816e+01	4.911314e+01
1.410000e-06	2.153165e-06	8.653989e-10	1.526465e+01	5.481048e+01
1.420000e-06	2.238422e-06	9.570372e-10	1.586907e+01	6.050392e+01
1.430000e-06	2.323335e-06	1.039150e-09	1.647105e+01	6.617878e+01
1.440000e-06	2.407891e-06	1.117997e-09	1.707051e+01	7.182030e+01
1.450000e-06	2.492055e-06	1.201699e-09	1.766718e+01	7.741400e+01
1.460000e-06	2.575820e-06	1.290627e-09	1.826102e+01	8.294616e+01
1.470000e-06	2.659218e-06	1.374334e-09	1.885226e+01	8.840415e+01
1.480000e-06	2.742200e-06	1.449026e-09	1.944056e+01	9.377680e+01
1.490000e-06	2.824706e-06	1.523592e-09	2.002548e+01	9.905459e+01
1.500000e-06	2.906741e-06	1.607533e-09	2.060705e+01	1.042299e+02
1.510000e-06	2.988173e-06	1.693836e-09	2.118436e+01	1.092968e+02
1.520000e-06	3.069019e-06	1.769075e-09	2.175751e+01	1.142516e+02
1.530000e-06	3.149401e-06	1.834131e-09	2.232737e+01	1.190919e+02
1.540000e-06	3.229242e-06	1.901881e-09	2.289339e+01	1.238173e+02
1.550000e-06	3.308489e-06	1.977241e-09	2.345520e+01	1.284282e+02
1.560000e-06	3.387057e-06	2.051339e-09	2.401221e+01	1.329264e+02
1.570000e-06	3.464954e-06	2.115028e-09	2.456445e+01	1.373141e+02
1.580000e-06	3.542238e-06	2.172588e-09	2.511235e+01	1.415939e+02
1.590000e-06	3.618947e-06	2.235772e-09	2.565617e+01	1.457685e+02
1.600000e-06	3.695059e-06	2.305835e-09	2.619576e+01	1.498405e+02
1.610000e-06	3.770422e-06	2.371676e-09	2.673004e+01	1.538119e+02
1.620000e-06	3.844974e-06	2.426146e-09	2.725856e+01	1.576845e+02
1.630000e-06	3.918621e-06	2.473789e-09	2.778068e+01	1.614595e+02
1.640000e-06	3.991277e-06	2.525144e-09	2.829577e+01	1.651375e+02
1.650000e-06	4.063121e-06	2.581385e-09	2.880509e+01	1.687189e+02
1.660000e-06	4.134379e-06	2.633854e-09	2.931027e+01	1.722038e+02
1.670000e-06	4.205015e-06	2.679600e-09	2.981104e+01	1.755922e+02
1.680000e-06	4.274864e-06	2.723348e-09	3.030623e+01	1.788841e+02
1.690000e-06	4.343956e-06	2.771506e-09	3.079605e+01	1.820800e+02
1.700000e-06	4.412375e-06	2.821609e-09	3.128110e+01	1.851805e+02
1.710000e-06	4.480155e-06	2.866533e-09	3.176162e+01	1.881871e+02
1.720000e-06	4.547229e-06	2.905909e-09	3.223713e+01	1.911018e+02
1.730000e-06	4.613378e-06	2.944263e-09	3.270609e+01	1.939270e+02
1.740000e-06	4.678550e-06	2.984555e-09	3.316812e+01	1.966659e+02
1.750000e-06	4.742774e-06	3.025016e-09	3.362343e+01	1.993220e+02
1.760000e-06	4.806179e-06	3.060862e-09	3.407293e+01	2.018994e+02
1.770000e-06	4.868816e-06	3.092160e-09	3.451699e+01	2.044019e+02
1.780000e-06	4.930607e-06	3.125421e-09	3.495505e+01	2.068335e+02
1.790000e-06	4.991609e-06	3.163069e-09	3.538752e+01	2.091979e+02
1.800000e-06	5.051893e-06	3.200643e-09	3.581490e+01	2.114980e+02
1.810000e-06	5.111506e-06	3.233982e-09	3.623752e+01	2.137365e+02
1.820000e-06	5.170247e-06	3.262469e-09	3.665396e+01	2.159152e+02
1.830000e-06	5.227797e-06	3.290857e-09	3.706195e+01	2.180349e+02
1.840000e-06	5.284185e-06	3.322974e-09	3.746171e+01	2.200960e+02
1.850000e-06	5.339717e-06	3.352561e-09	3.785540e+01	2.220980e+02
1.860000e-06	5.394451e-06	3.376288e-09	3.824343e+01	2.240399e+02
1.870000e-06	5.448217e-06	3.398817e-09	3.862460e+01	2.259203e+02
1.880000e-06	5.500935e-06	3.425726e-09	3.899834e+01	2.277377e+02
1.890000e-06	5.552607e-06	3.454002e-09	3.936466e+01	2.294907e+02
1.900000e-06	5.603115e-06	3.478818e-09	3.972273e+01	2.311782e+02
1.910000e-06	5.652266e-06	3.501042e-09	4.007118e+01	2.327997e+02
1.920000e-06	5.700219e-06	3.521446e-09	4.041114e+01	2.343552e+02
1.930000e-06	5.747228e-06	3.544175e-09	4.074440e+01	2.358455e+02
1.940000e-06	5.793302e-06	3.566643e-09	4.107105e+01	2.372726e+02
1.950000e-06	5.838443e-06	3.585071e-09	4.139107e+01	2.386388e+02
1.960000e-06	5.882640e-06	3.601012e-09	4.170440e+01	2.399474e+02
1.970000e-06	5.925867e-06	3.618343e-09	4.201085e+01	2.412023e+02
1.980000e-06	5.967972e-06	3.638524e-09	4.230935e+01	2.424076e+02
1.990000e-06	6.008790e-06	3.658205e-09	4.259873e+01	2.435676e+02
2.000000e-06	6.048484e-06	3.674908e-09	4.288013e+01	2.446863e+02
2.010000e-06	6.087181e-06	3.689643e-09	4.315447e+01	2.457677e+02
2.020000e-06	6.124875e-06	3.704841e-09	4.342170e+01	2.468147e+02
2.030000e-06	6.161571e-06	3.719762e-09	4.368185e+01	2.478296e+02
2.040000e-06	6.197359e-06	3.732774e-09	4.393557e+01	2.488140e+02
2.050000e-06	6.232141e-06	3.743989e-09	4.418215e+01	2.497683e+02
2.060000e-06	6.265511e-06	3.755707e-09	4.441872e+01	2.506919e+02
2.070000e-06	6.297582e-06	3.769507e-09	4.464609e+01	2.515837e+02
2.080000e-06	6.328662e-06	3.783717e-09	4.486643e+01	2.524416e+02
2.090000e-06	6.358741e-06	3.796300e-09	4.507967e+01	2.532633e+02
2.100000e-06	6.387835e-06	3.807832e-09	4.528593e+01	2.540464e+02
2.110000e-06	6.415965e-06	3.819831e-09	4.548535e+01	2.547883e+02
2.120000e-06	6.443048e-06	3.834199e-09	4.567736e+01	2.554872e+02
2.130000e-06	6.468766e-06	3.848085e-09	4.585968e+01	2.561416e+02
2.140000e-06	6.493054e-06	3.857530e-09	4.603187e+01	2.567511e+02
2.150000e-06	6.516184e-06	3.863811e-09	4.619584e+01	2.573159e+02
2.160000e-06	6.538239e-06	3.869709e-09	4.635220e+01	2.578376e+02
2.170000e-06	6.559211e-06	3.877398e-09	4.650088e+01	2.583184e+02
2.180000e-06	6.579250e-06	3.884602e-09	4.664295e+01	2.587614e+02
2.190000e-06	6.598298e-06	3.889667e-09	4.677799e+01	2.591703e+02
2.200000e-06	6.616123e-06	3.894882e-09	4.690435e+01	2.595494e+02
2.210000e-06	6.632719e-06	3.902001e-09	4.702201e+01	2.599025e+02
2.220000e-06	6.648046e-06	3.909302e-09	4.713067e+01	2.602336e+02
2.230000e-06	6.662104e-06	3.915885e-09	4.723033e+01	2.605458e+02
2.240000e-06	6.675022e-06	3.921542e-09	4.732191e+01	2.608414e+02
2.250000e-06	6.686788e-06	3.926341e-09	4.740532e+01	2.611218e+02
2.260000e-06	6.697143e-06	3.930128e-09	4.747873e+01	2.613868e+02
2.270000e-06	6.705971e-06	3.934249e-09	4.754132e+01	2.616352e+02
2.280000e-06	6.713562e-06	3.939057e-09	4.759514e+01	2.618647e+02
2.290000e-06	6.720057e-06	3.941871e-09	4.764119e+01	2.620719e+02
2.300000e-06	6.725412e-06	3.944258e-09	4.767915e+01	2.622525e+02
2.310000e-06	6.729722e-06	3.946884e-09	4.770970e+01	2.624020e+02
2.320000e-06	6.732997e-06	3.948967e-09	4.773292e+01	2.625160e+02
2.330000e-06	6.734973e-06	3.949300e-09	4.774693e+01	2.625904e+02
2.340000e-06	6.735512e-06	3.949451e-09	4.775075e+01	2.626222e+02
2.350000e-06	6.734955e-06	3.949043e-09	4.774680e+01	2.626093e+02
2.360000e-06	6.733415e-06	3.946260e-09	4.773588e+01	2.625516e+02
2.370000e-06	6.730742e-06	3.943249e-09	4.771693e+01	2.624506e+02
2.380000e-06	6.727058e-06	3.940790e-09	4.769082e+01	2.623099e+02
2.390000e-06	6.722468e-06	3.940656e-09	4.765828e+01	2.621347e+02
2.400000e-06	6.716635e-06	3.942054e-09	4.761692e+01	2.619323e+02
2.410000e-06	6.709392e-06	3.944883e-09	4.756557e+01	2.617113e+02
2.420000e-06	6.701109e-06	3.958305e-09	4.750685e+01	2.614811e+02
2.430000e-06	6.691899e-06	3.930372e-09	4.744156e+01	2.612518e+02
2.440000e-06	6.681478e-06	3.871206e-09	4.736768e+01	2.610334e+02
2.450000e-06	6.669283e-06	3.876703e-09	4.728122e+01	2.608352e+02
2.460000e-06	6.654990e-06	3.907642e-09	4.717990e+01	2.606651e+02
2.470000e-06	6.639277e-06	4.028548e-09	4.706850e+01	2.605294e+02
2.480000e-06	6.623111e-06	3.974593e-09	4.695389e+01	2.604317e+02
2.490000e-06	6.606371e-06	3.817427e-09	4.683522e+01	2.603734e+02
2.500000e-06	6.588099e-06	3.976132e-09	4.670568e+01	2.603528e+02
2.510000e-06	6.568529e-06	3.951174e-09	4.656694e+01	2.603652e+02
2.520000e-06	6.548444e-06	3.901321e-09	4.642455e+01	2.604035e+02
2.530000e-06	6.527081e-06	4.042193e-09	4.627310e+01	2.604578e+02
2.540000e-06	6.503942e-06	3.871412e-09	4.610906e+01	2.605164e+02
2.550000e-06	6.479732e-06	3.824917e-09	4.593742e+01	2.605661e+02
2.560000e-06	6.454622e-06	4.105833e-09	4.575941e+01	2.605928e+02
2.570000e-06	6.428576e-06	4.029383e-09	4.557476e+01	2.605823e+02
2.580000e-06	6.401428e-06	3.867943e-09	4.538229e+01	2.605211e+02
2.590000e-06	6.373032e-06	3.982429e-09	4.518098e+01	2.603969e+02
2.600000e-06	6.343736e-06	4.033602e-09	4.497329e+01	2.601991e+02
2.610000e-06	6.313164e-06	4.170679e-09	4.475655e+01	2.599199e+02
2.620000e-06	6.281091e-06	4.096402e-09	4.452917e+01	2.595536e+02
2.630000e-06	6.247977e-06	3.838712e-09	4.429442e+01	2.590977e+02
2.640000e-06	6.213842e-06	3.961304e-09	4.405242e+01	2.585526e+02
2.650000e-06	6.178592e-06	4.039787e-09	4.380252e+01	2.579213e+02
2.660000e-06	6.142470e-06	4.068403e-09	4.354644e+01	2.572094e+02
2.670000e-06	6.105275e-06	4.030630e-09	4.328275e+01	2.564244e+02
2.680000e-06	6.066615e-06	3.757491e-09	4.300867e+01	2.555754e+02
2.690000e-06	6.026714e-06	3.832284e-09	4.272580e+01	2.546724e+02
2.700000e-06	5.985845e-06	4.043115e-09	4.243606e+01	2.537256e+02
2.710000e-06	5.944059e-06	4.030019e-09	4.213982e+01	2.527451e+02
2.720000e-06	5.901251e-06	3.830357e-09	4.183634e+01	2.517399e+02
2.730000e-06	5.857537e-06	3.665762e-09	4.152643e+01	2.507179e+02
2.740000e-06	5.813005e-06	3.904630e-09	4.121073e+01	2.496852e+02
2.750000e-06	5.767413e-06	4.024261e-09	4.088751e+01	2.486462e+02
2.760000e-06	5.720639e-06	3.839123e-09	4.055591e+01	2.476029e+02
2.770000e-06	5.672762e-06	3.681687e-09	4.021649e+01	2.465557e+02
2.780000e-06	5.623924e-06	3.690394e-09	3.987026e+01	2.455030e+02
2.790000e-06	5.574088e-06	3.895813e-09	3.951695e+01	2.444418e+02
2.800000e-06	5.523242e-06	3.862439e-09	3.915648e+01	2.433678e+02
2.810000e-06	5.471434e-06	3.684696e-09	3.878919e+01	2.422761e+02
2.820000e-06	5.418436e-06	3.630986e-09	3.841347e+01	2.411612e+02
2.830000e-06	5.364054e-06	3.674295e-09	3.802793e+01	2.400178e+02
2.840000e-06	5.308507e-06	3.786153e-09	3.763414e+01	2.388410e+02
2.850000e-06	5.252138e-06	3.724056e-09	3.723452e+01	2.376268e+02
2.860000e-06	5.194934e-06	3.603568e-09	3.682897e+01	2.363720e+02
2.870000e-06	5.136739e-06	3.562580e-09	3.641641e+01	2.350747e+02
2.880000e-06	5.077647e-06	3.611681e-09	3.599748e+01	2.337342e+02
2.890000e-06	5.017881e-06	3.665742e-09	3.557378e+01	2.323506e+02
2.900000e-06	4.957461e-06	3.580106e-09	3.514543e+01	2.309255e+02
2.910000e-06	4.895930e-06	3.501366e-09	3.470921e+01	2.294609e+02
2.920000e-06	4.833068e-06	3.483895e-09	3.426356e+01	2.279595e+02
2.930000e-06	4.769261e-06	3.521514e-09	3.381121e+01	2.264242e+02
2.940000e-06	4.704778e-06	3.526474e-09	3.335406e+01	2.248580e+02
