# Temperatura_=_20.0
# Concentracion g/m^3_=_12600.0
# C_Vs_to_Am_M_A/Vsm_=_65563218390.804596
# pendiente_HvsI_1/m_=_3716.3
# ordenada_HvsI_A/m_=_1297.0
# frecuencia_Hz_=_213176.59273207304

Tiempo_(s)	Campo_(V.s)	Magnetizacion_(V.s)	Campo_(kA/m)	Magnetizacion_(A/m)
0.000000e+00	-6.702149e-06	-4.241648e-09	-4.756446e+01	-2.746724e+02
1.000000e-08	-6.701586e-06	-4.241239e-09	-4.756046e+01	-2.746194e+02
2.000000e-08	-6.699738e-06	-4.239273e-09	-4.754734e+01	-2.745386e+02
3.000000e-08	-6.696516e-06	-4.238489e-09	-4.752448e+01	-2.744339e+02
4.000000e-08	-6.692241e-06	-4.238348e-09	-4.749414e+01	-2.743097e+02
5.000000e-08	-6.687085e-06	-4.235426e-09	-4.745755e+01	-2.741712e+02
6.000000e-08	-6.680863e-06	-4.230013e-09	-4.741340e+01	-2.740235e+02
7.000000e-08	-6.673558e-06	-4.225936e-09	-4.736155e+01	-2.738719e+02
8.000000e-08	-6.665254e-06	-4.229147e-09	-4.730262e+01	-2.737216e+02
9.000000e-08	-6.655643e-06	-4.232229e-09	-4.723441e+01	-2.735771e+02
1.000000e-07	-6.644324e-06	-4.225885e-09	-4.715408e+01	-2.734421e+02
1.100000e-07	-6.631286e-06	-4.222531e-09	-4.706155e+01	-2.733192e+02
1.200000e-07	-6.616695e-06	-4.204632e-09	-4.695800e+01	-2.732100e+02
1.300000e-07	-6.600709e-06	-4.204659e-09	-4.684455e+01	-2.731144e+02
1.400000e-07	-6.583583e-06	-4.229757e-09	-4.672301e+01	-2.730312e+02
1.500000e-07	-6.565546e-06	-4.192558e-09	-4.659500e+01	-2.729575e+02
1.600000e-07	-6.546639e-06	-4.184582e-09	-4.646082e+01	-2.728891e+02
1.700000e-07	-6.526838e-06	-4.194012e-09	-4.632029e+01	-2.728207e+02
1.800000e-07	-6.505982e-06	-4.138069e-09	-4.617228e+01	-2.727459e+02
1.900000e-07	-6.483972e-06	-4.168275e-09	-4.601608e+01	-2.726577e+02
2.000000e-07	-6.461039e-06	-4.219267e-09	-4.585332e+01	-2.725485e+02
2.100000e-07	-6.437144e-06	-4.160624e-09	-4.568374e+01	-2.724108e+02
2.200000e-07	-6.411887e-06	-4.144853e-09	-4.550450e+01	-2.722371e+02
2.300000e-07	-6.385157e-06	-4.165197e-09	-4.531480e+01	-2.720206e+02
2.400000e-07	-6.357269e-06	-4.140162e-09	-4.511688e+01	-2.717552e+02
2.500000e-07	-6.328445e-06	-4.161786e-09	-4.491232e+01	-2.714358e+02
2.600000e-07	-6.298534e-06	-4.163824e-09	-4.470004e+01	-2.710587e+02
2.700000e-07	-6.267450e-06	-4.098186e-09	-4.447944e+01	-2.706213e+02
2.800000e-07	-6.235432e-06	-4.055696e-09	-4.425222e+01	-2.701222e+02
2.900000e-07	-6.202513e-06	-4.067389e-09	-4.401860e+01	-2.695617e+02
3.000000e-07	-6.168318e-06	-4.114137e-09	-4.377592e+01	-2.689407e+02
3.100000e-07	-6.132767e-06	-4.118836e-09	-4.352361e+01	-2.682617e+02
3.200000e-07	-6.096058e-06	-4.032174e-09	-4.326309e+01	-2.675277e+02
3.300000e-07	-6.058274e-06	-3.960289e-09	-4.299494e+01	-2.667423e+02
3.400000e-07	-6.019491e-06	-4.035042e-09	-4.271971e+01	-2.659096e+02
3.500000e-07	-5.979758e-06	-4.129655e-09	-4.243772e+01	-2.650337e+02
3.600000e-07	-5.939005e-06	-4.035881e-09	-4.214850e+01	-2.641186e+02
3.700000e-07	-5.896937e-06	-3.896716e-09	-4.184995e+01	-2.631682e+02
3.800000e-07	-5.853530e-06	-3.936661e-09	-4.154189e+01	-2.621856e+02
3.900000e-07	-5.809176e-06	-4.050773e-09	-4.122712e+01	-2.611735e+02
4.000000e-07	-5.763934e-06	-4.031986e-09	-4.090604e+01	-2.601341e+02
4.100000e-07	-5.717703e-06	-3.884336e-09	-4.057795e+01	-2.590686e+02
4.200000e-07	-5.670423e-06	-3.815372e-09	-4.024241e+01	-2.579779e+02
4.300000e-07	-5.622089e-06	-3.908824e-09	-3.989938e+01	-2.568620e+02
4.400000e-07	-5.572589e-06	-3.989354e-09	-3.954809e+01	-2.557208e+02
4.500000e-07	-5.521689e-06	-3.908612e-09	-3.918686e+01	-2.545534e+02
4.600000e-07	-5.469551e-06	-3.765973e-09	-3.881683e+01	-2.533591e+02
4.700000e-07	-5.416402e-06	-3.756718e-09	-3.843964e+01	-2.521367e+02
4.800000e-07	-5.362311e-06	-3.860955e-09	-3.805577e+01	-2.508854e+02
4.900000e-07	-5.307332e-06	-3.886778e-09	-3.766558e+01	-2.496042e+02
5.000000e-07	-5.251522e-06	-3.771720e-09	-3.726951e+01	-2.482924e+02
5.100000e-07	-5.194881e-06	-3.664521e-09	-3.686753e+01	-2.469495e+02
5.200000e-07	-5.137097e-06	-3.696849e-09	-3.645745e+01	-2.455753e+02
5.300000e-07	-5.078039e-06	-3.777038e-09	-3.603831e+01	-2.441698e+02
5.400000e-07	-5.018069e-06	-3.750715e-09	-3.561271e+01	-2.427332e+02
5.500000e-07	-4.957345e-06	-3.637396e-09	-3.518176e+01	-2.412660e+02
5.600000e-07	-4.895785e-06	-3.574918e-09	-3.474488e+01	-2.397685e+02
5.700000e-07	-4.833447e-06	-3.614387e-09	-3.430247e+01	-2.382411e+02
5.800000e-07	-4.770341e-06	-3.658063e-09	-3.385461e+01	-2.366844e+02
5.900000e-07	-4.706420e-06	-3.610666e-09	-3.340098e+01	-2.350984e+02
6.000000e-07	-4.641600e-06	-3.507569e-09	-3.294095e+01	-2.334834e+02
6.100000e-07	-4.575722e-06	-3.462801e-09	-3.247342e+01	-2.318391e+02
6.200000e-07	-4.508782e-06	-3.503962e-09	-3.199836e+01	-2.301651e+02
6.300000e-07	-4.441066e-06	-3.529974e-09	-3.151779e+01	-2.284609e+02
6.400000e-07	-4.372785e-06	-3.465602e-09	-3.103320e+01	-2.267255e+02
6.500000e-07	-4.303835e-06	-3.367203e-09	-3.054387e+01	-2.249580e+02
6.600000e-07	-4.234138e-06	-3.339511e-09	-3.004924e+01	-2.231570e+02
6.700000e-07	-4.163700e-06	-3.383245e-09	-2.954935e+01	-2.213215e+02
6.800000e-07	-4.092565e-06	-3.388130e-09	-2.904451e+01	-2.194502e+02
6.900000e-07	-4.020762e-06	-3.304762e-09	-2.853493e+01	-2.175417e+02
7.000000e-07	-3.948327e-06	-3.219623e-09	-2.802087e+01	-2.155951e+02
7.100000e-07	-3.875207e-06	-3.216477e-09	-2.750194e+01	-2.136091e+02
7.200000e-07	-3.801169e-06	-3.248785e-09	-2.697650e+01	-2.115830e+02
7.300000e-07	-3.726206e-06	-3.219126e-09	-2.644450e+01	-2.095160e+02
7.400000e-07	-3.650429e-06	-3.132391e-09	-2.590672e+01	-2.074074e+02
7.500000e-07	-3.573975e-06	-3.073065e-09	-2.536413e+01	-2.052567e+02
7.600000e-07	-3.496861e-06	-3.073087e-09	-2.481686e+01	-2.030636e+02
7.700000e-07	-3.419079e-06	-3.078886e-09	-2.426485e+01	-2.008277e+02
7.800000e-07	-3.340646e-06	-3.035497e-09	-2.370822e+01	-1.985486e+02
7.900000e-07	-3.261511e-06	-2.961084e-09	-2.314661e+01	-1.962260e+02
8.000000e-07	-3.181622e-06	-2.911675e-09	-2.257964e+01	-1.938594e+02
8.100000e-07	-3.100927e-06	-2.901995e-09	-2.200696e+01	-1.914484e+02
8.200000e-07	-3.019678e-06	-2.891821e-09	-2.143034e+01	-1.889923e+02
8.300000e-07	-2.938060e-06	-2.841566e-09	-2.085111e+01	-1.864907e+02
8.400000e-07	-2.856025e-06	-2.769162e-09	-2.026892e+01	-1.839427e+02
8.500000e-07	-2.773463e-06	-2.721728e-09	-1.968298e+01	-1.813475e+02
8.600000e-07	-2.690375e-06	-2.710530e-09	-1.909331e+01	-1.787045e+02
8.700000e-07	-2.606876e-06	-2.695063e-09	-1.850073e+01	-1.760128e+02
8.800000e-07	-2.523059e-06	-2.638067e-09	-1.790589e+01	-1.732718e+02
8.900000e-07	-2.438967e-06	-2.561294e-09	-1.730910e+01	-1.704807e+02
9.000000e-07	-2.354545e-06	-2.513672e-09	-1.670996e+01	-1.676389e+02
9.100000e-07	-2.269725e-06	-2.499996e-09	-1.610801e+01	-1.647461e+02
9.200000e-07	-2.184538e-06	-2.473130e-09	-1.550344e+01	-1.618016e+02
9.300000e-07	-2.098966e-06	-2.404388e-09	-1.489615e+01	-1.588053e+02
9.400000e-07	-2.012998e-06	-2.330747e-09	-1.428604e+01	-1.557569e+02
9.500000e-07	-1.926751e-06	-2.296400e-09	-1.367395e+01	-1.526559e+02
9.600000e-07	-1.840223e-06	-2.281847e-09	-1.305987e+01	-1.495021e+02
9.700000e-07	-1.753385e-06	-2.238133e-09	-1.244359e+01	-1.462951e+02
9.800000e-07	-1.666245e-06	-2.161649e-09	-1.182517e+01	-1.430344e+02
9.900000e-07	-1.578821e-06	-2.095198e-09	-1.120473e+01	-1.397194e+02
1.000000e-06	-1.491087e-06	-2.059979e-09	-1.058209e+01	-1.363491e+02
1.010000e-06	-1.403109e-06	-2.026416e-09	-9.957720e+00	-1.329227e+02
1.020000e-06	-1.315006e-06	-1.964326e-09	-9.332461e+00	-1.294390e+02
1.030000e-06	-1.226743e-06	-1.888736e-09	-8.706068e+00	-1.258968e+02
1.040000e-06	-1.138295e-06	-1.832564e-09	-8.078359e+00	-1.222948e+02
1.050000e-06	-1.049655e-06	-1.794125e-09	-7.449291e+00	-1.186317e+02
1.060000e-06	-9.608631e-07	-1.748067e-09	-6.819146e+00	-1.149063e+02
1.070000e-06	-8.719426e-07	-1.683195e-09	-6.188086e+00	-1.111175e+02
1.080000e-06	-7.828685e-07	-1.611384e-09	-5.555937e+00	-1.072644e+02
1.090000e-06	-6.936065e-07	-1.551541e-09	-4.922454e+00	-1.033464e+02
1.100000e-06	-6.041655e-07	-1.502924e-09	-4.287700e+00	-9.936324e+01
1.110000e-06	-5.145916e-07	-1.449130e-09	-3.652003e+00	-9.531491e+01
1.120000e-06	-4.249156e-07	-1.380227e-09	-3.015582e+00	-9.120178e+01
1.130000e-06	-3.351826e-07	-1.304998e-09	-2.378756e+00	-8.702452e+01
1.140000e-06	-2.453259e-07	-1.239107e-09	-1.741053e+00	-8.278400e+01
1.150000e-06	-1.553072e-07	-1.183911e-09	-1.102199e+00	-7.848129e+01
1.160000e-06	-6.527539e-08	-1.124780e-09	-4.632527e-01	-7.411744e+01
1.170000e-06	2.473478e-08	-1.048354e-09	1.755402e-01	-6.969348e+01
1.180000e-06	1.147059e-07	-9.655241e-10	8.140560e-01	-6.521018e+01
1.190000e-06	2.046733e-07	-9.002707e-10	1.452545e+00	-6.066803e+01
1.200000e-06	2.946081e-07	-8.485249e-10	2.090803e+00	-5.606707e+01
1.210000e-06	3.844416e-07	-7.836844e-10	2.728342e+00	-5.140681e+01
1.220000e-06	4.741687e-07	-6.981493e-10	3.365126e+00	-4.668622e+01
1.230000e-06	5.636913e-07	-6.143167e-10	4.000459e+00	-4.190371e+01
1.240000e-06	6.530562e-07	-5.485218e-10	4.634672e+00	-3.705715e+01
1.250000e-06	7.423013e-07	-4.863489e-10	5.268035e+00	-3.214399e+01
1.260000e-06	8.314700e-07	-4.083917e-10	5.900856e+00	-2.716140e+01
1.270000e-06	9.205224e-07	-3.195944e-10	6.532852e+00	-2.210641e+01
1.280000e-06	1.009402e-06	-2.391285e-10	7.163621e+00	-1.697619e+01
1.290000e-06	1.098150e-06	-1.696953e-10	7.793457e+00	-1.176827e+01
1.300000e-06	1.186683e-06	-9.260430e-11	8.421764e+00	-6.480774e+00
1.310000e-06	1.275013e-06	-1.531194e-12	9.048638e+00	-1.112724e+00
1.320000e-06	1.363190e-06	9.092612e-11	9.674421e+00	4.335746e+00
1.330000e-06	1.451154e-06	1.746453e-10	1.029869e+01	9.863165e+00
1.340000e-06	1.538861e-06	2.519364e-10	1.092114e+01	1.546656e+01
1.350000e-06	1.626269e-06	3.332737e-10	1.154146e+01	2.114133e+01
1.360000e-06	1.713337e-06	4.235094e-10	1.215937e+01	2.688121e+01
1.370000e-06	1.800163e-06	5.180026e-10	1.277557e+01	3.267827e+01
1.380000e-06	1.886759e-06	6.076561e-10	1.339013e+01	3.852302e+01
1.390000e-06	1.973049e-06	6.925634e-10	1.400252e+01	4.440453e+01
1.400000e-06	2.058973e-06	7.809869e-10	1.461232e+01	5.031068e+01
1.410000e-06	2.144512e-06	8.766928e-10	1.521938e+01	5.622841e+01
1.420000e-06	2.229654e-06	9.743002e-10	1.582362e+01	6.214402e+01
1.430000e-06	2.314394e-06	1.064744e-09	1.642501e+01	6.804349e+01
1.440000e-06	2.398851e-06	1.147364e-09	1.702440e+01	7.391284e+01
1.450000e-06	2.483075e-06	1.231844e-09	1.762212e+01	7.973845e+01
1.460000e-06	2.566996e-06	1.323520e-09	1.821770e+01	8.550735e+01
1.470000e-06	2.650479e-06	1.416566e-09	1.881017e+01	9.120750e+01
1.480000e-06	2.733402e-06	1.499844e-09	1.939867e+01	9.682802e+01
1.490000e-06	2.815817e-06	1.576069e-09	1.998356e+01	1.023594e+02
1.500000e-06	2.897797e-06	1.657993e-09	2.056537e+01	1.077934e+02
1.510000e-06	2.979272e-06	1.746258e-09	2.114358e+01	1.131235e+02
1.520000e-06	3.060242e-06	1.827787e-09	2.171822e+01	1.183444e+02
1.530000e-06	3.140635e-06	1.899150e-09	2.228876e+01	1.234524e+02
1.540000e-06	3.220383e-06	1.969861e-09	2.285472e+01	1.284449e+02
1.550000e-06	3.299519e-06	2.046664e-09	2.341635e+01	1.333207e+02
1.560000e-06	3.378060e-06	2.125405e-09	2.397374e+01	1.380794e+02
1.570000e-06	3.455992e-06	2.195921e-09	2.452682e+01	1.427214e+02
1.580000e-06	3.533297e-06	2.258387e-09	2.507544e+01	1.472477e+02
1.590000e-06	3.609960e-06	2.322202e-09	2.561951e+01	1.516600e+02
1.600000e-06	3.686005e-06	2.392344e-09	2.615919e+01	1.559601e+02
1.610000e-06	3.761290e-06	2.462082e-09	2.669349e+01	1.601499e+02
1.620000e-06	3.835601e-06	2.523438e-09	2.722086e+01	1.642316e+02
1.630000e-06	3.908949e-06	2.577878e-09	2.774140e+01	1.682074e+02
1.640000e-06	3.981551e-06	2.633078e-09	2.825665e+01	1.720793e+02
1.650000e-06	4.053542e-06	2.691376e-09	2.876757e+01	1.758494e+02
1.660000e-06	4.124797e-06	2.749089e-09	2.927325e+01	1.795198e+02
1.670000e-06	4.195309e-06	2.801138e-09	2.977367e+01	1.830924e+02
1.680000e-06	4.265151e-06	2.847503e-09	3.026933e+01	1.865693e+02
1.690000e-06	4.334294e-06	2.895002e-09	3.076004e+01	1.899524e+02
1.700000e-06	4.402764e-06	2.945899e-09	3.124596e+01	1.932439e+02
1.710000e-06	4.470657e-06	2.995945e-09	3.172779e+01	1.964458e+02
1.720000e-06	4.537766e-06	3.042076e-09	3.220406e+01	1.995602e+02
1.730000e-06	4.603816e-06	3.084533e-09	3.267280e+01	2.025893e+02
1.740000e-06	4.668869e-06	3.127892e-09	3.313448e+01	2.055353e+02
1.750000e-06	4.733132e-06	3.172673e-09	3.359054e+01	2.084001e+02
1.760000e-06	4.796611e-06	3.214031e-09	3.404105e+01	2.111858e+02
1.770000e-06	4.859292e-06	3.250753e-09	3.448589e+01	2.138942e+02
1.780000e-06	4.921206e-06	3.285248e-09	3.492529e+01	2.165270e+02
1.790000e-06	4.982318e-06	3.322339e-09	3.535900e+01	2.190856e+02
1.800000e-06	5.042725e-06	3.361651e-09	3.578770e+01	2.215711e+02
1.810000e-06	5.102396e-06	3.398803e-09	3.621118e+01	2.239846e+02
1.820000e-06	5.161036e-06	3.430946e-09	3.662734e+01	2.263268e+02
1.830000e-06	5.218488e-06	3.461553e-09	3.703507e+01	2.285983e+02
1.840000e-06	5.274936e-06	3.495389e-09	3.743568e+01	2.307994e+02
1.850000e-06	5.330479e-06	3.528743e-09	3.782986e+01	2.329306e+02
1.860000e-06	5.385138e-06	3.558200e-09	3.821777e+01	2.349922e+02
1.870000e-06	5.438914e-06	3.585363e-09	3.859941e+01	2.369847e+02
1.880000e-06	5.491694e-06	3.611288e-09	3.897398e+01	2.389087e+02
1.890000e-06	5.543387e-06	3.637350e-09	3.934084e+01	2.407651e+02
1.900000e-06	5.593854e-06	3.663683e-09	3.969900e+01	2.425549e+02
1.910000e-06	5.642975e-06	3.688639e-09	4.004761e+01	2.442795e+02
1.920000e-06	5.690924e-06	3.711175e-09	4.038790e+01	2.459406e+02
1.930000e-06	5.737921e-06	3.733208e-09	4.072143e+01	2.475403e+02
1.940000e-06	5.783913e-06	3.756951e-09	4.104783e+01	2.490805e+02
1.950000e-06	5.828931e-06	3.780524e-09	4.136732e+01	2.505637e+02
1.960000e-06	5.873166e-06	3.801971e-09	4.168125e+01	2.519923e+02
1.970000e-06	5.916534e-06	3.821608e-09	4.198903e+01	2.533687e+02
1.980000e-06	5.958616e-06	3.841133e-09	4.228768e+01	2.546952e+02
1.990000e-06	5.999399e-06	3.861107e-09	4.257711e+01	2.559737e+02
2.000000e-06	6.039097e-06	3.881058e-09	4.285885e+01	2.572062e+02
2.010000e-06	6.077790e-06	3.898292e-09	4.313345e+01	2.583941e+02
2.020000e-06	6.115515e-06	3.913392e-09	4.340118e+01	2.595384e+02
2.030000e-06	6.152247e-06	3.929802e-09	4.366186e+01	2.606398e+02
2.040000e-06	6.188085e-06	3.947153e-09	4.391620e+01	2.616988e+02
2.050000e-06	6.222844e-06	3.962545e-09	4.416288e+01	2.627152e+02
2.060000e-06	6.256208e-06	3.974545e-09	4.439966e+01	2.636889e+02
2.070000e-06	6.288342e-06	3.986927e-09	4.462771e+01	2.646195e+02
2.080000e-06	6.319477e-06	4.001621e-09	4.484867e+01	2.655067e+02
2.090000e-06	6.349601e-06	4.017158e-09	4.506246e+01	2.663501e+02
2.100000e-06	6.378721e-06	4.030208e-09	4.526912e+01	2.671496e+02
2.110000e-06	6.406867e-06	4.040117e-09	4.546887e+01	2.679053e+02
2.120000e-06	6.433954e-06	4.051172e-09	4.566110e+01	2.686177e+02
2.130000e-06	6.459742e-06	4.063775e-09	4.584412e+01	2.692875e+02
2.140000e-06	6.484203e-06	4.074860e-09	4.601772e+01	2.699160e+02
2.150000e-06	6.507492e-06	4.082145e-09	4.618300e+01	2.705046e+02
2.160000e-06	6.529659e-06	4.088325e-09	4.634031e+01	2.710552e+02
2.170000e-06	6.550764e-06	4.096382e-09	4.649010e+01	2.715697e+02
2.180000e-06	6.570925e-06	4.103429e-09	4.663317e+01	2.720503e+02
2.190000e-06	6.590090e-06	4.108349e-09	4.676919e+01	2.724989e+02
2.200000e-06	6.608032e-06	4.114425e-09	4.689652e+01	2.729175e+02
2.210000e-06	6.624748e-06	4.122140e-09	4.701515e+01	2.733075e+02
2.220000e-06	6.640207e-06	4.129321e-09	4.712486e+01	2.736702e+02
2.230000e-06	6.654345e-06	4.137252e-09	4.722519e+01	2.740061e+02
2.240000e-06	6.667318e-06	4.146451e-09	4.731726e+01	2.743156e+02
2.250000e-06	6.679070e-06	4.152666e-09	4.740067e+01	2.745983e+02
2.260000e-06	6.689360e-06	4.154993e-09	4.747369e+01	2.748535e+02
2.270000e-06	6.698237e-06	4.157428e-09	4.753670e+01	2.750799e+02
2.280000e-06	6.705917e-06	4.161023e-09	4.759120e+01	2.752763e+02
2.290000e-06	6.712487e-06	4.163533e-09	4.763783e+01	2.754412e+02
2.300000e-06	6.717937e-06	4.164829e-09	4.767650e+01	2.755732e+02
2.310000e-06	6.722354e-06	4.166503e-09	4.770785e+01	2.756712e+02
2.320000e-06	6.725740e-06	4.169096e-09	4.773188e+01	2.757348e+02
2.330000e-06	6.727786e-06	4.170681e-09	4.774640e+01	2.757639e+02
2.340000e-06	6.728399e-06	4.170045e-09	4.775075e+01	2.757593e+02
2.350000e-06	6.727813e-06	4.168975e-09	4.774659e+01	2.757227e+02
2.360000e-06	6.726216e-06	4.169215e-09	4.773526e+01	2.756566e+02
2.370000e-06	6.723626e-06	4.167955e-09	4.771688e+01	2.755644e+02
2.380000e-06	6.720064e-06	4.165660e-09	4.769160e+01	2.754502e+02
2.390000e-06	6.715553e-06	4.163948e-09	4.765958e+01	2.753188e+02
2.400000e-06	6.709719e-06	4.163164e-09	4.761818e+01	2.751753e+02
2.410000e-06	6.702480e-06	4.162849e-09	4.756681e+01	2.750251e+02
2.420000e-06	6.694228e-06	4.154015e-09	4.750824e+01	2.748734e+02
2.430000e-06	6.685020e-06	4.144994e-09	4.744289e+01	2.747250e+02
2.440000e-06	6.674575e-06	4.149571e-09	4.736877e+01	2.745842e+02
2.450000e-06	6.662328e-06	4.145445e-09	4.728185e+01	2.744542e+02
2.460000e-06	6.648080e-06	4.158073e-09	4.718073e+01	2.743373e+02
2.470000e-06	6.632529e-06	4.147617e-09	4.707037e+01	2.742341e+02
2.480000e-06	6.616449e-06	4.141270e-09	4.695625e+01	2.741443e+02
2.490000e-06	6.599733e-06	4.191923e-09	4.683762e+01	2.740656e+02
2.500000e-06	6.581664e-06	4.160711e-09	4.670938e+01	2.739947e+02
2.510000e-06	6.562338e-06	4.162867e-09	4.657223e+01	2.739269e+02
2.520000e-06	6.542257e-06	4.221430e-09	4.642972e+01	2.738564e+02
2.530000e-06	6.520969e-06	4.149597e-09	4.627864e+01	2.737763e+02
2.540000e-06	6.498028e-06	4.117549e-09	4.611583e+01	2.736795e+02
2.550000e-06	6.473895e-06	4.177922e-09	4.594456e+01	2.735582e+02
2.560000e-06	6.448899e-06	4.161032e-09	4.576717e+01	2.734051e+02
2.570000e-06	6.422961e-06	4.169611e-09	4.558309e+01	2.732127e+02
2.580000e-06	6.395925e-06	4.202939e-09	4.539122e+01	2.729748e+02
2.590000e-06	6.367656e-06	4.132009e-09	4.519059e+01	2.726855e+02
2.600000e-06	6.338322e-06	4.113404e-09	4.498242e+01	2.723405e+02
2.610000e-06	6.307806e-06	4.192959e-09	4.476584e+01	2.719363e+02
2.620000e-06	6.275960e-06	4.253523e-09	4.453984e+01	2.714711e+02
2.630000e-06	6.242964e-06	4.210815e-09	4.430567e+01	2.709441e+02
2.640000e-06	6.208849e-06	4.050335e-09	4.406356e+01	2.703560e+02
2.650000e-06	6.173623e-06	4.041936e-09	4.381356e+01	2.697085e+02
2.660000e-06	6.137477e-06	4.223232e-09	4.355704e+01	2.690041e+02
2.670000e-06	6.100316e-06	4.257311e-09	4.329331e+01	2.682464e+02
2.680000e-06	6.061766e-06	4.059883e-09	4.301972e+01	2.674390e+02
2.690000e-06	6.021907e-06	3.914733e-09	4.273685e+01	2.665862e+02
2.700000e-06	5.981124e-06	4.067405e-09	4.244742e+01	2.656921e+02
2.710000e-06	5.939509e-06	4.223560e-09	4.215208e+01	2.647605e+02
2.720000e-06	5.896891e-06	4.082118e-09	4.184963e+01	2.637951e+02
2.730000e-06	5.853261e-06	3.894462e-09	4.153999e+01	2.627988e+02
2.740000e-06	5.808767e-06	3.918682e-09	4.122422e+01	2.617741e+02
2.750000e-06	5.763372e-06	4.086696e-09	4.090206e+01	2.607227e+02
2.760000e-06	5.716880e-06	4.105457e-09	4.057211e+01	2.596456e+02
2.770000e-06	5.669227e-06	3.925775e-09	4.023391e+01	2.585435e+02
2.780000e-06	5.620475e-06	3.829229e-09	3.988793e+01	2.574161e+02
2.790000e-06	5.570669e-06	3.905006e-09	3.953446e+01	2.562630e+02
2.800000e-06	5.519844e-06	4.010384e-09	3.917376e+01	2.550835e+02
2.810000e-06	5.468044e-06	3.963649e-09	3.880614e+01	2.538766e+02
2.820000e-06	5.415119e-06	3.813760e-09	3.843054e+01	2.526412e+02
2.830000e-06	5.360840e-06	3.768362e-09	3.804533e+01	2.513763e+02
2.840000e-06	5.305377e-06	3.845332e-09	3.765171e+01	2.500813e+02
2.850000e-06	5.249091e-06	3.902726e-09	3.725225e+01	2.487554e+02
2.860000e-06	5.191986e-06	3.824431e-09	3.684698e+01	2.473983e+02
2.870000e-06	5.133906e-06	3.709645e-09	3.643480e+01	2.460098e+02
2.880000e-06	5.074903e-06	3.698434e-09	3.601606e+01	2.445902e+02
2.890000e-06	5.015142e-06	3.760755e-09	3.559194e+01	2.431396e+02
2.900000e-06	4.954654e-06	3.777673e-09	3.516267e+01	2.416586e+02
2.910000e-06	4.893131e-06	3.692639e-09	3.472605e+01	2.401474e+02
2.920000e-06	4.830397e-06	3.604462e-09	3.428083e+01	2.386067e+02
2.930000e-06	4.766727e-06	3.607253e-09	3.382897e+01	2.370366e+02
2.940000e-06	4.702393e-06	3.663822e-09	3.337239e+01	2.354375e+02
