# Temperatura_=_20.0
# Concentracion g/m^3_=_12600.0
# C_Vs_to_Am_M_A/Vsm_=_65563218390.804596
# pendiente_HvsI_1/m_=_3716.3
# ordenada_HvsI_A/m_=_1297.0
# frecuencia_Hz_=_213172.7286688839

Tiempo_(s)	Campo_(V.s)	Magnetizacion_(V.s)	Campo_(kA/m)	Magnetizacion_(A/m)
0.000000e+00	-6.751219e-06	-4.067025e-09	-4.756888e+01	-2.634070e+02
1.000000e-08	-6.751090e-06	-4.067215e-09	-4.756797e+01	-2.633819e+02
2.000000e-08	-6.749648e-06	-4.067850e-09	-4.755781e+01	-2.633157e+02
3.000000e-08	-6.746790e-06	-4.069044e-09	-4.753767e+01	-2.632098e+02
4.000000e-08	-6.742899e-06	-4.070086e-09	-4.751026e+01	-2.630672e+02
5.000000e-08	-6.738040e-06	-4.068797e-09	-4.747602e+01	-2.628930e+02
6.000000e-08	-6.732020e-06	-4.064380e-09	-4.743360e+01	-2.626938e+02
7.000000e-08	-6.724902e-06	-4.059930e-09	-4.738345e+01	-2.624773e+02
8.000000e-08	-6.716816e-06	-4.056032e-09	-4.732648e+01	-2.622529e+02
9.000000e-08	-6.707473e-06	-4.059184e-09	-4.726065e+01	-2.620299e+02
1.000000e-07	-6.696441e-06	-4.075308e-09	-4.718292e+01	-2.618180e+02
1.100000e-07	-6.683720e-06	-4.082671e-09	-4.709328e+01	-2.616264e+02
1.200000e-07	-6.669458e-06	-4.070470e-09	-4.699280e+01	-2.614629e+02
1.300000e-07	-6.653754e-06	-4.034629e-09	-4.688215e+01	-2.613339e+02
1.400000e-07	-6.636874e-06	-3.993925e-09	-4.676321e+01	-2.612433e+02
1.500000e-07	-6.619001e-06	-4.032951e-09	-4.663727e+01	-2.611928e+02
1.600000e-07	-6.600207e-06	-4.068354e-09	-4.650485e+01	-2.611812e+02
1.700000e-07	-6.580682e-06	-4.022520e-09	-4.636728e+01	-2.612042e+02
1.800000e-07	-6.560197e-06	-3.998422e-09	-4.622295e+01	-2.612551e+02
1.900000e-07	-6.538350e-06	-3.994452e-09	-4.606901e+01	-2.613244e+02
2.000000e-07	-6.515454e-06	-4.003979e-09	-4.590769e+01	-2.614005e+02
2.100000e-07	-6.491767e-06	-4.041357e-09	-4.574079e+01	-2.614702e+02
2.200000e-07	-6.466759e-06	-4.005985e-09	-4.556459e+01	-2.615193e+02
2.300000e-07	-6.440135e-06	-3.938344e-09	-4.537699e+01	-2.615334e+02
2.400000e-07	-6.412303e-06	-3.965787e-09	-4.518089e+01	-2.614984e+02
2.500000e-07	-6.383574e-06	-4.014235e-09	-4.497846e+01	-2.614014e+02
2.600000e-07	-6.353866e-06	-3.996971e-09	-4.476914e+01	-2.612311e+02
2.700000e-07	-6.323003e-06	-3.904005e-09	-4.455169e+01	-2.609787e+02
2.800000e-07	-6.291150e-06	-3.852479e-09	-4.432725e+01	-2.606379e+02
2.900000e-07	-6.258327e-06	-3.947184e-09	-4.409598e+01	-2.602054e+02
3.000000e-07	-6.224223e-06	-3.998755e-09	-4.385568e+01	-2.596809e+02
3.100000e-07	-6.188812e-06	-3.908201e-09	-4.360618e+01	-2.590670e+02
3.200000e-07	-6.152220e-06	-3.828136e-09	-4.334835e+01	-2.583688e+02
3.300000e-07	-6.114484e-06	-3.836038e-09	-4.308246e+01	-2.575940e+02
3.400000e-07	-6.075704e-06	-3.910271e-09	-4.280922e+01	-2.567515e+02
3.500000e-07	-6.036012e-06	-3.943697e-09	-4.252956e+01	-2.558518e+02
3.600000e-07	-5.995264e-06	-3.836249e-09	-4.224244e+01	-2.549054e+02
3.700000e-07	-5.953213e-06	-3.732855e-09	-4.194615e+01	-2.539231e+02
3.800000e-07	-5.909932e-06	-3.809670e-09	-4.164119e+01	-2.529145e+02
3.900000e-07	-5.865658e-06	-3.911438e-09	-4.132925e+01	-2.518882e+02
4.000000e-07	-5.820421e-06	-3.828484e-09	-4.101051e+01	-2.508509e+02
4.100000e-07	-5.774152e-06	-3.688591e-09	-4.068450e+01	-2.498075e+02
4.200000e-07	-5.726851e-06	-3.694533e-09	-4.035122e+01	-2.487605e+02
4.300000e-07	-5.678529e-06	-3.803736e-09	-4.001074e+01	-2.477104e+02
4.400000e-07	-5.628984e-06	-3.823499e-09	-3.966165e+01	-2.466557e+02
4.500000e-07	-5.577973e-06	-3.692452e-09	-3.930223e+01	-2.455933e+02
4.600000e-07	-5.525696e-06	-3.597493e-09	-3.893388e+01	-2.445184e+02
4.700000e-07	-5.472486e-06	-3.664162e-09	-3.855897e+01	-2.434255e+02
4.800000e-07	-5.418376e-06	-3.748310e-09	-3.817771e+01	-2.423086e+02
4.900000e-07	-5.363367e-06	-3.691489e-09	-3.779012e+01	-2.411618e+02
5.000000e-07	-5.307495e-06	-3.564254e-09	-3.739645e+01	-2.399794e+02
5.100000e-07	-5.250580e-06	-3.535680e-09	-3.699542e+01	-2.387567e+02
5.200000e-07	-5.192538e-06	-3.609600e-09	-3.658646e+01	-2.374902e+02
5.300000e-07	-5.133445e-06	-3.638247e-09	-3.617010e+01	-2.361775e+02
5.400000e-07	-5.073427e-06	-3.552096e-09	-3.574721e+01	-2.348177e+02
5.500000e-07	-5.012557e-06	-3.461157e-09	-3.531832e+01	-2.334114e+02
5.600000e-07	-4.950864e-06	-3.472255e-09	-3.488364e+01	-2.319601e+02
5.700000e-07	-4.888396e-06	-3.522637e-09	-3.444349e+01	-2.304665e+02
5.800000e-07	-4.825165e-06	-3.504048e-09	-3.399796e+01	-2.289341e+02
5.900000e-07	-4.761062e-06	-3.421835e-09	-3.354629e+01	-2.273665e+02
6.000000e-07	-4.695907e-06	-3.365309e-09	-3.308721e+01	-2.257677e+02
6.100000e-07	-4.629746e-06	-3.374983e-09	-3.262104e+01	-2.241409e+02
6.200000e-07	-4.562741e-06	-3.395062e-09	-3.214893e+01	-2.224892e+02
6.300000e-07	-4.495008e-06	-3.364923e-09	-3.167169e+01	-2.208146e+02
6.400000e-07	-4.426556e-06	-3.298701e-09	-3.118937e+01	-2.191181e+02
6.500000e-07	-4.357368e-06	-3.253215e-09	-3.070188e+01	-2.173997e+02
6.600000e-07	-4.287469e-06	-3.251962e-09	-3.020937e+01	-2.156585e+02
6.700000e-07	-4.216920e-06	-3.259165e-09	-2.971229e+01	-2.138924e+02
6.800000e-07	-4.145684e-06	-3.227663e-09	-2.921036e+01	-2.120987e+02
6.900000e-07	-4.073637e-06	-3.162638e-09	-2.870272e+01	-2.102740e+02
7.000000e-07	-4.000776e-06	-3.116365e-09	-2.818934e+01	-2.084148e+02
7.100000e-07	-3.927054e-06	-3.115704e-09	-2.766990e+01	-2.065174e+02
7.200000e-07	-3.852393e-06	-3.119184e-09	-2.714384e+01	-2.045785e+02
7.300000e-07	-3.776904e-06	-3.081235e-09	-2.661195e+01	-2.025951e+02
7.400000e-07	-3.700715e-06	-3.014703e-09	-2.607512e+01	-2.005650e+02
7.500000e-07	-3.623913e-06	-2.971613e-09	-2.553398e+01	-1.984868e+02
7.600000e-07	-3.546446e-06	-2.967542e-09	-2.498815e+01	-1.963598e+02
7.700000e-07	-3.468153e-06	-2.958625e-09	-2.443650e+01	-1.941842e+02
7.800000e-07	-3.389155e-06	-2.909560e-09	-2.387988e+01	-1.919611e+02
7.900000e-07	-3.309546e-06	-2.843766e-09	-2.331896e+01	-1.896919e+02
8.000000e-07	-3.229270e-06	-2.808797e-09	-2.275334e+01	-1.873785e+02
8.100000e-07	-3.148382e-06	-2.803840e-09	-2.218340e+01	-1.850232e+02
8.200000e-07	-3.066947e-06	-2.782913e-09	-2.160961e+01	-1.826279e+02
8.300000e-07	-2.984966e-06	-2.724082e-09	-2.103198e+01	-1.801945e+02
8.400000e-07	-2.902565e-06	-2.660301e-09	-2.045138e+01	-1.777244e+02
8.500000e-07	-2.819727e-06	-2.627973e-09	-1.986771e+01	-1.752183e+02
8.600000e-07	-2.736354e-06	-2.614276e-09	-1.928027e+01	-1.726763e+02
8.700000e-07	-2.652580e-06	-2.582867e-09	-1.868999e+01	-1.700977e+02
8.800000e-07	-2.568444e-06	-2.524317e-09	-1.809717e+01	-1.674812e+02
8.900000e-07	-2.483941e-06	-2.464898e-09	-1.750177e+01	-1.648249e+02
9.000000e-07	-2.399101e-06	-2.433452e-09	-1.690399e+01	-1.621261e+02
9.100000e-07	-2.313918e-06	-2.416753e-09	-1.630380e+01	-1.593823e+02
9.200000e-07	-2.228353e-06	-2.379447e-09	-1.570090e+01	-1.565903e+02
9.300000e-07	-2.142356e-06	-2.315779e-09	-1.509497e+01	-1.537476e+02
9.400000e-07	-2.056003e-06	-2.256268e-09	-1.448654e+01	-1.508513e+02
9.500000e-07	-1.969321e-06	-2.223136e-09	-1.387578e+01	-1.478995e+02
9.600000e-07	-1.882304e-06	-2.197608e-09	-1.326266e+01	-1.448904e+02
9.700000e-07	-1.795038e-06	-2.150397e-09	-1.264778e+01	-1.418230e+02
9.800000e-07	-1.707526e-06	-2.084276e-09	-1.203118e+01	-1.386970e+02
9.900000e-07	-1.619719e-06	-2.026014e-09	-1.141249e+01	-1.355124e+02
1.000000e-06	-1.531536e-06	-1.988635e-09	-1.079116e+01	-1.322699e+02
1.010000e-06	-1.443008e-06	-1.954075e-09	-1.016739e+01	-1.289705e+02
1.020000e-06	-1.354211e-06	-1.899250e-09	-9.541726e+00	-1.256155e+02
1.030000e-06	-1.265161e-06	-1.830561e-09	-8.914286e+00	-1.222060e+02
1.040000e-06	-1.175884e-06	-1.772255e-09	-8.285240e+00	-1.187433e+02
1.050000e-06	-1.086390e-06	-1.730981e-09	-7.654670e+00	-1.152281e+02
1.060000e-06	-9.967131e-07	-1.688856e-09	-7.022809e+00	-1.116608e+02
1.070000e-06	-9.068911e-07	-1.629640e-09	-6.389926e+00	-1.080414e+02
1.080000e-06	-8.168644e-07	-1.558567e-09	-5.755601e+00	-1.043691e+02
1.090000e-06	-7.266569e-07	-1.497730e-09	-5.120002e+00	-1.006428e+02
1.100000e-06	-6.363799e-07	-1.454307e-09	-4.483913e+00	-9.686065e+01
1.110000e-06	-5.459908e-07	-1.407107e-09	-3.847034e+00	-9.302061e+01
1.120000e-06	-4.554395e-07	-1.341051e-09	-3.209013e+00	-8.912021e+01
1.130000e-06	-3.647898e-07	-1.267455e-09	-2.570297e+00	-8.515687e+01
1.140000e-06	-2.740640e-07	-1.205931e-09	-1.931046e+00	-8.112802e+01
1.150000e-06	-1.832972e-07	-1.155799e-09	-1.291506e+00	-7.703124e+01
1.160000e-06	-9.251481e-08	-1.097730e-09	-6.518565e-01	-7.286438e+01
1.170000e-06	-1.725990e-09	-1.022087e-09	-1.216127e-02	-6.862567e+01
1.180000e-06	8.904491e-08	-9.422729e-10	6.274077e-01	-6.431380e+01
1.190000e-06	1.798143e-07	-8.787076e-10	1.266966e+00	-5.992790e+01
1.200000e-06	2.705658e-07	-8.268114e-10	1.906398e+00	-5.546754e+01
1.210000e-06	3.612690e-07	-7.637467e-10	2.545490e+00	-5.093269e+01
1.220000e-06	4.519255e-07	-6.829499e-10	3.184253e+00	-4.632359e+01
1.230000e-06	5.424589e-07	-6.025899e-10	3.822148e+00	-4.164068e+01
1.240000e-06	6.328589e-07	-5.367078e-10	4.459104e+00	-3.688451e+01
1.250000e-06	7.231617e-07	-4.750721e-10	5.095375e+00	-3.205558e+01
1.260000e-06	8.133160e-07	-4.010206e-10	5.730599e+00	-2.715431e+01
1.270000e-06	9.033587e-07	-3.150927e-10	6.365037e+00	-2.218100e+01
1.280000e-06	9.932478e-07	-2.329983e-10	6.998393e+00	-1.713582e+01
1.290000e-06	1.082942e-06	-1.615305e-10	7.630376e+00	-1.201890e+01
1.300000e-06	1.172412e-06	-9.036681e-11	8.260779e+00	-6.830389e+00
1.310000e-06	1.261606e-06	-7.284026e-12	8.889236e+00	-1.570667e+00
1.320000e-06	1.350504e-06	8.441461e-11	9.515609e+00	3.759486e+00
1.330000e-06	1.439107e-06	1.703026e-10	1.013990e+01	9.158648e+00
1.340000e-06	1.527471e-06	2.452827e-10	1.076251e+01	1.462453e+01
1.350000e-06	1.615503e-06	3.199268e-10	1.138278e+01	2.015372e+01
1.360000e-06	1.703182e-06	4.076843e-10	1.200057e+01	2.574151e+01
1.370000e-06	1.790537e-06	5.044584e-10	1.261607e+01	3.138173e+01
1.380000e-06	1.877564e-06	5.928050e-10	1.322926e+01	3.706661e+01
1.390000e-06	1.964371e-06	6.699592e-10	1.384090e+01	4.278683e+01
1.400000e-06	2.050931e-06	7.517553e-10	1.445080e+01	4.853152e+01
1.410000e-06	2.137184e-06	8.472651e-10	1.505853e+01	5.428844e+01
1.420000e-06	2.223034e-06	9.447781e-10	1.566343e+01	6.004420e+01
1.430000e-06	2.308433e-06	1.029394e-09	1.626515e+01	6.578457e+01
1.440000e-06	2.393451e-06	1.104906e-09	1.686418e+01	7.149485e+01
1.450000e-06	2.478118e-06	1.186370e-09	1.746074e+01	7.716027e+01
1.460000e-06	2.562453e-06	1.277829e-09	1.805497e+01	8.276642e+01
1.470000e-06	2.646421e-06	1.368464e-09	1.864660e+01	8.829965e+01
1.480000e-06	2.730010e-06	1.447266e-09	1.923557e+01	9.374750e+01
1.490000e-06	2.813222e-06	1.519516e-09	1.982188e+01	9.909900e+01
1.500000e-06	2.895955e-06	1.598702e-09	2.040481e+01	1.043450e+02
1.510000e-06	2.978179e-06	1.685209e-09	2.098416e+01	1.094781e+02
1.520000e-06	3.059865e-06	1.765448e-09	2.155971e+01	1.144933e+02
1.530000e-06	3.140959e-06	1.833485e-09	2.213110e+01	1.193873e+02
1.540000e-06	3.221462e-06	1.899752e-09	2.269832e+01	1.241587e+02
1.550000e-06	3.301360e-06	1.972389e-09	2.326128e+01	1.288080e+02
1.560000e-06	3.380651e-06	2.048459e-09	2.381996e+01	1.333370e+02
1.570000e-06	3.459324e-06	2.119473e-09	2.437429e+01	1.377487e+02
1.580000e-06	3.537394e-06	2.180636e-09	2.492437e+01	1.420467e+02
1.590000e-06	3.614754e-06	2.238939e-09	2.546944e+01	1.462350e+02
1.600000e-06	3.691435e-06	2.303589e-09	2.600973e+01	1.503180e+02
1.610000e-06	3.767545e-06	2.371239e-09	2.654601e+01	1.542994e+02
1.620000e-06	3.842980e-06	2.432052e-09	2.707751e+01	1.581828e+02
1.630000e-06	3.917561e-06	2.482274e-09	2.760301e+01	1.619710e+02
1.640000e-06	3.991164e-06	2.530970e-09	2.812162e+01	1.656660e+02
1.650000e-06	4.063811e-06	2.585366e-09	2.863349e+01	1.692693e+02
1.660000e-06	4.135677e-06	2.640881e-09	2.913985e+01	1.727815e+02
1.670000e-06	4.206880e-06	2.690464e-09	2.964154e+01	1.762026e+02
1.680000e-06	4.277385e-06	2.732546e-09	3.013832e+01	1.795326e+02
1.690000e-06	4.347112e-06	2.777097e-09	3.062962e+01	1.827709e+02
1.700000e-06	4.416068e-06	2.828907e-09	3.111548e+01	1.859171e+02
1.710000e-06	4.484385e-06	2.879409e-09	3.159684e+01	1.889712e+02
1.720000e-06	4.552075e-06	2.921555e-09	3.207378e+01	1.919333e+02
1.730000e-06	4.619036e-06	2.957744e-09	3.254559e+01	1.948045e+02
1.740000e-06	4.685036e-06	2.997194e-09	3.301062e+01	1.975860e+02
1.750000e-06	4.749942e-06	3.039413e-09	3.346795e+01	2.002803e+02
1.760000e-06	4.813936e-06	3.077735e-09	3.391884e+01	2.028899e+02
1.770000e-06	4.877185e-06	3.111683e-09	3.436449e+01	2.054183e+02
1.780000e-06	4.939672e-06	3.143776e-09	3.480478e+01	2.078690e+02
1.790000e-06	5.001356e-06	3.178797e-09	3.523940e+01	2.102461e+02
1.800000e-06	5.062266e-06	3.216367e-09	3.566857e+01	2.125534e+02
1.810000e-06	5.122410e-06	3.251169e-09	3.609234e+01	2.147946e+02
1.820000e-06	5.181795e-06	3.281258e-09	3.651077e+01	2.169728e+02
1.830000e-06	5.240232e-06	3.309744e-09	3.692251e+01	2.190908e+02
1.840000e-06	5.297433e-06	3.339706e-09	3.732555e+01	2.211508e+02
1.850000e-06	5.353518e-06	3.369271e-09	3.772072e+01	2.231539e+02
1.860000e-06	5.408750e-06	3.396842e-09	3.810989e+01	2.251008e+02
1.870000e-06	5.463134e-06	3.421789e-09	3.849307e+01	2.269915e+02
1.880000e-06	5.516559e-06	3.446230e-09	3.886950e+01	2.288254e+02
1.890000e-06	5.568995e-06	3.471863e-09	3.923896e+01	2.306017e+02
1.900000e-06	5.620367e-06	3.497971e-09	3.960093e+01	2.323192e+02
1.910000e-06	5.670365e-06	3.523926e-09	3.995322e+01	2.339768e+02
1.920000e-06	5.718961e-06	3.546706e-09	4.029562e+01	2.355738e+02
1.930000e-06	5.766479e-06	3.568228e-09	4.063043e+01	2.371098e+02
1.940000e-06	5.813064e-06	3.592001e-09	4.095867e+01	2.385849e+02
1.950000e-06	5.858663e-06	3.617116e-09	4.127996e+01	2.399999e+02
1.960000e-06	5.903250e-06	3.637918e-09	4.159411e+01	2.413563e+02
1.970000e-06	5.947004e-06	3.653383e-09	4.190241e+01	2.426561e+02
1.980000e-06	5.989867e-06	3.670206e-09	4.220442e+01	2.439022e+02
1.990000e-06	6.031482e-06	3.690374e-09	4.249764e+01	2.450976e+02
2.000000e-06	6.071814e-06	3.709749e-09	4.278181e+01	2.462457e+02
2.010000e-06	6.111050e-06	3.725401e-09	4.305827e+01	2.473498e+02
2.020000e-06	6.149340e-06	3.738764e-09	4.332806e+01	2.484133e+02
2.030000e-06	6.186637e-06	3.753108e-09	4.359085e+01	2.494389e+02
2.040000e-06	6.222916e-06	3.769115e-09	4.384647e+01	2.504291e+02
2.050000e-06	6.258246e-06	3.784931e-09	4.409541e+01	2.513855e+02
2.060000e-06	6.292376e-06	3.798087e-09	4.433589e+01	2.523088e+02
2.070000e-06	6.325128e-06	3.809804e-09	4.456666e+01	2.531994e+02
2.080000e-06	6.356745e-06	3.822522e-09	4.478943e+01	2.540567e+02
2.090000e-06	6.387341e-06	3.834950e-09	4.500500e+01	2.548794e+02
2.100000e-06	6.416883e-06	3.845720e-09	4.521316e+01	2.556661e+02
2.110000e-06	6.445464e-06	3.854654e-09	4.541454e+01	2.564149e+02
2.120000e-06	6.473116e-06	3.865445e-09	4.560937e+01	2.571241e+02
2.130000e-06	6.499610e-06	3.877793e-09	4.579605e+01	2.577921e+02
2.140000e-06	6.524677e-06	3.888708e-09	4.597267e+01	2.584179e+02
2.150000e-06	6.548398e-06	3.897860e-09	4.613981e+01	2.590011e+02
2.160000e-06	6.571003e-06	3.906833e-09	4.629908e+01	2.595418e+02
2.170000e-06	6.592525e-06	3.914896e-09	4.645072e+01	2.600413e+02
2.180000e-06	6.612985e-06	3.919886e-09	4.659489e+01	2.605013e+02
2.190000e-06	6.632494e-06	3.924483e-09	4.673235e+01	2.609245e+02
2.200000e-06	6.650902e-06	3.930000e-09	4.686205e+01	2.613139e+02
2.210000e-06	6.668055e-06	3.936334e-09	4.698291e+01	2.616729e+02
2.220000e-06	6.684028e-06	3.941924e-09	4.709546e+01	2.620051e+02
2.230000e-06	6.698710e-06	3.948149e-09	4.719891e+01	2.623135e+02
2.240000e-06	6.712075e-06	3.956567e-09	4.729307e+01	2.626009e+02
2.250000e-06	6.724271e-06	3.962848e-09	4.737901e+01	2.628694e+02
2.260000e-06	6.735177e-06	3.966259e-09	4.745585e+01	2.631200e+02
2.270000e-06	6.744519e-06	3.968168e-09	4.752167e+01	2.633529e+02
2.280000e-06	6.752501e-06	3.970293e-09	4.757791e+01	2.635669e+02
2.290000e-06	6.759419e-06	3.973117e-09	4.762666e+01	2.637602e+02
2.300000e-06	6.765186e-06	3.976024e-09	4.766729e+01	2.639298e+02
2.310000e-06	6.769853e-06	3.977583e-09	4.770018e+01	2.640723e+02
2.320000e-06	6.773571e-06	3.978111e-09	4.772637e+01	2.641840e+02
2.330000e-06	6.776043e-06	3.979527e-09	4.774379e+01	2.642612e+02
2.340000e-06	6.777031e-06	3.981215e-09	4.775075e+01	2.643008e+02
2.350000e-06	6.776827e-06	3.980273e-09	4.774931e+01	2.643003e+02
2.360000e-06	6.775574e-06	3.976253e-09	4.774048e+01	2.642587e+02
2.370000e-06	6.773251e-06	3.972556e-09	4.772411e+01	2.641763e+02
2.380000e-06	6.769892e-06	3.970210e-09	4.770045e+01	2.640553e+02
2.390000e-06	6.765595e-06	3.967990e-09	4.767017e+01	2.638994e+02
2.400000e-06	6.760189e-06	3.967197e-09	4.763209e+01	2.637143e+02
2.410000e-06	6.753391e-06	3.967194e-09	4.758418e+01	2.635071e+02
2.420000e-06	6.745386e-06	3.967462e-09	4.752778e+01	2.632863e+02
2.430000e-06	6.736446e-06	3.963858e-09	4.746479e+01	2.630613e+02
2.440000e-06	6.726411e-06	3.935607e-09	4.739409e+01	2.628416e+02
2.450000e-06	6.714742e-06	3.915671e-09	4.731186e+01	2.626368e+02
2.460000e-06	6.700997e-06	3.917304e-09	4.721502e+01	2.624556e+02
2.470000e-06	6.685551e-06	3.965785e-09	4.710619e+01	2.623052e+02
2.480000e-06	6.669408e-06	4.017374e-09	4.699244e+01	2.621912e+02
2.490000e-06	6.652821e-06	3.939283e-09	4.687557e+01	2.621167e+02
2.500000e-06	6.634992e-06	3.910163e-09	4.674995e+01	2.620820e+02
2.510000e-06	6.615737e-06	3.964121e-09	4.661428e+01	2.620849e+02
2.520000e-06	6.595768e-06	3.940922e-09	4.647357e+01	2.621200e+02
2.530000e-06	6.574831e-06	3.951807e-09	4.632605e+01	2.621795e+02
2.540000e-06	6.552178e-06	3.959742e-09	4.616645e+01	2.622530e+02
2.550000e-06	6.528196e-06	3.912380e-09	4.599746e+01	2.623282e+02
2.560000e-06	6.503284e-06	3.984290e-09	4.582194e+01	2.623914e+02
2.570000e-06	6.477373e-06	4.064739e-09	4.563937e+01	2.624283e+02
2.580000e-06	6.450405e-06	4.004893e-09	4.544935e+01	2.624244e+02
2.590000e-06	6.422279e-06	3.968983e-09	4.525118e+01	2.623661e+02
2.600000e-06	6.393178e-06	4.019479e-09	4.504613e+01	2.622409e+02
2.610000e-06	6.362939e-06	4.130566e-09	4.483307e+01	2.620387e+02
2.620000e-06	6.331169e-06	4.140610e-09	4.460922e+01	2.617515e+02
2.630000e-06	6.298216e-06	3.963907e-09	4.437704e+01	2.613743e+02
2.640000e-06	6.264251e-06	3.918359e-09	4.413772e+01	2.609049e+02
2.650000e-06	6.229121e-06	4.040998e-09	4.389020e+01	2.603441e+02
2.660000e-06	6.193019e-06	4.107876e-09	4.363582e+01	2.596958e+02
2.670000e-06	6.155855e-06	4.045081e-09	4.337396e+01	2.589660e+02
2.680000e-06	6.117412e-06	3.870771e-09	4.310310e+01	2.581629e+02
2.690000e-06	6.077715e-06	3.844571e-09	4.282339e+01	2.572962e+02
2.700000e-06	6.036960e-06	4.014285e-09	4.253623e+01	2.563765e+02
2.710000e-06	5.995293e-06	4.066934e-09	4.224265e+01	2.554146e+02
2.720000e-06	5.952630e-06	3.895617e-09	4.194204e+01	2.544206e+02
2.730000e-06	5.908965e-06	3.744554e-09	4.163439e+01	2.534040e+02
2.740000e-06	5.864395e-06	3.857629e-09	4.132034e+01	2.523726e+02
2.750000e-06	5.818909e-06	4.013822e-09	4.099985e+01	2.513324e+02
2.760000e-06	5.772399e-06	3.929769e-09	4.067214e+01	2.502873e+02
2.770000e-06	5.724658e-06	3.740587e-09	4.033577e+01	2.492392e+02
2.780000e-06	5.675739e-06	3.711614e-09	3.999108e+01	2.481875e+02
2.790000e-06	5.625896e-06	3.865843e-09	3.963989e+01	2.471302e+02
2.800000e-06	5.575108e-06	3.913187e-09	3.928204e+01	2.460634e+02
2.810000e-06	5.523249e-06	3.765748e-09	3.891664e+01	2.449820e+02
2.820000e-06	5.470154e-06	3.652106e-09	3.854254e+01	2.438803e+02
2.830000e-06	5.415835e-06	3.697890e-09	3.815980e+01	2.427521e+02
2.840000e-06	5.360406e-06	3.798769e-09	3.776925e+01	2.415917e+02
2.850000e-06	5.303978e-06	3.771045e-09	3.737166e+01	2.403937e+02
2.860000e-06	5.246660e-06	3.648712e-09	3.696780e+01	2.391538e+02
2.870000e-06	5.188428e-06	3.591225e-09	3.655750e+01	2.378690e+02
2.880000e-06	5.129328e-06	3.639112e-09	3.614109e+01	2.365375e+02
2.890000e-06	5.069474e-06	3.680138e-09	3.571936e+01	2.351590e+02
2.900000e-06	5.008842e-06	3.620903e-09	3.529215e+01	2.337344e+02
2.910000e-06	4.947156e-06	3.536078e-09	3.485751e+01	2.322658e+02
2.920000e-06	4.884367e-06	3.511419e-09	3.441510e+01	2.307563e+02
2.930000e-06	4.820625e-06	3.541083e-09	3.396597e+01	2.292094e+02
2.940000e-06	4.756004e-06	3.548184e-09	3.351066e+01	2.276288e+02
