# Temperatura_=_20.0
# Concentracion g/m^3_=_12600.0
# C_Vs_to_Am_M_A/Vsm_=_65563218390.804596
# pendiente_HvsI_1/m_=_3716.3
# ordenada_HvsI_A/m_=_1297.0
# frecuencia_Hz_=_213173.9679405291

Tiempo_(s)	Campo_(V.s)	Magnetizacion_(V.s)	Campo_(kA/m)	Magnetizacion_(A/m)
0.000000e+00	-6.738534e-06	-4.133006e-09	-4.757481e+01	-2.693703e+02
1.000000e-08	-6.738214e-06	-4.130921e-09	-4.757255e+01	-2.693568e+02
2.000000e-08	-6.736508e-06	-4.129524e-09	-4.756050e+01	-2.693134e+02
3.000000e-08	-6.733347e-06	-4.129064e-09	-4.753819e+01	-2.692413e+02
4.000000e-08	-6.729228e-06	-4.129301e-09	-4.750911e+01	-2.691419e+02
5.000000e-08	-6.724146e-06	-4.128904e-09	-4.747323e+01	-2.690174e+02
6.000000e-08	-6.717930e-06	-4.126790e-09	-4.742934e+01	-2.688705e+02
7.000000e-08	-6.710700e-06	-4.123564e-09	-4.737830e+01	-2.687043e+02
8.000000e-08	-6.702589e-06	-4.118964e-09	-4.732103e+01	-2.685221e+02
9.000000e-08	-6.693147e-06	-4.127216e-09	-4.725437e+01	-2.683270e+02
1.000000e-07	-6.681838e-06	-4.144258e-09	-4.717453e+01	-2.681224e+02
1.100000e-07	-6.668865e-06	-4.136748e-09	-4.708293e+01	-2.679111e+02
1.200000e-07	-6.654537e-06	-4.120708e-09	-4.698178e+01	-2.676952e+02
1.300000e-07	-6.638783e-06	-4.074783e-09	-4.687055e+01	-2.674765e+02
1.400000e-07	-6.621858e-06	-4.067270e-09	-4.675106e+01	-2.672556e+02
1.500000e-07	-6.603992e-06	-4.140167e-09	-4.662492e+01	-2.670325e+02
1.600000e-07	-6.585091e-06	-4.106204e-09	-4.649148e+01	-2.668060e+02
1.700000e-07	-6.565342e-06	-4.072087e-09	-4.635205e+01	-2.665741e+02
1.800000e-07	-6.544586e-06	-4.083623e-09	-4.620551e+01	-2.663338e+02
1.900000e-07	-6.522582e-06	-4.045279e-09	-4.605016e+01	-2.660817e+02
2.000000e-07	-6.499654e-06	-4.096615e-09	-4.588829e+01	-2.658135e+02
2.100000e-07	-6.475787e-06	-4.129095e-09	-4.571978e+01	-2.655246e+02
2.200000e-07	-6.450530e-06	-4.009385e-09	-4.554147e+01	-2.652105e+02
2.300000e-07	-6.423833e-06	-3.994852e-09	-4.535299e+01	-2.648663e+02
2.400000e-07	-6.396028e-06	-4.088043e-09	-4.515668e+01	-2.644878e+02
2.500000e-07	-6.367230e-06	-4.083844e-09	-4.495336e+01	-2.640712e+02
2.600000e-07	-6.337351e-06	-4.036301e-09	-4.474241e+01	-2.636131e+02
2.700000e-07	-6.306292e-06	-3.946147e-09	-4.452313e+01	-2.631111e+02
2.800000e-07	-6.274219e-06	-3.934454e-09	-4.429669e+01	-2.625637e+02
2.900000e-07	-6.241209e-06	-4.048176e-09	-4.406364e+01	-2.619700e+02
3.000000e-07	-6.206916e-06	-4.060678e-09	-4.382152e+01	-2.613302e+02
3.100000e-07	-6.171325e-06	-3.957232e-09	-4.357024e+01	-2.606450e+02
3.200000e-07	-6.134584e-06	-3.872232e-09	-4.331085e+01	-2.599162e+02
3.300000e-07	-6.096774e-06	-3.897645e-09	-4.304391e+01	-2.591456e+02
3.400000e-07	-6.057978e-06	-4.011481e-09	-4.277000e+01	-2.583356e+02
3.500000e-07	-6.018234e-06	-4.016796e-09	-4.248941e+01	-2.574889e+02
3.600000e-07	-5.977477e-06	-3.859696e-09	-4.220166e+01	-2.566080e+02
3.700000e-07	-5.935373e-06	-3.774397e-09	-4.190440e+01	-2.556953e+02
3.800000e-07	-5.891946e-06	-3.907582e-09	-4.159780e+01	-2.547529e+02
3.900000e-07	-5.847588e-06	-4.009323e-09	-4.128463e+01	-2.537827e+02
4.000000e-07	-5.802302e-06	-3.869909e-09	-4.096490e+01	-2.527859e+02
4.100000e-07	-5.755949e-06	-3.713101e-09	-4.063764e+01	-2.517634e+02
4.200000e-07	-5.708555e-06	-3.757669e-09	-4.030304e+01	-2.507155e+02
4.300000e-07	-5.660178e-06	-3.900860e-09	-3.996149e+01	-2.496423e+02
4.400000e-07	-5.610597e-06	-3.889470e-09	-3.961145e+01	-2.485432e+02
4.500000e-07	-5.559570e-06	-3.711322e-09	-3.925119e+01	-2.474175e+02
4.600000e-07	-5.507304e-06	-3.633511e-09	-3.888219e+01	-2.462645e+02
4.700000e-07	-5.454014e-06	-3.742058e-09	-3.850595e+01	-2.450831e+02
4.800000e-07	-5.399780e-06	-3.830934e-09	-3.812305e+01	-2.438725e+02
4.900000e-07	-5.344641e-06	-3.736544e-09	-3.773376e+01	-2.426318e+02
5.000000e-07	-5.288669e-06	-3.586806e-09	-3.733860e+01	-2.413604e+02
5.100000e-07	-5.231795e-06	-3.582486e-09	-3.693706e+01	-2.400578e+02
5.200000e-07	-5.173714e-06	-3.681949e-09	-3.652700e+01	-2.387238e+02
5.300000e-07	-5.114487e-06	-3.702071e-09	-3.610885e+01	-2.373583e+02
5.400000e-07	-5.054429e-06	-3.588879e-09	-3.568483e+01	-2.359616e+02
5.500000e-07	-4.993581e-06	-3.495263e-09	-3.525524e+01	-2.345337e+02
5.600000e-07	-4.931813e-06	-3.525671e-09	-3.481916e+01	-2.330750e+02
5.700000e-07	-4.869208e-06	-3.585003e-09	-3.437715e+01	-2.315857e+02
5.800000e-07	-4.805896e-06	-3.558132e-09	-3.393017e+01	-2.300659e+02
5.900000e-07	-4.741830e-06	-3.460459e-09	-3.347785e+01	-2.285158e+02
6.000000e-07	-4.676825e-06	-3.400852e-09	-3.301891e+01	-2.269350e+02
6.100000e-07	-4.610696e-06	-3.418089e-09	-3.255203e+01	-2.253232e+02
6.200000e-07	-4.543553e-06	-3.445915e-09	-3.207799e+01	-2.236797e+02
6.300000e-07	-4.475677e-06	-3.417377e-09	-3.159878e+01	-2.220037e+02
6.400000e-07	-4.407218e-06	-3.337055e-09	-3.111545e+01	-2.202941e+02
6.500000e-07	-4.338049e-06	-3.280818e-09	-3.062711e+01	-2.185498e+02
6.600000e-07	-4.268079e-06	-3.290518e-09	-3.013312e+01	-2.167695e+02
6.700000e-07	-4.197394e-06	-3.318863e-09	-2.963407e+01	-2.149520e+02
6.800000e-07	-4.126028e-06	-3.286987e-09	-2.913022e+01	-2.130963e+02
6.900000e-07	-4.054028e-06	-3.195660e-09	-2.862189e+01	-2.112014e+02
7.000000e-07	-3.981305e-06	-3.139978e-09	-2.810846e+01	-2.092664e+02
7.100000e-07	-3.907744e-06	-3.160826e-09	-2.758911e+01	-2.072908e+02
7.200000e-07	-3.833253e-06	-3.180026e-09	-2.706320e+01	-2.052744e+02
7.300000e-07	-3.757861e-06	-3.121802e-09	-2.653092e+01	-2.032171e+02
7.400000e-07	-3.681738e-06	-3.027479e-09	-2.599348e+01	-2.011190e+02
7.500000e-07	-3.604949e-06	-2.994065e-09	-2.545134e+01	-1.989806e+02
7.600000e-07	-3.527541e-06	-3.018544e-09	-2.490484e+01	-1.968022e+02
7.700000e-07	-3.449478e-06	-3.011653e-09	-2.435370e+01	-1.945844e+02
7.800000e-07	-3.370700e-06	-2.936145e-09	-2.379752e+01	-1.923275e+02
7.900000e-07	-3.291159e-06	-2.856388e-09	-2.323595e+01	-1.900320e+02
8.000000e-07	-3.210865e-06	-2.837222e-09	-2.266906e+01	-1.876980e+02
8.100000e-07	-3.129976e-06	-2.844070e-09	-2.209798e+01	-1.853255e+02
8.200000e-07	-3.048620e-06	-2.811633e-09	-2.152360e+01	-1.829141e+02
8.300000e-07	-2.966759e-06	-2.737479e-09	-2.094565e+01	-1.804633e+02
8.400000e-07	-2.884363e-06	-2.676594e-09	-2.036393e+01	-1.779723e+02
8.500000e-07	-2.801462e-06	-2.659960e-09	-1.977864e+01	-1.754400e+02
8.600000e-07	-2.718086e-06	-2.652627e-09	-1.918999e+01	-1.728653e+02
8.700000e-07	-2.634308e-06	-2.613698e-09	-1.859851e+01	-1.702468e+02
8.800000e-07	-2.550174e-06	-2.544968e-09	-1.800451e+01	-1.675831e+02
8.900000e-07	-2.465733e-06	-2.484231e-09	-1.740835e+01	-1.648731e+02
9.000000e-07	-2.380988e-06	-2.456174e-09	-1.681004e+01	-1.621154e+02
9.100000e-07	-2.295849e-06	-2.438621e-09	-1.620895e+01	-1.593089e+02
9.200000e-07	-2.210303e-06	-2.395470e-09	-1.560498e+01	-1.564529e+02
9.300000e-07	-2.124346e-06	-2.322333e-09	-1.499812e+01	-1.535467e+02
9.400000e-07	-2.037978e-06	-2.260805e-09	-1.438835e+01	-1.505897e+02
9.500000e-07	-1.951321e-06	-2.237308e-09	-1.377654e+01	-1.475818e+02
9.600000e-07	-1.864382e-06	-2.219153e-09	-1.316275e+01	-1.445228e+02
9.700000e-07	-1.777153e-06	-2.165154e-09	-1.254690e+01	-1.414127e+02
9.800000e-07	-1.689654e-06	-2.086086e-09	-1.192914e+01	-1.382514e+02
9.900000e-07	-1.601883e-06	-2.027733e-09	-1.130947e+01	-1.350389e+02
1.000000e-06	-1.513880e-06	-2.002739e-09	-1.068816e+01	-1.317749e+02
1.010000e-06	-1.425671e-06	-1.968228e-09	-1.006540e+01	-1.284591e+02
1.020000e-06	-1.337287e-06	-1.896397e-09	-9.441399e+00	-1.250907e+02
1.030000e-06	-1.248694e-06	-1.816491e-09	-8.815921e+00	-1.216689e+02
1.040000e-06	-1.159804e-06	-1.768795e-09	-8.188343e+00	-1.181924e+02
1.050000e-06	-1.070680e-06	-1.743530e-09	-7.559120e+00	-1.146598e+02
1.060000e-06	-9.814369e-07	-1.697964e-09	-6.929055e+00	-1.110695e+02
1.070000e-06	-8.919810e-07	-1.624464e-09	-6.297486e+00	-1.074196e+02
1.080000e-06	-8.022051e-07	-1.552059e-09	-5.663658e+00	-1.037084e+02
1.090000e-06	-7.121699e-07	-1.505103e-09	-5.027999e+00	-9.993394e+01
1.100000e-06	-6.219737e-07	-1.466448e-09	-4.391204e+00	-9.609465e+01
1.110000e-06	-5.316825e-07	-1.406298e-09	-3.753738e+00	-9.218907e+01
1.120000e-06	-4.413258e-07	-1.326783e-09	-3.115810e+00	-8.821602e+01
1.130000e-06	-3.507861e-07	-1.252250e-09	-2.476589e+00	-8.417469e+01
1.140000e-06	-2.600747e-07	-1.198058e-09	-1.836157e+00	-8.006463e+01
1.150000e-06	-1.693441e-07	-1.149377e-09	-1.195588e+00	-7.588575e+01
1.160000e-06	-7.865802e-08	-1.083468e-09	-5.553344e-01	-7.163827e+01
1.170000e-06	1.204824e-08	-1.000765e-09	8.506196e-02	-6.732271e+01
1.180000e-06	1.028472e-07	-9.220357e-10	7.261131e-01	-6.293975e+01
1.190000e-06	1.936260e-07	-8.657172e-10	1.367021e+00	-5.849014e+01
1.200000e-06	2.842959e-07	-8.146731e-10	2.007161e+00	-5.397461e+01
1.210000e-06	3.749155e-07	-7.423935e-10	2.646946e+00	-4.939372e+01
1.220000e-06	4.654816e-07	-6.530449e-10	3.286352e+00	-4.474782e+01
1.230000e-06	5.559338e-07	-5.724862e-10	3.924955e+00	-4.003693e+01
1.240000e-06	6.463221e-07	-5.129865e-10	4.563107e+00	-3.526072e+01
1.250000e-06	7.365604e-07	-4.521721e-10	5.200199e+00	-3.041851e+01
1.260000e-06	8.265209e-07	-3.691264e-10	5.835330e+00	-2.550929e+01
1.270000e-06	9.162279e-07	-2.773639e-10	6.468672e+00	-2.053185e+01
1.280000e-06	1.005723e-06	-2.016602e-10	7.100517e+00	-1.548490e+01
1.290000e-06	1.095006e-06	-1.405816e-10	7.730866e+00	-1.036720e+01
1.300000e-06	1.184056e-06	-6.764767e-11	8.359569e+00	-5.177841e+00
1.310000e-06	1.272872e-06	2.608966e-11	8.986616e+00	8.359373e-02
1.320000e-06	1.361435e-06	1.198011e-10	9.611882e+00	5.416769e+00
1.330000e-06	1.449761e-06	1.973529e-10	1.023548e+01	1.082038e+01
1.340000e-06	1.537827e-06	2.660699e-10	1.085723e+01	1.629196e+01
1.350000e-06	1.625606e-06	3.462066e-10	1.147696e+01	2.182771e+01
1.360000e-06	1.713140e-06	4.408290e-10	1.209496e+01	2.742237e+01
1.370000e-06	1.800399e-06	5.356235e-10	1.271102e+01	3.306921e+01
1.380000e-06	1.887355e-06	6.181953e-10	1.332494e+01	3.875997e+01
1.390000e-06	1.974003e-06	6.958199e-10	1.393669e+01	4.448502e+01
1.400000e-06	2.060365e-06	7.851109e-10	1.454641e+01	5.023344e+01
1.410000e-06	2.146363e-06	8.852227e-10	1.515357e+01	5.599326e+01
1.420000e-06	2.231936e-06	9.804339e-10	1.575772e+01	6.175172e+01
1.430000e-06	2.317140e-06	1.062436e-09	1.635927e+01	6.749556e+01
1.440000e-06	2.401979e-06	1.138970e-09	1.695824e+01	7.321136e+01
1.450000e-06	2.486488e-06	1.224325e-09	1.755488e+01	7.888586e+01
1.460000e-06	2.570653e-06	1.317142e-09	1.814910e+01	8.450632e+01
1.470000e-06	2.654469e-06	1.404206e-09	1.874085e+01	9.006078e+01
1.480000e-06	2.737884e-06	1.479522e-09	1.932977e+01	9.553834e+01
1.490000e-06	2.820780e-06	1.552313e-09	1.991502e+01	1.009294e+02
1.500000e-06	2.903163e-06	1.637323e-09	2.049666e+01	1.062258e+02
1.510000e-06	2.985029e-06	1.728514e-09	2.107464e+01	1.114208e+02
1.520000e-06	3.066375e-06	1.809017e-09	2.164895e+01	1.165094e+02
1.530000e-06	3.147139e-06	1.876506e-09	2.221916e+01	1.214879e+02
1.540000e-06	3.227309e-06	1.944542e-09	2.278516e+01	1.263540e+02
1.550000e-06	3.306894e-06	2.023246e-09	2.334704e+01	1.311069e+02
1.560000e-06	3.385849e-06	2.102995e-09	2.390448e+01	1.357464e+02
1.570000e-06	3.464175e-06	2.170167e-09	2.445746e+01	1.402735e+02
1.580000e-06	3.541877e-06	2.225933e-09	2.500605e+01	1.446898e+02
1.590000e-06	3.619011e-06	2.285036e-09	2.555062e+01	1.489971e+02
1.600000e-06	3.695518e-06	2.356209e-09	2.609077e+01	1.531976e+02
1.610000e-06	3.771352e-06	2.427113e-09	2.662617e+01	1.572935e+02
1.620000e-06	3.846409e-06	2.486207e-09	2.715608e+01	1.612869e+02
1.630000e-06	3.920571e-06	2.536972e-09	2.767967e+01	1.651796e+02
1.640000e-06	3.993815e-06	2.590253e-09	2.819678e+01	1.689734e+02
1.650000e-06	4.066233e-06	2.649994e-09	2.870806e+01	1.726698e+02
1.660000e-06	4.137955e-06	2.708340e-09	2.921443e+01	1.762699e+02
1.670000e-06	4.209006e-06	2.756612e-09	2.971605e+01	1.797749e+02
1.680000e-06	4.279379e-06	2.799405e-09	3.021289e+01	1.831857e+02
1.690000e-06	4.348980e-06	2.847997e-09	3.070429e+01	1.865034e+02
1.700000e-06	4.417835e-06	2.901888e-09	3.119041e+01	1.897289e+02
1.710000e-06	4.486028e-06	2.950395e-09	3.167186e+01	1.928635e+02
1.720000e-06	4.553584e-06	2.990585e-09	3.214882e+01	1.959086e+02
1.730000e-06	4.620346e-06	3.030301e-09	3.262016e+01	1.988658e+02
1.740000e-06	4.686009e-06	3.075011e-09	3.308375e+01	2.017369e+02
1.750000e-06	4.750586e-06	3.121644e-09	3.353967e+01	2.045239e+02
1.760000e-06	4.814379e-06	3.160776e-09	3.399006e+01	2.072292e+02
1.770000e-06	4.877508e-06	3.192801e-09	3.443576e+01	2.098550e+02
1.780000e-06	4.939836e-06	3.225429e-09	3.487580e+01	2.124038e+02
1.790000e-06	5.001341e-06	3.262306e-09	3.531003e+01	2.148778e+02
1.800000e-06	5.062055e-06	3.301438e-09	3.573867e+01	2.172793e+02
1.810000e-06	5.122056e-06	3.335720e-09	3.616229e+01	2.196102e+02
1.820000e-06	5.181281e-06	3.365035e-09	3.658043e+01	2.218722e+02
1.830000e-06	5.239289e-06	3.395822e-09	3.698997e+01	2.240670e+02
1.840000e-06	5.296007e-06	3.432703e-09	3.739041e+01	2.261955e+02
1.850000e-06	5.351827e-06	3.466703e-09	3.778450e+01	2.282586e+02
1.860000e-06	5.406850e-06	3.491900e-09	3.817297e+01	2.302571e+02
1.870000e-06	5.460989e-06	3.514011e-09	3.855520e+01	2.321913e+02
1.880000e-06	5.514199e-06	3.540041e-09	3.893087e+01	2.340616e+02
1.890000e-06	5.566376e-06	3.569021e-09	3.929924e+01	2.358683e+02
1.900000e-06	5.617281e-06	3.595293e-09	3.965864e+01	2.376120e+02
1.910000e-06	5.666747e-06	3.618048e-09	4.000787e+01	2.392932e+02
1.920000e-06	5.714993e-06	3.639083e-09	4.034849e+01	2.409127e+02
1.930000e-06	5.762283e-06	3.662930e-09	4.068237e+01	2.424717e+02
1.940000e-06	5.808619e-06	3.689057e-09	4.100950e+01	2.439717e+02
1.950000e-06	5.854014e-06	3.711088e-09	4.133000e+01	2.454145e+02
1.960000e-06	5.898523e-06	3.726879e-09	4.164423e+01	2.468020e+02
1.970000e-06	5.942170e-06	3.742671e-09	4.195239e+01	2.481366e+02
1.980000e-06	5.984710e-06	3.761753e-09	4.225273e+01	2.494208e+02
1.990000e-06	6.025842e-06	3.781820e-09	4.254312e+01	2.506569e+02
2.000000e-06	6.065864e-06	3.799745e-09	4.282568e+01	2.518475e+02
2.010000e-06	6.104910e-06	3.815546e-09	4.310135e+01	2.529947e+02
2.020000e-06	6.142951e-06	3.832571e-09	4.336993e+01	2.541007e+02
2.030000e-06	6.180036e-06	3.851235e-09	4.363174e+01	2.551671e+02
2.040000e-06	6.216166e-06	3.868865e-09	4.388683e+01	2.561952e+02
2.050000e-06	6.251315e-06	3.882518e-09	4.413498e+01	2.571858e+02
2.060000e-06	6.285133e-06	3.894034e-09	4.437375e+01	2.581394e+02
2.070000e-06	6.317642e-06	3.907097e-09	4.460326e+01	2.590560e+02
2.080000e-06	6.349103e-06	3.921873e-09	4.482538e+01	2.599354e+02
2.090000e-06	6.379549e-06	3.935952e-09	4.504034e+01	2.607770e+02
2.100000e-06	6.409005e-06	3.946367e-09	4.524829e+01	2.615801e+02
2.110000e-06	6.437468e-06	3.955773e-09	4.544924e+01	2.623440e+02
2.120000e-06	6.464917e-06	3.967883e-09	4.564304e+01	2.630682e+02
2.130000e-06	6.491013e-06	3.981690e-09	4.582728e+01	2.637522e+02
2.140000e-06	6.515652e-06	3.993162e-09	4.600123e+01	2.643957e+02
2.150000e-06	6.539125e-06	4.000044e-09	4.616695e+01	2.649992e+02
2.160000e-06	6.561520e-06	4.006184e-09	4.632507e+01	2.655630e+02
2.170000e-06	6.582836e-06	4.014397e-09	4.647556e+01	2.660883e+02
2.180000e-06	6.603160e-06	4.022255e-09	4.661905e+01	2.665762e+02
2.190000e-06	6.622581e-06	4.028099e-09	4.675617e+01	2.670283e+02
2.200000e-06	6.640760e-06	4.032740e-09	4.688451e+01	2.674465e+02
2.210000e-06	6.657596e-06	4.038828e-09	4.700338e+01	2.678327e+02
2.220000e-06	6.673235e-06	4.046907e-09	4.711379e+01	2.681887e+02
2.230000e-06	6.687611e-06	4.057226e-09	4.721529e+01	2.685161e+02
2.240000e-06	6.700733e-06	4.066046e-09	4.730793e+01	2.688166e+02
2.250000e-06	6.712655e-06	4.070134e-09	4.739210e+01	2.690912e+02
2.260000e-06	6.723203e-06	4.073618e-09	4.746657e+01	2.693407e+02
2.270000e-06	6.732233e-06	4.078095e-09	4.753032e+01	2.695653e+02
2.280000e-06	6.740047e-06	4.082067e-09	4.758549e+01	2.697649e+02
2.290000e-06	6.746748e-06	4.083032e-09	4.763280e+01	2.699391e+02
2.300000e-06	6.752308e-06	4.083046e-09	4.767205e+01	2.700871e+02
2.310000e-06	6.756874e-06	4.084657e-09	4.770429e+01	2.702078e+02
2.320000e-06	6.760457e-06	4.087887e-09	4.772958e+01	2.703003e+02
2.330000e-06	6.762690e-06	4.091086e-09	4.774535e+01	2.703636e+02
2.340000e-06	6.763455e-06	4.092767e-09	4.775075e+01	2.703970e+02
2.350000e-06	6.763085e-06	4.092140e-09	4.774814e+01	2.704002e+02
2.360000e-06	6.761714e-06	4.090720e-09	4.773846e+01	2.703732e+02
2.370000e-06	6.759279e-06	4.090614e-09	4.772127e+01	2.703167e+02
2.380000e-06	6.755819e-06	4.090219e-09	4.769684e+01	2.702320e+02
2.390000e-06	6.751403e-06	4.088034e-09	4.766566e+01	2.701211e+02
2.400000e-06	6.745737e-06	4.085697e-09	4.762566e+01	2.699862e+02
2.410000e-06	6.738703e-06	4.083732e-09	4.757600e+01	2.698302e+02
2.420000e-06	6.730627e-06	4.085695e-09	4.751898e+01	2.696564e+02
2.430000e-06	6.721625e-06	4.074413e-09	4.745542e+01	2.694680e+02
2.440000e-06	6.711438e-06	4.041554e-09	4.738351e+01	2.692683e+02
2.450000e-06	6.699494e-06	4.039985e-09	4.729918e+01	2.690603e+02
2.460000e-06	6.685465e-06	4.044210e-09	4.720013e+01	2.688467e+02
2.470000e-06	6.669934e-06	4.104944e-09	4.709048e+01	2.686294e+02
2.480000e-06	6.653876e-06	4.107398e-09	4.697711e+01	2.684097e+02
2.490000e-06	6.637328e-06	4.021638e-09	4.686028e+01	2.681879e+02
2.500000e-06	6.619368e-06	4.077680e-09	4.673348e+01	2.679635e+02
2.510000e-06	6.600040e-06	4.082291e-09	4.659703e+01	2.677348e+02
2.520000e-06	6.580107e-06	4.061553e-09	4.645629e+01	2.674996e+02
2.530000e-06	6.558960e-06	4.107686e-09	4.630700e+01	2.672545e+02
2.540000e-06	6.536065e-06	4.017851e-09	4.614535e+01	2.669957e+02
2.550000e-06	6.512047e-06	3.979531e-09	4.597578e+01	2.667188e+02
2.560000e-06	6.487055e-06	4.096922e-09	4.579934e+01	2.664191e+02
2.570000e-06	6.461089e-06	4.066753e-09	4.561601e+01	2.660920e+02
2.580000e-06	6.434023e-06	3.975471e-09	4.542492e+01	2.657330e+02
2.590000e-06	6.405627e-06	4.008222e-09	4.522445e+01	2.653378e+02
2.600000e-06	6.376306e-06	4.046636e-09	4.501743e+01	2.649028e+02
2.610000e-06	6.345888e-06	4.148980e-09	4.480268e+01	2.644253e+02
2.620000e-06	6.313998e-06	4.125878e-09	4.457753e+01	2.639030e+02
2.630000e-06	6.280955e-06	3.944857e-09	4.434425e+01	2.633348e+02
2.640000e-06	6.246853e-06	3.950124e-09	4.410348e+01	2.627203e+02
2.650000e-06	6.211664e-06	4.035970e-09	4.385505e+01	2.620600e+02
2.660000e-06	6.175531e-06	4.113819e-09	4.359994e+01	2.613549e+02
2.670000e-06	6.138244e-06	4.052895e-09	4.333669e+01	2.606070e+02
2.680000e-06	6.099651e-06	3.818863e-09	4.306422e+01	2.598184e+02
2.690000e-06	6.059860e-06	3.844705e-09	4.278329e+01	2.589916e+02
2.700000e-06	6.019066e-06	4.052243e-09	4.249528e+01	2.581292e+02
2.710000e-06	5.977397e-06	4.068565e-09	4.220110e+01	2.572337e+02
2.720000e-06	5.934686e-06	3.856313e-09	4.189955e+01	2.563074e+02
2.730000e-06	5.891002e-06	3.714821e-09	4.159114e+01	2.553524e+02
2.740000e-06	5.846418e-06	3.902292e-09	4.127637e+01	2.543701e+02
2.750000e-06	5.800802e-06	4.039089e-09	4.095431e+01	2.533616e+02
2.760000e-06	5.754062e-06	3.891641e-09	4.062432e+01	2.523277e+02
2.770000e-06	5.706111e-06	3.706720e-09	4.028579e+01	2.512685e+02
2.780000e-06	5.657088e-06	3.722644e-09	3.993968e+01	2.501836e+02
2.790000e-06	5.607184e-06	3.904638e-09	3.958735e+01	2.490727e+02
2.800000e-06	5.556323e-06	3.898376e-09	3.922826e+01	2.479348e+02
2.810000e-06	5.504366e-06	3.726646e-09	3.886144e+01	2.467692e+02
2.820000e-06	5.451236e-06	3.646094e-09	3.848634e+01	2.455748e+02
2.830000e-06	5.396824e-06	3.708881e-09	3.810218e+01	2.443507e+02
2.840000e-06	5.341266e-06	3.803081e-09	3.770994e+01	2.430963e+02
2.850000e-06	5.284879e-06	3.747151e-09	3.731184e+01	2.418109e+02
2.860000e-06	5.227649e-06	3.630563e-09	3.690779e+01	2.404942e+02
2.870000e-06	5.169434e-06	3.593164e-09	3.649678e+01	2.391461e+02
2.880000e-06	5.110301e-06	3.640978e-09	3.607930e+01	2.377665e+02
2.890000e-06	5.050429e-06	3.676292e-09	3.565660e+01	2.363557e+02
2.900000e-06	4.989798e-06	3.615541e-09	3.522854e+01	2.349139e+02
2.910000e-06	4.928130e-06	3.540007e-09	3.479315e+01	2.334414e+02
2.920000e-06	4.865261e-06	3.508600e-09	3.434929e+01	2.319384e+02
2.930000e-06	4.801405e-06	3.533117e-09	3.389846e+01	2.304050e+02
2.940000e-06	4.736815e-06	3.552408e-09	3.344245e+01	2.288412e+02
