# Temperatura_=_20.0
# Concentracion g/m^3_=_12600.0
# C_Vs_to_Am_M_A/Vsm_=_65563218390.804596
# pendiente_HvsI_1/m_=_3716.3
# ordenada_HvsI_A/m_=_1297.0
# frecuencia_Hz_=_213171.2627387125

Tiempo_(s)	Campo_(V.s)	Magnetizacion_(V.s)	Campo_(kA/m)	Magnetizacion_(A/m)
0.000000e+00	-6.741734e-06	-4.094564e-09	-4.757064e+01	-2.651662e+02
1.000000e-08	-6.741385e-06	-4.093143e-09	-4.756818e+01	-2.651414e+02
2.000000e-08	-6.739736e-06	-4.094047e-09	-4.755654e+01	-2.650815e+02
3.000000e-08	-6.736666e-06	-4.094455e-09	-4.753488e+01	-2.649890e+02
4.000000e-08	-6.732612e-06	-4.093686e-09	-4.750627e+01	-2.648675e+02
5.000000e-08	-6.727587e-06	-4.091353e-09	-4.747082e+01	-2.647214e+02
6.000000e-08	-6.721395e-06	-4.086653e-09	-4.742713e+01	-2.645560e+02
7.000000e-08	-6.714135e-06	-4.082586e-09	-4.737589e+01	-2.643772e+02
8.000000e-08	-6.705935e-06	-4.077917e-09	-4.731804e+01	-2.641908e+02
9.000000e-08	-6.696363e-06	-4.076447e-09	-4.725049e+01	-2.640028e+02
1.000000e-07	-6.685032e-06	-4.093537e-09	-4.717054e+01	-2.638185e+02
1.100000e-07	-6.672144e-06	-4.100789e-09	-4.707960e+01	-2.636424e+02
1.200000e-07	-6.657815e-06	-4.084495e-09	-4.697849e+01	-2.634781e+02
1.300000e-07	-6.641990e-06	-4.061677e-09	-4.686683e+01	-2.633278e+02
1.400000e-07	-6.624960e-06	-4.022645e-09	-4.674666e+01	-2.631919e+02
1.500000e-07	-6.607003e-06	-4.043351e-09	-4.661996e+01	-2.630697e+02
1.600000e-07	-6.588040e-06	-4.082460e-09	-4.648615e+01	-2.629585e+02
1.700000e-07	-6.568300e-06	-4.029857e-09	-4.634686e+01	-2.628540e+02
1.800000e-07	-6.547609e-06	-4.019470e-09	-4.620087e+01	-2.627509e+02
1.900000e-07	-6.525642e-06	-4.028020e-09	-4.604587e+01	-2.626424e+02
2.000000e-07	-6.502729e-06	-4.000037e-09	-4.588418e+01	-2.625211e+02
2.100000e-07	-6.478913e-06	-4.039763e-09	-4.571614e+01	-2.623789e+02
2.200000e-07	-6.453734e-06	-4.021971e-09	-4.553847e+01	-2.622077e+02
2.300000e-07	-6.427014e-06	-3.933159e-09	-4.534993e+01	-2.619997e+02
2.400000e-07	-6.399152e-06	-3.965332e-09	-4.515333e+01	-2.617476e+02
2.500000e-07	-6.370385e-06	-4.025598e-09	-4.495035e+01	-2.614452e+02
2.600000e-07	-6.340539e-06	-3.981200e-09	-4.473975e+01	-2.610872e+02
2.700000e-07	-6.309522e-06	-3.901617e-09	-4.452089e+01	-2.606700e+02
2.800000e-07	-6.277565e-06	-3.864994e-09	-4.429540e+01	-2.601911e+02
2.900000e-07	-6.244668e-06	-3.927349e-09	-4.406327e+01	-2.596500e+02
3.000000e-07	-6.210371e-06	-3.992307e-09	-4.382127e+01	-2.590472e+02
3.100000e-07	-6.174725e-06	-3.926800e-09	-4.356974e+01	-2.583847e+02
3.200000e-07	-6.137965e-06	-3.794825e-09	-4.331035e+01	-2.576657e+02
3.300000e-07	-6.100124e-06	-3.790706e-09	-4.304335e+01	-2.568940e+02
3.400000e-07	-6.061284e-06	-3.934512e-09	-4.276928e+01	-2.560744e+02
3.500000e-07	-6.021596e-06	-3.960293e-09	-4.248924e+01	-2.552116e+02
3.600000e-07	-5.980898e-06	-3.796552e-09	-4.220207e+01	-2.543105e+02
3.700000e-07	-5.938721e-06	-3.704560e-09	-4.190446e+01	-2.533757e+02
3.800000e-07	-5.895299e-06	-3.808991e-09	-4.159807e+01	-2.524113e+02
3.900000e-07	-5.850982e-06	-3.922602e-09	-4.128537e+01	-2.514207e+02
4.000000e-07	-5.805708e-06	-3.828707e-09	-4.096590e+01	-2.504065e+02
4.100000e-07	-5.759326e-06	-3.653681e-09	-4.063863e+01	-2.493705e+02
4.200000e-07	-5.711939e-06	-3.669078e-09	-4.030426e+01	-2.483134e+02
4.300000e-07	-5.663642e-06	-3.815911e-09	-3.996347e+01	-2.472355e+02
4.400000e-07	-5.613982e-06	-3.829007e-09	-3.961306e+01	-2.461359e+02
4.500000e-07	-5.562803e-06	-3.666183e-09	-3.925193e+01	-2.450135e+02
4.600000e-07	-5.510442e-06	-3.568030e-09	-3.888247e+01	-2.438666e+02
4.700000e-07	-5.457148e-06	-3.658955e-09	-3.850641e+01	-2.426935e+02
4.800000e-07	-5.402983e-06	-3.758732e-09	-3.812422e+01	-2.414920e+02
4.900000e-07	-5.347895e-06	-3.684559e-09	-3.773551e+01	-2.402606e+02
5.000000e-07	-5.292009e-06	-3.529384e-09	-3.734117e+01	-2.389974e+02
5.100000e-07	-5.235163e-06	-3.508474e-09	-3.694006e+01	-2.377015e+02
5.200000e-07	-5.176986e-06	-3.611963e-09	-3.652955e+01	-2.363718e+02
5.300000e-07	-5.117708e-06	-3.638916e-09	-3.611128e+01	-2.350079e+02
5.400000e-07	-5.057677e-06	-3.530015e-09	-3.568769e+01	-2.336100e+02
5.500000e-07	-4.996776e-06	-3.430313e-09	-3.525797e+01	-2.321782e+02
5.600000e-07	-4.934975e-06	-3.450684e-09	-3.482189e+01	-2.307131e+02
5.700000e-07	-4.872466e-06	-3.516609e-09	-3.438082e+01	-2.292157e+02
5.800000e-07	-4.809224e-06	-3.496769e-09	-3.393457e+01	-2.276866e+02
5.900000e-07	-4.745195e-06	-3.399267e-09	-3.348278e+01	-2.261267e+02
6.000000e-07	-4.680211e-06	-3.336830e-09	-3.302423e+01	-2.245366e+02
6.100000e-07	-4.614001e-06	-3.352754e-09	-3.255705e+01	-2.229169e+02
6.200000e-07	-4.546796e-06	-3.382705e-09	-3.208284e+01	-2.212677e+02
6.300000e-07	-4.478963e-06	-3.354827e-09	-3.160420e+01	-2.195889e+02
6.400000e-07	-4.410535e-06	-3.278191e-09	-3.112136e+01	-2.178802e+02
6.500000e-07	-4.341383e-06	-3.222652e-09	-3.063342e+01	-2.161408e+02
6.600000e-07	-4.271492e-06	-3.227743e-09	-3.014026e+01	-2.143699e+02
6.700000e-07	-4.200827e-06	-3.249250e-09	-2.964163e+01	-2.125664e+02
6.800000e-07	-4.129460e-06	-3.216317e-09	-2.913806e+01	-2.107292e+02
6.900000e-07	-4.057499e-06	-3.136885e-09	-2.863029e+01	-2.088573e+02
7.000000e-07	-3.984712e-06	-3.084874e-09	-2.811670e+01	-2.069494e+02
7.100000e-07	-3.910977e-06	-3.094279e-09	-2.759641e+01	-2.050046e+02
7.200000e-07	-3.836406e-06	-3.107831e-09	-2.707023e+01	-2.030223e+02
7.300000e-07	-3.761048e-06	-3.060897e-09	-2.653849e+01	-2.010017e+02
7.400000e-07	-3.684956e-06	-2.981899e-09	-2.600158e+01	-1.989426e+02
7.500000e-07	-3.608233e-06	-2.943561e-09	-2.546021e+01	-1.968446e+02
7.600000e-07	-3.530855e-06	-2.952287e-09	-2.491422e+01	-1.947078e+02
7.700000e-07	-3.452785e-06	-2.946408e-09	-2.436335e+01	-1.925322e+02
7.800000e-07	-3.373986e-06	-2.887386e-09	-2.380732e+01	-1.903179e+02
7.900000e-07	-3.294437e-06	-2.815301e-09	-2.324602e+01	-1.880648e+02
8.000000e-07	-3.214141e-06	-2.781547e-09	-2.267943e+01	-1.857730e+02
8.100000e-07	-3.133167e-06	-2.778633e-09	-2.210807e+01	-1.834423e+02
8.200000e-07	-3.051703e-06	-2.757241e-09	-2.153325e+01	-1.810722e+02
8.300000e-07	-2.969806e-06	-2.697163e-09	-2.095537e+01	-1.786622e+02
8.400000e-07	-2.887460e-06	-2.633713e-09	-2.037433e+01	-1.762114e+02
8.500000e-07	-2.804618e-06	-2.603427e-09	-1.978978e+01	-1.737189e+02
8.600000e-07	-2.721314e-06	-2.595139e-09	-1.920198e+01	-1.711835e+02
8.700000e-07	-2.637647e-06	-2.567210e-09	-1.861161e+01	-1.686038e+02
8.800000e-07	-2.553654e-06	-2.503906e-09	-1.801895e+01	-1.659785e+02
8.900000e-07	-2.469296e-06	-2.438710e-09	-1.742371e+01	-1.633061e+02
9.000000e-07	-2.384503e-06	-2.405819e-09	-1.682540e+01	-1.605854e+02
9.100000e-07	-2.299335e-06	-2.390144e-09	-1.622443e+01	-1.578151e+02
9.200000e-07	-2.213756e-06	-2.351952e-09	-1.562058e+01	-1.549941e+02
9.300000e-07	-2.127807e-06	-2.283319e-09	-1.501411e+01	-1.521215e+02
9.400000e-07	-2.041490e-06	-2.222485e-09	-1.440504e+01	-1.491966e+02
9.500000e-07	-1.954745e-06	-2.194171e-09	-1.379296e+01	-1.462188e+02
9.600000e-07	-1.867733e-06	-2.173223e-09	-1.317899e+01	-1.431878e+02
9.700000e-07	-1.780519e-06	-2.123078e-09	-1.256360e+01	-1.401032e+02
9.800000e-07	-1.693036e-06	-2.051467e-09	-1.194631e+01	-1.369649e+02
9.900000e-07	-1.605323e-06	-1.993562e-09	-1.132739e+01	-1.337727e+02
1.000000e-06	-1.517327e-06	-1.959407e-09	-1.070647e+01	-1.305264e+02
1.010000e-06	-1.428998e-06	-1.922963e-09	-1.008322e+01	-1.272255e+02
1.020000e-06	-1.340440e-06	-1.862246e-09	-9.458336e+00	-1.238698e+02
1.030000e-06	-1.251642e-06	-1.791729e-09	-8.831761e+00	-1.204585e+02
1.040000e-06	-1.162543e-06	-1.738574e-09	-8.203071e+00	-1.169909e+02
1.050000e-06	-1.073199e-06	-1.701427e-09	-7.572648e+00	-1.134661e+02
1.060000e-06	-9.836807e-07	-1.655505e-09	-6.940992e+00	-1.098831e+02
1.070000e-06	-8.939664e-07	-1.591373e-09	-6.307955e+00	-1.062407e+02
1.080000e-06	-8.040614e-07	-1.523585e-09	-5.673572e+00	-1.025380e+02
1.090000e-06	-7.139294e-07	-1.469177e-09	-5.037588e+00	-9.877375e+01
1.100000e-06	-6.236304e-07	-1.423491e-09	-4.400425e+00	-9.494709e+01
1.110000e-06	-5.333065e-07	-1.367790e-09	-3.763087e+00	-9.105721e+01
1.120000e-06	-4.428991e-07	-1.296758e-09	-3.125160e+00	-8.710349e+01
1.130000e-06	-3.523875e-07	-1.224935e-09	-2.486496e+00	-8.308556e+01
1.140000e-06	-2.617914e-07	-1.165647e-09	-1.847238e+00	-7.900323e+01
1.150000e-06	-1.711656e-07	-1.113561e-09	-1.207769e+00	-7.485652e+01
1.160000e-06	-8.052980e-08	-1.052624e-09	-5.682298e-01	-7.064557e+01
1.170000e-06	1.019617e-08	-9.780703e-10	7.194561e-02	-6.637060e+01
1.180000e-06	1.009425e-07	-9.031514e-10	7.122645e-01	-6.203180e+01
1.190000e-06	1.916696e-07	-8.418693e-10	1.352448e+00	-5.762928e+01
1.200000e-06	2.823755e-07	-7.857455e-10	1.992482e+00	-5.316292e+01
1.210000e-06	3.729924e-07	-7.181543e-10	2.631887e+00	-4.863236e+01
1.220000e-06	4.635645e-07	-6.383393e-10	3.270978e+00	-4.403690e+01
1.230000e-06	5.539908e-07	-5.629190e-10	3.909038e+00	-3.937547e+01
1.240000e-06	6.442169e-07	-4.975664e-10	4.545686e+00	-3.464665e+01
1.250000e-06	7.343591e-07	-4.311955e-10	5.181743e+00	-2.984873e+01
1.260000e-06	8.243909e-07	-3.558895e-10	5.817020e+00	-2.497977e+01
1.270000e-06	9.142358e-07	-2.744232e-10	6.450979e+00	-2.003776e+01
1.280000e-06	1.003882e-06	-1.971767e-10	7.083536e+00	-1.502079e+01
1.290000e-06	1.093344e-06	-1.264438e-10	7.714790e+00	-9.927252e+00
1.300000e-06	1.182538e-06	-5.156943e-11	8.344156e+00	-4.756050e+00
1.310000e-06	1.271499e-06	3.411322e-11	8.971882e+00	4.931311e-01
1.320000e-06	1.360254e-06	1.223607e-10	9.598146e+00	5.819614e+00
1.330000e-06	1.448677e-06	2.056450e-10	1.022208e+01	1.122151e+01
1.340000e-06	1.536749e-06	2.827969e-10	1.084352e+01	1.669555e+01
1.350000e-06	1.624540e-06	3.613454e-10	1.146298e+01	2.223692e+01
1.360000e-06	1.712038e-06	4.489526e-10	1.208038e+01	2.783923e+01
1.370000e-06	1.799269e-06	5.416696e-10	1.269590e+01	3.349447e+01
1.380000e-06	1.886236e-06	6.289577e-10	1.330955e+01	3.919307e+01
1.390000e-06	1.972927e-06	7.105255e-10	1.392125e+01	4.492405e+01
1.400000e-06	2.059329e-06	7.950175e-10	1.453092e+01	5.067518e+01
1.410000e-06	2.145391e-06	8.879460e-10	1.513818e+01	5.643328e+01
1.420000e-06	2.231104e-06	9.826979e-10	1.574299e+01	6.218446e+01
1.430000e-06	2.316374e-06	1.069918e-09	1.634466e+01	6.791451e+01
1.440000e-06	2.401260e-06	1.152307e-09	1.694364e+01	7.360919e+01
1.450000e-06	2.485825e-06	1.237602e-09	1.754033e+01	7.925466e+01
1.460000e-06	2.570057e-06	1.327254e-09	1.813469e+01	8.483774e+01
1.470000e-06	2.653927e-06	1.415566e-09	1.872649e+01	9.034625e+01
1.480000e-06	2.737392e-06	1.495108e-09	1.931543e+01	9.576926e+01
1.490000e-06	2.820383e-06	1.569570e-09	1.990102e+01	1.010973e+02
1.500000e-06	2.902820e-06	1.650836e-09	2.048271e+01	1.063224e+02
1.510000e-06	2.984745e-06	1.736506e-09	2.106079e+01	1.114384e+02
1.520000e-06	3.066122e-06	1.814915e-09	2.163499e+01	1.164406e+02
1.530000e-06	3.146904e-06	1.884445e-09	2.220500e+01	1.213261e+02
1.540000e-06	3.227119e-06	1.953716e-09	2.277101e+01	1.260932e+02
1.550000e-06	3.306781e-06	2.027892e-09	2.333312e+01	1.307416e+02
1.560000e-06	3.385829e-06	2.102519e-09	2.389089e+01	1.352723e+02
1.570000e-06	3.464248e-06	2.169653e-09	2.444423e+01	1.396868e+02
1.580000e-06	3.542060e-06	2.230710e-09	2.499328e+01	1.439875e+02
1.590000e-06	3.619191e-06	2.293184e-09	2.553753e+01	1.481772e+02
1.600000e-06	3.695672e-06	2.359542e-09	2.607719e+01	1.522588e+02
1.610000e-06	3.771464e-06	2.424779e-09	2.661199e+01	1.562354e+02
1.620000e-06	3.846482e-06	2.483583e-09	2.714133e+01	1.601101e+02
1.630000e-06	3.920739e-06	2.536102e-09	2.766529e+01	1.638856e+02
1.640000e-06	3.994134e-06	2.588438e-09	2.818318e+01	1.675646e+02
1.650000e-06	4.066617e-06	2.642914e-09	2.869463e+01	1.711492e+02
1.660000e-06	4.138300e-06	2.695077e-09	2.920044e+01	1.746417e+02
1.670000e-06	4.209302e-06	2.742927e-09	2.970143e+01	1.780439e+02
1.680000e-06	4.279644e-06	2.788398e-09	3.019778e+01	1.813573e+02
1.690000e-06	4.349286e-06	2.835357e-09	3.068918e+01	1.845837e+02
1.700000e-06	4.418193e-06	2.884840e-09	3.117540e+01	1.877244e+02
1.710000e-06	4.486397e-06	2.931957e-09	3.165666e+01	1.907808e+02
1.720000e-06	4.553883e-06	2.972704e-09	3.213285e+01	1.937545e+02
1.730000e-06	4.620506e-06	3.009855e-09	3.260295e+01	1.966469e+02
1.740000e-06	4.686160e-06	3.049697e-09	3.306621e+01	1.994594e+02
1.750000e-06	4.750893e-06	3.092369e-09	3.352298e+01	2.021935e+02
1.760000e-06	4.814729e-06	3.131077e-09	3.397342e+01	2.048508e+02
1.770000e-06	4.877831e-06	3.164690e-09	3.441867e+01	2.074327e+02
1.780000e-06	4.940206e-06	3.198410e-09	3.485880e+01	2.099404e+02
1.790000e-06	5.001757e-06	3.235933e-09	3.529311e+01	2.123752e+02
1.800000e-06	5.062530e-06	3.273531e-09	3.572193e+01	2.147380e+02
1.810000e-06	5.122537e-06	3.306666e-09	3.614536e+01	2.170299e+02
1.820000e-06	5.181763e-06	3.336195e-09	3.656326e+01	2.192514e+02
1.830000e-06	5.239931e-06	3.365911e-09	3.697371e+01	2.214031e+02
1.840000e-06	5.296883e-06	3.398310e-09	3.737556e+01	2.234855e+02
1.850000e-06	5.352735e-06	3.429606e-09	3.776966e+01	2.254988e+02
1.860000e-06	5.407683e-06	3.457862e-09	3.815739e+01	2.274437e+02
1.870000e-06	5.461849e-06	3.484253e-09	3.853959e+01	2.293205e+02
1.880000e-06	5.515134e-06	3.509242e-09	3.891557e+01	2.311299e+02
1.890000e-06	5.567324e-06	3.532836e-09	3.928384e+01	2.328729e+02
1.900000e-06	5.618339e-06	3.556145e-09	3.964380e+01	2.345507e+02
1.910000e-06	5.668080e-06	3.577985e-09	3.999479e+01	2.361649e+02
1.920000e-06	5.716545e-06	3.597096e-09	4.033676e+01	2.377173e+02
1.930000e-06	5.763966e-06	3.617555e-09	4.067137e+01	2.392102e+02
1.940000e-06	5.810438e-06	3.640367e-09	4.099928e+01	2.406462e+02
1.950000e-06	5.855965e-06	3.662580e-09	4.132053e+01	2.420279e+02
1.960000e-06	5.900526e-06	3.681353e-09	4.163495e+01	2.433582e+02
1.970000e-06	5.944159e-06	3.699807e-09	4.194283e+01	2.446399e+02
1.980000e-06	5.986739e-06	3.719617e-09	4.224329e+01	2.458759e+02
1.990000e-06	6.027990e-06	3.738614e-09	4.253436e+01	2.470686e+02
2.000000e-06	6.068011e-06	3.756927e-09	4.281675e+01	2.482202e+02
2.010000e-06	6.107048e-06	3.773771e-09	4.309220e+01	2.493324e+02
2.020000e-06	6.145133e-06	3.789505e-09	4.336094e+01	2.504065e+02
2.030000e-06	6.182239e-06	3.805454e-09	4.362276e+01	2.514433e+02
2.040000e-06	6.218451e-06	3.822466e-09	4.387828e+01	2.524430e+02
2.050000e-06	6.253722e-06	3.837409e-09	4.412715e+01	2.534053e+02
2.060000e-06	6.287734e-06	3.848730e-09	4.436715e+01	2.543297e+02
2.070000e-06	6.320431e-06	3.860960e-09	4.459786e+01	2.552153e+02
2.080000e-06	6.351973e-06	3.875914e-09	4.482043e+01	2.560611e+02
2.090000e-06	6.382448e-06	3.889792e-09	4.503547e+01	2.568661e+02
2.100000e-06	6.411868e-06	3.899829e-09	4.524306e+01	2.576295e+02
2.110000e-06	6.440303e-06	3.910096e-09	4.544370e+01	2.583508e+02
2.120000e-06	6.467816e-06	3.923463e-09	4.563784e+01	2.590298e+02
2.130000e-06	6.494076e-06	3.937169e-09	4.582313e+01	2.596670e+02
2.140000e-06	6.518831e-06	3.948989e-09	4.599780e+01	2.602632e+02
2.150000e-06	6.542341e-06	3.957016e-09	4.616369e+01	2.608201e+02
2.160000e-06	6.564788e-06	3.963363e-09	4.632208e+01	2.613395e+02
2.170000e-06	6.586154e-06	3.970723e-09	4.647284e+01	2.618239e+02
2.180000e-06	6.606490e-06	3.977327e-09	4.661634e+01	2.622758e+02
2.190000e-06	6.625855e-06	3.982638e-09	4.675298e+01	2.626982e+02
2.200000e-06	6.644082e-06	3.988350e-09	4.688159e+01	2.630938e+02
2.210000e-06	6.660988e-06	3.994213e-09	4.700089e+01	2.634650e+02
2.220000e-06	6.676648e-06	3.999619e-09	4.711138e+01	2.638140e+02
2.230000e-06	6.691074e-06	4.006654e-09	4.721318e+01	2.641422e+02
2.240000e-06	6.704263e-06	4.014993e-09	4.730624e+01	2.644506e+02
2.250000e-06	6.716226e-06	4.021283e-09	4.739065e+01	2.647393e+02
2.260000e-06	6.726772e-06	4.025350e-09	4.746506e+01	2.650076e+02
2.270000e-06	6.735846e-06	4.029915e-09	4.752909e+01	2.652542e+02
2.280000e-06	6.743726e-06	4.034125e-09	4.758469e+01	2.654771e+02
2.290000e-06	6.750474e-06	4.035977e-09	4.763231e+01	2.656742e+02
2.300000e-06	6.756063e-06	4.037430e-09	4.767174e+01	2.658426e+02
2.310000e-06	6.760616e-06	4.039346e-09	4.770387e+01	2.659799e+02
2.320000e-06	6.764148e-06	4.041243e-09	4.772879e+01	2.660837e+02
2.330000e-06	6.766433e-06	4.043786e-09	4.774492e+01	2.661522e+02
2.340000e-06	6.767260e-06	4.044848e-09	4.775075e+01	2.661841e+02
2.350000e-06	6.766904e-06	4.043937e-09	4.774824e+01	2.661792e+02
2.360000e-06	6.765543e-06	4.042170e-09	4.773863e+01	2.661384e+02
2.370000e-06	6.763032e-06	4.041079e-09	4.772092e+01	2.660634e+02
2.380000e-06	6.759486e-06	4.039821e-09	4.769590e+01	2.659573e+02
2.390000e-06	6.755090e-06	4.037795e-09	4.766488e+01	2.658241e+02
2.400000e-06	6.749546e-06	4.035265e-09	4.762576e+01	2.656686e+02
2.410000e-06	6.742538e-06	4.031781e-09	4.757631e+01	2.654965e+02
2.420000e-06	6.734434e-06	4.032363e-09	4.751913e+01	2.653135e+02
2.430000e-06	6.725401e-06	4.030354e-09	4.745539e+01	2.651257e+02
2.440000e-06	6.715174e-06	3.997940e-09	4.738323e+01	2.649386e+02
2.450000e-06	6.703285e-06	3.976887e-09	4.729934e+01	2.647575e+02
2.460000e-06	6.689280e-06	3.986183e-09	4.720051e+01	2.645864e+02
2.470000e-06	6.673690e-06	4.017210e-09	4.709051e+01	2.644281e+02
2.480000e-06	6.657548e-06	4.066103e-09	4.697661e+01	2.642843e+02
2.490000e-06	6.640934e-06	4.020353e-09	4.685938e+01	2.641548e+02
2.500000e-06	6.622948e-06	3.987419e-09	4.673247e+01	2.640379e+02
2.510000e-06	6.603529e-06	4.040478e-09	4.659544e+01	2.639303e+02
2.520000e-06	6.583478e-06	4.012848e-09	4.645396e+01	2.638272e+02
2.530000e-06	6.562321e-06	4.013772e-09	4.630467e+01	2.637225e+02
2.540000e-06	6.539388e-06	4.026492e-09	4.614286e+01	2.636092e+02
2.550000e-06	6.515272e-06	3.958319e-09	4.597269e+01	2.634795e+02
2.560000e-06	6.490309e-06	4.007590e-09	4.579655e+01	2.633252e+02
2.570000e-06	6.464339e-06	4.064856e-09	4.561330e+01	2.631384e+02
2.580000e-06	6.437244e-06	3.972121e-09	4.542212e+01	2.629114e+02
2.590000e-06	6.408919e-06	3.945608e-09	4.522225e+01	2.626374e+02
2.600000e-06	6.379651e-06	4.005193e-09	4.501573e+01	2.623105e+02
2.610000e-06	6.349246e-06	4.085141e-09	4.480119e+01	2.619262e+02
2.620000e-06	6.317364e-06	4.115653e-09	4.457622e+01	2.614814e+02
2.630000e-06	6.284341e-06	3.945666e-09	4.434321e+01	2.609745e+02
2.640000e-06	6.250221e-06	3.843528e-09	4.410246e+01	2.604054e+02
2.650000e-06	6.215007e-06	3.984938e-09	4.385397e+01	2.597754e+02
2.660000e-06	6.178996e-06	4.127494e-09	4.359988e+01	2.590870e+02
2.670000e-06	6.141922e-06	4.041355e-09	4.333828e+01	2.583438e+02
2.680000e-06	6.103327e-06	3.783485e-09	4.306595e+01	2.575499e+02
2.690000e-06	6.063462e-06	3.783747e-09	4.278466e+01	2.567103e+02
2.700000e-06	6.022652e-06	4.023270e-09	4.249669e+01	2.558296e+02
2.710000e-06	5.980949e-06	4.059800e-09	4.220243e+01	2.549128e+02
2.720000e-06	5.938199e-06	3.852074e-09	4.190078e+01	2.539642e+02
2.730000e-06	5.894458e-06	3.677795e-09	4.159214e+01	2.529876e+02
2.740000e-06	5.849870e-06	3.824784e-09	4.127752e+01	2.519861e+02
2.750000e-06	5.804234e-06	4.021819e-09	4.095551e+01	2.509619e+02
2.760000e-06	5.757586e-06	3.896736e-09	4.062635e+01	2.499163e+02
2.770000e-06	5.709816e-06	3.683297e-09	4.028927e+01	2.488499e+02
2.780000e-06	5.660851e-06	3.666679e-09	3.994377e+01	2.477623e+02
2.790000e-06	5.610942e-06	3.840293e-09	3.959161e+01	2.466526e+02
2.800000e-06	5.560091e-06	3.888051e-09	3.923279e+01	2.455194e+02
2.810000e-06	5.508238e-06	3.716284e-09	3.886691e+01	2.443609e+02
2.820000e-06	5.455231e-06	3.603666e-09	3.849289e+01	2.431752e+02
2.830000e-06	5.400789e-06	3.656680e-09	3.810874e+01	2.419605e+02
2.840000e-06	5.345121e-06	3.766575e-09	3.771594e+01	2.407149e+02
2.850000e-06	5.288650e-06	3.734769e-09	3.731747e+01	2.394371e+02
2.860000e-06	5.231369e-06	3.602969e-09	3.691329e+01	2.381260e+02
2.870000e-06	5.173154e-06	3.547435e-09	3.650251e+01	2.367810e+02
2.880000e-06	5.114058e-06	3.591248e-09	3.608552e+01	2.354018e+02
2.890000e-06	5.054209e-06	3.643682e-09	3.566322e+01	2.339885e+02
2.900000e-06	4.993579e-06	3.590860e-09	3.523541e+01	2.325416e+02
2.910000e-06	4.931869e-06	3.499459e-09	3.479997e+01	2.310619e+02
2.920000e-06	4.868973e-06	3.465680e-09	3.435617e+01	2.295501e+02
2.930000e-06	4.805159e-06	3.495727e-09	3.390589e+01	2.280070e+02
2.940000e-06	4.740609e-06	3.518370e-09	3.345041e+01	2.264334e+02
