# Temperatura_=_20.0
# Concentracion g/m^3_=_12600.0
# C_Vs_to_Am_M_A/Vsm_=_65563218390.804596
# pendiente_HvsI_1/m_=_3716.3
# ordenada_HvsI_A/m_=_1297.0
# frecuencia_Hz_=_213156.33626678295

Tiempo_(s)	Campo_(V.s)	Magnetizacion_(V.s)	Campo_(kA/m)	Magnetizacion_(A/m)
0.000000e+00	-6.784882e-06	-4.142550e-09	-5.683741e+01	-2.660493e+02
1.000000e-08	-6.784394e-06	-4.142945e-09	-5.683332e+01	-2.660338e+02
2.000000e-08	-6.782523e-06	-4.144409e-09	-5.681765e+01	-2.659897e+02
3.000000e-08	-6.779356e-06	-4.145711e-09	-5.679112e+01	-2.659197e+02
4.000000e-08	-6.775194e-06	-4.145473e-09	-5.675625e+01	-2.658275e+02
5.000000e-08	-6.770001e-06	-4.145430e-09	-5.671275e+01	-2.657175e+02
6.000000e-08	-6.763687e-06	-4.145238e-09	-5.665986e+01	-2.655950e+02
7.000000e-08	-6.756389e-06	-4.143891e-09	-5.659872e+01	-2.654658e+02
8.000000e-08	-6.748103e-06	-4.143974e-09	-5.652931e+01	-2.653363e+02
9.000000e-08	-6.738328e-06	-4.138867e-09	-5.644742e+01	-2.652125e+02
1.000000e-07	-6.726722e-06	-4.144270e-09	-5.635020e+01	-2.651007e+02
1.100000e-07	-6.713513e-06	-4.158492e-09	-5.623955e+01	-2.650060e+02
1.200000e-07	-6.698856e-06	-4.149493e-09	-5.611676e+01	-2.649330e+02
1.300000e-07	-6.682735e-06	-4.156613e-09	-5.598172e+01	-2.648849e+02
1.400000e-07	-6.665487e-06	-4.100958e-09	-5.583723e+01	-2.648632e+02
1.500000e-07	-6.647295e-06	-4.071874e-09	-5.568484e+01	-2.648679e+02
1.600000e-07	-6.628153e-06	-4.176588e-09	-5.552448e+01	-2.648970e+02
1.700000e-07	-6.608273e-06	-4.113648e-09	-5.535794e+01	-2.649467e+02
1.800000e-07	-6.587333e-06	-4.080844e-09	-5.518253e+01	-2.650112e+02
1.900000e-07	-6.565079e-06	-4.131460e-09	-5.499610e+01	-2.650832e+02
2.000000e-07	-6.541877e-06	-4.027253e-09	-5.480174e+01	-2.651539e+02
2.100000e-07	-6.517706e-06	-4.040308e-09	-5.459926e+01	-2.652134e+02
2.200000e-07	-6.492109e-06	-4.131874e-09	-5.438483e+01	-2.652510e+02
2.300000e-07	-6.465044e-06	-3.995623e-09	-5.415810e+01	-2.652559e+02
2.400000e-07	-6.436885e-06	-3.911773e-09	-5.392222e+01	-2.652174e+02
2.500000e-07	-6.407790e-06	-3.995042e-09	-5.367849e+01	-2.651256e+02
2.600000e-07	-6.377608e-06	-3.970033e-09	-5.342565e+01	-2.649715e+02
2.700000e-07	-6.346328e-06	-3.960014e-09	-5.316361e+01	-2.647476e+02
2.800000e-07	-6.314074e-06	-3.932486e-09	-5.289342e+01	-2.644483e+02
2.900000e-07	-6.280697e-06	-3.886363e-09	-5.261382e+01	-2.640698e+02
3.000000e-07	-6.246014e-06	-3.917671e-09	-5.232328e+01	-2.636105e+02
3.100000e-07	-6.210110e-06	-3.900652e-09	-5.202251e+01	-2.630708e+02
3.200000e-07	-6.173061e-06	-3.888576e-09	-5.171214e+01	-2.624532e+02
3.300000e-07	-6.134878e-06	-3.907570e-09	-5.139228e+01	-2.617619e+02
3.400000e-07	-6.095708e-06	-3.880337e-09	-5.106415e+01	-2.610025e+02
3.500000e-07	-6.055660e-06	-3.851693e-09	-5.072867e+01	-2.601820e+02
3.600000e-07	-6.014430e-06	-3.862960e-09	-5.038328e+01	-2.593079e+02
3.700000e-07	-5.971852e-06	-3.891251e-09	-5.002661e+01	-2.583881e+02
3.800000e-07	-5.928137e-06	-3.844310e-09	-4.966040e+01	-2.574305e+02
3.900000e-07	-5.883426e-06	-3.782268e-09	-4.928585e+01	-2.564424e+02
4.000000e-07	-5.837721e-06	-3.792927e-09	-4.890298e+01	-2.554304e+02
4.100000e-07	-5.790965e-06	-3.804390e-09	-4.851130e+01	-2.543997e+02
4.200000e-07	-5.743180e-06	-3.804270e-09	-4.811101e+01	-2.533545e+02
4.300000e-07	-5.694230e-06	-3.756726e-09	-4.770095e+01	-2.522975e+02
4.400000e-07	-5.643884e-06	-3.711699e-09	-4.727920e+01	-2.512297e+02
4.500000e-07	-5.592171e-06	-3.726400e-09	-4.684599e+01	-2.501510e+02
4.600000e-07	-5.539360e-06	-3.738303e-09	-4.640359e+01	-2.490599e+02
4.700000e-07	-5.485662e-06	-3.721716e-09	-4.595376e+01	-2.479538e+02
4.800000e-07	-5.431103e-06	-3.664366e-09	-4.549672e+01	-2.468293e+02
4.900000e-07	-5.375643e-06	-3.626763e-09	-4.503212e+01	-2.456827e+02
5.000000e-07	-5.319255e-06	-3.642250e-09	-4.455976e+01	-2.445097e+02
5.100000e-07	-5.261752e-06	-3.656400e-09	-4.407805e+01	-2.433063e+02
5.200000e-07	-5.203036e-06	-3.631941e-09	-4.358618e+01	-2.420688e+02
5.300000e-07	-5.143369e-06	-3.571981e-09	-4.308634e+01	-2.407939e+02
5.400000e-07	-5.082905e-06	-3.549436e-09	-4.257984e+01	-2.394792e+02
5.500000e-07	-5.021628e-06	-3.564813e-09	-4.206652e+01	-2.381228e+02
5.600000e-07	-4.959532e-06	-3.558633e-09	-4.154633e+01	-2.367240e+02
5.700000e-07	-4.896585e-06	-3.521090e-09	-4.101902e+01	-2.352828e+02
5.800000e-07	-4.832828e-06	-3.468215e-09	-4.048493e+01	-2.338000e+02
5.900000e-07	-4.768251e-06	-3.447127e-09	-3.994395e+01	-2.322768e+02
6.000000e-07	-4.702515e-06	-3.452603e-09	-3.939328e+01	-2.307153e+02
6.100000e-07	-4.635707e-06	-3.445255e-09	-3.883363e+01	-2.291175e+02
6.200000e-07	-4.568212e-06	-3.404993e-09	-3.826822e+01	-2.274859e+02
6.300000e-07	-4.500046e-06	-3.349898e-09	-3.769719e+01	-2.258226e+02
6.400000e-07	-4.431151e-06	-3.335161e-09	-3.712005e+01	-2.241298e+02
6.500000e-07	-4.361510e-06	-3.345041e-09	-3.653666e+01	-2.224089e+02
6.600000e-07	-4.291141e-06	-3.326985e-09	-3.594718e+01	-2.206611e+02
6.700000e-07	-4.220093e-06	-3.271190e-09	-3.535200e+01	-2.188871e+02
6.800000e-07	-4.148383e-06	-3.218575e-09	-3.475128e+01	-2.170869e+02
6.900000e-07	-4.075824e-06	-3.213272e-09	-3.414345e+01	-2.152598e+02
7.000000e-07	-4.002327e-06	-3.215179e-09	-3.352776e+01	-2.134048e+02
7.100000e-07	-3.927881e-06	-3.175983e-09	-3.290412e+01	-2.115205e+02
7.200000e-07	-3.852537e-06	-3.113039e-09	-3.227296e+01	-2.096049e+02
7.300000e-07	-3.776501e-06	-3.075657e-09	-3.163600e+01	-2.076560e+02
7.400000e-07	-3.699879e-06	-3.077028e-09	-3.099413e+01	-2.056716e+02
7.500000e-07	-3.622571e-06	-3.060510e-09	-3.034652e+01	-2.036495e+02
7.600000e-07	-3.544485e-06	-3.007142e-09	-2.969239e+01	-2.015876e+02
7.700000e-07	-3.465636e-06	-2.959139e-09	-2.903187e+01	-1.994841e+02
7.800000e-07	-3.386153e-06	-2.938430e-09	-2.836603e+01	-1.973371e+02
7.900000e-07	-3.306042e-06	-2.926358e-09	-2.769494e+01	-1.951454e+02
8.000000e-07	-3.225182e-06	-2.889401e-09	-2.701756e+01	-1.929077e+02
8.100000e-07	-3.143683e-06	-2.836438e-09	-2.633485e+01	-1.906232e+02
8.200000e-07	-3.061636e-06	-2.795467e-09	-2.564753e+01	-1.882911e+02
8.300000e-07	-2.979173e-06	-2.766312e-09	-2.495673e+01	-1.859110e+02
8.400000e-07	-2.896372e-06	-2.736572e-09	-2.426310e+01	-1.834826e+02
8.500000e-07	-2.813150e-06	-2.694403e-09	-2.356594e+01	-1.810055e+02
8.600000e-07	-2.729482e-06	-2.650682e-09	-2.286505e+01	-1.784795e+02
8.700000e-07	-2.645414e-06	-2.613382e-09	-2.216081e+01	-1.759043e+02
8.800000e-07	-2.561004e-06	-2.576993e-09	-2.145370e+01	-1.732796e+02
8.900000e-07	-2.476235e-06	-2.539741e-09	-2.074359e+01	-1.706050e+02
9.000000e-07	-2.390992e-06	-2.498135e-09	-2.002950e+01	-1.678800e+02
9.100000e-07	-2.305262e-06	-2.454365e-09	-1.931133e+01	-1.651040e+02
9.200000e-07	-2.219159e-06	-2.407598e-09	-1.859004e+01	-1.622765e+02
9.300000e-07	-2.132730e-06	-2.364696e-09	-1.786602e+01	-1.593967e+02
9.400000e-07	-2.045984e-06	-2.327379e-09	-1.713935e+01	-1.564641e+02
9.500000e-07	-1.958937e-06	-2.280617e-09	-1.641014e+01	-1.534778e+02
9.600000e-07	-1.871623e-06	-2.225597e-09	-1.567871e+01	-1.504373e+02
9.700000e-07	-1.784011e-06	-2.173808e-09	-1.494478e+01	-1.473419e+02
9.800000e-07	-1.696060e-06	-2.134778e-09	-1.420800e+01	-1.441912e+02
9.900000e-07	-1.607819e-06	-2.099874e-09	-1.346881e+01	-1.409846e+02
1.000000e-06	-1.519117e-06	-2.047926e-09	-1.272574e+01	-1.377217e+02
1.010000e-06	-1.429987e-06	-1.987003e-09	-1.197910e+01	-1.344020e+02
1.020000e-06	-1.340664e-06	-1.934682e-09	-1.123083e+01	-1.310254e+02
1.030000e-06	-1.251069e-06	-1.893909e-09	-1.048028e+01	-1.275912e+02
1.040000e-06	-1.161177e-06	-1.847592e-09	-9.727256e+00	-1.240992e+02
1.050000e-06	-1.071015e-06	-1.785236e-09	-8.971967e+00	-1.205489e+02
1.060000e-06	-9.806361e-07	-1.724724e-09	-8.214854e+00	-1.169398e+02
1.070000e-06	-8.901458e-07	-1.675838e-09	-7.456811e+00	-1.132714e+02
1.080000e-06	-7.995446e-07	-1.631009e-09	-6.697839e+00	-1.095430e+02
1.090000e-06	-7.088176e-07	-1.574047e-09	-5.937812e+00	-1.057540e+02
1.100000e-06	-6.179855e-07	-1.504715e-09	-5.176906e+00	-1.019036e+02
1.110000e-06	-5.270705e-07	-1.442237e-09	-4.415305e+00	-9.799114e+01
1.120000e-06	-4.360870e-07	-1.389481e-09	-3.653130e+00	-9.401588e+01
1.130000e-06	-3.450499e-07	-1.334540e-09	-2.890506e+00	-8.997708e+01
1.140000e-06	-2.540328e-07	-1.268361e-09	-2.128050e+00	-8.587407e+01
1.150000e-06	-1.629780e-07	-1.197002e-09	-1.365277e+00	-8.170618e+01
1.160000e-06	-7.176550e-08	-1.133724e-09	-6.011844e-01	-7.747281e+01
1.170000e-06	1.944913e-08	-1.076399e-09	1.629267e-01	-7.317337e+01
1.180000e-06	1.106067e-07	-1.014210e-09	9.265593e-01	-6.880730e+01
1.190000e-06	2.017355e-07	-9.412988e-10	1.689952e+00	-6.437403e+01
1.200000e-06	2.928492e-07	-8.678097e-10	2.453217e+00	-5.987293e+01
1.210000e-06	3.839561e-07	-8.029670e-10	3.216426e+00	-5.530334e+01
1.220000e-06	4.749618e-07	-7.394406e-10	3.978787e+00	-5.066447e+01
1.230000e-06	5.658861e-07	-6.674971e-10	4.740466e+00	-4.595546e+01
1.240000e-06	6.567448e-07	-5.877233e-10	5.501595e+00	-4.117535e+01
1.250000e-06	7.474685e-07	-5.124374e-10	6.261594e+00	-3.632307e+01
1.260000e-06	8.381059e-07	-4.436807e-10	7.020869e+00	-3.139757e+01
1.270000e-06	9.286605e-07	-3.710282e-10	7.779451e+00	-2.639781e+01
1.280000e-06	1.019059e-06	-2.900170e-10	8.536724e+00	-2.132290e+01
1.290000e-06	1.109287e-06	-2.055440e-10	9.292575e+00	-1.617222e+01
1.300000e-06	1.199279e-06	-1.248219e-10	1.004644e+01	-1.094556e+01
1.310000e-06	1.289043e-06	-4.945546e-11	1.079840e+01	-5.643287e+00
1.320000e-06	1.378561e-06	2.892840e-11	1.154829e+01	-2.665013e-01
1.330000e-06	1.467720e-06	1.135615e-10	1.229518e+01	5.182791e+00
1.340000e-06	1.556526e-06	2.006146e-10	1.303912e+01	1.070153e+01
1.350000e-06	1.644947e-06	2.835369e-10	1.377983e+01	1.628546e+01
1.360000e-06	1.732898e-06	3.653937e-10	1.451660e+01	2.192908e+01
1.370000e-06	1.820480e-06	4.513670e-10	1.525028e+01	2.762552e+01
1.380000e-06	1.907790e-06	5.418235e-10	1.598168e+01	3.336660e+01
1.390000e-06	1.994851e-06	6.338267e-10	1.671100e+01	3.914287e+01
1.400000e-06	2.081646e-06	7.218557e-10	1.743809e+01	4.494369e+01
1.410000e-06	2.168122e-06	8.065609e-10	1.816251e+01	5.075743e+01
1.420000e-06	2.254264e-06	8.908889e-10	1.888412e+01	5.657165e+01
1.430000e-06	2.339969e-06	9.780185e-10	1.960208e+01	6.237338e+01
1.440000e-06	2.425235e-06	1.067640e-09	2.031636e+01	6.814940e+01
1.450000e-06	2.510182e-06	1.153787e-09	2.102796e+01	7.388650e+01
1.460000e-06	2.594812e-06	1.232595e-09	2.173691e+01	7.957188e+01
1.470000e-06	2.679064e-06	1.313796e-09	2.244270e+01	8.519332e+01
1.480000e-06	2.762831e-06	1.402103e-09	2.314442e+01	9.073958e+01
1.490000e-06	2.846117e-06	1.490543e-09	2.384211e+01	9.620053e+01
1.500000e-06	2.929001e-06	1.570479e-09	2.453644e+01	1.015674e+02
1.510000e-06	3.011414e-06	1.644164e-09	2.522682e+01	1.068328e+02
1.520000e-06	3.093352e-06	1.720516e-09	2.591322e+01	1.119910e+02
1.530000e-06	3.174698e-06	1.800840e-09	2.659466e+01	1.170377e+02
1.540000e-06	3.255364e-06	1.876704e-09	2.727040e+01	1.219699e+02
1.550000e-06	3.335473e-06	1.943380e-09	2.794148e+01	1.267864e+02
1.560000e-06	3.414934e-06	2.010273e-09	2.860713e+01	1.314866e+02
1.570000e-06	3.493813e-06	2.082368e-09	2.926791e+01	1.360713e+02
1.580000e-06	3.572120e-06	2.154335e-09	2.992389e+01	1.405420e+02
1.590000e-06	3.649664e-06	2.221986e-09	3.057348e+01	1.449006e+02
1.600000e-06	3.726597e-06	2.284569e-09	3.121795e+01	1.491494e+02
1.610000e-06	3.802922e-06	2.348121e-09	3.185733e+01	1.532909e+02
1.620000e-06	3.878491e-06	2.410509e-09	3.249038e+01	1.573275e+02
1.630000e-06	3.953282e-06	2.468891e-09	3.311690e+01	1.612614e+02
1.640000e-06	4.027233e-06	2.523114e-09	3.373640e+01	1.650946e+02
1.650000e-06	4.100232e-06	2.573845e-09	3.434792e+01	1.688288e+02
1.660000e-06	4.172279e-06	2.626520e-09	3.495146e+01	1.724654e+02
1.670000e-06	4.243536e-06	2.680295e-09	3.554839e+01	1.760056e+02
1.680000e-06	4.314174e-06	2.732230e-09	3.614013e+01	1.794502e+02
1.690000e-06	4.384135e-06	2.782499e-09	3.672619e+01	1.828001e+02
1.700000e-06	4.453317e-06	2.830755e-09	3.730573e+01	1.860563e+02
1.710000e-06	4.521749e-06	2.877231e-09	3.787899e+01	1.892195e+02
1.720000e-06	4.589444e-06	2.921522e-09	3.844608e+01	1.922910e+02
1.730000e-06	4.656432e-06	2.964051e-09	3.900724e+01	1.952722e+02
1.740000e-06	4.722592e-06	3.002085e-09	3.956147e+01	1.981647e+02
1.750000e-06	4.787744e-06	3.036995e-09	4.010725e+01	2.009706e+02
1.760000e-06	4.851922e-06	3.073909e-09	4.064488e+01	2.036923e+02
1.770000e-06	4.915276e-06	3.112625e-09	4.117560e+01	2.063324e+02
1.780000e-06	4.977806e-06	3.151322e-09	4.169941e+01	2.088937e+02
1.790000e-06	5.039558e-06	3.186431e-09	4.221671e+01	2.113790e+02
1.800000e-06	5.100532e-06	3.219453e-09	4.272749e+01	2.137913e+02
1.810000e-06	5.160708e-06	3.252699e-09	4.323160e+01	2.161333e+02
1.820000e-06	5.220084e-06	3.285564e-09	4.372899e+01	2.184075e+02
1.830000e-06	5.278529e-06	3.315008e-09	4.421859e+01	2.206162e+02
1.840000e-06	5.335873e-06	3.342836e-09	4.469897e+01	2.227611e+02
1.850000e-06	5.392038e-06	3.371529e-09	4.516946e+01	2.248436e+02
1.860000e-06	5.447224e-06	3.400297e-09	4.563176e+01	2.268646e+02
1.870000e-06	5.501595e-06	3.428170e-09	4.608722e+01	2.288247e+02
1.880000e-06	5.555029e-06	3.455284e-09	4.653485e+01	2.307240e+02
1.890000e-06	5.607413e-06	3.481058e-09	4.697367e+01	2.325624e+02
1.900000e-06	5.658671e-06	3.505972e-09	4.740306e+01	2.343395e+02
1.910000e-06	5.708661e-06	3.531106e-09	4.782184e+01	2.360549e+02
1.920000e-06	5.757312e-06	3.555771e-09	4.822938e+01	2.377083e+02
1.930000e-06	5.804790e-06	3.577853e-09	4.862711e+01	2.392995e+02
1.940000e-06	5.851358e-06	3.596755e-09	4.901721e+01	2.408286e+02
1.950000e-06	5.896982e-06	3.615571e-09	4.939941e+01	2.422960e+02
1.960000e-06	5.941635e-06	3.636412e-09	4.977347e+01	2.437024e+02
1.970000e-06	5.985388e-06	3.657895e-09	5.013999e+01	2.450491e+02
1.980000e-06	6.028106e-06	3.678040e-09	5.049785e+01	2.463377e+02
1.990000e-06	6.069615e-06	3.697049e-09	5.084557e+01	2.475701e+02
2.000000e-06	6.109876e-06	3.715729e-09	5.118284e+01	2.487487e+02
2.010000e-06	6.149050e-06	3.734098e-09	5.151100e+01	2.498758e+02
2.020000e-06	6.187239e-06	3.751052e-09	5.183091e+01	2.509539e+02
2.030000e-06	6.224388e-06	3.765264e-09	5.214211e+01	2.519857e+02
2.040000e-06	6.260618e-06	3.778333e-09	5.244561e+01	2.529735e+02
2.050000e-06	6.295857e-06	3.792064e-09	5.274082e+01	2.539195e+02
2.060000e-06	6.329871e-06	3.806837e-09	5.302575e+01	2.548258e+02
2.070000e-06	6.362610e-06	3.820658e-09	5.330001e+01	2.556939e+02
2.080000e-06	6.394171e-06	3.831347e-09	5.356439e+01	2.565251e+02
2.090000e-06	6.424686e-06	3.842903e-09	5.382002e+01	2.573205e+02
2.100000e-06	6.454147e-06	3.856512e-09	5.406682e+01	2.580807e+02
2.110000e-06	6.482632e-06	3.869407e-09	5.430544e+01	2.588063e+02
2.120000e-06	6.510145e-06	3.879112e-09	5.453592e+01	2.594974e+02
2.130000e-06	6.536423e-06	3.886756e-09	5.475605e+01	2.601544e+02
2.140000e-06	6.561269e-06	3.893029e-09	5.496419e+01	2.607774e+02
2.150000e-06	6.584790e-06	3.901774e-09	5.516122e+01	2.613668e+02
2.160000e-06	6.607174e-06	3.913093e-09	5.534874e+01	2.619230e+02
2.170000e-06	6.628491e-06	3.922638e-09	5.552732e+01	2.624465e+02
2.180000e-06	6.648834e-06	3.931981e-09	5.569773e+01	2.629381e+02
2.190000e-06	6.668231e-06	3.943414e-09	5.586021e+01	2.633986e+02
2.200000e-06	6.686503e-06	3.954443e-09	5.601329e+01	2.638291e+02
2.210000e-06	6.703412e-06	3.961955e-09	5.615493e+01	2.642305e+02
2.220000e-06	6.719020e-06	3.966834e-09	5.628568e+01	2.646038e+02
2.230000e-06	6.733465e-06	3.971301e-09	5.640669e+01	2.649499e+02
2.240000e-06	6.746696e-06	3.975949e-09	5.651752e+01	2.652694e+02
2.250000e-06	6.758721e-06	3.979934e-09	5.661826e+01	2.655628e+02
2.260000e-06	6.769386e-06	3.982100e-09	5.670760e+01	2.658300e+02
2.270000e-06	6.778477e-06	3.983416e-09	5.678376e+01	2.660708e+02
2.280000e-06	6.786211e-06	3.986238e-09	5.684855e+01	2.662846e+02
2.290000e-06	6.792873e-06	3.991069e-09	5.690435e+01	2.664706e+02
2.300000e-06	6.798478e-06	3.996611e-09	5.695131e+01	2.666277e+02
2.310000e-06	6.803002e-06	3.999307e-09	5.698920e+01	2.667550e+02
2.320000e-06	6.806435e-06	3.998623e-09	5.701796e+01	2.668516e+02
2.330000e-06	6.808551e-06	3.996953e-09	5.703568e+01	2.669167e+02
2.340000e-06	6.809245e-06	3.996719e-09	5.704150e+01	2.669503e+02
2.350000e-06	6.808779e-06	3.998760e-09	5.703760e+01	2.669529e+02
2.360000e-06	6.807261e-06	3.998764e-09	5.702488e+01	2.669258e+02
2.370000e-06	6.804634e-06	3.994917e-09	5.700287e+01	2.668710e+02
2.380000e-06	6.801019e-06	3.992101e-09	5.697259e+01	2.667916e+02
2.390000e-06	6.796450e-06	3.990916e-09	5.693432e+01	2.666917e+02
2.400000e-06	6.790658e-06	3.989693e-09	5.688580e+01	2.665760e+02
2.410000e-06	6.783544e-06	3.984492e-09	5.682620e+01	2.664501e+02
2.420000e-06	6.775313e-06	3.974933e-09	5.675725e+01	2.663200e+02
2.430000e-06	6.766099e-06	3.972474e-09	5.668006e+01	2.661921e+02
2.440000e-06	6.755669e-06	3.968954e-09	5.659269e+01	2.660724e+02
2.450000e-06	6.743491e-06	3.947756e-09	5.649067e+01	2.659668e+02
2.460000e-06	6.729254e-06	3.960900e-09	5.637141e+01	2.658804e+02
2.470000e-06	6.713520e-06	3.946449e-09	5.623961e+01	2.658170e+02
2.480000e-06	6.697251e-06	4.038758e-09	5.610332e+01	2.657794e+02
2.490000e-06	6.680402e-06	4.079313e-09	5.596218e+01	2.657684e+02
2.500000e-06	6.662119e-06	3.924317e-09	5.580902e+01	2.657832e+02
2.510000e-06	6.642554e-06	4.013669e-09	5.564511e+01	2.658211e+02
2.520000e-06	6.622345e-06	4.024757e-09	5.547583e+01	2.658775e+02
2.530000e-06	6.600909e-06	3.925842e-09	5.529625e+01	2.659460e+02
2.540000e-06	6.577776e-06	4.033737e-09	5.510247e+01	2.660186e+02
2.550000e-06	6.553482e-06	3.999743e-09	5.489895e+01	2.660861e+02
2.560000e-06	6.528247e-06	3.930278e-09	5.468756e+01	2.661381e+02
2.570000e-06	6.502013e-06	4.115607e-09	5.446779e+01	2.661639e+02
2.580000e-06	6.474687e-06	4.179796e-09	5.423889e+01	2.661528e+02
2.590000e-06	6.446221e-06	4.082700e-09	5.400043e+01	2.660941e+02
2.600000e-06	6.416780e-06	4.126192e-09	5.375380e+01	2.659784e+02
2.610000e-06	6.386004e-06	4.114082e-09	5.349598e+01	2.657972e+02
2.620000e-06	6.353677e-06	4.123459e-09	5.322518e+01	2.655437e+02
2.630000e-06	6.320223e-06	4.150071e-09	5.294493e+01	2.652130e+02
2.640000e-06	6.285755e-06	4.102289e-09	5.265619e+01	2.648023e+02
2.650000e-06	6.250250e-06	4.176206e-09	5.235876e+01	2.643107e+02
2.660000e-06	6.213866e-06	4.129966e-09	5.205397e+01	2.637395e+02
2.670000e-06	6.176323e-06	4.052837e-09	5.173947e+01	2.630918e+02
2.680000e-06	6.137335e-06	4.108919e-09	5.141286e+01	2.623725e+02
2.690000e-06	6.097152e-06	4.091488e-09	5.107625e+01	2.615878e+02
2.700000e-06	6.056010e-06	4.078515e-09	5.073160e+01	2.607449e+02
2.710000e-06	6.013946e-06	4.010094e-09	5.037923e+01	2.598516e+02
2.720000e-06	5.970897e-06	4.002075e-09	5.001860e+01	2.589158e+02
2.730000e-06	5.926876e-06	4.074176e-09	4.964984e+01	2.579452e+02
2.740000e-06	5.881915e-06	4.003103e-09	4.927319e+01	2.569468e+02
2.750000e-06	5.835923e-06	3.969128e-09	4.888792e+01	2.559267e+02
2.760000e-06	5.788800e-06	3.952111e-09	4.849316e+01	2.548898e+02
2.770000e-06	5.740529e-06	3.952341e-09	4.808879e+01	2.538397e+02
2.780000e-06	5.691182e-06	3.974032e-09	4.767541e+01	2.527783e+02
2.790000e-06	5.640837e-06	3.906713e-09	4.725366e+01	2.517062e+02
2.800000e-06	5.589499e-06	3.893910e-09	4.682361e+01	2.506228e+02
2.810000e-06	5.537082e-06	3.874917e-09	4.638451e+01	2.495260e+02
2.820000e-06	5.483388e-06	3.871785e-09	4.593470e+01	2.484131e+02
2.830000e-06	5.428379e-06	3.883539e-09	4.547389e+01	2.472802e+02
2.840000e-06	5.372342e-06	3.831719e-09	4.500447e+01	2.461236e+02
2.850000e-06	5.315469e-06	3.805690e-09	4.452804e+01	2.449389e+02
2.860000e-06	5.257728e-06	3.779611e-09	4.404433e+01	2.437223e+02
2.870000e-06	5.199050e-06	3.786506e-09	4.355279e+01	2.424702e+02
2.880000e-06	5.139536e-06	3.773919e-09	4.305424e+01	2.411796e+02
2.890000e-06	5.079282e-06	3.723641e-09	4.254949e+01	2.398484e+02
2.900000e-06	5.018125e-06	3.695947e-09	4.203717e+01	2.384751e+02
2.910000e-06	4.955841e-06	3.667890e-09	4.151541e+01	2.370594e+02
2.920000e-06	4.892432e-06	3.671559e-09	4.098423e+01	2.356014e+02
2.930000e-06	4.828142e-06	3.655481e-09	4.044567e+01	2.341022e+02
2.940000e-06	4.763078e-06	3.608872e-09	3.990062e+01	2.325634e+02
