# Temperatura_=_20.0
# Concentracion g/m^3_=_12600.0
# C_Vs_to_Am_M_A/Vsm_=_65563218390.804596
# pendiente_HvsI_1/m_=_3716.3
# ordenada_HvsI_A/m_=_1297.0
# frecuencia_Hz_=_213152.93857354255

Tiempo_(s)	Campo_(V.s)	Magnetizacion_(V.s)	Campo_(kA/m)	Magnetizacion_(A/m)
0.000000e+00	-6.725070e-06	-3.811865e-09	-5.682993e+01	-2.491657e+02
1.000000e-08	-6.724437e-06	-3.809467e-09	-5.682458e+01	-2.490963e+02
2.000000e-08	-6.722486e-06	-3.809538e-09	-5.680810e+01	-2.489917e+02
3.000000e-08	-6.719198e-06	-3.809181e-09	-5.678032e+01	-2.488556e+02
4.000000e-08	-6.714940e-06	-3.808560e-09	-5.674433e+01	-2.486925e+02
5.000000e-08	-6.709752e-06	-3.808632e-09	-5.670049e+01	-2.485075e+02
6.000000e-08	-6.703425e-06	-3.806607e-09	-5.664702e+01	-2.483066e+02
7.000000e-08	-6.695968e-06	-3.804648e-09	-5.658401e+01	-2.480956e+02
8.000000e-08	-6.687477e-06	-3.806478e-09	-5.651225e+01	-2.478806e+02
9.000000e-08	-6.677603e-06	-3.776247e-09	-5.642881e+01	-2.476668e+02
1.000000e-07	-6.665988e-06	-3.780983e-09	-5.633067e+01	-2.474592e+02
1.100000e-07	-6.652781e-06	-3.802521e-09	-5.621906e+01	-2.472613e+02
1.200000e-07	-6.638097e-06	-3.803093e-09	-5.609497e+01	-2.470756e+02
1.300000e-07	-6.621989e-06	-3.834933e-09	-5.595885e+01	-2.469031e+02
1.400000e-07	-6.604767e-06	-3.716550e-09	-5.581331e+01	-2.467435e+02
1.500000e-07	-6.586606e-06	-3.696401e-09	-5.565985e+01	-2.465945e+02
1.600000e-07	-6.567505e-06	-3.863290e-09	-5.549844e+01	-2.464529e+02
1.700000e-07	-6.547602e-06	-3.745093e-09	-5.533025e+01	-2.463137e+02
1.800000e-07	-6.526620e-06	-3.734506e-09	-5.515294e+01	-2.461712e+02
1.900000e-07	-6.504399e-06	-3.820218e-09	-5.496516e+01	-2.460186e+02
2.000000e-07	-6.481315e-06	-3.648806e-09	-5.477009e+01	-2.458488e+02
2.100000e-07	-6.457279e-06	-3.712515e-09	-5.456697e+01	-2.456546e+02
2.200000e-07	-6.431752e-06	-3.849975e-09	-5.435126e+01	-2.454288e+02
2.300000e-07	-6.404705e-06	-3.695072e-09	-5.412270e+01	-2.451649e+02
2.400000e-07	-6.376599e-06	-3.672687e-09	-5.388519e+01	-2.448574e+02
2.500000e-07	-6.347652e-06	-3.758503e-09	-5.364058e+01	-2.445017e+02
2.600000e-07	-6.317651e-06	-3.717797e-09	-5.338705e+01	-2.440946e+02
2.700000e-07	-6.286463e-06	-3.716027e-09	-5.312350e+01	-2.436341e+02
2.800000e-07	-6.254349e-06	-3.664903e-09	-5.285212e+01	-2.431200e+02
2.900000e-07	-6.221225e-06	-3.637999e-09	-5.257221e+01	-2.425531e+02
3.000000e-07	-6.186743e-06	-3.720303e-09	-5.228082e+01	-2.419358e+02
3.100000e-07	-6.150978e-06	-3.693205e-09	-5.197859e+01	-2.412712e+02
3.200000e-07	-6.114059e-06	-3.606864e-09	-5.166661e+01	-2.405635e+02
3.300000e-07	-6.076062e-06	-3.616331e-09	-5.134551e+01	-2.398173e+02
3.400000e-07	-6.037112e-06	-3.647745e-09	-5.101637e+01	-2.390376e+02
3.500000e-07	-5.997283e-06	-3.643316e-09	-5.067979e+01	-2.382290e+02
3.600000e-07	-5.956385e-06	-3.608316e-09	-5.033419e+01	-2.373962e+02
3.700000e-07	-5.914134e-06	-3.575062e-09	-4.997715e+01	-2.365430e+02
3.800000e-07	-5.870651e-06	-3.554038e-09	-4.960970e+01	-2.356727e+02
3.900000e-07	-5.826164e-06	-3.583672e-09	-4.923377e+01	-2.347875e+02
4.000000e-07	-5.780660e-06	-3.598710e-09	-4.884924e+01	-2.338887e+02
4.100000e-07	-5.734078e-06	-3.517782e-09	-4.845559e+01	-2.329765e+02
4.200000e-07	-5.686590e-06	-3.484659e-09	-4.805430e+01	-2.320504e+02
4.300000e-07	-5.638114e-06	-3.530299e-09	-4.764466e+01	-2.311090e+02
4.400000e-07	-5.588274e-06	-3.544541e-09	-4.722348e+01	-2.301499e+02
4.500000e-07	-5.537012e-06	-3.490325e-09	-4.679030e+01	-2.291707e+02
4.600000e-07	-5.484553e-06	-3.418641e-09	-4.634699e+01	-2.281685e+02
4.700000e-07	-5.431139e-06	-3.435151e-09	-4.589562e+01	-2.271401e+02
4.800000e-07	-5.376844e-06	-3.480719e-09	-4.543680e+01	-2.260828e+02
4.900000e-07	-5.321671e-06	-3.441262e-09	-4.497056e+01	-2.249939e+02
5.000000e-07	-5.265639e-06	-3.363316e-09	-4.449707e+01	-2.238715e+02
5.100000e-07	-5.208592e-06	-3.342551e-09	-4.401499e+01	-2.227139e+02
5.200000e-07	-5.150409e-06	-3.384209e-09	-4.352332e+01	-2.215202e+02
5.300000e-07	-5.091184e-06	-3.389334e-09	-4.302285e+01	-2.202901e+02
5.400000e-07	-5.031044e-06	-3.328617e-09	-4.251463e+01	-2.190241e+02
5.500000e-07	-4.970084e-06	-3.273692e-09	-4.199950e+01	-2.177230e+02
5.600000e-07	-4.908323e-06	-3.274289e-09	-4.147758e+01	-2.163883e+02
5.700000e-07	-4.845744e-06	-3.299353e-09	-4.094877e+01	-2.150214e+02
5.800000e-07	-4.782447e-06	-3.271164e-09	-4.041388e+01	-2.136245e+02
5.900000e-07	-4.718371e-06	-3.199861e-09	-3.987240e+01	-2.121993e+02
6.000000e-07	-4.653263e-06	-3.175407e-09	-3.932221e+01	-2.107478e+02
6.100000e-07	-4.587080e-06	-3.192726e-09	-3.876293e+01	-2.092715e+02
6.200000e-07	-4.520015e-06	-3.181862e-09	-3.819621e+01	-2.077716e+02
6.300000e-07	-4.452201e-06	-3.130347e-09	-3.762314e+01	-2.062491e+02
6.400000e-07	-4.383707e-06	-3.089234e-09	-3.704434e+01	-2.047044e+02
6.500000e-07	-4.314535e-06	-3.085290e-09	-3.645980e+01	-2.031374e+02
6.600000e-07	-4.244547e-06	-3.074947e-09	-3.586838e+01	-2.015475e+02
6.700000e-07	-4.173859e-06	-3.040712e-09	-3.527103e+01	-1.999339e+02
6.800000e-07	-4.102627e-06	-3.004332e-09	-3.466908e+01	-1.982951e+02
6.900000e-07	-4.030667e-06	-2.980191e-09	-3.406099e+01	-1.966295e+02
7.000000e-07	-3.957866e-06	-2.960756e-09	-3.344579e+01	-1.949353e+02
7.100000e-07	-3.884279e-06	-2.929369e-09	-3.282394e+01	-1.932105e+02
7.200000e-07	-3.809812e-06	-2.900671e-09	-3.219466e+01	-1.914529e+02
7.300000e-07	-3.734493e-06	-2.877745e-09	-3.155819e+01	-1.896607e+02
7.400000e-07	-3.658417e-06	-2.848924e-09	-3.091531e+01	-1.878319e+02
7.500000e-07	-3.581634e-06	-2.813080e-09	-3.026645e+01	-1.859646e+02
7.600000e-07	-3.504224e-06	-2.781964e-09	-2.961230e+01	-1.840574e+02
7.700000e-07	-3.426151e-06	-2.766348e-09	-2.895255e+01	-1.821089e+02
7.800000e-07	-3.347342e-06	-2.740498e-09	-2.828658e+01	-1.801178e+02
7.900000e-07	-3.267762e-06	-2.694328e-09	-2.761409e+01	-1.780831e+02
8.000000e-07	-3.187526e-06	-2.654465e-09	-2.693606e+01	-1.760043e+02
8.100000e-07	-3.106740e-06	-2.630139e-09	-2.625338e+01	-1.738805e+02
8.200000e-07	-3.025381e-06	-2.608012e-09	-2.556586e+01	-1.717115e+02
8.300000e-07	-2.943500e-06	-2.565917e-09	-2.487393e+01	-1.694968e+02
8.400000e-07	-2.861129e-06	-2.517835e-09	-2.417785e+01	-1.672363e+02
8.500000e-07	-2.778314e-06	-2.488277e-09	-2.347803e+01	-1.649298e+02
8.600000e-07	-2.695139e-06	-2.465437e-09	-2.277516e+01	-1.625772e+02
8.700000e-07	-2.611555e-06	-2.433534e-09	-2.206884e+01	-1.601785e+02
8.800000e-07	-2.527534e-06	-2.386590e-09	-2.135882e+01	-1.577336e+02
8.900000e-07	-2.443159e-06	-2.341750e-09	-2.064582e+01	-1.552425e+02
9.000000e-07	-2.358460e-06	-2.305526e-09	-1.993007e+01	-1.527052e+02
9.100000e-07	-2.273406e-06	-2.267017e-09	-1.921132e+01	-1.501216e+02
9.200000e-07	-2.188049e-06	-2.227461e-09	-1.849002e+01	-1.474916e+02
9.300000e-07	-2.102267e-06	-2.185723e-09	-1.776512e+01	-1.448150e+02
9.400000e-07	-2.015999e-06	-2.143338e-09	-1.703612e+01	-1.420916e+02
9.500000e-07	-1.929374e-06	-2.101557e-09	-1.630409e+01	-1.393210e+02
9.600000e-07	-1.842450e-06	-2.060756e-09	-1.556955e+01	-1.365029e+02
9.700000e-07	-1.755296e-06	-2.023481e-09	-1.483306e+01	-1.336366e+02
9.800000e-07	-1.668011e-06	-1.978681e-09	-1.409546e+01	-1.307213e+02
9.900000e-07	-1.580501e-06	-1.926678e-09	-1.335596e+01	-1.277563e+02
1.000000e-06	-1.492660e-06	-1.876954e-09	-1.261366e+01	-1.247405e+02
1.010000e-06	-1.404591e-06	-1.834055e-09	-1.186944e+01	-1.216727e+02
1.020000e-06	-1.316338e-06	-1.793705e-09	-1.112366e+01	-1.185518e+02
1.030000e-06	-1.227805e-06	-1.741802e-09	-1.037552e+01	-1.153764e+02
1.040000e-06	-1.138945e-06	-1.686540e-09	-9.624610e+00	-1.121452e+02
1.050000e-06	-1.049859e-06	-1.640244e-09	-8.871792e+00	-1.088569e+02
1.060000e-06	-9.606060e-07	-1.599796e-09	-8.117562e+00	-1.055101e+02
1.070000e-06	-8.711343e-07	-1.552262e-09	-7.361485e+00	-1.021039e+02
1.080000e-06	-7.814383e-07	-1.490843e-09	-6.603512e+00	-9.863719e+01
1.090000e-06	-6.915575e-07	-1.430905e-09	-5.843979e+00	-9.510929e+01
1.100000e-06	-6.015582e-07	-1.378177e-09	-5.083443e+00	-9.151967e+01
1.110000e-06	-5.114545e-07	-1.326223e-09	-4.322025e+00	-8.786805e+01
1.120000e-06	-4.211911e-07	-1.267412e-09	-3.559259e+00	-8.415435e+01
1.130000e-06	-3.308221e-07	-1.203049e-09	-2.795598e+00	-8.037873e+01
1.140000e-06	-2.404732e-07	-1.146437e-09	-2.032109e+00	-7.654145e+01
1.150000e-06	-1.501059e-07	-1.093371e-09	-1.268464e+00	-7.264285e+01
1.160000e-06	-5.962470e-08	-1.036787e-09	-5.038562e-01	-6.868329e+01
1.170000e-06	3.088106e-08	-9.752039e-10	2.609592e-01	-6.466301e+01
1.180000e-06	1.213645e-07	-9.092125e-10	1.025586e+00	-6.058208e+01
1.190000e-06	2.118805e-07	-8.444621e-10	1.790487e+00	-5.644032e+01
1.200000e-06	3.023000e-07	-7.824176e-10	2.554574e+00	-5.223723e+01
1.210000e-06	3.926145e-07	-7.211250e-10	3.317773e+00	-4.797191e+01
1.220000e-06	4.828332e-07	-6.535253e-10	4.080163e+00	-4.364311e+01
1.230000e-06	5.729721e-07	-5.798513e-10	4.841878e+00	-3.924920e+01
1.240000e-06	6.630487e-07	-5.100158e-10	5.603067e+00	-3.478827e+01
1.250000e-06	7.529556e-07	-4.469339e-10	6.362821e+00	-3.025815e+01
1.260000e-06	8.427168e-07	-3.801637e-10	7.121344e+00	-2.565662e+01
1.270000e-06	9.323353e-07	-3.021996e-10	7.878662e+00	-2.098155e+01
1.280000e-06	1.021734e-06	-2.203702e-10	8.634120e+00	-1.623105e+01
1.290000e-06	1.110875e-06	-1.491707e-10	9.387408e+00	-1.140371e+01
1.300000e-06	1.199723e-06	-8.045372e-11	1.013821e+01	-6.498823e+00
1.310000e-06	1.288295e-06	-4.533640e-12	1.088668e+01	-1.516554e+00
1.320000e-06	1.376595e-06	7.885961e-11	1.163286e+01	3.541842e+00
1.330000e-06	1.464619e-06	1.615904e-10	1.237670e+01	8.673868e+00
1.340000e-06	1.552432e-06	2.357743e-10	1.311877e+01	1.387566e+01
1.350000e-06	1.639974e-06	3.104584e-10	1.385853e+01	1.914194e+01
1.360000e-06	1.727207e-06	3.943107e-10	1.459569e+01	2.446593e+01
1.370000e-06	1.814207e-06	4.827721e-10	1.533088e+01	2.983947e+01
1.380000e-06	1.900976e-06	5.680900e-10	1.606412e+01	3.525307e+01
1.390000e-06	1.987394e-06	6.490345e-10	1.679440e+01	4.069607e+01
1.400000e-06	2.073412e-06	7.309152e-10	1.752129e+01	4.615684e+01
1.410000e-06	2.159097e-06	8.162765e-10	1.824537e+01	5.162304e+01
1.420000e-06	2.244482e-06	9.014047e-10	1.896690e+01	5.708188e+01
1.430000e-06	2.329506e-06	9.840595e-10	1.968540e+01	6.252040e+01
1.440000e-06	2.414171e-06	1.061868e-09	2.040085e+01	6.792580e+01
1.450000e-06	2.498496e-06	1.142488e-09	2.111344e+01	7.328569e+01
1.460000e-06	2.582443e-06	1.223156e-09	2.182283e+01	7.858837e+01
1.470000e-06	2.665977e-06	1.302929e-09	2.252873e+01	8.382305e+01
1.480000e-06	2.749089e-06	1.382597e-09	2.323107e+01	8.898005e+01
1.490000e-06	2.831827e-06	1.459441e-09	2.393024e+01	9.405093e+01
1.500000e-06	2.914102e-06	1.533073e-09	2.462550e+01	9.902856e+01
1.510000e-06	2.995740e-06	1.606599e-09	2.531538e+01	1.039072e+02
1.520000e-06	3.076792e-06	1.683814e-09	2.600030e+01	1.086824e+02
1.530000e-06	3.157377e-06	1.757449e-09	2.668129e+01	1.133509e+02
1.540000e-06	3.237388e-06	1.821787e-09	2.735742e+01	1.179108e+02
1.550000e-06	3.316731e-06	1.885098e-09	2.802790e+01	1.223611e+02
1.560000e-06	3.395417e-06	1.954599e-09	2.869283e+01	1.267017e+02
1.570000e-06	3.473484e-06	2.024462e-09	2.935254e+01	1.309331e+02
1.580000e-06	3.550939e-06	2.085577e-09	3.000707e+01	1.350565e+02
1.590000e-06	3.627775e-06	2.141810e-09	3.065637e+01	1.390734e+02
1.600000e-06	3.703972e-06	2.202737e-09	3.130026e+01	1.429855e+02
1.610000e-06	3.779465e-06	2.269477e-09	3.193821e+01	1.467948e+02
1.620000e-06	3.854213e-06	2.328912e-09	3.256987e+01	1.505032e+02
1.630000e-06	3.928058e-06	2.376881e-09	3.319390e+01	1.541127e+02
1.640000e-06	4.000947e-06	2.422560e-09	3.380984e+01	1.576252e+02
1.650000e-06	4.072996e-06	2.472403e-09	3.441869e+01	1.610426e+02
1.660000e-06	4.144375e-06	2.523996e-09	3.502187e+01	1.643666e+02
1.670000e-06	4.215130e-06	2.570715e-09	3.561979e+01	1.675990e+02
1.680000e-06	4.285172e-06	2.615188e-09	3.621167e+01	1.707416e+02
1.690000e-06	4.354412e-06	2.661022e-09	3.679678e+01	1.737962e+02
1.700000e-06	4.422890e-06	2.708360e-09	3.737546e+01	1.767646e+02
1.710000e-06	4.490707e-06	2.752726e-09	3.794854e+01	1.796485e+02
1.720000e-06	4.557849e-06	2.790769e-09	3.851592e+01	1.824501e+02
1.730000e-06	4.624157e-06	2.828605e-09	3.907625e+01	1.851712e+02
1.740000e-06	4.689392e-06	2.865651e-09	3.962752e+01	1.878138e+02
1.750000e-06	4.753629e-06	2.900568e-09	4.017035e+01	1.903799e+02
1.760000e-06	4.817132e-06	2.935827e-09	4.070698e+01	1.928716e+02
1.770000e-06	4.879892e-06	2.970593e-09	4.123733e+01	1.952907e+02
1.780000e-06	4.941816e-06	3.004249e-09	4.176062e+01	1.976389e+02
1.790000e-06	5.002997e-06	3.035893e-09	4.227762e+01	1.999180e+02
1.800000e-06	5.063419e-06	3.068891e-09	4.278821e+01	2.021294e+02
1.810000e-06	5.123047e-06	3.101078e-09	4.329210e+01	2.042744e+02
1.820000e-06	5.181752e-06	3.128004e-09	4.378819e+01	2.063542e+02
1.830000e-06	5.239328e-06	3.151094e-09	4.427473e+01	2.083699e+02
1.840000e-06	5.295817e-06	3.176120e-09	4.475209e+01	2.103222e+02
1.850000e-06	5.351420e-06	3.202318e-09	4.522195e+01	2.122120e+02
1.860000e-06	5.406210e-06	3.227027e-09	4.568496e+01	2.140402e+02
1.870000e-06	5.460056e-06	3.251603e-09	4.613998e+01	2.158075e+02
1.880000e-06	5.512896e-06	3.275389e-09	4.658650e+01	2.175148e+02
1.890000e-06	5.564696e-06	3.298952e-09	4.702424e+01	2.191631e+02
1.900000e-06	5.615186e-06	3.324591e-09	4.745090e+01	2.207536e+02
1.910000e-06	5.664285e-06	3.350081e-09	4.786581e+01	2.222876e+02
1.920000e-06	5.712257e-06	3.372732e-09	4.827120e+01	2.237664e+02
1.930000e-06	5.759302e-06	3.391781e-09	4.866875e+01	2.251917e+02
1.940000e-06	5.805403e-06	3.409907e-09	4.905832e+01	2.265650e+02
1.950000e-06	5.850515e-06	3.428916e-09	4.943954e+01	2.278882e+02
1.960000e-06	5.894715e-06	3.447443e-09	4.981305e+01	2.291627e+02
1.970000e-06	5.938025e-06	3.465339e-09	5.017904e+01	2.303902e+02
1.980000e-06	5.980290e-06	3.482603e-09	5.053620e+01	2.315721e+02
1.990000e-06	6.021269e-06	3.500344e-09	5.088249e+01	2.327095e+02
2.000000e-06	6.061086e-06	3.519428e-09	5.121897e+01	2.338035e+02
2.010000e-06	6.099896e-06	3.536583e-09	5.154692e+01	2.348548e+02
2.020000e-06	6.137646e-06	3.549980e-09	5.186593e+01	2.358637e+02
2.030000e-06	6.174429e-06	3.564129e-09	5.217676e+01	2.368306e+02
2.040000e-06	6.210331e-06	3.581476e-09	5.248015e+01	2.377553e+02
2.050000e-06	6.245205e-06	3.595949e-09	5.277485e+01	2.386378e+02
2.060000e-06	6.278749e-06	3.607001e-09	5.305832e+01	2.394780e+02
2.070000e-06	6.310965e-06	3.617890e-09	5.333056e+01	2.402757e+02
2.080000e-06	6.342168e-06	3.630310e-09	5.359424e+01	2.410311e+02
2.090000e-06	6.372379e-06	3.644930e-09	5.384954e+01	2.417445e+02
2.100000e-06	6.401508e-06	3.658118e-09	5.409569e+01	2.424166e+02
2.110000e-06	6.429682e-06	3.667804e-09	5.433377e+01	2.430484e+02
2.120000e-06	6.456873e-06	3.677460e-09	5.456355e+01	2.436415e+02
2.130000e-06	6.482683e-06	3.687741e-09	5.478165e+01	2.441977e+02
2.140000e-06	6.507038e-06	3.695146e-09	5.498746e+01	2.447192e+02
2.150000e-06	6.530285e-06	3.703580e-09	5.518391e+01	2.452087e+02
2.160000e-06	6.552497e-06	3.713894e-09	5.537161e+01	2.456687e+02
2.170000e-06	6.573623e-06	3.722855e-09	5.555014e+01	2.461022e+02
2.180000e-06	6.593711e-06	3.732088e-09	5.571989e+01	2.465117e+02
2.190000e-06	6.612822e-06	3.742003e-09	5.588139e+01	2.468997e+02
2.200000e-06	6.630699e-06	3.750640e-09	5.603245e+01	2.472682e+02
2.210000e-06	6.647273e-06	3.757094e-09	5.617251e+01	2.476186e+02
2.220000e-06	6.662704e-06	3.762239e-09	5.630291e+01	2.479516e+02
2.230000e-06	6.676895e-06	3.768243e-09	5.642283e+01	2.482674e+02
2.240000e-06	6.689807e-06	3.773717e-09	5.653195e+01	2.485653e+02
2.250000e-06	6.701453e-06	3.776788e-09	5.663036e+01	2.488438e+02
2.260000e-06	6.711710e-06	3.778940e-09	5.671703e+01	2.491008e+02
2.270000e-06	6.720488e-06	3.781589e-09	5.679121e+01	2.493338e+02
2.280000e-06	6.728095e-06	3.786366e-09	5.685550e+01	2.495399e+02
2.290000e-06	6.734641e-06	3.791909e-09	5.691081e+01	2.497159e+02
2.300000e-06	6.740016e-06	3.795756e-09	5.695624e+01	2.498590e+02
2.310000e-06	6.744322e-06	3.797539e-09	5.699262e+01	2.499664e+02
2.320000e-06	6.747583e-06	3.798083e-09	5.702017e+01	2.500361e+02
2.330000e-06	6.749554e-06	3.799188e-09	5.703683e+01	2.500668e+02
2.340000e-06	6.750106e-06	3.799416e-09	5.704150e+01	2.500582e+02
2.350000e-06	6.749528e-06	3.798884e-09	5.703662e+01	2.500110e+02
2.360000e-06	6.747928e-06	3.798560e-09	5.702309e+01	2.499270e+02
2.370000e-06	6.745227e-06	3.795756e-09	5.700027e+01	2.498091e+02
2.380000e-06	6.741548e-06	3.795527e-09	5.696918e+01	2.496614e+02
2.390000e-06	6.736930e-06	3.793583e-09	5.693016e+01	2.494887e+02
2.400000e-06	6.731059e-06	3.788875e-09	5.688054e+01	2.492965e+02
2.410000e-06	6.723809e-06	3.781685e-09	5.681928e+01	2.490907e+02
2.420000e-06	6.715518e-06	3.765573e-09	5.674921e+01	2.488773e+02
2.430000e-06	6.706243e-06	3.803137e-09	5.667083e+01	2.486620e+02
2.440000e-06	6.695710e-06	3.782832e-09	5.658183e+01	2.484500e+02
2.450000e-06	6.683370e-06	3.748745e-09	5.647755e+01	2.482457e+02
2.460000e-06	6.668910e-06	3.731123e-09	5.635535e+01	2.480523e+02
2.470000e-06	6.653124e-06	3.706474e-09	5.622195e+01	2.478717e+02
2.480000e-06	6.636906e-06	3.842526e-09	5.608490e+01	2.477043e+02
2.490000e-06	6.620059e-06	3.805948e-09	5.594254e+01	2.475491e+02
2.500000e-06	6.601784e-06	3.662175e-09	5.578811e+01	2.474034e+02
2.510000e-06	6.582242e-06	3.798685e-09	5.562297e+01	2.472632e+02
2.520000e-06	6.562040e-06	3.732625e-09	5.545225e+01	2.471233e+02
2.530000e-06	6.540627e-06	3.673040e-09	5.527130e+01	2.469774e+02
2.540000e-06	6.517590e-06	3.884903e-09	5.507663e+01	2.468187e+02
2.550000e-06	6.493444e-06	3.774787e-09	5.487259e+01	2.466398e+02
2.560000e-06	6.468338e-06	3.673199e-09	5.466043e+01	2.464336e+02
2.570000e-06	6.442225e-06	3.852071e-09	5.443977e+01	2.461932e+02
2.580000e-06	6.415006e-06	3.762596e-09	5.420975e+01	2.459123e+02
2.590000e-06	6.386544e-06	3.683538e-09	5.396923e+01	2.455859e+02
2.600000e-06	6.357078e-06	3.794531e-09	5.372023e+01	2.452097e+02
2.610000e-06	6.326420e-06	3.749737e-09	5.346116e+01	2.447812e+02
2.620000e-06	6.294316e-06	3.804170e-09	5.318986e+01	2.442991e+02
2.630000e-06	6.261100e-06	3.754588e-09	5.290917e+01	2.437635e+02
2.640000e-06	6.226820e-06	3.616033e-09	5.261949e+01	2.431760e+02
2.650000e-06	6.191464e-06	3.744959e-09	5.232071e+01	2.425392e+02
2.660000e-06	6.155169e-06	3.757466e-09	5.201401e+01	2.418566e+02
2.670000e-06	6.117694e-06	3.685778e-09	5.169733e+01	2.411328e+02
2.680000e-06	6.078896e-06	3.647815e-09	5.136947e+01	2.403725e+02
2.690000e-06	6.038936e-06	3.588556e-09	5.103179e+01	2.395804e+02
2.700000e-06	5.998040e-06	3.688355e-09	5.068619e+01	2.387615e+02
2.710000e-06	5.956264e-06	3.689274e-09	5.033317e+01	2.379200e+02
2.720000e-06	5.913407e-06	3.633889e-09	4.997101e+01	2.370594e+02
2.730000e-06	5.869519e-06	3.581057e-09	4.960013e+01	2.361828e+02
2.740000e-06	5.824777e-06	3.536396e-09	4.922205e+01	2.352919e+02
2.750000e-06	5.779138e-06	3.665774e-09	4.883637e+01	2.343876e+02
2.760000e-06	5.732337e-06	3.632136e-09	4.844088e+01	2.334698e+02
2.770000e-06	5.684276e-06	3.505210e-09	4.803474e+01	2.325376e+02
2.780000e-06	5.635231e-06	3.480670e-09	4.762029e+01	2.315893e+02
2.790000e-06	5.585230e-06	3.530875e-09	4.719776e+01	2.306223e+02
2.800000e-06	5.534236e-06	3.622024e-09	4.676684e+01	2.296341e+02
2.810000e-06	5.482180e-06	3.501126e-09	4.632694e+01	2.286216e+02
2.820000e-06	5.428842e-06	3.395390e-09	4.587621e+01	2.275818e+02
2.830000e-06	5.374261e-06	3.455606e-09	4.541498e+01	2.265120e+02
2.840000e-06	5.318637e-06	3.514107e-09	4.494493e+01	2.254098e+02
2.850000e-06	5.262130e-06	3.489381e-09	4.446742e+01	2.242732e+02
2.860000e-06	5.204767e-06	3.368653e-09	4.398267e+01	2.231011e+02
2.870000e-06	5.146455e-06	3.349819e-09	4.348991e+01	2.218927e+02
2.880000e-06	5.087287e-06	3.401108e-09	4.298992e+01	2.206481e+02
2.890000e-06	5.027405e-06	3.406968e-09	4.248389e+01	2.193677e+02
2.900000e-06	4.966683e-06	3.345551e-09	4.197075e+01	2.180528e+02
2.910000e-06	4.904858e-06	3.273167e-09	4.144830e+01	2.167048e+02
2.920000e-06	4.841896e-06	3.288928e-09	4.091624e+01	2.153256e+02
2.930000e-06	4.778030e-06	3.313322e-09	4.037655e+01	2.139170e+02
2.940000e-06	4.713410e-06	3.276432e-09	3.983048e+01	2.124809e+02
