# Temperatura_=_20.0
# Concentracion g/m^3_=_12600.0
# C_Vs_to_Am_M_A/Vsm_=_65563218390.804596
# pendiente_HvsI_1/m_=_3716.3
# ordenada_HvsI_A/m_=_1297.0
# frecuencia_Hz_=_213153.9502287126

Tiempo_(s)	Campo_(V.s)	Magnetizacion_(V.s)	Campo_(kA/m)	Magnetizacion_(A/m)
0.000000e+00	-6.748397e-06	-3.948069e-09	-5.683482e+01	-2.561328e+02
1.000000e-08	-6.747823e-06	-3.949026e-09	-5.682998e+01	-2.560760e+02
2.000000e-08	-6.745816e-06	-3.952791e-09	-5.681307e+01	-2.559885e+02
3.000000e-08	-6.742468e-06	-3.952041e-09	-5.678488e+01	-2.558741e+02
4.000000e-08	-6.738163e-06	-3.949357e-09	-5.674862e+01	-2.557378e+02
5.000000e-08	-6.732863e-06	-3.948026e-09	-5.670399e+01	-2.555850e+02
6.000000e-08	-6.726474e-06	-3.944800e-09	-5.665018e+01	-2.554219e+02
7.000000e-08	-6.719035e-06	-3.940008e-09	-5.658753e+01	-2.552546e+02
8.000000e-08	-6.710578e-06	-3.933758e-09	-5.651630e+01	-2.550892e+02
9.000000e-08	-6.700732e-06	-3.929242e-09	-5.643338e+01	-2.549309e+02
1.000000e-07	-6.689108e-06	-3.960478e-09	-5.633549e+01	-2.547846e+02
1.100000e-07	-6.675820e-06	-3.973884e-09	-5.622357e+01	-2.546535e+02
1.200000e-07	-6.661081e-06	-3.960454e-09	-5.609944e+01	-2.545397e+02
1.300000e-07	-6.644964e-06	-3.913642e-09	-5.596370e+01	-2.544438e+02
1.400000e-07	-6.627782e-06	-3.830001e-09	-5.581900e+01	-2.543644e+02
1.500000e-07	-6.609634e-06	-3.931502e-09	-5.566615e+01	-2.542986e+02
1.600000e-07	-6.590467e-06	-3.999301e-09	-5.550473e+01	-2.542421e+02
1.700000e-07	-6.570518e-06	-3.870764e-09	-5.533673e+01	-2.541890e+02
1.800000e-07	-6.549524e-06	-3.900066e-09	-5.515992e+01	-2.541321e+02
1.900000e-07	-6.527263e-06	-3.885951e-09	-5.497243e+01	-2.540637e+02
2.000000e-07	-6.504199e-06	-3.812782e-09	-5.477818e+01	-2.539753e+02
2.100000e-07	-6.480162e-06	-3.948526e-09	-5.457575e+01	-2.538586e+02
2.200000e-07	-6.454538e-06	-3.915178e-09	-5.435994e+01	-2.537052e+02
2.300000e-07	-6.427458e-06	-3.747248e-09	-5.413188e+01	-2.535078e+02
2.400000e-07	-6.399385e-06	-3.818348e-09	-5.389545e+01	-2.532599e+02
2.500000e-07	-6.370433e-06	-3.881527e-09	-5.365161e+01	-2.529560e+02
2.600000e-07	-6.340345e-06	-3.825010e-09	-5.339821e+01	-2.525926e+02
2.700000e-07	-6.309067e-06	-3.784041e-09	-5.313479e+01	-2.521673e+02
2.800000e-07	-6.276874e-06	-3.744042e-09	-5.286366e+01	-2.516796e+02
2.900000e-07	-6.243660e-06	-3.760307e-09	-5.258393e+01	-2.511303e+02
3.000000e-07	-6.209053e-06	-3.790450e-09	-5.229248e+01	-2.505220e+02
3.100000e-07	-6.173157e-06	-3.760649e-09	-5.199016e+01	-2.498581e+02
3.200000e-07	-6.136174e-06	-3.727207e-09	-5.167869e+01	-2.491432e+02
3.300000e-07	-6.098113e-06	-3.720346e-09	-5.135814e+01	-2.483825e+02
3.400000e-07	-6.059024e-06	-3.716517e-09	-5.102894e+01	-2.475814e+02
3.500000e-07	-6.019012e-06	-3.725800e-09	-5.069195e+01	-2.467455e+02
3.600000e-07	-5.977893e-06	-3.741706e-09	-5.034565e+01	-2.458801e+02
3.700000e-07	-5.935375e-06	-3.701008e-09	-4.998756e+01	-2.449898e+02
3.800000e-07	-5.891682e-06	-3.627769e-09	-4.961959e+01	-2.440785e+02
3.900000e-07	-5.847077e-06	-3.645186e-09	-4.924392e+01	-2.431493e+02
4.000000e-07	-5.801518e-06	-3.696312e-09	-4.886022e+01	-2.422042e+02
4.100000e-07	-5.754901e-06	-3.661698e-09	-4.846762e+01	-2.412442e+02
4.200000e-07	-5.707272e-06	-3.594114e-09	-4.806649e+01	-2.402693e+02
4.300000e-07	-5.658583e-06	-3.577705e-09	-4.765643e+01	-2.392787e+02
4.400000e-07	-5.608577e-06	-3.608308e-09	-4.723528e+01	-2.382707e+02
4.500000e-07	-5.557142e-06	-3.616457e-09	-4.680210e+01	-2.372434e+02
4.600000e-07	-5.504530e-06	-3.563610e-09	-4.635900e+01	-2.361942e+02
4.700000e-07	-5.450970e-06	-3.511331e-09	-4.590792e+01	-2.351204e+02
4.800000e-07	-5.396478e-06	-3.511002e-09	-4.544899e+01	-2.340196e+02
4.900000e-07	-5.341184e-06	-3.528056e-09	-4.498330e+01	-2.328893e+02
5.000000e-07	-5.285058e-06	-3.507844e-09	-4.451062e+01	-2.317275e+02
5.100000e-07	-5.227850e-06	-3.456500e-09	-4.402881e+01	-2.305327e+02
5.200000e-07	-5.169407e-06	-3.428069e-09	-4.353661e+01	-2.293038e+02
5.300000e-07	-5.109948e-06	-3.435097e-09	-4.303584e+01	-2.280402e+02
5.400000e-07	-5.049676e-06	-3.434476e-09	-4.252823e+01	-2.267420e+02
5.500000e-07	-4.988593e-06	-3.400302e-09	-4.201379e+01	-2.254095e+02
5.600000e-07	-4.926683e-06	-3.357211e-09	-4.149239e+01	-2.240433e+02
5.700000e-07	-4.863937e-06	-3.340487e-09	-4.096394e+01	-2.226446e+02
5.800000e-07	-4.800436e-06	-3.332046e-09	-4.042914e+01	-2.212143e+02
5.900000e-07	-4.736041e-06	-3.309362e-09	-3.988681e+01	-2.197535e+02
6.000000e-07	-4.670595e-06	-3.295010e-09	-3.933562e+01	-2.182632e+02
6.100000e-07	-4.604220e-06	-3.274761e-09	-3.877662e+01	-2.167440e+02
6.200000e-07	-4.536974e-06	-3.235951e-09	-3.821027e+01	-2.151965e+02
6.300000e-07	-4.468928e-06	-3.205825e-09	-3.763719e+01	-2.136207e+02
6.400000e-07	-4.400253e-06	-3.202095e-09	-3.705881e+01	-2.120165e+02
6.500000e-07	-4.330876e-06	-3.196358e-09	-3.647451e+01	-2.103833e+02
6.600000e-07	-4.260704e-06	-3.149407e-09	-3.588353e+01	-2.087204e+02
6.700000e-07	-4.189842e-06	-3.094288e-09	-3.528673e+01	-2.070266e+02
6.800000e-07	-4.118329e-06	-3.080807e-09	-3.468445e+01	-2.053008e+02
6.900000e-07	-4.046104e-06	-3.092194e-09	-3.407618e+01	-2.035415e+02
7.000000e-07	-3.973063e-06	-3.065444e-09	-3.346103e+01	-2.017474e+02
7.100000e-07	-3.899110e-06	-2.993656e-09	-3.283819e+01	-1.999169e+02
7.200000e-07	-3.824231e-06	-2.952555e-09	-3.220757e+01	-1.980489e+02
7.300000e-07	-3.748539e-06	-2.962375e-09	-3.157009e+01	-1.961421e+02
7.400000e-07	-3.672161e-06	-2.957260e-09	-3.092684e+01	-1.941954e+02
7.500000e-07	-3.595156e-06	-2.896480e-09	-3.027831e+01	-1.922078e+02
7.600000e-07	-3.517419e-06	-2.830215e-09	-2.962360e+01	-1.901785e+02
7.700000e-07	-3.438943e-06	-2.819872e-09	-2.896268e+01	-1.881068e+02
7.800000e-07	-3.359813e-06	-2.827889e-09	-2.829625e+01	-1.859921e+02
7.900000e-07	-3.279996e-06	-2.793492e-09	-2.762404e+01	-1.838339e+02
8.000000e-07	-3.199476e-06	-2.727731e-09	-2.694590e+01	-1.816316e+02
8.100000e-07	-3.118354e-06	-2.683434e-09	-2.626270e+01	-1.793848e+02
8.200000e-07	-3.036736e-06	-2.677832e-09	-2.557531e+01	-1.770931e+02
8.300000e-07	-2.954646e-06	-2.661197e-09	-2.488395e+01	-1.747559e+02
8.400000e-07	-2.872122e-06	-2.606462e-09	-2.418893e+01	-1.723729e+02
8.500000e-07	-2.789104e-06	-2.545148e-09	-2.348976e+01	-1.699437e+02
8.600000e-07	-2.705644e-06	-2.509965e-09	-2.278686e+01	-1.674678e+02
8.700000e-07	-2.621784e-06	-2.495370e-09	-2.208059e+01	-1.649450e+02
8.800000e-07	-2.537559e-06	-2.466009e-09	-2.137125e+01	-1.623750e+02
8.900000e-07	-2.453008e-06	-2.412112e-09	-2.065916e+01	-1.597578e+02
9.000000e-07	-2.368012e-06	-2.356892e-09	-1.994333e+01	-1.570933e+02
9.100000e-07	-2.282579e-06	-2.320246e-09	-1.922382e+01	-1.543817e+02
9.200000e-07	-2.196808e-06	-2.298167e-09	-1.850146e+01	-1.516232e+02
9.300000e-07	-2.110720e-06	-2.262858e-09	-1.777642e+01	-1.488183e+02
9.400000e-07	-2.024299e-06	-2.204494e-09	-1.704859e+01	-1.459671e+02
9.500000e-07	-1.937537e-06	-2.144071e-09	-1.631789e+01	-1.430703e+02
9.600000e-07	-1.850450e-06	-2.104728e-09	-1.558444e+01	-1.401280e+02
9.700000e-07	-1.763138e-06	-2.081803e-09	-1.484910e+01	-1.371405e+02
9.800000e-07	-1.675609e-06	-2.040549e-09	-1.411193e+01	-1.341078e+02
9.900000e-07	-1.587719e-06	-1.975881e-09	-1.337172e+01	-1.310297e+02
1.000000e-06	-1.499428e-06	-1.918442e-09	-1.262814e+01	-1.279057e+02
1.010000e-06	-1.410855e-06	-1.885064e-09	-1.188219e+01	-1.247351e+02
1.020000e-06	-1.322105e-06	-1.854826e-09	-1.113473e+01	-1.215166e+02
1.030000e-06	-1.233120e-06	-1.797420e-09	-1.038531e+01	-1.182490e+02
1.040000e-06	-1.143830e-06	-1.726468e-09	-9.633307e+00	-1.149305e+02
1.050000e-06	-1.054323e-06	-1.674812e-09	-8.879476e+00	-1.115591e+02
1.060000e-06	-9.647042e-07	-1.643338e-09	-8.124712e+00	-1.081329e+02
1.070000e-06	-8.749935e-07	-1.600219e-09	-7.369171e+00	-1.046497e+02
1.080000e-06	-7.850309e-07	-1.529719e-09	-6.611509e+00	-1.011075e+02
1.090000e-06	-6.947828e-07	-1.460806e-09	-5.851442e+00	-9.750432e+01
1.100000e-06	-6.044248e-07	-1.411684e-09	-5.090449e+00	-9.383840e+01
1.110000e-06	-5.139528e-07	-1.368480e-09	-4.328496e+00	-9.010830e+01
1.120000e-06	-4.233544e-07	-1.309179e-09	-3.565479e+00	-8.631288e+01
1.130000e-06	-3.327047e-07	-1.235858e-09	-2.802030e+00	-8.245138e+01
1.140000e-06	-2.420022e-07	-1.172145e-09	-2.038136e+00	-7.852336e+01
1.150000e-06	-1.512840e-07	-1.120146e-09	-1.274110e+00	-7.452873e+01
1.160000e-06	-6.056782e-08	-1.066403e-09	-5.101005e-01	-7.046763e+01
1.170000e-06	3.018497e-08	-1.002043e-09	2.542170e-01	-6.634040e+01
1.180000e-06	1.209329e-07	-9.308036e-10	1.018493e+00	-6.214747e+01
1.190000e-06	2.116573e-07	-8.629861e-10	1.782572e+00	-5.788923e+01
1.200000e-06	3.023614e-07	-8.003590e-10	2.546479e+00	-5.356596e+01
1.210000e-06	3.930341e-07	-7.401505e-10	3.310123e+00	-4.917773e+01
1.220000e-06	4.836141e-07	-6.722783e-10	4.072985e+00	-4.472433e+01
1.230000e-06	5.740621e-07	-5.943252e-10	4.834735e+00	-4.020520e+01
1.240000e-06	6.643930e-07	-5.190341e-10	5.595500e+00	-3.561947e+01
1.250000e-06	7.546270e-07	-4.526431e-10	6.355448e+00	-3.096597e+01
1.260000e-06	8.446698e-07	-3.872158e-10	7.113786e+00	-2.624328e+01
1.270000e-06	9.345520e-07	-3.105734e-10	7.870771e+00	-2.144991e+01
1.280000e-06	1.024250e-06	-2.259004e-10	8.626209e+00	-1.658438e+01
1.290000e-06	1.113715e-06	-1.482381e-10	9.379681e+00	-1.164547e+01
1.300000e-06	1.202950e-06	-7.796322e-11	1.013122e+01	-6.632378e+00
1.310000e-06	1.291891e-06	-5.189520e-12	1.088027e+01	-1.544966e+00
1.320000e-06	1.380594e-06	7.808816e-11	1.162733e+01	3.616052e+00
1.330000e-06	1.469019e-06	1.658347e-10	1.237204e+01	8.848907e+00
1.340000e-06	1.557120e-06	2.441113e-10	1.311402e+01	1.415061e+01
1.350000e-06	1.644992e-06	3.169264e-10	1.385408e+01	1.951683e+01
1.360000e-06	1.732606e-06	3.978138e-10	1.459196e+01	2.494183e+01
1.370000e-06	1.819857e-06	4.867934e-10	1.532678e+01	3.041842e+01
1.380000e-06	1.906813e-06	5.736912e-10	1.605913e+01	3.593806e+01
1.390000e-06	1.993517e-06	6.560695e-10	1.678934e+01	4.149089e+01
1.400000e-06	2.079902e-06	7.381861e-10	1.751687e+01	4.706594e+01
1.410000e-06	2.165937e-06	8.226380e-10	1.824146e+01	5.265134e+01
1.420000e-06	2.251635e-06	9.093493e-10	1.896321e+01	5.823454e+01
1.430000e-06	2.336907e-06	9.960422e-10	1.968137e+01	6.380262e+01
1.440000e-06	2.421749e-06	1.078992e-09	2.039590e+01	6.934256e+01
1.450000e-06	2.506254e-06	1.158427e-09	2.110761e+01	7.484154e+01
1.460000e-06	2.590458e-06	1.235133e-09	2.181677e+01	8.028725e+01
1.470000e-06	2.674274e-06	1.316316e-09	2.252267e+01	8.566809e+01
1.480000e-06	2.757619e-06	1.401396e-09	2.322459e+01	9.097344e+01
1.490000e-06	2.840554e-06	1.480593e-09	2.392307e+01	9.619380e+01
1.500000e-06	2.923035e-06	1.552733e-09	2.461772e+01	1.013209e+02
1.510000e-06	3.005037e-06	1.626782e-09	2.530834e+01	1.063479e+02
1.520000e-06	3.086504e-06	1.708130e-09	2.599445e+01	1.112692e+02
1.530000e-06	3.167331e-06	1.785990e-09	2.667517e+01	1.160806e+02
1.540000e-06	3.247581e-06	1.851359e-09	2.735104e+01	1.207790e+02
1.550000e-06	3.327219e-06	1.912529e-09	2.802175e+01	1.253626e+02
1.560000e-06	3.406213e-06	1.980879e-09	2.868703e+01	1.298305e+02
1.570000e-06	3.484626e-06	2.053616e-09	2.934742e+01	1.341827e+02
1.580000e-06	3.562424e-06	2.119359e-09	3.000263e+01	1.384199e+02
1.590000e-06	3.639530e-06	2.176679e-09	3.065202e+01	1.425435e+02
1.600000e-06	3.715959e-06	2.234761e-09	3.129570e+01	1.465550e+02
1.610000e-06	3.791739e-06	2.301574e-09	3.193392e+01	1.504565e+02
1.620000e-06	3.866766e-06	2.367312e-09	3.256579e+01	1.542502e+02
1.630000e-06	3.940917e-06	2.419165e-09	3.319029e+01	1.579385e+02
1.640000e-06	4.014129e-06	2.462863e-09	3.380689e+01	1.615239e+02
1.650000e-06	4.086480e-06	2.512613e-09	3.441622e+01	1.650087e+02
1.660000e-06	4.158114e-06	2.568313e-09	3.501952e+01	1.683957e+02
1.670000e-06	4.229087e-06	2.619806e-09	3.561726e+01	1.716873e+02
1.680000e-06	4.299354e-06	2.664030e-09	3.620904e+01	1.748861e+02
1.690000e-06	4.368813e-06	2.707070e-09	3.679403e+01	1.779948e+02
1.700000e-06	4.437497e-06	2.753670e-09	3.737248e+01	1.810161e+02
1.710000e-06	4.505555e-06	2.800211e-09	3.794566e+01	1.839526e+02
1.720000e-06	4.573007e-06	2.843472e-09	3.851374e+01	1.868070e+02
1.730000e-06	4.639644e-06	2.882037e-09	3.907496e+01	1.895819e+02
1.740000e-06	4.705153e-06	2.916432e-09	3.962667e+01	1.922798e+02
1.750000e-06	4.769583e-06	2.951825e-09	4.016929e+01	1.949032e+02
1.760000e-06	4.833240e-06	2.990919e-09	4.070541e+01	1.974544e+02
1.770000e-06	4.896200e-06	3.028939e-09	4.123566e+01	1.999353e+02
1.780000e-06	4.958372e-06	3.061071e-09	4.175927e+01	2.023478e+02
1.790000e-06	5.019720e-06	3.091388e-09	4.227595e+01	2.046934e+02
1.800000e-06	5.080344e-06	3.126281e-09	4.278652e+01	2.069733e+02
1.810000e-06	5.140277e-06	3.163332e-09	4.329127e+01	2.091886e+02
1.820000e-06	5.199318e-06	3.195654e-09	4.378852e+01	2.113399e+02
1.830000e-06	5.257148e-06	3.220641e-09	4.427556e+01	2.134278e+02
1.840000e-06	5.313820e-06	3.246601e-09	4.475284e+01	2.154526e+02
1.850000e-06	5.369593e-06	3.277807e-09	4.522257e+01	2.174146e+02
1.860000e-06	5.424553e-06	3.307682e-09	4.568543e+01	2.193143e+02
1.870000e-06	5.478624e-06	3.332891e-09	4.614082e+01	2.211519e+02
1.880000e-06	5.531709e-06	3.354876e-09	4.658790e+01	2.229281e+02
1.890000e-06	5.583743e-06	3.379373e-09	4.702613e+01	2.246435e+02
1.900000e-06	5.634632e-06	3.406585e-09	4.745471e+01	2.262992e+02
1.910000e-06	5.684077e-06	3.430993e-09	4.787114e+01	2.278965e+02
1.920000e-06	5.732210e-06	3.451559e-09	4.827652e+01	2.294370e+02
1.930000e-06	5.779413e-06	3.468554e-09	4.867406e+01	2.309222e+02
1.940000e-06	5.825647e-06	3.487095e-09	4.906344e+01	2.323544e+02
1.950000e-06	5.870879e-06	3.508663e-09	4.944439e+01	2.337353e+02
1.960000e-06	5.915194e-06	3.529249e-09	4.981760e+01	2.350672e+02
1.970000e-06	5.958704e-06	3.547348e-09	5.018404e+01	2.363519e+02
1.980000e-06	6.001131e-06	3.565085e-09	5.054136e+01	2.375912e+02
1.990000e-06	6.042153e-06	3.583908e-09	5.088685e+01	2.387868e+02
2.000000e-06	6.081990e-06	3.604279e-09	5.122235e+01	2.399397e+02
2.010000e-06	6.120886e-06	3.621971e-09	5.154993e+01	2.410508e+02
2.020000e-06	6.158768e-06	3.634531e-09	5.186898e+01	2.421205e+02
2.030000e-06	6.195617e-06	3.646715e-09	5.217932e+01	2.431490e+02
2.040000e-06	6.231565e-06	3.662438e-09	5.248207e+01	2.441359e+02
2.050000e-06	6.266517e-06	3.679500e-09	5.277643e+01	2.450807e+02
2.060000e-06	6.300134e-06	3.694742e-09	5.305956e+01	2.459829e+02
2.070000e-06	6.332475e-06	3.706805e-09	5.333193e+01	2.468418e+02
2.080000e-06	6.363799e-06	3.718258e-09	5.359574e+01	2.476567e+02
2.090000e-06	6.394118e-06	3.731569e-09	5.385109e+01	2.484273e+02
2.100000e-06	6.423409e-06	3.744388e-09	5.409778e+01	2.491537e+02
2.110000e-06	6.451672e-06	3.753700e-09	5.433580e+01	2.498361e+02
2.120000e-06	6.478901e-06	3.760452e-09	5.456513e+01	2.504756e+02
2.130000e-06	6.504771e-06	3.769079e-09	5.478301e+01	2.510735e+02
2.140000e-06	6.529165e-06	3.778115e-09	5.498845e+01	2.516316e+02
2.150000e-06	6.552452e-06	3.787415e-09	5.518457e+01	2.521523e+02
2.160000e-06	6.574683e-06	3.795867e-09	5.537180e+01	2.526382e+02
2.170000e-06	6.595781e-06	3.804260e-09	5.554948e+01	2.530922e+02
2.180000e-06	6.615887e-06	3.814927e-09	5.571881e+01	2.535170e+02
2.190000e-06	6.635045e-06	3.825010e-09	5.588017e+01	2.539155e+02
2.200000e-06	6.652993e-06	3.830871e-09	5.603132e+01	2.542900e+02
2.210000e-06	6.669722e-06	3.833078e-09	5.617222e+01	2.546425e+02
2.220000e-06	6.685220e-06	3.836378e-09	5.630274e+01	2.549745e+02
2.230000e-06	6.699344e-06	3.842665e-09	5.642169e+01	2.552865e+02
2.240000e-06	6.712262e-06	3.847139e-09	5.653048e+01	2.555787e+02
2.250000e-06	6.723984e-06	3.849693e-09	5.662920e+01	2.558501e+02
2.260000e-06	6.734270e-06	3.853036e-09	5.671584e+01	2.560995e+02
2.270000e-06	6.743043e-06	3.857724e-09	5.678973e+01	2.563248e+02
2.280000e-06	6.750648e-06	3.862756e-09	5.685377e+01	2.565238e+02
2.290000e-06	6.757202e-06	3.865881e-09	5.690897e+01	2.566938e+02
2.300000e-06	6.762629e-06	3.867970e-09	5.695467e+01	2.568324e+02
2.310000e-06	6.767013e-06	3.867914e-09	5.699160e+01	2.569375e+02
2.320000e-06	6.770358e-06	3.866568e-09	5.701977e+01	2.570074e+02
2.330000e-06	6.772379e-06	3.866757e-09	5.703679e+01	2.570413e+02
2.340000e-06	6.772938e-06	3.868195e-09	5.704150e+01	2.570393e+02
2.350000e-06	6.772318e-06	3.869086e-09	5.703628e+01	2.570023e+02
2.360000e-06	6.770654e-06	3.868090e-09	5.702226e+01	2.569327e+02
2.370000e-06	6.767967e-06	3.866006e-09	5.699963e+01	2.568338e+02
2.380000e-06	6.764294e-06	3.866814e-09	5.696870e+01	2.567098e+02
2.390000e-06	6.759640e-06	3.866098e-09	5.692951e+01	2.565661e+02
2.400000e-06	6.753675e-06	3.862865e-09	5.687926e+01	2.564083e+02
2.410000e-06	6.746336e-06	3.861421e-09	5.681745e+01	2.562427e+02
2.420000e-06	6.738033e-06	3.864383e-09	5.674753e+01	2.560753e+02
2.430000e-06	6.728817e-06	3.871333e-09	5.666991e+01	2.559120e+02
2.440000e-06	6.718324e-06	3.823668e-09	5.658154e+01	2.557579e+02
2.450000e-06	6.705966e-06	3.802195e-09	5.647746e+01	2.556172e+02
2.460000e-06	6.691516e-06	3.810208e-09	5.635576e+01	2.554928e+02
2.470000e-06	6.675739e-06	3.879942e-09	5.622289e+01	2.553860e+02
2.480000e-06	6.659560e-06	3.958020e-09	5.608664e+01	2.552968e+02
2.490000e-06	6.642763e-06	3.826880e-09	5.594517e+01	2.552232e+02
2.500000e-06	6.624455e-06	3.799906e-09	5.579098e+01	2.551616e+02
2.510000e-06	6.604883e-06	3.900158e-09	5.562614e+01	2.551071e+02
2.520000e-06	6.584752e-06	3.832405e-09	5.545660e+01	2.550532e+02
2.530000e-06	6.563332e-06	3.881760e-09	5.527620e+01	2.549926e+02
2.540000e-06	6.540174e-06	3.926579e-09	5.508116e+01	2.549171e+02
2.550000e-06	6.515929e-06	3.781799e-09	5.487698e+01	2.548182e+02
2.560000e-06	6.490724e-06	3.868001e-09	5.466470e+01	2.546877e+02
2.570000e-06	6.464579e-06	4.002595e-09	5.444451e+01	2.545175e+02
2.580000e-06	6.437300e-06	3.882430e-09	5.421476e+01	2.543004e+02
2.590000e-06	6.408637e-06	3.861692e-09	5.397336e+01	2.540305e+02
2.600000e-06	6.379052e-06	3.932538e-09	5.372420e+01	2.537031e+02
2.610000e-06	6.348299e-06	3.935633e-09	5.346520e+01	2.533150e+02
2.620000e-06	6.316035e-06	3.958336e-09	5.319347e+01	2.528645e+02
2.630000e-06	6.282731e-06	3.897294e-09	5.291298e+01	2.523519e+02
2.640000e-06	6.248434e-06	3.893431e-09	5.262414e+01	2.517785e+02
2.650000e-06	6.213052e-06	3.917869e-09	5.232615e+01	2.511473e+02
2.660000e-06	6.176748e-06	3.854574e-09	5.202040e+01	2.504623e+02
2.670000e-06	6.139282e-06	3.894100e-09	5.170486e+01	2.497283e+02
2.680000e-06	6.100458e-06	3.889185e-09	5.137789e+01	2.489507e+02
2.690000e-06	6.060387e-06	3.803456e-09	5.104042e+01	2.481349e+02
2.700000e-06	6.019337e-06	3.788215e-09	5.069469e+01	2.472865e+02
2.710000e-06	5.977469e-06	3.815092e-09	5.034208e+01	2.464105e+02
2.720000e-06	5.934543e-06	3.872901e-09	4.998056e+01	2.455112e+02
2.730000e-06	5.890587e-06	3.789643e-09	4.961036e+01	2.445923e+02
2.740000e-06	5.845666e-06	3.687860e-09	4.923204e+01	2.436565e+02
2.750000e-06	5.799800e-06	3.749955e-09	4.884576e+01	2.427052e+02
2.760000e-06	5.752913e-06	3.785273e-09	4.845088e+01	2.417391e+02
2.770000e-06	5.704818e-06	3.748617e-09	4.804582e+01	2.407580e+02
2.780000e-06	5.655585e-06	3.661513e-09	4.763119e+01	2.397605e+02
2.790000e-06	5.605302e-06	3.645396e-09	4.720770e+01	2.387450e+02
2.800000e-06	5.554083e-06	3.712361e-09	4.677633e+01	2.377091e+02
2.810000e-06	5.501819e-06	3.688411e-09	4.633617e+01	2.366502e+02
2.820000e-06	5.448298e-06	3.629054e-09	4.588541e+01	2.355658e+02
2.830000e-06	5.393501e-06	3.593300e-09	4.542392e+01	2.344533e+02
2.840000e-06	5.337682e-06	3.603943e-09	4.495381e+01	2.333105e+02
2.850000e-06	5.281055e-06	3.616341e-09	4.447690e+01	2.321356e+02
2.860000e-06	5.223498e-06	3.572828e-09	4.399215e+01	2.309271e+02
2.870000e-06	5.164967e-06	3.533768e-09	4.349921e+01	2.296842e+02
2.880000e-06	5.105654e-06	3.513672e-09	4.299967e+01	2.284067e+02
2.890000e-06	5.045601e-06	3.510133e-09	4.249391e+01	2.270945e+02
2.900000e-06	4.984644e-06	3.487951e-09	4.198054e+01	2.257483e+02
2.910000e-06	4.922603e-06	3.454884e-09	4.145803e+01	2.243689e+02
2.920000e-06	4.859487e-06	3.443394e-09	4.092646e+01	2.229573e+02
2.930000e-06	4.795490e-06	3.419890e-09	4.038748e+01	2.215146e+02
2.940000e-06	4.730653e-06	3.372267e-09	3.984143e+01	2.200417e+02
