# Temperatura_=_20.0
# Concentracion g/m^3_=_12600.0
# C_Vs_to_Am_M_A/Vsm_=_65563218390.804596
# pendiente_HvsI_1/m_=_3716.3
# ordenada_HvsI_A/m_=_1297.0
# frecuencia_Hz_=_213149.45492238295

Tiempo_(s)	Campo_(V.s)	Magnetizacion_(V.s)	Campo_(kA/m)	Magnetizacion_(A/m)
0.000000e+00	-6.735552e-06	-3.890325e-09	-5.683270e+01	-2.540464e+02
1.000000e-08	-6.735095e-06	-3.889950e-09	-5.682883e+01	-2.540126e+02
2.000000e-08	-6.733264e-06	-3.892504e-09	-5.681338e+01	-2.539592e+02
3.000000e-08	-6.730032e-06	-3.892883e-09	-5.678612e+01	-2.538877e+02
4.000000e-08	-6.725834e-06	-3.893035e-09	-5.675069e+01	-2.537994e+02
5.000000e-08	-6.720696e-06	-3.893586e-09	-5.670734e+01	-2.536954e+02
6.000000e-08	-6.714446e-06	-3.891537e-09	-5.665461e+01	-2.535765e+02
7.000000e-08	-6.707119e-06	-3.887134e-09	-5.659278e+01	-2.534431e+02
8.000000e-08	-6.698824e-06	-3.875907e-09	-5.652279e+01	-2.532953e+02
9.000000e-08	-6.689151e-06	-3.861419e-09	-5.644117e+01	-2.531332e+02
1.000000e-07	-6.677626e-06	-3.903720e-09	-5.634392e+01	-2.529562e+02
1.100000e-07	-6.664477e-06	-3.925763e-09	-5.623298e+01	-2.527640e+02
1.200000e-07	-6.649891e-06	-3.909602e-09	-5.610991e+01	-2.525559e+02
1.300000e-07	-6.633904e-06	-3.861039e-09	-5.597502e+01	-2.523310e+02
1.400000e-07	-6.616838e-06	-3.738998e-09	-5.583102e+01	-2.520887e+02
1.500000e-07	-6.598827e-06	-3.865859e-09	-5.567904e+01	-2.518281e+02
1.600000e-07	-6.579851e-06	-3.982871e-09	-5.551893e+01	-2.515485e+02
1.700000e-07	-6.560054e-06	-3.798626e-09	-5.535189e+01	-2.512493e+02
1.800000e-07	-6.539157e-06	-3.848699e-09	-5.517557e+01	-2.509298e+02
1.900000e-07	-6.517001e-06	-3.835068e-09	-5.498862e+01	-2.505895e+02
2.000000e-07	-6.494013e-06	-3.690850e-09	-5.479466e+01	-2.502279e+02
2.100000e-07	-6.470102e-06	-3.902973e-09	-5.459290e+01	-2.498447e+02
2.200000e-07	-6.444664e-06	-3.912182e-09	-5.437826e+01	-2.494392e+02
2.300000e-07	-6.417738e-06	-3.664889e-09	-5.415107e+01	-2.490113e+02
2.400000e-07	-6.389773e-06	-3.745865e-09	-5.391510e+01	-2.485603e+02
2.500000e-07	-6.360935e-06	-3.841813e-09	-5.367178e+01	-2.480858e+02
2.600000e-07	-6.331041e-06	-3.785660e-09	-5.341954e+01	-2.475872e+02
2.700000e-07	-6.299967e-06	-3.772976e-09	-5.315734e+01	-2.470637e+02
2.800000e-07	-6.267939e-06	-3.697382e-09	-5.288711e+01	-2.465147e+02
2.900000e-07	-6.234881e-06	-3.695011e-09	-5.260817e+01	-2.459392e+02
3.000000e-07	-6.200484e-06	-3.749262e-09	-5.231794e+01	-2.453365e+02
3.100000e-07	-6.164800e-06	-3.701715e-09	-5.201684e+01	-2.447055e+02
3.200000e-07	-6.128003e-06	-3.693734e-09	-5.170636e+01	-2.440455e+02
3.300000e-07	-6.090107e-06	-3.702589e-09	-5.138661e+01	-2.433557e+02
3.400000e-07	-6.051147e-06	-3.635013e-09	-5.105788e+01	-2.426355e+02
3.500000e-07	-6.011219e-06	-3.641304e-09	-5.072097e+01	-2.418842e+02
3.600000e-07	-5.970247e-06	-3.721124e-09	-5.037527e+01	-2.411017e+02
3.700000e-07	-5.928044e-06	-3.691966e-09	-5.001916e+01	-2.402878e+02
3.800000e-07	-5.884602e-06	-3.565381e-09	-4.965262e+01	-2.394428e+02
3.900000e-07	-5.840107e-06	-3.560567e-09	-4.927718e+01	-2.385669e+02
4.000000e-07	-5.794644e-06	-3.644380e-09	-4.889358e+01	-2.376607e+02
4.100000e-07	-5.748159e-06	-3.640307e-09	-4.850135e+01	-2.367251e+02
4.200000e-07	-5.700643e-06	-3.567217e-09	-4.810042e+01	-2.357608e+02
4.300000e-07	-5.652053e-06	-3.501073e-09	-4.769043e+01	-2.347688e+02
4.400000e-07	-5.602195e-06	-3.520596e-09	-4.726975e+01	-2.337502e+02
4.500000e-07	-5.550940e-06	-3.582435e-09	-4.683727e+01	-2.327056e+02
4.600000e-07	-5.498555e-06	-3.556012e-09	-4.639526e+01	-2.316360e+02
4.700000e-07	-5.445258e-06	-3.476273e-09	-4.594556e+01	-2.305418e+02
4.800000e-07	-5.391034e-06	-3.428837e-09	-4.548803e+01	-2.294235e+02
4.900000e-07	-5.335929e-06	-3.444544e-09	-4.502307e+01	-2.282812e+02
5.000000e-07	-5.279916e-06	-3.473038e-09	-4.455044e+01	-2.271145e+02
5.100000e-07	-5.222902e-06	-3.437969e-09	-4.406938e+01	-2.259231e+02
5.200000e-07	-5.164740e-06	-3.371665e-09	-4.357862e+01	-2.247063e+02
5.300000e-07	-5.105496e-06	-3.347713e-09	-4.307874e+01	-2.234631e+02
5.400000e-07	-5.045370e-06	-3.372795e-09	-4.257141e+01	-2.221925e+02
5.500000e-07	-4.984442e-06	-3.381436e-09	-4.205732e+01	-2.208932e+02
5.600000e-07	-4.922706e-06	-3.341103e-09	-4.153641e+01	-2.195641e+02
5.700000e-07	-4.860173e-06	-3.289204e-09	-4.100877e+01	-2.182041e+02
5.800000e-07	-4.796879e-06	-3.256016e-09	-4.047472e+01	-2.168122e+02
5.900000e-07	-4.732768e-06	-3.253189e-09	-3.993376e+01	-2.153874e+02
6.000000e-07	-4.667685e-06	-3.267606e-09	-3.938461e+01	-2.139294e+02
6.100000e-07	-4.601517e-06	-3.236690e-09	-3.882630e+01	-2.124376e+02
6.200000e-07	-4.534377e-06	-3.162503e-09	-3.825980e+01	-2.109122e+02
6.300000e-07	-4.466559e-06	-3.123738e-09	-3.768757e+01	-2.093532e+02
6.400000e-07	-4.398146e-06	-3.154622e-09	-3.711032e+01	-2.077612e+02
6.500000e-07	-4.329009e-06	-3.178174e-09	-3.652696e+01	-2.061368e+02
6.600000e-07	-4.259102e-06	-3.111494e-09	-3.593710e+01	-2.044807e+02
6.700000e-07	-4.188441e-06	-3.022634e-09	-3.534088e+01	-2.027938e+02
6.800000e-07	-4.117130e-06	-3.016929e-09	-3.473919e+01	-2.010766e+02
6.900000e-07	-4.045223e-06	-3.062357e-09	-3.413245e+01	-1.993300e+02
7.000000e-07	-3.972540e-06	-3.038617e-09	-3.351917e+01	-1.975541e+02
7.100000e-07	-3.898897e-06	-2.933849e-09	-3.289779e+01	-1.957492e+02
7.200000e-07	-3.824284e-06	-2.879654e-09	-3.226823e+01	-1.939149e+02
7.300000e-07	-3.748860e-06	-2.915509e-09	-3.163183e+01	-1.920508e+02
7.400000e-07	-3.672728e-06	-2.934489e-09	-3.098944e+01	-1.901557e+02
7.500000e-07	-3.595930e-06	-2.862190e-09	-3.034145e+01	-1.882284e+02
7.600000e-07	-3.518490e-06	-2.773466e-09	-2.968803e+01	-1.862672e+02
7.700000e-07	-3.440301e-06	-2.768512e-09	-2.902829e+01	-1.842703e+02
7.800000e-07	-3.361419e-06	-2.795892e-09	-2.836270e+01	-1.822354e+02
7.900000e-07	-3.281845e-06	-2.762131e-09	-2.769129e+01	-1.801604e+02
8.000000e-07	-3.201482e-06	-2.679558e-09	-2.701320e+01	-1.780431e+02
8.100000e-07	-3.120538e-06	-2.628028e-09	-2.633022e+01	-1.758815e+02
8.200000e-07	-3.039203e-06	-2.630775e-09	-2.564394e+01	-1.736736e+02
8.300000e-07	-2.957404e-06	-2.621042e-09	-2.495375e+01	-1.714179e+02
8.400000e-07	-2.875034e-06	-2.566695e-09	-2.425873e+01	-1.691130e+02
8.500000e-07	-2.792169e-06	-2.505571e-09	-2.355954e+01	-1.667581e+02
8.600000e-07	-2.708929e-06	-2.472907e-09	-2.285718e+01	-1.643527e+02
8.700000e-07	-2.625269e-06	-2.459500e-09	-2.215128e+01	-1.618965e+02
8.800000e-07	-2.541237e-06	-2.428563e-09	-2.144224e+01	-1.593898e+02
8.900000e-07	-2.456821e-06	-2.375496e-09	-2.072997e+01	-1.568330e+02
9.000000e-07	-2.371928e-06	-2.319530e-09	-2.001366e+01	-1.542269e+02
9.100000e-07	-2.286664e-06	-2.276803e-09	-1.929422e+01	-1.515721e+02
9.200000e-07	-2.201141e-06	-2.249886e-09	-1.857261e+01	-1.488696e+02
9.300000e-07	-2.115301e-06	-2.219345e-09	-1.784831e+01	-1.461199e+02
9.400000e-07	-2.029085e-06	-2.171144e-09	-1.712085e+01	-1.433237e+02
9.500000e-07	-1.942464e-06	-2.112915e-09	-1.638997e+01	-1.404813e+02
9.600000e-07	-1.855511e-06	-2.066701e-09	-1.565628e+01	-1.375925e+02
9.700000e-07	-1.768349e-06	-2.041374e-09	-1.492083e+01	-1.346572e+02
9.800000e-07	-1.680952e-06	-2.009400e-09	-1.418340e+01	-1.316744e+02
9.900000e-07	-1.593250e-06	-1.950403e-09	-1.344339e+01	-1.286434e+02
1.000000e-06	-1.505233e-06	-1.883193e-09	-1.270073e+01	-1.255626e+02
1.010000e-06	-1.416982e-06	-1.839164e-09	-1.195609e+01	-1.224305e+02
1.020000e-06	-1.328558e-06	-1.814413e-09	-1.121000e+01	-1.192455e+02
1.030000e-06	-1.239912e-06	-1.768706e-09	-1.046203e+01	-1.160057e+02
1.040000e-06	-1.150920e-06	-1.696184e-09	-9.711140e+00	-1.127093e+02
1.050000e-06	-1.061583e-06	-1.632611e-09	-8.957341e+00	-1.093549e+02
1.060000e-06	-9.720963e-07	-1.599924e-09	-8.202275e+00	-1.059409e+02
1.070000e-06	-8.824716e-07	-1.569199e-09	-7.446047e+00	-1.024662e+02
1.080000e-06	-7.926639e-07	-1.506049e-09	-6.688275e+00	-9.893014e+01
1.090000e-06	-7.026244e-07	-1.429900e-09	-5.928547e+00	-9.533217e+01
1.100000e-06	-6.123151e-07	-1.370466e-09	-5.166542e+00	-9.167223e+01
1.110000e-06	-5.219738e-07	-1.328208e-09	-4.404268e+00	-8.795052e+01
1.120000e-06	-4.316113e-07	-1.278461e-09	-3.641814e+00	-8.416749e+01
1.130000e-06	-3.411399e-07	-1.208804e-09	-2.878443e+00	-8.032379e+01
1.140000e-06	-2.505438e-07	-1.139061e-09	-2.114018e+00	-7.642008e+01
1.150000e-06	-1.598535e-07	-1.081594e-09	-1.348799e+00	-7.245703e+01
1.160000e-06	-6.914987e-08	-1.032587e-09	-5.834671e-01	-6.843510e+01
1.170000e-06	2.162520e-08	-9.770478e-10	1.824673e-01	-6.435453e+01
1.180000e-06	1.123821e-07	-9.057079e-10	9.482488e-01	-6.021516e+01
1.190000e-06	2.030345e-07	-8.298033e-10	1.713148e+00	-5.601642e+01
1.200000e-06	2.936253e-07	-7.616033e-10	2.477528e+00	-5.175726e+01
1.210000e-06	3.842608e-07	-7.053905e-10	3.242285e+00	-4.743618e+01
1.220000e-06	4.748738e-07	-6.462975e-10	4.006851e+00	-4.305119e+01
1.230000e-06	5.653136e-07	-5.704993e-10	4.769957e+00	-3.859995e+01
1.240000e-06	6.556114e-07	-4.881464e-10	5.531865e+00	-3.407984e+01
1.250000e-06	7.457521e-07	-4.185791e-10	6.292446e+00	-2.948811e+01
1.260000e-06	8.356372e-07	-3.607978e-10	7.050871e+00	-2.482206e+01
1.270000e-06	9.252840e-07	-2.914649e-10	7.807286e+00	-2.007922e+01
1.280000e-06	1.014720e-06	-2.031710e-10	8.561925e+00	-1.525757e+01
1.290000e-06	1.103891e-06	-1.168098e-10	9.314318e+00	-1.035574e+01
1.300000e-06	1.192806e-06	-4.633170e-11	1.006456e+01	-5.373206e+00
1.310000e-06	1.281468e-06	1.665448e-11	1.081267e+01	-3.105005e-01
1.320000e-06	1.369934e-06	9.677358e-11	1.155912e+01	4.830658e+00
1.330000e-06	1.458206e-06	1.927458e-10	1.230393e+01	1.004723e+01
1.340000e-06	1.546201e-06	2.792380e-10	1.304641e+01	1.533476e+01
1.350000e-06	1.633919e-06	3.497477e-10	1.378655e+01	2.068739e+01
1.360000e-06	1.721364e-06	4.231302e-10	1.452439e+01	2.609781e+01
1.370000e-06	1.808526e-06	5.126648e-10	1.525983e+01	3.155738e+01
1.380000e-06	1.895402e-06	6.077236e-10	1.599287e+01	3.705622e+01
1.390000e-06	1.981970e-06	6.919250e-10	1.672330e+01	4.258339e+01
1.400000e-06	2.068216e-06	7.675179e-10	1.745103e+01	4.812708e+01
1.410000e-06	2.154149e-06	8.482912e-10	1.817610e+01	5.367480e+01
1.420000e-06	2.239658e-06	9.391927e-10	1.889761e+01	5.921373e+01
1.430000e-06	2.324700e-06	1.032148e-09	1.961517e+01	6.473086e+01
1.440000e-06	2.409388e-06	1.116242e-09	2.032974e+01	7.021336e+01
1.450000e-06	2.493792e-06	1.193357e-09	2.104191e+01	7.564878e+01
1.460000e-06	2.577884e-06	1.269714e-09	2.175146e+01	8.102530e+01
1.470000e-06	2.661605e-06	1.353431e-09	2.245787e+01	8.633194e+01
1.480000e-06	2.744925e-06	1.439671e-09	2.316091e+01	9.155874e+01
1.490000e-06	2.827828e-06	1.517658e-09	2.386042e+01	9.669692e+01
1.500000e-06	2.910245e-06	1.586500e-09	2.455583e+01	1.017389e+02
1.510000e-06	2.992036e-06	1.656911e-09	2.524596e+01	1.066786e+02
1.520000e-06	3.073233e-06	1.736415e-09	2.593107e+01	1.115110e+02
1.530000e-06	3.153949e-06	1.816244e-09	2.661213e+01	1.162326e+02
1.540000e-06	3.234177e-06	1.882966e-09	2.728907e+01	1.208411e+02
1.550000e-06	3.313734e-06	1.942573e-09	2.796035e+01	1.253352e+02
1.560000e-06	3.392589e-06	2.009046e-09	2.862571e+01	1.297149e+02
1.570000e-06	3.470850e-06	2.080971e-09	2.928606e+01	1.339808e+02
1.580000e-06	3.548546e-06	2.146447e-09	2.994163e+01	1.381344e+02
1.590000e-06	3.625633e-06	2.203056e-09	3.059207e+01	1.421778e+02
1.600000e-06	3.702072e-06	2.259159e-09	3.123705e+01	1.461134e+02
1.610000e-06	3.777875e-06	2.322703e-09	3.187665e+01	1.499439e+02
1.620000e-06	3.852881e-06	2.386479e-09	3.250953e+01	1.536722e+02
1.630000e-06	3.926925e-06	2.440070e-09	3.313429e+01	1.573013e+02
1.640000e-06	3.999979e-06	2.484571e-09	3.375069e+01	1.608339e+02
1.650000e-06	4.072204e-06	2.529254e-09	3.436011e+01	1.642727e+02
1.660000e-06	4.143799e-06	2.581182e-09	3.496421e+01	1.676203e+02
1.670000e-06	4.214733e-06	2.634677e-09	3.556273e+01	1.708789e+02
1.680000e-06	4.284954e-06	2.682032e-09	3.615523e+01	1.740504e+02
1.690000e-06	4.354406e-06	2.724866e-09	3.674125e+01	1.771369e+02
1.700000e-06	4.423068e-06	2.769298e-09	3.732060e+01	1.801398e+02
1.710000e-06	4.491086e-06	2.816192e-09	3.789452e+01	1.830606e+02
1.720000e-06	4.558520e-06	2.859760e-09	3.846351e+01	1.859007e+02
1.730000e-06	4.625076e-06	2.897111e-09	3.902509e+01	1.886612e+02
1.740000e-06	4.690449e-06	2.929593e-09	3.957669e+01	1.913435e+02
1.750000e-06	4.754806e-06	2.963238e-09	4.011972e+01	1.939488e+02
1.760000e-06	4.818458e-06	3.001963e-09	4.065679e+01	1.964784e+02
1.770000e-06	4.881447e-06	3.040815e-09	4.118828e+01	1.989336e+02
1.780000e-06	4.943589e-06	3.074669e-09	4.171261e+01	2.013159e+02
1.790000e-06	5.004879e-06	3.104737e-09	4.222976e+01	2.036268e+02
1.800000e-06	5.065405e-06	3.138605e-09	4.274046e+01	2.058680e+02
1.810000e-06	5.125236e-06	3.173824e-09	4.324530e+01	2.080411e+02
1.820000e-06	5.184329e-06	3.203880e-09	4.374391e+01	2.101478e+02
1.830000e-06	5.242239e-06	3.228544e-09	4.423253e+01	2.121899e+02
1.840000e-06	5.298927e-06	3.252763e-09	4.471085e+01	2.141690e+02
1.850000e-06	5.354774e-06	3.280473e-09	4.518207e+01	2.160868e+02
1.860000e-06	5.409772e-06	3.309889e-09	4.564613e+01	2.179446e+02
1.870000e-06	5.463814e-06	3.336552e-09	4.610213e+01	2.197440e+02
1.880000e-06	5.516849e-06	3.359880e-09	4.654962e+01	2.214860e+02
1.890000e-06	5.568828e-06	3.384030e-09	4.698820e+01	2.231716e+02
1.900000e-06	5.619613e-06	3.410922e-09	4.741671e+01	2.248018e+02
1.910000e-06	5.668986e-06	3.436834e-09	4.783331e+01	2.263772e+02
1.920000e-06	5.717147e-06	3.458831e-09	4.823967e+01	2.278982e+02
1.930000e-06	5.764412e-06	3.477431e-09	4.863848e+01	2.293654e+02
1.940000e-06	5.810728e-06	3.495599e-09	4.902929e+01	2.307789e+02
1.950000e-06	5.856022e-06	3.515525e-09	4.941146e+01	2.321392e+02
1.960000e-06	5.900344e-06	3.536317e-09	4.978545e+01	2.334466e+02
1.970000e-06	5.943831e-06	3.555412e-09	5.015237e+01	2.347015e+02
1.980000e-06	5.986266e-06	3.573459e-09	5.051043e+01	2.359044e+02
1.990000e-06	6.027288e-06	3.592299e-09	5.085656e+01	2.370562e+02
2.000000e-06	6.067175e-06	3.611544e-09	5.119312e+01	2.381576e+02
2.010000e-06	6.106102e-06	3.628334e-09	5.152157e+01	2.392100e+02
2.020000e-06	6.144022e-06	3.641590e-09	5.184153e+01	2.402147e+02
2.030000e-06	6.180951e-06	3.655065e-09	5.215312e+01	2.411734e+02
2.040000e-06	6.216962e-06	3.670026e-09	5.245697e+01	2.420880e+02
2.050000e-06	6.252041e-06	3.685281e-09	5.275296e+01	2.429606e+02
2.060000e-06	6.285791e-06	3.698961e-09	5.303773e+01	2.437933e+02
2.070000e-06	6.318164e-06	3.709948e-09	5.331089e+01	2.445883e+02
2.080000e-06	6.349454e-06	3.721448e-09	5.357490e+01	2.453480e+02
2.090000e-06	6.379737e-06	3.735400e-09	5.383042e+01	2.460745e+02
2.100000e-06	6.408971e-06	3.748006e-09	5.407709e+01	2.467698e+02
2.110000e-06	6.437243e-06	3.758266e-09	5.431564e+01	2.474356e+02
2.120000e-06	6.464549e-06	3.768142e-09	5.454605e+01	2.480735e+02
2.130000e-06	6.490488e-06	3.778645e-09	5.476491e+01	2.486847e+02
2.140000e-06	6.514942e-06	3.787147e-09	5.497124e+01	2.492699e+02
2.150000e-06	6.538260e-06	3.795610e-09	5.516799e+01	2.498296e+02
2.160000e-06	6.560508e-06	3.805393e-09	5.535572e+01	2.503638e+02
2.170000e-06	6.581661e-06	3.815220e-09	5.553421e+01	2.508722e+02
2.180000e-06	6.601846e-06	3.825638e-09	5.570452e+01	2.513543e+02
2.190000e-06	6.621055e-06	3.836076e-09	5.586660e+01	2.518092e+02
2.200000e-06	6.639080e-06	3.845033e-09	5.601869e+01	2.522359e+02
2.210000e-06	6.655855e-06	3.851359e-09	5.616023e+01	2.526334e+02
2.220000e-06	6.671438e-06	3.856216e-09	5.629171e+01	2.530004e+02
2.230000e-06	6.685705e-06	3.862047e-09	5.641210e+01	2.533362e+02
2.240000e-06	6.698744e-06	3.868238e-09	5.652211e+01	2.536397e+02
2.250000e-06	6.710639e-06	3.871833e-09	5.662248e+01	2.539104e+02
2.260000e-06	6.721125e-06	3.872408e-09	5.671096e+01	2.541481e+02
2.270000e-06	6.730035e-06	3.874083e-09	5.678614e+01	2.543527e+02
2.280000e-06	6.737679e-06	3.879233e-09	5.685063e+01	2.545246e+02
2.290000e-06	6.744303e-06	3.884712e-09	5.690653e+01	2.546646e+02
2.300000e-06	6.749832e-06	3.887133e-09	5.695319e+01	2.547737e+02
2.310000e-06	6.754225e-06	3.886191e-09	5.699025e+01	2.548533e+02
2.320000e-06	6.757612e-06	3.885736e-09	5.701883e+01	2.549049e+02
2.330000e-06	6.759703e-06	3.888228e-09	5.703647e+01	2.549304e+02
2.340000e-06	6.760299e-06	3.889736e-09	5.704150e+01	2.549316e+02
2.350000e-06	6.759805e-06	3.888255e-09	5.703733e+01	2.549103e+02
2.360000e-06	6.758303e-06	3.886495e-09	5.702466e+01	2.548683e+02
2.370000e-06	6.755727e-06	3.885599e-09	5.700292e+01	2.548074e+02
2.380000e-06	6.752124e-06	3.887930e-09	5.697252e+01	2.547290e+02
2.390000e-06	6.747584e-06	3.885643e-09	5.693421e+01	2.546342e+02
2.400000e-06	6.741824e-06	3.881148e-09	5.688561e+01	2.545241e+02
2.410000e-06	6.734666e-06	3.879170e-09	5.682521e+01	2.543993e+02
2.420000e-06	6.726417e-06	3.884737e-09	5.675562e+01	2.542601e+02
2.430000e-06	6.717182e-06	3.901976e-09	5.667769e+01	2.541065e+02
2.440000e-06	6.706778e-06	3.833900e-09	5.658991e+01	2.539384e+02
2.450000e-06	6.694638e-06	3.798650e-09	5.648747e+01	2.537554e+02
2.460000e-06	6.680386e-06	3.808355e-09	5.636722e+01	2.535568e+02
2.470000e-06	6.664664e-06	3.881973e-09	5.623456e+01	2.533420e+02
2.480000e-06	6.648460e-06	3.988593e-09	5.609783e+01	2.531102e+02
2.490000e-06	6.631737e-06	3.812500e-09	5.595673e+01	2.528606e+02
2.500000e-06	6.613562e-06	3.754955e-09	5.580337e+01	2.525924e+02
2.510000e-06	6.594035e-06	3.905393e-09	5.563861e+01	2.523050e+02
2.520000e-06	6.573893e-06	3.796511e-09	5.546866e+01	2.519976e+02
2.530000e-06	6.552564e-06	3.868781e-09	5.528869e+01	2.516698e+02
2.540000e-06	6.529544e-06	3.960703e-09	5.509446e+01	2.513210e+02
2.550000e-06	6.505392e-06	3.683331e-09	5.489067e+01	2.509507e+02
2.560000e-06	6.480346e-06	3.733961e-09	5.467934e+01	2.505585e+02
2.570000e-06	6.454317e-06	3.929464e-09	5.445971e+01	2.501441e+02
2.580000e-06	6.427166e-06	3.745651e-09	5.423062e+01	2.497069e+02
2.590000e-06	6.398799e-06	3.717674e-09	5.399127e+01	2.492465e+02
2.600000e-06	6.369466e-06	3.795203e-09	5.374376e+01	2.487624e+02
2.610000e-06	6.338897e-06	3.737889e-09	5.348583e+01	2.482538e+02
2.620000e-06	6.306817e-06	3.803889e-09	5.321514e+01	2.477202e+02
2.630000e-06	6.273666e-06	3.743783e-09	5.293543e+01	2.471606e+02
2.640000e-06	6.239444e-06	3.747728e-09	5.264667e+01	2.465742e+02
2.650000e-06	6.204114e-06	3.815630e-09	5.234857e+01	2.459602e+02
2.660000e-06	6.167849e-06	3.644468e-09	5.204258e+01	2.453177e+02
2.670000e-06	6.130488e-06	3.704501e-09	5.172733e+01	2.446458e+02
2.680000e-06	6.091918e-06	3.819843e-09	5.140189e+01	2.439438e+02
2.690000e-06	6.052070e-06	3.690593e-09	5.106567e+01	2.432111e+02
2.700000e-06	6.011145e-06	3.618869e-09	5.072035e+01	2.424473e+02
2.710000e-06	5.969336e-06	3.624489e-09	5.036758e+01	2.416522e+02
2.720000e-06	5.926537e-06	3.754344e-09	5.000645e+01	2.408257e+02
2.730000e-06	5.882746e-06	3.720431e-09	4.963696e+01	2.399682e+02
2.740000e-06	5.838006e-06	3.544193e-09	4.925945e+01	2.390801e+02
2.750000e-06	5.792364e-06	3.581695e-09	4.887434e+01	2.381619e+02
2.760000e-06	5.745708e-06	3.630973e-09	4.848067e+01	2.372147e+02
2.770000e-06	5.697865e-06	3.653381e-09	4.807698e+01	2.362391e+02
2.780000e-06	5.648901e-06	3.575450e-09	4.766384e+01	2.352363e+02
2.790000e-06	5.598858e-06	3.489010e-09	4.724159e+01	2.342071e+02
2.800000e-06	5.547787e-06	3.549193e-09	4.681066e+01	2.331523e+02
2.810000e-06	5.495713e-06	3.546577e-09	4.637128e+01	2.320728e+02
2.820000e-06	5.442480e-06	3.545134e-09	4.592212e+01	2.309689e+02
2.830000e-06	5.388011e-06	3.506757e-09	4.546252e+01	2.298409e+02
2.840000e-06	5.332343e-06	3.450933e-09	4.499281e+01	2.286887e+02
2.850000e-06	5.275747e-06	3.466600e-09	4.451527e+01	2.275122e+02
2.860000e-06	5.218371e-06	3.457917e-09	4.403114e+01	2.263107e+02
2.870000e-06	5.160093e-06	3.454423e-09	4.353941e+01	2.250833e+02
2.880000e-06	5.100967e-06	3.408532e-09	4.304052e+01	2.238292e+02
2.890000e-06	5.041048e-06	3.363039e-09	4.253495e+01	2.225472e+02
2.900000e-06	4.980259e-06	3.350991e-09	4.202202e+01	2.212361e+02
2.910000e-06	4.918468e-06	3.354871e-09	4.150065e+01	2.198947e+02
2.920000e-06	4.855603e-06	3.368687e-09	4.097021e+01	2.185220e+02
2.930000e-06	4.791763e-06	3.312199e-09	4.043155e+01	2.171169e+02
2.940000e-06	4.727116e-06	3.233850e-09	3.988607e+01	2.156788e+02
