# Temperatura_=_20.0
# Concentracion g/m^3_=_12600.0
# C_Vs_to_Am_M_A/Vsm_=_65563218390.804596
# pendiente_HvsI_1/m_=_3716.3
# ordenada_HvsI_A/m_=_1297.0
# frecuencia_Hz_=_213154.08896711736

Tiempo_(s)	Campo_(V.s)	Magnetizacion_(V.s)	Campo_(kA/m)	Magnetizacion_(A/m)
0.000000e+00	-6.757711e-06	-3.918267e-09	-5.682949e+01	-2.540550e+02
1.000000e-08	-6.757007e-06	-3.920517e-09	-5.682357e+01	-2.540154e+02
2.000000e-08	-6.754961e-06	-3.917581e-09	-5.680637e+01	-2.539491e+02
3.000000e-08	-6.751601e-06	-3.914658e-09	-5.677811e+01	-2.538587e+02
4.000000e-08	-6.747275e-06	-3.915630e-09	-5.674173e+01	-2.537471e+02
5.000000e-08	-6.741895e-06	-3.916095e-09	-5.669649e+01	-2.536181e+02
6.000000e-08	-6.735290e-06	-3.912380e-09	-5.664094e+01	-2.534753e+02
7.000000e-08	-6.727664e-06	-3.903102e-09	-5.657681e+01	-2.533228e+02
8.000000e-08	-6.719073e-06	-3.893143e-09	-5.650456e+01	-2.531645e+02
9.000000e-08	-6.708952e-06	-3.919294e-09	-5.641945e+01	-2.530042e+02
1.000000e-07	-6.697032e-06	-3.942198e-09	-5.631921e+01	-2.528450e+02
1.100000e-07	-6.683603e-06	-3.936400e-09	-5.620627e+01	-2.526894e+02
1.200000e-07	-6.668719e-06	-3.901423e-09	-5.608110e+01	-2.525390e+02
1.300000e-07	-6.652493e-06	-3.819668e-09	-5.594465e+01	-2.523943e+02
1.400000e-07	-6.635231e-06	-3.860591e-09	-5.579948e+01	-2.522550e+02
1.500000e-07	-6.616924e-06	-3.953616e-09	-5.564554e+01	-2.521194e+02
1.600000e-07	-6.597645e-06	-3.889180e-09	-5.548341e+01	-2.519847e+02
1.700000e-07	-6.577552e-06	-3.859032e-09	-5.531443e+01	-2.518471e+02
1.800000e-07	-6.556251e-06	-3.856311e-09	-5.513530e+01	-2.517022e+02
1.900000e-07	-6.533856e-06	-3.804543e-09	-5.494697e+01	-2.515444e+02
2.000000e-07	-6.510691e-06	-3.887297e-09	-5.475216e+01	-2.513682e+02
2.100000e-07	-6.486383e-06	-3.903393e-09	-5.454774e+01	-2.511675e+02
2.200000e-07	-6.460535e-06	-3.766283e-09	-5.433037e+01	-2.509364e+02
2.300000e-07	-6.433281e-06	-3.763687e-09	-5.410118e+01	-2.506695e+02
2.400000e-07	-6.404983e-06	-3.837951e-09	-5.386320e+01	-2.503618e+02
2.500000e-07	-6.375778e-06	-3.846775e-09	-5.361760e+01	-2.500091e+02
2.600000e-07	-6.345496e-06	-3.782827e-09	-5.336294e+01	-2.496084e+02
2.700000e-07	-6.314065e-06	-3.695788e-09	-5.309861e+01	-2.491574e+02
2.800000e-07	-6.281673e-06	-3.715480e-09	-5.282622e+01	-2.486554e+02
2.900000e-07	-6.248217e-06	-3.797796e-09	-5.254486e+01	-2.481024e+02
3.000000e-07	-6.213457e-06	-3.775606e-09	-5.225254e+01	-2.474999e+02
3.100000e-07	-6.177481e-06	-3.674578e-09	-5.195001e+01	-2.468499e+02
3.200000e-07	-6.140373e-06	-3.648717e-09	-5.163795e+01	-2.461556e+02
3.300000e-07	-6.102121e-06	-3.703819e-09	-5.131626e+01	-2.454204e+02
3.400000e-07	-6.062893e-06	-3.744825e-09	-5.098637e+01	-2.446484e+02
3.500000e-07	-6.022751e-06	-3.716198e-09	-5.064879e+01	-2.438437e+02
3.600000e-07	-5.981435e-06	-3.633952e-09	-5.030134e+01	-2.430101e+02
3.700000e-07	-5.938729e-06	-3.604176e-09	-4.994220e+01	-2.421514e+02
3.800000e-07	-5.894861e-06	-3.675737e-09	-4.957329e+01	-2.412706e+02
3.900000e-07	-5.850030e-06	-3.701203e-09	-4.919628e+01	-2.403704e+02
4.000000e-07	-5.804207e-06	-3.607274e-09	-4.881093e+01	-2.394525e+02
4.100000e-07	-5.757348e-06	-3.529099e-09	-4.841686e+01	-2.385179e+02
4.200000e-07	-5.709521e-06	-3.572912e-09	-4.801466e+01	-2.375670e+02
4.300000e-07	-5.660652e-06	-3.638720e-09	-4.760369e+01	-2.365992e+02
4.400000e-07	-5.610383e-06	-3.597526e-09	-4.718095e+01	-2.356135e+02
4.500000e-07	-5.558676e-06	-3.496549e-09	-4.674612e+01	-2.346084e+02
4.600000e-07	-5.505868e-06	-3.472528e-09	-4.630202e+01	-2.335819e+02
4.700000e-07	-5.452148e-06	-3.537203e-09	-4.585026e+01	-2.325318e+02
4.800000e-07	-5.397543e-06	-3.551542e-09	-4.539106e+01	-2.314560e+02
4.900000e-07	-5.342031e-06	-3.468661e-09	-4.492422e+01	-2.303523e+02
5.000000e-07	-5.285605e-06	-3.394396e-09	-4.444971e+01	-2.292190e+02
5.100000e-07	-5.228169e-06	-3.409809e-09	-4.396669e+01	-2.280542e+02
5.200000e-07	-5.169582e-06	-3.462411e-09	-4.347400e+01	-2.268569e+02
5.300000e-07	-5.109958e-06	-3.438519e-09	-4.297259e+01	-2.256263e+02
5.400000e-07	-5.049524e-06	-3.352979e-09	-4.246436e+01	-2.243618e+02
5.500000e-07	-4.988257e-06	-3.316634e-09	-4.194913e+01	-2.230636e+02
5.600000e-07	-4.926126e-06	-3.351986e-09	-4.142664e+01	-2.217320e+02
5.700000e-07	-4.863230e-06	-3.367550e-09	-4.089771e+01	-2.203674e+02
5.800000e-07	-4.799520e-06	-3.302187e-09	-4.036193e+01	-2.189706e+02
5.900000e-07	-4.734913e-06	-3.235955e-09	-3.981862e+01	-2.175426e+02
6.000000e-07	-4.669292e-06	-3.232031e-09	-3.926677e+01	-2.160840e+02
6.100000e-07	-4.602653e-06	-3.247930e-09	-3.870637e+01	-2.145955e+02
6.200000e-07	-4.535157e-06	-3.225796e-09	-3.813876e+01	-2.130778e+02
6.300000e-07	-4.466940e-06	-3.171417e-09	-3.756508e+01	-2.115311e+02
6.400000e-07	-4.398087e-06	-3.138530e-09	-3.698606e+01	-2.099557e+02
6.500000e-07	-4.328529e-06	-3.131480e-09	-3.640110e+01	-2.083512e+02
6.600000e-07	-4.258227e-06	-3.122468e-09	-3.580989e+01	-2.067172e+02
6.700000e-07	-4.187260e-06	-3.095669e-09	-3.521309e+01	-2.050533e+02
6.800000e-07	-4.115530e-06	-3.055103e-09	-3.460987e+01	-2.033584e+02
6.900000e-07	-4.043008e-06	-3.021513e-09	-3.399999e+01	-2.016317e+02
7.000000e-07	-3.969679e-06	-2.996087e-09	-3.338332e+01	-1.998721e+02
7.100000e-07	-3.895431e-06	-2.978375e-09	-3.275893e+01	-1.980784e+02
7.200000e-07	-3.820299e-06	-2.959463e-09	-3.212710e+01	-1.962495e+02
7.300000e-07	-3.744434e-06	-2.923266e-09	-3.148911e+01	-1.943842e+02
7.400000e-07	-3.667920e-06	-2.878178e-09	-3.084566e+01	-1.924815e+02
7.500000e-07	-3.590738e-06	-2.846835e-09	-3.019659e+01	-1.905402e+02
7.600000e-07	-3.512852e-06	-2.837548e-09	-2.954160e+01	-1.885595e+02
7.700000e-07	-3.434260e-06	-2.818769e-09	-2.888068e+01	-1.865383e+02
7.800000e-07	-3.354925e-06	-2.769172e-09	-2.821350e+01	-1.844758e+02
7.900000e-07	-3.274872e-06	-2.718597e-09	-2.754029e+01	-1.823711e+02
8.000000e-07	-3.194147e-06	-2.695100e-09	-2.686143e+01	-1.802233e+02
8.100000e-07	-3.112841e-06	-2.685155e-09	-2.617767e+01	-1.780317e+02
8.200000e-07	-3.031061e-06	-2.648347e-09	-2.548994e+01	-1.757953e+02
8.300000e-07	-2.948826e-06	-2.586545e-09	-2.479838e+01	-1.735134e+02
8.400000e-07	-2.866171e-06	-2.542614e-09	-2.410329e+01	-1.711851e+02
8.500000e-07	-2.783026e-06	-2.525901e-09	-2.340407e+01	-1.688095e+02
8.600000e-07	-2.699430e-06	-2.505624e-09	-2.270107e+01	-1.663860e+02
8.700000e-07	-2.615454e-06	-2.457515e-09	-2.199486e+01	-1.639137e+02
8.800000e-07	-2.531104e-06	-2.402082e-09	-2.128552e+01	-1.613922e+02
8.900000e-07	-2.446413e-06	-2.366558e-09	-2.057330e+01	-1.588210e+02
9.000000e-07	-2.361307e-06	-2.340456e-09	-1.985759e+01	-1.561997e+02
9.100000e-07	-2.275761e-06	-2.303373e-09	-1.913819e+01	-1.535281e+02
9.200000e-07	-2.189855e-06	-2.252972e-09	-1.841575e+01	-1.508062e+02
9.300000e-07	-2.103552e-06	-2.204001e-09	-1.768998e+01	-1.480341e+02
9.400000e-07	-2.016902e-06	-2.164256e-09	-1.696129e+01	-1.452120e+02
9.500000e-07	-1.929997e-06	-2.126411e-09	-1.623046e+01	-1.423402e+02
9.600000e-07	-1.842793e-06	-2.086405e-09	-1.549711e+01	-1.394191e+02
9.700000e-07	-1.755313e-06	-2.039697e-09	-1.476144e+01	-1.364488e+02
9.800000e-07	-1.667602e-06	-1.989372e-09	-1.402383e+01	-1.334297e+02
9.900000e-07	-1.579495e-06	-1.941030e-09	-1.328288e+01	-1.303618e+02
1.000000e-06	-1.490977e-06	-1.897948e-09	-1.253849e+01	-1.272448e+02
1.010000e-06	-1.402229e-06	-1.856789e-09	-1.179215e+01	-1.240786e+02
1.020000e-06	-1.313254e-06	-1.805271e-09	-1.104391e+01	-1.208625e+02
1.030000e-06	-1.224028e-06	-1.745951e-09	-1.029356e+01	-1.175956e+02
1.040000e-06	-1.134551e-06	-1.693103e-09	-9.541092e+00	-1.142767e+02
1.050000e-06	-1.044868e-06	-1.654027e-09	-8.786899e+00	-1.109047e+02
1.060000e-06	-9.550560e-07	-1.614602e-09	-8.031617e+00	-1.074778e+02
1.070000e-06	-8.651708e-07	-1.556082e-09	-7.275721e+00	-1.039946e+02
1.080000e-06	-7.750911e-07	-1.487989e-09	-6.518188e+00	-1.004533e+02
1.090000e-06	-6.847277e-07	-1.431574e-09	-5.758270e+00	-9.685223e+01
1.100000e-06	-5.942445e-07	-1.386434e-09	-4.997345e+00	-9.318995e+01
1.110000e-06	-5.037358e-07	-1.334495e-09	-4.236206e+00	-8.946503e+01
1.120000e-06	-4.131372e-07	-1.266881e-09	-3.474309e+00	-8.567632e+01
1.130000e-06	-3.223794e-07	-1.200167e-09	-2.711075e+00	-8.182291e+01
1.140000e-06	-2.314560e-07	-1.146771e-09	-1.946447e+00	-7.790416e+01
1.150000e-06	-1.405170e-07	-1.097452e-09	-1.181689e+00	-7.391969e+01
1.160000e-06	-4.967112e-08	-1.038094e-09	-4.177131e-01	-6.986932e+01
1.170000e-06	4.121749e-08	-9.666857e-10	3.466217e-01	-6.575306e+01
1.180000e-06	1.321575e-07	-8.964520e-10	1.111389e+00	-6.157099e+01
1.190000e-06	2.230288e-07	-8.352754e-10	1.875578e+00	-5.732324e+01
1.200000e-06	3.138372e-07	-7.758257e-10	2.639238e+00	-5.300986e+01
1.210000e-06	4.045873e-07	-7.076922e-10	3.402408e+00	-4.863076e+01
1.220000e-06	4.952663e-07	-6.319340e-10	4.164980e+00	-4.418565e+01
1.230000e-06	5.858541e-07	-5.575188e-10	4.926786e+00	-3.967400e+01
1.240000e-06	6.762927e-07	-4.926691e-10	5.687336e+00	-3.509503e+01
1.250000e-06	7.665740e-07	-4.310974e-10	6.446563e+00	-3.044774e+01
1.260000e-06	8.566981e-07	-3.586301e-10	7.204469e+00	-2.573094e+01
1.270000e-06	9.466823e-07	-2.747117e-10	7.961198e+00	-2.094339e+01
1.280000e-06	1.036536e-06	-1.948294e-10	8.716828e+00	-1.608390e+01
1.290000e-06	1.126195e-06	-1.268028e-10	9.470821e+00	-1.115149e+01
1.300000e-06	1.215582e-06	-5.661262e-11	1.022253e+01	-6.145607e+00
1.310000e-06	1.304712e-06	2.691185e-11	1.097208e+01	-1.066299e+00
1.320000e-06	1.393624e-06	1.149396e-10	1.171979e+01	4.085589e+00
1.330000e-06	1.482207e-06	1.935476e-10	1.246474e+01	9.308217e+00
1.340000e-06	1.570464e-06	2.645406e-10	1.320693e+01	1.459859e+01
1.350000e-06	1.658466e-06	3.415481e-10	1.394700e+01	1.995241e+01
1.360000e-06	1.746138e-06	4.306166e-10	1.468428e+01	2.536404e+01
1.370000e-06	1.833447e-06	5.181081e-10	1.541851e+01	3.082640e+01
1.380000e-06	1.920432e-06	5.966400e-10	1.615002e+01	3.633103e+01
1.390000e-06	2.007173e-06	6.755129e-10	1.687948e+01	4.186820e+01
1.400000e-06	2.093631e-06	7.611714e-10	1.760655e+01	4.742698e+01
1.410000e-06	2.179709e-06	8.518145e-10	1.833043e+01	5.299551e+01
1.420000e-06	2.265371e-06	9.395106e-10	1.905081e+01	5.856119e+01
1.430000e-06	2.350628e-06	1.021523e-09	1.976779e+01	6.411098e+01
1.440000e-06	2.435544e-06	1.103068e-09	2.048190e+01	6.963168e+01
1.450000e-06	2.520200e-06	1.186072e-09	2.119382e+01	7.511026e+01
1.460000e-06	2.604555e-06	1.268949e-09	2.190321e+01	8.053413e+01
1.470000e-06	2.688501e-06	1.348526e-09	2.260916e+01	8.589146e+01
1.480000e-06	2.771975e-06	1.426053e-09	2.331114e+01	9.117137e+01
1.490000e-06	2.854933e-06	1.502621e-09	2.400878e+01	9.636419e+01
1.500000e-06	2.937370e-06	1.578689e-09	2.470204e+01	1.014616e+02
1.510000e-06	3.019378e-06	1.656590e-09	2.539169e+01	1.064567e+02
1.520000e-06	3.100898e-06	1.734019e-09	2.607724e+01	1.113440e+02
1.530000e-06	3.181792e-06	1.805409e-09	2.675753e+01	1.161196e+02
1.540000e-06	3.262076e-06	1.870406e-09	2.743268e+01	1.207808e+02
1.550000e-06	3.341700e-06	1.936406e-09	2.810229e+01	1.253264e+02
1.560000e-06	3.420726e-06	2.006601e-09	2.876686e+01	1.297560e+02
1.570000e-06	3.499165e-06	2.073966e-09	2.942650e+01	1.340705e+02
1.580000e-06	3.576937e-06	2.134079e-09	3.008053e+01	1.382712e+02
1.590000e-06	3.654074e-06	2.193739e-09	3.072922e+01	1.423603e+02
1.600000e-06	3.730565e-06	2.257359e-09	3.137248e+01	1.463399e+02
1.610000e-06	3.806378e-06	2.323444e-09	3.201003e+01	1.502129e+02
1.620000e-06	3.881414e-06	2.381824e-09	3.264105e+01	1.539817e+02
1.630000e-06	3.955549e-06	2.431771e-09	3.326450e+01	1.576490e+02
1.640000e-06	4.028848e-06	2.480323e-09	3.388091e+01	1.612173e+02
1.650000e-06	4.101351e-06	2.531599e-09	3.449063e+01	1.646890e+02
1.660000e-06	4.173025e-06	2.583230e-09	3.509337e+01	1.680662e+02
1.670000e-06	4.244004e-06	2.629180e-09	3.569028e+01	1.713508e+02
1.680000e-06	4.314302e-06	2.673945e-09	3.628145e+01	1.745448e+02
1.690000e-06	4.383836e-06	2.720795e-09	3.686621e+01	1.776499e+02
1.700000e-06	4.452624e-06	2.768410e-09	3.744468e+01	1.806678e+02
1.710000e-06	4.520726e-06	2.811735e-09	3.801740e+01	1.836001e+02
1.720000e-06	4.588191e-06	2.849996e-09	3.858475e+01	1.864487e+02
1.730000e-06	4.654803e-06	2.888379e-09	3.914493e+01	1.892152e+02
1.740000e-06	4.720310e-06	2.925866e-09	3.969581e+01	1.919016e+02
1.750000e-06	4.784833e-06	2.962173e-09	4.023842e+01	1.945097e+02
1.760000e-06	4.848597e-06	2.998833e-09	4.077465e+01	1.970416e+02
1.770000e-06	4.911596e-06	3.034292e-09	4.130445e+01	1.994993e+02
1.780000e-06	4.973827e-06	3.068969e-09	4.182779e+01	2.018846e+02
1.790000e-06	5.035230e-06	3.103461e-09	4.234416e+01	2.041996e+02
1.800000e-06	5.095813e-06	3.138263e-09	4.285363e+01	2.064460e+02
1.810000e-06	5.155687e-06	3.169703e-09	4.335715e+01	2.086254e+02
1.820000e-06	5.214672e-06	3.196513e-09	4.385319e+01	2.107394e+02
1.830000e-06	5.272474e-06	3.222982e-09	4.433928e+01	2.127891e+02
1.840000e-06	5.329140e-06	3.252260e-09	4.481581e+01	2.147757e+02
1.850000e-06	5.384852e-06	3.281204e-09	4.528433e+01	2.167000e+02
1.860000e-06	5.439726e-06	3.306353e-09	4.574580e+01	2.185627e+02
1.870000e-06	5.493738e-06	3.330322e-09	4.620002e+01	2.203643e+02
1.880000e-06	5.546739e-06	3.356302e-09	4.664573e+01	2.221055e+02
1.890000e-06	5.598690e-06	3.382992e-09	4.708261e+01	2.237868e+02
1.900000e-06	5.649389e-06	3.407471e-09	4.750898e+01	2.254086e+02
1.910000e-06	5.698672e-06	3.429055e-09	4.792343e+01	2.269716e+02
1.920000e-06	5.746783e-06	3.449772e-09	4.832802e+01	2.284767e+02
1.930000e-06	5.793935e-06	3.470958e-09	4.872454e+01	2.299248e+02
1.940000e-06	5.840093e-06	3.490685e-09	4.911271e+01	2.313170e+02
1.950000e-06	5.885300e-06	3.510270e-09	4.949288e+01	2.326549e+02
1.960000e-06	5.929629e-06	3.529142e-09	4.986567e+01	2.339398e+02
1.970000e-06	5.973082e-06	3.546700e-09	5.023109e+01	2.351735e+02
1.980000e-06	6.015379e-06	3.565499e-09	5.058679e+01	2.363578e+02
1.990000e-06	6.056293e-06	3.585949e-09	5.093086e+01	2.374944e+02
2.000000e-06	6.096070e-06	3.605130e-09	5.126537e+01	2.385852e+02
2.010000e-06	6.134871e-06	3.620780e-09	5.159167e+01	2.396319e+02
2.020000e-06	6.172611e-06	3.634790e-09	5.190905e+01	2.406360e+02
2.030000e-06	6.209311e-06	3.649331e-09	5.221768e+01	2.415990e+02
2.040000e-06	6.245169e-06	3.664891e-09	5.251923e+01	2.425221e+02
2.050000e-06	6.280062e-06	3.679465e-09	5.281266e+01	2.434062e+02
2.060000e-06	6.313604e-06	3.692568e-09	5.309474e+01	2.442523e+02
2.070000e-06	6.345936e-06	3.705022e-09	5.336664e+01	2.450609e+02
2.080000e-06	6.377224e-06	3.717221e-09	5.362975e+01	2.458325e+02
2.090000e-06	6.407417e-06	3.729462e-09	5.388367e+01	2.465676e+02
2.100000e-06	6.436562e-06	3.740408e-09	5.412877e+01	2.472665e+02
2.110000e-06	6.464738e-06	3.750612e-09	5.436571e+01	2.479298e+02
2.120000e-06	6.491874e-06	3.762183e-09	5.459391e+01	2.485578e+02
2.130000e-06	6.517552e-06	3.771750e-09	5.480986e+01	2.491513e+02
2.140000e-06	6.541774e-06	3.778030e-09	5.501355e+01	2.497111e+02
2.150000e-06	6.564915e-06	3.786244e-09	5.520816e+01	2.502381e+02
2.160000e-06	6.587028e-06	3.797296e-09	5.539412e+01	2.507333e+02
2.170000e-06	6.608040e-06	3.807909e-09	5.557082e+01	2.511981e+02
2.180000e-06	6.628079e-06	3.815519e-09	5.573934e+01	2.516336e+02
2.190000e-06	6.647096e-06	3.823100e-09	5.589927e+01	2.520411e+02
2.200000e-06	6.664848e-06	3.831919e-09	5.604855e+01	2.524219e+02
2.210000e-06	6.681403e-06	3.837283e-09	5.618778e+01	2.527770e+02
2.220000e-06	6.696736e-06	3.840681e-09	5.631672e+01	2.531071e+02
2.230000e-06	6.710761e-06	3.846005e-09	5.643466e+01	2.534128e+02
2.240000e-06	6.723537e-06	3.851847e-09	5.654210e+01	2.536944e+02
2.250000e-06	6.735135e-06	3.855276e-09	5.663964e+01	2.539517e+02
2.260000e-06	6.745331e-06	3.857434e-09	5.672538e+01	2.541842e+02
2.270000e-06	6.754048e-06	3.860906e-09	5.679869e+01	2.543913e+02
2.280000e-06	6.761565e-06	3.865466e-09	5.686191e+01	2.545720e+02
2.290000e-06	6.767988e-06	3.869148e-09	5.691592e+01	2.547253e+02
2.300000e-06	6.773281e-06	3.871328e-09	5.696043e+01	2.548500e+02
2.310000e-06	6.777512e-06	3.872107e-09	5.699601e+01	2.549454e+02
2.320000e-06	6.780704e-06	3.872754e-09	5.702286e+01	2.550107e+02
2.330000e-06	6.782524e-06	3.874869e-09	5.703816e+01	2.550457e+02
2.340000e-06	6.782921e-06	3.876803e-09	5.704150e+01	2.550507e+02
2.350000e-06	6.782187e-06	3.875992e-09	5.703533e+01	2.550264e+02
2.360000e-06	6.780408e-06	3.872488e-09	5.702037e+01	2.549744e+02
2.370000e-06	6.777541e-06	3.873150e-09	5.699625e+01	2.548968e+02
2.380000e-06	6.773750e-06	3.875295e-09	5.696437e+01	2.547964e+02
2.390000e-06	6.769048e-06	3.873134e-09	5.692483e+01	2.546764e+02
2.400000e-06	6.762961e-06	3.868276e-09	5.687365e+01	2.545406e+02
2.410000e-06	6.755502e-06	3.869550e-09	5.681092e+01	2.543928e+02
2.420000e-06	6.747078e-06	3.881441e-09	5.674007e+01	2.542372e+02
2.430000e-06	6.737683e-06	3.840574e-09	5.666106e+01	2.540775e+02
2.440000e-06	6.727022e-06	3.805295e-09	5.657141e+01	2.539172e+02
2.450000e-06	6.714419e-06	3.796755e-09	5.646542e+01	2.537593e+02
2.460000e-06	6.699725e-06	3.843608e-09	5.634186e+01	2.536058e+02
2.470000e-06	6.683840e-06	3.921914e-09	5.620827e+01	2.534579e+02
2.480000e-06	6.667569e-06	3.860834e-09	5.607143e+01	2.533157e+02
2.490000e-06	6.650532e-06	3.815051e-09	5.592817e+01	2.531782e+02
2.500000e-06	6.631956e-06	3.853051e-09	5.577195e+01	2.530433e+02
2.510000e-06	6.612303e-06	3.845994e-09	5.560667e+01	2.529077e+02
2.520000e-06	6.592030e-06	3.887682e-09	5.543618e+01	2.527674e+02
2.530000e-06	6.570291e-06	3.896431e-09	5.525337e+01	2.526172e+02
2.540000e-06	6.546903e-06	3.757660e-09	5.505669e+01	2.524518e+02
2.550000e-06	6.522493e-06	3.763003e-09	5.485141e+01	2.522652e+02
2.560000e-06	6.497144e-06	3.866835e-09	5.463823e+01	2.520514e+02
2.570000e-06	6.470841e-06	3.813746e-09	5.441704e+01	2.518048e+02
2.580000e-06	6.443319e-06	3.777502e-09	5.418559e+01	2.515200e+02
2.590000e-06	6.414536e-06	3.783260e-09	5.394353e+01	2.511924e+02
2.600000e-06	6.384851e-06	3.848396e-09	5.369390e+01	2.508184e+02
2.610000e-06	6.353863e-06	3.944422e-09	5.343330e+01	2.503951e+02
2.620000e-06	6.321430e-06	3.839527e-09	5.316055e+01	2.499211e+02
2.630000e-06	6.287945e-06	3.758319e-09	5.287896e+01	2.493960e+02
2.640000e-06	6.253421e-06	3.802112e-09	5.258863e+01	2.488204e+02
2.650000e-06	6.217907e-06	3.832477e-09	5.228997e+01	2.481961e+02
2.660000e-06	6.181351e-06	3.866189e-09	5.198255e+01	2.475257e+02
2.670000e-06	6.143503e-06	3.789255e-09	5.166426e+01	2.468124e+02
2.680000e-06	6.104375e-06	3.675003e-09	5.133522e+01	2.460601e+02
2.690000e-06	6.064125e-06	3.706788e-09	5.099673e+01	2.452727e+02
2.700000e-06	6.022965e-06	3.807318e-09	5.065059e+01	2.444545e+02
2.710000e-06	5.980886e-06	3.811320e-09	5.029673e+01	2.436090e+02
2.720000e-06	5.937716e-06	3.663110e-09	4.993368e+01	2.427399e+02
2.730000e-06	5.893559e-06	3.607805e-09	4.956234e+01	2.418501e+02
2.740000e-06	5.848499e-06	3.717588e-09	4.918341e+01	2.409416e+02
2.750000e-06	5.802424e-06	3.767846e-09	4.879593e+01	2.400160e+02
2.760000e-06	5.755164e-06	3.678385e-09	4.839849e+01	2.390740e+02
2.770000e-06	5.706787e-06	3.549457e-09	4.799167e+01	2.381155e+02
2.780000e-06	5.657422e-06	3.580928e-09	4.757652e+01	2.371397e+02
2.790000e-06	5.607060e-06	3.684888e-09	4.715301e+01	2.361454e+02
2.800000e-06	5.555752e-06	3.661727e-09	4.672152e+01	2.351308e+02
2.810000e-06	5.503356e-06	3.557084e-09	4.628090e+01	2.340939e+02
2.820000e-06	5.449621e-06	3.499964e-09	4.582901e+01	2.330324e+02
2.830000e-06	5.394578e-06	3.559237e-09	4.536612e+01	2.319442e+02
2.840000e-06	5.338558e-06	3.603373e-09	4.489502e+01	2.308273e+02
2.850000e-06	5.281749e-06	3.543585e-09	4.441727e+01	2.296799e+02
2.860000e-06	5.223994e-06	3.453564e-09	4.393158e+01	2.285006e+02
2.870000e-06	5.165252e-06	3.436882e-09	4.343759e+01	2.272882e+02
2.880000e-06	5.105630e-06	3.487441e-09	4.293619e+01	2.260423e+02
2.890000e-06	5.045219e-06	3.476063e-09	4.242816e+01	2.247626e+02
2.900000e-06	4.983947e-06	3.407304e-09	4.191288e+01	2.234491e+02
2.910000e-06	4.921634e-06	3.361337e-09	4.138886e+01	2.221025e+02
2.920000e-06	4.858289e-06	3.373082e-09	4.085616e+01	2.207233e+02
2.930000e-06	4.794032e-06	3.379095e-09	4.031578e+01	2.193122e+02
2.940000e-06	4.729014e-06	3.336836e-09	3.976901e+01	2.178702e+02
