# Temperatura_=_20.0
# Concentracion g/m^3_=_12600.0
# C_Vs_to_Am_M_A/Vsm_=_65563218390.804596
# pendiente_HvsI_1/m_=_3716.3
# ordenada_HvsI_A/m_=_1297.0
# frecuencia_Hz_=_213154.57795148063

Tiempo_(s)	Campo_(V.s)	Magnetizacion_(V.s)	Campo_(kA/m)	Magnetizacion_(A/m)
0.000000e+00	-6.755193e-06	-3.860438e-10	-5.684235e+01	-2.344844e+01
1.000000e-08	-6.755070e-06	-3.851326e-10	-5.684132e+01	-2.347882e+01
2.000000e-08	-6.753620e-06	-3.889750e-10	-5.682912e+01	-2.350262e+01
3.000000e-08	-6.750742e-06	-3.920825e-10	-5.680490e+01	-2.351952e+01
4.000000e-08	-6.746842e-06	-3.945430e-10	-5.677208e+01	-2.352940e+01
5.000000e-08	-6.741945e-06	-3.967910e-10	-5.673088e+01	-2.353237e+01
6.000000e-08	-6.735954e-06	-3.963390e-10	-5.668046e+01	-2.352879e+01
7.000000e-08	-6.728856e-06	-3.933662e-10	-5.662074e+01	-2.351926e+01
8.000000e-08	-6.720780e-06	-3.821580e-10	-5.655278e+01	-2.350463e+01
9.000000e-08	-6.711522e-06	-3.684135e-10	-5.647488e+01	-2.348594e+01
1.000000e-07	-6.700493e-06	-4.283987e-10	-5.638207e+01	-2.346443e+01
1.100000e-07	-6.687762e-06	-4.620778e-10	-5.627495e+01	-2.344143e+01
1.200000e-07	-6.673542e-06	-4.465490e-10	-5.615529e+01	-2.341834e+01
1.300000e-07	-6.657731e-06	-3.988488e-10	-5.602225e+01	-2.339650e+01
1.400000e-07	-6.640755e-06	-2.494283e-10	-5.587940e+01	-2.337718e+01
1.500000e-07	-6.622938e-06	-4.052524e-10	-5.572948e+01	-2.336141e+01
1.600000e-07	-6.604148e-06	-5.581551e-10	-5.557137e+01	-2.334998e+01
1.700000e-07	-6.584572e-06	-3.290207e-10	-5.540664e+01	-2.334334e+01
1.800000e-07	-6.564052e-06	-4.180734e-10	-5.523397e+01	-2.334154e+01
1.900000e-07	-6.542228e-06	-4.291919e-10	-5.505033e+01	-2.334420e+01
2.000000e-07	-6.519359e-06	-2.230753e-10	-5.485790e+01	-2.335053e+01
2.100000e-07	-6.495645e-06	-4.828564e-10	-5.465835e+01	-2.335929e+01
2.200000e-07	-6.470591e-06	-4.927754e-10	-5.444754e+01	-2.336887e+01
2.300000e-07	-6.443981e-06	-1.558953e-10	-5.422362e+01	-2.337732e+01
2.400000e-07	-6.416232e-06	-2.822432e-10	-5.399013e+01	-2.338248e+01
2.500000e-07	-6.387536e-06	-4.222326e-10	-5.374866e+01	-2.338203e+01
2.600000e-07	-6.357825e-06	-3.245967e-10	-5.349866e+01	-2.337360e+01
2.700000e-07	-6.326959e-06	-2.857579e-10	-5.323893e+01	-2.335495e+01
2.800000e-07	-6.295042e-06	-2.102715e-10	-5.297036e+01	-2.332400e+01
2.900000e-07	-6.262140e-06	-2.843848e-10	-5.269351e+01	-2.327903e+01
3.000000e-07	-6.227980e-06	-3.972432e-10	-5.240606e+01	-2.321868e+01
3.100000e-07	-6.192542e-06	-2.842649e-10	-5.210786e+01	-2.314210e+01
3.200000e-07	-6.155904e-06	-2.104993e-10	-5.179956e+01	-2.304895e+01
3.300000e-07	-6.118143e-06	-2.773825e-10	-5.148182e+01	-2.293944e+01
3.400000e-07	-6.079405e-06	-3.264422e-10	-5.115586e+01	-2.281433e+01
3.500000e-07	-6.039786e-06	-3.241695e-10	-5.082248e+01	-2.267483e+01
3.600000e-07	-5.999141e-06	-2.976369e-10	-5.048046e+01	-2.252261e+01
3.700000e-07	-5.957079e-06	-2.677402e-10	-5.012653e+01	-2.235964e+01
3.800000e-07	-5.913760e-06	-2.589514e-10	-4.976201e+01	-2.218812e+01
3.900000e-07	-5.869565e-06	-3.225538e-10	-4.939013e+01	-2.201031e+01
4.000000e-07	-5.824363e-06	-3.169503e-10	-4.900978e+01	-2.182846e+01
4.100000e-07	-5.778051e-06	-2.305954e-10	-4.862008e+01	-2.164464e+01
4.200000e-07	-5.730737e-06	-2.502681e-10	-4.822195e+01	-2.146061e+01
4.300000e-07	-5.682448e-06	-3.146445e-10	-4.781562e+01	-2.127780e+01
4.400000e-07	-5.632981e-06	-3.140463e-10	-4.739937e+01	-2.109716e+01
4.500000e-07	-5.581999e-06	-2.539773e-10	-4.697038e+01	-2.091916e+01
4.600000e-07	-5.529691e-06	-2.236424e-10	-4.653023e+01	-2.074378e+01
4.700000e-07	-5.476457e-06	-2.838875e-10	-4.608228e+01	-2.057051e+01
4.800000e-07	-5.422339e-06	-3.158967e-10	-4.562690e+01	-2.039842e+01
4.900000e-07	-5.367338e-06	-2.599679e-10	-4.516409e+01	-2.022623e+01
5.000000e-07	-5.311463e-06	-2.075907e-10	-4.469392e+01	-2.005243e+01
5.100000e-07	-5.254599e-06	-2.305247e-10	-4.421543e+01	-1.987537e+01
5.200000e-07	-5.196539e-06	-2.846564e-10	-4.372688e+01	-1.969339e+01
5.300000e-07	-5.137415e-06	-2.830643e-10	-4.322937e+01	-1.950496e+01
5.400000e-07	-5.077507e-06	-2.337425e-10	-4.272527e+01	-1.930878e+01
5.500000e-07	-5.016742e-06	-2.068118e-10	-4.221396e+01	-1.910385e+01
5.600000e-07	-4.955054e-06	-2.445432e-10	-4.169488e+01	-1.888959e+01
5.700000e-07	-4.892525e-06	-2.882166e-10	-4.116872e+01	-1.866586e+01
5.800000e-07	-4.829276e-06	-2.515361e-10	-4.063650e+01	-1.843299e+01
5.900000e-07	-4.765273e-06	-1.826328e-10	-4.009794e+01	-1.819172e+01
6.000000e-07	-4.700295e-06	-1.970654e-10	-3.955117e+01	-1.794323e+01
6.100000e-07	-4.634179e-06	-2.566266e-10	-3.899484e+01	-1.768900e+01
6.200000e-07	-4.567087e-06	-2.539599e-10	-3.843028e+01	-1.743075e+01
6.300000e-07	-4.499286e-06	-1.954876e-10	-3.785976e+01	-1.717032e+01
6.400000e-07	-4.430843e-06	-1.752735e-10	-3.728384e+01	-1.690957e+01
6.500000e-07	-4.361684e-06	-2.212682e-10	-3.670189e+01	-1.665022e+01
6.600000e-07	-4.291713e-06	-2.480578e-10	-3.611312e+01	-1.639380e+01
6.700000e-07	-4.221024e-06	-2.106592e-10	-3.551830e+01	-1.614150e+01
6.800000e-07	-4.149693e-06	-1.661688e-10	-3.491807e+01	-1.589414e+01
6.900000e-07	-4.077674e-06	-1.779400e-10	-3.431206e+01	-1.565208e+01
7.000000e-07	-4.004829e-06	-2.155946e-10	-3.369910e+01	-1.541525e+01
7.100000e-07	-3.931126e-06	-2.069362e-10	-3.307892e+01	-1.518311e+01
7.200000e-07	-3.856537e-06	-1.701914e-10	-3.245128e+01	-1.495472e+01
7.300000e-07	-3.781130e-06	-1.628760e-10	-3.181676e+01	-1.472880e+01
7.400000e-07	-3.705016e-06	-1.886901e-10	-3.117628e+01	-1.450381e+01
7.500000e-07	-3.628204e-06	-1.977875e-10	-3.052994e+01	-1.427804e+01
7.600000e-07	-3.550742e-06	-1.730741e-10	-2.987813e+01	-1.404974e+01
7.700000e-07	-3.472495e-06	-1.576929e-10	-2.921971e+01	-1.381719e+01
7.800000e-07	-3.393482e-06	-1.640122e-10	-2.855484e+01	-1.357884e+01
7.900000e-07	-3.313807e-06	-1.738476e-10	-2.788441e+01	-1.333341e+01
8.000000e-07	-3.233502e-06	-1.687923e-10	-2.720868e+01	-1.307989e+01
8.100000e-07	-3.152571e-06	-1.523485e-10	-2.652768e+01	-1.281768e+01
8.200000e-07	-3.071012e-06	-1.469969e-10	-2.584138e+01	-1.254653e+01
8.300000e-07	-2.988952e-06	-1.509405e-10	-2.515088e+01	-1.226661e+01
8.400000e-07	-2.906446e-06	-1.540344e-10	-2.445662e+01	-1.197842e+01
8.500000e-07	-2.823487e-06	-1.474597e-10	-2.375856e+01	-1.168280e+01
8.600000e-07	-2.740155e-06	-1.348778e-10	-2.305735e+01	-1.138080e+01
8.700000e-07	-2.656490e-06	-1.303062e-10	-2.235334e+01	-1.107365e+01
8.800000e-07	-2.572451e-06	-1.317705e-10	-2.164619e+01	-1.076267e+01
8.900000e-07	-2.487991e-06	-1.334978e-10	-2.093549e+01	-1.044915e+01
9.000000e-07	-2.403119e-06	-1.263848e-10	-2.022133e+01	-1.013430e+01
9.100000e-07	-2.317912e-06	-1.126764e-10	-1.950434e+01	-9.819150e+00
9.200000e-07	-2.232351e-06	-1.088037e-10	-1.878437e+01	-9.504530e+00
9.300000e-07	-2.146411e-06	-1.150455e-10	-1.806123e+01	-9.191006e+00
9.400000e-07	-2.060128e-06	-1.171339e-10	-1.733519e+01	-8.878870e+00
9.500000e-07	-1.973425e-06	-1.047971e-10	-1.660561e+01	-8.568150e+00
9.600000e-07	-1.886334e-06	-8.849448e-11	-1.587278e+01	-8.258625e+00
9.700000e-07	-1.799023e-06	-8.897602e-11	-1.513809e+01	-7.949872e+00
9.800000e-07	-1.711566e-06	-9.808237e-11	-1.440217e+01	-7.641313e+00
9.900000e-07	-1.623857e-06	-9.443634e-11	-1.366413e+01	-7.332282e+00
1.000000e-06	-1.535763e-06	-7.579437e-11	-1.292285e+01	-7.022088e+00
1.010000e-06	-1.447363e-06	-6.338575e-11	-1.217901e+01	-6.710077e+00
1.020000e-06	-1.358725e-06	-7.084830e-11	-1.143315e+01	-6.395692e+00
1.030000e-06	-1.269774e-06	-7.784546e-11	-1.068466e+01	-6.078521e+00
1.040000e-06	-1.180517e-06	-6.732412e-11	-9.933599e+00	-5.758325e+00
1.050000e-06	-1.090948e-06	-5.101996e-11	-9.179904e+00	-5.435062e+00
1.060000e-06	-1.001111e-06	-5.168193e-11	-8.423962e+00	-5.108884e+00
1.070000e-06	-9.110751e-07	-6.300817e-11	-7.666347e+00	-4.780124e+00
1.080000e-06	-8.208773e-07	-6.072475e-11	-6.907367e+00	-4.449266e+00
1.090000e-06	-7.305393e-07	-4.505435e-11	-6.147208e+00	-4.116905e+00
1.100000e-06	-6.400246e-07	-3.094410e-11	-5.385561e+00	-3.783699e+00
1.110000e-06	-5.494151e-07	-2.939155e-11	-4.623116e+00	-3.450317e+00
1.120000e-06	-4.587358e-07	-3.292307e-11	-3.860085e+00	-3.117385e+00
1.130000e-06	-3.680115e-07	-2.810764e-11	-3.096675e+00	-2.785441e+00
1.140000e-06	-2.772117e-07	-1.935344e-11	-2.332630e+00	-2.454894e+00
1.150000e-06	-1.862949e-07	-1.287122e-11	-1.567600e+00	-2.125995e+00
1.160000e-06	-9.531117e-08	-1.294608e-11	-8.020069e-01	-1.798823e+00
1.170000e-06	-4.330310e-09	-1.540834e-11	-3.643789e-02	-1.473285e+00
1.180000e-06	8.660325e-08	-9.264636e-12	7.287331e-01	-1.149121e+00
1.190000e-06	1.775170e-07	3.683317e-12	1.493737e+00	-8.259395e-01
1.200000e-06	2.684440e-07	1.452835e-11	2.258853e+00	-5.032422e-01
1.210000e-06	3.593580e-07	1.621207e-11	3.023859e+00	-1.804725e-01
1.220000e-06	4.501918e-07	1.346497e-11	3.788191e+00	1.429401e-01
1.230000e-06	5.409344e-07	1.886935e-11	4.551755e+00	4.675332e-01
1.240000e-06	6.315414e-07	2.818652e-11	5.314178e+00	7.937681e-01
1.250000e-06	7.220313e-07	3.084286e-11	6.075616e+00	1.121993e+00
1.260000e-06	8.124396e-07	2.857827e-11	6.836367e+00	1.452413e+00
1.270000e-06	9.026147e-07	2.995280e-11	7.595156e+00	1.785079e+00
1.280000e-06	9.925091e-07	4.133746e-11	8.351583e+00	2.119875e+00
1.290000e-06	1.082236e-06	5.304325e-11	9.106600e+00	2.456531e+00
1.300000e-06	1.171753e-06	6.003048e-11	9.859853e+00	2.794641e+00
1.310000e-06	1.260950e-06	5.951070e-11	1.061041e+01	3.133687e+00
1.320000e-06	1.349797e-06	5.975996e-11	1.135802e+01	3.473076e+00
1.330000e-06	1.438334e-06	6.858218e-11	1.210303e+01	3.812183e+00
1.340000e-06	1.526649e-06	7.485749e-11	1.284617e+01	4.150381e+00
1.350000e-06	1.614724e-06	7.426649e-11	1.358728e+01	4.487088e+00
1.360000e-06	1.702419e-06	7.266032e-11	1.432520e+01	4.821794e+00
1.370000e-06	1.789780e-06	7.668339e-11	1.506031e+01	5.154092e+00
1.380000e-06	1.876952e-06	8.572932e-11	1.579383e+01	5.483685e+00
1.390000e-06	1.963884e-06	9.390418e-11	1.652533e+01	5.810402e+00
1.400000e-06	2.050467e-06	9.941816e-11	1.725389e+01	6.134187e+00
1.410000e-06	2.136684e-06	1.010206e-10	1.797938e+01	6.455092e+00
1.420000e-06	2.222542e-06	1.027454e-10	1.870184e+01	6.773250e+00
1.430000e-06	2.308008e-06	1.100242e-10	1.942100e+01	7.088850e+00
1.440000e-06	2.393083e-06	1.164840e-10	2.013688e+01	7.402107e+00
1.450000e-06	2.477844e-06	1.184116e-10	2.085010e+01	7.713232e+00
1.460000e-06	2.562202e-06	1.153639e-10	2.155995e+01	8.022399e+00
1.470000e-06	2.646062e-06	1.156166e-10	2.226559e+01	8.329723e+00
1.480000e-06	2.729586e-06	1.228423e-10	2.296841e+01	8.635242e+00
1.490000e-06	2.812859e-06	1.308204e-10	2.366913e+01	8.938904e+00
1.500000e-06	2.895692e-06	1.332745e-10	2.436613e+01	9.240567e+00
1.510000e-06	2.977943e-06	1.323448e-10	2.505825e+01	9.540007e+00
1.520000e-06	3.059589e-06	1.384829e-10	2.574527e+01	9.836929e+00
1.530000e-06	3.140661e-06	1.484484e-10	2.642745e+01	1.013100e+01
1.540000e-06	3.221204e-06	1.509319e-10	2.710519e+01	1.042185e+01
1.550000e-06	3.301270e-06	1.481219e-10	2.777891e+01	1.070915e+01
1.560000e-06	3.380701e-06	1.496318e-10	2.844730e+01	1.099258e+01
1.570000e-06	3.459375e-06	1.580905e-10	2.910931e+01	1.127191e+01
1.580000e-06	3.537390e-06	1.645341e-10	2.976577e+01	1.154699e+01
1.590000e-06	3.614753e-06	1.664223e-10	3.041676e+01	1.181778e+01
1.600000e-06	3.691509e-06	1.692981e-10	3.106263e+01	1.208436e+01
1.610000e-06	3.767613e-06	1.763158e-10	3.170302e+01	1.234692e+01
1.620000e-06	3.843007e-06	1.845365e-10	3.233742e+01	1.260577e+01
1.630000e-06	3.917583e-06	1.871315e-10	3.296496e+01	1.286129e+01
1.640000e-06	3.991170e-06	1.844838e-10	3.358416e+01	1.311395e+01
1.650000e-06	4.063790e-06	1.833697e-10	3.419523e+01	1.336425e+01
1.660000e-06	4.135704e-06	1.854195e-10	3.480036e+01	1.361271e+01
1.670000e-06	4.207008e-06	1.890044e-10	3.540036e+01	1.385980e+01
1.680000e-06	4.277590e-06	1.933193e-10	3.599427e+01	1.410598e+01
1.690000e-06	4.347399e-06	1.987857e-10	3.658169e+01	1.435160e+01
1.700000e-06	4.416500e-06	2.047490e-10	3.716315e+01	1.459693e+01
1.710000e-06	4.484906e-06	2.085568e-10	3.773876e+01	1.484210e+01
1.720000e-06	4.552610e-06	2.111164e-10	3.830846e+01	1.508715e+01
1.730000e-06	4.619556e-06	2.130289e-10	3.887178e+01	1.533200e+01
1.740000e-06	4.685549e-06	2.143519e-10	3.942709e+01	1.557644e+01
1.750000e-06	4.750449e-06	2.147420e-10	3.997320e+01	1.582019e+01
1.760000e-06	4.814434e-06	2.150467e-10	4.051161e+01	1.606289e+01
1.770000e-06	4.877730e-06	2.181572e-10	4.104422e+01	1.630413e+01
1.780000e-06	4.940240e-06	2.234123e-10	4.157022e+01	1.654348e+01
1.790000e-06	5.001894e-06	2.281597e-10	4.208901e+01	1.678052e+01
1.800000e-06	5.062781e-06	2.315934e-10	4.260135e+01	1.701484e+01
1.810000e-06	5.122977e-06	2.361180e-10	4.310788e+01	1.724608e+01
1.820000e-06	5.182410e-06	2.417219e-10	4.360799e+01	1.747393e+01
1.830000e-06	5.240888e-06	2.442545e-10	4.410005e+01	1.769816e+01
1.840000e-06	5.298154e-06	2.448964e-10	4.458193e+01	1.791857e+01
1.850000e-06	5.354343e-06	2.454276e-10	4.505474e+01	1.813506e+01
1.860000e-06	5.409698e-06	2.461163e-10	4.552053e+01	1.834754e+01
1.870000e-06	5.464144e-06	2.474775e-10	4.597867e+01	1.855599e+01
1.880000e-06	5.517649e-06	2.493646e-10	4.642890e+01	1.876038e+01
1.890000e-06	5.570152e-06	2.524499e-10	4.687069e+01	1.896070e+01
1.900000e-06	5.621468e-06	2.569421e-10	4.730250e+01	1.915692e+01
1.910000e-06	5.671449e-06	2.630587e-10	4.772306e+01	1.934900e+01
1.920000e-06	5.720112e-06	2.691253e-10	4.813255e+01	1.953682e+01
1.930000e-06	5.767674e-06	2.722836e-10	4.853276e+01	1.972027e+01
1.940000e-06	5.814264e-06	2.722031e-10	4.892480e+01	1.989916e+01
1.950000e-06	5.859881e-06	2.705130e-10	4.930865e+01	2.007328e+01
1.960000e-06	5.904551e-06	2.703115e-10	4.968453e+01	2.024237e+01
1.970000e-06	5.948342e-06	2.727659e-10	5.005301e+01	2.040616e+01
1.980000e-06	5.991152e-06	2.757863e-10	5.041324e+01	2.056439e+01
1.990000e-06	6.032620e-06	2.791364e-10	5.076218e+01	2.071678e+01
2.000000e-06	6.072888e-06	2.831977e-10	5.110102e+01	2.086311e+01
2.010000e-06	6.112241e-06	2.879393e-10	5.143216e+01	2.100319e+01
2.020000e-06	6.150538e-06	2.915339e-10	5.175441e+01	2.113689e+01
2.030000e-06	6.187764e-06	2.917349e-10	5.206765e+01	2.126416e+01
2.040000e-06	6.224066e-06	2.911127e-10	5.237312e+01	2.138501e+01
2.050000e-06	6.259418e-06	2.918315e-10	5.267059e+01	2.149954e+01
2.060000e-06	6.293577e-06	2.934054e-10	5.295803e+01	2.160793e+01
2.070000e-06	6.326377e-06	2.951737e-10	5.323403e+01	2.171044e+01
2.080000e-06	6.358069e-06	2.955585e-10	5.350071e+01	2.180738e+01
2.090000e-06	6.388766e-06	2.962916e-10	5.375901e+01	2.189913e+01
2.100000e-06	6.418396e-06	2.988598e-10	5.400833e+01	2.198611e+01
2.110000e-06	6.447067e-06	3.021610e-10	5.424959e+01	2.206877e+01
2.120000e-06	6.474721e-06	3.040839e-10	5.448229e+01	2.214759e+01
2.130000e-06	6.501107e-06	3.033437e-10	5.470432e+01	2.222303e+01
2.140000e-06	6.525989e-06	3.016103e-10	5.491369e+01	2.229558e+01
2.150000e-06	6.549609e-06	3.018584e-10	5.511244e+01	2.236568e+01
2.160000e-06	6.572219e-06	3.040169e-10	5.530269e+01	2.243378e+01
2.170000e-06	6.593779e-06	3.052729e-10	5.548412e+01	2.250029e+01
2.180000e-06	6.614279e-06	3.058550e-10	5.565662e+01	2.256557e+01
2.190000e-06	6.633820e-06	3.078429e-10	5.582105e+01	2.262995e+01
2.200000e-06	6.652314e-06	3.110953e-10	5.597667e+01	2.269371e+01
2.210000e-06	6.669567e-06	3.131510e-10	5.612184e+01	2.275706e+01
2.220000e-06	6.685560e-06	3.136729e-10	5.625642e+01	2.282015e+01
2.230000e-06	6.700203e-06	3.133047e-10	5.637963e+01	2.288307e+01
2.240000e-06	6.713567e-06	3.140126e-10	5.649209e+01	2.294580e+01
2.250000e-06	6.725767e-06	3.153476e-10	5.659474e+01	2.300825e+01
2.260000e-06	6.736658e-06	3.152203e-10	5.668638e+01	2.307022e+01
2.270000e-06	6.746036e-06	3.141114e-10	5.676530e+01	2.313141e+01
2.280000e-06	6.754076e-06	3.139909e-10	5.683296e+01	2.319142e+01
2.290000e-06	6.761020e-06	3.163293e-10	5.689139e+01	2.324974e+01
2.300000e-06	6.766851e-06	3.201337e-10	5.694045e+01	2.330578e+01
2.310000e-06	6.771576e-06	3.220564e-10	5.698021e+01	2.335889e+01
2.320000e-06	6.775293e-06	3.200531e-10	5.701149e+01	2.340835e+01
2.330000e-06	6.777826e-06	3.183796e-10	5.703280e+01	2.345343e+01
2.340000e-06	6.778860e-06	3.200505e-10	5.704150e+01	2.349341e+01
2.350000e-06	6.778629e-06	3.231077e-10	5.703955e+01	2.352764e+01
2.360000e-06	6.777342e-06	3.235125e-10	5.702873e+01	2.355555e+01
2.370000e-06	6.774950e-06	3.196193e-10	5.700860e+01	2.357674e+01
2.380000e-06	6.771566e-06	3.196452e-10	5.698012e+01	2.359095e+01
2.390000e-06	6.767301e-06	3.185364e-10	5.694424e+01	2.359815e+01
2.400000e-06	6.761919e-06	3.167263e-10	5.689895e+01	2.359856e+01
2.410000e-06	6.755133e-06	3.183731e-10	5.684185e+01	2.359264e+01
2.420000e-06	6.747183e-06	3.319870e-10	5.677495e+01	2.358107e+01
2.430000e-06	6.738307e-06	3.628356e-10	5.670026e+01	2.356479e+01
2.440000e-06	6.728365e-06	2.826327e-10	5.661661e+01	2.354494e+01
2.450000e-06	6.716864e-06	2.434098e-10	5.651983e+01	2.352278e+01
2.460000e-06	6.703198e-06	2.593335e-10	5.640483e+01	2.349970e+01
2.470000e-06	6.687746e-06	3.481236e-10	5.627481e+01	2.347706e+01
2.480000e-06	6.671600e-06	4.942886e-10	5.613895e+01	2.345621e+01
2.490000e-06	6.655052e-06	2.660954e-10	5.599971e+01	2.343831e+01
2.500000e-06	6.637324e-06	2.057760e-10	5.585053e+01	2.342432e+01
2.510000e-06	6.618084e-06	4.198550e-10	5.568863e+01	2.341489e+01
2.520000e-06	6.598142e-06	2.291671e-10	5.552083e+01	2.341032e+01
2.530000e-06	6.577288e-06	3.147322e-10	5.534535e+01	2.341049e+01
2.540000e-06	6.554658e-06	4.930068e-10	5.515493e+01	2.341485e+01
2.550000e-06	6.530710e-06	1.551573e-10	5.495341e+01	2.342244e+01
2.560000e-06	6.505867e-06	2.687255e-10	5.474437e+01	2.343186e+01
2.570000e-06	6.480012e-06	5.739653e-10	5.452681e+01	2.344135e+01
2.580000e-06	6.453144e-06	3.056189e-10	5.430073e+01	2.344888e+01
2.590000e-06	6.425002e-06	2.685564e-10	5.406392e+01	2.345219e+01
2.600000e-06	6.395749e-06	4.435377e-10	5.381777e+01	2.344894e+01
2.610000e-06	6.365483e-06	4.607365e-10	5.356309e+01	2.343680e+01
2.620000e-06	6.333756e-06	5.325646e-10	5.329612e+01	2.341358e+01
2.630000e-06	6.300753e-06	3.047282e-10	5.301842e+01	2.337733e+01
2.640000e-06	6.266717e-06	2.796255e-10	5.273202e+01	2.332646e+01
2.650000e-06	6.231597e-06	5.508956e-10	5.243649e+01	2.325981e+01
2.660000e-06	6.195562e-06	4.589684e-10	5.213327e+01	2.317672e+01
2.670000e-06	6.158476e-06	4.070874e-10	5.182121e+01	2.307709e+01
2.680000e-06	6.120021e-06	3.614678e-10	5.149762e+01	2.296134e+01
2.690000e-06	6.080302e-06	3.058455e-10	5.116340e+01	2.283042e+01
2.700000e-06	6.039584e-06	4.575143e-10	5.082077e+01	2.268573e+01
2.710000e-06	5.997985e-06	4.457258e-10	5.047074e+01	2.252908e+01
2.720000e-06	5.955364e-06	4.097877e-10	5.011210e+01	2.236253e+01
2.730000e-06	5.911721e-06	3.171530e-10	4.974486e+01	2.218834e+01
2.740000e-06	5.867224e-06	3.172680e-10	4.937043e+01	2.200877e+01
2.750000e-06	5.821752e-06	5.048460e-10	4.898780e+01	2.182601e+01
2.760000e-06	5.775225e-06	4.180146e-10	4.859630e+01	2.164203e+01
2.770000e-06	5.727556e-06	3.102771e-10	4.819518e+01	2.145846e+01
2.780000e-06	5.678784e-06	3.027886e-10	4.778478e+01	2.127654e+01
2.790000e-06	5.628996e-06	3.900493e-10	4.736584e+01	2.109705e+01
2.800000e-06	5.578150e-06	4.823239e-10	4.693799e+01	2.092025e+01
2.810000e-06	5.526265e-06	3.341509e-10	4.650140e+01	2.074591e+01
2.820000e-06	5.473245e-06	2.889679e-10	4.605525e+01	2.057336e+01
2.830000e-06	5.418923e-06	3.553426e-10	4.559816e+01	2.040151e+01
2.840000e-06	5.363390e-06	4.121644e-10	4.513087e+01	2.022899e+01
2.850000e-06	5.306962e-06	4.055455e-10	4.465605e+01	2.005420e+01
2.860000e-06	5.249740e-06	3.046015e-10	4.417454e+01	1.987549e+01
2.870000e-06	5.191613e-06	3.084540e-10	4.368542e+01	1.969122e+01
2.880000e-06	5.132538e-06	3.574991e-10	4.318834e+01	1.949995e+01
2.890000e-06	5.072702e-06	3.939688e-10	4.268484e+01	1.930048e+01
2.900000e-06	5.012108e-06	3.437262e-10	4.217496e+01	1.909198e+01
2.910000e-06	4.950451e-06	2.801646e-10	4.165614e+01	1.887404e+01
2.920000e-06	4.887612e-06	3.288642e-10	4.112738e+01	1.864671e+01
2.930000e-06	4.823840e-06	3.747840e-10	4.059076e+01	1.841048e+01
2.940000e-06	4.759295e-06	3.412546e-10	4.004764e+01	1.816628e+01
2.950000e-06	4.694002e-06	2.713924e-10	3.949823e+01	1.791542e+01
