# Temperatura_=_20.0
# Concentracion g/m^3_=_12600.0
# C_Vs_to_Am_M_A/Vsm_=_65563218390.804596
# pendiente_HvsI_1/m_=_3716.3
# ordenada_HvsI_A/m_=_1297.0
# frecuencia_Hz_=_213155.24501733817

Tiempo_(s)	Campo_(V.s)	Magnetizacion_(V.s)	Campo_(kA/m)	Magnetizacion_(A/m)
0.000000e+00	-6.751623e-06	-3.874124e-09	-5.683150e+01	-2.545907e+02
1.000000e-08	-6.750968e-06	-3.871661e-09	-5.682599e+01	-2.545416e+02
2.000000e-08	-6.748917e-06	-3.872354e-09	-5.680872e+01	-2.544761e+02
3.000000e-08	-6.745523e-06	-3.874433e-09	-5.678015e+01	-2.543958e+02
4.000000e-08	-6.741211e-06	-3.873656e-09	-5.674386e+01	-2.543013e+02
5.000000e-08	-6.735918e-06	-3.870003e-09	-5.669931e+01	-2.541923e+02
6.000000e-08	-6.729432e-06	-3.866585e-09	-5.664471e+01	-2.540680e+02
7.000000e-08	-6.721913e-06	-3.864170e-09	-5.658142e+01	-2.539266e+02
8.000000e-08	-6.713440e-06	-3.864781e-09	-5.651010e+01	-2.537655e+02
9.000000e-08	-6.703499e-06	-3.857596e-09	-5.642642e+01	-2.535816e+02
1.000000e-07	-6.691816e-06	-3.857401e-09	-5.632808e+01	-2.533714e+02
1.100000e-07	-6.678609e-06	-3.861628e-09	-5.621691e+01	-2.531311e+02
1.200000e-07	-6.663870e-06	-3.846126e-09	-5.609284e+01	-2.528570e+02
1.300000e-07	-6.647730e-06	-3.849637e-09	-5.595699e+01	-2.525455e+02
1.400000e-07	-6.630531e-06	-3.812569e-09	-5.581221e+01	-2.521939e+02
1.500000e-07	-6.612348e-06	-3.799107e-09	-5.565916e+01	-2.517997e+02
1.600000e-07	-6.593251e-06	-3.872480e-09	-5.549841e+01	-2.513617e+02
1.700000e-07	-6.573337e-06	-3.818346e-09	-5.533078e+01	-2.508794e+02
1.800000e-07	-6.552256e-06	-3.788942e-09	-5.515334e+01	-2.503537e+02
1.900000e-07	-6.529898e-06	-3.831113e-09	-5.496514e+01	-2.497863e+02
2.000000e-07	-6.506706e-06	-3.768946e-09	-5.476992e+01	-2.491800e+02
2.100000e-07	-6.482606e-06	-3.758682e-09	-5.456706e+01	-2.485387e+02
2.200000e-07	-6.457065e-06	-3.822034e-09	-5.435207e+01	-2.478667e+02
2.300000e-07	-6.430019e-06	-3.787490e-09	-5.412442e+01	-2.471690e+02
2.400000e-07	-6.401887e-06	-3.742016e-09	-5.388762e+01	-2.464508e+02
2.500000e-07	-6.372810e-06	-3.763793e-09	-5.364286e+01	-2.457173e+02
2.600000e-07	-6.342593e-06	-3.747669e-09	-5.338851e+01	-2.449735e+02
2.700000e-07	-6.311286e-06	-3.748108e-09	-5.312499e+01	-2.442237e+02
2.800000e-07	-6.279084e-06	-3.745338e-09	-5.285393e+01	-2.434715e+02
2.900000e-07	-6.245787e-06	-3.712698e-09	-5.257365e+01	-2.427197e+02
3.000000e-07	-6.211134e-06	-3.698472e-09	-5.228196e+01	-2.419700e+02
3.100000e-07	-6.175239e-06	-3.672968e-09	-5.197982e+01	-2.412229e+02
3.200000e-07	-6.138213e-06	-3.688637e-09	-5.166815e+01	-2.404781e+02
3.300000e-07	-6.100092e-06	-3.717401e-09	-5.134727e+01	-2.397339e+02
3.400000e-07	-6.060978e-06	-3.655047e-09	-5.101803e+01	-2.389878e+02
3.500000e-07	-6.020957e-06	-3.605474e-09	-5.068115e+01	-2.382369e+02
3.600000e-07	-5.979811e-06	-3.639847e-09	-5.033481e+01	-2.374771e+02
3.700000e-07	-5.937330e-06	-3.676647e-09	-4.997723e+01	-2.367047e+02
3.800000e-07	-5.893675e-06	-3.625442e-09	-4.960977e+01	-2.359152e+02
3.900000e-07	-5.849061e-06	-3.546925e-09	-4.923423e+01	-2.351047e+02
4.000000e-07	-5.803449e-06	-3.559571e-09	-4.885028e+01	-2.342694e+02
4.100000e-07	-5.756767e-06	-3.604143e-09	-4.845735e+01	-2.334060e+02
4.200000e-07	-5.709070e-06	-3.600785e-09	-4.805586e+01	-2.325118e+02
4.300000e-07	-5.660271e-06	-3.533801e-09	-4.764509e+01	-2.315848e+02
4.400000e-07	-5.610131e-06	-3.484063e-09	-4.722304e+01	-2.306236e+02
4.500000e-07	-5.558625e-06	-3.516465e-09	-4.678950e+01	-2.296277e+02
4.600000e-07	-5.505973e-06	-3.539747e-09	-4.634629e+01	-2.285971e+02
4.700000e-07	-5.452359e-06	-3.503366e-09	-4.589500e+01	-2.275324e+02
4.800000e-07	-5.397848e-06	-3.437799e-09	-4.543616e+01	-2.264344e+02
4.900000e-07	-5.342480e-06	-3.410814e-09	-4.497010e+01	-2.253045e+02
5.000000e-07	-5.286295e-06	-3.438816e-09	-4.449716e+01	-2.241440e+02
5.100000e-07	-5.229052e-06	-3.443497e-09	-4.401533e+01	-2.229543e+02
5.200000e-07	-5.170600e-06	-3.400086e-09	-4.352331e+01	-2.217367e+02
5.300000e-07	-5.111128e-06	-3.345579e-09	-4.302271e+01	-2.204922e+02
5.400000e-07	-5.050848e-06	-3.334068e-09	-4.251530e+01	-2.192215e+02
5.500000e-07	-4.989773e-06	-3.356284e-09	-4.200120e+01	-2.179249e+02
5.600000e-07	-4.927812e-06	-3.345342e-09	-4.147965e+01	-2.166025e+02
5.700000e-07	-4.865027e-06	-3.294948e-09	-4.095116e+01	-2.152540e+02
5.800000e-07	-4.801502e-06	-3.242622e-09	-4.041644e+01	-2.138787e+02
5.900000e-07	-4.737101e-06	-3.231589e-09	-3.987435e+01	-2.124759e+02
6.000000e-07	-4.671674e-06	-3.248389e-09	-3.932362e+01	-2.110445e+02
6.100000e-07	-4.605190e-06	-3.233607e-09	-3.876399e+01	-2.095836e+02
6.200000e-07	-4.537818e-06	-3.177872e-09	-3.819689e+01	-2.080921e+02
6.300000e-07	-4.469799e-06	-3.126534e-09	-3.762435e+01	-2.065692e+02
6.400000e-07	-4.401093e-06	-3.126680e-09	-3.704602e+01	-2.050142e+02
6.500000e-07	-4.331659e-06	-3.145079e-09	-3.646156e+01	-2.034265e+02
6.600000e-07	-4.261474e-06	-3.112866e-09	-3.587078e+01	-2.018059e+02
6.700000e-07	-4.190538e-06	-3.043600e-09	-3.527367e+01	-2.001520e+02
6.800000e-07	-4.118984e-06	-3.003672e-09	-3.467137e+01	-1.984650e+02
6.900000e-07	-4.046722e-06	-3.014917e-09	-3.406311e+01	-1.967450e+02
7.000000e-07	-3.973665e-06	-3.012912e-09	-3.344816e+01	-1.949920e+02
7.100000e-07	-3.899643e-06	-2.955233e-09	-3.282508e+01	-1.932062e+02
7.200000e-07	-3.824710e-06	-2.895602e-09	-3.219434e+01	-1.913874e+02
7.300000e-07	-3.749114e-06	-2.881940e-09	-3.155801e+01	-1.895356e+02
7.400000e-07	-3.672793e-06	-2.888618e-09	-3.091558e+01	-1.876502e+02
7.500000e-07	-3.595721e-06	-2.857532e-09	-3.026683e+01	-1.857306e+02
7.600000e-07	-3.517932e-06	-2.794679e-09	-2.961205e+01	-1.837756e+02
7.700000e-07	-3.439450e-06	-2.756586e-09	-2.895142e+01	-1.817841e+02
7.800000e-07	-3.360276e-06	-2.747292e-09	-2.828499e+01	-1.797545e+02
7.900000e-07	-3.280387e-06	-2.729444e-09	-2.761252e+01	-1.776852e+02
8.000000e-07	-3.199856e-06	-2.684717e-09	-2.693465e+01	-1.755743e+02
8.100000e-07	-3.118822e-06	-2.635229e-09	-2.625256e+01	-1.734199e+02
8.200000e-07	-3.037290e-06	-2.604317e-09	-2.556626e+01	-1.712203e+02
8.300000e-07	-2.955168e-06	-2.578745e-09	-2.487500e+01	-1.689737e+02
8.400000e-07	-2.872521e-06	-2.545648e-09	-2.417933e+01	-1.666788e+02
8.500000e-07	-2.789466e-06	-2.505321e-09	-2.348021e+01	-1.643342e+02
8.600000e-07	-2.705995e-06	-2.463093e-09	-2.277760e+01	-1.619392e+02
8.700000e-07	-2.622199e-06	-2.423653e-09	-2.207225e+01	-1.594931e+02
8.800000e-07	-2.538053e-06	-2.387811e-09	-2.136396e+01	-1.569958e+02
8.900000e-07	-2.453488e-06	-2.355418e-09	-2.065213e+01	-1.544472e+02
9.000000e-07	-2.368529e-06	-2.316094e-09	-1.993700e+01	-1.518478e+02
9.100000e-07	-2.283106e-06	-2.265332e-09	-1.921795e+01	-1.491980e+02
9.200000e-07	-2.197294e-06	-2.219577e-09	-1.849563e+01	-1.464983e+02
9.300000e-07	-2.111164e-06	-2.188369e-09	-1.777064e+01	-1.437495e+02
9.400000e-07	-2.024666e-06	-2.155633e-09	-1.704254e+01	-1.409521e+02
9.500000e-07	-1.937821e-06	-2.103394e-09	-1.631152e+01	-1.381065e+02
9.600000e-07	-1.850666e-06	-2.044484e-09	-1.557791e+01	-1.352130e+02
9.700000e-07	-1.763256e-06	-2.003394e-09	-1.484213e+01	-1.322714e+02
9.800000e-07	-1.675631e-06	-1.973043e-09	-1.410456e+01	-1.292814e+02
9.900000e-07	-1.587784e-06	-1.928836e-09	-1.336510e+01	-1.262426e+02
1.000000e-06	-1.499595e-06	-1.866537e-09	-1.262278e+01	-1.231540e+02
1.010000e-06	-1.411065e-06	-1.810901e-09	-1.187758e+01	-1.200146e+02
1.020000e-06	-1.322264e-06	-1.775174e-09	-1.113010e+01	-1.168232e+02
1.030000e-06	-1.233242e-06	-1.736644e-09	-1.038077e+01	-1.135785e+02
1.040000e-06	-1.144060e-06	-1.676908e-09	-9.630073e+00	-1.102792e+02
1.050000e-06	-1.054542e-06	-1.611188e-09	-8.876560e+00	-1.069240e+02
1.060000e-06	-9.646983e-07	-1.565593e-09	-8.120308e+00	-1.035120e+02
1.070000e-06	-8.746826e-07	-1.528105e-09	-7.362604e+00	-1.000421e+02
1.080000e-06	-7.845101e-07	-1.471947e-09	-6.603581e+00	-9.651379e+01
1.090000e-06	-6.941864e-07	-1.403009e-09	-5.843285e+00	-9.292660e+01
1.100000e-06	-6.037277e-07	-1.342668e-09	-5.081853e+00	-8.928040e+01
1.110000e-06	-5.131895e-07	-1.296490e-09	-4.319751e+00	-8.557524e+01
1.120000e-06	-4.225703e-07	-1.244413e-09	-3.556967e+00	-8.181135e+01
1.130000e-06	-3.318805e-07	-1.179150e-09	-2.793590e+00	-7.798905e+01
1.140000e-06	-2.411117e-07	-1.115199e-09	-2.029548e+00	-7.410868e+01
1.150000e-06	-1.502612e-07	-1.058932e-09	-1.264818e+00	-7.017051e+01
1.160000e-06	-5.939962e-08	-1.004404e-09	-4.999938e-01	-6.617465e+01
1.170000e-06	3.146069e-08	-9.417316e-10	2.648190e-01	-6.212097e+01
1.180000e-06	1.223141e-07	-8.728849e-10	1.029574e+00	-5.800901e+01
1.190000e-06	2.131396e-07	-8.054855e-10	1.794093e+00	-5.383798e+01
1.200000e-06	3.038598e-07	-7.411266e-10	2.557727e+00	-4.960672e+01
1.210000e-06	3.944805e-07	-6.777529e-10	3.320523e+00	-4.531368e+01
1.220000e-06	4.850644e-07	-6.115992e-10	4.083010e+00	-4.095700e+01
1.230000e-06	5.755776e-07	-5.428065e-10	4.844900e+00	-3.653458e+01
1.240000e-06	6.660690e-07	-4.736914e-10	5.606608e+00	-3.204414e+01
1.250000e-06	7.564509e-07	-4.042926e-10	6.367394e+00	-2.748338e+01
1.260000e-06	8.466614e-07	-3.342760e-10	7.126737e+00	-2.285011e+01
1.270000e-06	9.367284e-07	-2.588231e-10	7.884872e+00	-1.814242e+01
1.280000e-06	1.026581e-06	-1.791613e-10	8.641199e+00	-1.335880e+01
1.290000e-06	1.116235e-06	-1.023742e-10	9.395862e+00	-8.498370e+00
1.300000e-06	1.205683e-06	-2.848994e-11	1.014879e+01	-3.560966e+00
1.310000e-06	1.294867e-06	4.473529e-11	1.089949e+01	1.452690e+00
1.320000e-06	1.383708e-06	1.235575e-10	1.164730e+01	6.540882e+00
1.330000e-06	1.472168e-06	2.069427e-10	1.239191e+01	1.170082e+01
1.340000e-06	1.560222e-06	2.876067e-10	1.313311e+01	1.692858e+01
1.350000e-06	1.647912e-06	3.657410e-10	1.387123e+01	2.221907e+01
1.360000e-06	1.735342e-06	4.484777e-10	1.460717e+01	2.756608e+01
1.370000e-06	1.822559e-06	5.361696e-10	1.534131e+01	3.296226e+01
1.380000e-06	1.909597e-06	6.231360e-10	1.607395e+01	3.839925e+01
1.390000e-06	1.996422e-06	7.073522e-10	1.680480e+01	4.386777e+01
1.400000e-06	2.082919e-06	7.901563e-10	1.753288e+01	4.935773e+01
1.410000e-06	2.168978e-06	8.729430e-10	1.825728e+01	5.485839e+01
1.420000e-06	2.254587e-06	9.577163e-10	1.897789e+01	6.035850e+01
1.430000e-06	2.339841e-06	1.042633e-09	1.969551e+01	6.584650e+01
1.440000e-06	2.424829e-06	1.126864e-09	2.041090e+01	7.131070e+01
1.450000e-06	2.509507e-06	1.210527e-09	2.112367e+01	7.673943e+01
1.460000e-06	2.593713e-06	1.291187e-09	2.183247e+01	8.212124e+01
1.470000e-06	2.677405e-06	1.372085e-09	2.253694e+01	8.744506e+01
1.480000e-06	2.760703e-06	1.455447e-09	2.323810e+01	9.270038e+01
1.490000e-06	2.843641e-06	1.537886e-09	2.393623e+01	9.787737e+01
1.500000e-06	2.926249e-06	1.613767e-09	2.463158e+01	1.029671e+02
1.510000e-06	3.008321e-06	1.686152e-09	2.532242e+01	1.079614e+02
1.520000e-06	3.089710e-06	1.762309e-09	2.600750e+01	1.128534e+02
1.530000e-06	3.170517e-06	1.839458e-09	2.668769e+01	1.176372e+02
1.540000e-06	3.250745e-06	1.910281e-09	2.736301e+01	1.223080e+02
1.550000e-06	3.330424e-06	1.976202e-09	2.803370e+01	1.268624e+02
1.560000e-06	3.409579e-06	2.046605e-09	2.869999e+01	1.312980e+02
1.570000e-06	3.488122e-06	2.118939e-09	2.936112e+01	1.356136e+02
1.580000e-06	3.565854e-06	2.184774e-09	3.001543e+01	1.398092e+02
1.590000e-06	3.642878e-06	2.245398e-09	3.066377e+01	1.438857e+02
1.600000e-06	3.719345e-06	2.303890e-09	3.130743e+01	1.478448e+02
1.610000e-06	3.795090e-06	2.366062e-09	3.194501e+01	1.516893e+02
1.620000e-06	3.870113e-06	2.425856e-09	3.257651e+01	1.554224e+02
1.630000e-06	3.944411e-06	2.478100e-09	3.320191e+01	1.590478e+02
1.640000e-06	4.017727e-06	2.526344e-09	3.381905e+01	1.625695e+02
1.650000e-06	4.090042e-06	2.574282e-09	3.442775e+01	1.659917e+02
1.660000e-06	4.161575e-06	2.626348e-09	3.502988e+01	1.693185e+02
1.670000e-06	4.232537e-06	2.676927e-09	3.562720e+01	1.725541e+02
1.680000e-06	4.302854e-06	2.723726e-09	3.621910e+01	1.757021e+02
1.690000e-06	4.372422e-06	2.771311e-09	3.680468e+01	1.787658e+02
1.700000e-06	4.441285e-06	2.816620e-09	3.738433e+01	1.817481e+02
1.710000e-06	4.509342e-06	2.858821e-09	3.795720e+01	1.846515e+02
1.720000e-06	4.576668e-06	2.899150e-09	3.852391e+01	1.874777e+02
1.730000e-06	4.643281e-06	2.938704e-09	3.908462e+01	1.902283e+02
1.740000e-06	4.708954e-06	2.975177e-09	3.963742e+01	1.929040e+02
1.750000e-06	4.773536e-06	3.008092e-09	4.018104e+01	1.955057e+02
1.760000e-06	4.837201e-06	3.044037e-09	4.071694e+01	1.980336e+02
1.770000e-06	4.900179e-06	3.082217e-09	4.124705e+01	2.004879e+02
1.780000e-06	4.962428e-06	3.119230e-09	4.177103e+01	2.028688e+02
1.790000e-06	5.023892e-06	3.152781e-09	4.228840e+01	2.051766e+02
1.800000e-06	5.084548e-06	3.184482e-09	4.279897e+01	2.074116e+02
1.810000e-06	5.144403e-06	3.216243e-09	4.330279e+01	2.095747e+02
1.820000e-06	5.203406e-06	3.245001e-09	4.379945e+01	2.116668e+02
1.830000e-06	5.261365e-06	3.270161e-09	4.428732e+01	2.136892e+02
1.840000e-06	5.318124e-06	3.294718e-09	4.476509e+01	2.156437e+02
1.850000e-06	5.373861e-06	3.320967e-09	4.523425e+01	2.175324e+02
1.860000e-06	5.428766e-06	3.348021e-09	4.569641e+01	2.193575e+02
1.870000e-06	5.482763e-06	3.374448e-09	4.615093e+01	2.211214e+02
1.880000e-06	5.535840e-06	3.399346e-09	4.659770e+01	2.228268e+02
1.890000e-06	5.587910e-06	3.423445e-09	4.703600e+01	2.244762e+02
1.900000e-06	5.638743e-06	3.449811e-09	4.746388e+01	2.260720e+02
1.910000e-06	5.688228e-06	3.475044e-09	4.788042e+01	2.276163e+02
1.920000e-06	5.736420e-06	3.495733e-09	4.828607e+01	2.291110e+02
1.930000e-06	5.783548e-06	3.514896e-09	4.868277e+01	2.305577e+02
1.940000e-06	5.829769e-06	3.534266e-09	4.907184e+01	2.319573e+02
1.950000e-06	5.875044e-06	3.553240e-09	4.945293e+01	2.333104e+02
1.960000e-06	5.919421e-06	3.571810e-09	4.982648e+01	2.346173e+02
1.970000e-06	5.962893e-06	3.590753e-09	5.019240e+01	2.358780e+02
1.980000e-06	6.005217e-06	3.610609e-09	5.054866e+01	2.370918e+02
1.990000e-06	6.046202e-06	3.629730e-09	5.089365e+01	2.382585e+02
2.000000e-06	6.086029e-06	3.649589e-09	5.122889e+01	2.393773e+02
2.010000e-06	6.124941e-06	3.668425e-09	5.155643e+01	2.404479e+02
2.020000e-06	6.162916e-06	3.683834e-09	5.187608e+01	2.414698e+02
2.030000e-06	6.199876e-06	3.698438e-09	5.218719e+01	2.424431e+02
2.040000e-06	6.235871e-06	3.713406e-09	5.249018e+01	2.433683e+02
2.050000e-06	6.270836e-06	3.727118e-09	5.278450e+01	2.442461e+02
2.060000e-06	6.304507e-06	3.740790e-09	5.306793e+01	2.450779e+02
2.070000e-06	6.336876e-06	3.754375e-09	5.334039e+01	2.458655e+02
2.080000e-06	6.368188e-06	3.766547e-09	5.360396e+01	2.466109e+02
2.090000e-06	6.398466e-06	3.779255e-09	5.385882e+01	2.473167e+02
2.100000e-06	6.427643e-06	3.792783e-09	5.410441e+01	2.479856e+02
2.110000e-06	6.455823e-06	3.804973e-09	5.434162e+01	2.486201e+02
2.120000e-06	6.483020e-06	3.815263e-09	5.457055e+01	2.492231e+02
2.130000e-06	6.508909e-06	3.824025e-09	5.478846e+01	2.497970e+02
2.140000e-06	6.533390e-06	3.831070e-09	5.499454e+01	2.503438e+02
2.150000e-06	6.556690e-06	3.841432e-09	5.519067e+01	2.508652e+02
2.160000e-06	6.578892e-06	3.853448e-09	5.537755e+01	2.513623e+02
2.170000e-06	6.600004e-06	3.862731e-09	5.555525e+01	2.518357e+02
2.180000e-06	6.620141e-06	3.870601e-09	5.572476e+01	2.522854e+02
2.190000e-06	6.639264e-06	3.880193e-09	5.588572e+01	2.527107e+02
2.200000e-06	6.657112e-06	3.890564e-09	5.603596e+01	2.531106e+02
2.210000e-06	6.673734e-06	3.896910e-09	5.617588e+01	2.534839e+02
2.220000e-06	6.689144e-06	3.900643e-09	5.630559e+01	2.538288e+02
2.230000e-06	6.703271e-06	3.906359e-09	5.642450e+01	2.541437e+02
2.240000e-06	6.716255e-06	3.912758e-09	5.653379e+01	2.544271e+02
2.250000e-06	6.728042e-06	3.916937e-09	5.663301e+01	2.546778e+02
2.260000e-06	6.738364e-06	3.917653e-09	5.671990e+01	2.548949e+02
2.270000e-06	6.747209e-06	3.917827e-09	5.679434e+01	2.550779e+02
2.280000e-06	6.754818e-06	3.921070e-09	5.685840e+01	2.552272e+02
2.290000e-06	6.761281e-06	3.925851e-09	5.691280e+01	2.553436e+02
2.300000e-06	6.766556e-06	3.930388e-09	5.695720e+01	2.554284e+02
2.310000e-06	6.770829e-06	3.931977e-09	5.699317e+01	2.554835e+02
2.320000e-06	6.774087e-06	3.932754e-09	5.702059e+01	2.555114e+02
2.330000e-06	6.775996e-06	3.934355e-09	5.703666e+01	2.555145e+02
2.340000e-06	6.776571e-06	3.936183e-09	5.704150e+01	2.554954e+02
2.350000e-06	6.775958e-06	3.938094e-09	5.703634e+01	2.554568e+02
2.360000e-06	6.774251e-06	3.936059e-09	5.702197e+01	2.554008e+02
2.370000e-06	6.771489e-06	3.931841e-09	5.699873e+01	2.553292e+02
2.380000e-06	6.767774e-06	3.930245e-09	5.696745e+01	2.552430e+02
2.390000e-06	6.763188e-06	3.929628e-09	5.692885e+01	2.551426e+02
2.400000e-06	6.757264e-06	3.929308e-09	5.687899e+01	2.550276e+02
2.410000e-06	6.749912e-06	3.925623e-09	5.681710e+01	2.548965e+02
2.420000e-06	6.741541e-06	3.916272e-09	5.674663e+01	2.547474e+02
2.430000e-06	6.732173e-06	3.912665e-09	5.666778e+01	2.545775e+02
2.440000e-06	6.721507e-06	3.901680e-09	5.657800e+01	2.543834e+02
2.450000e-06	6.709020e-06	3.884806e-09	5.647289e+01	2.541615e+02
2.460000e-06	6.694563e-06	3.893552e-09	5.635120e+01	2.539079e+02
2.470000e-06	6.678804e-06	3.877234e-09	5.621855e+01	2.536191e+02
2.480000e-06	6.662568e-06	3.901336e-09	5.608189e+01	2.532918e+02
2.490000e-06	6.645677e-06	3.916539e-09	5.593970e+01	2.529232e+02
2.500000e-06	6.627278e-06	3.831577e-09	5.578484e+01	2.525115e+02
2.510000e-06	6.607691e-06	3.875302e-09	5.561996e+01	2.520556e+02
2.520000e-06	6.587540e-06	3.896820e-09	5.545034e+01	2.515557e+02
2.530000e-06	6.566023e-06	3.839113e-09	5.526922e+01	2.510129e+02
2.540000e-06	6.542830e-06	3.886188e-09	5.507399e+01	2.504294e+02
2.550000e-06	6.518577e-06	3.861722e-09	5.486985e+01	2.498085e+02
2.560000e-06	6.493376e-06	3.759439e-09	5.465772e+01	2.491542e+02
2.570000e-06	6.467229e-06	3.763469e-09	5.443763e+01	2.484712e+02
2.580000e-06	6.439939e-06	3.761446e-09	5.420792e+01	2.477645e+02
2.590000e-06	6.411356e-06	3.711056e-09	5.396732e+01	2.470395e+02
2.600000e-06	6.381742e-06	3.748972e-09	5.371804e+01	2.463012e+02
2.610000e-06	6.350875e-06	3.720091e-09	5.345822e+01	2.455543e+02
2.620000e-06	6.318529e-06	3.659413e-09	5.318595e+01	2.448030e+02
2.630000e-06	6.285085e-06	3.682909e-09	5.290444e+01	2.440506e+02
2.640000e-06	6.250595e-06	3.692090e-09	5.261412e+01	2.432994e+02
2.650000e-06	6.215130e-06	3.702618e-09	5.231559e+01	2.425506e+02
2.660000e-06	6.178806e-06	3.621281e-09	5.200984e+01	2.418044e+02
2.670000e-06	6.141168e-06	3.557828e-09	5.169302e+01	2.410599e+02
2.680000e-06	6.102179e-06	3.651258e-09	5.136483e+01	2.403152e+02
2.690000e-06	6.062121e-06	3.667271e-09	5.102765e+01	2.395674e+02
2.700000e-06	6.021056e-06	3.604343e-09	5.068199e+01	2.388133e+02
2.710000e-06	5.978999e-06	3.535927e-09	5.032797e+01	2.380488e+02
2.720000e-06	5.935902e-06	3.555076e-09	4.996521e+01	2.372699e+02
2.730000e-06	5.891974e-06	3.641650e-09	4.959545e+01	2.364724e+02
2.740000e-06	5.847113e-06	3.578384e-09	4.921783e+01	2.356523e+02
2.750000e-06	5.801192e-06	3.499198e-09	4.883129e+01	2.348060e+02
2.760000e-06	5.754206e-06	3.490069e-09	4.843579e+01	2.339304e+02
2.770000e-06	5.705995e-06	3.513083e-09	4.802997e+01	2.330231e+02
2.780000e-06	5.656703e-06	3.538680e-09	4.761506e+01	2.320824e+02
2.790000e-06	5.606408e-06	3.477978e-09	4.719171e+01	2.311073e+02
2.800000e-06	5.555189e-06	3.445835e-09	4.676057e+01	2.300974e+02
2.810000e-06	5.502972e-06	3.441539e-09	4.632103e+01	2.290529e+02
2.820000e-06	5.449414e-06	3.442295e-09	4.587021e+01	2.279746e+02
2.830000e-06	5.394540e-06	3.457100e-09	4.540832e+01	2.268635e+02
2.840000e-06	5.338670e-06	3.412668e-09	4.493803e+01	2.257211e+02
2.850000e-06	5.281962e-06	3.370907e-09	4.446069e+01	2.245487e+02
2.860000e-06	5.224389e-06	3.350410e-09	4.397608e+01	2.233475e+02
2.870000e-06	5.165851e-06	3.364705e-09	4.348333e+01	2.221189e+02
2.880000e-06	5.106469e-06	3.370903e-09	4.298349e+01	2.208637e+02
2.890000e-06	5.046373e-06	3.313197e-09	4.247763e+01	2.195825e+02
2.900000e-06	4.985309e-06	3.268354e-09	4.196363e+01	2.182755e+02
2.910000e-06	4.923065e-06	3.259976e-09	4.143969e+01	2.169426e+02
2.920000e-06	4.859795e-06	3.280535e-09	4.090712e+01	2.155833e+02
2.930000e-06	4.795719e-06	3.261853e-09	4.036776e+01	2.141970e+02
2.940000e-06	4.730881e-06	3.187527e-09	3.982200e+01	2.127827e+02
