# Temperatura_=_20.0
# Concentracion g/m^3_=_12600.0
# C_Vs_to_Am_M_A/Vsm_=_65563218390.804596
# pendiente_HvsI_1/m_=_3716.3
# ordenada_HvsI_A/m_=_1297.0
# frecuencia_Hz_=_213149.0055788207

Tiempo_(s)	Campo_(V.s)	Magnetizacion_(V.s)	Campo_(kA/m)	Magnetizacion_(A/m)
0.000000e+00	-6.731227e-06	-3.828747e-09	-5.683895e+01	-2.490973e+02
1.000000e-08	-6.730646e-06	-3.827742e-09	-5.683404e+01	-2.490593e+02
2.000000e-08	-6.728596e-06	-3.828467e-09	-5.681673e+01	-2.489958e+02
3.000000e-08	-6.725129e-06	-3.827966e-09	-5.678746e+01	-2.489084e+02
4.000000e-08	-6.720759e-06	-3.828180e-09	-5.675056e+01	-2.487993e+02
5.000000e-08	-6.715333e-06	-3.826035e-09	-5.670475e+01	-2.486712e+02
6.000000e-08	-6.708733e-06	-3.820490e-09	-5.664901e+01	-2.485269e+02
7.000000e-08	-6.701189e-06	-3.812431e-09	-5.658531e+01	-2.483693e+02
8.000000e-08	-6.692744e-06	-3.798113e-09	-5.651399e+01	-2.482015e+02
9.000000e-08	-6.682779e-06	-3.810232e-09	-5.642986e+01	-2.480262e+02
1.000000e-07	-6.670934e-06	-3.856706e-09	-5.632984e+01	-2.478458e+02
1.100000e-07	-6.657580e-06	-3.857550e-09	-5.621707e+01	-2.476623e+02
1.200000e-07	-6.642815e-06	-3.828516e-09	-5.609240e+01	-2.474771e+02
1.300000e-07	-6.626603e-06	-3.737396e-09	-5.595550e+01	-2.472906e+02
1.400000e-07	-6.609323e-06	-3.705083e-09	-5.580958e+01	-2.471026e+02
1.500000e-07	-6.591152e-06	-3.871955e-09	-5.565615e+01	-2.469122e+02
1.600000e-07	-6.571995e-06	-3.840012e-09	-5.549438e+01	-2.467174e+02
1.700000e-07	-6.551999e-06	-3.731460e-09	-5.532554e+01	-2.465155e+02
1.800000e-07	-6.530859e-06	-3.791500e-09	-5.514703e+01	-2.463034e+02
1.900000e-07	-6.508521e-06	-3.698761e-09	-5.495841e+01	-2.460772e+02
2.000000e-07	-6.485413e-06	-3.713983e-09	-5.476328e+01	-2.458328e+02
2.100000e-07	-6.461316e-06	-3.879070e-09	-5.455981e+01	-2.455660e+02
2.200000e-07	-6.435653e-06	-3.714962e-09	-5.434310e+01	-2.452726e+02
2.300000e-07	-6.408513e-06	-3.606045e-09	-5.411393e+01	-2.449484e+02
2.400000e-07	-6.380410e-06	-3.761495e-09	-5.387663e+01	-2.445901e+02
2.500000e-07	-6.351427e-06	-3.757300e-09	-5.363190e+01	-2.441945e+02
2.600000e-07	-6.321293e-06	-3.704637e-09	-5.337744e+01	-2.437593e+02
2.700000e-07	-6.289932e-06	-3.647172e-09	-5.311262e+01	-2.432829e+02
2.800000e-07	-6.257678e-06	-3.596923e-09	-5.284027e+01	-2.427646e+02
2.900000e-07	-6.224476e-06	-3.692369e-09	-5.255991e+01	-2.422042e+02
3.000000e-07	-6.189867e-06	-3.703813e-09	-5.226767e+01	-2.416026e+02
3.100000e-07	-6.153927e-06	-3.609144e-09	-5.196419e+01	-2.409610e+02
3.200000e-07	-6.116844e-06	-3.590457e-09	-5.165106e+01	-2.402814e+02
3.300000e-07	-6.078709e-06	-3.616273e-09	-5.132904e+01	-2.395660e+02
3.400000e-07	-6.039620e-06	-3.625847e-09	-5.099897e+01	-2.388173e+02
3.500000e-07	-5.999618e-06	-3.624965e-09	-5.066119e+01	-2.380379e+02
3.600000e-07	-5.958572e-06	-3.603469e-09	-5.031460e+01	-2.372302e+02
3.700000e-07	-5.916082e-06	-3.545028e-09	-4.995581e+01	-2.363966e+02
3.800000e-07	-5.872343e-06	-3.542013e-09	-4.958647e+01	-2.355390e+02
3.900000e-07	-5.827736e-06	-3.592237e-09	-4.920981e+01	-2.346589e+02
4.000000e-07	-5.782139e-06	-3.556302e-09	-4.882479e+01	-2.337574e+02
4.100000e-07	-5.735463e-06	-3.496099e-09	-4.843065e+01	-2.328353e+02
4.200000e-07	-5.687869e-06	-3.486820e-09	-4.802877e+01	-2.318927e+02
4.300000e-07	-5.639301e-06	-3.501316e-09	-4.761865e+01	-2.309293e+02
4.400000e-07	-5.589327e-06	-3.502370e-09	-4.719667e+01	-2.299446e+02
4.500000e-07	-5.537883e-06	-3.462594e-09	-4.676227e+01	-2.289377e+02
4.600000e-07	-5.485337e-06	-3.428430e-09	-4.631857e+01	-2.279076e+02
4.700000e-07	-5.431826e-06	-3.423778e-09	-4.586672e+01	-2.268532e+02
4.800000e-07	-5.377360e-06	-3.423061e-09	-4.540680e+01	-2.257734e+02
4.900000e-07	-5.322010e-06	-3.401627e-09	-4.493943e+01	-2.246671e+02
5.000000e-07	-5.265825e-06	-3.363888e-09	-4.446499e+01	-2.235335e+02
5.100000e-07	-5.208637e-06	-3.341489e-09	-4.398209e+01	-2.223717e+02
5.200000e-07	-5.150258e-06	-3.337369e-09	-4.348914e+01	-2.211813e+02
5.300000e-07	-5.090839e-06	-3.337886e-09	-4.298740e+01	-2.199620e+02
5.400000e-07	-5.030652e-06	-3.308568e-09	-4.247917e+01	-2.187136e+02
5.500000e-07	-4.969686e-06	-3.267502e-09	-4.196438e+01	-2.174360e+02
5.600000e-07	-4.907852e-06	-3.261313e-09	-4.144225e+01	-2.161295e+02
5.700000e-07	-4.845224e-06	-3.262300e-09	-4.091341e+01	-2.147942e+02
5.800000e-07	-4.781792e-06	-3.229811e-09	-4.037778e+01	-2.134303e+02
5.900000e-07	-4.717514e-06	-3.180361e-09	-3.983501e+01	-2.120379e+02
6.000000e-07	-4.652276e-06	-3.167680e-09	-3.928414e+01	-2.106172e+02
6.100000e-07	-4.585974e-06	-3.170547e-09	-3.872428e+01	-2.091682e+02
6.200000e-07	-4.518770e-06	-3.140783e-09	-3.815681e+01	-2.076907e+02
6.300000e-07	-4.450841e-06	-3.096721e-09	-3.758321e+01	-2.061844e+02
6.400000e-07	-4.382247e-06	-3.074925e-09	-3.700400e+01	-2.046491e+02
6.500000e-07	-4.312987e-06	-3.076333e-09	-3.641916e+01	-2.030842e+02
6.600000e-07	-4.243015e-06	-3.055942e-09	-3.582831e+01	-2.014892e+02
6.700000e-07	-4.172294e-06	-3.008312e-09	-3.523114e+01	-1.998634e+02
6.800000e-07	-4.100871e-06	-2.975663e-09	-3.462804e+01	-1.982063e+02
6.900000e-07	-4.028790e-06	-2.968366e-09	-3.401939e+01	-1.965170e+02
7.000000e-07	-3.955942e-06	-2.954534e-09	-3.340425e+01	-1.947950e+02
7.100000e-07	-3.882172e-06	-2.908784e-09	-3.278133e+01	-1.930396e+02
7.200000e-07	-3.807455e-06	-2.865738e-09	-3.215042e+01	-1.912501e+02
7.300000e-07	-3.731937e-06	-2.854110e-09	-3.151273e+01	-1.894260e+02
7.400000e-07	-3.655725e-06	-2.844433e-09	-3.086920e+01	-1.875664e+02
7.500000e-07	-3.578903e-06	-2.805610e-09	-3.022051e+01	-1.856709e+02
7.600000e-07	-3.501455e-06	-2.755117e-09	-2.956653e+01	-1.837385e+02
7.700000e-07	-3.423249e-06	-2.730903e-09	-2.890616e+01	-1.817687e+02
7.800000e-07	-3.344350e-06	-2.720858e-09	-2.823993e+01	-1.797604e+02
7.900000e-07	-3.264792e-06	-2.689830e-09	-2.756813e+01	-1.777127e+02
8.000000e-07	-3.184515e-06	-2.640027e-09	-2.689027e+01	-1.756246e+02
8.100000e-07	-3.103626e-06	-2.600849e-09	-2.620723e+01	-1.734949e+02
8.200000e-07	-3.022168e-06	-2.582666e-09	-2.551940e+01	-1.713225e+02
8.300000e-07	-2.940143e-06	-2.557270e-09	-2.482678e+01	-1.691062e+02
8.400000e-07	-2.857668e-06	-2.511085e-09	-2.413035e+01	-1.668448e+02
8.500000e-07	-2.774779e-06	-2.466923e-09	-2.343043e+01	-1.645372e+02
8.600000e-07	-2.691463e-06	-2.438776e-09	-2.272690e+01	-1.621824e+02
8.700000e-07	-2.607776e-06	-2.414023e-09	-2.202025e+01	-1.597797e+02
8.800000e-07	-2.523730e-06	-2.373117e-09	-2.131055e+01	-1.573284e+02
8.900000e-07	-2.439257e-06	-2.324448e-09	-2.059726e+01	-1.548281e+02
9.000000e-07	-2.354398e-06	-2.286223e-09	-1.988070e+01	-1.522786e+02
9.100000e-07	-2.269222e-06	-2.251731e-09	-1.916147e+01	-1.496800e+02
9.200000e-07	-2.183718e-06	-2.213701e-09	-1.843947e+01	-1.470327e+02
9.300000e-07	-2.097841e-06	-2.172586e-09	-1.771431e+01	-1.443370e+02
9.400000e-07	-2.011588e-06	-2.131529e-09	-1.698599e+01	-1.415934e+02
9.500000e-07	-1.924989e-06	-2.089653e-09	-1.625474e+01	-1.388026e+02
9.600000e-07	-1.838105e-06	-2.044542e-09	-1.552109e+01	-1.359651e+02
9.700000e-07	-1.750959e-06	-2.003664e-09	-1.478522e+01	-1.330811e+02
9.800000e-07	-1.663503e-06	-1.965746e-09	-1.404674e+01	-1.301509e+02
9.900000e-07	-1.575726e-06	-1.922041e-09	-1.330554e+01	-1.271744e+02
1.000000e-06	-1.487691e-06	-1.869389e-09	-1.256217e+01	-1.241510e+02
1.010000e-06	-1.399423e-06	-1.817285e-09	-1.181682e+01	-1.210800e+02
1.020000e-06	-1.310935e-06	-1.778349e-09	-1.106963e+01	-1.179603e+02
1.030000e-06	-1.222241e-06	-1.739049e-09	-1.032068e+01	-1.147902e+02
1.040000e-06	-1.133270e-06	-1.682923e-09	-9.569411e+00	-1.115679e+02
1.050000e-06	-1.044048e-06	-1.621192e-09	-8.816011e+00	-1.082915e+02
1.060000e-06	-9.545919e-07	-1.574455e-09	-8.060641e+00	-1.049588e+02
1.070000e-06	-8.650457e-07	-1.537336e-09	-7.304506e+00	-1.015677e+02
1.080000e-06	-7.753667e-07	-1.484555e-09	-6.547251e+00	-9.811590e+01
1.090000e-06	-6.854185e-07	-1.415091e-09	-5.787722e+00	-9.460169e+01
1.100000e-06	-5.952823e-07	-1.351529e-09	-5.026605e+00	-9.102343e+01
1.110000e-06	-5.050796e-07	-1.305938e-09	-4.264928e+00	-8.737989e+01
1.120000e-06	-4.148091e-07	-1.260610e-09	-3.502677e+00	-8.367027e+01
1.130000e-06	-3.244307e-07	-1.196868e-09	-2.739515e+00	-7.989418e+01
1.140000e-06	-2.339910e-07	-1.126749e-09	-1.975836e+00	-7.605167e+01
1.150000e-06	-1.435287e-07	-1.068292e-09	-1.211966e+00	-7.214318e+01
1.160000e-06	-5.308246e-08	-1.018637e-09	-4.482320e-01	-6.816940e+01
1.170000e-06	3.739303e-08	-9.598214e-10	3.157494e-01	-6.413122e+01
1.180000e-06	1.279401e-07	-8.854854e-10	1.080336e+00	-6.002959e+01
1.190000e-06	2.184462e-07	-8.125713e-10	1.844575e+00	-5.586537e+01
1.200000e-06	3.088911e-07	-7.512288e-10	2.608298e+00	-5.163919e+01
1.210000e-06	3.993228e-07	-6.930752e-10	3.371910e+00	-4.735137e+01
1.220000e-06	4.896952e-07	-6.256265e-10	4.135021e+00	-4.300179e+01
1.230000e-06	5.799397e-07	-5.491676e-10	4.897051e+00	-3.858983e+01
1.240000e-06	6.699853e-07	-4.762973e-10	5.657403e+00	-3.411436e+01
1.250000e-06	7.598999e-07	-4.109196e-10	6.416648e+00	-2.957379e+01
1.260000e-06	8.496929e-07	-3.440027e-10	7.174866e+00	-2.496615e+01
1.270000e-06	9.392529e-07	-2.686342e-10	7.931117e+00	-2.028920e+01
1.280000e-06	1.028572e-06	-1.888913e-10	8.685337e+00	-1.554064e+01
1.290000e-06	1.117706e-06	-1.124055e-10	9.437987e+00	-1.071833e+01
1.300000e-06	1.206607e-06	-4.167903e-11	1.018867e+01	-5.820530e+00
1.310000e-06	1.295292e-06	2.860709e-11	1.093754e+01	-8.461838e-01
1.320000e-06	1.383758e-06	1.056438e-10	1.168455e+01	4.204842e+00
1.330000e-06	1.471956e-06	1.889916e-10	1.242930e+01	9.331498e+00
1.340000e-06	1.559837e-06	2.680174e-10	1.317137e+01	1.453134e+01
1.350000e-06	1.647409e-06	3.419964e-10	1.391084e+01	1.980038e+01
1.360000e-06	1.734710e-06	4.188164e-10	1.464802e+01	2.513294e+01
1.370000e-06	1.821746e-06	5.046852e-10	1.538295e+01	3.052167e+01
1.380000e-06	1.908560e-06	5.954043e-10	1.611601e+01	3.595753e+01
1.390000e-06	1.995095e-06	6.795756e-10	1.684672e+01	4.142995e+01
1.400000e-06	2.081250e-06	7.580653e-10	1.757422e+01	4.692699e+01
1.410000e-06	2.167054e-06	8.394457e-10	1.829876e+01	5.243557e+01
1.420000e-06	2.252461e-06	9.273598e-10	1.901994e+01	5.794183e+01
1.430000e-06	2.337447e-06	1.015318e-09	1.973757e+01	6.343141e+01
1.440000e-06	2.422095e-06	1.096856e-09	2.045234e+01	6.888986e+01
1.450000e-06	2.506449e-06	1.173523e-09	2.116463e+01	7.430298e+01
1.460000e-06	2.590450e-06	1.251460e-09	2.187394e+01	7.965720e+01
1.470000e-06	2.674014e-06	1.334375e-09	2.257956e+01	8.493990e+01
1.480000e-06	2.757154e-06	1.416611e-09	2.328160e+01	9.013971e+01
1.490000e-06	2.839860e-06	1.491540e-09	2.397998e+01	9.524671e+01
1.500000e-06	2.922095e-06	1.562004e-09	2.467437e+01	1.002526e+02
1.510000e-06	3.003769e-06	1.635486e-09	2.536404e+01	1.051508e+02
1.520000e-06	3.084870e-06	1.712621e-09	2.604885e+01	1.099364e+02
1.530000e-06	3.165387e-06	1.785078e-09	2.672875e+01	1.146063e+02
1.540000e-06	3.245303e-06	1.848684e-09	2.740356e+01	1.191588e+02
1.550000e-06	3.324618e-06	1.911667e-09	2.807331e+01	1.235936e+02
1.560000e-06	3.403363e-06	1.979280e-09	2.873823e+01	1.279117e+02
1.570000e-06	3.481487e-06	2.045620e-09	2.939792e+01	1.321150e+02
1.580000e-06	3.558935e-06	2.106943e-09	3.005190e+01	1.362060e+02
1.590000e-06	3.635775e-06	2.165049e-09	3.070074e+01	1.401877e+02
1.600000e-06	3.711982e-06	2.223726e-09	3.134423e+01	1.440633e+02
1.610000e-06	3.787483e-06	2.285011e-09	3.198177e+01	1.478362e+02
1.620000e-06	3.862187e-06	2.343799e-09	3.261258e+01	1.515094e+02
1.630000e-06	3.935947e-06	2.397437e-09	3.323542e+01	1.550858e+02
1.640000e-06	4.008802e-06	2.444119e-09	3.385060e+01	1.585680e+02
1.650000e-06	4.080903e-06	2.489612e-09	3.445943e+01	1.619580e+02
1.660000e-06	4.152340e-06	2.540516e-09	3.506265e+01	1.652579e+02
1.670000e-06	4.223105e-06	2.591024e-09	3.566019e+01	1.684689e+02
1.680000e-06	4.293128e-06	2.637592e-09	3.625147e+01	1.715925e+02
1.690000e-06	4.362407e-06	2.679671e-09	3.683647e+01	1.746296e+02
1.700000e-06	4.431008e-06	2.722317e-09	3.741574e+01	1.775813e+02
1.710000e-06	4.498885e-06	2.767091e-09	3.798890e+01	1.804487e+02
1.720000e-06	4.566050e-06	2.808786e-09	3.855604e+01	1.832327e+02
1.730000e-06	4.632393e-06	2.844892e-09	3.911625e+01	1.859347e+02
1.740000e-06	4.697703e-06	2.876429e-09	3.966773e+01	1.885560e+02
1.750000e-06	4.762024e-06	2.910044e-09	4.021086e+01	1.910984e+02
1.760000e-06	4.825500e-06	2.948006e-09	4.074686e+01	1.935635e+02
1.770000e-06	4.888234e-06	2.984915e-09	4.127659e+01	1.959534e+02
1.780000e-06	4.950198e-06	3.017276e-09	4.179982e+01	1.982702e+02
1.790000e-06	5.011416e-06	3.046828e-09	4.231675e+01	2.005159e+02
1.800000e-06	5.071894e-06	3.079571e-09	4.282743e+01	2.026927e+02
1.810000e-06	5.131605e-06	3.112136e-09	4.333163e+01	2.048026e+02
1.820000e-06	5.190392e-06	3.140115e-09	4.382803e+01	2.068476e+02
1.830000e-06	5.248064e-06	3.164892e-09	4.431502e+01	2.088293e+02
1.840000e-06	5.304644e-06	3.189544e-09	4.479278e+01	2.107493e+02
1.850000e-06	5.360275e-06	3.216515e-09	4.526254e+01	2.126089e+02
1.860000e-06	5.415027e-06	3.243003e-09	4.572487e+01	2.144091e+02
1.870000e-06	5.468860e-06	3.267654e-09	4.617943e+01	2.161509e+02
1.880000e-06	5.521749e-06	3.290057e-09	4.662604e+01	2.178350e+02
1.890000e-06	5.573541e-06	3.312254e-09	4.706337e+01	2.194621e+02
1.900000e-06	5.624046e-06	3.336900e-09	4.748984e+01	2.210328e+02
1.910000e-06	5.673187e-06	3.360657e-09	4.790478e+01	2.225478e+02
1.920000e-06	5.721155e-06	3.381658e-09	4.830983e+01	2.240078e+02
1.930000e-06	5.768133e-06	3.399981e-09	4.870652e+01	2.254137e+02
1.940000e-06	5.814165e-06	3.417728e-09	4.909521e+01	2.267665e+02
1.950000e-06	5.859300e-06	3.437603e-09	4.947634e+01	2.280675e+02
1.960000e-06	5.903500e-06	3.456864e-09	4.984957e+01	2.293179e+02
1.970000e-06	5.946750e-06	3.473177e-09	5.021478e+01	2.305193e+02
1.980000e-06	5.988876e-06	3.488988e-09	5.057049e+01	2.316734e+02
1.990000e-06	6.029730e-06	3.507479e-09	5.091546e+01	2.327817e+02
2.000000e-06	6.069448e-06	3.527494e-09	5.125084e+01	2.338460e+02
2.010000e-06	6.108119e-06	3.544273e-09	5.157739e+01	2.348681e+02
2.020000e-06	6.145748e-06	3.555748e-09	5.189513e+01	2.358493e+02
2.030000e-06	6.182403e-06	3.567947e-09	5.220465e+01	2.367912e+02
2.040000e-06	6.218160e-06	3.583840e-09	5.250658e+01	2.376949e+02
2.050000e-06	6.252889e-06	3.598394e-09	5.279983e+01	2.385615e+02
2.060000e-06	6.286299e-06	3.609073e-09	5.308195e+01	2.393918e+02
2.070000e-06	6.318461e-06	3.618447e-09	5.335352e+01	2.401864e+02
2.080000e-06	6.349633e-06	3.631035e-09	5.361675e+01	2.409458e+02
2.090000e-06	6.379779e-06	3.645730e-09	5.387130e+01	2.416704e+02
2.100000e-06	6.408851e-06	3.658893e-09	5.411679e+01	2.423603e+02
2.110000e-06	6.436951e-06	3.668501e-09	5.435406e+01	2.430159e+02
2.120000e-06	6.463990e-06	3.676794e-09	5.458238e+01	2.436374e+02
2.130000e-06	6.489695e-06	3.685246e-09	5.479944e+01	2.442253e+02
2.140000e-06	6.514066e-06	3.692728e-09	5.500523e+01	2.447799e+02
2.150000e-06	6.537304e-06	3.701316e-09	5.520145e+01	2.453019e+02
2.160000e-06	6.559416e-06	3.710417e-09	5.538816e+01	2.457921e+02
2.170000e-06	6.580412e-06	3.719035e-09	5.556545e+01	2.462513e+02
2.180000e-06	6.600466e-06	3.728805e-09	5.573479e+01	2.466807e+02
2.190000e-06	6.619523e-06	3.738783e-09	5.589571e+01	2.470812e+02
2.200000e-06	6.637243e-06	3.746610e-09	5.604534e+01	2.474539e+02
2.210000e-06	6.653758e-06	3.751029e-09	5.618480e+01	2.477997e+02
2.220000e-06	6.669124e-06	3.754910e-09	5.631455e+01	2.481196e+02
2.230000e-06	6.683143e-06	3.761324e-09	5.643293e+01	2.484142e+02
2.240000e-06	6.695940e-06	3.766545e-09	5.654099e+01	2.486839e+02
2.250000e-06	6.707542e-06	3.768234e-09	5.663895e+01	2.489290e+02
2.260000e-06	6.717717e-06	3.770718e-09	5.672487e+01	2.491494e+02
2.270000e-06	6.726433e-06	3.775683e-09	5.679847e+01	2.493448e+02
2.280000e-06	6.733985e-06	3.780742e-09	5.686224e+01	2.495147e+02
2.290000e-06	6.740396e-06	3.784101e-09	5.691637e+01	2.496585e+02
2.300000e-06	6.745652e-06	3.786596e-09	5.696076e+01	2.497754e+02
2.310000e-06	6.749906e-06	3.787672e-09	5.699668e+01	2.498649e+02
2.320000e-06	6.753118e-06	3.787530e-09	5.702380e+01	2.499265e+02
2.330000e-06	6.754875e-06	3.788610e-09	5.703864e+01	2.499600e+02
2.340000e-06	6.755214e-06	3.791555e-09	5.704150e+01	2.499655e+02
2.350000e-06	6.754572e-06	3.794812e-09	5.703608e+01	2.499435e+02
2.360000e-06	6.752950e-06	3.794617e-09	5.702238e+01	2.498951e+02
2.370000e-06	6.750213e-06	3.794355e-09	5.699927e+01	2.498217e+02
2.380000e-06	6.746472e-06	3.796636e-09	5.696768e+01	2.497252e+02
2.390000e-06	6.741834e-06	3.797396e-09	5.692851e+01	2.496082e+02
2.400000e-06	6.735871e-06	3.794990e-09	5.687817e+01	2.494731e+02
2.410000e-06	6.728455e-06	3.793114e-09	5.681554e+01	2.493231e+02
2.420000e-06	6.720052e-06	3.804333e-09	5.674459e+01	2.491610e+02
2.430000e-06	6.710706e-06	3.793651e-09	5.666567e+01	2.489898e+02
2.440000e-06	6.700081e-06	3.723457e-09	5.657595e+01	2.488121e+02
2.450000e-06	6.687583e-06	3.715096e-09	5.647042e+01	2.486302e+02
2.460000e-06	6.672948e-06	3.743097e-09	5.634684e+01	2.484458e+02
2.470000e-06	6.657085e-06	3.860941e-09	5.621289e+01	2.482600e+02
2.480000e-06	6.640917e-06	3.869098e-09	5.607636e+01	2.480729e+02
2.490000e-06	6.624090e-06	3.680361e-09	5.593428e+01	2.478841e+02
2.500000e-06	6.605682e-06	3.767323e-09	5.577884e+01	2.476920e+02
2.510000e-06	6.586077e-06	3.809682e-09	5.561329e+01	2.474947e+02
2.520000e-06	6.565960e-06	3.719579e-09	5.544342e+01	2.472891e+02
2.530000e-06	6.544415e-06	3.859650e-09	5.526150e+01	2.470717e+02
2.540000e-06	6.521104e-06	3.787347e-09	5.506466e+01	2.468387e+02
2.550000e-06	6.496825e-06	3.618257e-09	5.485964e+01	2.465858e+02
2.560000e-06	6.471634e-06	3.823554e-09	5.464693e+01	2.463087e+02
2.570000e-06	6.445446e-06	3.844863e-09	5.442579e+01	2.460034e+02
2.580000e-06	6.418100e-06	3.641923e-09	5.419488e+01	2.456659e+02
2.590000e-06	6.389480e-06	3.704433e-09	5.395321e+01	2.452929e+02
2.600000e-06	6.359970e-06	3.751304e-09	5.370403e+01	2.448817e+02
2.610000e-06	6.329136e-06	3.805484e-09	5.344366e+01	2.444301e+02
2.620000e-06	6.296802e-06	3.797406e-09	5.317064e+01	2.439369e+02
2.630000e-06	6.263512e-06	3.612130e-09	5.288954e+01	2.434016e+02
2.640000e-06	6.229113e-06	3.709137e-09	5.259907e+01	2.428245e+02
2.650000e-06	6.193626e-06	3.773815e-09	5.229941e+01	2.422067e+02
2.660000e-06	6.157373e-06	3.694504e-09	5.199329e+01	2.415496e+02
2.670000e-06	6.120004e-06	3.725896e-09	5.167774e+01	2.408553e+02
2.680000e-06	6.081213e-06	3.630412e-09	5.135019e+01	2.401262e+02
2.690000e-06	6.041170e-06	3.610283e-09	5.101206e+01	2.393648e+02
2.700000e-06	6.000116e-06	3.684615e-09	5.066540e+01	2.385737e+02
2.710000e-06	5.958190e-06	3.686358e-09	5.031138e+01	2.377553e+02
2.720000e-06	5.915204e-06	3.654923e-09	4.994839e+01	2.369118e+02
2.730000e-06	5.871271e-06	3.534687e-09	4.957743e+01	2.360449e+02
2.740000e-06	5.826495e-06	3.582405e-09	4.919933e+01	2.351561e+02
2.750000e-06	5.780677e-06	3.660500e-09	4.881244e+01	2.342463e+02
2.760000e-06	5.733660e-06	3.588569e-09	4.841542e+01	2.333159e+02
2.770000e-06	5.685432e-06	3.529975e-09	4.800818e+01	2.323649e+02
2.780000e-06	5.636315e-06	3.478988e-09	4.759344e+01	2.313930e+02
2.790000e-06	5.586294e-06	3.552033e-09	4.717106e+01	2.303995e+02
2.800000e-06	5.535210e-06	3.575857e-09	4.673970e+01	2.293834e+02
2.810000e-06	5.483072e-06	3.484887e-09	4.629944e+01	2.283436e+02
2.820000e-06	5.429652e-06	3.451318e-09	4.584836e+01	2.272791e+02
2.830000e-06	5.374885e-06	3.439728e-09	4.538590e+01	2.261887e+02
2.840000e-06	5.319094e-06	3.484180e-09	4.491480e+01	2.250715e+02
2.850000e-06	5.262501e-06	3.464362e-09	4.443692e+01	2.239267e+02
2.860000e-06	5.204997e-06	3.389788e-09	4.395135e+01	2.227534e+02
2.870000e-06	5.146562e-06	3.361855e-09	4.345793e+01	2.215514e+02
2.880000e-06	5.087303e-06	3.375558e-09	4.295754e+01	2.203204e+02
2.890000e-06	5.027247e-06	3.399899e-09	4.245042e+01	2.190602e+02
2.900000e-06	4.966356e-06	3.334718e-09	4.193626e+01	2.177710e+02
2.910000e-06	4.904419e-06	3.282582e-09	4.141325e+01	2.164529e+02
2.920000e-06	4.841334e-06	3.288871e-09	4.088056e+01	2.151060e+02
2.930000e-06	4.777320e-06	3.298548e-09	4.034002e+01	2.137307e+02
2.940000e-06	4.712602e-06	3.258221e-09	3.979354e+01	2.123269e+02
