# Temperatura_=_20.0
# Concentracion g/m^3_=_12600.0
# C_Vs_to_Am_M_A/Vsm_=_65563218390.804596
# pendiente_HvsI_1/m_=_3716.3
# ordenada_HvsI_A/m_=_1297.0
# frecuencia_Hz_=_213154.4393315795

Tiempo_(s)	Campo_(V.s)	Magnetizacion_(V.s)	Campo_(kA/m)	Magnetizacion_(A/m)
0.000000e+00	-6.785696e-06	-3.901593e-09	-5.683555e+01	-2.538509e+02
1.000000e-08	-6.785149e-06	-3.903380e-09	-5.683097e+01	-2.538243e+02
2.000000e-08	-6.783252e-06	-3.901095e-09	-5.681508e+01	-2.537729e+02
3.000000e-08	-6.779995e-06	-3.897693e-09	-5.678780e+01	-2.536985e+02
4.000000e-08	-6.775785e-06	-3.898128e-09	-5.675254e+01	-2.536028e+02
5.000000e-08	-6.770625e-06	-3.899690e-09	-5.670932e+01	-2.534880e+02
6.000000e-08	-6.764266e-06	-3.897848e-09	-5.665606e+01	-2.533561e+02
7.000000e-08	-6.756749e-06	-3.895050e-09	-5.659310e+01	-2.532092e+02
8.000000e-08	-6.748178e-06	-3.898387e-09	-5.652131e+01	-2.530494e+02
9.000000e-08	-6.738195e-06	-3.884137e-09	-5.643769e+01	-2.528782e+02
1.000000e-07	-6.726521e-06	-3.882947e-09	-5.633991e+01	-2.526971e+02
1.100000e-07	-6.713239e-06	-3.898157e-09	-5.622867e+01	-2.525071e+02
1.200000e-07	-6.698384e-06	-3.891971e-09	-5.610424e+01	-2.523088e+02
1.300000e-07	-6.682186e-06	-3.919003e-09	-5.596858e+01	-2.521023e+02
1.400000e-07	-6.665025e-06	-3.841224e-09	-5.582484e+01	-2.518871e+02
1.500000e-07	-6.646883e-06	-3.787630e-09	-5.567288e+01	-2.516623e+02
1.600000e-07	-6.627722e-06	-3.927471e-09	-5.551240e+01	-2.514268e+02
1.700000e-07	-6.607777e-06	-3.860178e-09	-5.534534e+01	-2.511786e+02
1.800000e-07	-6.586710e-06	-3.813694e-09	-5.516889e+01	-2.509158e+02
1.900000e-07	-6.564334e-06	-3.898733e-09	-5.498147e+01	-2.506360e+02
2.000000e-07	-6.541085e-06	-3.776134e-09	-5.478674e+01	-2.503368e+02
2.100000e-07	-6.516873e-06	-3.767238e-09	-5.458395e+01	-2.500157e+02
2.200000e-07	-6.491207e-06	-3.906978e-09	-5.436897e+01	-2.496703e+02
2.300000e-07	-6.464117e-06	-3.804029e-09	-5.414207e+01	-2.492980e+02
2.400000e-07	-6.435996e-06	-3.702796e-09	-5.390654e+01	-2.488969e+02
2.500000e-07	-6.406877e-06	-3.778381e-09	-5.366264e+01	-2.484651e+02
2.600000e-07	-6.376662e-06	-3.775232e-09	-5.340957e+01	-2.480009e+02
2.700000e-07	-6.345375e-06	-3.773515e-09	-5.314751e+01	-2.475034e+02
2.800000e-07	-6.313092e-06	-3.751908e-09	-5.287712e+01	-2.469717e+02
2.900000e-07	-6.279645e-06	-3.697833e-09	-5.259698e+01	-2.464055e+02
3.000000e-07	-6.244874e-06	-3.709199e-09	-5.230574e+01	-2.458048e+02
3.100000e-07	-6.208916e-06	-3.707945e-09	-5.200457e+01	-2.451701e+02
3.200000e-07	-6.171785e-06	-3.710922e-09	-5.169356e+01	-2.445021e+02
3.300000e-07	-6.133550e-06	-3.707266e-09	-5.137331e+01	-2.438017e+02
3.400000e-07	-6.094355e-06	-3.654249e-09	-5.104502e+01	-2.430701e+02
3.500000e-07	-6.054269e-06	-3.637661e-09	-5.070927e+01	-2.423088e+02
3.600000e-07	-6.013045e-06	-3.669549e-09	-5.036399e+01	-2.415190e+02
3.700000e-07	-5.970356e-06	-3.694262e-09	-5.000644e+01	-2.407022e+02
3.800000e-07	-5.926481e-06	-3.629387e-09	-4.963895e+01	-2.398598e+02
3.900000e-07	-5.881651e-06	-3.557852e-09	-4.926346e+01	-2.389928e+02
4.000000e-07	-5.835795e-06	-3.595871e-09	-4.887938e+01	-2.381024e+02
4.100000e-07	-5.788923e-06	-3.627719e-09	-4.848679e+01	-2.371893e+02
4.200000e-07	-5.741084e-06	-3.600713e-09	-4.808610e+01	-2.362542e+02
4.300000e-07	-5.692147e-06	-3.536975e-09	-4.767622e+01	-2.352973e+02
4.400000e-07	-5.641760e-06	-3.509225e-09	-4.725419e+01	-2.343187e+02
4.500000e-07	-5.589951e-06	-3.545535e-09	-4.682025e+01	-2.333181e+02
4.600000e-07	-5.537091e-06	-3.547836e-09	-4.637750e+01	-2.322950e+02
4.700000e-07	-5.483292e-06	-3.506937e-09	-4.592689e+01	-2.312488e+02
4.800000e-07	-5.428551e-06	-3.455494e-09	-4.546840e+01	-2.301784e+02
4.900000e-07	-5.373025e-06	-3.438641e-09	-4.500332e+01	-2.290829e+02
5.000000e-07	-5.316683e-06	-3.456310e-09	-4.453141e+01	-2.279610e+02
5.100000e-07	-5.259146e-06	-3.449131e-09	-4.404950e+01	-2.268115e+02
5.200000e-07	-5.200316e-06	-3.415893e-09	-4.355674e+01	-2.256333e+02
5.300000e-07	-5.140533e-06	-3.372115e-09	-4.305601e+01	-2.244250e+02
5.400000e-07	-5.079978e-06	-3.360463e-09	-4.254882e+01	-2.231858e+02
5.500000e-07	-5.018592e-06	-3.375018e-09	-4.203466e+01	-2.219146e+02
5.600000e-07	-4.956364e-06	-3.361318e-09	-4.151345e+01	-2.206107e+02
5.700000e-07	-4.893359e-06	-3.319643e-09	-4.098574e+01	-2.192736e+02
5.800000e-07	-4.829558e-06	-3.274749e-09	-4.045136e+01	-2.179030e+02
5.900000e-07	-4.764866e-06	-3.258747e-09	-3.990951e+01	-2.164989e+02
6.000000e-07	-4.699038e-06	-3.266168e-09	-3.935815e+01	-2.150613e+02
6.100000e-07	-4.632107e-06	-3.251911e-09	-3.879755e+01	-2.135905e+02
6.200000e-07	-4.564460e-06	-3.201581e-09	-3.823095e+01	-2.120872e+02
6.300000e-07	-4.496222e-06	-3.151857e-09	-3.765940e+01	-2.105519e+02
6.400000e-07	-4.427312e-06	-3.151183e-09	-3.708222e+01	-2.089852e+02
6.500000e-07	-4.357547e-06	-3.166444e-09	-3.649789e+01	-2.073878e+02
6.600000e-07	-4.286881e-06	-3.133346e-09	-3.590601e+01	-2.057604e+02
6.700000e-07	-4.215579e-06	-3.069370e-09	-3.530880e+01	-2.041034e+02
6.800000e-07	-4.143689e-06	-3.034933e-09	-3.470666e+01	-2.024170e+02
6.900000e-07	-4.071115e-06	-3.046821e-09	-3.409880e+01	-2.007014e+02
7.000000e-07	-3.997644e-06	-3.039125e-09	-3.348341e+01	-1.989562e+02
7.100000e-07	-3.923097e-06	-2.977599e-09	-3.285903e+01	-1.971809e+02
7.200000e-07	-3.847734e-06	-2.922889e-09	-3.222780e+01	-1.953747e+02
7.300000e-07	-3.771644e-06	-2.915222e-09	-3.159049e+01	-1.935364e+02
7.400000e-07	-3.694891e-06	-2.919054e-09	-3.094762e+01	-1.916644e+02
7.500000e-07	-3.617506e-06	-2.880460e-09	-3.029947e+01	-1.897571e+02
7.600000e-07	-3.539297e-06	-2.820446e-09	-2.964440e+01	-1.878126e+02
7.700000e-07	-3.460316e-06	-2.795057e-09	-2.898287e+01	-1.858287e+02
7.800000e-07	-3.380692e-06	-2.789513e-09	-2.831596e+01	-1.838034e+02
7.900000e-07	-3.300375e-06	-2.762020e-09	-2.764324e+01	-1.817345e+02
8.000000e-07	-3.219423e-06	-2.711544e-09	-2.696521e+01	-1.796201e+02
8.100000e-07	-3.137931e-06	-2.670784e-09	-2.628264e+01	-1.774583e+02
8.200000e-07	-3.055891e-06	-2.648635e-09	-2.559549e+01	-1.752476e+02
8.300000e-07	-2.973349e-06	-2.617957e-09	-2.490414e+01	-1.729866e+02
8.400000e-07	-2.890392e-06	-2.575187e-09	-2.420931e+01	-1.706744e+02
8.500000e-07	-2.807064e-06	-2.535398e-09	-2.351137e+01	-1.683104e+02
8.600000e-07	-2.723376e-06	-2.503116e-09	-2.281042e+01	-1.658943e+02
8.700000e-07	-2.639270e-06	-2.466569e-09	-2.210596e+01	-1.634262e+02
8.800000e-07	-2.554741e-06	-2.425826e-09	-2.139797e+01	-1.609066e+02
8.900000e-07	-2.469819e-06	-2.391581e-09	-2.068668e+01	-1.583358e+02
9.000000e-07	-2.384448e-06	-2.354886e-09	-1.997163e+01	-1.557147e+02
9.100000e-07	-2.298690e-06	-2.308112e-09	-1.925334e+01	-1.530441e+02
9.200000e-07	-2.212540e-06	-2.261296e-09	-1.853176e+01	-1.503247e+02
9.300000e-07	-2.125903e-06	-2.226623e-09	-1.780611e+01	-1.475574e+02
9.400000e-07	-2.038939e-06	-2.191793e-09	-1.707772e+01	-1.447426e+02
9.500000e-07	-1.951791e-06	-2.138374e-09	-1.634779e+01	-1.418806e+02
9.600000e-07	-1.864386e-06	-2.080622e-09	-1.561571e+01	-1.389716e+02
9.700000e-07	-1.776697e-06	-2.042697e-09	-1.488124e+01	-1.360152e+02
9.800000e-07	-1.688791e-06	-2.015389e-09	-1.414496e+01	-1.330110e+02
9.900000e-07	-1.600636e-06	-1.971732e-09	-1.340659e+01	-1.299580e+02
1.000000e-06	-1.512128e-06	-1.907556e-09	-1.266526e+01	-1.268553e+02
1.010000e-06	-1.423185e-06	-1.853451e-09	-1.192030e+01	-1.237015e+02
1.020000e-06	-1.333866e-06	-1.819739e-09	-1.117218e+01	-1.204952e+02
1.030000e-06	-1.244263e-06	-1.777567e-09	-1.042168e+01	-1.172348e+02
1.040000e-06	-1.154362e-06	-1.712946e-09	-9.668694e+00	-1.139190e+02
1.050000e-06	-1.064127e-06	-1.648647e-09	-8.912904e+00	-1.105463e+02
1.060000e-06	-9.736353e-07	-1.609549e-09	-8.154963e+00	-1.071154e+02
1.070000e-06	-8.830169e-07	-1.575279e-09	-7.395962e+00	-1.036253e+02
1.080000e-06	-7.922560e-07	-1.518312e-09	-6.635768e+00	-1.000753e+02
1.090000e-06	-7.013902e-07	-1.450267e-09	-5.874695e+00	-9.646467e+01
1.100000e-06	-6.104044e-07	-1.393550e-09	-5.112617e+00	-9.279326e+01
1.110000e-06	-5.193466e-07	-1.349376e-09	-4.349937e+00	-8.906096e+01
1.120000e-06	-4.282968e-07	-1.293854e-09	-3.587323e+00	-8.526788e+01
1.130000e-06	-3.371723e-07	-1.222286e-09	-2.824084e+00	-8.141422e+01
1.140000e-06	-2.459394e-07	-1.156920e-09	-2.059936e+00	-7.750023e+01
1.150000e-06	-1.546296e-07	-1.102495e-09	-1.295145e+00	-7.352607e+01
1.160000e-06	-6.330553e-08	-1.047142e-09	-5.302337e-01	-6.949180e+01
1.170000e-06	2.799800e-08	-9.824237e-10	2.345053e-01	-6.539721e+01
1.180000e-06	1.192919e-07	-9.165095e-10	9.991635e-01	-6.124183e+01
1.190000e-06	2.105627e-07	-8.540702e-10	1.763628e+00	-5.702484e+01
1.200000e-06	3.017958e-07	-7.894546e-10	2.527778e+00	-5.274505e+01
1.210000e-06	3.930083e-07	-7.246637e-10	3.291754e+00	-4.840093e+01
1.220000e-06	4.841916e-07	-6.568730e-10	4.055486e+00	-4.399063e+01
1.230000e-06	5.752991e-07	-5.838863e-10	4.818583e+00	-3.951205e+01
1.240000e-06	6.663342e-07	-5.086721e-10	5.581074e+00	-3.496294e+01
1.250000e-06	7.572502e-07	-4.366150e-10	6.342567e+00	-3.034104e+01
1.260000e-06	8.479871e-07	-3.687373e-10	7.102560e+00	-2.564421e+01
1.270000e-06	9.385949e-07	-2.960307e-10	7.861472e+00	-2.087061e+01
1.280000e-06	1.029035e-06	-2.177105e-10	8.618979e+00	-1.601887e+01
1.290000e-06	1.119266e-06	-1.411253e-10	9.374737e+00	-1.108826e+01
1.300000e-06	1.209277e-06	-6.955025e-11	1.012865e+01	-6.078844e+00
1.310000e-06	1.299024e-06	6.105365e-13	1.088035e+01	-9.916499e-01
1.320000e-06	1.388433e-06	7.950015e-11	1.162922e+01	4.171221e+00
1.330000e-06	1.477395e-06	1.661857e-10	1.237435e+01	9.406499e+00
1.340000e-06	1.565965e-06	2.500456e-10	1.311619e+01	1.470969e+01
1.350000e-06	1.654163e-06	3.276203e-10	1.385492e+01	2.007507e+01
1.360000e-06	1.741949e-06	4.078167e-10	1.459020e+01	2.549568e+01
1.370000e-06	1.829486e-06	4.961814e-10	1.532338e+01	3.096341e+01
1.380000e-06	1.916864e-06	5.843409e-10	1.605525e+01	3.646912e+01
1.390000e-06	2.003995e-06	6.659881e-10	1.678503e+01	4.200273e+01
1.400000e-06	2.090797e-06	7.455127e-10	1.751207e+01	4.755342e+01
1.410000e-06	2.177258e-06	8.290498e-10	1.823625e+01	5.310981e+01
1.420000e-06	2.263353e-06	9.166510e-10	1.895736e+01	5.866014e+01
1.430000e-06	2.349063e-06	1.003555e-09	1.967525e+01	6.419253e+01
1.440000e-06	2.434413e-06	1.087564e-09	2.039013e+01	6.969510e+01
1.450000e-06	2.519392e-06	1.169817e-09	2.110189e+01	7.515627e+01
1.460000e-06	2.603929e-06	1.250044e-09	2.180995e+01	8.056489e+01
1.470000e-06	2.688010e-06	1.330266e-09	2.251420e+01	8.591039e+01
1.480000e-06	2.771666e-06	1.411613e-09	2.321489e+01	9.118300e+01
1.490000e-06	2.854964e-06	1.489469e-09	2.391257e+01	9.637377e+01
1.500000e-06	2.937942e-06	1.561900e-09	2.460758e+01	1.014748e+02
1.510000e-06	3.020441e-06	1.632920e-09	2.529858e+01	1.064790e+02
1.520000e-06	3.102270e-06	1.709388e-09	2.598396e+01	1.113806e+02
1.530000e-06	3.183441e-06	1.787942e-09	2.666382e+01	1.161748e+02
1.540000e-06	3.264048e-06	1.858522e-09	2.733897e+01	1.208578e+02
1.550000e-06	3.344130e-06	1.924023e-09	2.800973e+01	1.254269e+02
1.560000e-06	3.423672e-06	1.993706e-09	2.867595e+01	1.298802e+02
1.570000e-06	3.502556e-06	2.066031e-09	2.933667e+01	1.342169e+02
1.580000e-06	3.580702e-06	2.130075e-09	2.999120e+01	1.384369e+02
1.590000e-06	3.658236e-06	2.185954e-09	3.064061e+01	1.425410e+02
1.600000e-06	3.735182e-06	2.242122e-09	3.128509e+01	1.465303e+02
1.610000e-06	3.811398e-06	2.305577e-09	3.192346e+01	1.504069e+02
1.620000e-06	3.886876e-06	2.368347e-09	3.255565e+01	1.541731e+02
1.630000e-06	3.961631e-06	2.422194e-09	3.318178e+01	1.578316e+02
1.640000e-06	4.035537e-06	2.470120e-09	3.380080e+01	1.613854e+02
1.650000e-06	4.108439e-06	2.519212e-09	3.441142e+01	1.648377e+02
1.660000e-06	4.180406e-06	2.572014e-09	3.501419e+01	1.681918e+02
1.670000e-06	4.251687e-06	2.621001e-09	3.561123e+01	1.714511e+02
1.680000e-06	4.322361e-06	2.665118e-09	3.620318e+01	1.746189e+02
1.690000e-06	4.392300e-06	2.708830e-09	3.678898e+01	1.776984e+02
1.700000e-06	4.461398e-06	2.754298e-09	3.736772e+01	1.806925e+02
1.710000e-06	4.529720e-06	2.798594e-09	3.793997e+01	1.836043e+02
1.720000e-06	4.597425e-06	2.839718e-09	3.850706e+01	1.864362e+02
1.730000e-06	4.664438e-06	2.880464e-09	3.906834e+01	1.891905e+02
1.740000e-06	4.730488e-06	2.918309e-09	3.962157e+01	1.918693e+02
1.750000e-06	4.795455e-06	2.952968e-09	4.016571e+01	1.944742e+02
1.760000e-06	4.859461e-06	2.987879e-09	4.070182e+01	1.970069e+02
1.770000e-06	4.922672e-06	3.024375e-09	4.123126e+01	1.994684e+02
1.780000e-06	4.985147e-06	3.060166e-09	4.175454e+01	2.018597e+02
1.790000e-06	5.046842e-06	3.092799e-09	4.227128e+01	2.041816e+02
1.800000e-06	5.107781e-06	3.125240e-09	4.278169e+01	2.064348e+02
1.810000e-06	5.167967e-06	3.158189e-09	4.328579e+01	2.086198e+02
1.820000e-06	5.227258e-06	3.189261e-09	4.378240e+01	2.107371e+02
1.830000e-06	5.285542e-06	3.217615e-09	4.427058e+01	2.127874e+02
1.840000e-06	5.342653e-06	3.245252e-09	4.474893e+01	2.147713e+02
1.850000e-06	5.398683e-06	3.272738e-09	4.521822e+01	2.166894e+02
1.860000e-06	5.453866e-06	3.298841e-09	4.568042e+01	2.185428e+02
1.870000e-06	5.508221e-06	3.324003e-09	4.613569e+01	2.203324e+02
1.880000e-06	5.561674e-06	3.347437e-09	4.658340e+01	2.220594e+02
1.890000e-06	5.614095e-06	3.370736e-09	4.702247e+01	2.237252e+02
1.900000e-06	5.665320e-06	3.396117e-09	4.745152e+01	2.253313e+02
1.910000e-06	5.715187e-06	3.421175e-09	4.786919e+01	2.268793e+02
1.920000e-06	5.763676e-06	3.443149e-09	4.827532e+01	2.283710e+02
1.930000e-06	5.811083e-06	3.462893e-09	4.867239e+01	2.298080e+02
1.940000e-06	5.857603e-06	3.482727e-09	4.906204e+01	2.311921e+02
1.950000e-06	5.903115e-06	3.502427e-09	4.944324e+01	2.325249e+02
1.960000e-06	5.947641e-06	3.519852e-09	4.981618e+01	2.338079e+02
1.970000e-06	5.991311e-06	3.536837e-09	5.018195e+01	2.350426e+02
1.980000e-06	6.034044e-06	3.555368e-09	5.053988e+01	2.362302e+02
1.990000e-06	6.075467e-06	3.573554e-09	5.088683e+01	2.373717e+02
2.000000e-06	6.115612e-06	3.591843e-09	5.122307e+01	2.384681e+02
2.010000e-06	6.154707e-06	3.609878e-09	5.155052e+01	2.395201e+02
2.020000e-06	6.192793e-06	3.625815e-09	5.186952e+01	2.405283e+02
2.030000e-06	6.229908e-06	3.639925e-09	5.218039e+01	2.414933e+02
2.040000e-06	6.266027e-06	3.653115e-09	5.248292e+01	2.424155e+02
2.050000e-06	6.301141e-06	3.666554e-09	5.277702e+01	2.432954e+02
2.060000e-06	6.335029e-06	3.678452e-09	5.306086e+01	2.441335e+02
2.070000e-06	6.367606e-06	3.688314e-09	5.333372e+01	2.449303e+02
2.080000e-06	6.399051e-06	3.698890e-09	5.359710e+01	2.456867e+02
2.090000e-06	6.429466e-06	3.712043e-09	5.385185e+01	2.464035e+02
2.100000e-06	6.458869e-06	3.725438e-09	5.409812e+01	2.470819e+02
2.110000e-06	6.487249e-06	3.735332e-09	5.433582e+01	2.477229e+02
2.120000e-06	6.514593e-06	3.745345e-09	5.456485e+01	2.483281e+02
2.130000e-06	6.540704e-06	3.756348e-09	5.478355e+01	2.488989e+02
2.140000e-06	6.565340e-06	3.764985e-09	5.498990e+01	2.494371e+02
2.150000e-06	6.588679e-06	3.772987e-09	5.518538e+01	2.499443e+02
2.160000e-06	6.610998e-06	3.780682e-09	5.537232e+01	2.504221e+02
2.170000e-06	6.632257e-06	3.788342e-09	5.555038e+01	2.508721e+02
2.180000e-06	6.652453e-06	3.796701e-09	5.571954e+01	2.512957e+02
2.190000e-06	6.671613e-06	3.806293e-09	5.588001e+01	2.516942e+02
2.200000e-06	6.689627e-06	3.813762e-09	5.603090e+01	2.520684e+02
2.210000e-06	6.706429e-06	3.817396e-09	5.617162e+01	2.524192e+02
2.220000e-06	6.721980e-06	3.823022e-09	5.630188e+01	2.527467e+02
2.230000e-06	6.736279e-06	3.830083e-09	5.642164e+01	2.530512e+02
2.240000e-06	6.749353e-06	3.834283e-09	5.653115e+01	2.533324e+02
2.250000e-06	6.761170e-06	3.835502e-09	5.663013e+01	2.535898e+02
2.260000e-06	6.771593e-06	3.836865e-09	5.671743e+01	2.538228e+02
2.270000e-06	6.780532e-06	3.839339e-09	5.679230e+01	2.540306e+02
2.280000e-06	6.788250e-06	3.842588e-09	5.685694e+01	2.542123e+02
2.290000e-06	6.794877e-06	3.845756e-09	5.691245e+01	2.543673e+02
2.300000e-06	6.800302e-06	3.848655e-09	5.695789e+01	2.544948e+02
2.310000e-06	6.804597e-06	3.850418e-09	5.699386e+01	2.545943e+02
2.320000e-06	6.807846e-06	3.851162e-09	5.702108e+01	2.546656e+02
2.330000e-06	6.809785e-06	3.853158e-09	5.703732e+01	2.547089e+02
2.340000e-06	6.810285e-06	3.854577e-09	5.704150e+01	2.547246e+02
2.350000e-06	6.809680e-06	3.854585e-09	5.703644e+01	2.547135e+02
2.360000e-06	6.808033e-06	3.855946e-09	5.702264e+01	2.546768e+02
2.370000e-06	6.805297e-06	3.855727e-09	5.699972e+01	2.546159e+02
2.380000e-06	6.801616e-06	3.854624e-09	5.696889e+01	2.545327e+02
2.390000e-06	6.796999e-06	3.851040e-09	5.693022e+01	2.544290e+02
2.400000e-06	6.791083e-06	3.846196e-09	5.688067e+01	2.543071e+02
2.410000e-06	6.783784e-06	3.840056e-09	5.681954e+01	2.541689e+02
2.420000e-06	6.775445e-06	3.825560e-09	5.674969e+01	2.540166e+02
2.430000e-06	6.766128e-06	3.839035e-09	5.667165e+01	2.538520e+02
2.440000e-06	6.755546e-06	3.839257e-09	5.658302e+01	2.536767e+02
2.450000e-06	6.743138e-06	3.814661e-09	5.647910e+01	2.534919e+02
2.460000e-06	6.728695e-06	3.813409e-09	5.635813e+01	2.532985e+02
2.470000e-06	6.712908e-06	3.778993e-09	5.622590e+01	2.530969e+02
2.480000e-06	6.696610e-06	3.875220e-09	5.608939e+01	2.528869e+02
2.490000e-06	6.679661e-06	3.910356e-09	5.594743e+01	2.526680e+02
2.500000e-06	6.661309e-06	3.745767e-09	5.579371e+01	2.524391e+02
2.510000e-06	6.641746e-06	3.836638e-09	5.562986e+01	2.521986e+02
2.520000e-06	6.621511e-06	3.848584e-09	5.546037e+01	2.519448e+02
2.530000e-06	6.599975e-06	3.749376e-09	5.527999e+01	2.516755e+02
2.540000e-06	6.576746e-06	3.893270e-09	5.508543e+01	2.513882e+02
2.550000e-06	6.552397e-06	3.862113e-09	5.488149e+01	2.510805e+02
2.560000e-06	6.527097e-06	3.725397e-09	5.466958e+01	2.507500e+02
2.570000e-06	6.500802e-06	3.850966e-09	5.444934e+01	2.503940e+02
2.580000e-06	6.473394e-06	3.881931e-09	5.421978e+01	2.500104e+02
2.590000e-06	6.444703e-06	3.779294e-09	5.397947e+01	2.495972e+02
2.600000e-06	6.414995e-06	3.827268e-09	5.373064e+01	2.491525e+02
2.610000e-06	6.384049e-06	3.796901e-09	5.347144e+01	2.486751e+02
2.620000e-06	6.351651e-06	3.798071e-09	5.320008e+01	2.481639e+02
2.630000e-06	6.318233e-06	3.840956e-09	5.292018e+01	2.476184e+02
2.640000e-06	6.283760e-06	3.792725e-09	5.263144e+01	2.470384e+02
2.650000e-06	6.248154e-06	3.831726e-09	5.233321e+01	2.464240e+02
2.660000e-06	6.211592e-06	3.769557e-09	5.202698e+01	2.457758e+02
2.670000e-06	6.173825e-06	3.722316e-09	5.171065e+01	2.450946e+02
2.680000e-06	6.134745e-06	3.804214e-09	5.138332e+01	2.443816e+02
2.690000e-06	6.094493e-06	3.767389e-09	5.104618e+01	2.436380e+02
2.700000e-06	6.053213e-06	3.727184e-09	5.070043e+01	2.428650e+02
2.710000e-06	6.011031e-06	3.669064e-09	5.034712e+01	2.420642e+02
2.720000e-06	5.967878e-06	3.698181e-09	4.998568e+01	2.412370e+02
2.730000e-06	5.923766e-06	3.774891e-09	4.961621e+01	2.403845e+02
2.740000e-06	5.878685e-06	3.667039e-09	4.923862e+01	2.395080e+02
2.750000e-06	5.832497e-06	3.629550e-09	4.885176e+01	2.386084e+02
2.760000e-06	5.785253e-06	3.645085e-09	4.845605e+01	2.376865e+02
2.770000e-06	5.736904e-06	3.653606e-09	4.805109e+01	2.367426e+02
2.780000e-06	5.687464e-06	3.655821e-09	4.763699e+01	2.357770e+02
2.790000e-06	5.637019e-06	3.582328e-09	4.721448e+01	2.347896e+02
2.800000e-06	5.585550e-06	3.588321e-09	4.678338e+01	2.337800e+02
2.810000e-06	5.533081e-06	3.575840e-09	4.634391e+01	2.327477e+02
2.820000e-06	5.479305e-06	3.556088e-09	4.589350e+01	2.316919e+02
2.830000e-06	5.424218e-06	3.566315e-09	4.543210e+01	2.306116e+02
2.840000e-06	5.368212e-06	3.527916e-09	4.496301e+01	2.295056e+02
2.850000e-06	5.311373e-06	3.503035e-09	4.448694e+01	2.283728e+02
2.860000e-06	5.253577e-06	3.470935e-09	4.400285e+01	2.272119e+02
2.870000e-06	5.194766e-06	3.483420e-09	4.351026e+01	2.260218e+02
2.880000e-06	5.135142e-06	3.483930e-09	4.301086e+01	2.248012e+02
2.890000e-06	5.074826e-06	3.426775e-09	4.250567e+01	2.235493e+02
2.900000e-06	5.013583e-06	3.387890e-09	4.199271e+01	2.222650e+02
2.910000e-06	4.951122e-06	3.373786e-09	4.146955e+01	2.209479e+02
2.920000e-06	4.887560e-06	3.394474e-09	4.093716e+01	2.195974e+02
2.930000e-06	4.823203e-06	3.372921e-09	4.039813e+01	2.182133e+02
2.940000e-06	4.758100e-06	3.301380e-09	3.985284e+01	2.167957e+02
