# Temperatura_=_20.0
# Concentracion g/m^3_=_9000.0
# C_Vs_to_Am_M_A/Vsm_=_65563218390.804596
# pendiente_HvsI_1/m_=_3716.3
# ordenada_HvsI_A/m_=_1297.0
# frecuencia_Hz_=_300870.46236984024

Tiempo_(s)	Campo_(V.s)	Magnetizacion_(V.s)	Campo_(kA/m)	Magnetizacion_(A/m)
0.000000e+00	-5.357353e-06	-4.288065e-09	-3.829930e+01	-2.822940e+02
1.000000e-08	-5.355945e-06	-4.286073e-09	-3.828924e+01	-2.822080e+02
2.000000e-08	-5.352647e-06	-4.285657e-09	-3.826566e+01	-2.820928e+02
3.000000e-08	-5.347665e-06	-4.285815e-09	-3.823005e+01	-2.819517e+02
4.000000e-08	-5.341097e-06	-4.283687e-09	-3.818309e+01	-2.817876e+02
5.000000e-08	-5.332828e-06	-4.279783e-09	-3.812397e+01	-2.816025e+02
6.000000e-08	-5.322558e-06	-4.278721e-09	-3.805055e+01	-2.813970e+02
7.000000e-08	-5.310345e-06	-4.277381e-09	-3.796325e+01	-2.811706e+02
8.000000e-08	-5.296219e-06	-4.276248e-09	-3.786226e+01	-2.809214e+02
9.000000e-08	-5.279898e-06	-4.279927e-09	-3.774558e+01	-2.806466e+02
1.000000e-07	-5.261454e-06	-4.291584e-09	-3.761373e+01	-2.803426e+02
1.100000e-07	-5.241118e-06	-4.292769e-09	-3.746835e+01	-2.800058e+02
1.200000e-07	-5.218900e-06	-4.268746e-09	-3.730952e+01	-2.796327e+02
1.300000e-07	-5.195020e-06	-4.237062e-09	-3.713880e+01	-2.792207e+02
1.400000e-07	-5.169519e-06	-4.225071e-09	-3.695649e+01	-2.787682e+02
1.500000e-07	-5.142392e-06	-4.228002e-09	-3.676256e+01	-2.782748e+02
1.600000e-07	-5.113753e-06	-4.248235e-09	-3.655783e+01	-2.777417e+02
1.700000e-07	-5.083587e-06	-4.229791e-09	-3.634217e+01	-2.771710e+02
1.800000e-07	-5.051632e-06	-4.189059e-09	-3.611372e+01	-2.765657e+02
1.900000e-07	-5.017583e-06	-4.196101e-09	-3.587031e+01	-2.759292e+02
2.000000e-07	-4.981988e-06	-4.213413e-09	-3.561585e+01	-2.752648e+02
2.100000e-07	-4.944919e-06	-4.211369e-09	-3.535084e+01	-2.745752e+02
2.200000e-07	-4.905968e-06	-4.182865e-09	-3.507239e+01	-2.738622e+02
2.300000e-07	-4.865167e-06	-4.155484e-09	-3.478070e+01	-2.731263e+02
2.400000e-07	-4.822465e-06	-4.160230e-09	-3.447543e+01	-2.723667e+02
2.500000e-07	-4.777987e-06	-4.164695e-09	-3.415746e+01	-2.715812e+02
2.600000e-07	-4.731826e-06	-4.140882e-09	-3.382746e+01	-2.707665e+02
2.700000e-07	-4.683639e-06	-4.119784e-09	-3.348297e+01	-2.699184e+02
2.800000e-07	-4.633328e-06	-4.102341e-09	-3.312330e+01	-2.690326e+02
2.900000e-07	-4.581215e-06	-4.099418e-09	-3.275075e+01	-2.681043e+02
3.000000e-07	-4.527439e-06	-4.095205e-09	-3.236631e+01	-2.671295e+02
3.100000e-07	-4.472083e-06	-4.067971e-09	-3.197057e+01	-2.661048e+02
3.200000e-07	-4.415025e-06	-4.036548e-09	-3.156267e+01	-2.650276e+02
3.300000e-07	-4.356213e-06	-4.027237e-09	-3.114223e+01	-2.638964e+02
3.400000e-07	-4.295906e-06	-4.026705e-09	-3.071110e+01	-2.627105e+02
3.500000e-07	-4.234183e-06	-4.000186e-09	-3.026985e+01	-2.614700e+02
3.600000e-07	-4.171024e-06	-3.967765e-09	-2.981833e+01	-2.601757e+02
3.700000e-07	-4.106260e-06	-3.950782e-09	-2.935534e+01	-2.588283e+02
3.800000e-07	-4.039820e-06	-3.939205e-09	-2.888036e+01	-2.574287e+02
3.900000e-07	-3.971855e-06	-3.916727e-09	-2.839449e+01	-2.559775e+02
4.000000e-07	-3.902462e-06	-3.890133e-09	-2.789840e+01	-2.544748e+02
4.100000e-07	-3.831842e-06	-3.864540e-09	-2.739354e+01	-2.529200e+02
4.200000e-07	-3.760118e-06	-3.839998e-09	-2.688079e+01	-2.513120e+02
4.300000e-07	-3.686940e-06	-3.818179e-09	-2.635765e+01	-2.496490e+02
4.400000e-07	-3.612061e-06	-3.793278e-09	-2.582234e+01	-2.479288e+02
4.500000e-07	-3.535693e-06	-3.761559e-09	-2.527640e+01	-2.461487e+02
4.600000e-07	-3.457940e-06	-3.729906e-09	-2.472055e+01	-2.443058e+02
4.700000e-07	-3.378810e-06	-3.705285e-09	-2.415485e+01	-2.423968e+02
4.800000e-07	-3.298388e-06	-3.678701e-09	-2.357992e+01	-2.404186e+02
4.900000e-07	-3.216740e-06	-3.646127e-09	-2.299622e+01	-2.383678e+02
5.000000e-07	-3.134001e-06	-3.612647e-09	-2.240473e+01	-2.362410e+02
5.100000e-07	-3.050334e-06	-3.583845e-09	-2.180660e+01	-2.340349e+02
5.200000e-07	-2.965760e-06	-3.550496e-09	-2.120199e+01	-2.317459e+02
5.300000e-07	-2.880163e-06	-3.510288e-09	-2.059006e+01	-2.293703e+02
5.400000e-07	-2.793630e-06	-3.471950e-09	-1.997145e+01	-2.269042e+02
5.500000e-07	-2.706338e-06	-3.436032e-09	-1.934740e+01	-2.243436e+02
5.600000e-07	-2.618111e-06	-3.395478e-09	-1.871667e+01	-2.216840e+02
5.700000e-07	-2.528613e-06	-3.349215e-09	-1.807686e+01	-2.189208e+02
5.800000e-07	-2.437932e-06	-3.305875e-09	-1.742859e+01	-2.160487e+02
5.900000e-07	-2.346422e-06	-3.262541e-09	-1.677439e+01	-2.130623e+02
6.000000e-07	-2.254218e-06	-3.213728e-09	-1.611523e+01	-2.099556e+02
6.100000e-07	-2.161341e-06	-3.160270e-09	-1.545126e+01	-2.067220e+02
6.200000e-07	-2.067703e-06	-3.108210e-09	-1.478185e+01	-2.033542e+02
6.300000e-07	-1.973277e-06	-3.056343e-09	-1.410680e+01	-1.998442e+02
6.400000e-07	-1.878296e-06	-3.002285e-09	-1.342779e+01	-1.961828e+02
6.500000e-07	-1.782855e-06	-2.944860e-09	-1.274549e+01	-1.923600e+02
6.600000e-07	-1.686760e-06	-2.882080e-09	-1.205851e+01	-1.883643e+02
6.700000e-07	-1.589690e-06	-2.817138e-09	-1.136457e+01	-1.841832e+02
6.800000e-07	-1.491716e-06	-2.750865e-09	-1.066416e+01	-1.798022e+02
6.900000e-07	-1.393230e-06	-2.680764e-09	-9.960093e+00	-1.752055e+02
7.000000e-07	-1.294350e-06	-2.602844e-09	-9.253211e+00	-1.703754e+02
7.100000e-07	-1.195045e-06	-2.522775e-09	-8.543281e+00	-1.652925e+02
7.200000e-07	-1.095357e-06	-2.443458e-09	-7.830621e+00	-1.599352e+02
7.300000e-07	-9.953348e-07	-2.358714e-09	-7.115572e+00	-1.542801e+02
7.400000e-07	-8.950096e-07	-2.264660e-09	-6.398354e+00	-1.483018e+02
7.500000e-07	-7.943918e-07	-2.163915e-09	-5.679045e+00	-1.419731e+02
7.600000e-07	-6.935082e-07	-2.060939e-09	-4.957837e+00	-1.352652e+02
7.700000e-07	-5.923777e-07	-1.954362e-09	-4.234863e+00	-1.281482e+02
7.800000e-07	-4.910550e-07	-1.840745e-09	-3.510514e+00	-1.205922e+02
7.900000e-07	-3.895719e-07	-1.715913e-09	-2.785020e+00	-1.125678e+02
8.000000e-07	-2.878821e-07	-1.583746e-09	-2.058047e+00	-1.040481e+02
8.100000e-07	-1.860817e-07	-1.448274e-09	-1.330283e+00	-9.500972e+01
8.200000e-07	-8.424358e-08	-1.303496e-09	-6.022508e-01	-8.543545e+01
8.300000e-07	1.764457e-08	-1.145865e-09	1.261397e-01	-7.531583e+01
8.400000e-07	1.195610e-07	-9.793831e-10	8.547324e-01	-6.465159e+01
8.500000e-07	2.214045e-07	-8.081958e-10	1.582803e+00	-5.345552e+01
8.600000e-07	3.231055e-07	-6.307207e-10	2.309856e+00	-4.175423e+01
8.700000e-07	4.247065e-07	-4.463343e-10	3.036194e+00	-2.958935e+01
8.800000e-07	5.261672e-07	-2.550598e-10	3.761528e+00	-1.701794e+01
8.900000e-07	6.274157e-07	-5.714084e-11	4.485347e+00	-4.112235e+00
9.000000e-07	7.284422e-07	1.439271e-10	5.207577e+00	9.041666e+00
9.100000e-07	8.292295e-07	3.465229e-10	5.928098e+00	2.234598e+01
9.200000e-07	9.297500e-07	5.506352e-10	6.646711e+00	3.569430e+01
9.300000e-07	1.029941e-06	7.526817e-10	7.362970e+00	4.897540e+01
9.400000e-07	1.129777e-06	9.521327e-10	8.076686e+00	6.207749e+01
9.500000e-07	1.229223e-06	1.148617e-09	8.787617e+00	7.489274e+01
9.600000e-07	1.328322e-06	1.338988e-09	9.496074e+00	8.732173e+01
9.700000e-07	1.427057e-06	1.520416e-09	1.020192e+01	9.927737e+01
9.800000e-07	1.525271e-06	1.693019e-09	1.090404e+01	1.106883e+02
9.900000e-07	1.622829e-06	1.857336e-09	1.160148e+01	1.215011e+02
1.000000e-06	1.719558e-06	2.012146e-09	1.229298e+01	1.316816e+02
1.010000e-06	1.815415e-06	2.159095e-09	1.297826e+01	1.412149e+02
1.020000e-06	1.910601e-06	2.296395e-09	1.365874e+01	1.501040e+02
1.030000e-06	2.005253e-06	2.423185e-09	1.433540e+01	1.583683e+02
1.040000e-06	2.099287e-06	2.540494e-09	1.500764e+01	1.660396e+02
1.050000e-06	2.192584e-06	2.648538e-09	1.567461e+01	1.731595e+02
1.060000e-06	2.285150e-06	2.749273e-09	1.633636e+01	1.797753e+02
1.070000e-06	2.377001e-06	2.842703e-09	1.699300e+01	1.859362e+02
1.080000e-06	2.468165e-06	2.929445e-09	1.764472e+01	1.916906e+02
1.090000e-06	2.558587e-06	3.011486e-09	1.829114e+01	1.970829e+02
1.100000e-06	2.647895e-06	3.088926e-09	1.892959e+01	2.021520e+02
1.110000e-06	2.735910e-06	3.162436e-09	1.955881e+01	2.069302e+02
1.120000e-06	2.822935e-06	3.230616e-09	2.018095e+01	2.114432e+02
1.130000e-06	2.909092e-06	3.294392e-09	2.079687e+01	2.157100e+02
1.140000e-06	2.994320e-06	3.356654e-09	2.140616e+01	2.197448e+02
1.150000e-06	3.078589e-06	3.417027e-09	2.200859e+01	2.235576e+02
1.160000e-06	3.161892e-06	3.472471e-09	2.260412e+01	2.271562e+02
1.170000e-06	3.244173e-06	3.521440e-09	2.319234e+01	2.305475e+02
1.180000e-06	3.325222e-06	3.567549e-09	2.377176e+01	2.337385e+02
1.190000e-06	3.405040e-06	3.611912e-09	2.434236e+01	2.367373e+02
1.200000e-06	3.483602e-06	3.653017e-09	2.490400e+01	2.395536e+02
1.210000e-06	3.560883e-06	3.691055e-09	2.545648e+01	2.421985e+02
1.220000e-06	3.636969e-06	3.728334e-09	2.600041e+01	2.446842e+02
1.230000e-06	3.711782e-06	3.764319e-09	2.653524e+01	2.470236e+02
1.240000e-06	3.784994e-06	3.795839e-09	2.705863e+01	2.492297e+02
1.250000e-06	3.856580e-06	3.826720e-09	2.757039e+01	2.513146e+02
1.260000e-06	3.926809e-06	3.857493e-09	2.807245e+01	2.532892e+02
1.270000e-06	3.995696e-06	3.886786e-09	2.856492e+01	2.551629e+02
1.280000e-06	4.063313e-06	3.913379e-09	2.904831e+01	2.569431e+02
1.290000e-06	4.129561e-06	3.938449e-09	2.952191e+01	2.586359e+02
1.300000e-06	4.194097e-06	3.965193e-09	2.998328e+01	2.602457e+02
1.310000e-06	4.257076e-06	3.990462e-09	3.043350e+01	2.617760e+02
1.320000e-06	4.318721e-06	4.011762e-09	3.087420e+01	2.632299e+02
1.330000e-06	4.378982e-06	4.030383e-09	3.130501e+01	2.646100e+02
1.340000e-06	4.437913e-06	4.050563e-09	3.172630e+01	2.659195e+02
1.350000e-06	4.495198e-06	4.070979e-09	3.213582e+01	2.671615e+02
1.360000e-06	4.550617e-06	4.089150e-09	3.253201e+01	2.683400e+02
1.370000e-06	4.604400e-06	4.106177e-09	3.291650e+01	2.694587e+02
1.380000e-06	4.656518e-06	4.122156e-09	3.328909e+01	2.705216e+02
1.390000e-06	4.706629e-06	4.138724e-09	3.364733e+01	2.715326e+02
1.400000e-06	4.754672e-06	4.156397e-09	3.399078e+01	2.724948e+02
1.410000e-06	4.800984e-06	4.171700e-09	3.432186e+01	2.734107e+02
1.420000e-06	4.845725e-06	4.183714e-09	3.464172e+01	2.742819e+02
1.430000e-06	4.888874e-06	4.196716e-09	3.495018e+01	2.751094e+02
1.440000e-06	4.930214e-06	4.211468e-09	3.524572e+01	2.758933e+02
1.450000e-06	4.969723e-06	4.222584e-09	3.552817e+01	2.766333e+02
1.460000e-06	5.007570e-06	4.231462e-09	3.579873e+01	2.773292e+02
1.470000e-06	5.043737e-06	4.241767e-09	3.605729e+01	2.779808e+02
1.480000e-06	5.078210e-06	4.252839e-09	3.630373e+01	2.785883e+02
1.490000e-06	5.110787e-06	4.263161e-09	3.653662e+01	2.791526e+02
1.500000e-06	5.141476e-06	4.271272e-09	3.675602e+01	2.796751e+02
1.510000e-06	5.170501e-06	4.278347e-09	3.696351e+01	2.801580e+02
1.520000e-06	5.197890e-06	4.285573e-09	3.715932e+01	2.806036e+02
1.530000e-06	5.223301e-06	4.292743e-09	3.734097e+01	2.810142e+02
1.540000e-06	5.246631e-06	4.298664e-09	3.750776e+01	2.813920e+02
1.550000e-06	5.268179e-06	4.304453e-09	3.766181e+01	2.817385e+02
1.560000e-06	5.288024e-06	4.310946e-09	3.780368e+01	2.820545e+02
1.570000e-06	5.306055e-06	4.316016e-09	3.793258e+01	2.823398e+02
1.580000e-06	5.322119e-06	4.320671e-09	3.804742e+01	2.825934e+02
1.590000e-06	5.336276e-06	4.326703e-09	3.814862e+01	2.828136e+02
1.600000e-06	5.348516e-06	4.330274e-09	3.823612e+01	2.829986e+02
1.610000e-06	5.358599e-06	4.331303e-09	3.830821e+01	2.831462e+02
1.620000e-06	5.366522e-06	4.332815e-09	3.836485e+01	2.832548e+02
1.630000e-06	5.372559e-06	4.333986e-09	3.840801e+01	2.833236e+02
1.640000e-06	5.376871e-06	4.334598e-09	3.843883e+01	2.833526e+02
1.650000e-06	5.379352e-06	4.335817e-09	3.845657e+01	2.833430e+02
1.660000e-06	5.379832e-06	4.338124e-09	3.846000e+01	2.832970e+02
1.670000e-06	5.378452e-06	4.337904e-09	3.845013e+01	2.832175e+02
1.680000e-06	5.375457e-06	4.335725e-09	3.842873e+01	2.831081e+02
1.690000e-06	5.370865e-06	4.335073e-09	3.839590e+01	2.829720e+02
1.700000e-06	5.364396e-06	4.332864e-09	3.834965e+01	2.828125e+02
1.710000e-06	5.356039e-06	4.328914e-09	3.828991e+01	2.826315e+02
1.720000e-06	5.346070e-06	4.324757e-09	3.821864e+01	2.824302e+02
1.730000e-06	5.334465e-06	4.320378e-09	3.813568e+01	2.822081e+02
1.740000e-06	5.321004e-06	4.305901e-09	3.803945e+01	2.819638e+02
1.750000e-06	5.305399e-06	4.284664e-09	3.792789e+01	2.816946e+02
1.760000e-06	5.287415e-06	4.262234e-09	3.779932e+01	2.813970e+02
1.770000e-06	5.266917e-06	4.264241e-09	3.765278e+01	2.810673e+02
1.780000e-06	5.244091e-06	4.296704e-09	3.748960e+01	2.807020e+02
1.790000e-06	5.219863e-06	4.307044e-09	3.731640e+01	2.802983e+02
1.800000e-06	5.194923e-06	4.294309e-09	3.713810e+01	2.798543e+02
1.810000e-06	5.168554e-06	4.254717e-09	3.694959e+01	2.793694e+02
1.820000e-06	5.139997e-06	4.234073e-09	3.674544e+01	2.788445e+02
1.830000e-06	5.109761e-06	4.268804e-09	3.652928e+01	2.782814e+02
1.840000e-06	5.077929e-06	4.264729e-09	3.630172e+01	2.776830e+02
1.850000e-06	5.043953e-06	4.221502e-09	3.605883e+01	2.770527e+02
1.860000e-06	5.008204e-06	4.204847e-09	3.580326e+01	2.763937e+02
1.870000e-06	4.970855e-06	4.192130e-09	3.553626e+01	2.757091e+02
1.880000e-06	4.931601e-06	4.190066e-09	3.525563e+01	2.750008e+02
1.890000e-06	4.890555e-06	4.181758e-09	3.496220e+01	2.742697e+02
1.900000e-06	4.847736e-06	4.154059e-09	3.465609e+01	2.735150e+02
1.910000e-06	4.803380e-06	4.149445e-09	3.433899e+01	2.727351e+02
1.920000e-06	4.757467e-06	4.141266e-09	3.401077e+01	2.719268e+02
1.930000e-06	4.709564e-06	4.132576e-09	3.366831e+01	2.710860e+02
1.940000e-06	4.659911e-06	4.125986e-09	3.331334e+01	2.702084e+02
1.950000e-06	4.608684e-06	4.088984e-09	3.294713e+01	2.692894e+02
1.960000e-06	4.555642e-06	4.067943e-09	3.256793e+01	2.683247e+02
1.970000e-06	4.500589e-06	4.080043e-09	3.217436e+01	2.673107e+02
1.980000e-06	4.443795e-06	4.065285e-09	3.176834e+01	2.662447e+02
1.990000e-06	4.385566e-06	4.025115e-09	3.135207e+01	2.651250e+02
2.000000e-06	4.325828e-06	4.009677e-09	3.092501e+01	2.639506e+02
2.010000e-06	4.264694e-06	4.007936e-09	3.048797e+01	2.627215e+02
2.020000e-06	4.201946e-06	3.982188e-09	3.003939e+01	2.614384e+02
2.030000e-06	4.137413e-06	3.958189e-09	2.957804e+01	2.601021e+02
2.040000e-06	4.071388e-06	3.943321e-09	2.910604e+01	2.587134e+02
2.050000e-06	4.004030e-06	3.915229e-09	2.862450e+01	2.572731e+02
2.060000e-06	3.935363e-06	3.886114e-09	2.813361e+01	2.557812e+02
2.070000e-06	3.865041e-06	3.870048e-09	2.763088e+01	2.542374e+02
2.080000e-06	3.793100e-06	3.850428e-09	2.711658e+01	2.526407e+02
2.090000e-06	3.719888e-06	3.815334e-09	2.659319e+01	2.509895e+02
2.100000e-06	3.645366e-06	3.786127e-09	2.606044e+01	2.492815e+02
2.110000e-06	3.569472e-06	3.768423e-09	2.551788e+01	2.475143e+02
2.120000e-06	3.491997e-06	3.742462e-09	2.496401e+01	2.456849e+02
2.130000e-06	3.412992e-06	3.708167e-09	2.439922e+01	2.437901e+02
2.140000e-06	3.332777e-06	3.680797e-09	2.382577e+01	2.418268e+02
2.150000e-06	3.251441e-06	3.651261e-09	2.324430e+01	2.397916e+02
2.160000e-06	3.169016e-06	3.610795e-09	2.265505e+01	2.376811e+02
2.170000e-06	3.085583e-06	3.575228e-09	2.205859e+01	2.354921e+02
2.180000e-06	3.001244e-06	3.546838e-09	2.145566e+01	2.332209e+02
2.190000e-06	2.915811e-06	3.511838e-09	2.084490e+01	2.308640e+02
2.200000e-06	2.829086e-06	3.468569e-09	2.022492e+01	2.284174e+02
2.210000e-06	2.741207e-06	3.428409e-09	1.959667e+01	2.258772e+02
2.220000e-06	2.652403e-06	3.392418e-09	1.896183e+01	2.232390e+02
2.230000e-06	2.562765e-06	3.352841e-09	1.832101e+01	2.204982e+02
2.240000e-06	2.472224e-06	3.308548e-09	1.767374e+01	2.176497e+02
2.250000e-06	2.380884e-06	3.263650e-09	1.702076e+01	2.146880e+02
2.260000e-06	2.288912e-06	3.217439e-09	1.636325e+01	2.116074e+02
2.270000e-06	2.196348e-06	3.168875e-09	1.570152e+01	2.084014e+02
2.280000e-06	2.102874e-06	3.120538e-09	1.503328e+01	2.050628e+02
2.290000e-06	2.008293e-06	3.067566e-09	1.435713e+01	2.015837e+02
2.300000e-06	1.912898e-06	3.008434e-09	1.367516e+01	1.979554e+02
2.310000e-06	1.816887e-06	2.949679e-09	1.298878e+01	1.941678e+02
2.320000e-06	1.720247e-06	2.893748e-09	1.229791e+01	1.902101e+02
2.330000e-06	1.623024e-06	2.831771e-09	1.160287e+01	1.860696e+02
2.340000e-06	1.525295e-06	2.762513e-09	1.090422e+01	1.817325e+02
2.350000e-06	1.426994e-06	2.694520e-09	1.020147e+01	1.771832e+02
2.360000e-06	1.328228e-06	2.626235e-09	9.495403e+00	1.724045e+02
2.370000e-06	1.229178e-06	2.549032e-09	8.787299e+00	1.673773e+02
2.380000e-06	1.129767e-06	2.466588e-09	8.076615e+00	1.620805e+02
2.390000e-06	1.029979e-06	2.383991e-09	7.363241e+00	1.564911e+02
2.400000e-06	9.299683e-07	2.295490e-09	6.648271e+00	1.505840e+02
2.410000e-06	8.297691e-07	2.199639e-09	5.931955e+00	1.443326e+02
2.420000e-06	7.293431e-07	2.099813e-09	5.214017e+00	1.377081e+02
2.430000e-06	6.286542e-07	1.996059e-09	4.494200e+00	1.306812e+02
2.440000e-06	5.276185e-07	1.883146e-09	3.771904e+00	1.232215e+02
2.450000e-06	4.262363e-07	1.759403e-09	3.047130e+00	1.152997e+02
2.460000e-06	3.246656e-07	1.629998e-09	2.321010e+00	1.068880e+02
2.470000e-06	2.229913e-07	1.495785e-09	1.594148e+00	9.796222e+01
2.480000e-06	1.212039e-07	1.353517e-09	8.664771e-01	8.850366e+01
2.490000e-06	1.932810e-08	1.202059e-09	1.381751e-01	7.850100e+01
2.500000e-06	-8.256302e-08	1.042385e-09	-5.902367e-01	6.795261e+01
2.510000e-06	-1.843493e-07	8.735920e-10	-1.317899e+00	5.686853e+01
2.520000e-06	-2.859328e-07	6.964891e-10	-2.044111e+00	4.527231e+01
2.530000e-06	-3.872903e-07	5.133611e-10	-2.768708e+00	3.320227e+01
2.540000e-06	-4.884599e-07	3.224707e-10	-3.491962e+00	2.071218e+01
2.550000e-06	-5.893945e-07	1.247528e-10	-4.213536e+00	7.871095e+00
2.560000e-06	-6.900467e-07	-7.592401e-11	-4.933091e+00	-5.237714e+00
2.570000e-06	-7.904322e-07	-2.769161e-10	-5.650739e+00	-1.851873e+01
2.580000e-06	-8.905472e-07	-4.788693e-10	-6.366453e+00	-3.186710e+01
2.590000e-06	-9.904039e-07	-6.839869e-10	-7.080321e+00	-4.517228e+01
2.600000e-06	-1.090078e-06	-8.867066e-10	-7.792886e+00	-5.832223e+01
2.610000e-06	-1.189494e-06	-1.081704e-09	-8.503601e+00	-7.120789e+01
2.620000e-06	-1.288479e-06	-1.270483e-09	-9.211237e+00	-8.372767e+01
2.630000e-06	-1.386926e-06	-1.454988e-09	-9.915029e+00	-9.579155e+01
2.640000e-06	-1.484881e-06	-1.632773e-09	-1.061530e+01	-1.073245e+02
2.650000e-06	-1.582424e-06	-1.798890e-09	-1.131263e+01	-1.182693e+02
2.660000e-06	-1.679444e-06	-1.954895e-09	-1.200622e+01	-1.285874e+02
2.670000e-06	-1.775898e-06	-2.103544e-09	-1.269576e+01	-1.382599e+02
2.680000e-06	-1.871850e-06	-2.243522e-09	-1.338171e+01	-1.472862e+02
2.690000e-06	-1.967266e-06	-2.373429e-09	-1.406383e+01	-1.556823e+02
2.700000e-06	-2.061933e-06	-2.492413e-09	-1.474060e+01	-1.634776e+02
2.710000e-06	-2.155503e-06	-2.599837e-09	-1.540952e+01	-1.707121e+02
2.720000e-06	-2.248023e-06	-2.699009e-09	-1.607094e+01	-1.774320e+02
2.730000e-06	-2.339825e-06	-2.793003e-09	-1.672723e+01	-1.836864e+02
2.740000e-06	-2.430892e-06	-2.881190e-09	-1.737826e+01	-1.895242e+02
2.750000e-06	-2.521094e-06	-2.964972e-09	-1.802310e+01	-1.949908e+02
2.760000e-06	-2.610419e-06	-3.046398e-09	-1.866168e+01	-2.001265e+02
2.770000e-06	-2.698908e-06	-3.122360e-09	-1.929429e+01	-2.049649e+02
2.780000e-06	-2.786593e-06	-3.192065e-09	-1.992114e+01	-2.095331e+02
2.790000e-06	-2.873281e-06	-3.257687e-09	-2.054086e+01	-2.138515e+02
2.800000e-06	-2.958695e-06	-3.320217e-09	-2.115148e+01	-2.179353e+02
2.810000e-06	-3.042964e-06	-3.379035e-09	-2.175392e+01	-2.217952e+02
2.820000e-06	-3.126284e-06	-3.433534e-09	-2.234956e+01	-2.254393e+02
2.830000e-06	-3.208600e-06	-3.485951e-09	-2.293803e+01	-2.288747e+02
2.840000e-06	-3.289854e-06	-3.537275e-09	-2.351892e+01	-2.321082e+02
2.850000e-06	-3.370008e-06	-3.585952e-09	-2.409193e+01	-2.351477e+02
2.860000e-06	-3.448915e-06	-3.629380e-09	-2.465603e+01	-2.380024e+02
2.870000e-06	-3.526342e-06	-3.670968e-09	-2.520954e+01	-2.406832e+02
2.880000e-06	-3.602297e-06	-3.713594e-09	-2.575254e+01	-2.432022e+02
2.890000e-06	-3.676915e-06	-3.752876e-09	-2.628598e+01	-2.455721e+02
2.900000e-06	-3.750190e-06	-3.785990e-09	-2.680982e+01	-2.478059e+02
2.910000e-06	-3.822193e-06	-3.816370e-09	-2.732456e+01	-2.499160e+02
2.920000e-06	-3.892757e-06	-3.847574e-09	-2.782902e+01	-2.519136e+02
2.930000e-06	-3.961718e-06	-3.877061e-09	-2.832201e+01	-2.538084e+02
2.940000e-06	-4.029257e-06	-3.903354e-09	-2.880485e+01	-2.556083e+02
