# Temperatura_=_20.0
# Concentracion g/m^3_=_9000.0
# C_Vs_to_Am_M_A/Vsm_=_65563218390.804596
# pendiente_HvsI_1/m_=_3716.3
# ordenada_HvsI_A/m_=_1297.0
# frecuencia_Hz_=_300876.1086506362

Tiempo_(s)	Campo_(V.s)	Magnetizacion_(V.s)	Campo_(kA/m)	Magnetizacion_(A/m)
0.000000e+00	-5.359928e-06	-1.609669e-11	-3.829543e+01	-1.652870e+00
1.000000e-08	-5.358656e-06	-1.718312e-11	-3.828635e+01	-1.684781e+00
2.000000e-08	-5.355462e-06	-1.761889e-11	-3.826352e+01	-1.717984e+00
3.000000e-08	-5.350620e-06	-1.726141e-11	-3.822893e+01	-1.752926e+00
4.000000e-08	-5.344174e-06	-1.830981e-11	-3.818287e+01	-1.789501e+00
5.000000e-08	-5.336042e-06	-1.964517e-11	-3.812478e+01	-1.826868e+00
6.000000e-08	-5.325934e-06	-1.806684e-11	-3.805255e+01	-1.863373e+00
7.000000e-08	-5.313846e-06	-1.404437e-11	-3.796619e+01	-1.896610e+00
8.000000e-08	-5.299822e-06	-8.000910e-12	-3.786599e+01	-1.923627e+00
9.000000e-08	-5.283695e-06	-2.438746e-11	-3.775076e+01	-1.941255e+00
1.000000e-07	-5.265504e-06	-4.950951e-11	-3.762080e+01	-1.946523e+00
1.100000e-07	-5.245386e-06	-3.832114e-11	-3.747706e+01	-1.937103e+00
1.200000e-07	-5.223373e-06	-2.175033e-11	-3.731978e+01	-1.911719e+00
1.300000e-07	-5.199554e-06	1.490386e-14	-3.714960e+01	-1.870466e+00
1.400000e-07	-5.174095e-06	2.677596e-11	-3.696770e+01	-1.814969e+00
1.500000e-07	-5.147143e-06	-4.701855e-11	-3.677513e+01	-1.748367e+00
1.600000e-07	-5.118708e-06	-6.534938e-11	-3.657197e+01	-1.675092e+00
1.700000e-07	-5.088755e-06	1.386968e-11	-3.635797e+01	-1.600472e+00
1.800000e-07	-5.057023e-06	-1.950414e-11	-3.613125e+01	-1.530190e+00
1.900000e-07	-5.023182e-06	-2.622120e-11	-3.588946e+01	-1.469669e+00
2.000000e-07	-4.987699e-06	-1.015126e-11	-3.563594e+01	-1.423453e+00
2.100000e-07	-4.950706e-06	-5.616338e-11	-3.537164e+01	-1.394662e+00
2.200000e-07	-4.911893e-06	-3.454750e-12	-3.509433e+01	-1.384595e+00
2.300000e-07	-4.871213e-06	2.887533e-11	-3.480368e+01	-1.392539e+00
2.400000e-07	-4.828608e-06	-2.863309e-11	-3.449928e+01	-1.415802e+00
2.500000e-07	-4.784217e-06	-4.930165e-11	-3.418211e+01	-1.449980e+00
2.600000e-07	-4.738043e-06	-2.913781e-11	-3.385221e+01	-1.489428e+00
2.700000e-07	-4.689915e-06	1.953726e-11	-3.350834e+01	-1.527876e+00
2.800000e-07	-4.639787e-06	-1.791297e-12	-3.315020e+01	-1.559114e+00
2.900000e-07	-4.587801e-06	-4.943595e-11	-3.277877e+01	-1.577671e+00
3.000000e-07	-4.534134e-06	-2.244061e-11	-3.239533e+01	-1.579397e+00
3.100000e-07	-4.478899e-06	-5.779604e-12	-3.200069e+01	-1.561881e+00
3.200000e-07	-4.421962e-06	-1.368923e-11	-3.159389e+01	-1.524661e+00
3.300000e-07	-4.363278e-06	-1.138817e-11	-3.117460e+01	-1.469199e+00
3.400000e-07	-4.303103e-06	-1.518838e-11	-3.074467e+01	-1.398632e+00
3.500000e-07	-4.241527e-06	-2.222513e-11	-3.030472e+01	-1.317340e+00
3.600000e-07	-4.178451e-06	-1.281942e-11	-2.985405e+01	-1.230389e+00
3.700000e-07	-4.113735e-06	7.816265e-12	-2.939168e+01	-1.142913e+00
3.800000e-07	-4.047448e-06	-1.858757e-11	-2.891807e+01	-1.059532e+00
3.900000e-07	-3.979674e-06	-3.659603e-11	-2.843384e+01	-9.838670e-01
4.000000e-07	-3.910406e-06	-4.972705e-12	-2.793894e+01	-9.182025e-01
4.100000e-07	-3.839856e-06	3.932304e-12	-2.743488e+01	-8.633464e-01
4.200000e-07	-3.768153e-06	-1.515672e-11	-2.692257e+01	-8.186802e-01
4.300000e-07	-3.695051e-06	-2.705493e-11	-2.640028e+01	-7.823884e-01
4.400000e-07	-3.620339e-06	-7.109458e-12	-2.586648e+01	-7.518231e-01
4.500000e-07	-3.544085e-06	-6.057030e-12	-2.532166e+01	-7.239472e-01
4.600000e-07	-3.466419e-06	-1.713400e-11	-2.476675e+01	-6.957914e-01
4.700000e-07	-3.387392e-06	-7.240317e-12	-2.420212e+01	-6.648612e-01
4.800000e-07	-3.307002e-06	-4.784447e-12	-2.362775e+01	-6.294426e-01
4.900000e-07	-3.225378e-06	-1.022490e-11	-2.304457e+01	-5.887708e-01
5.000000e-07	-3.142730e-06	-5.717528e-12	-2.245407e+01	-5.430479e-01
5.100000e-07	-3.059138e-06	4.236671e-12	-2.185683e+01	-4.933182e-01
5.200000e-07	-2.974613e-06	-3.224840e-13	-2.125292e+01	-4.412299e-01
5.300000e-07	-2.889084e-06	-5.109928e-12	-2.064183e+01	-3.887247e-01
5.400000e-07	-2.802588e-06	-2.841763e-12	-2.002384e+01	-3.377081e-01
5.500000e-07	-2.715225e-06	-1.400939e-12	-1.939965e+01	-2.897487e-01
5.600000e-07	-2.626941e-06	-2.806666e-12	-1.876888e+01	-2.458521e-01
5.700000e-07	-2.537528e-06	-2.767629e-12	-1.813004e+01	-2.063368e-01
5.800000e-07	-2.446957e-06	-1.729150e-13	-1.748294e+01	-1.708266e-01
5.900000e-07	-2.355507e-06	-1.317017e-12	-1.682955e+01	-1.383524e-01
6.000000e-07	-2.263385e-06	-3.421977e-12	-1.617136e+01	-1.075433e-01
6.100000e-07	-2.170585e-06	2.198553e-12	-1.550832e+01	-7.687095e-02
6.200000e-07	-2.076999e-06	7.129091e-12	-1.483967e+01	-4.490847e-02
6.300000e-07	-1.982665e-06	1.024301e-12	-1.416568e+01	-1.056234e-02
6.400000e-07	-1.887690e-06	4.087100e-13	-1.348711e+01	2.675606e-02
6.500000e-07	-1.792160e-06	9.262629e-12	-1.280457e+01	6.704285e-02
6.600000e-07	-1.696032e-06	1.322849e-11	-1.211775e+01	1.097065e-01
6.700000e-07	-1.599032e-06	6.154429e-12	-1.142471e+01	1.536596e-01
6.800000e-07	-1.501207e-06	9.278622e-13	-1.072577e+01	1.974782e-01
6.900000e-07	-1.402831e-06	4.190842e-12	-1.002290e+01	2.396008e-01
7.000000e-07	-1.303987e-06	6.041777e-12	-9.316685e+00	2.785338e-01
7.100000e-07	-1.204659e-06	4.831760e-12	-8.607006e+00	3.130317e-01
7.200000e-07	-1.104907e-06	2.624869e-12	-7.894302e+00	3.422257e-01
7.300000e-07	-1.004890e-06	5.672600e-13	-7.179703e+00	3.656852e-01
7.400000e-07	-9.046026e-07	1.788501e-12	-6.463174e+00	3.834075e-01
7.500000e-07	-8.040112e-07	8.141409e-12	-5.744472e+00	3.957435e-01
7.600000e-07	-7.030450e-07	9.153498e-12	-5.023092e+00	4.032783e-01
7.700000e-07	-6.017585e-07	4.005381e-12	-4.299424e+00	4.066895e-01
7.800000e-07	-5.003482e-07	5.051052e-12	-3.574871e+00	4.066129e-01
7.900000e-07	-3.988220e-07	1.266168e-11	-2.849490e+00	4.035368e-01
8.000000e-07	-2.971168e-07	1.401617e-11	-2.122830e+00	3.977456e-01
8.100000e-07	-1.952782e-07	5.563312e-12	-1.395217e+00	3.893195e-01
8.200000e-07	-9.337997e-08	-1.379447e-12	-6.671781e-01	3.781892e-01
8.300000e-07	8.544293e-09	1.389164e-13	6.104698e-02	3.642326e-01
8.400000e-07	1.104800e-07	4.736878e-12	7.893539e-01	3.473936e-01
8.500000e-07	2.124330e-07	4.177129e-12	1.517784e+00	3.277999e-01
8.600000e-07	3.143249e-07	2.385953e-13	2.245778e+00	3.058545e-01
8.700000e-07	4.160093e-07	6.980811e-14	2.972289e+00	2.822811e-01
8.800000e-07	5.175174e-07	3.978553e-12	3.697541e+00	2.581127e-01
8.900000e-07	6.189331e-07	5.021722e-12	4.422133e+00	2.346198e-01
9.000000e-07	7.200997e-07	2.358012e-12	5.144944e+00	2.131867e-01
9.100000e-07	8.209319e-07	-1.760982e-12	5.865366e+00	1.951536e-01
9.200000e-07	9.214732e-07	-4.559663e-12	6.583711e+00	1.816482e-01
9.300000e-07	1.021690e-06	-2.833058e-12	7.299738e+00	1.734324e-01
9.400000e-07	1.121622e-06	-1.266701e-12	8.013727e+00	1.707896e-01
9.500000e-07	1.221252e-06	-4.202218e-12	8.725558e+00	1.734711e-01
9.600000e-07	1.320484e-06	-6.342329e-12	9.434551e+00	1.807128e-01
9.700000e-07	1.419295e-06	-3.568695e-12	1.014053e+01	1.913198e-01
9.800000e-07	1.517680e-06	7.726283e-13	1.084347e+01	2.038122e-01
9.900000e-07	1.615431e-06	1.133690e-12	1.154188e+01	2.166083e-01
1.000000e-06	1.712285e-06	-2.031479e-12	1.223388e+01	2.282235e-01
1.010000e-06	1.808320e-06	-4.587345e-12	1.292002e+01	2.374557e-01
1.020000e-06	1.903716e-06	-5.322853e-12	1.360161e+01	2.435327e-01
1.030000e-06	1.998512e-06	-5.535488e-12	1.427890e+01	2.462016e-01
1.040000e-06	2.092640e-06	-6.522443e-12	1.495142e+01	2.457515e-01
1.050000e-06	2.185995e-06	-7.902693e-12	1.561842e+01	2.429662e-01
1.060000e-06	2.278651e-06	-7.514145e-12	1.628043e+01	2.390187e-01
1.070000e-06	2.370687e-06	-5.694063e-12	1.693801e+01	2.353230e-01
1.080000e-06	2.462011e-06	-3.111125e-12	1.759049e+01	2.333667e-01
1.090000e-06	2.552538e-06	-1.759999e-12	1.823729e+01	2.345470e-01
1.100000e-06	2.642029e-06	-1.793616e-12	1.887668e+01	2.400329e-01
1.110000e-06	2.730307e-06	-3.039091e-12	1.950741e+01	2.506688e-01
1.120000e-06	2.817560e-06	-3.434320e-12	2.013081e+01	2.669275e-01
1.130000e-06	2.903956e-06	-3.500406e-12	2.074809e+01	2.889131e-01
1.140000e-06	2.989448e-06	-4.550679e-12	2.135890e+01	3.164052e-01
1.150000e-06	3.073924e-06	-6.009847e-12	2.196247e+01	3.489306e-01
1.160000e-06	3.157472e-06	-7.160047e-12	2.255940e+01	3.858449e-01
1.170000e-06	3.240086e-06	-5.200041e-12	2.314965e+01	4.264087e-01
1.180000e-06	3.321466e-06	-2.629307e-12	2.373110e+01	4.698436e-01
1.190000e-06	3.401549e-06	-1.447668e-12	2.430328e+01	5.153620e-01
1.200000e-06	3.480429e-06	-1.371258e-12	2.486686e+01	5.621694e-01
1.210000e-06	3.558019e-06	-1.065572e-13	2.542121e+01	6.094464e-01
1.220000e-06	3.634348e-06	8.578722e-13	2.596657e+01	6.563228e-01
1.230000e-06	3.709337e-06	1.283792e-12	2.650234e+01	7.018577e-01
1.240000e-06	3.782674e-06	2.177937e-12	2.702632e+01	7.450404e-01
1.250000e-06	3.854434e-06	1.771644e-12	2.753903e+01	7.848232e-01
1.260000e-06	3.924830e-06	1.896068e-12	2.804199e+01	8.201903e-01
1.270000e-06	3.993908e-06	2.986755e-12	2.853554e+01	8.502589e-01
1.280000e-06	4.061726e-06	3.791829e-12	2.902008e+01	8.744011e-01
1.290000e-06	4.128153e-06	4.332044e-12	2.949469e+01	8.923684e-01
1.300000e-06	4.192904e-06	5.997302e-12	2.995732e+01	9.043966e-01
1.310000e-06	4.256048e-06	8.729156e-12	3.040847e+01	9.112683e-01
1.320000e-06	4.317789e-06	8.862930e-12	3.084959e+01	9.143143e-01
1.330000e-06	4.378163e-06	8.481383e-12	3.128095e+01	9.153429e-01
1.340000e-06	4.437195e-06	9.301298e-12	3.170272e+01	9.164969e-01
1.350000e-06	4.494554e-06	9.468573e-12	3.211254e+01	9.200475e-01
1.360000e-06	4.550127e-06	8.917474e-12	3.250960e+01	9.281484e-01
1.370000e-06	4.604084e-06	8.884701e-12	3.289510e+01	9.425781e-01
1.380000e-06	4.656327e-06	1.040830e-11	3.326837e+01	9.645072e-01
1.390000e-06	4.706575e-06	1.196133e-11	3.362738e+01	9.943227e-01
1.400000e-06	4.754743e-06	1.201051e-11	3.397153e+01	1.031538e+00
1.410000e-06	4.801127e-06	1.306037e-11	3.430293e+01	1.074809e+00
1.420000e-06	4.845944e-06	1.528514e-11	3.462313e+01	1.122055e+00
1.430000e-06	4.889244e-06	1.643740e-11	3.493250e+01	1.170678e+00
1.440000e-06	4.930716e-06	1.730238e-11	3.522881e+01	1.217859e+00
1.450000e-06	4.970237e-06	1.947362e-11	3.551118e+01	1.260885e+00
1.460000e-06	5.008062e-06	2.099359e-11	3.578143e+01	1.297470e+00
1.470000e-06	5.044346e-06	2.086084e-11	3.604067e+01	1.326032e+00
1.480000e-06	5.079001e-06	2.028502e-11	3.628827e+01	1.345880e+00
1.490000e-06	5.111674e-06	1.941268e-11	3.652172e+01	1.357288e+00
1.500000e-06	5.142440e-06	2.069172e-11	3.674153e+01	1.361445e+00
1.510000e-06	5.171586e-06	2.274080e-11	3.694977e+01	1.360298e+00
1.520000e-06	5.199058e-06	2.422641e-11	3.714605e+01	1.356285e+00
1.530000e-06	5.224545e-06	2.461949e-11	3.732816e+01	1.352027e+00
1.540000e-06	5.247982e-06	2.543050e-11	3.749561e+01	1.350002e+00
1.550000e-06	5.269640e-06	2.677597e-11	3.765035e+01	1.352243e+00
1.560000e-06	5.289657e-06	2.676635e-11	3.779336e+01	1.360128e+00
1.570000e-06	5.307936e-06	2.672995e-11	3.792396e+01	1.374259e+00
1.580000e-06	5.324235e-06	2.667321e-11	3.804042e+01	1.394466e+00
1.590000e-06	5.338527e-06	2.761136e-11	3.814253e+01	1.419920e+00
1.600000e-06	5.350879e-06	2.969741e-11	3.823078e+01	1.449338e+00
1.610000e-06	5.361095e-06	3.047363e-11	3.830377e+01	1.481245e+00
1.620000e-06	5.369139e-06	2.970211e-11	3.836124e+01	1.514245e+00
1.630000e-06	5.375287e-06	3.018905e-11	3.840517e+01	1.547254e+00
1.640000e-06	5.379734e-06	3.329780e-11	3.843694e+01	1.579661e+00
1.650000e-06	5.382374e-06	3.576093e-11	3.845580e+01	1.611386e+00
1.660000e-06	5.382961e-06	3.548583e-11	3.846000e+01	1.642818e+00
1.670000e-06	5.381662e-06	3.497091e-11	3.845072e+01	1.674649e+00
1.680000e-06	5.378719e-06	3.612951e-11	3.842969e+01	1.707632e+00
1.690000e-06	5.374217e-06	3.619476e-11	3.839752e+01	1.742295e+00
1.700000e-06	5.367946e-06	3.498599e-11	3.835272e+01	1.778671e+00
1.710000e-06	5.359745e-06	3.529206e-11	3.829413e+01	1.816087e+00
1.720000e-06	5.349862e-06	3.706524e-11	3.822352e+01	1.853064e+00
1.730000e-06	5.338362e-06	4.568857e-11	3.814135e+01	1.887343e+00
1.740000e-06	5.325069e-06	5.197809e-11	3.804637e+01	1.916066e+00
1.750000e-06	5.309634e-06	1.873576e-11	3.793609e+01	1.936077e+00
1.760000e-06	5.291782e-06	6.658229e-12	3.780855e+01	1.944326e+00
1.770000e-06	5.271413e-06	2.063347e-11	3.766301e+01	1.938309e+00
1.780000e-06	5.248732e-06	3.753173e-11	3.750096e+01	1.916496e+00
1.790000e-06	5.224581e-06	9.908266e-11	3.732841e+01	1.878668e+00
1.800000e-06	5.199636e-06	5.041586e-11	3.715018e+01	1.826116e+00
1.810000e-06	5.173327e-06	-3.058638e-11	3.696221e+01	1.761668e+00
1.820000e-06	5.144968e-06	4.989829e-11	3.675960e+01	1.689505e+00
1.830000e-06	5.114948e-06	2.872644e-11	3.654511e+01	1.614805e+00
1.840000e-06	5.083211e-06	1.445655e-11	3.631836e+01	1.543226e+00
1.850000e-06	5.049308e-06	7.211212e-11	3.607613e+01	1.480300e+00
1.860000e-06	5.013649e-06	-2.489186e-11	3.582135e+01	1.430808e+00
1.870000e-06	4.976373e-06	5.239484e-12	3.555502e+01	1.398214e+00
1.880000e-06	4.937212e-06	9.323345e-11	3.527523e+01	1.384233e+00
1.890000e-06	4.896261e-06	1.326925e-11	3.498264e+01	1.388587e+00
1.900000e-06	4.853538e-06	-7.876129e-12	3.467739e+01	1.408993e+00
1.910000e-06	4.809296e-06	1.119906e-11	3.436130e+01	1.441381e+00
1.920000e-06	4.763508e-06	5.399595e-11	3.403415e+01	1.480325e+00
1.930000e-06	4.715750e-06	7.736114e-11	3.369293e+01	1.519630e+00
1.940000e-06	4.666268e-06	-8.561396e-12	3.333939e+01	1.553016e+00
1.950000e-06	4.615180e-06	3.450436e-11	3.297438e+01	1.574800e+00
1.960000e-06	4.562230e-06	4.214380e-11	3.259607e+01	1.580507e+00
1.970000e-06	4.507294e-06	6.015472e-12	3.220356e+01	1.567329e+00
1.980000e-06	4.450595e-06	6.004604e-11	3.179846e+01	1.534379e+00
1.990000e-06	4.392496e-06	2.547458e-11	3.138336e+01	1.482720e+00
2.000000e-06	4.332912e-06	3.379051e-12	3.095765e+01	1.415163e+00
2.010000e-06	4.271851e-06	1.600303e-11	3.052138e+01	1.335866e+00
2.020000e-06	4.209242e-06	5.072611e-11	3.007405e+01	1.249796e+00
2.030000e-06	4.144891e-06	4.102804e-11	2.961427e+01	1.162125e+00
2.040000e-06	4.078965e-06	-2.463305e-11	2.914325e+01	1.077629e+00
2.050000e-06	4.011635e-06	2.385065e-11	2.866220e+01	1.000177e+00
2.060000e-06	3.943019e-06	3.935076e-11	2.817195e+01	9.323579e-01
2.070000e-06	3.872850e-06	1.233426e-11	2.767061e+01	8.752992e-01
2.080000e-06	3.801019e-06	5.335595e-12	2.715739e+01	8.286739e-01
2.090000e-06	3.727849e-06	7.705729e-12	2.663461e+01	7.908962e-01
2.100000e-06	3.653381e-06	2.130937e-11	2.610256e+01	7.594609e-01
2.110000e-06	3.577572e-06	-5.376147e-12	2.556091e+01	7.313753e-01
2.120000e-06	3.500301e-06	1.638332e-11	2.500883e+01	7.036188e-01
2.130000e-06	3.421527e-06	2.266571e-11	2.444601e+01	6.735651e-01
2.140000e-06	3.341410e-06	-2.437288e-12	2.387359e+01	6.393139e-01
2.150000e-06	3.260090e-06	2.775649e-12	2.329258e+01	5.998904e-01
2.160000e-06	3.177707e-06	1.633712e-11	2.270398e+01	5.552952e-01
2.170000e-06	3.094288e-06	2.621295e-11	2.210796e+01	5.064092e-01
2.180000e-06	3.009883e-06	6.508577e-12	2.150491e+01	4.547754e-01
2.190000e-06	2.924362e-06	5.903248e-12	2.089388e+01	4.023007e-01
2.200000e-06	2.837626e-06	1.037658e-11	2.027418e+01	3.509251e-01
2.210000e-06	2.749808e-06	8.378664e-12	1.964673e+01	3.023117e-01
2.220000e-06	2.661019e-06	8.132794e-12	1.901236e+01	2.576010e-01
2.230000e-06	2.571338e-06	4.925155e-12	1.837161e+01	2.172633e-01
2.240000e-06	2.480775e-06	2.416224e-12	1.772456e+01	1.810662e-01
2.250000e-06	2.389431e-06	-7.521690e-12	1.707193e+01	1.481543e-01
2.260000e-06	2.297437e-06	4.758192e-12	1.641465e+01	1.172233e-01
2.270000e-06	2.204767e-06	1.469020e-11	1.575254e+01	8.675664e-02
2.280000e-06	2.111213e-06	3.251941e-12	1.508413e+01	5.528475e-02
2.290000e-06	2.016676e-06	-6.206683e-12	1.440868e+01	2.162572e-02
2.300000e-06	1.921320e-06	5.137767e-12	1.372739e+01	-1.492773e-02
2.310000e-06	1.825296e-06	1.725262e-11	1.304132e+01	-5.450145e-02
2.320000e-06	1.728618e-06	4.224828e-12	1.235057e+01	-9.662487e-02
2.330000e-06	1.631411e-06	-1.042712e-11	1.165605e+01	-1.403053e-01
2.340000e-06	1.533804e-06	-1.001745e-11	1.095867e+01	-1.841750e-01
2.350000e-06	1.435625e-06	-1.523117e-12	1.025721e+01	-2.266845e-01
2.360000e-06	1.336832e-06	1.232169e-12	9.551353e+00	-2.663091e-01
2.370000e-06	1.237636e-06	2.101913e-14	8.842620e+00	-3.017371e-01
2.380000e-06	1.138124e-06	-5.050932e-12	8.131629e+00	-3.320115e-01
2.390000e-06	1.038315e-06	-9.345000e-12	7.418517e+00	-3.566063e-01
2.400000e-06	9.382551e-07	-2.366480e-12	6.703613e+00	-3.754313e-01
2.410000e-06	8.379518e-07	2.626583e-12	5.986970e+00	-3.887706e-01
2.420000e-06	7.373534e-07	-8.022968e-12	5.268217e+00	-3.971705e-01
2.430000e-06	6.365429e-07	-1.980239e-11	4.547950e+00	-4.013009e-01
2.440000e-06	5.355392e-07	-1.357158e-11	3.826303e+00	-4.018167e-01
2.450000e-06	4.342125e-07	-5.508825e-13	3.102347e+00	-3.992445e-01
2.460000e-06	3.325963e-07	-1.198464e-12	2.376323e+00	-3.939142e-01
2.470000e-06	2.308734e-07	-9.648611e-12	1.649536e+00	-3.859471e-01
2.480000e-06	1.290778e-07	-8.454925e-12	9.222305e-01	-3.752989e-01
2.490000e-06	2.720174e-08	-9.847298e-13	1.943501e-01	-3.618491e-01
2.500000e-06	-7.470585e-08	-7.719259e-14	-5.337558e-01	-3.455173e-01
2.510000e-06	-1.764504e-07	-5.811179e-12	-1.260697e+00	-3.263829e-01
2.520000e-06	-2.779284e-07	-1.023539e-11	-1.985733e+00	-3.047840e-01
2.530000e-06	-3.793384e-07	-1.069552e-11	-2.710284e+00	-2.813747e-01
2.540000e-06	-4.807397e-07	-7.165823e-12	-3.434773e+00	-2.571258e-01
2.550000e-06	-5.818816e-07	-3.643101e-12	-4.157408e+00	-2.332656e-01
2.560000e-06	-6.826431e-07	-6.982417e-12	-4.877326e+00	-2.111666e-01
2.570000e-06	-7.831489e-07	-1.171138e-11	-5.595416e+00	-1.921926e-01
2.580000e-06	-8.834048e-07	-9.916011e-12	-6.311721e+00	-1.775307e-01
2.590000e-06	-9.834299e-07	-4.055943e-12	-7.026377e+00	-1.680324e-01
2.600000e-06	-1.083217e-06	-3.450382e-12	-7.739331e+00	-1.640903e-01
2.610000e-06	-1.182659e-06	-7.492076e-12	-8.449821e+00	-1.655709e-01
2.620000e-06	-1.281699e-06	-9.158507e-12	-9.157438e+00	-1.718156e-01
2.630000e-06	-1.380315e-06	-9.021548e-12	-9.862030e+00	-1.817113e-01
2.640000e-06	-1.478430e-06	-7.908033e-12	-1.056304e+01	-1.938248e-01
2.650000e-06	-1.575958e-06	-8.432853e-12	-1.125985e+01	-2.065794e-01
2.660000e-06	-1.672977e-06	-1.124051e-11	-1.195303e+01	-2.184535e-01
2.670000e-06	-1.769589e-06	-1.412894e-11	-1.264330e+01	-2.281702e-01
2.680000e-06	-1.865765e-06	-1.309673e-11	-1.333046e+01	-2.348554e-01
2.690000e-06	-1.961315e-06	-8.991271e-12	-1.401314e+01	-2.381409e-01
2.700000e-06	-2.055937e-06	-9.127952e-12	-1.468919e+01	-2.382012e-01
2.710000e-06	-2.149523e-06	-1.359995e-11	-1.535784e+01	-2.357211e-01
2.720000e-06	-2.242195e-06	-1.532872e-11	-1.601996e+01	-2.318018e-01
2.730000e-06	-2.334139e-06	-1.171739e-11	-1.667688e+01	-2.278192e-01
2.740000e-06	-2.425351e-06	-9.579186e-12	-1.732857e+01	-2.252595e-01
2.750000e-06	-2.515669e-06	-1.203115e-11	-1.797387e+01	-2.255521e-01
2.760000e-06	-2.605040e-06	-1.458525e-11	-1.861240e+01	-2.299246e-01
2.770000e-06	-2.693628e-06	-1.465035e-11	-1.924534e+01	-2.392965e-01
2.780000e-06	-2.781514e-06	-1.369503e-11	-1.987326e+01	-2.542218e-01
2.790000e-06	-2.868344e-06	-1.296866e-11	-2.049364e+01	-2.748810e-01
2.800000e-06	-2.953816e-06	-1.357080e-11	-2.110432e+01	-3.011180e-01
2.810000e-06	-3.038199e-06	-1.500979e-11	-2.170722e+01	-3.325069e-01
2.820000e-06	-3.121675e-06	-1.497612e-11	-2.230364e+01	-3.684331e-01
2.830000e-06	-3.204094e-06	-1.332959e-11	-2.289250e+01	-4.081721e-01
2.840000e-06	-3.285416e-06	-1.426518e-11	-2.347353e+01	-4.509504e-01
2.850000e-06	-3.365705e-06	-1.858328e-11	-2.404717e+01	-4.959812e-01
2.860000e-06	-3.444746e-06	-2.106738e-11	-2.461191e+01	-5.424725e-01
2.870000e-06	-3.522284e-06	-2.039475e-11	-2.516590e+01	-5.896124e-01
2.880000e-06	-3.598347e-06	-2.022762e-11	-2.570935e+01	-6.365437e-01
2.890000e-06	-3.672999e-06	-2.193142e-11	-2.624272e+01	-6.823414e-01
2.900000e-06	-3.746283e-06	-2.401848e-11	-2.676631e+01	-7.260082e-01
2.910000e-06	-3.818363e-06	-2.470911e-11	-2.728131e+01	-7.664999e-01
2.920000e-06	-3.889077e-06	-2.313577e-11	-2.778654e+01	-8.027863e-01
2.930000e-06	-3.958200e-06	-2.134238e-11	-2.828041e+01	-8.339461e-01
2.940000e-06	-4.025958e-06	-2.119680e-11	-2.876453e+01	-8.592863e-01
