# Temperatura_=_20.0
# Concentracion g/m^3_=_9000.0
# C_Vs_to_Am_M_A/Vsm_=_65563218390.804596
# pendiente_HvsI_1/m_=_3716.3
# ordenada_HvsI_A/m_=_1297.0
# frecuencia_Hz_=_300870.45715090155

Tiempo_(s)	Campo_(V.s)	Magnetizacion_(V.s)	Campo_(kA/m)	Magnetizacion_(A/m)
0.000000e+00	-5.365787e-06	-4.274712e-09	-3.829696e+01	-2.813909e+02
1.000000e-08	-5.364343e-06	-4.278321e-09	-3.828665e+01	-2.813254e+02
2.000000e-08	-5.360965e-06	-4.279042e-09	-3.826255e+01	-2.812335e+02
3.000000e-08	-5.355910e-06	-4.279691e-09	-3.822646e+01	-2.811180e+02
4.000000e-08	-5.349267e-06	-4.275410e-09	-3.817905e+01	-2.809806e+02
5.000000e-08	-5.340914e-06	-4.268042e-09	-3.811943e+01	-2.808219e+02
6.000000e-08	-5.330523e-06	-4.265331e-09	-3.804527e+01	-2.806413e+02
7.000000e-08	-5.318215e-06	-4.260022e-09	-3.795743e+01	-2.804369e+02
8.000000e-08	-5.304025e-06	-4.251698e-09	-3.785615e+01	-2.802061e+02
9.000000e-08	-5.287606e-06	-4.285448e-09	-3.773896e+01	-2.799457e+02
1.000000e-07	-5.269039e-06	-4.310560e-09	-3.760645e+01	-2.796528e+02
1.100000e-07	-5.248587e-06	-4.290504e-09	-3.746047e+01	-2.793246e+02
1.200000e-07	-5.226321e-06	-4.264265e-09	-3.730156e+01	-2.789596e+02
1.300000e-07	-5.202325e-06	-4.202045e-09	-3.713029e+01	-2.785571e+02
1.400000e-07	-5.176663e-06	-4.177798e-09	-3.694713e+01	-2.781178e+02
1.500000e-07	-5.149443e-06	-4.289315e-09	-3.675285e+01	-2.776435e+02
1.600000e-07	-5.120714e-06	-4.252082e-09	-3.654781e+01	-2.771365e+02
1.700000e-07	-5.090482e-06	-4.178720e-09	-3.633204e+01	-2.765998e+02
1.800000e-07	-5.058409e-06	-4.215370e-09	-3.610313e+01	-2.760361e+02
1.900000e-07	-5.024220e-06	-4.168276e-09	-3.585911e+01	-2.754474e+02
2.000000e-07	-4.988526e-06	-4.227241e-09	-3.560435e+01	-2.748349e+02
2.100000e-07	-4.951340e-06	-4.260371e-09	-3.533895e+01	-2.741987e+02
2.200000e-07	-4.912255e-06	-4.127707e-09	-3.505999e+01	-2.735372e+02
2.300000e-07	-4.871327e-06	-4.141300e-09	-3.476787e+01	-2.728480e+02
2.400000e-07	-4.828509e-06	-4.208135e-09	-3.446227e+01	-2.721275e+02
2.500000e-07	-4.783920e-06	-4.166538e-09	-3.414403e+01	-2.713719e+02
2.600000e-07	-4.737587e-06	-4.144271e-09	-3.381334e+01	-2.705769e+02
2.700000e-07	-4.689229e-06	-4.090721e-09	-3.346820e+01	-2.697388e+02
2.800000e-07	-4.638813e-06	-4.093032e-09	-3.310836e+01	-2.688546e+02
2.900000e-07	-4.586556e-06	-4.131021e-09	-3.273539e+01	-2.679221e+02
3.000000e-07	-4.532623e-06	-4.100504e-09	-3.235046e+01	-2.669401e+02
3.100000e-07	-4.477086e-06	-4.034433e-09	-3.195408e+01	-2.659084e+02
3.200000e-07	-4.419795e-06	-4.024955e-09	-3.154518e+01	-2.648274e+02
3.300000e-07	-4.360788e-06	-4.057465e-09	-3.112403e+01	-2.636978e+02
3.400000e-07	-4.300366e-06	-4.022691e-09	-3.069278e+01	-2.625205e+02
3.500000e-07	-4.238550e-06	-3.997629e-09	-3.025159e+01	-2.612959e+02
3.600000e-07	-4.175275e-06	-3.968265e-09	-2.979998e+01	-2.600238e+02
3.700000e-07	-4.110369e-06	-3.934734e-09	-2.933673e+01	-2.587033e+02
3.800000e-07	-4.043811e-06	-3.953117e-09	-2.886169e+01	-2.573327e+02
3.900000e-07	-3.975772e-06	-3.932534e-09	-2.837608e+01	-2.559098e+02
4.000000e-07	-3.906287e-06	-3.872124e-09	-2.788014e+01	-2.544316e+02
4.100000e-07	-3.835624e-06	-3.854395e-09	-2.737580e+01	-2.528953e+02
4.200000e-07	-3.763830e-06	-3.859723e-09	-2.686340e+01	-2.512981e+02
4.300000e-07	-3.690485e-06	-3.835510e-09	-2.633991e+01	-2.496375e+02
4.400000e-07	-3.615407e-06	-3.780129e-09	-2.580406e+01	-2.479117e+02
4.500000e-07	-3.538889e-06	-3.750756e-09	-2.525793e+01	-2.461194e+02
4.600000e-07	-3.461063e-06	-3.738707e-09	-2.470247e+01	-2.442598e+02
4.700000e-07	-3.381772e-06	-3.712300e-09	-2.413655e+01	-2.423323e+02
4.800000e-07	-3.301081e-06	-3.675811e-09	-2.356064e+01	-2.403364e+02
4.900000e-07	-3.219187e-06	-3.635516e-09	-2.297614e+01	-2.382713e+02
5.000000e-07	-3.136297e-06	-3.613618e-09	-2.238454e+01	-2.361353e+02
5.100000e-07	-3.052534e-06	-3.586052e-09	-2.178669e+01	-2.339262e+02
5.200000e-07	-2.967823e-06	-3.550497e-09	-2.118209e+01	-2.316403e+02
5.300000e-07	-2.882082e-06	-3.510268e-09	-2.057014e+01	-2.292731e+02
5.400000e-07	-2.795433e-06	-3.469278e-09	-1.995170e+01	-2.268194e+02
5.500000e-07	-2.707973e-06	-3.437429e-09	-1.932747e+01	-2.242729e+02
5.600000e-07	-2.619439e-06	-3.401784e-09	-1.869559e+01	-2.216271e+02
5.700000e-07	-2.529656e-06	-3.353466e-09	-1.805478e+01	-2.188752e+02
5.800000e-07	-2.438822e-06	-3.298143e-09	-1.740648e+01	-2.160108e+02
5.900000e-07	-2.347188e-06	-3.258957e-09	-1.675246e+01	-2.130276e+02
6.000000e-07	-2.254822e-06	-3.217583e-09	-1.609322e+01	-2.099196e+02
6.100000e-07	-2.161777e-06	-3.162008e-09	-1.542914e+01	-2.066810e+02
6.200000e-07	-2.067974e-06	-3.104547e-09	-1.475964e+01	-2.033062e+02
6.300000e-07	-1.973413e-06	-3.055612e-09	-1.408474e+01	-1.997888e+02
6.400000e-07	-1.878291e-06	-3.007364e-09	-1.340583e+01	-1.961219e+02
6.500000e-07	-1.782583e-06	-2.946086e-09	-1.272274e+01	-1.922974e+02
6.600000e-07	-1.686098e-06	-2.879410e-09	-1.203410e+01	-1.883053e+02
6.700000e-07	-1.588666e-06	-2.815691e-09	-1.133870e+01	-1.841339e+02
6.800000e-07	-1.490487e-06	-2.752241e-09	-1.063798e+01	-1.797691e+02
6.900000e-07	-1.391862e-06	-2.680803e-09	-9.934066e+00	-1.751944e+02
7.000000e-07	-1.292864e-06	-2.605714e-09	-9.227492e+00	-1.703912e+02
7.100000e-07	-1.193419e-06	-2.527360e-09	-8.517726e+00	-1.653384e+02
7.200000e-07	-1.093536e-06	-2.447205e-09	-7.804841e+00	-1.600127e+02
7.300000e-07	-9.933455e-07	-2.363803e-09	-7.089754e+00	-1.543889e+02
7.400000e-07	-8.928559e-07	-2.271524e-09	-6.372535e+00	-1.484398e+02
7.500000e-07	-7.920778e-07	-2.170451e-09	-5.653257e+00	-1.421369e+02
7.600000e-07	-6.910315e-07	-2.065058e-09	-4.932064e+00	-1.354502e+02
7.700000e-07	-5.896893e-07	-1.959664e-09	-4.208759e+00	-1.283492e+02
7.800000e-07	-4.881228e-07	-1.846063e-09	-3.483854e+00	-1.208032e+02
7.900000e-07	-3.863862e-07	-1.720808e-09	-2.757735e+00	-1.127826e+02
8.000000e-07	-2.844588e-07	-1.589119e-09	-2.030253e+00	-1.042597e+02
8.100000e-07	-1.824552e-07	-1.455136e-09	-1.302228e+00	-9.521072e+01
8.200000e-07	-8.039740e-08	-1.309026e-09	-5.738163e-01	-8.561741e+01
8.300000e-07	2.172430e-08	-1.149258e-09	1.550517e-01	-7.546937e+01
8.400000e-07	1.238303e-07	-9.835212e-10	8.838079e-01	-6.476621e+01
8.500000e-07	2.258572e-07	-8.127549e-10	1.611999e+00	-5.351978e+01
8.600000e-07	3.277950e-07	-6.349035e-10	2.339554e+00	-4.175609e+01
8.700000e-07	4.296125e-07	-4.477403e-10	3.066251e+00	-2.951667e+01
8.800000e-07	5.312491e-07	-2.537748e-10	3.791657e+00	-1.685937e+01
8.900000e-07	6.326698e-07	-5.356464e-11	4.515522e+00	-3.858053e+00
9.000000e-07	7.338642e-07	1.490941e-10	5.237771e+00	9.398553e+00
9.100000e-07	8.347844e-07	3.545073e-10	5.958064e+00	2.280916e+01
9.200000e-07	9.354069e-07	5.593384e-10	6.676232e+00	3.626317e+01
9.300000e-07	1.035751e-06	7.624757e-10	7.392413e+00	4.964476e+01
9.400000e-07	1.135744e-06	9.639582e-10	8.106090e+00	6.283758e+01
9.500000e-07	1.235359e-06	1.160579e-09	8.817068e+00	7.572964e+01
9.600000e-07	1.334618e-06	1.351419e-09	9.525501e+00	8.821814e+01
9.700000e-07	1.433517e-06	1.533180e-09	1.023137e+01	1.002138e+02
9.800000e-07	1.531968e-06	1.706075e-09	1.093403e+01	1.116442e+02
9.900000e-07	1.629787e-06	1.870387e-09	1.163219e+01	1.224566e+02
1.000000e-06	1.726783e-06	2.028489e-09	1.232448e+01	1.326187e+02
1.010000e-06	1.822872e-06	2.176474e-09	1.301029e+01	1.421183e+02
1.020000e-06	1.918205e-06	2.310145e-09	1.369071e+01	1.509626e+02
1.030000e-06	2.012978e-06	2.434719e-09	1.436712e+01	1.591745e+02
1.040000e-06	2.107144e-06	2.550250e-09	1.503921e+01	1.667904e+02
1.050000e-06	2.200525e-06	2.656591e-09	1.570570e+01	1.738553e+02
1.060000e-06	2.293154e-06	2.755977e-09	1.636681e+01	1.804194e+02
1.070000e-06	2.385110e-06	2.850546e-09	1.702312e+01	1.865339e+02
1.080000e-06	2.476386e-06	2.936536e-09	1.767459e+01	1.922480e+02
1.090000e-06	2.566821e-06	3.017427e-09	1.832004e+01	1.976062e+02
1.100000e-06	2.656105e-06	3.095029e-09	1.895728e+01	2.026466e+02
1.110000e-06	2.744216e-06	3.167907e-09	1.958615e+01	2.074001e+02
1.120000e-06	2.831366e-06	3.235336e-09	2.020817e+01	2.118908e+02
1.130000e-06	2.917645e-06	3.299895e-09	2.082396e+01	2.161363e+02
1.140000e-06	3.002941e-06	3.362053e-09	2.143274e+01	2.201496e+02
1.150000e-06	3.087228e-06	3.420616e-09	2.203431e+01	2.239398e+02
1.160000e-06	3.170613e-06	3.475810e-09	2.262945e+01	2.275146e+02
1.170000e-06	3.253022e-06	3.524435e-09	2.321763e+01	2.308808e+02
1.180000e-06	3.334136e-06	3.571193e-09	2.379656e+01	2.340460e+02
1.190000e-06	3.413894e-06	3.616384e-09	2.436581e+01	2.370187e+02
1.200000e-06	3.492445e-06	3.658705e-09	2.492645e+01	2.398092e+02
1.210000e-06	3.569779e-06	3.696482e-09	2.547840e+01	2.424287e+02
1.220000e-06	3.645920e-06	3.733706e-09	2.602184e+01	2.448893e+02
1.230000e-06	3.720696e-06	3.769977e-09	2.655554e+01	2.472033e+02
1.240000e-06	3.793842e-06	3.802469e-09	2.707759e+01	2.493825e+02
1.250000e-06	3.865436e-06	3.833575e-09	2.758858e+01	2.514378e+02
1.260000e-06	3.935686e-06	3.862208e-09	2.808997e+01	2.533787e+02
1.270000e-06	4.004621e-06	3.888880e-09	2.858198e+01	2.552134e+02
1.280000e-06	4.072311e-06	3.914668e-09	2.906510e+01	2.569486e+02
1.290000e-06	4.138643e-06	3.940213e-09	2.953852e+01	2.585897e+02
1.300000e-06	4.203303e-06	3.964154e-09	3.000002e+01	2.601418e+02
1.310000e-06	4.266367e-06	3.986770e-09	3.045012e+01	2.616093e+02
1.320000e-06	4.328022e-06	4.009148e-09	3.089017e+01	2.629967e+02
1.330000e-06	4.388327e-06	4.030230e-09	3.132059e+01	2.643091e+02
1.340000e-06	4.447291e-06	4.050031e-09	3.174143e+01	2.655516e+02
1.350000e-06	4.504582e-06	4.068928e-09	3.215032e+01	2.667297e+02
1.360000e-06	4.560043e-06	4.087196e-09	3.254616e+01	2.678492e+02
1.370000e-06	4.613883e-06	4.103683e-09	3.293043e+01	2.689153e+02
1.380000e-06	4.666055e-06	4.119269e-09	3.330280e+01	2.699329e+02
1.390000e-06	4.716187e-06	4.135528e-09	3.366060e+01	2.709056e+02
1.400000e-06	4.764216e-06	4.151537e-09	3.400340e+01	2.718361e+02
1.410000e-06	4.810482e-06	4.164409e-09	3.433361e+01	2.727258e+02
1.420000e-06	4.855199e-06	4.176352e-09	3.465277e+01	2.735749e+02
1.430000e-06	4.898402e-06	4.190591e-09	3.496112e+01	2.743827e+02
1.440000e-06	4.939759e-06	4.204625e-09	3.525629e+01	2.751481e+02
1.450000e-06	4.979229e-06	4.215699e-09	3.553800e+01	2.758698e+02
1.460000e-06	5.017041e-06	4.225058e-09	3.580787e+01	2.765469e+02
1.470000e-06	5.053255e-06	4.235586e-09	3.606634e+01	2.771791e+02
1.480000e-06	5.087780e-06	4.247366e-09	3.631276e+01	2.777673e+02
1.490000e-06	5.120290e-06	4.257008e-09	3.654478e+01	2.783130e+02
1.500000e-06	5.150905e-06	4.263284e-09	3.676329e+01	2.788187e+02
1.510000e-06	5.179914e-06	4.269623e-09	3.697033e+01	2.792874e+02
1.520000e-06	5.207294e-06	4.278178e-09	3.716575e+01	2.797222e+02
1.530000e-06	5.232677e-06	4.287212e-09	3.734692e+01	2.801260e+02
1.540000e-06	5.255969e-06	4.293249e-09	3.751316e+01	2.805010e+02
1.550000e-06	5.277490e-06	4.297178e-09	3.766676e+01	2.808483e+02
1.560000e-06	5.297375e-06	4.303211e-09	3.780868e+01	2.811682e+02
1.570000e-06	5.315474e-06	4.310221e-09	3.793786e+01	2.814595e+02
1.580000e-06	5.331538e-06	4.314613e-09	3.805251e+01	2.817205e+02
1.590000e-06	5.345597e-06	4.317682e-09	3.815286e+01	2.819486e+02
1.600000e-06	5.357723e-06	4.321445e-09	3.823940e+01	2.821415e+02
1.610000e-06	5.367661e-06	4.326240e-09	3.831034e+01	2.822970e+02
1.620000e-06	5.375497e-06	4.330435e-09	3.836626e+01	2.824137e+02
1.630000e-06	5.381535e-06	4.330721e-09	3.840935e+01	2.824913e+02
1.640000e-06	5.385801e-06	4.328820e-09	3.843980e+01	2.825306e+02
1.650000e-06	5.388206e-06	4.329956e-09	3.845697e+01	2.825336e+02
1.660000e-06	5.388631e-06	4.332638e-09	3.846000e+01	2.825031e+02
1.670000e-06	5.387241e-06	4.329266e-09	3.845008e+01	2.824425e+02
1.680000e-06	5.384153e-06	4.325877e-09	3.842804e+01	2.823549e+02
1.690000e-06	5.379455e-06	4.324528e-09	3.839451e+01	2.822432e+02
1.700000e-06	5.372948e-06	4.324294e-09	3.834807e+01	2.821095e+02
1.710000e-06	5.364571e-06	4.323249e-09	3.828828e+01	2.819544e+02
1.720000e-06	5.354574e-06	4.319819e-09	3.821693e+01	2.817777e+02
1.730000e-06	5.342891e-06	4.323513e-09	3.813354e+01	2.815775e+02
1.740000e-06	5.329335e-06	4.309393e-09	3.803679e+01	2.813515e+02
1.750000e-06	5.313636e-06	4.251943e-09	3.792474e+01	2.810964e+02
1.760000e-06	5.295519e-06	4.245118e-09	3.779544e+01	2.808093e+02
1.770000e-06	5.274829e-06	4.256028e-09	3.764777e+01	2.804874e+02
1.780000e-06	5.251800e-06	4.302504e-09	3.748340e+01	2.801289e+02
1.790000e-06	5.227396e-06	4.378068e-09	3.730923e+01	2.797329e+02
1.800000e-06	5.202319e-06	4.248118e-09	3.713025e+01	2.792999e+02
1.810000e-06	5.175823e-06	4.209533e-09	3.694114e+01	2.788315e+02
1.820000e-06	5.147206e-06	4.287293e-09	3.673689e+01	2.783300e+02
1.830000e-06	5.116965e-06	4.224563e-09	3.652106e+01	2.777982e+02
1.840000e-06	5.085018e-06	4.287477e-09	3.629304e+01	2.772389e+02
1.850000e-06	5.050845e-06	4.252288e-09	3.604914e+01	2.766544e+02
1.860000e-06	5.014951e-06	4.109328e-09	3.579295e+01	2.760460e+02
1.870000e-06	4.977433e-06	4.237791e-09	3.552518e+01	2.754139e+02
1.880000e-06	4.938013e-06	4.230364e-09	3.524383e+01	2.747568e+02
1.890000e-06	4.896843e-06	4.114567e-09	3.494998e+01	2.740726e+02
1.900000e-06	4.853869e-06	4.159917e-09	3.464327e+01	2.733579e+02
1.910000e-06	4.809458e-06	4.130980e-09	3.432630e+01	2.726086e+02
1.920000e-06	4.763505e-06	4.172936e-09	3.399832e+01	2.718208e+02
1.930000e-06	4.715488e-06	4.159949e-09	3.365561e+01	2.709905e+02
1.940000e-06	4.665754e-06	4.060712e-09	3.330065e+01	2.701145e+02
1.950000e-06	4.614439e-06	4.098323e-09	3.293440e+01	2.691906e+02
1.960000e-06	4.561208e-06	4.080197e-09	3.255448e+01	2.682173e+02
1.970000e-06	4.505945e-06	4.090164e-09	3.216005e+01	2.671943e+02
1.980000e-06	4.448965e-06	4.062456e-09	3.175337e+01	2.661218e+02
1.990000e-06	4.390515e-06	3.998846e-09	3.133620e+01	2.650007e+02
2.000000e-06	4.330584e-06	4.016842e-09	3.090846e+01	2.638316e+02
2.010000e-06	4.269318e-06	3.994419e-09	3.047119e+01	2.626153e+02
2.020000e-06	4.206418e-06	4.018783e-09	3.002225e+01	2.613515e+02
2.030000e-06	4.141672e-06	3.946775e-09	2.956014e+01	2.600396e+02
2.040000e-06	4.075384e-06	3.903109e-09	2.908703e+01	2.586780e+02
2.050000e-06	4.007766e-06	3.951190e-09	2.860443e+01	2.572644e+02
2.060000e-06	3.938874e-06	3.897009e-09	2.811273e+01	2.557961e+02
2.070000e-06	3.868337e-06	3.867481e-09	2.760928e+01	2.542702e+02
2.080000e-06	3.796192e-06	3.819008e-09	2.709437e+01	2.526839e+02
2.090000e-06	3.722884e-06	3.818141e-09	2.657115e+01	2.510346e+02
2.100000e-06	3.648257e-06	3.808116e-09	2.603852e+01	2.493204e+02
2.110000e-06	3.572130e-06	3.751708e-09	2.549518e+01	2.475398e+02
2.120000e-06	3.494436e-06	3.738011e-09	2.494066e+01	2.456921e+02
2.130000e-06	3.415299e-06	3.704229e-09	2.437584e+01	2.437766e+02
2.140000e-06	3.334957e-06	3.686287e-09	2.380242e+01	2.417928e+02
2.150000e-06	3.253442e-06	3.642725e-09	2.322063e+01	2.397400e+02
2.160000e-06	3.170829e-06	3.612344e-09	2.263100e+01	2.376166e+02
2.170000e-06	3.087232e-06	3.580646e-09	2.203435e+01	2.354206e+02
2.180000e-06	3.002690e-06	3.531978e-09	2.143095e+01	2.331485e+02
2.190000e-06	2.916956e-06	3.510243e-09	2.081904e+01	2.307961e+02
2.200000e-06	2.829981e-06	3.471123e-09	2.019828e+01	2.283581e+02
2.210000e-06	2.741942e-06	3.422552e-09	1.956992e+01	2.258284e+02
2.220000e-06	2.652970e-06	3.379316e-09	1.893491e+01	2.232006e+02
2.230000e-06	2.563153e-06	3.357898e-09	1.829386e+01	2.204680e+02
2.240000e-06	2.472467e-06	3.312539e-09	1.764661e+01	2.176240e+02
2.250000e-06	2.380975e-06	3.252673e-09	1.699361e+01	2.146623e+02
2.260000e-06	2.288847e-06	3.215743e-09	1.633607e+01	2.115768e+02
2.270000e-06	2.196068e-06	3.175373e-09	1.567388e+01	2.083618e+02
2.280000e-06	2.102295e-06	3.117811e-09	1.500460e+01	2.050115e+02
2.290000e-06	2.007513e-06	3.054564e-09	1.432812e+01	2.015199e+02
2.300000e-06	1.911999e-06	3.004216e-09	1.364641e+01	1.978801e+02
2.310000e-06	1.815793e-06	2.950080e-09	1.295977e+01	1.940842e+02
2.320000e-06	1.718969e-06	2.888692e-09	1.226871e+01	1.901227e+02
2.330000e-06	1.621625e-06	2.827827e-09	1.157394e+01	1.859841e+02
2.340000e-06	1.523767e-06	2.764846e-09	1.087551e+01	1.816547e+02
2.350000e-06	1.425333e-06	2.693951e-09	1.017296e+01	1.771187e+02
2.360000e-06	1.326426e-06	2.622865e-09	9.467034e+00	1.723576e+02
2.370000e-06	1.227174e-06	2.550158e-09	8.758646e+00	1.673508e+02
2.380000e-06	1.127548e-06	2.464342e-09	8.047592e+00	1.620755e+02
2.390000e-06	1.027647e-06	2.375319e-09	7.334572e+00	1.565067e+02
2.400000e-06	9.275676e-07	2.289955e-09	6.620281e+00	1.506175e+02
2.410000e-06	8.272457e-07	2.198456e-09	5.904259e+00	1.443798e+02
2.420000e-06	7.266216e-07	2.095820e-09	5.186079e+00	1.377636e+02
2.430000e-06	6.256388e-07	1.989384e-09	4.465340e+00	1.307387e+02
2.440000e-06	5.242952e-07	1.881799e-09	3.742025e+00	1.232743e+02
2.450000e-06	4.227295e-07	1.763176e-09	3.017126e+00	1.153403e+02
2.460000e-06	3.210692e-07	1.628384e-09	2.291551e+00	1.069088e+02
2.470000e-06	2.192272e-07	1.489300e-09	1.564679e+00	9.795512e+01
2.480000e-06	1.171352e-07	1.348640e-09	8.360232e-01	8.845985e+01
2.490000e-06	1.500962e-08	1.196653e-09	1.071274e-01	7.841103e+01
2.500000e-06	-8.694474e-08	1.032297e-09	-6.205463e-01	6.780633e+01
2.510000e-06	-1.887846e-07	8.628456e-10	-1.347402e+00	5.665526e+01
2.520000e-06	-2.905528e-07	6.879367e-10	-2.073748e+00	4.498117e+01
2.530000e-06	-3.921425e-07	5.042370e-10	-2.798818e+00	3.282276e+01
2.540000e-06	-4.935495e-07	3.143395e-10	-3.522586e+00	2.023493e+01
2.550000e-06	-5.947325e-07	1.183161e-10	-4.244754e+00	7.288765e+00
2.560000e-06	-6.955902e-07	-8.458852e-11	-4.964601e+00	-5.929538e+00
2.570000e-06	-7.961078e-07	-2.894441e-10	-5.682020e+00	-1.932072e+01
2.580000e-06	-8.963362e-07	-4.918606e-10	-6.397375e+00	-3.277555e+01
2.590000e-06	-9.963117e-07	-6.974255e-10	-7.110924e+00	-4.617884e+01
2.600000e-06	-1.096055e-06	-9.048255e-10	-7.822817e+00	-5.941396e+01
2.610000e-06	-1.195516e-06	-1.103310e-09	-8.532692e+00	-7.236777e+01
2.620000e-06	-1.294567e-06	-1.289400e-09	-9.239647e+00	-8.493550e+01
2.630000e-06	-1.393116e-06	-1.472236e-09	-9.943019e+00	-9.702515e+01
2.640000e-06	-1.491180e-06	-1.652942e-09	-1.064292e+01	-1.085612e+02
2.650000e-06	-1.588759e-06	-1.820321e-09	-1.133937e+01	-1.194871e+02
2.660000e-06	-1.685819e-06	-1.973459e-09	-1.203211e+01	-1.297669e+02
2.670000e-06	-1.782434e-06	-2.118578e-09	-1.272167e+01	-1.393850e+02
2.680000e-06	-1.878606e-06	-2.258006e-09	-1.340808e+01	-1.483452e+02
2.690000e-06	-1.974174e-06	-2.388305e-09	-1.409017e+01	-1.566679e+02
2.700000e-06	-2.068909e-06	-2.506448e-09	-1.476632e+01	-1.643873e+02
2.710000e-06	-2.162589e-06	-2.612533e-09	-1.543494e+01	-1.715472e+02
2.720000e-06	-2.255324e-06	-2.711231e-09	-1.609681e+01	-1.781971e+02
2.730000e-06	-2.347326e-06	-2.806864e-09	-1.675345e+01	-1.843884e+02
2.740000e-06	-2.438548e-06	-2.897211e-09	-1.740452e+01	-1.901708e+02
2.750000e-06	-2.528868e-06	-2.978862e-09	-1.804916e+01	-1.955897e+02
2.760000e-06	-2.618240e-06	-3.055727e-09	-1.868703e+01	-2.006845e+02
2.770000e-06	-2.706786e-06	-3.130424e-09	-1.931901e+01	-2.054875e+02
2.780000e-06	-2.794626e-06	-3.201681e-09	-1.994594e+01	-2.100238e+02
2.790000e-06	-2.881475e-06	-3.267919e-09	-2.056581e+01	-2.143123e+02
2.800000e-06	-2.966986e-06	-3.328041e-09	-2.117612e+01	-2.183664e+02
2.810000e-06	-3.051341e-06	-3.385223e-09	-2.177818e+01	-2.221961e+02
2.820000e-06	-3.134758e-06	-3.442153e-09	-2.237355e+01	-2.258090e+02
2.830000e-06	-3.217158e-06	-3.497666e-09	-2.296166e+01	-2.292121e+02
2.840000e-06	-3.298496e-06	-3.547203e-09	-2.354219e+01	-2.324127e+02
2.850000e-06	-3.378806e-06	-3.591229e-09	-2.411538e+01	-2.354194e+02
2.860000e-06	-3.457856e-06	-3.632756e-09	-2.467958e+01	-2.382418e+02
2.870000e-06	-3.535346e-06	-3.672222e-09	-2.523265e+01	-2.408911e+02
2.880000e-06	-3.611346e-06	-3.711003e-09	-2.577508e+01	-2.433794e+02
2.890000e-06	-3.685946e-06	-3.748331e-09	-2.630751e+01	-2.457188e+02
2.900000e-06	-3.759222e-06	-3.782099e-09	-2.683050e+01	-2.479214e+02
2.910000e-06	-3.831323e-06	-3.814920e-09	-2.734511e+01	-2.499983e+02
2.920000e-06	-3.902003e-06	-3.849291e-09	-2.784957e+01	-2.519592e+02
2.930000e-06	-3.971053e-06	-3.880863e-09	-2.834239e+01	-2.538125e+02
2.940000e-06	-4.038675e-06	-3.905521e-09	-2.882503e+01	-2.555652e+02
