# Temperatura_=_20.0
# Concentracion g/m^3_=_9000.0
# C_Vs_to_Am_M_A/Vsm_=_65563218390.804596
# pendiente_HvsI_1/m_=_3716.3
# ordenada_HvsI_A/m_=_1297.0
# frecuencia_Hz_=_300869.3877550309

Tiempo_(s)	Campo_(V.s)	Magnetizacion_(V.s)	Campo_(kA/m)	Magnetizacion_(A/m)
0.000000e+00	-5.359315e-06	-4.286069e-09	-3.830061e+01	-2.821520e+02
1.000000e-08	-5.357924e-06	-4.287893e-09	-3.829067e+01	-2.820860e+02
2.000000e-08	-5.354610e-06	-4.290304e-09	-3.826698e+01	-2.819907e+02
3.000000e-08	-5.349674e-06	-4.289703e-09	-3.823171e+01	-2.818689e+02
4.000000e-08	-5.343120e-06	-4.284932e-09	-3.818487e+01	-2.817221e+02
5.000000e-08	-5.334899e-06	-4.279348e-09	-3.812611e+01	-2.815508e+02
6.000000e-08	-5.324656e-06	-4.278291e-09	-3.805291e+01	-2.813539e+02
7.000000e-08	-5.312464e-06	-4.275820e-09	-3.796578e+01	-2.811297e+02
8.000000e-08	-5.298398e-06	-4.266684e-09	-3.786526e+01	-2.808755e+02
9.000000e-08	-5.282151e-06	-4.278838e-09	-3.774915e+01	-2.805886e+02
1.000000e-07	-5.263839e-06	-4.306228e-09	-3.761828e+01	-2.802664e+02
1.100000e-07	-5.243627e-06	-4.302159e-09	-3.747384e+01	-2.799072e+02
1.200000e-07	-5.221508e-06	-4.273731e-09	-3.731577e+01	-2.795104e+02
1.300000e-07	-5.197627e-06	-4.231933e-09	-3.714510e+01	-2.790767e+02
1.400000e-07	-5.172095e-06	-4.200077e-09	-3.696263e+01	-2.786082e+02
1.500000e-07	-5.145026e-06	-4.250895e-09	-3.676918e+01	-2.781078e+02
1.600000e-07	-5.116452e-06	-4.272155e-09	-3.656497e+01	-2.775792e+02
1.700000e-07	-5.086395e-06	-4.208477e-09	-3.635017e+01	-2.770262e+02
1.800000e-07	-5.054616e-06	-4.194488e-09	-3.612306e+01	-2.764518e+02
1.900000e-07	-5.020658e-06	-4.191044e-09	-3.588038e+01	-2.758583e+02
2.000000e-07	-4.985135e-06	-4.216656e-09	-3.562651e+01	-2.752463e+02
2.100000e-07	-4.948205e-06	-4.247904e-09	-3.536259e+01	-2.746149e+02
2.200000e-07	-4.909347e-06	-4.169549e-09	-3.508489e+01	-2.739614e+02
2.300000e-07	-4.868642e-06	-4.143132e-09	-3.479399e+01	-2.732814e+02
2.400000e-07	-4.826038e-06	-4.186746e-09	-3.448952e+01	-2.725696e+02
2.500000e-07	-4.781565e-06	-4.172602e-09	-3.417169e+01	-2.718202e+02
2.600000e-07	-4.735341e-06	-4.156199e-09	-3.384135e+01	-2.710273e+02
2.700000e-07	-4.687194e-06	-4.110193e-09	-3.349726e+01	-2.701857e+02
2.800000e-07	-4.636972e-06	-4.079221e-09	-3.313835e+01	-2.692915e+02
2.900000e-07	-4.584891e-06	-4.116348e-09	-3.276615e+01	-2.683421e+02
3.000000e-07	-4.531187e-06	-4.106603e-09	-3.238235e+01	-2.673367e+02
3.100000e-07	-4.475949e-06	-4.044811e-09	-3.198759e+01	-2.662759e+02
3.200000e-07	-4.418962e-06	-4.026069e-09	-3.158033e+01	-2.651616e+02
3.300000e-07	-4.360175e-06	-4.043124e-09	-3.116021e+01	-2.639965e+02
3.400000e-07	-4.299892e-06	-4.025032e-09	-3.072939e+01	-2.627835e+02
3.500000e-07	-4.238197e-06	-3.995165e-09	-3.028848e+01	-2.615255e+02
3.600000e-07	-4.175102e-06	-3.969689e-09	-2.983757e+01	-2.602244e+02
3.700000e-07	-4.110359e-06	-3.935056e-09	-2.937488e+01	-2.588812e+02
3.800000e-07	-4.043943e-06	-3.936587e-09	-2.890024e+01	-2.574953e+02
3.900000e-07	-3.976118e-06	-3.928527e-09	-2.841553e+01	-2.560652e+02
4.000000e-07	-3.906915e-06	-3.877054e-09	-2.792096e+01	-2.545881e+02
4.100000e-07	-3.836440e-06	-3.847965e-09	-2.741731e+01	-2.530603e+02
4.200000e-07	-3.764787e-06	-3.846278e-09	-2.690523e+01	-2.514776e+02
4.300000e-07	-3.691614e-06	-3.834421e-09	-2.638230e+01	-2.498358e+02
4.400000e-07	-3.616711e-06	-3.789985e-09	-2.584700e+01	-2.481309e+02
4.500000e-07	-3.540327e-06	-3.752412e-09	-2.530112e+01	-2.463594e+02
4.600000e-07	-3.462623e-06	-3.735216e-09	-2.474580e+01	-2.445185e+02
4.700000e-07	-3.383534e-06	-3.711524e-09	-2.418059e+01	-2.426061e+02
4.800000e-07	-3.303090e-06	-3.677869e-09	-2.360570e+01	-2.406206e+02
4.900000e-07	-3.221411e-06	-3.640438e-09	-2.302197e+01	-2.385606e+02
5.000000e-07	-3.138693e-06	-3.611094e-09	-2.243082e+01	-2.364251e+02
5.100000e-07	-3.055108e-06	-3.584126e-09	-2.183348e+01	-2.342127e+02
5.200000e-07	-2.970573e-06	-3.554779e-09	-2.122935e+01	-2.319214e+02
5.300000e-07	-2.884965e-06	-3.515600e-09	-2.061755e+01	-2.295489e+02
5.400000e-07	-2.798398e-06	-3.469510e-09	-1.999889e+01	-2.270920e+02
5.500000e-07	-2.711081e-06	-3.434351e-09	-1.937487e+01	-2.245466e+02
5.600000e-07	-2.622842e-06	-3.402973e-09	-1.874427e+01	-2.219081e+02
5.700000e-07	-2.533371e-06	-3.355722e-09	-1.810486e+01	-2.191711e+02
5.800000e-07	-2.442786e-06	-3.300246e-09	-1.745749e+01	-2.163298e+02
5.900000e-07	-2.351366e-06	-3.256401e-09	-1.680415e+01	-2.133779e+02
6.000000e-07	-2.259177e-06	-3.216607e-09	-1.614532e+01	-2.103086e+02
6.100000e-07	-2.166263e-06	-3.165935e-09	-1.548131e+01	-2.071146e+02
6.200000e-07	-2.072596e-06	-3.107778e-09	-1.481191e+01	-2.037882e+02
6.300000e-07	-1.978137e-06	-3.054598e-09	-1.413685e+01	-2.003209e+02
6.400000e-07	-1.883084e-06	-3.007043e-09	-1.345755e+01	-1.967032e+02
6.500000e-07	-1.787553e-06	-2.952471e-09	-1.277483e+01	-1.929246e+02
6.600000e-07	-1.691304e-06	-2.886648e-09	-1.208698e+01	-1.889731e+02
6.700000e-07	-1.594119e-06	-2.819936e-09	-1.139245e+01	-1.848356e+02
6.800000e-07	-1.496168e-06	-2.755893e-09	-1.069243e+01	-1.804968e+02
6.900000e-07	-1.397663e-06	-2.687897e-09	-9.988467e+00	-1.759402e+02
7.000000e-07	-1.298769e-06	-2.612236e-09	-9.281713e+00	-1.711473e+02
7.100000e-07	-1.199510e-06	-2.529893e-09	-8.572358e+00	-1.660977e+02
7.200000e-07	-1.099847e-06	-2.446764e-09	-7.860109e+00	-1.607694e+02
7.300000e-07	-9.998320e-07	-2.364571e-09	-7.145348e+00	-1.551384e+02
7.400000e-07	-8.994833e-07	-2.276344e-09	-6.428201e+00	-1.491790e+02
7.500000e-07	-7.988788e-07	-2.176309e-09	-5.709227e+00	-1.428639e+02
7.600000e-07	-6.979938e-07	-2.069167e-09	-4.988247e+00	-1.361642e+02
7.700000e-07	-5.968133e-07	-1.962433e-09	-4.265155e+00	-1.290503e+02
7.800000e-07	-4.954388e-07	-1.852151e-09	-3.540677e+00	-1.214919e+02
7.900000e-07	-3.939391e-07	-1.728233e-09	-2.815305e+00	-1.134594e+02
8.000000e-07	-2.922940e-07	-1.593529e-09	-2.088893e+00	-1.049252e+02
8.100000e-07	-1.905320e-07	-1.456921e-09	-1.361646e+00	-9.586540e+01
8.200000e-07	-8.869323e-08	-1.312523e-09	-6.338505e-01	-8.626150e+01
8.300000e-07	1.322573e-08	-1.154944e-09	9.451830e-02	-7.610295e+01
8.400000e-07	1.151549e-07	-9.884481e-10	8.229605e-01	-6.538932e+01
8.500000e-07	2.169794e-07	-8.173372e-10	1.550654e+00	-5.413255e+01
8.600000e-07	3.186970e-07	-6.386261e-10	2.277584e+00	-4.235882e+01
8.700000e-07	4.203692e-07	-4.513697e-10	3.004189e+00	-3.010998e+01
8.800000e-07	5.218687e-07	-2.580452e-10	3.729560e+00	-1.744410e+01
8.900000e-07	6.231637e-07	-5.900671e-11	4.453470e+00	-4.435237e+00
9.000000e-07	7.242665e-07	1.432974e-10	5.176006e+00	8.827912e+00
9.100000e-07	8.251086e-07	3.483388e-10	5.896679e+00	2.224432e+01
9.200000e-07	9.256509e-07	5.529684e-10	6.615210e+00	3.570395e+01
9.300000e-07	1.025880e-06	7.566026e-10	7.331502e+00	4.909183e+01
9.400000e-07	1.125778e-06	9.577381e-10	8.045426e+00	6.229266e+01
9.500000e-07	1.225298e-06	1.154694e-09	8.756654e+00	7.519565e+01
9.600000e-07	1.324436e-06	1.346496e-09	9.465147e+00	8.769922e+01
9.700000e-07	1.423202e-06	1.528602e-09	1.017098e+01	9.971512e+01
9.800000e-07	1.521534e-06	1.701097e-09	1.087372e+01	1.111719e+02
9.900000e-07	1.619215e-06	1.865879e-09	1.157180e+01	1.220169e+02
1.000000e-06	1.716060e-06	2.024867e-09	1.226391e+01	1.322178e+02
1.010000e-06	1.812040e-06	2.175445e-09	1.294983e+01	1.417619e+02
1.020000e-06	1.907303e-06	2.311511e-09	1.363064e+01	1.506548e+02
1.030000e-06	2.002003e-06	2.434703e-09	1.430741e+01	1.589181e+02
1.040000e-06	2.096068e-06	2.549586e-09	1.497966e+01	1.665857e+02
1.050000e-06	2.189402e-06	2.658337e-09	1.564667e+01	1.737007e+02
1.060000e-06	2.282050e-06	2.758655e-09	1.630878e+01	1.803108e+02
1.070000e-06	2.373991e-06	2.850445e-09	1.696585e+01	1.864653e+02
1.080000e-06	2.465187e-06	2.936105e-09	1.761758e+01	1.922114e+02
1.090000e-06	2.555575e-06	3.018593e-09	1.826354e+01	1.975924e+02
1.100000e-06	2.644863e-06	3.096843e-09	1.890164e+01	2.026456e+02
1.110000e-06	2.732886e-06	3.170368e-09	1.953071e+01	2.074019e+02
1.120000e-06	2.819910e-06	3.237966e-09	2.015262e+01	2.118857e+02
1.130000e-06	2.906090e-06	3.301605e-09	2.076852e+01	2.161158e+02
1.140000e-06	2.991306e-06	3.362709e-09	2.137752e+01	2.201062e+02
1.150000e-06	3.075576e-06	3.420425e-09	2.197975e+01	2.238681e+02
1.160000e-06	3.158993e-06	3.474458e-09	2.257590e+01	2.274108e+02
1.170000e-06	3.241432e-06	3.522389e-09	2.316505e+01	2.307432e+02
1.180000e-06	3.322584e-06	3.567798e-09	2.374501e+01	2.338745e+02
1.190000e-06	3.402405e-06	3.611989e-09	2.431546e+01	2.368151e+02
1.200000e-06	3.481041e-06	3.654092e-09	2.487743e+01	2.395765e+02
1.210000e-06	3.558471e-06	3.691904e-09	2.543079e+01	2.421712e+02
1.220000e-06	3.634679e-06	3.727666e-09	2.597541e+01	2.446122e+02
1.230000e-06	3.709558e-06	3.762789e-09	2.651054e+01	2.469124e+02
1.240000e-06	3.782829e-06	3.794896e-09	2.703417e+01	2.490840e+02
1.250000e-06	3.854519e-06	3.825070e-09	2.754651e+01	2.511382e+02
1.260000e-06	3.924839e-06	3.853347e-09	2.804905e+01	2.530846e+02
1.270000e-06	3.993791e-06	3.880486e-09	2.854183e+01	2.549311e+02
1.280000e-06	4.061456e-06	3.907168e-09	2.902539e+01	2.566840e+02
1.290000e-06	4.127739e-06	3.932890e-09	2.949909e+01	2.583484e+02
1.300000e-06	4.192327e-06	3.957366e-09	2.996067e+01	2.599285e+02
1.310000e-06	4.255344e-06	3.980614e-09	3.041103e+01	2.614279e+02
1.320000e-06	4.316985e-06	4.001485e-09	3.085155e+01	2.628500e+02
1.330000e-06	4.377289e-06	4.021004e-09	3.128251e+01	2.641986e+02
1.340000e-06	4.436289e-06	4.041592e-09	3.170415e+01	2.654777e+02
1.350000e-06	4.493597e-06	4.060493e-09	3.211371e+01	2.666914e+02
1.360000e-06	4.549091e-06	4.077504e-09	3.251030e+01	2.678441e+02
1.370000e-06	4.602970e-06	4.094445e-09	3.289535e+01	2.689402e+02
1.380000e-06	4.655189e-06	4.111663e-09	3.326853e+01	2.699836e+02
1.390000e-06	4.705456e-06	4.128488e-09	3.362777e+01	2.709774e+02
1.400000e-06	4.753673e-06	4.144190e-09	3.397236e+01	2.719244e+02
1.410000e-06	4.800151e-06	4.157622e-09	3.430451e+01	2.728262e+02
1.420000e-06	4.845015e-06	4.170528e-09	3.462514e+01	2.736837e+02
1.430000e-06	4.888284e-06	4.184513e-09	3.493436e+01	2.744974e+02
1.440000e-06	4.929756e-06	4.197130e-09	3.523075e+01	2.752674e+02
1.450000e-06	4.969320e-06	4.207763e-09	3.551349e+01	2.759940e+02
1.460000e-06	5.007178e-06	4.218669e-09	3.578404e+01	2.766777e+02
1.470000e-06	5.043449e-06	4.229387e-09	3.604326e+01	2.773197e+02
1.480000e-06	5.078076e-06	4.239044e-09	3.629072e+01	2.779218e+02
1.490000e-06	5.110757e-06	4.248164e-09	3.652428e+01	2.784863e+02
1.500000e-06	5.141522e-06	4.256611e-09	3.674414e+01	2.790161e+02
1.510000e-06	5.170601e-06	4.264541e-09	3.695196e+01	2.795140e+02
1.520000e-06	5.198054e-06	4.272951e-09	3.714815e+01	2.799827e+02
1.530000e-06	5.223613e-06	4.281553e-09	3.733081e+01	2.804239e+02
1.540000e-06	5.247083e-06	4.288481e-09	3.749853e+01	2.808389e+02
1.550000e-06	5.268695e-06	4.294573e-09	3.765299e+01	2.812274e+02
1.560000e-06	5.288630e-06	4.300853e-09	3.779545e+01	2.815881e+02
1.570000e-06	5.306782e-06	4.306863e-09	3.792518e+01	2.819188e+02
1.580000e-06	5.322959e-06	4.312685e-09	3.804079e+01	2.822164e+02
1.590000e-06	5.337199e-06	4.317456e-09	3.814256e+01	2.824777e+02
1.600000e-06	5.349523e-06	4.320438e-09	3.823063e+01	2.826995e+02
1.610000e-06	5.359719e-06	4.323572e-09	3.830349e+01	2.828794e+02
1.620000e-06	5.367804e-06	4.327321e-09	3.836128e+01	2.830160e+02
1.630000e-06	5.373991e-06	4.329928e-09	3.840549e+01	2.831091e+02
1.640000e-06	5.378408e-06	4.330626e-09	3.843706e+01	2.831599e+02
1.650000e-06	5.381031e-06	4.331199e-09	3.845580e+01	2.831707e+02
1.660000e-06	5.381618e-06	4.333543e-09	3.846000e+01	2.831446e+02
1.670000e-06	5.380288e-06	4.333253e-09	3.845049e+01	2.830851e+02
1.680000e-06	5.377308e-06	4.329897e-09	3.842920e+01	2.829957e+02
1.690000e-06	5.372779e-06	4.326994e-09	3.839683e+01	2.828793e+02
1.700000e-06	5.366417e-06	4.326010e-09	3.835136e+01	2.827376e+02
1.710000e-06	5.358123e-06	4.325489e-09	3.829209e+01	2.825714e+02
1.720000e-06	5.348226e-06	4.321956e-09	3.822136e+01	2.823800e+02
1.730000e-06	5.336713e-06	4.318888e-09	3.813908e+01	2.821617e+02
1.740000e-06	5.323404e-06	4.312919e-09	3.804397e+01	2.819140e+02
1.750000e-06	5.307986e-06	4.271130e-09	3.793378e+01	2.816342e+02
1.760000e-06	5.290155e-06	4.247333e-09	3.780635e+01	2.813196e+02
1.770000e-06	5.269746e-06	4.257140e-09	3.766050e+01	2.809682e+02
1.780000e-06	5.246920e-06	4.286719e-09	3.749737e+01	2.805793e+02
1.790000e-06	5.222674e-06	4.342753e-09	3.732410e+01	2.801533e+02
1.800000e-06	5.197784e-06	4.289219e-09	3.714622e+01	2.796919e+02
1.810000e-06	5.171523e-06	4.209659e-09	3.695854e+01	2.791979e+02
1.820000e-06	5.143055e-06	4.251637e-09	3.675509e+01	2.786749e+02
1.830000e-06	5.112922e-06	4.249942e-09	3.653975e+01	2.781266e+02
1.840000e-06	5.081205e-06	4.251619e-09	3.631308e+01	2.775564e+02
1.850000e-06	5.047257e-06	4.244309e-09	3.607047e+01	2.769667e+02
1.860000e-06	5.011540e-06	4.144730e-09	3.581521e+01	2.763586e+02
1.870000e-06	4.974230e-06	4.183103e-09	3.554858e+01	2.757314e+02
1.880000e-06	4.934993e-06	4.232724e-09	3.526817e+01	2.750827e+02
1.890000e-06	4.894017e-06	4.159578e-09	3.497533e+01	2.744087e+02
1.900000e-06	4.851267e-06	4.155066e-09	3.466982e+01	2.737040e+02
1.910000e-06	4.806990e-06	4.139194e-09	3.435339e+01	2.729630e+02
1.920000e-06	4.761228e-06	4.148797e-09	3.402635e+01	2.721798e+02
1.930000e-06	4.713502e-06	4.182124e-09	3.368527e+01	2.713489e+02
1.940000e-06	4.664015e-06	4.095083e-09	3.333161e+01	2.704661e+02
1.950000e-06	4.612911e-06	4.083282e-09	3.296639e+01	2.695285e+02
1.960000e-06	4.559958e-06	4.096077e-09	3.258796e+01	2.685349e+02
1.970000e-06	4.504979e-06	4.083534e-09	3.219506e+01	2.674857e+02
1.980000e-06	4.448246e-06	4.074746e-09	3.178961e+01	2.663825e+02
1.990000e-06	4.390088e-06	4.018027e-09	3.137398e+01	2.652279e+02
2.000000e-06	4.330390e-06	4.009956e-09	3.094735e+01	2.640248e+02
2.010000e-06	4.269302e-06	4.002066e-09	3.051077e+01	2.627761e+02
2.020000e-06	4.206627e-06	4.007170e-09	3.006286e+01	2.614840e+02
2.030000e-06	4.142116e-06	3.975262e-09	2.960184e+01	2.601496e+02
2.040000e-06	4.076113e-06	3.914294e-09	2.913014e+01	2.587728e+02
2.050000e-06	4.008784e-06	3.935302e-09	2.864897e+01	2.573522e+02
2.060000e-06	3.940168e-06	3.911080e-09	2.815860e+01	2.558853e+02
2.070000e-06	3.869907e-06	3.874248e-09	2.765648e+01	2.543686e+02
2.080000e-06	3.797976e-06	3.838149e-09	2.714242e+01	2.527978e+02
2.090000e-06	3.724846e-06	3.811517e-09	2.661979e+01	2.511689e+02
2.100000e-06	3.650416e-06	3.808354e-09	2.608788e+01	2.494777e+02
2.110000e-06	3.574529e-06	3.764539e-09	2.554555e+01	2.477206e+02
2.120000e-06	3.497097e-06	3.743223e-09	2.499217e+01	2.458946e+02
2.130000e-06	3.418147e-06	3.716916e-09	2.442796e+01	2.439975e+02
2.140000e-06	3.337957e-06	3.687214e-09	2.385487e+01	2.420276e+02
2.150000e-06	3.256653e-06	3.657237e-09	2.327383e+01	2.399836e+02
2.160000e-06	3.174232e-06	3.619109e-09	2.268480e+01	2.378642e+02
2.170000e-06	3.090752e-06	3.584710e-09	2.208821e+01	2.356682e+02
2.180000e-06	3.006402e-06	3.538539e-09	2.148540e+01	2.333939e+02
2.190000e-06	2.921010e-06	3.513947e-09	2.087514e+01	2.310389e+02
2.200000e-06	2.834249e-06	3.477704e-09	2.025510e+01	2.286002e+02
2.210000e-06	2.746290e-06	3.427430e-09	1.962649e+01	2.260740e+02
2.220000e-06	2.657419e-06	3.391009e-09	1.899138e+01	2.234557e+02
2.230000e-06	2.567706e-06	3.364811e-09	1.835024e+01	2.207402e+02
2.240000e-06	2.477105e-06	3.324985e-09	1.770275e+01	2.179216e+02
2.250000e-06	2.385696e-06	3.268090e-09	1.704949e+01	2.149938e+02
2.260000e-06	2.293673e-06	3.225829e-09	1.639185e+01	2.119501e+02
2.270000e-06	2.201129e-06	3.183326e-09	1.573047e+01	2.087833e+02
2.280000e-06	2.107730e-06	3.129817e-09	1.506300e+01	2.054858e+02
2.290000e-06	2.013236e-06	3.070971e-09	1.438769e+01	2.020493e+02
2.300000e-06	1.917855e-06	3.016817e-09	1.370605e+01	1.984645e+02
2.310000e-06	1.821782e-06	2.962768e-09	1.301946e+01	1.947212e+02
2.320000e-06	1.725134e-06	2.905722e-09	1.232876e+01	1.908077e+02
2.330000e-06	1.627909e-06	2.849408e-09	1.163393e+01	1.867111e+02
2.340000e-06	1.530190e-06	2.784093e-09	1.093558e+01	1.824167e+02
2.350000e-06	1.431957e-06	2.711108e-09	1.023355e+01	1.779081e+02
2.360000e-06	1.333159e-06	2.640047e-09	9.527484e+00	1.731673e+02
2.370000e-06	1.233924e-06	2.569490e-09	8.818295e+00	1.681744e+02
2.380000e-06	1.134328e-06	2.486156e-09	8.106529e+00	1.629076e+02
2.390000e-06	1.034442e-06	2.394305e-09	7.392689e+00	1.573434e+02
2.400000e-06	9.343600e-07	2.305725e-09	6.677449e+00	1.514564e+02
2.410000e-06	8.340927e-07	2.216404e-09	5.960884e+00	1.452198e+02
2.420000e-06	7.336213e-07	2.117641e-09	5.242861e+00	1.386049e+02
2.430000e-06	6.329171e-07	2.010789e-09	4.523173e+00	1.315821e+02
2.440000e-06	5.319242e-07	1.899947e-09	3.801422e+00	1.241213e+02
2.450000e-06	4.306081e-07	1.780834e-09	3.077362e+00	1.161927e+02
2.460000e-06	3.291157e-07	1.650587e-09	2.352041e+00	1.077680e+02
2.470000e-06	2.274948e-07	1.512925e-09	1.625803e+00	9.882248e+01
2.480000e-06	1.256623e-07	1.368769e-09	8.980521e-01	8.933621e+01
2.490000e-06	2.377111e-08	1.213200e-09	1.698814e-01	7.929678e+01
2.500000e-06	-7.803635e-08	1.049540e-09	-5.576906e-01	6.870139e+01
2.510000e-06	-1.796935e-07	8.821778e-10	-1.284189e+00	5.755916e+01
2.520000e-06	-2.812135e-07	7.071464e-10	-2.009706e+00	4.589309e+01
2.530000e-06	-3.826323e-07	5.231909e-10	-2.734500e+00	3.374158e+01
2.540000e-06	-4.838868e-07	3.328470e-10	-3.458121e+00	2.115921e+01
2.550000e-06	-5.848634e-07	1.359025e-10	-4.179755e+00	8.216694e+00
2.560000e-06	-6.855440e-07	-6.674918e-11	-4.899274e+00	-5.000245e+00
2.570000e-06	-7.859955e-07	-2.710677e-10	-5.617155e+00	-1.839298e+01
2.580000e-06	-8.862165e-07	-4.757007e-10	-6.333390e+00	-3.185307e+01
2.590000e-06	-9.861811e-07	-6.845525e-10	-7.047792e+00	-4.526624e+01
2.600000e-06	-1.085879e-06	-8.927563e-10	-7.760285e+00	-5.851686e+01
2.610000e-06	-1.185284e-06	-1.090130e-09	-8.470693e+00	-7.149276e+01
2.620000e-06	-1.284311e-06	-1.276271e-09	-9.178390e+00	-8.409000e+01
2.630000e-06	-1.382836e-06	-1.458615e-09	-9.882505e+00	-9.621719e+01
2.640000e-06	-1.480806e-06	-1.637648e-09	-1.058265e+01	-1.077990e+02
2.650000e-06	-1.578318e-06	-1.804338e-09	-1.127953e+01	-1.187787e+02
2.660000e-06	-1.675378e-06	-1.957890e-09	-1.197317e+01	-1.291195e+02
2.670000e-06	-1.771929e-06	-2.104230e-09	-1.266317e+01	-1.388046e+02
2.680000e-06	-1.867996e-06	-2.246298e-09	-1.334973e+01	-1.478359e+02
2.690000e-06	-1.963500e-06	-2.379883e-09	-1.403225e+01	-1.562317e+02
2.700000e-06	-2.058207e-06	-2.499888e-09	-1.470908e+01	-1.640238e+02
2.710000e-06	-2.151882e-06	-2.607455e-09	-1.537853e+01	-1.712534e+02
2.720000e-06	-2.244575e-06	-2.708448e-09	-1.604097e+01	-1.779677e+02
2.730000e-06	-2.336512e-06	-2.805181e-09	-1.669799e+01	-1.842159e+02
2.740000e-06	-2.427691e-06	-2.894505e-09	-1.734961e+01	-1.900458e+02
2.750000e-06	-2.517976e-06	-2.974409e-09	-1.799484e+01	-1.955019e+02
2.760000e-06	-2.607346e-06	-3.049937e-09	-1.863353e+01	-2.006226e+02
2.770000e-06	-2.695888e-06	-3.125269e-09	-1.926629e+01	-2.054405e+02
2.780000e-06	-2.783673e-06	-3.198103e-09	-1.989365e+01	-2.099811e+02
2.790000e-06	-2.870432e-06	-3.264962e-09	-2.051368e+01	-2.142643e+02
2.800000e-06	-2.955897e-06	-3.324979e-09	-2.112447e+01	-2.183052e+02
2.810000e-06	-3.040249e-06	-3.382846e-09	-2.172729e+01	-2.221154e+02
2.820000e-06	-3.123706e-06	-3.440572e-09	-2.232372e+01	-2.257045e+02
2.830000e-06	-3.206144e-06	-3.495615e-09	-2.291287e+01	-2.290813e+02
2.840000e-06	-3.287454e-06	-3.545029e-09	-2.349395e+01	-2.322551e+02
2.850000e-06	-3.367730e-06	-3.588512e-09	-2.406765e+01	-2.352358e+02
2.860000e-06	-3.446799e-06	-3.629296e-09	-2.463271e+01	-2.380347e+02
2.870000e-06	-3.524338e-06	-3.669917e-09	-2.518686e+01	-2.406642e+02
2.880000e-06	-3.600397e-06	-3.710099e-09	-2.573042e+01	-2.431372e+02
2.890000e-06	-3.675098e-06	-3.748015e-09	-2.626427e+01	-2.454666e+02
2.900000e-06	-3.748477e-06	-3.781578e-09	-2.678868e+01	-2.476649e+02
2.910000e-06	-3.820625e-06	-3.814295e-09	-2.730428e+01	-2.497436e+02
2.920000e-06	-3.891248e-06	-3.848390e-09	-2.780899e+01	-2.517125e+02
2.930000e-06	-3.960221e-06	-3.879572e-09	-2.830191e+01	-2.535800e+02
2.940000e-06	-4.027859e-06	-3.905248e-09	-2.878529e+01	-2.553526e+02
