# Temperatura_=_20.0
# Concentracion g/m^3_=_9000.0
# C_Vs_to_Am_M_A/Vsm_=_65563218390.804596
# pendiente_HvsI_1/m_=_3716.3
# ordenada_HvsI_A/m_=_1297.0
# frecuencia_Hz_=_300869.4375266513

Tiempo_(s)	Campo_(V.s)	Magnetizacion_(V.s)	Campo_(kA/m)	Magnetizacion_(A/m)
0.000000e+00	-5.344558e-06	-4.302867e-09	-3.830104e+01	-2.826086e+02
1.000000e-08	-5.342998e-06	-4.304531e-09	-3.828986e+01	-2.825571e+02
2.000000e-08	-5.339568e-06	-4.305376e-09	-3.826528e+01	-2.824734e+02
3.000000e-08	-5.334483e-06	-4.305255e-09	-3.822884e+01	-2.823592e+02
4.000000e-08	-5.327757e-06	-4.302044e-09	-3.818064e+01	-2.822161e+02
5.000000e-08	-5.319354e-06	-4.297251e-09	-3.812042e+01	-2.820453e+02
6.000000e-08	-5.308933e-06	-4.295729e-09	-3.804574e+01	-2.818473e+02
7.000000e-08	-5.296550e-06	-4.289783e-09	-3.795700e+01	-2.816219e+02
8.000000e-08	-5.282250e-06	-4.284638e-09	-3.785452e+01	-2.813684e+02
9.000000e-08	-5.265767e-06	-4.303687e-09	-3.773640e+01	-2.810859e+02
1.000000e-07	-5.247197e-06	-4.318004e-09	-3.760332e+01	-2.807731e+02
1.100000e-07	-5.226720e-06	-4.312668e-09	-3.745657e+01	-2.804292e+02
1.200000e-07	-5.204421e-06	-4.287132e-09	-3.729677e+01	-2.800536e+02
1.300000e-07	-5.180480e-06	-4.231942e-09	-3.712520e+01	-2.796465e+02
1.400000e-07	-5.154912e-06	-4.234488e-09	-3.694196e+01	-2.792087e+02
1.500000e-07	-5.127727e-06	-4.278237e-09	-3.674715e+01	-2.787417e+02
1.600000e-07	-5.099027e-06	-4.244091e-09	-3.654147e+01	-2.782475e+02
1.700000e-07	-5.068849e-06	-4.230025e-09	-3.632521e+01	-2.777282e+02
1.800000e-07	-5.036840e-06	-4.214630e-09	-3.609582e+01	-2.771857e+02
1.900000e-07	-5.002722e-06	-4.189069e-09	-3.585132e+01	-2.766212e+02
2.000000e-07	-4.967126e-06	-4.253653e-09	-3.559622e+01	-2.760349e+02
2.100000e-07	-4.930008e-06	-4.230186e-09	-3.533022e+01	-2.754260e+02
2.200000e-07	-4.890960e-06	-4.151077e-09	-3.505040e+01	-2.747921e+02
2.300000e-07	-4.850055e-06	-4.180402e-09	-3.475725e+01	-2.741297e+02
2.400000e-07	-4.807268e-06	-4.199570e-09	-3.445062e+01	-2.734340e+02
2.500000e-07	-4.762733e-06	-4.171219e-09	-3.413147e+01	-2.726998e+02
2.600000e-07	-4.716446e-06	-4.148819e-09	-3.379976e+01	-2.719214e+02
2.700000e-07	-4.668181e-06	-4.110112e-09	-3.345388e+01	-2.710933e+02
2.800000e-07	-4.617866e-06	-4.110247e-09	-3.309330e+01	-2.702109e+02
2.900000e-07	-4.565698e-06	-4.126876e-09	-3.271945e+01	-2.692705e+02
3.000000e-07	-4.511869e-06	-4.097360e-09	-3.233369e+01	-2.682700e+02
3.100000e-07	-4.456498e-06	-4.054481e-09	-3.193688e+01	-2.672084e+02
3.200000e-07	-4.399387e-06	-4.050738e-09	-3.152760e+01	-2.660864e+02
3.300000e-07	-4.340516e-06	-4.057803e-09	-3.110571e+01	-2.649057e+02
3.400000e-07	-4.280248e-06	-4.028818e-09	-3.067381e+01	-2.636687e+02
3.500000e-07	-4.218548e-06	-4.005223e-09	-3.023164e+01	-2.623782e+02
3.600000e-07	-4.155392e-06	-3.969943e-09	-2.977904e+01	-2.610369e+02
3.700000e-07	-4.090680e-06	-3.952757e-09	-2.931530e+01	-2.596470e+02
3.800000e-07	-4.024357e-06	-3.958878e-09	-2.884000e+01	-2.582098e+02
3.900000e-07	-3.956552e-06	-3.919567e-09	-2.835408e+01	-2.567259e+02
4.000000e-07	-3.887296e-06	-3.874645e-09	-2.785777e+01	-2.551944e+02
4.100000e-07	-3.816798e-06	-3.865041e-09	-2.735256e+01	-2.536137e+02
4.200000e-07	-3.745211e-06	-3.860768e-09	-2.683954e+01	-2.519814e+02
4.300000e-07	-3.672136e-06	-3.825337e-09	-2.631586e+01	-2.502944e+02
4.400000e-07	-3.597312e-06	-3.781780e-09	-2.577964e+01	-2.485495e+02
4.500000e-07	-3.521000e-06	-3.756295e-09	-2.523276e+01	-2.467432e+02
4.600000e-07	-3.443356e-06	-3.738050e-09	-2.467634e+01	-2.448724e+02
4.700000e-07	-3.364300e-06	-3.711341e-09	-2.410979e+01	-2.429342e+02
4.800000e-07	-3.283904e-06	-3.673572e-09	-2.353365e+01	-2.409259e+02
4.900000e-07	-3.202319e-06	-3.636940e-09	-2.294898e+01	-2.388450e+02
5.000000e-07	-3.119660e-06	-3.612420e-09	-2.235661e+01	-2.366893e+02
5.100000e-07	-3.036139e-06	-3.587502e-09	-2.175807e+01	-2.344562e+02
5.200000e-07	-2.951726e-06	-3.553050e-09	-2.115314e+01	-2.321431e+02
5.300000e-07	-2.866261e-06	-3.508408e-09	-2.054067e+01	-2.297466e+02
5.400000e-07	-2.779803e-06	-3.463833e-09	-1.992108e+01	-2.272630e+02
5.500000e-07	-2.692563e-06	-3.433154e-09	-1.929588e+01	-2.246880e+02
5.600000e-07	-2.604390e-06	-3.397808e-09	-1.866400e+01	-2.220165e+02
5.700000e-07	-2.514993e-06	-3.344570e-09	-1.802335e+01	-2.192430e+02
5.800000e-07	-2.424443e-06	-3.290143e-09	-1.737443e+01	-2.163613e+02
5.900000e-07	-2.333088e-06	-3.251570e-09	-1.671975e+01	-2.133650e+02
6.000000e-07	-2.241106e-06	-3.208660e-09	-1.606058e+01	-2.102473e+02
6.100000e-07	-2.148358e-06	-3.153211e-09	-1.539591e+01	-2.070009e+02
6.200000e-07	-2.054827e-06	-3.099158e-09	-1.472563e+01	-2.036183e+02
6.300000e-07	-1.960556e-06	-3.048097e-09	-1.405005e+01	-2.000917e+02
6.400000e-07	-1.865655e-06	-2.995625e-09	-1.336996e+01	-1.964123e+02
6.500000e-07	-1.770228e-06	-2.936470e-09	-1.268610e+01	-1.925707e+02
6.600000e-07	-1.674173e-06	-2.873066e-09	-1.199773e+01	-1.885563e+02
6.700000e-07	-1.577278e-06	-2.806240e-09	-1.130335e+01	-1.843573e+02
6.800000e-07	-1.479585e-06	-2.737216e-09	-1.060324e+01	-1.799600e+02
6.900000e-07	-1.381291e-06	-2.666382e-09	-9.898830e+00	-1.753492e+02
7.000000e-07	-1.282480e-06	-2.591522e-09	-9.190714e+00	-1.705071e+02
7.100000e-07	-1.183280e-06	-2.511555e-09	-8.479812e+00	-1.654140e+02
7.200000e-07	-1.083781e-06	-2.429327e-09	-7.766768e+00	-1.600477e+02
7.300000e-07	-9.840035e-07	-2.345860e-09	-7.051726e+00	-1.543834e+02
7.400000e-07	-8.839595e-07	-2.256008e-09	-6.334774e+00	-1.483942e+02
7.500000e-07	-7.836304e-07	-2.159500e-09	-5.615779e+00	-1.420510e+02
7.600000e-07	-6.830293e-07	-2.055014e-09	-4.894836e+00	-1.353228e+02
7.700000e-07	-5.821381e-07	-1.944805e-09	-4.171813e+00	-1.281777e+02
7.800000e-07	-4.810105e-07	-1.828405e-09	-3.447096e+00	-1.205837e+02
7.900000e-07	-3.797693e-07	-1.704197e-09	-2.721564e+00	-1.125096e+02
8.000000e-07	-2.783575e-07	-1.574356e-09	-1.994810e+00	-1.039269e+02
8.100000e-07	-1.768282e-07	-1.436328e-09	-1.267215e+00	-9.481144e+01
8.200000e-07	-7.524195e-08	-1.286265e-09	-5.392111e-01	-8.514558e+01
8.300000e-07	2.641387e-08	-1.127546e-09	1.892914e-01	-7.492021e+01
8.400000e-07	1.280787e-07	-9.642580e-10	9.178585e-01	-6.413707e+01
8.500000e-07	2.296812e-07	-7.921227e-10	1.645979e+00	-5.281077e+01
8.600000e-07	3.311735e-07	-6.102951e-10	2.373309e+00	-4.097042e+01
8.700000e-07	4.325377e-07	-4.215168e-10	3.099722e+00	-2.866082e+01
8.800000e-07	5.337298e-07	-2.290559e-10	3.824902e+00	-1.594275e+01
8.900000e-07	6.347517e-07	-3.117951e-11	4.548861e+00	-2.892551e+00
9.000000e-07	7.355189e-07	1.726857e-10	5.270995e+00	1.039935e+01
9.100000e-07	8.359766e-07	3.803452e-10	5.990912e+00	2.383085e+01
9.200000e-07	9.361616e-07	5.865030e-10	6.708873e+00	3.729150e+01
9.300000e-07	1.036074e-06	7.869340e-10	7.424883e+00	5.066652e+01
9.400000e-07	1.135730e-06	9.859553e-10	8.139052e+00	6.384130e+01
9.500000e-07	1.235079e-06	1.184233e-09	8.851022e+00	7.670616e+01
9.600000e-07	1.334042e-06	1.377116e-09	9.560229e+00	8.916085e+01
9.700000e-07	1.432492e-06	1.558190e-09	1.026575e+01	1.011187e+02
9.800000e-07	1.530261e-06	1.728661e-09	1.096640e+01	1.125097e+02
9.900000e-07	1.627305e-06	1.893016e-09	1.166186e+01	1.232831e+02
1.000000e-06	1.723632e-06	2.051804e-09	1.235217e+01	1.334081e+02
1.010000e-06	1.819255e-06	2.200787e-09	1.303744e+01	1.428737e+02
1.020000e-06	1.914228e-06	2.334204e-09	1.371805e+01	1.516874e+02
1.030000e-06	2.008583e-06	2.455928e-09	1.439423e+01	1.598725e+02
1.040000e-06	2.102316e-06	2.569925e-09	1.506596e+01	1.674648e+02
1.050000e-06	2.195345e-06	2.677479e-09	1.573264e+01	1.745092e+02
1.060000e-06	2.287641e-06	2.777254e-09	1.639407e+01	1.810551e+02
1.070000e-06	2.379271e-06	2.868310e-09	1.705072e+01	1.871532e+02
1.080000e-06	2.470188e-06	2.952748e-09	1.770226e+01	1.928520e+02
1.090000e-06	2.560139e-06	3.035336e-09	1.834689e+01	1.981954e+02
1.100000e-06	2.648946e-06	3.114709e-09	1.898331e+01	2.032206e+02
1.110000e-06	2.736662e-06	3.187718e-09	1.961191e+01	2.079581e+02
1.120000e-06	2.823430e-06	3.253549e-09	2.023372e+01	2.124310e+02
1.130000e-06	2.909288e-06	3.316047e-09	2.084901e+01	2.166565e+02
1.140000e-06	2.994184e-06	3.378016e-09	2.145741e+01	2.206468e+02
1.150000e-06	3.078170e-06	3.436593e-09	2.205928e+01	2.244107e+02
1.160000e-06	3.161223e-06	3.489883e-09	2.265447e+01	2.279556e+02
1.170000e-06	3.243162e-06	3.537200e-09	2.324168e+01	2.312888e+02
1.180000e-06	3.323848e-06	3.583707e-09	2.381990e+01	2.344183e+02
1.190000e-06	3.403289e-06	3.629640e-09	2.438920e+01	2.373542e+02
1.200000e-06	3.481518e-06	3.670902e-09	2.494982e+01	2.401084e+02
1.210000e-06	3.558524e-06	3.706786e-09	2.550168e+01	2.426944e+02
1.220000e-06	3.634329e-06	3.743207e-09	2.604492e+01	2.451268e+02
1.230000e-06	3.708742e-06	3.779797e-09	2.657819e+01	2.474205e+02
1.240000e-06	3.781542e-06	3.812089e-09	2.709990e+01	2.495897e+02
1.250000e-06	3.852827e-06	3.842783e-09	2.761075e+01	2.516473e+02
1.260000e-06	3.922760e-06	3.871824e-09	2.811192e+01	2.536040e+02
1.270000e-06	3.991369e-06	3.899302e-09	2.860360e+01	2.554681e+02
1.280000e-06	4.058688e-06	3.926128e-09	2.908603e+01	2.572457e+02
1.290000e-06	4.124581e-06	3.951555e-09	2.955824e+01	2.589405e+02
1.300000e-06	4.188857e-06	3.975647e-09	3.001886e+01	2.605547e+02
1.310000e-06	4.251597e-06	3.999307e-09	3.046849e+01	2.620894e+02
1.320000e-06	4.312937e-06	4.022374e-09	3.090807e+01	2.635455e+02
1.330000e-06	4.372935e-06	4.042525e-09	3.133804e+01	2.649240e+02
1.340000e-06	4.431513e-06	4.062167e-09	3.175783e+01	2.662269e+02
1.350000e-06	4.488386e-06	4.082284e-09	3.216540e+01	2.674571e+02
1.360000e-06	4.543504e-06	4.100567e-09	3.256040e+01	2.686185e+02
1.370000e-06	4.597041e-06	4.117657e-09	3.294406e+01	2.697160e+02
1.380000e-06	4.648862e-06	4.134283e-09	3.331543e+01	2.707548e+02
1.390000e-06	4.698649e-06	4.150759e-09	3.367222e+01	2.717403e+02
1.400000e-06	4.746447e-06	4.165864e-09	3.401476e+01	2.726775e+02
1.410000e-06	4.792540e-06	4.179584e-09	3.434508e+01	2.735705e+02
1.420000e-06	4.837067e-06	4.193143e-09	3.466418e+01	2.744224e+02
1.430000e-06	4.880023e-06	4.206981e-09	3.497201e+01	2.752350e+02
1.440000e-06	4.921118e-06	4.219972e-09	3.526652e+01	2.760092e+02
1.450000e-06	4.960315e-06	4.231075e-09	3.554742e+01	2.767448e+02
1.460000e-06	4.997890e-06	4.241925e-09	3.581669e+01	2.774411e+02
1.470000e-06	5.033926e-06	4.253838e-09	3.607494e+01	2.780972e+02
1.480000e-06	5.068234e-06	4.264697e-09	3.632080e+01	2.787125e+02
1.490000e-06	5.100590e-06	4.273106e-09	3.655268e+01	2.792866e+02
1.500000e-06	5.131129e-06	4.280939e-09	3.677153e+01	2.798200e+02
1.510000e-06	5.160003e-06	4.289092e-09	3.697845e+01	2.803138e+02
1.520000e-06	5.187164e-06	4.298707e-09	3.717310e+01	2.807697e+02
1.530000e-06	5.212379e-06	4.307956e-09	3.735379e+01	2.811896e+02
1.540000e-06	5.235548e-06	4.314013e-09	3.751983e+01	2.815757e+02
1.550000e-06	5.256894e-06	4.318531e-09	3.767281e+01	2.819299e+02
1.560000e-06	5.276578e-06	4.325216e-09	3.781387e+01	2.822535e+02
1.570000e-06	5.294478e-06	4.331940e-09	3.794215e+01	2.825472e+02
1.580000e-06	5.310381e-06	4.335041e-09	3.805611e+01	2.828110e+02
1.590000e-06	5.324365e-06	4.337891e-09	3.815633e+01	2.830441e+02
1.600000e-06	5.336443e-06	4.342249e-09	3.824289e+01	2.832454e+02
1.610000e-06	5.346325e-06	4.346441e-09	3.831371e+01	2.834132e+02
1.620000e-06	5.354063e-06	4.349696e-09	3.836916e+01	2.835463e+02
1.630000e-06	5.359959e-06	4.351538e-09	3.841141e+01	2.836434e+02
1.640000e-06	5.364125e-06	4.352067e-09	3.844127e+01	2.837041e+02
1.650000e-06	5.366444e-06	4.353817e-09	3.845788e+01	2.837283e+02
1.660000e-06	5.366739e-06	4.356187e-09	3.846000e+01	2.837169e+02
1.670000e-06	5.365210e-06	4.355001e-09	3.844904e+01	2.836712e+02
1.680000e-06	5.362066e-06	4.352643e-09	3.842651e+01	2.835930e+02
1.690000e-06	5.357303e-06	4.350766e-09	3.839237e+01	2.834840e+02
1.700000e-06	5.350683e-06	4.349695e-09	3.834493e+01	2.833459e+02
1.710000e-06	5.342202e-06	4.347723e-09	3.828415e+01	2.831799e+02
1.720000e-06	5.332149e-06	4.344995e-09	3.821211e+01	2.829866e+02
1.730000e-06	5.320459e-06	4.346172e-09	3.812834e+01	2.827660e+02
1.740000e-06	5.306918e-06	4.326756e-09	3.803130e+01	2.825175e+02
1.750000e-06	5.291224e-06	4.292695e-09	3.791883e+01	2.822401e+02
1.760000e-06	5.273082e-06	4.279446e-09	3.778881e+01	2.819327e+02
1.770000e-06	5.252399e-06	4.281908e-09	3.764060e+01	2.815943e+02
1.780000e-06	5.229433e-06	4.335551e-09	3.747601e+01	2.812242e+02
1.790000e-06	5.205126e-06	4.359250e-09	3.730182e+01	2.808226e+02
1.800000e-06	5.180082e-06	4.283900e-09	3.712234e+01	2.803901e+02
1.810000e-06	5.153529e-06	4.291104e-09	3.693206e+01	2.799281e+02
1.820000e-06	5.124922e-06	4.292629e-09	3.672705e+01	2.794385e+02
1.830000e-06	5.094748e-06	4.283181e-09	3.651081e+01	2.789234e+02
1.840000e-06	5.062816e-06	4.333242e-09	3.628198e+01	2.783848e+02
1.850000e-06	5.028719e-06	4.249598e-09	3.603763e+01	2.778240e+02
1.860000e-06	4.992932e-06	4.209041e-09	3.578116e+01	2.772416e+02
1.870000e-06	4.955579e-06	4.283439e-09	3.551348e+01	2.766367e+02
1.880000e-06	4.916335e-06	4.216711e-09	3.523224e+01	2.760074e+02
1.890000e-06	4.875231e-06	4.160384e-09	3.493767e+01	2.753503e+02
1.900000e-06	4.832331e-06	4.177035e-09	3.463024e+01	2.746608e+02
1.910000e-06	4.787961e-06	4.153470e-09	3.431227e+01	2.739338e+02
1.920000e-06	4.742062e-06	4.180324e-09	3.398333e+01	2.731636e+02
1.930000e-06	4.694184e-06	4.141362e-09	3.364023e+01	2.723446e+02
1.940000e-06	4.644565e-06	4.095367e-09	3.328464e+01	2.714721e+02
1.950000e-06	4.593334e-06	4.108621e-09	3.291750e+01	2.705422e+02
1.960000e-06	4.540278e-06	4.088712e-09	3.253728e+01	2.695524e+02
1.970000e-06	4.485245e-06	4.093309e-09	3.214289e+01	2.685016e+02
1.980000e-06	4.428486e-06	4.055285e-09	3.173613e+01	2.673902e+02
1.990000e-06	4.370220e-06	4.019678e-09	3.131858e+01	2.662197e+02
2.000000e-06	4.310443e-06	4.023656e-09	3.089020e+01	2.649924e+02
2.010000e-06	4.249357e-06	4.015907e-09	3.045243e+01	2.637111e+02
2.020000e-06	4.186673e-06	4.005452e-09	3.000321e+01	2.623786e+02
2.030000e-06	4.122213e-06	3.935668e-09	2.954127e+01	2.609971e+02
2.040000e-06	4.056255e-06	3.931137e-09	2.906859e+01	2.595683e+02
2.050000e-06	3.988894e-06	3.945442e-09	2.858586e+01	2.580926e+02
2.060000e-06	3.920233e-06	3.893511e-09	2.809381e+01	2.565696e+02
2.070000e-06	3.849954e-06	3.864898e-09	2.759017e+01	2.549977e+02
2.080000e-06	3.778039e-06	3.831807e-09	2.707480e+01	2.533747e+02
2.090000e-06	3.704883e-06	3.828414e-09	2.655053e+01	2.516976e+02
2.100000e-06	3.630432e-06	3.803647e-09	2.601699e+01	2.499632e+02
2.110000e-06	3.554599e-06	3.763956e-09	2.547355e+01	2.481680e+02
2.120000e-06	3.477300e-06	3.739996e-09	2.491959e+01	2.463088e+02
2.130000e-06	3.398510e-06	3.701455e-09	2.435496e+01	2.443827e+02
2.140000e-06	3.318396e-06	3.681495e-09	2.378083e+01	2.423870e+02
2.150000e-06	3.237110e-06	3.649230e-09	2.319830e+01	2.403192e+02
2.160000e-06	3.154715e-06	3.614825e-09	2.260783e+01	2.381769e+02
2.170000e-06	3.071268e-06	3.568159e-09	2.200982e+01	2.359577e+02
2.180000e-06	2.986948e-06	3.532423e-09	2.140555e+01	2.336589e+02
2.190000e-06	2.901652e-06	3.514796e-09	2.079429e+01	2.312775e+02
2.200000e-06	2.815103e-06	3.469589e-09	2.017405e+01	2.288097e+02
2.210000e-06	2.727338e-06	3.418972e-09	1.954509e+01	2.262512e+02
2.220000e-06	2.638646e-06	3.383287e-09	1.890949e+01	2.235973e+02
2.230000e-06	2.549135e-06	3.357934e-09	1.826802e+01	2.208423e+02
2.240000e-06	2.458734e-06	3.308673e-09	1.762018e+01	2.179802e+02
2.250000e-06	2.367522e-06	3.257223e-09	1.696652e+01	2.150048e+02
2.260000e-06	2.275610e-06	3.215415e-09	1.630785e+01	2.119091e+02
2.270000e-06	2.183119e-06	3.165903e-09	1.564502e+01	2.086861e+02
2.280000e-06	2.089807e-06	3.113613e-09	1.497632e+01	2.053284e+02
2.290000e-06	1.995484e-06	3.061857e-09	1.430036e+01	2.018280e+02
2.300000e-06	1.900242e-06	3.007828e-09	1.361783e+01	1.981764e+02
2.310000e-06	1.804233e-06	2.945429e-09	1.292979e+01	1.943644e+02
2.320000e-06	1.707693e-06	2.887981e-09	1.223794e+01	1.903816e+02
2.330000e-06	1.610695e-06	2.832233e-09	1.154282e+01	1.862163e+02
2.340000e-06	1.513199e-06	2.766026e-09	1.084413e+01	1.818555e+02
2.350000e-06	1.415129e-06	2.690591e-09	1.014133e+01	1.772838e+02
2.360000e-06	1.316590e-06	2.619599e-09	9.435164e+00	1.724843e+02
2.370000e-06	1.217658e-06	2.547732e-09	8.726181e+00	1.674375e+02
2.380000e-06	1.118261e-06	2.464741e-09	8.013863e+00	1.621216e+02
2.390000e-06	1.018525e-06	2.378001e-09	7.299121e+00	1.565123e+02
2.400000e-06	9.186058e-07	2.287735e-09	6.583062e+00	1.505832e+02
2.410000e-06	8.184750e-07	2.191118e-09	5.865489e+00	1.443053e+02
2.420000e-06	7.181115e-07	2.089768e-09	5.146247e+00	1.376480e+02
2.430000e-06	6.175379e-07	1.986311e-09	4.425500e+00	1.305797e+02
2.440000e-06	5.167085e-07	1.874022e-09	3.702921e+00	1.230680e+02
2.450000e-06	4.156916e-07	1.747770e-09	2.978997e+00	1.150817e+02
2.460000e-06	3.145584e-07	1.615412e-09	2.254239e+00	1.065916e+02
2.470000e-06	2.133591e-07	1.482586e-09	1.529009e+00	9.757272e+01
2.480000e-06	1.120939e-07	1.340946e-09	8.033053e-01	8.800598e+01
2.490000e-06	1.072157e-08	1.184071e-09	7.683468e-02	7.788062e+01
2.500000e-06	-9.066890e-08	1.017753e-09	-6.497662e-01	6.719629e+01
2.510000e-06	-1.919285e-07	8.472878e-10	-1.375430e+00	5.596517e+01
2.520000e-06	-2.930303e-07	6.717876e-10	-2.099961e+00	4.421369e+01
2.530000e-06	-3.940281e-07	4.868874e-10	-2.823748e+00	3.198377e+01
2.540000e-06	-4.948877e-07	2.912077e-10	-3.546545e+00	1.933336e+01
2.550000e-06	-5.955759e-07	9.022664e-11	-4.268113e+00	6.336109e+00
2.560000e-06	-6.960665e-07	-1.093117e-10	-4.988265e+00	-6.919928e+00
2.570000e-06	-7.963820e-07	-3.087025e-10	-5.707162e+00	-2.033452e+01
2.580000e-06	-8.964714e-07	-5.127884e-10	-6.424439e+00	-3.379843e+01
2.590000e-06	-9.962617e-07	-7.226019e-10	-7.139573e+00	-4.719732e+01
2.600000e-06	-1.095725e-06	-9.292990e-10	-7.852363e+00	-6.041622e+01
2.610000e-06	-1.194816e-06	-1.123450e-09	-8.562484e+00	-7.334422e+01
2.620000e-06	-1.293453e-06	-1.309289e-09	-9.269356e+00	-8.587906e+01
2.630000e-06	-1.391607e-06	-1.495428e-09	-9.972760e+00	-9.793136e+01
2.640000e-06	-1.489273e-06	-1.676679e-09	-1.067267e+01	-1.094280e+02
2.650000e-06	-1.586455e-06	-1.840620e-09	-1.136911e+01	-1.203147e+02
2.660000e-06	-1.683208e-06	-1.990591e-09	-1.206248e+01	-1.305569e+02
2.670000e-06	-1.779547e-06	-2.136301e-09	-1.275288e+01	-1.401404e+02
2.680000e-06	-1.875322e-06	-2.277722e-09	-1.343924e+01	-1.490693e+02
2.690000e-06	-1.970333e-06	-2.408052e-09	-1.412012e+01	-1.573644e+02
2.700000e-06	-2.064435e-06	-2.525012e-09	-1.479449e+01	-1.650596e+02
2.710000e-06	-2.157580e-06	-2.631075e-09	-1.546200e+01	-1.721984e+02
2.720000e-06	-2.249911e-06	-2.732128e-09	-1.612368e+01	-1.788297e+02
2.730000e-06	-2.341533e-06	-2.830414e-09	-1.678028e+01	-1.850043e+02
2.740000e-06	-2.432389e-06	-2.918940e-09	-1.743138e+01	-1.907711e+02
2.750000e-06	-2.522299e-06	-2.997711e-09	-1.807571e+01	-1.961751e+02
2.760000e-06	-2.611295e-06	-3.073954e-09	-1.871349e+01	-2.012548e+02
2.770000e-06	-2.699550e-06	-3.150031e-09	-1.934595e+01	-2.060419e+02
2.780000e-06	-2.786978e-06	-3.222722e-09	-1.997249e+01	-2.105608e+02
2.790000e-06	-2.873302e-06	-3.288329e-09	-2.059112e+01	-2.148296e+02
2.800000e-06	-2.958384e-06	-3.348990e-09	-2.120085e+01	-2.188612e+02
2.810000e-06	-3.042399e-06	-3.408065e-09	-2.180294e+01	-2.226651e+02
2.820000e-06	-3.125452e-06	-3.466196e-09	-2.239812e+01	-2.262487e+02
2.830000e-06	-3.207443e-06	-3.520201e-09	-2.298570e+01	-2.296192e+02
2.840000e-06	-3.288421e-06	-3.566496e-09	-2.356602e+01	-2.327845e+02
2.850000e-06	-3.368377e-06	-3.609106e-09	-2.413901e+01	-2.357543e+02
2.860000e-06	-3.447040e-06	-3.651525e-09	-2.470274e+01	-2.385401e+02
2.870000e-06	-3.524169e-06	-3.692945e-09	-2.525547e+01	-2.411552e+02
2.880000e-06	-3.599804e-06	-3.732229e-09	-2.579750e+01	-2.436140e+02
2.890000e-06	-3.674100e-06	-3.768093e-09	-2.632993e+01	-2.459315e+02
2.900000e-06	-3.747138e-06	-3.800949e-09	-2.685335e+01	-2.481221e+02
2.910000e-06	-3.818877e-06	-3.834513e-09	-2.736746e+01	-2.501989e+02
2.920000e-06	-3.889065e-06	-3.868861e-09	-2.787045e+01	-2.521730e+02
2.930000e-06	-3.957697e-06	-3.898583e-09	-2.836229e+01	-2.540533e+02
2.940000e-06	-4.024996e-06	-3.923539e-09	-2.884458e+01	-2.558461e+02
