# Temperatura_=_20.0
# Concentracion g/m^3_=_9000.0
# C_Vs_to_Am_M_A/Vsm_=_65563218390.804596
# pendiente_HvsI_1/m_=_3716.3
# ordenada_HvsI_A/m_=_1297.0
# frecuencia_Hz_=_300865.07760702615

Tiempo_(s)	Campo_(V.s)	Magnetizacion_(V.s)	Campo_(kA/m)	Magnetizacion_(A/m)
0.000000e+00	-5.332846e-06	-4.285766e-09	-3.830307e+01	-2.810541e+02
1.000000e-08	-5.331279e-06	-4.285407e-09	-3.829181e+01	-2.809756e+02
2.000000e-08	-5.327867e-06	-4.285269e-09	-3.826730e+01	-2.808584e+02
3.000000e-08	-5.322849e-06	-4.284113e-09	-3.823127e+01	-2.807038e+02
4.000000e-08	-5.316226e-06	-4.280623e-09	-3.818369e+01	-2.805143e+02
5.000000e-08	-5.307861e-06	-4.277188e-09	-3.812361e+01	-2.802942e+02
6.000000e-08	-5.297455e-06	-4.275550e-09	-3.804887e+01	-2.800484e+02
7.000000e-08	-5.285101e-06	-4.269157e-09	-3.796014e+01	-2.797827e+02
8.000000e-08	-5.270852e-06	-4.263114e-09	-3.785780e+01	-2.795026e+02
9.000000e-08	-5.254452e-06	-4.268910e-09	-3.774001e+01	-2.792129e+02
1.000000e-07	-5.235965e-06	-4.278157e-09	-3.760722e+01	-2.789170e+02
1.100000e-07	-5.215554e-06	-4.282220e-09	-3.746062e+01	-2.786164e+02
1.200000e-07	-5.193288e-06	-4.264075e-09	-3.730070e+01	-2.783102e+02
1.300000e-07	-5.169360e-06	-4.225797e-09	-3.712883e+01	-2.779949e+02
1.400000e-07	-5.143812e-06	-4.229035e-09	-3.694533e+01	-2.776650e+02
1.500000e-07	-5.116706e-06	-4.233254e-09	-3.675064e+01	-2.773128e+02
1.600000e-07	-5.088094e-06	-4.216011e-09	-3.654514e+01	-2.769296e+02
1.700000e-07	-5.057939e-06	-4.220917e-09	-3.632855e+01	-2.765062e+02
1.800000e-07	-5.025989e-06	-4.182553e-09	-3.609907e+01	-2.760339e+02
1.900000e-07	-4.992001e-06	-4.173939e-09	-3.585496e+01	-2.755053e+02
2.000000e-07	-4.956483e-06	-4.216075e-09	-3.559985e+01	-2.749151e+02
2.100000e-07	-4.919438e-06	-4.179486e-09	-3.533377e+01	-2.742603e+02
2.200000e-07	-4.880515e-06	-4.149373e-09	-3.505421e+01	-2.735410e+02
2.300000e-07	-4.839741e-06	-4.163494e-09	-3.476135e+01	-2.727596e+02
2.400000e-07	-4.797089e-06	-4.148205e-09	-3.445500e+01	-2.719211e+02
2.500000e-07	-4.752694e-06	-4.135924e-09	-3.413613e+01	-2.710320e+02
2.600000e-07	-4.706559e-06	-4.121427e-09	-3.380477e+01	-2.700995e+02
2.700000e-07	-4.658499e-06	-4.091318e-09	-3.345958e+01	-2.691308e+02
2.800000e-07	-4.608429e-06	-4.081593e-09	-3.309995e+01	-2.681323e+02
2.900000e-07	-4.556461e-06	-4.085351e-09	-3.272670e+01	-2.671086e+02
3.000000e-07	-4.502690e-06	-4.062610e-09	-3.234049e+01	-2.660622e+02
3.100000e-07	-4.447355e-06	-4.028509e-09	-3.194305e+01	-2.649933e+02
3.200000e-07	-4.390375e-06	-4.022379e-09	-3.153378e+01	-2.638996e+02
3.300000e-07	-4.331643e-06	-4.018792e-09	-3.111195e+01	-2.627770e+02
3.400000e-07	-4.271492e-06	-3.995082e-09	-3.067991e+01	-2.616199e+02
3.500000e-07	-4.209956e-06	-3.973785e-09	-3.023793e+01	-2.604216e+02
3.600000e-07	-4.146994e-06	-3.945697e-09	-2.978571e+01	-2.591759e+02
3.700000e-07	-4.082468e-06	-3.929456e-09	-2.932225e+01	-2.578768e+02
3.800000e-07	-4.016253e-06	-3.921370e-09	-2.884666e+01	-2.565195e+02
3.900000e-07	-3.948515e-06	-3.889650e-09	-2.836014e+01	-2.551009e+02
4.000000e-07	-3.879363e-06	-3.856908e-09	-2.786345e+01	-2.536192e+02
4.100000e-07	-3.808994e-06	-3.838718e-09	-2.735803e+01	-2.520743e+02
4.200000e-07	-3.737608e-06	-3.826668e-09	-2.684530e+01	-2.504667e+02
4.300000e-07	-3.664820e-06	-3.797370e-09	-2.632250e+01	-2.487979e+02
4.400000e-07	-3.590214e-06	-3.763451e-09	-2.578665e+01	-2.470689e+02
4.500000e-07	-3.514034e-06	-3.734886e-09	-2.523948e+01	-2.452805e+02
4.600000e-07	-3.436580e-06	-3.713471e-09	-2.468317e+01	-2.434320e+02
4.700000e-07	-3.357760e-06	-3.690620e-09	-2.411705e+01	-2.415216e+02
4.800000e-07	-3.277527e-06	-3.651891e-09	-2.354078e+01	-2.395458e+02
4.900000e-07	-3.196036e-06	-3.614418e-09	-2.295547e+01	-2.375001e+02
5.000000e-07	-3.113496e-06	-3.589798e-09	-2.236263e+01	-2.353785e+02
5.100000e-07	-3.030104e-06	-3.564491e-09	-2.176367e+01	-2.331747e+02
5.200000e-07	-2.945848e-06	-3.526430e-09	-2.115850e+01	-2.308821e+02
5.300000e-07	-2.860537e-06	-3.485614e-09	-2.054575e+01	-2.284947e+02
5.400000e-07	-2.774196e-06	-3.447408e-09	-1.992561e+01	-2.260071e+02
5.500000e-07	-2.687146e-06	-3.413296e-09	-1.930037e+01	-2.234149e+02
5.600000e-07	-2.599318e-06	-3.374415e-09	-1.866955e+01	-2.207149e+02
5.700000e-07	-2.510174e-06	-3.323911e-09	-1.802928e+01	-2.179046e+02
5.800000e-07	-2.419722e-06	-3.272395e-09	-1.737960e+01	-2.149820e+02
5.900000e-07	-2.328508e-06	-3.229005e-09	-1.672447e+01	-2.119455e+02
6.000000e-07	-2.236700e-06	-3.185339e-09	-1.606505e+01	-2.087923e+02
6.100000e-07	-2.144215e-06	-3.133196e-09	-1.540078e+01	-2.055191e+02
6.200000e-07	-2.050959e-06	-3.077273e-09	-1.473097e+01	-2.021206e+02
6.300000e-07	-1.956905e-06	-3.022772e-09	-1.405543e+01	-1.985897e+02
6.400000e-07	-1.862237e-06	-2.972616e-09	-1.337548e+01	-1.949169e+02
6.500000e-07	-1.767098e-06	-2.917573e-09	-1.269215e+01	-1.910908e+02
6.600000e-07	-1.671418e-06	-2.852862e-09	-1.200493e+01	-1.870976e+02
6.700000e-07	-1.574915e-06	-2.783682e-09	-1.131180e+01	-1.829219e+02
6.800000e-07	-1.477552e-06	-2.714759e-09	-1.061249e+01	-1.785467e+02
6.900000e-07	-1.379487e-06	-2.644289e-09	-9.908136e+00	-1.739536e+02
7.000000e-07	-1.280842e-06	-2.568371e-09	-9.199622e+00	-1.691233e+02
7.100000e-07	-1.181789e-06	-2.489205e-09	-8.488179e+00	-1.640352e+02
7.200000e-07	-1.082440e-06	-2.407650e-09	-7.774606e+00	-1.586678e+02
7.300000e-07	-9.828550e-07	-2.323009e-09	-7.059338e+00	-1.529980e+02
7.400000e-07	-8.830541e-07	-2.232822e-09	-6.342519e+00	-1.470014e+02
7.500000e-07	-7.829885e-07	-2.136375e-09	-5.623800e+00	-1.406517e+02
7.600000e-07	-6.826056e-07	-2.032620e-09	-4.902802e+00	-1.339209e+02
7.700000e-07	-5.819104e-07	-1.922770e-09	-4.179560e+00	-1.267794e+02
7.800000e-07	-4.809395e-07	-1.807417e-09	-3.454339e+00	-1.191968e+02
7.900000e-07	-3.797960e-07	-1.683311e-09	-2.727877e+00	-1.111426e+02
8.000000e-07	-2.785653e-07	-1.550876e-09	-2.000790e+00	-1.025882e+02
8.100000e-07	-1.772491e-07	-1.412227e-09	-1.273088e+00	-9.350871e+01
8.200000e-07	-7.585493e-08	-1.265761e-09	-5.448266e-01	-8.388509e+01
8.300000e-07	2.559008e-08	-1.109032e-09	1.838003e-01	-7.370690e+01
8.400000e-07	1.270413e-07	-9.456334e-10	9.124716e-01	-6.297478e+01
8.500000e-07	2.284219e-07	-7.764683e-10	1.640636e+00	-5.170270e+01
8.600000e-07	3.297208e-07	-5.980975e-10	2.368213e+00	-3.991984e+01
8.700000e-07	4.309258e-07	-4.104645e-10	3.095117e+00	-2.767164e+01
8.800000e-07	5.319515e-07	-2.173816e-10	3.820732e+00	-1.502014e+01
8.900000e-07	6.327609e-07	-2.060956e-11	4.544793e+00	-2.043156e+00
9.000000e-07	7.333525e-07	1.813031e-10	5.267291e+00	1.116748e+01
9.100000e-07	8.336782e-07	3.865296e-10	5.987878e+00	2.450867e+01
9.200000e-07	9.336794e-07	5.904708e-10	6.706135e+00	3.786969e+01
9.300000e-07	1.033389e-06	7.893183e-10	7.422294e+00	5.113644e+01
9.400000e-07	1.132845e-06	9.859574e-10	8.136639e+00	6.419602e+01
9.500000e-07	1.232036e-06	1.181073e-09	8.849078e+00	7.694135e+01
9.600000e-07	1.330826e-06	1.370473e-09	9.558630e+00	8.927556e+01
9.700000e-07	1.429067e-06	1.551152e-09	1.026425e+01	1.011156e+02
9.800000e-07	1.526674e-06	1.722260e-09	1.096531e+01	1.123953e+02
9.900000e-07	1.623513e-06	1.885657e-09	1.166085e+01	1.230670e+02
1.000000e-06	1.719613e-06	2.041241e-09	1.235108e+01	1.331023e+02
1.010000e-06	1.815137e-06	2.186926e-09	1.303719e+01	1.424917e+02
1.020000e-06	1.910058e-06	2.319437e-09	1.371895e+01	1.512427e+02
1.030000e-06	2.004271e-06	2.440016e-09	1.439564e+01	1.593777e+02
1.040000e-06	2.097790e-06	2.552498e-09	1.506733e+01	1.669311e+02
1.050000e-06	2.190600e-06	2.659642e-09	1.573394e+01	1.739451e+02
1.060000e-06	2.282703e-06	2.760387e-09	1.639547e+01	1.804669e+02
1.070000e-06	2.374154e-06	2.851832e-09	1.705232e+01	1.865446e+02
1.080000e-06	2.464859e-06	2.935532e-09	1.770381e+01	1.922250e+02
1.090000e-06	2.554550e-06	3.016926e-09	1.834801e+01	1.975506e+02
1.100000e-06	2.643111e-06	3.096293e-09	1.898410e+01	2.025586e+02
1.110000e-06	2.730691e-06	3.169299e-09	1.961314e+01	2.072793e+02
1.120000e-06	2.817394e-06	3.235430e-09	2.023588e+01	2.117367e+02
1.130000e-06	2.903165e-06	3.297745e-09	2.085193e+01	2.159488e+02
1.140000e-06	2.987907e-06	3.358241e-09	2.146058e+01	2.199285e+02
1.150000e-06	3.071709e-06	3.416189e-09	2.206250e+01	2.236850e+02
1.160000e-06	3.154662e-06	3.469385e-09	2.265830e+01	2.272253e+02
1.170000e-06	3.236477e-06	3.516294e-09	2.324593e+01	2.305557e+02
1.180000e-06	3.316976e-06	3.560961e-09	2.382412e+01	2.336829e+02
1.190000e-06	3.396262e-06	3.605664e-09	2.439359e+01	2.366149e+02
1.200000e-06	3.474345e-06	3.647349e-09	2.495442e+01	2.393615e+02
1.210000e-06	3.551194e-06	3.683699e-09	2.550638e+01	2.419344e+02
1.220000e-06	3.626784e-06	3.718668e-09	2.604931e+01	2.443471e+02
1.230000e-06	3.700974e-06	3.753435e-09	2.658218e+01	2.466141e+02
1.240000e-06	3.773597e-06	3.785074e-09	2.710379e+01	2.487504e+02
1.250000e-06	3.844741e-06	3.815350e-09	2.761478e+01	2.507706e+02
1.260000e-06	3.914568e-06	3.843207e-09	2.811631e+01	2.526878e+02
1.270000e-06	3.983093e-06	3.869388e-09	2.860849e+01	2.545136e+02
1.280000e-06	4.050303e-06	3.895854e-09	2.909123e+01	2.562570e+02
1.290000e-06	4.115999e-06	3.921806e-09	2.956308e+01	2.579246e+02
1.300000e-06	4.180082e-06	3.946026e-09	3.002336e+01	2.595206e+02
1.310000e-06	4.242683e-06	3.969320e-09	3.047299e+01	2.610470e+02
1.320000e-06	4.303877e-06	3.990996e-09	3.091252e+01	2.625041e+02
1.330000e-06	4.363763e-06	4.010103e-09	3.134265e+01	2.638915e+02
1.340000e-06	4.422230e-06	4.029427e-09	3.176258e+01	2.652081e+02
1.350000e-06	4.478999e-06	4.048673e-09	3.217033e+01	2.664534e+02
1.360000e-06	4.534066e-06	4.066977e-09	3.256584e+01	2.676276e+02
1.370000e-06	4.587526e-06	4.084082e-09	3.294982e+01	2.687320e+02
1.380000e-06	4.639241e-06	4.100205e-09	3.332126e+01	2.697692e+02
1.390000e-06	4.688925e-06	4.115752e-09	3.367812e+01	2.707430e+02
1.400000e-06	4.736606e-06	4.131686e-09	3.402058e+01	2.716582e+02
1.410000e-06	4.782592e-06	4.145856e-09	3.435088e+01	2.725200e+02
1.420000e-06	4.827005e-06	4.157273e-09	3.466987e+01	2.733341e+02
1.430000e-06	4.869782e-06	4.169073e-09	3.497712e+01	2.741054e+02
1.440000e-06	4.910679e-06	4.181243e-09	3.527086e+01	2.748382e+02
1.450000e-06	4.949736e-06	4.191534e-09	3.555139e+01	2.755357e+02
1.460000e-06	4.987190e-06	4.200817e-09	3.582040e+01	2.761998e+02
1.470000e-06	5.023114e-06	4.210624e-09	3.607842e+01	2.768313e+02
1.480000e-06	5.057301e-06	4.220918e-09	3.632397e+01	2.774298e+02
1.490000e-06	5.089520e-06	4.230646e-09	3.655538e+01	2.779939e+02
1.500000e-06	5.119969e-06	4.239023e-09	3.677408e+01	2.785220e+02
1.510000e-06	5.148737e-06	4.245590e-09	3.698071e+01	2.790124e+02
1.520000e-06	5.175777e-06	4.251971e-09	3.717492e+01	2.794638e+02
1.530000e-06	5.200851e-06	4.260500e-09	3.735501e+01	2.798753e+02
1.540000e-06	5.223880e-06	4.267605e-09	3.752042e+01	2.802470e+02
1.550000e-06	5.245159e-06	4.271823e-09	3.767325e+01	2.805798e+02
1.560000e-06	5.264808e-06	4.276001e-09	3.781438e+01	2.808750e+02
1.570000e-06	5.282655e-06	4.282273e-09	3.794257e+01	2.811348e+02
1.580000e-06	5.298505e-06	4.288186e-09	3.805641e+01	2.813611e+02
1.590000e-06	5.312415e-06	4.291355e-09	3.815632e+01	2.815558e+02
1.600000e-06	5.324424e-06	4.292678e-09	3.824258e+01	2.817202e+02
1.610000e-06	5.334258e-06	4.294586e-09	3.831321e+01	2.818550e+02
1.620000e-06	5.341947e-06	4.297771e-09	3.836843e+01	2.819596e+02
1.630000e-06	5.347807e-06	4.298990e-09	3.841053e+01	2.820330e+02
1.640000e-06	5.351967e-06	4.297853e-09	3.844040e+01	2.820733e+02
1.650000e-06	5.354334e-06	4.298702e-09	3.845740e+01	2.820785e+02
1.660000e-06	5.354695e-06	4.300883e-09	3.846000e+01	2.820466e+02
1.670000e-06	5.353190e-06	4.300788e-09	3.844918e+01	2.819763e+02
1.680000e-06	5.350045e-06	4.299044e-09	3.842660e+01	2.818672e+02
1.690000e-06	5.345270e-06	4.297371e-09	3.839230e+01	2.817202e+02
1.700000e-06	5.338642e-06	4.295050e-09	3.834470e+01	2.815378e+02
1.710000e-06	5.330194e-06	4.291799e-09	3.828402e+01	2.813236e+02
1.720000e-06	5.320187e-06	4.288684e-09	3.821214e+01	2.810827e+02
1.730000e-06	5.308531e-06	4.287560e-09	3.812843e+01	2.808206e+02
1.740000e-06	5.295045e-06	4.272824e-09	3.803156e+01	2.805429e+02
1.750000e-06	5.279418e-06	4.254511e-09	3.791932e+01	2.802548e+02
1.760000e-06	5.261325e-06	4.235750e-09	3.778937e+01	2.799599e+02
1.770000e-06	5.240665e-06	4.231603e-09	3.764098e+01	2.796601e+02
1.780000e-06	5.217719e-06	4.269468e-09	3.747617e+01	2.793551e+02
1.790000e-06	5.193450e-06	4.267048e-09	3.730186e+01	2.790420e+02
1.800000e-06	5.168468e-06	4.235071e-09	3.712243e+01	2.787157e+02
1.810000e-06	5.142052e-06	4.250861e-09	3.693269e+01	2.783688e+02
1.820000e-06	5.113646e-06	4.228701e-09	3.672867e+01	2.779928e+02
1.830000e-06	5.083647e-06	4.251255e-09	3.651320e+01	2.775787e+02
1.840000e-06	5.051833e-06	4.275563e-09	3.628470e+01	2.771173e+02
1.850000e-06	5.017790e-06	4.196851e-09	3.604018e+01	2.766012e+02
1.860000e-06	4.982043e-06	4.199351e-09	3.578343e+01	2.760242e+02
1.870000e-06	4.944747e-06	4.227506e-09	3.551556e+01	2.753832e+02
1.880000e-06	4.905563e-06	4.187203e-09	3.523412e+01	2.746774e+02
1.890000e-06	4.864544e-06	4.184242e-09	3.493949e+01	2.739089e+02
1.900000e-06	4.821701e-06	4.165687e-09	3.463178e+01	2.730819e+02
1.910000e-06	4.777399e-06	4.140257e-09	3.431358e+01	2.722029e+02
1.920000e-06	4.731601e-06	4.155818e-09	3.398464e+01	2.712789e+02
1.930000e-06	4.683811e-06	4.118963e-09	3.364139e+01	2.703172e+02
1.940000e-06	4.634287e-06	4.100210e-09	3.328568e+01	2.693244e+02
1.950000e-06	4.583175e-06	4.094355e-09	3.291857e+01	2.683056e+02
1.960000e-06	4.530313e-06	4.078027e-09	3.253889e+01	2.672639e+02
1.970000e-06	4.475437e-06	4.068144e-09	3.214475e+01	2.661997e+02
1.980000e-06	4.418769e-06	4.035834e-09	3.173773e+01	2.651115e+02
1.990000e-06	4.360619e-06	4.025566e-09	3.132007e+01	2.639954e+02
2.000000e-06	4.300962e-06	4.008597e-09	3.089158e+01	2.628459e+02
2.010000e-06	4.240057e-06	3.995894e-09	3.045413e+01	2.616569e+02
2.020000e-06	4.177563e-06	3.980256e-09	3.000527e+01	2.604217e+02
2.030000e-06	4.113205e-06	3.934956e-09	2.954302e+01	2.591343e+02
2.040000e-06	4.047332e-06	3.932754e-09	2.906988e+01	2.577896e+02
2.050000e-06	3.980126e-06	3.925071e-09	2.858718e+01	2.563842e+02
2.060000e-06	3.911691e-06	3.892084e-09	2.809565e+01	2.549159e+02
2.070000e-06	3.841614e-06	3.860879e-09	2.759232e+01	2.533843e+02
2.080000e-06	3.769841e-06	3.832484e-09	2.707681e+01	2.517899e+02
2.090000e-06	3.696847e-06	3.823685e-09	2.655254e+01	2.501339e+02
2.100000e-06	3.622641e-06	3.794898e-09	2.601955e+01	2.484176e+02
2.110000e-06	3.547111e-06	3.760289e-09	2.547706e+01	2.466417e+02
2.120000e-06	3.470111e-06	3.727766e-09	2.492401e+01	2.448060e+02
2.130000e-06	3.391543e-06	3.701734e-09	2.435969e+01	2.429089e+02
2.140000e-06	3.311580e-06	3.683414e-09	2.378536e+01	2.409474e+02
2.150000e-06	3.230505e-06	3.648302e-09	2.320304e+01	2.389169e+02
2.160000e-06	3.148378e-06	3.612990e-09	2.261317e+01	2.368119e+02
2.170000e-06	3.065137e-06	3.571993e-09	2.201529e+01	2.346261e+02
2.180000e-06	2.981003e-06	3.538566e-09	2.141100e+01	2.323529e+02
2.190000e-06	2.895970e-06	3.510755e-09	2.080025e+01	2.299861e+02
2.200000e-06	2.809650e-06	3.468951e-09	2.018026e+01	2.275202e+02
2.210000e-06	2.722020e-06	3.422107e-09	1.955086e+01	2.249506e+02
2.220000e-06	2.633456e-06	3.381723e-09	1.891475e+01	2.222737e+02
2.230000e-06	2.544096e-06	3.349583e-09	1.827292e+01	2.194870e+02
2.240000e-06	2.453888e-06	3.306418e-09	1.762501e+01	2.165885e+02
2.250000e-06	2.362846e-06	3.257478e-09	1.697110e+01	2.135764e+02
2.260000e-06	2.271056e-06	3.208534e-09	1.631182e+01	2.104483e+02
2.270000e-06	2.178716e-06	3.161390e-09	1.564859e+01	2.072011e+02
2.280000e-06	2.085728e-06	3.115340e-09	1.498070e+01	2.038298e+02
2.290000e-06	1.991758e-06	3.062648e-09	1.430576e+01	2.003277e+02
2.300000e-06	1.896809e-06	3.003024e-09	1.362379e+01	1.966861e+02
2.310000e-06	1.801066e-06	2.941059e-09	1.293612e+01	1.928937e+02
2.320000e-06	1.704724e-06	2.884877e-09	1.224415e+01	1.889374e+02
2.330000e-06	1.607946e-06	2.827633e-09	1.154904e+01	1.848020e+02
2.340000e-06	1.510683e-06	2.761698e-09	1.085045e+01	1.804709e+02
2.350000e-06	1.412850e-06	2.688832e-09	1.014777e+01	1.759260e+02
2.360000e-06	1.314557e-06	2.616848e-09	9.441783e+00	1.711480e+02
2.370000e-06	1.215867e-06	2.543852e-09	8.732943e+00	1.661167e+02
2.380000e-06	1.116694e-06	2.464124e-09	8.020633e+00	1.608109e+02
2.390000e-06	1.017136e-06	2.377128e-09	7.305561e+00	1.552077e+02
2.400000e-06	9.173282e-07	2.284129e-09	6.588693e+00	1.492831e+02
2.410000e-06	8.173067e-07	2.189110e-09	5.870290e+00	1.430112e+02
2.420000e-06	7.170970e-07	2.091643e-09	5.150536e+00	1.363643e+02
2.430000e-06	6.167228e-07	1.987712e-09	4.429600e+00	1.293132e+02
2.440000e-06	5.161747e-07	1.873822e-09	3.707415e+00	1.218275e+02
2.450000e-06	4.154515e-07	1.750188e-09	2.983972e+00	1.138767e+02
2.460000e-06	3.146094e-07	1.619297e-09	2.259676e+00	1.054316e+02
2.470000e-06	2.136774e-07	1.484940e-09	1.534734e+00	9.646629e+01
2.480000e-06	1.126224e-07	1.343066e-09	8.089082e-01	8.696030e+01
2.490000e-06	1.148251e-08	1.186827e-09	8.247294e-02	7.690113e+01
2.500000e-06	-8.955626e-08	1.020227e-09	-6.432362e-01	6.628685e+01
2.510000e-06	-1.904998e-07	8.502830e-10	-1.368261e+00	5.512839e+01
2.520000e-06	-2.913863e-07	6.760732e-10	-2.092877e+00	4.345154e+01
2.530000e-06	-3.921551e-07	4.920670e-10	-2.816647e+00	3.129822e+01
2.540000e-06	-4.928292e-07	2.977121e-10	-3.539736e+00	1.872694e+01
2.550000e-06	-5.933301e-07	9.833852e-11	-4.261582e+00	5.812234e+00
2.560000e-06	-6.936342e-07	-1.018146e-10	-4.982015e+00	-7.356851e+00
2.570000e-06	-7.937340e-07	-3.023422e-10	-5.700979e+00	-2.067936e+01
2.580000e-06	-8.935391e-07	-5.051406e-10	-6.417828e+00	-3.404587e+01
2.590000e-06	-9.930369e-07	-7.121730e-10	-7.132469e+00	-4.734261e+01
2.600000e-06	-1.092260e-06	-9.174724e-10	-7.845135e+00	-6.045603e+01
2.610000e-06	-1.191191e-06	-1.111768e-09	-8.555708e+00	-7.327745e+01
2.620000e-06	-1.289701e-06	-1.296855e-09	-9.263254e+00	-8.570744e+01
2.630000e-06	-1.387756e-06	-1.479299e-09	-9.967532e+00	-9.765975e+01
2.640000e-06	-1.485345e-06	-1.657638e-09	-1.066846e+01	-1.090644e+02
2.650000e-06	-1.582452e-06	-1.823393e-09	-1.136593e+01	-1.198696e+02
2.660000e-06	-1.679132e-06	-1.974755e-09	-1.206033e+01	-1.300429e+02
2.670000e-06	-1.775384e-06	-2.118004e-09	-1.275166e+01	-1.395707e+02
2.680000e-06	-1.871062e-06	-2.256212e-09	-1.343887e+01	-1.484572e+02
2.690000e-06	-1.965822e-06	-2.385483e-09	-1.411948e+01	-1.567219e+02
2.700000e-06	-2.059568e-06	-2.501895e-09	-1.479281e+01	-1.643968e+02
2.710000e-06	-2.152492e-06	-2.607383e-09	-1.546023e+01	-1.715227e+02
2.720000e-06	-2.244693e-06	-2.707461e-09	-1.612246e+01	-1.781460e+02
2.730000e-06	-2.336157e-06	-2.804380e-09	-1.677941e+01	-1.843150e+02
2.740000e-06	-2.426770e-06	-2.893938e-09	-1.743023e+01	-1.900770e+02
2.750000e-06	-2.516474e-06	-2.975402e-09	-1.807453e+01	-1.954755e+02
2.760000e-06	-2.605376e-06	-3.052723e-09	-1.871306e+01	-2.005489e+02
2.770000e-06	-2.693536e-06	-3.126779e-09	-1.934627e+01	-2.053291e+02
2.780000e-06	-2.780775e-06	-3.197184e-09	-1.997286e+01	-2.098414e+02
2.790000e-06	-2.866787e-06	-3.263029e-09	-2.059065e+01	-2.141051e+02
2.800000e-06	-2.951631e-06	-3.323633e-09	-2.120004e+01	-2.181338e+02
2.810000e-06	-3.035501e-06	-3.381342e-09	-2.180243e+01	-2.219377e+02
2.820000e-06	-3.118420e-06	-3.436852e-09	-2.239799e+01	-2.255239e+02
2.830000e-06	-3.200317e-06	-3.490788e-09	-2.298622e+01	-2.288990e+02
2.840000e-06	-3.281155e-06	-3.542667e-09	-2.356683e+01	-2.320693e+02
2.850000e-06	-3.360920e-06	-3.589682e-09	-2.413974e+01	-2.350425e+02
2.860000e-06	-3.439381e-06	-3.631624e-09	-2.470329e+01	-2.378281e+02
2.870000e-06	-3.516334e-06	-3.671492e-09	-2.525600e+01	-2.404373e+02
2.880000e-06	-3.591812e-06	-3.711617e-09	-2.579812e+01	-2.428833e+02
2.890000e-06	-3.665896e-06	-3.749084e-09	-2.633023e+01	-2.451804e+02
2.900000e-06	-3.738738e-06	-3.780740e-09	-2.685342e+01	-2.473437e+02
2.910000e-06	-3.810327e-06	-3.810467e-09	-2.736760e+01	-2.493877e+02
2.920000e-06	-3.880371e-06	-3.842683e-09	-2.787069e+01	-2.513262e+02
2.930000e-06	-3.948929e-06	-3.875027e-09	-2.836311e+01	-2.531709e+02
2.940000e-06	-4.016157e-06	-3.903323e-09	-2.884598e+01	-2.549315e+02
