# Temperatura_=_20.0
# Concentracion g/m^3_=_9000.0
# C_Vs_to_Am_M_A/Vsm_=_65563218390.804596
# pendiente_HvsI_1/m_=_3716.3
# ordenada_HvsI_A/m_=_1297.0
# frecuencia_Hz_=_300874.3309733453

Tiempo_(s)	Campo_(V.s)	Magnetizacion_(V.s)	Campo_(kA/m)	Magnetizacion_(A/m)
0.000000e+00	-5.356610e-06	-4.290385e-09	-3.829615e+01	-2.812565e+02
1.000000e-08	-5.355187e-06	-4.290939e-09	-3.828597e+01	-2.811809e+02
2.000000e-08	-5.351884e-06	-4.290435e-09	-3.826236e+01	-2.810770e+02
3.000000e-08	-5.346897e-06	-4.288888e-09	-3.822670e+01	-2.809450e+02
4.000000e-08	-5.340307e-06	-4.285400e-09	-3.817959e+01	-2.807846e+02
5.000000e-08	-5.332075e-06	-4.280576e-09	-3.812074e+01	-2.805945e+02
6.000000e-08	-5.321827e-06	-4.278881e-09	-3.804747e+01	-2.803732e+02
7.000000e-08	-5.309547e-06	-4.273437e-09	-3.795967e+01	-2.801188e+02
8.000000e-08	-5.295379e-06	-4.268925e-09	-3.785838e+01	-2.798295e+02
9.000000e-08	-5.279051e-06	-4.288972e-09	-3.774165e+01	-2.795044e+02
1.000000e-07	-5.260590e-06	-4.301078e-09	-3.760967e+01	-2.791430e+02
1.100000e-07	-5.240205e-06	-4.290720e-09	-3.746392e+01	-2.787462e+02
1.200000e-07	-5.217930e-06	-4.268800e-09	-3.730468e+01	-2.783162e+02
1.300000e-07	-5.193963e-06	-4.219924e-09	-3.713332e+01	-2.778562e+02
1.400000e-07	-5.168384e-06	-4.216122e-09	-3.695045e+01	-2.773706e+02
1.500000e-07	-5.141205e-06	-4.265731e-09	-3.675615e+01	-2.768642e+02
1.600000e-07	-5.112516e-06	-4.232122e-09	-3.655104e+01	-2.763416e+02
1.700000e-07	-5.082335e-06	-4.208949e-09	-3.633527e+01	-2.758072e+02
1.800000e-07	-5.050344e-06	-4.207218e-09	-3.610655e+01	-2.752638e+02
1.900000e-07	-5.016280e-06	-4.183551e-09	-3.586302e+01	-2.747128e+02
2.000000e-07	-4.980707e-06	-4.229956e-09	-3.560869e+01	-2.741533e+02
2.100000e-07	-4.943596e-06	-4.208846e-09	-3.534337e+01	-2.735824e+02
2.200000e-07	-4.904567e-06	-4.141524e-09	-3.506434e+01	-2.729949e+02
2.300000e-07	-4.863677e-06	-4.166280e-09	-3.477200e+01	-2.723843e+02
2.400000e-07	-4.820946e-06	-4.181201e-09	-3.446651e+01	-2.717425e+02
2.500000e-07	-4.776495e-06	-4.158189e-09	-3.414871e+01	-2.710615e+02
2.600000e-07	-4.730242e-06	-4.134171e-09	-3.381804e+01	-2.703332e+02
2.700000e-07	-4.681914e-06	-4.089913e-09	-3.347252e+01	-2.695509e+02
2.800000e-07	-4.631545e-06	-4.100035e-09	-3.311242e+01	-2.687094e+02
2.900000e-07	-4.579418e-06	-4.114930e-09	-3.273975e+01	-2.678057e+02
3.000000e-07	-4.525615e-06	-4.078383e-09	-3.235509e+01	-2.668389e+02
3.100000e-07	-4.470180e-06	-4.043782e-09	-3.195876e+01	-2.658102e+02
3.200000e-07	-4.413057e-06	-4.043547e-09	-3.155037e+01	-2.647227e+02
3.300000e-07	-4.354198e-06	-4.045034e-09	-3.112958e+01	-2.635806e+02
3.400000e-07	-4.293837e-06	-4.014799e-09	-3.069803e+01	-2.623886e+02
3.500000e-07	-4.232116e-06	-3.994418e-09	-3.025677e+01	-2.611510e+02
3.600000e-07	-4.168936e-06	-3.959797e-09	-2.980508e+01	-2.598713e+02
3.700000e-07	-4.104124e-06	-3.945621e-09	-2.934172e+01	-2.585516e+02
3.800000e-07	-4.037722e-06	-3.954723e-09	-2.886699e+01	-2.571920e+02
3.900000e-07	-3.969824e-06	-3.914169e-09	-2.838156e+01	-2.557907e+02
4.000000e-07	-3.900480e-06	-3.868931e-09	-2.788580e+01	-2.543442e+02
4.100000e-07	-3.829896e-06	-3.861854e-09	-2.738117e+01	-2.528475e+02
4.200000e-07	-3.758199e-06	-3.859258e-09	-2.686858e+01	-2.512946e+02
4.300000e-07	-3.685016e-06	-3.821002e-09	-2.634538e+01	-2.496791e+02
4.400000e-07	-3.610046e-06	-3.775265e-09	-2.580939e+01	-2.479949e+02
4.500000e-07	-3.533577e-06	-3.754959e-09	-2.526269e+01	-2.462366e+02
4.600000e-07	-3.455825e-06	-3.738602e-09	-2.470681e+01	-2.443999e+02
4.700000e-07	-3.376696e-06	-3.709310e-09	-2.414110e+01	-2.424819e+02
4.800000e-07	-3.296191e-06	-3.673600e-09	-2.356554e+01	-2.404810e+02
4.900000e-07	-3.214424e-06	-3.637065e-09	-2.298096e+01	-2.383967e+02
5.000000e-07	-3.131593e-06	-3.608760e-09	-2.238877e+01	-2.362296e+02
5.100000e-07	-3.047934e-06	-3.585504e-09	-2.179067e+01	-2.339803e+02
5.200000e-07	-2.963421e-06	-3.552165e-09	-2.118646e+01	-2.316496e+02
5.300000e-07	-2.877883e-06	-3.501637e-09	-2.057492e+01	-2.292377e+02
5.400000e-07	-2.791335e-06	-3.455736e-09	-1.995616e+01	-2.267437e+02
5.500000e-07	-2.703986e-06	-3.428968e-09	-1.933167e+01	-2.241657e+02
5.600000e-07	-2.615756e-06	-3.394010e-09	-1.870089e+01	-2.215001e+02
5.700000e-07	-2.526304e-06	-3.339892e-09	-1.806137e+01	-2.187421e+02
5.800000e-07	-2.435672e-06	-3.286134e-09	-1.741341e+01	-2.158854e+02
5.900000e-07	-2.344199e-06	-3.247267e-09	-1.675944e+01	-2.129226e+02
6.000000e-07	-2.252032e-06	-3.205630e-09	-1.610051e+01	-2.098452e+02
6.100000e-07	-2.159149e-06	-3.153142e-09	-1.543646e+01	-2.066440e+02
6.200000e-07	-2.065463e-06	-3.097991e-09	-1.476666e+01	-2.033094e+02
6.300000e-07	-1.970971e-06	-3.042923e-09	-1.409111e+01	-1.998310e+02
6.400000e-07	-1.875899e-06	-2.989796e-09	-1.341141e+01	-1.961981e+02
6.500000e-07	-1.780380e-06	-2.934609e-09	-1.272852e+01	-1.923998e+02
6.600000e-07	-1.684237e-06	-2.874006e-09	-1.204115e+01	-1.884242e+02
6.700000e-07	-1.587138e-06	-2.805848e-09	-1.134696e+01	-1.842587e+02
6.800000e-07	-1.489129e-06	-2.736051e-09	-1.064626e+01	-1.798897e+02
6.900000e-07	-1.390549e-06	-2.667254e-09	-9.941486e+00	-1.753021e+02
7.000000e-07	-1.291572e-06	-2.594950e-09	-9.233868e+00	-1.704790e+02
7.100000e-07	-1.192238e-06	-2.514436e-09	-8.523698e+00	-1.654016e+02
7.200000e-07	-1.092572e-06	-2.429184e-09	-7.811155e+00	-1.600492e+02
7.300000e-07	-9.926242e-07	-2.343592e-09	-7.096592e+00	-1.543982e+02
7.400000e-07	-8.923787e-07	-2.251882e-09	-6.379905e+00	-1.484233e+02
7.500000e-07	-7.918084e-07	-2.152471e-09	-5.660895e+00	-1.420966e+02
7.600000e-07	-6.908892e-07	-2.048854e-09	-4.939391e+00	-1.353888e+02
7.700000e-07	-5.896703e-07	-1.941444e-09	-4.215745e+00	-1.282692e+02
7.800000e-07	-4.882822e-07	-1.824813e-09	-3.490888e+00	-1.207069e+02
7.900000e-07	-3.867068e-07	-1.701090e-09	-2.764692e+00	-1.126718e+02
8.000000e-07	-2.849544e-07	-1.573566e-09	-2.037232e+00	-1.041365e+02
8.100000e-07	-1.830809e-07	-1.437151e-09	-1.308904e+00	-9.507738e+01
8.200000e-07	-8.114789e-08	-1.285384e-09	-5.801526e-01	-8.547714e+01
8.300000e-07	2.075720e-08	-1.124528e-09	1.483999e-01	-7.532662e+01
8.400000e-07	1.226594e-07	-9.616346e-10	8.769317e-01	-6.462704e+01
8.500000e-07	2.244802e-07	-7.916124e-10	1.604882e+00	-5.339184e+01
8.600000e-07	3.261812e-07	-6.121454e-10	2.331975e+00	-4.164837e+01
8.700000e-07	4.277767e-07	-4.245093e-10	3.058315e+00	-2.943900e+01
8.800000e-07	5.292037e-07	-2.318652e-10	3.783449e+00	-1.682154e+01
8.900000e-07	6.305196e-07	-3.471352e-11	4.507789e+00	-3.868870e+00
9.000000e-07	7.316444e-07	1.657994e-10	5.230763e+00	9.332322e+00
9.100000e-07	8.324398e-07	3.708694e-10	5.951382e+00	2.268369e+01
9.200000e-07	9.328958e-07	5.793056e-10	6.669575e+00	3.607827e+01
9.300000e-07	1.032992e-06	7.817686e-10	7.385195e+00	4.940419e+01
9.400000e-07	1.132750e-06	9.789242e-10	8.098395e+00	6.254891e+01
9.500000e-07	1.232227e-06	1.176389e-09	8.809589e+00	7.540370e+01
9.600000e-07	1.331411e-06	1.370381e-09	9.518687e+00	8.786802e+01
9.700000e-07	1.430201e-06	1.553822e-09	1.022497e+01	9.985355e+01
9.800000e-07	1.528388e-06	1.726318e-09	1.092694e+01	1.112875e+02
9.900000e-07	1.625735e-06	1.890707e-09	1.162291e+01	1.221151e+02
1.000000e-06	1.722280e-06	2.048098e-09	1.231314e+01	1.323008e+02
1.010000e-06	1.818152e-06	2.196760e-09	1.299856e+01	1.418286e+02
1.020000e-06	1.913401e-06	2.332323e-09	1.367953e+01	1.507009e+02
1.030000e-06	2.008023e-06	2.453751e-09	1.435601e+01	1.589365e+02
1.040000e-06	2.102004e-06	2.564736e-09	1.502791e+01	1.665675e+02
1.050000e-06	2.195299e-06	2.671923e-09	1.569490e+01	1.736365e+02
1.060000e-06	2.287838e-06	2.774358e-09	1.635650e+01	1.801919e+02
1.070000e-06	2.379686e-06	2.867416e-09	1.701315e+01	1.862849e+02
1.080000e-06	2.470880e-06	2.950038e-09	1.766512e+01	1.919663e+02
1.090000e-06	2.561196e-06	3.030110e-09	1.831082e+01	1.972828e+02
1.100000e-06	2.650298e-06	3.109618e-09	1.894784e+01	2.022760e+02
1.110000e-06	2.738198e-06	3.181717e-09	1.957626e+01	2.069807e+02
1.120000e-06	2.825167e-06	3.245517e-09	2.019803e+01	2.114246e+02
1.130000e-06	2.911300e-06	3.306834e-09	2.081383e+01	2.156285e+02
1.140000e-06	2.996510e-06	3.367769e-09	2.142302e+01	2.196075e+02
1.150000e-06	3.080720e-06	3.425048e-09	2.202507e+01	2.233723e+02
1.160000e-06	3.163998e-06	3.479366e-09	2.262045e+01	2.269306e+02
1.170000e-06	3.246206e-06	3.527948e-09	2.320818e+01	2.302886e+02
1.180000e-06	3.327179e-06	3.574457e-09	2.378708e+01	2.334523e+02
1.190000e-06	3.406957e-06	3.620892e-09	2.435744e+01	2.364287e+02
1.200000e-06	3.485506e-06	3.663012e-09	2.491901e+01	2.392259e+02
1.210000e-06	3.562766e-06	3.699544e-09	2.547137e+01	2.418541e+02
1.220000e-06	3.638784e-06	3.734606e-09	2.601485e+01	2.443243e+02
1.230000e-06	3.713476e-06	3.771240e-09	2.654885e+01	2.466490e+02
1.240000e-06	3.786586e-06	3.804272e-09	2.707153e+01	2.488408e+02
1.250000e-06	3.858137e-06	3.834097e-09	2.758307e+01	2.509119e+02
1.260000e-06	3.928312e-06	3.862795e-09	2.808478e+01	2.528737e+02
1.270000e-06	3.997107e-06	3.890270e-09	2.857661e+01	2.547360e+02
1.280000e-06	4.064623e-06	3.917037e-09	2.905931e+01	2.565071e+02
1.290000e-06	4.130774e-06	3.942299e-09	2.953224e+01	2.581933e+02
1.300000e-06	4.195232e-06	3.966349e-09	2.999307e+01	2.597993e+02
1.310000e-06	4.258142e-06	3.989529e-09	3.044284e+01	2.613285e+02
1.320000e-06	4.319674e-06	4.011044e-09	3.088275e+01	2.627832e+02
1.330000e-06	4.379835e-06	4.031165e-09	3.131286e+01	2.641652e+02
1.340000e-06	4.438661e-06	4.051561e-09	3.173343e+01	2.654762e+02
1.350000e-06	4.495805e-06	4.070976e-09	3.214197e+01	2.667179e+02
1.360000e-06	4.551135e-06	4.088399e-09	3.253754e+01	2.678926e+02
1.370000e-06	4.604872e-06	4.105510e-09	3.292173e+01	2.690028e+02
1.380000e-06	4.656935e-06	4.122558e-09	3.329394e+01	2.700514e+02
1.390000e-06	4.707013e-06	4.139175e-09	3.365196e+01	2.710416e+02
1.400000e-06	4.755102e-06	4.155152e-09	3.399577e+01	2.719769e+02
1.410000e-06	4.801482e-06	4.168824e-09	3.432735e+01	2.728605e+02
1.420000e-06	4.846270e-06	4.180800e-09	3.464756e+01	2.736954e+02
1.430000e-06	4.889476e-06	4.193379e-09	3.495645e+01	2.744843e+02
1.440000e-06	4.930840e-06	4.205931e-09	3.525217e+01	2.752296e+02
1.450000e-06	4.970271e-06	4.217260e-09	3.553408e+01	2.759331e+02
1.460000e-06	5.008002e-06	4.228185e-09	3.580383e+01	2.765965e+02
1.470000e-06	5.044168e-06	4.237786e-09	3.606239e+01	2.772212e+02
1.480000e-06	5.078607e-06	4.245993e-09	3.630861e+01	2.778083e+02
1.490000e-06	5.111080e-06	4.255107e-09	3.654077e+01	2.783589e+02
1.500000e-06	5.141736e-06	4.264348e-09	3.675994e+01	2.788740e+02
1.510000e-06	5.170705e-06	4.271077e-09	3.696705e+01	2.793542e+02
1.520000e-06	5.197988e-06	4.277071e-09	3.716211e+01	2.798002e+02
1.530000e-06	5.223327e-06	4.285449e-09	3.734326e+01	2.802124e+02
1.540000e-06	5.246600e-06	4.293569e-09	3.750965e+01	2.805907e+02
1.550000e-06	5.268095e-06	4.299902e-09	3.766332e+01	2.809351e+02
1.560000e-06	5.287931e-06	4.304667e-09	3.780514e+01	2.812450e+02
1.570000e-06	5.306014e-06	4.308984e-09	3.793442e+01	2.815197e+02
1.580000e-06	5.322126e-06	4.314069e-09	3.804961e+01	2.817585e+02
1.590000e-06	5.336206e-06	4.319002e-09	3.815027e+01	2.819607e+02
1.600000e-06	5.348344e-06	4.321639e-09	3.823705e+01	2.821260e+02
1.610000e-06	5.358342e-06	4.323943e-09	3.830853e+01	2.822543e+02
1.620000e-06	5.366214e-06	4.327207e-09	3.836480e+01	2.823462e+02
1.630000e-06	5.372254e-06	4.328901e-09	3.840799e+01	2.824025e+02
1.640000e-06	5.376575e-06	4.328722e-09	3.843888e+01	2.824247e+02
1.650000e-06	5.379060e-06	4.330516e-09	3.845665e+01	2.824144e+02
1.660000e-06	5.379529e-06	4.331502e-09	3.846000e+01	2.823731e+02
1.670000e-06	5.378114e-06	4.327239e-09	3.844988e+01	2.823024e+02
1.680000e-06	5.375015e-06	4.325487e-09	3.842773e+01	2.822033e+02
1.690000e-06	5.370326e-06	4.325175e-09	3.839420e+01	2.820762e+02
1.700000e-06	5.363837e-06	4.323557e-09	3.834781e+01	2.819207e+02
1.710000e-06	5.355495e-06	4.320070e-09	3.828818e+01	2.817358e+02
1.720000e-06	5.345535e-06	4.316518e-09	3.821697e+01	2.815200e+02
1.730000e-06	5.333932e-06	4.317602e-09	3.813401e+01	2.812714e+02
1.740000e-06	5.320487e-06	4.296914e-09	3.803789e+01	2.809882e+02
1.750000e-06	5.304882e-06	4.259377e-09	3.792632e+01	2.806693e+02
1.760000e-06	5.286845e-06	4.248810e-09	3.779737e+01	2.803142e+02
1.770000e-06	5.266211e-06	4.253018e-09	3.764985e+01	2.799234e+02
1.780000e-06	5.243284e-06	4.300182e-09	3.748594e+01	2.794989e+02
1.790000e-06	5.219039e-06	4.331997e-09	3.731260e+01	2.790438e+02
1.800000e-06	5.194044e-06	4.251201e-09	3.713391e+01	2.785622e+02
1.810000e-06	5.167616e-06	4.253796e-09	3.694497e+01	2.780588e+02
1.820000e-06	5.139014e-06	4.269616e-09	3.674048e+01	2.775386e+02
1.830000e-06	5.108720e-06	4.240389e-09	3.652390e+01	2.770058e+02
1.840000e-06	5.076811e-06	4.284386e-09	3.629577e+01	2.764637e+02
1.850000e-06	5.042711e-06	4.222019e-09	3.605198e+01	2.759139e+02
1.860000e-06	5.006867e-06	4.177164e-09	3.579572e+01	2.753558e+02
1.870000e-06	4.969483e-06	4.250648e-09	3.552845e+01	2.747870e+02
1.880000e-06	4.930229e-06	4.183974e-09	3.524781e+01	2.742027e+02
1.890000e-06	4.889217e-06	4.127174e-09	3.495460e+01	2.735966e+02
1.900000e-06	4.846401e-06	4.146570e-09	3.464849e+01	2.729608e+02
1.910000e-06	4.802069e-06	4.117832e-09	3.433155e+01	2.722871e+02
1.920000e-06	4.756159e-06	4.154704e-09	3.400332e+01	2.715676e+02
1.930000e-06	4.708193e-06	4.110361e-09	3.366040e+01	2.707952e+02
1.940000e-06	4.658488e-06	4.059719e-09	3.330504e+01	2.699643e+02
1.950000e-06	4.607220e-06	4.085303e-09	3.293851e+01	2.690716e+02
1.960000e-06	4.554099e-06	4.054619e-09	3.255873e+01	2.681158e+02
1.970000e-06	4.498946e-06	4.055632e-09	3.216443e+01	2.670977e+02
1.980000e-06	4.442085e-06	4.021803e-09	3.175790e+01	2.660203e+02
1.990000e-06	4.383790e-06	3.988047e-09	3.134114e+01	2.648874e+02
2.000000e-06	4.323994e-06	4.000166e-09	3.091364e+01	2.637037e+02
2.010000e-06	4.262797e-06	3.992821e-09	3.047612e+01	2.624737e+02
2.020000e-06	4.199985e-06	3.980730e-09	3.002706e+01	2.612012e+02
2.030000e-06	4.135389e-06	3.905358e-09	2.956524e+01	2.598883e+02
2.040000e-06	4.069318e-06	3.907840e-09	2.909287e+01	2.585357e+02
2.050000e-06	4.001966e-06	3.929363e-09	2.861135e+01	2.571418e+02
2.060000e-06	3.933257e-06	3.873333e-09	2.812013e+01	2.557035e+02
2.070000e-06	3.862856e-06	3.844057e-09	2.761681e+01	2.542160e+02
2.080000e-06	3.790880e-06	3.811299e-09	2.710223e+01	2.526733e+02
2.090000e-06	3.717713e-06	3.814005e-09	2.657913e+01	2.510693e+02
2.100000e-06	3.643232e-06	3.786881e-09	2.604665e+01	2.493975e+02
2.110000e-06	3.567318e-06	3.747646e-09	2.550391e+01	2.476526e+02
2.120000e-06	3.489844e-06	3.724795e-09	2.495003e+01	2.458300e+02
2.130000e-06	3.410876e-06	3.682949e-09	2.438546e+01	2.439264e+02
2.140000e-06	3.330672e-06	3.669346e-09	2.381205e+01	2.419402e+02
2.150000e-06	3.249307e-06	3.643061e-09	2.323035e+01	2.398706e+02
2.160000e-06	3.166863e-06	3.607860e-09	2.264093e+01	2.377179e+02
2.170000e-06	3.083434e-06	3.555214e-09	2.204447e+01	2.354830e+02
2.180000e-06	2.999095e-06	3.522841e-09	2.144150e+01	2.331666e+02
2.190000e-06	2.913603e-06	3.507057e-09	2.083029e+01	2.307690e+02
2.200000e-06	2.826833e-06	3.459605e-09	2.020994e+01	2.282896e+02
2.210000e-06	2.738959e-06	3.409892e-09	1.958171e+01	2.257266e+02
2.220000e-06	2.650168e-06	3.371919e-09	1.894691e+01	2.230767e+02
2.230000e-06	2.560536e-06	3.346295e-09	1.830610e+01	2.203355e+02
2.240000e-06	2.469987e-06	3.301160e-09	1.765874e+01	2.174967e+02
2.250000e-06	2.378642e-06	3.254238e-09	1.700568e+01	2.145532e+02
2.260000e-06	2.286664e-06	3.209538e-09	1.634810e+01	2.114967e+02
2.270000e-06	2.193988e-06	3.157133e-09	1.568554e+01	2.083181e+02
2.280000e-06	2.100355e-06	3.108042e-09	1.501612e+01	2.050078e+02
2.290000e-06	2.005697e-06	3.062150e-09	1.433938e+01	2.015556e+02
2.300000e-06	1.910298e-06	3.009612e-09	1.365734e+01	1.979510e+02
2.310000e-06	1.814286e-06	2.942052e-09	1.297092e+01	1.941828e+02
2.320000e-06	1.717622e-06	2.883269e-09	1.227984e+01	1.902395e+02
2.330000e-06	1.620402e-06	2.831773e-09	1.158478e+01	1.861087e+02
2.340000e-06	1.522665e-06	2.768839e-09	1.088603e+01	1.817769e+02
2.350000e-06	1.424361e-06	2.692926e-09	1.018322e+01	1.772293e+02
2.360000e-06	1.325651e-06	2.620086e-09	9.477507e+00	1.724493e+02
2.370000e-06	1.226595e-06	2.547680e-09	8.769326e+00	1.674186e+02
2.380000e-06	1.127120e-06	2.466578e-09	8.058144e+00	1.621167e+02
2.390000e-06	1.027304e-06	2.382474e-09	7.344526e+00	1.565206e+02
2.400000e-06	9.272529e-07	2.292045e-09	6.629232e+00	1.506053e+02
2.410000e-06	8.269849e-07	2.193080e-09	5.912384e+00	1.443434e+02
2.420000e-06	7.264814e-07	2.093494e-09	5.193851e+00	1.377056e+02
2.430000e-06	6.257383e-07	1.996156e-09	4.473607e+00	1.306616e+02
2.440000e-06	5.246917e-07	1.887326e-09	3.751191e+00	1.231804e+02
2.450000e-06	4.233062e-07	1.759310e-09	3.026353e+00	1.152316e+02
2.460000e-06	3.217492e-07	1.625558e-09	2.300290e+00	1.067873e+02
2.470000e-06	2.201080e-07	1.495066e-09	1.573623e+00	9.782296e+01
2.480000e-06	1.183068e-07	1.355847e-09	8.458138e-01	8.832007e+01
2.490000e-06	1.646123e-08	1.199713e-09	1.176867e-01	7.826784e+01
2.500000e-06	-8.527481e-08	1.033390e-09	-6.096573e-01	6.766547e+01
2.510000e-06	-1.869024e-07	8.646193e-10	-1.336226e+00	5.652411e+01
2.520000e-06	-2.884355e-07	6.917494e-10	-2.062119e+00	4.486852e+01
2.530000e-06	-3.898450e-07	5.098598e-10	-2.787128e+00	3.273834e+01
2.540000e-06	-4.910534e-07	3.169884e-10	-3.510700e+00	2.018862e+01
2.550000e-06	-5.920109e-07	1.160998e-10	-4.232478e+00	7.289603e+00
2.560000e-06	-6.927296e-07	-8.483421e-11	-4.952549e+00	-5.874340e+00
2.570000e-06	-7.931751e-07	-2.827505e-10	-5.670666e+00	-1.920675e+01
2.580000e-06	-8.933202e-07	-4.835118e-10	-6.386636e+00	-3.260195e+01
2.590000e-06	-9.932179e-07	-6.916659e-10	-7.100837e+00	-4.594863e+01
2.600000e-06	-1.092870e-06	-8.977170e-10	-7.813285e+00	-5.913407e+01
2.610000e-06	-1.192211e-06	-1.092406e-09	-8.523503e+00	-7.204852e+01
2.620000e-06	-1.291190e-06	-1.278334e-09	-9.231134e+00	-8.458966e+01
2.630000e-06	-1.389691e-06	-1.462586e-09	-9.935350e+00	-9.666673e+01
2.640000e-06	-1.487634e-06	-1.643787e-09	-1.063558e+01	-1.082040e+02
2.650000e-06	-1.585070e-06	-1.811984e-09	-1.133218e+01	-1.191432e+02
2.660000e-06	-1.682029e-06	-1.966131e-09	-1.202537e+01	-1.294455e+02
2.670000e-06	-1.778548e-06	-2.112953e-09	-1.271542e+01	-1.390913e+02
2.680000e-06	-1.874621e-06	-2.253506e-09	-1.340227e+01	-1.480800e+02
2.690000e-06	-1.970035e-06	-2.384027e-09	-1.408442e+01	-1.564274e+02
2.700000e-06	-2.064530e-06	-2.502310e-09	-1.475999e+01	-1.641638e+02
2.710000e-06	-2.157999e-06	-2.608802e-09	-1.542824e+01	-1.713299e+02
2.720000e-06	-2.250573e-06	-2.708202e-09	-1.609008e+01	-1.779735e+02
2.730000e-06	-2.342438e-06	-2.803738e-09	-1.674685e+01	-1.841456e+02
2.740000e-06	-2.433530e-06	-2.893115e-09	-1.739810e+01	-1.898970e+02
2.750000e-06	-2.523664e-06	-2.974251e-09	-1.804249e+01	-1.952757e+02
2.760000e-06	-2.612871e-06	-3.050195e-09	-1.868026e+01	-2.003241e+02
2.770000e-06	-2.701342e-06	-3.124138e-09	-1.931277e+01	-2.050784e+02
2.780000e-06	-2.789063e-06	-3.195513e-09	-1.993992e+01	-2.095673e+02
2.790000e-06	-2.875724e-06	-3.261584e-09	-2.055948e+01	-2.138130e+02
2.800000e-06	-2.961115e-06	-3.323120e-09	-2.116997e+01	-2.178315e+02
2.810000e-06	-3.045371e-06	-3.382463e-09	-2.177235e+01	-2.216342e+02
2.820000e-06	-3.128623e-06	-3.439282e-09	-2.236754e+01	-2.252291e+02
2.830000e-06	-3.210870e-06	-3.492890e-09	-2.295555e+01	-2.286226e+02
2.840000e-06	-3.292125e-06	-3.542715e-09	-2.353647e+01	-2.318207e+02
2.850000e-06	-3.372339e-06	-3.589515e-09	-2.410995e+01	-2.348302e+02
2.860000e-06	-3.451277e-06	-3.632833e-09	-2.467430e+01	-2.376590e+02
2.870000e-06	-3.528702e-06	-3.673019e-09	-2.522784e+01	-2.403168e+02
2.880000e-06	-3.604675e-06	-3.712604e-09	-2.577099e+01	-2.428145e+02
2.890000e-06	-3.679227e-06	-3.750850e-09	-2.630399e+01	-2.451645e+02
2.900000e-06	-3.752329e-06	-3.784740e-09	-2.682661e+01	-2.473793e+02
2.910000e-06	-3.824220e-06	-3.816834e-09	-2.734059e+01	-2.494713e+02
2.920000e-06	-3.894742e-06	-3.848924e-09	-2.784478e+01	-2.514521e+02
2.930000e-06	-3.963663e-06	-3.879296e-09	-2.833751e+01	-2.533318e+02
2.940000e-06	-4.031174e-06	-3.905629e-09	-2.882017e+01	-2.551188e+02
