# Temperatura_=_20.0
# Concentracion g/m^3_=_9000.0
# C_Vs_to_Am_M_A/Vsm_=_65563218390.804596
# pendiente_HvsI_1/m_=_3716.3
# ordenada_HvsI_A/m_=_1297.0
# frecuencia_Hz_=_301065.7294594151

Tiempo_(s)	Campo_(V.s)	Magnetizacion_(V.s)	Campo_(kA/m)	Magnetizacion_(A/m)
0.000000e+00	-6.690110e-06	-5.098802e-09	-5.670554e+01	-3.339597e+02
1.000000e-08	-6.686536e-06	-5.097935e-09	-5.667525e+01	-3.338400e+02
2.000000e-08	-6.680858e-06	-5.094329e-09	-5.662712e+01	-3.336943e+02
3.000000e-08	-6.673100e-06	-5.092084e-09	-5.656136e+01	-3.335285e+02
4.000000e-08	-6.663036e-06	-5.086180e-09	-5.647606e+01	-3.333483e+02
5.000000e-08	-6.650512e-06	-5.080151e-09	-5.636991e+01	-3.331583e+02
6.000000e-08	-6.635516e-06	-5.069266e-09	-5.624280e+01	-3.329619e+02
7.000000e-08	-6.618191e-06	-5.058195e-09	-5.609596e+01	-3.327604e+02
8.000000e-08	-6.598739e-06	-5.108802e-09	-5.593108e+01	-3.325532e+02
9.000000e-08	-6.576972e-06	-5.152949e-09	-5.574658e+01	-3.323374e+02
1.000000e-07	-6.552551e-06	-5.115267e-09	-5.553959e+01	-3.321078e+02
1.100000e-07	-6.525496e-06	-5.074639e-09	-5.531027e+01	-3.318571e+02
1.200000e-07	-6.496119e-06	-5.048810e-09	-5.506127e+01	-3.315766e+02
1.300000e-07	-6.464926e-06	-4.967898e-09	-5.479688e+01	-3.312564e+02
1.400000e-07	-6.432024e-06	-4.977329e-09	-5.451800e+01	-3.308862e+02
1.500000e-07	-6.397056e-06	-5.134355e-09	-5.422160e+01	-3.304565e+02
1.600000e-07	-6.359929e-06	-5.038561e-09	-5.390692e+01	-3.299585e+02
1.700000e-07	-6.320746e-06	-4.980918e-09	-5.357480e+01	-3.293859e+02
1.800000e-07	-6.279239e-06	-5.008607e-09	-5.322299e+01	-3.287348e+02
1.900000e-07	-6.235332e-06	-4.945453e-09	-5.285083e+01	-3.280043e+02
2.000000e-07	-6.189288e-06	-5.021244e-09	-5.246056e+01	-3.271964e+02
2.100000e-07	-6.140723e-06	-4.983372e-09	-5.204893e+01	-3.263164e+02
2.200000e-07	-6.089438e-06	-4.903277e-09	-5.161423e+01	-3.253715e+02
2.300000e-07	-6.035786e-06	-4.892456e-09	-5.115948e+01	-3.243711e+02
2.400000e-07	-5.979974e-06	-4.897236e-09	-5.068641e+01	-3.233249e+02
2.500000e-07	-5.921931e-06	-4.960062e-09	-5.019443e+01	-3.222423e+02
2.600000e-07	-5.861676e-06	-4.915443e-09	-4.968372e+01	-3.211315e+02
2.700000e-07	-5.799380e-06	-4.835420e-09	-4.915569e+01	-3.199983e+02
2.800000e-07	-5.735058e-06	-4.831888e-09	-4.861049e+01	-3.188457e+02
2.900000e-07	-5.668591e-06	-4.870262e-09	-4.804712e+01	-3.176734e+02
3.000000e-07	-5.599924e-06	-4.879997e-09	-4.746510e+01	-3.164782e+02
3.100000e-07	-5.529241e-06	-4.785097e-09	-4.686598e+01	-3.152539e+02
3.200000e-07	-5.456704e-06	-4.754426e-09	-4.625116e+01	-3.139926e+02
3.300000e-07	-5.382067e-06	-4.741483e-09	-4.561853e+01	-3.126852e+02
3.400000e-07	-5.305193e-06	-4.735801e-09	-4.496695e+01	-3.113227e+02
3.500000e-07	-5.226079e-06	-4.737311e-09	-4.429638e+01	-3.098974e+02
3.600000e-07	-5.144870e-06	-4.677763e-09	-4.360804e+01	-3.084031e+02
3.700000e-07	-5.061947e-06	-4.631837e-09	-4.290519e+01	-3.068361e+02
3.800000e-07	-4.977441e-06	-4.615703e-09	-4.218891e+01	-3.051953e+02
3.900000e-07	-4.891392e-06	-4.645456e-09	-4.145956e+01	-3.034820e+02
4.000000e-07	-4.803825e-06	-4.608933e-09	-4.071734e+01	-3.016990e+02
4.100000e-07	-4.714464e-06	-4.531779e-09	-3.995991e+01	-2.998501e+02
4.200000e-07	-4.623199e-06	-4.519436e-09	-3.918635e+01	-2.979392e+02
4.300000e-07	-4.530280e-06	-4.533983e-09	-3.839877e+01	-2.959688e+02
4.400000e-07	-4.435822e-06	-4.499347e-09	-3.759814e+01	-2.939401e+02
4.500000e-07	-4.339835e-06	-4.432675e-09	-3.678455e+01	-2.918515e+02
4.600000e-07	-4.242132e-06	-4.412072e-09	-3.595642e+01	-2.896994e+02
4.700000e-07	-4.142814e-06	-4.383078e-09	-3.511459e+01	-2.874778e+02
4.800000e-07	-4.042119e-06	-4.336274e-09	-3.426110e+01	-2.851789e+02
4.900000e-07	-3.939996e-06	-4.302507e-09	-3.339551e+01	-2.827944e+02
5.000000e-07	-3.836497e-06	-4.263023e-09	-3.251825e+01	-2.803157e+02
5.100000e-07	-3.731624e-06	-4.201993e-09	-3.162934e+01	-2.777356e+02
5.200000e-07	-3.625235e-06	-4.164529e-09	-3.072758e+01	-2.750481e+02
5.300000e-07	-3.517445e-06	-4.148391e-09	-2.981395e+01	-2.722493e+02
5.400000e-07	-3.408500e-06	-4.094956e-09	-2.889053e+01	-2.693371e+02
5.500000e-07	-3.298471e-06	-4.037299e-09	-2.795793e+01	-2.663108e+02
5.600000e-07	-3.187339e-06	-4.009864e-09	-2.701597e+01	-2.631701e+02
5.700000e-07	-3.074963e-06	-3.974328e-09	-2.606346e+01	-2.599140e+02
5.800000e-07	-2.961227e-06	-3.906656e-09	-2.509943e+01	-2.565398e+02
5.900000e-07	-2.846210e-06	-3.851775e-09	-2.412454e+01	-2.530421e+02
6.000000e-07	-2.730046e-06	-3.809895e-09	-2.313994e+01	-2.494118e+02
6.100000e-07	-2.612923e-06	-3.750453e-09	-2.214720e+01	-2.456358e+02
6.200000e-07	-2.494895e-06	-3.677303e-09	-2.114679e+01	-2.416974e+02
6.300000e-07	-2.375991e-06	-3.609858e-09	-2.013896e+01	-2.375767e+02
6.400000e-07	-2.256307e-06	-3.545728e-09	-1.912451e+01	-2.332515e+02
6.500000e-07	-2.135878e-06	-3.474736e-09	-1.810376e+01	-2.286985e+02
6.600000e-07	-2.014572e-06	-3.398943e-09	-1.707557e+01	-2.238946e+02
6.700000e-07	-1.892324e-06	-3.321050e-09	-1.603939e+01	-2.188172e+02
6.800000e-07	-1.769343e-06	-3.243440e-09	-1.499699e+01	-2.134449e+02
6.900000e-07	-1.645754e-06	-3.161862e-09	-1.394946e+01	-2.077569e+02
7.000000e-07	-1.521621e-06	-3.076931e-09	-1.289730e+01	-2.017322e+02
7.100000e-07	-1.397018e-06	-2.981391e-09	-1.184116e+01	-1.953475e+02
7.200000e-07	-1.271977e-06	-2.876302e-09	-1.078131e+01	-1.885758e+02
7.300000e-07	-1.146509e-06	-2.765207e-09	-9.717837e+00	-1.813837e+02
7.400000e-07	-1.020615e-06	-2.650750e-09	-8.650760e+00	-1.737297e+02
7.500000e-07	-8.943293e-07	-2.524982e-09	-7.580358e+00	-1.655632e+02
7.600000e-07	-7.677536e-07	-2.380037e-09	-6.507499e+00	-1.568245e+02
7.700000e-07	-6.409714e-07	-2.230349e-09	-5.432890e+00	-1.474457e+02
7.800000e-07	-5.139941e-07	-2.079874e-09	-4.356627e+00	-1.373545e+02
7.900000e-07	-3.868658e-07	-1.915502e-09	-3.279084e+00	-1.264781e+02
8.000000e-07	-2.596348e-07	-1.732257e-09	-2.200671e+00	-1.147494e+02
8.100000e-07	-1.322895e-07	-1.540582e-09	-1.121289e+00	-1.021136e+02
8.200000e-07	-4.898972e-09	-1.336604e-09	-4.152381e-02	-8.853578e+01
8.300000e-07	1.224710e-07	-1.112958e-09	1.038067e+00	-7.400722e+01
8.400000e-07	2.497953e-07	-8.740330e-10	2.117272e+00	-5.855154e+01
8.500000e-07	3.770111e-07	-6.254948e-10	3.195556e+00	-4.222860e+01
8.600000e-07	5.041218e-07	-3.662662e-10	4.272949e+00	-2.513620e+01
8.700000e-07	6.311010e-07	-9.961609e-11	5.349228e+00	-7.409124e+00
8.800000e-07	7.578653e-07	1.720090e-10	6.423685e+00	1.078470e+01
8.900000e-07	8.843614e-07	4.541148e-10	7.495869e+00	2.925065e+01
9.000000e-07	1.010598e-06	7.408531e-10	8.565851e+00	4.777614e+01
9.100000e-07	1.136536e-06	1.021484e-09	9.633307e+00	6.614100e+01
9.200000e-07	1.262042e-06	1.291926e-09	1.069710e+01	8.412857e+01
9.300000e-07	1.387142e-06	1.556887e-09	1.175745e+01	1.015367e+02
9.400000e-07	1.511845e-06	1.812176e-09	1.281444e+01	1.181879e+02
9.500000e-07	1.636089e-06	2.050716e-09	1.386753e+01	1.339372e+02
9.600000e-07	1.759832e-06	2.270930e-09	1.491638e+01	1.486782e+02
9.700000e-07	1.882957e-06	2.474265e-09	1.595999e+01	1.623456e+02
9.800000e-07	2.005338e-06	2.663844e-09	1.699729e+01	1.749153e+02
9.900000e-07	2.126940e-06	2.836070e-09	1.802800e+01	1.864013e+02
1.000000e-06	2.247691e-06	2.992554e-09	1.905148e+01	1.968505e+02
1.010000e-06	2.367519e-06	3.136691e-09	2.006715e+01	2.063354e+02
1.020000e-06	2.486515e-06	3.270825e-09	2.107576e+01	2.149462e+02
1.030000e-06	2.604720e-06	3.390569e-09	2.207767e+01	2.227823e+02
1.040000e-06	2.722050e-06	3.499073e-09	2.307216e+01	2.299444e+02
1.050000e-06	2.838424e-06	3.600269e-09	2.405856e+01	2.365280e+02
1.060000e-06	2.953657e-06	3.695461e-09	2.503527e+01	2.426182e+02
1.070000e-06	3.067587e-06	3.784727e-09	2.600094e+01	2.482867e+02
1.080000e-06	3.180188e-06	3.864747e-09	2.695535e+01	2.535901e+02
1.090000e-06	3.291529e-06	3.938531e-09	2.789908e+01	2.585706e+02
1.100000e-06	3.401787e-06	4.008266e-09	2.883363e+01	2.632577e+02
1.110000e-06	3.510997e-06	4.076234e-09	2.975930e+01	2.676711e+02
1.120000e-06	3.619094e-06	4.138345e-09	3.067553e+01	2.718233e+02
1.130000e-06	3.725981e-06	4.195981e-09	3.158151e+01	2.757235e+02
1.140000e-06	3.831433e-06	4.249397e-09	3.247533e+01	2.793799e+02
1.150000e-06	3.935360e-06	4.300966e-09	3.335621e+01	2.828016e+02
1.160000e-06	4.037867e-06	4.348873e-09	3.422506e+01	2.860004e+02
1.170000e-06	4.139008e-06	4.389427e-09	3.508234e+01	2.889905e+02
1.180000e-06	4.238791e-06	4.425683e-09	3.592810e+01	2.917883e+02
1.190000e-06	4.336985e-06	4.463176e-09	3.676039e+01	2.944117e+02
1.200000e-06	4.433422e-06	4.501096e-09	3.757779e+01	2.968787e+02
1.210000e-06	4.528212e-06	4.535486e-09	3.838124e+01	2.992058e+02
1.220000e-06	4.621538e-06	4.568420e-09	3.917227e+01	3.014076e+02
1.230000e-06	4.713459e-06	4.600251e-09	3.995140e+01	3.034956e+02
1.240000e-06	4.803726e-06	4.630431e-09	4.071650e+01	3.054783e+02
1.250000e-06	4.892126e-06	4.657998e-09	4.146578e+01	3.073612e+02
1.260000e-06	4.978706e-06	4.683615e-09	4.219964e+01	3.091475e+02
1.270000e-06	5.063628e-06	4.706562e-09	4.291944e+01	3.108391e+02
1.280000e-06	5.146944e-06	4.727762e-09	4.362563e+01	3.124375e+02
1.290000e-06	5.228454e-06	4.749679e-09	4.431651e+01	3.139447e+02
1.300000e-06	5.307952e-06	4.772927e-09	4.499034e+01	3.153638e+02
1.310000e-06	5.385485e-06	4.794244e-09	4.564750e+01	3.166998e+02
1.320000e-06	5.461105e-06	4.813410e-09	4.628846e+01	3.179590e+02
1.330000e-06	5.534654e-06	4.832461e-09	4.691187e+01	3.191491e+02
1.340000e-06	5.606077e-06	4.851488e-09	4.751725e+01	3.202783e+02
1.350000e-06	5.675512e-06	4.868904e-09	4.810579e+01	3.213551e+02
1.360000e-06	5.743013e-06	4.884240e-09	4.867792e+01	3.223866e+02
1.370000e-06	5.808412e-06	4.898510e-09	4.923225e+01	3.233788e+02
1.380000e-06	5.871726e-06	4.912261e-09	4.976890e+01	3.243356e+02
1.390000e-06	5.933114e-06	4.926723e-09	5.028922e+01	3.252584e+02
1.400000e-06	5.992516e-06	4.940357e-09	5.079272e+01	3.261469e+02
1.410000e-06	6.049761e-06	4.952767e-09	5.127793e+01	3.269990e+02
1.420000e-06	6.104812e-06	4.966171e-09	5.174454e+01	3.278115e+02
1.430000e-06	6.157579e-06	4.981466e-09	5.219180e+01	3.285809e+02
1.440000e-06	6.207743e-06	4.996152e-09	5.261699e+01	3.293039e+02
1.450000e-06	6.255348e-06	5.008008e-09	5.302049e+01	3.299783e+02
1.460000e-06	6.300778e-06	5.018559e-09	5.340555e+01	3.306035e+02
1.470000e-06	6.344180e-06	5.027770e-09	5.377343e+01	3.311803e+02
1.480000e-06	6.385273e-06	5.037454e-09	5.412174e+01	3.317111e+02
1.490000e-06	6.423946e-06	5.047558e-09	5.444953e+01	3.321996e+02
1.500000e-06	6.460516e-06	5.055972e-09	5.475950e+01	3.326504e+02
1.510000e-06	6.494960e-06	5.062343e-09	5.505144e+01	3.330682e+02
1.520000e-06	6.526993e-06	5.068813e-09	5.532296e+01	3.334571e+02
1.530000e-06	6.556759e-06	5.078654e-09	5.557525e+01	3.338206e+02
1.540000e-06	6.584473e-06	5.088170e-09	5.581016e+01	3.341607e+02
1.550000e-06	6.609748e-06	5.094117e-09	5.602439e+01	3.344777e+02
1.560000e-06	6.632425e-06	5.099325e-09	5.621660e+01	3.347705e+02
1.570000e-06	6.652902e-06	5.104706e-09	5.639016e+01	3.350368e+02
1.580000e-06	6.671162e-06	5.109627e-09	5.654493e+01	3.352729e+02
1.590000e-06	6.686949e-06	5.112027e-09	5.667875e+01	3.354751e+02
1.600000e-06	6.700270e-06	5.114631e-09	5.679166e+01	3.356394e+02
1.610000e-06	6.711078e-06	5.119365e-09	5.688326e+01	3.357625e+02
1.620000e-06	6.719290e-06	5.123466e-09	5.695287e+01	3.358422e+02
1.630000e-06	6.725061e-06	5.126741e-09	5.700178e+01	3.358778e+02
1.640000e-06	6.728585e-06	5.129199e-09	5.703166e+01	3.358700e+02
1.650000e-06	6.729746e-06	5.134124e-09	5.704150e+01	3.358212e+02
1.660000e-06	6.728544e-06	5.130612e-09	5.703131e+01	3.357352e+02
1.670000e-06	6.725248e-06	5.125717e-09	5.700337e+01	3.356170e+02
1.680000e-06	6.719634e-06	5.123601e-09	5.695579e+01	3.354724e+02
1.690000e-06	6.711715e-06	5.123524e-09	5.688866e+01	3.353074e+02
1.700000e-06	6.701806e-06	5.124170e-09	5.680468e+01	3.351275e+02
1.710000e-06	6.689726e-06	5.126090e-09	5.670229e+01	3.349375e+02
1.720000e-06	6.675204e-06	5.140982e-09	5.657920e+01	3.347409e+02
1.730000e-06	6.658499e-06	5.124174e-09	5.643761e+01	3.345393e+02
1.740000e-06	6.639691e-06	5.030950e-09	5.627818e+01	3.343320e+02
1.750000e-06	6.618016e-06	5.033212e-09	5.609447e+01	3.341165e+02
1.760000e-06	6.593083e-06	5.067543e-09	5.588314e+01	3.338875e+02
1.770000e-06	6.565610e-06	5.064362e-09	5.565028e+01	3.336381e+02
1.780000e-06	6.536147e-06	5.160809e-09	5.540055e+01	3.333595e+02
1.790000e-06	6.504872e-06	5.179736e-09	5.513546e+01	3.330419e+02
1.800000e-06	6.472082e-06	5.017007e-09	5.485753e+01	3.326752e+02
1.810000e-06	6.437278e-06	5.089674e-09	5.456253e+01	3.322494e+02
1.820000e-06	6.400060e-06	5.075842e-09	5.424707e+01	3.317560e+02
1.830000e-06	6.360609e-06	5.051754e-09	5.391269e+01	3.311884e+02
1.840000e-06	6.318848e-06	5.183400e-09	5.355872e+01	3.305425e+02
1.850000e-06	6.275006e-06	4.990038e-09	5.318711e+01	3.298170e+02
1.860000e-06	6.229067e-06	4.986591e-09	5.279773e+01	3.290140e+02
1.870000e-06	6.180730e-06	5.042579e-09	5.238802e+01	3.281384e+02
1.880000e-06	6.130174e-06	5.037913e-09	5.195951e+01	3.271974e+02
1.890000e-06	6.077059e-06	5.109285e-09	5.150931e+01	3.262000e+02
1.900000e-06	6.021436e-06	4.893396e-09	5.103784e+01	3.251562e+02
1.910000e-06	5.963691e-06	4.872939e-09	5.054840e+01	3.240754e+02
1.920000e-06	5.903893e-06	4.988211e-09	5.004154e+01	3.229659e+02
1.930000e-06	5.842045e-06	4.969019e-09	4.951732e+01	3.218336e+02
1.940000e-06	5.777934e-06	4.941570e-09	4.897391e+01	3.206818e+02
1.950000e-06	5.711734e-06	4.783724e-09	4.841280e+01	3.195105e+02
1.960000e-06	5.643382e-06	4.852472e-09	4.783345e+01	3.183166e+02
1.970000e-06	5.572683e-06	4.883058e-09	4.723420e+01	3.170941e+02
1.980000e-06	5.499970e-06	4.881591e-09	4.661789e+01	3.158351e+02
1.990000e-06	5.425352e-06	4.835963e-09	4.598542e+01	3.145308e+02
2.000000e-06	5.348697e-06	4.693475e-09	4.533569e+01	3.131721e+02
2.010000e-06	5.269883e-06	4.784050e-09	4.466766e+01	3.117509e+02
2.020000e-06	5.189091e-06	4.807003e-09	4.398287e+01	3.102611e+02
2.030000e-06	5.106574e-06	4.767655e-09	4.328345e+01	3.086989e+02
2.040000e-06	5.022342e-06	4.644707e-09	4.256949e+01	3.070628e+02
2.050000e-06	4.936267e-06	4.631538e-09	4.183993e+01	3.053541e+02
2.060000e-06	4.848276e-06	4.706006e-09	4.109411e+01	3.035754e+02
2.070000e-06	4.758611e-06	4.643306e-09	4.033411e+01	3.017306e+02
2.080000e-06	4.667361e-06	4.576746e-09	3.956067e+01	2.998234e+02
2.090000e-06	4.574496e-06	4.509115e-09	3.877354e+01	2.978567e+02
2.100000e-06	4.479858e-06	4.525729e-09	3.797139e+01	2.958316e+02
2.110000e-06	4.383508e-06	4.512982e-09	3.715472e+01	2.937469e+02
2.120000e-06	4.285760e-06	4.474831e-09	3.632621e+01	2.915990e+02
2.130000e-06	4.186677e-06	4.401695e-09	3.548638e+01	2.893820e+02
2.140000e-06	4.086169e-06	4.350316e-09	3.463447e+01	2.870884e+02
2.150000e-06	3.984009e-06	4.372721e-09	3.376856e+01	2.847097e+02
2.160000e-06	3.880219e-06	4.354691e-09	3.288883e+01	2.822375e+02
2.170000e-06	3.775058e-06	4.285789e-09	3.199749e+01	2.796643e+02
2.180000e-06	3.668647e-06	4.209329e-09	3.109554e+01	2.769841e+02
2.190000e-06	3.561094e-06	4.206086e-09	3.018393e+01	2.741928e+02
2.200000e-06	3.452458e-06	4.180230e-09	2.926312e+01	2.712883e+02
2.210000e-06	3.342545e-06	4.107029e-09	2.833150e+01	2.682696e+02
2.220000e-06	3.231318e-06	4.035343e-09	2.738873e+01	2.651365e+02
2.230000e-06	3.118892e-06	4.001259e-09	2.643581e+01	2.618882e+02
2.240000e-06	3.005248e-06	3.962434e-09	2.547256e+01	2.585221e+02
2.250000e-06	2.890565e-06	3.896264e-09	2.450051e+01	2.550329e+02
2.260000e-06	2.774845e-06	3.835670e-09	2.351965e+01	2.514119e+02
2.270000e-06	2.657956e-06	3.784426e-09	2.252890e+01	2.476463e+02
2.280000e-06	2.539790e-06	3.735542e-09	2.152732e+01	2.437196e+02
2.290000e-06	2.420550e-06	3.670051e-09	2.051665e+01	2.396121e+02
2.300000e-06	2.300454e-06	3.601241e-09	1.949871e+01	2.353017e+02
2.310000e-06	2.179573e-06	3.530493e-09	1.847412e+01	2.307653e+02
2.320000e-06	2.058011e-06	3.464703e-09	1.744376e+01	2.259796e+02
2.330000e-06	1.935761e-06	3.389805e-09	1.640756e+01	2.209219e+02
2.340000e-06	1.812860e-06	3.300585e-09	1.536585e+01	2.155708e+02
2.350000e-06	1.689367e-06	3.203258e-09	1.431911e+01	2.099055e+02
2.360000e-06	1.565406e-06	3.118182e-09	1.326842e+01	2.039050e+02
2.370000e-06	1.440946e-06	3.035703e-09	1.221350e+01	1.975464e+02
2.380000e-06	1.315901e-06	2.925423e-09	1.115361e+01	1.908028e+02
2.390000e-06	1.190356e-06	2.800464e-09	1.008949e+01	1.836414e+02
2.400000e-06	1.064390e-06	2.686740e-09	9.021798e+00	1.760215e+02
2.410000e-06	9.379681e-07	2.581204e-09	7.950241e+00	1.678930e+02
2.420000e-06	8.111435e-07	2.449115e-09	6.875273e+00	1.591967e+02
2.430000e-06	6.840406e-07	2.293632e-09	5.797946e+00	1.498655e+02
2.440000e-06	5.566836e-07	2.141432e-09	4.718464e+00	1.398271e+02
2.450000e-06	4.290845e-07	1.989748e-09	3.636931e+00	1.290086e+02
2.460000e-06	3.013226e-07	1.818572e-09	2.554018e+00	1.173422e+02
2.470000e-06	1.734213e-07	1.619406e-09	1.469923e+00	1.047721e+02
2.480000e-06	4.548799e-08	1.405192e-09	3.855574e-01	9.126171e+01
2.490000e-06	-8.244466e-08	1.187126e-09	-6.988030e-01	7.680015e+01
2.500000e-06	-2.103555e-07	9.626603e-10	-1.782979e+00	6.140862e+01
2.510000e-06	-3.381076e-07	7.193515e-10	-2.865808e+00	4.514430e+01
2.520000e-06	-4.656930e-07	4.532661e-10	-3.947225e+00	2.810229e+01
2.530000e-06	-5.930920e-07	1.789760e-10	-5.027063e+00	1.041481e+01
2.540000e-06	-7.202320e-07	-9.334107e-11	-6.104704e+00	-7.752393e+00
2.550000e-06	-8.471083e-07	-3.717652e-10	-7.180111e+00	-2.620633e+01
2.560000e-06	-9.736774e-07	-6.624774e-10	-8.252915e+00	-4.473538e+01
2.570000e-06	-1.099832e-06	-9.527566e-10	-9.322207e+00	-6.311953e+01
2.580000e-06	-1.225524e-06	-1.228527e-09	-1.038757e+01	-8.114151e+01
2.590000e-06	-1.350779e-06	-1.492456e-09	-1.144924e+01	-9.859782e+01
2.600000e-06	-1.475504e-06	-1.751598e-09	-1.250641e+01	-1.153088e+02
2.610000e-06	-1.599599e-06	-1.999732e-09	-1.355825e+01	-1.311271e+02
2.620000e-06	-1.723096e-06	-2.225883e-09	-1.460501e+01	-1.459433e+02
2.630000e-06	-1.845941e-06	-2.430702e-09	-1.564624e+01	-1.596892e+02
2.640000e-06	-1.968126e-06	-2.622185e-09	-1.668189e+01	-1.723378e+02
2.650000e-06	-2.089714e-06	-2.800164e-09	-1.771247e+01	-1.839005e+02
2.660000e-06	-2.210680e-06	-2.962285e-09	-1.873778e+01	-1.944222e+02
2.670000e-06	-2.330946e-06	-3.108895e-09	-1.975715e+01	-2.039737e+02
2.680000e-06	-2.450334e-06	-3.242346e-09	-2.076909e+01	-2.126442e+02
2.690000e-06	-2.568673e-06	-3.366164e-09	-2.177213e+01	-2.205328e+02
2.700000e-06	-2.685837e-06	-3.481329e-09	-2.276522e+01	-2.277403e+02
2.710000e-06	-2.801861e-06	-3.584860e-09	-2.374865e+01	-2.343627e+02
2.720000e-06	-2.916808e-06	-3.675420e-09	-2.472294e+01	-2.404862e+02
2.730000e-06	-3.030570e-06	-3.759179e-09	-2.568719e+01	-2.461833e+02
2.740000e-06	-3.143051e-06	-3.840049e-09	-2.664058e+01	-2.515117e+02
2.750000e-06	-3.254226e-06	-3.916783e-09	-2.758290e+01	-2.565147e+02
2.760000e-06	-3.364158e-06	-3.987233e-09	-2.851469e+01	-2.612226e+02
2.770000e-06	-3.472985e-06	-4.051915e-09	-2.943711e+01	-2.656555e+02
2.780000e-06	-3.580744e-06	-4.115861e-09	-3.035048e+01	-2.698266e+02
2.790000e-06	-3.687363e-06	-4.178886e-09	-3.125419e+01	-2.737451e+02
2.800000e-06	-3.792784e-06	-4.237074e-09	-3.214774e+01	-2.774191e+02
2.810000e-06	-3.896770e-06	-4.291831e-09	-3.302912e+01	-2.808578e+02
2.820000e-06	-3.999182e-06	-4.345502e-09	-3.389717e+01	-2.840726e+02
2.830000e-06	-4.100070e-06	-4.395442e-09	-3.475230e+01	-2.870776e+02
2.840000e-06	-4.199512e-06	-4.439959e-09	-3.559517e+01	-2.898891e+02
2.850000e-06	-4.297575e-06	-4.483132e-09	-3.642636e+01	-2.925249e+02
2.860000e-06	-4.394266e-06	-4.523477e-09	-3.724591e+01	-2.950030e+02
2.870000e-06	-4.489415e-06	-4.559348e-09	-3.805240e+01	-2.973401e+02
2.880000e-06	-4.582877e-06	-4.595109e-09	-3.884458e+01	-2.995510e+02
2.890000e-06	-4.674731e-06	-4.629738e-09	-3.962314e+01	-3.016474e+02
2.900000e-06	-4.764978e-06	-4.660460e-09	-4.038807e+01	-3.036379e+02
2.910000e-06	-4.853571e-06	-4.688746e-09	-4.113899e+01	-3.055283e+02
2.920000e-06	-4.940351e-06	-4.717412e-09	-4.187454e+01	-3.073220e+02
2.930000e-06	-5.025260e-06	-4.744566e-09	-4.259423e+01	-3.090208e+02
2.940000e-06	-5.108503e-06	-4.768423e-09	-4.329980e+01	-3.106263e+02
