# Temperatura_=_20.0
# Concentracion g/m^3_=_9000.0
# C_Vs_to_Am_M_A/Vsm_=_65563218390.804596
# pendiente_HvsI_1/m_=_3716.3
# ordenada_HvsI_A/m_=_1297.0
# frecuencia_Hz_=_301069.9463441079

Tiempo_(s)	Campo_(V.s)	Magnetizacion_(V.s)	Campo_(kA/m)	Magnetizacion_(A/m)
0.000000e+00	-6.705522e-06	-5.110352e-09	-5.670814e+01	-3.353828e+02
1.000000e-08	-6.702099e-06	-5.111363e-09	-5.667919e+01	-3.352950e+02
2.000000e-08	-6.696563e-06	-5.108919e-09	-5.663238e+01	-3.351805e+02
3.000000e-08	-6.688959e-06	-5.106198e-09	-5.656806e+01	-3.350453e+02
4.000000e-08	-6.678998e-06	-5.101521e-09	-5.648383e+01	-3.348946e+02
5.000000e-08	-6.666500e-06	-5.096542e-09	-5.637813e+01	-3.347328e+02
6.000000e-08	-6.651515e-06	-5.088426e-09	-5.625141e+01	-3.345622e+02
7.000000e-08	-6.634245e-06	-5.085053e-09	-5.610535e+01	-3.343834e+02
8.000000e-08	-6.614883e-06	-5.124682e-09	-5.594161e+01	-3.341942e+02
9.000000e-08	-6.593145e-06	-5.155456e-09	-5.575777e+01	-3.339904e+02
1.000000e-07	-6.568693e-06	-5.127409e-09	-5.555099e+01	-3.337654e+02
1.100000e-07	-6.541644e-06	-5.095381e-09	-5.532224e+01	-3.335109e+02
1.200000e-07	-6.512366e-06	-5.066108e-09	-5.507463e+01	-3.332172e+02
1.300000e-07	-6.481210e-06	-4.995347e-09	-5.481115e+01	-3.328745e+02
1.400000e-07	-6.448285e-06	-5.004945e-09	-5.453271e+01	-3.324731e+02
1.500000e-07	-6.413335e-06	-5.131041e-09	-5.423714e+01	-3.320047e+02
1.600000e-07	-6.376241e-06	-5.079077e-09	-5.392343e+01	-3.314629e+02
1.700000e-07	-6.337087e-06	-5.022584e-09	-5.359231e+01	-3.308439e+02
1.800000e-07	-6.295603e-06	-5.011214e-09	-5.324149e+01	-3.301470e+02
1.900000e-07	-6.251663e-06	-4.969115e-09	-5.286989e+01	-3.293745e+02
2.000000e-07	-6.205474e-06	-5.034298e-09	-5.247927e+01	-3.285314e+02
2.100000e-07	-6.156896e-06	-5.001980e-09	-5.206845e+01	-3.276251e+02
2.200000e-07	-6.105669e-06	-4.930669e-09	-5.163523e+01	-3.266646e+02
2.300000e-07	-6.051927e-06	-4.912983e-09	-5.118073e+01	-3.256593e+02
2.400000e-07	-5.995982e-06	-4.925775e-09	-5.070761e+01	-3.246182e+02
2.500000e-07	-5.937857e-06	-4.983353e-09	-5.021605e+01	-3.235485e+02
2.600000e-07	-5.877542e-06	-4.950756e-09	-4.970597e+01	-3.224552e+02
2.700000e-07	-5.815161e-06	-4.872518e-09	-4.917842e+01	-3.213403e+02
2.800000e-07	-5.750745e-06	-4.850746e-09	-4.863366e+01	-3.202023e+02
2.900000e-07	-5.684211e-06	-4.888565e-09	-4.807098e+01	-3.190369e+02
3.000000e-07	-5.615537e-06	-4.906555e-09	-4.749021e+01	-3.178370e+02
3.100000e-07	-5.544885e-06	-4.817538e-09	-4.689271e+01	-3.165937e+02
3.200000e-07	-5.472364e-06	-4.765339e-09	-4.627941e+01	-3.152976e+02
3.300000e-07	-5.397642e-06	-4.760171e-09	-4.564749e+01	-3.139394e+02
3.400000e-07	-5.320584e-06	-4.762143e-09	-4.499581e+01	-3.125118e+02
3.500000e-07	-5.241343e-06	-4.750620e-09	-4.432568e+01	-3.110094e+02
3.600000e-07	-5.160042e-06	-4.693669e-09	-4.363812e+01	-3.094300e+02
3.700000e-07	-5.077045e-06	-4.648895e-09	-4.293622e+01	-3.077742e+02
3.800000e-07	-4.992478e-06	-4.630340e-09	-4.222104e+01	-3.060457e+02
3.900000e-07	-4.906307e-06	-4.653437e-09	-4.149230e+01	-3.042499e+02
4.000000e-07	-4.818547e-06	-4.625348e-09	-4.075012e+01	-3.023936e+02
4.100000e-07	-4.728977e-06	-4.547062e-09	-3.999264e+01	-3.004831e+02
4.200000e-07	-4.637535e-06	-4.524599e-09	-3.921932e+01	-2.985237e+02
4.300000e-07	-4.544425e-06	-4.545232e-09	-3.843189e+01	-2.965186e+02
4.400000e-07	-4.449771e-06	-4.519965e-09	-3.763141e+01	-2.944676e+02
4.500000e-07	-4.353541e-06	-4.448163e-09	-3.681760e+01	-2.923677e+02
4.600000e-07	-4.255666e-06	-4.418964e-09	-3.598987e+01	-2.902127e+02
4.700000e-07	-4.156234e-06	-4.398422e-09	-3.514898e+01	-2.879938e+02
4.800000e-07	-4.055353e-06	-4.351711e-09	-3.429584e+01	-2.857009e+02
4.900000e-07	-3.953071e-06	-4.307881e-09	-3.343085e+01	-2.833232e+02
5.000000e-07	-3.849395e-06	-4.266668e-09	-3.255407e+01	-2.808507e+02
5.100000e-07	-3.744283e-06	-4.210363e-09	-3.166514e+01	-2.782753e+02
5.200000e-07	-3.637736e-06	-4.172230e-09	-3.076409e+01	-2.755907e+02
5.300000e-07	-3.529831e-06	-4.157752e-09	-2.985154e+01	-2.727935e+02
5.400000e-07	-3.420697e-06	-4.109360e-09	-2.892860e+01	-2.698823e+02
5.500000e-07	-3.310445e-06	-4.048735e-09	-2.799621e+01	-2.668571e+02
5.600000e-07	-3.199083e-06	-4.019120e-09	-2.705443e+01	-2.637184e+02
5.700000e-07	-3.086424e-06	-3.989967e-09	-2.610168e+01	-2.604656e+02
5.800000e-07	-2.972401e-06	-3.926835e-09	-2.513739e+01	-2.570961e+02
5.900000e-07	-2.857159e-06	-3.863900e-09	-2.416279e+01	-2.536036e+02
6.000000e-07	-2.740753e-06	-3.816820e-09	-2.317836e+01	-2.499783e+02
6.100000e-07	-2.623351e-06	-3.760249e-09	-2.218550e+01	-2.462059e+02
6.200000e-07	-2.505127e-06	-3.688247e-09	-2.118569e+01	-2.422685e+02
6.300000e-07	-2.386080e-06	-3.615152e-09	-2.017891e+01	-2.381451e+02
6.400000e-07	-2.266104e-06	-3.548695e-09	-1.916429e+01	-2.338131e+02
6.500000e-07	-2.145201e-06	-3.479048e-09	-1.814182e+01	-2.292492e+02
6.600000e-07	-2.023503e-06	-3.403879e-09	-1.711263e+01	-2.244310e+02
6.700000e-07	-1.901091e-06	-3.326813e-09	-1.607740e+01	-2.193373e+02
6.800000e-07	-1.777983e-06	-3.250316e-09	-1.503628e+01	-2.139486e+02
6.900000e-07	-1.654209e-06	-3.168463e-09	-1.398954e+01	-2.082463e+02
7.000000e-07	-1.529827e-06	-3.080895e-09	-1.293765e+01	-2.022116e+02
7.100000e-07	-1.404876e-06	-2.986787e-09	-1.188094e+01	-1.958231e+02
7.200000e-07	-1.279501e-06	-2.882421e-09	-1.082065e+01	-1.890550e+02
7.300000e-07	-1.153796e-06	-2.770616e-09	-9.757569e+00	-1.818742e+02
7.400000e-07	-1.027738e-06	-2.656004e-09	-8.691508e+00	-1.742385e+02
7.500000e-07	-9.013495e-07	-2.531237e-09	-7.622651e+00	-1.660956e+02
7.600000e-07	-7.746323e-07	-2.386671e-09	-6.551012e+00	-1.573834e+02
7.700000e-07	-6.476635e-07	-2.236847e-09	-5.477245e+00	-1.480308e+02
7.800000e-07	-5.205098e-07	-2.087261e-09	-4.401915e+00	-1.379621e+02
7.900000e-07	-3.931837e-07	-1.923130e-09	-3.325128e+00	-1.271012e+02
8.000000e-07	-2.657141e-07	-1.738640e-09	-2.247126e+00	-1.153783e+02
8.100000e-07	-1.380959e-07	-1.545166e-09	-1.167867e+00	-1.027366e+02
8.200000e-07	-1.037686e-08	-1.343623e-09	-8.775641e-02	-8.914025e+01
8.300000e-07	1.173288e-07	-1.122380e-09	9.922420e-01	-7.458089e+01
8.400000e-07	2.449843e-07	-8.831024e-10	2.071815e+00	-5.908360e+01
8.500000e-07	3.725743e-07	-6.338115e-10	3.150835e+00	-4.271067e+01
8.600000e-07	5.000589e-07	-3.759114e-10	4.228964e+00	-2.556301e+01
8.700000e-07	6.273818e-07	-1.081556e-10	5.305725e+00	-7.778835e+00
8.800000e-07	7.544399e-07	1.687190e-10	6.380247e+00	1.047060e+01
8.900000e-07	8.812009e-07	4.529283e-10	7.452256e+00	2.898782e+01
9.000000e-07	1.007723e-06	7.386261e-10	8.522246e+00	4.755818e+01
9.100000e-07	1.133943e-06	1.017736e-09	9.589676e+00	6.596044e+01
9.200000e-07	1.259749e-06	1.289648e-09	1.065361e+01	8.397797e+01
9.300000e-07	1.385134e-06	1.556144e-09	1.171398e+01	1.014097e+02
9.400000e-07	1.510101e-06	1.812450e-09	1.277082e+01	1.180800e+02
9.500000e-07	1.634601e-06	2.051136e-09	1.382371e+01	1.338463e+02
9.600000e-07	1.758584e-06	2.270292e-09	1.487222e+01	1.486050e+02
9.700000e-07	1.881969e-06	2.474286e-09	1.591569e+01	1.622933e+02
9.800000e-07	2.004641e-06	2.664300e-09	1.695311e+01	1.748891e+02
9.900000e-07	2.126545e-06	2.835600e-09	1.798404e+01	1.864079e+02
1.000000e-06	2.247632e-06	2.988875e-09	1.900807e+01	1.968970e+02
1.010000e-06	2.367861e-06	3.132654e-09	2.002483e+01	2.064286e+02
1.020000e-06	2.487215e-06	3.269501e-09	2.103421e+01	2.150916e+02
1.030000e-06	2.605658e-06	3.392233e-09	2.203587e+01	2.229834e+02
1.040000e-06	2.723171e-06	3.501806e-09	2.302967e+01	2.302027e+02
1.050000e-06	2.839737e-06	3.603289e-09	2.401546e+01	2.368425e+02
1.060000e-06	2.955183e-06	3.699603e-09	2.499178e+01	2.429856e+02
1.070000e-06	3.069372e-06	3.792015e-09	2.595747e+01	2.487019e+02
1.080000e-06	3.182323e-06	3.874641e-09	2.691269e+01	2.540469e+02
1.090000e-06	3.294078e-06	3.946305e-09	2.785779e+01	2.590621e+02
1.100000e-06	3.404648e-06	4.013273e-09	2.879288e+01	2.637774e+02
1.110000e-06	3.514097e-06	4.080521e-09	2.971847e+01	2.682131e+02
1.120000e-06	3.622463e-06	4.145494e-09	3.063492e+01	2.723831e+02
1.130000e-06	3.729588e-06	4.203469e-09	3.154087e+01	2.762982e+02
1.140000e-06	3.835330e-06	4.256410e-09	3.243513e+01	2.799681e+02
1.150000e-06	3.939644e-06	4.308844e-09	3.331730e+01	2.834038e+02
1.160000e-06	4.042458e-06	4.358360e-09	3.418679e+01	2.866180e+02
1.170000e-06	4.143839e-06	4.401374e-09	3.504416e+01	2.896261e+02
1.180000e-06	4.243907e-06	4.438713e-09	3.589043e+01	2.924450e+02
1.190000e-06	4.342412e-06	4.474997e-09	3.672348e+01	2.950925e+02
1.200000e-06	4.439181e-06	4.511343e-09	3.754185e+01	2.975864e+02
1.210000e-06	4.534317e-06	4.548005e-09	3.834641e+01	2.999427e+02
1.220000e-06	4.627900e-06	4.582728e-09	3.913783e+01	3.021752e+02
1.230000e-06	4.720050e-06	4.613300e-09	3.991714e+01	3.042946e+02
1.240000e-06	4.810553e-06	4.642634e-09	4.068252e+01	3.063086e+02
1.250000e-06	4.899234e-06	4.672148e-09	4.143249e+01	3.082219e+02
1.260000e-06	4.986133e-06	4.699832e-09	4.216739e+01	3.100373e+02
1.270000e-06	5.071322e-06	4.724028e-09	4.288782e+01	3.117560e+02
1.280000e-06	5.154848e-06	4.746256e-09	4.359419e+01	3.133793e+02
1.290000e-06	5.236540e-06	4.767278e-09	4.428506e+01	3.149089e+02
1.300000e-06	5.316291e-06	4.788717e-09	4.495951e+01	3.163478e+02
1.310000e-06	5.394170e-06	4.808969e-09	4.561813e+01	3.177006e+02
1.320000e-06	5.470116e-06	4.827687e-09	4.626039e+01	3.189735e+02
1.330000e-06	5.543921e-06	4.846400e-09	4.688456e+01	3.201740e+02
1.340000e-06	5.615632e-06	4.866518e-09	4.749102e+01	3.213103e+02
1.350000e-06	5.685353e-06	4.885186e-09	4.808064e+01	3.223906e+02
1.360000e-06	5.753067e-06	4.901030e-09	4.865329e+01	3.234221e+02
1.370000e-06	5.818726e-06	4.916266e-09	4.920857e+01	3.244109e+02
1.380000e-06	5.882313e-06	4.931052e-09	4.974632e+01	3.253611e+02
1.390000e-06	5.943900e-06	4.945794e-09	5.026715e+01	3.262746e+02
1.400000e-06	6.003544e-06	4.959068e-09	5.077156e+01	3.271516e+02
1.410000e-06	6.061056e-06	4.971968e-09	5.125793e+01	3.279908e+02
1.420000e-06	6.116300e-06	4.984661e-09	5.172513e+01	3.287897e+02
1.430000e-06	6.169271e-06	4.997762e-09	5.217310e+01	3.295456e+02
1.440000e-06	6.219681e-06	5.012243e-09	5.259941e+01	3.302562e+02
1.450000e-06	6.267513e-06	5.025916e-09	5.300392e+01	3.309201e+02
1.460000e-06	6.313150e-06	5.038287e-09	5.338987e+01	3.315372e+02
1.470000e-06	6.356736e-06	5.047937e-09	5.375848e+01	3.321092e+02
1.480000e-06	6.398028e-06	5.056888e-09	5.410768e+01	3.326388e+02
1.490000e-06	6.436949e-06	5.065886e-09	5.443683e+01	3.331302e+02
1.500000e-06	6.473717e-06	5.072960e-09	5.474778e+01	3.335880e+02
1.510000e-06	6.508259e-06	5.079506e-09	5.503990e+01	3.340171e+02
1.520000e-06	6.540444e-06	5.086170e-09	5.531208e+01	3.344216e+02
1.530000e-06	6.570374e-06	5.095227e-09	5.556520e+01	3.348047e+02
1.540000e-06	6.598110e-06	5.104690e-09	5.579977e+01	3.351682e+02
1.550000e-06	6.623459e-06	5.112884e-09	5.601414e+01	3.355122e+02
1.560000e-06	6.646316e-06	5.119562e-09	5.620744e+01	3.358351e+02
1.570000e-06	6.666914e-06	5.124461e-09	5.638163e+01	3.361339e+02
1.580000e-06	6.685304e-06	5.128993e-09	5.653716e+01	3.364045e+02
1.590000e-06	6.701278e-06	5.132898e-09	5.667225e+01	3.366424e+02
1.600000e-06	6.714780e-06	5.136974e-09	5.678644e+01	3.368432e+02
1.610000e-06	6.725708e-06	5.139846e-09	5.687885e+01	3.370029e+02
1.620000e-06	6.734002e-06	5.141935e-09	5.694900e+01	3.371190e+02
1.630000e-06	6.739913e-06	5.146194e-09	5.699898e+01	3.371903e+02
1.640000e-06	6.743617e-06	5.150713e-09	5.703031e+01	3.372173e+02
1.650000e-06	6.744941e-06	5.153791e-09	5.704150e+01	3.372023e+02
1.660000e-06	6.743838e-06	5.151724e-09	5.703218e+01	3.371493e+02
1.670000e-06	6.740613e-06	5.150455e-09	5.700491e+01	3.370633e+02
1.680000e-06	6.735257e-06	5.149247e-09	5.695961e+01	3.369502e+02
1.690000e-06	6.727604e-06	5.147260e-09	5.689488e+01	3.368159e+02
1.700000e-06	6.717765e-06	5.146840e-09	5.681168e+01	3.366658e+02
1.710000e-06	6.705742e-06	5.149027e-09	5.671000e+01	3.365043e+02
1.720000e-06	6.691269e-06	5.157910e-09	5.658761e+01	3.363339e+02
1.730000e-06	6.674523e-06	5.137796e-09	5.644598e+01	3.361553e+02
1.740000e-06	6.655704e-06	5.065259e-09	5.628683e+01	3.359667e+02
1.750000e-06	6.634076e-06	5.061957e-09	5.610393e+01	3.357638e+02
1.760000e-06	6.609181e-06	5.090282e-09	5.589339e+01	3.355402e+02
1.770000e-06	6.581701e-06	5.098018e-09	5.566099e+01	3.352877e+02
1.780000e-06	6.552211e-06	5.173709e-09	5.541160e+01	3.349968e+02
1.790000e-06	6.520918e-06	5.189982e-09	5.514696e+01	3.346575e+02
1.800000e-06	6.488069e-06	5.073922e-09	5.486915e+01	3.342603e+02
1.810000e-06	6.453230e-06	5.090631e-09	5.457452e+01	3.337965e+02
1.820000e-06	6.416033e-06	5.068085e-09	5.425995e+01	3.332598e+02
1.830000e-06	6.376646e-06	5.081077e-09	5.392686e+01	3.326460e+02
1.840000e-06	6.334972e-06	5.178683e-09	5.357443e+01	3.319543e+02
1.850000e-06	6.291135e-06	5.033845e-09	5.320370e+01	3.311866e+02
1.860000e-06	6.245136e-06	5.004533e-09	5.281468e+01	3.303479e+02
1.870000e-06	6.196779e-06	5.038513e-09	5.240573e+01	3.294455e+02
1.880000e-06	6.146228e-06	5.064092e-09	5.197823e+01	3.284882e+02
1.890000e-06	6.093161e-06	5.114639e-09	5.152944e+01	3.274855e+02
1.900000e-06	6.037509e-06	4.922857e-09	5.105880e+01	3.264463e+02
1.910000e-06	5.979680e-06	4.869464e-09	5.056975e+01	3.253781e+02
1.920000e-06	5.919811e-06	4.977931e-09	5.006344e+01	3.242860e+02
1.930000e-06	5.857869e-06	5.000947e-09	4.953960e+01	3.231723e+02
1.940000e-06	5.793656e-06	4.948992e-09	4.899655e+01	3.220357e+02
1.950000e-06	5.727366e-06	4.797849e-09	4.843594e+01	3.208721e+02
1.960000e-06	5.659051e-06	4.850858e-09	4.785820e+01	3.196745e+02
1.970000e-06	5.588437e-06	4.908475e-09	4.726102e+01	3.184343e+02
1.980000e-06	5.515700e-06	4.905664e-09	4.664590e+01	3.171419e+02
1.990000e-06	5.440994e-06	4.846224e-09	4.601411e+01	3.157881e+02
2.000000e-06	5.364253e-06	4.718188e-09	4.536512e+01	3.143653e+02
2.010000e-06	5.285397e-06	4.780206e-09	4.469824e+01	3.128679e+02
2.020000e-06	5.204567e-06	4.826244e-09	4.401467e+01	3.112937e+02
2.030000e-06	5.121979e-06	4.786318e-09	4.331622e+01	3.096429e+02
2.040000e-06	5.037535e-06	4.657077e-09	4.260209e+01	3.079191e+02
2.050000e-06	4.951196e-06	4.629259e-09	4.187193e+01	3.061275e+02
2.060000e-06	4.863019e-06	4.706375e-09	4.112622e+01	3.042749e+02
2.070000e-06	4.773199e-06	4.664915e-09	4.036662e+01	3.023677e+02
2.080000e-06	4.681879e-06	4.580312e-09	3.959433e+01	3.004114e+02
2.090000e-06	4.588939e-06	4.504073e-09	3.880835e+01	2.984091e+02
2.100000e-06	4.494207e-06	4.516109e-09	3.800720e+01	2.963611e+02
2.110000e-06	4.397801e-06	4.517408e-09	3.719190e+01	2.942645e+02
2.120000e-06	4.299956e-06	4.476059e-09	3.636443e+01	2.921133e+02
2.130000e-06	4.200721e-06	4.402618e-09	3.552521e+01	2.898990e+02
2.140000e-06	4.099971e-06	4.352700e-09	3.467317e+01	2.876113e+02
2.150000e-06	3.997543e-06	4.373633e-09	3.380695e+01	2.852396e+02
2.160000e-06	3.893562e-06	4.364415e-09	3.292759e+01	2.827739e+02
2.170000e-06	3.788267e-06	4.295568e-09	3.203712e+01	2.802056e+02
2.180000e-06	3.681762e-06	4.214759e-09	3.113641e+01	2.775287e+02
2.190000e-06	3.574118e-06	4.203334e-09	3.022607e+01	2.747392e+02
2.200000e-06	3.465253e-06	4.183514e-09	2.930540e+01	2.718358e+02
2.210000e-06	3.355034e-06	4.112015e-09	2.837329e+01	2.688183e+02
2.220000e-06	3.243563e-06	4.036656e-09	2.743059e+01	2.656874e+02
2.230000e-06	3.130930e-06	3.996759e-09	2.647806e+01	2.624425e+02
2.240000e-06	3.017092e-06	3.960520e-09	2.551534e+01	2.590810e+02
2.250000e-06	2.902140e-06	3.899716e-09	2.454320e+01	2.555973e+02
2.260000e-06	2.786108e-06	3.839907e-09	2.356193e+01	2.519815e+02
2.270000e-06	2.668881e-06	3.788411e-09	2.257054e+01	2.482199e+02
2.280000e-06	2.550464e-06	3.739012e-09	2.156910e+01	2.442945e+02
2.290000e-06	2.431048e-06	3.675798e-09	2.055921e+01	2.401848e+02
2.300000e-06	2.310719e-06	3.609131e-09	1.954159e+01	2.358681e+02
2.310000e-06	2.189544e-06	3.541327e-09	1.851683e+01	2.313212e+02
2.320000e-06	2.067733e-06	3.471458e-09	1.748667e+01	2.265214e+02
2.330000e-06	1.945323e-06	3.393236e-09	1.645146e+01	2.214477e+02
2.340000e-06	1.822235e-06	3.305543e-09	1.541052e+01	2.160803e+02
2.350000e-06	1.698558e-06	3.210582e-09	1.436459e+01	2.104007e+02
2.360000e-06	1.574388e-06	3.123514e-09	1.331449e+01	2.043900e+02
2.370000e-06	1.449565e-06	3.038999e-09	1.225887e+01	1.980273e+02
2.380000e-06	1.324048e-06	2.930766e-09	1.119738e+01	1.912869e+02
2.390000e-06	1.198006e-06	2.807212e-09	1.013145e+01	1.841364e+02
2.400000e-06	1.071615e-06	2.694146e-09	9.062570e+00	1.765345e+02
2.410000e-06	9.448964e-07	2.589978e-09	7.990924e+00	1.684295e+02
2.420000e-06	8.178472e-07	2.458685e-09	6.916478e+00	1.597598e+02
2.430000e-06	6.905030e-07	2.300556e-09	5.839537e+00	1.504551e+02
2.440000e-06	5.629207e-07	2.146712e-09	4.760582e+00	1.404397e+02
2.450000e-06	4.351729e-07	1.996866e-09	3.680227e+00	1.296375e+02
2.460000e-06	3.072134e-07	1.826980e-09	2.598083e+00	1.179778e+02
2.470000e-06	1.791158e-07	1.627483e-09	1.514770e+00	1.054029e+02
2.480000e-06	5.096007e-08	1.412725e-09	4.309659e-01	9.187500e+01
2.490000e-06	-7.721814e-08	1.194781e-09	-6.530285e-01	7.738366e+01
2.500000e-06	-2.053044e-07	9.705663e-10	-1.736245e+00	6.195139e+01
2.510000e-06	-3.332438e-07	7.253228e-10	-2.818220e+00	4.563775e+01
2.520000e-06	-4.610816e-07	4.557225e-10	-3.899335e+00	2.854091e+01
2.530000e-06	-5.887955e-07	1.797772e-10	-4.979403e+00	1.079651e+01
2.540000e-06	-7.162618e-07	-9.054478e-11	-6.057377e+00	-7.426346e+00
2.550000e-06	-8.434293e-07	-3.672196e-10	-7.132824e+00	-2.593177e+01
2.560000e-06	-9.702798e-07	-6.594037e-10	-8.205590e+00	-4.450603e+01
2.570000e-06	-1.096772e-06	-9.526886e-10	-9.275328e+00	-6.292796e+01
2.580000e-06	-1.222829e-06	-1.229596e-09	-1.034138e+01	-8.098025e+01
2.590000e-06	-1.348387e-06	-1.491080e-09	-1.140321e+01	-9.846036e+01
2.600000e-06	-1.473427e-06	-1.748202e-09	-1.246067e+01	-1.151905e+02
2.610000e-06	-1.597911e-06	-1.996356e-09	-1.351342e+01	-1.310257e+02
2.620000e-06	-1.721799e-06	-2.223823e-09	-1.456113e+01	-1.458593e+02
2.630000e-06	-1.845020e-06	-2.429427e-09	-1.560320e+01	-1.596256e+02
2.640000e-06	-1.967531e-06	-2.622310e-09	-1.663927e+01	-1.722998e+02
2.650000e-06	-2.089382e-06	-2.802682e-09	-1.766976e+01	-1.838946e+02
2.660000e-06	-2.210554e-06	-2.965583e-09	-1.869451e+01	-1.944555e+02
2.670000e-06	-2.330953e-06	-3.113422e-09	-1.971271e+01	-2.040530e+02
2.680000e-06	-2.450455e-06	-3.247147e-09	-2.072333e+01	-2.127752e+02
2.690000e-06	-2.568971e-06	-3.369686e-09	-2.172561e+01	-2.207193e+02
2.700000e-06	-2.686463e-06	-3.484513e-09	-2.271923e+01	-2.279838e+02
2.710000e-06	-2.802885e-06	-3.589971e-09	-2.370380e+01	-2.346624e+02
2.720000e-06	-2.918165e-06	-3.682115e-09	-2.467872e+01	-2.408389e+02
2.730000e-06	-3.032211e-06	-3.765896e-09	-2.564320e+01	-2.465841e+02
2.740000e-06	-3.144978e-06	-3.847400e-09	-2.659686e+01	-2.519543e+02
2.750000e-06	-3.256478e-06	-3.924462e-09	-2.753981e+01	-2.569924e+02
2.760000e-06	-3.366756e-06	-3.995933e-09	-2.847243e+01	-2.617287e+02
2.770000e-06	-3.475866e-06	-4.062002e-09	-2.939516e+01	-2.661842e+02
2.780000e-06	-3.583879e-06	-4.126018e-09	-3.030862e+01	-2.703732e+02
2.790000e-06	-3.690711e-06	-4.188341e-09	-3.121209e+01	-2.743065e+02
2.800000e-06	-3.796299e-06	-4.245953e-09	-3.210504e+01	-2.779940e+02
2.810000e-06	-3.900556e-06	-4.300428e-09	-3.298674e+01	-2.814463e+02
2.820000e-06	-4.003249e-06	-4.354400e-09	-3.385520e+01	-2.846763e+02
2.830000e-06	-4.104460e-06	-4.404697e-09	-3.471113e+01	-2.876989e+02
2.840000e-06	-4.204254e-06	-4.449416e-09	-3.555509e+01	-2.905310e+02
2.850000e-06	-4.302605e-06	-4.492177e-09	-3.638684e+01	-2.931906e+02
2.860000e-06	-4.399596e-06	-4.532190e-09	-3.720708e+01	-2.956952e+02
2.870000e-06	-4.495078e-06	-4.568755e-09	-3.801457e+01	-2.980613e+02
2.880000e-06	-4.588867e-06	-4.604365e-09	-3.880773e+01	-3.003026e+02
2.890000e-06	-4.680991e-06	-4.638812e-09	-3.958682e+01	-3.024302e+02
2.900000e-06	-4.771520e-06	-4.669233e-09	-4.035241e+01	-3.044519e+02
2.910000e-06	-4.860472e-06	-4.697404e-09	-4.110468e+01	-3.063726e+02
2.920000e-06	-4.947653e-06	-4.726023e-09	-4.184196e+01	-3.081953e+02
2.930000e-06	-5.032957e-06	-4.752649e-09	-4.256337e+01	-3.099213e+02
2.940000e-06	-5.116479e-06	-4.776296e-09	-4.326972e+01	-3.115517e+02
