# Temperatura_=_20.0
# Concentracion g/m^3_=_9000.0
# C_Vs_to_Am_M_A/Vsm_=_65563218390.804596
# pendiente_HvsI_1/m_=_3716.3
# ordenada_HvsI_A/m_=_1297.0
# frecuencia_Hz_=_301074.3020982398

Tiempo_(s)	Campo_(V.s)	Magnetizacion_(V.s)	Campo_(kA/m)	Magnetizacion_(A/m)
0.000000e+00	-6.711517e-06	-5.112272e-09	-5.670086e+01	-3.349769e+02
1.000000e-08	-6.708190e-06	-5.114147e-09	-5.667275e+01	-3.348699e+02
2.000000e-08	-6.702701e-06	-5.110828e-09	-5.662638e+01	-3.347300e+02
3.000000e-08	-6.695140e-06	-5.106257e-09	-5.656250e+01	-3.345622e+02
4.000000e-08	-6.685245e-06	-5.100842e-09	-5.647890e+01	-3.343720e+02
5.000000e-08	-6.672823e-06	-5.096966e-09	-5.637396e+01	-3.341646e+02
6.000000e-08	-6.657932e-06	-5.087067e-09	-5.624816e+01	-3.339444e+02
7.000000e-08	-6.640737e-06	-5.077911e-09	-5.610289e+01	-3.337145e+02
8.000000e-08	-6.621502e-06	-5.122918e-09	-5.594039e+01	-3.334762e+02
9.000000e-08	-6.599965e-06	-5.161234e-09	-5.575844e+01	-3.332291e+02
1.000000e-07	-6.575684e-06	-5.126330e-09	-5.555331e+01	-3.329702e+02
1.100000e-07	-6.548777e-06	-5.088267e-09	-5.532599e+01	-3.326943e+02
1.200000e-07	-6.519596e-06	-5.063298e-09	-5.507945e+01	-3.323942e+02
1.300000e-07	-6.488497e-06	-4.986403e-09	-5.481672e+01	-3.320611e+02
1.400000e-07	-6.455574e-06	-4.977990e-09	-5.453858e+01	-3.316855e+02
1.500000e-07	-6.420617e-06	-5.125222e-09	-5.424325e+01	-3.312575e+02
1.600000e-07	-6.383592e-06	-5.064189e-09	-5.393045e+01	-3.307682e+02
1.700000e-07	-6.344572e-06	-5.004710e-09	-5.360080e+01	-3.302102e+02
1.800000e-07	-6.303224e-06	-5.018567e-09	-5.325148e+01	-3.295785e+02
1.900000e-07	-6.259373e-06	-4.958929e-09	-5.288102e+01	-3.288712e+02
2.000000e-07	-6.213320e-06	-5.027035e-09	-5.249195e+01	-3.280894e+02
2.100000e-07	-6.164898e-06	-5.003088e-09	-5.208286e+01	-3.272371e+02
2.200000e-07	-6.113825e-06	-4.933119e-09	-5.165139e+01	-3.263210e+02
2.300000e-07	-6.060233e-06	-4.909021e-09	-5.119862e+01	-3.253496e+02
2.400000e-07	-6.004320e-06	-4.903432e-09	-5.072625e+01	-3.243321e+02
2.500000e-07	-5.946191e-06	-4.974530e-09	-5.023516e+01	-3.232771e+02
2.600000e-07	-5.885890e-06	-4.946639e-09	-4.972572e+01	-3.221921e+02
2.700000e-07	-5.823500e-06	-4.861962e-09	-4.919864e+01	-3.210819e+02
2.800000e-07	-5.759098e-06	-4.847059e-09	-4.865454e+01	-3.199484e+02
2.900000e-07	-5.692574e-06	-4.882904e-09	-4.809253e+01	-3.187902e+02
3.000000e-07	-5.623891e-06	-4.900965e-09	-4.751228e+01	-3.176027e+02
3.100000e-07	-5.553216e-06	-4.815890e-09	-4.691519e+01	-3.163790e+02
3.200000e-07	-5.480613e-06	-4.774367e-09	-4.630182e+01	-3.151102e+02
3.300000e-07	-5.405843e-06	-4.755355e-09	-4.567014e+01	-3.137873e+02
3.400000e-07	-5.328786e-06	-4.752982e-09	-4.501915e+01	-3.124016e+02
3.500000e-07	-5.249566e-06	-4.758035e-09	-4.434987e+01	-3.109464e+02
3.600000e-07	-5.168352e-06	-4.701499e-09	-4.366375e+01	-3.094173e+02
3.700000e-07	-5.085384e-06	-4.650670e-09	-4.296281e+01	-3.078131e+02
3.800000e-07	-5.000809e-06	-4.627368e-09	-4.224830e+01	-3.061352e+02
3.900000e-07	-4.914678e-06	-4.657460e-09	-4.152064e+01	-3.043876e+02
4.000000e-07	-4.826939e-06	-4.631003e-09	-4.077940e+01	-3.025758e+02
4.100000e-07	-4.737412e-06	-4.550824e-09	-4.002304e+01	-3.007056e+02
4.200000e-07	-4.646035e-06	-4.526254e-09	-3.925106e+01	-2.987823e+02
4.300000e-07	-4.552972e-06	-4.543920e-09	-3.846484e+01	-2.968089e+02
4.400000e-07	-4.458338e-06	-4.518905e-09	-3.766534e+01	-2.947859e+02
4.500000e-07	-4.362167e-06	-4.452176e-09	-3.685287e+01	-2.927104e+02
4.600000e-07	-4.264366e-06	-4.427760e-09	-3.602661e+01	-2.905763e+02
4.700000e-07	-4.164904e-06	-4.402757e-09	-3.518632e+01	-2.883747e+02
4.800000e-07	-4.064000e-06	-4.357148e-09	-3.433386e+01	-2.860946e+02
4.900000e-07	-3.961727e-06	-4.321964e-09	-3.346983e+01	-2.837246e+02
5.000000e-07	-3.857961e-06	-4.284434e-09	-3.259318e+01	-2.812533e+02
5.100000e-07	-3.752791e-06	-4.223343e-09	-3.170468e+01	-2.786714e+02
5.200000e-07	-3.646248e-06	-4.182623e-09	-3.080457e+01	-2.759715e+02
5.300000e-07	-3.538280e-06	-4.167220e-09	-2.989242e+01	-2.731494e+02
5.400000e-07	-3.429125e-06	-4.116116e-09	-2.897025e+01	-2.702035e+02
5.500000e-07	-3.318917e-06	-4.052987e-09	-2.803918e+01	-2.671343e+02
5.600000e-07	-3.207493e-06	-4.022444e-09	-2.709784e+01	-2.639432e+02
5.700000e-07	-3.094787e-06	-3.992687e-09	-2.614567e+01	-2.606313e+02
5.800000e-07	-2.980812e-06	-3.928320e-09	-2.518277e+01	-2.571983e+02
5.900000e-07	-2.865553e-06	-3.867527e-09	-2.420903e+01	-2.536407e+02
6.000000e-07	-2.749108e-06	-3.821042e-09	-2.322527e+01	-2.499510e+02
6.100000e-07	-2.631663e-06	-3.763276e-09	-2.223306e+01	-2.461177e+02
6.200000e-07	-2.513380e-06	-3.691867e-09	-2.123377e+01	-2.421251e+02
6.300000e-07	-2.394170e-06	-3.620298e-09	-2.022665e+01	-2.379540e+02
6.400000e-07	-2.274002e-06	-3.551756e-09	-1.921144e+01	-2.335829e+02
6.500000e-07	-2.153072e-06	-3.481185e-09	-1.818978e+01	-2.289889e+02
6.600000e-07	-2.031447e-06	-3.406220e-09	-1.716226e+01	-2.241496e+02
6.700000e-07	-1.909051e-06	-3.326563e-09	-1.612822e+01	-2.190431e+02
6.800000e-07	-1.785855e-06	-3.246855e-09	-1.508743e+01	-2.136489e+02
6.900000e-07	-1.661945e-06	-3.164571e-09	-1.404060e+01	-2.079473e+02
7.000000e-07	-1.537469e-06	-3.078936e-09	-1.298899e+01	-2.019180e+02
7.100000e-07	-1.412550e-06	-2.984665e-09	-1.193363e+01	-1.955385e+02
7.200000e-07	-1.287202e-06	-2.880232e-09	-1.087466e+01	-1.887816e+02
7.300000e-07	-1.161406e-06	-2.767262e-09	-9.811896e+00	-1.816133e+02
7.400000e-07	-1.035195e-06	-2.651604e-09	-8.745630e+00	-1.739905e+02
7.500000e-07	-9.086498e-07	-2.527367e-09	-7.676540e+00	-1.658602e+02
7.600000e-07	-7.818219e-07	-2.384371e-09	-6.605060e+00	-1.571591e+02
7.700000e-07	-6.546896e-07	-2.235026e-09	-5.531009e+00	-1.478155e+02
7.800000e-07	-5.272519e-07	-2.084872e-09	-4.454378e+00	-1.377526e+02
7.900000e-07	-3.996164e-07	-1.921493e-09	-3.376076e+00	-1.268931e+02
8.000000e-07	-2.718301e-07	-1.737086e-09	-2.296500e+00	-1.151661e+02
8.100000e-07	-1.438816e-07	-1.544576e-09	-1.215554e+00	-1.025139e+02
8.200000e-07	-1.583758e-08	-1.343306e-09	-1.338005e-01	-8.889979e+01
8.300000e-07	1.122101e-07	-1.120892e-09	9.479839e-01	-7.431499e+01
8.400000e-07	2.401505e-07	-8.793721e-10	2.028861e+00	-5.878471e+01
8.500000e-07	3.679302e-07	-6.298013e-10	3.108382e+00	-4.237199e+01
8.600000e-07	4.955584e-07	-3.721605e-10	4.186622e+00	-2.517928e+01
8.700000e-07	6.230240e-07	-1.029157e-10	5.263489e+00	-7.346966e+00
8.800000e-07	7.502583e-07	1.754640e-10	6.338402e+00	1.095083e+01
8.900000e-07	8.772311e-07	4.607362e-10	7.411105e+00	2.951332e+01
9.000000e-07	1.003901e-06	7.465144e-10	8.481247e+00	4.812234e+01
9.100000e-07	1.130201e-06	1.025812e-09	9.548269e+00	6.655315e+01
9.200000e-07	1.256108e-06	1.296584e-09	1.061197e+01	8.458595e+01
9.300000e-07	1.381585e-06	1.561880e-09	1.167203e+01	1.020171e+02
9.400000e-07	1.506652e-06	1.817003e-09	1.272864e+01	1.186694e+02
9.500000e-07	1.631293e-06	2.055831e-09	1.378164e+01	1.343996e+02
9.600000e-07	1.755406e-06	2.276215e-09	1.483018e+01	1.491044e+02
9.700000e-07	1.878891e-06	2.480003e-09	1.587342e+01	1.627228e+02
9.800000e-07	2.001634e-06	2.668857e-09	1.691039e+01	1.752352e+02
9.900000e-07	2.123571e-06	2.838425e-09	1.794055e+01	1.866605e+02
1.000000e-06	2.244783e-06	2.989974e-09	1.896458e+01	1.970498e+02
1.010000e-06	2.365270e-06	3.130185e-09	1.998249e+01	2.064797e+02
1.020000e-06	2.484837e-06	3.263250e-09	2.099263e+01	2.150433e+02
1.030000e-06	2.603393e-06	3.384787e-09	2.199423e+01	2.228422e+02
1.040000e-06	2.721028e-06	3.494658e-09	2.298804e+01	2.299782e+02
1.050000e-06	2.837768e-06	3.595253e-09	2.397429e+01	2.365472e+02
1.060000e-06	2.953416e-06	3.690293e-09	2.495133e+01	2.426342e+02
1.070000e-06	3.067819e-06	3.781482e-09	2.591783e+01	2.483099e+02
1.080000e-06	3.181027e-06	3.863342e-09	2.687425e+01	2.536300e+02
1.090000e-06	3.293004e-06	3.936125e-09	2.782026e+01	2.586356e+02
1.100000e-06	3.403701e-06	4.003078e-09	2.875547e+01	2.633550e+02
1.110000e-06	3.513280e-06	4.070422e-09	2.968121e+01	2.678064e+02
1.120000e-06	3.621812e-06	4.133851e-09	3.059813e+01	2.720015e+02
1.130000e-06	3.729107e-06	4.191472e-09	3.150458e+01	2.759482e+02
1.140000e-06	3.834981e-06	4.245033e-09	3.239904e+01	2.796533e+02
1.150000e-06	3.939412e-06	4.296487e-09	3.328130e+01	2.831247e+02
1.160000e-06	4.042404e-06	4.345795e-09	3.415141e+01	2.863727e+02
1.170000e-06	4.143950e-06	4.391350e-09	3.500931e+01	2.894100e+02
1.180000e-06	4.244108e-06	4.432767e-09	3.585547e+01	2.922516e+02
1.190000e-06	4.342745e-06	4.470424e-09	3.668878e+01	2.949140e+02
1.200000e-06	4.439662e-06	4.506670e-09	3.750756e+01	2.974142e+02
1.210000e-06	4.534922e-06	4.542210e-09	3.831235e+01	2.997683e+02
1.220000e-06	4.628657e-06	4.576733e-09	3.910425e+01	3.019905e+02
1.230000e-06	4.720925e-06	4.606798e-09	3.988375e+01	3.040931e+02
1.240000e-06	4.811563e-06	4.634030e-09	4.064949e+01	3.060854e+02
1.250000e-06	4.900434e-06	4.662136e-09	4.140030e+01	3.079744e+02
1.260000e-06	4.987498e-06	4.691285e-09	4.213584e+01	3.097654e+02
1.270000e-06	5.072797e-06	4.717961e-09	4.285647e+01	3.114620e+02
1.280000e-06	5.156463e-06	4.740906e-09	4.356331e+01	3.130676e+02
1.290000e-06	5.238417e-06	4.761140e-09	4.425568e+01	3.145857e+02
1.300000e-06	5.318428e-06	4.782058e-09	4.493163e+01	3.160204e+02
1.310000e-06	5.396479e-06	4.803786e-09	4.559103e+01	3.173770e+02
1.320000e-06	5.472599e-06	4.823946e-09	4.623412e+01	3.186612e+02
1.330000e-06	5.546636e-06	4.841846e-09	4.685961e+01	3.198797e+02
1.340000e-06	5.618524e-06	4.859349e-09	4.746693e+01	3.210391e+02
1.350000e-06	5.688346e-06	4.877618e-09	4.805681e+01	3.221457e+02
1.360000e-06	5.756198e-06	4.895388e-09	4.863005e+01	3.232047e+02
1.370000e-06	5.821972e-06	4.912147e-09	4.918572e+01	3.242201e+02
1.380000e-06	5.885630e-06	4.927230e-09	4.972352e+01	3.251941e+02
1.390000e-06	5.947367e-06	4.941746e-09	5.024510e+01	3.261272e+02
1.400000e-06	6.007238e-06	4.956681e-09	5.075090e+01	3.270189e+02
1.410000e-06	6.064974e-06	4.971536e-09	5.123867e+01	3.278672e+02
1.420000e-06	6.120412e-06	4.985028e-09	5.170703e+01	3.286700e+02
1.430000e-06	6.173564e-06	4.996452e-09	5.215607e+01	3.294253e+02
1.440000e-06	6.224196e-06	5.008048e-09	5.258383e+01	3.301316e+02
1.450000e-06	6.272253e-06	5.021745e-09	5.298983e+01	3.307885e+02
1.460000e-06	6.317988e-06	5.034296e-09	5.337621e+01	3.313969e+02
1.470000e-06	6.361635e-06	5.042544e-09	5.374495e+01	3.319593e+02
1.480000e-06	6.403032e-06	5.050659e-09	5.409469e+01	3.324790e+02
1.490000e-06	6.442083e-06	5.059986e-09	5.442460e+01	3.329602e+02
1.500000e-06	6.479018e-06	5.068297e-09	5.473664e+01	3.334075e+02
1.510000e-06	6.513714e-06	5.075771e-09	5.502976e+01	3.338255e+02
1.520000e-06	6.546002e-06	5.082861e-09	5.530254e+01	3.342180e+02
1.530000e-06	6.576010e-06	5.090813e-09	5.555605e+01	3.345879e+02
1.540000e-06	6.603904e-06	5.098762e-09	5.579171e+01	3.349366e+02
1.550000e-06	6.629434e-06	5.105408e-09	5.600740e+01	3.352644e+02
1.560000e-06	6.652449e-06	5.111110e-09	5.620183e+01	3.355701e+02
1.570000e-06	6.673214e-06	5.116513e-09	5.637726e+01	3.358511e+02
1.580000e-06	6.691763e-06	5.121310e-09	5.653397e+01	3.361043e+02
1.590000e-06	6.707852e-06	5.125009e-09	5.666989e+01	3.363258e+02
1.600000e-06	6.721445e-06	5.129806e-09	5.678473e+01	3.365117e+02
1.610000e-06	6.732492e-06	5.134470e-09	5.687806e+01	3.366587e+02
1.620000e-06	6.740873e-06	5.136595e-09	5.694887e+01	3.367638e+02
1.630000e-06	6.746781e-06	5.138859e-09	5.699878e+01	3.368252e+02
1.640000e-06	6.750478e-06	5.141913e-09	5.703001e+01	3.368426e+02
1.650000e-06	6.751838e-06	5.145666e-09	5.704150e+01	3.368166e+02
1.660000e-06	6.750817e-06	5.141044e-09	5.703288e+01	3.367494e+02
1.670000e-06	6.747697e-06	5.135951e-09	5.700652e+01	3.366445e+02
1.680000e-06	6.742373e-06	5.133064e-09	5.696154e+01	3.365063e+02
1.690000e-06	6.734693e-06	5.131742e-09	5.689666e+01	3.363399e+02
1.700000e-06	6.724839e-06	5.132918e-09	5.681341e+01	3.361507e+02
1.710000e-06	6.712822e-06	5.136635e-09	5.671188e+01	3.359439e+02
1.720000e-06	6.698401e-06	5.147637e-09	5.659005e+01	3.357241e+02
1.730000e-06	6.681758e-06	5.130063e-09	5.644945e+01	3.354943e+02
1.740000e-06	6.663053e-06	5.045664e-09	5.629142e+01	3.352562e+02
1.750000e-06	6.641526e-06	5.044864e-09	5.610956e+01	3.350094e+02
1.760000e-06	6.616669e-06	5.075479e-09	5.589955e+01	3.347510e+02
1.770000e-06	6.589207e-06	5.074037e-09	5.566755e+01	3.344760e+02
1.780000e-06	6.559754e-06	5.159583e-09	5.541872e+01	3.341775e+02
1.790000e-06	6.528487e-06	5.190065e-09	5.515457e+01	3.338467e+02
1.800000e-06	6.495696e-06	5.046443e-09	5.487754e+01	3.334740e+02
1.810000e-06	6.460924e-06	5.088397e-09	5.458378e+01	3.330496e+02
1.820000e-06	6.423737e-06	5.071710e-09	5.426961e+01	3.325645e+02
1.830000e-06	6.384334e-06	5.059822e-09	5.393672e+01	3.320111e+02
1.840000e-06	6.342691e-06	5.191542e-09	5.358491e+01	3.313844e+02
1.850000e-06	6.298952e-06	5.021475e-09	5.321539e+01	3.306820e+02
1.860000e-06	6.253059e-06	4.997218e-09	5.282767e+01	3.299049e+02
1.870000e-06	6.204770e-06	5.034601e-09	5.241971e+01	3.290570e+02
1.880000e-06	6.154310e-06	5.044540e-09	5.199341e+01	3.281448e+02
1.890000e-06	6.101323e-06	5.134546e-09	5.154576e+01	3.271767e+02
1.900000e-06	6.045647e-06	4.926487e-09	5.107539e+01	3.261616e+02
1.910000e-06	5.987782e-06	4.870122e-09	5.058654e+01	3.251086e+02
1.920000e-06	5.927953e-06	4.980596e-09	5.008108e+01	3.240251e+02
1.930000e-06	5.866025e-06	4.988170e-09	4.955789e+01	3.229162e+02
1.940000e-06	5.801774e-06	4.965867e-09	4.901508e+01	3.217839e+02
1.950000e-06	5.735485e-06	4.804143e-09	4.845506e+01	3.206271e+02
1.960000e-06	5.667164e-06	4.853157e-09	4.787786e+01	3.194415e+02
1.970000e-06	5.596584e-06	4.892108e-09	4.728158e+01	3.182202e+02
1.980000e-06	5.523925e-06	4.901697e-09	4.666774e+01	3.169545e+02
1.990000e-06	5.449249e-06	4.859782e-09	4.603685e+01	3.156353e+02
2.000000e-06	5.372481e-06	4.710159e-09	4.538829e+01	3.142539e+02
2.010000e-06	5.293527e-06	4.776803e-09	4.472126e+01	3.128033e+02
2.020000e-06	5.212607e-06	4.817162e-09	4.403763e+01	3.112792e+02
2.030000e-06	5.129971e-06	4.795393e-09	4.333950e+01	3.096799e+02
2.040000e-06	5.045568e-06	4.666278e-09	4.262643e+01	3.080067e+02
2.050000e-06	4.959334e-06	4.631949e-09	4.189790e+01	3.062635e+02
2.060000e-06	4.871211e-06	4.708430e-09	4.115341e+01	3.044556e+02
2.070000e-06	4.781401e-06	4.664903e-09	4.039468e+01	3.025890e+02
2.080000e-06	4.690018e-06	4.593624e-09	3.962265e+01	3.006688e+02
2.090000e-06	4.596998e-06	4.518599e-09	3.883678e+01	2.986985e+02
2.100000e-06	4.502261e-06	4.528658e-09	3.803642e+01	2.966787e+02
2.110000e-06	4.405806e-06	4.521527e-09	3.722154e+01	2.946067e+02
2.120000e-06	4.307884e-06	4.489347e-09	3.639427e+01	2.924766e+02
2.130000e-06	4.208637e-06	4.419887e-09	3.555580e+01	2.902796e+02
2.140000e-06	4.107929e-06	4.364802e-09	3.470499e+01	2.880051e+02
2.150000e-06	4.005557e-06	4.381235e-09	3.384011e+01	2.856414e+02
2.160000e-06	3.901564e-06	4.370861e-09	3.296156e+01	2.831773e+02
2.170000e-06	3.796223e-06	4.304049e-09	3.207160e+01	2.806031e+02
2.180000e-06	3.689706e-06	4.221892e-09	3.117172e+01	2.779114e+02
2.190000e-06	3.581994e-06	4.214556e-09	3.026174e+01	2.750977e+02
2.200000e-06	3.473038e-06	4.194511e-09	2.934124e+01	2.721602e+02
2.210000e-06	3.362792e-06	4.123353e-09	2.840985e+01	2.690993e+02
2.220000e-06	3.251223e-06	4.045375e-09	2.746728e+01	2.659163e+02
2.230000e-06	3.138507e-06	4.006826e-09	2.651503e+01	2.626127e+02
2.240000e-06	3.024639e-06	3.971063e-09	2.555304e+01	2.591879e+02
2.250000e-06	2.909639e-06	3.909173e-09	2.458148e+01	2.556389e+02
2.260000e-06	2.793505e-06	3.845124e-09	2.360035e+01	2.519586e+02
2.270000e-06	2.676217e-06	3.787754e-09	2.260947e+01	2.481356e+02
2.280000e-06	2.557834e-06	3.737810e-09	2.160933e+01	2.441545e+02
2.290000e-06	2.438405e-06	3.675718e-09	2.060036e+01	2.399964e+02
2.300000e-06	2.318002e-06	3.608662e-09	1.958316e+01	2.356399e+02
2.310000e-06	2.196756e-06	3.537175e-09	1.855883e+01	2.310622e+02
2.320000e-06	2.074866e-06	3.468057e-09	1.752907e+01	2.262406e+02
2.330000e-06	1.952349e-06	3.392174e-09	1.649402e+01	2.211535e+02
2.340000e-06	1.829177e-06	3.306392e-09	1.545342e+01	2.157801e+02
2.350000e-06	1.705331e-06	3.211690e-09	1.440714e+01	2.101006e+02
2.360000e-06	1.580917e-06	3.123672e-09	1.335605e+01	2.040949e+02
2.370000e-06	1.455932e-06	3.040205e-09	1.230014e+01	1.977408e+02
2.380000e-06	1.330364e-06	2.934773e-09	1.123931e+01	1.910115e+02
2.390000e-06	1.204372e-06	2.813463e-09	1.017489e+01	1.838734e+02
2.400000e-06	1.078074e-06	2.699147e-09	9.107888e+00	1.762844e+02
2.410000e-06	9.514151e-07	2.591696e-09	8.037833e+00	1.681918e+02
2.420000e-06	8.243513e-07	2.460913e-09	6.964361e+00	1.595334e+02
2.430000e-06	6.969291e-07	2.306084e-09	5.887861e+00	1.502377e+02
2.440000e-06	5.691808e-07	2.153806e-09	4.808606e+00	1.402283e+02
2.450000e-06	4.412061e-07	2.003667e-09	3.727438e+00	1.294277e+02
2.460000e-06	3.130739e-07	1.832673e-09	2.644940e+00	1.177643e+02
2.470000e-06	1.848340e-07	1.632126e-09	1.561531e+00	1.051793e+02
2.480000e-06	5.656516e-08	1.416348e-09	4.778790e-01	9.163410e+01
2.490000e-06	-7.173066e-08	1.197216e-09	-6.060016e-01	7.711778e+01
2.500000e-06	-2.000492e-07	9.711345e-10	-1.690074e+00	6.165296e+01
2.510000e-06	-3.282133e-07	7.244624e-10	-2.772842e+00	4.529990e+01
2.520000e-06	-4.561658e-07	4.561677e-10	-3.853822e+00	2.815822e+01
2.530000e-06	-5.839549e-07	1.819141e-10	-4.933422e+00	1.036574e+01
2.540000e-06	-7.115648e-07	-8.766044e-11	-6.011507e+00	-7.905644e+00
2.550000e-06	-8.388956e-07	-3.650692e-10	-7.087236e+00	-2.645677e+01
2.560000e-06	-9.658190e-07	-6.594227e-10	-8.159522e+00	-4.507035e+01
2.570000e-06	-1.092354e-06	-9.538203e-10	-9.228528e+00	-6.352175e+01
2.580000e-06	-1.218512e-06	-1.231152e-09	-1.029434e+01	-8.159043e+01
2.590000e-06	-1.344271e-06	-1.493120e-09	-1.135679e+01	-9.907129e+01
2.600000e-06	-1.469581e-06	-1.751928e-09	-1.241545e+01	-1.157848e+02
2.610000e-06	-1.594333e-06	-2.001693e-09	-1.346939e+01	-1.315852e+02
2.620000e-06	-1.718372e-06	-2.228631e-09	-1.451731e+01	-1.463663e+02
2.630000e-06	-1.841648e-06	-2.430587e-09	-1.555878e+01	-1.600639e+02
2.640000e-06	-1.964236e-06	-2.618817e-09	-1.659444e+01	-1.726555e+02
2.650000e-06	-2.086241e-06	-2.798239e-09	-1.762517e+01	-1.841575e+02
2.660000e-06	-2.207632e-06	-2.963545e-09	-1.865072e+01	-1.946190e+02
2.670000e-06	-2.328263e-06	-3.110415e-09	-1.966985e+01	-2.041149e+02
2.680000e-06	-2.447977e-06	-3.239031e-09	-2.068122e+01	-2.127376e+02
2.690000e-06	-2.566744e-06	-3.359834e-09	-2.168461e+01	-2.205881e+02
2.700000e-06	-2.684518e-06	-3.477039e-09	-2.267960e+01	-2.277686e+02
2.710000e-06	-2.801143e-06	-3.582705e-09	-2.366488e+01	-2.343756e+02
2.720000e-06	-2.916552e-06	-3.672053e-09	-2.463988e+01	-2.404949e+02
2.730000e-06	-3.030764e-06	-3.753702e-09	-2.560478e+01	-2.461985e+02
2.740000e-06	-3.143772e-06	-3.834574e-09	-2.655951e+01	-2.515429e+02
2.750000e-06	-3.255506e-06	-3.914240e-09	-2.750346e+01	-2.565703e+02
2.760000e-06	-3.365926e-06	-3.987638e-09	-2.843633e+01	-2.613098e+02
2.770000e-06	-3.475182e-06	-4.051795e-09	-2.935936e+01	-2.657804e+02
2.780000e-06	-3.583381e-06	-4.113719e-09	-3.027345e+01	-2.699940e+02
2.790000e-06	-3.690419e-06	-4.177273e-09	-3.117774e+01	-2.739586e+02
2.800000e-06	-3.796243e-06	-4.239108e-09	-3.207177e+01	-2.776812e+02
2.810000e-06	-3.900660e-06	-4.295659e-09	-3.295392e+01	-2.811695e+02
2.820000e-06	-4.003528e-06	-4.347879e-09	-3.382297e+01	-2.844335e+02
2.830000e-06	-4.104887e-06	-4.397464e-09	-3.467929e+01	-2.874857e+02
2.840000e-06	-4.204784e-06	-4.444215e-09	-3.552325e+01	-2.903412e+02
2.850000e-06	-4.303287e-06	-4.488018e-09	-3.635543e+01	-2.930164e+02
2.860000e-06	-4.400421e-06	-4.526409e-09	-3.717604e+01	-2.955281e+02
2.870000e-06	-4.495983e-06	-4.559307e-09	-3.798338e+01	-2.978925e+02
2.880000e-06	-4.589872e-06	-4.593772e-09	-3.877658e+01	-3.001242e+02
2.890000e-06	-4.682173e-06	-4.630845e-09	-3.955636e+01	-3.022354e+02
2.900000e-06	-4.772887e-06	-4.664227e-09	-4.032275e+01	-3.042357e+02
2.910000e-06	-4.861962e-06	-4.692223e-09	-4.107528e+01	-3.061324e+02
2.920000e-06	-4.949243e-06	-4.719158e-09	-4.181266e+01	-3.079307e+02
2.930000e-06	-5.034671e-06	-4.747110e-09	-4.253438e+01	-3.096344e+02
2.940000e-06	-5.118366e-06	-4.773967e-09	-4.324146e+01	-3.112468e+02
