# Temperatura_=_20.0
# Concentracion g/m^3_=_9000.0
# C_Vs_to_Am_M_A/Vsm_=_65563218390.804596
# pendiente_HvsI_1/m_=_3716.3
# ordenada_HvsI_A/m_=_1297.0
# frecuencia_Hz_=_301070.3228962548

Tiempo_(s)	Campo_(V.s)	Magnetizacion_(V.s)	Campo_(kA/m)	Magnetizacion_(A/m)
0.000000e+00	-6.740349e-06	-5.102310e-09	-5.670514e+01	-3.351343e+02
1.000000e-08	-6.737052e-06	-5.103886e-09	-5.667741e+01	-3.350446e+02
2.000000e-08	-6.731589e-06	-5.100819e-09	-5.663145e+01	-3.349191e+02
3.000000e-08	-6.724073e-06	-5.096925e-09	-5.656822e+01	-3.347621e+02
4.000000e-08	-6.714199e-06	-5.093836e-09	-5.648515e+01	-3.345791e+02
5.000000e-08	-6.701819e-06	-5.090577e-09	-5.638100e+01	-3.343763e+02
6.000000e-08	-6.686997e-06	-5.084801e-09	-5.625630e+01	-3.341595e+02
7.000000e-08	-6.669781e-06	-5.084878e-09	-5.611147e+01	-3.339342e+02
8.000000e-08	-6.650464e-06	-5.119164e-09	-5.594896e+01	-3.337044e+02
9.000000e-08	-6.628935e-06	-5.137412e-09	-5.576784e+01	-3.334722e+02
1.000000e-07	-6.604705e-06	-5.113881e-09	-5.556399e+01	-3.332370e+02
1.100000e-07	-6.577727e-06	-5.091728e-09	-5.533704e+01	-3.329955e+02
1.200000e-07	-6.548391e-06	-5.068440e-09	-5.509024e+01	-3.327414e+02
1.300000e-07	-6.517189e-06	-5.005867e-09	-5.482774e+01	-3.324659e+02
1.400000e-07	-6.484202e-06	-4.991871e-09	-5.455023e+01	-3.321582e+02
1.500000e-07	-6.449195e-06	-5.088832e-09	-5.425572e+01	-3.318062e+02
1.600000e-07	-6.412039e-06	-5.085934e-09	-5.394314e+01	-3.313978e+02
1.700000e-07	-6.372821e-06	-5.037790e-09	-5.361320e+01	-3.309220e+02
1.800000e-07	-6.331300e-06	-4.998448e-09	-5.326390e+01	-3.303699e+02
1.900000e-07	-6.287249e-06	-4.975796e-09	-5.289331e+01	-3.297357e+02
2.000000e-07	-6.240948e-06	-5.027755e-09	-5.250379e+01	-3.290173e+02
2.100000e-07	-6.192257e-06	-5.007976e-09	-5.209416e+01	-3.282162e+02
2.200000e-07	-6.140955e-06	-4.960156e-09	-5.166257e+01	-3.273375e+02
2.300000e-07	-6.087185e-06	-4.915755e-09	-5.121021e+01	-3.263893e+02
2.400000e-07	-6.031093e-06	-4.908221e-09	-5.073832e+01	-3.253811e+02
2.500000e-07	-5.972785e-06	-4.975676e-09	-5.024779e+01	-3.243233e+02
2.600000e-07	-5.912347e-06	-4.963718e-09	-4.973933e+01	-3.232252e+02
2.700000e-07	-5.849832e-06	-4.888206e-09	-4.921341e+01	-3.220944e+02
2.800000e-07	-5.785168e-06	-4.850849e-09	-4.866941e+01	-3.209351e+02
2.900000e-07	-5.718356e-06	-4.884236e-09	-4.810733e+01	-3.197486e+02
3.000000e-07	-5.649430e-06	-4.913924e-09	-4.752747e+01	-3.185322e+02
3.100000e-07	-5.578512e-06	-4.843247e-09	-4.693085e+01	-3.172805e+02
3.200000e-07	-5.505692e-06	-4.777301e-09	-4.631823e+01	-3.159857e+02
3.300000e-07	-5.430663e-06	-4.758162e-09	-4.568703e+01	-3.146389e+02
3.400000e-07	-5.353322e-06	-4.772685e-09	-4.503638e+01	-3.132316e+02
3.500000e-07	-5.273827e-06	-4.765529e-09	-4.436760e+01	-3.117567e+02
3.600000e-07	-5.192344e-06	-4.715755e-09	-4.368210e+01	-3.102094e+02
3.700000e-07	-5.109083e-06	-4.667612e-09	-4.298164e+01	-3.085878e+02
3.800000e-07	-5.024188e-06	-4.637955e-09	-4.226744e+01	-3.068933e+02
3.900000e-07	-4.937724e-06	-4.661900e-09	-4.154003e+01	-3.051295e+02
4.000000e-07	-4.849653e-06	-4.647678e-09	-4.079911e+01	-3.033020e+02
4.100000e-07	-4.759767e-06	-4.569163e-09	-4.004292e+01	-3.014169e+02
4.200000e-07	-4.668049e-06	-4.528828e-09	-3.927132e+01	-2.994795e+02
4.300000e-07	-4.574685e-06	-4.552589e-09	-3.848587e+01	-2.974932e+02
4.400000e-07	-4.479710e-06	-4.538815e-09	-3.768686e+01	-2.954585e+02
4.500000e-07	-4.383121e-06	-4.468178e-09	-3.687428e+01	-2.933723e+02
4.600000e-07	-4.284907e-06	-4.434211e-09	-3.604802e+01	-2.912282e+02
4.700000e-07	-4.185062e-06	-4.414376e-09	-3.520805e+01	-2.890168e+02
4.800000e-07	-4.083747e-06	-4.371949e-09	-3.435570e+01	-2.867265e+02
4.900000e-07	-3.981068e-06	-4.332399e-09	-3.349189e+01	-2.843452e+02
5.000000e-07	-3.876925e-06	-4.294797e-09	-3.261575e+01	-2.818614e+02
5.100000e-07	-3.771291e-06	-4.234641e-09	-3.172708e+01	-2.792652e+02
5.200000e-07	-3.664243e-06	-4.191748e-09	-3.082651e+01	-2.765498e+02
5.300000e-07	-3.555855e-06	-4.176331e-09	-2.991466e+01	-2.737116e+02
5.400000e-07	-3.446309e-06	-4.128881e-09	-2.899308e+01	-2.707500e+02
5.500000e-07	-3.335719e-06	-4.064251e-09	-2.806270e+01	-2.676667e+02
5.600000e-07	-3.223965e-06	-4.030630e-09	-2.712254e+01	-2.644649e+02
5.700000e-07	-3.110830e-06	-4.002304e-09	-2.617076e+01	-2.611470e+02
5.800000e-07	-2.996282e-06	-3.941378e-09	-2.520709e+01	-2.577137e+02
5.900000e-07	-2.880475e-06	-3.878916e-09	-2.423283e+01	-2.541622e+02
6.000000e-07	-2.763542e-06	-3.831210e-09	-2.324910e+01	-2.504855e+02
6.100000e-07	-2.645641e-06	-3.774753e-09	-2.225723e+01	-2.466713e+02
6.200000e-07	-2.526959e-06	-3.702196e-09	-2.125877e+01	-2.427030e+02
6.300000e-07	-2.407423e-06	-3.630090e-09	-2.025314e+01	-2.385597e+02
6.400000e-07	-2.286870e-06	-3.564974e-09	-1.923896e+01	-2.342181e+02
6.500000e-07	-2.165410e-06	-3.496246e-09	-1.821714e+01	-2.296536e+02
6.600000e-07	-2.043178e-06	-3.420856e-09	-1.718883e+01	-2.248420e+02
6.700000e-07	-1.920166e-06	-3.341563e-09	-1.615395e+01	-2.197603e+02
6.800000e-07	-1.796418e-06	-3.262191e-09	-1.511288e+01	-2.143875e+02
6.900000e-07	-1.672065e-06	-3.179765e-09	-1.406674e+01	-2.087041e+02
7.000000e-07	-1.547155e-06	-3.092531e-09	-1.301589e+01	-2.026906e+02
7.100000e-07	-1.421756e-06	-2.998408e-09	-1.196093e+01	-1.963262e+02
7.200000e-07	-1.295920e-06	-2.893879e-09	-1.090231e+01	-1.895857e+02
7.300000e-07	-1.169652e-06	-2.781280e-09	-9.840034e+00	-1.824372e+02
7.400000e-07	-1.042987e-06	-2.667340e-09	-8.774435e+00	-1.748394e+02
7.500000e-07	-9.159871e-07	-2.545029e-09	-7.706008e+00	-1.667408e+02
7.600000e-07	-7.886726e-07	-2.402962e-09	-6.634938e+00	-1.580787e+02
7.700000e-07	-6.610488e-07	-2.252900e-09	-5.561265e+00	-1.487811e+02
7.800000e-07	-5.331143e-07	-2.102909e-09	-4.484979e+00	-1.387700e+02
7.900000e-07	-4.049423e-07	-1.940418e-09	-3.406694e+00	-1.279661e+02
8.000000e-07	-2.766396e-07	-1.755672e-09	-2.327311e+00	-1.162953e+02
8.100000e-07	-1.482399e-07	-1.559852e-09	-1.247111e+00	-1.036967e+02
8.200000e-07	-1.975329e-08	-1.356364e-09	-1.661803e-01	-9.012979e+01
8.300000e-07	1.087125e-07	-1.135109e-09	9.145754e-01	-7.558250e+01
8.400000e-07	2.370995e-07	-8.964979e-10	1.994669e+00	-6.007705e+01
8.500000e-07	3.654172e-07	-6.467991e-10	3.074179e+00	-4.367428e+01
8.600000e-07	4.935758e-07	-3.893828e-10	4.152350e+00	-2.647530e+01
8.700000e-07	6.215101e-07	-1.222614e-10	5.228634e+00	-8.620185e+00
8.800000e-07	7.492039e-07	1.553262e-10	6.302895e+00	9.716406e+00
8.900000e-07	8.766441e-07	4.409146e-10	7.375023e+00	2.833236e+01
9.000000e-07	1.003758e-06	7.282282e-10	8.444408e+00	4.700762e+01
9.100000e-07	1.130488e-06	1.009112e-09	9.510558e+00	6.551525e+01
9.200000e-07	1.256874e-06	1.282413e-09	1.057381e+01	8.363320e+01
9.300000e-07	1.382906e-06	1.550065e-09	1.163410e+01	1.011557e+02
9.400000e-07	1.508536e-06	1.807023e-09	1.269100e+01	1.179037e+02
9.500000e-07	1.633692e-06	2.046043e-09	1.374390e+01	1.337324e+02
9.600000e-07	1.758311e-06	2.264876e-09	1.479230e+01	1.485375e+02
9.700000e-07	1.882392e-06	2.470178e-09	1.583617e+01	1.622569e+02
9.800000e-07	2.005778e-06	2.663143e-09	1.687419e+01	1.748703e+02
9.900000e-07	2.128406e-06	2.835078e-09	1.790583e+01	1.863959e+02
1.000000e-06	2.250286e-06	2.987933e-09	1.893119e+01	1.968840e+02
1.010000e-06	2.371287e-06	3.131463e-09	1.994914e+01	2.064100e+02
1.020000e-06	2.491283e-06	3.267598e-09	2.095864e+01	2.150657e+02
1.030000e-06	2.610327e-06	3.390451e-09	2.196013e+01	2.229512e+02
1.040000e-06	2.728504e-06	3.500398e-09	2.295433e+01	2.301668e+02
1.050000e-06	2.845762e-06	3.601245e-09	2.394080e+01	2.368067e+02
1.060000e-06	2.961997e-06	3.696314e-09	2.491866e+01	2.429546e+02
1.070000e-06	3.077081e-06	3.787958e-09	2.588684e+01	2.486805e+02
1.080000e-06	3.190880e-06	3.871665e-09	2.684421e+01	2.540395e+02
1.090000e-06	3.303313e-06	3.945132e-09	2.779008e+01	2.590732e+02
1.100000e-06	3.414445e-06	4.013631e-09	2.872501e+01	2.638108e+02
1.110000e-06	3.524451e-06	4.081593e-09	2.965047e+01	2.682722e+02
1.120000e-06	3.633397e-06	4.145825e-09	3.056700e+01	2.724708e+02
1.130000e-06	3.741177e-06	4.205058e-09	3.147374e+01	2.764167e+02
1.140000e-06	3.847696e-06	4.259105e-09	3.236986e+01	2.801190e+02
1.150000e-06	3.952699e-06	4.310047e-09	3.325323e+01	2.835875e+02
1.160000e-06	4.056109e-06	4.359731e-09	3.412320e+01	2.868337e+02
1.170000e-06	4.158129e-06	4.405592e-09	3.498147e+01	2.898713e+02
1.180000e-06	4.258746e-06	4.446196e-09	3.582794e+01	2.927155e+02
1.190000e-06	4.357895e-06	4.482893e-09	3.666206e+01	2.953822e+02
1.200000e-06	4.455392e-06	4.518658e-09	3.748228e+01	2.978874e+02
1.210000e-06	4.551147e-06	4.555040e-09	3.828784e+01	3.002459e+02
1.220000e-06	4.645287e-06	4.590121e-09	3.907982e+01	3.024706e+02
1.230000e-06	4.737916e-06	4.621875e-09	3.985909e+01	3.045724e+02
1.240000e-06	4.829036e-06	4.650404e-09	4.062567e+01	3.065598e+02
1.250000e-06	4.918325e-06	4.678315e-09	4.137684e+01	3.084394e+02
1.260000e-06	5.005725e-06	4.706073e-09	4.211212e+01	3.102165e+02
1.270000e-06	5.091422e-06	4.730117e-09	4.283307e+01	3.118958e+02
1.280000e-06	5.175458e-06	4.750918e-09	4.354005e+01	3.134818e+02
1.290000e-06	5.257812e-06	4.771407e-09	4.423287e+01	3.149799e+02
1.300000e-06	5.338245e-06	4.794383e-09	4.490954e+01	3.163961e+02
1.310000e-06	5.416650e-06	4.816209e-09	4.556914e+01	3.177373e+02
1.320000e-06	5.493090e-06	4.835487e-09	4.621222e+01	3.190110e+02
1.330000e-06	5.567471e-06	4.854628e-09	4.683797e+01	3.202250e+02
1.340000e-06	5.639696e-06	4.874427e-09	4.744558e+01	3.213864e+02
1.350000e-06	5.709918e-06	4.894354e-09	4.803634e+01	3.225014e+02
1.360000e-06	5.778208e-06	4.911978e-09	4.861085e+01	3.235746e+02
1.370000e-06	5.844355e-06	4.927028e-09	4.916733e+01	3.246087e+02
1.380000e-06	5.908316e-06	4.941469e-09	4.970542e+01	3.256043e+02
1.390000e-06	5.970274e-06	4.956472e-09	5.022667e+01	3.265602e+02
1.400000e-06	6.030338e-06	4.970921e-09	5.073197e+01	3.274738e+02
1.410000e-06	6.088323e-06	4.984552e-09	5.121979e+01	3.283416e+02
1.420000e-06	6.144046e-06	4.998719e-09	5.168857e+01	3.291597e+02
1.430000e-06	6.197545e-06	5.013533e-09	5.213865e+01	3.299249e+02
1.440000e-06	6.248556e-06	5.026900e-09	5.256779e+01	3.306348e+02
1.450000e-06	6.296913e-06	5.037616e-09	5.297461e+01	3.312887e+02
1.460000e-06	6.342942e-06	5.047953e-09	5.336185e+01	3.318873e+02
1.470000e-06	6.386894e-06	5.058220e-09	5.373160e+01	3.324330e+02
1.480000e-06	6.428561e-06	5.067254e-09	5.408213e+01	3.329296e+02
1.490000e-06	6.467811e-06	5.075122e-09	5.441234e+01	3.333822e+02
1.500000e-06	6.504908e-06	5.082297e-09	5.472442e+01	3.337962e+02
1.510000e-06	6.539862e-06	5.089016e-09	5.501849e+01	3.341770e+02
1.520000e-06	6.572402e-06	5.095959e-09	5.529224e+01	3.345299e+02
1.530000e-06	6.602571e-06	5.103920e-09	5.554605e+01	3.348589e+02
1.540000e-06	6.630585e-06	5.111331e-09	5.578172e+01	3.351672e+02
1.550000e-06	6.656282e-06	5.118141e-09	5.599790e+01	3.354565e+02
1.560000e-06	6.679514e-06	5.124062e-09	5.619335e+01	3.357271e+02
1.570000e-06	6.700456e-06	5.129278e-09	5.636953e+01	3.359782e+02
1.580000e-06	6.719139e-06	5.133254e-09	5.652670e+01	3.362077e+02
1.590000e-06	6.735383e-06	5.135693e-09	5.666336e+01	3.364128e+02
1.600000e-06	6.749173e-06	5.139301e-09	5.677938e+01	3.365901e+02
1.610000e-06	6.760380e-06	5.141418e-09	5.687366e+01	3.367360e+02
1.620000e-06	6.768902e-06	5.142973e-09	5.694535e+01	3.368471e+02
1.630000e-06	6.774994e-06	5.147714e-09	5.699661e+01	3.369205e+02
1.640000e-06	6.778845e-06	5.152001e-09	5.702901e+01	3.369540e+02
1.650000e-06	6.780331e-06	5.153866e-09	5.704150e+01	3.369466e+02
1.660000e-06	6.779446e-06	5.150648e-09	5.703406e+01	3.368984e+02
1.670000e-06	6.776426e-06	5.148391e-09	5.700865e+01	3.368110e+02
1.680000e-06	6.771211e-06	5.146215e-09	5.696478e+01	3.366875e+02
1.690000e-06	6.763707e-06	5.142962e-09	5.690165e+01	3.365322e+02
1.700000e-06	6.753999e-06	5.141842e-09	5.681998e+01	3.363506e+02
1.710000e-06	6.742060e-06	5.142772e-09	5.671953e+01	3.361486e+02
1.720000e-06	6.727671e-06	5.146287e-09	5.659849e+01	3.359323e+02
1.730000e-06	6.711015e-06	5.125051e-09	5.645836e+01	3.357071e+02
1.740000e-06	6.692279e-06	5.070325e-09	5.630074e+01	3.354772e+02
1.750000e-06	6.670806e-06	5.065088e-09	5.612010e+01	3.352447e+02
1.760000e-06	6.646045e-06	5.079751e-09	5.591178e+01	3.350095e+02
1.770000e-06	6.618608e-06	5.082183e-09	5.568096e+01	3.347683e+02
1.780000e-06	6.589118e-06	5.137451e-09	5.543287e+01	3.345150e+02
1.790000e-06	6.557764e-06	5.170801e-09	5.516909e+01	3.342411e+02
1.800000e-06	6.524875e-06	5.101341e-09	5.489240e+01	3.339356e+02
1.810000e-06	6.490020e-06	5.080168e-09	5.459918e+01	3.335868e+02
1.820000e-06	6.452676e-06	5.058626e-09	5.428501e+01	3.331825e+02
1.830000e-06	6.413104e-06	5.096706e-09	5.395210e+01	3.327115e+02
1.840000e-06	6.371345e-06	5.170934e-09	5.360079e+01	3.321647e+02
1.850000e-06	6.327440e-06	5.073947e-09	5.323143e+01	3.315362e+02
1.860000e-06	6.281410e-06	5.023813e-09	5.284418e+01	3.308235e+02
1.870000e-06	6.232984e-06	5.004364e-09	5.243679e+01	3.300278e+02
1.880000e-06	6.182310e-06	5.070977e-09	5.201048e+01	3.291541e+02
1.890000e-06	6.129186e-06	5.150917e-09	5.156356e+01	3.282101e+02
1.900000e-06	6.073493e-06	4.971668e-09	5.109502e+01	3.272055e+02
1.910000e-06	6.015597e-06	4.877654e-09	5.060796e+01	3.261506e+02
1.920000e-06	5.955657e-06	4.959205e-09	5.010370e+01	3.250548e+02
1.930000e-06	5.893545e-06	5.033910e-09	4.958116e+01	3.239257e+02
1.940000e-06	5.829052e-06	4.979210e-09	4.903860e+01	3.227681e+02
1.950000e-06	5.762486e-06	4.816760e-09	4.847859e+01	3.215832e+02
1.960000e-06	5.693883e-06	4.843961e-09	4.790145e+01	3.203688e+02
1.970000e-06	5.622957e-06	4.901475e-09	4.730476e+01	3.191194e+02
1.980000e-06	5.549954e-06	4.925155e-09	4.669060e+01	3.178276e+02
1.990000e-06	5.474941e-06	4.859137e-09	4.605953e+01	3.164845e+02
2.000000e-06	5.397788e-06	4.734373e-09	4.541046e+01	3.150814e+02
2.010000e-06	5.318496e-06	4.763131e-09	4.474339e+01	3.136112e+02
2.020000e-06	5.237307e-06	4.823047e-09	4.406037e+01	3.120688e+02
2.030000e-06	5.154452e-06	4.813466e-09	4.336333e+01	3.104522e+02
2.040000e-06	5.069800e-06	4.671747e-09	4.265116e+01	3.087624e+02
2.050000e-06	4.983250e-06	4.627500e-09	4.192304e+01	3.070030e+02
2.060000e-06	4.894847e-06	4.697310e-09	4.117932e+01	3.051795e+02
2.070000e-06	4.804748e-06	4.684279e-09	4.042134e+01	3.032980e+02
2.080000e-06	4.713017e-06	4.597050e-09	3.964962e+01	3.013638e+02
2.090000e-06	4.619612e-06	4.515329e-09	3.886383e+01	2.993806e+02
2.100000e-06	4.524469e-06	4.525211e-09	3.806341e+01	2.973491e+02
2.110000e-06	4.427657e-06	4.527105e-09	3.724895e+01	2.952664e+02
2.120000e-06	4.329425e-06	4.493080e-09	3.642255e+01	2.931264e+02
2.130000e-06	4.229758e-06	4.419814e-09	3.558407e+01	2.909198e+02
2.140000e-06	4.128525e-06	4.369079e-09	3.473241e+01	2.886352e+02
2.150000e-06	4.025705e-06	4.376017e-09	3.386741e+01	2.862605e+02
2.160000e-06	3.921419e-06	4.368841e-09	3.299008e+01	2.837839e+02
2.170000e-06	3.815798e-06	4.303350e-09	3.210151e+01	2.811957e+02
2.180000e-06	3.708947e-06	4.223355e-09	3.120259e+01	2.784886e+02
2.190000e-06	3.600875e-06	4.207752e-09	3.029340e+01	2.756589e+02
2.200000e-06	3.491500e-06	4.190867e-09	2.937326e+01	2.727057e+02
2.210000e-06	3.380830e-06	4.124100e-09	2.844221e+01	2.696307e+02
2.220000e-06	3.268889e-06	4.043465e-09	2.750048e+01	2.664368e+02
2.230000e-06	3.155712e-06	4.001655e-09	2.654834e+01	2.631268e+02
2.240000e-06	3.041348e-06	3.968951e-09	2.558623e+01	2.597015e+02
2.250000e-06	2.925901e-06	3.909712e-09	2.461499e+01	2.561583e+02
2.260000e-06	2.809253e-06	3.840931e-09	2.363366e+01	2.524905e+02
2.270000e-06	2.691366e-06	3.785672e-09	2.264190e+01	2.486863e+02
2.280000e-06	2.572341e-06	3.737145e-09	2.164057e+01	2.447292e+02
2.290000e-06	2.452290e-06	3.673149e-09	2.063060e+01	2.405989e+02
2.300000e-06	2.331416e-06	3.601739e-09	1.961372e+01	2.362719e+02
2.310000e-06	2.209800e-06	3.532616e-09	1.859059e+01	2.317238e+02
2.320000e-06	2.087496e-06	3.467010e-09	1.756167e+01	2.269303e+02
2.330000e-06	1.964539e-06	3.392541e-09	1.652725e+01	2.218683e+02
2.340000e-06	1.840931e-06	3.307498e-09	1.548736e+01	2.165166e+02
2.350000e-06	1.716667e-06	3.214199e-09	1.444196e+01	2.108556e+02
2.360000e-06	1.591770e-06	3.124187e-09	1.339123e+01	2.048660e+02
2.370000e-06	1.466259e-06	3.036742e-09	1.233533e+01	1.985271e+02
2.380000e-06	1.340183e-06	2.932266e-09	1.127468e+01	1.918141e+02
2.390000e-06	1.213621e-06	2.811402e-09	1.020994e+01	1.846956e+02
2.400000e-06	1.086623e-06	2.695924e-09	9.141534e+00	1.771311e+02
2.410000e-06	9.592650e-07	2.591003e-09	8.070096e+00	1.690699e+02
2.420000e-06	8.315204e-07	2.465113e-09	6.995407e+00	1.604499e+02
2.430000e-06	7.034704e-07	2.311364e-09	5.918149e+00	1.512000e+02
2.440000e-06	5.752386e-07	2.158041e-09	4.839362e+00	1.412421e+02
2.450000e-06	4.467918e-07	2.008462e-09	3.758766e+00	1.304970e+02
2.460000e-06	3.181595e-07	1.839617e-09	2.676609e+00	1.188901e+02
2.470000e-06	1.893969e-07	1.638870e-09	1.593356e+00	1.063590e+02
2.480000e-06	6.059138e-08	1.422950e-09	5.097425e-01	9.286167e+01
2.490000e-06	-6.816666e-08	1.206323e-09	-5.734718e-01	7.838376e+01
2.500000e-06	-1.969137e-07	9.821767e-10	-1.656594e+00	6.294485e+01
2.510000e-06	-3.256375e-07	7.360020e-10	-2.739520e+00	4.660295e+01
2.520000e-06	-4.542464e-07	4.668379e-10	-3.821480e+00	2.945629e+01
2.530000e-06	-5.826790e-07	1.919969e-10	-4.901957e+00	1.164227e+01
2.540000e-06	-7.109081e-07	-7.954506e-11	-5.980721e+00	-6.666704e+00
2.550000e-06	-8.388060e-07	-3.583011e-10	-7.056699e+00	-2.527020e+01
2.560000e-06	-9.663607e-07	-6.526454e-10	-8.129790e+00	-4.394909e+01
2.570000e-06	-1.093615e-06	-9.480462e-10	-9.200356e+00	-6.247653e+01
2.580000e-06	-1.220453e-06	-1.226400e-09	-1.026741e+01	-8.062975e+01
2.590000e-06	-1.346852e-06	-1.489645e-09	-1.133078e+01	-9.820147e+01
2.600000e-06	-1.472762e-06	-1.749475e-09	-1.239004e+01	-1.150103e+02
2.610000e-06	-1.598069e-06	-2.000866e-09	-1.344422e+01	-1.309090e+02
2.620000e-06	-1.722651e-06	-2.228380e-09	-1.449230e+01	-1.457901e+02
2.630000e-06	-1.846448e-06	-2.431326e-09	-1.553378e+01	-1.595886e+02
2.640000e-06	-1.969554e-06	-2.622180e-09	-1.656944e+01	-1.722812e+02
2.650000e-06	-2.092013e-06	-2.803538e-09	-1.759966e+01	-1.838835e+02
2.660000e-06	-2.213785e-06	-2.968309e-09	-1.862411e+01	-1.944438e+02
2.670000e-06	-2.334842e-06	-3.115904e-09	-1.964254e+01	-2.040360e+02
2.680000e-06	-2.455103e-06	-3.248025e-09	-2.065427e+01	-2.127510e+02
2.690000e-06	-2.574449e-06	-3.369652e-09	-2.165830e+01	-2.206885e+02
2.700000e-06	-2.692815e-06	-3.486667e-09	-2.265409e+01	-2.279490e+02
2.710000e-06	-2.810046e-06	-3.593304e-09	-2.364033e+01	-2.346275e+02
2.720000e-06	-2.926042e-06	-3.682318e-09	-2.461618e+01	-2.408084e+02
2.730000e-06	-3.040877e-06	-3.762573e-09	-2.558226e+01	-2.465627e+02
2.740000e-06	-3.154484e-06	-3.844162e-09	-2.653801e+01	-2.519468e+02
2.750000e-06	-3.266720e-06	-3.924435e-09	-2.748223e+01	-2.570030e+02
2.760000e-06	-3.377574e-06	-3.997002e-09	-2.841483e+01	-2.617613e+02
2.770000e-06	-3.487230e-06	-4.061618e-09	-2.933734e+01	-2.662423e+02
2.780000e-06	-3.595804e-06	-4.124923e-09	-3.025074e+01	-2.704596e+02
2.790000e-06	-3.703251e-06	-4.189178e-09	-3.115467e+01	-2.744237e+02
2.800000e-06	-3.809479e-06	-4.250371e-09	-3.204835e+01	-2.781434e+02
2.810000e-06	-3.914320e-06	-4.305202e-09	-3.293035e+01	-2.816286e+02
2.820000e-06	-4.017730e-06	-4.355782e-09	-3.380032e+01	-2.848906e+02
2.830000e-06	-4.119574e-06	-4.404466e-09	-3.465711e+01	-2.879430e+02
2.840000e-06	-4.219825e-06	-4.451036e-09	-3.550050e+01	-2.908008e+02
2.850000e-06	-4.318688e-06	-4.495483e-09	-3.633222e+01	-2.934800e+02
2.860000e-06	-4.416173e-06	-4.534367e-09	-3.715234e+01	-2.959966e+02
2.870000e-06	-4.512234e-06	-4.568749e-09	-3.796048e+01	-2.983654e+02
2.880000e-06	-4.606686e-06	-4.604281e-09	-3.875508e+01	-3.005997e+02
2.890000e-06	-4.699400e-06	-4.640436e-09	-3.953507e+01	-3.027103e+02
2.900000e-06	-4.790494e-06	-4.672587e-09	-4.030143e+01	-3.047060e+02
2.910000e-06	-4.879965e-06	-4.700615e-09	-4.105412e+01	-3.065935e+02
2.920000e-06	-4.967714e-06	-4.727830e-09	-4.179233e+01	-3.083781e+02
2.930000e-06	-5.053533e-06	-4.753405e-09	-4.251432e+01	-3.100645e+02
2.940000e-06	-5.137494e-06	-4.776733e-09	-4.322066e+01	-3.116574e+02
