# Temperatura_=_20.0
# Concentracion g/m^3_=_9000.0
# C_Vs_to_Am_M_A/Vsm_=_65563218390.804596
# pendiente_HvsI_1/m_=_3716.3
# ordenada_HvsI_A/m_=_1297.0
# frecuencia_Hz_=_301074.20708861935

Tiempo_(s)	Campo_(V.s)	Magnetizacion_(V.s)	Campo_(kA/m)	Magnetizacion_(A/m)
0.000000e+00	-6.745601e-06	-5.196382e-09	-5.670418e+01	-3.381632e+02
1.000000e-08	-6.742348e-06	-5.196737e-09	-5.667684e+01	-3.380832e+02
2.000000e-08	-6.736953e-06	-5.192856e-09	-5.663149e+01	-3.379643e+02
3.000000e-08	-6.729471e-06	-5.189563e-09	-5.656859e+01	-3.378111e+02
4.000000e-08	-6.719630e-06	-5.187604e-09	-5.648587e+01	-3.376292e+02
5.000000e-08	-6.707296e-06	-5.183079e-09	-5.638219e+01	-3.374241e+02
6.000000e-08	-6.692478e-06	-5.171320e-09	-5.625763e+01	-3.372012e+02
7.000000e-08	-6.675313e-06	-5.159980e-09	-5.611334e+01	-3.369648e+02
8.000000e-08	-6.656081e-06	-5.174507e-09	-5.595167e+01	-3.367178e+02
9.000000e-08	-6.634589e-06	-5.181932e-09	-5.577100e+01	-3.364606e+02
1.000000e-07	-6.610383e-06	-5.153707e-09	-5.556753e+01	-3.361917e+02
1.100000e-07	-6.583482e-06	-5.141055e-09	-5.534139e+01	-3.359064e+02
1.200000e-07	-6.554286e-06	-5.156290e-09	-5.509597e+01	-3.355979e+02
1.300000e-07	-6.523156e-06	-5.128416e-09	-5.483429e+01	-3.352574e+02
1.400000e-07	-6.490176e-06	-5.078311e-09	-5.455705e+01	-3.348746e+02
1.500000e-07	-6.455210e-06	-5.138631e-09	-5.426312e+01	-3.344391e+02
1.600000e-07	-6.418168e-06	-5.161541e-09	-5.395175e+01	-3.339408e+02
1.700000e-07	-6.379067e-06	-5.099733e-09	-5.362306e+01	-3.333716e+02
1.800000e-07	-6.337629e-06	-5.048424e-09	-5.327473e+01	-3.327257e+02
1.900000e-07	-6.293648e-06	-5.047155e-09	-5.290502e+01	-3.320008e+02
2.000000e-07	-6.247392e-06	-5.083069e-09	-5.251619e+01	-3.311979e+02
2.100000e-07	-6.198751e-06	-5.031321e-09	-5.210731e+01	-3.303216e+02
2.200000e-07	-6.147501e-06	-5.009954e-09	-5.167650e+01	-3.293795e+02
2.300000e-07	-6.093787e-06	-4.999206e-09	-5.122497e+01	-3.283809e+02
2.400000e-07	-6.037721e-06	-4.945725e-09	-5.075367e+01	-3.273364e+02
2.500000e-07	-5.979431e-06	-4.994554e-09	-5.026368e+01	-3.262558e+02
2.600000e-07	-5.919050e-06	-5.019035e-09	-4.975612e+01	-3.251473e+02
2.700000e-07	-5.856556e-06	-4.930097e-09	-4.923078e+01	-3.240165e+02
2.800000e-07	-5.791911e-06	-4.869649e-09	-4.868737e+01	-3.228652e+02
2.900000e-07	-5.725213e-06	-4.919753e-09	-4.812670e+01	-3.216917e+02
3.000000e-07	-5.656451e-06	-4.956354e-09	-4.754868e+01	-3.204905e+02
3.100000e-07	-5.585596e-06	-4.864155e-09	-4.695307e+01	-3.192534e+02
3.200000e-07	-5.512757e-06	-4.807433e-09	-4.634077e+01	-3.179704e+02
3.300000e-07	-5.437786e-06	-4.808360e-09	-4.571056e+01	-3.166311e+02
3.400000e-07	-5.360520e-06	-4.795915e-09	-4.506106e+01	-3.152259e+02
3.500000e-07	-5.281061e-06	-4.771964e-09	-4.439312e+01	-3.137474e+02
3.600000e-07	-5.199636e-06	-4.743166e-09	-4.370865e+01	-3.121914e+02
3.700000e-07	-5.116435e-06	-4.698310e-09	-4.300926e+01	-3.105569e+02
3.800000e-07	-5.031574e-06	-4.645984e-09	-4.229590e+01	-3.088466e+02
3.900000e-07	-4.945144e-06	-4.671207e-09	-4.156936e+01	-3.070656e+02
4.000000e-07	-4.857027e-06	-4.676725e-09	-4.082865e+01	-3.052210e+02
4.100000e-07	-4.767126e-06	-4.590899e-09	-4.007293e+01	-3.033201e+02
4.200000e-07	-4.675439e-06	-4.538131e-09	-3.930220e+01	-3.013692e+02
4.300000e-07	-4.582057e-06	-4.570020e-09	-3.851722e+01	-2.993721e+02
4.400000e-07	-4.487107e-06	-4.555987e-09	-3.771906e+01	-2.973292e+02
4.500000e-07	-4.390435e-06	-4.470557e-09	-3.690643e+01	-2.952371e+02
4.600000e-07	-4.292103e-06	-4.438283e-09	-3.607983e+01	-2.930885e+02
4.700000e-07	-4.192250e-06	-4.428639e-09	-3.524046e+01	-2.908728e+02
4.800000e-07	-4.090919e-06	-4.375419e-09	-3.438866e+01	-2.885773e+02
4.900000e-07	-3.988213e-06	-4.327607e-09	-3.352531e+01	-2.861887e+02
5.000000e-07	-3.883958e-06	-4.298272e-09	-3.264893e+01	-2.836943e+02
5.100000e-07	-3.778241e-06	-4.242057e-09	-3.176026e+01	-2.810835e+02
5.200000e-07	-3.671231e-06	-4.192471e-09	-3.086073e+01	-2.783490e+02
5.300000e-07	-3.562827e-06	-4.175998e-09	-2.994947e+01	-2.754868e+02
5.400000e-07	-3.453205e-06	-4.132781e-09	-2.902798e+01	-2.724965e+02
5.500000e-07	-3.342556e-06	-4.062629e-09	-2.809785e+01	-2.693800e+02
5.600000e-07	-3.230674e-06	-4.021678e-09	-2.715737e+01	-2.661409e+02
5.700000e-07	-3.117367e-06	-3.992771e-09	-2.620489e+01	-2.627821e+02
5.800000e-07	-3.002734e-06	-3.933039e-09	-2.524127e+01	-2.593046e+02
5.900000e-07	-2.886930e-06	-3.866787e-09	-2.426781e+01	-2.557061e+02
6.000000e-07	-2.770032e-06	-3.819092e-09	-2.328516e+01	-2.519794e+02
6.100000e-07	-2.652155e-06	-3.767119e-09	-2.229428e+01	-2.481124e+02
6.200000e-07	-2.533420e-06	-3.694734e-09	-2.129617e+01	-2.440879e+02
6.300000e-07	-2.413768e-06	-3.618665e-09	-2.029037e+01	-2.398849e+02
6.400000e-07	-2.293086e-06	-3.551786e-09	-1.927590e+01	-2.354794e+02
6.500000e-07	-2.171487e-06	-3.484634e-09	-1.825374e+01	-2.308466e+02
6.600000e-07	-2.049210e-06	-3.404296e-09	-1.722586e+01	-2.259618e+02
6.700000e-07	-1.926262e-06	-3.318772e-09	-1.619235e+01	-2.208020e+02
6.800000e-07	-1.802552e-06	-3.239473e-09	-1.515243e+01	-2.153463e+02
6.900000e-07	-1.678100e-06	-3.159252e-09	-1.410628e+01	-2.095756e+02
7.000000e-07	-1.553054e-06	-3.070232e-09	-1.305512e+01	-2.034712e+02
7.100000e-07	-1.427536e-06	-2.974183e-09	-1.200001e+01	-1.970133e+02
7.200000e-07	-1.301617e-06	-2.871852e-09	-1.094152e+01	-1.901776e+02
7.300000e-07	-1.175326e-06	-2.759099e-09	-9.879906e+00	-1.829333e+02
7.400000e-07	-1.048625e-06	-2.642547e-09	-8.814841e+00	-1.752404e+02
7.500000e-07	-9.215264e-07	-2.517114e-09	-7.746441e+00	-1.670478e+02
7.600000e-07	-7.940827e-07	-2.373155e-09	-6.675137e+00	-1.582937e+02
7.700000e-07	-6.662965e-07	-2.221930e-09	-5.600953e+00	-1.489064e+02
7.800000e-07	-5.382321e-07	-2.071131e-09	-4.524432e+00	-1.388075e+02
7.900000e-07	-4.099912e-07	-1.909258e-09	-3.446426e+00	-1.279175e+02
8.000000e-07	-2.815557e-07	-1.723919e-09	-2.366785e+00	-1.161618e+02
8.100000e-07	-1.529104e-07	-1.527231e-09	-1.285379e+00	-1.034784e+02
8.200000e-07	-2.413918e-08	-1.325159e-09	-2.029163e-01	-8.982630e+01
8.300000e-07	1.046326e-07	-1.105265e-09	8.795518e-01	-7.519282e+01
8.400000e-07	2.333121e-07	-8.646631e-10	1.961244e+00	-5.959992e+01
8.500000e-07	3.618832e-07	-6.123483e-10	3.042025e+00	-4.310864e+01
8.600000e-07	4.902794e-07	-3.530695e-10	4.121337e+00	-2.582074e+01
8.700000e-07	6.184360e-07	-8.374627e-11	5.198634e+00	-7.877491e+00
8.800000e-07	7.463479e-07	1.959020e-10	6.273873e+00	1.054482e+01
8.900000e-07	8.739309e-07	4.828715e-10	7.346349e+00	2.924208e+01
9.000000e-07	1.001146e-06	7.715473e-10	8.415733e+00	4.799207e+01
9.100000e-07	1.127988e-06	1.053231e-09	9.481981e+00	6.656571e+01
9.200000e-07	1.254439e-06	1.326135e-09	1.054494e+01	8.473903e+01
9.300000e-07	1.380498e-06	1.594205e-09	1.160460e+01	1.023048e+02
9.400000e-07	1.506200e-06	1.853569e-09	1.266126e+01	1.190831e+02
9.500000e-07	1.631501e-06	2.094972e-09	1.371456e+01	1.349293e+02
9.600000e-07	1.756219e-06	2.314090e-09	1.476295e+01	1.497395e+02
9.700000e-07	1.880313e-06	2.516596e-09	1.580610e+01	1.634534e+02
9.800000e-07	2.003770e-06	2.706112e-09	1.684389e+01	1.760529e+02
9.900000e-07	2.126477e-06	2.878333e-09	1.787537e+01	1.875589e+02
1.000000e-06	2.248423e-06	3.031488e-09	1.890047e+01	1.980246e+02
1.010000e-06	2.369568e-06	3.171692e-09	1.991882e+01	2.075285e+02
1.020000e-06	2.489800e-06	3.305271e-09	2.092950e+01	2.161650e+02
1.030000e-06	2.609020e-06	3.428859e-09	2.193168e+01	2.240363e+02
1.040000e-06	2.727314e-06	3.539340e-09	2.292607e+01	2.312441e+02
1.050000e-06	2.844741e-06	3.638114e-09	2.391317e+01	2.378833e+02
1.060000e-06	2.961093e-06	3.730458e-09	2.489124e+01	2.440370e+02
1.070000e-06	3.076296e-06	3.820665e-09	2.585965e+01	2.497740e+02
1.080000e-06	3.190269e-06	3.904227e-09	2.681772e+01	2.551478e+02
1.090000e-06	3.302905e-06	3.978062e-09	2.776454e+01	2.601977e+02
1.100000e-06	3.414224e-06	4.046080e-09	2.870030e+01	2.649504e+02
1.110000e-06	3.524372e-06	4.113308e-09	2.962622e+01	2.694238e+02
1.120000e-06	3.633438e-06	4.176776e-09	3.054304e+01	2.736296e+02
1.130000e-06	3.741344e-06	4.234521e-09	3.145010e+01	2.775770e+02
1.140000e-06	3.847934e-06	4.287128e-09	3.234611e+01	2.812749e+02
1.150000e-06	3.953073e-06	4.337947e-09	3.322992e+01	2.847339e+02
1.160000e-06	4.056666e-06	4.386555e-09	3.410073e+01	2.879673e+02
1.170000e-06	4.158802e-06	4.430487e-09	3.495930e+01	2.909909e+02
1.180000e-06	4.259548e-06	4.470265e-09	3.580617e+01	2.938230e+02
1.190000e-06	4.358786e-06	4.507205e-09	3.664038e+01	2.964827e+02
1.200000e-06	4.456418e-06	4.541102e-09	3.746109e+01	2.989887e+02
1.210000e-06	4.552306e-06	4.574318e-09	3.826713e+01	3.013585e+02
1.220000e-06	4.646508e-06	4.608673e-09	3.905900e+01	3.036067e+02
1.230000e-06	4.739190e-06	4.640574e-09	3.983809e+01	3.057451e+02
1.240000e-06	4.830359e-06	4.669061e-09	4.060447e+01	3.077822e+02
1.250000e-06	4.919794e-06	4.696331e-09	4.135627e+01	3.097235e+02
1.260000e-06	5.007367e-06	4.724580e-09	4.209242e+01	3.115722e+02
1.270000e-06	5.093166e-06	4.749507e-09	4.281365e+01	3.133305e+02
1.280000e-06	5.177289e-06	4.771259e-09	4.352080e+01	3.149996e+02
1.290000e-06	5.259733e-06	4.791288e-09	4.421383e+01	3.165816e+02
1.300000e-06	5.340294e-06	4.811607e-09	4.489104e+01	3.180794e+02
1.310000e-06	5.418879e-06	4.832532e-09	4.555163e+01	3.194971e+02
1.320000e-06	5.495464e-06	4.851302e-09	4.619541e+01	3.208401e+02
1.330000e-06	5.569901e-06	4.870822e-09	4.682113e+01	3.221147e+02
1.340000e-06	5.642172e-06	4.890656e-09	4.742865e+01	3.233275e+02
1.350000e-06	5.712427e-06	4.909354e-09	4.801922e+01	3.244848e+02
1.360000e-06	5.780792e-06	4.926460e-09	4.859391e+01	3.255923e+02
1.370000e-06	5.847128e-06	4.940438e-09	4.915153e+01	3.266538e+02
1.380000e-06	5.911267e-06	4.953430e-09	4.969069e+01	3.276720e+02
1.390000e-06	5.973351e-06	4.966157e-09	5.021257e+01	3.286474e+02
1.400000e-06	6.033500e-06	4.980083e-09	5.071819e+01	3.295794e+02
1.410000e-06	6.091538e-06	4.993602e-09	5.120606e+01	3.304659e+02
1.420000e-06	6.147352e-06	5.006060e-09	5.167524e+01	3.313046e+02
1.430000e-06	6.200963e-06	5.019372e-09	5.212590e+01	3.320930e+02
1.440000e-06	6.252084e-06	5.034638e-09	5.255563e+01	3.328296e+02
1.450000e-06	6.300559e-06	5.049378e-09	5.296312e+01	3.335137e+02
1.460000e-06	6.346701e-06	5.059553e-09	5.335099e+01	3.341460e+02
1.470000e-06	6.390771e-06	5.066302e-09	5.372144e+01	3.347287e+02
1.480000e-06	6.432541e-06	5.073569e-09	5.407257e+01	3.352655e+02
1.490000e-06	6.471870e-06	5.081008e-09	5.440317e+01	3.357606e+02
1.500000e-06	6.509044e-06	5.086611e-09	5.471566e+01	3.362194e+02
1.510000e-06	6.544086e-06	5.093700e-09	5.501023e+01	3.366469e+02
1.520000e-06	6.576736e-06	5.101226e-09	5.528469e+01	3.370477e+02
1.530000e-06	6.607018e-06	5.108054e-09	5.553924e+01	3.374258e+02
1.540000e-06	6.635160e-06	5.115615e-09	5.577581e+01	3.377838e+02
1.550000e-06	6.660908e-06	5.123479e-09	5.599224e+01	3.381228e+02
1.560000e-06	6.684102e-06	5.129208e-09	5.618721e+01	3.384426e+02
1.570000e-06	6.705013e-06	5.132038e-09	5.636299e+01	3.387416e+02
1.580000e-06	6.723748e-06	5.134754e-09	5.652049e+01	3.390171e+02
1.590000e-06	6.740098e-06	5.137150e-09	5.665792e+01	3.392654e+02
1.600000e-06	6.753932e-06	5.141156e-09	5.677421e+01	3.394824e+02
1.610000e-06	6.765246e-06	5.145036e-09	5.686932e+01	3.396640e+02
1.620000e-06	6.773920e-06	5.146496e-09	5.694224e+01	3.398063e+02
1.630000e-06	6.780125e-06	5.148869e-09	5.699439e+01	3.399062e+02
1.640000e-06	6.784115e-06	5.152036e-09	5.702794e+01	3.399617e+02
1.650000e-06	6.785729e-06	5.156279e-09	5.704150e+01	3.399717e+02
1.660000e-06	6.784895e-06	5.156393e-09	5.703449e+01	3.399370e+02
1.670000e-06	6.781897e-06	5.154413e-09	5.700929e+01	3.398597e+02
1.680000e-06	6.776708e-06	5.153818e-09	5.696567e+01	3.397431e+02
1.690000e-06	6.769165e-06	5.154193e-09	5.690226e+01	3.395919e+02
1.700000e-06	6.759415e-06	5.152766e-09	5.682030e+01	3.394115e+02
1.710000e-06	6.747536e-06	5.151998e-09	5.672044e+01	3.392076e+02
1.720000e-06	6.733271e-06	5.159748e-09	5.660054e+01	3.389855e+02
1.730000e-06	6.716730e-06	5.160057e-09	5.646149e+01	3.387497e+02
1.740000e-06	6.698096e-06	5.126196e-09	5.630485e+01	3.385031e+02
1.750000e-06	6.676742e-06	5.130439e-09	5.612535e+01	3.382465e+02
1.760000e-06	6.652113e-06	5.146333e-09	5.591831e+01	3.379781e+02
1.770000e-06	6.624766e-06	5.113117e-09	5.568843e+01	3.376939e+02
1.780000e-06	6.595371e-06	5.101074e-09	5.544134e+01	3.373871e+02
1.790000e-06	6.564119e-06	5.150737e-09	5.517863e+01	3.370489e+02
1.800000e-06	6.531271e-06	5.119598e-09	5.490251e+01	3.366692e+02
1.810000e-06	6.496435e-06	5.114793e-09	5.460967e+01	3.362375e+02
1.820000e-06	6.459091e-06	5.129487e-09	5.429575e+01	3.357437e+02
1.830000e-06	6.419566e-06	5.116912e-09	5.396350e+01	3.351795e+02
1.840000e-06	6.377858e-06	5.135191e-09	5.361290e+01	3.345389e+02
1.850000e-06	6.333986e-06	5.081260e-09	5.324411e+01	3.338194e+02
1.860000e-06	6.287996e-06	5.070761e-09	5.285751e+01	3.330216e+02
1.870000e-06	6.239583e-06	5.016735e-09	5.245055e+01	3.321501e+02
1.880000e-06	6.188877e-06	5.039641e-09	5.202431e+01	3.312121e+02
1.890000e-06	6.135715e-06	5.160283e-09	5.157742e+01	3.302169e+02
1.900000e-06	6.080040e-06	5.008133e-09	5.110941e+01	3.291750e+02
1.910000e-06	6.022150e-06	4.883381e-09	5.062278e+01	3.280964e+02
1.920000e-06	5.962150e-06	4.986244e-09	5.011842e+01	3.269894e+02
1.930000e-06	5.900040e-06	5.061896e-09	4.959631e+01	3.258598e+02
1.940000e-06	5.835634e-06	4.992005e-09	4.905491e+01	3.247097e+02
1.950000e-06	5.769138e-06	4.847666e-09	4.849594e+01	3.235376e+02
1.960000e-06	5.700563e-06	4.884970e-09	4.791949e+01	3.223383e+02
1.970000e-06	5.629642e-06	4.923757e-09	4.732332e+01	3.211038e+02
1.980000e-06	5.556628e-06	4.930820e-09	4.670956e+01	3.198242e+02
1.990000e-06	5.481660e-06	4.896050e-09	4.607937e+01	3.184889e+02
2.000000e-06	5.404600e-06	4.782476e-09	4.543160e+01	3.170884e+02
2.010000e-06	5.325385e-06	4.792044e-09	4.476571e+01	3.156151e+02
2.020000e-06	5.244214e-06	4.852859e-09	4.408338e+01	3.140644e+02
2.030000e-06	5.161295e-06	4.857435e-09	4.338635e+01	3.124352e+02
2.040000e-06	5.076483e-06	4.714476e-09	4.267341e+01	3.107298e+02
2.050000e-06	4.989778e-06	4.657914e-09	4.194456e+01	3.089533e+02
2.060000e-06	4.901303e-06	4.739444e-09	4.120083e+01	3.071128e+02
2.070000e-06	4.811173e-06	4.728553e-09	4.044319e+01	3.052154e+02
2.080000e-06	4.719424e-06	4.631368e-09	3.967194e+01	3.032676e+02
2.090000e-06	4.625998e-06	4.559710e-09	3.888659e+01	3.012734e+02
2.100000e-06	4.530887e-06	4.580761e-09	3.808708e+01	2.992336e+02
2.110000e-06	4.434097e-06	4.571501e-09	3.727345e+01	2.971449e+02
2.120000e-06	4.335874e-06	4.532560e-09	3.644778e+01	2.950003e+02
2.130000e-06	4.236216e-06	4.471498e-09	3.561005e+01	2.927895e+02
2.140000e-06	4.134905e-06	4.421776e-09	3.475841e+01	2.904999e+02
2.150000e-06	4.032022e-06	4.421999e-09	3.389357e+01	2.881181e+02
2.160000e-06	3.927663e-06	4.418381e-09	3.301632e+01	2.856313e+02
2.170000e-06	3.821914e-06	4.360437e-09	3.212738e+01	2.830289e+02
2.180000e-06	3.715016e-06	4.274810e-09	3.122879e+01	2.803031e+02
2.190000e-06	3.606928e-06	4.254188e-09	3.032019e+01	2.774498e+02
2.200000e-06	3.497536e-06	4.241399e-09	2.940063e+01	2.744683e+02
2.210000e-06	3.386858e-06	4.180678e-09	2.847026e+01	2.713604e+02
2.220000e-06	3.274856e-06	4.100327e-09	2.752876e+01	2.681296e+02
2.230000e-06	3.161645e-06	4.056770e-09	2.657709e+01	2.647790e+02
2.240000e-06	3.047257e-06	4.023288e-09	2.561554e+01	2.613098e+02
2.250000e-06	2.931683e-06	3.961525e-09	2.464401e+01	2.577198e+02
2.260000e-06	2.814836e-06	3.891396e-09	2.366178e+01	2.540023e+02
2.270000e-06	2.696839e-06	3.837971e-09	2.266989e+01	2.501455e+02
2.280000e-06	2.577901e-06	3.790161e-09	2.167009e+01	2.461326e+02
2.290000e-06	2.457924e-06	3.722812e-09	2.066155e+01	2.419429e+02
2.300000e-06	2.336953e-06	3.649819e-09	1.964465e+01	2.375524e+02
2.310000e-06	2.215233e-06	3.582915e-09	1.862146e+01	2.329363e+02
2.320000e-06	2.092924e-06	3.517764e-09	1.759333e+01	2.280700e+02
2.330000e-06	1.969993e-06	3.437642e-09	1.655995e+01	2.229303e+02
2.340000e-06	1.846425e-06	3.347332e-09	1.552123e+01	2.174961e+02
2.350000e-06	1.722141e-06	3.254515e-09	1.447649e+01	2.117482e+02
2.360000e-06	1.597081e-06	3.166806e-09	1.342522e+01	2.056680e+02
2.370000e-06	1.471357e-06	3.079847e-09	1.236837e+01	1.992358e+02
2.380000e-06	1.345191e-06	2.973463e-09	1.130780e+01	1.924277e+02
2.390000e-06	1.218702e-06	2.849529e-09	1.024452e+01	1.852136e+02
2.400000e-06	1.091789e-06	2.732134e-09	9.177684e+00	1.775539e+02
2.410000e-06	9.644322e-07	2.624848e-09	8.107111e+00	1.693987e+02
2.420000e-06	8.366912e-07	2.497103e-09	7.033308e+00	1.606867e+02
2.430000e-06	7.085795e-07	2.338216e-09	5.956389e+00	1.513468e+02
2.440000e-06	5.801775e-07	2.178310e-09	4.877029e+00	1.413012e+02
2.450000e-06	4.516107e-07	2.027501e-09	3.796284e+00	1.304700e+02
2.460000e-06	3.228435e-07	1.859119e-09	2.713854e+00	1.187780e+02
2.470000e-06	1.939076e-07	1.657573e-09	1.630006e+00	1.061622e+02
2.480000e-06	6.492106e-08	1.438879e-09	5.457328e-01	9.257984e+01
2.490000e-06	-6.406459e-08	1.221795e-09	-5.385332e-01	7.801588e+01
2.500000e-06	-1.929236e-07	9.981960e-10	-1.621735e+00	6.248968e+01
2.510000e-06	-3.216754e-07	7.499179e-10	-2.704035e+00	4.605938e+01
2.520000e-06	-4.503435e-07	4.774812e-10	-3.785631e+00	2.882386e+01
2.530000e-06	-5.788549e-07	1.997917e-10	-4.865911e+00	1.092166e+01
2.540000e-06	-7.071925e-07	-7.307356e-11	-5.944729e+00	-7.473212e+00
2.550000e-06	-8.352656e-07	-3.527491e-10	-7.021324e+00	-2.615834e+01
2.560000e-06	-9.629468e-07	-6.479037e-10	-8.094625e+00	-4.491245e+01
2.570000e-06	-1.090164e-06	-9.448752e-10	-9.164028e+00	-6.350653e+01
2.580000e-06	-1.216954e-06	-1.223834e-09	-1.022983e+01	-8.171587e+01
2.590000e-06	-1.343338e-06	-1.484586e-09	-1.129223e+01	-9.933171e+01
2.600000e-06	-1.469300e-06	-1.742127e-09	-1.235108e+01	-1.161718e+02
2.610000e-06	-1.594802e-06	-1.993873e-09	-1.340606e+01	-1.320887e+02
2.620000e-06	-1.719627e-06	-2.223878e-09	-1.445535e+01	-1.469758e+02
2.630000e-06	-1.843625e-06	-2.428910e-09	-1.549769e+01	-1.607694e+02
2.640000e-06	-1.966884e-06	-2.620473e-09	-1.653382e+01	-1.734485e+02
2.650000e-06	-2.089525e-06	-2.802846e-09	-1.756475e+01	-1.850314e+02
2.660000e-06	-2.211530e-06	-2.968222e-09	-1.859033e+01	-1.955694e+02
2.670000e-06	-2.332715e-06	-3.114843e-09	-1.960903e+01	-2.051393e+02
2.680000e-06	-2.453019e-06	-3.245579e-09	-2.062032e+01	-2.138347e+02
2.690000e-06	-2.572454e-06	-3.366908e-09	-2.162430e+01	-2.217576e+02
2.700000e-06	-2.690895e-06	-3.483613e-09	-2.261993e+01	-2.290098e+02
2.710000e-06	-2.808276e-06	-3.591425e-09	-2.360664e+01	-2.356869e+02
2.720000e-06	-2.924474e-06	-3.685438e-09	-2.458342e+01	-2.418731e+02
2.730000e-06	-3.039393e-06	-3.769968e-09	-2.554944e+01	-2.476382e+02
2.740000e-06	-3.153057e-06	-3.851787e-09	-2.650491e+01	-2.530369e+02
2.750000e-06	-3.265447e-06	-3.932261e-09	-2.744966e+01	-2.581091e+02
2.760000e-06	-3.376511e-06	-4.005723e-09	-2.838328e+01	-2.628827e+02
2.770000e-06	-3.486316e-06	-4.070164e-09	-2.930631e+01	-2.673759e+02
2.780000e-06	-3.594975e-06	-4.131571e-09	-3.021972e+01	-2.716008e+02
2.790000e-06	-3.702529e-06	-4.193878e-09	-3.112382e+01	-2.755667e+02
2.800000e-06	-3.808915e-06	-4.254641e-09	-3.201811e+01	-2.792824e+02
2.810000e-06	-3.913971e-06	-4.311971e-09	-3.290122e+01	-2.827583e+02
2.820000e-06	-4.017519e-06	-4.367427e-09	-3.377166e+01	-2.860076e+02
2.830000e-06	-4.119480e-06	-4.418766e-09	-3.462875e+01	-2.890459e+02
2.840000e-06	-4.219942e-06	-4.464574e-09	-3.547325e+01	-2.918914e+02
2.850000e-06	-4.319024e-06	-4.508239e-09	-3.630614e+01	-2.945630e+02
2.860000e-06	-4.416678e-06	-4.549663e-09	-3.712702e+01	-2.970797e+02
2.870000e-06	-4.512774e-06	-4.586356e-09	-3.793482e+01	-2.994589e+02
2.880000e-06	-4.607276e-06	-4.621096e-09	-3.872921e+01	-3.017157e+02
2.890000e-06	-4.700158e-06	-4.655628e-09	-3.950999e+01	-3.038620e+02
2.900000e-06	-4.791428e-06	-4.689475e-09	-4.027721e+01	-3.059064e+02
2.910000e-06	-4.881028e-06	-4.722363e-09	-4.103040e+01	-3.078546e+02
2.920000e-06	-4.968879e-06	-4.753426e-09	-4.176888e+01	-3.097102e+02
2.930000e-06	-5.054874e-06	-4.780991e-09	-4.249176e+01	-3.114751e+02
2.940000e-06	-5.139019e-06	-4.806534e-09	-4.319910e+01	-3.131509e+02
