# Temperatura_=_20.0
# Concentracion g/m^3_=_9000.0
# C_Vs_to_Am_M_A/Vsm_=_65563218390.804596
# pendiente_HvsI_1/m_=_3716.3
# ordenada_HvsI_A/m_=_1297.0
# frecuencia_Hz_=_301288.84385705343

Tiempo_(s)	Campo_(V.s)	Magnetizacion_(V.s)	Campo_(kA/m)	Magnetizacion_(A/m)
0.000000e+00	-8.105392e-06	-7.007269e-09	-5.698352e+01	-4.607146e+02
1.000000e-08	-8.103030e-06	-7.011300e-09	-5.696691e+01	-4.605684e+02
2.000000e-08	-8.097942e-06	-7.010888e-09	-5.693114e+01	-4.604306e+02
3.000000e-08	-8.090267e-06	-7.007550e-09	-5.687718e+01	-4.602960e+02
4.000000e-08	-8.079792e-06	-7.003217e-09	-5.680354e+01	-4.601517e+02
5.000000e-08	-8.066349e-06	-6.997268e-09	-5.670903e+01	-4.599799e+02
6.000000e-08	-8.050046e-06	-6.991798e-09	-5.659442e+01	-4.597611e+02
7.000000e-08	-8.031229e-06	-6.989653e-09	-5.646212e+01	-4.594772e+02
8.000000e-08	-8.010087e-06	-6.984800e-09	-5.631349e+01	-4.591147e+02
9.000000e-08	-7.986160e-06	-7.022733e-09	-5.614527e+01	-4.586678e+02
1.000000e-07	-7.959020e-06	-7.038607e-09	-5.595447e+01	-4.581391e+02
1.100000e-07	-7.928751e-06	-6.996825e-09	-5.574168e+01	-4.575397e+02
1.200000e-07	-7.895499e-06	-6.955402e-09	-5.550790e+01	-4.568873e+02
1.300000e-07	-7.859507e-06	-6.937079e-09	-5.525487e+01	-4.562037e+02
1.400000e-07	-7.821159e-06	-6.942451e-09	-5.498527e+01	-4.555112e+02
1.500000e-07	-7.780601e-06	-6.922807e-09	-5.470013e+01	-4.548286e+02
1.600000e-07	-7.737556e-06	-6.925249e-09	-5.439751e+01	-4.541687e+02
1.700000e-07	-7.691627e-06	-6.908517e-09	-5.407462e+01	-4.535352e+02
1.800000e-07	-7.642914e-06	-6.861038e-09	-5.373215e+01	-4.529225e+02
1.900000e-07	-7.591250e-06	-6.922262e-09	-5.336894e+01	-4.523162e+02
2.000000e-07	-7.536509e-06	-6.890713e-09	-5.298408e+01	-4.516950e+02
2.100000e-07	-7.479000e-06	-6.841466e-09	-5.257978e+01	-4.510341e+02
2.200000e-07	-7.418888e-06	-6.860917e-09	-5.215717e+01	-4.503092e+02
2.300000e-07	-7.356239e-06	-6.840250e-09	-5.171673e+01	-4.494995e+02
2.400000e-07	-7.290824e-06	-6.852568e-09	-5.125684e+01	-4.485914e+02
2.500000e-07	-7.222670e-06	-6.810416e-09	-5.077770e+01	-4.475802e+02
2.600000e-07	-7.151905e-06	-6.798574e-09	-5.028020e+01	-4.464702e+02
2.700000e-07	-7.078359e-06	-6.783867e-09	-4.976314e+01	-4.452742e+02
2.800000e-07	-7.002070e-06	-6.772587e-09	-4.922681e+01	-4.440103e+02
2.900000e-07	-6.923109e-06	-6.753387e-09	-4.867169e+01	-4.426990e+02
3.000000e-07	-6.841559e-06	-6.722408e-09	-4.809836e+01	-4.413592e+02
3.100000e-07	-6.757664e-06	-6.717800e-09	-4.750855e+01	-4.400048e+02
3.200000e-07	-6.671469e-06	-6.674361e-09	-4.690257e+01	-4.386418e+02
3.300000e-07	-6.583026e-06	-6.672391e-09	-4.628079e+01	-4.372671e+02
3.400000e-07	-6.492237e-06	-6.658104e-09	-4.564252e+01	-4.358690e+02
3.500000e-07	-6.399040e-06	-6.615378e-09	-4.498731e+01	-4.344281e+02
3.600000e-07	-6.303588e-06	-6.589664e-09	-4.431625e+01	-4.329212e+02
3.700000e-07	-6.205837e-06	-6.583100e-09	-4.362904e+01	-4.313245e+02
3.800000e-07	-6.105796e-06	-6.557848e-09	-4.292571e+01	-4.296172e+02
3.900000e-07	-6.003527e-06	-6.511245e-09	-4.220673e+01	-4.277854e+02
4.000000e-07	-5.899146e-06	-6.492249e-09	-4.147290e+01	-4.258236e+02
4.100000e-07	-5.792647e-06	-6.468157e-09	-4.072418e+01	-4.237356e+02
4.200000e-07	-5.684094e-06	-6.430555e-09	-3.996101e+01	-4.215339e+02
4.300000e-07	-5.573536e-06	-6.392510e-09	-3.918375e+01	-4.192366e+02
4.400000e-07	-5.460898e-06	-6.369523e-09	-3.839187e+01	-4.168642e+02
4.500000e-07	-5.346096e-06	-6.333153e-09	-3.758477e+01	-4.144355e+02
4.600000e-07	-5.229160e-06	-6.287682e-09	-3.676268e+01	-4.119636e+02
4.700000e-07	-5.110265e-06	-6.253297e-09	-3.592681e+01	-4.094530e+02
4.800000e-07	-4.989554e-06	-6.222287e-09	-3.507817e+01	-4.068981e+02
4.900000e-07	-4.867071e-06	-6.175210e-09	-3.421707e+01	-4.042830e+02
5.000000e-07	-4.742809e-06	-6.126500e-09	-3.334347e+01	-4.015832e+02
5.100000e-07	-4.616851e-06	-6.088145e-09	-3.245795e+01	-3.987693e+02
5.200000e-07	-4.489247e-06	-6.039852e-09	-3.156085e+01	-3.958108e+02
5.300000e-07	-4.360014e-06	-5.986146e-09	-3.065230e+01	-3.926802e+02
5.400000e-07	-4.229194e-06	-5.936865e-09	-2.973259e+01	-3.893573e+02
5.500000e-07	-4.096863e-06	-5.891129e-09	-2.880227e+01	-3.858313e+02
5.600000e-07	-3.963027e-06	-5.832721e-09	-2.786136e+01	-3.821015e+02
5.700000e-07	-3.827762e-06	-5.776722e-09	-2.691040e+01	-3.781763e+02
5.800000e-07	-3.691038e-06	-5.722226e-09	-2.594918e+01	-3.740703e+02
5.900000e-07	-3.552900e-06	-5.658839e-09	-2.497803e+01	-3.697993e+02
6.000000e-07	-3.413428e-06	-5.584849e-09	-2.399750e+01	-3.653758e+02
6.100000e-07	-3.272558e-06	-5.512350e-09	-2.300714e+01	-3.608041e+02
6.200000e-07	-3.130315e-06	-5.442689e-09	-2.200712e+01	-3.560760e+02
6.300000e-07	-2.986866e-06	-5.364692e-09	-2.099863e+01	-3.511692e+02
6.400000e-07	-2.842417e-06	-5.283065e-09	-1.998311e+01	-3.460474e+02
6.500000e-07	-2.696900e-06	-5.197515e-09	-1.896008e+01	-3.406624e+02
6.600000e-07	-2.550402e-06	-5.109949e-09	-1.793015e+01	-3.349587e+02
6.700000e-07	-2.403106e-06	-5.014153e-09	-1.689461e+01	-3.288784e+02
6.800000e-07	-2.255044e-06	-4.917153e-09	-1.585368e+01	-3.223673e+02
6.900000e-07	-2.106186e-06	-4.812047e-09	-1.480716e+01	-3.153791e+02
7.000000e-07	-1.956557e-06	-4.694751e-09	-1.375523e+01	-3.078783e+02
7.100000e-07	-1.806298e-06	-4.573074e-09	-1.269885e+01	-2.998395e+02
7.200000e-07	-1.655443e-06	-4.447381e-09	-1.163830e+01	-2.912446e+02
7.300000e-07	-1.504034e-06	-4.312510e-09	-1.057384e+01	-2.820759e+02
7.400000e-07	-1.352054e-06	-4.160993e-09	-9.505375e+00	-2.723081e+02
7.500000e-07	-1.199533e-06	-4.001576e-09	-8.433101e+00	-2.618982e+02
7.600000e-07	-1.046521e-06	-3.834099e-09	-7.357377e+00	-2.507767e+02
7.700000e-07	-8.930266e-07	-3.652357e-09	-6.278265e+00	-2.388412e+02
7.800000e-07	-7.392183e-07	-3.450166e-09	-5.196943e+00	-2.259530e+02
7.900000e-07	-5.852320e-07	-3.229291e-09	-4.114369e+00	-2.119404e+02
8.000000e-07	-4.310813e-07	-2.989533e-09	-3.030640e+00	-1.966066e+02
8.100000e-07	-2.767746e-07	-2.726657e-09	-1.945815e+00	-1.797443e+02
8.200000e-07	-1.223887e-07	-2.439357e-09	-8.604320e-01	-1.611551e+02
8.300000e-07	3.202060e-08	-2.123981e-09	2.251151e-01	-1.406718e+02
8.400000e-07	1.864091e-07	-1.781959e-09	1.310516e+00	-1.181825e+02
8.500000e-07	3.407208e-07	-1.411083e-09	2.395377e+00	-9.365289e+01
8.600000e-07	4.949066e-07	-1.011947e-09	3.479353e+00	-6.714341e+01
8.700000e-07	6.489380e-07	-5.848233e-10	4.562243e+00	-3.882095e+01
8.800000e-07	8.028075e-07	-1.339293e-10	5.643996e+00	-8.961054e+00
8.900000e-07	9.564330e-07	3.383284e-10	6.724032e+00	2.205907e+01
9.000000e-07	1.109680e-06	8.273935e-10	7.801408e+00	5.377712e+01
9.100000e-07	1.262449e-06	1.319545e-09	8.875421e+00	8.567067e+01
9.200000e-07	1.414712e-06	1.806625e-09	9.945882e+00	1.171884e+02
9.300000e-07	1.566436e-06	2.277539e-09	1.101255e+01	1.477849e+02
9.400000e-07	1.717595e-06	2.726132e-09	1.207524e+01	1.769553e+02
9.500000e-07	1.868155e-06	3.144774e-09	1.313373e+01	2.042674e+02
9.600000e-07	2.018026e-06	3.527248e-09	1.418737e+01	2.293869e+02
9.700000e-07	2.167121e-06	3.867766e-09	1.523556e+01	2.520947e+02
9.800000e-07	2.315400e-06	4.166152e-09	1.627801e+01	2.722936e+02
9.900000e-07	2.462822e-06	4.427644e-09	1.731443e+01	2.900052e+02
1.000000e-06	2.609432e-06	4.653893e-09	1.834515e+01	3.053569e+02
1.010000e-06	2.755158e-06	4.849046e-09	1.936965e+01	3.185615e+02
1.020000e-06	2.899837e-06	5.019167e-09	2.038679e+01	3.298909e+02
1.030000e-06	3.043510e-06	5.171429e-09	2.139685e+01	3.396478e+02
1.040000e-06	3.186113e-06	5.309425e-09	2.239940e+01	3.481383e+02
1.050000e-06	3.327487e-06	5.430262e-09	2.339330e+01	3.556471e+02
1.060000e-06	3.467476e-06	5.536499e-09	2.437748e+01	3.624193e+02
1.070000e-06	3.606122e-06	5.634405e-09	2.535220e+01	3.686484e+02
1.080000e-06	3.743487e-06	5.725733e-09	2.631792e+01	3.744718e+02
1.090000e-06	3.879425e-06	5.809360e-09	2.727361e+01	3.799733e+02
1.100000e-06	4.013866e-06	5.885135e-09	2.821877e+01	3.851914e+02
1.110000e-06	4.146836e-06	5.955239e-09	2.915360e+01	3.901309e+02
1.120000e-06	4.278321e-06	6.022083e-09	3.007798e+01	3.947772e+02
1.130000e-06	4.408335e-06	6.085805e-09	3.099201e+01	3.991090e+02
1.140000e-06	4.536794e-06	6.143933e-09	3.189512e+01	4.031102e+02
1.150000e-06	4.663595e-06	6.194507e-09	3.278657e+01	4.067776e+02
1.160000e-06	4.788869e-06	6.241024e-09	3.366729e+01	4.101247e+02
1.170000e-06	4.912501e-06	6.288188e-09	3.453646e+01	4.131817e+02
1.180000e-06	5.034402e-06	6.333321e-09	3.539347e+01	4.159921e+02
1.190000e-06	5.154466e-06	6.375002e-09	3.623755e+01	4.186063e+02
1.200000e-06	5.272527e-06	6.413172e-09	3.706756e+01	4.210750e+02
1.210000e-06	5.388607e-06	6.450465e-09	3.788365e+01	4.234419e+02
1.220000e-06	5.502634e-06	6.485758e-09	3.868529e+01	4.257392e+02
1.230000e-06	5.614530e-06	6.518605e-09	3.947195e+01	4.279836e+02
1.240000e-06	5.724407e-06	6.550411e-09	4.024443e+01	4.301766e+02
1.250000e-06	5.832343e-06	6.580114e-09	4.100325e+01	4.323064e+02
1.260000e-06	5.938254e-06	6.606056e-09	4.174784e+01	4.343522e+02
1.270000e-06	6.041988e-06	6.630992e-09	4.247712e+01	4.362894e+02
1.280000e-06	6.143552e-06	6.658084e-09	4.319115e+01	4.380958e+02
1.290000e-06	6.242954e-06	6.683574e-09	4.388998e+01	4.397560e+02
1.300000e-06	6.339996e-06	6.705289e-09	4.457222e+01	4.412652e+02
1.310000e-06	6.434705e-06	6.726071e-09	4.523805e+01	4.426304e+02
1.320000e-06	6.527179e-06	6.747259e-09	4.588817e+01	4.438699e+02
1.330000e-06	6.617398e-06	6.765481e-09	4.652244e+01	4.450101e+02
1.340000e-06	6.705219e-06	6.783609e-09	4.713985e+01	4.460817e+02
1.350000e-06	6.790688e-06	6.803519e-09	4.774072e+01	4.471149e+02
1.360000e-06	6.873840e-06	6.821994e-09	4.832531e+01	4.481345e+02
1.370000e-06	6.954549e-06	6.839006e-09	4.889272e+01	4.491566e+02
1.380000e-06	7.032785e-06	6.856171e-09	4.944274e+01	4.501863e+02
1.390000e-06	7.108428e-06	6.872667e-09	4.997454e+01	4.512175e+02
1.400000e-06	7.181333e-06	6.886290e-09	5.048709e+01	4.522347e+02
1.410000e-06	7.251635e-06	6.898021e-09	5.098133e+01	4.532160e+02
1.420000e-06	7.319447e-06	6.911195e-09	5.145807e+01	4.541372e+02
1.430000e-06	7.384636e-06	6.924945e-09	5.191637e+01	4.549765e+02
1.440000e-06	7.447188e-06	6.936307e-09	5.235613e+01	4.557181e+02
1.450000e-06	7.507219e-06	6.945802e-09	5.277817e+01	4.563552e+02
1.460000e-06	7.564596e-06	6.955570e-09	5.318155e+01	4.568910e+02
1.470000e-06	7.619196e-06	6.965774e-09	5.356540e+01	4.573383e+02
1.480000e-06	7.670821e-06	6.975166e-09	5.392834e+01	4.577177e+02
1.490000e-06	7.719329e-06	6.983650e-09	5.426937e+01	4.580536e+02
1.500000e-06	7.765001e-06	6.991181e-09	5.459046e+01	4.583708e+02
1.510000e-06	7.807927e-06	6.997997e-09	5.489224e+01	4.586903e+02
1.520000e-06	7.848026e-06	7.004245e-09	5.517415e+01	4.590263e+02
1.530000e-06	7.885407e-06	7.010267e-09	5.543695e+01	4.593836e+02
1.540000e-06	7.920051e-06	7.016797e-09	5.568051e+01	4.597580e+02
1.550000e-06	7.951857e-06	7.021751e-09	5.590412e+01	4.601367e+02
1.560000e-06	7.980966e-06	7.026493e-09	5.610876e+01	4.605007e+02
1.570000e-06	8.007293e-06	7.031395e-09	5.629385e+01	4.608289e+02
1.580000e-06	8.030670e-06	7.035742e-09	5.645819e+01	4.611011e+02
1.590000e-06	8.051283e-06	7.040567e-09	5.660311e+01	4.613017e+02
1.600000e-06	8.069149e-06	7.044557e-09	5.672871e+01	4.614221e+02
1.610000e-06	8.084102e-06	7.048277e-09	5.683384e+01	4.614623e+02
1.620000e-06	8.096009e-06	7.051643e-09	5.691755e+01	4.614305e+02
1.630000e-06	8.104752e-06	7.054112e-09	5.697902e+01	4.613413e+02
1.640000e-06	8.110534e-06	7.055292e-09	5.701967e+01	4.612132e+02
1.650000e-06	8.113507e-06	7.056375e-09	5.704056e+01	4.610651e+02
1.660000e-06	8.113640e-06	7.057328e-09	5.704150e+01	4.609130e+02
1.670000e-06	8.111090e-06	7.049123e-09	5.702357e+01	4.607670e+02
1.680000e-06	8.105884e-06	7.044245e-09	5.698698e+01	4.606295e+02
1.690000e-06	8.097947e-06	7.042728e-09	5.693117e+01	4.604946e+02
1.700000e-06	8.087341e-06	7.040896e-09	5.685661e+01	4.603496e+02
1.710000e-06	8.073943e-06	7.037541e-09	5.676242e+01	4.601765e+02
1.720000e-06	8.057746e-06	7.033185e-09	5.664855e+01	4.599556e+02
1.730000e-06	8.039080e-06	7.029792e-09	5.651732e+01	4.596689e+02
1.740000e-06	8.018020e-06	6.991572e-09	5.636926e+01	4.593034e+02
1.750000e-06	7.993832e-06	6.931498e-09	5.619921e+01	4.588535e+02
1.760000e-06	7.965856e-06	6.951057e-09	5.600253e+01	4.583220e+02
1.770000e-06	7.934364e-06	6.984566e-09	5.578113e+01	4.577202e+02
1.780000e-06	7.900224e-06	6.998772e-09	5.554112e+01	4.570663e+02
1.790000e-06	7.863892e-06	6.995986e-09	5.528569e+01	4.563819e+02
1.800000e-06	7.825199e-06	6.998922e-09	5.501367e+01	4.556894e+02
1.810000e-06	7.784396e-06	6.908809e-09	5.472681e+01	4.550074e+02
1.820000e-06	7.741252e-06	6.902590e-09	5.442350e+01	4.543483e+02
1.830000e-06	7.695287e-06	6.970918e-09	5.410034e+01	4.537157e+02
1.840000e-06	7.646625e-06	6.893222e-09	5.375824e+01	4.531034e+02
1.850000e-06	7.594987e-06	6.945757e-09	5.339520e+01	4.524969e+02
1.860000e-06	7.540314e-06	6.901655e-09	5.301083e+01	4.518746e+02
1.870000e-06	7.482839e-06	6.881629e-09	5.260677e+01	4.512119e+02
1.880000e-06	7.422700e-06	6.905666e-09	5.218397e+01	4.504842e+02
1.890000e-06	7.359942e-06	6.840120e-09	5.174276e+01	4.496711e+02
1.900000e-06	7.294365e-06	6.875524e-09	5.128173e+01	4.487593e+02
1.910000e-06	7.226032e-06	6.805715e-09	5.080133e+01	4.477443e+02
1.920000e-06	7.154941e-06	6.809167e-09	5.030154e+01	4.466310e+02
1.930000e-06	7.081185e-06	6.814041e-09	4.978301e+01	4.454321e+02
1.940000e-06	7.004737e-06	6.773581e-09	4.924556e+01	4.441661e+02
1.950000e-06	6.925440e-06	6.761984e-09	4.868807e+01	4.428534e+02
1.960000e-06	6.843704e-06	6.717568e-09	4.811344e+01	4.415128e+02
1.970000e-06	6.759602e-06	6.757535e-09	4.752218e+01	4.401580e+02
1.980000e-06	6.673029e-06	6.692630e-09	4.691355e+01	4.387946e+02
1.990000e-06	6.584031e-06	6.669964e-09	4.628786e+01	4.374193e+02
2.000000e-06	6.492760e-06	6.663656e-09	4.564619e+01	4.360199e+02
2.010000e-06	6.399253e-06	6.626793e-09	4.498881e+01	4.345770e+02
2.020000e-06	6.303283e-06	6.605659e-09	4.431411e+01	4.330673e+02
2.030000e-06	6.205113e-06	6.573037e-09	4.362394e+01	4.314669e+02
2.040000e-06	6.104886e-06	6.569540e-09	4.291932e+01	4.297553e+02
2.050000e-06	6.002371e-06	6.510564e-09	4.219860e+01	4.279188e+02
2.060000e-06	5.897606e-06	6.487607e-09	4.146207e+01	4.259522e+02
2.070000e-06	5.790886e-06	6.462588e-09	4.071179e+01	4.238599e+02
2.080000e-06	5.682182e-06	6.434893e-09	3.994757e+01	4.216544e+02
2.090000e-06	5.571295e-06	6.385869e-09	3.916800e+01	4.193540e+02
2.100000e-06	5.458295e-06	6.350986e-09	3.837357e+01	4.169792e+02
2.110000e-06	5.343261e-06	6.329056e-09	3.756484e+01	4.145487e+02
2.120000e-06	5.226119e-06	6.285026e-09	3.674130e+01	4.120753e+02
2.130000e-06	5.106913e-06	6.245965e-09	3.590324e+01	4.095633e+02
2.140000e-06	4.985865e-06	6.206714e-09	3.505223e+01	4.070065e+02
2.150000e-06	4.863006e-06	6.168091e-09	3.418850e+01	4.043887e+02
2.160000e-06	4.738417e-06	6.113111e-09	3.331260e+01	4.016853e+02
2.170000e-06	4.612148e-06	6.075246e-09	3.242488e+01	3.988668e+02
2.180000e-06	4.484170e-06	6.032263e-09	3.152516e+01	3.959024e+02
2.190000e-06	4.354599e-06	5.977351e-09	3.061423e+01	3.927652e+02
2.200000e-06	4.223537e-06	5.918399e-09	2.969282e+01	3.894351e+02
2.210000e-06	4.090981e-06	5.874294e-09	2.876092e+01	3.859017e+02
2.220000e-06	3.956933e-06	5.822806e-09	2.781851e+01	3.821646e+02
2.230000e-06	3.821480e-06	5.759455e-09	2.686624e+01	3.782327e+02
2.240000e-06	3.684635e-06	5.698542e-09	2.590417e+01	3.741204e+02
2.250000e-06	3.546386e-06	5.639589e-09	2.493223e+01	3.698437e+02
2.260000e-06	3.406772e-06	5.573229e-09	2.395070e+01	3.654149e+02
2.270000e-06	3.265909e-06	5.500614e-09	2.296039e+01	3.608378e+02
2.280000e-06	3.123842e-06	5.431889e-09	2.196162e+01	3.561037e+02
2.290000e-06	2.980560e-06	5.354305e-09	2.095430e+01	3.511899e+02
2.300000e-06	2.836119e-06	5.268516e-09	1.993883e+01	3.460595e+02
2.310000e-06	2.690677e-06	5.184256e-09	1.891632e+01	3.406641e+02
2.320000e-06	2.544264e-06	5.101790e-09	1.788699e+01	3.349477e+02
2.330000e-06	2.396985e-06	5.005616e-09	1.685158e+01	3.288529e+02
2.340000e-06	2.249021e-06	4.902429e-09	1.581134e+01	3.223254e+02
2.350000e-06	2.100279e-06	4.799662e-09	1.476564e+01	3.153195e+02
2.360000e-06	1.950625e-06	4.690457e-09	1.371352e+01	3.077997e+02
2.370000e-06	1.800231e-06	4.568006e-09	1.265621e+01	2.997413e+02
2.380000e-06	1.649329e-06	4.438197e-09	1.159531e+01	2.911261e+02
2.390000e-06	1.497910e-06	4.301992e-09	1.053079e+01	2.819365e+02
2.400000e-06	1.345965e-06	4.153617e-09	9.462568e+00	2.721466e+02
2.410000e-06	1.193510e-06	3.994924e-09	8.390763e+00	2.617125e+02
2.420000e-06	1.040611e-06	3.827863e-09	7.315828e+00	2.505639e+02
2.430000e-06	8.873432e-07	3.646224e-09	6.238309e+00	2.385969e+02
2.440000e-06	7.337029e-07	3.445205e-09	5.158168e+00	2.256717e+02
2.450000e-06	5.797155e-07	3.228328e-09	4.075587e+00	2.116153e+02
2.460000e-06	4.255708e-07	2.992976e-09	2.991900e+00	1.962304e+02
2.470000e-06	2.712943e-07	2.733459e-09	1.907286e+00	1.793097e+02
2.480000e-06	1.169053e-07	2.447172e-09	8.218819e-01	1.606553e+02
2.490000e-06	-3.749322e-08	2.136878e-09	-2.635894e-01	1.401018e+02
2.500000e-06	-1.919053e-07	1.797038e-09	-1.349156e+00	1.175398e+02
2.510000e-06	-3.462234e-07	1.425516e-09	-2.434062e+00	9.293769e+01
2.520000e-06	-5.003879e-07	1.027279e-09	-3.517888e+00	6.635987e+01
2.530000e-06	-6.543554e-07	6.033360e-10	-4.600329e+00	3.797706e+01
2.540000e-06	-8.080183e-07	1.539916e-10	-5.680629e+00	8.068598e+00
2.550000e-06	-9.613420e-07	-3.166766e-10	-6.758544e+00	-2.298492e+01
2.560000e-06	-1.114272e-06	-7.999615e-10	-7.833688e+00	-5.471857e+01
2.570000e-06	-1.266732e-06	-1.293044e-09	-8.905537e+00	-8.660832e+01
2.580000e-06	-1.418694e-06	-1.783335e-09	-9.973874e+00	-1.181025e+02
2.590000e-06	-1.570160e-06	-2.258563e-09	-1.103873e+01	-1.486564e+02
2.600000e-06	-1.721135e-06	-2.709898e-09	-1.210014e+01	-1.777674e+02
2.610000e-06	-1.871598e-06	-3.129357e-09	-1.315794e+01	-2.050064e+02
2.620000e-06	-2.021442e-06	-3.513020e-09	-1.421139e+01	-2.300430e+02
2.630000e-06	-2.170472e-06	-3.855749e-09	-1.525912e+01	-2.526622e+02
2.640000e-06	-2.318642e-06	-4.156535e-09	-1.630080e+01	-2.727712e+02
2.650000e-06	-2.466010e-06	-4.417121e-09	-1.733685e+01	-2.903958e+02
2.660000e-06	-2.612533e-06	-4.642746e-09	-1.836695e+01	-3.056668e+02
2.670000e-06	-2.758141e-06	-4.839997e-09	-1.939062e+01	-3.187996e+02
2.680000e-06	-2.902724e-06	-5.014439e-09	-2.040708e+01	-3.300676e+02
2.690000e-06	-3.046196e-06	-5.168060e-09	-2.141574e+01	-3.397741e+02
2.700000e-06	-3.188555e-06	-5.303590e-09	-2.241657e+01	-3.482249e+02
2.710000e-06	-3.329706e-06	-5.424960e-09	-2.340891e+01	-3.557035e+02
2.720000e-06	-3.469507e-06	-5.534633e-09	-2.439175e+01	-3.624534e+02
2.730000e-06	-3.608017e-06	-5.633407e-09	-2.536552e+01	-3.686660e+02
2.740000e-06	-3.745187e-06	-5.721903e-09	-2.632987e+01	-3.744768e+02
2.750000e-06	-3.880947e-06	-5.802794e-09	-2.728431e+01	-3.799679e+02
2.760000e-06	-4.015392e-06	-5.877795e-09	-2.822950e+01	-3.851761e+02
2.770000e-06	-4.148396e-06	-5.948679e-09	-2.916456e+01	-3.901056e+02
2.780000e-06	-4.279855e-06	-6.016204e-09	-3.008876e+01	-3.947411e+02
2.790000e-06	-4.409879e-06	-6.080152e-09	-3.100287e+01	-3.990614e+02
2.800000e-06	-4.538377e-06	-6.139919e-09	-3.190625e+01	-4.030507e+02
2.810000e-06	-4.665299e-06	-6.196351e-09	-3.279856e+01	-4.067063e+02
2.820000e-06	-4.790631e-06	-6.250881e-09	-3.367968e+01	-4.100425e+02
2.830000e-06	-4.914187e-06	-6.302222e-09	-3.454832e+01	-4.130900e+02
2.840000e-06	-5.035940e-06	-6.349850e-09	-3.540428e+01	-4.158926e+02
2.850000e-06	-5.155862e-06	-6.394164e-09	-3.624737e+01	-4.185008e+02
2.860000e-06	-5.273882e-06	-6.436081e-09	-3.707709e+01	-4.209652e+02
2.870000e-06	-5.389768e-06	-6.476199e-09	-3.789181e+01	-4.233293e+02
2.880000e-06	-5.503449e-06	-6.513650e-09	-3.869102e+01	-4.256245e+02
2.890000e-06	-5.615044e-06	-6.549445e-09	-3.947557e+01	-4.278672e+02
2.900000e-06	-5.724552e-06	-6.583771e-09	-4.024545e+01	-4.300583e+02
2.910000e-06	-5.832094e-06	-6.614409e-09	-4.100150e+01	-4.321855e+02
2.920000e-06	-5.937686e-06	-6.642197e-09	-4.174385e+01	-4.342279e+02
2.930000e-06	-6.041157e-06	-6.669174e-09	-4.247128e+01	-4.361609e+02
2.940000e-06	-6.142387e-06	-6.694286e-09	-4.318296e+01	-4.379623e+02
