# Temperatura_=_20.0
# Concentracion g/m^3_=_9000.0
# C_Vs_to_Am_M_A/Vsm_=_65563218390.804596
# pendiente_HvsI_1/m_=_3716.3
# ordenada_HvsI_A/m_=_1297.0
# frecuencia_Hz_=_301290.05709680106

Tiempo_(s)	Campo_(V.s)	Magnetizacion_(V.s)	Campo_(kA/m)	Magnetizacion_(A/m)
0.000000e+00	-8.096774e-06	-7.226172e-09	-5.697618e+01	-4.750393e+02
1.000000e-08	-8.094090e-06	-7.223445e-09	-5.695729e+01	-4.748611e+02
2.000000e-08	-8.088706e-06	-7.223900e-09	-5.691941e+01	-4.746863e+02
3.000000e-08	-8.080758e-06	-7.223648e-09	-5.686347e+01	-4.745112e+02
4.000000e-08	-8.070035e-06	-7.219182e-09	-5.678802e+01	-4.743251e+02
5.000000e-08	-8.056362e-06	-7.212204e-09	-5.669181e+01	-4.741126e+02
6.000000e-08	-8.039797e-06	-7.209745e-09	-5.657524e+01	-4.738566e+02
7.000000e-08	-8.020706e-06	-7.210401e-09	-5.644090e+01	-4.735411e+02
8.000000e-08	-7.999295e-06	-7.222203e-09	-5.629023e+01	-4.731544e+02
9.000000e-08	-7.975101e-06	-7.231211e-09	-5.611998e+01	-4.726913e+02
1.000000e-07	-7.947648e-06	-7.225235e-09	-5.592679e+01	-4.721541e+02
1.100000e-07	-7.917099e-06	-7.206175e-09	-5.571183e+01	-4.715524e+02
1.200000e-07	-7.883679e-06	-7.178174e-09	-5.547665e+01	-4.709011e+02
1.300000e-07	-7.847471e-06	-7.153419e-09	-5.522186e+01	-4.702182e+02
1.400000e-07	-7.808888e-06	-7.145671e-09	-5.495035e+01	-4.695214e+02
1.500000e-07	-7.768118e-06	-7.155936e-09	-5.466346e+01	-4.688248e+02
1.600000e-07	-7.724827e-06	-7.133442e-09	-5.435883e+01	-4.681364e+02
1.700000e-07	-7.678714e-06	-7.106654e-09	-5.403434e+01	-4.674562e+02
1.800000e-07	-7.629822e-06	-7.124569e-09	-5.369028e+01	-4.667759e+02
1.900000e-07	-7.577988e-06	-7.111954e-09	-5.332553e+01	-4.660797e+02
2.000000e-07	-7.523075e-06	-7.083583e-09	-5.293912e+01	-4.653468e+02
2.100000e-07	-7.465376e-06	-7.066419e-09	-5.253310e+01	-4.645545e+02
2.200000e-07	-7.405134e-06	-7.060822e-09	-5.210918e+01	-4.636812e+02
2.300000e-07	-7.342347e-06	-7.053841e-09	-5.166735e+01	-4.627105e+02
2.400000e-07	-7.276785e-06	-7.020824e-09	-5.120600e+01	-4.616331e+02
2.500000e-07	-7.208496e-06	-7.023843e-09	-5.072545e+01	-4.604484e+02
2.600000e-07	-7.137584e-06	-7.000651e-09	-5.022646e+01	-4.591646e+02
2.700000e-07	-7.063880e-06	-6.964213e-09	-4.970781e+01	-4.577968e+02
2.800000e-07	-6.987412e-06	-6.958886e-09	-4.916971e+01	-4.563647e+02
2.900000e-07	-6.908309e-06	-6.951298e-09	-4.861307e+01	-4.548888e+02
3.000000e-07	-6.826673e-06	-6.914390e-09	-4.803860e+01	-4.533874e+02
3.100000e-07	-6.742670e-06	-6.879041e-09	-4.744749e+01	-4.518728e+02
3.200000e-07	-6.656378e-06	-6.881770e-09	-4.684026e+01	-4.503493e+02
3.300000e-07	-6.567748e-06	-6.849073e-09	-4.621658e+01	-4.488124e+02
3.400000e-07	-6.476660e-06	-6.809352e-09	-4.557560e+01	-4.472493e+02
3.500000e-07	-6.383225e-06	-6.794917e-09	-4.491811e+01	-4.456409e+02
3.600000e-07	-6.287600e-06	-6.773166e-09	-4.424521e+01	-4.439646e+02
3.700000e-07	-6.189757e-06	-6.731601e-09	-4.355669e+01	-4.421982e+02
3.800000e-07	-6.089679e-06	-6.705351e-09	-4.285245e+01	-4.403234e+02
3.900000e-07	-5.987323e-06	-6.689975e-09	-4.213219e+01	-4.383283e+02
4.000000e-07	-5.882789e-06	-6.648114e-09	-4.139659e+01	-4.362095e+02
4.100000e-07	-5.776230e-06	-6.608743e-09	-4.064674e+01	-4.339720e+02
4.200000e-07	-5.667596e-06	-6.587051e-09	-3.988230e+01	-4.316279e+02
4.300000e-07	-5.556855e-06	-6.560579e-09	-3.910303e+01	-4.291939e+02
4.400000e-07	-5.444077e-06	-6.512168e-09	-3.830942e+01	-4.266878e+02
4.500000e-07	-5.329188e-06	-6.475399e-09	-3.750096e+01	-4.241243e+02
4.600000e-07	-5.212207e-06	-6.445142e-09	-3.667777e+01	-4.215119e+02
4.700000e-07	-5.093276e-06	-6.399757e-09	-3.584087e+01	-4.188504e+02
4.800000e-07	-4.972541e-06	-6.350541e-09	-3.499127e+01	-4.161299e+02
4.900000e-07	-4.849978e-06	-6.312108e-09	-3.412881e+01	-4.133313e+02
5.000000e-07	-4.725586e-06	-6.266363e-09	-3.325347e+01	-4.104288e+02
5.100000e-07	-4.599549e-06	-6.209311e-09	-3.236656e+01	-4.073930e+02
5.200000e-07	-4.471853e-06	-6.163172e-09	-3.146798e+01	-4.041954e+02
5.300000e-07	-4.342586e-06	-6.116301e-09	-3.055834e+01	-4.008121e+02
5.400000e-07	-4.211768e-06	-6.058918e-09	-2.963779e+01	-3.972273e+02
5.500000e-07	-4.079399e-06	-5.999457e-09	-2.870632e+01	-3.934351e+02
5.600000e-07	-3.945621e-06	-5.948217e-09	-2.776493e+01	-3.894391e+02
5.700000e-07	-3.810339e-06	-5.889377e-09	-2.681297e+01	-3.852511e+02
5.800000e-07	-3.673602e-06	-5.822199e-09	-2.585077e+01	-3.808874e+02
5.900000e-07	-3.535581e-06	-5.753655e-09	-2.487952e+01	-3.763638e+02
6.000000e-07	-3.396198e-06	-5.683306e-09	-2.389870e+01	-3.716907e+02
6.100000e-07	-3.255321e-06	-5.607920e-09	-2.290737e+01	-3.668688e+02
6.200000e-07	-3.113096e-06	-5.528654e-09	-2.190654e+01	-3.618856e+02
6.300000e-07	-2.969767e-06	-5.450322e-09	-2.089795e+01	-3.567139e+02
6.400000e-07	-2.825373e-06	-5.364213e-09	-1.988187e+01	-3.513131e+02
6.500000e-07	-2.679955e-06	-5.273418e-09	-1.885857e+01	-3.456320e+02
6.600000e-07	-2.533543e-06	-5.179045e-09	-1.782829e+01	-3.396137e+02
6.700000e-07	-2.386259e-06	-5.081723e-09	-1.679186e+01	-3.332012e+02
6.800000e-07	-2.238272e-06	-4.975843e-09	-1.575049e+01	-3.263429e+02
6.900000e-07	-2.089546e-06	-4.861680e-09	-1.470393e+01	-3.189965e+02
7.000000e-07	-1.940050e-06	-4.742744e-09	-1.365194e+01	-3.111315e+02
7.100000e-07	-1.789902e-06	-4.617578e-09	-1.259536e+01	-3.027272e+02
7.200000e-07	-1.639115e-06	-4.485268e-09	-1.153429e+01	-2.937694e+02
7.300000e-07	-1.487688e-06	-4.341925e-09	-1.046871e+01	-2.842421e+02
7.400000e-07	-1.335706e-06	-4.188580e-09	-9.399227e+00	-2.741194e+02
7.500000e-07	-1.183258e-06	-4.023579e-09	-8.326470e+00	-2.633549e+02
7.600000e-07	-1.030438e-06	-3.849546e-09	-7.251090e+00	-2.518732e+02
7.700000e-07	-8.772818e-07	-3.661194e-09	-6.173344e+00	-2.395637e+02
7.800000e-07	-7.238601e-07	-3.453656e-09	-5.093731e+00	-2.262791e+02
7.900000e-07	-5.701175e-07	-3.224912e-09	-4.011859e+00	-2.118391e+02
8.000000e-07	-4.161015e-07	-2.976846e-09	-2.928064e+00	-1.960400e+02
8.100000e-07	-2.619235e-07	-2.710181e-09	-1.843129e+00	-1.786709e+02
8.200000e-07	-1.076224e-07	-2.415468e-09	-7.573278e-01	-1.595338e+02
8.300000e-07	4.670170e-08	-2.089925e-09	3.286351e-01	-1.384666e+02
8.400000e-07	2.010280e-07	-1.737950e-09	1.414614e+00	-1.153676e+02
8.500000e-07	3.552530e-07	-1.361515e-09	2.499879e+00	-9.021660e+01
8.600000e-07	5.093203e-07	-9.537798e-10	3.584035e+00	-6.309209e+01
8.700000e-07	6.632393e-07	-5.164977e-10	4.667148e+00	-3.418048e+01
8.800000e-07	8.168958e-07	-5.680357e-11	5.748413e+00	-3.777021e+00
8.900000e-07	9.701929e-07	4.218825e-10	6.827149e+00	2.772323e+01
9.000000e-07	1.123119e-06	9.170072e-10	7.903276e+00	5.984373e+01
9.100000e-07	1.275699e-06	1.414270e-09	8.976962e+00	9.205280e+01
9.200000e-07	1.427848e-06	1.902957e-09	1.004763e+01	1.237959e+02
9.300000e-07	1.579438e-06	2.375721e-09	1.111435e+01	1.545304e+02
9.400000e-07	1.730434e-06	2.823786e-09	1.217689e+01	1.837605e+02
9.500000e-07	1.880785e-06	3.241503e-09	1.323489e+01	2.110679e+02
9.600000e-07	2.030476e-06	3.621784e-09	1.428826e+01	2.361357e+02
9.700000e-07	2.179371e-06	3.963962e-09	1.533602e+01	2.587639e+02
9.800000e-07	2.327372e-06	4.263338e-09	1.637748e+01	2.788745e+02
9.900000e-07	2.474613e-06	4.523275e-09	1.741360e+01	2.965063e+02
1.000000e-06	2.621035e-06	4.748925e-09	1.844396e+01	3.118008e+02
1.010000e-06	2.766506e-06	4.944476e-09	1.946762e+01	3.249805e+02
1.020000e-06	2.911008e-06	5.116785e-09	2.048447e+01	3.363221e+02
1.030000e-06	3.054454e-06	5.270241e-09	2.149388e+01	3.461288e+02
1.040000e-06	3.196715e-06	5.408484e-09	2.249496e+01	3.547026e+02
1.050000e-06	3.337676e-06	5.530476e-09	2.348689e+01	3.623219e+02
1.060000e-06	3.477352e-06	5.638612e-09	2.446978e+01	3.692230e+02
1.070000e-06	3.615804e-06	5.738398e-09	2.544405e+01	3.755905e+02
1.080000e-06	3.752913e-06	5.832654e-09	2.640887e+01	3.815539e+02
1.090000e-06	3.888592e-06	5.919231e-09	2.736363e+01	3.871907e+02
1.100000e-06	4.022915e-06	5.997416e-09	2.830884e+01	3.925357e+02
1.110000e-06	4.155745e-06	6.070108e-09	2.924356e+01	3.975928e+02
1.120000e-06	4.287016e-06	6.138128e-09	3.016730e+01	4.023487e+02
1.130000e-06	4.416822e-06	6.202250e-09	3.108073e+01	4.067857e+02
1.140000e-06	4.544990e-06	6.260466e-09	3.198264e+01	4.108924e+02
1.150000e-06	4.671549e-06	6.313404e-09	3.287322e+01	4.146710e+02
1.160000e-06	4.796516e-06	6.364566e-09	3.375260e+01	4.181398e+02
1.170000e-06	4.919770e-06	6.414940e-09	3.461992e+01	4.213327e+02
1.180000e-06	5.041312e-06	6.463123e-09	3.547520e+01	4.242954e+02
1.190000e-06	5.161029e-06	6.508422e-09	3.631764e+01	4.270788e+02
1.200000e-06	5.278821e-06	6.550441e-09	3.714653e+01	4.297321e+02
1.210000e-06	5.394598e-06	6.590075e-09	3.796124e+01	4.322966e+02
1.220000e-06	5.508289e-06	6.627773e-09	3.876127e+01	4.348007e+02
1.230000e-06	5.619892e-06	6.662862e-09	3.954661e+01	4.372575e+02
1.240000e-06	5.729461e-06	6.697237e-09	4.031764e+01	4.396646e+02
1.250000e-06	5.837059e-06	6.730021e-09	4.107480e+01	4.420073e+02
1.260000e-06	5.942667e-06	6.758141e-09	4.181795e+01	4.442625e+02
1.270000e-06	6.046152e-06	6.784708e-09	4.254616e+01	4.464046e+02
1.280000e-06	6.147380e-06	6.814829e-09	4.325849e+01	4.484111e+02
1.290000e-06	6.246394e-06	6.844053e-09	4.395524e+01	4.502672e+02
1.300000e-06	6.343129e-06	6.869046e-09	4.463596e+01	4.519690e+02
1.310000e-06	6.437524e-06	6.893195e-09	4.530021e+01	4.535243e+02
1.320000e-06	6.529687e-06	6.917435e-09	4.594875e+01	4.549518e+02
1.330000e-06	6.619555e-06	6.938658e-09	4.658114e+01	4.562781e+02
1.340000e-06	6.707059e-06	6.959379e-09	4.719689e+01	4.575333e+02
1.350000e-06	6.792259e-06	6.981476e-09	4.779644e+01	4.587461e+02
1.360000e-06	6.875189e-06	7.001253e-09	4.838001e+01	4.599400e+02
1.370000e-06	6.955695e-06	7.020129e-09	4.894652e+01	4.611291e+02
1.380000e-06	7.033623e-06	7.039678e-09	4.949489e+01	4.623170e+02
1.390000e-06	7.108880e-06	7.058643e-09	5.002447e+01	4.634966e+02
1.400000e-06	7.181385e-06	7.075986e-09	5.053468e+01	4.646519e+02
1.410000e-06	7.251325e-06	7.091435e-09	5.102684e+01	4.657615e+02
1.420000e-06	7.318789e-06	7.105942e-09	5.150158e+01	4.668026e+02
1.430000e-06	7.383616e-06	7.120371e-09	5.195776e+01	4.677551e+02
1.440000e-06	7.445846e-06	7.133074e-09	5.239567e+01	4.686056e+02
1.450000e-06	7.505548e-06	7.143855e-09	5.281578e+01	4.693496e+02
1.460000e-06	7.562615e-06	7.155774e-09	5.321736e+01	4.699925e+02
1.470000e-06	7.616909e-06	7.167591e-09	5.359942e+01	4.705488e+02
1.480000e-06	7.668178e-06	7.180335e-09	5.396020e+01	4.710396e+02
1.490000e-06	7.716333e-06	7.190493e-09	5.429905e+01	4.714894e+02
1.500000e-06	7.761677e-06	7.198427e-09	5.461814e+01	4.719218e+02
1.510000e-06	7.804323e-06	7.206612e-09	5.491823e+01	4.723564e+02
1.520000e-06	7.844157e-06	7.213624e-09	5.519854e+01	4.728048e+02
1.530000e-06	7.881294e-06	7.221066e-09	5.545987e+01	4.732697e+02
1.540000e-06	7.915727e-06	7.227360e-09	5.570217e+01	4.737443e+02
1.550000e-06	7.947331e-06	7.233482e-09	5.592457e+01	4.742138e+02
1.560000e-06	7.976170e-06	7.241330e-09	5.612750e+01	4.746577e+02
1.570000e-06	8.002210e-06	7.249418e-09	5.631074e+01	4.750539e+02
1.580000e-06	8.025346e-06	7.254981e-09	5.647355e+01	4.753815e+02
1.590000e-06	8.045685e-06	7.259306e-09	5.661667e+01	4.756252e+02
1.600000e-06	8.063226e-06	7.264612e-09	5.674011e+01	4.757769e+02
1.610000e-06	8.077848e-06	7.269318e-09	5.684300e+01	4.758371e+02
1.620000e-06	8.089411e-06	7.272328e-09	5.692437e+01	4.758147e+02
1.630000e-06	8.097820e-06	7.274364e-09	5.698354e+01	4.757251e+02
1.640000e-06	8.103333e-06	7.275878e-09	5.702233e+01	4.755874e+02
1.650000e-06	8.106057e-06	7.276915e-09	5.704150e+01	4.754214e+02
1.660000e-06	8.105918e-06	7.273240e-09	5.704053e+01	4.752437e+02
1.670000e-06	8.103086e-06	7.268997e-09	5.702060e+01	4.750656e+02
1.680000e-06	8.097549e-06	7.265513e-09	5.698163e+01	4.748908e+02
1.690000e-06	8.089282e-06	7.262493e-09	5.692346e+01	4.747154e+02
1.700000e-06	8.078358e-06	7.258914e-09	5.684659e+01	4.745286e+02
1.710000e-06	8.064570e-06	7.254710e-09	5.674956e+01	4.743148e+02
1.720000e-06	8.048016e-06	7.246906e-09	5.663308e+01	4.740569e+02
1.730000e-06	8.029096e-06	7.227926e-09	5.649994e+01	4.737389e+02
1.740000e-06	8.007730e-06	7.192185e-09	5.634959e+01	4.733494e+02
1.750000e-06	7.983221e-06	7.176035e-09	5.617712e+01	4.728835e+02
1.760000e-06	7.954967e-06	7.174135e-09	5.597830e+01	4.723438e+02
1.770000e-06	7.923283e-06	7.188645e-09	5.575534e+01	4.717399e+02
1.780000e-06	7.889036e-06	7.213267e-09	5.551435e+01	4.710871e+02
1.790000e-06	7.852508e-06	7.215567e-09	5.525730e+01	4.704033e+02
1.800000e-06	7.813617e-06	7.166693e-09	5.498364e+01	4.697062e+02
1.810000e-06	7.772646e-06	7.154250e-09	5.469532e+01	4.690097e+02
1.820000e-06	7.729295e-06	7.145589e-09	5.439026e+01	4.683216e+02
1.830000e-06	7.683103e-06	7.115443e-09	5.406522e+01	4.676415e+02
1.840000e-06	7.634124e-06	7.150580e-09	5.372056e+01	4.669609e+02
1.850000e-06	7.582204e-06	7.136050e-09	5.335520e+01	4.662637e+02
1.860000e-06	7.527363e-06	7.114308e-09	5.296929e+01	4.655290e+02
1.870000e-06	7.469719e-06	7.095565e-09	5.256366e+01	4.647340e+02
1.880000e-06	7.409407e-06	7.074699e-09	5.213924e+01	4.638574e+02
1.890000e-06	7.346463e-06	7.079847e-09	5.169631e+01	4.628829e+02
1.900000e-06	7.280682e-06	7.033948e-09	5.123342e+01	4.618016e+02
1.910000e-06	7.212090e-06	7.020966e-09	5.075075e+01	4.606132e+02
1.920000e-06	7.140730e-06	7.021057e-09	5.024860e+01	4.593260e+02
1.930000e-06	7.066757e-06	6.985786e-09	4.972806e+01	4.579554e+02
1.940000e-06	6.990082e-06	6.961247e-09	4.918850e+01	4.565213e+02
1.950000e-06	6.910606e-06	6.942972e-09	4.862923e+01	4.550442e+02
1.960000e-06	6.828746e-06	6.934434e-09	4.805319e+01	4.535420e+02
1.970000e-06	6.744467e-06	6.892418e-09	4.746013e+01	4.520270e+02
1.980000e-06	6.657642e-06	6.877821e-09	4.684915e+01	4.505031e+02
1.990000e-06	6.568485e-06	6.864074e-09	4.622177e+01	4.489655e+02
2.000000e-06	6.477100e-06	6.822910e-09	4.557870e+01	4.474010e+02
2.010000e-06	6.383439e-06	6.797714e-09	4.491962e+01	4.457905e+02
2.020000e-06	6.287417e-06	6.777572e-09	4.424392e+01	4.441113e+02
2.030000e-06	6.189192e-06	6.753141e-09	4.355272e+01	4.423412e+02
2.040000e-06	6.088786e-06	6.709643e-09	4.284617e+01	4.404622e+02
2.050000e-06	5.986096e-06	6.685950e-09	4.212355e+01	4.384626e+02
2.060000e-06	5.881245e-06	6.659523e-09	4.138573e+01	4.363393e+02
2.070000e-06	5.774414e-06	6.616578e-09	4.063396e+01	4.340977e+02
2.080000e-06	5.665546e-06	6.575839e-09	3.986787e+01	4.317500e+02
2.090000e-06	5.554585e-06	6.546078e-09	3.908706e+01	4.293131e+02
2.100000e-06	5.441547e-06	6.510220e-09	3.829162e+01	4.268046e+02
2.110000e-06	5.326361e-06	6.464060e-09	3.748106e+01	4.242392e+02
2.120000e-06	5.209077e-06	6.431693e-09	3.665575e+01	4.216250e+02
2.130000e-06	5.089781e-06	6.394059e-09	3.581627e+01	4.189616e+02
2.140000e-06	4.968638e-06	6.345556e-09	3.496380e+01	4.162386e+02
2.150000e-06	4.845756e-06	6.299541e-09	3.409910e+01	4.134367e+02
2.160000e-06	4.721141e-06	6.261001e-09	3.322219e+01	4.105298e+02
2.170000e-06	4.594876e-06	6.210501e-09	3.233368e+01	4.074886e+02
2.180000e-06	4.466946e-06	6.152979e-09	3.143345e+01	4.042847e+02
2.190000e-06	4.337375e-06	6.100670e-09	3.052167e+01	4.008944e+02
2.200000e-06	4.206313e-06	6.050032e-09	2.959940e+01	3.973022e+02
2.210000e-06	4.073728e-06	5.992260e-09	2.866641e+01	3.935024e+02
2.220000e-06	3.939682e-06	5.931038e-09	2.772315e+01	3.894993e+02
2.230000e-06	3.804265e-06	5.869866e-09	2.677023e+01	3.853047e+02
2.240000e-06	3.667351e-06	5.803458e-09	2.580678e+01	3.809349e+02
2.250000e-06	3.529009e-06	5.734873e-09	2.483328e+01	3.764057e+02
2.260000e-06	3.389300e-06	5.668004e-09	2.385016e+01	3.717273e+02
2.270000e-06	3.248403e-06	5.598153e-09	2.285868e+01	3.668999e+02
2.280000e-06	3.106409e-06	5.519785e-09	2.185949e+01	3.619104e+02
2.290000e-06	2.963150e-06	5.437620e-09	2.085139e+01	3.567312e+02
2.300000e-06	2.818751e-06	5.353047e-09	1.983527e+01	3.513213e+02
2.310000e-06	2.673414e-06	5.265528e-09	1.881254e+01	3.456291e+02
2.320000e-06	2.527131e-06	5.169680e-09	1.778316e+01	3.395976e+02
2.330000e-06	2.379972e-06	5.068129e-09	1.674762e+01	3.331699e+02
2.340000e-06	2.231956e-06	4.963962e-09	1.570605e+01	3.262947e+02
2.350000e-06	2.083086e-06	4.855447e-09	1.465846e+01	3.189302e+02
2.360000e-06	1.933495e-06	4.739797e-09	1.360581e+01	3.110461e+02
2.370000e-06	1.783273e-06	4.615358e-09	1.254871e+01	3.026223e+02
2.380000e-06	1.632464e-06	4.480904e-09	1.148749e+01	2.936443e+02
2.390000e-06	1.481129e-06	4.336734e-09	1.042255e+01	2.840963e+02
2.400000e-06	1.329311e-06	4.184195e-09	9.354224e+00	2.739515e+02
2.410000e-06	1.177036e-06	4.022602e-09	8.282684e+00	2.631628e+02
2.420000e-06	1.024355e-06	3.848112e-09	7.208282e+00	2.516536e+02
2.430000e-06	8.712155e-07	3.657332e-09	6.130655e+00	2.393120e+02
2.440000e-06	7.176507e-07	3.451720e-09	5.050036e+00	2.259893e+02
2.450000e-06	5.638027e-07	3.227219e-09	3.967423e+00	2.115042e+02
2.460000e-06	4.097775e-07	2.981349e-09	2.883563e+00	1.956527e+02
2.470000e-06	2.556095e-07	2.714865e-09	1.798698e+00	1.782236e+02
2.480000e-06	1.013479e-07	2.423396e-09	7.131747e-01	1.590199e+02
2.490000e-06	-5.293296e-08	2.103897e-09	-3.724839e-01	1.378814e+02
2.500000e-06	-2.071351e-07	1.753249e-09	-1.457588e+00	1.147088e+02
2.510000e-06	-3.612695e-07	1.375139e-09	-2.542217e+00	8.948535e+01
2.520000e-06	-5.153158e-07	9.687883e-10	-3.626225e+00	6.229307e+01
2.530000e-06	-6.691193e-07	5.327096e-10	-4.708525e+00	3.332240e+01
2.540000e-06	-8.225920e-07	7.334495e-11	-5.788497e+00	2.872338e+00
2.550000e-06	-9.756853e-07	-4.046237e-10	-6.865799e+00	-2.865876e+01
2.560000e-06	-1.128352e-06	-8.973345e-10	-7.940101e+00	-6.079189e+01
2.570000e-06	-1.280585e-06	-1.398875e-09	-9.011345e+00	-9.299398e+01
2.580000e-06	-1.432421e-06	-1.892801e-09	-1.007980e+01	-1.247103e+02
2.590000e-06	-1.583810e-06	-2.368842e-09	-1.114511e+01	-1.553993e+02
2.600000e-06	-1.734694e-06	-2.820399e-09	-1.220686e+01	-1.845675e+02
2.610000e-06	-1.884893e-06	-3.239185e-09	-1.326380e+01	-2.117998e+02
2.620000e-06	-2.034381e-06	-3.619449e-09	-1.431573e+01	-2.367832e+02
2.630000e-06	-2.183234e-06	-3.958750e-09	-1.536320e+01	-2.593222e+02
2.640000e-06	-2.331294e-06	-4.258306e-09	-1.640508e+01	-2.793430e+02
2.650000e-06	-2.478512e-06	-4.517961e-09	-1.744104e+01	-2.968884e+02
2.660000e-06	-2.624881e-06	-4.742294e-09	-1.847102e+01	-3.121033e+02
2.670000e-06	-2.770219e-06	-4.940369e-09	-1.949375e+01	-3.252124e+02
2.680000e-06	-2.914446e-06	-5.116598e-09	-2.050866e+01	-3.364940e+02
2.690000e-06	-3.057658e-06	-5.270054e-09	-2.151643e+01	-3.462515e+02
2.700000e-06	-3.199784e-06	-5.404861e-09	-2.251656e+01	-3.547868e+02
2.710000e-06	-3.340674e-06	-5.527533e-09	-2.350799e+01	-3.623767e+02
2.720000e-06	-3.480254e-06	-5.639256e-09	-2.449019e+01	-3.692560e+02
2.730000e-06	-3.618520e-06	-5.738921e-09	-2.546316e+01	-3.756073e+02
2.740000e-06	-3.755378e-06	-5.829570e-09	-2.642622e+01	-3.815580e+02
2.750000e-06	-3.890841e-06	-5.913562e-09	-2.737945e+01	-3.871841e+02
2.760000e-06	-4.025001e-06	-5.990481e-09	-2.832353e+01	-3.925190e+02
2.770000e-06	-4.157737e-06	-6.062403e-09	-2.925757e+01	-3.975657e+02
2.780000e-06	-4.288973e-06	-6.131706e-09	-3.018107e+01	-4.023105e+02
2.790000e-06	-4.418690e-06	-6.197123e-09	-3.109388e+01	-4.067359e+02
2.800000e-06	-4.546836e-06	-6.257875e-09	-3.199562e+01	-4.108309e+02
2.810000e-06	-4.673446e-06	-6.316430e-09	-3.288657e+01	-4.145981e+02
2.820000e-06	-4.798467e-06	-6.370749e-09	-3.376633e+01	-4.180564e+02
2.830000e-06	-4.921730e-06	-6.421930e-09	-3.463372e+01	-4.212404e+02
2.840000e-06	-5.043228e-06	-6.472786e-09	-3.548868e+01	-4.241959e+02
2.850000e-06	-5.162886e-06	-6.521196e-09	-3.633071e+01	-4.269738e+02
2.860000e-06	-5.280545e-06	-6.565644e-09	-3.715866e+01	-4.296234e+02
2.870000e-06	-5.396043e-06	-6.608249e-09	-3.797141e+01	-4.321854e+02
2.880000e-06	-5.509344e-06	-6.650516e-09	-3.876869e+01	-4.346878e+02
2.890000e-06	-5.620569e-06	-6.689027e-09	-3.955138e+01	-4.371430e+02
2.900000e-06	-5.729761e-06	-6.724325e-09	-4.031975e+01	-4.395483e+02
2.910000e-06	-5.836984e-06	-6.758102e-09	-4.107426e+01	-4.418883e+02
2.920000e-06	-5.942220e-06	-6.790149e-09	-4.181480e+01	-4.441400e+02
2.930000e-06	-6.045380e-06	-6.820619e-09	-4.254073e+01	-4.462777e+02
2.940000e-06	-6.146357e-06	-6.849522e-09	-4.325129e+01	-4.482791e+02
