# Temperatura_=_20.0
# Concentracion g/m^3_=_9000.0
# C_Vs_to_Am_M_A/Vsm_=_65563218390.804596
# pendiente_HvsI_1/m_=_3716.3
# ordenada_HvsI_A/m_=_1297.0
# frecuencia_Hz_=_301288.2378462007

Tiempo_(s)	Campo_(V.s)	Magnetizacion_(V.s)	Campo_(kA/m)	Magnetizacion_(A/m)
0.000000e+00	-8.068681e-06	-7.071633e-09	-5.697776e+01	-4.646577e+02
1.000000e-08	-8.066025e-06	-7.072535e-09	-5.695900e+01	-4.645102e+02
2.000000e-08	-8.060692e-06	-7.073253e-09	-5.692134e+01	-4.643748e+02
3.000000e-08	-8.052805e-06	-7.072150e-09	-5.686565e+01	-4.642460e+02
4.000000e-08	-8.042101e-06	-7.067154e-09	-5.679006e+01	-4.641110e+02
5.000000e-08	-8.028376e-06	-7.061050e-09	-5.669314e+01	-4.639521e+02
6.000000e-08	-8.011776e-06	-7.057690e-09	-5.657592e+01	-4.637488e+02
7.000000e-08	-7.992759e-06	-7.054829e-09	-5.644163e+01	-4.634823e+02
8.000000e-08	-7.971406e-06	-7.059666e-09	-5.629084e+01	-4.631375e+02
9.000000e-08	-7.947215e-06	-7.079171e-09	-5.612001e+01	-4.627067e+02
1.000000e-07	-7.919831e-06	-7.079566e-09	-5.592664e+01	-4.621899e+02
1.100000e-07	-7.889406e-06	-7.056142e-09	-5.571179e+01	-4.615957e+02
1.200000e-07	-7.856037e-06	-7.024206e-09	-5.547615e+01	-4.609395e+02
1.300000e-07	-7.819873e-06	-7.001687e-09	-5.522078e+01	-4.602412e+02
1.400000e-07	-7.781430e-06	-6.994333e-09	-5.494931e+01	-4.595220e+02
1.500000e-07	-7.740820e-06	-6.993933e-09	-5.466254e+01	-4.588008e+02
1.600000e-07	-7.697630e-06	-6.993954e-09	-5.435755e+01	-4.580914e+02
1.700000e-07	-7.651576e-06	-6.956209e-09	-5.403233e+01	-4.574001e+02
1.800000e-07	-7.602744e-06	-6.960009e-09	-5.368750e+01	-4.567244e+02
1.900000e-07	-7.550972e-06	-6.971622e-09	-5.332191e+01	-4.560538e+02
2.000000e-07	-7.496185e-06	-6.933296e-09	-5.293502e+01	-4.553714e+02
2.100000e-07	-7.438646e-06	-6.918672e-09	-5.252871e+01	-4.546563e+02
2.200000e-07	-7.378521e-06	-6.920193e-09	-5.210413e+01	-4.538870e+02
2.300000e-07	-7.315864e-06	-6.914045e-09	-5.166167e+01	-4.530448e+02
2.400000e-07	-7.250529e-06	-6.889004e-09	-5.120030e+01	-4.521167e+02
2.500000e-07	-7.182446e-06	-6.881160e-09	-5.071952e+01	-4.510968e+02
2.600000e-07	-7.111666e-06	-6.870540e-09	-5.021971e+01	-4.499869e+02
2.700000e-07	-7.038141e-06	-6.838602e-09	-4.970051e+01	-4.487962e+02
2.800000e-07	-6.961901e-06	-6.825723e-09	-4.916213e+01	-4.475386e+02
2.900000e-07	-6.882977e-06	-6.817737e-09	-4.860480e+01	-4.462300e+02
3.000000e-07	-6.801469e-06	-6.791272e-09	-4.802922e+01	-4.448853e+02
3.100000e-07	-6.717595e-06	-6.762061e-09	-4.743693e+01	-4.435151e+02
3.200000e-07	-6.631516e-06	-6.753549e-09	-4.682908e+01	-4.421236e+02
3.300000e-07	-6.543195e-06	-6.738215e-09	-4.620539e+01	-4.407072e+02
3.400000e-07	-6.452429e-06	-6.696695e-09	-4.556444e+01	-4.392549e+02
3.500000e-07	-6.359339e-06	-6.675537e-09	-4.490708e+01	-4.377497e+02
3.600000e-07	-6.264062e-06	-6.665458e-09	-4.423427e+01	-4.361709e+02
3.700000e-07	-6.166522e-06	-6.632929e-09	-4.354548e+01	-4.344980e+02
3.800000e-07	-6.066668e-06	-6.597127e-09	-4.284036e+01	-4.327130e+02
3.900000e-07	-5.964623e-06	-6.577061e-09	-4.211975e+01	-4.308042e+02
4.000000e-07	-5.860575e-06	-6.550604e-09	-4.138501e+01	-4.287671e+02
4.100000e-07	-5.754390e-06	-6.508372e-09	-4.063518e+01	-4.266054e+02
4.200000e-07	-5.646118e-06	-6.480716e-09	-3.987060e+01	-4.243301e+02
4.300000e-07	-5.535830e-06	-6.453487e-09	-3.909179e+01	-4.219570e+02
4.400000e-07	-5.423457e-06	-6.410447e-09	-3.829826e+01	-4.195034e+02
4.500000e-07	-5.309002e-06	-6.370053e-09	-3.749002e+01	-4.169851e+02
4.600000e-07	-5.192461e-06	-6.340139e-09	-3.666706e+01	-4.144124e+02
4.700000e-07	-5.073913e-06	-6.299470e-09	-3.582992e+01	-4.117880e+02
4.800000e-07	-4.953519e-06	-6.249269e-09	-3.497974e+01	-4.091054e+02
4.900000e-07	-4.831378e-06	-6.210507e-09	-3.411723e+01	-4.063494e+02
5.000000e-07	-4.707453e-06	-6.170315e-09	-3.324213e+01	-4.034974e+02
5.100000e-07	-4.581883e-06	-6.117375e-09	-3.235540e+01	-4.005229e+02
5.200000e-07	-4.454709e-06	-6.064615e-09	-3.145735e+01	-3.973989e+02
5.300000e-07	-4.325909e-06	-6.019269e-09	-3.054782e+01	-3.941015e+02
5.400000e-07	-4.195506e-06	-5.966282e-09	-2.962696e+01	-3.906136e+02
5.500000e-07	-4.063530e-06	-5.907404e-09	-2.869500e+01	-3.869267e+02
5.600000e-07	-3.930130e-06	-5.853243e-09	-2.775299e+01	-3.830413e+02
5.700000e-07	-3.795288e-06	-5.797302e-09	-2.680079e+01	-3.789658e+02
5.800000e-07	-3.659054e-06	-5.732883e-09	-2.583876e+01	-3.747130e+02
5.900000e-07	-3.521565e-06	-5.664040e-09	-2.486787e+01	-3.702968e+02
6.000000e-07	-3.382703e-06	-5.596768e-09	-2.388728e+01	-3.657270e+02
6.100000e-07	-3.242333e-06	-5.523125e-09	-2.289604e+01	-3.610051e+02
6.200000e-07	-3.100589e-06	-5.444414e-09	-2.189510e+01	-3.561212e+02
6.300000e-07	-2.957667e-06	-5.366297e-09	-2.088585e+01	-3.510522e+02
6.400000e-07	-2.813695e-06	-5.285535e-09	-1.986917e+01	-3.457622e+02
6.500000e-07	-2.668716e-06	-5.197066e-09	-1.884539e+01	-3.402050e+02
6.600000e-07	-2.522748e-06	-5.102495e-09	-1.781463e+01	-3.343282e+02
6.700000e-07	-2.375959e-06	-5.006399e-09	-1.677806e+01	-3.280780e+02
6.800000e-07	-2.228422e-06	-4.904314e-09	-1.573621e+01	-3.214045e+02
6.900000e-07	-2.080121e-06	-4.793807e-09	-1.468897e+01	-3.142651e+02
7.000000e-07	-1.931112e-06	-4.676236e-09	-1.363673e+01	-3.066273e+02
7.100000e-07	-1.781508e-06	-4.553723e-09	-1.258029e+01	-2.984670e+02
7.200000e-07	-1.631314e-06	-4.423629e-09	-1.151968e+01	-2.897659e+02
7.300000e-07	-1.480475e-06	-4.284586e-09	-1.045451e+01	-2.805043e+02
7.400000e-07	-1.329067e-06	-4.135757e-09	-9.385334e+00	-2.706534e+02
7.500000e-07	-1.177141e-06	-3.975918e-09	-8.312491e+00	-2.601660e+02
7.600000e-07	-1.024811e-06	-3.805545e-09	-7.236798e+00	-2.489683e+02
7.700000e-07	-8.721586e-07	-3.620796e-09	-6.158831e+00	-2.369540e+02
7.800000e-07	-7.191961e-07	-3.418325e-09	-5.078672e+00	-2.239825e+02
7.900000e-07	-5.659441e-07	-3.194569e-09	-3.996468e+00	-2.098821e+02
8.000000e-07	-4.124496e-07	-2.951836e-09	-2.912552e+00	-1.944585e+02
8.100000e-07	-2.588224e-07	-2.689768e-09	-1.827699e+00	-1.775097e+02
8.200000e-07	-1.051205e-07	-2.402383e-09	-7.423186e-01	-1.588443e+02
8.300000e-07	4.856689e-08	-2.084696e-09	3.429597e-01	-1.383044e+02
8.400000e-07	2.022093e-07	-1.739969e-09	1.427920e+00	-1.157874e+02
8.500000e-07	3.558091e-07	-1.370845e-09	2.512580e+00	-9.126769e+01
8.600000e-07	5.093120e-07	-9.713154e-10	3.596555e+00	-6.481281e+01
8.700000e-07	6.626443e-07	-5.445367e-10	4.679326e+00	-3.659382e+01
8.800000e-07	8.157265e-07	-9.683054e-11	5.760331e+00	-6.886793e+00
8.900000e-07	9.685474e-07	3.710274e-10	6.839489e+00	2.393458e+01
9.000000e-07	1.120999e-06	8.558653e-10	7.916040e+00	5.541557e+01
9.100000e-07	1.272981e-06	1.343773e-09	8.989278e+00	8.704490e+01
9.200000e-07	1.424486e-06	1.824950e-09	1.005914e+01	1.182851e+02
9.300000e-07	1.575386e-06	2.293110e-09	1.112474e+01	1.486060e+02
9.400000e-07	1.725666e-06	2.739322e-09	1.218595e+01	1.775184e+02
9.500000e-07	1.875401e-06	3.154041e-09	1.324332e+01	2.046041e+02
9.600000e-07	2.024524e-06	3.533742e-09	1.429637e+01	2.295406e+02
9.700000e-07	2.172939e-06	3.875196e-09	1.534441e+01	2.521170e+02
9.800000e-07	2.320561e-06	4.174860e-09	1.638687e+01	2.722401e+02
9.900000e-07	2.467337e-06	4.435849e-09	1.742334e+01	2.899315e+02
1.000000e-06	2.613295e-06	4.660955e-09	1.845403e+01	3.053145e+02
1.010000e-06	2.758309e-06	4.856145e-09	1.947806e+01	3.185948e+02
1.020000e-06	2.902265e-06	5.027740e-09	2.049462e+01	3.300345e+02
1.030000e-06	3.045191e-06	5.182572e-09	2.150390e+01	3.399260e+02
1.040000e-06	3.187001e-06	5.322442e-09	2.250531e+01	3.485646e+02
1.050000e-06	3.327570e-06	5.445267e-09	2.349795e+01	3.562258e+02
1.060000e-06	3.466801e-06	5.554649e-09	2.448115e+01	3.631471e+02
1.070000e-06	3.604685e-06	5.655717e-09	2.545482e+01	3.695169e+02
1.080000e-06	3.741195e-06	5.748866e-09	2.641880e+01	3.754705e+02
1.090000e-06	3.876316e-06	5.832148e-09	2.737297e+01	3.810917e+02
1.100000e-06	4.010104e-06	5.907208e-09	2.831773e+01	3.864212e+02
1.110000e-06	4.142477e-06	5.978099e-09	2.925249e+01	3.914677e+02
1.120000e-06	4.273354e-06	6.046344e-09	3.017670e+01	3.962206e+02
1.130000e-06	4.402649e-06	6.111399e-09	3.108972e+01	4.006630e+02
1.140000e-06	4.530346e-06	6.171797e-09	3.199147e+01	4.047825e+02
1.150000e-06	4.656513e-06	6.227335e-09	3.288241e+01	4.085783e+02
1.160000e-06	4.781065e-06	6.279507e-09	3.376195e+01	4.120651e+02
1.170000e-06	4.903876e-06	6.328683e-09	3.462919e+01	4.152730e+02
1.180000e-06	5.024921e-06	6.376193e-09	3.548396e+01	4.182440e+02
1.190000e-06	5.144195e-06	6.421183e-09	3.632622e+01	4.210261e+02
1.200000e-06	5.261596e-06	6.460265e-09	3.715526e+01	4.236671e+02
1.210000e-06	5.376946e-06	6.497788e-09	3.796982e+01	4.262080e+02
1.220000e-06	5.490183e-06	6.535728e-09	3.876945e+01	4.286780e+02
1.230000e-06	5.601387e-06	6.572316e-09	3.955473e+01	4.310916e+02
1.240000e-06	5.710643e-06	6.606012e-09	4.032625e+01	4.334484e+02
1.250000e-06	5.817940e-06	6.636717e-09	4.108394e+01	4.357354e+02
1.260000e-06	5.923070e-06	6.666110e-09	4.182632e+01	4.379308e+02
1.270000e-06	6.026038e-06	6.694862e-09	4.255344e+01	4.400094e+02
1.280000e-06	6.126903e-06	6.724468e-09	4.326571e+01	4.419484e+02
1.290000e-06	6.225521e-06	6.751402e-09	4.396211e+01	4.437316e+02
1.300000e-06	6.321826e-06	6.774329e-09	4.464218e+01	4.453534e+02
1.310000e-06	6.415896e-06	6.796184e-09	4.530646e+01	4.468196e+02
1.320000e-06	6.507819e-06	6.817672e-09	4.595558e+01	4.481472e+02
1.330000e-06	6.597424e-06	6.836920e-09	4.658834e+01	4.493616e+02
1.340000e-06	6.684622e-06	6.855323e-09	4.720409e+01	4.504926e+02
1.350000e-06	6.769542e-06	6.875155e-09	4.780377e+01	4.515699e+02
1.360000e-06	6.852160e-06	6.893377e-09	4.838718e+01	4.526186e+02
1.370000e-06	6.932344e-06	6.910128e-09	4.895341e+01	4.536559e+02
1.380000e-06	7.009983e-06	6.927592e-09	4.950167e+01	4.546885e+02
1.390000e-06	7.084911e-06	6.943704e-09	5.003077e+01	4.557128e+02
1.400000e-06	7.157172e-06	6.957792e-09	5.054105e+01	4.567160e+02
1.410000e-06	7.226932e-06	6.970074e-09	5.103367e+01	4.576790e+02
1.420000e-06	7.294124e-06	6.981977e-09	5.150815e+01	4.585804e+02
1.430000e-06	7.358678e-06	6.994678e-09	5.196401e+01	4.594006e+02
1.440000e-06	7.420684e-06	7.005301e-09	5.240187e+01	4.601255e+02
1.450000e-06	7.480188e-06	7.014551e-09	5.282206e+01	4.607487e+02
1.460000e-06	7.537050e-06	7.024265e-09	5.322360e+01	4.612736e+02
1.470000e-06	7.591160e-06	7.035182e-09	5.360570e+01	4.617120e+02
1.480000e-06	7.642260e-06	7.045882e-09	5.396655e+01	4.620831e+02
1.490000e-06	7.690240e-06	7.054051e-09	5.430536e+01	4.624096e+02
1.500000e-06	7.735451e-06	7.059440e-09	5.462463e+01	4.627146e+02
1.510000e-06	7.777969e-06	7.064165e-09	5.492487e+01	4.630179e+02
1.520000e-06	7.817642e-06	7.070416e-09	5.520502e+01	4.633325e+02
1.530000e-06	7.854596e-06	7.076248e-09	5.546598e+01	4.636633e+02
1.540000e-06	7.888789e-06	7.081441e-09	5.570744e+01	4.640063e+02
1.550000e-06	7.920132e-06	7.085503e-09	5.592877e+01	4.643497e+02
1.560000e-06	7.948807e-06	7.090314e-09	5.613126e+01	4.646763e+02
1.570000e-06	7.974681e-06	7.095514e-09	5.631397e+01	4.649664e+02
1.580000e-06	7.997583e-06	7.098650e-09	5.647569e+01	4.652015e+02
1.590000e-06	8.017787e-06	7.101130e-09	5.661837e+01	4.653675e+02
1.600000e-06	8.035332e-06	7.103670e-09	5.674226e+01	4.654572e+02
1.610000e-06	8.049933e-06	7.106352e-09	5.684537e+01	4.654711e+02
1.620000e-06	8.061382e-06	7.108509e-09	5.692622e+01	4.654177e+02
1.630000e-06	8.069677e-06	7.110098e-09	5.698480e+01	4.653116e+02
1.640000e-06	8.075076e-06	7.111202e-09	5.702292e+01	4.651710e+02
1.650000e-06	8.077707e-06	7.112257e-09	5.704150e+01	4.650146e+02
1.660000e-06	8.077550e-06	7.111021e-09	5.704039e+01	4.648578e+02
1.670000e-06	8.074732e-06	7.106992e-09	5.702049e+01	4.647107e+02
1.680000e-06	8.069207e-06	7.104141e-09	5.698147e+01	4.645756e+02
1.690000e-06	8.060960e-06	7.101702e-09	5.692323e+01	4.644468e+02
1.700000e-06	8.050077e-06	7.099885e-09	5.684638e+01	4.643113e+02
1.710000e-06	8.036328e-06	7.097123e-09	5.674930e+01	4.641510e+02
1.720000e-06	8.019844e-06	7.090503e-09	5.663289e+01	4.639457e+02
1.730000e-06	8.001015e-06	7.079050e-09	5.649993e+01	4.636765e+02
1.740000e-06	7.979724e-06	7.039970e-09	5.634958e+01	4.633287e+02
1.750000e-06	7.955221e-06	7.013775e-09	5.617655e+01	4.628947e+02
1.760000e-06	7.926971e-06	7.017429e-09	5.597706e+01	4.623749e+02
1.770000e-06	7.895335e-06	7.037556e-09	5.575366e+01	4.617781e+02
1.780000e-06	7.861153e-06	7.062942e-09	5.551228e+01	4.611199e+02
1.790000e-06	7.824723e-06	7.072428e-09	5.525503e+01	4.604205e+02
1.800000e-06	7.785946e-06	7.033246e-09	5.498120e+01	4.597008e+02
1.810000e-06	7.745092e-06	6.984675e-09	5.469271e+01	4.589798e+02
1.820000e-06	7.701853e-06	6.991734e-09	5.438737e+01	4.582710e+02
1.830000e-06	7.655793e-06	6.965309e-09	5.406211e+01	4.575802e+02
1.840000e-06	7.607024e-06	6.969846e-09	5.371772e+01	4.569048e+02
1.850000e-06	7.555288e-06	6.989560e-09	5.335239e+01	4.562341e+02
1.860000e-06	7.500592e-06	6.947335e-09	5.296614e+01	4.555508e+02
1.870000e-06	7.443115e-06	6.937691e-09	5.256027e+01	4.548341e+02
1.880000e-06	7.382950e-06	6.928324e-09	5.213541e+01	4.540624e+02
1.890000e-06	7.320204e-06	6.925155e-09	5.169232e+01	4.532173e+02
1.900000e-06	7.254642e-06	6.895575e-09	5.122935e+01	4.522859e+02
1.910000e-06	7.186303e-06	6.860342e-09	5.074676e+01	4.512626e+02
1.920000e-06	7.115227e-06	6.877493e-09	5.024485e+01	4.501496e+02
1.930000e-06	7.041504e-06	6.844416e-09	4.972425e+01	4.489562e+02
1.940000e-06	6.965062e-06	6.816683e-09	4.918445e+01	4.476963e+02
1.950000e-06	6.885800e-06	6.805092e-09	4.862473e+01	4.463861e+02
1.960000e-06	6.804164e-06	6.791556e-09	4.804825e+01	4.450403e+02
1.970000e-06	6.720151e-06	6.768135e-09	4.745499e+01	4.436693e+02
1.980000e-06	6.633597e-06	6.739118e-09	4.684378e+01	4.422769e+02
1.990000e-06	6.544627e-06	6.736396e-09	4.621550e+01	4.408594e+02
2.000000e-06	6.453473e-06	6.696335e-09	4.557182e+01	4.394055e+02
2.010000e-06	6.360142e-06	6.665035e-09	4.491275e+01	4.378979e+02
2.020000e-06	6.264432e-06	6.649509e-09	4.423689e+01	4.363161e+02
2.030000e-06	6.166524e-06	6.626402e-09	4.354549e+01	4.346394e+02
2.040000e-06	6.066479e-06	6.588322e-09	4.283902e+01	4.328501e+02
2.050000e-06	5.964167e-06	6.556847e-09	4.211653e+01	4.309366e+02
2.060000e-06	5.859627e-06	6.537100e-09	4.137832e+01	4.288949e+02
2.070000e-06	5.753122e-06	6.494437e-09	4.062622e+01	4.267289e+02
2.080000e-06	5.644666e-06	6.456893e-09	3.986035e+01	4.244497e+02
2.090000e-06	5.534065e-06	6.429246e-09	3.907932e+01	4.220733e+02
2.100000e-06	5.421390e-06	6.396916e-09	3.828366e+01	4.196171e+02
2.110000e-06	5.306634e-06	6.349152e-09	3.747330e+01	4.170967e+02
2.120000e-06	5.189823e-06	6.313189e-09	3.664843e+01	4.145221e+02
2.130000e-06	5.071053e-06	6.279688e-09	3.580972e+01	4.118957e+02
2.140000e-06	4.950371e-06	6.234157e-09	3.495752e+01	4.092107e+02
2.150000e-06	4.827874e-06	6.187017e-09	3.409249e+01	4.064516e+02
2.160000e-06	4.703663e-06	6.145038e-09	3.321536e+01	4.035957e+02
2.170000e-06	4.577796e-06	6.098153e-09	3.232654e+01	4.006163e+02
2.180000e-06	4.450313e-06	6.042742e-09	3.142631e+01	3.974863e+02
2.190000e-06	4.321233e-06	5.993255e-09	3.051480e+01	3.941823e+02
2.200000e-06	4.190618e-06	5.943656e-09	2.959245e+01	3.906873e+02
2.210000e-06	4.058453e-06	5.887253e-09	2.865915e+01	3.869932e+02
2.220000e-06	3.924826e-06	5.826616e-09	2.771553e+01	3.831008e+02
2.230000e-06	3.789832e-06	5.769256e-09	2.676226e+01	3.790186e+02
2.240000e-06	3.653383e-06	5.706545e-09	2.579871e+01	3.747597e+02
2.250000e-06	3.515601e-06	5.638416e-09	2.482575e+01	3.703378e+02
2.260000e-06	3.376491e-06	5.570849e-09	2.384341e+01	3.657625e+02
2.270000e-06	3.236133e-06	5.501351e-09	2.285226e+01	3.610351e+02
2.280000e-06	3.094597e-06	5.426373e-09	2.185279e+01	3.561450e+02
2.290000e-06	2.951845e-06	5.346435e-09	2.084474e+01	3.510687e+02
2.300000e-06	2.807951e-06	5.264452e-09	1.982861e+01	3.457699e+02
2.310000e-06	2.663039e-06	5.179275e-09	1.880531e+01	3.402021e+02
2.320000e-06	2.517248e-06	5.086868e-09	1.777579e+01	3.343129e+02
2.330000e-06	2.370607e-06	4.988866e-09	1.674027e+01	3.280483e+02
2.340000e-06	2.223096e-06	4.887823e-09	1.569860e+01	3.213587e+02
2.350000e-06	2.074712e-06	4.781563e-09	1.465078e+01	3.142020e+02
2.360000e-06	1.925551e-06	4.667229e-09	1.359746e+01	3.065458e+02
2.370000e-06	1.775735e-06	4.545997e-09	1.253952e+01	2.983665e+02
2.380000e-06	1.625387e-06	4.417422e-09	1.147783e+01	2.896456e+02
2.390000e-06	1.474569e-06	4.278672e-09	1.041281e+01	2.803635e+02
2.400000e-06	1.323263e-06	4.129647e-09	9.344346e+00	2.704908e+02
2.410000e-06	1.171435e-06	3.972174e-09	8.272201e+00	2.599793e+02
2.420000e-06	1.019146e-06	3.803340e-09	7.196793e+00	2.487544e+02
2.430000e-06	8.664220e-07	3.617858e-09	6.118321e+00	2.367085e+02
2.440000e-06	7.133256e-07	3.418156e-09	5.037216e+00	2.236998e+02
2.450000e-06	5.599569e-07	3.200826e-09	3.954189e+00	2.095555e+02
2.460000e-06	4.064049e-07	2.960589e-09	2.869867e+00	1.940808e+02
2.470000e-06	2.527197e-07	2.700209e-09	1.784604e+00	1.770738e+02
2.480000e-06	9.892172e-08	2.417154e-09	6.985452e-01	1.583439e+02
2.490000e-06	-5.489852e-08	2.106619e-09	-3.876711e-01	1.377347e+02
2.500000e-06	-2.086581e-07	1.765391e-09	-1.473459e+00	1.151460e+02
2.510000e-06	-3.622909e-07	1.396370e-09	-2.558352e+00	9.055533e+01
2.520000e-06	-5.157804e-07	9.997797e-10	-3.642233e+00	6.403380e+01
2.530000e-06	-6.691161e-07	5.741675e-10	-4.725027e+00	3.575623e+01
2.540000e-06	-8.221962e-07	1.248799e-10	-5.806017e+00	6.002366e+00
2.550000e-06	-9.748786e-07	-3.424790e-10	-6.884198e+00	-2.485088e+01
2.560000e-06	-1.127083e-06	-8.234645e-10	-7.959006e+00	-5.634629e+01
2.570000e-06	-1.278788e-06	-1.313031e-09	-9.030281e+00	-8.797110e+01
2.580000e-06	-1.429990e-06	-1.797883e-09	-1.009801e+01	-1.191875e+02
2.590000e-06	-1.580727e-06	-2.267342e-09	-1.116245e+01	-1.494663e+02
2.600000e-06	-1.730999e-06	-2.712981e-09	-1.222361e+01	-1.783202e+02
2.610000e-06	-1.880700e-06	-3.127145e-09	-1.328074e+01	-2.053341e+02
2.620000e-06	-2.029695e-06	-3.506506e-09	-1.433289e+01	-2.301894e+02
2.630000e-06	-2.177895e-06	-3.846844e-09	-1.537941e+01	-2.526791e+02
2.640000e-06	-2.325254e-06	-4.147405e-09	-1.642000e+01	-2.727144e+02
2.650000e-06	-2.471868e-06	-4.408600e-09	-1.745533e+01	-2.903207e+02
2.660000e-06	-2.617746e-06	-4.635380e-09	-1.848546e+01	-3.056248e+02
2.670000e-06	-2.762714e-06	-4.835558e-09	-1.950917e+01	-3.188346e+02
2.680000e-06	-2.906536e-06	-5.012647e-09	-2.052478e+01	-3.302140e+02
2.690000e-06	-3.049201e-06	-5.166635e-09	-2.153222e+01	-3.400558e+02
2.700000e-06	-3.190730e-06	-5.302142e-09	-2.253164e+01	-3.486550e+02
2.710000e-06	-3.330954e-06	-5.425880e-09	-2.352185e+01	-3.562860e+02
2.720000e-06	-3.469914e-06	-5.538150e-09	-2.450313e+01	-3.631847e+02
2.730000e-06	-3.607664e-06	-5.638623e-09	-2.547586e+01	-3.695378e+02
2.740000e-06	-3.744091e-06	-5.729627e-09	-2.643926e+01	-3.754783e+02
2.750000e-06	-3.879158e-06	-5.813592e-09	-2.739305e+01	-3.810887e+02
2.760000e-06	-4.012875e-06	-5.891912e-09	-2.833730e+01	-3.864082e+02
2.770000e-06	-4.145153e-06	-5.966299e-09	-2.927139e+01	-3.914445e+02
2.780000e-06	-4.275940e-06	-6.036792e-09	-3.019496e+01	-3.961867e+02
2.790000e-06	-4.405255e-06	-6.101256e-09	-3.110813e+01	-4.006178e+02
2.800000e-06	-4.533032e-06	-6.160350e-09	-3.201044e+01	-4.047257e+02
2.810000e-06	-4.659159e-06	-6.218311e-09	-3.290110e+01	-4.085102e+02
2.820000e-06	-4.783615e-06	-6.275367e-09	-3.377995e+01	-4.119865e+02
2.830000e-06	-4.906410e-06	-6.328324e-09	-3.464708e+01	-4.151853e+02
2.840000e-06	-5.027417e-06	-6.376826e-09	-3.550159e+01	-4.181487e+02
2.850000e-06	-5.146534e-06	-6.422495e-09	-3.634274e+01	-4.209250e+02
2.860000e-06	-5.263713e-06	-6.466742e-09	-3.717021e+01	-4.235619e+02
2.870000e-06	-5.378740e-06	-6.510379e-09	-3.798249e+01	-4.261000e+02
2.880000e-06	-5.491507e-06	-6.551428e-09	-3.877880e+01	-4.285678e+02
2.890000e-06	-5.602203e-06	-6.590250e-09	-3.956049e+01	-4.309795e+02
2.900000e-06	-5.711034e-06	-6.627670e-09	-4.032901e+01	-4.333342e+02
2.910000e-06	-5.818022e-06	-6.660861e-09	-4.108452e+01	-4.356184e+02
2.920000e-06	-5.922968e-06	-6.691147e-09	-4.182560e+01	-4.378101e+02
2.930000e-06	-6.025678e-06	-6.720047e-09	-4.255090e+01	-4.398842e+02
2.940000e-06	-6.126188e-06	-6.747160e-09	-4.326066e+01	-4.418179e+02
