# Temperatura_=_20.0
# Concentracion g/m^3_=_9000.0
# C_Vs_to_Am_M_A/Vsm_=_65563218390.804596
# pendiente_HvsI_1/m_=_3716.3
# ordenada_HvsI_A/m_=_1297.0
# frecuencia_Hz_=_301288.22782726225

Tiempo_(s)	Campo_(V.s)	Magnetizacion_(V.s)	Campo_(kA/m)	Magnetizacion_(A/m)
0.000000e+00	-8.117517e-06	-7.183468e-09	-5.697881e+01	-4.721235e+02
1.000000e-08	-8.115198e-06	-7.187394e-09	-5.696253e+01	-4.719673e+02
2.000000e-08	-8.110215e-06	-7.189282e-09	-5.692756e+01	-4.718090e+02
3.000000e-08	-8.102690e-06	-7.187153e-09	-5.687473e+01	-4.716446e+02
4.000000e-08	-8.092312e-06	-7.182915e-09	-5.680189e+01	-4.714638e+02
5.000000e-08	-8.078877e-06	-7.177890e-09	-5.670758e+01	-4.712523e+02
6.000000e-08	-8.062524e-06	-7.172780e-09	-5.659280e+01	-4.709945e+02
7.000000e-08	-8.043694e-06	-7.169118e-09	-5.646063e+01	-4.706768e+02
8.000000e-08	-8.022576e-06	-7.163874e-09	-5.631240e+01	-4.702897e+02
9.000000e-08	-7.998618e-06	-7.199484e-09	-5.614423e+01	-4.698304e+02
1.000000e-07	-7.971412e-06	-7.219072e-09	-5.595326e+01	-4.693033e+02
1.100000e-07	-7.941143e-06	-7.175366e-09	-5.574080e+01	-4.687197e+02
1.200000e-07	-7.907936e-06	-7.133522e-09	-5.550771e+01	-4.680961e+02
1.300000e-07	-7.871897e-06	-7.116504e-09	-5.525475e+01	-4.674510e+02
1.400000e-07	-7.833544e-06	-7.122861e-09	-5.498553e+01	-4.668025e+02
1.500000e-07	-7.793019e-06	-7.104590e-09	-5.470108e+01	-4.661642e+02
1.600000e-07	-7.749952e-06	-7.095425e-09	-5.439878e+01	-4.655432e+02
1.700000e-07	-7.704047e-06	-7.093177e-09	-5.407656e+01	-4.649380e+02
1.800000e-07	-7.655345e-06	-7.033419e-09	-5.373472e+01	-4.643384e+02
1.900000e-07	-7.603723e-06	-7.092065e-09	-5.337237e+01	-4.637265e+02
2.000000e-07	-7.549046e-06	-7.075466e-09	-5.298857e+01	-4.630794e+02
2.100000e-07	-7.491559e-06	-7.005889e-09	-5.258506e+01	-4.623720e+02
2.200000e-07	-7.431489e-06	-7.031437e-09	-5.216342e+01	-4.615810e+02
2.300000e-07	-7.368933e-06	-7.017319e-09	-5.172432e+01	-4.606883e+02
2.400000e-07	-7.303666e-06	-7.021825e-09	-5.126619e+01	-4.596836e+02
2.500000e-07	-7.235555e-06	-6.976748e-09	-5.078810e+01	-4.585655e+02
2.600000e-07	-7.164723e-06	-6.964260e-09	-5.029092e+01	-4.573423e+02
2.700000e-07	-7.091126e-06	-6.947719e-09	-4.977432e+01	-4.560296e+02
2.800000e-07	-7.014793e-06	-6.934829e-09	-4.923852e+01	-4.546479e+02
2.900000e-07	-6.935750e-06	-6.919454e-09	-4.868370e+01	-4.532191e+02
3.000000e-07	-6.854083e-06	-6.879542e-09	-4.811046e+01	-4.517627e+02
3.100000e-07	-6.770100e-06	-6.871472e-09	-4.752096e+01	-4.502924e+02
3.200000e-07	-6.683944e-06	-6.839270e-09	-4.691621e+01	-4.488135e+02
3.300000e-07	-6.595493e-06	-6.826767e-09	-4.629536e+01	-4.473223e+02
3.400000e-07	-6.504608e-06	-6.809321e-09	-4.565741e+01	-4.458062e+02
3.500000e-07	-6.411423e-06	-6.768051e-09	-4.500333e+01	-4.442459e+02
3.600000e-07	-6.315961e-06	-6.739029e-09	-4.433326e+01	-4.426182e+02
3.700000e-07	-6.218150e-06	-6.726107e-09	-4.364670e+01	-4.409001e+02
3.800000e-07	-6.118024e-06	-6.699745e-09	-4.294388e+01	-4.390723e+02
3.900000e-07	-6.015676e-06	-6.654473e-09	-4.222548e+01	-4.371219e+02
4.000000e-07	-5.911185e-06	-6.629030e-09	-4.149203e+01	-4.350451e+02
4.100000e-07	-5.804566e-06	-6.608112e-09	-4.074365e+01	-4.328465e+02
4.200000e-07	-5.695921e-06	-6.571465e-09	-3.998104e+01	-4.305387e+02
4.300000e-07	-5.585241e-06	-6.533005e-09	-3.920415e+01	-4.281392e+02
4.400000e-07	-5.472402e-06	-6.503626e-09	-3.841211e+01	-4.256670e+02
4.500000e-07	-5.357373e-06	-6.469369e-09	-3.760470e+01	-4.231385e+02
4.600000e-07	-5.240307e-06	-6.426069e-09	-3.678298e+01	-4.205638e+02
4.700000e-07	-5.121283e-06	-6.384165e-09	-3.594752e+01	-4.179440e+02
4.800000e-07	-5.000357e-06	-6.347439e-09	-3.509871e+01	-4.152703e+02
4.900000e-07	-4.877674e-06	-6.299306e-09	-3.423757e+01	-4.125240e+02
5.000000e-07	-4.753338e-06	-6.249961e-09	-3.336483e+01	-4.096790e+02
5.100000e-07	-4.627340e-06	-6.206121e-09	-3.248041e+01	-4.067049e+02
5.200000e-07	-4.499612e-06	-6.159741e-09	-3.158386e+01	-4.035717e+02
5.300000e-07	-4.370198e-06	-6.104727e-09	-3.067548e+01	-4.002537e+02
5.400000e-07	-4.239256e-06	-6.051571e-09	-2.975636e+01	-3.967330e+02
5.500000e-07	-4.106830e-06	-6.004671e-09	-2.882683e+01	-3.930019e+02
5.600000e-07	-3.972962e-06	-5.945989e-09	-2.788717e+01	-3.890631e+02
5.700000e-07	-3.837622e-06	-5.884290e-09	-2.693719e+01	-3.849283e+02
5.800000e-07	-3.700800e-06	-5.822859e-09	-2.597681e+01	-3.806141e+02
5.900000e-07	-3.562611e-06	-5.757839e-09	-2.500683e+01	-3.761382e+02
6.000000e-07	-3.422997e-06	-5.680616e-09	-2.402684e+01	-3.715137e+02
6.100000e-07	-3.281891e-06	-5.604004e-09	-2.303638e+01	-3.667441e+02
6.200000e-07	-3.139470e-06	-5.530161e-09	-2.203670e+01	-3.618203e+02
6.300000e-07	-2.995853e-06	-5.450557e-09	-2.102861e+01	-3.567183e+02
6.400000e-07	-2.851145e-06	-5.366281e-09	-2.001288e+01	-3.514000e+02
6.500000e-07	-2.705470e-06	-5.278805e-09	-1.899035e+01	-3.458157e+02
6.600000e-07	-2.558847e-06	-5.187918e-09	-1.796117e+01	-3.399093e+02
6.700000e-07	-2.411414e-06	-5.087648e-09	-1.692629e+01	-3.336231e+02
6.800000e-07	-2.263224e-06	-4.985963e-09	-1.588612e+01	-3.269042e+02
6.900000e-07	-2.114283e-06	-4.877355e-09	-1.484066e+01	-3.197085e+02
7.000000e-07	-1.964619e-06	-4.758044e-09	-1.379014e+01	-3.120030e+02
7.100000e-07	-1.814252e-06	-4.630358e-09	-1.273467e+01	-3.037657e+02
7.200000e-07	-1.663196e-06	-4.500764e-09	-1.167438e+01	-2.949812e+02
7.300000e-07	-1.511533e-06	-4.363514e-09	-1.060981e+01	-2.856339e+02
7.400000e-07	-1.359338e-06	-4.210008e-09	-9.541523e+00	-2.756995e+02
7.500000e-07	-1.206622e-06	-4.048747e-09	-8.469569e+00	-2.651345e+02
7.600000e-07	-1.053431e-06	-3.880997e-09	-7.394283e+00	-2.538674e+02
7.700000e-07	-8.997605e-07	-3.698153e-09	-6.315636e+00	-2.417919e+02
7.800000e-07	-7.456652e-07	-3.492162e-09	-5.234004e+00	-2.287649e+02
7.900000e-07	-5.913074e-07	-3.267724e-09	-4.150529e+00	-2.146087e+02
8.000000e-07	-4.367869e-07	-3.025125e-09	-3.065913e+00	-1.991208e+02
8.100000e-07	-2.821535e-07	-2.760124e-09	-1.980503e+00	-1.820885e+02
8.200000e-07	-1.274427e-07	-2.468102e-09	-8.945508e-01	-1.633087e+02
8.300000e-07	2.726305e-08	-2.149399e-09	1.913659e-01	-1.426116e+02
8.400000e-07	1.819540e-07	-1.804980e-09	1.277179e+00	-1.198842e+02
8.500000e-07	3.366141e-07	-1.431999e-09	2.362776e+00	-9.509265e+01
8.600000e-07	4.911790e-07	-1.029343e-09	3.447704e+00	-6.830044e+01
8.700000e-07	6.455764e-07	-5.975532e-10	4.531457e+00	-3.967863e+01
8.800000e-07	7.997770e-07	-1.419852e-10	5.613827e+00	-9.508177e+00
8.900000e-07	9.536931e-07	3.358829e-10	6.694201e+00	2.182780e+01
9.000000e-07	1.107154e-06	8.287312e-10	7.771380e+00	5.386112e+01
9.100000e-07	1.260118e-06	1.325607e-09	8.845074e+00	8.606411e+01
9.200000e-07	1.412616e-06	1.817486e-09	9.915491e+00	1.178813e+02
9.300000e-07	1.564583e-06	2.292788e-09	1.098218e+01	1.487643e+02
9.400000e-07	1.715932e-06	2.744396e-09	1.204454e+01	1.782072e+02
9.500000e-07	1.866643e-06	3.165966e-09	1.310242e+01	2.057778e+02
9.600000e-07	2.016665e-06	3.553176e-09	1.415546e+01	2.311431e+02
9.700000e-07	2.165988e-06	3.898527e-09	1.520359e+01	2.540863e+02
9.800000e-07	2.314514e-06	4.201201e-09	1.624613e+01	2.745130e+02
9.900000e-07	2.462190e-06	4.466150e-09	1.728270e+01	2.924473e+02
1.000000e-06	2.609069e-06	4.696640e-09	1.831369e+01	3.080194e+02
1.010000e-06	2.755041e-06	4.894617e-09	1.933830e+01	3.214439e+02
1.020000e-06	2.900050e-06	5.067073e-09	2.035615e+01	3.329937e+02
1.030000e-06	3.044027e-06	5.222694e-09	2.136676e+01	3.429722e+02
1.040000e-06	3.186869e-06	5.364181e-09	2.236940e+01	3.516849e+02
1.050000e-06	3.328509e-06	5.490111e-09	2.336360e+01	3.594159e+02
1.060000e-06	3.468825e-06	5.601198e-09	2.434852e+01	3.664091e+02
1.070000e-06	3.607768e-06	5.702924e-09	2.532380e+01	3.728567e+02
1.080000e-06	3.745322e-06	5.797736e-09	2.628932e+01	3.788951e+02
1.090000e-06	3.881483e-06	5.885654e-09	2.724506e+01	3.846074e+02
1.100000e-06	4.016189e-06	5.965450e-09	2.819060e+01	3.900318e+02
1.110000e-06	4.149432e-06	6.038462e-09	2.912586e+01	3.951734e+02
1.120000e-06	4.281283e-06	6.106576e-09	3.005136e+01	4.000177e+02
1.130000e-06	4.411657e-06	6.172338e-09	3.096649e+01	4.045445e+02
1.140000e-06	4.540363e-06	6.232857e-09	3.186990e+01	4.087385e+02
1.150000e-06	4.667409e-06	6.286535e-09	3.276167e+01	4.125974e+02
1.160000e-06	4.792890e-06	6.337795e-09	3.364245e+01	4.161355e+02
1.170000e-06	4.916719e-06	6.388856e-09	3.451164e+01	4.193839e+02
1.180000e-06	5.038795e-06	6.438641e-09	3.536851e+01	4.223863e+02
1.190000e-06	5.159036e-06	6.485578e-09	3.621252e+01	4.251933e+02
1.200000e-06	5.277407e-06	6.527756e-09	3.704339e+01	4.278557e+02
1.210000e-06	5.393877e-06	6.566934e-09	3.786092e+01	4.304173e+02
1.220000e-06	5.508188e-06	6.604232e-09	3.866330e+01	4.329099e+02
1.230000e-06	5.620294e-06	6.638343e-09	3.945020e+01	4.353502e+02
1.240000e-06	5.730422e-06	6.671049e-09	4.022321e+01	4.377393e+02
1.250000e-06	5.838631e-06	6.702379e-09	4.098276e+01	4.400651e+02
1.260000e-06	5.944777e-06	6.730650e-09	4.172782e+01	4.423063e+02
1.270000e-06	6.048683e-06	6.759523e-09	4.245716e+01	4.444380e+02
1.280000e-06	6.150441e-06	6.790471e-09	4.317143e+01	4.464368e+02
1.290000e-06	6.250093e-06	6.819275e-09	4.387091e+01	4.482864e+02
1.300000e-06	6.347409e-06	6.844995e-09	4.455399e+01	4.499807e+02
1.310000e-06	6.442289e-06	6.869816e-09	4.521998e+01	4.515254e+02
1.320000e-06	6.534930e-06	6.892404e-09	4.587025e+01	4.529370e+02
1.330000e-06	6.625349e-06	6.911112e-09	4.650492e+01	4.542406e+02
1.340000e-06	6.713362e-06	6.930255e-09	4.712270e+01	4.554658e+02
1.350000e-06	6.799054e-06	6.950935e-09	4.772420e+01	4.566420e+02
1.360000e-06	6.882480e-06	6.970119e-09	4.830978e+01	4.577936e+02
1.370000e-06	6.963404e-06	6.988605e-09	4.887781e+01	4.589370e+02
1.380000e-06	7.041792e-06	7.007891e-09	4.942804e+01	4.600783e+02
1.390000e-06	7.117681e-06	7.025773e-09	4.996072e+01	4.612126e+02
1.400000e-06	7.190891e-06	7.041277e-09	5.047460e+01	4.623262e+02
1.410000e-06	7.261409e-06	7.055916e-09	5.096958e+01	4.633989e+02
1.420000e-06	7.329360e-06	7.069980e-09	5.144654e+01	4.644083e+02
1.430000e-06	7.394685e-06	7.083810e-09	5.190507e+01	4.653339e+02
1.440000e-06	7.457382e-06	7.096325e-09	5.234516e+01	4.661609e+02
1.450000e-06	7.517603e-06	7.106853e-09	5.276787e+01	4.668827e+02
1.460000e-06	7.575196e-06	7.117725e-09	5.317213e+01	4.675022e+02
1.470000e-06	7.630028e-06	7.129185e-09	5.355700e+01	4.680315e+02
1.480000e-06	7.681883e-06	7.140621e-09	5.392099e+01	4.684897e+02
1.490000e-06	7.730498e-06	7.150006e-09	5.426223e+01	4.688999e+02
1.500000e-06	7.776206e-06	7.158274e-09	5.458306e+01	4.692856e+02
1.510000e-06	7.819314e-06	7.165760e-09	5.488565e+01	4.696669e+02
1.520000e-06	7.859637e-06	7.171681e-09	5.516869e+01	4.700572e+02
1.530000e-06	7.897126e-06	7.177261e-09	5.543183e+01	4.704617e+02
1.540000e-06	7.931876e-06	7.183568e-09	5.567575e+01	4.708768e+02
1.550000e-06	7.963815e-06	7.189315e-09	5.589994e+01	4.712909e+02
1.560000e-06	7.993032e-06	7.194102e-09	5.610502e+01	4.716869e+02
1.570000e-06	8.019457e-06	7.199739e-09	5.629050e+01	4.720449e+02
1.580000e-06	8.042920e-06	7.204711e-09	5.645520e+01	4.723462e+02
1.590000e-06	8.063599e-06	7.210111e-09	5.660035e+01	4.725760e+02
1.600000e-06	8.081472e-06	7.214554e-09	5.672580e+01	4.727261e+02
1.610000e-06	8.096425e-06	7.217700e-09	5.683076e+01	4.727956e+02
1.620000e-06	8.108368e-06	7.219482e-09	5.691459e+01	4.727915e+02
1.630000e-06	8.117188e-06	7.221396e-09	5.697650e+01	4.727263e+02
1.640000e-06	8.123070e-06	7.224342e-09	5.701778e+01	4.726164e+02
1.650000e-06	8.126179e-06	7.225066e-09	5.703961e+01	4.724784e+02
1.660000e-06	8.126448e-06	7.224617e-09	5.704150e+01	4.723267e+02
1.670000e-06	8.123959e-06	7.217243e-09	5.702403e+01	4.721703e+02
1.680000e-06	8.118768e-06	7.212600e-09	5.698759e+01	4.720119e+02
1.690000e-06	8.110871e-06	7.210850e-09	5.693216e+01	4.718470e+02
1.700000e-06	8.100339e-06	7.208557e-09	5.685823e+01	4.716652e+02
1.710000e-06	8.086949e-06	7.203799e-09	5.676425e+01	4.714523e+02
1.720000e-06	8.070714e-06	7.198443e-09	5.665029e+01	4.711926e+02
1.730000e-06	8.052054e-06	7.193410e-09	5.651931e+01	4.708724e+02
1.740000e-06	8.031008e-06	7.156712e-09	5.637158e+01	4.704827e+02
1.750000e-06	8.006908e-06	7.090916e-09	5.620242e+01	4.700207e+02
1.760000e-06	7.979039e-06	7.108948e-09	5.600680e+01	4.694913e+02
1.770000e-06	7.947587e-06	7.145611e-09	5.578603e+01	4.689060e+02
1.780000e-06	7.913486e-06	7.159043e-09	5.554666e+01	4.682812e+02
1.790000e-06	7.877191e-06	7.155186e-09	5.529191e+01	4.676356e+02
1.800000e-06	7.838541e-06	7.165465e-09	5.502061e+01	4.669872e+02
1.810000e-06	7.797758e-06	7.082144e-09	5.473435e+01	4.663494e+02
1.820000e-06	7.754634e-06	7.060831e-09	5.443165e+01	4.657290e+02
1.830000e-06	7.708694e-06	7.155925e-09	5.410918e+01	4.651241e+02
1.840000e-06	7.660019e-06	7.071117e-09	5.376752e+01	4.645243e+02
1.850000e-06	7.608279e-06	7.109851e-09	5.340434e+01	4.639116e+02
1.860000e-06	7.553467e-06	7.088916e-09	5.301961e+01	4.632626e+02
1.870000e-06	7.495953e-06	7.045425e-09	5.261590e+01	4.625526e+02
1.880000e-06	7.435752e-06	7.069507e-09	5.219334e+01	4.617582e+02
1.890000e-06	7.372936e-06	7.007065e-09	5.175242e+01	4.608616e+02
1.900000e-06	7.307367e-06	7.046124e-09	5.129217e+01	4.598526e+02
1.910000e-06	7.238985e-06	6.979413e-09	5.081218e+01	4.587306e+02
1.920000e-06	7.167847e-06	6.969761e-09	5.031284e+01	4.575038e+02
1.930000e-06	7.094094e-06	6.981362e-09	4.979516e+01	4.561882e+02
1.940000e-06	7.017578e-06	6.933153e-09	4.925807e+01	4.548043e+02
1.950000e-06	6.938137e-06	6.925061e-09	4.870046e+01	4.533742e+02
1.960000e-06	6.856316e-06	6.875407e-09	4.812614e+01	4.519171e+02
1.970000e-06	6.772158e-06	6.905123e-09	4.753541e+01	4.504463e+02
1.980000e-06	6.685431e-06	6.850905e-09	4.692665e+01	4.489671e+02
1.990000e-06	6.596278e-06	6.818805e-09	4.630086e+01	4.474752e+02
2.000000e-06	6.504950e-06	6.815120e-09	4.565981e+01	4.459578e+02
2.010000e-06	6.411380e-06	6.776360e-09	4.500302e+01	4.443954e+02
2.020000e-06	6.315379e-06	6.754524e-09	4.432917e+01	4.427648e+02
2.030000e-06	6.217238e-06	6.719552e-09	4.364029e+01	4.410431e+02
2.040000e-06	6.116918e-06	6.713038e-09	4.293612e+01	4.392109e+02
2.050000e-06	6.014273e-06	6.657508e-09	4.221564e+01	4.372560e+02
2.060000e-06	5.909446e-06	6.627512e-09	4.147982e+01	4.351746e+02
2.070000e-06	5.802623e-06	6.599267e-09	4.073001e+01	4.329718e+02
2.080000e-06	5.693759e-06	6.566783e-09	3.996587e+01	4.306603e+02
2.090000e-06	5.582758e-06	6.520162e-09	3.918673e+01	4.282579e+02
2.100000e-06	5.469737e-06	6.482553e-09	3.839340e+01	4.257834e+02
2.110000e-06	5.354613e-06	6.458649e-09	3.758532e+01	4.232530e+02
2.120000e-06	5.237290e-06	6.416497e-09	3.676180e+01	4.206766e+02
2.130000e-06	5.117931e-06	6.375668e-09	3.592399e+01	4.180551e+02
2.140000e-06	4.996710e-06	6.332739e-09	3.507311e+01	4.153791e+02
2.150000e-06	4.873698e-06	6.293969e-09	3.420966e+01	4.126297e+02
2.160000e-06	4.748949e-06	6.241395e-09	3.333402e+01	4.097805e+02
2.170000e-06	4.622468e-06	6.195404e-09	3.244622e+01	4.068013e+02
2.180000e-06	4.494349e-06	6.146310e-09	3.154692e+01	4.036618e+02
2.190000e-06	4.364668e-06	6.090262e-09	3.063666e+01	4.003367e+02
2.200000e-06	4.233498e-06	6.029034e-09	2.971595e+01	3.968084e+02
2.210000e-06	4.100769e-06	5.979281e-09	2.878429e+01	3.930698e+02
2.220000e-06	3.966472e-06	5.924239e-09	2.784162e+01	3.891237e+02
2.230000e-06	3.830779e-06	5.858451e-09	2.688916e+01	3.849821e+02
2.240000e-06	3.693699e-06	5.793471e-09	2.592697e+01	3.806618e+02
2.250000e-06	3.555237e-06	5.733741e-09	2.495507e+01	3.761804e+02
2.260000e-06	3.415432e-06	5.668492e-09	2.397374e+01	3.715505e+02
2.270000e-06	3.274368e-06	5.592472e-09	2.298358e+01	3.667757e+02
2.280000e-06	3.132030e-06	5.517004e-09	2.198448e+01	3.618459e+02
2.290000e-06	2.988444e-06	5.436868e-09	2.097661e+01	3.567369e+02
2.300000e-06	2.843747e-06	5.350308e-09	1.996095e+01	3.514099e+02
2.310000e-06	2.698104e-06	5.262098e-09	1.893864e+01	3.458151e+02
2.320000e-06	2.551637e-06	5.173961e-09	1.791056e+01	3.398960e+02
2.330000e-06	2.404332e-06	5.075230e-09	1.687659e+01	3.335952e+02
2.340000e-06	2.256160e-06	4.969536e-09	1.583653e+01	3.268599e+02
2.350000e-06	2.107130e-06	4.865111e-09	1.479045e+01	3.196463e+02
2.360000e-06	1.957236e-06	4.755465e-09	1.373831e+01	3.119222e+02
2.370000e-06	1.806613e-06	4.630564e-09	1.268105e+01	3.036655e+02
2.380000e-06	1.655437e-06	4.497328e-09	1.161991e+01	2.948611e+02
2.390000e-06	1.503743e-06	4.358084e-09	1.055514e+01	2.854933e+02
2.400000e-06	1.351541e-06	4.209168e-09	9.486793e+00	2.755371e+02
2.410000e-06	1.198808e-06	4.047311e-09	8.414719e+00	2.649484e+02
2.420000e-06	1.045616e-06	3.876756e-09	7.339432e+00	2.536544e+02
2.430000e-06	8.920471e-07	3.693211e-09	6.261494e+00	2.415476e+02
2.440000e-06	7.381881e-07	3.489998e-09	5.181520e+00	2.284834e+02
2.450000e-06	5.841025e-07	3.270744e-09	4.099956e+00	2.142832e+02
2.460000e-06	4.298875e-07	3.031410e-09	3.017484e+00	1.987438e+02
2.470000e-06	2.755061e-07	2.769937e-09	1.933844e+00	1.816523e+02
2.480000e-06	1.209535e-07	2.482020e-09	8.490018e-01	1.628067e+02
2.490000e-06	-3.357566e-08	2.167683e-09	-2.356756e-01	1.420385e+02
2.500000e-06	-1.880212e-07	1.824266e-09	-1.319766e+00	1.192373e+02
2.510000e-06	-3.423996e-07	1.451614e-09	-2.403385e+00	9.437261e+01
2.520000e-06	-4.966448e-07	1.049860e-09	-3.486070e+00	6.751138e+01
2.530000e-06	-6.507768e-07	6.186035e-10	-4.567959e+00	3.882872e+01
2.540000e-06	-8.047339e-07	1.625511e-10	-5.648621e+00	8.609408e+00
2.550000e-06	-9.583722e-07	-3.143071e-10	-6.727045e+00	-2.276003e+01
2.560000e-06	-1.111672e-06	-8.022758e-10	-7.803094e+00	-5.480883e+01
2.570000e-06	-1.264508e-06	-1.298958e-09	-8.875890e+00	-8.700773e+01
2.580000e-06	-1.416770e-06	-1.794303e-09	-9.944652e+00	-1.188009e+02
2.590000e-06	-1.568531e-06	-2.274802e-09	-1.100990e+01	-1.496409e+02
2.600000e-06	-1.719773e-06	-2.729682e-09	-1.207150e+01	-1.790239e+02
2.610000e-06	-1.870406e-06	-3.151973e-09	-1.312883e+01	-2.065209e+02
2.620000e-06	-2.020385e-06	-3.540298e-09	-1.418157e+01	-2.318028e+02
2.630000e-06	-2.169647e-06	-3.887378e-09	-1.522928e+01	-2.546571e+02
2.640000e-06	-2.318092e-06	-4.190316e-09	-1.627125e+01	-2.749937e+02
2.650000e-06	-2.465682e-06	-4.452241e-09	-1.730722e+01	-2.928409e+02
2.660000e-06	-2.612416e-06	-4.680676e-09	-1.833718e+01	-3.083323e+02
2.670000e-06	-2.758301e-06	-4.883043e-09	-1.936118e+01	-3.216849e+02
2.680000e-06	-2.903234e-06	-5.061815e-09	-2.037850e+01	-3.331734e+02
2.690000e-06	-3.047074e-06	-5.217719e-09	-2.138815e+01	-3.431015e+02
2.700000e-06	-3.189744e-06	-5.354718e-09	-2.238958e+01	-3.517745e+02
2.710000e-06	-3.331141e-06	-5.479167e-09	-2.338208e+01	-3.594753e+02
2.720000e-06	-3.471190e-06	-5.592713e-09	-2.436512e+01	-3.664461e+02
2.730000e-06	-3.609909e-06	-5.693640e-09	-2.533882e+01	-3.728771e+02
2.740000e-06	-3.747349e-06	-5.784264e-09	-2.630354e+01	-3.789028e+02
2.750000e-06	-3.883444e-06	-5.868172e-09	-2.725883e+01	-3.846045e+02
2.760000e-06	-4.018130e-06	-5.946575e-09	-2.820423e+01	-3.900190e+02
2.770000e-06	-4.151320e-06	-6.021348e-09	-2.913912e+01	-3.951503e+02
2.780000e-06	-4.282985e-06	-6.092482e-09	-3.006331e+01	-3.999837e+02
2.790000e-06	-4.413173e-06	-6.158463e-09	-3.097712e+01	-4.044989e+02
2.800000e-06	-4.541902e-06	-6.219948e-09	-3.188070e+01	-4.086809e+02
2.810000e-06	-4.669041e-06	-6.280030e-09	-3.277312e+01	-4.125280e+02
2.820000e-06	-4.794520e-06	-6.338254e-09	-3.365389e+01	-4.160553e+02
2.830000e-06	-4.918329e-06	-6.391229e-09	-3.452294e+01	-4.192941e+02
2.840000e-06	-5.040378e-06	-6.439337e-09	-3.537963e+01	-4.222887e+02
2.850000e-06	-5.160599e-06	-6.484432e-09	-3.622349e+01	-4.250898e+02
2.860000e-06	-5.278842e-06	-6.528909e-09	-3.705347e+01	-4.277480e+02
2.870000e-06	-5.394954e-06	-6.573560e-09	-3.786848e+01	-4.303067e+02
2.880000e-06	-5.508889e-06	-6.616427e-09	-3.866822e+01	-4.327973e+02
2.890000e-06	-5.620633e-06	-6.655102e-09	-3.945258e+01	-4.352358e+02
2.900000e-06	-5.730314e-06	-6.692234e-09	-4.022245e+01	-4.376230e+02
2.910000e-06	-5.838076e-06	-6.726954e-09	-4.097886e+01	-4.399463e+02
2.920000e-06	-5.943872e-06	-6.758578e-09	-4.172147e+01	-4.421842e+02
2.930000e-06	-6.047562e-06	-6.788346e-09	-4.244929e+01	-4.443115e+02
2.940000e-06	-6.149007e-06	-6.815434e-09	-4.316136e+01	-4.463052e+02
