# Temperatura_=_20.0
# Concentracion g/m^3_=_9000.0
# C_Vs_to_Am_M_A/Vsm_=_65563218390.804596
# pendiente_HvsI_1/m_=_3716.3
# ordenada_HvsI_A/m_=_1297.0
# frecuencia_Hz_=_301290.8583071079

Tiempo_(s)	Campo_(V.s)	Magnetizacion_(V.s)	Campo_(kA/m)	Magnetizacion_(A/m)
0.000000e+00	-8.098007e-06	-7.215564e-09	-5.698367e+01	-4.743223e+02
1.000000e-08	-8.095542e-06	-7.213898e-09	-5.696633e+01	-4.741678e+02
2.000000e-08	-8.090431e-06	-7.215693e-09	-5.693037e+01	-4.740218e+02
3.000000e-08	-8.082755e-06	-7.215328e-09	-5.687635e+01	-4.738808e+02
4.000000e-08	-8.072229e-06	-7.212176e-09	-5.680228e+01	-4.737333e+02
5.000000e-08	-8.058787e-06	-7.206657e-09	-5.670770e+01	-4.735621e+02
6.000000e-08	-8.042508e-06	-7.204589e-09	-5.659314e+01	-4.733475e+02
7.000000e-08	-8.023627e-06	-7.205483e-09	-5.646028e+01	-4.730700e+02
8.000000e-08	-8.002409e-06	-7.210252e-09	-5.631097e+01	-4.727142e+02
9.000000e-08	-7.978466e-06	-7.215181e-09	-5.614250e+01	-4.722711e+02
1.000000e-07	-7.951306e-06	-7.224200e-09	-5.595137e+01	-4.717399e+02
1.100000e-07	-7.920993e-06	-7.207229e-09	-5.573807e+01	-4.711276e+02
1.200000e-07	-7.887748e-06	-7.175334e-09	-5.550414e+01	-4.704484e+02
1.300000e-07	-7.851776e-06	-7.149581e-09	-5.525101e+01	-4.697208e+02
1.400000e-07	-7.813428e-06	-7.145272e-09	-5.498117e+01	-4.689644e+02
1.500000e-07	-7.772916e-06	-7.154070e-09	-5.469609e+01	-4.681971e+02
1.600000e-07	-7.729876e-06	-7.121228e-09	-5.439323e+01	-4.674312e+02
1.700000e-07	-7.683926e-06	-7.110534e-09	-5.406989e+01	-4.666722e+02
1.800000e-07	-7.635214e-06	-7.100189e-09	-5.372712e+01	-4.659171e+02
1.900000e-07	-7.583588e-06	-7.100092e-09	-5.336384e+01	-4.651553e+02
2.000000e-07	-7.528912e-06	-7.089660e-09	-5.297910e+01	-4.643703e+02
2.100000e-07	-7.471460e-06	-7.050988e-09	-5.257482e+01	-4.635422e+02
2.200000e-07	-7.411416e-06	-7.059431e-09	-5.215231e+01	-4.626513e+02
2.300000e-07	-7.348809e-06	-7.046789e-09	-5.171176e+01	-4.616812e+02
2.400000e-07	-7.283493e-06	-7.017650e-09	-5.125214e+01	-4.606213e+02
2.500000e-07	-7.215424e-06	-7.017294e-09	-5.077315e+01	-4.594686e+02
2.600000e-07	-7.144727e-06	-6.993011e-09	-5.027568e+01	-4.582279e+02
2.700000e-07	-7.071337e-06	-6.959375e-09	-4.975925e+01	-4.569106e+02
2.800000e-07	-6.995167e-06	-6.956453e-09	-4.922327e+01	-4.555327e+02
2.900000e-07	-6.916309e-06	-6.953274e-09	-4.866836e+01	-4.541112e+02
3.000000e-07	-6.834844e-06	-6.907125e-09	-4.809511e+01	-4.526614e+02
3.100000e-07	-6.750961e-06	-6.878066e-09	-4.750485e+01	-4.511931e+02
3.200000e-07	-6.664799e-06	-6.883872e-09	-4.689855e+01	-4.497094e+02
3.300000e-07	-6.576356e-06	-6.846407e-09	-4.627619e+01	-4.482048e+02
3.400000e-07	-6.485514e-06	-6.813903e-09	-4.563696e+01	-4.466663e+02
3.500000e-07	-6.392320e-06	-6.795498e-09	-4.498117e+01	-4.450749e+02
3.600000e-07	-6.296952e-06	-6.772966e-09	-4.431010e+01	-4.434090e+02
3.700000e-07	-6.199287e-06	-6.734817e-09	-4.362285e+01	-4.416469e+02
3.800000e-07	-6.099298e-06	-6.709981e-09	-4.291925e+01	-4.397715e+02
3.900000e-07	-5.997096e-06	-6.690816e-09	-4.220008e+01	-4.377718e+02
4.000000e-07	-5.892772e-06	-6.646997e-09	-4.146598e+01	-4.356456e+02
4.100000e-07	-5.786330e-06	-6.613778e-09	-4.071698e+01	-4.333992e+02
4.200000e-07	-5.677793e-06	-6.589236e-09	-3.995323e+01	-4.310461e+02
4.300000e-07	-5.567272e-06	-6.558969e-09	-3.917552e+01	-4.286046e+02
4.400000e-07	-5.454746e-06	-6.507837e-09	-3.838370e+01	-4.260938e+02
4.500000e-07	-5.340030e-06	-6.474230e-09	-3.757647e+01	-4.235303e+02
4.600000e-07	-5.223171e-06	-6.441254e-09	-3.675416e+01	-4.209240e+02
4.700000e-07	-5.104375e-06	-6.391953e-09	-3.591823e+01	-4.182759e+02
4.800000e-07	-4.983743e-06	-6.345738e-09	-3.506937e+01	-4.155768e+02
4.900000e-07	-4.861287e-06	-6.309646e-09	-3.420768e+01	-4.128080e+02
5.000000e-07	-4.737078e-06	-6.265803e-09	-3.333365e+01	-4.099430e+02
5.100000e-07	-4.611233e-06	-6.210381e-09	-3.244811e+01	-4.069516e+02
5.200000e-07	-4.483695e-06	-6.167435e-09	-3.155066e+01	-4.038035e+02
5.300000e-07	-4.354583e-06	-6.117919e-09	-3.064212e+01	-4.004729e+02
5.400000e-07	-4.223907e-06	-6.060194e-09	-2.972259e+01	-3.969415e+02
5.500000e-07	-4.091628e-06	-6.004402e-09	-2.879177e+01	-3.932012e+02
5.600000e-07	-3.957903e-06	-5.953299e-09	-2.785079e+01	-3.892540e+02
5.700000e-07	-3.822772e-06	-5.891325e-09	-2.689990e+01	-3.851103e+02
5.800000e-07	-3.686211e-06	-5.822177e-09	-2.593896e+01	-3.807860e+02
5.900000e-07	-3.548314e-06	-5.757083e-09	-2.496861e+01	-3.762973e+02
6.000000e-07	-3.409032e-06	-5.687408e-09	-2.398852e+01	-3.716559e+02
6.100000e-07	-3.268265e-06	-5.610867e-09	-2.299798e+01	-3.668643e+02
6.200000e-07	-3.126148e-06	-5.530820e-09	-2.199793e+01	-3.619122e+02
6.300000e-07	-2.982889e-06	-5.453213e-09	-2.098985e+01	-3.567750e+02
6.400000e-07	-2.838601e-06	-5.368990e-09	-1.997453e+01	-3.514140e+02
6.500000e-07	-2.693218e-06	-5.279725e-09	-1.895151e+01	-3.457800e+02
6.600000e-07	-2.546859e-06	-5.186209e-09	-1.792162e+01	-3.398169e+02
6.700000e-07	-2.399703e-06	-5.087129e-09	-1.688612e+01	-3.334682e+02
6.800000e-07	-2.251692e-06	-4.981374e-09	-1.584460e+01	-3.266816e+02
6.900000e-07	-2.102923e-06	-4.870515e-09	-1.479775e+01	-3.194139e+02
7.000000e-07	-1.953498e-06	-4.753915e-09	-1.374628e+01	-3.116330e+02
7.100000e-07	-1.803347e-06	-4.628226e-09	-1.268971e+01	-3.033170e+02
7.200000e-07	-1.652534e-06	-4.496109e-09	-1.162847e+01	-2.944501e+02
7.300000e-07	-1.501156e-06	-4.354700e-09	-1.056327e+01	-2.850157e+02
7.400000e-07	-1.349271e-06	-4.203029e-09	-9.494489e+00	-2.749874e+02
7.500000e-07	-1.196945e-06	-4.040215e-09	-8.422606e+00	-2.643193e+02
7.600000e-07	-1.044154e-06	-3.867366e-09	-7.347456e+00	-2.529367e+02
7.700000e-07	-8.909256e-07	-3.679052e-09	-6.269223e+00	-2.407299e+02
7.800000e-07	-7.373989e-07	-3.471551e-09	-5.188894e+00	-2.275524e+02
7.900000e-07	-5.836163e-07	-3.244143e-09	-4.106764e+00	-2.132239e+02
8.000000e-07	-4.296268e-07	-2.997857e-09	-3.023178e+00	-1.975401e+02
8.100000e-07	-2.754948e-07	-2.730829e-09	-1.938589e+00	-1.802880e+02
8.200000e-07	-1.212571e-07	-2.435450e-09	-8.532562e-01	-1.612662e+02
8.300000e-07	3.294517e-08	-2.112355e-09	2.318270e-01	-1.403082e+02
8.400000e-07	1.870847e-07	-1.763831e-09	1.316469e+00	-1.173067e+02
8.500000e-07	3.411789e-07	-1.388139e-09	2.400792e+00	-9.223561e+01
8.600000e-07	4.951617e-07	-9.800193e-10	3.484331e+00	-6.516735e+01
8.700000e-07	6.489801e-07	-5.424171e-10	4.566713e+00	-3.628329e+01
8.800000e-07	8.026047e-07	-8.332217e-11	5.647731e+00	-5.874992e+00
8.900000e-07	9.559582e-07	3.967161e-10	6.726842e+00	2.566421e+01
9.000000e-07	1.108945e-06	8.928983e-10	7.803373e+00	5.785713e+01
9.100000e-07	1.261501e-06	1.390872e-09	8.876873e+00	9.016904e+01
9.200000e-07	1.413563e-06	1.881371e-09	9.946896e+00	1.220399e+02
9.300000e-07	1.565146e-06	2.357652e-09	1.101354e+01	1.529201e+02
9.400000e-07	1.716233e-06	2.809952e-09	1.207671e+01	1.823051e+02
9.500000e-07	1.866672e-06	3.230281e-09	1.313531e+01	2.097675e+02
9.600000e-07	2.016356e-06	3.614050e-09	1.418860e+01	2.349821e+02
9.700000e-07	2.165304e-06	3.957946e-09	1.523671e+01	2.577413e+02
9.800000e-07	2.313486e-06	4.257799e-09	1.627943e+01	2.779617e+02
9.900000e-07	2.460826e-06	4.518158e-09	1.731622e+01	2.956790e+02
1.000000e-06	2.607227e-06	4.743944e-09	1.834641e+01	3.110341e+02
1.010000e-06	2.752697e-06	4.938934e-09	1.937005e+01	3.242510e+02
1.020000e-06	2.897234e-06	5.110043e-09	2.038712e+01	3.356105e+02
1.030000e-06	3.040766e-06	5.263891e-09	2.139712e+01	3.454209e+02
1.040000e-06	3.183158e-06	5.403708e-09	2.239910e+01	3.539905e+02
1.050000e-06	3.324301e-06	5.527288e-09	2.339228e+01	3.616033e+02
1.060000e-06	3.464172e-06	5.638167e-09	2.437652e+01	3.685012e+02
1.070000e-06	3.602690e-06	5.739320e-09	2.535124e+01	3.748727e+02
1.080000e-06	3.739862e-06	5.833340e-09	2.631649e+01	3.808498e+02
1.090000e-06	3.875669e-06	5.920082e-09	2.727213e+01	3.865107e+02
1.100000e-06	4.010024e-06	5.997364e-09	2.821755e+01	3.918894e+02
1.110000e-06	4.142905e-06	6.067518e-09	2.915260e+01	3.969876e+02
1.120000e-06	4.274291e-06	6.134075e-09	3.007713e+01	4.017893e+02
1.130000e-06	4.404207e-06	6.199048e-09	3.099132e+01	4.062738e+02
1.140000e-06	4.532603e-06	6.259980e-09	3.189481e+01	4.104269e+02
1.150000e-06	4.659366e-06	6.315057e-09	3.278680e+01	4.142487e+02
1.160000e-06	4.784498e-06	6.367022e-09	3.366733e+01	4.177566e+02
1.170000e-06	4.907967e-06	6.417985e-09	3.453615e+01	4.209845e+02
1.180000e-06	5.029720e-06	6.467023e-09	3.539290e+01	4.239789e+02
1.190000e-06	5.149642e-06	6.512808e-09	3.623676e+01	4.267923e+02
1.200000e-06	5.267632e-06	6.554395e-09	3.706703e+01	4.294759e+02
1.210000e-06	5.383646e-06	6.593598e-09	3.788339e+01	4.320725e+02
1.220000e-06	5.497556e-06	6.630666e-09	3.868495e+01	4.346117e+02
1.230000e-06	5.609401e-06	6.665621e-09	3.947197e+01	4.371066e+02
1.240000e-06	5.719260e-06	6.700107e-09	4.024502e+01	4.395543e+02
1.250000e-06	5.827122e-06	6.732497e-09	4.100402e+01	4.419380e+02
1.260000e-06	5.932927e-06	6.760805e-09	4.174854e+01	4.442324e+02
1.270000e-06	6.036560e-06	6.789135e-09	4.247778e+01	4.464087e+02
1.280000e-06	6.137988e-06	6.820297e-09	4.319151e+01	4.484415e+02
1.290000e-06	6.237174e-06	6.849818e-09	4.388945e+01	4.503133e+02
1.300000e-06	6.334080e-06	6.874910e-09	4.457136e+01	4.520186e+02
1.310000e-06	6.428751e-06	6.898104e-09	4.523753e+01	4.535644e+02
1.320000e-06	6.521209e-06	6.920708e-09	4.588814e+01	4.549703e+02
1.330000e-06	6.611345e-06	6.940961e-09	4.652240e+01	4.562644e+02
1.340000e-06	6.699128e-06	6.961749e-09	4.714011e+01	4.574795e+02
1.350000e-06	6.784629e-06	6.984120e-09	4.774176e+01	4.586479e+02
1.360000e-06	6.867767e-06	7.003675e-09	4.832678e+01	4.597964e+02
1.370000e-06	6.948430e-06	7.021911e-09	4.889438e+01	4.609424e+02
1.380000e-06	7.026559e-06	7.040836e-09	4.944416e+01	4.620919e+02
1.390000e-06	7.102063e-06	7.058473e-09	4.997546e+01	4.632394e+02
1.400000e-06	7.174872e-06	7.073792e-09	5.048780e+01	4.643690e+02
1.410000e-06	7.245124e-06	7.089049e-09	5.098215e+01	4.654585e+02
1.420000e-06	7.312879e-06	7.104925e-09	5.145892e+01	4.664833e+02
1.430000e-06	7.378012e-06	7.118807e-09	5.191725e+01	4.674209e+02
1.440000e-06	7.440565e-06	7.129702e-09	5.235742e+01	4.682551e+02
1.450000e-06	7.500615e-06	7.139775e-09	5.277998e+01	4.689789e+02
1.460000e-06	7.557975e-06	7.151256e-09	5.318361e+01	4.695960e+02
1.470000e-06	7.612532e-06	7.163330e-09	5.356751e+01	4.701197e+02
1.480000e-06	7.664113e-06	7.174627e-09	5.393047e+01	4.705712e+02
1.490000e-06	7.712596e-06	7.184298e-09	5.427163e+01	4.709762e+02
1.500000e-06	7.758232e-06	7.192415e-09	5.459276e+01	4.713604e+02
1.510000e-06	7.801089e-06	7.200263e-09	5.489434e+01	4.717456e+02
1.520000e-06	7.841122e-06	7.207857e-09	5.517604e+01	4.721464e+02
1.530000e-06	7.878447e-06	7.214896e-09	5.543868e+01	4.725683e+02
1.540000e-06	7.913060e-06	7.220732e-09	5.568225e+01	4.730064e+02
1.550000e-06	7.944851e-06	7.225919e-09	5.590595e+01	4.734474e+02
1.560000e-06	7.973911e-06	7.231586e-09	5.611044e+01	4.738713e+02
1.570000e-06	8.000198e-06	7.237612e-09	5.629542e+01	4.742557e+02
1.580000e-06	8.023587e-06	7.242826e-09	5.646000e+01	4.745789e+02
1.590000e-06	8.044172e-06	7.247800e-09	5.660485e+01	4.748239e+02
1.600000e-06	8.061908e-06	7.253659e-09	5.672965e+01	4.749811e+02
1.610000e-06	8.076727e-06	7.258761e-09	5.683393e+01	4.750497e+02
1.620000e-06	8.088549e-06	7.261709e-09	5.691712e+01	4.750375e+02
1.630000e-06	8.097244e-06	7.263449e-09	5.697831e+01	4.749595e+02
1.640000e-06	8.103041e-06	7.264409e-09	5.701910e+01	4.748352e+02
1.650000e-06	8.106058e-06	7.263785e-09	5.704033e+01	4.746849e+02
1.660000e-06	8.106225e-06	7.261005e-09	5.704150e+01	4.745266e+02
1.670000e-06	8.103707e-06	7.257186e-09	5.702379e+01	4.743722e+02
1.680000e-06	8.098539e-06	7.253006e-09	5.698742e+01	4.742265e+02
1.690000e-06	8.090646e-06	7.250803e-09	5.693188e+01	4.740854e+02
1.700000e-06	8.080034e-06	7.249558e-09	5.685720e+01	4.739373e+02
1.710000e-06	8.066514e-06	7.246486e-09	5.676207e+01	4.737649e+02
1.720000e-06	8.050213e-06	7.236842e-09	5.664736e+01	4.735482e+02
1.730000e-06	8.031595e-06	7.218419e-09	5.651635e+01	4.732681e+02
1.740000e-06	8.010596e-06	7.195910e-09	5.636858e+01	4.729092e+02
1.750000e-06	7.986428e-06	7.162929e-09	5.619852e+01	4.724629e+02
1.760000e-06	7.958500e-06	7.155929e-09	5.600200e+01	4.719285e+02
1.770000e-06	7.927099e-06	7.177948e-09	5.578104e+01	4.713135e+02
1.780000e-06	7.893074e-06	7.204452e-09	5.554161e+01	4.706322e+02
1.790000e-06	7.856839e-06	7.198772e-09	5.528663e+01	4.699031e+02
1.800000e-06	7.818231e-06	7.165542e-09	5.501496e+01	4.691460e+02
1.810000e-06	7.777472e-06	7.155513e-09	5.472815e+01	4.683785e+02
1.820000e-06	7.734318e-06	7.111403e-09	5.442449e+01	4.676128e+02
1.830000e-06	7.688296e-06	7.118326e-09	5.410064e+01	4.668539e+02
1.840000e-06	7.639567e-06	7.119842e-09	5.375775e+01	4.660987e+02
1.850000e-06	7.587966e-06	7.101580e-09	5.339464e+01	4.653364e+02
1.860000e-06	7.533344e-06	7.101212e-09	5.301028e+01	4.645501e+02
1.870000e-06	7.475922e-06	7.052222e-09	5.260622e+01	4.637200e+02
1.880000e-06	7.415893e-06	7.062306e-09	5.218380e+01	4.628265e+02
1.890000e-06	7.353254e-06	7.052891e-09	5.174303e+01	4.618532e+02
1.900000e-06	7.287774e-06	7.015353e-09	5.128226e+01	4.607899e+02
1.910000e-06	7.219471e-06	7.003235e-09	5.080163e+01	4.596339e+02
1.920000e-06	7.148380e-06	6.987320e-09	5.030138e+01	4.583901e+02
1.930000e-06	7.074614e-06	6.970952e-09	4.978231e+01	4.570704e+02
1.940000e-06	6.998171e-06	6.929401e-09	4.924440e+01	4.556905e+02
1.950000e-06	6.918909e-06	6.930124e-09	4.868666e+01	4.542677e+02
1.960000e-06	6.837248e-06	6.907787e-09	4.811203e+01	4.528170e+02
1.970000e-06	6.753261e-06	6.871823e-09	4.752103e+01	4.513481e+02
1.980000e-06	6.666687e-06	6.868282e-09	4.691183e+01	4.498637e+02
1.990000e-06	6.577672e-06	6.836195e-09	4.628545e+01	4.483581e+02
2.000000e-06	6.486456e-06	6.808504e-09	4.564359e+01	4.468180e+02
2.010000e-06	6.393026e-06	6.773505e-09	4.498615e+01	4.452243e+02
2.020000e-06	6.297241e-06	6.762202e-09	4.431213e+01	4.435552e+02
2.030000e-06	6.199207e-06	6.729279e-09	4.362229e+01	4.417893e+02
2.040000e-06	6.099039e-06	6.690813e-09	4.291743e+01	4.399095e+02
2.050000e-06	5.996604e-06	6.667687e-09	4.219662e+01	4.379052e+02
2.060000e-06	5.891948e-06	6.637409e-09	4.146018e+01	4.357745e+02
2.070000e-06	5.785281e-06	6.598049e-09	4.070959e+01	4.335239e+02
2.080000e-06	5.676646e-06	6.556359e-09	3.994516e+01	4.311673e+02
2.090000e-06	5.565903e-06	6.535417e-09	3.916589e+01	4.287229e+02
2.100000e-06	5.453002e-06	6.494230e-09	3.837143e+01	4.262099e+02
2.110000e-06	5.338063e-06	6.452813e-09	3.756263e+01	4.236447e+02
2.120000e-06	5.221059e-06	6.418967e-09	3.673930e+01	4.210368e+02
2.130000e-06	5.101947e-06	6.380761e-09	3.590114e+01	4.183871e+02
2.140000e-06	4.980929e-06	6.328813e-09	3.504957e+01	4.156858e+02
2.150000e-06	4.858099e-06	6.284016e-09	3.418524e+01	4.129139e+02
2.160000e-06	4.733513e-06	6.244447e-09	3.330856e+01	4.100450e+02
2.170000e-06	4.607325e-06	6.191802e-09	3.242061e+01	4.070484e+02
2.180000e-06	4.479471e-06	6.138882e-09	3.152093e+01	4.038941e+02
2.190000e-06	4.350002e-06	6.091601e-09	3.060989e+01	4.005565e+02
2.200000e-06	4.219017e-06	6.042477e-09	2.968818e+01	3.970177e+02
2.210000e-06	4.086555e-06	5.982343e-09	2.875608e+01	3.932698e+02
2.220000e-06	3.952711e-06	5.923679e-09	2.781425e+01	3.893153e+02
2.230000e-06	3.817450e-06	5.863352e-09	2.686246e+01	3.851648e+02
2.240000e-06	3.680653e-06	5.797474e-09	2.589984e+01	3.808343e+02
2.250000e-06	3.542385e-06	5.729687e-09	2.492689e+01	3.763399e+02
2.260000e-06	3.402829e-06	5.664243e-09	2.394487e+01	3.716931e+02
2.270000e-06	3.262143e-06	5.592475e-09	2.295489e+01	3.668960e+02
2.280000e-06	3.120247e-06	5.514108e-09	2.195641e+01	3.619377e+02
2.290000e-06	2.977016e-06	5.434913e-09	2.094852e+01	3.567931e+02
2.300000e-06	2.832589e-06	5.353037e-09	1.993223e+01	3.514233e+02
2.310000e-06	2.687237e-06	5.265572e-09	1.890942e+01	3.457784e+02
2.320000e-06	2.540986e-06	5.170304e-09	1.788029e+01	3.398025e+02
2.330000e-06	2.393765e-06	5.071578e-09	1.684433e+01	3.334389e+02
2.340000e-06	2.245737e-06	4.968166e-09	1.580270e+01	3.266357e+02
2.350000e-06	2.096992e-06	4.859310e-09	1.475602e+01	3.193501e+02
2.360000e-06	1.947528e-06	4.744248e-09	1.370427e+01	3.115504e+02
2.370000e-06	1.797413e-06	4.621217e-09	1.264795e+01	3.032149e+02
2.380000e-06	1.646750e-06	4.489904e-09	1.158778e+01	2.943279e+02
2.390000e-06	1.495539e-06	4.348765e-09	1.052374e+01	2.848728e+02
2.400000e-06	1.343749e-06	4.197212e-09	9.455630e+00	2.748226e+02
2.410000e-06	1.191384e-06	4.034898e-09	8.383475e+00	2.641303e+02
2.420000e-06	1.038552e-06	3.861839e-09	7.308034e+00	2.527203e+02
2.430000e-06	8.853614e-07	3.675324e-09	6.230069e+00	2.404816e+02
2.440000e-06	7.318658e-07	3.472622e-09	5.149959e+00	2.272662e+02
2.450000e-06	5.781488e-07	3.249995e-09	4.068290e+00	2.128928e+02
2.460000e-06	4.242621e-07	3.005966e-09	2.985428e+00	1.971566e+02
2.470000e-06	2.702039e-07	2.743110e-09	1.901358e+00	1.798446e+02
2.480000e-06	1.160461e-07	2.455249e-09	8.165881e-01	1.607561e+02
2.490000e-06	-3.814267e-08	2.137377e-09	-2.684005e-01	1.397265e+02
2.500000e-06	-1.922831e-07	1.787697e-09	-1.353049e+00	1.166509e+02
2.510000e-06	-3.463090e-07	1.411006e-09	-2.436891e+00	9.150652e+01
2.520000e-06	-5.002313e-07	1.006173e-09	-3.520004e+00	6.436956e+01
2.530000e-06	-6.540005e-07	5.705159e-10	-4.602040e+00	3.542533e+01
2.540000e-06	-8.075661e-07	1.102060e-10	-5.682643e+00	4.969241e+00
2.550000e-06	-9.608328e-07	-3.699340e-10	-6.761143e+00	-2.660202e+01
2.560000e-06	-1.113721e-06	-8.617495e-10	-7.836982e+00	-5.880872e+01
2.570000e-06	-1.266205e-06	-1.362077e-09	-8.909972e+00	-9.111463e+01
2.580000e-06	-1.418154e-06	-1.857472e-09	-9.979197e+00	-1.229595e+02
2.590000e-06	-1.569510e-06	-2.335664e-09	-1.104425e+01	-1.537946e+02
2.600000e-06	-1.720264e-06	-2.791127e-09	-1.210507e+01	-1.831178e+02
2.610000e-06	-1.870446e-06	-3.213116e-09	-1.316187e+01	-2.105050e+02
2.620000e-06	-2.020037e-06	-3.595706e-09	-1.421450e+01	-2.356348e+02
2.630000e-06	-2.168904e-06	-3.937777e-09	-1.526204e+01	-2.583041e+02
2.640000e-06	-2.317045e-06	-4.239390e-09	-1.630447e+01	-2.784339e+02
2.650000e-06	-2.464356e-06	-4.499367e-09	-1.734106e+01	-2.960640e+02
2.660000e-06	-2.610748e-06	-4.722743e-09	-1.837119e+01	-3.113384e+02
2.670000e-06	-2.756233e-06	-4.919536e-09	-1.939493e+01	-3.244840e+02
2.680000e-06	-2.900726e-06	-5.095590e-09	-2.041169e+01	-3.357829e+02
2.690000e-06	-3.044089e-06	-5.250445e-09	-2.142050e+01	-3.455438e+02
2.700000e-06	-3.186287e-06	-5.387618e-09	-2.242111e+01	-3.540746e+02
2.710000e-06	-3.327327e-06	-5.509881e-09	-2.341358e+01	-3.616581e+02
2.720000e-06	-3.467104e-06	-5.620768e-09	-2.439716e+01	-3.685343e+02
2.730000e-06	-3.605531e-06	-5.720440e-09	-2.537123e+01	-3.748899e+02
2.740000e-06	-3.742590e-06	-5.811464e-09	-2.633568e+01	-3.808547e+02
2.750000e-06	-3.878246e-06	-5.895853e-09	-2.729026e+01	-3.865053e+02
2.760000e-06	-4.012537e-06	-5.972165e-09	-2.823523e+01	-3.918741e+02
2.770000e-06	-4.145456e-06	-6.045707e-09	-2.917055e+01	-3.969622e+02
2.780000e-06	-4.276896e-06	-6.115237e-09	-3.009546e+01	-4.017529e+02
2.790000e-06	-4.406821e-06	-6.180061e-09	-3.100971e+01	-4.062258e+02
2.800000e-06	-4.535178e-06	-6.241104e-09	-3.191292e+01	-4.103671e+02
2.810000e-06	-4.661960e-06	-6.300721e-09	-3.280506e+01	-4.141773e+02
2.820000e-06	-4.787101e-06	-6.358002e-09	-3.368565e+01	-4.176746e+02
2.830000e-06	-4.910529e-06	-6.411122e-09	-3.455418e+01	-4.208934e+02
2.840000e-06	-5.032236e-06	-6.461301e-09	-3.541060e+01	-4.238805e+02
2.850000e-06	-5.152099e-06	-6.509298e-09	-3.625405e+01	-4.266885e+02
2.860000e-06	-5.269983e-06	-6.554811e-09	-3.708357e+01	-4.293683e+02
2.870000e-06	-5.385731e-06	-6.598333e-09	-3.789806e+01	-4.319625e+02
2.880000e-06	-5.499262e-06	-6.641401e-09	-3.869695e+01	-4.345001e+02
2.890000e-06	-5.610694e-06	-6.680992e-09	-3.948107e+01	-4.369935e+02
2.900000e-06	-5.720108e-06	-6.717896e-09	-4.025099e+01	-4.394393e+02
2.910000e-06	-5.827573e-06	-6.753011e-09	-4.100719e+01	-4.418204e+02
2.920000e-06	-5.933082e-06	-6.786645e-09	-4.174963e+01	-4.441111e+02
2.930000e-06	-6.036461e-06	-6.818258e-09	-4.247708e+01	-4.462828e+02
2.940000e-06	-6.137649e-06	-6.847465e-09	-4.318912e+01	-4.483101e+02
