# Temperatura_=_20.0
# Concentracion g/m^3_=_9000.0
# C_Vs_to_Am_M_A/Vsm_=_65563218390.804596
# pendiente_HvsI_1/m_=_3716.3
# ordenada_HvsI_A/m_=_1297.0
# frecuencia_Hz_=_301299.3358788913

Tiempo_(s)	Campo_(V.s)	Magnetizacion_(V.s)	Campo_(kA/m)	Magnetizacion_(A/m)
0.000000e+00	-8.128411e-06	-4.620304e-10	-5.697165e+01	-3.000268e+01
1.000000e-08	-8.126018e-06	-4.645984e-10	-5.695488e+01	-2.998486e+01
2.000000e-08	-8.120935e-06	-4.663536e-10	-5.691926e+01	-2.995462e+01
3.000000e-08	-8.113292e-06	-4.668501e-10	-5.686569e+01	-2.991120e+01
4.000000e-08	-8.102829e-06	-4.658876e-10	-5.679235e+01	-2.985457e+01
5.000000e-08	-8.089394e-06	-4.638323e-10	-5.669819e+01	-2.978565e+01
6.000000e-08	-8.073045e-06	-4.615872e-10	-5.658360e+01	-2.970648e+01
7.000000e-08	-8.054173e-06	-4.601592e-10	-5.645132e+01	-2.962030e+01
8.000000e-08	-8.032995e-06	-4.599436e-10	-5.630289e+01	-2.953141e+01
9.000000e-08	-8.008925e-06	-4.709895e-10	-5.613418e+01	-2.944490e+01
1.000000e-07	-7.981593e-06	-4.607931e-10	-5.594262e+01	-2.936624e+01
1.100000e-07	-7.951273e-06	-4.481804e-10	-5.573011e+01	-2.930073e+01
1.200000e-07	-7.918094e-06	-4.503504e-10	-5.549756e+01	-2.925286e+01
1.300000e-07	-7.882059e-06	-4.594320e-10	-5.524499e+01	-2.922579e+01
1.400000e-07	-7.843589e-06	-4.637919e-10	-5.497535e+01	-2.922081e+01
1.500000e-07	-7.802864e-06	-4.465009e-10	-5.468991e+01	-2.923705e+01
1.600000e-07	-7.759585e-06	-4.505035e-10	-5.438658e+01	-2.927136e+01
1.700000e-07	-7.713518e-06	-4.411120e-10	-5.406370e+01	-2.931851e+01
1.800000e-07	-7.664680e-06	-4.395294e-10	-5.372139e+01	-2.937153e+01
1.900000e-07	-7.612891e-06	-4.533593e-10	-5.335840e+01	-2.942238e+01
2.000000e-07	-7.558083e-06	-4.432236e-10	-5.297426e+01	-2.946272e+01
2.100000e-07	-7.500519e-06	-4.355181e-10	-5.257079e+01	-2.948470e+01
2.200000e-07	-7.440309e-06	-4.379074e-10	-5.214878e+01	-2.948177e+01
2.300000e-07	-7.377494e-06	-4.523821e-10	-5.170851e+01	-2.944932e+01
2.400000e-07	-7.311955e-06	-4.483641e-10	-5.124916e+01	-2.938512e+01
2.500000e-07	-7.243679e-06	-4.284663e-10	-5.077061e+01	-2.928947e+01
2.600000e-07	-7.172740e-06	-4.355003e-10	-5.027341e+01	-2.916506e+01
2.700000e-07	-7.099039e-06	-4.343576e-10	-4.975684e+01	-2.901656e+01
2.800000e-07	-7.022567e-06	-4.307418e-10	-4.922085e+01	-2.885000e+01
2.900000e-07	-6.943316e-06	-4.284764e-10	-4.866538e+01	-2.867200e+01
3.000000e-07	-6.861492e-06	-4.246393e-10	-4.809188e+01	-2.848894e+01
3.100000e-07	-6.777383e-06	-4.217195e-10	-4.750237e+01	-2.830628e+01
3.200000e-07	-6.691041e-06	-4.143667e-10	-4.689720e+01	-2.812790e+01
3.300000e-07	-6.602393e-06	-4.255172e-10	-4.627587e+01	-2.795583e+01
3.400000e-07	-6.511340e-06	-4.175599e-10	-4.563768e+01	-2.779010e+01
3.500000e-07	-6.417903e-06	-4.094942e-10	-4.498278e+01	-2.762897e+01
3.600000e-07	-6.322131e-06	-4.070827e-10	-4.431152e+01	-2.746930e+01
3.700000e-07	-6.224107e-06	-4.109511e-10	-4.362448e+01	-2.730713e+01
3.800000e-07	-6.123848e-06	-4.057878e-10	-4.292177e+01	-2.713834e+01
3.900000e-07	-6.021308e-06	-3.964079e-10	-4.220307e+01	-2.695925e+01
4.000000e-07	-5.916575e-06	-4.010007e-10	-4.146900e+01	-2.676715e+01
4.100000e-07	-5.809754e-06	-3.971514e-10	-4.072030e+01	-2.656058e+01
4.200000e-07	-5.700886e-06	-3.928861e-10	-3.995725e+01	-2.633950e+01
4.300000e-07	-5.590005e-06	-3.878248e-10	-3.918008e+01	-2.610513e+01
4.400000e-07	-5.477042e-06	-3.927661e-10	-3.838834e+01	-2.585964e+01
4.500000e-07	-5.361908e-06	-3.875598e-10	-3.758136e+01	-2.560571e+01
4.600000e-07	-5.244664e-06	-3.799776e-10	-3.675961e+01	-2.534598e+01
4.700000e-07	-5.125441e-06	-3.759690e-10	-3.592398e+01	-2.508258e+01
4.800000e-07	-5.004414e-06	-3.748906e-10	-3.507571e+01	-2.481670e+01
4.900000e-07	-4.881581e-06	-3.717797e-10	-3.421478e+01	-2.454839e+01
5.000000e-07	-4.757008e-06	-3.643014e-10	-3.334165e+01	-2.427651e+01
5.100000e-07	-4.630769e-06	-3.616420e-10	-3.245685e+01	-2.399889e+01
5.200000e-07	-4.502787e-06	-3.572831e-10	-3.155983e+01	-2.371265e+01
5.300000e-07	-4.373194e-06	-3.554510e-10	-3.065152e+01	-2.341471e+01
5.400000e-07	-4.242031e-06	-3.500650e-10	-2.973220e+01	-2.310219e+01
5.500000e-07	-4.109325e-06	-3.462392e-10	-2.880207e+01	-2.277297e+01
5.600000e-07	-3.975143e-06	-3.389547e-10	-2.786159e+01	-2.242593e+01
5.700000e-07	-3.839471e-06	-3.338125e-10	-2.691068e+01	-2.206122e+01
5.800000e-07	-3.702340e-06	-3.326869e-10	-2.594953e+01	-2.168017e+01
5.900000e-07	-3.563866e-06	-3.277776e-10	-2.497897e+01	-2.128511e+01
6.000000e-07	-3.424029e-06	-3.186448e-10	-2.399886e+01	-2.087901e+01
6.100000e-07	-3.282748e-06	-3.081615e-10	-2.300863e+01	-2.046497e+01
6.200000e-07	-3.140144e-06	-3.047109e-10	-2.200913e+01	-2.004575e+01
6.300000e-07	-2.996367e-06	-3.007826e-10	-2.100140e+01	-1.962328e+01
6.400000e-07	-2.851522e-06	-2.949537e-10	-1.998618e+01	-1.919835e+01
6.500000e-07	-2.705652e-06	-2.873531e-10	-1.896379e+01	-1.877040e+01
6.600000e-07	-2.558764e-06	-2.808085e-10	-1.793426e+01	-1.833757e+01
6.700000e-07	-2.411028e-06	-2.738229e-10	-1.689879e+01	-1.789682e+01
6.800000e-07	-2.262573e-06	-2.672645e-10	-1.585827e+01	-1.744430e+01
6.900000e-07	-2.113371e-06	-2.602832e-10	-1.481252e+01	-1.697575e+01
7.000000e-07	-1.963426e-06	-2.488341e-10	-1.376156e+01	-1.648687e+01
7.100000e-07	-1.812790e-06	-2.387944e-10	-1.270576e+01	-1.597373e+01
7.200000e-07	-1.661396e-06	-2.329579e-10	-1.164465e+01	-1.543291e+01
7.300000e-07	-1.509350e-06	-2.287338e-10	-1.057896e+01	-1.486160e+01
7.400000e-07	-1.356908e-06	-2.179219e-10	-9.510505e+00	-1.425745e+01
7.500000e-07	-1.204047e-06	-2.066145e-10	-8.439107e+00	-1.361833e+01
7.600000e-07	-1.050652e-06	-1.989929e-10	-7.363972e+00	-1.294190e+01
7.700000e-07	-8.968142e-07	-1.899075e-10	-6.285730e+00	-1.222530e+01
7.800000e-07	-7.427493e-07	-1.764009e-10	-5.205895e+00	-1.146478e+01
7.900000e-07	-5.884377e-07	-1.612916e-10	-4.124333e+00	-1.065554e+01
8.000000e-07	-4.338281e-07	-1.479257e-10	-3.040681e+00	-9.791802e+00
8.100000e-07	-2.790039e-07	-1.325307e-10	-1.955525e+00	-8.867072e+00
8.200000e-07	-1.241404e-07	-1.156971e-10	-8.700943e-01	-7.874726e+00
8.300000e-07	3.074085e-08	-9.852879e-11	2.154612e-01	-6.808756e+00
8.400000e-07	1.857386e-07	-8.356563e-11	1.301833e+00	-5.664668e+00
8.500000e-07	3.406630e-07	-6.746050e-11	2.387691e+00	-4.440410e+00
8.600000e-07	4.953359e-07	-4.883822e-11	3.471786e+00	-3.137205e+00
8.700000e-07	6.498804e-07	-3.025233e-11	4.554982e+00	-1.760179e+00
8.800000e-07	8.042241e-07	-9.154148e-12	5.636769e+00	-3.186875e-01
8.900000e-07	9.581208e-07	1.522724e-11	6.715425e+00	1.173747e+00
9.000000e-07	1.111626e-06	4.072290e-11	7.791335e+00	2.699884e+00
9.100000e-07	1.264775e-06	6.331703e-11	8.864749e+00	4.239604e+00
9.200000e-07	1.417424e-06	8.612581e-11	9.934661e+00	5.771052e+00
9.300000e-07	1.569570e-06	1.101982e-10	1.100104e+01	7.271992e+00
9.400000e-07	1.721206e-06	1.316544e-10	1.206385e+01	8.721230e+00
9.500000e-07	1.872190e-06	1.504488e-10	1.312209e+01	1.009997e+01
9.600000e-07	2.022448e-06	1.702141e-10	1.417525e+01	1.139297e+01
9.700000e-07	2.171943e-06	1.890226e-10	1.522305e+01	1.258937e+01
9.800000e-07	2.320655e-06	2.055524e-10	1.626537e+01	1.368316e+01
9.900000e-07	2.468564e-06	2.228299e-10	1.730205e+01	1.467316e+01
1.000000e-06	2.615635e-06	2.384551e-10	1.833287e+01	1.556270e+01
1.010000e-06	2.761832e-06	2.493966e-10	1.935755e+01	1.635889e+01
1.020000e-06	2.907057e-06	2.579017e-10	2.037543e+01	1.707165e+01
1.030000e-06	3.051190e-06	2.678358e-10	2.138565e+01	1.771260e+01
1.040000e-06	3.194167e-06	2.777686e-10	2.238777e+01	1.829404e+01
1.050000e-06	3.335989e-06	2.861309e-10	2.338180e+01	1.882786e+01
1.060000e-06	3.476573e-06	2.933226e-10	2.436714e+01	1.932482e+01
1.070000e-06	3.615784e-06	3.017476e-10	2.534286e+01	1.979397e+01
1.080000e-06	3.753595e-06	3.095345e-10	2.630877e+01	2.024237e+01
1.090000e-06	3.889987e-06	3.157867e-10	2.726474e+01	2.067509e+01
1.100000e-06	4.024901e-06	3.213980e-10	2.821034e+01	2.109540e+01
1.110000e-06	4.158374e-06	3.271080e-10	2.914585e+01	2.150511e+01
1.120000e-06	4.290374e-06	3.341545e-10	3.007104e+01	2.190498e+01
1.130000e-06	4.420814e-06	3.428596e-10	3.098528e+01	2.229512e+01
1.140000e-06	4.549707e-06	3.488344e-10	3.188868e+01	2.267539e+01
1.150000e-06	4.676966e-06	3.518324e-10	3.278064e+01	2.304558e+01
1.160000e-06	4.802559e-06	3.565910e-10	3.366092e+01	2.340560e+01
1.170000e-06	4.926530e-06	3.628896e-10	3.452982e+01	2.375546e+01
1.180000e-06	5.048799e-06	3.692312e-10	3.538680e+01	2.409522e+01
1.190000e-06	5.169253e-06	3.746030e-10	3.623106e+01	2.442490e+01
1.200000e-06	5.287784e-06	3.784480e-10	3.706183e+01	2.474432e+01
1.210000e-06	5.404303e-06	3.819911e-10	3.787851e+01	2.505307e+01
1.220000e-06	5.518719e-06	3.866700e-10	3.868045e+01	2.535049e+01
1.230000e-06	5.630986e-06	3.914168e-10	3.946732e+01	2.563570e+01
1.240000e-06	5.741178e-06	3.965873e-10	4.023965e+01	2.590777e+01
1.250000e-06	5.849361e-06	4.008367e-10	4.099790e+01	2.616585e+01
1.260000e-06	5.955493e-06	4.036142e-10	4.174178e+01	2.640943e+01
1.270000e-06	6.059480e-06	4.057971e-10	4.247062e+01	2.663843e+01
1.280000e-06	6.161311e-06	4.101778e-10	4.318435e+01	2.685334e+01
1.290000e-06	6.260966e-06	4.137666e-10	4.388282e+01	2.705525e+01
1.300000e-06	6.358321e-06	4.152732e-10	4.456518e+01	2.724576e+01
1.310000e-06	6.453330e-06	4.179045e-10	4.523109e+01	2.742682e+01
1.320000e-06	6.546061e-06	4.211725e-10	4.588104e+01	2.760049e+01
1.330000e-06	6.636565e-06	4.232663e-10	4.651538e+01	2.776868e+01
1.340000e-06	6.724737e-06	4.251660e-10	4.713337e+01	2.793289e+01
1.350000e-06	6.810544e-06	4.292453e-10	4.773479e+01	2.809397e+01
1.360000e-06	6.894074e-06	4.322998e-10	4.832025e+01	2.825204e+01
1.370000e-06	6.975140e-06	4.345759e-10	4.888843e+01	2.840643e+01
1.380000e-06	7.053633e-06	4.366021e-10	4.943859e+01	2.855580e+01
1.390000e-06	7.129533e-06	4.373696e-10	4.997057e+01	2.869833e+01
1.400000e-06	7.202715e-06	4.385372e-10	5.048350e+01	2.883196e+01
1.410000e-06	7.273294e-06	4.406677e-10	5.097818e+01	2.895475e+01
1.420000e-06	7.341345e-06	4.433755e-10	5.145515e+01	2.906512e+01
1.430000e-06	7.406730e-06	4.453090e-10	5.191343e+01	2.916215e+01
1.440000e-06	7.469465e-06	4.461712e-10	5.235314e+01	2.924566e+01
1.450000e-06	7.529749e-06	4.472205e-10	5.277566e+01	2.931635e+01
1.460000e-06	7.587415e-06	4.471816e-10	5.317984e+01	2.937565e+01
1.470000e-06	7.642276e-06	4.469740e-10	5.356436e+01	2.942559e+01
1.480000e-06	7.694151e-06	4.477696e-10	5.392795e+01	2.946857e+01
1.490000e-06	7.742851e-06	4.474290e-10	5.426929e+01	2.950707e+01
1.500000e-06	7.788657e-06	4.470077e-10	5.459033e+01	2.954338e+01
1.510000e-06	7.831756e-06	4.465793e-10	5.489242e+01	2.957938e+01
1.520000e-06	7.872020e-06	4.458918e-10	5.517463e+01	2.961639e+01
1.530000e-06	7.909513e-06	4.457651e-10	5.543741e+01	2.965508e+01
1.540000e-06	7.944309e-06	4.471049e-10	5.568130e+01	2.969556e+01
1.550000e-06	7.976232e-06	4.481975e-10	5.590504e+01	2.973738e+01
1.560000e-06	8.005380e-06	4.477058e-10	5.610934e+01	2.977976e+01
1.570000e-06	8.031779e-06	4.466245e-10	5.629437e+01	2.982170e+01
1.580000e-06	8.055265e-06	4.462221e-10	5.645898e+01	2.986213e+01
1.590000e-06	8.075969e-06	4.476394e-10	5.660410e+01	2.990003e+01
1.600000e-06	8.093860e-06	4.489798e-10	5.672949e+01	2.993445e+01
1.610000e-06	8.108794e-06	4.502847e-10	5.683416e+01	2.996453e+01
1.620000e-06	8.120667e-06	4.516521e-10	5.691738e+01	2.998937e+01
1.630000e-06	8.129374e-06	4.515999e-10	5.697841e+01	3.000805e+01
1.640000e-06	8.135191e-06	4.522497e-10	5.701918e+01	3.001947e+01
1.650000e-06	8.138248e-06	4.520441e-10	5.704061e+01	3.002238e+01
1.660000e-06	8.138376e-06	4.504874e-10	5.704150e+01	3.001540e+01
1.670000e-06	8.135786e-06	4.477098e-10	5.702335e+01	2.999715e+01
1.680000e-06	8.130598e-06	4.475804e-10	5.698699e+01	2.996645e+01
1.690000e-06	8.122683e-06	4.469984e-10	5.693151e+01	2.992255e+01
1.700000e-06	8.112026e-06	4.461559e-10	5.685682e+01	2.986546e+01
1.710000e-06	8.098480e-06	4.461637e-10	5.676187e+01	2.979612e+01
1.720000e-06	8.082168e-06	4.450093e-10	5.664754e+01	2.971663e+01
1.730000e-06	8.063480e-06	4.465679e-10	5.651656e+01	2.963027e+01
1.740000e-06	8.042342e-06	4.276756e-10	5.636840e+01	2.954137e+01
1.750000e-06	8.018083e-06	4.322351e-10	5.619837e+01	2.945505e+01
1.760000e-06	7.990084e-06	4.462897e-10	5.600213e+01	2.937677e+01
1.770000e-06	7.958559e-06	4.457102e-10	5.578117e+01	2.931181e+01
1.780000e-06	7.924423e-06	4.398373e-10	5.554192e+01	2.926464e+01
1.790000e-06	7.888038e-06	4.369465e-10	5.528689e+01	2.923834e+01
1.800000e-06	7.849244e-06	4.409114e-10	5.501499e+01	2.923415e+01
1.810000e-06	7.808325e-06	4.151965e-10	5.472819e+01	2.925110e+01
1.820000e-06	7.765092e-06	4.449772e-10	5.442517e+01	2.928597e+01
1.830000e-06	7.719026e-06	4.528376e-10	5.410229e+01	2.933345e+01
1.840000e-06	7.670191e-06	4.494883e-10	5.376001e+01	2.938653e+01
1.850000e-06	7.618295e-06	4.682099e-10	5.339628e+01	2.943715e+01
1.860000e-06	7.563409e-06	4.540626e-10	5.301159e+01	2.947696e+01
1.870000e-06	7.505842e-06	4.712206e-10	5.260810e+01	2.949815e+01
1.880000e-06	7.445546e-06	4.417089e-10	5.218549e+01	2.949423e+01
1.890000e-06	7.382596e-06	4.513326e-10	5.174428e+01	2.946066e+01
1.900000e-06	7.316850e-06	4.754375e-10	5.128347e+01	2.939532e+01
1.910000e-06	7.248317e-06	4.444972e-10	5.080312e+01	2.929858e+01
1.920000e-06	7.176973e-06	4.563055e-10	5.030307e+01	2.917322e+01
1.930000e-06	7.102972e-06	4.446926e-10	4.978441e+01	2.902396e+01
1.940000e-06	7.026269e-06	4.507656e-10	4.924680e+01	2.885688e+01
1.950000e-06	6.946732e-06	4.362421e-10	4.868932e+01	2.867858e+01
1.960000e-06	6.864790e-06	4.429231e-10	4.811500e+01	2.849545e+01
1.970000e-06	6.780433e-06	4.563047e-10	4.752374e+01	2.831288e+01
1.980000e-06	6.693518e-06	4.295006e-10	4.691456e+01	2.813470e+01
1.990000e-06	6.604209e-06	4.426554e-10	4.628859e+01	2.796287e+01
2.000000e-06	6.512720e-06	4.335722e-10	4.564736e+01	2.779734e+01
2.010000e-06	6.418978e-06	4.362617e-10	4.499032e+01	2.763632e+01
2.020000e-06	6.322777e-06	4.185161e-10	4.431605e+01	2.747662e+01
2.030000e-06	6.224367e-06	4.266993e-10	4.362630e+01	2.731429e+01
2.040000e-06	6.123734e-06	4.299523e-10	4.292097e+01	2.714519e+01
2.050000e-06	6.020800e-06	4.155377e-10	4.219951e+01	2.696567e+01
2.060000e-06	5.915791e-06	4.149498e-10	4.146351e+01	2.677306e+01
2.070000e-06	5.808829e-06	4.124226e-10	4.071381e+01	2.656596e+01
2.080000e-06	5.699784e-06	4.163719e-10	3.994952e+01	2.634438e+01
2.090000e-06	5.588577e-06	3.989588e-10	3.917008e+01	2.610957e+01
2.100000e-06	5.475261e-06	4.001065e-10	3.837585e+01	2.586373e+01
2.110000e-06	5.359834e-06	3.954562e-10	3.756683e+01	2.560954e+01
2.120000e-06	5.242292e-06	3.938575e-10	3.674298e+01	2.534965e+01
2.130000e-06	5.122684e-06	3.868266e-10	3.590466e+01	2.508614e+01
2.140000e-06	5.001267e-06	3.861250e-10	3.505365e+01	2.482018e+01
2.150000e-06	4.878089e-06	3.816874e-10	3.419030e+01	2.455177e+01
2.160000e-06	4.753160e-06	3.729152e-10	3.331468e+01	2.427972e+01
2.170000e-06	4.626503e-06	3.702989e-10	3.242695e+01	2.400184e+01
2.180000e-06	4.498157e-06	3.654353e-10	3.152738e+01	2.371524e+01
2.190000e-06	4.368275e-06	3.599958e-10	3.061704e+01	2.341681e+01
2.200000e-06	4.236818e-06	3.513109e-10	2.969566e+01	2.310373e+01
2.210000e-06	4.103862e-06	3.507239e-10	2.876378e+01	2.277388e+01
2.220000e-06	3.969423e-06	3.442024e-10	2.782150e+01	2.242620e+01
2.230000e-06	3.833452e-06	3.355372e-10	2.686849e+01	2.206087e+01
2.240000e-06	3.696148e-06	3.284269e-10	2.590613e+01	2.167927e+01
2.250000e-06	3.557483e-06	3.266775e-10	2.493423e+01	2.128376e+01
2.260000e-06	3.417375e-06	3.204537e-10	2.395222e+01	2.087732e+01
2.270000e-06	3.276057e-06	3.111579e-10	2.296173e+01	2.046305e+01
2.280000e-06	3.133527e-06	3.053908e-10	2.196274e+01	2.004368e+01
2.290000e-06	2.989728e-06	3.001395e-10	2.095486e+01	1.962111e+01
2.300000e-06	2.844819e-06	2.919021e-10	1.993921e+01	1.919609e+01
2.310000e-06	2.698984e-06	2.849536e-10	1.891705e+01	1.876801e+01
2.320000e-06	2.552247e-06	2.805216e-10	1.788858e+01	1.833495e+01
2.330000e-06	2.404490e-06	2.734551e-10	1.685296e+01	1.789385e+01
2.340000e-06	2.255872e-06	2.656617e-10	1.581130e+01	1.744083e+01
2.350000e-06	2.106596e-06	2.589799e-10	1.476504e+01	1.697162e+01
2.360000e-06	1.956509e-06	2.519466e-10	1.371308e+01	1.648194e+01
2.370000e-06	1.805584e-06	2.437812e-10	1.265525e+01	1.596786e+01
2.380000e-06	1.654147e-06	2.350453e-10	1.159384e+01	1.542599e+01
2.390000e-06	1.502241e-06	2.265201e-10	1.052913e+01	1.485354e+01
2.400000e-06	1.349697e-06	2.163020e-10	9.459967e+00	1.424818e+01
2.410000e-06	1.196694e-06	2.056896e-10	8.387575e+00	1.360776e+01
2.420000e-06	1.043369e-06	1.972354e-10	7.312926e+00	1.292995e+01
2.430000e-06	8.896603e-07	1.880758e-10	6.235588e+00	1.221185e+01
2.440000e-06	7.355811e-07	1.764880e-10	5.155654e+00	1.144968e+01
2.450000e-06	5.812286e-07	1.636858e-10	4.073804e+00	1.063860e+01
2.460000e-06	4.267363e-07	1.520004e-10	2.990975e+00	9.772788e+00
2.470000e-06	2.720017e-07	1.390313e-10	1.906448e+00	8.845753e+00
2.480000e-06	1.170804e-07	1.215699e-10	8.206108e-01	7.850872e+00
2.490000e-06	-3.775229e-08	1.039125e-10	-2.646040e-01	6.782174e+00
2.500000e-06	-1.925083e-07	8.561502e-11	-1.349282e+00	5.635239e+00
2.510000e-06	-3.472664e-07	6.617845e-11	-2.433974e+00	4.408116e+00
2.520000e-06	-5.019122e-07	4.587581e-11	-3.517880e+00	3.102158e+00
2.530000e-06	-6.562664e-07	2.446873e-11	-4.599741e+00	1.722641e+00
2.540000e-06	-8.103606e-07	3.453996e-12	-5.679780e+00	2.790699e-01
2.550000e-06	-9.641987e-07	-1.907448e-11	-6.758024e+00	-1.214888e+00
2.560000e-06	-1.117599e-06	-4.105120e-11	-7.833202e+00	-2.741874e+00
2.570000e-06	-1.270562e-06	-6.553458e-11	-8.905309e+00	-4.281684e+00
2.580000e-06	-1.423149e-06	-9.138277e-11	-9.974783e+00	-5.812426e+00
2.590000e-06	-1.575259e-06	-1.147139e-10	-1.104092e+01	-7.311876e+00
2.600000e-06	-1.726781e-06	-1.355880e-10	-1.210293e+01	-8.758905e+00
2.610000e-06	-1.877670e-06	-1.553205e-10	-1.316050e+01	-1.013483e+01
2.620000e-06	-2.027878e-06	-1.770181e-10	-1.421330e+01	-1.142454e+01
2.630000e-06	-2.177360e-06	-1.966850e-10	-1.526101e+01	-1.261735e+01
2.640000e-06	-2.326066e-06	-2.128508e-10	-1.630329e+01	-1.370742e+01
2.650000e-06	-2.473970e-06	-2.272657e-10	-1.733994e+01	-1.469376e+01
2.660000e-06	-2.620975e-06	-2.391263e-10	-1.837030e+01	-1.557983e+01
2.670000e-06	-2.766946e-06	-2.500940e-10	-1.939340e+01	-1.637286e+01
2.680000e-06	-2.911950e-06	-2.615926e-10	-2.040973e+01	-1.708284e+01
2.690000e-06	-3.055964e-06	-2.708666e-10	-2.141911e+01	-1.772146e+01
2.700000e-06	-3.198760e-06	-2.781601e-10	-2.241996e+01	-1.830100e+01
2.710000e-06	-3.340290e-06	-2.859530e-10	-2.341194e+01	-1.883333e+01
2.720000e-06	-3.480627e-06	-2.950836e-10	-2.439556e+01	-1.932916e+01
2.730000e-06	-3.619664e-06	-3.031582e-10	-2.537006e+01	-1.979746e+01
2.740000e-06	-3.757276e-06	-3.092403e-10	-2.633458e+01	-2.024523e+01
2.750000e-06	-3.893506e-06	-3.158763e-10	-2.728940e+01	-2.067746e+01
2.760000e-06	-4.028335e-06	-3.225185e-10	-2.823442e+01	-2.109738e+01
2.770000e-06	-4.161782e-06	-3.284388e-10	-2.916974e+01	-2.150673e+01
2.780000e-06	-4.293734e-06	-3.341667e-10	-3.009458e+01	-2.190625e+01
2.790000e-06	-4.424106e-06	-3.391980e-10	-3.100835e+01	-2.229605e+01
2.800000e-06	-4.552996e-06	-3.440225e-10	-3.191174e+01	-2.267596e+01
2.810000e-06	-4.680285e-06	-3.495379e-10	-3.280390e+01	-2.304580e+01
2.820000e-06	-4.805883e-06	-3.556532e-10	-3.368421e+01	-2.340545e+01
2.830000e-06	-4.929765e-06	-3.612878e-10	-3.455250e+01	-2.375495e+01
2.840000e-06	-5.051874e-06	-3.660340e-10	-3.540835e+01	-2.409436e+01
2.850000e-06	-5.172177e-06	-3.711169e-10	-3.625155e+01	-2.442367e+01
2.860000e-06	-5.290532e-06	-3.758465e-10	-3.708110e+01	-2.474272e+01
2.870000e-06	-5.406773e-06	-3.802470e-10	-3.789582e+01	-2.505109e+01
2.880000e-06	-5.520812e-06	-3.857031e-10	-3.869511e+01	-2.534809e+01
2.890000e-06	-5.632700e-06	-3.914786e-10	-3.947933e+01	-2.563285e+01
2.900000e-06	-5.742509e-06	-3.962109e-10	-4.024898e+01	-2.590443e+01
2.910000e-06	-5.850283e-06	-3.993465e-10	-4.100436e+01	-2.616201e+01
2.920000e-06	-5.956110e-06	-4.020341e-10	-4.174610e+01	-2.640507e+01
2.930000e-06	-6.059826e-06	-4.052906e-10	-4.247304e+01	-2.663355e+01
2.940000e-06	-6.161295e-06	-4.083693e-10	-4.318423e+01	-2.684798e+01
