# Temperatura_=_20.0
# Concentracion g/m^3_=_9000.0
# C_Vs_to_Am_M_A/Vsm_=_65563218390.804596
# pendiente_HvsI_1/m_=_3716.3
# ordenada_HvsI_A/m_=_1297.0
# frecuencia_Hz_=_301285.91473320674

Tiempo_(s)	Campo_(V.s)	Magnetizacion_(V.s)	Campo_(kA/m)	Magnetizacion_(A/m)
0.000000e+00	-8.027913e-06	-6.984620e-09	-5.698177e+01	-4.591454e+02
1.000000e-08	-8.025236e-06	-6.986145e-09	-5.696277e+01	-4.589988e+02
2.000000e-08	-8.019920e-06	-6.985774e-09	-5.692504e+01	-4.588692e+02
3.000000e-08	-8.012036e-06	-6.983267e-09	-5.686908e+01	-4.587514e+02
4.000000e-08	-8.001320e-06	-6.980060e-09	-5.679301e+01	-4.586321e+02
5.000000e-08	-7.987643e-06	-6.975670e-09	-5.669594e+01	-4.584914e+02
6.000000e-08	-7.971093e-06	-6.971418e-09	-5.657847e+01	-4.583059e+02
7.000000e-08	-7.952106e-06	-6.967785e-09	-5.644370e+01	-4.580524e+02
8.000000e-08	-7.930856e-06	-6.972282e-09	-5.629287e+01	-4.577115e+02
9.000000e-08	-7.906773e-06	-6.991920e-09	-5.612193e+01	-4.572711e+02
1.000000e-07	-7.879473e-06	-6.991373e-09	-5.592815e+01	-4.567274e+02
1.100000e-07	-7.849188e-06	-6.965666e-09	-5.571319e+01	-4.560866e+02
1.200000e-07	-7.816015e-06	-6.937085e-09	-5.547773e+01	-4.553632e+02
1.300000e-07	-7.780049e-06	-6.913662e-09	-5.522245e+01	-4.545780e+02
1.400000e-07	-7.741755e-06	-6.901651e-09	-5.495064e+01	-4.537552e+02
1.500000e-07	-7.701254e-06	-6.911516e-09	-5.466316e+01	-4.529182e+02
1.600000e-07	-7.658191e-06	-6.913261e-09	-5.435750e+01	-4.520869e+02
1.700000e-07	-7.612385e-06	-6.871960e-09	-5.403237e+01	-4.512740e+02
1.800000e-07	-7.563959e-06	-6.872050e-09	-5.368864e+01	-4.504843e+02
1.900000e-07	-7.512538e-06	-6.874078e-09	-5.332367e+01	-4.497136e+02
2.000000e-07	-7.458060e-06	-6.845996e-09	-5.293698e+01	-4.489500e+02
2.100000e-07	-7.400822e-06	-6.846312e-09	-5.253071e+01	-4.481764e+02
2.200000e-07	-7.340954e-06	-6.836938e-09	-5.210577e+01	-4.473731e+02
2.300000e-07	-7.278524e-06	-6.808625e-09	-5.166264e+01	-4.465214e+02
2.400000e-07	-7.213366e-06	-6.792987e-09	-5.120015e+01	-4.456063e+02
2.500000e-07	-7.145554e-06	-6.799872e-09	-5.071883e+01	-4.446185e+02
2.600000e-07	-7.075122e-06	-6.778731e-09	-5.021890e+01	-4.435560e+02
2.700000e-07	-7.001934e-06	-6.745069e-09	-4.969942e+01	-4.424233e+02
2.800000e-07	-6.926099e-06	-6.740460e-09	-4.916114e+01	-4.412299e+02
2.900000e-07	-6.847548e-06	-6.729229e-09	-4.860359e+01	-4.399886e+02
3.000000e-07	-6.766326e-06	-6.701540e-09	-4.802708e+01	-4.387115e+02
3.100000e-07	-6.682818e-06	-6.677791e-09	-4.743435e+01	-4.374081e+02
3.200000e-07	-6.597130e-06	-6.660012e-09	-4.682614e+01	-4.360826e+02
3.300000e-07	-6.509190e-06	-6.638758e-09	-4.620195e+01	-4.347324e+02
3.400000e-07	-6.418837e-06	-6.615141e-09	-4.556062e+01	-4.333481e+02
3.500000e-07	-6.326133e-06	-6.599504e-09	-4.490262e+01	-4.319147e+02
3.600000e-07	-6.231235e-06	-6.574810e-09	-4.422903e+01	-4.304136e+02
3.700000e-07	-6.134078e-06	-6.539649e-09	-4.353941e+01	-4.288256e+02
3.800000e-07	-6.034687e-06	-6.517041e-09	-4.283394e+01	-4.271338e+02
3.900000e-07	-5.933127e-06	-6.497891e-09	-4.211308e+01	-4.253262e+02
4.000000e-07	-5.829496e-06	-6.464733e-09	-4.137750e+01	-4.233979e+02
4.100000e-07	-5.723723e-06	-6.427929e-09	-4.062674e+01	-4.213512e+02
4.200000e-07	-5.615867e-06	-6.405145e-09	-3.986117e+01	-4.191955e+02
4.300000e-07	-5.506078e-06	-6.375407e-09	-3.908190e+01	-4.169450e+02
4.400000e-07	-5.394347e-06	-6.335354e-09	-3.828884e+01	-4.146158e+02
4.500000e-07	-5.280476e-06	-6.303279e-09	-3.748058e+01	-4.122227e+02
4.600000e-07	-5.164375e-06	-6.271569e-09	-3.665650e+01	-4.097760e+02
4.700000e-07	-5.046327e-06	-6.230556e-09	-3.581860e+01	-4.072788e+02
4.800000e-07	-4.926520e-06	-6.187829e-09	-3.496822e+01	-4.047255e+02
4.900000e-07	-4.804941e-06	-6.149532e-09	-3.410526e+01	-4.021022e+02
5.000000e-07	-4.681579e-06	-6.104013e-09	-3.322964e+01	-3.993876e+02
5.100000e-07	-4.556548e-06	-6.054444e-09	-3.234218e+01	-3.965560e+02
5.200000e-07	-4.429905e-06	-6.007607e-09	-3.144327e+01	-3.935805e+02
5.300000e-07	-4.301742e-06	-5.959706e-09	-3.053357e+01	-3.904371e+02
5.400000e-07	-4.171996e-06	-5.907922e-09	-2.961264e+01	-3.871073e+02
5.500000e-07	-4.040636e-06	-5.857950e-09	-2.868026e+01	-3.835807e+02
5.600000e-07	-3.907884e-06	-5.809386e-09	-2.773799e+01	-3.798554e+02
5.700000e-07	-3.773759e-06	-5.753456e-09	-2.678598e+01	-3.759370e+02
5.800000e-07	-3.638311e-06	-5.691660e-09	-2.582457e+01	-3.718363e+02
5.900000e-07	-3.501587e-06	-5.626480e-09	-2.485411e+01	-3.675652e+02
6.000000e-07	-3.363414e-06	-5.557992e-09	-2.387336e+01	-3.631326e+02
6.100000e-07	-3.223748e-06	-5.483745e-09	-2.288202e+01	-3.585400e+02
6.200000e-07	-3.082803e-06	-5.407641e-09	-2.188160e+01	-3.537786e+02
6.300000e-07	-2.940729e-06	-5.330628e-09	-2.087317e+01	-3.488271e+02
6.400000e-07	-2.797517e-06	-5.250296e-09	-1.985665e+01	-3.436523e+02
6.500000e-07	-2.653209e-06	-5.166256e-09	-1.883236e+01	-3.382106e+02
6.600000e-07	-2.507871e-06	-5.076204e-09	-1.780076e+01	-3.324518e+02
6.700000e-07	-2.361606e-06	-4.980748e-09	-1.676258e+01	-3.263240e+02
6.800000e-07	-2.214601e-06	-4.879267e-09	-1.571914e+01	-3.197777e+02
6.900000e-07	-2.066929e-06	-4.771408e-09	-1.467097e+01	-3.127701e+02
7.000000e-07	-1.918628e-06	-4.656083e-09	-1.361834e+01	-3.052666e+02
7.100000e-07	-1.769711e-06	-4.533642e-09	-1.256133e+01	-2.972407e+02
7.200000e-07	-1.620172e-06	-4.404095e-09	-1.149991e+01	-2.886706e+02
7.300000e-07	-1.470100e-06	-4.266624e-09	-1.043471e+01	-2.795333e+02
7.400000e-07	-1.319498e-06	-4.120100e-09	-9.365737e+00	-2.697970e+02
7.500000e-07	-1.168411e-06	-3.962042e-09	-8.293327e+00	-2.594126e+02
7.600000e-07	-1.016995e-06	-3.793329e-09	-7.218587e+00	-2.483057e+02
7.700000e-07	-8.652867e-07	-3.611527e-09	-6.141767e+00	-2.363711e+02
7.800000e-07	-7.132639e-07	-3.411491e-09	-5.062715e+00	-2.234713e+02
7.900000e-07	-5.609361e-07	-3.190223e-09	-3.981500e+00	-2.094386e+02
8.000000e-07	-4.084261e-07	-2.949099e-09	-2.898990e+00	-1.940844e+02
8.100000e-07	-2.557888e-07	-2.685988e-09	-1.815577e+00	-1.772124e+02
8.200000e-07	-1.030366e-07	-2.396143e-09	-7.313491e-01	-1.586370e+02
8.300000e-07	4.976812e-08	-2.079209e-09	3.532519e-01	-1.382050e+02
8.400000e-07	2.025839e-07	-1.738059e-09	1.437932e+00	-1.158168e+02
8.500000e-07	3.553252e-07	-1.371226e-09	2.522083e+00	-9.144792e+01
8.600000e-07	5.078862e-07	-9.738980e-10	3.604954e+00	-6.516475e+01
8.700000e-07	6.602546e-07	-5.507959e-10	4.686458e+00	-3.713489e+01
8.800000e-07	8.123958e-07	-1.075776e-10	5.766350e+00	-7.629086e+00
8.900000e-07	9.642259e-07	3.570846e-10	6.844033e+00	2.298570e+01
9.000000e-07	1.115714e-06	8.390876e-10	7.919285e+00	5.426211e+01
9.100000e-07	1.266762e-06	1.324056e-09	8.991423e+00	8.569607e+01
9.200000e-07	1.417350e-06	1.802986e-09	1.006029e+01	1.167564e+02
9.300000e-07	1.567436e-06	2.267650e-09	1.112559e+01	1.469176e+02
9.400000e-07	1.717009e-06	2.710360e-09	1.218725e+01	1.756931e+02
9.500000e-07	1.866097e-06	3.125266e-09	1.324547e+01	2.026651e+02
9.600000e-07	2.014565e-06	3.505864e-09	1.429929e+01	2.275090e+02
9.700000e-07	2.162307e-06	3.846459e-09	1.534796e+01	2.500099e+02
9.800000e-07	2.309255e-06	4.143370e-09	1.639099e+01	2.700694e+02
9.900000e-07	2.455337e-06	4.402892e-09	1.742787e+01	2.877027e+02
1.000000e-06	2.600534e-06	4.628151e-09	1.845847e+01	3.030271e+02
1.010000e-06	2.744708e-06	4.821924e-09	1.948181e+01	3.162423e+02
1.020000e-06	2.887871e-06	4.992542e-09	2.049798e+01	3.276062e+02
1.030000e-06	3.030071e-06	5.145674e-09	2.150731e+01	3.374080e+02
1.040000e-06	3.171200e-06	5.283870e-09	2.250904e+01	3.459419e+02
1.050000e-06	3.311110e-06	5.404999e-09	2.350212e+01	3.534838e+02
1.060000e-06	3.449544e-06	5.511618e-09	2.448471e+01	3.602735e+02
1.070000e-06	3.586563e-06	5.608863e-09	2.545726e+01	3.665022e+02
1.080000e-06	3.722305e-06	5.699022e-09	2.642075e+01	3.723089e+02
1.090000e-06	3.856733e-06	5.782109e-09	2.737492e+01	3.777813e+02
1.100000e-06	3.989857e-06	5.857651e-09	2.831983e+01	3.829633e+02
1.110000e-06	4.121616e-06	5.926650e-09	2.925505e+01	3.878662e+02
1.120000e-06	4.251827e-06	5.991290e-09	3.017928e+01	3.924809e+02
1.130000e-06	4.380397e-06	6.054096e-09	3.109187e+01	3.967914e+02
1.140000e-06	4.507417e-06	6.113176e-09	3.199345e+01	4.007846e+02
1.150000e-06	4.632962e-06	6.166954e-09	3.288456e+01	4.044585e+02
1.160000e-06	4.756986e-06	6.216198e-09	3.376488e+01	4.078264e+02
1.170000e-06	4.879268e-06	6.263042e-09	3.463283e+01	4.109165e+02
1.180000e-06	4.999696e-06	6.308041e-09	3.548762e+01	4.137691e+02
1.190000e-06	5.118360e-06	6.349606e-09	3.632989e+01	4.164313e+02
1.200000e-06	5.235147e-06	6.387572e-09	3.715884e+01	4.189500e+02
1.210000e-06	5.349836e-06	6.424754e-09	3.797290e+01	4.213665e+02
1.220000e-06	5.462424e-06	6.461987e-09	3.877205e+01	4.237105e+02
1.230000e-06	5.573021e-06	6.496195e-09	3.955706e+01	4.259979e+02
1.240000e-06	5.681761e-06	6.527544e-09	4.032889e+01	4.282299e+02
1.250000e-06	5.788500e-06	6.557015e-09	4.108652e+01	4.303951e+02
1.260000e-06	5.893068e-06	6.584089e-09	4.182873e+01	4.324736e+02
1.270000e-06	5.995554e-06	6.610087e-09	4.255618e+01	4.344419e+02
1.280000e-06	6.095898e-06	6.636720e-09	4.326842e+01	4.362781e+02
1.290000e-06	6.193953e-06	6.661535e-09	4.396440e+01	4.379674e+02
1.300000e-06	6.289702e-06	6.684088e-09	4.464403e+01	4.395044e+02
1.310000e-06	6.383297e-06	6.707038e-09	4.530836e+01	4.408956e+02
1.320000e-06	6.474727e-06	6.728160e-09	4.595733e+01	4.421580e+02
1.330000e-06	6.563860e-06	6.746096e-09	4.658999e+01	4.433168e+02
1.340000e-06	6.650656e-06	6.764737e-09	4.720606e+01	4.444016e+02
1.350000e-06	6.735191e-06	6.784575e-09	4.780609e+01	4.454418e+02
1.360000e-06	6.817395e-06	6.801868e-09	4.838957e+01	4.464624e+02
1.370000e-06	6.897102e-06	6.817957e-09	4.895532e+01	4.474799e+02
1.380000e-06	6.974285e-06	6.833837e-09	4.950317e+01	4.485006e+02
1.390000e-06	7.048834e-06	6.848523e-09	5.003231e+01	4.495202e+02
1.400000e-06	7.120715e-06	6.862585e-09	5.054252e+01	4.505253e+02
1.410000e-06	7.190124e-06	6.875992e-09	5.103518e+01	4.514960e+02
1.420000e-06	7.257021e-06	6.888761e-09	5.151002e+01	4.524101e+02
1.430000e-06	7.321240e-06	6.901295e-09	5.196584e+01	4.532472e+02
1.440000e-06	7.382933e-06	6.913056e-09	5.240374e+01	4.539924e+02
1.450000e-06	7.442113e-06	6.923741e-09	5.282379e+01	4.546390e+02
1.460000e-06	7.498614e-06	6.933128e-09	5.322483e+01	4.551900e+02
1.470000e-06	7.552346e-06	6.942269e-09	5.360622e+01	4.556573e+02
1.480000e-06	7.603064e-06	6.952022e-09	5.396621e+01	4.560601e+02
1.490000e-06	7.650685e-06	6.960430e-09	5.430422e+01	4.564213e+02
1.500000e-06	7.695562e-06	6.967286e-09	5.462276e+01	4.567644e+02
1.510000e-06	7.737803e-06	6.973456e-09	5.492259e+01	4.571091e+02
1.520000e-06	7.777258e-06	6.980022e-09	5.520264e+01	4.574684e+02
1.530000e-06	7.814029e-06	6.987159e-09	5.546363e+01	4.578465e+02
1.540000e-06	7.848099e-06	6.994262e-09	5.570546e+01	4.582384e+02
1.550000e-06	7.879366e-06	7.000222e-09	5.592740e+01	4.586309e+02
1.560000e-06	7.907957e-06	7.006124e-09	5.613033e+01	4.590050e+02
1.570000e-06	7.933778e-06	7.012899e-09	5.631361e+01	4.593390e+02
1.580000e-06	7.956679e-06	7.017080e-09	5.647615e+01	4.596127e+02
1.590000e-06	7.976810e-06	7.018477e-09	5.661904e+01	4.598104e+02
1.600000e-06	7.994173e-06	7.020299e-09	5.674229e+01	4.599239e+02
1.610000e-06	8.008647e-06	7.023759e-09	5.684502e+01	4.599535e+02
1.620000e-06	8.020042e-06	7.027245e-09	5.692591e+01	4.599083e+02
1.630000e-06	8.028304e-06	7.028616e-09	5.698455e+01	4.598044e+02
1.640000e-06	8.033702e-06	7.029329e-09	5.702286e+01	4.596620e+02
1.650000e-06	8.036328e-06	7.031902e-09	5.704150e+01	4.595022e+02
1.660000e-06	8.036155e-06	7.032464e-09	5.704028e+01	4.593432e+02
1.670000e-06	8.033349e-06	7.028266e-09	5.702035e+01	4.591972e+02
1.680000e-06	8.027901e-06	7.024124e-09	5.698168e+01	4.590680e+02
1.690000e-06	8.019730e-06	7.021346e-09	5.692369e+01	4.589504e+02
1.700000e-06	8.008898e-06	7.018908e-09	5.684681e+01	4.588307e+02
1.710000e-06	7.995218e-06	7.014253e-09	5.674971e+01	4.586887e+02
1.720000e-06	7.978805e-06	7.007577e-09	5.663320e+01	4.585011e+02
1.730000e-06	7.960066e-06	6.998171e-09	5.650020e+01	4.582447e+02
1.740000e-06	7.938876e-06	6.961964e-09	5.634979e+01	4.579004e+02
1.750000e-06	7.914520e-06	6.934729e-09	5.617692e+01	4.574562e+02
1.760000e-06	7.886385e-06	6.941380e-09	5.597722e+01	4.569088e+02
1.770000e-06	7.854841e-06	6.962103e-09	5.575331e+01	4.562647e+02
1.780000e-06	7.820793e-06	6.983345e-09	5.551164e+01	4.555386e+02
1.790000e-06	7.784582e-06	6.989511e-09	5.525462e+01	4.547516e+02
1.800000e-06	7.746043e-06	6.942902e-09	5.498107e+01	4.539278e+02
1.810000e-06	7.705381e-06	6.896150e-09	5.469245e+01	4.530906e+02
1.820000e-06	7.662393e-06	6.888540e-09	5.438733e+01	4.522597e+02
1.830000e-06	7.616605e-06	6.857656e-09	5.406233e+01	4.514476e+02
1.840000e-06	7.568085e-06	6.872674e-09	5.371793e+01	4.506586e+02
1.850000e-06	7.516657e-06	6.881424e-09	5.335290e+01	4.498883e+02
1.860000e-06	7.462230e-06	6.828103e-09	5.296658e+01	4.491246e+02
1.870000e-06	7.404975e-06	6.824550e-09	5.256019e+01	4.483502e+02
1.880000e-06	7.345152e-06	6.830438e-09	5.213556e+01	4.475455e+02
1.890000e-06	7.282767e-06	6.818000e-09	5.169276e+01	4.466917e+02
1.900000e-06	7.217539e-06	6.785579e-09	5.122978e+01	4.457740e+02
1.910000e-06	7.149553e-06	6.758386e-09	5.074722e+01	4.447835e+02
1.920000e-06	7.078866e-06	6.769006e-09	5.024548e+01	4.437183e+02
1.930000e-06	7.005580e-06	6.734871e-09	4.972530e+01	4.425831e+02
1.940000e-06	6.929573e-06	6.716886e-09	4.918580e+01	4.413878e+02
1.950000e-06	6.850692e-06	6.709190e-09	4.862591e+01	4.401449e+02
1.960000e-06	6.769417e-06	6.685999e-09	4.804903e+01	4.388666e+02
1.970000e-06	6.685826e-06	6.671637e-09	4.745570e+01	4.375624e+02
1.980000e-06	6.599717e-06	6.651252e-09	4.684450e+01	4.362360e+02
1.990000e-06	6.511195e-06	6.639173e-09	4.621618e+01	4.348847e+02
2.000000e-06	6.420499e-06	6.593773e-09	4.557242e+01	4.334988e+02
2.010000e-06	6.327600e-06	6.571769e-09	4.491302e+01	4.320633e+02
2.020000e-06	6.232300e-06	6.565471e-09	4.423659e+01	4.305594e+02
2.030000e-06	6.134811e-06	6.540707e-09	4.354461e+01	4.289679e+02
2.040000e-06	6.035255e-06	6.508183e-09	4.283798e+01	4.272720e+02
2.050000e-06	5.933458e-06	6.477986e-09	4.211543e+01	4.254601e+02
2.060000e-06	5.829432e-06	6.453071e-09	4.137705e+01	4.235274e+02
2.070000e-06	5.723421e-06	6.409122e-09	4.062459e+01	4.214765e+02
2.080000e-06	5.615486e-06	6.381669e-09	3.985847e+01	4.193171e+02
2.090000e-06	5.505474e-06	6.353428e-09	3.907761e+01	4.170634e+02
2.100000e-06	5.393371e-06	6.314103e-09	3.828191e+01	4.147316e+02
2.110000e-06	5.279254e-06	6.270383e-09	3.747191e+01	4.123364e+02
2.120000e-06	5.163140e-06	6.242315e-09	3.664774e+01	4.098879e+02
2.130000e-06	5.044916e-06	6.211150e-09	3.580859e+01	4.073887e+02
2.140000e-06	4.924693e-06	6.165901e-09	3.495526e+01	4.048332e+02
2.150000e-06	4.802700e-06	6.124338e-09	3.408935e+01	4.022070e+02
2.160000e-06	4.679112e-06	6.083012e-09	3.321213e+01	3.994885e+02
2.170000e-06	4.553955e-06	6.038123e-09	3.232377e+01	3.966521e+02
2.180000e-06	4.427044e-06	5.987966e-09	3.142297e+01	3.936710e+02
2.190000e-06	4.298477e-06	5.940475e-09	3.051040e+01	3.905211e+02
2.200000e-06	4.168409e-06	5.886284e-09	2.958718e+01	3.871844e+02
2.210000e-06	4.036895e-06	5.830912e-09	2.865371e+01	3.836506e+02
2.220000e-06	3.904035e-06	5.777480e-09	2.771067e+01	3.799182e+02
2.230000e-06	3.769754e-06	5.724344e-09	2.675755e+01	3.759930e+02
2.240000e-06	3.633952e-06	5.661513e-09	2.579363e+01	3.718860e+02
2.250000e-06	3.496819e-06	5.594683e-09	2.482027e+01	3.676089e+02
2.260000e-06	3.358499e-06	5.531180e-09	2.383848e+01	3.631705e+02
2.270000e-06	3.219040e-06	5.465287e-09	2.284860e+01	3.585721e+02
2.280000e-06	3.078361e-06	5.392093e-09	2.185007e+01	3.538042e+02
2.290000e-06	2.936326e-06	5.312607e-09	2.084191e+01	3.488454e+02
2.300000e-06	2.793052e-06	5.229964e-09	1.982496e+01	3.436618e+02
2.310000e-06	2.648783e-06	5.145353e-09	1.880094e+01	3.382095e+02
2.320000e-06	2.503617e-06	5.057926e-09	1.777057e+01	3.324384e+02
2.330000e-06	2.357637e-06	4.964028e-09	1.673440e+01	3.262964e+02
2.340000e-06	2.210866e-06	4.864332e-09	1.569263e+01	3.197342e+02
2.350000e-06	2.063310e-06	4.758871e-09	1.464528e+01	3.127094e+02
2.360000e-06	1.915094e-06	4.648822e-09	1.359325e+01	3.051876e+02
2.370000e-06	1.766353e-06	4.531471e-09	1.253749e+01	2.971426e+02
2.380000e-06	1.617033e-06	4.404054e-09	1.147763e+01	2.885526e+02
2.390000e-06	1.466985e-06	4.265112e-09	1.041259e+01	2.793945e+02
2.400000e-06	1.316327e-06	4.116318e-09	9.343232e+00	2.696359e+02
2.410000e-06	1.165176e-06	3.959514e-09	8.270368e+00	2.592271e+02
2.420000e-06	1.013584e-06	3.792131e-09	7.194375e+00	2.480925e+02
2.430000e-06	8.615893e-07	3.609205e-09	6.115523e+00	2.361260e+02
2.440000e-06	7.092003e-07	3.409679e-09	5.033872e+00	2.231886e+02
2.450000e-06	5.565334e-07	3.192161e-09	3.950249e+00	2.091120e+02
2.460000e-06	4.036874e-07	2.954930e-09	2.865356e+00	1.937069e+02
2.470000e-06	2.506785e-07	2.698873e-09	1.779305e+00	1.767771e+02
2.480000e-06	9.755531e-08	2.418210e-09	6.924433e-01	1.581378e+02
2.490000e-06	-5.555248e-08	2.107407e-09	-3.943090e-01	1.376371e+02
2.500000e-06	-2.085867e-07	1.766247e-09	-1.480539e+00	1.151780e+02
2.510000e-06	-3.615651e-07	1.400441e-09	-2.566373e+00	9.073897e+01
2.520000e-06	-5.143759e-07	1.008150e-09	-3.651018e+00	6.438985e+01
2.530000e-06	-6.669386e-07	5.848984e-10	-4.733901e+00	3.630195e+01
2.540000e-06	-8.192483e-07	1.366374e-10	-5.814988e+00	6.749609e+00
2.550000e-06	-9.711941e-07	-3.285032e-10	-6.893493e+00	-2.389699e+01
2.560000e-06	-1.122682e-06	-8.058098e-10	-7.968750e+00	-5.518803e+01
2.570000e-06	-1.273693e-06	-1.291511e-09	-9.040616e+00	-8.661793e+01
2.580000e-06	-1.424228e-06	-1.772675e-09	-1.010911e+01	-1.176551e+02
2.590000e-06	-1.574289e-06	-2.239722e-09	-1.117423e+01	-1.477750e+02
2.600000e-06	-1.723722e-06	-2.684370e-09	-1.223490e+01	-1.764928e+02
2.610000e-06	-1.872492e-06	-3.096744e-09	-1.329087e+01	-2.033938e+02
2.620000e-06	-2.020647e-06	-3.472741e-09	-1.434246e+01	-2.281571e+02
2.630000e-06	-2.168124e-06	-3.811546e-09	-1.538925e+01	-2.505719e+02
2.640000e-06	-2.314847e-06	-4.112174e-09	-1.643068e+01	-2.705439e+02
2.650000e-06	-2.460810e-06	-4.372281e-09	-1.746672e+01	-2.880923e+02
2.660000e-06	-2.605989e-06	-4.598139e-09	-1.849720e+01	-3.033376e+02
2.670000e-06	-2.750138e-06	-4.798200e-09	-1.952036e+01	-3.164820e+02
2.680000e-06	-2.893148e-06	-4.973974e-09	-2.053544e+01	-3.277851e+02
2.690000e-06	-3.035000e-06	-5.126810e-09	-2.154230e+01	-3.375366e+02
2.700000e-06	-3.175596e-06	-5.262428e-09	-2.254024e+01	-3.460306e+02
2.710000e-06	-3.315003e-06	-5.384524e-09	-2.352975e+01	-3.535419e+02
2.720000e-06	-3.453262e-06	-5.493209e-09	-2.451110e+01	-3.603086e+02
2.730000e-06	-3.590332e-06	-5.590656e-09	-2.548402e+01	-3.665203e+02
2.740000e-06	-3.726121e-06	-5.680552e-09	-2.644785e+01	-3.723139e+02
2.750000e-06	-3.860502e-06	-5.761975e-09	-2.740167e+01	-3.777754e+02
2.760000e-06	-3.993467e-06	-5.836037e-09	-2.834545e+01	-3.829475e+02
2.770000e-06	-4.125031e-06	-5.907199e-09	-2.927929e+01	-3.878403e+02
2.780000e-06	-4.255190e-06	-5.976283e-09	-3.020315e+01	-3.924446e+02
2.790000e-06	-4.383908e-06	-6.040456e-09	-3.111678e+01	-3.967440e+02
2.800000e-06	-4.511002e-06	-6.099081e-09	-3.201889e+01	-4.007258e+02
2.810000e-06	-4.636435e-06	-6.155822e-09	-3.290921e+01	-4.043886e+02
2.820000e-06	-4.760307e-06	-6.210957e-09	-3.378845e+01	-4.077461e+02
2.830000e-06	-4.882537e-06	-6.261547e-09	-3.465604e+01	-4.108270e+02
2.840000e-06	-5.002935e-06	-6.307428e-09	-3.551061e+01	-4.136720e+02
2.850000e-06	-5.121393e-06	-6.350797e-09	-3.635142e+01	-4.163283e+02
2.860000e-06	-5.237864e-06	-6.393090e-09	-3.717813e+01	-4.188428e+02
2.870000e-06	-5.352199e-06	-6.433748e-09	-3.798967e+01	-4.212563e+02
2.880000e-06	-5.464369e-06	-6.473384e-09	-3.878585e+01	-4.235982e+02
2.890000e-06	-5.574536e-06	-6.512308e-09	-3.956781e+01	-4.258838e+02
2.900000e-06	-5.682798e-06	-6.548053e-09	-4.033625e+01	-4.281137e+02
2.910000e-06	-5.789162e-06	-6.579867e-09	-4.109122e+01	-4.302763e+02
2.920000e-06	-5.893545e-06	-6.608888e-09	-4.183212e+01	-4.323513e+02
2.930000e-06	-5.995757e-06	-6.636201e-09	-4.255762e+01	-4.343153e+02
2.940000e-06	-6.095804e-06	-6.661045e-09	-4.326775e+01	-4.361466e+02
