# Temperatura_=_20.0
# Concentracion g/m^3_=_9000.0
# C_Vs_to_Am_M_A/Vsm_=_65563218390.804596
# pendiente_HvsI_1/m_=_3716.3
# ordenada_HvsI_A/m_=_1297.0
# frecuencia_Hz_=_212910.68170717056

Tiempo_(s)	Campo_(V.s)	Magnetizacion_(V.s)	Campo_(kA/m)	Magnetizacion_(A/m)
0.000000e+00	-6.696750e-06	-4.289250e-09	-5.697019e+01	-2.806379e+02
1.000000e-08	-6.696320e-06	-4.287731e-09	-5.696653e+01	-2.805945e+02
2.000000e-08	-6.694607e-06	-4.285486e-09	-5.695196e+01	-2.805373e+02
3.000000e-08	-6.691570e-06	-4.283281e-09	-5.692613e+01	-2.804687e+02
4.000000e-08	-6.687501e-06	-4.281289e-09	-5.689151e+01	-2.803912e+02
5.000000e-08	-6.682443e-06	-4.279886e-09	-5.684848e+01	-2.803082e+02
6.000000e-08	-6.676278e-06	-4.277421e-09	-5.679604e+01	-2.802229e+02
7.000000e-08	-6.669153e-06	-4.273456e-09	-5.673542e+01	-2.801389e+02
8.000000e-08	-6.661040e-06	-4.267623e-09	-5.666640e+01	-2.800597e+02
9.000000e-08	-6.651578e-06	-4.284654e-09	-5.658591e+01	-2.799885e+02
1.000000e-07	-6.640574e-06	-4.302630e-09	-5.649230e+01	-2.799280e+02
1.100000e-07	-6.627934e-06	-4.306225e-09	-5.638477e+01	-2.798801e+02
1.200000e-07	-6.613635e-06	-4.290553e-09	-5.626312e+01	-2.798460e+02
1.300000e-07	-6.597867e-06	-4.218185e-09	-5.612898e+01	-2.798256e+02
1.400000e-07	-6.581048e-06	-4.226167e-09	-5.598590e+01	-2.798179e+02
1.500000e-07	-6.563342e-06	-4.289806e-09	-5.583528e+01	-2.798204e+02
1.600000e-07	-6.544683e-06	-4.250119e-09	-5.567654e+01	-2.798295e+02
1.700000e-07	-6.525193e-06	-4.263373e-09	-5.551073e+01	-2.798405e+02
1.800000e-07	-6.504733e-06	-4.244832e-09	-5.533668e+01	-2.798476e+02
1.900000e-07	-6.483157e-06	-4.181906e-09	-5.515313e+01	-2.798444e+02
2.000000e-07	-6.460675e-06	-4.265828e-09	-5.496187e+01	-2.798239e+02
2.100000e-07	-6.437333e-06	-4.292196e-09	-5.476329e+01	-2.797791e+02
2.200000e-07	-6.412696e-06	-4.216087e-09	-5.455370e+01	-2.797031e+02
2.300000e-07	-6.386595e-06	-4.245996e-09	-5.433166e+01	-2.795895e+02
2.400000e-07	-6.359376e-06	-4.284996e-09	-5.410010e+01	-2.794328e+02
2.500000e-07	-6.331131e-06	-4.264208e-09	-5.385982e+01	-2.792288e+02
2.600000e-07	-6.301797e-06	-4.267499e-09	-5.361027e+01	-2.789744e+02
2.700000e-07	-6.271328e-06	-4.221309e-09	-5.335107e+01	-2.786683e+02
2.800000e-07	-6.239861e-06	-4.218256e-09	-5.308337e+01	-2.783107e+02
2.900000e-07	-6.207450e-06	-4.246007e-09	-5.280765e+01	-2.779033e+02
3.000000e-07	-6.173741e-06	-4.220756e-09	-5.252088e+01	-2.774494e+02
3.100000e-07	-6.138666e-06	-4.220733e-09	-5.222249e+01	-2.769532e+02
3.200000e-07	-6.102395e-06	-4.195210e-09	-5.191393e+01	-2.764202e+02
3.300000e-07	-6.065015e-06	-4.166756e-09	-5.159593e+01	-2.758564e+02
3.400000e-07	-6.026584e-06	-4.196050e-09	-5.126899e+01	-2.752679e+02
3.500000e-07	-5.987211e-06	-4.207938e-09	-5.093404e+01	-2.746606e+02
3.600000e-07	-5.946847e-06	-4.153467e-09	-5.059066e+01	-2.740402e+02
3.700000e-07	-5.905157e-06	-4.129809e-09	-5.023600e+01	-2.734111e+02
3.800000e-07	-5.862152e-06	-4.178743e-09	-4.987015e+01	-2.727769e+02
3.900000e-07	-5.818089e-06	-4.167542e-09	-4.949530e+01	-2.721397e+02
4.000000e-07	-5.773024e-06	-4.118903e-09	-4.911192e+01	-2.715003e+02
4.100000e-07	-5.726960e-06	-4.122178e-09	-4.872006e+01	-2.708578e+02
4.200000e-07	-5.680012e-06	-4.119362e-09	-4.832066e+01	-2.702105e+02
4.300000e-07	-5.632116e-06	-4.104593e-09	-4.791320e+01	-2.695551e+02
4.400000e-07	-5.582945e-06	-4.099889e-09	-4.749490e+01	-2.688877e+02
4.500000e-07	-5.532358e-06	-4.088036e-09	-4.706455e+01	-2.682039e+02
4.600000e-07	-5.480536e-06	-4.065526e-09	-4.662369e+01	-2.674988e+02
4.700000e-07	-5.427728e-06	-4.052953e-09	-4.617444e+01	-2.667680e+02
4.800000e-07	-5.373966e-06	-4.067379e-09	-4.571708e+01	-2.660074e+02
4.900000e-07	-5.319275e-06	-4.052679e-09	-4.525182e+01	-2.652137e+02
5.000000e-07	-5.263840e-06	-4.012736e-09	-4.478023e+01	-2.643846e+02
5.100000e-07	-5.207639e-06	-4.004581e-09	-4.430211e+01	-2.635189e+02
5.200000e-07	-5.150472e-06	-4.015609e-09	-4.381579e+01	-2.626166e+02
5.300000e-07	-5.092169e-06	-4.000595e-09	-4.331979e+01	-2.616785e+02
5.400000e-07	-5.032856e-06	-3.961378e-09	-4.281521e+01	-2.607068e+02
5.500000e-07	-4.972731e-06	-3.948990e-09	-4.230372e+01	-2.597039e+02
5.600000e-07	-4.911844e-06	-3.954486e-09	-4.178575e+01	-2.586731e+02
5.700000e-07	-4.850207e-06	-3.938487e-09	-4.126139e+01	-2.576174e+02
5.800000e-07	-4.787688e-06	-3.911175e-09	-4.072954e+01	-2.565399e+02
5.900000e-07	-4.724401e-06	-3.893096e-09	-4.019114e+01	-2.554429e+02
6.000000e-07	-4.660447e-06	-3.880140e-09	-3.964707e+01	-2.543280e+02
6.100000e-07	-4.595541e-06	-3.868800e-09	-3.909491e+01	-2.531958e+02
6.200000e-07	-4.529495e-06	-3.852743e-09	-3.853305e+01	-2.520459e+02
6.300000e-07	-4.462496e-06	-3.822452e-09	-3.796308e+01	-2.508765e+02
6.400000e-07	-4.394798e-06	-3.792442e-09	-3.738716e+01	-2.496849e+02
6.500000e-07	-4.326416e-06	-3.781493e-09	-3.680543e+01	-2.484673e+02
6.600000e-07	-4.257306e-06	-3.776154e-09	-3.621750e+01	-2.472194e+02
6.700000e-07	-4.187410e-06	-3.750468e-09	-3.562288e+01	-2.459363e+02
6.800000e-07	-4.116715e-06	-3.718861e-09	-3.502147e+01	-2.446132e+02
6.900000e-07	-4.045381e-06	-3.705207e-09	-3.441463e+01	-2.432456e+02
7.000000e-07	-3.973378e-06	-3.697548e-09	-3.380208e+01	-2.418293e+02
7.100000e-07	-3.900387e-06	-3.672100e-09	-3.318114e+01	-2.403613e+02
7.200000e-07	-3.826474e-06	-3.633734e-09	-3.255235e+01	-2.388394e+02
7.300000e-07	-3.751856e-06	-3.606481e-09	-3.191757e+01	-2.372628e+02
7.400000e-07	-3.676529e-06	-3.585537e-09	-3.127675e+01	-2.356316e+02
7.500000e-07	-3.600458e-06	-3.559094e-09	-3.062960e+01	-2.339472e+02
7.600000e-07	-3.523587e-06	-3.528986e-09	-2.997565e+01	-2.322117e+02
7.700000e-07	-3.446070e-06	-3.499911e-09	-2.931621e+01	-2.304279e+02
7.800000e-07	-3.367949e-06	-3.474979e-09	-2.865161e+01	-2.285986e+02
7.900000e-07	-3.289073e-06	-3.449975e-09	-2.798061e+01	-2.267268e+02
8.000000e-07	-3.209448e-06	-3.421172e-09	-2.730322e+01	-2.248145e+02
8.100000e-07	-3.129111e-06	-3.387389e-09	-2.661979e+01	-2.228630e+02
8.200000e-07	-3.048212e-06	-3.352762e-09	-2.593157e+01	-2.208723e+02
8.300000e-07	-2.966880e-06	-3.322757e-09	-2.523967e+01	-2.188409e+02
8.400000e-07	-2.885125e-06	-3.290754e-09	-2.454416e+01	-2.167655e+02
8.500000e-07	-2.802860e-06	-3.255076e-09	-2.384432e+01	-2.146415e+02
8.600000e-07	-2.720188e-06	-3.222616e-09	-2.314102e+01	-2.124624e+02
8.700000e-07	-2.637279e-06	-3.193004e-09	-2.243570e+01	-2.102207e+02
8.800000e-07	-2.553964e-06	-3.159271e-09	-2.172693e+01	-2.079078e+02
8.900000e-07	-2.470210e-06	-3.118429e-09	-2.101443e+01	-2.055146e+02
9.000000e-07	-2.386173e-06	-3.077823e-09	-2.029951e+01	-2.030319e+02
9.100000e-07	-2.301887e-06	-3.039995e-09	-1.958248e+01	-2.004508e+02
9.200000e-07	-2.217304e-06	-2.997822e-09	-1.886292e+01	-1.977632e+02
9.300000e-07	-2.132375e-06	-2.949063e-09	-1.814041e+01	-1.949622e+02
9.400000e-07	-2.047034e-06	-2.901973e-09	-1.741441e+01	-1.920420e+02
9.500000e-07	-1.961323e-06	-2.860048e-09	-1.668525e+01	-1.889985e+02
9.600000e-07	-1.875327e-06	-2.815046e-09	-1.595367e+01	-1.858286e+02
9.700000e-07	-1.789038e-06	-2.763248e-09	-1.521960e+01	-1.825305e+02
9.800000e-07	-1.702430e-06	-2.708936e-09	-1.448281e+01	-1.791028e+02
9.900000e-07	-1.615496e-06	-2.655701e-09	-1.374325e+01	-1.755444e+02
1.000000e-06	-1.528289e-06	-2.603088e-09	-1.300137e+01	-1.718536e+02
1.010000e-06	-1.440881e-06	-2.544255e-09	-1.225777e+01	-1.680271e+02
1.020000e-06	-1.353268e-06	-2.480421e-09	-1.151244e+01	-1.640598e+02
1.030000e-06	-1.265445e-06	-2.417976e-09	-1.076531e+01	-1.599438e+02
1.040000e-06	-1.177449e-06	-2.356964e-09	-1.001672e+01	-1.556675e+02
1.050000e-06	-1.089284e-06	-2.292441e-09	-9.266689e+00	-1.512159e+02
1.060000e-06	-1.000833e-06	-2.219237e-09	-8.514227e+00	-1.465699e+02
1.070000e-06	-9.121141e-07	-2.140644e-09	-7.759483e+00	-1.417062e+02
1.080000e-06	-8.232098e-07	-2.061570e-09	-7.003162e+00	-1.365982e+02
1.090000e-06	-7.341459e-07	-1.982675e-09	-6.245482e+00	-1.312162e+02
1.100000e-06	-6.449511e-07	-1.897933e-09	-5.486689e+00	-1.255283e+02
1.110000e-06	-5.555742e-07	-1.805015e-09	-4.726348e+00	-1.195019e+02
1.120000e-06	-4.660013e-07	-1.708405e-09	-3.964339e+00	-1.131050e+02
1.130000e-06	-3.762739e-07	-1.608836e-09	-3.201015e+00	-1.063075e+02
1.140000e-06	-2.864350e-07	-1.500945e-09	-2.436742e+00	-9.908319e+01
1.150000e-06	-1.965594e-07	-1.382725e-09	-1.672158e+00	-9.141118e+01
1.160000e-06	-1.066610e-07	-1.258800e-09	-9.073801e-01	-8.327757e+01
1.170000e-06	-1.673585e-08	-1.131520e-09	-1.423742e-01	-7.467676e+01
1.180000e-06	7.321479e-08	-9.975472e-10	6.228485e-01	-6.561264e+01
1.190000e-06	1.631561e-07	-8.536958e-10	1.387991e+00	-5.609934e+01
1.200000e-06	2.530141e-07	-7.001421e-10	2.152426e+00	-4.616168e+01
1.210000e-06	3.427598e-07	-5.407126e-10	2.915906e+00	-3.583517e+01
1.220000e-06	4.323083e-07	-3.795140e-10	3.677707e+00	-2.516556e+01
1.230000e-06	5.216405e-07	-2.133441e-10	4.437669e+00	-1.420801e+01
1.240000e-06	6.107676e-07	-4.214548e-11	5.195885e+00	-3.025791e+00
1.250000e-06	6.997151e-07	1.309797e-10	5.952575e+00	8.311275e+00
1.260000e-06	7.884998e-07	3.037070e-10	6.707879e+00	1.972874e+01
1.270000e-06	8.770699e-07	4.769558e-10	7.461357e+00	3.114961e+01
1.280000e-06	9.654625e-07	6.504023e-10	8.213325e+00	4.249651e+01
1.290000e-06	1.053667e-06	8.226071e-10	8.963696e+00	5.369391e+01
1.300000e-06	1.141662e-06	9.924830e-10	9.712281e+00	6.467020e+01
1.310000e-06	1.229515e-06	1.156369e-09	1.045966e+01	7.535964e+01
1.320000e-06	1.317221e-06	1.316872e-09	1.120579e+01	8.570400e+01
1.330000e-06	1.404772e-06	1.471510e-09	1.195059e+01	9.565386e+01
1.340000e-06	1.492089e-06	1.616941e-09	1.269341e+01	1.051696e+02
1.350000e-06	1.579149e-06	1.753450e-09	1.343404e+01	1.142220e+02
1.360000e-06	1.665993e-06	1.882350e-09	1.417284e+01	1.227921e+02
1.370000e-06	1.752625e-06	2.003850e-09	1.490983e+01	1.308712e+02
1.380000e-06	1.838988e-06	2.117623e-09	1.564453e+01	1.384602e+02
1.390000e-06	1.925011e-06	2.222280e-09	1.637634e+01	1.455685e+02
1.400000e-06	2.010805e-06	2.319566e-09	1.710620e+01	1.522128e+02
1.410000e-06	2.096325e-06	2.412454e-09	1.783373e+01	1.584158e+02
1.420000e-06	2.181436e-06	2.500806e-09	1.855779e+01	1.642049e+02
1.430000e-06	2.266143e-06	2.584110e-09	1.927839e+01	1.696101e+02
1.440000e-06	2.350483e-06	2.659220e-09	1.999589e+01	1.746634e+02
1.450000e-06	2.434539e-06	2.730924e-09	2.071097e+01	1.793966e+02
1.460000e-06	2.518338e-06	2.801034e-09	2.142386e+01	1.838408e+02
1.470000e-06	2.601821e-06	2.866697e-09	2.213406e+01	1.880252e+02
1.480000e-06	2.684868e-06	2.926470e-09	2.284055e+01	1.919763e+02
1.490000e-06	2.767368e-06	2.982707e-09	2.354239e+01	1.957176e+02
1.500000e-06	2.849292e-06	3.037642e-09	2.423933e+01	1.992693e+02
1.510000e-06	2.930703e-06	3.089152e-09	2.493190e+01	2.026483e+02
1.520000e-06	3.011652e-06	3.136759e-09	2.562055e+01	2.058687e+02
1.530000e-06	3.092086e-06	3.178758e-09	2.630481e+01	2.089414e+02
1.540000e-06	3.171901e-06	3.219748e-09	2.698381e+01	2.118753e+02
1.550000e-06	3.251026e-06	3.260764e-09	2.765693e+01	2.146776e+02
1.560000e-06	3.329526e-06	3.299029e-09	2.832474e+01	2.173541e+02
1.570000e-06	3.407488e-06	3.334088e-09	2.898798e+01	2.199099e+02
1.580000e-06	3.484889e-06	3.366067e-09	2.964644e+01	2.223499e+02
1.590000e-06	3.561634e-06	3.398863e-09	3.029932e+01	2.246787e+02
1.600000e-06	3.637647e-06	3.432232e-09	3.094597e+01	2.269018e+02
1.610000e-06	3.712938e-06	3.463313e-09	3.158649e+01	2.290246e+02
1.620000e-06	3.787413e-06	3.492053e-09	3.222005e+01	2.310534e+02
1.630000e-06	3.860857e-06	3.520978e-09	3.284486e+01	2.329946e+02
1.640000e-06	3.933363e-06	3.548334e-09	3.346167e+01	2.348551e+02
1.650000e-06	4.005179e-06	3.574144e-09	3.407262e+01	2.366418e+02
1.660000e-06	4.076367e-06	3.598064e-09	3.467823e+01	2.383615e+02
1.670000e-06	4.146866e-06	3.621130e-09	3.527798e+01	2.400205e+02
1.680000e-06	4.216644e-06	3.645688e-09	3.587158e+01	2.416246e+02
1.690000e-06	4.285686e-06	3.669796e-09	3.645894e+01	2.431789e+02
1.700000e-06	4.353984e-06	3.691834e-09	3.703995e+01	2.446873e+02
1.710000e-06	4.421713e-06	3.712205e-09	3.761613e+01	2.461529e+02
1.720000e-06	4.488868e-06	3.733793e-09	3.818743e+01	2.475777e+02
1.730000e-06	4.555214e-06	3.754939e-09	3.875184e+01	2.489629e+02
1.740000e-06	4.620458e-06	3.773174e-09	3.930688e+01	2.503088e+02
1.750000e-06	4.684641e-06	3.789362e-09	3.985290e+01	2.516149e+02
1.760000e-06	4.748142e-06	3.807474e-09	4.039311e+01	2.528804e+02
1.770000e-06	4.810986e-06	3.826585e-09	4.092773e+01	2.541044e+02
1.780000e-06	4.873081e-06	3.843721e-09	4.145598e+01	2.552858e+02
1.790000e-06	4.934444e-06	3.860312e-09	4.197800e+01	2.564238e+02
1.800000e-06	4.995027e-06	3.876122e-09	4.249339e+01	2.575177e+02
1.810000e-06	5.054876e-06	3.892465e-09	4.300254e+01	2.585676e+02
1.820000e-06	5.113994e-06	3.907830e-09	4.350546e+01	2.595741e+02
1.830000e-06	5.172012e-06	3.922446e-09	4.399903e+01	2.605382e+02
1.840000e-06	5.228723e-06	3.936549e-09	4.448148e+01	2.614616e+02
1.850000e-06	5.284463e-06	3.950874e-09	4.495567e+01	2.623465e+02
1.860000e-06	5.339454e-06	3.967398e-09	4.542349e+01	2.631954e+02
1.870000e-06	5.393581e-06	3.982074e-09	4.588395e+01	2.640111e+02
1.880000e-06	5.446781e-06	3.994024e-09	4.633653e+01	2.647965e+02
1.890000e-06	5.498993e-06	4.004737e-09	4.678070e+01	2.655546e+02
1.900000e-06	5.549972e-06	4.017374e-09	4.721439e+01	2.662881e+02
1.910000e-06	5.599588e-06	4.031125e-09	4.763648e+01	2.669993e+02
1.920000e-06	5.647959e-06	4.042709e-09	4.804798e+01	2.676903e+02
1.930000e-06	5.695257e-06	4.052029e-09	4.845035e+01	2.683628e+02
1.940000e-06	5.741570e-06	4.060944e-09	4.884434e+01	2.690179e+02
1.950000e-06	5.786889e-06	4.071887e-09	4.922988e+01	2.696563e+02
1.960000e-06	5.831255e-06	4.082052e-09	4.960730e+01	2.702783e+02
1.970000e-06	5.874749e-06	4.089534e-09	4.997732e+01	2.708838e+02
1.980000e-06	5.917201e-06	4.097473e-09	5.033846e+01	2.714725e+02
1.990000e-06	5.958290e-06	4.107352e-09	5.068801e+01	2.720439e+02
2.000000e-06	5.998208e-06	4.117340e-09	5.102760e+01	2.725972e+02
2.010000e-06	6.037183e-06	4.126844e-09	5.135916e+01	2.731319e+02
2.020000e-06	6.075145e-06	4.136772e-09	5.168211e+01	2.736472e+02
2.030000e-06	6.112137e-06	4.146228e-09	5.199681e+01	2.741428e+02
2.040000e-06	6.148203e-06	4.155606e-09	5.230363e+01	2.746182e+02
2.050000e-06	6.183368e-06	4.165891e-09	5.260278e+01	2.750732e+02
2.060000e-06	6.217335e-06	4.174465e-09	5.289174e+01	2.755079e+02
2.070000e-06	6.249888e-06	4.182229e-09	5.316867e+01	2.759225e+02
2.080000e-06	6.281373e-06	4.189255e-09	5.343652e+01	2.763172e+02
2.090000e-06	6.311921e-06	4.195059e-09	5.369640e+01	2.766927e+02
2.100000e-06	6.341452e-06	4.201600e-09	5.394762e+01	2.770494e+02
2.110000e-06	6.369985e-06	4.208004e-09	5.419036e+01	2.773879e+02
2.120000e-06	6.397561e-06	4.214085e-09	5.442495e+01	2.777091e+02
2.130000e-06	6.423990e-06	4.219716e-09	5.464979e+01	2.780134e+02
2.140000e-06	6.448986e-06	4.224005e-09	5.486243e+01	2.783015e+02
2.150000e-06	6.472687e-06	4.228526e-09	5.506405e+01	2.785742e+02
2.160000e-06	6.495335e-06	4.232926e-09	5.525673e+01	2.788319e+02
2.170000e-06	6.516926e-06	4.237864e-09	5.544040e+01	2.790751e+02
2.180000e-06	6.537464e-06	4.242074e-09	5.561512e+01	2.793043e+02
2.190000e-06	6.557071e-06	4.243681e-09	5.578192e+01	2.795198e+02
2.200000e-06	6.575655e-06	4.246375e-09	5.594002e+01	2.797218e+02
2.210000e-06	6.593044e-06	4.249474e-09	5.608795e+01	2.799106e+02
2.220000e-06	6.609241e-06	4.252939e-09	5.622574e+01	2.800860e+02
2.230000e-06	6.624218e-06	4.255724e-09	5.635315e+01	2.802481e+02
2.240000e-06	6.637959e-06	4.257603e-09	5.647005e+01	2.803967e+02
2.250000e-06	6.650468e-06	4.259574e-09	5.657646e+01	2.805313e+02
2.260000e-06	6.661632e-06	4.262638e-09	5.667144e+01	2.806514e+02
2.270000e-06	6.671266e-06	4.266339e-09	5.675340e+01	2.807566e+02
2.280000e-06	6.679499e-06	4.266232e-09	5.682343e+01	2.808462e+02
2.290000e-06	6.686589e-06	4.264528e-09	5.688375e+01	2.809195e+02
2.300000e-06	6.692514e-06	4.265493e-09	5.693415e+01	2.809758e+02
2.310000e-06	6.697346e-06	4.268630e-09	5.697527e+01	2.810148e+02
2.320000e-06	6.701184e-06	4.268622e-09	5.700791e+01	2.810361e+02
2.330000e-06	6.703851e-06	4.267491e-09	5.703060e+01	2.810396e+02
2.340000e-06	6.705132e-06	4.269413e-09	5.704150e+01	2.810258e+02
2.350000e-06	6.705119e-06	4.273265e-09	5.704139e+01	2.809954e+02
2.360000e-06	6.704013e-06	4.274601e-09	5.703198e+01	2.809498e+02
2.370000e-06	6.701868e-06	4.272579e-09	5.701373e+01	2.808907e+02
2.380000e-06	6.698687e-06	4.269005e-09	5.698667e+01	2.808205e+02
2.390000e-06	6.694548e-06	4.266965e-09	5.695146e+01	2.807420e+02
2.400000e-06	6.689288e-06	4.267206e-09	5.690671e+01	2.806583e+02
2.410000e-06	6.682699e-06	4.268915e-09	5.685066e+01	2.805730e+02
2.420000e-06	6.674923e-06	4.276239e-09	5.678451e+01	2.804894e+02
2.430000e-06	6.666155e-06	4.262875e-09	5.670991e+01	2.804112e+02
2.440000e-06	6.656364e-06	4.226792e-09	5.662662e+01	2.803414e+02
2.450000e-06	6.645151e-06	4.219509e-09	5.653123e+01	2.802826e+02
2.460000e-06	6.631979e-06	4.222030e-09	5.641918e+01	2.802367e+02
2.470000e-06	6.616964e-06	4.296385e-09	5.629144e+01	2.802047e+02
2.480000e-06	6.600995e-06	4.301462e-09	5.615560e+01	2.801863e+02
2.490000e-06	6.584605e-06	4.227520e-09	5.601616e+01	2.801802e+02
2.500000e-06	6.567279e-06	4.289379e-09	5.586876e+01	2.801839e+02
2.510000e-06	6.548559e-06	4.251495e-09	5.570951e+01	2.801936e+02
2.520000e-06	6.528921e-06	4.245152e-09	5.554245e+01	2.802043e+02
2.530000e-06	6.508466e-06	4.352146e-09	5.536843e+01	2.802103e+02
2.540000e-06	6.486541e-06	4.276159e-09	5.518191e+01	2.802049e+02
2.550000e-06	6.463191e-06	4.232558e-09	5.498327e+01	2.801812e+02
2.560000e-06	6.438895e-06	4.313927e-09	5.477658e+01	2.801321e+02
2.570000e-06	6.413662e-06	4.249824e-09	5.456192e+01	2.800508e+02
2.580000e-06	6.387308e-06	4.213080e-09	5.433772e+01	2.799310e+02
2.590000e-06	6.359825e-06	4.300512e-09	5.410392e+01	2.797674e+02
2.600000e-06	6.331448e-06	4.267989e-09	5.386251e+01	2.795560e+02
2.610000e-06	6.302055e-06	4.283882e-09	5.361247e+01	2.792939e+02
2.620000e-06	6.271259e-06	4.291519e-09	5.335048e+01	2.789800e+02
2.630000e-06	6.239151e-06	4.250649e-09	5.307734e+01	2.786147e+02
2.640000e-06	6.205994e-06	4.285155e-09	5.279526e+01	2.782001e+02
2.650000e-06	6.171683e-06	4.225731e-09	5.250337e+01	2.777394e+02
2.660000e-06	6.136262e-06	4.252044e-09	5.220204e+01	2.772373e+02
2.670000e-06	6.099881e-06	4.290378e-09	5.189254e+01	2.766993e+02
2.680000e-06	6.062278e-06	4.189610e-09	5.157265e+01	2.761313e+02
2.690000e-06	6.023294e-06	4.204572e-09	5.124101e+01	2.755396e+02
2.700000e-06	5.983226e-06	4.241908e-09	5.090014e+01	2.749300e+02
2.710000e-06	5.942246e-06	4.223752e-09	5.055152e+01	2.743080e+02
2.720000e-06	5.900096e-06	4.176174e-09	5.019294e+01	2.736779e+02
2.730000e-06	5.856802e-06	4.153695e-09	4.982464e+01	2.730431e+02
2.740000e-06	5.812718e-06	4.209890e-09	4.944961e+01	2.724055e+02
2.750000e-06	5.767755e-06	4.167208e-09	4.906710e+01	2.717656e+02
2.760000e-06	5.721705e-06	4.144876e-09	4.867534e+01	2.711226e+02
2.770000e-06	5.674610e-06	4.155869e-09	4.827470e+01	2.704742e+02
2.780000e-06	5.626547e-06	4.120314e-09	4.786582e+01	2.698173e+02
2.790000e-06	5.577436e-06	4.131756e-09	4.744803e+01	2.691477e+02
2.800000e-06	5.527218e-06	4.123867e-09	4.702082e+01	2.684609e+02
2.810000e-06	5.476048e-06	4.125516e-09	4.658551e+01	2.677522e+02
2.820000e-06	5.423959e-06	4.083081e-09	4.614238e+01	2.670171e+02
2.830000e-06	5.370731e-06	4.053222e-09	4.568956e+01	2.662517e+02
2.840000e-06	5.316161e-06	4.098570e-09	4.522533e+01	2.654528e+02
2.850000e-06	5.260478e-06	4.072122e-09	4.475163e+01	2.646182e+02
2.860000e-06	5.203952e-06	4.029841e-09	4.427075e+01	2.637470e+02
2.870000e-06	5.146589e-06	4.007270e-09	4.378275e+01	2.628391e+02
2.880000e-06	5.088460e-06	4.024120e-09	4.328825e+01	2.618959e+02
2.890000e-06	5.029556e-06	4.018044e-09	4.278714e+01	2.609192e+02
2.900000e-06	4.969879e-06	3.971340e-09	4.227946e+01	2.599120e+02
2.910000e-06	4.909358e-06	3.966191e-09	4.176459e+01	2.588772e+02
2.920000e-06	4.847908e-06	3.949438e-09	4.124184e+01	2.578180e+02
2.930000e-06	4.785472e-06	3.937801e-09	4.071068e+01	2.567373e+02
2.940000e-06	4.722035e-06	3.924613e-09	4.017101e+01	2.556375e+02
2.950000e-06	4.657760e-06	3.908247e-09	3.962421e+01	2.545200e+02
