# Temperatura_=_20.0
# Concentracion g/m^3_=_9000.0
# C_Vs_to_Am_M_A/Vsm_=_65563218390.804596
# pendiente_HvsI_1/m_=_3716.3
# ordenada_HvsI_A/m_=_1297.0
# frecuencia_Hz_=_212908.78037048256

Tiempo_(s)	Campo_(V.s)	Magnetizacion_(V.s)	Campo_(kA/m)	Magnetizacion_(A/m)
0.000000e+00	-6.718303e-06	-4.370462e-09	-5.696579e+01	-2.873479e+02
1.000000e-08	-6.716908e-06	-4.367134e-09	-5.695395e+01	-2.872704e+02
2.000000e-08	-6.714100e-06	-4.366163e-09	-5.693015e+01	-2.871789e+02
3.000000e-08	-6.710279e-06	-4.364819e-09	-5.689774e+01	-2.870746e+02
4.000000e-08	-6.705444e-06	-4.362647e-09	-5.685675e+01	-2.869596e+02
5.000000e-08	-6.699398e-06	-4.359970e-09	-5.680549e+01	-2.868359e+02
6.000000e-08	-6.692348e-06	-4.357685e-09	-5.674571e+01	-2.867061e+02
7.000000e-08	-6.684420e-06	-4.347356e-09	-5.667849e+01	-2.865727e+02
8.000000e-08	-6.675253e-06	-4.339256e-09	-5.660076e+01	-2.864387e+02
9.000000e-08	-6.664427e-06	-4.387627e-09	-5.650896e+01	-2.863066e+02
1.000000e-07	-6.651964e-06	-4.434067e-09	-5.640328e+01	-2.861788e+02
1.100000e-07	-6.637924e-06	-4.421494e-09	-5.628424e+01	-2.860573e+02
1.200000e-07	-6.622335e-06	-4.334149e-09	-5.615205e+01	-2.859433e+02
1.300000e-07	-6.605547e-06	-4.193450e-09	-5.600970e+01	-2.858374e+02
1.400000e-07	-6.587921e-06	-4.300783e-09	-5.586025e+01	-2.857390e+02
1.500000e-07	-6.569410e-06	-4.472570e-09	-5.570329e+01	-2.856467e+02
1.600000e-07	-6.550071e-06	-4.344980e-09	-5.553932e+01	-2.855578e+02
1.700000e-07	-6.529894e-06	-4.278744e-09	-5.536823e+01	-2.854688e+02
1.800000e-07	-6.508476e-06	-4.266802e-09	-5.518662e+01	-2.853751e+02
1.900000e-07	-6.486011e-06	-4.246957e-09	-5.499614e+01	-2.852714e+02
2.000000e-07	-6.462819e-06	-4.448551e-09	-5.479949e+01	-2.851519e+02
2.100000e-07	-6.438350e-06	-4.425953e-09	-5.459201e+01	-2.850105e+02
2.200000e-07	-6.412294e-06	-4.185187e-09	-5.437108e+01	-2.848411e+02
2.300000e-07	-6.385091e-06	-4.309685e-09	-5.414042e+01	-2.846383e+02
2.400000e-07	-6.356934e-06	-4.473769e-09	-5.390167e+01	-2.843969e+02
2.500000e-07	-6.327720e-06	-4.370107e-09	-5.365396e+01	-2.841130e+02
2.600000e-07	-6.297356e-06	-4.262958e-09	-5.339649e+01	-2.837839e+02
2.700000e-07	-6.265975e-06	-4.223766e-09	-5.313041e+01	-2.834081e+02
2.800000e-07	-6.233677e-06	-4.318074e-09	-5.285655e+01	-2.829857e+02
2.900000e-07	-6.200132e-06	-4.390566e-09	-5.257212e+01	-2.825183e+02
3.000000e-07	-6.165193e-06	-4.276639e-09	-5.227586e+01	-2.820085e+02
3.100000e-07	-6.129092e-06	-4.204293e-09	-5.196975e+01	-2.814603e+02
3.200000e-07	-6.091901e-06	-4.249915e-09	-5.165440e+01	-2.808786e+02
3.300000e-07	-6.053574e-06	-4.290639e-09	-5.132942e+01	-2.802687e+02
3.400000e-07	-6.014310e-06	-4.287245e-09	-5.099649e+01	-2.796362e+02
3.500000e-07	-5.974036e-06	-4.235160e-09	-5.065500e+01	-2.789865e+02
3.600000e-07	-5.932347e-06	-4.164266e-09	-5.030151e+01	-2.783244e+02
3.700000e-07	-5.889403e-06	-4.206041e-09	-4.993738e+01	-2.776540e+02
3.800000e-07	-5.845538e-06	-4.309754e-09	-4.956544e+01	-2.769780e+02
3.900000e-07	-5.800599e-06	-4.222206e-09	-4.918440e+01	-2.762980e+02
4.000000e-07	-5.754594e-06	-4.104225e-09	-4.879431e+01	-2.756141e+02
4.100000e-07	-5.707765e-06	-4.184462e-09	-4.839724e+01	-2.749252e+02
4.200000e-07	-5.659947e-06	-4.242915e-09	-4.799178e+01	-2.742288e+02
4.300000e-07	-5.610742e-06	-4.163386e-09	-4.757456e+01	-2.735212e+02
4.400000e-07	-5.560136e-06	-4.105133e-09	-4.714546e+01	-2.727982e+02
4.500000e-07	-5.508400e-06	-4.133644e-09	-4.670678e+01	-2.720549e+02
4.600000e-07	-5.455693e-06	-4.154688e-09	-4.625987e+01	-2.712865e+02
4.700000e-07	-5.401961e-06	-4.133019e-09	-4.580427e+01	-2.704884e+02
4.800000e-07	-5.347346e-06	-4.102983e-09	-4.534118e+01	-2.696565e+02
4.900000e-07	-5.291942e-06	-4.073093e-09	-4.487139e+01	-2.687878e+02
5.000000e-07	-5.235639e-06	-4.076523e-09	-4.439399e+01	-2.678802e+02
5.100000e-07	-5.178403e-06	-4.090022e-09	-4.390868e+01	-2.669330e+02
5.200000e-07	-5.120087e-06	-4.060141e-09	-4.341420e+01	-2.659465e+02
5.300000e-07	-5.060662e-06	-4.013738e-09	-4.291033e+01	-2.649225e+02
5.400000e-07	-5.000419e-06	-4.004971e-09	-4.239952e+01	-2.638635e+02
5.500000e-07	-4.939538e-06	-4.029334e-09	-4.188329e+01	-2.627729e+02
5.600000e-07	-4.877913e-06	-4.017265e-09	-4.136076e+01	-2.616545e+02
5.700000e-07	-4.815471e-06	-3.961145e-09	-4.083131e+01	-2.605119e+02
5.800000e-07	-4.752208e-06	-3.934310e-09	-4.029488e+01	-2.593487e+02
5.900000e-07	-4.688097e-06	-3.954558e-09	-3.975128e+01	-2.581678e+02
6.000000e-07	-4.623098e-06	-3.948988e-09	-3.920014e+01	-2.569710e+02
6.100000e-07	-4.557031e-06	-3.895875e-09	-3.863995e+01	-2.557589e+02
6.200000e-07	-4.489967e-06	-3.864412e-09	-3.807129e+01	-2.545310e+02
6.300000e-07	-4.422186e-06	-3.869697e-09	-3.749656e+01	-2.532853e+02
6.400000e-07	-4.353829e-06	-3.860637e-09	-3.691695e+01	-2.520187e+02
6.500000e-07	-4.284755e-06	-3.828048e-09	-3.633126e+01	-2.507267e+02
6.600000e-07	-4.214799e-06	-3.800876e-09	-3.573809e+01	-2.494043e+02
6.700000e-07	-4.144141e-06	-3.786930e-09	-3.513897e+01	-2.480459e+02
6.800000e-07	-4.072824e-06	-3.775277e-09	-3.453426e+01	-2.466457e+02
6.900000e-07	-4.000691e-06	-3.757854e-09	-3.392263e+01	-2.451984e+02
7.000000e-07	-3.927674e-06	-3.725411e-09	-3.330350e+01	-2.436991e+02
7.100000e-07	-3.853801e-06	-3.688088e-09	-3.267712e+01	-2.421438e+02
7.200000e-07	-3.779120e-06	-3.670599e-09	-3.204388e+01	-2.405299e+02
7.300000e-07	-3.703660e-06	-3.659332e-09	-3.140405e+01	-2.388559e+02
7.400000e-07	-3.627488e-06	-3.623987e-09	-3.075817e+01	-2.371218e+02
7.500000e-07	-3.550636e-06	-3.580016e-09	-3.010653e+01	-2.353285e+02
7.600000e-07	-3.472997e-06	-3.559213e-09	-2.944821e+01	-2.334784e+02
7.700000e-07	-3.394597e-06	-3.545788e-09	-2.878344e+01	-2.315742e+02
7.800000e-07	-3.315564e-06	-3.509441e-09	-2.811330e+01	-2.296191e+02
7.900000e-07	-3.235826e-06	-3.463123e-09	-2.743719e+01	-2.276165e+02
8.000000e-07	-3.155393e-06	-3.433713e-09	-2.675519e+01	-2.255690e+02
8.100000e-07	-3.074468e-06	-3.413777e-09	-2.606901e+01	-2.234784e+02
8.200000e-07	-2.993062e-06	-3.379544e-09	-2.537875e+01	-2.213453e+02
8.300000e-07	-2.911121e-06	-3.334660e-09	-2.468395e+01	-2.191690e+02
8.400000e-07	-2.828742e-06	-3.298806e-09	-2.398545e+01	-2.169470e+02
8.500000e-07	-2.746001e-06	-3.273005e-09	-2.328387e+01	-2.146752e+02
8.600000e-07	-2.663018e-06	-3.244684e-09	-2.258024e+01	-2.123478e+02
8.700000e-07	-2.579683e-06	-3.205765e-09	-2.187362e+01	-2.099580e+02
8.800000e-07	-2.495803e-06	-3.160763e-09	-2.116239e+01	-2.074977e+02
8.900000e-07	-2.411541e-06	-3.119690e-09	-2.044792e+01	-2.049583e+02
9.000000e-07	-2.327088e-06	-3.083022e-09	-1.973183e+01	-2.023310e+02
9.100000e-07	-2.242397e-06	-3.039418e-09	-1.901371e+01	-1.996072e+02
9.200000e-07	-2.157351e-06	-2.984497e-09	-1.829260e+01	-1.967790e+02
9.300000e-07	-2.071893e-06	-2.933291e-09	-1.756798e+01	-1.938394e+02
9.400000e-07	-1.985989e-06	-2.894384e-09	-1.683958e+01	-1.907826e+02
9.500000e-07	-1.899749e-06	-2.852930e-09	-1.610834e+01	-1.876037e+02
9.600000e-07	-1.813285e-06	-2.798352e-09	-1.537519e+01	-1.842993e+02
9.700000e-07	-1.726565e-06	-2.740925e-09	-1.463988e+01	-1.808663e+02
9.800000e-07	-1.639538e-06	-2.690589e-09	-1.390196e+01	-1.773023e+02
9.900000e-07	-1.552275e-06	-2.639542e-09	-1.316204e+01	-1.736043e+02
1.000000e-06	-1.464767e-06	-2.578265e-09	-1.242004e+01	-1.697688e+02
1.010000e-06	-1.376927e-06	-2.511197e-09	-1.167523e+01	-1.657902e+02
1.020000e-06	-1.288791e-06	-2.448149e-09	-1.092791e+01	-1.616610e+02
1.030000e-06	-1.200382e-06	-2.388225e-09	-1.017827e+01	-1.573703e+02
1.040000e-06	-1.111738e-06	-2.322473e-09	-9.426640e+00	-1.529042e+02
1.050000e-06	-1.022853e-06	-2.249262e-09	-8.672972e+00	-1.482445e+02
1.060000e-06	-9.337140e-07	-2.171452e-09	-7.917141e+00	-1.433695e+02
1.070000e-06	-8.443889e-07	-2.092294e-09	-7.159736e+00	-1.382538e+02
1.080000e-06	-7.549366e-07	-2.011673e-09	-6.401252e+00	-1.328686e+02
1.090000e-06	-6.653172e-07	-1.925397e-09	-5.641352e+00	-1.271830e+02
1.100000e-06	-5.755438e-07	-1.831864e-09	-4.880147e+00	-1.211645e+02
1.110000e-06	-4.857073e-07	-1.734414e-09	-4.118406e+00	-1.147810e+02
1.120000e-06	-3.957291e-07	-1.635534e-09	-3.355464e+00	-1.080017e+02
1.130000e-06	-3.056301e-07	-1.529264e-09	-2.591497e+00	-1.007989e+02
1.140000e-06	-2.154959e-07	-1.411758e-09	-1.827231e+00	-9.314995e+01
1.150000e-06	-1.253344e-07	-1.288876e-09	-1.062735e+00	-8.503851e+01
1.160000e-06	-3.521290e-08	-1.163451e-09	-2.985770e-01	-7.645628e+01
1.170000e-06	5.490892e-08	-1.029196e-09	4.655833e-01	-6.740419e+01
1.180000e-06	1.450643e-07	-8.844594e-10	1.230028e+00	-5.789332e+01
1.190000e-06	2.351531e-07	-7.327698e-10	1.993909e+00	-4.794553e+01
1.200000e-06	3.251859e-07	-5.746429e-10	2.757314e+00	-3.759360e+01
1.210000e-06	4.151811e-07	-4.110523e-10	3.520400e+00	-2.688098e+01
1.220000e-06	5.050031e-07	-2.430598e-10	4.282019e+00	-1.586101e+01
1.230000e-06	5.946275e-07	-7.236127e-11	5.041961e+00	-4.595807e+00
1.240000e-06	6.841206e-07	1.000645e-10	5.800790e+00	6.845285e+00
1.250000e-06	7.735060e-07	2.743905e-10	6.558706e+00	1.838757e+01
1.260000e-06	8.626969e-07	4.495593e-10	7.314973e+00	2.995311e+01
1.270000e-06	9.516715e-07	6.239824e-10	8.069406e+00	4.146292e+01
1.280000e-06	1.040475e-06	7.983814e-10	8.822389e+00	5.283929e+01
1.290000e-06	1.129040e-06	9.714705e-10	9.573348e+00	6.400803e+01
1.300000e-06	1.217346e-06	1.140327e-09	1.032211e+01	7.490045e+01
1.310000e-06	1.305395e-06	1.303883e-09	1.106870e+01	8.545525e+01
1.320000e-06	1.393198e-06	1.460169e-09	1.181319e+01	9.561991e+01
1.330000e-06	1.480717e-06	1.606495e-09	1.255528e+01	1.053519e+02
1.340000e-06	1.567970e-06	1.744030e-09	1.329512e+01	1.146191e+02
1.350000e-06	1.655051e-06	1.875774e-09	1.403349e+01	1.234004e+02
1.360000e-06	1.741913e-06	1.999065e-09	1.477002e+01	1.316851e+02
1.370000e-06	1.828573e-06	2.110955e-09	1.550483e+01	1.394725e+02
1.380000e-06	1.914989e-06	2.215783e-09	1.623756e+01	1.467713e+02
1.390000e-06	2.001076e-06	2.316978e-09	1.696751e+01	1.535974e+02
1.400000e-06	2.086860e-06	2.412600e-09	1.769489e+01	1.599737e+02
1.410000e-06	2.172247e-06	2.502921e-09	1.841890e+01	1.659274e+02
1.420000e-06	2.257245e-06	2.587734e-09	1.913962e+01	1.714894e+02
1.430000e-06	2.341957e-06	2.666012e-09	1.985791e+01	1.766920e+02
1.440000e-06	2.426306e-06	2.739759e-09	2.057312e+01	1.815680e+02
1.450000e-06	2.510254e-06	2.810492e-09	2.128493e+01	1.861491e+02
1.460000e-06	2.593864e-06	2.877032e-09	2.199387e+01	1.904650e+02
1.470000e-06	2.677116e-06	2.937986e-09	2.269978e+01	1.945429e+02
1.480000e-06	2.760001e-06	2.995872e-09	2.340258e+01	1.984065e+02
1.490000e-06	2.842425e-06	3.052674e-09	2.410147e+01	2.020763e+02
1.500000e-06	2.924289e-06	3.104420e-09	2.479561e+01	2.055691e+02
1.510000e-06	3.005624e-06	3.152089e-09	2.548526e+01	2.088988e+02
1.520000e-06	3.086392e-06	3.198409e-09	2.617011e+01	2.120763e+02
1.530000e-06	3.166562e-06	3.243716e-09	2.684989e+01	2.151100e+02
1.540000e-06	3.246107e-06	3.286496e-09	2.752436e+01	2.180069e+02
1.550000e-06	3.325059e-06	3.325641e-09	2.819381e+01	2.207727e+02
1.560000e-06	3.403379e-06	3.362784e-09	2.885791e+01	2.234123e+02
1.570000e-06	3.481065e-06	3.398212e-09	2.951662e+01	2.259306e+02
1.580000e-06	3.558144e-06	3.433357e-09	3.017019e+01	2.283327e+02
1.590000e-06	3.634513e-06	3.467515e-09	3.081774e+01	2.306243e+02
1.600000e-06	3.710162e-06	3.498212e-09	3.145918e+01	2.328116e+02
1.610000e-06	3.785063e-06	3.526410e-09	3.209428e+01	2.349013e+02
1.620000e-06	3.859162e-06	3.555301e-09	3.272257e+01	2.369008e+02
1.630000e-06	3.932371e-06	3.583815e-09	3.334333e+01	2.388178e+02
1.640000e-06	4.004679e-06	3.609887e-09	3.395644e+01	2.406599e+02
1.650000e-06	4.076168e-06	3.635308e-09	3.456262e+01	2.424348e+02
1.660000e-06	4.146962e-06	3.661326e-09	3.516289e+01	2.441495e+02
1.670000e-06	4.217089e-06	3.687071e-09	3.575751e+01	2.458102e+02
1.680000e-06	4.286530e-06	3.711830e-09	3.634632e+01	2.474221e+02
1.690000e-06	4.355254e-06	3.734408e-09	3.692904e+01	2.489896e+02
1.700000e-06	4.423284e-06	3.755897e-09	3.750587e+01	2.505155e+02
1.710000e-06	4.490681e-06	3.778362e-09	3.807735e+01	2.520016e+02
1.720000e-06	4.557321e-06	3.799814e-09	3.864241e+01	2.534488e+02
1.730000e-06	4.622954e-06	3.819234e-09	3.919892e+01	2.548569e+02
1.740000e-06	4.687583e-06	3.837561e-09	3.974692e+01	2.562251e+02
1.750000e-06	4.751391e-06	3.856197e-09	4.028796e+01	2.575520e+02
1.760000e-06	4.814503e-06	3.875055e-09	4.082309e+01	2.588364e+02
1.770000e-06	4.876933e-06	3.892768e-09	4.135246e+01	2.600768e+02
1.780000e-06	4.938523e-06	3.908921e-09	4.187468e+01	2.612723e+02
1.790000e-06	4.999277e-06	3.924636e-09	4.238983e+01	2.624225e+02
1.800000e-06	5.059325e-06	3.942016e-09	4.289899e+01	2.635276e+02
1.810000e-06	5.118683e-06	3.959221e-09	4.340230e+01	2.645884e+02
1.820000e-06	5.177177e-06	3.974747e-09	4.389828e+01	2.656065e+02
1.830000e-06	5.234525e-06	3.989530e-09	4.438455e+01	2.665843e+02
1.840000e-06	5.290695e-06	4.004578e-09	4.486082e+01	2.675244e+02
1.850000e-06	5.345939e-06	4.020301e-09	4.532924e+01	2.684300e+02
1.860000e-06	5.400347e-06	4.034317e-09	4.579058e+01	2.693044e+02
1.870000e-06	5.453847e-06	4.047477e-09	4.624422e+01	2.701510e+02
1.880000e-06	5.506370e-06	4.060437e-09	4.668957e+01	2.709727e+02
1.890000e-06	5.557792e-06	4.072846e-09	4.712559e+01	2.717724e+02
1.900000e-06	5.607966e-06	4.085685e-09	4.755102e+01	2.725523e+02
1.910000e-06	5.656788e-06	4.097473e-09	4.796500e+01	2.733140e+02
1.920000e-06	5.704424e-06	4.108767e-09	4.836891e+01	2.740586e+02
1.930000e-06	5.751084e-06	4.118715e-09	4.876455e+01	2.747865e+02
1.940000e-06	5.796774e-06	4.128806e-09	4.915196e+01	2.754976e+02
1.950000e-06	5.841440e-06	4.138899e-09	4.953069e+01	2.761913e+02
1.960000e-06	5.885214e-06	4.146600e-09	4.990186e+01	2.768669e+02
1.970000e-06	5.928102e-06	4.155545e-09	5.026552e+01	2.775231e+02
1.980000e-06	5.969810e-06	4.164531e-09	5.061917e+01	2.781588e+02
1.990000e-06	6.010204e-06	4.173033e-09	5.096168e+01	2.787731e+02
2.000000e-06	6.049520e-06	4.182548e-09	5.129505e+01	2.793649e+02
2.010000e-06	6.087875e-06	4.193489e-09	5.162027e+01	2.799338e+02
2.020000e-06	6.125207e-06	4.204466e-09	5.193681e+01	2.804794e+02
2.030000e-06	6.161595e-06	4.214420e-09	5.224535e+01	2.810019e+02
2.040000e-06	6.197035e-06	4.224488e-09	5.254585e+01	2.815017e+02
2.050000e-06	6.231309e-06	4.232780e-09	5.283647e+01	2.819794e+02
2.060000e-06	6.264239e-06	4.240363e-09	5.311569e+01	2.824359e+02
2.070000e-06	6.296010e-06	4.246894e-09	5.338508e+01	2.828723e+02
2.080000e-06	6.326748e-06	4.251644e-09	5.364571e+01	2.832896e+02
2.090000e-06	6.356454e-06	4.257515e-09	5.389760e+01	2.836887e+02
2.100000e-06	6.385140e-06	4.264804e-09	5.414083e+01	2.840705e+02
2.110000e-06	6.412900e-06	4.271706e-09	5.437621e+01	2.844356e+02
2.120000e-06	6.439703e-06	4.277993e-09	5.460348e+01	2.847844e+02
2.130000e-06	6.465131e-06	4.283634e-09	5.481909e+01	2.851171e+02
2.140000e-06	6.489188e-06	4.289142e-09	5.502307e+01	2.854335e+02
2.150000e-06	6.512190e-06	4.294902e-09	5.521811e+01	2.857333e+02
2.160000e-06	6.534139e-06	4.299195e-09	5.540422e+01	2.860162e+02
2.170000e-06	6.554986e-06	4.302723e-09	5.558099e+01	2.862815e+02
2.180000e-06	6.574831e-06	4.306556e-09	5.574926e+01	2.865287e+02
2.190000e-06	6.593679e-06	4.311616e-09	5.590908e+01	2.867572e+02
2.200000e-06	6.611329e-06	4.315399e-09	5.605873e+01	2.869666e+02
2.210000e-06	6.627729e-06	4.318822e-09	5.619779e+01	2.871565e+02
2.220000e-06	6.642943e-06	4.323339e-09	5.632680e+01	2.873269e+02
2.230000e-06	6.656921e-06	4.326899e-09	5.644532e+01	2.874775e+02
2.240000e-06	6.669674e-06	4.329239e-09	5.655345e+01	2.876085e+02
2.250000e-06	6.681184e-06	4.330833e-09	5.665105e+01	2.877202e+02
2.260000e-06	6.691260e-06	4.333830e-09	5.673649e+01	2.878128e+02
2.270000e-06	6.699838e-06	4.335218e-09	5.680921e+01	2.878866e+02
2.280000e-06	6.707181e-06	4.334892e-09	5.687148e+01	2.879419e+02
2.290000e-06	6.713379e-06	4.336487e-09	5.692403e+01	2.879790e+02
2.300000e-06	6.718408e-06	4.339286e-09	5.696667e+01	2.879982e+02
2.310000e-06	6.722428e-06	4.342348e-09	5.700076e+01	2.879998e+02
2.320000e-06	6.725403e-06	4.344803e-09	5.702599e+01	2.879840e+02
2.330000e-06	6.727016e-06	4.348525e-09	5.703967e+01	2.879511e+02
2.340000e-06	6.727233e-06	4.352254e-09	5.704150e+01	2.879016e+02
2.350000e-06	6.726327e-06	4.351737e-09	5.703382e+01	2.878362e+02
2.360000e-06	6.724335e-06	4.347873e-09	5.701693e+01	2.877557e+02
2.370000e-06	6.721250e-06	4.344037e-09	5.699078e+01	2.876614e+02
2.380000e-06	6.717227e-06	4.342809e-09	5.695666e+01	2.875547e+02
2.390000e-06	6.712307e-06	4.343912e-09	5.691495e+01	2.874376e+02
2.400000e-06	6.706126e-06	4.346765e-09	5.686254e+01	2.873124e+02
2.410000e-06	6.698549e-06	4.354611e-09	5.679829e+01	2.871815e+02
2.420000e-06	6.689936e-06	4.374814e-09	5.672526e+01	2.870477e+02
2.430000e-06	6.680382e-06	4.329206e-09	5.664424e+01	2.869138e+02
2.440000e-06	6.669523e-06	4.249663e-09	5.655217e+01	2.867822e+02
2.450000e-06	6.656717e-06	4.236461e-09	5.644358e+01	2.866555e+02
2.460000e-06	6.641851e-06	4.311155e-09	5.631753e+01	2.865353e+02
2.470000e-06	6.625861e-06	4.491701e-09	5.618195e+01	2.864228e+02
2.480000e-06	6.609540e-06	4.405695e-09	5.604356e+01	2.863183e+02
2.490000e-06	6.592508e-06	4.200606e-09	5.589915e+01	2.862212e+02
2.500000e-06	6.574011e-06	4.333463e-09	5.574230e+01	2.861297e+02
2.510000e-06	6.554466e-06	4.365407e-09	5.557658e+01	2.860410e+02
2.520000e-06	6.534361e-06	4.385384e-09	5.540611e+01	2.859513e+02
2.530000e-06	6.512757e-06	4.495056e-09	5.522292e+01	2.858560e+02
2.540000e-06	6.489425e-06	4.257296e-09	5.502508e+01	2.857495e+02
2.550000e-06	6.465206e-06	4.210781e-09	5.481973e+01	2.856259e+02
2.560000e-06	6.440141e-06	4.476253e-09	5.460720e+01	2.854793e+02
2.570000e-06	6.413966e-06	4.339391e-09	5.438525e+01	2.853036e+02
2.580000e-06	6.386624e-06	4.206821e-09	5.415342e+01	2.850932e+02
2.590000e-06	6.358317e-06	4.396852e-09	5.391340e+01	2.848435e+02
2.600000e-06	6.329132e-06	4.436535e-09	5.366593e+01	2.845507e+02
2.610000e-06	6.298448e-06	4.441004e-09	5.340576e+01	2.842122e+02
2.620000e-06	6.266251e-06	4.357568e-09	5.313275e+01	2.838269e+02
2.630000e-06	6.233124e-06	4.271534e-09	5.285186e+01	2.833953e+02
2.640000e-06	6.198927e-06	4.402245e-09	5.256190e+01	2.829189e+02
2.650000e-06	6.163520e-06	4.375372e-09	5.226167e+01	2.824010e+02
2.660000e-06	6.127218e-06	4.346642e-09	5.195386e+01	2.818456e+02
2.670000e-06	6.089752e-06	4.349278e-09	5.163618e+01	2.812577e+02
2.680000e-06	6.050750e-06	4.245924e-09	5.130547e+01	2.806428e+02
2.690000e-06	6.010601e-06	4.311909e-09	5.096505e+01	2.800063e+02
2.700000e-06	5.969723e-06	4.385225e-09	5.061843e+01	2.793537e+02
2.710000e-06	5.927824e-06	4.309910e-09	5.026316e+01	2.786895e+02
2.720000e-06	5.884639e-06	4.194355e-09	4.989699e+01	2.780176e+02
2.730000e-06	5.840532e-06	4.248891e-09	4.952300e+01	2.773406e+02
2.740000e-06	5.795655e-06	4.372420e-09	4.914248e+01	2.766598e+02
2.750000e-06	5.749746e-06	4.234477e-09	4.875321e+01	2.759750e+02
2.760000e-06	5.702697e-06	4.157114e-09	4.835426e+01	2.752847e+02
2.770000e-06	5.654671e-06	4.234520e-09	4.794704e+01	2.745862e+02
2.780000e-06	5.605643e-06	4.246244e-09	4.753132e+01	2.738758e+02
2.790000e-06	5.555437e-06	4.208577e-09	4.710562e+01	2.731490e+02
2.800000e-06	5.504247e-06	4.155277e-09	4.667157e+01	2.724010e+02
2.810000e-06	5.452158e-06	4.180865e-09	4.622990e+01	2.716269e+02
2.820000e-06	5.398902e-06	4.176465e-09	4.577833e+01	2.708222e+02
2.830000e-06	5.344362e-06	4.149446e-09	4.531587e+01	2.699831e+02
2.840000e-06	5.288700e-06	4.155398e-09	4.484390e+01	2.691066e+02
2.850000e-06	5.232147e-06	4.115794e-09	4.436438e+01	2.681910e+02
2.860000e-06	5.174698e-06	4.096345e-09	4.387726e+01	2.672357e+02
2.870000e-06	5.116416e-06	4.098080e-09	4.338308e+01	2.662415e+02
2.880000e-06	5.057446e-06	4.102012e-09	4.288306e+01	2.652101e+02
2.890000e-06	4.997700e-06	4.054954e-09	4.237646e+01	2.641444e+02
2.900000e-06	4.937119e-06	4.013882e-09	4.186278e+01	2.630478e+02
2.910000e-06	4.875683e-06	4.046999e-09	4.134186e+01	2.619241e+02
2.920000e-06	4.813243e-06	4.037322e-09	4.081241e+01	2.607771e+02
2.930000e-06	4.749728e-06	3.982040e-09	4.027386e+01	2.596101e+02
2.940000e-06	4.685337e-06	3.959999e-09	3.972787e+01	2.584257e+02
2.950000e-06	4.620199e-06	3.980660e-09	3.917555e+01	2.572257e+02
