# Temperatura_=_20.0
# Concentracion g/m^3_=_9000.0
# C_Vs_to_Am_M_A/Vsm_=_65563218390.804596
# pendiente_HvsI_1/m_=_3716.3
# ordenada_HvsI_A/m_=_1297.0
# frecuencia_Hz_=_212907.57666282865

Tiempo_(s)	Campo_(V.s)	Magnetizacion_(V.s)	Campo_(kA/m)	Magnetizacion_(A/m)
0.000000e+00	-6.736309e-06	-4.321639e-09	-5.696948e+01	-2.833175e+02
1.000000e-08	-6.735042e-06	-4.321934e-09	-5.695877e+01	-2.833001e+02
2.000000e-08	-6.732359e-06	-4.324158e-09	-5.693608e+01	-2.832680e+02
3.000000e-08	-6.728601e-06	-4.324450e-09	-5.690430e+01	-2.832216e+02
4.000000e-08	-6.723899e-06	-4.324140e-09	-5.686454e+01	-2.831615e+02
5.000000e-08	-6.718059e-06	-4.321901e-09	-5.681514e+01	-2.830891e+02
6.000000e-08	-6.711095e-06	-4.318349e-09	-5.675625e+01	-2.830059e+02
7.000000e-08	-6.703276e-06	-4.304343e-09	-5.669013e+01	-2.829142e+02
8.000000e-08	-6.694294e-06	-4.286606e-09	-5.661416e+01	-2.828166e+02
9.000000e-08	-6.683611e-06	-4.351674e-09	-5.652382e+01	-2.827157e+02
1.000000e-07	-6.671251e-06	-4.426679e-09	-5.641929e+01	-2.826143e+02
1.100000e-07	-6.657339e-06	-4.417894e-09	-5.630164e+01	-2.825151e+02
1.200000e-07	-6.641805e-06	-4.316322e-09	-5.617026e+01	-2.824201e+02
1.300000e-07	-6.625018e-06	-4.111252e-09	-5.602829e+01	-2.823309e+02
1.400000e-07	-6.607499e-06	-4.239139e-09	-5.588013e+01	-2.822482e+02
1.500000e-07	-6.589098e-06	-4.510349e-09	-5.572452e+01	-2.821718e+02
1.600000e-07	-6.569832e-06	-4.328100e-09	-5.556158e+01	-2.821003e+02
1.700000e-07	-6.549764e-06	-4.236313e-09	-5.539186e+01	-2.820312e+02
1.800000e-07	-6.528454e-06	-4.245024e-09	-5.521164e+01	-2.819609e+02
1.900000e-07	-6.506030e-06	-4.175792e-09	-5.502200e+01	-2.818849e+02
2.000000e-07	-6.482871e-06	-4.445718e-09	-5.482614e+01	-2.817976e+02
2.100000e-07	-6.458509e-06	-4.438679e-09	-5.462011e+01	-2.816933e+02
2.200000e-07	-6.432536e-06	-4.056051e-09	-5.440046e+01	-2.815657e+02
2.300000e-07	-6.405365e-06	-4.199033e-09	-5.417067e+01	-2.814088e+02
2.400000e-07	-6.377265e-06	-4.454132e-09	-5.393302e+01	-2.812168e+02
2.500000e-07	-6.348128e-06	-4.320724e-09	-5.368661e+01	-2.809848e+02
2.600000e-07	-6.317886e-06	-4.171870e-09	-5.343085e+01	-2.807090e+02
2.700000e-07	-6.286596e-06	-4.097203e-09	-5.316623e+01	-2.803867e+02
2.800000e-07	-6.254398e-06	-4.252236e-09	-5.289393e+01	-2.800167e+02
2.900000e-07	-6.220956e-06	-4.377630e-09	-5.261111e+01	-2.795994e+02
3.000000e-07	-6.186047e-06	-4.180660e-09	-5.231588e+01	-2.791365e+02
3.100000e-07	-6.149984e-06	-4.105291e-09	-5.201089e+01	-2.786313e+02
3.200000e-07	-6.112831e-06	-4.203886e-09	-5.169669e+01	-2.780881e+02
3.300000e-07	-6.074465e-06	-4.224076e-09	-5.137222e+01	-2.775119e+02
3.400000e-07	-6.035181e-06	-4.227567e-09	-5.103999e+01	-2.769086e+02
3.500000e-07	-5.994973e-06	-4.199957e-09	-5.069995e+01	-2.762838e+02
3.600000e-07	-5.953355e-06	-4.084390e-09	-5.034799e+01	-2.756434e+02
3.700000e-07	-5.910443e-06	-4.118680e-09	-4.998508e+01	-2.749921e+02
3.800000e-07	-5.866571e-06	-4.291833e-09	-4.961405e+01	-2.743341e+02
3.900000e-07	-5.821625e-06	-4.178983e-09	-4.923394e+01	-2.736722e+02
4.000000e-07	-5.775569e-06	-3.994294e-09	-4.884443e+01	-2.730081e+02
4.100000e-07	-5.728623e-06	-4.123615e-09	-4.844741e+01	-2.723418e+02
4.200000e-07	-5.680776e-06	-4.226707e-09	-4.804277e+01	-2.716720e+02
4.300000e-07	-5.631557e-06	-4.111439e-09	-4.762652e+01	-2.709963e+02
4.400000e-07	-5.580759e-06	-4.028513e-09	-4.719691e+01	-2.703110e+02
4.500000e-07	-5.528789e-06	-4.083800e-09	-4.675739e+01	-2.696119e+02
4.600000e-07	-5.475933e-06	-4.127113e-09	-4.631039e+01	-2.688942e+02
4.700000e-07	-5.422194e-06	-4.082377e-09	-4.585592e+01	-2.681530e+02
4.800000e-07	-5.367576e-06	-4.040325e-09	-4.539401e+01	-2.673838e+02
4.900000e-07	-5.312179e-06	-4.023665e-09	-4.492551e+01	-2.665826e+02
5.000000e-07	-5.255982e-06	-4.037142e-09	-4.445025e+01	-2.657462e+02
5.100000e-07	-5.198692e-06	-4.049007e-09	-4.396575e+01	-2.648726e+02
5.200000e-07	-5.140218e-06	-4.013415e-09	-4.347122e+01	-2.639608e+02
5.300000e-07	-5.080772e-06	-3.969550e-09	-4.296849e+01	-2.630109e+02
5.400000e-07	-5.020523e-06	-3.963041e-09	-4.245896e+01	-2.620242e+02
5.500000e-07	-4.959511e-06	-3.995592e-09	-4.194297e+01	-2.610027e+02
5.600000e-07	-4.897755e-06	-3.982826e-09	-4.142070e+01	-2.599490e+02
5.700000e-07	-4.835198e-06	-3.908731e-09	-4.089164e+01	-2.588662e+02
5.800000e-07	-4.771851e-06	-3.880641e-09	-4.035592e+01	-2.577572e+02
5.900000e-07	-4.707783e-06	-3.923221e-09	-3.981409e+01	-2.566246e+02
6.000000e-07	-4.642739e-06	-3.922288e-09	-3.926401e+01	-2.554703e+02
6.100000e-07	-4.576484e-06	-3.846149e-09	-3.870368e+01	-2.542956e+02
6.200000e-07	-4.509290e-06	-3.815225e-09	-3.813541e+01	-2.531005e+02
6.300000e-07	-4.441484e-06	-3.845157e-09	-3.756198e+01	-2.518841e+02
6.400000e-07	-4.373018e-06	-3.837298e-09	-3.698295e+01	-2.506441e+02
6.500000e-07	-4.303715e-06	-3.784868e-09	-3.639685e+01	-2.493776e+02
6.600000e-07	-4.233612e-06	-3.754110e-09	-3.580398e+01	-2.480806e+02
6.700000e-07	-4.162870e-06	-3.755382e-09	-3.520571e+01	-2.467489e+02
6.800000e-07	-4.091535e-06	-3.750449e-09	-3.460242e+01	-2.453777e+02
6.900000e-07	-4.019480e-06	-3.726121e-09	-3.399306e+01	-2.439626e+02
7.000000e-07	-3.946380e-06	-3.688524e-09	-3.337484e+01	-2.424995e+02
7.100000e-07	-3.872187e-06	-3.654937e-09	-3.274739e+01	-2.409849e+02
7.200000e-07	-3.797212e-06	-3.645094e-09	-3.211331e+01	-2.394164e+02
7.300000e-07	-3.721596e-06	-3.636989e-09	-3.147383e+01	-2.377924e+02
7.400000e-07	-3.645293e-06	-3.594937e-09	-3.082853e+01	-2.361125e+02
7.500000e-07	-3.568272e-06	-3.545554e-09	-3.017715e+01	-2.343772e+02
7.600000e-07	-3.490496e-06	-3.533896e-09	-2.951940e+01	-2.325880e+02
7.700000e-07	-3.411961e-06	-3.531908e-09	-2.885522e+01	-2.307467e+02
7.800000e-07	-3.332688e-06	-3.493036e-09	-2.818480e+01	-2.288556e+02
7.900000e-07	-3.252659e-06	-3.438252e-09	-2.750799e+01	-2.269168e+02
8.000000e-07	-3.171989e-06	-3.414285e-09	-2.682576e+01	-2.249319e+02
8.100000e-07	-3.090843e-06	-3.408691e-09	-2.613950e+01	-2.229018e+02
8.200000e-07	-3.009286e-06	-3.375900e-09	-2.544976e+01	-2.208262e+02
8.300000e-07	-2.927237e-06	-3.322675e-09	-2.475587e+01	-2.187034e+02
8.400000e-07	-2.844669e-06	-3.287985e-09	-2.405758e+01	-2.165304e+02
8.500000e-07	-2.761773e-06	-3.271163e-09	-2.335653e+01	-2.143026e+02
8.600000e-07	-2.678627e-06	-3.244113e-09	-2.265335e+01	-2.120143e+02
8.700000e-07	-2.595124e-06	-3.200943e-09	-2.194716e+01	-2.096583e+02
8.800000e-07	-2.511206e-06	-3.154375e-09	-2.123746e+01	-2.072269e+02
8.900000e-07	-2.426943e-06	-3.114649e-09	-2.052484e+01	-2.047119e+02
9.000000e-07	-2.342388e-06	-3.081782e-09	-1.980975e+01	-2.021050e+02
9.100000e-07	-2.257488e-06	-3.041611e-09	-1.909175e+01	-1.993983e+02
9.200000e-07	-2.172270e-06	-2.986366e-09	-1.837106e+01	-1.965846e+02
9.300000e-07	-2.086691e-06	-2.935156e-09	-1.764731e+01	-1.936578e+02
9.400000e-07	-2.000721e-06	-2.900264e-09	-1.692026e+01	-1.906130e+02
9.500000e-07	-1.914430e-06	-2.862560e-09	-1.619048e+01	-1.874465e+02
9.600000e-07	-1.827812e-06	-2.806445e-09	-1.545795e+01	-1.841554e+02
9.700000e-07	-1.740941e-06	-2.746017e-09	-1.472327e+01	-1.807378e+02
9.800000e-07	-1.653847e-06	-2.698345e-09	-1.398671e+01	-1.771919e+02
9.900000e-07	-1.566462e-06	-2.652266e-09	-1.324769e+01	-1.735157e+02
1.000000e-06	-1.478802e-06	-2.590329e-09	-1.250635e+01	-1.697060e+02
1.010000e-06	-1.390964e-06	-2.522263e-09	-1.176349e+01	-1.657581e+02
1.020000e-06	-1.302866e-06	-2.462807e-09	-1.101844e+01	-1.616645e+02
1.030000e-06	-1.214381e-06	-2.404493e-09	-1.027012e+01	-1.574148e+02
1.040000e-06	-1.125577e-06	-2.337259e-09	-9.519090e+00	-1.529949e+02
1.050000e-06	-1.036493e-06	-2.263851e-09	-8.765703e+00	-1.483869e+02
1.060000e-06	-9.471114e-07	-2.188798e-09	-8.009794e+00	-1.435686e+02
1.070000e-06	-8.574452e-07	-2.112264e-09	-7.251481e+00	-1.385142e+02
1.080000e-06	-7.676052e-07	-2.032724e-09	-6.491697e+00	-1.331946e+02
1.090000e-06	-6.776577e-07	-1.948936e-09	-5.731004e+00	-1.275780e+02
1.100000e-06	-5.875621e-07	-1.858193e-09	-4.969058e+00	-1.216315e+02
1.110000e-06	-4.973280e-07	-1.761459e-09	-4.205941e+00	-1.153219e+02
1.120000e-06	-4.069942e-07	-1.662942e-09	-3.441981e+00	-1.086175e+02
1.130000e-06	-3.165752e-07	-1.557202e-09	-2.677301e+00	-1.014899e+02
1.140000e-06	-2.260935e-07	-1.440333e-09	-1.912090e+00	-9.391533e+01
1.150000e-06	-1.355783e-07	-1.320102e-09	-1.146596e+00	-8.587668e+01
1.160000e-06	-4.500121e-08	-1.198586e-09	-3.805787e-01	-7.736484e+01
1.170000e-06	4.560459e-08	-1.066446e-09	3.856815e-01	-6.837999e+01
1.180000e-06	1.361653e-07	-9.219306e-10	1.151560e+00	-5.893263e+01
1.190000e-06	2.266973e-07	-7.720885e-10	1.917197e+00	-4.904418e+01
1.200000e-06	3.171313e-07	-6.175569e-10	2.682004e+00	-3.874712e+01
1.210000e-06	4.074672e-07	-4.551805e-10	3.445982e+00	-2.808475e+01
1.220000e-06	4.977212e-07	-2.864527e-10	4.209267e+00	-1.711046e+01
1.230000e-06	5.877935e-07	-1.157300e-10	4.971015e+00	-5.886535e+00
1.240000e-06	6.776865e-07	5.539230e-11	5.731247e+00	5.517371e+00
1.250000e-06	7.673850e-07	2.277168e-10	6.489835e+00	1.702614e+01
1.260000e-06	8.569003e-07	4.030094e-10	7.246872e+00	2.856133e+01
1.270000e-06	9.461877e-07	5.795037e-10	8.001983e+00	4.004341e+01
1.280000e-06	1.035227e-06	7.542723e-10	8.754997e+00	5.139413e+01
1.290000e-06	1.124066e-06	9.236095e-10	9.506316e+00	6.253875e+01
1.300000e-06	1.212588e-06	1.088728e-09	1.025495e+01	7.340814e+01
1.310000e-06	1.300754e-06	1.252713e-09	1.100058e+01	8.394058e+01
1.320000e-06	1.388634e-06	1.409812e-09	1.174378e+01	9.408332e+01
1.330000e-06	1.476279e-06	1.554462e-09	1.248501e+01	1.037936e+02
1.340000e-06	1.563684e-06	1.691768e-09	1.322420e+01	1.130394e+02
1.350000e-06	1.650891e-06	1.825266e-09	1.396171e+01	1.217996e+02
1.360000e-06	1.737934e-06	1.949802e-09	1.469784e+01	1.300638e+02
1.370000e-06	1.824761e-06	2.062333e-09	1.543215e+01	1.378316e+02
1.380000e-06	1.911346e-06	2.167138e-09	1.616440e+01	1.451118e+02
1.390000e-06	1.997647e-06	2.267828e-09	1.689426e+01	1.519209e+02
1.400000e-06	2.083618e-06	2.362634e-09	1.762132e+01	1.582819e+02
1.410000e-06	2.169247e-06	2.453544e-09	1.834549e+01	1.642226e+02
1.420000e-06	2.254536e-06	2.539919e-09	1.906679e+01	1.697737e+02
1.430000e-06	2.339471e-06	2.619058e-09	1.978509e+01	1.749678e+02
1.440000e-06	2.424059e-06	2.693063e-09	2.050046e+01	1.798374e+02
1.450000e-06	2.508295e-06	2.762535e-09	2.121285e+01	1.844140e+02
1.460000e-06	2.592123e-06	2.826443e-09	2.192179e+01	1.887270e+02
1.470000e-06	2.675534e-06	2.886576e-09	2.262720e+01	1.928028e+02
1.480000e-06	2.758604e-06	2.944576e-09	2.332973e+01	1.966645e+02
1.490000e-06	2.841291e-06	3.001391e-09	2.402902e+01	2.003318e+02
1.500000e-06	2.923550e-06	3.053670e-09	2.472469e+01	2.038206e+02
1.510000e-06	3.005274e-06	3.100567e-09	2.541584e+01	2.071439e+02
1.520000e-06	3.086355e-06	3.146071e-09	2.610154e+01	2.103116e+02
1.530000e-06	3.166882e-06	3.190652e-09	2.678257e+01	2.133315e+02
1.540000e-06	3.246891e-06	3.231843e-09	2.745921e+01	2.162099e+02
1.550000e-06	3.326217e-06	3.268140e-09	2.813008e+01	2.189518e+02
1.560000e-06	3.404795e-06	3.302558e-09	2.879461e+01	2.215620e+02
1.570000e-06	3.482726e-06	3.336597e-09	2.945368e+01	2.240453e+02
1.580000e-06	3.560016e-06	3.370674e-09	3.010733e+01	2.264070e+02
1.590000e-06	3.636602e-06	3.404109e-09	3.075503e+01	2.286530e+02
1.600000e-06	3.712468e-06	3.434993e-09	3.139663e+01	2.307902e+02
1.610000e-06	3.787657e-06	3.464989e-09	3.203251e+01	2.328262e+02
1.620000e-06	3.862084e-06	3.493826e-09	3.266194e+01	2.347693e+02
1.630000e-06	3.935553e-06	3.521181e-09	3.328328e+01	2.366283e+02
1.640000e-06	4.008045e-06	3.547089e-09	3.389635e+01	2.384119e+02
1.650000e-06	4.079740e-06	3.570582e-09	3.450268e+01	2.401290e+02
1.660000e-06	4.150841e-06	3.594198e-09	3.510398e+01	2.417876e+02
1.670000e-06	4.221319e-06	3.618251e-09	3.570002e+01	2.433950e+02
1.680000e-06	4.290986e-06	3.641835e-09	3.628920e+01	2.449575e+02
1.690000e-06	4.359849e-06	3.663234e-09	3.687158e+01	2.464797e+02
1.700000e-06	4.428067e-06	3.684610e-09	3.744851e+01	2.479653e+02
1.710000e-06	4.495752e-06	3.708277e-09	3.802092e+01	2.494162e+02
1.720000e-06	4.562749e-06	3.730807e-09	3.858752e+01	2.508333e+02
1.730000e-06	4.628737e-06	3.749576e-09	3.914559e+01	2.522163e+02
1.740000e-06	4.693638e-06	3.765766e-09	3.969446e+01	2.535638e+02
1.750000e-06	4.757660e-06	3.783121e-09	4.023590e+01	2.548740e+02
1.760000e-06	4.821014e-06	3.801527e-09	4.077169e+01	2.561447e+02
1.770000e-06	4.883687e-06	3.819566e-09	4.130172e+01	2.573737e+02
1.780000e-06	4.945566e-06	3.836905e-09	4.182504e+01	2.585590e+02
1.790000e-06	5.006604e-06	3.854069e-09	4.234124e+01	2.596991e+02
1.800000e-06	5.066884e-06	3.872175e-09	4.285103e+01	2.607932e+02
1.810000e-06	5.126459e-06	3.889319e-09	4.335486e+01	2.618412e+02
1.820000e-06	5.185182e-06	3.903240e-09	4.385148e+01	2.628436e+02
1.830000e-06	5.242772e-06	3.916767e-09	4.433853e+01	2.638020e+02
1.840000e-06	5.299201e-06	3.931191e-09	4.481575e+01	2.647183e+02
1.850000e-06	5.354719e-06	3.945376e-09	4.528527e+01	2.655952e+02
1.860000e-06	5.409379e-06	3.958242e-09	4.574754e+01	2.664355e+02
1.870000e-06	5.463122e-06	3.970883e-09	4.620205e+01	2.672422e+02
1.880000e-06	5.515920e-06	3.984463e-09	4.664857e+01	2.680185e+02
1.890000e-06	5.567607e-06	3.997704e-09	4.708568e+01	2.687670e+02
1.900000e-06	5.617984e-06	4.010283e-09	4.751173e+01	2.694902e+02
1.910000e-06	5.666962e-06	4.022194e-09	4.792594e+01	2.701901e+02
1.920000e-06	5.714739e-06	4.032949e-09	4.832999e+01	2.708683e+02
1.930000e-06	5.761550e-06	4.041520e-09	4.872587e+01	2.715257e+02
1.940000e-06	5.807394e-06	4.049788e-09	4.911358e+01	2.721629e+02
1.950000e-06	5.852251e-06	4.058566e-09	4.949294e+01	2.727802e+02
1.960000e-06	5.896193e-06	4.066676e-09	4.986456e+01	2.733773e+02
1.970000e-06	5.939264e-06	4.074831e-09	5.022882e+01	2.739541e+02
1.980000e-06	5.981154e-06	4.083701e-09	5.058308e+01	2.745102e+02
1.990000e-06	6.021694e-06	4.092475e-09	5.092594e+01	2.750454e+02
2.000000e-06	6.061149e-06	4.100777e-09	5.125961e+01	2.755596e+02
2.010000e-06	6.099631e-06	4.109837e-09	5.158505e+01	2.760529e+02
2.020000e-06	6.137071e-06	4.118220e-09	5.190169e+01	2.765257e+02
2.030000e-06	6.173522e-06	4.126570e-09	5.220995e+01	2.769787e+02
2.040000e-06	6.209101e-06	4.133795e-09	5.251085e+01	2.774128e+02
2.050000e-06	6.243617e-06	4.140316e-09	5.280275e+01	2.778290e+02
2.060000e-06	6.276733e-06	4.146778e-09	5.308282e+01	2.782283e+02
2.070000e-06	6.308633e-06	4.152057e-09	5.335260e+01	2.786121e+02
2.080000e-06	6.339568e-06	4.157657e-09	5.361422e+01	2.789813e+02
2.090000e-06	6.369492e-06	4.163933e-09	5.386729e+01	2.793367e+02
2.100000e-06	6.398377e-06	4.171283e-09	5.411157e+01	2.796792e+02
2.110000e-06	6.426300e-06	4.176708e-09	5.434772e+01	2.800090e+02
2.120000e-06	6.453231e-06	4.180316e-09	5.457547e+01	2.803262e+02
2.130000e-06	6.478852e-06	4.184267e-09	5.479215e+01	2.806308e+02
2.140000e-06	6.503100e-06	4.189433e-09	5.499722e+01	2.809223e+02
2.150000e-06	6.526249e-06	4.193312e-09	5.519299e+01	2.812002e+02
2.160000e-06	6.548370e-06	4.196198e-09	5.538008e+01	2.814639e+02
2.170000e-06	6.569403e-06	4.199245e-09	5.555795e+01	2.817126e+02
2.180000e-06	6.589387e-06	4.202056e-09	5.572696e+01	2.819459e+02
2.190000e-06	6.608434e-06	4.207818e-09	5.588804e+01	2.821634e+02
2.200000e-06	6.626423e-06	4.212639e-09	5.604017e+01	2.823647e+02
2.210000e-06	6.643159e-06	4.215150e-09	5.618171e+01	2.825499e+02
2.220000e-06	6.658663e-06	4.218760e-09	5.631283e+01	2.827192e+02
2.230000e-06	6.672829e-06	4.222880e-09	5.643263e+01	2.828731e+02
2.240000e-06	6.685723e-06	4.224192e-09	5.654168e+01	2.830120e+02
2.250000e-06	6.697406e-06	4.225015e-09	5.664048e+01	2.831366e+02
2.260000e-06	6.707612e-06	4.228536e-09	5.672680e+01	2.832477e+02
2.270000e-06	6.716305e-06	4.230687e-09	5.680031e+01	2.833459e+02
2.280000e-06	6.723770e-06	4.230679e-09	5.686344e+01	2.834315e+02
2.290000e-06	6.730137e-06	4.230847e-09	5.691729e+01	2.835049e+02
2.300000e-06	6.735307e-06	4.232394e-09	5.696102e+01	2.835662e+02
2.310000e-06	6.739416e-06	4.234478e-09	5.699577e+01	2.836151e+02
2.320000e-06	6.742555e-06	4.236611e-09	5.702231e+01	2.836513e+02
2.330000e-06	6.744402e-06	4.239042e-09	5.703793e+01	2.836743e+02
2.340000e-06	6.744824e-06	4.241462e-09	5.704150e+01	2.836835e+02
2.350000e-06	6.744038e-06	4.243648e-09	5.703485e+01	2.836785e+02
2.360000e-06	6.742171e-06	4.242100e-09	5.701906e+01	2.836589e+02
2.370000e-06	6.739255e-06	4.238325e-09	5.699440e+01	2.836246e+02
2.380000e-06	6.735356e-06	4.236126e-09	5.696143e+01	2.835761e+02
2.390000e-06	6.730506e-06	4.238257e-09	5.692041e+01	2.835141e+02
2.400000e-06	6.724361e-06	4.240072e-09	5.686844e+01	2.834399e+02
2.410000e-06	6.716860e-06	4.245143e-09	5.680501e+01	2.833553e+02
2.420000e-06	6.708424e-06	4.278871e-09	5.673366e+01	2.832625e+02
2.430000e-06	6.699065e-06	4.227097e-09	5.665452e+01	2.831642e+02
2.440000e-06	6.688408e-06	4.112241e-09	5.656439e+01	2.830631e+02
2.450000e-06	6.675830e-06	4.099284e-09	5.645801e+01	2.829619e+02
2.460000e-06	6.661115e-06	4.185336e-09	5.633356e+01	2.828631e+02
2.470000e-06	6.645104e-06	4.445483e-09	5.619816e+01	2.827689e+02
2.480000e-06	6.628714e-06	4.360171e-09	5.605955e+01	2.826807e+02
2.490000e-06	6.611740e-06	4.030817e-09	5.591600e+01	2.825990e+02
2.500000e-06	6.593295e-06	4.220956e-09	5.576001e+01	2.825234e+02
2.510000e-06	6.573686e-06	4.266931e-09	5.559417e+01	2.824525e+02
2.520000e-06	6.553571e-06	4.249393e-09	5.542406e+01	2.823834e+02
2.530000e-06	6.532028e-06	4.469420e-09	5.524187e+01	2.823126e+02
2.540000e-06	6.508672e-06	4.165745e-09	5.504434e+01	2.822352e+02
2.550000e-06	6.484387e-06	4.057119e-09	5.483896e+01	2.821458e+02
2.560000e-06	6.459307e-06	4.513362e-09	5.462686e+01	2.820383e+02
2.570000e-06	6.433181e-06	4.377580e-09	5.440591e+01	2.819067e+02
2.580000e-06	6.405932e-06	4.138487e-09	5.417546e+01	2.817449e+02
2.590000e-06	6.377695e-06	4.417629e-09	5.393666e+01	2.815472e+02
2.600000e-06	6.348653e-06	4.484198e-09	5.369105e+01	2.813088e+02
2.610000e-06	6.318228e-06	4.492440e-09	5.343374e+01	2.810262e+02
2.620000e-06	6.286209e-06	4.367046e-09	5.316295e+01	2.806967e+02
2.630000e-06	6.253152e-06	4.220374e-09	5.288339e+01	2.803196e+02
2.640000e-06	6.219025e-06	4.469608e-09	5.259478e+01	2.798953e+02
2.650000e-06	6.183653e-06	4.403755e-09	5.229564e+01	2.794258e+02
2.660000e-06	6.147401e-06	4.321311e-09	5.198905e+01	2.789146e+02
2.670000e-06	6.110148e-06	4.412980e-09	5.167400e+01	2.783661e+02
2.680000e-06	6.071339e-06	4.246854e-09	5.134578e+01	2.777855e+02
2.690000e-06	6.031208e-06	4.299986e-09	5.100639e+01	2.771785e+02
2.700000e-06	5.990314e-06	4.432729e-09	5.066055e+01	2.765511e+02
2.710000e-06	5.948368e-06	4.342493e-09	5.030581e+01	2.759087e+02
2.720000e-06	5.905108e-06	4.175959e-09	4.993995e+01	2.752562e+02
2.730000e-06	5.860993e-06	4.227919e-09	4.956687e+01	2.745974e+02
2.740000e-06	5.816163e-06	4.447473e-09	4.918774e+01	2.739352e+02
2.750000e-06	5.770263e-06	4.262997e-09	4.879956e+01	2.732707e+02
2.760000e-06	5.723220e-06	4.122113e-09	4.840172e+01	2.726040e+02
2.770000e-06	5.675298e-06	4.260462e-09	4.799644e+01	2.719335e+02
2.780000e-06	5.626394e-06	4.290425e-09	4.758285e+01	2.712566e+02
2.790000e-06	5.576205e-06	4.234015e-09	4.715840e+01	2.705696e+02
2.800000e-06	5.524958e-06	4.137780e-09	4.672500e+01	2.698680e+02
2.810000e-06	5.472844e-06	4.202203e-09	4.628427e+01	2.691470e+02
2.820000e-06	5.419530e-06	4.221530e-09	4.583339e+01	2.684019e+02
2.830000e-06	5.364814e-06	4.141335e-09	4.537064e+01	2.676281e+02
2.840000e-06	5.308981e-06	4.164094e-09	4.489847e+01	2.668218e+02
2.850000e-06	5.252390e-06	4.141655e-09	4.441987e+01	2.659800e+02
2.860000e-06	5.194973e-06	4.122062e-09	4.393429e+01	2.651006e+02
2.870000e-06	5.136651e-06	4.109906e-09	4.344106e+01	2.641831e+02
2.880000e-06	5.077546e-06	4.122094e-09	4.294120e+01	2.632276e+02
2.890000e-06	5.017713e-06	4.085104e-09	4.243519e+01	2.622355e+02
2.900000e-06	4.957159e-06	4.023029e-09	4.192308e+01	2.612089e+02
2.910000e-06	4.895655e-06	4.076144e-09	4.140293e+01	2.601507e+02
2.920000e-06	4.833070e-06	4.067753e-09	4.087365e+01	2.590638e+02
2.930000e-06	4.769494e-06	3.991167e-09	4.033598e+01	2.579510e+02
2.940000e-06	4.705060e-06	3.967223e-09	3.979105e+01	2.568150e+02
2.950000e-06	4.639918e-06	4.014152e-09	3.924015e+01	2.556577e+02
