# Temperatura_=_20.0
# Concentracion g/m^3_=_9000.0
# C_Vs_to_Am_M_A/Vsm_=_65563218390.804596
# pendiente_HvsI_1/m_=_3716.3
# ordenada_HvsI_A/m_=_1297.0
# frecuencia_Hz_=_212907.89960673975

Tiempo_(s)	Campo_(V.s)	Magnetizacion_(V.s)	Campo_(kA/m)	Magnetizacion_(A/m)
0.000000e+00	-6.720912e-06	-4.365468e-09	-5.696135e+01	-2.860614e+02
1.000000e-08	-6.719547e-06	-4.364761e-09	-5.694979e+01	-2.860019e+02
2.000000e-08	-6.716726e-06	-4.364474e-09	-5.692588e+01	-2.859205e+02
3.000000e-08	-6.712879e-06	-4.364025e-09	-5.689328e+01	-2.858191e+02
4.000000e-08	-6.708085e-06	-4.363933e-09	-5.685264e+01	-2.857004e+02
5.000000e-08	-6.702145e-06	-4.361340e-09	-5.680231e+01	-2.855683e+02
6.000000e-08	-6.695152e-06	-4.357301e-09	-5.674303e+01	-2.854280e+02
7.000000e-08	-6.687282e-06	-4.345038e-09	-5.667634e+01	-2.852848e+02
8.000000e-08	-6.678189e-06	-4.333219e-09	-5.659927e+01	-2.851451e+02
9.000000e-08	-6.667393e-06	-4.388998e-09	-5.650777e+01	-2.850149e+02
1.000000e-07	-6.654945e-06	-4.439731e-09	-5.640227e+01	-2.849004e+02
1.100000e-07	-6.641017e-06	-4.427328e-09	-5.628423e+01	-2.848066e+02
1.200000e-07	-6.625541e-06	-4.334983e-09	-5.615306e+01	-2.847378e+02
1.300000e-07	-6.608800e-06	-4.169379e-09	-5.601118e+01	-2.846965e+02
1.400000e-07	-6.591240e-06	-4.305347e-09	-5.586236e+01	-2.846838e+02
1.500000e-07	-6.572771e-06	-4.496566e-09	-5.570583e+01	-2.846984e+02
1.600000e-07	-6.553457e-06	-4.332284e-09	-5.554213e+01	-2.847371e+02
1.700000e-07	-6.533280e-06	-4.283412e-09	-5.537113e+01	-2.847948e+02
1.800000e-07	-6.511797e-06	-4.271668e-09	-5.518905e+01	-2.848641e+02
1.900000e-07	-6.489303e-06	-4.232602e-09	-5.499841e+01	-2.849364e+02
2.000000e-07	-6.466137e-06	-4.469288e-09	-5.480207e+01	-2.850015e+02
2.100000e-07	-6.441642e-06	-4.422258e-09	-5.459448e+01	-2.850486e+02
2.200000e-07	-6.415579e-06	-4.146864e-09	-5.437358e+01	-2.850668e+02
2.300000e-07	-6.388434e-06	-4.308797e-09	-5.414352e+01	-2.850453e+02
2.400000e-07	-6.360359e-06	-4.485880e-09	-5.390558e+01	-2.849745e+02
2.500000e-07	-6.331187e-06	-4.357682e-09	-5.365834e+01	-2.848460e+02
2.600000e-07	-6.300887e-06	-4.234500e-09	-5.340155e+01	-2.846535e+02
2.700000e-07	-6.269592e-06	-4.204414e-09	-5.313631e+01	-2.843929e+02
2.800000e-07	-6.237293e-06	-4.327665e-09	-5.286257e+01	-2.840623e+02
2.900000e-07	-6.203751e-06	-4.397674e-09	-5.257829e+01	-2.836627e+02
3.000000e-07	-6.168849e-06	-4.256780e-09	-5.228249e+01	-2.831970e+02
3.100000e-07	-6.132752e-06	-4.192901e-09	-5.197656e+01	-2.826706e+02
3.200000e-07	-6.095503e-06	-4.250200e-09	-5.166086e+01	-2.820905e+02
3.300000e-07	-6.057093e-06	-4.292350e-09	-5.133533e+01	-2.814649e+02
3.400000e-07	-6.017767e-06	-4.292438e-09	-5.100203e+01	-2.808030e+02
3.500000e-07	-5.977465e-06	-4.232000e-09	-5.066046e+01	-2.801138e+02
3.600000e-07	-5.935868e-06	-4.151686e-09	-5.030792e+01	-2.794061e+02
3.700000e-07	-5.893041e-06	-4.207980e-09	-4.994495e+01	-2.786875e+02
3.800000e-07	-5.849191e-06	-4.322635e-09	-4.957332e+01	-2.779643e+02
3.900000e-07	-5.804243e-06	-4.208359e-09	-4.919237e+01	-2.772411e+02
4.000000e-07	-5.758150e-06	-4.082352e-09	-4.880172e+01	-2.765201e+02
4.100000e-07	-5.711180e-06	-4.188860e-09	-4.840364e+01	-2.758018e+02
4.200000e-07	-5.663235e-06	-4.258484e-09	-4.799729e+01	-2.750846e+02
4.300000e-07	-5.613988e-06	-4.163283e-09	-4.757991e+01	-2.743650e+02
4.400000e-07	-5.563418e-06	-4.096985e-09	-4.715132e+01	-2.736383e+02
4.500000e-07	-5.511616e-06	-4.135910e-09	-4.671228e+01	-2.728985e+02
4.600000e-07	-5.458826e-06	-4.160325e-09	-4.626487e+01	-2.721393e+02
4.700000e-07	-5.405150e-06	-4.130762e-09	-4.580995e+01	-2.713544e+02
4.800000e-07	-5.350566e-06	-4.095121e-09	-4.534735e+01	-2.705380e+02
4.900000e-07	-5.295141e-06	-4.067274e-09	-4.487761e+01	-2.696851e+02
5.000000e-07	-5.238789e-06	-4.077197e-09	-4.440001e+01	-2.687921e+02
5.100000e-07	-5.181475e-06	-4.092937e-09	-4.391426e+01	-2.678569e+02
5.200000e-07	-5.123127e-06	-4.060168e-09	-4.341974e+01	-2.668792e+02
5.300000e-07	-5.063735e-06	-4.013518e-09	-4.291638e+01	-2.658599e+02
5.400000e-07	-5.003518e-06	-4.006918e-09	-4.240603e+01	-2.648018e+02
5.500000e-07	-4.942597e-06	-4.030230e-09	-4.188971e+01	-2.637085e+02
5.600000e-07	-4.880945e-06	-4.013732e-09	-4.136719e+01	-2.625846e+02
5.700000e-07	-4.818497e-06	-3.952921e-09	-4.083793e+01	-2.614348e+02
5.800000e-07	-4.755181e-06	-3.927369e-09	-4.030131e+01	-2.602638e+02
5.900000e-07	-4.690970e-06	-3.954574e-09	-3.975711e+01	-2.590758e+02
6.000000e-07	-4.625888e-06	-3.947562e-09	-3.920552e+01	-2.578736e+02
6.100000e-07	-4.559908e-06	-3.888354e-09	-3.864633e+01	-2.566592e+02
6.200000e-07	-4.492980e-06	-3.861668e-09	-3.807910e+01	-2.554326e+02
6.300000e-07	-4.425188e-06	-3.873427e-09	-3.750454e+01	-2.541923e+02
6.400000e-07	-4.356722e-06	-3.858521e-09	-3.692427e+01	-2.529352e+02
6.500000e-07	-4.287506e-06	-3.817894e-09	-3.633765e+01	-2.516567e+02
6.600000e-07	-4.217454e-06	-3.794290e-09	-3.574394e+01	-2.503512e+02
6.700000e-07	-4.146710e-06	-3.785956e-09	-3.514438e+01	-2.490120e+02
6.800000e-07	-4.075392e-06	-3.771794e-09	-3.453994e+01	-2.476325e+02
6.900000e-07	-4.003287e-06	-3.750301e-09	-3.392882e+01	-2.462057e+02
7.000000e-07	-3.930136e-06	-3.720220e-09	-3.330886e+01	-2.447257e+02
7.100000e-07	-3.856125e-06	-3.689242e-09	-3.268159e+01	-2.431872e+02
7.200000e-07	-3.781421e-06	-3.673968e-09	-3.204846e+01	-2.415865e+02
7.300000e-07	-3.705991e-06	-3.658938e-09	-3.140917e+01	-2.399214e+02
7.400000e-07	-3.629756e-06	-3.619138e-09	-3.076307e+01	-2.381911e+02
7.500000e-07	-3.552715e-06	-3.576514e-09	-3.011012e+01	-2.363966e+02
7.600000e-07	-3.474891e-06	-3.560739e-09	-2.945055e+01	-2.345401e+02
7.700000e-07	-3.396452e-06	-3.547238e-09	-2.878575e+01	-2.326251e+02
7.800000e-07	-3.317428e-06	-3.506825e-09	-2.811601e+01	-2.306554e+02
7.900000e-07	-3.237649e-06	-3.460493e-09	-2.743986e+01	-2.286353e+02
8.000000e-07	-3.157182e-06	-3.438092e-09	-2.675788e+01	-2.265686e+02
8.100000e-07	-3.076164e-06	-3.423349e-09	-2.607123e+01	-2.244583e+02
8.200000e-07	-2.994656e-06	-3.385598e-09	-2.538044e+01	-2.223063e+02
8.300000e-07	-2.912670e-06	-3.337611e-09	-2.468559e+01	-2.201126e+02
8.400000e-07	-2.830260e-06	-3.304353e-09	-2.398714e+01	-2.178757e+02
8.500000e-07	-2.747493e-06	-3.280184e-09	-2.328567e+01	-2.155920e+02
8.600000e-07	-2.664400e-06	-3.247500e-09	-2.258143e+01	-2.132561e+02
8.700000e-07	-2.580945e-06	-3.203827e-09	-2.187413e+01	-2.108610e+02
8.800000e-07	-2.497069e-06	-3.157939e-09	-2.116327e+01	-2.083984e+02
8.900000e-07	-2.412796e-06	-3.118028e-09	-2.044903e+01	-2.058589e+02
9.000000e-07	-2.328283e-06	-3.082910e-09	-1.973277e+01	-2.032331e+02
9.100000e-07	-2.243552e-06	-3.039853e-09	-1.901465e+01	-2.005111e+02
9.200000e-07	-2.158467e-06	-2.984449e-09	-1.829353e+01	-1.976841e+02
9.300000e-07	-2.072962e-06	-2.933960e-09	-1.756886e+01	-1.947438e+02
9.400000e-07	-1.987104e-06	-2.896434e-09	-1.684119e+01	-1.916835e+02
9.500000e-07	-1.900924e-06	-2.854501e-09	-1.611079e+01	-1.884975e+02
9.600000e-07	-1.814368e-06	-2.798275e-09	-1.537721e+01	-1.851815e+02
9.700000e-07	-1.727544e-06	-2.739349e-09	-1.464136e+01	-1.817322e+02
9.800000e-07	-1.640514e-06	-2.690273e-09	-1.390375e+01	-1.781470e+02
9.900000e-07	-1.553269e-06	-2.641508e-09	-1.316433e+01	-1.744232e+02
1.000000e-06	-1.465787e-06	-2.580302e-09	-1.242290e+01	-1.705575e+02
1.010000e-06	-1.377977e-06	-2.513322e-09	-1.167869e+01	-1.665453e+02
1.020000e-06	-1.289858e-06	-2.449418e-09	-1.093186e+01	-1.623799e+02
1.030000e-06	-1.201431e-06	-2.387719e-09	-1.018242e+01	-1.580515e+02
1.040000e-06	-1.112725e-06	-2.321405e-09	-9.430616e+00	-1.535472e+02
1.050000e-06	-1.023796e-06	-2.247462e-09	-8.676918e+00	-1.488501e+02
1.060000e-06	-9.346406e-07	-2.168347e-09	-7.921305e+00	-1.439396e+02
1.070000e-06	-8.452317e-07	-2.088688e-09	-7.163543e+00	-1.387912e+02
1.080000e-06	-7.556071e-07	-2.009480e-09	-6.403954e+00	-1.333770e+02
1.090000e-06	-6.658460e-07	-1.924846e-09	-5.643206e+00	-1.276666e+02
1.100000e-06	-5.760094e-07	-1.832151e-09	-4.881819e+00	-1.216281e+02
1.110000e-06	-4.860861e-07	-1.734525e-09	-4.119698e+00	-1.152293e+02
1.120000e-06	-3.960263e-07	-1.634629e-09	-3.356419e+00	-1.084396e+02
1.130000e-06	-3.058971e-07	-1.527093e-09	-2.592552e+00	-1.012311e+02
1.140000e-06	-2.157004e-07	-1.409549e-09	-1.828113e+00	-9.358060e+01
1.150000e-06	-1.254577e-07	-1.287273e-09	-1.063284e+00	-8.547144e+01
1.160000e-06	-3.521283e-08	-1.161070e-09	-2.984373e-01	-7.689474e+01
1.170000e-06	5.499255e-08	-1.026189e-09	4.660752e-01	-6.785082e+01
1.180000e-06	1.451445e-07	-8.811591e-10	1.230135e+00	-5.835018e+01
1.190000e-06	2.353172e-07	-7.287938e-10	1.994370e+00	-4.841414e+01
1.200000e-06	3.254551e-07	-5.707826e-10	2.758311e+00	-3.807502e+01
1.210000e-06	4.154674e-07	-4.082068e-10	3.521187e+00	-2.737584e+01
1.220000e-06	5.053515e-07	-2.403498e-10	4.282976e+00	-1.636964e+01
1.230000e-06	5.951048e-07	-6.963602e-11	5.043658e+00	-5.118280e+00
1.240000e-06	6.846909e-07	1.022664e-10	5.802921e+00	6.309070e+00
1.250000e-06	7.740824e-07	2.762457e-10	6.560536e+00	1.783784e+01
1.260000e-06	8.632811e-07	4.528667e-10	7.316517e+00	2.939017e+01
1.270000e-06	9.522746e-07	6.288335e-10	8.070758e+00	4.088716e+01
1.280000e-06	1.041054e-06	8.023256e-10	8.823188e+00	5.225118e+01
1.290000e-06	1.129616e-06	9.730640e-10	9.573771e+00	6.340811e+01
1.300000e-06	1.217936e-06	1.140918e-09	1.032230e+01	7.428940e+01
1.310000e-06	1.305955e-06	1.305804e-09	1.106829e+01	8.483387e+01
1.320000e-06	1.393695e-06	1.462067e-09	1.181190e+01	9.498919e+01
1.330000e-06	1.481224e-06	1.606131e-09	1.255373e+01	1.047130e+02
1.340000e-06	1.568564e-06	1.743543e-09	1.329396e+01	1.139733e+02
1.350000e-06	1.655685e-06	1.877343e-09	1.403233e+01	1.227493e+02
1.360000e-06	1.742541e-06	2.001830e-09	1.476845e+01	1.310303e+02
1.370000e-06	1.829213e-06	2.114880e-09	1.550303e+01	1.388159e+02
1.380000e-06	1.915696e-06	2.221013e-09	1.623599e+01	1.461145e+02
1.390000e-06	2.001838e-06	2.322542e-09	1.696606e+01	1.529423e+02
1.400000e-06	2.087582e-06	2.417630e-09	1.769276e+01	1.593220e+02
1.410000e-06	2.172991e-06	2.507424e-09	1.841663e+01	1.652807e+02
1.420000e-06	2.258100e-06	2.591938e-09	1.913795e+01	1.708491e+02
1.430000e-06	2.342849e-06	2.670300e-09	1.985621e+01	1.760592e+02
1.440000e-06	2.427232e-06	2.744212e-09	2.057138e+01	1.809436e+02
1.450000e-06	2.511251e-06	2.814739e-09	2.128346e+01	1.855337e+02
1.460000e-06	2.594929e-06	2.880625e-09	2.199265e+01	1.898590e+02
1.470000e-06	2.678242e-06	2.942104e-09	2.269875e+01	1.939464e+02
1.480000e-06	2.761112e-06	3.001674e-09	2.340110e+01	1.978195e+02
1.490000e-06	2.843503e-06	3.058534e-09	2.409938e+01	2.014985e+02
1.500000e-06	2.925404e-06	3.110890e-09	2.479350e+01	2.050003e+02
1.510000e-06	3.006753e-06	3.160598e-09	2.548296e+01	2.083384e+02
1.520000e-06	3.087514e-06	3.207433e-09	2.616743e+01	2.115238e+02
1.530000e-06	3.167781e-06	3.252393e-09	2.684771e+01	2.145651e+02
1.540000e-06	3.247492e-06	3.294679e-09	2.752328e+01	2.174689e+02
1.550000e-06	3.326552e-06	3.332215e-09	2.819333e+01	2.202408e+02
1.560000e-06	3.404914e-06	3.366990e-09	2.885747e+01	2.228858e+02
1.570000e-06	3.482535e-06	3.401409e-09	2.951533e+01	2.254086e+02
1.580000e-06	3.559493e-06	3.436622e-09	3.016757e+01	2.278141e+02
1.590000e-06	3.635845e-06	3.471212e-09	3.081467e+01	2.301075e+02
1.600000e-06	3.711542e-06	3.503121e-09	3.145622e+01	2.322947e+02
1.610000e-06	3.786519e-06	3.533178e-09	3.209167e+01	2.343822e+02
1.620000e-06	3.860595e-06	3.563473e-09	3.271948e+01	2.363769e+02
1.630000e-06	3.933699e-06	3.591943e-09	3.333905e+01	2.382862e+02
1.640000e-06	4.005967e-06	3.617884e-09	3.395154e+01	2.401176e+02
1.650000e-06	4.077464e-06	3.642872e-09	3.455749e+01	2.418784e+02
1.660000e-06	4.148308e-06	3.667824e-09	3.515792e+01	2.435757e+02
1.670000e-06	4.218540e-06	3.691403e-09	3.575315e+01	2.452158e+02
1.680000e-06	4.288003e-06	3.713893e-09	3.634187e+01	2.468044e+02
1.690000e-06	4.356688e-06	3.736296e-09	3.692399e+01	2.483461e+02
1.700000e-06	4.424740e-06	3.758438e-09	3.750074e+01	2.498447e+02
1.710000e-06	4.492232e-06	3.779924e-09	3.807276e+01	2.513028e+02
1.720000e-06	4.558981e-06	3.800698e-09	3.863847e+01	2.527222e+02
1.730000e-06	4.624695e-06	3.820034e-09	3.919541e+01	2.541036e+02
1.740000e-06	4.689349e-06	3.837323e-09	3.974337e+01	2.554474e+02
1.750000e-06	4.753184e-06	3.855362e-09	4.028438e+01	2.567531e+02
1.760000e-06	4.816342e-06	3.874239e-09	4.081967e+01	2.580203e+02
1.770000e-06	4.878782e-06	3.892046e-09	4.134886e+01	2.592482e+02
1.780000e-06	4.940427e-06	3.908723e-09	4.187131e+01	2.604361e+02
1.790000e-06	5.001260e-06	3.925963e-09	4.238689e+01	2.615837e+02
1.800000e-06	5.061394e-06	3.943496e-09	4.289654e+01	2.626907e+02
1.810000e-06	5.120883e-06	3.960087e-09	4.340072e+01	2.637575e+02
1.820000e-06	5.179422e-06	3.975228e-09	4.389686e+01	2.647847e+02
1.830000e-06	5.236660e-06	3.989013e-09	4.438196e+01	2.657732e+02
1.840000e-06	5.292753e-06	4.003835e-09	4.485736e+01	2.667243e+02
1.850000e-06	5.347989e-06	4.019078e-09	4.532551e+01	2.676396e+02
1.860000e-06	5.402434e-06	4.031704e-09	4.578693e+01	2.685206e+02
1.870000e-06	5.455991e-06	4.043393e-09	4.624085e+01	2.693691e+02
1.880000e-06	5.508545e-06	4.057466e-09	4.668625e+01	2.701867e+02
1.890000e-06	5.559978e-06	4.072768e-09	4.712216e+01	2.709750e+02
1.900000e-06	5.610116e-06	4.086918e-09	4.754710e+01	2.717354e+02
1.910000e-06	5.658909e-06	4.098806e-09	4.796062e+01	2.724691e+02
1.920000e-06	5.706562e-06	4.109953e-09	4.836450e+01	2.731772e+02
1.930000e-06	5.753238e-06	4.120316e-09	4.876008e+01	2.738607e+02
1.940000e-06	5.798951e-06	4.129670e-09	4.914751e+01	2.745204e+02
1.950000e-06	5.843689e-06	4.138368e-09	4.952668e+01	2.751571e+02
1.960000e-06	5.887532e-06	4.146065e-09	4.989826e+01	2.757716e+02
1.970000e-06	5.930509e-06	4.154471e-09	5.026250e+01	2.763647e+02
1.980000e-06	5.972226e-06	4.164188e-09	5.061606e+01	2.769374e+02
1.990000e-06	6.012584e-06	4.173606e-09	5.095810e+01	2.774905e+02
2.000000e-06	6.051904e-06	4.181747e-09	5.129135e+01	2.780250e+02
2.010000e-06	6.090234e-06	4.190181e-09	5.161621e+01	2.785420e+02
2.020000e-06	6.127555e-06	4.199047e-09	5.193251e+01	2.790426e+02
2.030000e-06	6.163903e-06	4.207690e-09	5.224057e+01	2.795276e+02
2.040000e-06	6.199320e-06	4.216283e-09	5.254074e+01	2.799979e+02
2.050000e-06	6.233641e-06	4.224301e-09	5.283162e+01	2.804540e+02
2.060000e-06	6.266587e-06	4.231899e-09	5.311085e+01	2.808963e+02
2.070000e-06	6.298373e-06	4.239298e-09	5.338024e+01	2.813249e+02
2.080000e-06	6.329200e-06	4.245640e-09	5.364151e+01	2.817394e+02
2.090000e-06	6.359000e-06	4.251573e-09	5.389407e+01	2.821394e+02
2.100000e-06	6.387753e-06	4.258520e-09	5.413775e+01	2.825241e+02
2.110000e-06	6.415576e-06	4.265583e-09	5.437356e+01	2.828926e+02
2.120000e-06	6.442403e-06	4.271158e-09	5.460093e+01	2.832438e+02
2.130000e-06	6.467818e-06	4.276437e-09	5.481633e+01	2.835768e+02
2.140000e-06	6.491894e-06	4.283899e-09	5.502037e+01	2.838906e+02
2.150000e-06	6.514868e-06	4.289731e-09	5.521509e+01	2.841846e+02
2.160000e-06	6.536781e-06	4.293176e-09	5.540081e+01	2.844585e+02
2.170000e-06	6.557636e-06	4.296562e-09	5.557756e+01	2.847121e+02
2.180000e-06	6.577485e-06	4.299695e-09	5.574578e+01	2.849458e+02
2.190000e-06	6.596385e-06	4.304210e-09	5.590597e+01	2.851603e+02
2.200000e-06	6.614075e-06	4.309520e-09	5.605589e+01	2.853566e+02
2.210000e-06	6.630589e-06	4.314571e-09	5.619585e+01	2.855360e+02
2.220000e-06	6.645934e-06	4.317608e-09	5.632590e+01	2.856997e+02
2.230000e-06	6.659888e-06	4.319880e-09	5.644416e+01	2.858491e+02
2.240000e-06	6.672616e-06	4.321513e-09	5.655204e+01	2.859852e+02
2.250000e-06	6.684166e-06	4.322770e-09	5.664993e+01	2.861089e+02
2.260000e-06	6.694210e-06	4.325295e-09	5.673505e+01	2.862206e+02
2.270000e-06	6.702740e-06	4.326651e-09	5.680735e+01	2.863204e+02
2.280000e-06	6.710110e-06	4.326589e-09	5.686981e+01	2.864076e+02
2.290000e-06	6.716378e-06	4.326827e-09	5.692293e+01	2.864811e+02
2.300000e-06	6.721448e-06	4.329601e-09	5.696591e+01	2.865397e+02
2.310000e-06	6.725447e-06	4.333739e-09	5.699979e+01	2.865814e+02
2.320000e-06	6.728429e-06	4.335078e-09	5.702507e+01	2.866045e+02
2.330000e-06	6.730093e-06	4.336531e-09	5.703917e+01	2.866073e+02
2.340000e-06	6.730368e-06	4.339631e-09	5.704150e+01	2.865883e+02
2.350000e-06	6.729442e-06	4.341855e-09	5.703365e+01	2.865469e+02
2.360000e-06	6.727410e-06	4.339260e-09	5.701643e+01	2.864829e+02
2.370000e-06	6.724336e-06	4.335612e-09	5.699038e+01	2.863972e+02
2.380000e-06	6.720315e-06	4.334499e-09	5.695630e+01	2.862920e+02
2.390000e-06	6.715377e-06	4.336453e-09	5.691445e+01	2.861702e+02
2.400000e-06	6.709128e-06	4.338327e-09	5.686149e+01	2.860360e+02
2.410000e-06	6.701473e-06	4.344772e-09	5.679660e+01	2.858945e+02
2.420000e-06	6.692860e-06	4.369862e-09	5.672361e+01	2.857515e+02
2.430000e-06	6.683341e-06	4.314002e-09	5.664294e+01	2.856131e+02
2.440000e-06	6.672493e-06	4.229778e-09	5.655099e+01	2.854856e+02
2.450000e-06	6.659752e-06	4.219209e-09	5.644302e+01	2.853747e+02
2.460000e-06	6.644953e-06	4.294568e-09	5.631759e+01	2.852855e+02
2.470000e-06	6.628923e-06	4.500190e-09	5.618173e+01	2.852220e+02
2.480000e-06	6.612556e-06	4.389169e-09	5.604302e+01	2.851864e+02
2.490000e-06	6.595486e-06	4.157779e-09	5.589835e+01	2.851792e+02
2.500000e-06	6.576865e-06	4.332408e-09	5.574053e+01	2.851989e+02
2.510000e-06	6.557191e-06	4.342192e-09	5.557379e+01	2.852418e+02
2.520000e-06	6.537013e-06	4.365482e-09	5.540277e+01	2.853024e+02
2.530000e-06	6.515309e-06	4.507505e-09	5.521882e+01	2.853730e+02
2.540000e-06	6.491931e-06	4.225918e-09	5.502069e+01	2.854446e+02
2.550000e-06	6.467732e-06	4.201283e-09	5.481559e+01	2.855069e+02
2.560000e-06	6.442657e-06	4.516844e-09	5.460308e+01	2.855491e+02
2.570000e-06	6.416441e-06	4.345539e-09	5.438089e+01	2.855601e+02
2.580000e-06	6.389074e-06	4.208881e-09	5.414895e+01	2.855294e+02
2.590000e-06	6.360770e-06	4.446400e-09	5.390907e+01	2.854475e+02
2.600000e-06	6.331638e-06	4.484504e-09	5.366217e+01	2.853066e+02
2.610000e-06	6.301047e-06	4.474564e-09	5.340290e+01	2.851007e+02
2.620000e-06	6.268840e-06	4.362112e-09	5.312994e+01	2.848261e+02
2.630000e-06	6.235650e-06	4.281359e-09	5.284864e+01	2.844815e+02
2.640000e-06	6.201421e-06	4.441916e-09	5.255854e+01	2.840682e+02
2.650000e-06	6.166040e-06	4.386789e-09	5.225869e+01	2.835899e+02
2.660000e-06	6.129750e-06	4.362025e-09	5.195112e+01	2.830520e+02
2.670000e-06	6.092297e-06	4.367018e-09	5.163370e+01	2.824621e+02
2.680000e-06	6.053421e-06	4.251763e-09	5.130421e+01	2.818285e+02
2.690000e-06	6.013365e-06	4.346173e-09	5.096473e+01	2.811603e+02
2.700000e-06	5.972451e-06	4.420141e-09	5.061797e+01	2.804666e+02
2.710000e-06	5.930441e-06	4.322221e-09	5.026192e+01	2.797561e+02
2.720000e-06	5.887229e-06	4.194092e-09	4.989569e+01	2.790361e+02
2.730000e-06	5.843173e-06	4.273534e-09	4.952231e+01	2.783125e+02
2.740000e-06	5.798284e-06	4.416199e-09	4.914186e+01	2.775895e+02
2.750000e-06	5.752374e-06	4.245348e-09	4.875277e+01	2.768690e+02
2.760000e-06	5.705330e-06	4.162784e-09	4.835406e+01	2.761511e+02
2.770000e-06	5.657246e-06	4.255730e-09	4.794653e+01	2.754336e+02
2.780000e-06	5.608209e-06	4.274171e-09	4.753093e+01	2.747130e+02
2.790000e-06	5.558042e-06	4.229609e-09	4.710575e+01	2.739841e+02
2.800000e-06	5.506825e-06	4.165205e-09	4.667167e+01	2.732408e+02
2.810000e-06	5.454697e-06	4.200787e-09	4.622988e+01	2.724770e+02
2.820000e-06	5.401442e-06	4.192978e-09	4.577853e+01	2.716861e+02
2.830000e-06	5.346967e-06	4.161274e-09	4.531684e+01	2.708627e+02
2.840000e-06	5.291371e-06	4.170686e-09	4.484565e+01	2.700019e+02
2.850000e-06	5.234839e-06	4.129511e-09	4.436653e+01	2.691005e+02
2.860000e-06	5.177464e-06	4.107928e-09	4.388026e+01	2.681568e+02
2.870000e-06	5.119226e-06	4.107033e-09	4.338668e+01	2.671705e+02
2.880000e-06	5.060174e-06	4.117099e-09	4.288620e+01	2.661432e+02
2.890000e-06	5.000370e-06	4.073003e-09	4.237935e+01	2.650776e+02
2.900000e-06	4.939785e-06	4.031649e-09	4.186587e+01	2.639778e+02
2.910000e-06	4.878338e-06	4.065519e-09	4.134510e+01	2.628482e+02
2.920000e-06	4.815912e-06	4.050503e-09	4.081602e+01	2.616937e+02
2.930000e-06	4.752428e-06	3.990044e-09	4.027798e+01	2.605190e+02
2.940000e-06	4.688048e-06	3.973602e-09	3.973234e+01	2.593278e+02
2.950000e-06	4.622923e-06	4.000842e-09	3.918039e+01	2.581231e+02
