# Temperatura_=_20.0
# Concentracion g/m^3_=_9000.0
# C_Vs_to_Am_M_A/Vsm_=_65563218390.804596
# pendiente_HvsI_1/m_=_3716.3
# ordenada_HvsI_A/m_=_1297.0
# frecuencia_Hz_=_212911.75617909434

Tiempo_(s)	Campo_(V.s)	Magnetizacion_(V.s)	Campo_(kA/m)	Magnetizacion_(A/m)
0.000000e+00	-6.696369e-06	-5.752075e-11	-5.695747e+01	-3.366983e+00
1.000000e-08	-6.695247e-06	-5.586814e-11	-5.694793e+01	-3.381457e+00
2.000000e-08	-6.692699e-06	-5.367120e-11	-5.692626e+01	-3.394272e+00
3.000000e-08	-6.689083e-06	-5.629768e-11	-5.689550e+01	-3.404402e+00
4.000000e-08	-6.684534e-06	-5.911925e-11	-5.685681e+01	-3.410748e+00
5.000000e-08	-6.678847e-06	-6.106583e-11	-5.680844e+01	-3.412214e+00
6.000000e-08	-6.672036e-06	-6.397490e-11	-5.675050e+01	-3.407783e+00
7.000000e-08	-6.664309e-06	-7.584981e-11	-5.668478e+01	-3.396597e+00
8.000000e-08	-6.655423e-06	-9.530776e-11	-5.660920e+01	-3.378028e+00
9.000000e-08	-6.644891e-06	-4.680257e-11	-5.651961e+01	-3.351745e+00
1.000000e-07	-6.632753e-06	1.704365e-11	-5.641638e+01	-3.317750e+00
1.100000e-07	-6.619161e-06	6.396857e-12	-5.630077e+01	-3.276413e+00
1.200000e-07	-6.604037e-06	-6.142699e-11	-5.617212e+01	-3.228475e+00
1.300000e-07	-6.587591e-06	-2.171336e-10	-5.603224e+01	-3.175022e+00
1.400000e-07	-6.570281e-06	-1.186010e-10	-5.588500e+01	-3.117452e+00
1.500000e-07	-6.552042e-06	1.263145e-10	-5.572987e+01	-3.057407e+00
1.600000e-07	-6.532861e-06	-4.859605e-11	-5.556672e+01	-2.996697e+00
1.700000e-07	-6.512936e-06	-1.216112e-10	-5.539724e+01	-2.937208e+00
1.800000e-07	-6.491866e-06	-5.029435e-11	-5.521803e+01	-2.880806e+00
1.900000e-07	-6.469654e-06	-1.489013e-10	-5.502910e+01	-2.829236e+00
2.000000e-07	-6.446663e-06	3.901724e-11	-5.483354e+01	-2.784035e+00
2.100000e-07	-6.422527e-06	1.031806e-10	-5.462825e+01	-2.746452e+00
2.200000e-07	-6.396845e-06	-2.269603e-10	-5.440981e+01	-2.717381e+00
2.300000e-07	-6.369910e-06	-1.383400e-10	-5.418071e+01	-2.697323e+00
2.400000e-07	-6.342082e-06	1.243821e-10	-5.394400e+01	-2.686366e+00
2.500000e-07	-6.313252e-06	1.329651e-11	-5.369879e+01	-2.684188e+00
2.600000e-07	-6.283264e-06	-1.026478e-10	-5.344371e+01	-2.690088e+00
2.700000e-07	-6.252195e-06	-1.484498e-10	-5.317945e+01	-2.703037e+00
2.800000e-07	-6.220264e-06	-3.044621e-11	-5.290786e+01	-2.721740e+00
2.900000e-07	-6.187172e-06	8.400281e-11	-5.262639e+01	-2.744721e+00
3.000000e-07	-6.152605e-06	-7.454891e-11	-5.233237e+01	-2.770408e+00
3.100000e-07	-6.116876e-06	-1.233704e-10	-5.202847e+01	-2.797225e+00
3.200000e-07	-6.080100e-06	-2.695341e-11	-5.171566e+01	-2.823673e+00
3.300000e-07	-6.042162e-06	-2.787046e-11	-5.139297e+01	-2.848406e+00
3.400000e-07	-6.003190e-06	-2.588299e-11	-5.106148e+01	-2.870296e+00
3.500000e-07	-5.963269e-06	-2.136553e-11	-5.072193e+01	-2.888472e+00
3.600000e-07	-5.922126e-06	-1.101932e-10	-5.037198e+01	-2.902344e+00
3.700000e-07	-5.879608e-06	-9.758560e-11	-5.001033e+01	-2.911612e+00
3.800000e-07	-5.836018e-06	5.979645e-11	-4.963956e+01	-2.916243e+00
3.900000e-07	-5.791421e-06	-4.131954e-12	-4.926024e+01	-2.916444e+00
4.000000e-07	-5.745755e-06	-1.646079e-10	-4.887181e+01	-2.912610e+00
4.100000e-07	-5.699217e-06	-5.197220e-11	-4.847597e+01	-2.905273e+00
4.200000e-07	-5.651828e-06	5.248119e-11	-4.807290e+01	-2.895035e+00
4.300000e-07	-5.603274e-06	-4.242019e-11	-4.765991e+01	-2.882510e+00
4.400000e-07	-5.553153e-06	-1.071859e-10	-4.723359e+01	-2.868267e+00
4.500000e-07	-5.501715e-06	-5.108975e-11	-4.679607e+01	-2.852778e+00
4.600000e-07	-5.449354e-06	3.052171e-12	-4.635071e+01	-2.836388e+00
4.700000e-07	-5.396060e-06	-2.560301e-11	-4.589740e+01	-2.819290e+00
4.800000e-07	-5.341828e-06	-5.773024e-11	-4.543612e+01	-2.801521e+00
4.900000e-07	-5.286730e-06	-5.722029e-11	-4.496748e+01	-2.782969e+00
5.000000e-07	-5.230855e-06	-3.032710e-11	-4.449221e+01	-2.763397e+00
5.100000e-07	-5.174140e-06	-1.072561e-11	-4.400981e+01	-2.742481e+00
5.200000e-07	-5.116273e-06	-3.441612e-11	-4.351761e+01	-2.719844e+00
5.300000e-07	-5.057264e-06	-5.506317e-11	-4.301570e+01	-2.695111e+00
5.400000e-07	-4.997449e-06	-4.816370e-11	-4.250693e+01	-2.667949e+00
5.500000e-07	-4.936894e-06	-1.334893e-11	-4.199186e+01	-2.638112e+00
5.600000e-07	-4.875536e-06	-4.111786e-12	-4.146997e+01	-2.605470e+00
5.700000e-07	-4.813343e-06	-5.033048e-11	-4.094097e+01	-2.570041e+00
5.800000e-07	-4.750362e-06	-6.586641e-11	-4.040527e+01	-2.531992e+00
5.900000e-07	-4.686698e-06	-1.374582e-11	-3.986377e+01	-2.491643e+00
6.000000e-07	-4.622254e-06	9.226779e-12	-3.931562e+01	-2.449446e+00
6.100000e-07	-4.556679e-06	-4.074986e-11	-3.875786e+01	-2.405961e+00
6.200000e-07	-4.489981e-06	-5.999038e-11	-3.819054e+01	-2.361815e+00
6.300000e-07	-4.422559e-06	-1.682094e-11	-3.761707e+01	-2.317661e+00
6.400000e-07	-4.354560e-06	-2.212849e-12	-3.703869e+01	-2.274125e+00
6.500000e-07	-4.285836e-06	-2.937883e-11	-3.645414e+01	-2.231769e+00
6.600000e-07	-4.216329e-06	-3.978803e-11	-3.586293e+01	-2.191040e+00
6.700000e-07	-4.146033e-06	-2.342139e-11	-3.526502e+01	-2.152242e+00
6.800000e-07	-4.075015e-06	-9.326730e-12	-3.466096e+01	-2.115511e+00
6.900000e-07	-4.003393e-06	-1.062513e-11	-3.405176e+01	-2.080805e+00
7.000000e-07	-3.930999e-06	-2.235773e-11	-3.343600e+01	-2.047908e+00
7.100000e-07	-3.857655e-06	-3.165572e-11	-3.281216e+01	-2.016442e+00
7.200000e-07	-3.783308e-06	-2.228714e-11	-3.217978e+01	-1.985901e+00
7.300000e-07	-3.708117e-06	-8.680980e-12	-3.154023e+01	-1.955684e+00
7.400000e-07	-3.632305e-06	-1.926869e-11	-3.089539e+01	-1.925141e+00
7.500000e-07	-3.555781e-06	-3.686187e-11	-3.024450e+01	-1.893621e+00
7.600000e-07	-3.478567e-06	-2.905869e-11	-2.958773e+01	-1.860516e+00
7.700000e-07	-3.400808e-06	-1.023637e-11	-2.892634e+01	-1.825310e+00
7.800000e-07	-3.322396e-06	-1.488905e-11	-2.825939e+01	-1.787610e+00
7.900000e-07	-3.243034e-06	-3.380710e-11	-2.758435e+01	-1.747175e+00
8.000000e-07	-3.162869e-06	-2.992456e-11	-2.690250e+01	-1.703927e+00
8.100000e-07	-3.082261e-06	-1.002662e-11	-2.621687e+01	-1.657957e+00
8.200000e-07	-3.001219e-06	-1.169487e-11	-2.552754e+01	-1.609511e+00
8.300000e-07	-2.919663e-06	-2.894396e-11	-2.483385e+01	-1.558969e+00
8.400000e-07	-2.837626e-06	-2.948906e-11	-2.413607e+01	-1.506813e+00
8.500000e-07	-2.755161e-06	-1.559079e-11	-2.343464e+01	-1.453587e+00
8.600000e-07	-2.672272e-06	-1.136627e-11	-2.272961e+01	-1.399857e+00
8.700000e-07	-2.589036e-06	-1.849601e-11	-2.202163e+01	-1.346170e+00
8.800000e-07	-2.505473e-06	-2.261349e-11	-2.131086e+01	-1.293011e+00
8.900000e-07	-2.421607e-06	-1.873597e-11	-2.059752e+01	-1.240776e+00
9.000000e-07	-2.337518e-06	-1.006568e-11	-1.988228e+01	-1.189744e+00
9.100000e-07	-2.253139e-06	-8.508821e-12	-1.916458e+01	-1.140070e+00
9.200000e-07	-2.168330e-06	-1.661349e-11	-1.844322e+01	-1.091780e+00
9.300000e-07	-2.083028e-06	-1.879076e-11	-1.771766e+01	-1.044782e+00
9.400000e-07	-1.997378e-06	-1.025136e-11	-1.698915e+01	-9.988932e-01
9.500000e-07	-1.911546e-06	-6.677834e-12	-1.625909e+01	-9.538615e-01
9.600000e-07	-1.825443e-06	-1.460607e-11	-1.552672e+01	-9.094070e-01
9.700000e-07	-1.738902e-06	-1.957179e-11	-1.479062e+01	-8.652586e-01
9.800000e-07	-1.651979e-06	-1.207002e-11	-1.405128e+01	-8.211913e-01
9.900000e-07	-1.564923e-06	-3.400569e-12	-1.331080e+01	-7.770605e-01
1.000000e-06	-1.477740e-06	-6.533907e-12	-1.256925e+01	-7.328280e-01
1.010000e-06	-1.390265e-06	-1.294082e-11	-1.182521e+01	-6.885793e-01
1.020000e-06	-1.302489e-06	-9.393450e-12	-1.107861e+01	-6.445287e-01
1.030000e-06	-1.214534e-06	-1.704358e-12	-1.033050e+01	-6.010132e-01
1.040000e-06	-1.126498e-06	-5.011939e-13	-9.581679e+00	-5.584737e-01
1.050000e-06	-1.038239e-06	-3.455260e-12	-8.830976e+00	-5.174260e-01
1.060000e-06	-9.495418e-07	-3.215796e-12	-8.076541e+00	-4.784223e-01
1.070000e-06	-8.605829e-07	9.910316e-13	-7.319881e+00	-4.420077e-01
1.080000e-06	-7.715120e-07	4.462276e-12	-6.562269e+00	-4.086734e-01
1.090000e-06	-6.822752e-07	4.658138e-12	-5.803245e+00	-3.788106e-01
1.100000e-06	-5.928191e-07	3.045006e-12	-5.042357e+00	-3.526697e-01
1.110000e-06	-5.030691e-07	3.462253e-12	-4.278967e+00	-3.303269e-01
1.120000e-06	-4.132207e-07	7.307129e-12	-3.514741e+00	-3.116609e-01
1.130000e-06	-3.233990e-07	8.897590e-12	-2.750743e+00	-2.963435e-01
1.140000e-06	-2.335798e-07	6.491357e-12	-1.986766e+00	-2.838425e-01
1.150000e-06	-1.436344e-07	6.876038e-12	-1.221715e+00	-2.734396e-01
1.160000e-06	-5.345832e-08	1.171743e-11	-4.547018e-01	-2.642608e-01
1.170000e-06	3.670808e-08	1.399770e-11	3.122289e-01	-2.553181e-01
1.180000e-06	1.266997e-07	1.216297e-11	1.077673e+00	-2.455593e-01
1.190000e-06	2.166641e-07	1.179988e-11	1.842885e+00	-2.339237e-01
1.200000e-06	3.066662e-07	1.403792e-11	2.608418e+00	-2.193989e-01
1.210000e-06	3.965134e-07	1.395079e-11	3.372634e+00	-2.010757e-01
1.220000e-06	4.860813e-07	1.207088e-11	4.134474e+00	-1.781965e-01
1.230000e-06	5.754594e-07	1.132685e-11	4.894699e+00	-1.501957e-01
1.240000e-06	6.646868e-07	1.267548e-11	5.653644e+00	-1.167279e-01
1.250000e-06	7.536986e-07	1.556529e-11	6.410753e+00	-7.768276e-02
1.260000e-06	8.424446e-07	1.669322e-11	7.165602e+00	-3.318620e-02
1.270000e-06	9.309103e-07	1.725738e-11	7.918067e+00	1.641270e-02
1.280000e-06	1.019194e-06	1.668398e-11	8.668985e+00	7.056734e-02
1.290000e-06	1.107335e-06	1.714326e-11	9.418690e+00	1.285702e-01
1.300000e-06	1.195320e-06	1.700450e-11	1.016706e+01	1.895974e-01
1.310000e-06	1.283153e-06	1.454838e-11	1.091414e+01	2.527588e-01
1.320000e-06	1.370801e-06	1.070121e-11	1.165966e+01	3.171489e-01
1.330000e-06	1.458297e-06	9.901937e-12	1.240388e+01	3.818970e-01
1.340000e-06	1.545599e-06	1.172860e-11	1.314644e+01	4.462119e-01
1.350000e-06	1.632677e-06	1.255032e-11	1.388710e+01	5.094194e-01
1.360000e-06	1.719520e-06	1.435619e-11	1.462576e+01	5.709905e-01
1.370000e-06	1.806039e-06	1.591588e-11	1.536167e+01	6.305586e-01
1.380000e-06	1.892242e-06	1.612175e-11	1.609489e+01	6.879256e-01
1.390000e-06	1.978168e-06	1.456480e-11	1.682576e+01	7.430573e-01
1.400000e-06	2.063816e-06	1.199370e-11	1.755425e+01	7.960694e-01
1.410000e-06	2.149157e-06	1.051212e-11	1.828014e+01	8.472046e-01
1.420000e-06	2.234057e-06	8.997488e-12	1.900228e+01	8.968051e-01
1.430000e-06	2.318492e-06	9.639952e-12	1.972045e+01	9.452805e-01
1.440000e-06	2.402606e-06	1.403310e-11	2.043591e+01	9.930752e-01
1.450000e-06	2.486428e-06	1.641502e-11	2.114887e+01	1.040637e+00
1.460000e-06	2.569962e-06	1.756915e-11	2.185939e+01	1.088391e+00
1.470000e-06	2.653214e-06	1.786117e-11	2.256751e+01	1.136713e+00
1.480000e-06	2.736100e-06	1.894558e-11	2.327252e+01	1.185913e+00
1.490000e-06	2.818420e-06	1.824821e-11	2.397271e+01	1.236227e+00
1.500000e-06	2.900115e-06	1.718515e-11	2.466758e+01	1.287809e+00
1.510000e-06	2.981294e-06	1.741059e-11	2.535807e+01	1.340729e+00
1.520000e-06	3.061937e-06	1.603350e-11	2.604399e+01	1.394982e+00
1.530000e-06	3.142067e-06	1.667590e-11	2.672556e+01	1.450492e+00
1.540000e-06	3.221627e-06	1.793140e-11	2.740227e+01	1.507119e+00
1.550000e-06	3.300417e-06	1.898901e-11	2.807244e+01	1.564670e+00
1.560000e-06	3.378518e-06	2.105404e-11	2.873675e+01	1.622906e+00
1.570000e-06	3.456007e-06	2.321036e-11	2.939584e+01	1.681545e+00
1.580000e-06	3.532844e-06	2.441019e-11	3.004940e+01	1.740269e+00
1.590000e-06	3.609120e-06	2.384879e-11	3.069819e+01	1.798719e+00
1.600000e-06	3.684788e-06	2.512381e-11	3.134179e+01	1.856503e+00
1.610000e-06	3.759673e-06	2.746816e-11	3.197874e+01	1.913187e+00
1.620000e-06	3.833623e-06	2.756106e-11	3.260774e+01	1.968298e+00
1.630000e-06	3.906556e-06	2.875935e-11	3.322810e+01	2.021324e+00
1.640000e-06	3.978659e-06	3.108276e-11	3.384138e+01	2.071724e+00
1.650000e-06	4.050115e-06	3.282641e-11	3.444917e+01	2.118927e+00
1.660000e-06	4.120930e-06	3.369914e-11	3.505150e+01	2.162358e+00
1.670000e-06	4.191079e-06	3.423756e-11	3.564816e+01	2.201450e+00
1.680000e-06	4.260417e-06	3.488552e-11	3.623794e+01	2.235674e+00
1.690000e-06	4.328968e-06	3.410711e-11	3.682101e+01	2.264564e+00
1.700000e-06	4.396932e-06	3.379767e-11	3.739910e+01	2.287758e+00
1.710000e-06	4.464363e-06	3.389965e-11	3.797265e+01	2.305022e+00
1.720000e-06	4.531048e-06	3.375218e-11	3.853985e+01	2.316288e+00
1.730000e-06	4.596782e-06	3.492088e-11	3.909896e+01	2.321681e+00
1.740000e-06	4.661492e-06	3.699396e-11	3.964937e+01	2.321539e+00
1.750000e-06	4.725324e-06	3.934479e-11	4.019230e+01	2.316422e+00
1.760000e-06	4.788526e-06	4.081199e-11	4.072989e+01	2.307117e+00
1.770000e-06	4.851039e-06	4.079630e-11	4.126160e+01	2.294621e+00
1.780000e-06	4.912723e-06	4.050891e-11	4.178627e+01	2.280114e+00
1.790000e-06	4.973555e-06	4.027602e-11	4.230369e+01	2.264923e+00
1.800000e-06	5.033628e-06	3.951847e-11	4.281465e+01	2.250467e+00
1.810000e-06	5.092987e-06	3.853468e-11	4.331954e+01	2.238198e+00
1.820000e-06	5.151420e-06	3.941408e-11	4.381656e+01	2.229532e+00
1.830000e-06	5.208638e-06	4.051524e-11	4.430324e+01	2.225780e+00
1.840000e-06	5.264732e-06	4.065203e-11	4.478037e+01	2.228076e+00
1.850000e-06	5.319966e-06	4.112783e-11	4.525017e+01	2.237321e+00
1.860000e-06	5.374388e-06	4.171001e-11	4.571307e+01	2.254120e+00
1.870000e-06	5.427892e-06	4.082389e-11	4.616816e+01	2.278752e+00
1.880000e-06	5.480373e-06	3.917055e-11	4.661455e+01	2.311142e+00
1.890000e-06	5.531827e-06	3.963076e-11	4.705220e+01	2.350859e+00
1.900000e-06	5.582056e-06	3.959476e-11	4.747943e+01	2.397131e+00
1.910000e-06	5.630857e-06	3.870868e-11	4.789452e+01	2.448883e+00
1.920000e-06	5.678463e-06	3.859499e-11	4.829945e+01	2.504788e+00
1.930000e-06	5.725102e-06	3.993039e-11	4.869615e+01	2.563333e+00
1.940000e-06	5.770747e-06	4.226164e-11	4.908438e+01	2.622903e+00
1.950000e-06	5.815419e-06	4.348752e-11	4.946435e+01	2.681862e+00
1.960000e-06	5.859257e-06	4.427425e-11	4.983723e+01	2.738640e+00
1.970000e-06	5.902224e-06	4.618234e-11	5.020269e+01	2.791817e+00
1.980000e-06	5.943989e-06	4.634889e-11	5.055794e+01	2.840191e+00
1.990000e-06	5.984408e-06	4.580278e-11	5.090173e+01	2.882843e+00
2.000000e-06	6.023722e-06	4.588044e-11	5.123612e+01	2.919174e+00
2.010000e-06	6.062113e-06	4.569094e-11	5.156266e+01	2.948927e+00
2.020000e-06	6.099514e-06	4.480020e-11	5.188078e+01	2.972191e+00
2.030000e-06	6.135892e-06	4.330901e-11	5.219021e+01	2.989375e+00
2.040000e-06	6.171418e-06	4.288164e-11	5.249238e+01	3.001172e+00
2.050000e-06	6.205896e-06	4.195450e-11	5.278565e+01	3.008503e+00
2.060000e-06	6.238934e-06	4.137244e-11	5.306666e+01	3.012448e+00
2.070000e-06	6.270731e-06	3.955065e-11	5.333711e+01	3.014172e+00
2.080000e-06	6.301548e-06	3.801427e-11	5.359923e+01	3.014846e+00
2.090000e-06	6.331371e-06	3.782291e-11	5.385290e+01	3.015574e+00
2.100000e-06	6.360175e-06	3.721534e-11	5.409790e+01	3.017325e+00
2.110000e-06	6.388076e-06	3.785214e-11	5.433522e+01	3.020882e+00
2.120000e-06	6.415072e-06	3.908969e-11	5.456484e+01	3.026803e+00
2.130000e-06	6.440715e-06	4.109425e-11	5.478295e+01	3.035402e+00
2.140000e-06	6.464870e-06	4.208465e-11	5.498841e+01	3.046747e+00
2.150000e-06	6.487893e-06	4.245042e-11	5.518423e+01	3.060680e+00
2.160000e-06	6.509919e-06	4.241145e-11	5.537158e+01	3.076848e+00
2.170000e-06	6.530847e-06	4.226611e-11	5.554959e+01	3.094750e+00
2.180000e-06	6.550784e-06	4.308725e-11	5.571916e+01	3.113794e+00
2.190000e-06	6.569811e-06	4.267994e-11	5.588100e+01	3.133355e+00
2.200000e-06	6.587647e-06	4.214754e-11	5.603271e+01	3.152834e+00
2.210000e-06	6.604284e-06	4.210169e-11	5.617422e+01	3.171713e+00
2.220000e-06	6.619677e-06	4.313528e-11	5.630515e+01	3.189594e+00
2.230000e-06	6.633726e-06	4.458033e-11	5.642465e+01	3.206232e+00
2.240000e-06	6.646607e-06	4.682832e-11	5.653421e+01	3.221549e+00
2.250000e-06	6.658336e-06	4.904131e-11	5.663398e+01	3.235628e+00
2.260000e-06	6.668658e-06	4.917513e-11	5.672177e+01	3.248694e+00
2.270000e-06	6.677431e-06	4.844870e-11	5.679639e+01	3.261082e+00
2.280000e-06	6.684932e-06	5.004874e-11	5.686019e+01	3.273187e+00
2.290000e-06	6.691325e-06	5.268543e-11	5.691457e+01	3.285412e+00
2.300000e-06	6.696548e-06	5.332296e-11	5.695900e+01	3.298111e+00
2.310000e-06	6.700697e-06	5.401317e-11	5.699429e+01	3.311530e+00
2.320000e-06	6.703904e-06	5.370487e-11	5.702156e+01	3.325760e+00
2.330000e-06	6.705820e-06	5.352024e-11	5.703786e+01	3.340702e+00
2.340000e-06	6.706248e-06	5.191333e-11	5.704150e+01	3.356037e+00
2.350000e-06	6.705522e-06	4.994879e-11	5.703533e+01	3.371230e+00
2.360000e-06	6.703755e-06	5.281247e-11	5.702030e+01	3.385535e+00
2.370000e-06	6.700891e-06	5.667282e-11	5.699594e+01	3.398035e+00
2.380000e-06	6.697056e-06	5.940370e-11	5.696332e+01	3.407688e+00
2.390000e-06	6.692291e-06	5.899943e-11	5.692279e+01	3.413390e+00
2.400000e-06	6.686274e-06	5.601013e-11	5.687161e+01	3.414053e+00
2.410000e-06	6.678876e-06	4.848992e-11	5.680868e+01	3.408678e+00
2.420000e-06	6.670429e-06	1.903879e-11	5.673683e+01	3.396437e+00
2.430000e-06	6.661036e-06	4.683344e-11	5.665694e+01	3.376745e+00
2.440000e-06	6.650430e-06	1.415326e-10	5.656673e+01	3.349315e+00
2.450000e-06	6.638117e-06	1.421901e-10	5.646200e+01	3.314205e+00
2.460000e-06	6.623759e-06	8.823186e-11	5.633987e+01	3.271842e+00
2.470000e-06	6.607940e-06	-1.015313e-10	5.620532e+01	3.223019e+00
2.480000e-06	6.591612e-06	-4.521110e-11	5.606644e+01	3.168872e+00
2.490000e-06	6.574767e-06	2.437573e-10	5.592316e+01	3.110840e+00
2.500000e-06	6.556537e-06	4.485052e-11	5.576810e+01	3.050597e+00
2.510000e-06	6.537115e-06	-1.810982e-12	5.560290e+01	2.989969e+00
2.520000e-06	6.517236e-06	1.089421e-10	5.543381e+01	2.930846e+00
2.530000e-06	6.496115e-06	-1.215368e-10	5.525417e+01	2.875080e+00
2.540000e-06	6.473174e-06	7.683689e-11	5.505904e+01	2.824394e+00
2.550000e-06	6.449154e-06	2.807412e-10	5.485473e+01	2.780284e+00
2.560000e-06	6.424330e-06	-1.018181e-10	5.464359e+01	2.743949e+00
2.570000e-06	6.398466e-06	-2.992876e-11	5.442360e+01	2.716228e+00
2.580000e-06	6.371470e-06	2.579807e-10	5.419398e+01	2.697559e+00
2.590000e-06	6.343428e-06	1.959757e-11	5.395546e+01	2.687968e+00
2.600000e-06	6.314530e-06	-5.372730e-11	5.370965e+01	2.687075e+00
2.610000e-06	6.284298e-06	-2.857839e-11	5.345251e+01	2.694125e+00
2.620000e-06	6.252467e-06	3.528858e-11	5.318176e+01	2.708044e+00
2.630000e-06	6.219665e-06	1.666344e-10	5.290276e+01	2.727506e+00
2.640000e-06	6.185875e-06	-5.316661e-11	5.261535e+01	2.751014e+00
2.650000e-06	6.150783e-06	-8.192870e-12	5.231687e+01	2.776990e+00
2.660000e-06	6.114748e-06	1.012870e-10	5.201036e+01	2.803863e+00
2.670000e-06	6.077843e-06	-4.121093e-11	5.169646e+01	2.830155e+00
2.680000e-06	6.039519e-06	8.821487e-11	5.137049e+01	2.854547e+00
2.690000e-06	5.999738e-06	8.042515e-11	5.103212e+01	2.875948e+00
2.700000e-06	5.959068e-06	-6.307119e-11	5.068620e+01	2.893528e+00
2.710000e-06	5.917482e-06	-3.536954e-12	5.033248e+01	2.906742e+00
2.720000e-06	5.874684e-06	1.180948e-10	4.996845e+01	2.915330e+00
2.730000e-06	5.830907e-06	9.782216e-11	4.959609e+01	2.919297e+00
2.740000e-06	5.786394e-06	-1.067973e-10	4.921748e+01	2.918883e+00
2.750000e-06	5.740913e-06	1.062274e-11	4.883062e+01	2.914507e+00
2.760000e-06	5.694193e-06	1.568927e-10	4.843324e+01	2.906715e+00
2.770000e-06	5.646454e-06	1.430475e-11	4.802719e+01	2.896115e+00
2.780000e-06	5.597863e-06	-2.572851e-11	4.761389e+01	2.883317e+00
2.790000e-06	5.548119e-06	1.352180e-11	4.719077e+01	2.868879e+00
2.800000e-06	5.497235e-06	9.438402e-11	4.675797e+01	2.853256e+00
2.810000e-06	5.445492e-06	4.233312e-11	4.631786e+01	2.836771e+00
2.820000e-06	5.392784e-06	-1.694448e-11	4.586954e+01	2.819594e+00
2.830000e-06	5.338714e-06	5.592795e-11	4.540963e+01	2.801737e+00
2.840000e-06	5.283254e-06	3.146506e-11	4.493790e+01	2.783069e+00
2.850000e-06	5.226918e-06	3.016455e-11	4.445873e+01	2.763338e+00
2.860000e-06	5.169899e-06	3.319377e-11	4.397374e+01	2.742207e+00
2.870000e-06	5.112042e-06	2.870319e-11	4.348162e+01	2.719299e+00
2.880000e-06	5.053300e-06	1.502272e-11	4.298198e+01	2.694241e+00
2.890000e-06	4.993770e-06	2.219327e-11	4.247563e+01	2.666711e+00
2.900000e-06	4.933581e-06	7.590811e-11	4.196368e+01	2.636477e+00
2.910000e-06	4.872633e-06	2.069510e-11	4.144528e+01	2.603432e+00
2.920000e-06	4.810661e-06	-1.112895e-12	4.091816e+01	2.567615e+00
2.930000e-06	4.747526e-06	5.099834e-11	4.038115e+01	2.529217e+00
2.940000e-06	4.683429e-06	6.617844e-11	3.983596e+01	2.488578e+00
2.950000e-06	4.618663e-06	1.584998e-11	3.928507e+01	2.446170e+00
