# Temperatura_=_20.0
# Concentracion g/m^3_=_9000.0
# C_Vs_to_Am_M_A/Vsm_=_65563218390.804596
# pendiente_HvsI_1/m_=_3716.3
# ordenada_HvsI_A/m_=_1297.0
# frecuencia_Hz_=_212908.0361867264

Tiempo_(s)	Campo_(V.s)	Magnetizacion_(V.s)	Campo_(kA/m)	Magnetizacion_(A/m)
0.000000e+00	-6.762896e-06	-4.369338e-09	-5.697393e+01	-2.872741e+02
1.000000e-08	-6.762595e-06	-4.366457e-09	-5.697139e+01	-2.872357e+02
2.000000e-08	-6.761057e-06	-4.365582e-09	-5.695843e+01	-2.871846e+02
3.000000e-08	-6.758182e-06	-4.365698e-09	-5.693421e+01	-2.871217e+02
4.000000e-08	-6.754228e-06	-4.364974e-09	-5.690090e+01	-2.870480e+02
5.000000e-08	-6.749292e-06	-4.364404e-09	-5.685932e+01	-2.869650e+02
6.000000e-08	-6.743187e-06	-4.362619e-09	-5.680788e+01	-2.868740e+02
7.000000e-08	-6.735980e-06	-4.361639e-09	-5.674717e+01	-2.867769e+02
8.000000e-08	-6.727756e-06	-4.360489e-09	-5.667789e+01	-2.866755e+02
9.000000e-08	-6.718212e-06	-4.367362e-09	-5.659749e+01	-2.865715e+02
1.000000e-07	-6.707079e-06	-4.375466e-09	-5.650369e+01	-2.864667e+02
1.100000e-07	-6.694373e-06	-4.385220e-09	-5.639666e+01	-2.863624e+02
1.200000e-07	-6.680148e-06	-4.379186e-09	-5.627682e+01	-2.862597e+02
1.300000e-07	-6.664328e-06	-4.344555e-09	-5.614354e+01	-2.861590e+02
1.400000e-07	-6.647295e-06	-4.320307e-09	-5.600004e+01	-2.860600e+02
1.500000e-07	-6.629482e-06	-4.310968e-09	-5.584998e+01	-2.859615e+02
1.600000e-07	-6.610790e-06	-4.336554e-09	-5.569251e+01	-2.858617e+02
1.700000e-07	-6.591207e-06	-4.367087e-09	-5.552754e+01	-2.857577e+02
1.800000e-07	-6.570655e-06	-4.326339e-09	-5.535439e+01	-2.856461e+02
1.900000e-07	-6.548882e-06	-4.295609e-09	-5.517097e+01	-2.855226e+02
2.000000e-07	-6.526122e-06	-4.311843e-09	-5.497922e+01	-2.853825e+02
2.100000e-07	-6.502548e-06	-4.319092e-09	-5.478062e+01	-2.852208e+02
2.200000e-07	-6.477744e-06	-4.344254e-09	-5.457167e+01	-2.850325e+02
2.300000e-07	-6.451431e-06	-4.334266e-09	-5.434999e+01	-2.848129e+02
2.400000e-07	-6.423899e-06	-4.297569e-09	-5.411805e+01	-2.845577e+02
2.500000e-07	-6.395361e-06	-4.322307e-09	-5.387763e+01	-2.842635e+02
2.600000e-07	-6.365752e-06	-4.347168e-09	-5.362819e+01	-2.839278e+02
2.700000e-07	-6.335086e-06	-4.322717e-09	-5.336984e+01	-2.835492e+02
2.800000e-07	-6.303448e-06	-4.280797e-09	-5.310331e+01	-2.831277e+02
2.900000e-07	-6.270753e-06	-4.259732e-09	-5.282787e+01	-2.826646e+02
3.000000e-07	-6.236784e-06	-4.302034e-09	-5.254170e+01	-2.821621e+02
3.100000e-07	-6.201534e-06	-4.320958e-09	-5.224474e+01	-2.816237e+02
3.200000e-07	-6.165081e-06	-4.250631e-09	-5.193764e+01	-2.810539e+02
3.300000e-07	-6.127451e-06	-4.225102e-09	-5.162063e+01	-2.804574e+02
3.400000e-07	-6.088724e-06	-4.256237e-09	-5.129437e+01	-2.798395e+02
3.500000e-07	-6.049043e-06	-4.261059e-09	-5.096008e+01	-2.792052e+02
3.600000e-07	-6.008224e-06	-4.242970e-09	-5.061620e+01	-2.785593e+02
3.700000e-07	-5.966067e-06	-4.217495e-09	-5.026105e+01	-2.779057e+02
3.800000e-07	-5.922749e-06	-4.200608e-09	-4.989612e+01	-2.772475e+02
3.900000e-07	-5.878378e-06	-4.213528e-09	-4.952231e+01	-2.765864e+02
4.000000e-07	-5.832915e-06	-4.230460e-09	-4.913931e+01	-2.759231e+02
4.100000e-07	-5.786450e-06	-4.190212e-09	-4.874787e+01	-2.752569e+02
4.200000e-07	-5.739061e-06	-4.147067e-09	-4.834864e+01	-2.745856e+02
4.300000e-07	-5.690571e-06	-4.164786e-09	-4.794014e+01	-2.739063e+02
4.400000e-07	-5.640789e-06	-4.185258e-09	-4.752075e+01	-2.732150e+02
4.500000e-07	-5.589673e-06	-4.159823e-09	-4.709012e+01	-2.725072e+02
4.600000e-07	-5.537358e-06	-4.119367e-09	-4.664940e+01	-2.717781e+02
4.700000e-07	-5.484116e-06	-4.115717e-09	-4.620086e+01	-2.710230e+02
4.800000e-07	-5.430002e-06	-4.137977e-09	-4.574498e+01	-2.702376e+02
4.900000e-07	-5.374975e-06	-4.121987e-09	-4.528140e+01	-2.694185e+02
5.000000e-07	-5.319070e-06	-4.073308e-09	-4.481043e+01	-2.685630e+02
5.100000e-07	-5.262180e-06	-4.055015e-09	-4.433116e+01	-2.676694e+02
5.200000e-07	-5.204231e-06	-4.070255e-09	-4.384298e+01	-2.667375e+02
5.300000e-07	-5.145338e-06	-4.064954e-09	-4.334683e+01	-2.657678e+02
5.400000e-07	-5.085599e-06	-4.029692e-09	-4.284355e+01	-2.647623e+02
5.500000e-07	-5.024997e-06	-4.003936e-09	-4.233302e+01	-2.637232e+02
5.600000e-07	-4.963623e-06	-4.001291e-09	-4.181597e+01	-2.626537e+02
5.700000e-07	-4.901480e-06	-4.002095e-09	-4.129245e+01	-2.615571e+02
5.800000e-07	-4.838491e-06	-3.981938e-09	-4.076180e+01	-2.604364e+02
5.900000e-07	-4.774710e-06	-3.945166e-09	-4.022448e+01	-2.592943e+02
6.000000e-07	-4.710033e-06	-3.922170e-09	-3.967961e+01	-2.581328e+02
6.100000e-07	-4.644353e-06	-3.926716e-09	-3.912629e+01	-2.569528e+02
6.200000e-07	-4.577713e-06	-3.919519e-09	-3.856488e+01	-2.557543e+02
6.300000e-07	-4.510186e-06	-3.875743e-09	-3.799600e+01	-2.545359e+02
6.400000e-07	-4.441927e-06	-3.840217e-09	-3.742095e+01	-2.532950e+02
6.500000e-07	-4.372976e-06	-3.838558e-09	-3.684008e+01	-2.520283e+02
6.600000e-07	-4.303292e-06	-3.837684e-09	-3.625302e+01	-2.507313e+02
6.700000e-07	-4.232848e-06	-3.808234e-09	-3.565957e+01	-2.493993e+02
6.800000e-07	-4.161702e-06	-3.771442e-09	-3.506020e+01	-2.480273e+02
6.900000e-07	-4.089937e-06	-3.753123e-09	-3.445561e+01	-2.466103e+02
7.000000e-07	-4.017342e-06	-3.743367e-09	-3.384404e+01	-2.451439e+02
7.100000e-07	-3.943608e-06	-3.720958e-09	-3.322287e+01	-2.436247e+02
7.200000e-07	-3.868911e-06	-3.682044e-09	-3.259359e+01	-2.420501e+02
7.300000e-07	-3.793573e-06	-3.650130e-09	-3.195891e+01	-2.404186e+02
7.400000e-07	-3.717505e-06	-3.633464e-09	-3.131807e+01	-2.387302e+02
7.500000e-07	-3.640668e-06	-3.614033e-09	-3.067076e+01	-2.369859e+02
7.600000e-07	-3.563096e-06	-3.580052e-09	-3.001726e+01	-2.351876e+02
7.700000e-07	-3.484778e-06	-3.542907e-09	-2.935747e+01	-2.333382e+02
7.800000e-07	-3.405706e-06	-3.517812e-09	-2.869132e+01	-2.314407e+02
7.900000e-07	-3.325835e-06	-3.497332e-09	-2.801845e+01	-2.294983e+02
8.000000e-07	-3.245271e-06	-3.466075e-09	-2.733974e+01	-2.275137e+02
8.100000e-07	-3.164179e-06	-3.424911e-09	-2.665658e+01	-2.254887e+02
8.200000e-07	-3.082638e-06	-3.392946e-09	-2.596964e+01	-2.234241e+02
8.300000e-07	-3.000676e-06	-3.371586e-09	-2.527915e+01	-2.213191e+02
8.400000e-07	-2.918226e-06	-3.339790e-09	-2.458455e+01	-2.191712e+02
8.500000e-07	-2.835305e-06	-3.296366e-09	-2.388599e+01	-2.169764e+02
8.600000e-07	-2.752091e-06	-3.260439e-09	-2.318496e+01	-2.147290e+02
8.700000e-07	-2.668592e-06	-3.235320e-09	-2.248152e+01	-2.124217e+02
8.800000e-07	-2.584737e-06	-3.203059e-09	-2.177508e+01	-2.100463e+02
8.900000e-07	-2.500525e-06	-3.157126e-09	-2.106564e+01	-2.075938e+02
9.000000e-07	-2.415898e-06	-3.110197e-09	-2.035270e+01	-2.050547e+02
9.100000e-07	-2.330888e-06	-3.071550e-09	-1.963654e+01	-2.024200e+02
9.200000e-07	-2.245569e-06	-3.033546e-09	-1.891777e+01	-1.996810e+02
9.300000e-07	-2.159902e-06	-2.987077e-09	-1.819606e+01	-1.968300e+02
9.400000e-07	-2.073804e-06	-2.934216e-09	-1.747074e+01	-1.938608e+02
9.500000e-07	-1.987325e-06	-2.886270e-09	-1.674219e+01	-1.907682e+02
9.600000e-07	-1.900573e-06	-2.845873e-09	-1.601135e+01	-1.875485e+02
9.700000e-07	-1.813556e-06	-2.799570e-09	-1.527828e+01	-1.841990e+02
9.800000e-07	-1.726282e-06	-2.742250e-09	-1.454304e+01	-1.807178e+02
9.900000e-07	-1.638800e-06	-2.683164e-09	-1.380605e+01	-1.771031e+02
1.000000e-06	-1.551146e-06	-2.631043e-09	-1.306761e+01	-1.733527e+02
1.010000e-06	-1.463258e-06	-2.577952e-09	-1.232720e+01	-1.694633e+02
1.020000e-06	-1.375049e-06	-2.513729e-09	-1.158408e+01	-1.654293e+02
1.030000e-06	-1.286477e-06	-2.443623e-09	-1.083791e+01	-1.612428e+02
1.040000e-06	-1.197522e-06	-2.376942e-09	-1.008851e+01	-1.568924e+02
1.050000e-06	-1.108219e-06	-2.313446e-09	-9.336175e+00	-1.523629e+02
1.060000e-06	-1.018589e-06	-2.243256e-09	-8.581086e+00	-1.476352e+02
1.070000e-06	-9.286982e-07	-2.163229e-09	-7.823805e+00	-1.426861e+02
1.080000e-06	-8.385592e-07	-2.081022e-09	-7.064431e+00	-1.374887e+02
1.090000e-06	-7.482167e-07	-2.000103e-09	-6.303341e+00	-1.320131e+02
1.100000e-06	-6.577217e-07	-1.916366e-09	-5.540967e+00	-1.262270e+02
1.110000e-06	-5.670260e-07	-1.823413e-09	-4.776903e+00	-1.200974e+02
1.120000e-06	-4.761883e-07	-1.721457e-09	-4.011642e+00	-1.135916e+02
1.130000e-06	-3.853059e-07	-1.614971e-09	-3.246004e+00	-1.066787e+02
1.140000e-06	-2.944025e-07	-1.505798e-09	-2.480190e+00	-9.933189e+01
1.150000e-06	-2.034617e-07	-1.391998e-09	-1.714061e+00	-9.152958e+01
1.160000e-06	-1.124756e-07	-1.267551e-09	-9.475494e-01	-8.325728e+01
1.170000e-06	-2.145488e-08	-1.134366e-09	-1.807464e-01	-7.450902e+01
1.180000e-06	6.953258e-08	-9.971346e-10	5.857762e-01	-6.528853e+01
1.190000e-06	1.604882e-07	-8.533567e-10	1.352031e+00	-5.561011e+01
1.200000e-06	2.514008e-07	-6.990128e-10	2.117922e+00	-4.549910e+01
1.210000e-06	3.422514e-07	-5.354817e-10	2.883292e+00	-3.499190e+01
1.220000e-06	4.330782e-07	-3.696668e-10	3.648462e+00	-2.413554e+01
1.230000e-06	5.237775e-07	-2.012547e-10	4.412556e+00	-1.298681e+01
1.240000e-06	6.142953e-07	-2.864001e-11	5.175123e+00	-1.610975e+00
1.250000e-06	7.046533e-07	1.458624e-10	5.936342e+00	9.919952e+00
1.260000e-06	7.948430e-07	3.216114e-10	6.696144e+00	2.152914e+01
1.270000e-06	8.847911e-07	4.969711e-10	7.453910e+00	3.313714e+01
1.280000e-06	9.744366e-07	6.710608e-10	8.209127e+00	4.466420e+01
1.290000e-06	1.063863e-06	8.447072e-10	8.962498e+00	5.603256e+01
1.300000e-06	1.153048e-06	1.017303e-09	9.713835e+00	6.716868e+01
1.310000e-06	1.241894e-06	1.185471e-09	1.046232e+01	7.800524e+01
1.320000e-06	1.330411e-06	1.348387e-09	1.120803e+01	8.848291e+01
1.330000e-06	1.418623e-06	1.503171e-09	1.195117e+01	9.855170e+01
1.340000e-06	1.506537e-06	1.648625e-09	1.269180e+01	1.081720e+02
1.350000e-06	1.594196e-06	1.786668e-09	1.343029e+01	1.173149e+02
1.360000e-06	1.681660e-06	1.916616e-09	1.416713e+01	1.259627e+02
1.370000e-06	1.768969e-06	2.037832e-09	1.490265e+01	1.341082e+02
1.380000e-06	1.856113e-06	2.149132e-09	1.563680e+01	1.417540e+02
1.390000e-06	1.943031e-06	2.254345e-09	1.636904e+01	1.489117e+02
1.400000e-06	2.029613e-06	2.353440e-09	1.709845e+01	1.556003e+02
1.410000e-06	2.115797e-06	2.445877e-09	1.782451e+01	1.618449e+02
1.420000e-06	2.201667e-06	2.534360e-09	1.854792e+01	1.676748e+02
1.430000e-06	2.287241e-06	2.617482e-09	1.926883e+01	1.731223e+02
1.440000e-06	2.372409e-06	2.695266e-09	1.998633e+01	1.782207e+02
1.450000e-06	2.457157e-06	2.768470e-09	2.070028e+01	1.830034e+02
1.460000e-06	2.541497e-06	2.837412e-09	2.141080e+01	1.875020e+02
1.470000e-06	2.625440e-06	2.903311e-09	2.211798e+01	1.917461e+02
1.480000e-06	2.709019e-06	2.964010e-09	2.282209e+01	1.957620e+02
1.490000e-06	2.792256e-06	3.020588e-09	2.352332e+01	1.995726e+02
1.500000e-06	2.875119e-06	3.075252e-09	2.422140e+01	2.031972e+02
1.510000e-06	2.957465e-06	3.127792e-09	2.491512e+01	2.066514e+02
1.520000e-06	3.039181e-06	3.178586e-09	2.560354e+01	2.099476e+02
1.530000e-06	3.120273e-06	3.224161e-09	2.628670e+01	2.130954e+02
1.540000e-06	3.200882e-06	3.266498e-09	2.696579e+01	2.161023e+02
1.550000e-06	3.280944e-06	3.308500e-09	2.764027e+01	2.189738e+02
1.560000e-06	3.360288e-06	3.348166e-09	2.830870e+01	2.217147e+02
1.570000e-06	3.438956e-06	3.382179e-09	2.897143e+01	2.243292e+02
1.580000e-06	3.516986e-06	3.414053e-09	2.962880e+01	2.268216e+02
1.590000e-06	3.594369e-06	3.449000e-09	3.028072e+01	2.291966e+02
1.600000e-06	3.671084e-06	3.483577e-09	3.092700e+01	2.314596e+02
1.610000e-06	3.747170e-06	3.513863e-09	3.156798e+01	2.336166e+02
1.620000e-06	3.822619e-06	3.542062e-09	3.220360e+01	2.356748e+02
1.630000e-06	3.897240e-06	3.571865e-09	3.283224e+01	2.376417e+02
1.640000e-06	3.970850e-06	3.600986e-09	3.345237e+01	2.395254e+02
1.650000e-06	4.043454e-06	3.627931e-09	3.406402e+01	2.413340e+02
1.660000e-06	4.115282e-06	3.652450e-09	3.466913e+01	2.430757e+02
1.670000e-06	4.186493e-06	3.675922e-09	3.526905e+01	2.447579e+02
1.680000e-06	4.257044e-06	3.699568e-09	3.586341e+01	2.463876e+02
1.690000e-06	4.326906e-06	3.723013e-09	3.645196e+01	2.479706e+02
1.700000e-06	4.395965e-06	3.745920e-09	3.703375e+01	2.495114e+02
1.710000e-06	4.464243e-06	3.767475e-09	3.760896e+01	2.510135e+02
1.720000e-06	4.531918e-06	3.788912e-09	3.817908e+01	2.524791e+02
1.730000e-06	4.598970e-06	3.810454e-09	3.874396e+01	2.539089e+02
1.740000e-06	4.665053e-06	3.830215e-09	3.930067e+01	2.553031e+02
1.750000e-06	4.730018e-06	3.848301e-09	3.984797e+01	2.566606e+02
1.760000e-06	4.794117e-06	3.866498e-09	4.038797e+01	2.579802e+02
1.770000e-06	4.857557e-06	3.884945e-09	4.092242e+01	2.592599e+02
1.780000e-06	4.920251e-06	3.902568e-09	4.145058e+01	2.604981e+02
1.790000e-06	4.982068e-06	3.919241e-09	4.197136e+01	2.616933e+02
1.800000e-06	5.043047e-06	3.936254e-09	4.248508e+01	2.628444e+02
1.810000e-06	5.103286e-06	3.953740e-09	4.299256e+01	2.639508e+02
1.820000e-06	5.162917e-06	3.969974e-09	4.349493e+01	2.650128e+02
1.830000e-06	5.221724e-06	3.984903e-09	4.399034e+01	2.660311e+02
1.840000e-06	5.279257e-06	4.000631e-09	4.447503e+01	2.670072e+02
1.850000e-06	5.335573e-06	4.016306e-09	4.494946e+01	2.679433e+02
1.860000e-06	5.390968e-06	4.030365e-09	4.541614e+01	2.688418e+02
1.870000e-06	5.445514e-06	4.043116e-09	4.587565e+01	2.697056e+02
1.880000e-06	5.499195e-06	4.057029e-09	4.632789e+01	2.705376e+02
1.890000e-06	5.551913e-06	4.071569e-09	4.677202e+01	2.713406e+02
1.900000e-06	5.603589e-06	4.084916e-09	4.720736e+01	2.721173e+02
1.910000e-06	5.653943e-06	4.098124e-09	4.763156e+01	2.728700e+02
1.920000e-06	5.702823e-06	4.110207e-09	4.804336e+01	2.736006e+02
1.930000e-06	5.750583e-06	4.121828e-09	4.844571e+01	2.743106e+02
1.940000e-06	5.797454e-06	4.131925e-09	4.884057e+01	2.750009e+02
1.950000e-06	5.843337e-06	4.140815e-09	4.922711e+01	2.756720e+02
1.960000e-06	5.888184e-06	4.149930e-09	4.960493e+01	2.763240e+02
1.970000e-06	5.932122e-06	4.157814e-09	4.997508e+01	2.769570e+02
1.980000e-06	5.975057e-06	4.166412e-09	5.033678e+01	2.775704e+02
1.990000e-06	6.016703e-06	4.176513e-09	5.068763e+01	2.781641e+02
2.000000e-06	6.057078e-06	4.186071e-09	5.102777e+01	2.787375e+02
2.010000e-06	6.096390e-06	4.195198e-09	5.135895e+01	2.792905e+02
2.020000e-06	6.134731e-06	4.205106e-09	5.168195e+01	2.798230e+02
2.030000e-06	6.172080e-06	4.214712e-09	5.199661e+01	2.803351e+02
2.040000e-06	6.208456e-06	4.223483e-09	5.230305e+01	2.808272e+02
2.050000e-06	6.243917e-06	4.231497e-09	5.260179e+01	2.812999e+02
2.060000e-06	6.278237e-06	4.238122e-09	5.289092e+01	2.817539e+02
2.070000e-06	6.311181e-06	4.245536e-09	5.316845e+01	2.821900e+02
2.080000e-06	6.342942e-06	4.253344e-09	5.343603e+01	2.826089e+02
2.090000e-06	6.373691e-06	4.259762e-09	5.369507e+01	2.830115e+02
2.100000e-06	6.403379e-06	4.265672e-09	5.394518e+01	2.833985e+02
2.110000e-06	6.432073e-06	4.272071e-09	5.418691e+01	2.837702e+02
2.120000e-06	6.459869e-06	4.278726e-09	5.442107e+01	2.841269e+02
2.130000e-06	6.486523e-06	4.284183e-09	5.464562e+01	2.844686e+02
2.140000e-06	6.511824e-06	4.288751e-09	5.485877e+01	2.847952e+02
2.150000e-06	6.535843e-06	4.294026e-09	5.506112e+01	2.851063e+02
2.160000e-06	6.558711e-06	4.299244e-09	5.525377e+01	2.854012e+02
2.170000e-06	6.580529e-06	4.304975e-09	5.543758e+01	2.856794e+02
2.180000e-06	6.601338e-06	4.309173e-09	5.561288e+01	2.859403e+02
2.190000e-06	6.621171e-06	4.310397e-09	5.577996e+01	2.861831e+02
2.200000e-06	6.639975e-06	4.314537e-09	5.593837e+01	2.864074e+02
2.210000e-06	6.657627e-06	4.319824e-09	5.608708e+01	2.866129e+02
2.220000e-06	6.674047e-06	4.323046e-09	5.622542e+01	2.867993e+02
2.230000e-06	6.689152e-06	4.325021e-09	5.635267e+01	2.869666e+02
2.240000e-06	6.702917e-06	4.328112e-09	5.646863e+01	2.871151e+02
2.250000e-06	6.715401e-06	4.331768e-09	5.657380e+01	2.872450e+02
2.260000e-06	6.726591e-06	4.334873e-09	5.666807e+01	2.873569e+02
2.270000e-06	6.736301e-06	4.338542e-09	5.674987e+01	2.874513e+02
2.280000e-06	6.744592e-06	4.340882e-09	5.681972e+01	2.875288e+02
2.290000e-06	6.751769e-06	4.341781e-09	5.688019e+01	2.875900e+02
2.300000e-06	6.757878e-06	4.342373e-09	5.693165e+01	2.876353e+02
2.310000e-06	6.762829e-06	4.343201e-09	5.697336e+01	2.876653e+02
2.320000e-06	6.766734e-06	4.345028e-09	5.700626e+01	2.876804e+02
2.330000e-06	6.769540e-06	4.347192e-09	5.702990e+01	2.876810e+02
2.340000e-06	6.770917e-06	4.349237e-09	5.704150e+01	2.876675e+02
2.350000e-06	6.770902e-06	4.350175e-09	5.704137e+01	2.876403e+02
2.360000e-06	6.769806e-06	4.348822e-09	5.703214e+01	2.875998e+02
2.370000e-06	6.767701e-06	4.349025e-09	5.701440e+01	2.875469e+02
2.380000e-06	6.764533e-06	4.348389e-09	5.698772e+01	2.874822e+02
2.390000e-06	6.760360e-06	4.346999e-09	5.695256e+01	2.874071e+02
2.400000e-06	6.755130e-06	4.345477e-09	5.690850e+01	2.873227e+02
2.410000e-06	6.748581e-06	4.344327e-09	5.685333e+01	2.872307e+02
2.420000e-06	6.740714e-06	4.344183e-09	5.678705e+01	2.871328e+02
2.430000e-06	6.731863e-06	4.331728e-09	5.671249e+01	2.870308e+02
2.440000e-06	6.722064e-06	4.319205e-09	5.662993e+01	2.869265e+02
2.450000e-06	6.710803e-06	4.305399e-09	5.653507e+01	2.868217e+02
2.460000e-06	6.697539e-06	4.300750e-09	5.642333e+01	2.867176e+02
2.470000e-06	6.682449e-06	4.328728e-09	5.629620e+01	2.866152e+02
2.480000e-06	6.666392e-06	4.350518e-09	5.616093e+01	2.865147e+02
2.490000e-06	6.649911e-06	4.364151e-09	5.602208e+01	2.864158e+02
2.500000e-06	6.632563e-06	4.355613e-09	5.587593e+01	2.863172e+02
2.510000e-06	6.613760e-06	4.300643e-09	5.571753e+01	2.862169e+02
2.520000e-06	6.593924e-06	4.322511e-09	5.555042e+01	2.861120e+02
2.530000e-06	6.573341e-06	4.363474e-09	5.537702e+01	2.859989e+02
2.540000e-06	6.551312e-06	4.365439e-09	5.519144e+01	2.858732e+02
2.550000e-06	6.527781e-06	4.392666e-09	5.499320e+01	2.857301e+02
2.560000e-06	6.503316e-06	4.365152e-09	5.478710e+01	2.855647e+02
2.570000e-06	6.477936e-06	4.333065e-09	5.457328e+01	2.853720e+02
2.580000e-06	6.451458e-06	4.383792e-09	5.435022e+01	2.851473e+02
2.590000e-06	6.423867e-06	4.401770e-09	5.411778e+01	2.848864e+02
2.600000e-06	6.395293e-06	4.362531e-09	5.387706e+01	2.845860e+02
2.610000e-06	6.365662e-06	4.376323e-09	5.362743e+01	2.842439e+02
2.620000e-06	6.334579e-06	4.395282e-09	5.336558e+01	2.838588e+02
2.630000e-06	6.302144e-06	4.410717e-09	5.309232e+01	2.834310e+02
2.640000e-06	6.268708e-06	4.357474e-09	5.281064e+01	2.829617e+02
2.650000e-06	6.234172e-06	4.302560e-09	5.251969e+01	2.824535e+02
2.660000e-06	6.198507e-06	4.379538e-09	5.221923e+01	2.819101e+02
2.670000e-06	6.161814e-06	4.363285e-09	5.191011e+01	2.813359e+02
2.680000e-06	6.123850e-06	4.309060e-09	5.159029e+01	2.807359e+02
2.690000e-06	6.084453e-06	4.327555e-09	5.125839e+01	2.801151e+02
2.700000e-06	6.044014e-06	4.305231e-09	5.091771e+01	2.794788e+02
2.710000e-06	6.002749e-06	4.308656e-09	5.057007e+01	2.788315e+02
2.720000e-06	5.960334e-06	4.306305e-09	5.021275e+01	2.781770e+02
2.730000e-06	5.916766e-06	4.277215e-09	4.984571e+01	2.775182e+02
2.740000e-06	5.872321e-06	4.256380e-09	4.947128e+01	2.768568e+02
2.750000e-06	5.826996e-06	4.248466e-09	4.908944e+01	2.761931e+02
2.760000e-06	5.780612e-06	4.281961e-09	4.869868e+01	2.755262e+02
2.770000e-06	5.733101e-06	4.244142e-09	4.829843e+01	2.748539e+02
2.780000e-06	5.684576e-06	4.193751e-09	4.788963e+01	2.741730e+02
2.790000e-06	5.634972e-06	4.210744e-09	4.747174e+01	2.734795e+02
2.800000e-06	5.584244e-06	4.226157e-09	4.704439e+01	2.727688e+02
2.810000e-06	5.532535e-06	4.211279e-09	4.660876e+01	2.720360e+02
2.820000e-06	5.479802e-06	4.144877e-09	4.616452e+01	2.712766e+02
2.830000e-06	5.425835e-06	4.142847e-09	4.570987e+01	2.704864e+02
2.840000e-06	5.370648e-06	4.175401e-09	4.524495e+01	2.696619e+02
2.850000e-06	5.314519e-06	4.151818e-09	4.477209e+01	2.688007e+02
2.860000e-06	5.257513e-06	4.118097e-09	4.429184e+01	2.679013e+02
2.870000e-06	5.199598e-06	4.089748e-09	4.380394e+01	2.669636e+02
2.880000e-06	5.140898e-06	4.094839e-09	4.330942e+01	2.659885e+02
2.890000e-06	5.081464e-06	4.090580e-09	4.280872e+01	2.649776e+02
2.900000e-06	5.021217e-06	4.071365e-09	4.230117e+01	2.639338e+02
2.910000e-06	4.960038e-06	4.043762e-09	4.178577e+01	2.628600e+02
2.920000e-06	4.897831e-06	4.014737e-09	4.126171e+01	2.617595e+02
2.930000e-06	4.834685e-06	4.017174e-09	4.072974e+01	2.606354e+02
2.940000e-06	4.770672e-06	4.008347e-09	4.019046e+01	2.594903e+02
2.950000e-06	4.705812e-06	3.979433e-09	3.964405e+01	2.583259e+02
