# Temperatura_=_20.0
# Concentracion g/m^3_=_9000.0
# C_Vs_to_Am_M_A/Vsm_=_65563218390.804596
# pendiente_HvsI_1/m_=_3716.3
# ordenada_HvsI_A/m_=_1297.0
# frecuencia_Hz_=_212907.93535438052

Tiempo_(s)	Campo_(V.s)	Magnetizacion_(V.s)	Campo_(kA/m)	Magnetizacion_(A/m)
0.000000e+00	-6.705444e-06	-4.295174e-09	-5.696467e+01	-2.812777e+02
1.000000e-08	-6.704260e-06	-4.293790e-09	-5.695462e+01	-2.812263e+02
2.000000e-08	-6.701642e-06	-4.294874e-09	-5.693238e+01	-2.811557e+02
3.000000e-08	-6.697878e-06	-4.294367e-09	-5.690040e+01	-2.810682e+02
4.000000e-08	-6.693196e-06	-4.292417e-09	-5.686062e+01	-2.809669e+02
5.000000e-08	-6.687440e-06	-4.288878e-09	-5.681172e+01	-2.808563e+02
6.000000e-08	-6.680524e-06	-4.286834e-09	-5.675297e+01	-2.807416e+02
7.000000e-08	-6.672616e-06	-4.283734e-09	-5.668579e+01	-2.806289e+02
8.000000e-08	-6.663548e-06	-4.278895e-09	-5.660876e+01	-2.805245e+02
9.000000e-08	-6.652928e-06	-4.297788e-09	-5.651854e+01	-2.804347e+02
1.000000e-07	-6.640720e-06	-4.332808e-09	-5.641482e+01	-2.803657e+02
1.100000e-07	-6.626992e-06	-4.334309e-09	-5.629820e+01	-2.803225e+02
1.200000e-07	-6.611748e-06	-4.286426e-09	-5.616870e+01	-2.803091e+02
1.300000e-07	-6.595144e-06	-4.206839e-09	-5.602765e+01	-2.803277e+02
1.400000e-07	-6.577589e-06	-4.225258e-09	-5.587851e+01	-2.803788e+02
1.500000e-07	-6.559244e-06	-4.333711e-09	-5.572267e+01	-2.804607e+02
1.600000e-07	-6.540048e-06	-4.305330e-09	-5.555959e+01	-2.805695e+02
1.700000e-07	-6.519957e-06	-4.235221e-09	-5.538891e+01	-2.806993e+02
1.800000e-07	-6.498716e-06	-4.226735e-09	-5.520846e+01	-2.808421e+02
1.900000e-07	-6.476407e-06	-4.225503e-09	-5.501894e+01	-2.809884e+02
2.000000e-07	-6.453285e-06	-4.309785e-09	-5.482252e+01	-2.811273e+02
2.100000e-07	-6.429023e-06	-4.346649e-09	-5.461640e+01	-2.812475e+02
2.200000e-07	-6.403314e-06	-4.236983e-09	-5.439800e+01	-2.813372e+02
2.300000e-07	-6.376339e-06	-4.250215e-09	-5.416884e+01	-2.813853e+02
2.400000e-07	-6.348346e-06	-4.355637e-09	-5.393103e+01	-2.813816e+02
2.500000e-07	-6.319358e-06	-4.314461e-09	-5.368477e+01	-2.813174e+02
2.600000e-07	-6.289271e-06	-4.236046e-09	-5.342917e+01	-2.811861e+02
2.700000e-07	-6.258128e-06	-4.212223e-09	-5.316460e+01	-2.809834e+02
2.800000e-07	-6.226045e-06	-4.255683e-09	-5.289204e+01	-2.807075e+02
2.900000e-07	-6.192814e-06	-4.297511e-09	-5.260974e+01	-2.803590e+02
3.000000e-07	-6.158150e-06	-4.238883e-09	-5.231525e+01	-2.799411e+02
3.100000e-07	-6.122259e-06	-4.189129e-09	-5.201035e+01	-2.794593e+02
3.200000e-07	-6.085307e-06	-4.206827e-09	-5.169643e+01	-2.789206e+02
3.300000e-07	-6.047215e-06	-4.227519e-09	-5.137283e+01	-2.783336e+02
3.400000e-07	-6.008097e-06	-4.225676e-09	-5.104051e+01	-2.777077e+02
3.500000e-07	-5.968038e-06	-4.190751e-09	-5.070020e+01	-2.770522e+02
3.600000e-07	-5.926779e-06	-4.151324e-09	-5.034969e+01	-2.763762e+02
3.700000e-07	-5.884156e-06	-4.170504e-09	-4.998760e+01	-2.756879e+02
3.800000e-07	-5.840435e-06	-4.214467e-09	-4.961618e+01	-2.749939e+02
3.900000e-07	-5.795703e-06	-4.172904e-09	-4.923617e+01	-2.742994e+02
4.000000e-07	-5.749913e-06	-4.102648e-09	-4.884717e+01	-2.736072e+02
4.100000e-07	-5.703168e-06	-4.134746e-09	-4.845005e+01	-2.729184e+02
4.200000e-07	-5.655463e-06	-4.171719e-09	-4.804479e+01	-2.722318e+02
4.300000e-07	-5.606539e-06	-4.127102e-09	-4.762916e+01	-2.715446e+02
4.400000e-07	-5.556234e-06	-4.083745e-09	-4.720181e+01	-2.708525e+02
4.500000e-07	-5.504695e-06	-4.088025e-09	-4.676397e+01	-2.701502e+02
4.600000e-07	-5.452141e-06	-4.102116e-09	-4.631750e+01	-2.694315e+02
4.700000e-07	-5.398655e-06	-4.088710e-09	-4.586313e+01	-2.686906e+02
4.800000e-07	-5.344173e-06	-4.063079e-09	-4.540028e+01	-2.679217e+02
4.900000e-07	-5.288846e-06	-4.040353e-09	-4.493027e+01	-2.671198e+02
5.000000e-07	-5.232816e-06	-4.037514e-09	-4.445427e+01	-2.662812e+02
5.100000e-07	-5.175891e-06	-4.047368e-09	-4.397068e+01	-2.654034e+02
5.200000e-07	-5.117818e-06	-4.025671e-09	-4.347734e+01	-2.644857e+02
5.300000e-07	-5.058653e-06	-3.987056e-09	-4.297471e+01	-2.635284e+02
5.400000e-07	-4.998672e-06	-3.974084e-09	-4.246516e+01	-2.625336e+02
5.500000e-07	-4.937978e-06	-3.982984e-09	-4.194954e+01	-2.615040e+02
5.600000e-07	-4.876518e-06	-3.972032e-09	-4.142742e+01	-2.604435e+02
5.700000e-07	-4.814211e-06	-3.933738e-09	-4.089810e+01	-2.593560e+02
5.800000e-07	-4.751065e-06	-3.910585e-09	-4.036167e+01	-2.582456e+02
5.900000e-07	-4.687200e-06	-3.913603e-09	-3.981911e+01	-2.571155e+02
6.000000e-07	-4.622540e-06	-3.908338e-09	-3.926981e+01	-2.559685e+02
6.100000e-07	-4.556792e-06	-3.876525e-09	-3.871126e+01	-2.548059e+02
6.200000e-07	-4.489960e-06	-3.845917e-09	-3.814351e+01	-2.536279e+02
6.300000e-07	-4.422385e-06	-3.836418e-09	-3.756943e+01	-2.524330e+02
6.400000e-07	-4.354188e-06	-3.826040e-09	-3.699008e+01	-2.512185e+02
6.500000e-07	-4.285285e-06	-3.804075e-09	-3.640473e+01	-2.499804e+02
6.600000e-07	-4.215568e-06	-3.780874e-09	-3.581246e+01	-2.487137e+02
6.700000e-07	-4.145043e-06	-3.763366e-09	-3.521334e+01	-2.474127e+02
6.800000e-07	-4.073854e-06	-3.747568e-09	-3.460856e+01	-2.460717e+02
6.900000e-07	-4.002009e-06	-3.727450e-09	-3.399822e+01	-2.446849e+02
7.000000e-07	-3.929389e-06	-3.701682e-09	-3.338129e+01	-2.432473e+02
7.100000e-07	-3.855813e-06	-3.671929e-09	-3.275624e+01	-2.417545e+02
7.200000e-07	-3.781281e-06	-3.647983e-09	-3.212307e+01	-2.402036e+02
7.300000e-07	-3.706000e-06	-3.626569e-09	-3.148354e+01	-2.385930e+02
7.400000e-07	-3.630066e-06	-3.596249e-09	-3.083845e+01	-2.369224e+02
7.500000e-07	-3.553363e-06	-3.564302e-09	-3.018684e+01	-2.351929e+02
7.600000e-07	-3.475896e-06	-3.541680e-09	-2.952874e+01	-2.334068e+02
7.700000e-07	-3.397801e-06	-3.519360e-09	-2.886530e+01	-2.315670e+02
7.800000e-07	-3.319085e-06	-3.485244e-09	-2.819658e+01	-2.296769e+02
7.900000e-07	-3.239577e-06	-3.449265e-09	-2.752114e+01	-2.277402e+02
8.000000e-07	-3.159230e-06	-3.422487e-09	-2.683857e+01	-2.257596e+02
8.100000e-07	-3.078332e-06	-3.397416e-09	-2.615132e+01	-2.237373e+02
8.200000e-07	-2.997042e-06	-3.363086e-09	-2.546073e+01	-2.216740e+02
8.300000e-07	-2.915312e-06	-3.324112e-09	-2.476641e+01	-2.195689e+02
8.400000e-07	-2.833117e-06	-3.292598e-09	-2.406814e+01	-2.174195e+02
8.500000e-07	-2.750573e-06	-3.264516e-09	-2.336691e+01	-2.152213e+02
8.600000e-07	-2.667727e-06	-3.231284e-09	-2.266311e+01	-2.129684e+02
8.700000e-07	-2.584491e-06	-3.192879e-09	-2.195599e+01	-2.106532e+02
8.800000e-07	-2.500812e-06	-3.153272e-09	-2.124512e+01	-2.082672e+02
8.900000e-07	-2.416750e-06	-3.114884e-09	-2.053099e+01	-2.058011e+02
9.000000e-07	-2.332460e-06	-3.076827e-09	-1.981492e+01	-2.032453e+02
9.100000e-07	-2.247918e-06	-3.033216e-09	-1.909671e+01	-2.005905e+02
9.200000e-07	-2.163000e-06	-2.983532e-09	-1.837530e+01	-1.978283e+02
9.300000e-07	-2.077729e-06	-2.938204e-09	-1.765091e+01	-1.949511e+02
9.400000e-07	-1.992125e-06	-2.897884e-09	-1.692367e+01	-1.919527e+02
9.500000e-07	-1.906175e-06	-2.853553e-09	-1.619350e+01	-1.888282e+02
9.600000e-07	-1.819891e-06	-2.800183e-09	-1.546050e+01	-1.855739e+02
9.700000e-07	-1.733293e-06	-2.744169e-09	-1.472482e+01	-1.821874e+02
9.800000e-07	-1.646455e-06	-2.694360e-09	-1.398711e+01	-1.786666e+02
9.900000e-07	-1.559382e-06	-2.644938e-09	-1.324740e+01	-1.750092e+02
1.000000e-06	-1.472048e-06	-2.586369e-09	-1.250547e+01	-1.712126e+02
1.010000e-06	-1.384458e-06	-2.521414e-09	-1.176137e+01	-1.672724e+02
1.020000e-06	-1.296622e-06	-2.458496e-09	-1.101518e+01	-1.631823e+02
1.030000e-06	-1.208566e-06	-2.397504e-09	-1.026712e+01	-1.589327e+02
1.040000e-06	-1.120289e-06	-2.332263e-09	-9.517177e+00	-1.545110e+02
1.050000e-06	-1.031745e-06	-2.260956e-09	-8.764973e+00	-1.499006e+02
1.060000e-06	-9.429469e-07	-2.184888e-09	-8.010605e+00	-1.450809e+02
1.070000e-06	-8.539502e-07	-2.107830e-09	-7.254553e+00	-1.400278e+02
1.080000e-06	-7.647710e-07	-2.029496e-09	-6.496949e+00	-1.347136e+02
1.090000e-06	-6.754166e-07	-1.946196e-09	-5.737859e+00	-1.291082e+02
1.100000e-06	-5.859239e-07	-1.855490e-09	-4.977592e+00	-1.231801e+02
1.110000e-06	-4.962598e-07	-1.759447e-09	-4.215870e+00	-1.168975e+02
1.120000e-06	-4.064471e-07	-1.661051e-09	-3.452885e+00	-1.102298e+02
1.130000e-06	-3.165682e-07	-1.554788e-09	-2.689338e+00	-1.031494e+02
1.140000e-06	-2.266474e-07	-1.439017e-09	-1.925435e+00	-9.563334e+01
1.150000e-06	-1.366935e-07	-1.318346e-09	-1.161251e+00	-8.766480e+01
1.160000e-06	-4.669933e-08	-1.194554e-09	-3.967242e-01	-7.923467e+01
1.170000e-06	4.328027e-08	-1.062851e-09	3.676783e-01	-7.034282e+01
1.180000e-06	1.332805e-07	-9.205465e-10	1.132256e+00	-6.099906e+01
1.190000e-06	2.233104e-07	-7.704216e-10	1.897086e+00	-5.122374e+01
1.200000e-06	3.132511e-07	-6.142815e-10	2.661158e+00	-4.104793e+01
1.210000e-06	4.029872e-07	-4.536411e-10	3.423492e+00	-3.051321e+01
1.220000e-06	4.925449e-07	-2.883046e-10	4.184311e+00	-1.967092e+01
1.230000e-06	5.819732e-07	-1.192712e-10	4.944029e+00	-8.581105e+00
1.240000e-06	6.712387e-07	5.142278e-11	5.702366e+00	2.689031e+00
1.250000e-06	7.603262e-07	2.238486e-10	6.459190e+00	1.406690e+01
1.260000e-06	8.492505e-07	3.969458e-10	7.214627e+00	2.547657e+01
1.270000e-06	9.379628e-07	5.700952e-10	7.968263e+00	3.684097e+01
1.280000e-06	1.026459e-06	7.427097e-10	8.720061e+00	4.808410e+01
1.290000e-06	1.114758e-06	9.137432e-10	9.470192e+00	5.913320e+01
1.300000e-06	1.202848e-06	1.081916e-09	1.021854e+01	6.992076e+01
1.310000e-06	1.290764e-06	1.246706e-09	1.096541e+01	8.038627e+01
1.320000e-06	1.378510e-06	1.403307e-09	1.171084e+01	9.047767e+01
1.330000e-06	1.466029e-06	1.549018e-09	1.245434e+01	1.001524e+02
1.340000e-06	1.553287e-06	1.688161e-09	1.319562e+01	1.093782e+02
1.350000e-06	1.640280e-06	1.820368e-09	1.393465e+01	1.181330e+02
1.360000e-06	1.727029e-06	1.942727e-09	1.467161e+01	1.264052e+02
1.370000e-06	1.813550e-06	2.056296e-09	1.540663e+01	1.341927e+02
1.380000e-06	1.899773e-06	2.164023e-09	1.613912e+01	1.415025e+02
1.390000e-06	1.985652e-06	2.267651e-09	1.686869e+01	1.483488e+02
1.400000e-06	2.071213e-06	2.364989e-09	1.759555e+01	1.547526e+02
1.410000e-06	2.156458e-06	2.455211e-09	1.831973e+01	1.607392e+02
1.420000e-06	2.241412e-06	2.540285e-09	1.904144e+01	1.663376e+02
1.430000e-06	2.326066e-06	2.619680e-09	1.976060e+01	1.715785e+02
1.440000e-06	2.410342e-06	2.694557e-09	2.047655e+01	1.764931e+02
1.450000e-06	2.494258e-06	2.765500e-09	2.118944e+01	1.811117e+02
1.460000e-06	2.577788e-06	2.833669e-09	2.189905e+01	1.854632e+02
1.470000e-06	2.660996e-06	2.897914e-09	2.260593e+01	1.895738e+02
1.480000e-06	2.743879e-06	2.957680e-09	2.331004e+01	1.934669e+02
1.490000e-06	2.826218e-06	3.014858e-09	2.400954e+01	1.971626e+02
1.500000e-06	2.907965e-06	3.067999e-09	2.470400e+01	2.006779e+02
1.510000e-06	2.989199e-06	3.116972e-09	2.539410e+01	2.040266e+02
1.520000e-06	3.069905e-06	3.163165e-09	2.607973e+01	2.072200e+02
1.530000e-06	3.150118e-06	3.207072e-09	2.676116e+01	2.102668e+02
1.540000e-06	3.229725e-06	3.248290e-09	2.743744e+01	2.131743e+02
1.550000e-06	3.308626e-06	3.287244e-09	2.810773e+01	2.159482e+02
1.560000e-06	3.386868e-06	3.324338e-09	2.877242e+01	2.185938e+02
1.570000e-06	3.464436e-06	3.359826e-09	2.943138e+01	2.211159e+02
1.580000e-06	3.541365e-06	3.394650e-09	3.008491e+01	2.235195e+02
1.590000e-06	3.617677e-06	3.428667e-09	3.073321e+01	2.258099e+02
1.600000e-06	3.693308e-06	3.460671e-09	3.137572e+01	2.279930e+02
1.610000e-06	3.768125e-06	3.490220e-09	3.201130e+01	2.300751e+02
1.620000e-06	3.842022e-06	3.518806e-09	3.263908e+01	2.320631e+02
1.630000e-06	3.914993e-06	3.545726e-09	3.325899e+01	2.339644e+02
1.640000e-06	3.987196e-06	3.571365e-09	3.387238e+01	2.357863e+02
1.650000e-06	4.058732e-06	3.596059e-09	3.448010e+01	2.375362e+02
1.660000e-06	4.129622e-06	3.619517e-09	3.508233e+01	2.392213e+02
1.670000e-06	4.199823e-06	3.643268e-09	3.567871e+01	2.408481e+02
1.680000e-06	4.269318e-06	3.669013e-09	3.626909e+01	2.424226e+02
1.690000e-06	4.338100e-06	3.693825e-09	3.685340e+01	2.439495e+02
1.700000e-06	4.406168e-06	3.715719e-09	3.743166e+01	2.454330e+02
1.710000e-06	4.473579e-06	3.735950e-09	3.800434e+01	2.468761e+02
1.720000e-06	4.540218e-06	3.756258e-09	3.857046e+01	2.482808e+02
1.730000e-06	4.605880e-06	3.776055e-09	3.912827e+01	2.496482e+02
1.740000e-06	4.670508e-06	3.792521e-09	3.967731e+01	2.509787e+02
1.750000e-06	4.734299e-06	3.809560e-09	4.021924e+01	2.522722e+02
1.760000e-06	4.797381e-06	3.828328e-09	4.075513e+01	2.535280e+02
1.770000e-06	4.859740e-06	3.847547e-09	4.128489e+01	2.547453e+02
1.780000e-06	4.921371e-06	3.865468e-09	4.180846e+01	2.559233e+02
1.790000e-06	4.982249e-06	3.881945e-09	4.232564e+01	2.570611e+02
1.800000e-06	5.042390e-06	3.899319e-09	4.283656e+01	2.581583e+02
1.810000e-06	5.101794e-06	3.915128e-09	4.334121e+01	2.592146e+02
1.820000e-06	5.160240e-06	3.929914e-09	4.383773e+01	2.602302e+02
1.830000e-06	5.217452e-06	3.944038e-09	4.432376e+01	2.612056e+02
1.840000e-06	5.273609e-06	3.957572e-09	4.480082e+01	2.621416e+02
1.850000e-06	5.328969e-06	3.973252e-09	4.527112e+01	2.630397e+02
1.860000e-06	5.383432e-06	3.988851e-09	4.573380e+01	2.639011e+02
1.870000e-06	5.436968e-06	4.002242e-09	4.618861e+01	2.647278e+02
1.880000e-06	5.489620e-06	4.015038e-09	4.663590e+01	2.655214e+02
1.890000e-06	5.541140e-06	4.027744e-09	4.707358e+01	2.662840e+02
1.900000e-06	5.591271e-06	4.039549e-09	4.749946e+01	2.670175e+02
1.910000e-06	5.640065e-06	4.050295e-09	4.791397e+01	2.677237e+02
1.920000e-06	5.687741e-06	4.060317e-09	4.831900e+01	2.684045e+02
1.930000e-06	5.734417e-06	4.069547e-09	4.871552e+01	2.690618e+02
1.940000e-06	5.780138e-06	4.079722e-09	4.910393e+01	2.696972e+02
1.950000e-06	5.824940e-06	4.090003e-09	4.948455e+01	2.703124e+02
1.960000e-06	5.868867e-06	4.098569e-09	4.985771e+01	2.709088e+02
1.970000e-06	5.911825e-06	4.107570e-09	5.022266e+01	2.714880e+02
1.980000e-06	5.953485e-06	4.116259e-09	5.057656e+01	2.720511e+02
1.990000e-06	5.993870e-06	4.123721e-09	5.091965e+01	2.725995e+02
2.000000e-06	6.033159e-06	4.133053e-09	5.125342e+01	2.731342e+02
2.010000e-06	6.071432e-06	4.143724e-09	5.157856e+01	2.736558e+02
2.020000e-06	6.108773e-06	4.152465e-09	5.189579e+01	2.741652e+02
2.030000e-06	6.145157e-06	4.160176e-09	5.220487e+01	2.746625e+02
2.040000e-06	6.180637e-06	4.169310e-09	5.250629e+01	2.751479e+02
2.050000e-06	6.215008e-06	4.179141e-09	5.279828e+01	2.756209e+02
2.060000e-06	6.248039e-06	4.187854e-09	5.307889e+01	2.760811e+02
2.070000e-06	6.279909e-06	4.194894e-09	5.334963e+01	2.765273e+02
2.080000e-06	6.310785e-06	4.200726e-09	5.361193e+01	2.769586e+02
2.090000e-06	6.340671e-06	4.206919e-09	5.386583e+01	2.773734e+02
2.100000e-06	6.369551e-06	4.213503e-09	5.411117e+01	2.777702e+02
2.110000e-06	6.397507e-06	4.219446e-09	5.434866e+01	2.781477e+02
2.120000e-06	6.424353e-06	4.223658e-09	5.457673e+01	2.785042e+02
2.130000e-06	6.449788e-06	4.228175e-09	5.479280e+01	2.788387e+02
2.140000e-06	6.473903e-06	4.235086e-09	5.499767e+01	2.791503e+02
2.150000e-06	6.496895e-06	4.241151e-09	5.519299e+01	2.794385e+02
2.160000e-06	6.518861e-06	4.244695e-09	5.537960e+01	2.797032e+02
2.170000e-06	6.539837e-06	4.246804e-09	5.555779e+01	2.799449e+02
2.180000e-06	6.559843e-06	4.249720e-09	5.572775e+01	2.801646e+02
2.190000e-06	6.578807e-06	4.254552e-09	5.588886e+01	2.803634e+02
2.200000e-06	6.596606e-06	4.258537e-09	5.604007e+01	2.805432e+02
2.210000e-06	6.613243e-06	4.260568e-09	5.618141e+01	2.807058e+02
2.220000e-06	6.628654e-06	4.262698e-09	5.631232e+01	2.808530e+02
2.230000e-06	6.642753e-06	4.266345e-09	5.643210e+01	2.809866e+02
2.240000e-06	6.655592e-06	4.269296e-09	5.654117e+01	2.811083e+02
2.250000e-06	6.667192e-06	4.271035e-09	5.663971e+01	2.812192e+02
2.260000e-06	6.677408e-06	4.274020e-09	5.672650e+01	2.813199e+02
2.270000e-06	6.686132e-06	4.277223e-09	5.680061e+01	2.814105e+02
2.280000e-06	6.693592e-06	4.278315e-09	5.686399e+01	2.814905e+02
2.290000e-06	6.699966e-06	4.278129e-09	5.691814e+01	2.815589e+02
2.300000e-06	6.705207e-06	4.278866e-09	5.696266e+01	2.816143e+02
2.310000e-06	6.709365e-06	4.280454e-09	5.699798e+01	2.816548e+02
2.320000e-06	6.712425e-06	4.282353e-09	5.702398e+01	2.816786e+02
2.330000e-06	6.714136e-06	4.283037e-09	5.703852e+01	2.816842e+02
2.340000e-06	6.714487e-06	4.284121e-09	5.704150e+01	2.816701e+02
2.350000e-06	6.713736e-06	4.286107e-09	5.703512e+01	2.816357e+02
2.360000e-06	6.711930e-06	4.284877e-09	5.701977e+01	2.815813e+02
2.370000e-06	6.709080e-06	4.281602e-09	5.699556e+01	2.815080e+02
2.380000e-06	6.705257e-06	4.279542e-09	5.696309e+01	2.814181e+02
2.390000e-06	6.700380e-06	4.279061e-09	5.692165e+01	2.813151e+02
2.400000e-06	6.694143e-06	4.279637e-09	5.686867e+01	2.812035e+02
2.410000e-06	6.686596e-06	4.283794e-09	5.680456e+01	2.810886e+02
2.420000e-06	6.678109e-06	4.289866e-09	5.673246e+01	2.809767e+02
2.430000e-06	6.668655e-06	4.272865e-09	5.665214e+01	2.808740e+02
2.440000e-06	6.657870e-06	4.221284e-09	5.656052e+01	2.807870e+02
2.450000e-06	6.645290e-06	4.202863e-09	5.645365e+01	2.807215e+02
2.460000e-06	6.630767e-06	4.238438e-09	5.633027e+01	2.806825e+02
2.470000e-06	6.614974e-06	4.337890e-09	5.619610e+01	2.806737e+02
2.480000e-06	6.598694e-06	4.346507e-09	5.605781e+01	2.806972e+02
2.490000e-06	6.581760e-06	4.225286e-09	5.591395e+01	2.807530e+02
2.500000e-06	6.563518e-06	4.244363e-09	5.575897e+01	2.808392e+02
2.510000e-06	6.544127e-06	4.301887e-09	5.559424e+01	2.809516e+02
2.520000e-06	6.524005e-06	4.307202e-09	5.542330e+01	2.810838e+02
2.530000e-06	6.502553e-06	4.351094e-09	5.524106e+01	2.812277e+02
2.540000e-06	6.479481e-06	4.266066e-09	5.504505e+01	2.813736e+02
2.550000e-06	6.455389e-06	4.177718e-09	5.484038e+01	2.815104e+02
2.560000e-06	6.430473e-06	4.284193e-09	5.462871e+01	2.816267e+02
2.570000e-06	6.404477e-06	4.287916e-09	5.440788e+01	2.817108e+02
2.580000e-06	6.377318e-06	4.210348e-09	5.417715e+01	2.817517e+02
2.590000e-06	6.349208e-06	4.306265e-09	5.393835e+01	2.817394e+02
2.600000e-06	6.320222e-06	4.373161e-09	5.369210e+01	2.816655e+02
2.610000e-06	6.289907e-06	4.357786e-09	5.343457e+01	2.815237e+02
2.620000e-06	6.258128e-06	4.315741e-09	5.316460e+01	2.813100e+02
2.630000e-06	6.225316e-06	4.254992e-09	5.288585e+01	2.810230e+02
2.640000e-06	6.191427e-06	4.319657e-09	5.259795e+01	2.806638e+02
2.650000e-06	6.156284e-06	4.331082e-09	5.229941e+01	2.802359e+02
2.660000e-06	6.120181e-06	4.273108e-09	5.199270e+01	2.797450e+02
2.670000e-06	6.083108e-06	4.284679e-09	5.167775e+01	2.791985e+02
2.680000e-06	6.044616e-06	4.240625e-09	5.135075e+01	2.786050e+02
2.690000e-06	6.004783e-06	4.254605e-09	5.101236e+01	2.779740e+02
2.700000e-06	5.964053e-06	4.308231e-09	5.066634e+01	2.773148e+02
2.710000e-06	5.922316e-06	4.244605e-09	5.031177e+01	2.766364e+02
2.720000e-06	5.879330e-06	4.183321e-09	4.994660e+01	2.759468e+02
2.730000e-06	5.835386e-06	4.207815e-09	4.957328e+01	2.752525e+02
2.740000e-06	5.790737e-06	4.269855e-09	4.919398e+01	2.745581e+02
2.750000e-06	5.745137e-06	4.211987e-09	4.880659e+01	2.738664e+02
2.760000e-06	5.698366e-06	4.132918e-09	4.840926e+01	2.731780e+02
2.770000e-06	5.650591e-06	4.177466e-09	4.800340e+01	2.724914e+02
2.780000e-06	5.601809e-06	4.193508e-09	4.758898e+01	2.718038e+02
2.790000e-06	5.551840e-06	4.168805e-09	4.716448e+01	2.711105e+02
2.800000e-06	5.500861e-06	4.134221e-09	4.673139e+01	2.704060e+02
2.810000e-06	5.448986e-06	4.119823e-09	4.629070e+01	2.696844e+02
2.820000e-06	5.396059e-06	4.129342e-09	4.584107e+01	2.689396e+02
2.830000e-06	5.341873e-06	4.113155e-09	4.538075e+01	2.681659e+02
2.840000e-06	5.286487e-06	4.110357e-09	4.491023e+01	2.673587e+02
2.850000e-06	5.230197e-06	4.079036e-09	4.443203e+01	2.665143e+02
2.860000e-06	5.173059e-06	4.051960e-09	4.394663e+01	2.656306e+02
2.870000e-06	5.115045e-06	4.059042e-09	4.345378e+01	2.647068e+02
2.880000e-06	5.056241e-06	4.051650e-09	4.295422e+01	2.637437e+02
2.890000e-06	4.996696e-06	4.023934e-09	4.244837e+01	2.627434e+02
2.900000e-06	4.936396e-06	3.988805e-09	4.193610e+01	2.617089e+02
2.910000e-06	4.875285e-06	3.994275e-09	4.141695e+01	2.606440e+02
2.920000e-06	4.813142e-06	3.988517e-09	4.088903e+01	2.595528e+02
2.930000e-06	4.749786e-06	3.953294e-09	4.035080e+01	2.584392e+02
2.940000e-06	4.685514e-06	3.933556e-09	3.980479e+01	2.573064e+02
2.950000e-06	4.620588e-06	3.925744e-09	3.925322e+01	2.561569e+02
