# Temperatura_=_20.0
# Concentracion g/m^3_=_9000.0
# C_Vs_to_Am_M_A/Vsm_=_65563218390.804596
# pendiente_HvsI_1/m_=_3716.3
# ordenada_HvsI_A/m_=_1297.0
# frecuencia_Hz_=_212908.94663677766

Tiempo_(s)	Campo_(V.s)	Magnetizacion_(V.s)	Campo_(kA/m)	Magnetizacion_(A/m)
0.000000e+00	-6.675331e-06	-4.395135e-09	-5.696097e+01	-2.876679e+02
1.000000e-08	-6.674089e-06	-4.394953e-09	-5.695037e+01	-2.876580e+02
2.000000e-08	-6.671368e-06	-4.395148e-09	-5.692715e+01	-2.876333e+02
3.000000e-08	-6.667538e-06	-4.395797e-09	-5.689448e+01	-2.875942e+02
4.000000e-08	-6.662769e-06	-4.395513e-09	-5.685378e+01	-2.875413e+02
5.000000e-08	-6.656966e-06	-4.392135e-09	-5.680426e+01	-2.874762e+02
6.000000e-08	-6.650101e-06	-4.388078e-09	-5.674569e+01	-2.874005e+02
7.000000e-08	-6.642292e-06	-4.375232e-09	-5.667905e+01	-2.873166e+02
8.000000e-08	-6.633324e-06	-4.367402e-09	-5.660252e+01	-2.872273e+02
9.000000e-08	-6.622729e-06	-4.421843e-09	-5.651212e+01	-2.871355e+02
1.000000e-07	-6.610470e-06	-4.464561e-09	-5.640751e+01	-2.870443e+02
1.100000e-07	-6.596668e-06	-4.454698e-09	-5.628974e+01	-2.869566e+02
1.200000e-07	-6.581259e-06	-4.358591e-09	-5.615825e+01	-2.868749e+02
1.300000e-07	-6.564621e-06	-4.223173e-09	-5.601628e+01	-2.868008e+02
1.400000e-07	-6.547153e-06	-4.374399e-09	-5.586723e+01	-2.867355e+02
1.500000e-07	-6.528756e-06	-4.504989e-09	-5.571024e+01	-2.866786e+02
1.600000e-07	-6.509572e-06	-4.358183e-09	-5.554654e+01	-2.866289e+02
1.700000e-07	-6.489542e-06	-4.335628e-09	-5.537563e+01	-2.865838e+02
1.800000e-07	-6.468255e-06	-4.306032e-09	-5.519398e+01	-2.865394e+02
1.900000e-07	-6.445961e-06	-4.284090e-09	-5.500375e+01	-2.864906e+02
2.000000e-07	-6.422941e-06	-4.493515e-09	-5.480731e+01	-2.864316e+02
2.100000e-07	-6.398695e-06	-4.413175e-09	-5.460042e+01	-2.863558e+02
2.200000e-07	-6.372975e-06	-4.191689e-09	-5.438095e+01	-2.862561e+02
2.300000e-07	-6.346025e-06	-4.352814e-09	-5.415098e+01	-2.861255e+02
2.400000e-07	-6.318006e-06	-4.471581e-09	-5.391190e+01	-2.859574e+02
2.500000e-07	-6.289000e-06	-4.377071e-09	-5.366439e+01	-2.857460e+02
2.600000e-07	-6.258872e-06	-4.274369e-09	-5.340731e+01	-2.854863e+02
2.700000e-07	-6.227680e-06	-4.242826e-09	-5.314114e+01	-2.851750e+02
2.800000e-07	-6.195686e-06	-4.363916e-09	-5.286813e+01	-2.848102e+02
2.900000e-07	-6.162554e-06	-4.399680e-09	-5.258541e+01	-2.843915e+02
3.000000e-07	-6.128006e-06	-4.265109e-09	-5.229062e+01	-2.839205e+02
3.100000e-07	-6.092225e-06	-4.246947e-09	-5.198530e+01	-2.834000e+02
3.200000e-07	-6.055309e-06	-4.297351e-09	-5.167029e+01	-2.828344e+02
3.300000e-07	-6.017262e-06	-4.297700e-09	-5.134564e+01	-2.822290e+02
3.400000e-07	-5.978199e-06	-4.306646e-09	-5.101231e+01	-2.815901e+02
3.500000e-07	-5.938238e-06	-4.267606e-09	-5.067132e+01	-2.809239e+02
3.600000e-07	-5.897004e-06	-4.186531e-09	-5.031946e+01	-2.802369e+02
3.700000e-07	-5.854404e-06	-4.241164e-09	-4.995596e+01	-2.795347e+02
3.800000e-07	-5.810806e-06	-4.334347e-09	-4.958393e+01	-2.788225e+02
3.900000e-07	-5.766130e-06	-4.213811e-09	-4.920271e+01	-2.781040e+02
4.000000e-07	-5.720370e-06	-4.126408e-09	-4.881224e+01	-2.773815e+02
4.100000e-07	-5.673764e-06	-4.229608e-09	-4.841454e+01	-2.766562e+02
4.200000e-07	-5.626285e-06	-4.260630e-09	-4.800941e+01	-2.759274e+02
4.300000e-07	-5.577621e-06	-4.170810e-09	-4.759415e+01	-2.751933e+02
4.400000e-07	-5.527534e-06	-4.128938e-09	-4.716676e+01	-2.744509e+02
4.500000e-07	-5.476160e-06	-4.166756e-09	-4.672838e+01	-2.736960e+02
4.600000e-07	-5.423677e-06	-4.179017e-09	-4.628054e+01	-2.729243e+02
4.700000e-07	-5.370211e-06	-4.143292e-09	-4.582431e+01	-2.721310e+02
4.800000e-07	-5.315888e-06	-4.107167e-09	-4.536077e+01	-2.713114e+02
4.900000e-07	-5.260700e-06	-4.095467e-09	-4.488985e+01	-2.704616e+02
5.000000e-07	-5.204786e-06	-4.109414e-09	-4.441273e+01	-2.695781e+02
5.100000e-07	-5.148126e-06	-4.101864e-09	-4.392925e+01	-2.686588e+02
5.200000e-07	-5.090383e-06	-4.065908e-09	-4.343652e+01	-2.677024e+02
5.300000e-07	-5.031496e-06	-4.036746e-09	-4.293404e+01	-2.667088e+02
5.400000e-07	-4.971673e-06	-4.034995e-09	-4.242356e+01	-2.656791e+02
5.500000e-07	-4.911135e-06	-4.049629e-09	-4.190699e+01	-2.646152e+02
5.600000e-07	-4.849880e-06	-4.026630e-09	-4.138430e+01	-2.635196e+02
5.700000e-07	-4.787727e-06	-3.968786e-09	-4.085394e+01	-2.623952e+02
5.800000e-07	-4.724749e-06	-3.950048e-09	-4.031655e+01	-2.612448e+02
5.900000e-07	-4.661124e-06	-3.978118e-09	-3.977364e+01	-2.600712e+02
6.000000e-07	-4.596674e-06	-3.961736e-09	-3.922367e+01	-2.588761e+02
6.100000e-07	-4.531070e-06	-3.900292e-09	-3.866387e+01	-2.576606e+02
6.200000e-07	-4.464386e-06	-3.881414e-09	-3.809486e+01	-2.564248e+02
6.300000e-07	-4.396957e-06	-3.893268e-09	-3.751948e+01	-2.551674e+02
6.400000e-07	-4.328895e-06	-3.875684e-09	-3.693871e+01	-2.538861e+02
6.500000e-07	-4.260112e-06	-3.834970e-09	-3.635177e+01	-2.525774e+02
6.600000e-07	-4.190630e-06	-3.809765e-09	-3.575888e+01	-2.512372e+02
6.700000e-07	-4.120461e-06	-3.799645e-09	-3.516013e+01	-2.498607e+02
6.800000e-07	-4.049567e-06	-3.787000e-09	-3.455518e+01	-2.484426e+02
6.900000e-07	-3.977994e-06	-3.766581e-09	-3.394444e+01	-2.469781e+02
7.000000e-07	-3.905665e-06	-3.733864e-09	-3.332726e+01	-2.454624e+02
7.100000e-07	-3.832477e-06	-3.702738e-09	-3.270274e+01	-2.438919e+02
7.200000e-07	-3.758438e-06	-3.687324e-09	-3.207096e+01	-2.422635e+02
7.300000e-07	-3.683503e-06	-3.669173e-09	-3.143154e+01	-2.405756e+02
7.400000e-07	-3.607731e-06	-3.632445e-09	-3.078497e+01	-2.388276e+02
7.500000e-07	-3.531236e-06	-3.593894e-09	-3.013224e+01	-2.370202e+02
7.600000e-07	-3.454053e-06	-3.572756e-09	-2.947363e+01	-2.351550e+02
7.700000e-07	-3.376275e-06	-3.554712e-09	-2.880994e+01	-2.332344e+02
7.800000e-07	-3.297884e-06	-3.517596e-09	-2.814103e+01	-2.312612e+02
7.900000e-07	-3.218711e-06	-3.474701e-09	-2.746544e+01	-2.292385e+02
8.000000e-07	-3.138753e-06	-3.448968e-09	-2.678315e+01	-2.271687e+02
8.100000e-07	-3.058246e-06	-3.429455e-09	-2.609618e+01	-2.250538e+02
8.200000e-07	-2.977294e-06	-3.391796e-09	-2.540542e+01	-2.228944e+02
8.300000e-07	-2.895807e-06	-3.346314e-09	-2.471008e+01	-2.206901e+02
8.400000e-07	-2.813856e-06	-3.315329e-09	-2.401079e+01	-2.184388e+02
8.500000e-07	-2.731604e-06	-3.290073e-09	-2.330893e+01	-2.161368e+02
8.600000e-07	-2.649055e-06	-3.255144e-09	-2.260453e+01	-2.137790e+02
8.700000e-07	-2.566098e-06	-3.212969e-09	-2.189666e+01	-2.113588e+02
8.800000e-07	-2.482618e-06	-3.171959e-09	-2.118432e+01	-2.088687e+02
8.900000e-07	-2.398715e-06	-3.133466e-09	-2.046837e+01	-2.063004e+02
9.000000e-07	-2.314636e-06	-3.095102e-09	-1.975092e+01	-2.036452e+02
9.100000e-07	-2.230400e-06	-3.051233e-09	-1.903213e+01	-2.008945e+02
9.200000e-07	-2.145894e-06	-2.997959e-09	-1.831103e+01	-1.980405e+02
9.300000e-07	-2.061066e-06	-2.948878e-09	-1.758719e+01	-1.950758e+02
9.400000e-07	-1.975823e-06	-2.910958e-09	-1.685981e+01	-1.919941e+02
9.500000e-07	-1.890195e-06	-2.869079e-09	-1.612914e+01	-1.887904e+02
9.600000e-07	-1.804283e-06	-2.813687e-09	-1.539605e+01	-1.854606e+02
9.700000e-07	-1.718083e-06	-2.756935e-09	-1.466050e+01	-1.820011e+02
9.800000e-07	-1.631626e-06	-2.709052e-09	-1.392276e+01	-1.784091e+02
9.900000e-07	-1.544910e-06	-2.657887e-09	-1.318280e+01	-1.746813e+02
1.000000e-06	-1.457844e-06	-2.592541e-09	-1.243987e+01	-1.708140e+02
1.010000e-06	-1.370464e-06	-2.523587e-09	-1.169425e+01	-1.668017e+02
1.020000e-06	-1.282818e-06	-2.462902e-09	-1.094635e+01	-1.626369e+02
1.030000e-06	-1.194914e-06	-2.404407e-09	-1.019627e+01	-1.583095e+02
1.040000e-06	-1.106835e-06	-2.338895e-09	-9.444685e+00	-1.538060e+02
1.050000e-06	-1.018594e-06	-2.265405e-09	-8.691720e+00	-1.491092e+02
1.060000e-06	-9.301675e-07	-2.187591e-09	-7.937171e+00	-1.441986e+02
1.070000e-06	-8.415809e-07	-2.109501e-09	-7.181257e+00	-1.390497e+02
1.080000e-06	-7.528374e-07	-2.029803e-09	-6.424003e+00	-1.336354e+02
1.090000e-06	-6.639891e-07	-1.943248e-09	-5.665856e+00	-1.279257e+02
1.100000e-06	-5.750851e-07	-1.848381e-09	-4.907233e+00	-1.218898e+02
1.110000e-06	-4.860663e-07	-1.750398e-09	-4.147631e+00	-1.154963e+02
1.120000e-06	-3.969176e-07	-1.651552e-09	-3.386920e+00	-1.087157e+02
1.130000e-06	-3.076332e-07	-1.544273e-09	-2.625051e+00	-1.015209e+02
1.140000e-06	-2.182688e-07	-1.424991e-09	-1.862500e+00	-9.388981e+01
1.150000e-06	-1.288550e-07	-1.301270e-09	-1.099527e+00	-8.580624e+01
1.160000e-06	-3.945041e-08	-1.177069e-09	-3.366325e-01	-7.726176e+01
1.170000e-06	4.989068e-08	-1.043574e-09	4.257200e-01	-6.825681e+01
1.180000e-06	1.392486e-07	-8.985530e-10	1.188216e+00	-5.880170e+01
1.190000e-06	2.286098e-07	-7.465812e-10	1.950740e+00	-4.891721e+01
1.200000e-06	3.178598e-07	-5.887194e-10	2.712315e+00	-3.863479e+01
1.210000e-06	4.070070e-07	-4.267041e-10	3.473014e+00	-2.799636e+01
1.220000e-06	4.960889e-07	-2.595177e-10	4.233155e+00	-1.705359e+01
1.230000e-06	5.850022e-07	-8.861595e-11	4.991856e+00	-5.866813e+00
1.240000e-06	6.737629e-07	8.466391e-11	5.749257e+00	5.496434e+00
1.250000e-06	7.624079e-07	2.593524e-10	6.505669e+00	1.696323e+01
1.260000e-06	8.509148e-07	4.339891e-10	7.260903e+00	2.845732e+01
1.270000e-06	9.392743e-07	6.081049e-10	8.014881e+00	3.990127e+01
1.280000e-06	1.027482e-06	7.816595e-10	8.767558e+00	5.121877e+01
1.290000e-06	1.115511e-06	9.529238e-10	9.518714e+00	6.233676e+01
1.300000e-06	1.203278e-06	1.119143e-09	1.026763e+01	7.318748e+01
1.310000e-06	1.290832e-06	1.282354e-09	1.101474e+01	8.371030e+01
1.320000e-06	1.378189e-06	1.438309e-09	1.176016e+01	9.385311e+01
1.330000e-06	1.465276e-06	1.584753e-09	1.250328e+01	1.035735e+02
1.340000e-06	1.552126e-06	1.724510e-09	1.324438e+01	1.128393e+02
1.350000e-06	1.638787e-06	1.858261e-09	1.398386e+01	1.216291e+02
1.360000e-06	1.725218e-06	1.982821e-09	1.472138e+01	1.299315e+02
1.370000e-06	1.811419e-06	2.097039e-09	1.545694e+01	1.377454e+02
1.380000e-06	1.897413e-06	2.204476e-09	1.619074e+01	1.450783e+02
1.390000e-06	1.983138e-06	2.306009e-09	1.692223e+01	1.519453e+02
1.400000e-06	2.068535e-06	2.400463e-09	1.765093e+01	1.583681e+02
1.410000e-06	2.153516e-06	2.489080e-09	1.837607e+01	1.643731e+02
1.420000e-06	2.238071e-06	2.574658e-09	1.909759e+01	1.699898e+02
1.430000e-06	2.322334e-06	2.655029e-09	1.981660e+01	1.752494e+02
1.440000e-06	2.406355e-06	2.729991e-09	2.053356e+01	1.801838e+02
1.450000e-06	2.490079e-06	2.801302e-09	2.124798e+01	1.848235e+02
1.460000e-06	2.573392e-06	2.868286e-09	2.195890e+01	1.891976e+02
1.470000e-06	2.656207e-06	2.930407e-09	2.266557e+01	1.933322e+02
1.480000e-06	2.738499e-06	2.989324e-09	2.336777e+01	1.972505e+02
1.490000e-06	2.820324e-06	3.045120e-09	2.406598e+01	2.009725e+02
1.500000e-06	2.901620e-06	3.097285e-09	2.475969e+01	2.045147e+02
1.510000e-06	2.982472e-06	3.146922e-09	2.544960e+01	2.078907e+02
1.520000e-06	3.062866e-06	3.193389e-09	2.613561e+01	2.111112e+02
1.530000e-06	3.142564e-06	3.236510e-09	2.681567e+01	2.141850e+02
1.540000e-06	3.221561e-06	3.277719e-09	2.748976e+01	2.171191e+02
1.550000e-06	3.299987e-06	3.317216e-09	2.815897e+01	2.199194e+02
1.560000e-06	3.377847e-06	3.355066e-09	2.882336e+01	2.225913e+02
1.570000e-06	3.455073e-06	3.391698e-09	2.948233e+01	2.251401e+02
1.580000e-06	3.531644e-06	3.426436e-09	3.013571e+01	2.275715e+02
1.590000e-06	3.607543e-06	3.459374e-09	3.078337e+01	2.298913e+02
1.600000e-06	3.682790e-06	3.491343e-09	3.142546e+01	2.321063e+02
1.610000e-06	3.757147e-06	3.521450e-09	3.205994e+01	2.342237e+02
1.620000e-06	3.830495e-06	3.550679e-09	3.268583e+01	2.362512e+02
1.630000e-06	3.903030e-06	3.579088e-09	3.330477e+01	2.381966e+02
1.640000e-06	3.974880e-06	3.605274e-09	3.391787e+01	2.400678e+02
1.650000e-06	4.046017e-06	3.630314e-09	3.452489e+01	2.418724e+02
1.660000e-06	4.116483e-06	3.655001e-09	3.512618e+01	2.436174e+02
1.670000e-06	4.186260e-06	3.679356e-09	3.572159e+01	2.453091e+02
1.680000e-06	4.255240e-06	3.703053e-09	3.631020e+01	2.469524e+02
1.690000e-06	4.323557e-06	3.725374e-09	3.689315e+01	2.485514e+02
1.700000e-06	4.391333e-06	3.746219e-09	3.747149e+01	2.501087e+02
1.710000e-06	4.458489e-06	3.767824e-09	3.804454e+01	2.516259e+02
1.720000e-06	4.524763e-06	3.791156e-09	3.861005e+01	2.531035e+02
1.730000e-06	4.590019e-06	3.812679e-09	3.916689e+01	2.545411e+02
1.740000e-06	4.654364e-06	3.830246e-09	3.971595e+01	2.559376e+02
1.750000e-06	4.717919e-06	3.847576e-09	4.025827e+01	2.572916e+02
1.760000e-06	4.780745e-06	3.867488e-09	4.079437e+01	2.586015e+02
1.770000e-06	4.842818e-06	3.887323e-09	4.132404e+01	2.598660e+02
1.780000e-06	4.904129e-06	3.904628e-09	4.184721e+01	2.610839e+02
1.790000e-06	4.964679e-06	3.920604e-09	4.236388e+01	2.622548e+02
1.800000e-06	5.024512e-06	3.936841e-09	4.287444e+01	2.633788e+02
1.810000e-06	5.083572e-06	3.953853e-09	4.337840e+01	2.644568e+02
1.820000e-06	5.141596e-06	3.969692e-09	4.387353e+01	2.654902e+02
1.830000e-06	5.198496e-06	3.984690e-09	4.435906e+01	2.664812e+02
1.840000e-06	5.254378e-06	4.000799e-09	4.483590e+01	2.674324e+02
1.850000e-06	5.309348e-06	4.016913e-09	4.530496e+01	2.683467e+02
1.860000e-06	5.363440e-06	4.031040e-09	4.576654e+01	2.692272e+02
1.870000e-06	5.416604e-06	4.044641e-09	4.622019e+01	2.700769e+02
1.880000e-06	5.468861e-06	4.057831e-09	4.666610e+01	2.708986e+02
1.890000e-06	5.520004e-06	4.070259e-09	4.710251e+01	2.716946e+02
1.900000e-06	5.569768e-06	4.084334e-09	4.752714e+01	2.724669e+02
1.910000e-06	5.618241e-06	4.097835e-09	4.794076e+01	2.732170e+02
1.920000e-06	5.665656e-06	4.108726e-09	4.834536e+01	2.739458e+02
1.930000e-06	5.712087e-06	4.117933e-09	4.874156e+01	2.746536e+02
1.940000e-06	5.757521e-06	4.129157e-09	4.912925e+01	2.753404e+02
1.950000e-06	5.802002e-06	4.140888e-09	4.950881e+01	2.760061e+02
1.960000e-06	5.845638e-06	4.150048e-09	4.988116e+01	2.766500e+02
1.970000e-06	5.888298e-06	4.160009e-09	5.024518e+01	2.772717e+02
1.980000e-06	5.929662e-06	4.170203e-09	5.059814e+01	2.778708e+02
1.990000e-06	5.969795e-06	4.178628e-09	5.094060e+01	2.784472e+02
2.000000e-06	6.008961e-06	4.186614e-09	5.127480e+01	2.790010e+02
2.010000e-06	6.047200e-06	4.195492e-09	5.160110e+01	2.795325e+02
2.020000e-06	6.084389e-06	4.204200e-09	5.191843e+01	2.800426e+02
2.030000e-06	6.120603e-06	4.212947e-09	5.222745e+01	2.805325e+02
2.040000e-06	6.155969e-06	4.222150e-09	5.252922e+01	2.810034e+02
2.050000e-06	6.190156e-06	4.230610e-09	5.282094e+01	2.814568e+02
2.060000e-06	6.222904e-06	4.238476e-09	5.310039e+01	2.818943e+02
2.070000e-06	6.254525e-06	4.245531e-09	5.337021e+01	2.823172e+02
2.080000e-06	6.285187e-06	4.252123e-09	5.363186e+01	2.827269e+02
2.090000e-06	6.314835e-06	4.258166e-09	5.388484e+01	2.831243e+02
2.100000e-06	6.343508e-06	4.264184e-09	5.412951e+01	2.835099e+02
2.110000e-06	6.371240e-06	4.270066e-09	5.436614e+01	2.838841e+02
2.120000e-06	6.397878e-06	4.275023e-09	5.459345e+01	2.842464e+02
2.130000e-06	6.423100e-06	4.278972e-09	5.480867e+01	2.845965e+02
2.140000e-06	6.446986e-06	4.283645e-09	5.501250e+01	2.849334e+02
2.150000e-06	6.469822e-06	4.289758e-09	5.520735e+01	2.852560e+02
2.160000e-06	6.491649e-06	4.296301e-09	5.539360e+01	2.855632e+02
2.170000e-06	6.512405e-06	4.301743e-09	5.557072e+01	2.858538e+02
2.180000e-06	6.532224e-06	4.305911e-09	5.573983e+01	2.861267e+02
2.190000e-06	6.551094e-06	4.310772e-09	5.590085e+01	2.863812e+02
2.200000e-06	6.568738e-06	4.314166e-09	5.605141e+01	2.866167e+02
2.210000e-06	6.585156e-06	4.316698e-09	5.619151e+01	2.868330e+02
2.220000e-06	6.600326e-06	4.318633e-09	5.632095e+01	2.870302e+02
2.230000e-06	6.614251e-06	4.319999e-09	5.643977e+01	2.872088e+02
2.240000e-06	6.627001e-06	4.321844e-09	5.654857e+01	2.873695e+02
2.250000e-06	6.638554e-06	4.323769e-09	5.664715e+01	2.875132e+02
2.260000e-06	6.648629e-06	4.327001e-09	5.673312e+01	2.876407e+02
2.270000e-06	6.657175e-06	4.330323e-09	5.680605e+01	2.877530e+02
2.280000e-06	6.664525e-06	4.331939e-09	5.686877e+01	2.878510e+02
2.290000e-06	6.670791e-06	4.331817e-09	5.692223e+01	2.879353e+02
2.300000e-06	6.675954e-06	4.332298e-09	5.696629e+01	2.880062e+02
2.310000e-06	6.680042e-06	4.333772e-09	5.700117e+01	2.880638e+02
2.320000e-06	6.683023e-06	4.334762e-09	5.702661e+01	2.881080e+02
2.330000e-06	6.684584e-06	4.336234e-09	5.703993e+01	2.881385e+02
2.340000e-06	6.684768e-06	4.339878e-09	5.704150e+01	2.881549e+02
2.350000e-06	6.683841e-06	4.342898e-09	5.703359e+01	2.881568e+02
2.360000e-06	6.681865e-06	4.341481e-09	5.701673e+01	2.881439e+02
2.370000e-06	6.678875e-06	4.340113e-09	5.699121e+01	2.881163e+02
2.380000e-06	6.674937e-06	4.339238e-09	5.695761e+01	2.880743e+02
2.390000e-06	6.670040e-06	4.341242e-09	5.691582e+01	2.880189e+02
2.400000e-06	6.663843e-06	4.344789e-09	5.686294e+01	2.879515e+02
2.410000e-06	6.656297e-06	4.352476e-09	5.679855e+01	2.878740e+02
2.420000e-06	6.647739e-06	4.377290e-09	5.672553e+01	2.877888e+02
2.430000e-06	6.638334e-06	4.316093e-09	5.664527e+01	2.876988e+02
2.440000e-06	6.627669e-06	4.248051e-09	5.655427e+01	2.876069e+02
2.450000e-06	6.615030e-06	4.238169e-09	5.644642e+01	2.875161e+02
2.460000e-06	6.600317e-06	4.326730e-09	5.632087e+01	2.874294e+02
2.470000e-06	6.584397e-06	4.506398e-09	5.618503e+01	2.873491e+02
2.480000e-06	6.568162e-06	4.371221e-09	5.604649e+01	2.872768e+02
2.490000e-06	6.551246e-06	4.211833e-09	5.590215e+01	2.872132e+02
2.500000e-06	6.532886e-06	4.368789e-09	5.574548e+01	2.871579e+02
2.510000e-06	6.513527e-06	4.344221e-09	5.558029e+01	2.871094e+02
2.520000e-06	6.493606e-06	4.393055e-09	5.541030e+01	2.870647e+02
2.530000e-06	6.472221e-06	4.514961e-09	5.522782e+01	2.870199e+02
2.540000e-06	6.449105e-06	4.243501e-09	5.503057e+01	2.869696e+02
2.550000e-06	6.425023e-06	4.255385e-09	5.482508e+01	2.869078e+02
2.560000e-06	6.400087e-06	4.525663e-09	5.461230e+01	2.868277e+02
2.570000e-06	6.374094e-06	4.361864e-09	5.439050e+01	2.867224e+02
2.580000e-06	6.346958e-06	4.288391e-09	5.415894e+01	2.865848e+02
2.590000e-06	6.318875e-06	4.472936e-09	5.391931e+01	2.864085e+02
2.600000e-06	6.290004e-06	4.485149e-09	5.367296e+01	2.861878e+02
2.610000e-06	6.259713e-06	4.499489e-09	5.341448e+01	2.859181e+02
2.620000e-06	6.227923e-06	4.385548e-09	5.314321e+01	2.855962e+02
2.630000e-06	6.195167e-06	4.346768e-09	5.286371e+01	2.852205e+02
2.640000e-06	6.161262e-06	4.488071e-09	5.257439e+01	2.847912e+02
2.650000e-06	6.126096e-06	4.382601e-09	5.227432e+01	2.843100e+02
2.660000e-06	6.090046e-06	4.390551e-09	5.196670e+01	2.837801e+02
2.670000e-06	6.052954e-06	4.422370e-09	5.165019e+01	2.832061e+02
2.680000e-06	6.014382e-06	4.299891e-09	5.132106e+01	2.825935e+02
2.690000e-06	5.974580e-06	4.371071e-09	5.098142e+01	2.819486e+02
2.700000e-06	5.933971e-06	4.424945e-09	5.063491e+01	2.812778e+02
2.710000e-06	5.892339e-06	4.346497e-09	5.027966e+01	2.805873e+02
2.720000e-06	5.849486e-06	4.247071e-09	4.991399e+01	2.798828e+02
2.730000e-06	5.805739e-06	4.323547e-09	4.954070e+01	2.791690e+02
2.740000e-06	5.761233e-06	4.425183e-09	4.916093e+01	2.784495e+02
2.750000e-06	5.715695e-06	4.258297e-09	4.877235e+01	2.777265e+02
2.760000e-06	5.668966e-06	4.212914e-09	4.837361e+01	2.770006e+02
2.770000e-06	5.621236e-06	4.299689e-09	4.796632e+01	2.762709e+02
2.780000e-06	5.572553e-06	4.308499e-09	4.755091e+01	2.755355e+02
2.790000e-06	5.522730e-06	4.252877e-09	4.712576e+01	2.747909e+02
2.800000e-06	5.471924e-06	4.188094e-09	4.669223e+01	2.740330e+02
2.810000e-06	5.420222e-06	4.243658e-09	4.625106e+01	2.732574e+02
2.820000e-06	5.367465e-06	4.234251e-09	4.580088e+01	2.724591e+02
2.830000e-06	5.313456e-06	4.188098e-09	4.534002e+01	2.716338e+02
2.840000e-06	5.258218e-06	4.188523e-09	4.486867e+01	2.707775e+02
2.850000e-06	5.202074e-06	4.161489e-09	4.438959e+01	2.698870e+02
2.860000e-06	5.145111e-06	4.151520e-09	4.390352e+01	2.689603e+02
2.870000e-06	5.087327e-06	4.142030e-09	4.341045e+01	2.679964e+02
2.880000e-06	5.028727e-06	4.144572e-09	4.291041e+01	2.669955e+02
2.890000e-06	4.969305e-06	4.095870e-09	4.240336e+01	2.659588e+02
2.900000e-06	4.909158e-06	4.061833e-09	4.189012e+01	2.648884e+02
2.910000e-06	4.848279e-06	4.097665e-09	4.137064e+01	2.637868e+02
2.920000e-06	4.786474e-06	4.077484e-09	4.084325e+01	2.626569e+02
2.930000e-06	4.723583e-06	4.016852e-09	4.030660e+01	2.615018e+02
2.940000e-06	4.659700e-06	3.998855e-09	3.976148e+01	2.603237e+02
2.950000e-06	4.595049e-06	4.025643e-09	3.920981e+01	2.591245e+02
