# Temperatura_=_20.0
# Concentracion g/m^3_=_12600.0
# C_Vs_to_Am_M_A/Vsm_=_65563218390.804596
# pendiente_HvsI_1/m_=_3716.3
# ordenada_HvsI_A/m_=_1297.0
# frecuencia_Hz_=_213177.08867235502
# Promedio de 31 ciclos

Tiempo_(s)	Campo_(V.s)	Magnetizacion_(V.s)	Campo_(kA/m)	Magnetizacion_(A/m)
0.000000e+00	-6.739367e-09	-4.166513e-09	-4.757000e+01	-2.700265e+02
1.000000e-08	-6.738963e-09	-4.165890e-09	-4.756715e+01	-2.699947e+02
2.000000e-08	-6.737249e-09	-4.165387e-09	-4.755505e+01	-2.699256e+02
3.000000e-08	-6.734137e-09	-4.165958e-09	-4.753309e+01	-2.698218e+02
4.000000e-08	-6.730007e-09	-4.167097e-09	-4.750393e+01	-2.696869e+02
5.000000e-08	-6.724918e-09	-4.166052e-09	-4.746801e+01	-2.695263e+02
6.000000e-08	-6.718680e-09	-4.162400e-09	-4.742398e+01	-2.693460e+02
7.000000e-08	-6.711364e-09	-4.158564e-09	-4.737234e+01	-2.691531e+02
8.000000e-08	-6.703098e-09	-4.157087e-09	-4.731400e+01	-2.689551e+02
9.000000e-08	-6.693510e-09	-4.160993e-09	-4.724632e+01	-2.687594e+02
1.000000e-07	-6.682166e-09	-4.168679e-09	-4.716625e+01	-2.685733e+02
1.100000e-07	-6.669161e-09	-4.165946e-09	-4.707445e+01	-2.684029e+02
1.200000e-07	-6.654668e-09	-4.149390e-09	-4.697216e+01	-2.682534e+02
1.300000e-07	-6.638744e-09	-4.127061e-09	-4.685975e+01	-2.681281e+02
1.400000e-07	-6.621683e-09	-4.120314e-09	-4.673933e+01	-2.680287e+02
1.500000e-07	-6.603679e-09	-4.137895e-09	-4.661225e+01	-2.679545e+02
1.600000e-07	-6.584701e-09	-4.136529e-09	-4.647829e+01	-2.679028e+02
1.700000e-07	-6.564913e-09	-4.114000e-09	-4.633861e+01	-2.678688e+02
1.800000e-07	-6.544109e-09	-4.091821e-09	-4.619176e+01	-2.678456e+02
1.900000e-07	-6.522066e-09	-4.090394e-09	-4.603617e+01	-2.678247e+02
2.000000e-07	-6.499110e-09	-4.122991e-09	-4.587414e+01	-2.677963e+02
2.100000e-07	-6.475221e-09	-4.123093e-09	-4.570552e+01	-2.677499e+02
2.200000e-07	-6.449919e-09	-4.069213e-09	-4.552692e+01	-2.676743e+02
2.300000e-07	-6.423120e-09	-4.051868e-09	-4.533776e+01	-2.675587e+02
2.400000e-07	-6.395202e-09	-4.081725e-09	-4.514071e+01	-2.673932e+02
2.500000e-07	-6.366370e-09	-4.098980e-09	-4.493719e+01	-2.671686e+02
2.600000e-07	-6.336482e-09	-4.074352e-09	-4.472623e+01	-2.668776e+02
2.700000e-07	-6.305418e-09	-3.999621e-09	-4.450696e+01	-2.665147e+02
2.800000e-07	-6.273372e-09	-3.974609e-09	-4.428076e+01	-2.660765e+02
2.900000e-07	-6.240333e-09	-4.033938e-09	-4.404756e+01	-2.655618e+02
3.000000e-07	-6.205980e-09	-4.059241e-09	-4.380508e+01	-2.649713e+02
3.100000e-07	-6.170340e-09	-4.008224e-09	-4.355351e+01	-2.643081e+02
3.200000e-07	-6.133557e-09	-3.929837e-09	-4.329388e+01	-2.635767e+02
3.300000e-07	-6.095671e-09	-3.916766e-09	-4.302645e+01	-2.627829e+02
3.400000e-07	-6.056770e-09	-4.000109e-09	-4.275188e+01	-2.619337e+02
3.500000e-07	-6.016968e-09	-4.031631e-09	-4.247093e+01	-2.610366e+02
3.600000e-07	-5.976133e-09	-3.922387e-09	-4.218269e+01	-2.600989e+02
3.700000e-07	-5.933943e-09	-3.833203e-09	-4.188490e+01	-2.591277e+02
3.800000e-07	-5.890481e-09	-3.901286e-09	-4.157812e+01	-2.581295e+02
3.900000e-07	-5.846048e-09	-3.985860e-09	-4.126449e+01	-2.571095e+02
4.000000e-07	-5.800656e-09	-3.918569e-09	-4.094408e+01	-2.560719e+02
4.100000e-07	-5.754209e-09	-3.791357e-09	-4.061624e+01	-2.550192e+02
4.200000e-07	-5.706751e-09	-3.780519e-09	-4.028125e+01	-2.539527e+02
4.300000e-07	-5.658320e-09	-3.876892e-09	-3.993940e+01	-2.528721e+02
4.400000e-07	-5.608647e-09	-3.902610e-09	-3.958879e+01	-2.517763e+02
4.500000e-07	-5.557519e-09	-3.791669e-09	-3.922790e+01	-2.506626e+02
4.600000e-07	-5.505165e-09	-3.698796e-09	-3.885836e+01	-2.495282e+02
4.700000e-07	-5.451833e-09	-3.738846e-09	-3.848192e+01	-2.483694e+02
4.800000e-07	-5.397576e-09	-3.815910e-09	-3.809894e+01	-2.471826e+02
4.900000e-07	-5.342434e-09	-3.781732e-09	-3.770972e+01	-2.459644e+02
5.000000e-07	-5.286457e-09	-3.666638e-09	-3.731460e+01	-2.447116e+02
5.100000e-07	-5.229492e-09	-3.620406e-09	-3.691252e+01	-2.434218e+02
5.200000e-07	-5.171332e-09	-3.675062e-09	-3.650199e+01	-2.420933e+02
5.300000e-07	-5.112089e-09	-3.711081e-09	-3.608383e+01	-2.407252e+02
5.400000e-07	-5.052010e-09	-3.646309e-09	-3.565976e+01	-2.393175e+02
5.500000e-07	-4.991121e-09	-3.558139e-09	-3.522997e+01	-2.378707e+02
5.600000e-07	-4.929363e-09	-3.545567e-09	-3.479405e+01	-2.363863e+02
5.700000e-07	-4.866792e-09	-3.584512e-09	-3.435238e+01	-2.348658e+02
5.800000e-07	-4.803472e-09	-3.584226e-09	-3.390544e+01	-2.333113e+02
5.900000e-07	-4.739356e-09	-3.517347e-09	-3.345288e+01	-2.317248e+02
6.000000e-07	-4.674266e-09	-3.450091e-09	-3.299344e+01	-2.301081e+02
6.100000e-07	-4.608083e-09	-3.438391e-09	-3.252628e+01	-2.284627e+02
6.200000e-07	-4.540945e-09	-3.459053e-09	-3.205239e+01	-2.267896e+02
6.300000e-07	-4.473097e-09	-3.448282e-09	-3.157348e+01	-2.250894e+02
6.400000e-07	-4.404614e-09	-3.385884e-09	-3.109009e+01	-2.233618e+02
6.500000e-07	-4.335432e-09	-3.324293e-09	-3.060177e+01	-2.216061e+02
6.600000e-07	-4.265491e-09	-3.312276e-09	-3.010808e+01	-2.198210e+02
6.700000e-07	-4.194803e-09	-3.329323e-09	-2.960913e+01	-2.180047e+02
6.800000e-07	-4.123441e-09	-3.310405e-09	-2.910542e+01	-2.161551e+02
6.900000e-07	-4.051406e-09	-3.240164e-09	-2.859696e+01	-2.142701e+02
7.000000e-07	-3.978595e-09	-3.181311e-09	-2.808302e+01	-2.123473e+02
7.100000e-07	-3.904892e-09	-3.178370e-09	-2.756279e+01	-2.103847e+02
7.200000e-07	-3.830294e-09	-3.190581e-09	-2.703624e+01	-2.083804e+02
7.300000e-07	-3.754877e-09	-3.154653e-09	-2.650391e+01	-2.063330e+02
7.400000e-07	-3.678718e-09	-3.080946e-09	-2.596634e+01	-2.042416e+02
7.500000e-07	-3.601902e-09	-3.034781e-09	-2.542413e+01	-2.021056e+02
7.600000e-07	-3.524446e-09	-3.033527e-09	-2.487740e+01	-1.999249e+02
7.700000e-07	-3.446276e-09	-3.027726e-09	-2.432564e+01	-1.976998e+02
7.800000e-07	-3.367389e-09	-2.977246e-09	-2.376882e+01	-1.954310e+02
7.900000e-07	-3.287805e-09	-2.907790e-09	-2.320707e+01	-1.931192e+02
8.000000e-07	-3.207515e-09	-2.869060e-09	-2.264035e+01	-1.907654e+02
8.100000e-07	-3.126587e-09	-2.860147e-09	-2.206911e+01	-1.883702e+02
8.200000e-07	-3.045121e-09	-2.839155e-09	-2.149408e+01	-1.859343e+02
8.300000e-07	-2.963169e-09	-2.783642e-09	-2.091562e+01	-1.834581e+02
8.400000e-07	-2.880746e-09	-2.721357e-09	-2.033383e+01	-1.809414e+02
8.500000e-07	-2.797862e-09	-2.687039e-09	-1.974879e+01	-1.783838e+02
8.600000e-07	-2.714546e-09	-2.672220e-09	-1.916070e+01	-1.757846e+02
8.700000e-07	-2.630833e-09	-2.643389e-09	-1.856981e+01	-1.731424e+02
8.800000e-07	-2.546751e-09	-2.585284e-09	-1.797631e+01	-1.704559e+02
8.900000e-07	-2.462311e-09	-2.521512e-09	-1.738028e+01	-1.677232e+02
9.000000e-07	-2.377490e-09	-2.482443e-09	-1.678157e+01	-1.649427e+02
9.100000e-07	-2.292285e-09	-2.461071e-09	-1.618015e+01	-1.621123e+02
9.200000e-07	-2.206725e-09	-2.425578e-09	-1.557622e+01	-1.592306e+02
9.300000e-07	-2.120797e-09	-2.362291e-09	-1.496970e+01	-1.562958e+02
9.400000e-07	-2.034478e-09	-2.299226e-09	-1.436041e+01	-1.533069e+02
9.500000e-07	-1.947798e-09	-2.264201e-09	-1.374857e+01	-1.502629e+02
9.600000e-07	-1.860827e-09	-2.241101e-09	-1.313468e+01	-1.471632e+02
9.700000e-07	-1.773627e-09	-2.196105e-09	-1.251918e+01	-1.440077e+02
9.800000e-07	-1.686191e-09	-2.126946e-09	-1.190201e+01	-1.407964e+02
9.900000e-07	-1.598466e-09	-2.064433e-09	-1.128280e+01	-1.375294e+02
1.000000e-06	-1.510420e-09	-2.026011e-09	-1.066132e+01	-1.342073e+02
1.010000e-06	-1.422087e-09	-1.990438e-09	-1.003781e+01	-1.308304e+02
1.020000e-06	-1.333548e-09	-1.932438e-09	-9.412859e+00	-1.273991e+02
1.030000e-06	-1.244785e-09	-1.859730e-09	-8.786319e+00	-1.239134e+02
1.040000e-06	-1.155725e-09	-1.801700e-09	-8.157689e+00	-1.203734e+02
1.050000e-06	-1.066398e-09	-1.763510e-09	-7.527177e+00	-1.167787e+02
1.060000e-06	-9.768831e-10	-1.719747e-09	-6.895339e+00	-1.131287e+02
1.070000e-06	-8.872076e-10	-1.655375e-09	-6.262368e+00	-1.094224e+02
1.080000e-06	-7.973424e-10	-1.582961e-09	-5.628059e+00	-1.056585e+02
1.090000e-06	-7.072675e-10	-1.525492e-09	-4.992269e+00	-1.018358e+02
1.100000e-06	-6.170414e-10	-1.481395e-09	-4.355411e+00	-9.795255e+01
1.110000e-06	-5.267273e-10	-1.427910e-09	-3.717932e+00	-9.400731e+01
1.120000e-06	-4.363323e-10	-1.356720e-09	-3.079881e+00	-8.999857e+01
1.130000e-06	-3.458519e-10	-1.282839e-09	-2.441227e+00	-8.592497e+01
1.140000e-06	-2.552838e-10	-1.222953e-09	-1.801954e+00	-8.178538e+01
1.150000e-06	-1.646558e-10	-1.170908e-09	-1.162257e+00	-7.757894e+01
1.160000e-06	-7.400116e-11	-1.109039e-09	-5.223718e-01	-7.330504e+01
1.170000e-06	1.667030e-11	-1.032009e-09	1.176320e-01	-6.896338e+01
1.180000e-06	1.073412e-10	-9.539219e-10	7.576318e-01	-6.455383e+01
1.190000e-06	1.979940e-10	-8.917314e-10	1.397504e+00	-6.007647e+01
1.200000e-06	2.886255e-10	-8.363450e-10	2.037225e+00	-5.553141e+01
1.210000e-06	3.792050e-10	-7.685471e-10	2.676579e+00	-5.091875e+01
1.220000e-06	4.696918e-10	-6.864255e-10	3.315279e+00	-4.623846e+01
1.230000e-06	5.600744e-10	-6.067572e-10	3.953242e+00	-4.149029e+01
1.240000e-06	6.503416e-10	-5.406942e-10	4.590390e+00	-3.667376e+01
1.250000e-06	7.404926e-10	-4.765388e-10	5.226718e+00	-3.178807e+01
1.260000e-06	8.305047e-10	-3.999785e-10	5.862064e+00	-2.683218e+01
1.270000e-06	9.203344e-10	-3.142151e-10	6.496124e+00	-2.180482e+01
1.280000e-06	1.009951e-09	-2.344028e-10	7.128681e+00	-1.670464e+01
1.290000e-06	1.099344e-09	-1.646247e-10	7.759656e+00	-1.153038e+01
1.300000e-06	1.188505e-09	-9.052662e-11	8.389002e+00	-6.281049e+00
1.310000e-06	1.277416e-09	-3.009355e-12	9.016579e+00	-9.561409e-01
1.320000e-06	1.366055e-09	8.922046e-11	9.642243e+00	4.444085e+00
1.330000e-06	1.454398e-09	1.731875e-10	1.026582e+01	9.918381e+00
1.340000e-06	1.542443e-09	2.485821e-10	1.088729e+01	1.546428e+01
1.350000e-06	1.630195e-09	3.281931e-10	1.150669e+01	2.107790e+01
1.360000e-06	1.717656e-09	4.189048e-10	1.212404e+01	2.675381e+01
1.370000e-06	1.804851e-09	5.139510e-10	1.273951e+01	3.248494e+01
1.380000e-06	1.891787e-09	6.014901e-10	1.335315e+01	3.826255e+01
1.390000e-06	1.978457e-09	6.827936e-10	1.396492e+01	4.407638e+01
1.400000e-06	2.064823e-09	7.703289e-10	1.457453e+01	4.991469e+01
1.410000e-06	2.150822e-09	8.673618e-10	1.518156e+01	5.576458e+01
1.420000e-06	2.236429e-09	9.639886e-10	1.578582e+01	6.161223e+01
1.430000e-06	2.321646e-09	1.050656e-09	1.638733e+01	6.744324e+01
1.440000e-06	2.406510e-09	1.130996e-09	1.698635e+01	7.324304e+01
1.450000e-06	2.491046e-09	1.215709e-09	1.758305e+01	7.899725e+01
1.460000e-06	2.575232e-09	1.306666e-09	1.817728e+01	8.469207e+01
1.470000e-06	2.659025e-09	1.396231e-09	1.876874e+01	9.031465e+01
1.480000e-06	2.742388e-09	1.476521e-09	1.935716e+01	9.585338e+01
1.490000e-06	2.825305e-09	1.552508e-09	1.994244e+01	1.012982e+02
1.500000e-06	2.907754e-09	1.635305e-09	2.052441e+01	1.066407e+02
1.510000e-06	2.989685e-09	1.722412e-09	2.110271e+01	1.118742e+02
1.520000e-06	3.071058e-09	1.802255e-09	2.167709e+01	1.169940e+02
1.530000e-06	3.151856e-09	1.872278e-09	2.224741e+01	1.219969e+02
1.540000e-06	3.232064e-09	1.941672e-09	2.281356e+01	1.268815e+02
1.550000e-06	3.311677e-09	2.017259e-09	2.337551e+01	1.316476e+02
1.560000e-06	3.390688e-09	2.094516e-09	2.393321e+01	1.362963e+02
1.570000e-06	3.469064e-09	2.163891e-09	2.448643e+01	1.408295e+02
1.580000e-06	3.546785e-09	2.224440e-09	2.503502e+01	1.452497e+02
1.590000e-06	3.623875e-09	2.286349e-09	2.557917e+01	1.495598e+02
1.600000e-06	3.700351e-09	2.355663e-09	2.611898e+01	1.537625e+02
1.610000e-06	3.776159e-09	2.424796e-09	2.665407e+01	1.578608e+02
1.620000e-06	3.851190e-09	2.484772e-09	2.718367e+01	1.618570e+02
1.630000e-06	3.925338e-09	2.536633e-09	2.770705e+01	1.657533e+02
1.640000e-06	3.998571e-09	2.590020e-09	2.822397e+01	1.695514e+02
1.650000e-06	4.070964e-09	2.647808e-09	2.873495e+01	1.732525e+02
1.660000e-06	4.142624e-09	2.703777e-09	2.924077e+01	1.768576e+02
1.670000e-06	4.213609e-09	2.752949e-09	2.974182e+01	1.803674e+02
1.680000e-06	4.283893e-09	2.798078e-09	3.023792e+01	1.837824e+02
1.690000e-06	4.353426e-09	2.846604e-09	3.072872e+01	1.871032e+02
1.700000e-06	4.422223e-09	2.898444e-09	3.121433e+01	1.903306e+02
1.710000e-06	4.490365e-09	2.947155e-09	3.169531e+01	1.934656e+02
1.720000e-06	4.557821e-09	2.989524e-09	3.217146e+01	1.965093e+02
1.730000e-06	4.624418e-09	3.028744e-09	3.264153e+01	1.994637e+02
1.740000e-06	4.689997e-09	3.070769e-09	3.310442e+01	2.023307e+02
1.750000e-06	4.754592e-09	3.114616e-09	3.356036e+01	2.051128e+02
1.760000e-06	4.818359e-09	3.154428e-09	3.401047e+01	2.078128e+02
1.770000e-06	4.881387e-09	3.189345e-09	3.445536e+01	2.104336e+02
1.780000e-06	4.943641e-09	3.223031e-09	3.489478e+01	2.129783e+02
1.790000e-06	5.005080e-09	3.259546e-09	3.532845e+01	2.154496e+02
1.800000e-06	5.065741e-09	3.297558e-09	3.575663e+01	2.178504e+02
1.810000e-06	5.125665e-09	3.332380e-09	3.617961e+01	2.201830e+02
1.820000e-06	5.184757e-09	3.362422e-09	3.659671e+01	2.224495e+02
1.830000e-06	5.242748e-09	3.391694e-09	3.700604e+01	2.246514e+02
1.840000e-06	5.299554e-09	3.424811e-09	3.740701e+01	2.267897e+02
1.850000e-06	5.355390e-09	3.457703e-09	3.780113e+01	2.288650e+02
1.860000e-06	5.410390e-09	3.486019e-09	3.818935e+01	2.308774e+02
1.870000e-06	5.464505e-09	3.511001e-09	3.857132e+01	2.328268e+02
1.880000e-06	5.517652e-09	3.536298e-09	3.894646e+01	2.347130e+02
1.890000e-06	5.569741e-09	3.562977e-09	3.931413e+01	2.365355e+02
1.900000e-06	5.620615e-09	3.589011e-09	3.967323e+01	2.382941e+02
1.910000e-06	5.670137e-09	3.612722e-09	4.002278e+01	2.399888e+02
1.920000e-06	5.718429e-09	3.633720e-09	4.036365e+01	2.416199e+02
1.930000e-06	5.765715e-09	3.655851e-09	4.069742e+01	2.431882e+02
1.940000e-06	5.812052e-09	3.680441e-09	4.102449e+01	2.446951e+02
1.950000e-06	5.857421e-09	3.703740e-09	4.134473e+01	2.461422e+02
1.960000e-06	5.901871e-09	3.722875e-09	4.165849e+01	2.475319e+02
1.970000e-06	5.945455e-09	3.740532e-09	4.196612e+01	2.488666e+02
1.980000e-06	5.987951e-09	3.759959e-09	4.226608e+01	2.501494e+02
1.990000e-06	6.029118e-09	3.780611e-09	4.255666e+01	2.513830e+02
2.000000e-06	6.069115e-09	3.799440e-09	4.283898e+01	2.525704e+02
2.010000e-06	6.108115e-09	3.815020e-09	4.311427e+01	2.537144e+02
2.020000e-06	6.146111e-09	3.830110e-09	4.338246e+01	2.548172e+02
2.030000e-06	6.183102e-09	3.846861e-09	4.364356e+01	2.558809e+02
2.040000e-06	6.219169e-09	3.864212e-09	4.389814e+01	2.569067e+02
2.050000e-06	6.254255e-09	3.878675e-09	4.414580e+01	2.578953e+02
2.060000e-06	6.288047e-09	3.889961e-09	4.438432e+01	2.588471e+02
2.070000e-06	6.320526e-09	3.902382e-09	4.461358e+01	2.597616e+02
2.080000e-06	6.351934e-09	3.916999e-09	4.483527e+01	2.606381e+02
2.090000e-06	6.382320e-09	3.930725e-09	4.504975e+01	2.614756e+02
2.100000e-06	6.411666e-09	3.941621e-09	4.525689e+01	2.622729e+02
2.110000e-06	6.440026e-09	3.951678e-09	4.545708e+01	2.630290e+02
2.120000e-06	6.467375e-09	3.963604e-09	4.565012e+01	2.637429e+02
2.130000e-06	6.493421e-09	3.976763e-09	4.583397e+01	2.644143e+02
2.140000e-06	6.518048e-09	3.988351e-09	4.600780e+01	2.650431e+02
2.150000e-06	6.541486e-09	3.996717e-09	4.617324e+01	2.656299e+02
2.160000e-06	6.563837e-09	4.003802e-09	4.633100e+01	2.661761e+02
2.170000e-06	6.585090e-09	4.011487e-09	4.648102e+01	2.666834e+02
2.180000e-06	6.605356e-09	4.018856e-09	4.662407e+01	2.671541e+02
2.190000e-06	6.624668e-09	4.025024e-09	4.676038e+01	2.675909e+02
2.200000e-06	6.642800e-09	4.030551e-09	4.688837e+01	2.679966e+02
2.210000e-06	6.659660e-09	4.036427e-09	4.700737e+01	2.683741e+02
2.220000e-06	6.675290e-09	4.042740e-09	4.711771e+01	2.687260e+02
2.230000e-06	6.689657e-09	4.050642e-09	4.721911e+01	2.690544e+02
2.240000e-06	6.702791e-09	4.058269e-09	4.731182e+01	2.693611e+02
2.250000e-06	6.714706e-09	4.062343e-09	4.739592e+01	2.696468e+02
2.260000e-06	6.725207e-09	4.065011e-09	4.747005e+01	2.699115e+02
2.270000e-06	6.734206e-09	4.069161e-09	4.753357e+01	2.701546e+02
2.280000e-06	6.741976e-09	4.073993e-09	4.758841e+01	2.703744e+02
2.290000e-06	6.748660e-09	4.076831e-09	4.763560e+01	2.705687e+02
2.300000e-06	6.754196e-09	4.078587e-09	4.767467e+01	2.707349e+02
2.310000e-06	6.758657e-09	4.080493e-09	4.770616e+01	2.708702e+02
2.320000e-06	6.762104e-09	4.082491e-09	4.773049e+01	2.709717e+02
2.330000e-06	6.764255e-09	4.084258e-09	4.774567e+01	2.710372e+02
2.340000e-06	6.764974e-09	4.084294e-09	4.775075e+01	2.710650e+02
2.350000e-06	6.764546e-09	4.082744e-09	4.774773e+01	2.710543e+02
2.360000e-06	6.763081e-09	4.080932e-09	4.773739e+01	2.710055e+02
2.370000e-06	6.760533e-09	4.079431e-09	4.771940e+01	2.709204e+02
2.380000e-06	6.756986e-09	4.078054e-09	4.769437e+01	2.708021e+02
2.390000e-06	6.752506e-09	4.076107e-09	4.766275e+01	2.706549e+02
2.400000e-06	6.746796e-09	4.074333e-09	4.762244e+01	2.704846e+02
2.410000e-06	6.739694e-09	4.072830e-09	4.757232e+01	2.702978e+02
2.420000e-06	6.731525e-09	4.069626e-09	4.751465e+01	2.701016e+02
2.430000e-06	6.722424e-09	4.062105e-09	4.745041e+01	2.699037e+02
2.440000e-06	6.712120e-09	4.045176e-09	4.737768e+01	2.697114e+02
2.450000e-06	6.700040e-09	4.038635e-09	4.729241e+01	2.695315e+02
2.460000e-06	6.685861e-09	4.045621e-09	4.719234e+01	2.693699e+02
2.470000e-06	6.670235e-09	4.072403e-09	4.708204e+01	2.692309e+02
2.480000e-06	6.654091e-09	4.088744e-09	4.696809e+01	2.691171e+02
2.490000e-06	6.637397e-09	4.065248e-09	4.685025e+01	2.690291e+02
2.500000e-06	6.619316e-09	4.063071e-09	4.672262e+01	2.689654e+02
2.510000e-06	6.599909e-09	4.077024e-09	4.658564e+01	2.689223e+02
2.520000e-06	6.579848e-09	4.085988e-09	4.644404e+01	2.688940e+02
2.530000e-06	6.558607e-09	4.078629e-09	4.629410e+01	2.688729e+02
2.540000e-06	6.535666e-09	4.042346e-09	4.613218e+01	2.688499e+02
2.550000e-06	6.511556e-09	4.051476e-09	4.596200e+01	2.688147e+02
2.560000e-06	6.486522e-09	4.114988e-09	4.578529e+01	2.687565e+02
2.570000e-06	6.460519e-09	4.131121e-09	4.560175e+01	2.686642e+02
2.580000e-06	6.433420e-09	4.103843e-09	4.541047e+01	2.685274e+02
2.590000e-06	6.405064e-09	4.090724e-09	4.521032e+01	2.683364e+02
2.600000e-06	6.375716e-09	4.110252e-09	4.500317e+01	2.680828e+02
2.610000e-06	6.345189e-09	4.192548e-09	4.478770e+01	2.677601e+02
2.620000e-06	6.313200e-09	4.204624e-09	4.456190e+01	2.673637e+02
2.630000e-06	6.280101e-09	4.091727e-09	4.432827e+01	2.668912e+02
2.640000e-06	6.245957e-09	4.030386e-09	4.408727e+01	2.663423e+02
2.650000e-06	6.210710e-09	4.080440e-09	4.383847e+01	2.657187e+02
2.660000e-06	6.174533e-09	4.182347e-09	4.358312e+01	2.650243e+02
2.670000e-06	6.137236e-09	4.151970e-09	4.331986e+01	2.642641e+02
2.680000e-06	6.098587e-09	3.967363e-09	4.304705e+01	2.634445e+02
2.690000e-06	6.058694e-09	3.933077e-09	4.276547e+01	2.625729e+02
2.700000e-06	6.017797e-09	4.079060e-09	4.247680e+01	2.616566e+02
2.710000e-06	5.976027e-09	4.137672e-09	4.218196e+01	2.607030e+02
2.720000e-06	5.933250e-09	3.992474e-09	4.188002e+01	2.597189e+02
2.730000e-06	5.889481e-09	3.849297e-09	4.157107e+01	2.587104e+02
2.740000e-06	5.844803e-09	3.937620e-09	4.125571e+01	2.576820e+02
2.750000e-06	5.799139e-09	4.065029e-09	4.093339e+01	2.566373e+02
2.760000e-06	5.752410e-09	4.005842e-09	4.060356e+01	2.555783e+02
2.770000e-06	5.704502e-09	3.848974e-09	4.026540e+01	2.545055e+02
2.780000e-06	5.655505e-09	3.806726e-09	3.991955e+01	2.534183e+02
2.790000e-06	5.605543e-09	3.920698e-09	3.956690e+01	2.523147e+02
2.800000e-06	5.554587e-09	3.963908e-09	3.920722e+01	2.511921e+02
2.810000e-06	5.502598e-09	3.860831e-09	3.884026e+01	2.500472e+02
2.820000e-06	5.449404e-09	3.755327e-09	3.846479e+01	2.488762e+02
2.830000e-06	5.394896e-09	3.764724e-09	3.808004e+01	2.476757e+02
2.840000e-06	5.339259e-09	3.846024e-09	3.768733e+01	2.464423e+02
2.850000e-06	5.282751e-09	3.837658e-09	3.728847e+01	2.451731e+02
2.860000e-06	5.225416e-09	3.741803e-09	3.688377e+01	2.438661e+02
2.870000e-06	5.167155e-09	3.674224e-09	3.647253e+01	2.425199e+02
2.880000e-06	5.108002e-09	3.695129e-09	3.605500e+01	2.411339e+02
2.890000e-06	5.048089e-09	3.736473e-09	3.563210e+01	2.397086e+02
2.900000e-06	4.987375e-09	3.702827e-09	3.520355e+01	2.382447e+02
2.910000e-06	4.925593e-09	3.628523e-09	3.476746e+01	2.367438e+02
2.920000e-06	4.862664e-09	3.583111e-09	3.432328e+01	2.352078e+02
2.930000e-06	4.798793e-09	3.597193e-09	3.387244e+01	2.336387e+02
2.940000e-06	4.734142e-09	3.617138e-09	3.341610e+01	2.320384e+02
