# Temperatura_=_20.0
# Concentracion g/m^3_=_12600.0
# C_Vs_to_Am_M_A/Vsm_=_65563218390.804596
# pendiente_HvsI_1/m_=_3716.3
# ordenada_HvsI_A/m_=_1297.0
# frecuencia_Hz_=_135360.32126354813

Tiempo_(s)	Campo_(V.s)	Magnetizacion_(V.s)	Campo_(kA/m)	Magnetizacion_(A/m)
0.000000e+00	-6.592172e-06	-3.179407e-10	-4.773031e+01	-1.480431e+00
1.000000e-08	-6.592215e-06	-3.159137e-10	-4.773063e+01	-1.508292e+00
2.000000e-08	-6.591868e-06	-3.137790e-10	-4.772811e+01	-1.531763e+00
3.000000e-08	-6.591110e-06	-3.141476e-10	-4.772263e+01	-1.550411e+00
4.000000e-08	-6.589703e-06	-3.163927e-10	-4.771244e+01	-1.563927e+00
5.000000e-08	-6.587625e-06	-3.171395e-10	-4.769740e+01	-1.572135e+00
6.000000e-08	-6.584978e-06	-3.202918e-10	-4.767823e+01	-1.575002e+00
7.000000e-08	-6.581804e-06	-3.382691e-10	-4.765525e+01	-1.572640e+00
8.000000e-08	-6.578129e-06	-3.524291e-10	-4.762864e+01	-1.565306e+00
9.000000e-08	-6.573867e-06	-2.833736e-10	-4.759778e+01	-1.553396e+00
1.000000e-07	-6.569027e-06	-1.840969e-10	-4.756274e+01	-1.537438e+00
1.100000e-07	-6.563703e-06	-2.394031e-10	-4.752419e+01	-1.518079e+00
1.200000e-07	-6.558025e-06	-4.645113e-10	-4.748307e+01	-1.496068e+00
1.300000e-07	-6.551895e-06	-4.831822e-10	-4.743869e+01	-1.472239e+00
1.400000e-07	-6.545186e-06	-1.911417e-10	-4.739012e+01	-1.447487e+00
1.500000e-07	-6.538148e-06	-6.374511e-11	-4.733916e+01	-1.422745e+00
1.600000e-07	-6.530846e-06	-3.505579e-10	-4.728629e+01	-1.398959e+00
1.700000e-07	-6.523179e-06	-4.899180e-10	-4.723077e+01	-1.377061e+00
1.800000e-07	-6.515145e-06	-3.336438e-10	-4.717260e+01	-1.357944e+00
1.900000e-07	-6.506885e-06	-2.190373e-10	-4.711280e+01	-1.342435e+00
2.000000e-07	-6.498335e-06	-1.785921e-10	-4.705089e+01	-1.331271e+00
2.100000e-07	-6.489055e-06	-2.930388e-10	-4.698370e+01	-1.325079e+00
2.200000e-07	-6.479068e-06	-4.564329e-10	-4.691139e+01	-1.324352e+00
2.300000e-07	-6.468468e-06	-3.923342e-10	-4.683465e+01	-1.329436e+00
2.400000e-07	-6.457140e-06	-2.822418e-11	-4.675262e+01	-1.340517e+00
2.500000e-07	-6.445269e-06	6.596744e-12	-4.666667e+01	-1.357612e+00
2.600000e-07	-6.432886e-06	-3.524746e-10	-4.657702e+01	-1.380563e+00
2.700000e-07	-6.419898e-06	-3.417404e-10	-4.648297e+01	-1.409041e+00
2.800000e-07	-6.406359e-06	1.205255e-10	-4.638495e+01	-1.442549e+00
2.900000e-07	-6.392300e-06	1.843765e-10	-4.628315e+01	-1.480433e+00
3.000000e-07	-6.377675e-06	-1.598237e-10	-4.617726e+01	-1.521894e+00
3.100000e-07	-6.362525e-06	-1.062353e-10	-4.606757e+01	-1.566009e+00
3.200000e-07	-6.346792e-06	2.049359e-10	-4.595365e+01	-1.611752e+00
3.300000e-07	-6.330651e-06	7.703715e-11	-4.583679e+01	-1.658019e+00
3.400000e-07	-6.314057e-06	4.542540e-11	-4.571663e+01	-1.703655e+00
3.500000e-07	-6.296848e-06	3.281560e-10	-4.559204e+01	-1.747486e+00
3.600000e-07	-6.279261e-06	1.508736e-10	-4.546470e+01	-1.788350e+00
3.700000e-07	-6.261340e-06	-1.982144e-10	-4.533494e+01	-1.825124e+00
3.800000e-07	-6.242997e-06	6.332383e-11	-4.520213e+01	-1.856759e+00
3.900000e-07	-6.224157e-06	3.852845e-10	-4.506572e+01	-1.882310e+00
4.000000e-07	-6.204871e-06	1.107241e-10	-4.492608e+01	-1.900961e+00
4.100000e-07	-6.185232e-06	-1.451942e-10	-4.478388e+01	-1.912050e+00
4.200000e-07	-6.165287e-06	1.444678e-13	-4.463948e+01	-1.915093e+00
4.300000e-07	-6.144956e-06	2.178972e-10	-4.449227e+01	-1.909800e+00
4.400000e-07	-6.124218e-06	2.046531e-10	-4.434212e+01	-1.896087e+00
4.500000e-07	-6.103162e-06	3.813953e-11	-4.418966e+01	-1.874086e+00
4.600000e-07	-6.081749e-06	-8.777462e-11	-4.403462e+01	-1.844149e+00
4.700000e-07	-6.059793e-06	1.802446e-11	-4.387565e+01	-1.806840e+00
4.800000e-07	-6.037394e-06	1.783797e-10	-4.371347e+01	-1.762936e+00
4.900000e-07	-6.014698e-06	1.838640e-10	-4.354914e+01	-1.713406e+00
5.000000e-07	-5.991675e-06	2.566954e-11	-4.338244e+01	-1.659399e+00
5.100000e-07	-5.968205e-06	-8.928974e-11	-4.321251e+01	-1.602220e+00
5.200000e-07	-5.944295e-06	3.601863e-11	-4.303939e+01	-1.543303e+00
5.300000e-07	-5.920085e-06	2.630843e-10	-4.286410e+01	-1.484183e+00
5.400000e-07	-5.895437e-06	1.778143e-10	-4.268564e+01	-1.426460e+00
5.500000e-07	-5.870223e-06	-7.730646e-11	-4.250308e+01	-1.371770e+00
5.600000e-07	-5.844425e-06	-2.939184e-11	-4.231629e+01	-1.321744e+00
5.700000e-07	-5.817958e-06	2.004348e-10	-4.212466e+01	-1.277976e+00
5.800000e-07	-5.790864e-06	1.938817e-10	-4.192848e+01	-1.241984e+00
5.900000e-07	-5.763388e-06	2.752003e-11	-4.172954e+01	-1.215180e+00
6.000000e-07	-5.735617e-06	-1.275065e-11	-4.152847e+01	-1.198832e+00
6.100000e-07	-5.707484e-06	7.030288e-11	-4.132477e+01	-1.194040e+00
6.200000e-07	-5.679018e-06	1.251506e-10	-4.111867e+01	-1.201709e+00
6.300000e-07	-5.650231e-06	9.731749e-11	-4.091024e+01	-1.222527e+00
6.400000e-07	-5.621145e-06	5.190563e-11	-4.069964e+01	-1.256947e+00
6.500000e-07	-5.591672e-06	3.979910e-11	-4.048624e+01	-1.305179e+00
6.600000e-07	-5.561754e-06	6.084859e-11	-4.026963e+01	-1.367179e+00
6.700000e-07	-5.531466e-06	9.539004e-11	-4.005033e+01	-1.442655e+00
6.800000e-07	-5.500818e-06	1.186330e-10	-3.982842e+01	-1.531065e+00
6.900000e-07	-5.469809e-06	8.133605e-11	-3.960390e+01	-1.631629e+00
7.000000e-07	-5.438445e-06	3.567029e-11	-3.937681e+01	-1.743349e+00
7.100000e-07	-5.406792e-06	4.965150e-11	-3.914763e+01	-1.865024e+00
7.200000e-07	-5.374881e-06	9.838611e-11	-3.891657e+01	-1.995273e+00
7.300000e-07	-5.342635e-06	1.013985e-10	-3.868310e+01	-2.132571e+00
7.400000e-07	-5.309893e-06	6.247041e-11	-3.844603e+01	-2.275270e+00
7.500000e-07	-5.276691e-06	2.566894e-11	-3.820564e+01	-2.421642e+00
7.600000e-07	-5.243154e-06	4.544967e-11	-3.796282e+01	-2.569906e+00
7.700000e-07	-5.209069e-06	9.639466e-11	-3.771602e+01	-2.718267e+00
7.800000e-07	-5.174376e-06	1.014664e-10	-3.746483e+01	-2.864952e+00
7.900000e-07	-5.139232e-06	4.535423e-11	-3.721037e+01	-3.008243e+00
8.000000e-07	-5.103665e-06	1.307436e-11	-3.695285e+01	-3.146511e+00
8.100000e-07	-5.067750e-06	4.200521e-11	-3.669281e+01	-3.278244e+00
8.200000e-07	-5.031509e-06	8.652065e-11	-3.643041e+01	-3.402077e+00
8.300000e-07	-4.994964e-06	8.302982e-11	-3.616580e+01	-3.516814e+00
8.400000e-07	-4.958158e-06	3.557919e-11	-3.589932e+01	-3.621446e+00
8.500000e-07	-4.920992e-06	9.443719e-12	-3.563022e+01	-3.715171e+00
8.600000e-07	-4.883488e-06	4.737462e-11	-3.535867e+01	-3.797395e+00
8.700000e-07	-4.845742e-06	8.985787e-11	-3.508537e+01	-3.867748e+00
8.800000e-07	-4.807676e-06	6.637100e-11	-3.480976e+01	-3.926075e+00
8.900000e-07	-4.769331e-06	1.254443e-11	-3.453212e+01	-3.972437e+00
9.000000e-07	-4.730652e-06	1.133816e-11	-3.425207e+01	-4.007100e+00
9.100000e-07	-4.691575e-06	6.029361e-11	-3.396913e+01	-4.030521e+00
9.200000e-07	-4.652231e-06	7.965747e-11	-3.368426e+01	-4.043332e+00
9.300000e-07	-4.612612e-06	4.227448e-11	-3.339741e+01	-4.046317e+00
9.400000e-07	-4.572724e-06	2.833195e-12	-3.310859e+01	-4.040393e+00
9.500000e-07	-4.532577e-06	1.518151e-11	-3.281792e+01	-4.026578e+00
9.600000e-07	-4.492107e-06	5.611238e-11	-3.252490e+01	-4.005970e+00
9.700000e-07	-4.451293e-06	6.764875e-11	-3.222938e+01	-3.979718e+00
9.800000e-07	-4.410132e-06	3.351982e-11	-3.193136e+01	-3.948990e+00
9.900000e-07	-4.368512e-06	1.079063e-11	-3.163001e+01	-3.914951e+00
1.000000e-06	-4.326393e-06	2.772302e-11	-3.132505e+01	-3.878732e+00
1.010000e-06	-4.283818e-06	5.627622e-11	-3.101679e+01	-3.841413e+00
1.020000e-06	-4.240842e-06	5.156129e-11	-3.070562e+01	-3.803992e+00
1.030000e-06	-4.197619e-06	1.999850e-11	-3.039266e+01	-3.767374e+00
1.040000e-06	-4.154092e-06	5.925481e-12	-3.007751e+01	-3.732348e+00
1.050000e-06	-4.110203e-06	2.752800e-11	-2.975974e+01	-3.699583e+00
1.060000e-06	-4.066079e-06	4.954817e-11	-2.944025e+01	-3.669611e+00
1.070000e-06	-4.021730e-06	3.888784e-11	-2.911915e+01	-3.642828e+00
1.080000e-06	-3.977139e-06	1.415459e-11	-2.879629e+01	-3.619489e+00
1.090000e-06	-3.932272e-06	1.395051e-11	-2.847143e+01	-3.599713e+00
1.100000e-06	-3.887191e-06	3.313387e-11	-2.814502e+01	-3.583487e+00
1.110000e-06	-3.841893e-06	4.061733e-11	-2.781704e+01	-3.570677e+00
1.120000e-06	-3.796296e-06	2.760796e-11	-2.748691e+01	-3.561036e+00
1.130000e-06	-3.750364e-06	1.708976e-11	-2.715434e+01	-3.554224e+00
1.140000e-06	-3.704101e-06	2.145909e-11	-2.681937e+01	-3.549816e+00
1.150000e-06	-3.657550e-06	3.226765e-11	-2.648232e+01	-3.547328e+00
1.160000e-06	-3.610886e-06	3.803477e-11	-2.614445e+01	-3.546229e+00
1.170000e-06	-3.564066e-06	3.193683e-11	-2.580545e+01	-3.545962e+00
1.180000e-06	-3.516968e-06	2.106590e-11	-2.546444e+01	-3.545964e+00
1.190000e-06	-3.469575e-06	2.077587e-11	-2.512130e+01	-3.545678e+00
1.200000e-06	-3.421936e-06	3.466333e-11	-2.477637e+01	-3.544578e+00
1.210000e-06	-3.374129e-06	4.261471e-11	-2.443023e+01	-3.542177e+00
1.220000e-06	-3.325958e-06	3.726898e-11	-2.408144e+01	-3.538045e+00
1.230000e-06	-3.277539e-06	3.028075e-11	-2.373087e+01	-3.531816e+00
1.240000e-06	-3.228965e-06	3.341715e-11	-2.337917e+01	-3.523202e+00
1.250000e-06	-3.180130e-06	4.255129e-11	-2.302559e+01	-3.511992e+00
1.260000e-06	-3.130897e-06	4.558572e-11	-2.266912e+01	-3.498063e+00
1.270000e-06	-3.081282e-06	3.869229e-11	-2.230988e+01	-3.481376e+00
1.280000e-06	-3.031391e-06	2.993083e-11	-2.194864e+01	-3.461976e+00
1.290000e-06	-2.981204e-06	3.073697e-11	-2.158527e+01	-3.439989e+00
1.300000e-06	-2.930811e-06	4.246604e-11	-2.122040e+01	-3.415613e+00
1.310000e-06	-2.880073e-06	4.597791e-11	-2.085304e+01	-3.389113e+00
1.320000e-06	-2.828910e-06	3.656220e-11	-2.048259e+01	-3.360812e+00
1.330000e-06	-2.777580e-06	3.073271e-11	-2.011094e+01	-3.331077e+00
1.340000e-06	-2.726062e-06	3.932494e-11	-1.973793e+01	-3.300308e+00
1.350000e-06	-2.674305e-06	4.661608e-11	-1.936318e+01	-3.268928e+00
1.360000e-06	-2.622311e-06	3.959711e-11	-1.898672e+01	-3.237370e+00
1.370000e-06	-2.570059e-06	2.877314e-11	-1.860839e+01	-3.206063e+00
1.380000e-06	-2.517613e-06	2.757052e-11	-1.822866e+01	-3.175422e+00
1.390000e-06	-2.465027e-06	3.318630e-11	-1.784791e+01	-3.145839e+00
1.400000e-06	-2.412315e-06	3.487632e-11	-1.746625e+01	-3.117671e+00
1.410000e-06	-2.359379e-06	3.107660e-11	-1.708297e+01	-3.091231e+00
1.420000e-06	-2.306252e-06	2.673309e-11	-1.669831e+01	-3.066787e+00
1.430000e-06	-2.252983e-06	2.547352e-11	-1.631262e+01	-3.044551e+00
1.440000e-06	-2.199637e-06	2.693209e-11	-1.592637e+01	-3.024680e+00
1.450000e-06	-2.146166e-06	2.589528e-11	-1.553922e+01	-3.007274e+00
1.460000e-06	-2.092452e-06	2.065728e-11	-1.515031e+01	-2.992373e+00
1.470000e-06	-2.038584e-06	1.749195e-11	-1.476028e+01	-2.979967e+00
1.480000e-06	-1.984686e-06	1.624778e-11	-1.437002e+01	-2.969991e+00
1.490000e-06	-1.930648e-06	1.586380e-11	-1.397877e+01	-2.962334e+00
1.500000e-06	-1.876375e-06	1.547498e-11	-1.358581e+01	-2.956847e+00
1.510000e-06	-1.822015e-06	1.335325e-11	-1.319222e+01	-2.953344e+00
1.520000e-06	-1.767561e-06	9.451219e-12	-1.279795e+01	-2.951614e+00
1.530000e-06	-1.712959e-06	7.710490e-12	-1.240260e+01	-2.951428e+00
1.540000e-06	-1.658334e-06	9.974459e-12	-1.200709e+01	-2.952544e+00
1.550000e-06	-1.603583e-06	1.049317e-11	-1.161067e+01	-2.954715e+00
1.560000e-06	-1.548599e-06	3.166286e-12	-1.121256e+01	-2.957701e+00
1.570000e-06	-1.493501e-06	-4.624073e-12	-1.081362e+01	-2.961267e+00
1.580000e-06	-1.438432e-06	-3.954260e-12	-1.041490e+01	-2.965194e+00
1.590000e-06	-1.383245e-06	1.006924e-12	-1.001532e+01	-2.969282e+00
1.600000e-06	-1.327841e-06	1.087041e-12	-9.614173e+00	-2.973354e+00
1.610000e-06	-1.272370e-06	-1.586410e-12	-9.212539e+00	-2.977255e+00
1.620000e-06	-1.216870e-06	-2.603373e-12	-8.810694e+00	-2.980858e+00
1.630000e-06	-1.161282e-06	-1.721554e-12	-8.408209e+00	-2.984060e+00
1.640000e-06	-1.105679e-06	2.432309e-12	-8.005616e+00	-2.986781e+00
1.650000e-06	-1.050051e-06	4.255789e-12	-7.602847e+00	-2.988966e+00
1.660000e-06	-9.942922e-07	-5.647325e-13	-7.199127e+00	-2.990576e+00
1.670000e-06	-9.384950e-07	-5.547552e-12	-6.795130e+00	-2.991592e+00
1.680000e-06	-8.826535e-07	-3.732921e-12	-6.390812e+00	-2.992003e+00
1.690000e-06	-8.267685e-07	2.704603e-13	-5.986179e+00	-2.991809e+00
1.700000e-06	-7.708463e-07	7.036395e-13	-5.581277e+00	-2.991011e+00
1.710000e-06	-7.148861e-07	-1.520139e-12	-5.176100e+00	-2.989614e+00
1.720000e-06	-6.589290e-07	-4.637961e-13	-4.770945e+00	-2.987616e+00
1.730000e-06	-6.029604e-07	3.653101e-12	-4.365707e+00	-2.985010e+00
1.740000e-06	-5.468935e-07	6.840531e-12	-3.959757e+00	-2.981780e+00
1.750000e-06	-4.907868e-07	9.182715e-12	-3.553519e+00	-2.977902e+00
1.760000e-06	-4.347788e-07	8.875728e-12	-3.147996e+00	-2.973339e+00
1.770000e-06	-3.787705e-07	9.046995e-12	-2.742471e+00	-2.968044e+00
1.780000e-06	-3.226777e-07	1.170272e-11	-2.336333e+00	-2.961963e+00
1.790000e-06	-2.665234e-07	1.442885e-11	-1.929750e+00	-2.955033e+00
1.800000e-06	-2.103757e-07	1.464767e-11	-1.523215e+00	-2.947190e+00
1.810000e-06	-1.542552e-07	1.234326e-11	-1.116878e+00	-2.938367e+00
1.820000e-06	-9.813848e-08	1.291976e-11	-7.105672e-01	-2.928505e+00
1.830000e-06	-4.209414e-08	1.869901e-11	-3.047807e-01	-2.917552e+00
1.840000e-06	1.400238e-08	2.295383e-11	1.013836e-01	-2.905470e+00
1.850000e-06	7.013412e-08	2.240401e-11	5.078029e-01	-2.892240e+00
1.860000e-06	1.262354e-07	2.278014e-11	9.140012e-01	-2.877867e+00
1.870000e-06	1.823510e-07	2.635591e-11	1.320304e+00	-2.862383e+00
1.880000e-06	2.384198e-07	2.963115e-11	1.726268e+00	-2.845851e+00
1.890000e-06	2.945189e-07	3.040943e-11	2.132451e+00	-2.828365e+00
1.900000e-06	3.506196e-07	2.874180e-11	2.538645e+00	-2.810056e+00
1.910000e-06	4.066579e-07	2.395412e-11	2.944388e+00	-2.791088e+00
1.920000e-06	4.626305e-07	2.136667e-11	3.349655e+00	-2.771660e+00
1.930000e-06	5.185779e-07	2.402845e-11	3.754740e+00	-2.751999e+00
1.940000e-06	5.746107e-07	2.787725e-11	4.160442e+00	-2.732361e+00
1.950000e-06	6.305756e-07	2.923862e-11	4.565653e+00	-2.713024e+00
1.960000e-06	6.863979e-07	2.896593e-11	4.969833e+00	-2.694279e+00
1.970000e-06	7.422185e-07	3.172198e-11	5.373998e+00	-2.676427e+00
1.980000e-06	7.980303e-07	3.617186e-11	5.778102e+00	-2.659764e+00
1.990000e-06	8.537754e-07	3.802009e-11	6.181721e+00	-2.644578e+00
2.000000e-06	9.094509e-07	3.730654e-11	6.584837e+00	-2.631137e+00
2.010000e-06	9.651293e-07	3.592330e-11	6.987974e+00	-2.619675e+00
2.020000e-06	1.020804e-06	3.576484e-11	7.391085e+00	-2.610389e+00
2.030000e-06	1.076373e-06	3.665498e-11	7.793427e+00	-2.603423e+00
2.040000e-06	1.131877e-06	3.850357e-11	8.195301e+00	-2.598864e+00
2.050000e-06	1.187346e-06	4.036076e-11	8.596921e+00	-2.596731e+00
2.060000e-06	1.242786e-06	4.064731e-11	8.998337e+00	-2.596970e+00
2.070000e-06	1.298184e-06	4.307587e-11	9.399441e+00	-2.599450e+00
2.080000e-06	1.353430e-06	4.685815e-11	9.799450e+00	-2.603959e+00
2.090000e-06	1.408548e-06	4.919875e-11	1.019852e+01	-2.610203e+00
2.100000e-06	1.463599e-06	4.889805e-11	1.059712e+01	-2.617808e+00
2.110000e-06	1.518555e-06	4.884866e-11	1.099502e+01	-2.626322e+00
2.120000e-06	1.573407e-06	5.055819e-11	1.139218e+01	-2.635224e+00
2.130000e-06	1.628161e-06	5.111178e-11	1.178862e+01	-2.643929e+00
2.140000e-06	1.682869e-06	5.157550e-11	1.218473e+01	-2.651800e+00
2.150000e-06	1.737460e-06	5.080752e-11	1.258000e+01	-2.658158e+00
2.160000e-06	1.791827e-06	4.839015e-11	1.297364e+01	-2.662299e+00
2.170000e-06	1.846084e-06	4.794915e-11	1.336648e+01	-2.663506e+00
2.180000e-06	1.900219e-06	4.856711e-11	1.375844e+01	-2.661065e+00
2.190000e-06	1.954264e-06	4.936063e-11	1.414976e+01	-2.654287e+00
2.200000e-06	2.008223e-06	4.971293e-11	1.454045e+01	-2.642517e+00
2.210000e-06	2.062020e-06	4.852249e-11	1.492996e+01	-2.625159e+00
2.220000e-06	2.115764e-06	4.921650e-11	1.531909e+01	-2.601686e+00
2.230000e-06	2.169273e-06	5.048212e-11	1.570652e+01	-2.571658e+00
2.240000e-06	2.222481e-06	4.946040e-11	1.609177e+01	-2.534737e+00
2.250000e-06	2.275581e-06	4.752392e-11	1.647624e+01	-2.490696e+00
2.260000e-06	2.328530e-06	4.524325e-11	1.685961e+01	-2.439430e+00
2.270000e-06	2.381341e-06	4.591630e-11	1.724199e+01	-2.380962e+00
2.280000e-06	2.433965e-06	4.552930e-11	1.762301e+01	-2.315449e+00
2.290000e-06	2.486326e-06	4.382553e-11	1.800213e+01	-2.243181e+00
2.300000e-06	2.538574e-06	4.540684e-11	1.838043e+01	-2.164581e+00
2.310000e-06	2.590673e-06	4.909194e-11	1.875765e+01	-2.080198e+00
2.320000e-06	2.642530e-06	5.120884e-11	1.913312e+01	-1.990703e+00
2.330000e-06	2.694272e-06	5.037688e-11	1.950775e+01	-1.896870e+00
2.340000e-06	2.745822e-06	5.052991e-11	1.988100e+01	-1.799571e+00
2.350000e-06	2.797043e-06	5.225406e-11	2.025186e+01	-1.699755e+00
2.360000e-06	2.847966e-06	5.268185e-11	2.062057e+01	-1.598431e+00
2.370000e-06	2.898664e-06	5.409258e-11	2.098764e+01	-1.496646e+00
2.380000e-06	2.949011e-06	5.547036e-11	2.135218e+01	-1.395467e+00
2.390000e-06	2.998885e-06	5.747442e-11	2.171329e+01	-1.295958e+00
2.400000e-06	3.048363e-06	5.982473e-11	2.207153e+01	-1.199158e+00
2.410000e-06	3.097578e-06	6.221846e-11	2.242787e+01	-1.106056e+00
2.420000e-06	3.146513e-06	6.528238e-11	2.278218e+01	-1.017578e+00
2.430000e-06	3.195084e-06	6.545641e-11	2.313386e+01	-9.345594e-01
2.440000e-06	3.243436e-06	6.433798e-11	2.348395e+01	-8.577324e-01
2.450000e-06	3.291602e-06	6.267974e-11	2.383270e+01	-7.877096e-01
2.460000e-06	3.339497e-06	6.306972e-11	2.417947e+01	-7.249718e-01
2.470000e-06	3.387249e-06	6.552774e-11	2.452522e+01	-6.698586e-01
2.480000e-06	3.434803e-06	6.937583e-11	2.486953e+01	-6.225624e-01
2.490000e-06	3.482076e-06	7.198204e-11	2.521181e+01	-5.831260e-01
2.500000e-06	3.529147e-06	7.330893e-11	2.555262e+01	-5.514435e-01
2.510000e-06	3.575959e-06	7.574511e-11	2.589156e+01	-5.272649e-01
2.520000e-06	3.622475e-06	7.953346e-11	2.622836e+01	-5.102038e-01
2.530000e-06	3.668691e-06	8.130434e-11	2.656299e+01	-4.997488e-01
2.540000e-06	3.714683e-06	8.252448e-11	2.689599e+01	-4.952772e-01
2.550000e-06	3.760531e-06	8.348311e-11	2.722795e+01	-4.960716e-01
2.560000e-06	3.806119e-06	8.277412e-11	2.755803e+01	-5.013389e-01
2.570000e-06	3.851374e-06	8.465376e-11	2.788569e+01	-5.102301e-01
2.580000e-06	3.896363e-06	8.836145e-11	2.821144e+01	-5.218622e-01
2.590000e-06	3.941020e-06	8.990514e-11	2.853477e+01	-5.353398e-01
2.600000e-06	3.985424e-06	9.250135e-11	2.885628e+01	-5.497774e-01
2.610000e-06	4.029691e-06	9.536399e-11	2.917679e+01	-5.643203e-01
2.620000e-06	4.073752e-06	9.713714e-11	2.949581e+01	-5.781654e-01
2.630000e-06	4.117636e-06	9.740817e-11	2.981355e+01	-5.905793e-01
2.640000e-06	4.161346e-06	9.598591e-11	3.013004e+01	-6.009151e-01
2.650000e-06	4.204868e-06	9.358172e-11	3.044516e+01	-6.086258e-01
2.660000e-06	4.248090e-06	9.377724e-11	3.075810e+01	-6.132757e-01
2.670000e-06	4.290782e-06	9.748925e-11	3.106721e+01	-6.145476e-01
2.680000e-06	4.332977e-06	9.970325e-11	3.137272e+01	-6.122480e-01
2.690000e-06	4.374654e-06	9.838154e-11	3.167448e+01	-6.063071e-01
2.700000e-06	4.415831e-06	9.751216e-11	3.197262e+01	-5.967770e-01
2.710000e-06	4.456632e-06	9.986529e-11	3.226803e+01	-5.838254e-01
2.720000e-06	4.497000e-06	1.025931e-10	3.256032e+01	-5.677267e-01
2.730000e-06	4.537124e-06	1.016582e-10	3.285084e+01	-5.488501e-01
2.740000e-06	4.577089e-06	9.871369e-11	3.314020e+01	-5.276452e-01
2.750000e-06	4.616831e-06	9.776326e-11	3.342795e+01	-5.046254e-01
2.760000e-06	4.656313e-06	9.824339e-11	3.371382e+01	-4.803497e-01
2.770000e-06	4.695520e-06	9.867783e-11	3.399770e+01	-4.554034e-01
2.780000e-06	4.734383e-06	9.576853e-11	3.427908e+01	-4.303785e-01
2.790000e-06	4.772802e-06	9.596329e-11	3.455725e+01	-4.058540e-01
2.800000e-06	4.810946e-06	9.742117e-11	3.483343e+01	-3.823767e-01
2.810000e-06	4.848734e-06	9.770427e-11	3.510704e+01	-3.604432e-01
2.820000e-06	4.886137e-06	9.619363e-11	3.537785e+01	-3.404837e-01
2.830000e-06	4.923315e-06	9.445321e-11	3.564703e+01	-3.228481e-01
2.840000e-06	4.960152e-06	9.458616e-11	3.591375e+01	-3.077942e-01
2.850000e-06	4.996668e-06	9.606366e-11	3.617815e+01	-2.954794e-01
2.860000e-06	5.032940e-06	9.555416e-11	3.644077e+01	-2.859548e-01
2.870000e-06	5.068979e-06	9.180964e-11	3.670171e+01	-2.791635e-01
2.880000e-06	5.104826e-06	9.017802e-11	3.696126e+01	-2.749415e-01
2.890000e-06	5.140366e-06	9.134240e-11	3.721859e+01	-2.730224e-01
2.900000e-06	5.175543e-06	9.253877e-11	3.747328e+01	-2.730451e-01
2.910000e-06	5.210208e-06	9.319370e-11	3.772427e+01	-2.745647e-01
