# Temperatura_=_20.0
# Concentracion g/m^3_=_12600.0
# C_Vs_to_Am_M_A/Vsm_=_65563218390.804596
# pendiente_HvsI_1/m_=_3716.3
# ordenada_HvsI_A/m_=_1297.0
# frecuencia_Hz_=_135363.72451773373

Tiempo_(s)	Campo_(V.s)	Magnetizacion_(V.s)	Campo_(kA/m)	Magnetizacion_(A/m)
0.000000e+00	-6.515645e-06	-4.864167e-09	-4.772138e+01	-3.077882e+02
1.000000e-08	-6.515667e-06	-4.864294e-09	-4.772154e+01	-3.079085e+02
2.000000e-08	-6.515444e-06	-4.858016e-09	-4.771990e+01	-3.080125e+02
3.000000e-08	-6.514892e-06	-4.855412e-09	-4.771586e+01	-3.080950e+02
4.000000e-08	-6.513772e-06	-4.858664e-09	-4.770766e+01	-3.081505e+02
5.000000e-08	-6.511938e-06	-4.858029e-09	-4.769422e+01	-3.081738e+02
6.000000e-08	-6.509346e-06	-4.865706e-09	-4.767524e+01	-3.081592e+02
7.000000e-08	-6.506061e-06	-4.877759e-09	-4.765118e+01	-3.081016e+02
8.000000e-08	-6.502335e-06	-4.846725e-09	-4.762390e+01	-3.079961e+02
9.000000e-08	-6.498298e-06	-4.735253e-09	-4.759433e+01	-3.078380e+02
1.000000e-07	-6.493762e-06	-4.745266e-09	-4.756110e+01	-3.076235e+02
1.100000e-07	-6.488593e-06	-4.982205e-09	-4.752325e+01	-3.073494e+02
1.200000e-07	-6.482872e-06	-5.124827e-09	-4.748134e+01	-3.070134e+02
1.300000e-07	-6.476818e-06	-4.767720e-09	-4.743701e+01	-3.066139e+02
1.400000e-07	-6.470524e-06	-4.443823e-09	-4.739091e+01	-3.061504e+02
1.500000e-07	-6.463835e-06	-4.702659e-09	-4.734191e+01	-3.056235e+02
1.600000e-07	-6.456595e-06	-5.151084e-09	-4.728889e+01	-3.050347e+02
1.700000e-07	-6.448965e-06	-4.943227e-09	-4.723300e+01	-3.043868e+02
1.800000e-07	-6.441270e-06	-4.679557e-09	-4.717665e+01	-3.036833e+02
1.900000e-07	-6.433127e-06	-4.607963e-09	-4.711700e+01	-3.029288e+02
2.000000e-07	-6.424461e-06	-4.744747e-09	-4.705354e+01	-3.021289e+02
2.100000e-07	-6.415627e-06	-5.025700e-09	-4.698883e+01	-3.012899e+02
2.200000e-07	-6.406231e-06	-5.071354e-09	-4.692001e+01	-3.004189e+02
2.300000e-07	-6.395704e-06	-4.632883e-09	-4.684291e+01	-2.995232e+02
2.400000e-07	-6.384382e-06	-4.279707e-09	-4.675999e+01	-2.986109e+02
2.500000e-07	-6.372837e-06	-4.779002e-09	-4.667543e+01	-2.976902e+02
2.600000e-07	-6.360802e-06	-5.070927e-09	-4.658729e+01	-2.967691e+02
2.700000e-07	-6.347949e-06	-4.457867e-09	-4.649315e+01	-2.958560e+02
2.800000e-07	-6.334588e-06	-3.987467e-09	-4.639530e+01	-2.949585e+02
2.900000e-07	-6.321058e-06	-4.517992e-09	-4.629620e+01	-2.940841e+02
3.000000e-07	-6.306889e-06	-4.807619e-09	-4.619242e+01	-2.932396e+02
3.100000e-07	-6.291862e-06	-4.250476e-09	-4.608237e+01	-2.924309e+02
3.200000e-07	-6.276258e-06	-4.013840e-09	-4.596808e+01	-2.916634e+02
3.300000e-07	-6.260050e-06	-4.427159e-09	-4.584937e+01	-2.909413e+02
3.400000e-07	-6.243228e-06	-4.320259e-09	-4.572617e+01	-2.902676e+02
3.500000e-07	-6.226117e-06	-4.154370e-09	-4.560084e+01	-2.896446e+02
3.600000e-07	-6.208787e-06	-4.397558e-09	-4.547391e+01	-2.890731e+02
3.700000e-07	-6.191100e-06	-4.390553e-09	-4.534437e+01	-2.885529e+02
3.800000e-07	-6.173034e-06	-4.063655e-09	-4.521205e+01	-2.880828e+02
3.900000e-07	-6.154585e-06	-4.260230e-09	-4.507693e+01	-2.876604e+02
4.000000e-07	-6.135594e-06	-4.458170e-09	-4.493784e+01	-2.872823e+02
4.100000e-07	-6.116028e-06	-4.206706e-09	-4.479453e+01	-2.869442e+02
4.200000e-07	-6.096182e-06	-4.092952e-09	-4.464918e+01	-2.866411e+02
4.300000e-07	-6.076143e-06	-4.284409e-09	-4.450241e+01	-2.863672e+02
4.400000e-07	-6.055840e-06	-4.319967e-09	-4.435371e+01	-2.861163e+02
4.500000e-07	-6.035137e-06	-4.214568e-09	-4.420208e+01	-2.858818e+02
4.600000e-07	-6.013882e-06	-4.200232e-09	-4.404641e+01	-2.856570e+02
4.700000e-07	-5.992255e-06	-4.248427e-09	-4.388800e+01	-2.854348e+02
4.800000e-07	-5.970354e-06	-4.282201e-09	-4.372760e+01	-2.852087e+02
4.900000e-07	-5.948035e-06	-4.156985e-09	-4.356413e+01	-2.849720e+02
5.000000e-07	-5.925162e-06	-4.125146e-09	-4.339661e+01	-2.847187e+02
5.100000e-07	-5.901799e-06	-4.264065e-09	-4.322549e+01	-2.844432e+02
5.200000e-07	-5.878111e-06	-4.264230e-09	-4.305200e+01	-2.841405e+02
5.300000e-07	-5.854173e-06	-4.049799e-09	-4.287667e+01	-2.838064e+02
5.400000e-07	-5.829991e-06	-4.087492e-09	-4.269956e+01	-2.834374e+02
5.500000e-07	-5.805419e-06	-4.219812e-09	-4.251960e+01	-2.830309e+02
5.600000e-07	-5.780162e-06	-4.173921e-09	-4.233461e+01	-2.825851e+02
5.700000e-07	-5.754080e-06	-4.071545e-09	-4.214358e+01	-2.820992e+02
5.800000e-07	-5.727359e-06	-4.095136e-09	-4.194788e+01	-2.815729e+02
5.900000e-07	-5.700160e-06	-4.086466e-09	-4.174867e+01	-2.810071e+02
6.000000e-07	-5.672589e-06	-4.103164e-09	-4.154673e+01	-2.804032e+02
6.100000e-07	-5.644756e-06	-4.132432e-09	-4.134288e+01	-2.797632e+02
6.200000e-07	-5.616773e-06	-4.098779e-09	-4.113793e+01	-2.790899e+02
6.300000e-07	-5.588542e-06	-4.007953e-09	-4.093116e+01	-2.783863e+02
6.400000e-07	-5.559874e-06	-4.020336e-09	-4.072119e+01	-2.776559e+02
6.500000e-07	-5.530729e-06	-4.098466e-09	-4.050774e+01	-2.769023e+02
6.600000e-07	-5.501219e-06	-4.092516e-09	-4.029160e+01	-2.761295e+02
6.700000e-07	-5.471297e-06	-3.972228e-09	-4.007245e+01	-2.753410e+02
6.800000e-07	-5.440976e-06	-3.925611e-09	-3.985037e+01	-2.745406e+02
6.900000e-07	-5.410346e-06	-4.008379e-09	-3.962603e+01	-2.737317e+02
7.000000e-07	-5.379277e-06	-4.047780e-09	-3.939848e+01	-2.729174e+02
7.100000e-07	-5.347803e-06	-3.972583e-09	-3.916796e+01	-2.721005e+02
7.200000e-07	-5.316067e-06	-3.903086e-09	-3.893552e+01	-2.712831e+02
7.300000e-07	-5.284124e-06	-3.922503e-09	-3.870157e+01	-2.704670e+02
7.400000e-07	-5.252019e-06	-3.966357e-09	-3.846643e+01	-2.696534e+02
7.500000e-07	-5.219578e-06	-3.968124e-09	-3.822883e+01	-2.688429e+02
7.600000e-07	-5.186652e-06	-3.900244e-09	-3.798767e+01	-2.680356e+02
7.700000e-07	-5.153199e-06	-3.852651e-09	-3.774265e+01	-2.672310e+02
7.800000e-07	-5.119172e-06	-3.874646e-09	-3.749344e+01	-2.664282e+02
7.900000e-07	-5.084534e-06	-3.912733e-09	-3.723975e+01	-2.656258e+02
8.000000e-07	-5.049304e-06	-3.883184e-09	-3.698171e+01	-2.648220e+02
8.100000e-07	-5.013660e-06	-3.838802e-09	-3.672066e+01	-2.640147e+02
8.200000e-07	-4.977780e-06	-3.812356e-09	-3.645787e+01	-2.632015e+02
8.300000e-07	-4.941715e-06	-3.819996e-09	-3.619372e+01	-2.623801e+02
8.400000e-07	-4.905412e-06	-3.832691e-09	-3.592783e+01	-2.615478e+02
8.500000e-07	-4.868818e-06	-3.825902e-09	-3.565982e+01	-2.607020e+02
8.600000e-07	-4.831838e-06	-3.773798e-09	-3.538897e+01	-2.598405e+02
8.700000e-07	-4.794497e-06	-3.743441e-09	-3.511548e+01	-2.589608e+02
8.800000e-07	-4.756868e-06	-3.763562e-09	-3.483988e+01	-2.580610e+02
8.900000e-07	-4.718968e-06	-3.782163e-09	-3.456230e+01	-2.571394e+02
9.000000e-07	-4.680752e-06	-3.738694e-09	-3.428240e+01	-2.561946e+02
9.100000e-07	-4.642180e-06	-3.684584e-09	-3.399989e+01	-2.552255e+02
9.200000e-07	-4.603271e-06	-3.676734e-09	-3.371492e+01	-2.542317e+02
9.300000e-07	-4.564060e-06	-3.702959e-09	-3.342773e+01	-2.532128e+02
9.400000e-07	-4.524548e-06	-3.697303e-09	-3.313834e+01	-2.521690e+02
9.500000e-07	-4.484739e-06	-3.649062e-09	-3.284677e+01	-2.511010e+02
9.600000e-07	-4.444770e-06	-3.607720e-09	-3.255403e+01	-2.500095e+02
9.700000e-07	-4.404667e-06	-3.610555e-09	-3.226032e+01	-2.488959e+02
9.800000e-07	-4.364207e-06	-3.625069e-09	-3.196399e+01	-2.477616e+02
9.900000e-07	-4.323386e-06	-3.600371e-09	-3.166501e+01	-2.466081e+02
1.000000e-06	-4.282264e-06	-3.549872e-09	-3.136382e+01	-2.454374e+02
1.010000e-06	-4.240566e-06	-3.525584e-09	-3.105843e+01	-2.442511e+02
1.020000e-06	-4.198244e-06	-3.538137e-09	-3.074845e+01	-2.430511e+02
1.030000e-06	-4.155371e-06	-3.536775e-09	-3.043444e+01	-2.418391e+02
1.040000e-06	-4.112243e-06	-3.501316e-09	-3.011857e+01	-2.406167e+02
1.050000e-06	-4.068925e-06	-3.461227e-09	-2.980130e+01	-2.393854e+02
1.060000e-06	-4.025242e-06	-3.454847e-09	-2.948136e+01	-2.381463e+02
1.070000e-06	-3.981378e-06	-3.460208e-09	-2.916010e+01	-2.369003e+02
1.080000e-06	-3.937332e-06	-3.440800e-09	-2.883750e+01	-2.356480e+02
1.090000e-06	-3.893073e-06	-3.398712e-09	-2.851334e+01	-2.343896e+02
1.100000e-06	-3.848569e-06	-3.374065e-09	-2.818739e+01	-2.331250e+02
1.110000e-06	-3.803664e-06	-3.369166e-09	-2.785850e+01	-2.318538e+02
1.120000e-06	-3.758490e-06	-3.359056e-09	-2.752764e+01	-2.305752e+02
1.130000e-06	-3.713088e-06	-3.329695e-09	-2.719511e+01	-2.292882e+02
1.140000e-06	-3.667384e-06	-3.304151e-09	-2.686037e+01	-2.279915e+02
1.150000e-06	-3.621459e-06	-3.287744e-09	-2.652401e+01	-2.266834e+02
1.160000e-06	-3.575353e-06	-3.272161e-09	-2.618632e+01	-2.253623e+02
1.170000e-06	-3.529109e-06	-3.248677e-09	-2.584762e+01	-2.240262e+02
1.180000e-06	-3.482637e-06	-3.224123e-09	-2.550726e+01	-2.226732e+02
1.190000e-06	-3.435849e-06	-3.197812e-09	-2.516457e+01	-2.213014e+02
1.200000e-06	-3.388722e-06	-3.171869e-09	-2.481942e+01	-2.199089e+02
1.210000e-06	-3.341373e-06	-3.148901e-09	-2.447262e+01	-2.184937e+02
1.220000e-06	-3.293967e-06	-3.125442e-09	-2.412542e+01	-2.170542e+02
1.230000e-06	-3.246375e-06	-3.098784e-09	-2.377685e+01	-2.155888e+02
1.240000e-06	-3.198465e-06	-3.072837e-09	-2.342595e+01	-2.140964e+02
1.250000e-06	-3.150394e-06	-3.049939e-09	-2.307387e+01	-2.125758e+02
1.260000e-06	-3.102188e-06	-3.029051e-09	-2.272080e+01	-2.110263e+02
1.270000e-06	-3.053757e-06	-3.005252e-09	-2.236609e+01	-2.094474e+02
1.280000e-06	-3.005188e-06	-2.978923e-09	-2.201036e+01	-2.078389e+02
1.290000e-06	-2.956307e-06	-2.948131e-09	-2.165235e+01	-2.062009e+02
1.300000e-06	-2.907025e-06	-2.917418e-09	-2.129140e+01	-2.045338e+02
1.310000e-06	-2.857298e-06	-2.895408e-09	-2.092720e+01	-2.028382e+02
1.320000e-06	-2.807100e-06	-2.872466e-09	-2.055955e+01	-2.011148e+02
1.330000e-06	-2.756558e-06	-2.839133e-09	-2.018936e+01	-1.993647e+02
1.340000e-06	-2.705676e-06	-2.807081e-09	-1.981670e+01	-1.975890e+02
1.350000e-06	-2.654511e-06	-2.788829e-09	-1.944196e+01	-1.957888e+02
1.360000e-06	-2.603174e-06	-2.768565e-09	-1.906596e+01	-1.939655e+02
1.370000e-06	-2.551673e-06	-2.738086e-09	-1.868877e+01	-1.921202e+02
1.380000e-06	-2.499919e-06	-2.705126e-09	-1.830971e+01	-1.902543e+02
1.390000e-06	-2.448084e-06	-2.679337e-09	-1.793006e+01	-1.883687e+02
1.400000e-06	-2.396179e-06	-2.652736e-09	-1.754991e+01	-1.864646e+02
1.410000e-06	-2.344077e-06	-2.623320e-09	-1.716831e+01	-1.845426e+02
1.420000e-06	-2.291860e-06	-2.593388e-09	-1.678586e+01	-1.826035e+02
1.430000e-06	-2.239458e-06	-2.566303e-09	-1.640206e+01	-1.806477e+02
1.440000e-06	-2.186830e-06	-2.539973e-09	-1.601661e+01	-1.786755e+02
1.450000e-06	-2.134027e-06	-2.513704e-09	-1.562988e+01	-1.766867e+02
1.460000e-06	-2.080966e-06	-2.483961e-09	-1.524125e+01	-1.746812e+02
1.470000e-06	-2.027763e-06	-2.452351e-09	-1.485158e+01	-1.726587e+02
1.480000e-06	-1.974463e-06	-2.423734e-09	-1.446121e+01	-1.706184e+02
1.490000e-06	-1.921004e-06	-2.397576e-09	-1.406967e+01	-1.685595e+02
1.500000e-06	-1.867450e-06	-2.369472e-09	-1.367743e+01	-1.664813e+02
1.510000e-06	-1.813775e-06	-2.338969e-09	-1.328431e+01	-1.643827e+02
1.520000e-06	-1.759966e-06	-2.307949e-09	-1.289021e+01	-1.622625e+02
1.530000e-06	-1.706042e-06	-2.276194e-09	-1.249526e+01	-1.601198e+02
1.540000e-06	-1.652035e-06	-2.243979e-09	-1.209970e+01	-1.579533e+02
1.550000e-06	-1.597966e-06	-2.214255e-09	-1.170369e+01	-1.557621e+02
1.560000e-06	-1.543832e-06	-2.184561e-09	-1.130721e+01	-1.535451e+02
1.570000e-06	-1.489602e-06	-2.148283e-09	-1.091002e+01	-1.513014e+02
1.580000e-06	-1.435297e-06	-2.111299e-09	-1.051229e+01	-1.490304e+02
1.590000e-06	-1.380912e-06	-2.076785e-09	-1.011397e+01	-1.467313e+02
1.600000e-06	-1.326447e-06	-2.041453e-09	-9.715063e+00	-1.444038e+02
1.610000e-06	-1.271886e-06	-2.001538e-09	-9.315450e+00	-1.420476e+02
1.620000e-06	-1.217136e-06	-1.962228e-09	-8.914450e+00	-1.396625e+02
1.630000e-06	-1.162152e-06	-1.928423e-09	-8.511742e+00	-1.372487e+02
1.640000e-06	-1.106974e-06	-1.895579e-09	-8.107610e+00	-1.348064e+02
1.650000e-06	-1.051797e-06	-1.857732e-09	-7.703492e+00	-1.323358e+02
1.660000e-06	-9.965215e-07	-1.819440e-09	-7.298645e+00	-1.298376e+02
1.670000e-06	-9.410874e-07	-1.781272e-09	-6.892639e+00	-1.273121e+02
1.680000e-06	-8.856508e-07	-1.744598e-09	-6.486615e+00	-1.247601e+02
1.690000e-06	-8.301664e-07	-1.710792e-09	-6.080240e+00	-1.221821e+02
1.700000e-06	-7.747230e-07	-1.672395e-09	-5.674166e+00	-1.195789e+02
1.710000e-06	-7.193143e-07	-1.627932e-09	-5.268345e+00	-1.169508e+02
1.720000e-06	-6.638474e-07	-1.585672e-09	-4.862099e+00	-1.142986e+02
1.730000e-06	-6.083324e-07	-1.551558e-09	-4.455501e+00	-1.116225e+02
1.740000e-06	-5.528179e-07	-1.515568e-09	-4.048906e+00	-1.089229e+02
1.750000e-06	-4.972448e-07	-1.471178e-09	-3.641881e+00	-1.061999e+02
1.760000e-06	-4.415770e-07	-1.428139e-09	-3.234164e+00	-1.034535e+02
1.770000e-06	-3.859655e-07	-1.389836e-09	-2.826858e+00	-1.006835e+02
1.780000e-06	-3.303288e-07	-1.350937e-09	-2.419368e+00	-9.788954e+01
1.790000e-06	-2.746319e-07	-1.308940e-09	-2.011438e+00	-9.507114e+01
1.800000e-06	-2.189075e-07	-1.263705e-09	-1.603305e+00	-9.222761e+01
1.810000e-06	-1.631614e-07	-1.218326e-09	-1.195014e+00	-8.935810e+01
1.820000e-06	-1.074557e-07	-1.174355e-09	-7.870185e-01	-8.646166e+01
1.830000e-06	-5.174735e-08	-1.131197e-09	-3.790039e-01	-8.353725e+01
1.840000e-06	3.932516e-09	-1.087574e-09	2.880223e-02	-8.058372e+01
1.850000e-06	5.955242e-08	-1.043078e-09	4.361692e-01	-7.759990e+01
1.860000e-06	1.151563e-07	-9.999278e-10	8.434188e-01	-7.458461e+01
1.870000e-06	1.708090e-07	-9.588275e-10	1.251026e+00	-7.153668e+01
1.880000e-06	2.264639e-07	-9.168525e-10	1.658649e+00	-6.845498e+01
1.890000e-06	2.821008e-07	-8.701291e-10	2.066141e+00	-6.533849e+01
1.900000e-06	3.377653e-07	-8.202924e-10	2.473834e+00	-6.218628e+01
1.910000e-06	3.933977e-07	-7.755064e-10	2.881292e+00	-5.899755e+01
1.920000e-06	4.489980e-07	-7.351494e-10	3.288516e+00	-5.577169e+01
1.930000e-06	5.045793e-07	-6.905557e-10	3.695601e+00	-5.250822e+01
1.940000e-06	5.601260e-07	-6.394033e-10	4.102431e+00	-4.920687e+01
1.950000e-06	6.156547e-07	-5.887308e-10	4.509130e+00	-4.586754e+01
1.960000e-06	6.710843e-07	-5.417875e-10	4.915103e+00	-4.249032e+01
1.970000e-06	7.264659e-07	-4.930250e-10	5.320725e+00	-3.907550e+01
1.980000e-06	7.817754e-07	-4.416852e-10	5.725818e+00	-3.562352e+01
1.990000e-06	8.369170e-07	-3.904794e-10	6.129682e+00	-3.213501e+01
2.000000e-06	8.920769e-07	-3.397014e-10	6.533680e+00	-2.861070e+01
2.010000e-06	9.473140e-07	-2.905967e-10	6.938243e+00	-2.505148e+01
2.020000e-06	1.002548e-06	-2.426929e-10	7.342787e+00	-2.145832e+01
2.030000e-06	1.057645e-06	-1.923316e-10	7.746321e+00	-1.783228e+01
2.040000e-06	1.112660e-06	-1.386578e-10	8.149257e+00	-1.417445e+01
2.050000e-06	1.167537e-06	-8.534566e-11	8.551186e+00	-1.048599e+01
2.060000e-06	1.222319e-06	-3.400817e-11	8.952414e+00	-6.768054e+00
2.070000e-06	1.277077e-06	1.794848e-11	9.353465e+00	-3.021789e+00
2.080000e-06	1.331677e-06	7.424123e-11	9.753367e+00	7.516618e-01
2.090000e-06	1.386152e-06	1.300351e-10	1.015235e+01	4.551182e+00
2.100000e-06	1.440487e-06	1.838074e-10	1.055030e+01	8.375680e+00
2.110000e-06	1.494701e-06	2.383099e-10	1.094737e+01	1.222409e+01
2.120000e-06	1.548804e-06	2.932314e-10	1.134363e+01	1.609537e+01
2.130000e-06	1.602804e-06	3.486214e-10	1.173913e+01	1.998847e+01
2.140000e-06	1.656768e-06	4.063786e-10	1.213437e+01	2.390236e+01
2.150000e-06	1.710701e-06	4.637924e-10	1.252938e+01	2.783596e+01
2.160000e-06	1.764597e-06	5.184143e-10	1.292412e+01	3.178816e+01
2.170000e-06	1.818358e-06	5.746976e-10	1.331787e+01	3.575775e+01
2.180000e-06	1.871905e-06	6.328629e-10	1.371006e+01	3.974345e+01
2.190000e-06	1.925406e-06	6.906632e-10	1.410191e+01	4.374385e+01
2.200000e-06	1.978754e-06	7.495270e-10	1.449263e+01	4.775739e+01
2.210000e-06	2.031806e-06	8.095361e-10	1.488120e+01	5.178233e+01
2.220000e-06	2.084743e-06	8.685665e-10	1.526891e+01	5.581674e+01
2.230000e-06	2.137592e-06	9.284233e-10	1.565599e+01	5.985851e+01
2.240000e-06	2.190234e-06	9.900048e-10	1.604154e+01	6.390529e+01
2.250000e-06	2.242651e-06	1.049914e-09	1.642545e+01	6.795451e+01
2.260000e-06	2.294947e-06	1.106081e-09	1.680847e+01	7.200340e+01
2.270000e-06	2.347103e-06	1.162518e-09	1.719047e+01	7.604897e+01
2.280000e-06	2.399019e-06	1.220397e-09	1.757071e+01	8.008804e+01
2.290000e-06	2.450740e-06	1.278369e-09	1.794952e+01	8.411727e+01
2.300000e-06	2.502337e-06	1.336550e-09	1.832742e+01	8.813316e+01
2.310000e-06	2.553720e-06	1.396708e-09	1.870376e+01	9.213212e+01
2.320000e-06	2.604990e-06	1.455522e-09	1.907926e+01	9.611050e+01
2.330000e-06	2.656189e-06	1.513004e-09	1.945425e+01	1.000646e+02
2.340000e-06	2.707002e-06	1.569446e-09	1.982642e+01	1.039908e+02
2.350000e-06	2.757366e-06	1.624200e-09	2.019529e+01	1.078856e+02
2.360000e-06	2.807313e-06	1.678850e-09	2.056110e+01	1.117454e+02
2.370000e-06	2.857065e-06	1.732326e-09	2.092549e+01	1.155671e+02
2.380000e-06	2.906613e-06	1.782938e-09	2.128839e+01	1.193476e+02
2.390000e-06	2.955609e-06	1.835828e-09	2.164724e+01	1.230842e+02
2.400000e-06	3.004106e-06	1.892198e-09	2.200244e+01	1.267743e+02
2.410000e-06	3.052369e-06	1.947255e-09	2.235592e+01	1.304159e+02
2.420000e-06	3.100476e-06	1.998218e-09	2.270826e+01	1.340073e+02
2.430000e-06	3.148421e-06	2.048253e-09	2.305942e+01	1.375470e+02
2.440000e-06	3.196219e-06	2.100125e-09	2.340949e+01	1.410342e+02
2.450000e-06	3.243903e-06	2.149903e-09	2.375874e+01	1.444682e+02
2.460000e-06	3.291495e-06	2.194636e-09	2.410731e+01	1.478489e+02
2.470000e-06	3.338901e-06	2.239256e-09	2.445452e+01	1.511764e+02
2.480000e-06	3.386073e-06	2.288199e-09	2.480001e+01	1.544513e+02
2.490000e-06	3.432976e-06	2.337648e-09	2.514353e+01	1.576743e+02
2.500000e-06	3.479504e-06	2.384726e-09	2.548431e+01	1.608467e+02
2.510000e-06	3.525677e-06	2.429145e-09	2.582249e+01	1.639696e+02
2.520000e-06	3.571670e-06	2.475622e-09	2.615934e+01	1.670445e+02
2.530000e-06	3.617482e-06	2.524754e-09	2.649488e+01	1.700731e+02
2.540000e-06	3.663075e-06	2.571135e-09	2.682881e+01	1.730570e+02
2.550000e-06	3.708459e-06	2.612077e-09	2.716120e+01	1.759978e+02
2.560000e-06	3.753520e-06	2.650480e-09	2.749124e+01	1.788972e+02
2.570000e-06	3.798268e-06	2.689428e-09	2.781898e+01	1.817567e+02
2.580000e-06	3.842767e-06	2.730791e-09	2.814490e+01	1.845777e+02
2.590000e-06	3.887073e-06	2.772202e-09	2.846940e+01	1.873613e+02
2.600000e-06	3.931180e-06	2.812631e-09	2.879244e+01	1.901086e+02
2.610000e-06	3.975091e-06	2.851853e-09	2.911405e+01	1.928203e+02
2.620000e-06	4.018850e-06	2.888891e-09	2.943455e+01	1.954970e+02
2.630000e-06	4.062488e-06	2.924939e-09	2.975416e+01	1.981388e+02
2.640000e-06	4.105915e-06	2.960590e-09	3.007222e+01	2.007459e+02
2.650000e-06	4.148957e-06	2.995225e-09	3.038746e+01	2.033180e+02
2.660000e-06	4.191591e-06	3.027925e-09	3.069972e+01	2.058547e+02
2.670000e-06	4.233802e-06	3.061099e-09	3.100888e+01	2.083553e+02
2.680000e-06	4.275462e-06	3.095725e-09	3.131401e+01	2.108191e+02
2.690000e-06	4.316559e-06	3.130658e-09	3.161501e+01	2.132453e+02
2.700000e-06	4.357200e-06	3.164055e-09	3.191266e+01	2.156328e+02
2.710000e-06	4.397415e-06	3.196749e-09	3.220720e+01	2.179807e+02
2.720000e-06	4.437396e-06	3.230125e-09	3.250003e+01	2.202880e+02
2.730000e-06	4.477243e-06	3.262524e-09	3.279188e+01	2.225539e+02
2.740000e-06	4.516883e-06	3.293816e-09	3.308220e+01	2.247775e+02
2.750000e-06	4.556303e-06	3.324546e-09	3.337092e+01	2.269581e+02
2.760000e-06	4.595543e-06	3.353937e-09	3.365832e+01	2.290954e+02
2.770000e-06	4.634514e-06	3.382298e-09	3.394375e+01	2.311891e+02
2.780000e-06	4.673016e-06	3.411461e-09	3.422574e+01	2.332392e+02
2.790000e-06	4.711030e-06	3.441651e-09	3.450416e+01	2.352457e+02
2.800000e-06	4.748761e-06	3.470188e-09	3.478051e+01	2.372093e+02
2.810000e-06	4.786320e-06	3.498216e-09	3.505559e+01	2.391306e+02
2.820000e-06	4.823582e-06	3.525251e-09	3.532850e+01	2.410105e+02
2.830000e-06	4.860495e-06	3.549828e-09	3.559886e+01	2.428500e+02
2.840000e-06	4.897086e-06	3.574214e-09	3.586685e+01	2.446506e+02
2.850000e-06	4.933379e-06	3.598753e-09	3.613267e+01	2.464135e+02
2.860000e-06	4.969355e-06	3.620476e-09	3.639616e+01	2.481403e+02
2.870000e-06	5.005107e-06	3.641092e-09	3.665802e+01	2.498326e+02
2.880000e-06	5.040670e-06	3.663532e-09	3.691848e+01	2.514919e+02
2.890000e-06	5.075942e-06	3.687167e-09	3.717681e+01	2.531198e+02
2.900000e-06	5.110768e-06	3.711729e-09	3.743189e+01	2.547177e+02
