# Temperatura_=_20.0
# Concentracion g/m^3_=_12600.0
# C_Vs_to_Am_M_A/Vsm_=_65563218390.804596
# pendiente_HvsI_1/m_=_3716.3
# ordenada_HvsI_A/m_=_1297.0
# frecuencia_Hz_=_135359.0824956055

Tiempo_(s)	Campo_(V.s)	Magnetizacion_(V.s)	Campo_(kA/m)	Magnetizacion_(A/m)
0.000000e+00	-6.609647e-06	-4.817827e-09	-4.772246e+01	-3.079460e+02
1.000000e-08	-6.609711e-06	-4.820176e-09	-4.772292e+01	-3.079747e+02
2.000000e-08	-6.609448e-06	-4.821151e-09	-4.772103e+01	-3.079809e+02
3.000000e-08	-6.608767e-06	-4.821059e-09	-4.771611e+01	-3.079606e+02
4.000000e-08	-6.607408e-06	-4.817083e-09	-4.770630e+01	-3.079097e+02
5.000000e-08	-6.605310e-06	-4.813801e-09	-4.769115e+01	-3.078240e+02
6.000000e-08	-6.602524e-06	-4.811222e-09	-4.767104e+01	-3.076997e+02
7.000000e-08	-6.599155e-06	-4.802784e-09	-4.764671e+01	-3.075331e+02
8.000000e-08	-6.595433e-06	-4.778615e-09	-4.761983e+01	-3.073207e+02
9.000000e-08	-6.591375e-06	-4.774972e-09	-4.759053e+01	-3.070599e+02
1.000000e-07	-6.586720e-06	-4.836326e-09	-4.755693e+01	-3.067482e+02
1.100000e-07	-6.581270e-06	-4.919242e-09	-4.751758e+01	-3.063842e+02
1.200000e-07	-6.575320e-06	-4.855533e-09	-4.747461e+01	-3.059669e+02
1.300000e-07	-6.569152e-06	-4.680529e-09	-4.743009e+01	-3.054961e+02
1.400000e-07	-6.562704e-06	-4.635643e-09	-4.738353e+01	-3.049726e+02
1.500000e-07	-6.555828e-06	-4.847890e-09	-4.733388e+01	-3.043980e+02
1.600000e-07	-6.548497e-06	-4.973978e-09	-4.728095e+01	-3.037746e+02
1.700000e-07	-6.540833e-06	-4.841630e-09	-4.722561e+01	-3.031056e+02
1.800000e-07	-6.532815e-06	-4.679272e-09	-4.716772e+01	-3.023948e+02
1.900000e-07	-6.524462e-06	-4.706032e-09	-4.710742e+01	-3.016471e+02
2.000000e-07	-6.515856e-06	-4.825287e-09	-4.704528e+01	-3.008677e+02
2.100000e-07	-6.506806e-06	-4.906441e-09	-4.697994e+01	-3.000623e+02
2.200000e-07	-6.496802e-06	-4.824537e-09	-4.690771e+01	-2.992373e+02
2.300000e-07	-6.485827e-06	-4.600772e-09	-4.682847e+01	-2.983991e+02
2.400000e-07	-6.474399e-06	-4.540049e-09	-4.674596e+01	-2.975546e+02
2.500000e-07	-6.462555e-06	-4.700226e-09	-4.666044e+01	-2.967104e+02
2.600000e-07	-6.449997e-06	-4.708534e-09	-4.656977e+01	-2.958733e+02
2.700000e-07	-6.436797e-06	-4.431952e-09	-4.647446e+01	-2.950496e+02
2.800000e-07	-6.423253e-06	-4.333017e-09	-4.637668e+01	-2.942454e+02
2.900000e-07	-6.409311e-06	-4.530367e-09	-4.627601e+01	-2.934664e+02
3.000000e-07	-6.394633e-06	-4.551399e-09	-4.617003e+01	-2.927174e+02
3.100000e-07	-6.379154e-06	-4.289326e-09	-4.605828e+01	-2.920028e+02
3.200000e-07	-6.363153e-06	-4.229050e-09	-4.594275e+01	-2.913261e+02
3.300000e-07	-6.346736e-06	-4.379554e-09	-4.582422e+01	-2.906898e+02
3.400000e-07	-6.329866e-06	-4.376501e-09	-4.570241e+01	-2.900958e+02
3.500000e-07	-6.312614e-06	-4.261656e-09	-4.557785e+01	-2.895449e+02
3.600000e-07	-6.295033e-06	-4.324008e-09	-4.545091e+01	-2.890369e+02
3.700000e-07	-6.277112e-06	-4.363165e-09	-4.532152e+01	-2.885708e+02
3.800000e-07	-6.258695e-06	-4.297568e-09	-4.518855e+01	-2.881447e+02
3.900000e-07	-6.239752e-06	-4.300410e-09	-4.505178e+01	-2.877559e+02
4.000000e-07	-6.220392e-06	-4.338760e-09	-4.491199e+01	-2.874010e+02
4.100000e-07	-6.200651e-06	-4.283310e-09	-4.476946e+01	-2.870757e+02
4.200000e-07	-6.180640e-06	-4.282543e-09	-4.462498e+01	-2.867753e+02
4.300000e-07	-6.160364e-06	-4.321107e-09	-4.447858e+01	-2.864949e+02
4.400000e-07	-6.139620e-06	-4.272554e-09	-4.432881e+01	-2.862287e+02
4.500000e-07	-6.118440e-06	-4.230385e-09	-4.417589e+01	-2.859713e+02
4.600000e-07	-6.096875e-06	-4.304844e-09	-4.402018e+01	-2.857168e+02
4.700000e-07	-6.074893e-06	-4.336609e-09	-4.386147e+01	-2.854596e+02
4.800000e-07	-6.052439e-06	-4.220952e-09	-4.369935e+01	-2.851940e+02
4.900000e-07	-6.029525e-06	-4.151604e-09	-4.353391e+01	-2.849150e+02
5.000000e-07	-6.006263e-06	-4.244327e-09	-4.336596e+01	-2.846176e+02
5.100000e-07	-5.982669e-06	-4.319205e-09	-4.319560e+01	-2.842975e+02
5.200000e-07	-5.958708e-06	-4.210661e-09	-4.302260e+01	-2.839508e+02
5.300000e-07	-5.934364e-06	-4.098051e-09	-4.284684e+01	-2.835744e+02
5.400000e-07	-5.909599e-06	-4.150136e-09	-4.266803e+01	-2.831656e+02
5.500000e-07	-5.884248e-06	-4.250190e-09	-4.248500e+01	-2.827226e+02
5.600000e-07	-5.858222e-06	-4.209872e-09	-4.229708e+01	-2.822442e+02
5.700000e-07	-5.831501e-06	-4.110320e-09	-4.210415e+01	-2.817300e+02
5.800000e-07	-5.804193e-06	-4.088897e-09	-4.190698e+01	-2.811800e+02
5.900000e-07	-5.776603e-06	-4.156336e-09	-4.170778e+01	-2.805949e+02
6.000000e-07	-5.748835e-06	-4.187125e-09	-4.150730e+01	-2.799762e+02
6.100000e-07	-5.720762e-06	-4.135436e-09	-4.130460e+01	-2.793254e+02
6.200000e-07	-5.692286e-06	-4.069551e-09	-4.109900e+01	-2.786450e+02
6.300000e-07	-5.663363e-06	-4.075076e-09	-4.089017e+01	-2.779372e+02
6.400000e-07	-5.634126e-06	-4.113793e-09	-4.067908e+01	-2.772050e+02
6.500000e-07	-5.604575e-06	-4.114209e-09	-4.046572e+01	-2.764510e+02
6.600000e-07	-5.574635e-06	-4.061129e-09	-4.024955e+01	-2.756784e+02
6.700000e-07	-5.544288e-06	-4.017919e-09	-4.003044e+01	-2.748899e+02
6.800000e-07	-5.513455e-06	-4.027106e-09	-3.980782e+01	-2.740884e+02
6.900000e-07	-5.482246e-06	-4.052723e-09	-3.958249e+01	-2.732764e+02
7.000000e-07	-5.450780e-06	-4.035020e-09	-3.935530e+01	-2.724562e+02
7.100000e-07	-5.419051e-06	-3.995156e-09	-3.912621e+01	-2.716299e+02
7.200000e-07	-5.387089e-06	-3.978790e-09	-3.889544e+01	-2.707991e+02
7.300000e-07	-5.354758e-06	-3.980091e-09	-3.866201e+01	-2.699651e+02
7.400000e-07	-5.321924e-06	-3.979202e-09	-3.842494e+01	-2.691288e+02
7.500000e-07	-5.288651e-06	-3.968743e-09	-3.818471e+01	-2.682906e+02
7.600000e-07	-5.254831e-06	-3.947731e-09	-3.794052e+01	-2.674506e+02
7.700000e-07	-5.220436e-06	-3.924704e-09	-3.769219e+01	-2.666086e+02
7.800000e-07	-5.185556e-06	-3.917829e-09	-3.744035e+01	-2.657638e+02
7.900000e-07	-5.150198e-06	-3.920499e-09	-3.718506e+01	-2.649155e+02
8.000000e-07	-5.114537e-06	-3.920072e-09	-3.692758e+01	-2.640623e+02
8.100000e-07	-5.078618e-06	-3.899807e-09	-3.666824e+01	-2.632030e+02
8.200000e-07	-5.042406e-06	-3.865822e-09	-3.640679e+01	-2.623359e+02
8.300000e-07	-5.005855e-06	-3.846441e-09	-3.614289e+01	-2.614596e+02
8.400000e-07	-4.968941e-06	-3.858546e-09	-3.587637e+01	-2.605722e+02
8.500000e-07	-4.931703e-06	-3.861451e-09	-3.560750e+01	-2.596724e+02
8.600000e-07	-4.894140e-06	-3.826758e-09	-3.533629e+01	-2.587586e+02
8.700000e-07	-4.856239e-06	-3.790883e-09	-3.506264e+01	-2.578294e+02
8.800000e-07	-4.818024e-06	-3.798721e-09	-3.478672e+01	-2.568836e+02
8.900000e-07	-4.779480e-06	-3.813844e-09	-3.450843e+01	-2.559203e+02
9.000000e-07	-4.740577e-06	-3.789415e-09	-3.422755e+01	-2.549388e+02
9.100000e-07	-4.701382e-06	-3.744688e-09	-3.394456e+01	-2.539386e+02
9.200000e-07	-4.661945e-06	-3.727885e-09	-3.365982e+01	-2.529194e+02
9.300000e-07	-4.622269e-06	-3.737012e-09	-3.337335e+01	-2.518812e+02
9.400000e-07	-4.582323e-06	-3.733524e-09	-3.308493e+01	-2.508245e+02
9.500000e-07	-4.541993e-06	-3.701930e-09	-3.279375e+01	-2.497496e+02
9.600000e-07	-4.501221e-06	-3.671360e-09	-3.249937e+01	-2.486572e+02
9.700000e-07	-4.460123e-06	-3.664048e-09	-3.220264e+01	-2.475482e+02
9.800000e-07	-4.418646e-06	-3.666711e-09	-3.190316e+01	-2.464235e+02
9.900000e-07	-4.376613e-06	-3.649903e-09	-3.159969e+01	-2.452841e+02
1.000000e-06	-4.334267e-06	-3.615117e-09	-3.129394e+01	-2.441312e+02
1.010000e-06	-4.291546e-06	-3.589946e-09	-3.098549e+01	-2.429656e+02
1.020000e-06	-4.248369e-06	-3.581572e-09	-3.067375e+01	-2.417883e+02
1.030000e-06	-4.204966e-06	-3.574235e-09	-3.036037e+01	-2.406004e+02
1.040000e-06	-4.161351e-06	-3.555902e-09	-3.004547e+01	-2.394023e+02
1.050000e-06	-4.117469e-06	-3.532052e-09	-2.972863e+01	-2.381947e+02
1.060000e-06	-4.073323e-06	-3.516014e-09	-2.940989e+01	-2.369780e+02
1.070000e-06	-4.028981e-06	-3.507144e-09	-2.908973e+01	-2.357522e+02
1.080000e-06	-3.984376e-06	-3.492498e-09	-2.876768e+01	-2.345172e+02
1.090000e-06	-3.939389e-06	-3.470009e-09	-2.844287e+01	-2.332728e+02
1.100000e-06	-3.894067e-06	-3.445329e-09	-2.811564e+01	-2.320183e+02
1.110000e-06	-3.848566e-06	-3.425051e-09	-2.778712e+01	-2.307530e+02
1.120000e-06	-3.802767e-06	-3.406904e-09	-2.745644e+01	-2.294759e+02
1.130000e-06	-3.756684e-06	-3.389419e-09	-2.712372e+01	-2.281859e+02
1.140000e-06	-3.710351e-06	-3.369157e-09	-2.678919e+01	-2.268816e+02
1.150000e-06	-3.663752e-06	-3.343320e-09	-2.645274e+01	-2.255618e+02
1.160000e-06	-3.616934e-06	-3.317309e-09	-2.611471e+01	-2.242250e+02
1.170000e-06	-3.569920e-06	-3.300249e-09	-2.577526e+01	-2.228696e+02
1.180000e-06	-3.522722e-06	-3.286550e-09	-2.543449e+01	-2.214944e+02
1.190000e-06	-3.475264e-06	-3.263072e-09	-2.509184e+01	-2.200979e+02
1.200000e-06	-3.427587e-06	-3.232355e-09	-2.474760e+01	-2.186787e+02
1.210000e-06	-3.379688e-06	-3.207443e-09	-2.440176e+01	-2.172359e+02
1.220000e-06	-3.331500e-06	-3.187070e-09	-2.405384e+01	-2.157683e+02
1.230000e-06	-3.283049e-06	-3.163321e-09	-2.370402e+01	-2.142751e+02
1.240000e-06	-3.234223e-06	-3.132963e-09	-2.335148e+01	-2.127559e+02
1.250000e-06	-3.185137e-06	-3.103530e-09	-2.299708e+01	-2.112100e+02
1.260000e-06	-3.135802e-06	-3.079604e-09	-2.264087e+01	-2.096374e+02
1.270000e-06	-3.086110e-06	-3.058895e-09	-2.228209e+01	-2.080382e+02
1.280000e-06	-3.036117e-06	-3.033682e-09	-2.192114e+01	-2.064125e+02
1.290000e-06	-2.985661e-06	-3.002762e-09	-2.155684e+01	-2.047608e+02
1.300000e-06	-2.934861e-06	-2.974230e-09	-2.119006e+01	-2.030836e+02
1.310000e-06	-2.883815e-06	-2.952935e-09	-2.082150e+01	-2.013818e+02
1.320000e-06	-2.832514e-06	-2.930451e-09	-2.045110e+01	-1.996562e+02
1.330000e-06	-2.781054e-06	-2.899097e-09	-2.007955e+01	-1.979077e+02
1.340000e-06	-2.729361e-06	-2.866813e-09	-1.970632e+01	-1.961372e+02
1.350000e-06	-2.677366e-06	-2.842081e-09	-1.933091e+01	-1.943457e+02
1.360000e-06	-2.625158e-06	-2.819018e-09	-1.895396e+01	-1.925342e+02
1.370000e-06	-2.572736e-06	-2.791402e-09	-1.857547e+01	-1.907035e+02
1.380000e-06	-2.520071e-06	-2.763986e-09	-1.819522e+01	-1.888544e+02
1.390000e-06	-2.467306e-06	-2.737188e-09	-1.781425e+01	-1.869875e+02
1.400000e-06	-2.414397e-06	-2.709490e-09	-1.743224e+01	-1.851032e+02
1.410000e-06	-2.361269e-06	-2.680479e-09	-1.704865e+01	-1.832019e+02
1.420000e-06	-2.308028e-06	-2.651942e-09	-1.666425e+01	-1.812838e+02
1.430000e-06	-2.254645e-06	-2.625544e-09	-1.627881e+01	-1.793487e+02
1.440000e-06	-2.201122e-06	-2.599165e-09	-1.589237e+01	-1.773963e+02
1.450000e-06	-2.147487e-06	-2.570968e-09	-1.550512e+01	-1.754263e+02
1.460000e-06	-2.093705e-06	-2.543115e-09	-1.511681e+01	-1.734381e+02
1.470000e-06	-2.039831e-06	-2.516725e-09	-1.472783e+01	-1.714308e+02
1.480000e-06	-1.985838e-06	-2.489961e-09	-1.433800e+01	-1.694036e+02
1.490000e-06	-1.931596e-06	-2.459434e-09	-1.394636e+01	-1.673554e+02
1.500000e-06	-1.877151e-06	-2.427482e-09	-1.355326e+01	-1.652853e+02
1.510000e-06	-1.822531e-06	-2.396444e-09	-1.315889e+01	-1.631920e+02
1.520000e-06	-1.767819e-06	-2.367269e-09	-1.276387e+01	-1.610744e+02
1.530000e-06	-1.713030e-06	-2.336548e-09	-1.236829e+01	-1.589314e+02
1.540000e-06	-1.658077e-06	-2.304255e-09	-1.197152e+01	-1.567620e+02
1.550000e-06	-1.603125e-06	-2.275494e-09	-1.157476e+01	-1.545650e+02
1.560000e-06	-1.548174e-06	-2.247569e-09	-1.117801e+01	-1.523397e+02
1.570000e-06	-1.493019e-06	-2.214887e-09	-1.077978e+01	-1.500853e+02
1.580000e-06	-1.437747e-06	-2.177756e-09	-1.038071e+01	-1.478011e+02
1.590000e-06	-1.382432e-06	-2.139889e-09	-9.981326e+00	-1.454867e+02
1.600000e-06	-1.326998e-06	-2.102073e-09	-9.581088e+00	-1.431417e+02
1.610000e-06	-1.271533e-06	-2.066637e-09	-9.180627e+00	-1.407660e+02
1.620000e-06	-1.216048e-06	-2.033949e-09	-8.780015e+00	-1.383597e+02
1.630000e-06	-1.160473e-06	-1.998125e-09	-8.378760e+00	-1.359229e+02
1.640000e-06	-1.104792e-06	-1.957224e-09	-7.976735e+00	-1.334558e+02
1.650000e-06	-1.049046e-06	-1.917511e-09	-7.574244e+00	-1.309590e+02
1.660000e-06	-9.932653e-07	-1.882785e-09	-7.171497e+00	-1.284329e+02
1.670000e-06	-9.374554e-07	-1.848943e-09	-6.768543e+00	-1.258781e+02
1.680000e-06	-8.816255e-07	-1.811745e-09	-6.365444e+00	-1.232952e+02
1.690000e-06	-8.257847e-07	-1.772265e-09	-5.962267e+00	-1.206849e+02
1.700000e-06	-7.699214e-07	-1.733438e-09	-5.558927e+00	-1.180479e+02
1.710000e-06	-7.140004e-07	-1.693813e-09	-5.155171e+00	-1.153847e+02
1.720000e-06	-6.581006e-07	-1.654759e-09	-4.751567e+00	-1.126958e+02
1.730000e-06	-6.022321e-07	-1.618385e-09	-4.348190e+00	-1.099817e+02
1.740000e-06	-5.463234e-07	-1.580453e-09	-3.944522e+00	-1.072427e+02
1.750000e-06	-4.903121e-07	-1.538969e-09	-3.540114e+00	-1.044791e+02
1.760000e-06	-4.341669e-07	-1.498938e-09	-3.134738e+00	-1.016909e+02
1.770000e-06	-3.780664e-07	-1.460063e-09	-2.729686e+00	-9.887799e+01
1.780000e-06	-3.220083e-07	-1.418432e-09	-2.324939e+00	-9.604019e+01
1.790000e-06	-2.658897e-07	-1.372560e-09	-1.919756e+00	-9.317711e+01
1.800000e-06	-2.096929e-07	-1.325326e-09	-1.514009e+00	-9.028824e+01
1.810000e-06	-1.535457e-07	-1.280738e-09	-1.108619e+00	-8.737293e+01
1.820000e-06	-9.744924e-08	-1.236555e-09	-7.035955e-01	-8.443041e+01
1.830000e-06	-4.127372e-08	-1.189862e-09	-2.980013e-01	-8.145981e+01
1.840000e-06	1.488230e-08	-1.141984e-09	1.074520e-01	-7.846020e+01
1.850000e-06	7.099794e-08	-1.095639e-09	5.126138e-01	-7.543057e+01
1.860000e-06	1.271341e-07	-1.051306e-09	9.179239e-01	-7.236987e+01
1.870000e-06	1.832616e-07	-1.008101e-09	1.323171e+00	-6.927708e+01
1.880000e-06	2.393788e-07	-9.617000e-10	1.728344e+00	-6.615115e+01
1.890000e-06	2.954797e-07	-9.137382e-10	2.133399e+00	-6.299110e+01
1.900000e-06	3.515371e-07	-8.677900e-10	2.538141e+00	-5.979600e+01
1.910000e-06	4.076414e-07	-8.242666e-10	2.943221e+00	-5.656498e+01
1.920000e-06	4.637041e-07	-7.816234e-10	3.348001e+00	-5.329731e+01
1.930000e-06	5.196863e-07	-7.348410e-10	3.752199e+00	-4.999234e+01
1.940000e-06	5.756512e-07	-6.855333e-10	4.156272e+00	-4.664954e+01
1.950000e-06	6.315926e-07	-6.388458e-10	4.560176e+00	-4.326854e+01
1.960000e-06	6.874546e-07	-5.938047e-10	4.963507e+00	-3.984907e+01
1.970000e-06	7.433007e-07	-5.442143e-10	5.366722e+00	-3.639104e+01
1.980000e-06	7.991404e-07	-4.898936e-10	5.769892e+00	-3.289447e+01
1.990000e-06	8.548702e-07	-4.354170e-10	6.172268e+00	-2.935952e+01
2.000000e-06	9.105582e-07	-3.834107e-10	6.574342e+00	-2.578649e+01
2.010000e-06	9.662251e-07	-3.317241e-10	6.976264e+00	-2.217579e+01
2.020000e-06	1.021893e-06	-2.788108e-10	7.378196e+00	-1.852796e+01
2.030000e-06	1.077519e-06	-2.258023e-10	7.779820e+00	-1.484365e+01
2.040000e-06	1.133055e-06	-1.728226e-10	8.180794e+00	-1.112361e+01
2.050000e-06	1.188567e-06	-1.209929e-10	8.581601e+00	-7.368681e+00
2.060000e-06	1.244030e-06	-6.866963e-11	8.982050e+00	-3.579810e+00
2.070000e-06	1.299448e-06	-1.405771e-11	9.382177e+00	2.419793e-01
2.080000e-06	1.354827e-06	4.089618e-11	9.782014e+00	4.095573e+00
2.090000e-06	1.410038e-06	9.556821e-11	1.018065e+01	7.979770e+00
2.100000e-06	1.465177e-06	1.506142e-10	1.057875e+01	1.189328e+01
2.110000e-06	1.520348e-06	2.072939e-10	1.097710e+01	1.583473e+01
2.120000e-06	1.575400e-06	2.643773e-10	1.137458e+01	1.980262e+01
2.130000e-06	1.630315e-06	3.208118e-10	1.177108e+01	2.379537e+01
2.140000e-06	1.685078e-06	3.774464e-10	1.216647e+01	2.781128e+01
2.150000e-06	1.739604e-06	4.327679e-10	1.256015e+01	3.184851e+01
2.160000e-06	1.794084e-06	4.884008e-10	1.295351e+01	3.590510e+01
2.170000e-06	1.848574e-06	5.464900e-10	1.334693e+01	3.997894e+01
2.180000e-06	1.902875e-06	6.044020e-10	1.373899e+01	4.406776e+01
2.190000e-06	1.957056e-06	6.609695e-10	1.413019e+01	4.816914e+01
2.200000e-06	2.011101e-06	7.196016e-10	1.452040e+01	5.228052e+01
2.210000e-06	2.064998e-06	7.804947e-10	1.490954e+01	5.639914e+01
2.220000e-06	2.118781e-06	8.426435e-10	1.529786e+01	6.052211e+01
2.230000e-06	2.172326e-06	9.044203e-10	1.568446e+01	6.464639e+01
2.240000e-06	2.225654e-06	9.650803e-10	1.606949e+01	6.876879e+01
2.250000e-06	2.278780e-06	1.024536e-09	1.645307e+01	7.288600e+01
2.260000e-06	2.331796e-06	1.084521e-09	1.683585e+01	7.699461e+01
2.270000e-06	2.384610e-06	1.144584e-09	1.721718e+01	8.109116e+01
2.280000e-06	2.437148e-06	1.200380e-09	1.759650e+01	8.517209e+01
2.290000e-06	2.489616e-06	1.255474e-09	1.797533e+01	8.923387e+01
2.300000e-06	2.541995e-06	1.313587e-09	1.835352e+01	9.327296e+01
2.310000e-06	2.594145e-06	1.372536e-09	1.873004e+01	9.728591e+01
2.320000e-06	2.646063e-06	1.430762e-09	1.910490e+01	1.012693e+02
2.330000e-06	2.697869e-06	1.485406e-09	1.947894e+01	1.052200e+02
2.340000e-06	2.749576e-06	1.538534e-09	1.985228e+01	1.091348e+02
2.350000e-06	2.800943e-06	1.594261e-09	2.022315e+01	1.130109e+02
2.360000e-06	2.851943e-06	1.649058e-09	2.059138e+01	1.168457e+02
2.370000e-06	2.902670e-06	1.701796e-09	2.095763e+01	1.206369e+02
2.380000e-06	2.953102e-06	1.753518e-09	2.132176e+01	1.243823e+02
2.390000e-06	3.003174e-06	1.808178e-09	2.168328e+01	1.280803e+02
2.400000e-06	3.052864e-06	1.864550e-09	2.204206e+01	1.317294e+02
2.410000e-06	3.102276e-06	1.917736e-09	2.239881e+01	1.353287e+02
2.420000e-06	3.151320e-06	1.967896e-09	2.275292e+01	1.388773e+02
2.430000e-06	3.200034e-06	2.019106e-09	2.310464e+01	1.423748e+02
2.440000e-06	3.248439e-06	2.069747e-09	2.345413e+01	1.458213e+02
2.450000e-06	3.296589e-06	2.116492e-09	2.380178e+01	1.492168e+02
2.460000e-06	3.344578e-06	2.160628e-09	2.414826e+01	1.525620e+02
2.470000e-06	3.392423e-06	2.205736e-09	2.449371e+01	1.558575e+02
2.480000e-06	3.440167e-06	2.253580e-09	2.483843e+01	1.591042e+02
2.490000e-06	3.487690e-06	2.301703e-09	2.518155e+01	1.623032e+02
2.500000e-06	3.534956e-06	2.346252e-09	2.552282e+01	1.654558e+02
2.510000e-06	3.582014e-06	2.390558e-09	2.586258e+01	1.685631e+02
2.520000e-06	3.628789e-06	2.437594e-09	2.620030e+01	1.716265e+02
2.530000e-06	3.675218e-06	2.481909e-09	2.653553e+01	1.746472e+02
2.540000e-06	3.721375e-06	2.525926e-09	2.686879e+01	1.776264e+02
2.550000e-06	3.767266e-06	2.564854e-09	2.720012e+01	1.805652e+02
2.560000e-06	3.812883e-06	2.602477e-09	2.752949e+01	1.834646e+02
2.570000e-06	3.858325e-06	2.641822e-09	2.785758e+01	1.863252e+02
2.580000e-06	3.903553e-06	2.683018e-09	2.818413e+01	1.891478e+02
2.590000e-06	3.948491e-06	2.723747e-09	2.850859e+01	1.919327e+02
2.600000e-06	3.993150e-06	2.763160e-09	2.883104e+01	1.946800e+02
2.610000e-06	4.037481e-06	2.804141e-09	2.915111e+01	1.973898e+02
2.620000e-06	4.081495e-06	2.841813e-09	2.946890e+01	2.000616e+02
2.630000e-06	4.125360e-06	2.875924e-09	2.978560e+01	2.026952e+02
2.640000e-06	4.169139e-06	2.905218e-09	3.010169e+01	2.052899e+02
2.650000e-06	4.212735e-06	2.936512e-09	3.041646e+01	2.078448e+02
2.660000e-06	4.256115e-06	2.971487e-09	3.072968e+01	2.103592e+02
2.670000e-06	4.299172e-06	3.007541e-09	3.104055e+01	2.128321e+02
2.680000e-06	4.341709e-06	3.041591e-09	3.134767e+01	2.152625e+02
2.690000e-06	4.383652e-06	3.073770e-09	3.165051e+01	2.176494e+02
2.700000e-06	4.425087e-06	3.105506e-09	3.194967e+01	2.199919e+02
2.710000e-06	4.466165e-06	3.138393e-09	3.224626e+01	2.222892e+02
2.720000e-06	4.506827e-06	3.168398e-09	3.253984e+01	2.245407e+02
2.730000e-06	4.547106e-06	3.194800e-09	3.283067e+01	2.267456e+02
2.740000e-06	4.587132e-06	3.220829e-09	3.311965e+01	2.289038e+02
2.750000e-06	4.626923e-06	3.248408e-09	3.340695e+01	2.310152e+02
2.760000e-06	4.666461e-06	3.278926e-09	3.369242e+01	2.330798e+02
2.770000e-06	4.705784e-06	3.308729e-09	3.397634e+01	2.350980e+02
2.780000e-06	4.744933e-06	3.335787e-09	3.425900e+01	2.370705e+02
2.790000e-06	4.783685e-06	3.362295e-09	3.453879e+01	2.389981e+02
2.800000e-06	4.821920e-06	3.389295e-09	3.481486e+01	2.408820e+02
2.810000e-06	4.859838e-06	3.414200e-09	3.508863e+01	2.427234e+02
2.820000e-06	4.897456e-06	3.435987e-09	3.536023e+01	2.445238e+02
2.830000e-06	4.934704e-06	3.455660e-09	3.562917e+01	2.462850e+02
2.840000e-06	4.971634e-06	3.477156e-09	3.589581e+01	2.480086e+02
2.850000e-06	5.008259e-06	3.500148e-09	3.616025e+01	2.496964e+02
2.860000e-06	5.044629e-06	3.524378e-09	3.642284e+01	2.513503e+02
2.870000e-06	5.080686e-06	3.545547e-09	3.668318e+01	2.529721e+02
2.880000e-06	5.116497e-06	3.566054e-09	3.694174e+01	2.545636e+02
2.890000e-06	5.152134e-06	3.587272e-09	3.719904e+01	2.561263e+02
2.900000e-06	5.187549e-06	3.612035e-09	3.745474e+01	2.576617e+02
