# Temperatura_=_20.0
# Concentracion g/m^3_=_12600.0
# C_Vs_to_Am_M_A/Vsm_=_65563218390.804596
# pendiente_HvsI_1/m_=_3716.3
# ordenada_HvsI_A/m_=_1297.0
# frecuencia_Hz_=_135360.21508281285

Tiempo_(s)	Campo_(V.s)	Magnetizacion_(V.s)	Campo_(kA/m)	Magnetizacion_(A/m)
0.000000e+00	-6.580530e-06	-4.914693e-09	-4.773299e+01	-3.124936e+02
1.000000e-08	-6.580577e-06	-4.914060e-09	-4.773333e+01	-3.125437e+02
2.000000e-08	-6.580341e-06	-4.911846e-09	-4.773162e+01	-3.125689e+02
3.000000e-08	-6.579647e-06	-4.912349e-09	-4.772659e+01	-3.125651e+02
4.000000e-08	-6.578308e-06	-4.911290e-09	-4.771687e+01	-3.125284e+02
5.000000e-08	-6.576167e-06	-4.907494e-09	-4.770134e+01	-3.124552e+02
6.000000e-08	-6.573297e-06	-4.905136e-09	-4.768052e+01	-3.123422e+02
7.000000e-08	-6.569953e-06	-4.909339e-09	-4.765627e+01	-3.121863e+02
8.000000e-08	-6.566249e-06	-4.906023e-09	-4.762939e+01	-3.119851e+02
9.000000e-08	-6.562129e-06	-4.863925e-09	-4.759952e+01	-3.117368e+02
1.000000e-07	-6.557389e-06	-4.847012e-09	-4.756513e+01	-3.114401e+02
1.100000e-07	-6.551988e-06	-4.915223e-09	-4.752596e+01	-3.110947e+02
1.200000e-07	-6.546143e-06	-4.994815e-09	-4.748355e+01	-3.107007e+02
1.300000e-07	-6.540034e-06	-4.892621e-09	-4.743925e+01	-3.102593e+02
1.400000e-07	-6.533593e-06	-4.728588e-09	-4.739252e+01	-3.097723e+02
1.500000e-07	-6.526652e-06	-4.772096e-09	-4.734218e+01	-3.092424e+02
1.600000e-07	-6.519250e-06	-4.979459e-09	-4.728848e+01	-3.086730e+02
1.700000e-07	-6.511517e-06	-4.947400e-09	-4.723239e+01	-3.080682e+02
1.800000e-07	-6.503494e-06	-4.803240e-09	-4.717419e+01	-3.074326e+02
1.900000e-07	-6.495114e-06	-4.778692e-09	-4.711341e+01	-3.067713e+02
2.000000e-07	-6.486389e-06	-4.832350e-09	-4.705012e+01	-3.060900e+02
2.100000e-07	-6.477108e-06	-4.926265e-09	-4.698280e+01	-3.053946e+02
2.200000e-07	-6.467051e-06	-4.954638e-09	-4.690985e+01	-3.046911e+02
2.300000e-07	-6.456308e-06	-4.778432e-09	-4.683192e+01	-3.039855e+02
2.400000e-07	-6.444970e-06	-4.563167e-09	-4.674968e+01	-3.032840e+02
2.500000e-07	-6.433038e-06	-4.698732e-09	-4.666313e+01	-3.025922e+02
2.600000e-07	-6.420556e-06	-4.900955e-09	-4.657259e+01	-3.019156e+02
2.700000e-07	-6.407612e-06	-4.665532e-09	-4.647870e+01	-3.012590e+02
2.800000e-07	-6.394144e-06	-4.338609e-09	-4.638101e+01	-3.006269e+02
2.900000e-07	-6.380049e-06	-4.463581e-09	-4.627876e+01	-3.000229e+02
3.000000e-07	-6.365364e-06	-4.669337e-09	-4.617224e+01	-2.994500e+02
3.100000e-07	-6.350007e-06	-4.469112e-09	-4.606085e+01	-2.989101e+02
3.200000e-07	-6.334086e-06	-4.280960e-09	-4.594537e+01	-2.984047e+02
3.300000e-07	-6.317708e-06	-4.445981e-09	-4.582657e+01	-2.979340e+02
3.400000e-07	-6.300864e-06	-4.443461e-09	-4.570439e+01	-2.974976e+02
3.500000e-07	-6.283668e-06	-4.330443e-09	-4.557965e+01	-2.970941e+02
3.600000e-07	-6.266117e-06	-4.444311e-09	-4.545234e+01	-2.967213e+02
3.700000e-07	-6.248185e-06	-4.486639e-09	-4.532227e+01	-2.963764e+02
3.800000e-07	-6.229844e-06	-4.278507e-09	-4.518922e+01	-2.960556e+02
3.900000e-07	-6.211122e-06	-4.289217e-09	-4.505342e+01	-2.957549e+02
4.000000e-07	-6.191874e-06	-4.465601e-09	-4.491381e+01	-2.954697e+02
4.100000e-07	-6.172118e-06	-4.427324e-09	-4.477050e+01	-2.951948e+02
4.200000e-07	-6.152137e-06	-4.280085e-09	-4.462557e+01	-2.949253e+02
4.300000e-07	-6.131873e-06	-4.285241e-09	-4.447858e+01	-2.946556e+02
4.400000e-07	-6.111238e-06	-4.369033e-09	-4.432890e+01	-2.943805e+02
4.500000e-07	-6.090213e-06	-4.402777e-09	-4.417639e+01	-2.940950e+02
4.600000e-07	-6.068709e-06	-4.357569e-09	-4.402040e+01	-2.937941e+02
4.700000e-07	-6.046753e-06	-4.283017e-09	-4.386115e+01	-2.934732e+02
4.800000e-07	-6.024454e-06	-4.294778e-09	-4.369940e+01	-2.931285e+02
4.900000e-07	-6.001770e-06	-4.334198e-09	-4.353485e+01	-2.927564e+02
5.000000e-07	-5.978621e-06	-4.323549e-09	-4.336694e+01	-2.923540e+02
5.100000e-07	-5.955085e-06	-4.305416e-09	-4.319622e+01	-2.919191e+02
5.200000e-07	-5.931199e-06	-4.274713e-09	-4.302295e+01	-2.914503e+02
5.300000e-07	-5.907006e-06	-4.214410e-09	-4.284747e+01	-2.909468e+02
5.400000e-07	-5.882383e-06	-4.250860e-09	-4.266886e+01	-2.904083e+02
5.500000e-07	-5.857175e-06	-4.308486e-09	-4.248601e+01	-2.898356e+02
5.600000e-07	-5.831342e-06	-4.238558e-09	-4.229863e+01	-2.892298e+02
5.700000e-07	-5.804954e-06	-4.159238e-09	-4.210722e+01	-2.885925e+02
5.800000e-07	-5.778038e-06	-4.208680e-09	-4.191198e+01	-2.879261e+02
5.900000e-07	-5.750635e-06	-4.243479e-09	-4.171320e+01	-2.872332e+02
6.000000e-07	-5.722860e-06	-4.200531e-09	-4.151173e+01	-2.865167e+02
6.100000e-07	-5.694775e-06	-4.171531e-09	-4.130801e+01	-2.857798e+02
6.200000e-07	-5.666455e-06	-4.179371e-09	-4.110259e+01	-2.850257e+02
6.300000e-07	-5.637806e-06	-4.164708e-09	-4.089478e+01	-2.842578e+02
6.400000e-07	-5.608774e-06	-4.148215e-09	-4.068419e+01	-2.834791e+02
6.500000e-07	-5.579365e-06	-4.155929e-09	-4.047087e+01	-2.826928e+02
6.600000e-07	-5.549559e-06	-4.151207e-09	-4.025466e+01	-2.819015e+02
6.700000e-07	-5.519416e-06	-4.103413e-09	-4.003602e+01	-2.811077e+02
6.800000e-07	-5.488905e-06	-4.073847e-09	-3.981470e+01	-2.803133e+02
6.900000e-07	-5.457896e-06	-4.100544e-09	-3.958978e+01	-2.795199e+02
7.000000e-07	-5.426466e-06	-4.118771e-09	-3.936179e+01	-2.787285e+02
7.100000e-07	-5.394742e-06	-4.075230e-09	-3.913167e+01	-2.779396e+02
7.200000e-07	-5.362742e-06	-4.026118e-09	-3.889956e+01	-2.771534e+02
7.300000e-07	-5.330463e-06	-4.032887e-09	-3.866541e+01	-2.763693e+02
7.400000e-07	-5.297813e-06	-4.063974e-09	-3.842858e+01	-2.755866e+02
7.500000e-07	-5.264849e-06	-4.055591e-09	-3.818947e+01	-2.748037e+02
7.600000e-07	-5.231413e-06	-3.999973e-09	-3.794694e+01	-2.740190e+02
7.700000e-07	-5.197418e-06	-3.963926e-09	-3.770035e+01	-2.732306e+02
7.800000e-07	-5.162857e-06	-3.985814e-09	-3.744965e+01	-2.724361e+02
7.900000e-07	-5.127668e-06	-4.011927e-09	-3.719440e+01	-2.716332e+02
8.000000e-07	-5.092089e-06	-3.980465e-09	-3.693633e+01	-2.708193e+02
8.100000e-07	-5.056211e-06	-3.927145e-09	-3.667608e+01	-2.699920e+02
8.200000e-07	-5.020079e-06	-3.912587e-09	-3.641399e+01	-2.691488e+02
8.300000e-07	-4.983676e-06	-3.932134e-09	-3.614994e+01	-2.682874e+02
8.400000e-07	-4.946951e-06	-3.931133e-09	-3.588355e+01	-2.674058e+02
8.500000e-07	-4.909907e-06	-3.892783e-09	-3.561484e+01	-2.665022e+02
8.600000e-07	-4.872548e-06	-3.849610e-09	-3.534385e+01	-2.655751e+02
8.700000e-07	-4.834837e-06	-3.844406e-09	-3.507031e+01	-2.646234e+02
8.800000e-07	-4.796744e-06	-3.860774e-09	-3.479400e+01	-2.636464e+02
8.900000e-07	-4.758339e-06	-3.848820e-09	-3.451541e+01	-2.626436e+02
9.000000e-07	-4.719598e-06	-3.801504e-09	-3.423440e+01	-2.616152e+02
9.100000e-07	-4.680530e-06	-3.770305e-09	-3.395102e+01	-2.605615e+02
9.200000e-07	-4.641163e-06	-3.775000e-09	-3.366546e+01	-2.594835e+02
9.300000e-07	-4.601542e-06	-3.784108e-09	-3.337806e+01	-2.583821e+02
9.400000e-07	-4.561620e-06	-3.762368e-09	-3.308849e+01	-2.572587e+02
9.500000e-07	-4.521392e-06	-3.720748e-09	-3.279668e+01	-2.561150e+02
9.600000e-07	-4.480921e-06	-3.696050e-09	-3.250312e+01	-2.549528e+02
9.700000e-07	-4.440122e-06	-3.697502e-09	-3.220717e+01	-2.537738e+02
9.800000e-07	-4.398988e-06	-3.697020e-09	-3.190880e+01	-2.525800e+02
9.900000e-07	-4.357491e-06	-3.668560e-09	-3.160780e+01	-2.513733e+02
1.000000e-06	-4.315513e-06	-3.627963e-09	-3.130330e+01	-2.501554e+02
1.010000e-06	-4.272973e-06	-3.611021e-09	-3.099474e+01	-2.489280e+02
1.020000e-06	-4.229971e-06	-3.615859e-09	-3.068281e+01	-2.476924e+02
1.030000e-06	-4.186689e-06	-3.606938e-09	-3.036886e+01	-2.464498e+02
1.040000e-06	-4.143208e-06	-3.572542e-09	-3.005346e+01	-2.452010e+02
1.050000e-06	-4.099436e-06	-3.537097e-09	-2.973596e+01	-2.439467e+02
1.060000e-06	-4.055351e-06	-3.525700e-09	-2.941617e+01	-2.426869e+02
1.070000e-06	-4.011098e-06	-3.525653e-09	-2.909518e+01	-2.414215e+02
1.080000e-06	-3.966647e-06	-3.505999e-09	-2.877275e+01	-2.401500e+02
1.090000e-06	-3.921863e-06	-3.465557e-09	-2.844790e+01	-2.388717e+02
1.100000e-06	-3.876780e-06	-3.436963e-09	-2.812088e+01	-2.375852e+02
1.110000e-06	-3.831448e-06	-3.431297e-09	-2.779206e+01	-2.362893e+02
1.120000e-06	-3.785868e-06	-3.424987e-09	-2.746143e+01	-2.349822e+02
1.130000e-06	-3.739976e-06	-3.396988e-09	-2.712855e+01	-2.336622e+02
1.140000e-06	-3.693802e-06	-3.360829e-09	-2.679362e+01	-2.323273e+02
1.150000e-06	-3.647440e-06	-3.339164e-09	-2.645733e+01	-2.309755e+02
1.160000e-06	-3.601001e-06	-3.329553e-09	-2.612047e+01	-2.296046e+02
1.170000e-06	-3.554356e-06	-3.310978e-09	-2.578212e+01	-2.282128e+02
1.180000e-06	-3.507264e-06	-3.278192e-09	-2.544054e+01	-2.267980e+02
1.190000e-06	-3.459825e-06	-3.245350e-09	-2.509643e+01	-2.253585e+02
1.200000e-06	-3.412286e-06	-3.225093e-09	-2.475159e+01	-2.238927e+02
1.210000e-06	-3.364558e-06	-3.209946e-09	-2.440539e+01	-2.223992e+02
1.220000e-06	-3.316548e-06	-3.185175e-09	-2.405714e+01	-2.208770e+02
1.230000e-06	-3.268296e-06	-3.153844e-09	-2.370714e+01	-2.193252e+02
1.240000e-06	-3.219694e-06	-3.126464e-09	-2.335460e+01	-2.177432e+02
1.250000e-06	-3.170848e-06	-3.106404e-09	-2.300028e+01	-2.161310e+02
1.260000e-06	-3.121892e-06	-3.085756e-09	-2.264518e+01	-2.144885e+02
1.270000e-06	-3.072730e-06	-3.057426e-09	-2.228857e+01	-2.128162e+02
1.280000e-06	-3.023280e-06	-3.025076e-09	-2.192987e+01	-2.111146e+02
1.290000e-06	-2.973349e-06	-2.994549e-09	-2.156769e+01	-2.093846e+02
1.300000e-06	-2.922877e-06	-2.967349e-09	-2.120158e+01	-2.076273e+02
1.310000e-06	-2.872188e-06	-2.944787e-09	-2.083390e+01	-2.058439e+02
1.320000e-06	-2.821307e-06	-2.920088e-09	-2.046483e+01	-2.040357e+02
1.330000e-06	-2.770046e-06	-2.885343e-09	-2.009300e+01	-2.022041e+02
1.340000e-06	-2.718474e-06	-2.848234e-09	-1.971891e+01	-2.003506e+02
1.350000e-06	-2.666711e-06	-2.822444e-09	-1.934344e+01	-1.984764e+02
1.360000e-06	-2.614721e-06	-2.802144e-09	-1.896632e+01	-1.965830e+02
1.370000e-06	-2.562467e-06	-2.771927e-09	-1.858729e+01	-1.946716e+02
1.380000e-06	-2.510073e-06	-2.736636e-09	-1.820724e+01	-1.927432e+02
1.390000e-06	-2.457621e-06	-2.706895e-09	-1.782677e+01	-1.907987e+02
1.400000e-06	-2.405108e-06	-2.684015e-09	-1.744586e+01	-1.888387e+02
1.410000e-06	-2.352511e-06	-2.656751e-09	-1.706434e+01	-1.868638e+02
1.420000e-06	-2.299643e-06	-2.623494e-09	-1.668085e+01	-1.848741e+02
1.430000e-06	-2.246522e-06	-2.590439e-09	-1.629553e+01	-1.828696e+02
1.440000e-06	-2.193313e-06	-2.561193e-09	-1.590957e+01	-1.808502e+02
1.450000e-06	-2.139891e-06	-2.533415e-09	-1.552206e+01	-1.788153e+02
1.460000e-06	-2.086204e-06	-2.503583e-09	-1.513263e+01	-1.767643e+02
1.470000e-06	-2.032396e-06	-2.472732e-09	-1.474233e+01	-1.746964e+02
1.480000e-06	-1.978522e-06	-2.444017e-09	-1.435154e+01	-1.726107e+02
1.490000e-06	-1.924493e-06	-2.415862e-09	-1.395964e+01	-1.705060e+02
1.500000e-06	-1.870275e-06	-2.386874e-09	-1.356636e+01	-1.683811e+02
1.510000e-06	-1.816015e-06	-2.354355e-09	-1.317277e+01	-1.662350e+02
1.520000e-06	-1.761703e-06	-2.319020e-09	-1.277881e+01	-1.640663e+02
1.530000e-06	-1.707245e-06	-2.284533e-09	-1.238379e+01	-1.618740e+02
1.540000e-06	-1.652646e-06	-2.251079e-09	-1.198775e+01	-1.596569e+02
1.550000e-06	-1.597945e-06	-2.220602e-09	-1.159096e+01	-1.574140e+02
1.560000e-06	-1.543121e-06	-2.189236e-09	-1.119329e+01	-1.551443e+02
1.570000e-06	-1.488198e-06	-2.151210e-09	-1.079489e+01	-1.528472e+02
1.580000e-06	-1.433151e-06	-2.110679e-09	-1.039560e+01	-1.505220e+02
1.590000e-06	-1.378017e-06	-2.074803e-09	-9.995679e+00	-1.481681e+02
1.600000e-06	-1.322857e-06	-2.041610e-09	-9.595568e+00	-1.457854e+02
1.610000e-06	-1.267641e-06	-2.007514e-09	-9.195046e+00	-1.433737e+02
1.620000e-06	-1.212294e-06	-1.967981e-09	-8.793579e+00	-1.409330e+02
1.630000e-06	-1.156827e-06	-1.927305e-09	-8.391240e+00	-1.384634e+02
1.640000e-06	-1.101374e-06	-1.888792e-09	-7.989001e+00	-1.359651e+02
1.650000e-06	-1.045794e-06	-1.852013e-09	-7.585847e+00	-1.334386e+02
1.660000e-06	-9.901035e-07	-1.814469e-09	-7.181884e+00	-1.308843e+02
1.670000e-06	-9.344021e-07	-1.775715e-09	-6.777844e+00	-1.283025e+02
1.680000e-06	-8.786543e-07	-1.736317e-09	-6.373467e+00	-1.256939e+02
1.690000e-06	-8.228716e-07	-1.701686e-09	-5.968838e+00	-1.230588e+02
1.700000e-06	-7.671552e-07	-1.665160e-09	-5.564690e+00	-1.203978e+02
1.710000e-06	-7.114573e-07	-1.623105e-09	-5.160676e+00	-1.177111e+02
1.720000e-06	-6.556449e-07	-1.579536e-09	-4.755831e+00	-1.149991e+02
1.730000e-06	-5.997884e-07	-1.540498e-09	-4.350667e+00	-1.122620e+02
1.740000e-06	-5.439378e-07	-1.503642e-09	-3.945545e+00	-1.094999e+02
1.750000e-06	-4.880429e-07	-1.460712e-09	-3.540102e+00	-1.067126e+02
1.760000e-06	-4.321229e-07	-1.414483e-09	-3.134477e+00	-1.039001e+02
1.770000e-06	-3.762043e-07	-1.371024e-09	-2.728862e+00	-1.010621e+02
1.780000e-06	-3.202460e-07	-1.329575e-09	-2.322958e+00	-9.819799e+01
1.790000e-06	-2.642835e-07	-1.286661e-09	-1.917025e+00	-9.530737e+01
1.800000e-06	-2.082729e-07	-1.241780e-09	-1.510743e+00	-9.238956e+01
1.810000e-06	-1.522465e-07	-1.196492e-09	-1.104345e+00	-8.944384e+01
1.820000e-06	-9.627446e-08	-1.151938e-09	-6.983431e-01	-8.646938e+01
1.830000e-06	-4.029623e-08	-1.107642e-09	-2.922955e-01	-8.346536e+01
1.840000e-06	1.565302e-08	-1.063683e-09	1.135419e-01	-8.043088e+01
1.850000e-06	7.153287e-08	-1.018186e-09	5.188758e-01	-7.736508e+01
1.860000e-06	1.274651e-07	-9.719579e-10	9.245897e-01	-7.426711e+01
1.870000e-06	1.834114e-07	-9.257025e-10	1.330406e+00	-7.113614e+01
1.880000e-06	2.393652e-07	-8.816479e-10	1.736276e+00	-6.797142e+01
1.890000e-06	2.953737e-07	-8.368347e-10	2.142543e+00	-6.477228e+01
1.900000e-06	3.513514e-07	-7.907169e-10	2.548587e+00	-6.153813e+01
1.910000e-06	4.073072e-07	-7.449306e-10	2.954471e+00	-5.826850e+01
1.920000e-06	4.632071e-07	-7.000602e-10	3.359951e+00	-5.496301e+01
1.930000e-06	5.190611e-07	-6.510913e-10	3.765097e+00	-5.162140e+01
1.940000e-06	5.748840e-07	-6.009302e-10	4.170018e+00	-4.824354e+01
1.950000e-06	6.306406e-07	-5.529797e-10	4.574458e+00	-4.482940e+01
1.960000e-06	6.863729e-07	-5.055933e-10	4.978722e+00	-4.137906e+01
1.970000e-06	7.420608e-07	-4.549824e-10	5.382664e+00	-3.789269e+01
1.980000e-06	7.977215e-07	-4.047391e-10	5.786408e+00	-3.437057e+01
1.990000e-06	8.533904e-07	-3.553134e-10	6.190211e+00	-3.081304e+01
2.000000e-06	9.089693e-07	-3.035797e-10	6.593363e+00	-2.722053e+01
2.010000e-06	9.644711e-07	-2.499131e-10	6.995954e+00	-2.359352e+01
2.020000e-06	1.019961e-06	-1.972308e-10	7.398458e+00	-1.993252e+01
2.030000e-06	1.075399e-06	-1.467166e-10	7.800592e+00	-1.623810e+01
2.040000e-06	1.130827e-06	-9.378107e-11	8.202643e+00	-1.251087e+01
2.050000e-06	1.186250e-06	-3.856195e-11	8.604663e+00	-8.751449e+00
2.060000e-06	1.241583e-06	1.681711e-11	9.006032e+00	-4.960511e+00
2.070000e-06	1.296723e-06	7.013010e-11	9.406003e+00	-1.138750e+00
2.080000e-06	1.351736e-06	1.260197e-10	9.805043e+00	2.713094e+00
2.090000e-06	1.406757e-06	1.853128e-10	1.020415e+01	6.594233e+00
2.100000e-06	1.461647e-06	2.433774e-10	1.060230e+01	1.050381e+01
2.110000e-06	1.516413e-06	3.003206e-10	1.099956e+01	1.444090e+01
2.120000e-06	1.571069e-06	3.590177e-10	1.139602e+01	1.840447e+01
2.130000e-06	1.625584e-06	4.199938e-10	1.179145e+01	2.239337e+01
2.140000e-06	1.680088e-06	4.814467e-10	1.218681e+01	2.640633e+01
2.150000e-06	1.734510e-06	5.407376e-10	1.258156e+01	3.044191e+01
2.160000e-06	1.788737e-06	6.000208e-10	1.297491e+01	3.449851e+01
2.170000e-06	1.842838e-06	6.602749e-10	1.336733e+01	3.857432e+01
2.180000e-06	1.896915e-06	7.198411e-10	1.375959e+01	4.266733e+01
2.190000e-06	1.950931e-06	7.786914e-10	1.415141e+01	4.677534e+01
2.200000e-06	2.004730e-06	8.396736e-10	1.454165e+01	5.089591e+01
2.210000e-06	2.058311e-06	9.022146e-10	1.493030e+01	5.502636e+01
2.220000e-06	2.111786e-06	9.624016e-10	1.531820e+01	5.916382e+01
2.230000e-06	2.165124e-06	1.023615e-09	1.570509e+01	6.330521e+01
2.240000e-06	2.218270e-06	1.086306e-09	1.609060e+01	6.744725e+01
2.250000e-06	2.271209e-06	1.146111e-09	1.647460e+01	7.158649e+01
2.260000e-06	2.323944e-06	1.203606e-09	1.685712e+01	7.571936e+01
2.270000e-06	2.376565e-06	1.262328e-09	1.723882e+01	7.984215e+01
2.280000e-06	2.429056e-06	1.320279e-09	1.761957e+01	8.395111e+01
2.290000e-06	2.481344e-06	1.376305e-09	1.799885e+01	8.804246e+01
2.300000e-06	2.533450e-06	1.435191e-09	1.837680e+01	9.211243e+01
2.310000e-06	2.585344e-06	1.497365e-09	1.875323e+01	9.615731e+01
2.320000e-06	2.637002e-06	1.557142e-09	1.912794e+01	1.001735e+02
2.330000e-06	2.688390e-06	1.613756e-09	1.950069e+01	1.041576e+02
2.340000e-06	2.739601e-06	1.669354e-09	1.987216e+01	1.081064e+02
2.350000e-06	2.790678e-06	1.724795e-09	2.024266e+01	1.120169e+02
2.360000e-06	2.841525e-06	1.779068e-09	2.061148e+01	1.158864e+02
2.370000e-06	2.892032e-06	1.834969e-09	2.097784e+01	1.197125e+02
2.380000e-06	2.942143e-06	1.889521e-09	2.134133e+01	1.234932e+02
2.390000e-06	2.991986e-06	1.943949e-09	2.170288e+01	1.272269e+02
2.400000e-06	3.041453e-06	2.000579e-09	2.206169e+01	1.309121e+02
2.410000e-06	3.090452e-06	2.054795e-09	2.241711e+01	1.345481e+02
2.420000e-06	3.139142e-06	2.104156e-09	2.277030e+01	1.381342e+02
2.430000e-06	3.187536e-06	2.153097e-09	2.312133e+01	1.416703e+02
2.440000e-06	3.235712e-06	2.205904e-09	2.347078e+01	1.451564e+02
2.450000e-06	3.283705e-06	2.257621e-09	2.381891e+01	1.485931e+02
2.460000e-06	3.331539e-06	2.303711e-09	2.416588e+01	1.519809e+02
2.470000e-06	3.379249e-06	2.347378e-09	2.451196e+01	1.553208e+02
2.480000e-06	3.426721e-06	2.396114e-09	2.485630e+01	1.586139e+02
2.490000e-06	3.473959e-06	2.445933e-09	2.519895e+01	1.618614e+02
2.500000e-06	3.521015e-06	2.492068e-09	2.554028e+01	1.650646e+02
2.510000e-06	3.567869e-06	2.536725e-09	2.588014e+01	1.682247e+02
2.520000e-06	3.614431e-06	2.584229e-09	2.621789e+01	1.713431e+02
2.530000e-06	3.660637e-06	2.632506e-09	2.655305e+01	1.744210e+02
2.540000e-06	3.706632e-06	2.678410e-09	2.688668e+01	1.774594e+02
2.550000e-06	3.752342e-06	2.720756e-09	2.721824e+01	1.804593e+02
2.560000e-06	3.797734e-06	2.760403e-09	2.754751e+01	1.834213e+02
2.570000e-06	3.843003e-06	2.802516e-09	2.787587e+01	1.863459e+02
2.580000e-06	3.888011e-06	2.846863e-09	2.820235e+01	1.892335e+02
2.590000e-06	3.932728e-06	2.889148e-09	2.852671e+01	1.920840e+02
2.600000e-06	3.977199e-06	2.930913e-09	2.884929e+01	1.948973e+02
2.610000e-06	4.021432e-06	2.971434e-09	2.917014e+01	1.976728e+02
2.620000e-06	4.065438e-06	3.011191e-09	2.948935e+01	2.004099e+02
2.630000e-06	4.109231e-06	3.049991e-09	2.980700e+01	2.031078e+02
2.640000e-06	4.152814e-06	3.085695e-09	3.012314e+01	2.057654e+02
2.650000e-06	4.196217e-06	3.120494e-09	3.043797e+01	2.083817e+02
2.660000e-06	4.239407e-06	3.155550e-09	3.075125e+01	2.109554e+02
2.670000e-06	4.282110e-06	3.190703e-09	3.106101e+01	2.134853e+02
2.680000e-06	4.324301e-06	3.226291e-09	3.136705e+01	2.159703e+02
2.690000e-06	4.366042e-06	3.262369e-09	3.166982e+01	2.184093e+02
2.700000e-06	4.407266e-06	3.295336e-09	3.196885e+01	2.208011e+02
2.710000e-06	4.448087e-06	3.327112e-09	3.226495e+01	2.231451e+02
2.720000e-06	4.488523e-06	3.361555e-09	3.255826e+01	2.254406e+02
2.730000e-06	4.528621e-06	3.394645e-09	3.284912e+01	2.276871e+02
2.740000e-06	4.568518e-06	3.425503e-09	3.313852e+01	2.298847e+02
2.750000e-06	4.608214e-06	3.454861e-09	3.342646e+01	2.320334e+02
2.760000e-06	4.647700e-06	3.485060e-09	3.371288e+01	2.341336e+02
2.770000e-06	4.686957e-06	3.516137e-09	3.399763e+01	2.361862e+02
2.780000e-06	4.725934e-06	3.546058e-09	3.428036e+01	2.381921e+02
2.790000e-06	4.764516e-06	3.575620e-09	3.456022e+01	2.401527e+02
2.800000e-06	4.802647e-06	3.605309e-09	3.483681e+01	2.420694e+02
2.810000e-06	4.840447e-06	3.633619e-09	3.511100e+01	2.439441e+02
2.820000e-06	4.877929e-06	3.659462e-09	3.538288e+01	2.457786e+02
2.830000e-06	4.915067e-06	3.685066e-09	3.565227e+01	2.475751e+02
2.840000e-06	4.951852e-06	3.711408e-09	3.591910e+01	2.493354e+02
2.850000e-06	4.988231e-06	3.741768e-09	3.618298e+01	2.510620e+02
2.860000e-06	5.024382e-06	3.764755e-09	3.644521e+01	2.527567e+02
2.870000e-06	5.060389e-06	3.785525e-09	3.670639e+01	2.544216e+02
2.880000e-06	5.096149e-06	3.808910e-09	3.696578e+01	2.560586e+02
2.890000e-06	5.131689e-06	3.833371e-09	3.722358e+01	2.576694e+02
2.900000e-06	5.166897e-06	3.857788e-09	3.747896e+01	2.592555e+02
