# Temperatura_=_20.0
# Concentracion g/m^3_=_12600.0
# C_Vs_to_Am_M_A/Vsm_=_65563218390.804596
# pendiente_HvsI_1/m_=_3716.3
# ordenada_HvsI_A/m_=_1297.0
# frecuencia_Hz_=_135361.5154776255

Tiempo_(s)	Campo_(V.s)	Magnetizacion_(V.s)	Campo_(kA/m)	Magnetizacion_(A/m)
0.000000e+00	-6.554709e-06	-4.806185e-09	-4.771587e+01	-3.129704e+02
1.000000e-08	-6.554889e-06	-4.804031e-09	-4.771718e+01	-3.130579e+02
2.000000e-08	-6.554825e-06	-4.800358e-09	-4.771672e+01	-3.131229e+02
3.000000e-08	-6.554407e-06	-4.799905e-09	-4.771367e+01	-3.131604e+02
4.000000e-08	-6.553461e-06	-4.802609e-09	-4.770678e+01	-3.131651e+02
5.000000e-08	-6.551770e-06	-4.801363e-09	-4.769447e+01	-3.131319e+02
6.000000e-08	-6.549356e-06	-4.795301e-09	-4.767690e+01	-3.130556e+02
7.000000e-08	-6.546352e-06	-4.787216e-09	-4.765503e+01	-3.129314e+02
8.000000e-08	-6.542841e-06	-4.771064e-09	-4.762947e+01	-3.127547e+02
9.000000e-08	-6.538980e-06	-4.766210e-09	-4.760137e+01	-3.125216e+02
1.000000e-07	-6.534613e-06	-4.795396e-09	-4.756958e+01	-3.122286e+02
1.100000e-07	-6.529508e-06	-4.861437e-09	-4.753242e+01	-3.118730e+02
1.200000e-07	-6.523827e-06	-4.837927e-09	-4.749106e+01	-3.114528e+02
1.300000e-07	-6.517870e-06	-4.718680e-09	-4.744770e+01	-3.109669e+02
1.400000e-07	-6.511701e-06	-4.605082e-09	-4.740279e+01	-3.104151e+02
1.500000e-07	-6.505072e-06	-4.706309e-09	-4.735453e+01	-3.097983e+02
1.600000e-07	-6.497896e-06	-4.864219e-09	-4.730229e+01	-3.091181e+02
1.700000e-07	-6.490405e-06	-4.854744e-09	-4.724776e+01	-3.083773e+02
1.800000e-07	-6.482603e-06	-4.677227e-09	-4.719097e+01	-3.075794e+02
1.900000e-07	-6.474415e-06	-4.667136e-09	-4.713136e+01	-3.067291e+02
2.000000e-07	-6.465956e-06	-4.752532e-09	-4.706978e+01	-3.058315e+02
2.100000e-07	-6.457225e-06	-4.845464e-09	-4.700622e+01	-3.048926e+02
2.200000e-07	-6.447734e-06	-4.817283e-09	-4.693713e+01	-3.039191e+02
2.300000e-07	-6.437197e-06	-4.676094e-09	-4.686043e+01	-3.029180e+02
2.400000e-07	-6.426022e-06	-4.625295e-09	-4.677908e+01	-3.018967e+02
2.500000e-07	-6.414487e-06	-4.730743e-09	-4.669510e+01	-3.008628e+02
2.600000e-07	-6.402337e-06	-4.775829e-09	-4.660665e+01	-2.998240e+02
2.700000e-07	-6.389487e-06	-4.584020e-09	-4.651311e+01	-2.987878e+02
2.800000e-07	-6.376246e-06	-4.439499e-09	-4.641673e+01	-2.977616e+02
2.900000e-07	-6.362584e-06	-4.531724e-09	-4.631727e+01	-2.967523e+02
3.000000e-07	-6.348358e-06	-4.602021e-09	-4.621371e+01	-2.957663e+02
3.100000e-07	-6.333465e-06	-4.428990e-09	-4.610529e+01	-2.948094e+02
3.200000e-07	-6.317897e-06	-4.291816e-09	-4.599196e+01	-2.938866e+02
3.300000e-07	-6.301744e-06	-4.376899e-09	-4.587437e+01	-2.930022e+02
3.400000e-07	-6.285100e-06	-4.491295e-09	-4.575322e+01	-2.921596e+02
3.500000e-07	-6.268091e-06	-4.383082e-09	-4.562940e+01	-2.913610e+02
3.600000e-07	-6.250695e-06	-4.303004e-09	-4.550276e+01	-2.906081e+02
3.700000e-07	-6.232857e-06	-4.295137e-09	-4.537291e+01	-2.899012e+02
3.800000e-07	-6.214635e-06	-4.332041e-09	-4.524026e+01	-2.892398e+02
3.900000e-07	-6.195997e-06	-4.340472e-09	-4.510458e+01	-2.886227e+02
4.000000e-07	-6.176882e-06	-4.346282e-09	-4.496543e+01	-2.880474e+02
4.100000e-07	-6.157398e-06	-4.244854e-09	-4.482359e+01	-2.875111e+02
4.200000e-07	-6.137661e-06	-4.252509e-09	-4.467991e+01	-2.870101e+02
4.300000e-07	-6.117701e-06	-4.357662e-09	-4.453461e+01	-2.865399e+02
4.400000e-07	-6.097369e-06	-4.374919e-09	-4.438660e+01	-2.860960e+02
4.500000e-07	-6.076525e-06	-4.259177e-09	-4.423487e+01	-2.856731e+02
4.600000e-07	-6.055252e-06	-4.234546e-09	-4.408001e+01	-2.852660e+02
4.700000e-07	-6.033646e-06	-4.326739e-09	-4.392272e+01	-2.848693e+02
4.800000e-07	-6.011702e-06	-4.374319e-09	-4.376298e+01	-2.844775e+02
4.900000e-07	-5.989321e-06	-4.282782e-09	-4.360006e+01	-2.840854e+02
5.000000e-07	-5.966508e-06	-4.192341e-09	-4.343398e+01	-2.836881e+02
5.100000e-07	-5.943229e-06	-4.262462e-09	-4.326452e+01	-2.832809e+02
5.200000e-07	-5.919553e-06	-4.342880e-09	-4.309217e+01	-2.828595e+02
5.300000e-07	-5.895628e-06	-4.272822e-09	-4.291800e+01	-2.824203e+02
5.400000e-07	-5.871373e-06	-4.170971e-09	-4.274143e+01	-2.819603e+02
5.500000e-07	-5.846554e-06	-4.212023e-09	-4.256076e+01	-2.814767e+02
5.600000e-07	-5.820993e-06	-4.261761e-09	-4.237468e+01	-2.809679e+02
5.700000e-07	-5.794767e-06	-4.240163e-09	-4.218377e+01	-2.804324e+02
5.800000e-07	-5.767998e-06	-4.179681e-09	-4.198890e+01	-2.798697e+02
5.900000e-07	-5.740793e-06	-4.161065e-09	-4.179086e+01	-2.792796e+02
6.000000e-07	-5.713240e-06	-4.174959e-09	-4.159029e+01	-2.786627e+02
6.100000e-07	-5.685414e-06	-4.212019e-09	-4.138772e+01	-2.780199e+02
6.200000e-07	-5.657362e-06	-4.186451e-09	-4.118352e+01	-2.773525e+02
6.300000e-07	-5.629008e-06	-4.130580e-09	-4.097711e+01	-2.766623e+02
6.400000e-07	-5.600228e-06	-4.114582e-09	-4.076760e+01	-2.759514e+02
6.500000e-07	-5.571043e-06	-4.154867e-09	-4.055514e+01	-2.752218e+02
6.600000e-07	-5.541494e-06	-4.155273e-09	-4.034003e+01	-2.744758e+02
6.700000e-07	-5.511546e-06	-4.106794e-09	-4.012203e+01	-2.737158e+02
6.800000e-07	-5.481258e-06	-4.067226e-09	-3.990154e+01	-2.729439e+02
6.900000e-07	-5.450553e-06	-4.085145e-09	-3.967802e+01	-2.721623e+02
7.000000e-07	-5.419363e-06	-4.100729e-09	-3.945097e+01	-2.713730e+02
7.100000e-07	-5.387831e-06	-4.077298e-09	-3.922143e+01	-2.705775e+02
7.200000e-07	-5.356071e-06	-4.039487e-09	-3.899022e+01	-2.697772e+02
7.300000e-07	-5.324118e-06	-4.032165e-09	-3.875762e+01	-2.689731e+02
7.400000e-07	-5.291844e-06	-4.039827e-09	-3.852267e+01	-2.681661e+02
7.500000e-07	-5.259214e-06	-4.032526e-09	-3.828514e+01	-2.673564e+02
7.600000e-07	-5.226121e-06	-4.007225e-09	-3.804423e+01	-2.665440e+02
7.700000e-07	-5.192366e-06	-3.986759e-09	-3.779851e+01	-2.657286e+02
7.800000e-07	-5.158018e-06	-3.984217e-09	-3.754847e+01	-2.649096e+02
7.900000e-07	-5.123143e-06	-3.980223e-09	-3.729460e+01	-2.640861e+02
8.000000e-07	-5.087808e-06	-3.961898e-09	-3.703737e+01	-2.632570e+02
8.100000e-07	-5.052157e-06	-3.938394e-09	-3.677785e+01	-2.624210e+02
8.200000e-07	-5.016344e-06	-3.926526e-09	-3.651714e+01	-2.615766e+02
8.300000e-07	-4.980288e-06	-3.915235e-09	-3.625466e+01	-2.607224e+02
8.400000e-07	-4.943868e-06	-3.902942e-09	-3.598954e+01	-2.598569e+02
8.500000e-07	-4.907100e-06	-3.885373e-09	-3.572188e+01	-2.589785e+02
8.600000e-07	-4.869933e-06	-3.868406e-09	-3.545132e+01	-2.580859e+02
8.700000e-07	-4.832437e-06	-3.852879e-09	-3.517836e+01	-2.571778e+02
8.800000e-07	-4.794679e-06	-3.844543e-09	-3.490350e+01	-2.562532e+02
8.900000e-07	-4.756607e-06	-3.827856e-09	-3.462635e+01	-2.553111e+02
9.000000e-07	-4.718191e-06	-3.803854e-09	-3.434669e+01	-2.543510e+02
9.100000e-07	-4.679378e-06	-3.781623e-09	-3.406415e+01	-2.533722e+02
9.200000e-07	-4.640232e-06	-3.774199e-09	-3.377918e+01	-2.523747e+02
9.300000e-07	-4.600787e-06	-3.763903e-09	-3.349203e+01	-2.513585e+02
9.400000e-07	-4.561118e-06	-3.743808e-09	-3.320326e+01	-2.503238e+02
9.500000e-07	-4.521283e-06	-3.719851e-09	-3.291327e+01	-2.492711e+02
9.600000e-07	-4.481247e-06	-3.707196e-09	-3.262183e+01	-2.482010e+02
9.700000e-07	-4.440922e-06	-3.697890e-09	-3.232828e+01	-2.471144e+02
9.800000e-07	-4.400148e-06	-3.680514e-09	-3.203146e+01	-2.460119e+02
9.900000e-07	-4.358969e-06	-3.652847e-09	-3.173169e+01	-2.448946e+02
1.000000e-06	-4.317408e-06	-3.630339e-09	-3.142914e+01	-2.437634e+02
1.010000e-06	-4.275240e-06	-3.619317e-09	-3.112217e+01	-2.426192e+02
1.020000e-06	-4.232480e-06	-3.607438e-09	-3.081090e+01	-2.414628e+02
1.030000e-06	-4.189454e-06	-3.583771e-09	-3.049768e+01	-2.402949e+02
1.040000e-06	-4.146263e-06	-3.560771e-09	-3.018327e+01	-2.391162e+02
1.050000e-06	-4.102820e-06	-3.548989e-09	-2.986702e+01	-2.379269e+02
1.060000e-06	-4.059057e-06	-3.539668e-09	-2.954844e+01	-2.367273e+02
1.070000e-06	-4.015078e-06	-3.520838e-09	-2.922829e+01	-2.355173e+02
1.080000e-06	-3.970865e-06	-3.494448e-09	-2.890643e+01	-2.342967e+02
1.090000e-06	-3.926330e-06	-3.471670e-09	-2.858224e+01	-2.330651e+02
1.100000e-06	-3.881505e-06	-3.455680e-09	-2.825592e+01	-2.318217e+02
1.110000e-06	-3.836414e-06	-3.439534e-09	-2.792768e+01	-2.305656e+02
1.120000e-06	-3.791085e-06	-3.415215e-09	-2.759771e+01	-2.292957e+02
1.130000e-06	-3.745578e-06	-3.389410e-09	-2.726643e+01	-2.280109e+02
1.140000e-06	-3.699809e-06	-3.370343e-09	-2.693325e+01	-2.267097e+02
1.150000e-06	-3.653710e-06	-3.357546e-09	-2.659766e+01	-2.253907e+02
1.160000e-06	-3.607376e-06	-3.338142e-09	-2.626037e+01	-2.240525e+02
1.170000e-06	-3.560797e-06	-3.310020e-09	-2.592129e+01	-2.226934e+02
1.180000e-06	-3.514020e-06	-3.283051e-09	-2.558077e+01	-2.213122e+02
1.190000e-06	-3.467017e-06	-3.264577e-09	-2.523861e+01	-2.199074e+02
1.200000e-06	-3.419746e-06	-3.244383e-09	-2.489449e+01	-2.184777e+02
1.210000e-06	-3.372214e-06	-3.217414e-09	-2.454848e+01	-2.170221e+02
1.220000e-06	-3.324464e-06	-3.185337e-09	-2.420088e+01	-2.155396e+02
1.230000e-06	-3.276479e-06	-3.158464e-09	-2.385156e+01	-2.140296e+02
1.240000e-06	-3.228273e-06	-3.139309e-09	-2.350064e+01	-2.124915e+02
1.250000e-06	-3.179894e-06	-3.119849e-09	-2.314846e+01	-2.109251e+02
1.260000e-06	-3.131249e-06	-3.094002e-09	-2.279434e+01	-2.093303e+02
1.270000e-06	-3.082271e-06	-3.067249e-09	-2.243780e+01	-2.077073e+02
1.280000e-06	-3.032978e-06	-3.042971e-09	-2.207897e+01	-2.060565e+02
1.290000e-06	-2.983323e-06	-3.019829e-09	-2.171749e+01	-2.043787e+02
1.300000e-06	-2.933304e-06	-2.990892e-09	-2.135337e+01	-2.026744e+02
1.310000e-06	-2.883045e-06	-2.959273e-09	-2.098751e+01	-2.009448e+02
1.320000e-06	-2.832574e-06	-2.928875e-09	-2.062009e+01	-1.991907e+02
1.330000e-06	-2.781788e-06	-2.902946e-09	-2.025039e+01	-1.974134e+02
1.340000e-06	-2.730640e-06	-2.878255e-09	-1.987805e+01	-1.956140e+02
1.350000e-06	-2.679262e-06	-2.851105e-09	-1.950404e+01	-1.937935e+02
1.360000e-06	-2.627712e-06	-2.821344e-09	-1.912878e+01	-1.919532e+02
1.370000e-06	-2.575922e-06	-2.790766e-09	-1.875176e+01	-1.900941e+02
1.380000e-06	-2.523898e-06	-2.762964e-09	-1.837305e+01	-1.882169e+02
1.390000e-06	-2.471652e-06	-2.735427e-09	-1.799272e+01	-1.863226e+02
1.400000e-06	-2.419242e-06	-2.705698e-09	-1.761119e+01	-1.844116e+02
1.410000e-06	-2.366770e-06	-2.673866e-09	-1.722921e+01	-1.824844e+02
1.420000e-06	-2.314070e-06	-2.643305e-09	-1.684558e+01	-1.805412e+02
1.430000e-06	-2.261213e-06	-2.613910e-09	-1.646080e+01	-1.785819e+02
1.440000e-06	-2.208280e-06	-2.584638e-09	-1.607547e+01	-1.766064e+02
1.450000e-06	-2.155197e-06	-2.553826e-09	-1.568904e+01	-1.746141e+02
1.460000e-06	-2.101944e-06	-2.524656e-09	-1.530138e+01	-1.726046e+02
1.470000e-06	-2.048474e-06	-2.494054e-09	-1.491214e+01	-1.705769e+02
1.480000e-06	-1.994961e-06	-2.462223e-09	-1.452258e+01	-1.685303e+02
1.490000e-06	-1.941310e-06	-2.431455e-09	-1.413202e+01	-1.664636e+02
1.500000e-06	-1.887463e-06	-2.400615e-09	-1.374004e+01	-1.643758e+02
1.510000e-06	-1.833477e-06	-2.365952e-09	-1.334704e+01	-1.622656e+02
1.520000e-06	-1.779315e-06	-2.330895e-09	-1.295276e+01	-1.601319e+02
1.530000e-06	-1.725083e-06	-2.296840e-09	-1.255797e+01	-1.579735e+02
1.540000e-06	-1.670798e-06	-2.260403e-09	-1.216279e+01	-1.557893e+02
1.550000e-06	-1.616414e-06	-2.224802e-09	-1.176690e+01	-1.535783e+02
1.560000e-06	-1.561928e-06	-2.190528e-09	-1.137026e+01	-1.513395e+02
1.570000e-06	-1.507361e-06	-2.157266e-09	-1.097304e+01	-1.490722e+02
1.580000e-06	-1.452692e-06	-2.124131e-09	-1.057506e+01	-1.467758e+02
1.590000e-06	-1.397889e-06	-2.089642e-09	-1.017611e+01	-1.444497e+02
1.600000e-06	-1.343012e-06	-2.053458e-09	-9.776633e+00	-1.420938e+02
1.610000e-06	-1.288044e-06	-2.014210e-09	-9.376486e+00	-1.397080e+02
1.620000e-06	-1.232920e-06	-1.976128e-09	-8.975201e+00	-1.372923e+02
1.630000e-06	-1.177676e-06	-1.940200e-09	-8.573045e+00	-1.348469e+02
1.640000e-06	-1.122376e-06	-1.903020e-09	-8.170481e+00	-1.323724e+02
1.650000e-06	-1.067030e-06	-1.863116e-09	-7.767589e+00	-1.298691e+02
1.660000e-06	-1.011596e-06	-1.824145e-09	-7.364048e+00	-1.273378e+02
1.670000e-06	-9.561083e-07	-1.787753e-09	-6.960116e+00	-1.247791e+02
1.680000e-06	-9.006041e-07	-1.750505e-09	-6.556066e+00	-1.221938e+02
1.690000e-06	-8.450686e-07	-1.711543e-09	-6.151788e+00	-1.195827e+02
1.700000e-06	-7.894720e-07	-1.671667e-09	-5.747066e+00	-1.169465e+02
1.710000e-06	-7.338191e-07	-1.630823e-09	-5.341933e+00	-1.142859e+02
1.720000e-06	-6.781386e-07	-1.590864e-09	-4.936599e+00	-1.116017e+02
1.730000e-06	-6.224378e-07	-1.551426e-09	-4.531118e+00	-1.088941e+02
1.740000e-06	-5.667444e-07	-1.512382e-09	-4.125690e+00	-1.061638e+02
1.750000e-06	-5.110143e-07	-1.469748e-09	-3.719996e+00	-1.034109e+02
1.760000e-06	-4.552200e-07	-1.424953e-09	-3.313834e+00	-1.006355e+02
1.770000e-06	-3.994516e-07	-1.381777e-09	-2.907861e+00	-9.783757e+01
1.780000e-06	-3.436715e-07	-1.341656e-09	-2.501802e+00	-9.501676e+01
1.790000e-06	-2.879092e-07	-1.300644e-09	-2.095873e+00	-9.217268e+01
1.800000e-06	-2.321401e-07	-1.256102e-09	-1.689894e+00	-8.930471e+01
1.810000e-06	-1.763002e-07	-1.212038e-09	-1.283400e+00	-8.641210e+01
1.820000e-06	-1.204638e-07	-1.171128e-09	-8.769318e-01	-8.349392e+01
1.830000e-06	-6.467586e-08	-1.131080e-09	-4.708164e-01	-8.054917e+01
1.840000e-06	-8.911964e-09	-1.088299e-09	-6.487581e-02	-7.757671e+01
1.850000e-06	4.680756e-08	-1.043161e-09	3.407418e-01	-7.457535e+01
1.860000e-06	1.025284e-07	-9.980334e-10	7.463689e-01	-7.154385e+01
1.870000e-06	1.582938e-07	-9.538494e-10	1.152321e+00	-6.848096e+01
1.880000e-06	2.140493e-07	-9.097516e-10	1.558200e+00	-6.538545e+01
1.890000e-06	2.698195e-07	-8.658101e-10	1.964187e+00	-6.225613e+01
1.900000e-06	3.255885e-07	-8.197234e-10	2.370165e+00	-5.909188e+01
1.910000e-06	3.813462e-07	-7.743038e-10	2.776060e+00	-5.589167e+01
1.920000e-06	4.370658e-07	-7.327087e-10	3.181678e+00	-5.265459e+01
1.930000e-06	4.927362e-07	-6.893011e-10	3.586938e+00	-4.937988e+01
1.940000e-06	5.483761e-07	-6.385790e-10	3.991977e+00	-4.606692e+01
1.950000e-06	6.040302e-07	-5.866799e-10	4.397118e+00	-4.271524e+01
1.960000e-06	6.596825e-07	-5.383306e-10	4.802246e+00	-3.932456e+01
1.970000e-06	7.152487e-07	-4.908972e-10	5.206747e+00	-3.589477e+01
1.980000e-06	7.707784e-07	-4.395833e-10	5.610983e+00	-3.242591e+01
1.990000e-06	8.262956e-07	-3.875880e-10	6.015128e+00	-2.891822e+01
2.000000e-06	8.817270e-07	-3.380480e-10	6.418648e+00	-2.537207e+01
2.010000e-06	9.371934e-07	-2.891122e-10	6.822423e+00	-2.178800e+01
2.020000e-06	9.926311e-07	-2.372183e-10	7.225989e+00	-1.816670e+01
2.030000e-06	1.047947e-06	-1.835139e-10	7.628666e+00	-1.450896e+01
2.040000e-06	1.103277e-06	-1.308841e-10	8.031450e+00	-1.081571e+01
2.050000e-06	1.158536e-06	-7.769846e-11	8.433719e+00	-7.087977e+00
2.060000e-06	1.213651e-06	-2.166318e-11	8.834932e+00	-3.326876e+00
2.070000e-06	1.268771e-06	3.439097e-11	9.236188e+00	4.663926e-01
2.080000e-06	1.323824e-06	9.068261e-11	9.636951e+00	4.290556e+00
2.090000e-06	1.378689e-06	1.484255e-10	1.003635e+01	8.144277e+00
2.100000e-06	1.433370e-06	2.066966e-10	1.043440e+01	1.202616e+01
2.110000e-06	1.488012e-06	2.646178e-10	1.083218e+01	1.593474e+01
2.120000e-06	1.542570e-06	3.212847e-10	1.122934e+01	1.986850e+01
2.130000e-06	1.596899e-06	3.788430e-10	1.162483e+01	2.382586e+01
2.140000e-06	1.651137e-06	4.393703e-10	1.201967e+01	2.780518e+01
2.150000e-06	1.705282e-06	4.973620e-10	1.241383e+01	3.180472e+01
2.160000e-06	1.759370e-06	5.520353e-10	1.280757e+01	3.582269e+01
2.170000e-06	1.813362e-06	6.095349e-10	1.320061e+01	3.985719e+01
2.180000e-06	1.867123e-06	6.728752e-10	1.359197e+01	4.390623e+01
2.190000e-06	1.920776e-06	7.359303e-10	1.398254e+01	4.796771e+01
2.200000e-06	1.974408e-06	7.959139e-10	1.437296e+01	5.203941e+01
2.210000e-06	2.027878e-06	8.563915e-10	1.476220e+01	5.611900e+01
2.220000e-06	2.081183e-06	9.181581e-10	1.515025e+01	6.020402e+01
2.230000e-06	2.134372e-06	9.804414e-10	1.553744e+01	6.429190e+01
2.240000e-06	2.187419e-06	1.041255e-09	1.592360e+01	6.837994e+01
2.250000e-06	2.240261e-06	1.100234e-09	1.630828e+01	7.246534e+01
2.260000e-06	2.292930e-06	1.158329e-09	1.669169e+01	7.654519e+01
2.270000e-06	2.345450e-06	1.218520e-09	1.707401e+01	8.061650e+01
2.280000e-06	2.397786e-06	1.280042e-09	1.745500e+01	8.467622e+01
2.290000e-06	2.449956e-06	1.339020e-09	1.783478e+01	8.872124e+01
2.300000e-06	2.501929e-06	1.396587e-09	1.821312e+01	9.274845e+01
2.310000e-06	2.553687e-06	1.456921e-09	1.858990e+01	9.675473e+01
2.320000e-06	2.605287e-06	1.516559e-09	1.896553e+01	1.007370e+02
2.330000e-06	2.656750e-06	1.574360e-09	1.934016e+01	1.046923e+02
2.340000e-06	2.708004e-06	1.631336e-09	1.971327e+01	1.086177e+02
2.350000e-06	2.758988e-06	1.688927e-09	2.008442e+01	1.125104e+02
2.360000e-06	2.809693e-06	1.745395e-09	2.045353e+01	1.163679e+02
2.370000e-06	2.860019e-06	1.799596e-09	2.081989e+01	1.201877e+02
2.380000e-06	2.909965e-06	1.854083e-09	2.118347e+01	1.239677e+02
2.390000e-06	2.959552e-06	1.909197e-09	2.154445e+01	1.277059e+02
2.400000e-06	3.008741e-06	1.964161e-09	2.190252e+01	1.314005e+02
2.410000e-06	3.057600e-06	2.017937e-09	2.225820e+01	1.350502e+02
2.420000e-06	3.106141e-06	2.070019e-09	2.261157e+01	1.386539e+02
2.430000e-06	3.154396e-06	2.121713e-09	2.296284e+01	1.422106e+02
2.440000e-06	3.202469e-06	2.170987e-09	2.331280e+01	1.457197e+02
2.450000e-06	3.250439e-06	2.217235e-09	2.366200e+01	1.491810e+02
2.460000e-06	3.298276e-06	2.262625e-09	2.401024e+01	1.525942e+02
2.470000e-06	3.345921e-06	2.308420e-09	2.435707e+01	1.559594e+02
2.480000e-06	3.393367e-06	2.356177e-09	2.470246e+01	1.592771e+02
2.490000e-06	3.440666e-06	2.405347e-09	2.504678e+01	1.625477e+02
2.500000e-06	3.487741e-06	2.451885e-09	2.538947e+01	1.657717e+02
2.510000e-06	3.534440e-06	2.496584e-09	2.572942e+01	1.689500e+02
2.520000e-06	3.580829e-06	2.543657e-09	2.606712e+01	1.720832e+02
2.530000e-06	3.627002e-06	2.592317e-09	2.640324e+01	1.751722e+02
2.540000e-06	3.672931e-06	2.637861e-09	2.673758e+01	1.782177e+02
2.550000e-06	3.718644e-06	2.678779e-09	2.707036e+01	1.812206e+02
2.560000e-06	3.764133e-06	2.718657e-09	2.740151e+01	1.841814e+02
2.570000e-06	3.809325e-06	2.759264e-09	2.773048e+01	1.871009e+02
2.580000e-06	3.854194e-06	2.800660e-09	2.805711e+01	1.899795e+02
2.590000e-06	3.898793e-06	2.841262e-09	2.838178e+01	1.928175e+02
2.600000e-06	3.943195e-06	2.881728e-09	2.870500e+01	1.956152e+02
2.610000e-06	3.987352e-06	2.921998e-09	2.902646e+01	1.983727e+02
2.620000e-06	4.031277e-06	2.961378e-09	2.934621e+01	2.010899e+02
2.630000e-06	4.075047e-06	2.999764e-09	2.966484e+01	2.037667e+02
2.640000e-06	4.118660e-06	3.036002e-09	2.998233e+01	2.064028e+02
2.650000e-06	4.162095e-06	3.070642e-09	3.029852e+01	2.089979e+02
2.660000e-06	4.205269e-06	3.104952e-09	3.061281e+01	2.115514e+02
2.670000e-06	4.247937e-06	3.138722e-09	3.092342e+01	2.140629e+02
2.680000e-06	4.290114e-06	3.174161e-09	3.123045e+01	2.165320e+02
2.690000e-06	4.331790e-06	3.210155e-09	3.153384e+01	2.189582e+02
2.700000e-06	4.372931e-06	3.243879e-09	3.183333e+01	2.213409e+02
2.710000e-06	4.413677e-06	3.276788e-09	3.212994e+01	2.236800e+02
2.720000e-06	4.454024e-06	3.311006e-09	3.242365e+01	2.259752e+02
2.730000e-06	4.494025e-06	3.345458e-09	3.271485e+01	2.282263e+02
2.740000e-06	4.533833e-06	3.377271e-09	3.300464e+01	2.304335e+02
2.750000e-06	4.573542e-06	3.405340e-09	3.329370e+01	2.325968e+02
2.760000e-06	4.613039e-06	3.434297e-09	3.358123e+01	2.347169e+02
2.770000e-06	4.652180e-06	3.465804e-09	3.386616e+01	2.367941e+02
2.780000e-06	4.690907e-06	3.496340e-09	3.414807e+01	2.388292e+02
2.790000e-06	4.729307e-06	3.526090e-09	3.442762e+01	2.408232e+02
2.800000e-06	4.767443e-06	3.556219e-09	3.470523e+01	2.427771e+02
2.810000e-06	4.805188e-06	3.585740e-09	3.498000e+01	2.446921e+02
2.820000e-06	4.842621e-06	3.614745e-09	3.525250e+01	2.465695e+02
2.830000e-06	4.879844e-06	3.642788e-09	3.552347e+01	2.484107e+02
2.840000e-06	4.916645e-06	3.669736e-09	3.579136e+01	2.502170e+02
2.850000e-06	4.953059e-06	3.696916e-09	3.605645e+01	2.519899e+02
2.860000e-06	4.989231e-06	3.724239e-09	3.631976e+01	2.537307e+02
2.870000e-06	5.025183e-06	3.750166e-09	3.658148e+01	2.554408e+02
2.880000e-06	5.060928e-06	3.775134e-09	3.684169e+01	2.571212e+02
2.890000e-06	5.096458e-06	3.801117e-09	3.710034e+01	2.587731e+02
2.900000e-06	5.131698e-06	3.827590e-09	3.735688e+01	2.603973e+02
