# Temperatura_=_20.0
# Concentracion g/m^3_=_12600.0
# C_Vs_to_Am_M_A/Vsm_=_65563218390.804596
# pendiente_HvsI_1/m_=_3716.3
# ordenada_HvsI_A/m_=_1297.0
# frecuencia_Hz_=_135359.13740485272

Tiempo_(s)	Campo_(V.s)	Magnetizacion_(V.s)	Campo_(kA/m)	Magnetizacion_(A/m)
0.000000e+00	-6.589086e-06	-4.608770e-09	-4.772606e+01	-3.018007e+02
1.000000e-08	-6.589414e-06	-4.606818e-09	-4.772843e+01	-3.019276e+02
2.000000e-08	-6.589431e-06	-4.603828e-09	-4.772855e+01	-3.020363e+02
3.000000e-08	-6.589046e-06	-4.600819e-09	-4.772577e+01	-3.021214e+02
4.000000e-08	-6.588125e-06	-4.604054e-09	-4.771909e+01	-3.021773e+02
5.000000e-08	-6.586615e-06	-4.603878e-09	-4.770816e+01	-3.021985e+02
6.000000e-08	-6.584369e-06	-4.597734e-09	-4.769189e+01	-3.021798e+02
7.000000e-08	-6.581452e-06	-4.595712e-09	-4.767076e+01	-3.021163e+02
8.000000e-08	-6.578074e-06	-4.602788e-09	-4.764630e+01	-3.020037e+02
9.000000e-08	-6.574263e-06	-4.582727e-09	-4.761869e+01	-3.018384e+02
1.000000e-07	-6.569995e-06	-4.537370e-09	-4.758778e+01	-3.016178e+02
1.100000e-07	-6.565116e-06	-4.575727e-09	-4.755244e+01	-3.013399e+02
1.200000e-07	-6.559591e-06	-4.708476e-09	-4.751242e+01	-3.010039e+02
1.300000e-07	-6.553662e-06	-4.701238e-09	-4.746948e+01	-3.006102e+02
1.400000e-07	-6.547526e-06	-4.467855e-09	-4.742503e+01	-3.001600e+02
1.500000e-07	-6.541086e-06	-4.337642e-09	-4.737839e+01	-2.996560e+02
1.600000e-07	-6.534171e-06	-4.575415e-09	-4.732830e+01	-2.991018e+02
1.700000e-07	-6.526739e-06	-4.770024e-09	-4.727447e+01	-2.985020e+02
1.800000e-07	-6.518933e-06	-4.583088e-09	-4.721793e+01	-2.978622e+02
1.900000e-07	-6.510824e-06	-4.463789e-09	-4.715919e+01	-2.971891e+02
2.000000e-07	-6.502358e-06	-4.453936e-09	-4.709787e+01	-2.964898e+02
2.100000e-07	-6.493448e-06	-4.557860e-09	-4.703334e+01	-2.957723e+02
2.200000e-07	-6.484006e-06	-4.674557e-09	-4.696495e+01	-2.950448e+02
2.300000e-07	-6.473806e-06	-4.654889e-09	-4.689106e+01	-2.943159e+02
2.400000e-07	-6.462744e-06	-4.379158e-09	-4.681094e+01	-2.935941e+02
2.500000e-07	-6.451105e-06	-4.336827e-09	-4.672664e+01	-2.928880e+02
2.600000e-07	-6.439038e-06	-4.682676e-09	-4.663923e+01	-2.922056e+02
2.700000e-07	-6.426384e-06	-4.742304e-09	-4.654757e+01	-2.915545e+02
2.800000e-07	-6.413149e-06	-4.361239e-09	-4.645171e+01	-2.909417e+02
2.900000e-07	-6.399524e-06	-4.300791e-09	-4.635303e+01	-2.903733e+02
3.000000e-07	-6.385529e-06	-4.655102e-09	-4.625165e+01	-2.898544e+02
3.100000e-07	-6.370740e-06	-4.672298e-09	-4.614453e+01	-2.893888e+02
3.200000e-07	-6.355189e-06	-4.362033e-09	-4.603190e+01	-2.889795e+02
3.300000e-07	-6.339208e-06	-4.430999e-09	-4.591614e+01	-2.886278e+02
3.400000e-07	-6.322762e-06	-4.596914e-09	-4.579702e+01	-2.883342e+02
3.500000e-07	-6.305829e-06	-4.357879e-09	-4.567437e+01	-2.880973e+02
3.600000e-07	-6.288504e-06	-4.390771e-09	-4.554888e+01	-2.879149e+02
3.700000e-07	-6.270796e-06	-4.722841e-09	-4.542062e+01	-2.877835e+02
3.800000e-07	-6.252576e-06	-4.624547e-09	-4.528865e+01	-2.876982e+02
3.900000e-07	-6.233918e-06	-4.245461e-09	-4.515350e+01	-2.876535e+02
4.000000e-07	-6.214898e-06	-4.387736e-09	-4.501574e+01	-2.876426e+02
4.100000e-07	-6.195471e-06	-4.642970e-09	-4.487503e+01	-2.876583e+02
4.200000e-07	-6.175659e-06	-4.555487e-09	-4.473152e+01	-2.876927e+02
4.300000e-07	-6.155603e-06	-4.324316e-09	-4.458625e+01	-2.877375e+02
4.400000e-07	-6.135296e-06	-4.292965e-09	-4.443917e+01	-2.877843e+02
4.500000e-07	-6.114595e-06	-4.419314e-09	-4.428922e+01	-2.878247e+02
4.600000e-07	-6.093356e-06	-4.567881e-09	-4.413539e+01	-2.878503e+02
4.700000e-07	-6.071665e-06	-4.485489e-09	-4.397827e+01	-2.878535e+02
4.800000e-07	-6.049639e-06	-4.298479e-09	-4.381874e+01	-2.878267e+02
4.900000e-07	-6.027126e-06	-4.279212e-09	-4.365567e+01	-2.877633e+02
5.000000e-07	-6.004169e-06	-4.414973e-09	-4.348939e+01	-2.876576e+02
5.100000e-07	-5.980929e-06	-4.509077e-09	-4.332106e+01	-2.875045e+02
5.200000e-07	-5.957388e-06	-4.439914e-09	-4.315055e+01	-2.873002e+02
5.300000e-07	-5.933525e-06	-4.236916e-09	-4.297770e+01	-2.870418e+02
5.400000e-07	-5.909226e-06	-4.207553e-09	-4.280170e+01	-2.867274e+02
5.500000e-07	-5.884320e-06	-4.444455e-09	-4.262130e+01	-2.863565e+02
5.600000e-07	-5.858784e-06	-4.499861e-09	-4.243634e+01	-2.859292e+02
5.700000e-07	-5.832673e-06	-4.260912e-09	-4.224721e+01	-2.854471e+02
5.800000e-07	-5.805937e-06	-4.159075e-09	-4.205355e+01	-2.849122e+02
5.900000e-07	-5.778700e-06	-4.314118e-09	-4.185627e+01	-2.843279e+02
6.000000e-07	-5.751140e-06	-4.392546e-09	-4.165665e+01	-2.836978e+02
6.100000e-07	-5.723286e-06	-4.318770e-09	-4.145490e+01	-2.830262e+02
6.200000e-07	-5.695130e-06	-4.227627e-09	-4.125095e+01	-2.823182e+02
6.300000e-07	-5.666679e-06	-4.208941e-09	-4.104488e+01	-2.815787e+02
6.400000e-07	-5.637888e-06	-4.243676e-09	-4.083634e+01	-2.808129e+02
6.500000e-07	-5.608719e-06	-4.301719e-09	-4.062506e+01	-2.800263e+02
6.600000e-07	-5.579177e-06	-4.285596e-09	-4.041109e+01	-2.792237e+02
6.700000e-07	-5.549191e-06	-4.194947e-09	-4.019389e+01	-2.784101e+02
6.800000e-07	-5.518801e-06	-4.127064e-09	-3.997377e+01	-2.775899e+02
6.900000e-07	-5.488052e-06	-4.184823e-09	-3.975105e+01	-2.767669e+02
7.000000e-07	-5.456923e-06	-4.259609e-09	-3.952558e+01	-2.759446e+02
7.100000e-07	-5.425466e-06	-4.216593e-09	-3.929773e+01	-2.751256e+02
7.200000e-07	-5.393761e-06	-4.098672e-09	-3.906809e+01	-2.743120e+02
7.300000e-07	-5.361711e-06	-4.082809e-09	-3.883594e+01	-2.735049e+02
7.400000e-07	-5.329318e-06	-4.162934e-09	-3.860131e+01	-2.727050e+02
7.500000e-07	-5.296547e-06	-4.197701e-09	-3.836394e+01	-2.719122e+02
7.600000e-07	-5.263213e-06	-4.118956e-09	-3.812250e+01	-2.711258e+02
7.700000e-07	-5.229313e-06	-4.032952e-09	-3.787696e+01	-2.703442e+02
7.800000e-07	-5.194935e-06	-4.046376e-09	-3.762794e+01	-2.695658e+02
7.900000e-07	-5.160137e-06	-4.114148e-09	-3.737590e+01	-2.687881e+02
8.000000e-07	-5.124875e-06	-4.106286e-09	-3.712048e+01	-2.680086e+02
8.100000e-07	-5.089223e-06	-4.023102e-09	-3.686225e+01	-2.672243e+02
8.200000e-07	-5.053273e-06	-3.976665e-09	-3.660186e+01	-2.664322e+02
8.300000e-07	-5.017025e-06	-4.004732e-09	-3.633931e+01	-2.656293e+02
8.400000e-07	-4.980438e-06	-4.035814e-09	-3.607430e+01	-2.648127e+02
8.500000e-07	-4.943535e-06	-4.012308e-09	-3.580701e+01	-2.639795e+02
8.600000e-07	-4.906297e-06	-3.953676e-09	-3.553728e+01	-2.631272e+02
8.700000e-07	-4.868732e-06	-3.917645e-09	-3.526519e+01	-2.622536e+02
8.800000e-07	-4.830926e-06	-3.935284e-09	-3.499135e+01	-2.613567e+02
8.900000e-07	-4.792834e-06	-3.955656e-09	-3.471545e+01	-2.604353e+02
9.000000e-07	-4.754378e-06	-3.926392e-09	-3.443690e+01	-2.594884e+02
9.100000e-07	-4.715512e-06	-3.864317e-09	-3.415539e+01	-2.585154e+02
9.200000e-07	-4.676299e-06	-3.839487e-09	-3.387137e+01	-2.575164e+02
9.300000e-07	-4.636825e-06	-3.857841e-09	-3.358545e+01	-2.564919e+02
9.400000e-07	-4.597198e-06	-3.870588e-09	-3.329841e+01	-2.554426e+02
9.500000e-07	-4.557364e-06	-3.837955e-09	-3.300989e+01	-2.543698e+02
9.600000e-07	-4.517209e-06	-3.785856e-09	-3.271904e+01	-2.532749e+02
9.700000e-07	-4.476620e-06	-3.760848e-09	-3.242505e+01	-2.521599e+02
9.800000e-07	-4.435599e-06	-3.777609e-09	-3.212792e+01	-2.510266e+02
9.900000e-07	-4.394181e-06	-3.782922e-09	-3.182793e+01	-2.498771e+02
1.000000e-06	-4.352301e-06	-3.741311e-09	-3.152458e+01	-2.487134e+02
1.010000e-06	-4.309958e-06	-3.686172e-09	-3.121788e+01	-2.475375e+02
1.020000e-06	-4.267166e-06	-3.675160e-09	-3.090793e+01	-2.463512e+02
1.030000e-06	-4.224052e-06	-3.693925e-09	-3.059565e+01	-2.451563e+02
1.040000e-06	-4.180691e-06	-3.687142e-09	-3.028158e+01	-2.439541e+02
1.050000e-06	-4.137087e-06	-3.636746e-09	-2.996574e+01	-2.427456e+02
1.060000e-06	-4.093203e-06	-3.595276e-09	-2.964788e+01	-2.415318e+02
1.070000e-06	-4.049017e-06	-3.600090e-09	-2.932783e+01	-2.403128e+02
1.080000e-06	-4.004622e-06	-3.615454e-09	-2.900627e+01	-2.390888e+02
1.090000e-06	-3.960032e-06	-3.587017e-09	-2.868330e+01	-2.378594e+02
1.100000e-06	-3.915179e-06	-3.531136e-09	-2.835842e+01	-2.366237e+02
1.110000e-06	-3.869967e-06	-3.503932e-09	-2.803094e+01	-2.353808e+02
1.120000e-06	-3.824466e-06	-3.510748e-09	-2.770137e+01	-2.341292e+02
1.130000e-06	-3.778757e-06	-3.504818e-09	-2.737028e+01	-2.328673e+02
1.140000e-06	-3.732804e-06	-3.466764e-09	-2.703744e+01	-2.315932e+02
1.150000e-06	-3.686556e-06	-3.427314e-09	-2.670246e+01	-2.303051e+02
1.160000e-06	-3.640026e-06	-3.409051e-09	-2.636543e+01	-2.290007e+02
1.170000e-06	-3.593285e-06	-3.402962e-09	-2.602688e+01	-2.276780e+02
1.180000e-06	-3.546359e-06	-3.386402e-09	-2.568698e+01	-2.263351e+02
1.190000e-06	-3.499245e-06	-3.355077e-09	-2.534573e+01	-2.249699e+02
1.200000e-06	-3.451894e-06	-3.320225e-09	-2.500276e+01	-2.235808e+02
1.210000e-06	-3.404287e-06	-3.297820e-09	-2.465793e+01	-2.221661e+02
1.220000e-06	-3.356417e-06	-3.285005e-09	-2.431119e+01	-2.207246e+02
1.230000e-06	-3.308301e-06	-3.265138e-09	-2.396268e+01	-2.192553e+02
1.240000e-06	-3.259910e-06	-3.231370e-09	-2.361218e+01	-2.177575e+02
1.250000e-06	-3.211256e-06	-3.196397e-09	-2.325976e+01	-2.162308e+02
1.260000e-06	-3.162335e-06	-3.173764e-09	-2.290542e+01	-2.146752e+02
1.270000e-06	-3.113079e-06	-3.162756e-09	-2.254865e+01	-2.130909e+02
1.280000e-06	-3.063469e-06	-3.143060e-09	-2.218931e+01	-2.114785e+02
1.290000e-06	-3.013563e-06	-3.107838e-09	-2.182783e+01	-2.098386e+02
1.300000e-06	-2.963388e-06	-3.070197e-09	-2.146441e+01	-2.081724e+02
1.310000e-06	-2.912808e-06	-3.047672e-09	-2.109805e+01	-2.064810e+02
1.320000e-06	-2.861967e-06	-3.034743e-09	-2.072980e+01	-2.047656e+02
1.330000e-06	-2.810992e-06	-3.008536e-09	-2.036057e+01	-2.030277e+02
1.340000e-06	-2.759706e-06	-2.964627e-09	-1.998910e+01	-2.012686e+02
1.350000e-06	-2.708108e-06	-2.929849e-09	-1.961536e+01	-1.994895e+02
1.360000e-06	-2.656330e-06	-2.915445e-09	-1.924032e+01	-1.976918e+02
1.370000e-06	-2.604320e-06	-2.900446e-09	-1.886360e+01	-1.958764e+02
1.380000e-06	-2.552026e-06	-2.866571e-09	-1.848483e+01	-1.940443e+02
1.390000e-06	-2.499526e-06	-2.824001e-09	-1.810456e+01	-1.921961e+02
1.400000e-06	-2.446857e-06	-2.794180e-09	-1.772307e+01	-1.903322e+02
1.410000e-06	-2.394037e-06	-2.774068e-09	-1.734049e+01	-1.884529e+02
1.420000e-06	-2.341034e-06	-2.748383e-09	-1.695657e+01	-1.865579e+02
1.430000e-06	-2.287920e-06	-2.713665e-09	-1.657186e+01	-1.846469e+02
1.440000e-06	-2.234721e-06	-2.677464e-09	-1.618653e+01	-1.827192e+02
1.450000e-06	-2.181398e-06	-2.649970e-09	-1.580030e+01	-1.807740e+02
1.460000e-06	-2.127972e-06	-2.627015e-09	-1.541332e+01	-1.788102e+02
1.470000e-06	-2.074399e-06	-2.600493e-09	-1.502528e+01	-1.768265e+02
1.480000e-06	-2.020625e-06	-2.566718e-09	-1.463579e+01	-1.748215e+02
1.490000e-06	-1.966683e-06	-2.532048e-09	-1.424508e+01	-1.727938e+02
1.500000e-06	-1.912644e-06	-2.501255e-09	-1.385366e+01	-1.707419e+02
1.510000e-06	-1.858474e-06	-2.471954e-09	-1.346130e+01	-1.686642e+02
1.520000e-06	-1.804113e-06	-2.441528e-09	-1.306755e+01	-1.665594e+02
1.530000e-06	-1.749608e-06	-2.406262e-09	-1.267276e+01	-1.644262e+02
1.540000e-06	-1.695000e-06	-2.368007e-09	-1.227722e+01	-1.622633e+02
1.550000e-06	-1.640262e-06	-2.333966e-09	-1.188074e+01	-1.600699e+02
1.560000e-06	-1.585434e-06	-2.306132e-09	-1.148361e+01	-1.578452e+02
1.570000e-06	-1.530550e-06	-2.274435e-09	-1.108607e+01	-1.555886e+02
1.580000e-06	-1.475570e-06	-2.233227e-09	-1.068785e+01	-1.533000e+02
1.590000e-06	-1.420422e-06	-2.190422e-09	-1.028840e+01	-1.509794e+02
1.600000e-06	-1.365117e-06	-2.156666e-09	-9.887814e+00	-1.486270e+02
1.610000e-06	-1.309813e-06	-2.125556e-09	-9.487237e+00	-1.462433e+02
1.620000e-06	-1.254530e-06	-2.088859e-09	-9.086806e+00	-1.438292e+02
1.630000e-06	-1.199207e-06	-2.043234e-09	-8.686094e+00	-1.413855e+02
1.640000e-06	-1.143807e-06	-2.002076e-09	-8.284823e+00	-1.389133e+02
1.650000e-06	-1.088325e-06	-1.967561e-09	-7.882957e+00	-1.364138e+02
1.660000e-06	-1.032775e-06	-1.934876e-09	-7.480591e+00	-1.338884e+02
1.670000e-06	-9.772083e-07	-1.896739e-09	-7.078114e+00	-1.313382e+02
1.680000e-06	-9.215599e-07	-1.852708e-09	-6.675042e+00	-1.287645e+02
1.690000e-06	-8.657995e-07	-1.811803e-09	-6.271158e+00	-1.261686e+02
1.700000e-06	-8.100734e-07	-1.774619e-09	-5.867522e+00	-1.235514e+02
1.710000e-06	-7.543576e-07	-1.735005e-09	-5.463962e+00	-1.209140e+02
1.720000e-06	-6.985644e-07	-1.691165e-09	-5.059841e+00	-1.182569e+02
1.730000e-06	-6.427274e-07	-1.647942e-09	-4.655402e+00	-1.155806e+02
1.740000e-06	-5.868538e-07	-1.611241e-09	-4.250699e+00	-1.128854e+02
1.750000e-06	-5.309107e-07	-1.576408e-09	-3.845492e+00	-1.101712e+02
1.760000e-06	-4.749666e-07	-1.537360e-09	-3.440277e+00	-1.074376e+02
1.770000e-06	-4.190103e-07	-1.499426e-09	-3.034975e+00	-1.046840e+02
1.780000e-06	-3.630192e-07	-1.461394e-09	-2.629420e+00	-1.019097e+02
1.790000e-06	-3.070275e-07	-1.421020e-09	-2.223861e+00	-9.911334e+01
1.800000e-06	-2.510326e-07	-1.375105e-09	-1.818279e+00	-9.629377e+01
1.810000e-06	-1.950055e-07	-1.328058e-09	-1.412463e+00	-9.344943e+01
1.820000e-06	-1.390116e-07	-1.280729e-09	-1.006889e+00	-9.057868e+01
1.830000e-06	-8.304237e-08	-1.234504e-09	-6.014924e-01	-8.767979e+01
1.840000e-06	-2.702610e-08	-1.191125e-09	-1.957554e-01	-8.475097e+01
1.850000e-06	2.899152e-08	-1.153590e-09	2.099914e-01	-8.179043e+01
1.860000e-06	8.496007e-08	-1.114113e-09	6.153827e-01	-7.879641e+01
1.870000e-06	1.409080e-07	-1.071540e-09	1.020624e+00	-7.576727e+01
1.880000e-06	1.968916e-07	-1.026230e-09	1.426125e+00	-7.270149e+01
1.890000e-06	2.528778e-07	-9.828941e-10	1.831644e+00	-6.959770e+01
1.900000e-06	3.088230e-07	-9.356314e-10	2.236866e+00	-6.645475e+01
1.910000e-06	3.647440e-07	-8.815481e-10	2.641913e+00	-6.327172e+01
1.920000e-06	4.207120e-07	-8.280568e-10	3.047301e+00	-6.004794e+01
1.930000e-06	4.767237e-07	-7.807454e-10	3.453004e+00	-5.678298e+01
1.940000e-06	5.326968e-07	-7.382394e-10	3.858429e+00	-5.347669e+01
1.950000e-06	5.885718e-07	-6.944307e-10	4.263142e+00	-5.012915e+01
1.960000e-06	6.443877e-07	-6.477537e-10	4.667428e+00	-4.674071e+01
1.970000e-06	7.002327e-07	-6.005061e-10	5.071924e+00	-4.331194e+01
1.980000e-06	7.560347e-07	-5.536422e-10	5.476109e+00	-3.984361e+01
1.990000e-06	8.117164e-07	-5.026426e-10	5.879423e+00	-3.633667e+01
2.000000e-06	8.673729e-07	-4.484257e-10	6.282554e+00	-3.279221e+01
2.010000e-06	9.230488e-07	-3.903869e-10	6.685826e+00	-2.921143e+01
2.020000e-06	9.787041e-07	-3.331786e-10	7.088948e+00	-2.559560e+01
2.030000e-06	1.034284e-06	-2.781731e-10	7.491527e+00	-2.194604e+01
2.040000e-06	1.089767e-06	-2.275743e-10	7.893399e+00	-1.826410e+01
2.050000e-06	1.145193e-06	-1.770637e-10	8.294857e+00	-1.455108e+01
2.060000e-06	1.200590e-06	-1.245555e-10	8.696110e+00	-1.080825e+01
2.070000e-06	1.255911e-06	-7.108349e-11	9.096813e+00	-7.036843e+00
2.080000e-06	1.311147e-06	-1.909299e-11	9.496901e+00	-3.238001e+00
2.090000e-06	1.366411e-06	3.543093e-11	9.897188e+00	5.872005e-01
2.100000e-06	1.421609e-06	9.373890e-11	1.029700e+01	4.437760e+00
2.110000e-06	1.476654e-06	1.563400e-10	1.069570e+01	8.312741e+00
2.120000e-06	1.531573e-06	2.172579e-10	1.109349e+01	1.221125e+01
2.130000e-06	1.586362e-06	2.751833e-10	1.149034e+01	1.613244e+01
2.140000e-06	1.641008e-06	3.325498e-10	1.188615e+01	2.007544e+01
2.150000e-06	1.695514e-06	3.906611e-10	1.228095e+01	2.403937e+01
2.160000e-06	1.749986e-06	4.477614e-10	1.267549e+01	2.802327e+01
2.170000e-06	1.804354e-06	5.043234e-10	1.306930e+01	3.202611e+01
2.180000e-06	1.858543e-06	5.621707e-10	1.346180e+01	3.604670e+01
2.190000e-06	1.912578e-06	6.208346e-10	1.385319e+01	4.008370e+01
2.200000e-06	1.966509e-06	6.813130e-10	1.424382e+01	4.413558e+01
2.210000e-06	2.020342e-06	7.451909e-10	1.463373e+01	4.820056e+01
2.220000e-06	2.074023e-06	8.096283e-10	1.502256e+01	5.227664e+01
2.230000e-06	2.127522e-06	8.724009e-10	1.541007e+01	5.636154e+01
2.240000e-06	2.180836e-06	9.338218e-10	1.579623e+01	6.045273e+01
2.250000e-06	2.233973e-06	9.942123e-10	1.618111e+01	6.454740e+01
2.260000e-06	2.286987e-06	1.052700e-09	1.656510e+01	6.864249e+01
2.270000e-06	2.339859e-06	1.109878e-09	1.694806e+01	7.273468e+01
2.280000e-06	2.392495e-06	1.169764e-09	1.732932e+01	7.682045e+01
2.290000e-06	2.445031e-06	1.229865e-09	1.770984e+01	8.089610e+01
2.300000e-06	2.497363e-06	1.290331e-09	1.808890e+01	8.495778e+01
2.310000e-06	2.549388e-06	1.351271e-09	1.846572e+01	8.900156e+01
2.320000e-06	2.601286e-06	1.414212e-09	1.884163e+01	9.302345e+01
2.330000e-06	2.653091e-06	1.476317e-09	1.921687e+01	9.701950e+01
2.340000e-06	2.704659e-06	1.535108e-09	1.959038e+01	1.009858e+02
2.350000e-06	2.755854e-06	1.590964e-09	1.996120e+01	1.049186e+02
2.360000e-06	2.806778e-06	1.645615e-09	2.033005e+01	1.088144e+02
2.370000e-06	2.857505e-06	1.698331e-09	2.069748e+01	1.126698e+02
2.380000e-06	2.907959e-06	1.752810e-09	2.106292e+01	1.164818e+02
2.390000e-06	2.958030e-06	1.805056e-09	2.142560e+01	1.202477e+02
2.400000e-06	3.007692e-06	1.857978e-09	2.178531e+01	1.239651e+02
2.410000e-06	3.057093e-06	1.912840e-09	2.214313e+01	1.276322e+02
2.420000e-06	3.106213e-06	1.969466e-09	2.249892e+01	1.312475e+02
2.430000e-06	3.154947e-06	2.023170e-09	2.285191e+01	1.348098e+02
2.440000e-06	3.203414e-06	2.072904e-09	2.320297e+01	1.383185e+02
2.450000e-06	3.251669e-06	2.122096e-09	2.355249e+01	1.417734e+02
2.460000e-06	3.299716e-06	2.169149e-09	2.390050e+01	1.451745e+02
2.470000e-06	3.347562e-06	2.213150e-09	2.424706e+01	1.485224e+02
2.480000e-06	3.395217e-06	2.257788e-09	2.459223e+01	1.518177e+02
2.490000e-06	3.442689e-06	2.305983e-09	2.493608e+01	1.550616e+02
2.500000e-06	3.490013e-06	2.353168e-09	2.527886e+01	1.582552e+02
2.510000e-06	3.537077e-06	2.398109e-09	2.561975e+01	1.614000e+02
2.520000e-06	3.583821e-06	2.443294e-09	2.595833e+01	1.644975e+02
2.530000e-06	3.630303e-06	2.491006e-09	2.629501e+01	1.675490e+02
2.540000e-06	3.676482e-06	2.536530e-09	2.662949e+01	1.705562e+02
2.550000e-06	3.722413e-06	2.580454e-09	2.696218e+01	1.735203e+02
2.560000e-06	3.768163e-06	2.620921e-09	2.729355e+01	1.764427e+02
2.570000e-06	3.813767e-06	2.660564e-09	2.762387e+01	1.793244e+02
2.580000e-06	3.859093e-06	2.699766e-09	2.795218e+01	1.821663e+02
2.590000e-06	3.904091e-06	2.739869e-09	2.827811e+01	1.849689e+02
2.600000e-06	3.948785e-06	2.779659e-09	2.860183e+01	1.877326e+02
2.610000e-06	3.993158e-06	2.820057e-09	2.892323e+01	1.904576e+02
2.620000e-06	4.037279e-06	2.860346e-09	2.924282e+01	1.931437e+02
2.630000e-06	4.081256e-06	2.899271e-09	2.956135e+01	1.957906e+02
2.640000e-06	4.125077e-06	2.935148e-09	2.987875e+01	1.983975e+02
2.650000e-06	4.168745e-06	2.969546e-09	3.019505e+01	2.009637e+02
2.660000e-06	4.212270e-06	3.003518e-09	3.051031e+01	2.034884e+02
2.670000e-06	4.255445e-06	3.037099e-09	3.082303e+01	2.059705e+02
2.680000e-06	4.298103e-06	3.069916e-09	3.113201e+01	2.084089e+02
2.690000e-06	4.340258e-06	3.104310e-09	3.143735e+01	2.108026e+02
2.700000e-06	4.381953e-06	3.139664e-09	3.173936e+01	2.131507e+02
2.710000e-06	4.423198e-06	3.172553e-09	3.203810e+01	2.154522e+02
2.720000e-06	4.463991e-06	3.206475e-09	3.233357e+01	2.177065e+02
2.730000e-06	4.504361e-06	3.242574e-09	3.262598e+01	2.199132e+02
2.740000e-06	4.544426e-06	3.276697e-09	3.291618e+01	2.220720e+02
2.750000e-06	4.584261e-06	3.306571e-09	3.320471e+01	2.241829e+02
2.760000e-06	4.623899e-06	3.335516e-09	3.349182e+01	2.262465e+02
2.770000e-06	4.663387e-06	3.365307e-09	3.377784e+01	2.282632e+02
2.780000e-06	4.702571e-06	3.396032e-09	3.406165e+01	2.302341e+02
2.790000e-06	4.741291e-06	3.425279e-09	3.434211e+01	2.321606e+02
2.800000e-06	4.779637e-06	3.453673e-09	3.461986e+01	2.340441e+02
2.810000e-06	4.817707e-06	3.482390e-09	3.489561e+01	2.358864e+02
2.820000e-06	4.855513e-06	3.513087e-09	3.516945e+01	2.376895e+02
2.830000e-06	4.893028e-06	3.541055e-09	3.544117e+01	2.394557e+02
2.840000e-06	4.930154e-06	3.565647e-09	3.571009e+01	2.411871e+02
2.850000e-06	4.966870e-06	3.589062e-09	3.597602e+01	2.428860e+02
2.860000e-06	5.003273e-06	3.615203e-09	3.623970e+01	2.445546e+02
2.870000e-06	5.039377e-06	3.639258e-09	3.650121e+01	2.461951e+02
2.880000e-06	5.075217e-06	3.662253e-09	3.676080e+01	2.478094e+02
2.890000e-06	5.110928e-06	3.686551e-09	3.701947e+01	2.493995e+02
2.900000e-06	5.146419e-06	3.712938e-09	3.727654e+01	2.509666e+02
