# Temperatura_=_20.0
# Concentracion g/m^3_=_12600.0
# C_Vs_to_Am_M_A/Vsm_=_65563218390.804596
# pendiente_HvsI_1/m_=_3716.3
# ordenada_HvsI_A/m_=_1297.0
# frecuencia_Hz_=_135358.05999574615

Tiempo_(s)	Campo_(V.s)	Magnetizacion_(V.s)	Campo_(kA/m)	Magnetizacion_(A/m)
0.000000e+00	-6.593840e-06	-4.876130e-09	-4.771782e+01	-3.119011e+02
1.000000e-08	-6.593953e-06	-4.878560e-09	-4.771864e+01	-3.119274e+02
2.000000e-08	-6.593776e-06	-4.879130e-09	-4.771736e+01	-3.119380e+02
3.000000e-08	-6.593138e-06	-4.876748e-09	-4.771274e+01	-3.119298e+02
4.000000e-08	-6.591871e-06	-4.874665e-09	-4.770358e+01	-3.118993e+02
5.000000e-08	-6.589977e-06	-4.872295e-09	-4.768987e+01	-3.118431e+02
6.000000e-08	-6.587386e-06	-4.867996e-09	-4.767112e+01	-3.117576e+02
7.000000e-08	-6.584194e-06	-4.865070e-09	-4.764802e+01	-3.116391e+02
8.000000e-08	-6.580611e-06	-4.864729e-09	-4.762209e+01	-3.114841e+02
9.000000e-08	-6.576590e-06	-4.854482e-09	-4.759299e+01	-3.112891e+02
1.000000e-07	-6.571896e-06	-4.843361e-09	-4.755902e+01	-3.110511e+02
1.100000e-07	-6.566585e-06	-4.872256e-09	-4.752058e+01	-3.107672e+02
1.200000e-07	-6.560828e-06	-4.915367e-09	-4.747892e+01	-3.104350e+02
1.300000e-07	-6.554741e-06	-4.889367e-09	-4.743488e+01	-3.100527e+02
1.400000e-07	-6.548371e-06	-4.783955e-09	-4.738878e+01	-3.096187e+02
1.500000e-07	-6.541610e-06	-4.769606e-09	-4.733985e+01	-3.091323e+02
1.600000e-07	-6.534334e-06	-4.914764e-09	-4.728719e+01	-3.085934e+02
1.700000e-07	-6.526592e-06	-4.971537e-09	-4.723117e+01	-3.080024e+02
1.800000e-07	-6.518562e-06	-4.817044e-09	-4.717306e+01	-3.073605e+02
1.900000e-07	-6.510251e-06	-4.790087e-09	-4.711291e+01	-3.066696e+02
2.000000e-07	-6.501650e-06	-4.809931e-09	-4.705067e+01	-3.059320e+02
2.100000e-07	-6.492468e-06	-4.874473e-09	-4.698422e+01	-3.051510e+02
2.200000e-07	-6.482443e-06	-4.893354e-09	-4.691168e+01	-3.043301e+02
2.300000e-07	-6.471727e-06	-4.814321e-09	-4.683413e+01	-3.034737e+02
2.400000e-07	-6.460456e-06	-4.622142e-09	-4.675256e+01	-3.025862e+02
2.500000e-07	-6.448568e-06	-4.605004e-09	-4.666653e+01	-3.016728e+02
2.600000e-07	-6.436054e-06	-4.761785e-09	-4.657597e+01	-3.007388e+02
2.700000e-07	-6.423148e-06	-4.692067e-09	-4.648257e+01	-2.997896e+02
2.800000e-07	-6.409814e-06	-4.414222e-09	-4.638608e+01	-2.988308e+02
2.900000e-07	-6.395919e-06	-4.393795e-09	-4.628552e+01	-2.978680e+02
3.000000e-07	-6.381409e-06	-4.562215e-09	-4.618052e+01	-2.969067e+02
3.100000e-07	-6.366274e-06	-4.487085e-09	-4.607099e+01	-2.959521e+02
3.200000e-07	-6.350370e-06	-4.252824e-09	-4.595590e+01	-2.950093e+02
3.300000e-07	-6.333845e-06	-4.273195e-09	-4.583631e+01	-2.940829e+02
3.400000e-07	-6.317044e-06	-4.385474e-09	-4.571473e+01	-2.931770e+02
3.500000e-07	-6.299873e-06	-4.262896e-09	-4.559046e+01	-2.922953e+02
3.600000e-07	-6.282265e-06	-4.249258e-09	-4.546304e+01	-2.914408e+02
3.700000e-07	-6.264266e-06	-4.307419e-09	-4.533278e+01	-2.906160e+02
3.800000e-07	-6.245876e-06	-4.251625e-09	-4.519971e+01	-2.898226e+02
3.900000e-07	-6.227108e-06	-4.169905e-09	-4.506388e+01	-2.890619e+02
4.000000e-07	-6.207845e-06	-4.284377e-09	-4.492448e+01	-2.883342e+02
4.100000e-07	-6.188154e-06	-4.288078e-09	-4.478198e+01	-2.876395e+02
4.200000e-07	-6.168232e-06	-4.222762e-09	-4.463782e+01	-2.869769e+02
4.300000e-07	-6.148025e-06	-4.219728e-09	-4.449158e+01	-2.863450e+02
4.400000e-07	-6.127410e-06	-4.270491e-09	-4.434239e+01	-2.857420e+02
4.500000e-07	-6.106264e-06	-4.259704e-09	-4.418937e+01	-2.851653e+02
4.600000e-07	-6.084704e-06	-4.258611e-09	-4.403335e+01	-2.846122e+02
4.700000e-07	-6.062777e-06	-4.222642e-09	-4.387466e+01	-2.840794e+02
4.800000e-07	-6.040410e-06	-4.201965e-09	-4.371280e+01	-2.835637e+02
4.900000e-07	-6.017765e-06	-4.212596e-09	-4.354893e+01	-2.830613e+02
5.000000e-07	-5.994694e-06	-4.207539e-09	-4.338197e+01	-2.825685e+02
5.100000e-07	-5.971127e-06	-4.191780e-09	-4.321142e+01	-2.820815e+02
5.200000e-07	-5.947346e-06	-4.183998e-09	-4.303932e+01	-2.815967e+02
5.300000e-07	-5.923244e-06	-4.141466e-09	-4.286490e+01	-2.811105e+02
5.400000e-07	-5.898669e-06	-4.126827e-09	-4.268706e+01	-2.806194e+02
5.500000e-07	-5.873509e-06	-4.180923e-09	-4.250498e+01	-2.801203e+02
5.600000e-07	-5.847634e-06	-4.156452e-09	-4.231773e+01	-2.796103e+02
5.700000e-07	-5.821049e-06	-4.082638e-09	-4.212535e+01	-2.790869e+02
5.800000e-07	-5.793903e-06	-4.094259e-09	-4.192890e+01	-2.785479e+02
5.900000e-07	-5.766440e-06	-4.148008e-09	-4.173015e+01	-2.779915e+02
6.000000e-07	-5.738726e-06	-4.112998e-09	-4.152960e+01	-2.774162e+02
6.100000e-07	-5.710693e-06	-4.066763e-09	-4.132673e+01	-2.768210e+02
6.200000e-07	-5.682351e-06	-4.070687e-09	-4.112162e+01	-2.762053e+02
6.300000e-07	-5.653640e-06	-4.096938e-09	-4.091385e+01	-2.755687e+02
6.400000e-07	-5.624429e-06	-4.071609e-09	-4.070246e+01	-2.749113e+02
6.500000e-07	-5.594806e-06	-4.036366e-09	-4.048809e+01	-2.742334e+02
6.600000e-07	-5.564938e-06	-4.023721e-09	-4.027194e+01	-2.735356e+02
6.700000e-07	-5.534739e-06	-4.037254e-09	-4.005340e+01	-2.728186e+02
6.800000e-07	-5.504101e-06	-4.020162e-09	-3.983168e+01	-2.720834e+02
6.900000e-07	-5.472995e-06	-3.992602e-09	-3.960657e+01	-2.713310e+02
7.000000e-07	-5.441528e-06	-3.979824e-09	-3.937885e+01	-2.705628e+02
7.100000e-07	-5.409833e-06	-3.990574e-09	-3.914949e+01	-2.697797e+02
7.200000e-07	-5.377911e-06	-3.985546e-09	-3.891848e+01	-2.689831e+02
7.300000e-07	-5.345733e-06	-3.964480e-09	-3.868561e+01	-2.681739e+02
7.400000e-07	-5.313110e-06	-3.937973e-09	-3.844953e+01	-2.673534e+02
7.500000e-07	-5.279992e-06	-3.939707e-09	-3.820987e+01	-2.665223e+02
7.600000e-07	-5.246408e-06	-3.944375e-09	-3.796683e+01	-2.656815e+02
7.700000e-07	-5.212311e-06	-3.922418e-09	-3.772008e+01	-2.648316e+02
7.800000e-07	-5.177543e-06	-3.885624e-09	-3.746847e+01	-2.639731e+02
7.900000e-07	-5.142273e-06	-3.878497e-09	-3.721323e+01	-2.631063e+02
8.000000e-07	-5.106751e-06	-3.890535e-09	-3.695616e+01	-2.622313e+02
8.100000e-07	-5.070913e-06	-3.880421e-09	-3.669682e+01	-2.613481e+02
8.200000e-07	-5.034792e-06	-3.847521e-09	-3.643542e+01	-2.604565e+02
8.300000e-07	-4.998381e-06	-3.823961e-09	-3.617192e+01	-2.595561e+02
8.400000e-07	-4.961640e-06	-3.826215e-09	-3.590603e+01	-2.586466e+02
8.500000e-07	-4.924542e-06	-3.828141e-09	-3.563757e+01	-2.577275e+02
8.600000e-07	-4.887002e-06	-3.806152e-09	-3.536590e+01	-2.567980e+02
8.700000e-07	-4.849096e-06	-3.772025e-09	-3.509159e+01	-2.558577e+02
8.800000e-07	-4.810967e-06	-3.763746e-09	-3.481566e+01	-2.549057e+02
8.900000e-07	-4.772446e-06	-3.767488e-09	-3.453689e+01	-2.539416e+02
9.000000e-07	-4.733599e-06	-3.754667e-09	-3.425577e+01	-2.529645e+02
9.100000e-07	-4.694525e-06	-3.720638e-09	-3.397300e+01	-2.519741e+02
9.200000e-07	-4.655117e-06	-3.700615e-09	-3.368782e+01	-2.509696e+02
9.300000e-07	-4.615479e-06	-3.696305e-09	-3.340096e+01	-2.499506e+02
9.400000e-07	-4.575629e-06	-3.690861e-09	-3.311258e+01	-2.489168e+02
9.500000e-07	-4.535558e-06	-3.665988e-09	-3.282260e+01	-2.478678e+02
9.600000e-07	-4.495236e-06	-3.640482e-09	-3.253080e+01	-2.468035e+02
9.700000e-07	-4.454516e-06	-3.623745e-09	-3.223612e+01	-2.457236e+02
9.800000e-07	-4.413229e-06	-3.616226e-09	-3.193734e+01	-2.446281e+02
9.900000e-07	-4.371410e-06	-3.605205e-09	-3.163471e+01	-2.435171e+02
1.000000e-06	-4.329162e-06	-3.587304e-09	-3.132897e+01	-2.423905e+02
1.010000e-06	-4.286432e-06	-3.566571e-09	-3.101974e+01	-2.412485e+02
1.020000e-06	-4.243348e-06	-3.548706e-09	-3.070795e+01	-2.400911e+02
1.030000e-06	-4.200017e-06	-3.535036e-09	-3.039438e+01	-2.389186e+02
1.040000e-06	-4.156401e-06	-3.523118e-09	-3.007874e+01	-2.377310e+02
1.050000e-06	-4.112579e-06	-3.504606e-09	-2.976162e+01	-2.365283e+02
1.060000e-06	-4.068601e-06	-3.480546e-09	-2.944336e+01	-2.353107e+02
1.070000e-06	-4.024433e-06	-3.460659e-09	-2.912372e+01	-2.340782e+02
1.080000e-06	-3.979944e-06	-3.449453e-09	-2.880177e+01	-2.328306e+02
1.090000e-06	-3.935107e-06	-3.437291e-09	-2.847730e+01	-2.315678e+02
1.100000e-06	-3.890018e-06	-3.413398e-09	-2.815100e+01	-2.302896e+02
1.110000e-06	-3.844666e-06	-3.388601e-09	-2.782280e+01	-2.289957e+02
1.120000e-06	-3.799021e-06	-3.371571e-09	-2.749248e+01	-2.276856e+02
1.130000e-06	-3.753145e-06	-3.356335e-09	-2.716049e+01	-2.263591e+02
1.140000e-06	-3.706872e-06	-3.334014e-09	-2.682562e+01	-2.250154e+02
1.150000e-06	-3.660255e-06	-3.307813e-09	-2.648827e+01	-2.236541e+02
1.160000e-06	-3.613540e-06	-3.283420e-09	-2.615020e+01	-2.222745e+02
1.170000e-06	-3.566598e-06	-3.263631e-09	-2.581050e+01	-2.208759e+02
1.180000e-06	-3.519429e-06	-3.243824e-09	-2.546915e+01	-2.194576e+02
1.190000e-06	-3.472095e-06	-3.219835e-09	-2.512661e+01	-2.180191e+02
1.200000e-06	-3.424577e-06	-3.193077e-09	-2.478273e+01	-2.165595e+02
1.210000e-06	-3.376923e-06	-3.169373e-09	-2.443787e+01	-2.150784e+02
1.220000e-06	-3.329026e-06	-3.146647e-09	-2.409125e+01	-2.135751e+02
1.230000e-06	-3.280720e-06	-3.123695e-09	-2.374167e+01	-2.120491e+02
1.240000e-06	-3.232108e-06	-3.099917e-09	-2.338989e+01	-2.104999e+02
1.250000e-06	-3.183237e-06	-3.075521e-09	-2.303622e+01	-2.089273e+02
1.260000e-06	-3.134069e-06	-3.049742e-09	-2.268040e+01	-2.073310e+02
1.270000e-06	-3.084608e-06	-3.025400e-09	-2.232247e+01	-2.057109e+02
1.280000e-06	-3.034789e-06	-3.002857e-09	-2.196194e+01	-2.040668e+02
1.290000e-06	-2.984620e-06	-2.978886e-09	-2.159888e+01	-2.023989e+02
1.300000e-06	-2.934067e-06	-2.950332e-09	-2.123304e+01	-2.007073e+02
1.310000e-06	-2.883153e-06	-2.922888e-09	-2.086460e+01	-1.989921e+02
1.320000e-06	-2.832085e-06	-2.900402e-09	-2.049503e+01	-1.972539e+02
1.330000e-06	-2.780803e-06	-2.876087e-09	-2.012391e+01	-1.954928e+02
1.340000e-06	-2.729238e-06	-2.846321e-09	-1.975075e+01	-1.937093e+02
1.350000e-06	-2.677433e-06	-2.817320e-09	-1.937585e+01	-1.919040e+02
1.360000e-06	-2.625365e-06	-2.791137e-09	-1.899905e+01	-1.900772e+02
1.370000e-06	-2.573065e-06	-2.764897e-09	-1.862057e+01	-1.882294e+02
1.380000e-06	-2.520552e-06	-2.737204e-09	-1.824055e+01	-1.863611e+02
1.390000e-06	-2.467881e-06	-2.706424e-09	-1.785939e+01	-1.844727e+02
1.400000e-06	-2.415108e-06	-2.674699e-09	-1.747748e+01	-1.825646e+02
1.410000e-06	-2.362183e-06	-2.646399e-09	-1.709448e+01	-1.806370e+02
1.420000e-06	-2.309073e-06	-2.622195e-09	-1.671013e+01	-1.786902e+02
1.430000e-06	-2.255921e-06	-2.598134e-09	-1.632549e+01	-1.767242e+02
1.440000e-06	-2.202602e-06	-2.569902e-09	-1.593963e+01	-1.747392e+02
1.450000e-06	-2.149002e-06	-2.538351e-09	-1.555174e+01	-1.727351e+02
1.460000e-06	-2.095296e-06	-2.509577e-09	-1.516309e+01	-1.707116e+02
1.470000e-06	-2.041481e-06	-2.481983e-09	-1.477364e+01	-1.686686e+02
1.480000e-06	-1.987525e-06	-2.453510e-09	-1.438318e+01	-1.666057e+02
1.490000e-06	-1.933422e-06	-2.424252e-09	-1.399165e+01	-1.645224e+02
1.500000e-06	-1.879094e-06	-2.395868e-09	-1.359849e+01	-1.624183e+02
1.510000e-06	-1.824607e-06	-2.365872e-09	-1.320419e+01	-1.602927e+02
1.520000e-06	-1.770098e-06	-2.334416e-09	-1.280972e+01	-1.581451e+02
1.530000e-06	-1.715467e-06	-2.301879e-09	-1.241437e+01	-1.559747e+02
1.540000e-06	-1.660684e-06	-2.267899e-09	-1.201792e+01	-1.537809e+02
1.550000e-06	-1.605890e-06	-2.233591e-09	-1.162139e+01	-1.515630e+02
1.560000e-06	-1.551021e-06	-2.200805e-09	-1.122432e+01	-1.493204e+02
1.570000e-06	-1.495987e-06	-2.168705e-09	-1.082605e+01	-1.470523e+02
1.580000e-06	-1.440851e-06	-2.132860e-09	-1.042704e+01	-1.447582e+02
1.590000e-06	-1.385590e-06	-2.095070e-09	-1.002714e+01	-1.424376e+02
1.600000e-06	-1.330271e-06	-2.058488e-09	-9.626812e+00	-1.400900e+02
1.610000e-06	-1.274959e-06	-2.023055e-09	-9.226528e+00	-1.377149e+02
1.620000e-06	-1.219527e-06	-1.989107e-09	-8.825386e+00	-1.353120e+02
1.630000e-06	-1.163994e-06	-1.953783e-09	-8.423508e+00	-1.328810e+02
1.640000e-06	-1.108407e-06	-1.914365e-09	-8.021239e+00	-1.304218e+02
1.650000e-06	-1.052749e-06	-1.874592e-09	-7.618459e+00	-1.279343e+02
1.660000e-06	-9.970413e-07	-1.839193e-09	-7.215316e+00	-1.254184e+02
1.670000e-06	-9.413167e-07	-1.803942e-09	-6.812052e+00	-1.228742e+02
1.680000e-06	-8.856358e-07	-1.763321e-09	-6.409105e+00	-1.203018e+02
1.690000e-06	-8.299192e-07	-1.721402e-09	-6.005899e+00	-1.177012e+02
1.700000e-06	-7.741379e-07	-1.681239e-09	-5.602225e+00	-1.150727e+02
1.710000e-06	-7.183683e-07	-1.643243e-09	-5.198636e+00	-1.124164e+02
1.720000e-06	-6.626090e-07	-1.605073e-09	-4.795121e+00	-1.097325e+02
1.730000e-06	-6.067608e-07	-1.566665e-09	-4.390962e+00	-1.070212e+02
1.740000e-06	-5.508168e-07	-1.526597e-09	-3.986111e+00	-1.042827e+02
1.750000e-06	-4.949235e-07	-1.484302e-09	-3.581627e+00	-1.015171e+02
1.760000e-06	-4.390268e-07	-1.443408e-09	-3.177117e+00	-9.872446e+01
1.770000e-06	-3.830698e-07	-1.403326e-09	-2.772172e+00	-9.590480e+01
1.780000e-06	-3.270212e-07	-1.361348e-09	-2.366563e+00	-9.305809e+01
1.790000e-06	-2.709394e-07	-1.316436e-09	-1.960715e+00	-9.018422e+01
1.800000e-06	-2.149178e-07	-1.271625e-09	-1.555302e+00	-8.728301e+01
1.810000e-06	-1.589139e-07	-1.229580e-09	-1.150017e+00	-8.435421e+01
1.820000e-06	-1.028892e-07	-1.188309e-09	-7.445812e-01	-8.139749e+01
1.830000e-06	-4.681162e-08	-1.144931e-09	-3.387630e-01	-7.841244e+01
1.840000e-06	9.260141e-09	-1.100362e-09	6.701312e-02	-7.539860e+01
1.850000e-06	6.527608e-08	-1.056437e-09	4.723852e-01	-7.235545e+01
1.860000e-06	1.212459e-07	-1.012326e-09	8.774237e-01	-6.928240e+01
1.870000e-06	1.772432e-07	-9.677095e-10	1.282661e+00	-6.617883e+01
1.880000e-06	2.332750e-07	-9.217479e-10	1.688147e+00	-6.304411e+01
1.890000e-06	2.893184e-07	-8.752056e-10	2.093718e+00	-5.987758e+01
1.900000e-06	3.453880e-07	-8.302103e-10	2.499479e+00	-5.667856e+01
1.910000e-06	4.014698e-07	-7.866107e-10	2.905328e+00	-5.344641e+01
1.920000e-06	4.575029e-07	-7.450572e-10	3.310824e+00	-5.018049e+01
1.930000e-06	5.134433e-07	-7.005070e-10	3.715649e+00	-4.688022e+01
1.940000e-06	5.693102e-07	-6.512739e-10	4.119943e+00	-4.354505e+01
1.950000e-06	6.251490e-07	-6.034283e-10	4.524033e+00	-4.017452e+01
1.960000e-06	6.809647e-07	-5.562011e-10	4.927956e+00	-3.676822e+01
1.970000e-06	7.367391e-07	-5.057978e-10	5.331580e+00	-3.332583e+01
1.980000e-06	7.924823e-07	-4.532080e-10	5.734978e+00	-2.984714e+01
1.990000e-06	8.481632e-07	-4.026475e-10	6.137926e+00	-2.633204e+01
2.000000e-06	9.037951e-07	-3.549702e-10	6.540519e+00	-2.278051e+01
2.010000e-06	9.594255e-07	-3.057510e-10	6.943101e+00	-1.919267e+01
2.020000e-06	1.015016e-06	-2.539283e-10	7.345393e+00	-1.556875e+01
2.030000e-06	1.070545e-06	-2.022996e-10	7.747244e+00	-1.190912e+01
2.040000e-06	1.126006e-06	-1.521394e-10	8.148598e+00	-8.214269e+00
2.050000e-06	1.181323e-06	-1.008950e-10	8.548916e+00	-4.484818e+00
2.060000e-06	1.236562e-06	-4.527520e-11	8.948665e+00	-7.215262e-01
2.070000e-06	1.291751e-06	1.125175e-11	9.348052e+00	3.074712e+00
2.080000e-06	1.346906e-06	6.584046e-11	9.747195e+00	6.902867e+00
2.090000e-06	1.401987e-06	1.189174e-10	1.014580e+01	1.076177e+01
2.100000e-06	1.456946e-06	1.726859e-10	1.054352e+01	1.465012e+01
2.110000e-06	1.511806e-06	2.296394e-10	1.094053e+01	1.856648e+01
2.120000e-06	1.566618e-06	2.869695e-10	1.133719e+01	2.250926e+01
2.130000e-06	1.621448e-06	3.437527e-10	1.173398e+01	2.647676e+01
2.140000e-06	1.676156e-06	3.998317e-10	1.212988e+01	3.046713e+01
2.150000e-06	1.730664e-06	4.566710e-10	1.252435e+01	3.447839e+01
2.160000e-06	1.785023e-06	5.155935e-10	1.291772e+01	3.850845e+01
2.170000e-06	1.839239e-06	5.749231e-10	1.331007e+01	4.255507e+01
2.180000e-06	1.893443e-06	6.342120e-10	1.370233e+01	4.661591e+01
2.190000e-06	1.947589e-06	6.928942e-10	1.409417e+01	5.068850e+01
2.200000e-06	2.001541e-06	7.516873e-10	1.448461e+01	5.477027e+01
2.210000e-06	2.055400e-06	8.117766e-10	1.487437e+01	5.885856e+01
2.220000e-06	2.109081e-06	8.728357e-10	1.526285e+01	6.295061e+01
2.230000e-06	2.162567e-06	9.313727e-10	1.564991e+01	6.704358e+01
2.240000e-06	2.215878e-06	9.882654e-10	1.603570e+01	7.113460e+01
2.250000e-06	2.268966e-06	1.045504e-09	1.641989e+01	7.522069e+01
2.260000e-06	2.321918e-06	1.104593e-09	1.680309e+01	7.929891e+01
2.270000e-06	2.374700e-06	1.165369e-09	1.718506e+01	8.336624e+01
2.280000e-06	2.427267e-06	1.223629e-09	1.756547e+01	8.741970e+01
2.290000e-06	2.479679e-06	1.279777e-09	1.794476e+01	9.145634e+01
2.300000e-06	2.531990e-06	1.339222e-09	1.832332e+01	9.547322e+01
2.310000e-06	2.584087e-06	1.402856e-09	1.870033e+01	9.946749e+01
2.320000e-06	2.635894e-06	1.465147e-09	1.907525e+01	1.034364e+02
2.330000e-06	2.687492e-06	1.519761e-09	1.944865e+01	1.073772e+02
2.340000e-06	2.738839e-06	1.571787e-09	1.982023e+01	1.112875e+02
2.350000e-06	2.789933e-06	1.625413e-09	2.018999e+01	1.151648e+02
2.360000e-06	2.840837e-06	1.678980e-09	2.055836e+01	1.190068e+02
2.370000e-06	2.891373e-06	1.733937e-09	2.092408e+01	1.228116e+02
2.380000e-06	2.941569e-06	1.787011e-09	2.128733e+01	1.265772e+02
2.390000e-06	2.991481e-06	1.840965e-09	2.164853e+01	1.303020e+02
2.400000e-06	3.041019e-06	1.897474e-09	2.200702e+01	1.339844e+02
2.410000e-06	3.090304e-06	1.953515e-09	2.236369e+01	1.376232e+02
2.420000e-06	3.139299e-06	2.004695e-09	2.271825e+01	1.412174e+02
2.430000e-06	3.187948e-06	2.052725e-09	2.307031e+01	1.447659e+02
2.440000e-06	3.236313e-06	2.100652e-09	2.342032e+01	1.482682e+02
2.450000e-06	3.284424e-06	2.149108e-09	2.376848e+01	1.517238e+02
2.460000e-06	3.332318e-06	2.196327e-09	2.411508e+01	1.551323e+02
2.470000e-06	3.380051e-06	2.242798e-09	2.446051e+01	1.584935e+02
2.480000e-06	3.427613e-06	2.291329e-09	2.480470e+01	1.618074e+02
2.490000e-06	3.474946e-06	2.341825e-09	2.514724e+01	1.650741e+02
2.500000e-06	3.522032e-06	2.390096e-09	2.548798e+01	1.682937e+02
2.510000e-06	3.568812e-06	2.436520e-09	2.582652e+01	1.714666e+02
2.520000e-06	3.615357e-06	2.484215e-09	2.616335e+01	1.745929e+02
2.530000e-06	3.661702e-06	2.528905e-09	2.649874e+01	1.776730e+02
2.540000e-06	3.707800e-06	2.569936e-09	2.683234e+01	1.807073e+02
2.550000e-06	3.753682e-06	2.610126e-09	2.716438e+01	1.836962e+02
2.560000e-06	3.799321e-06	2.649262e-09	2.749465e+01	1.866398e+02
2.570000e-06	3.844721e-06	2.688137e-09	2.782320e+01	1.895386e+02
2.580000e-06	3.889881e-06	2.728162e-09	2.815001e+01	1.923928e+02
2.590000e-06	3.934709e-06	2.769092e-09	2.847442e+01	1.952025e+02
2.600000e-06	3.979277e-06	2.811892e-09	2.879694e+01	1.979679e+02
2.610000e-06	4.023654e-06	2.853509e-09	2.911808e+01	2.006891e+02
2.620000e-06	4.067820e-06	2.891897e-09	2.943771e+01	2.033661e+02
2.630000e-06	4.111796e-06	2.927606e-09	2.975595e+01	2.059989e+02
2.640000e-06	4.155529e-06	2.962139e-09	3.007243e+01	2.085873e+02
2.650000e-06	4.199027e-06	2.996031e-09	3.038721e+01	2.111314e+02
2.660000e-06	4.242287e-06	3.028558e-09	3.070028e+01	2.136311e+02
2.670000e-06	4.285099e-06	3.061743e-09	3.101009e+01	2.160862e+02
2.680000e-06	4.327401e-06	3.095500e-09	3.131622e+01	2.184967e+02
2.690000e-06	4.369278e-06	3.127772e-09	3.161928e+01	2.208626e+02
2.700000e-06	4.410774e-06	3.159083e-09	3.191957e+01	2.231838e+02
2.710000e-06	4.451831e-06	3.190125e-09	3.221669e+01	2.254606e+02
2.720000e-06	4.492392e-06	3.223206e-09	3.251021e+01	2.276931e+02
2.730000e-06	4.532646e-06	3.252868e-09	3.280153e+01	2.298815e+02
2.740000e-06	4.572691e-06	3.280236e-09	3.309132e+01	2.320263e+02
2.750000e-06	4.612494e-06	3.308667e-09	3.337936e+01	2.341281e+02
2.760000e-06	4.652042e-06	3.337611e-09	3.366556e+01	2.361873e+02
2.770000e-06	4.691275e-06	3.365319e-09	3.394948e+01	2.382049e+02
2.780000e-06	4.730263e-06	3.391812e-09	3.423163e+01	2.401817e+02
2.790000e-06	4.768988e-06	3.418862e-09	3.451187e+01	2.421186e+02
2.800000e-06	4.807284e-06	3.446670e-09	3.478900e+01	2.440168e+02
2.810000e-06	4.845181e-06	3.472889e-09	3.506326e+01	2.458773e+02
2.820000e-06	4.882752e-06	3.497238e-09	3.533515e+01	2.477015e+02
2.830000e-06	4.919967e-06	3.521775e-09	3.560446e+01	2.494905e+02
2.840000e-06	4.956855e-06	3.547878e-09	3.587141e+01	2.512456e+02
2.850000e-06	4.993442e-06	3.574855e-09	3.613618e+01	2.529681e+02
2.860000e-06	5.029737e-06	3.597640e-09	3.639883e+01	2.546592e+02
2.870000e-06	5.065807e-06	3.618625e-09	3.665987e+01	2.563199e+02
2.880000e-06	5.101641e-06	3.641400e-09	3.691918e+01	2.579515e+02
2.890000e-06	5.137194e-06	3.665226e-09	3.717648e+01	2.595548e+02
2.900000e-06	5.172422e-06	3.689146e-09	3.743141e+01	2.611307e+02
