# Temperatura_=_20.0
# Concentracion g/m^3_=_9000.0
# C_Vs_to_Am_M_A/Vsm_=_65563218390.804596
# pendiente_HvsI_1/m_=_3716.3
# ordenada_HvsI_A/m_=_1297.0
# frecuencia_Hz_=_135104.48335916296

Tiempo_(s)	Campo_(V.s)	Magnetizacion_(V.s)	Campo_(kA/m)	Magnetizacion_(A/m)
0.000000e+00	-5.185139e-06	-3.895205e-09	-3.837423e+01	-2.541845e+02
1.000000e-08	-5.185162e-06	-3.896081e-09	-3.837440e+01	-2.541605e+02
2.000000e-08	-5.184988e-06	-3.898755e-09	-3.837311e+01	-2.541275e+02
3.000000e-08	-5.184451e-06	-3.901595e-09	-3.836913e+01	-2.540854e+02
4.000000e-08	-5.183445e-06	-3.902045e-09	-3.836169e+01	-2.540344e+02
5.000000e-08	-5.182001e-06	-3.900333e-09	-3.835100e+01	-2.539746e+02
6.000000e-08	-5.179982e-06	-3.910630e-09	-3.833606e+01	-2.539063e+02
7.000000e-08	-5.177275e-06	-3.943715e-09	-3.831603e+01	-2.538299e+02
8.000000e-08	-5.174028e-06	-3.943817e-09	-3.829200e+01	-2.537456e+02
9.000000e-08	-5.170380e-06	-3.854818e-09	-3.826500e+01	-2.536539e+02
1.000000e-07	-5.166382e-06	-3.802291e-09	-3.823541e+01	-2.535554e+02
1.100000e-07	-5.162107e-06	-3.887017e-09	-3.820377e+01	-2.534506e+02
1.200000e-07	-5.157522e-06	-4.020802e-09	-3.816984e+01	-2.533403e+02
1.300000e-07	-5.152652e-06	-3.959783e-09	-3.813380e+01	-2.532249e+02
1.400000e-07	-5.147518e-06	-3.793984e-09	-3.809580e+01	-2.531054e+02
1.500000e-07	-5.142010e-06	-3.771813e-09	-3.805504e+01	-2.529824e+02
1.600000e-07	-5.136170e-06	-3.946856e-09	-3.801182e+01	-2.528568e+02
1.700000e-07	-5.130045e-06	-4.054866e-09	-3.796649e+01	-2.527295e+02
1.800000e-07	-5.123595e-06	-3.955209e-09	-3.791875e+01	-2.526012e+02
1.900000e-07	-5.116781e-06	-3.813420e-09	-3.786833e+01	-2.524728e+02
2.000000e-07	-5.109653e-06	-3.829494e-09	-3.781557e+01	-2.523452e+02
2.100000e-07	-5.102196e-06	-3.963397e-09	-3.776038e+01	-2.522192e+02
2.200000e-07	-5.094450e-06	-3.962982e-09	-3.770306e+01	-2.520956e+02
2.300000e-07	-5.086402e-06	-3.812687e-09	-3.764350e+01	-2.519751e+02
2.400000e-07	-5.077890e-06	-3.698535e-09	-3.758050e+01	-2.518584e+02
2.500000e-07	-5.069041e-06	-3.804991e-09	-3.751501e+01	-2.517462e+02
2.600000e-07	-5.059779e-06	-3.877655e-09	-3.744646e+01	-2.516391e+02
2.700000e-07	-5.049919e-06	-3.738864e-09	-3.737349e+01	-2.515376e+02
2.800000e-07	-5.039626e-06	-3.575201e-09	-3.729731e+01	-2.514421e+02
2.900000e-07	-5.028807e-06	-3.688516e-09	-3.721724e+01	-2.513528e+02
3.000000e-07	-5.017387e-06	-3.835353e-09	-3.713273e+01	-2.512701e+02
3.100000e-07	-5.005571e-06	-3.751012e-09	-3.704528e+01	-2.511939e+02
3.200000e-07	-4.993359e-06	-3.611288e-09	-3.695490e+01	-2.511244e+02
3.300000e-07	-4.980819e-06	-3.700603e-09	-3.686209e+01	-2.510613e+02
3.400000e-07	-4.967952e-06	-3.845242e-09	-3.676687e+01	-2.510043e+02
3.500000e-07	-4.954660e-06	-3.817502e-09	-3.666849e+01	-2.509532e+02
3.600000e-07	-4.941014e-06	-3.715419e-09	-3.656751e+01	-2.509074e+02
3.700000e-07	-4.927057e-06	-3.677385e-09	-3.646421e+01	-2.508662e+02
3.800000e-07	-4.912654e-06	-3.722094e-09	-3.635762e+01	-2.508290e+02
3.900000e-07	-4.897794e-06	-3.802285e-09	-3.624765e+01	-2.507949e+02
4.000000e-07	-4.882429e-06	-3.811316e-09	-3.613393e+01	-2.507629e+02
4.100000e-07	-4.866430e-06	-3.691164e-09	-3.601552e+01	-2.507319e+02
4.200000e-07	-4.850025e-06	-3.654007e-09	-3.589411e+01	-2.507009e+02
4.300000e-07	-4.833294e-06	-3.801720e-09	-3.577029e+01	-2.506685e+02
4.400000e-07	-4.816189e-06	-3.867063e-09	-3.564370e+01	-2.506334e+02
4.500000e-07	-4.798790e-06	-3.706749e-09	-3.551493e+01	-2.505942e+02
4.600000e-07	-4.781070e-06	-3.655681e-09	-3.538379e+01	-2.505497e+02
4.700000e-07	-4.763099e-06	-3.806853e-09	-3.525079e+01	-2.504982e+02
4.800000e-07	-4.744869e-06	-3.863153e-09	-3.511587e+01	-2.504383e+02
4.900000e-07	-4.726252e-06	-3.724636e-09	-3.497809e+01	-2.503685e+02
5.000000e-07	-4.707252e-06	-3.684477e-09	-3.483748e+01	-2.502874e+02
5.100000e-07	-4.687877e-06	-3.776649e-09	-3.469409e+01	-2.501934e+02
5.200000e-07	-4.668232e-06	-3.818999e-09	-3.454869e+01	-2.500853e+02
5.300000e-07	-4.648386e-06	-3.751727e-09	-3.440182e+01	-2.499616e+02
5.400000e-07	-4.628369e-06	-3.706510e-09	-3.425368e+01	-2.498211e+02
5.500000e-07	-4.608129e-06	-3.715689e-09	-3.410389e+01	-2.496624e+02
5.600000e-07	-4.587694e-06	-3.760974e-09	-3.395265e+01	-2.494846e+02
5.700000e-07	-4.567022e-06	-3.776142e-09	-3.379966e+01	-2.492866e+02
5.800000e-07	-4.545897e-06	-3.728526e-09	-3.364332e+01	-2.490675e+02
5.900000e-07	-4.524375e-06	-3.673610e-09	-3.348404e+01	-2.488266e+02
6.000000e-07	-4.502588e-06	-3.707081e-09	-3.332280e+01	-2.485632e+02
6.100000e-07	-4.480537e-06	-3.761918e-09	-3.315960e+01	-2.482768e+02
6.200000e-07	-4.458207e-06	-3.723230e-09	-3.299434e+01	-2.479670e+02
6.300000e-07	-4.435573e-06	-3.653041e-09	-3.282683e+01	-2.476338e+02
6.400000e-07	-4.412623e-06	-3.671464e-09	-3.265698e+01	-2.472770e+02
6.500000e-07	-4.389401e-06	-3.729048e-09	-3.248512e+01	-2.468967e+02
6.600000e-07	-4.365895e-06	-3.707966e-09	-3.231116e+01	-2.464933e+02
6.700000e-07	-4.342122e-06	-3.649442e-09	-3.213522e+01	-2.460672e+02
6.800000e-07	-4.318067e-06	-3.642211e-09	-3.195719e+01	-2.456188e+02
6.900000e-07	-4.293749e-06	-3.677038e-09	-3.177722e+01	-2.451490e+02
7.000000e-07	-4.269165e-06	-3.675239e-09	-3.159528e+01	-2.446585e+02
7.100000e-07	-4.244161e-06	-3.641219e-09	-3.141023e+01	-2.441483e+02
7.200000e-07	-4.218768e-06	-3.619543e-09	-3.122230e+01	-2.436194e+02
7.300000e-07	-4.192984e-06	-3.634953e-09	-3.103148e+01	-2.430730e+02
7.400000e-07	-4.166628e-06	-3.646662e-09	-3.083642e+01	-2.425104e+02
7.500000e-07	-4.139725e-06	-3.632579e-09	-3.063732e+01	-2.419328e+02
7.600000e-07	-4.112553e-06	-3.599399e-09	-3.043622e+01	-2.413416e+02
7.700000e-07	-4.085155e-06	-3.592304e-09	-3.023346e+01	-2.407381e+02
7.800000e-07	-4.057443e-06	-3.605389e-09	-3.002837e+01	-2.401239e+02
7.900000e-07	-4.029539e-06	-3.604601e-09	-2.982185e+01	-2.395003e+02
8.000000e-07	-4.001453e-06	-3.570977e-09	-2.961399e+01	-2.388687e+02
8.100000e-07	-3.973181e-06	-3.552785e-09	-2.940476e+01	-2.382305e+02
8.200000e-07	-3.944744e-06	-3.568806e-09	-2.919430e+01	-2.375870e+02
8.300000e-07	-3.916049e-06	-3.577299e-09	-2.898193e+01	-2.369394e+02
8.400000e-07	-3.887027e-06	-3.549069e-09	-2.876715e+01	-2.362889e+02
8.500000e-07	-3.857680e-06	-3.524857e-09	-2.854996e+01	-2.356366e+02
8.600000e-07	-3.828057e-06	-3.531382e-09	-2.833072e+01	-2.349834e+02
8.700000e-07	-3.798183e-06	-3.538847e-09	-2.810963e+01	-2.343302e+02
8.800000e-07	-3.768040e-06	-3.517693e-09	-2.788655e+01	-2.336777e+02
8.900000e-07	-3.737647e-06	-3.489818e-09	-2.766161e+01	-2.330263e+02
9.000000e-07	-3.707105e-06	-3.482470e-09	-2.743558e+01	-2.323766e+02
9.100000e-07	-3.676367e-06	-3.483389e-09	-2.720810e+01	-2.317287e+02
9.200000e-07	-3.645252e-06	-3.472093e-09	-2.697782e+01	-2.310828e+02
9.300000e-07	-3.613861e-06	-3.450692e-09	-2.674550e+01	-2.304387e+02
9.400000e-07	-3.582306e-06	-3.438593e-09	-2.651197e+01	-2.297961e+02
9.500000e-07	-3.550569e-06	-3.438397e-09	-2.627708e+01	-2.291547e+02
9.600000e-07	-3.518663e-06	-3.436068e-09	-2.604096e+01	-2.285139e+02
9.700000e-07	-3.486554e-06	-3.418039e-09	-2.580332e+01	-2.278728e+02
9.800000e-07	-3.454217e-06	-3.400043e-09	-2.556400e+01	-2.272306e+02
9.900000e-07	-3.421653e-06	-3.391558e-09	-2.532301e+01	-2.265863e+02
1.000000e-06	-3.388851e-06	-3.388922e-09	-2.508024e+01	-2.259387e+02
1.010000e-06	-3.355822e-06	-3.374182e-09	-2.483580e+01	-2.252864e+02
1.020000e-06	-3.322500e-06	-3.353748e-09	-2.458919e+01	-2.246281e+02
1.030000e-06	-3.288719e-06	-3.341756e-09	-2.433918e+01	-2.239624e+02
1.040000e-06	-3.254457e-06	-3.339462e-09	-2.408562e+01	-2.232875e+02
1.050000e-06	-3.219767e-06	-3.329900e-09	-2.382888e+01	-2.226019e+02
1.060000e-06	-3.184683e-06	-3.312502e-09	-2.356924e+01	-2.219040e+02
1.070000e-06	-3.149309e-06	-3.300260e-09	-2.330743e+01	-2.211921e+02
1.080000e-06	-3.113744e-06	-3.296755e-09	-2.304422e+01	-2.204644e+02
1.090000e-06	-3.078020e-06	-3.288886e-09	-2.277984e+01	-2.197193e+02
1.100000e-06	-3.042177e-06	-3.274396e-09	-2.251457e+01	-2.189552e+02
1.110000e-06	-3.006236e-06	-3.258866e-09	-2.224858e+01	-2.181704e+02
1.120000e-06	-2.970217e-06	-3.248243e-09	-2.198201e+01	-2.173635e+02
1.130000e-06	-2.934094e-06	-3.238741e-09	-2.171467e+01	-2.165329e+02
1.140000e-06	-2.897714e-06	-3.225800e-09	-2.144543e+01	-2.156775e+02
1.150000e-06	-2.861103e-06	-3.209594e-09	-2.117448e+01	-2.147959e+02
1.160000e-06	-2.824432e-06	-3.194788e-09	-2.090308e+01	-2.138871e+02
1.170000e-06	-2.787585e-06	-3.185157e-09	-2.063039e+01	-2.129501e+02
1.180000e-06	-2.750435e-06	-3.171600e-09	-2.035545e+01	-2.119841e+02
1.190000e-06	-2.713108e-06	-3.150324e-09	-2.007920e+01	-2.109885e+02
1.200000e-06	-2.675605e-06	-3.130340e-09	-1.980164e+01	-2.099626e+02
1.210000e-06	-2.637812e-06	-3.115774e-09	-1.952194e+01	-2.089063e+02
1.220000e-06	-2.599811e-06	-3.102185e-09	-1.924070e+01	-2.078193e+02
1.230000e-06	-2.561639e-06	-3.084450e-09	-1.895821e+01	-2.067016e+02
1.240000e-06	-2.523316e-06	-3.063787e-09	-1.867458e+01	-2.055533e+02
1.250000e-06	-2.484815e-06	-3.046979e-09	-1.838964e+01	-2.043747e+02
1.260000e-06	-2.446167e-06	-3.032003e-09	-1.810362e+01	-2.031662e+02
1.270000e-06	-2.407364e-06	-3.015526e-09	-1.781644e+01	-2.019284e+02
1.280000e-06	-2.368353e-06	-2.995944e-09	-1.752773e+01	-2.006618e+02
1.290000e-06	-2.329127e-06	-2.976718e-09	-1.723743e+01	-1.993673e+02
1.300000e-06	-2.289722e-06	-2.957710e-09	-1.694580e+01	-1.980457e+02
1.310000e-06	-2.250225e-06	-2.941034e-09	-1.665349e+01	-1.966978e+02
1.320000e-06	-2.210587e-06	-2.921940e-09	-1.636013e+01	-1.953247e+02
1.330000e-06	-2.170849e-06	-2.896954e-09	-1.606604e+01	-1.939272e+02
1.340000e-06	-2.131049e-06	-2.871991e-09	-1.577149e+01	-1.925063e+02
1.350000e-06	-2.091164e-06	-2.854415e-09	-1.547630e+01	-1.910628e+02
1.360000e-06	-2.051186e-06	-2.837854e-09	-1.518044e+01	-1.895978e+02
1.370000e-06	-2.011101e-06	-2.813975e-09	-1.488377e+01	-1.881120e+02
1.380000e-06	-1.970951e-06	-2.787209e-09	-1.458664e+01	-1.866060e+02
1.390000e-06	-1.930712e-06	-2.764561e-09	-1.428883e+01	-1.850805e+02
1.400000e-06	-1.890292e-06	-2.742314e-09	-1.398969e+01	-1.835360e+02
1.410000e-06	-1.849697e-06	-2.716173e-09	-1.368925e+01	-1.819725e+02
1.420000e-06	-1.808943e-06	-2.688839e-09	-1.338764e+01	-1.803904e+02
1.430000e-06	-1.768076e-06	-2.665545e-09	-1.308519e+01	-1.787894e+02
1.440000e-06	-1.727126e-06	-2.643519e-09	-1.278213e+01	-1.771691e+02
1.450000e-06	-1.686058e-06	-2.618735e-09	-1.247819e+01	-1.755292e+02
1.460000e-06	-1.644734e-06	-2.591179e-09	-1.217236e+01	-1.738686e+02
1.470000e-06	-1.603102e-06	-2.563411e-09	-1.186426e+01	-1.721864e+02
1.480000e-06	-1.561152e-06	-2.536516e-09	-1.155379e+01	-1.704811e+02
1.490000e-06	-1.519002e-06	-2.509467e-09	-1.124184e+01	-1.687512e+02
1.500000e-06	-1.476787e-06	-2.480405e-09	-1.092942e+01	-1.669948e+02
1.510000e-06	-1.434432e-06	-2.450089e-09	-1.061596e+01	-1.652097e+02
1.520000e-06	-1.391890e-06	-2.423252e-09	-1.030111e+01	-1.633934e+02
1.530000e-06	-1.349225e-06	-2.398983e-09	-9.985355e+00	-1.615434e+02
1.540000e-06	-1.306330e-06	-2.373595e-09	-9.667901e+00	-1.596567e+02
1.550000e-06	-1.263193e-06	-2.343296e-09	-9.348648e+00	-1.577300e+02
1.560000e-06	-1.219964e-06	-2.310024e-09	-9.028720e+00	-1.557601e+02
1.570000e-06	-1.176681e-06	-2.276081e-09	-8.708392e+00	-1.537433e+02
1.580000e-06	-1.133397e-06	-2.242550e-09	-8.388058e+00	-1.516759e+02
1.590000e-06	-1.090015e-06	-2.205708e-09	-8.066993e+00	-1.495539e+02
1.600000e-06	-1.046541e-06	-2.169045e-09	-7.745253e+00	-1.473735e+02
1.610000e-06	-1.002971e-06	-2.135093e-09	-7.422798e+00	-1.451304e+02
1.620000e-06	-9.592634e-07	-2.100677e-09	-7.099326e+00	-1.428205e+02
1.630000e-06	-9.155181e-07	-2.064469e-09	-6.775576e+00	-1.404396e+02
1.640000e-06	-8.717434e-07	-2.027229e-09	-6.451607e+00	-1.379835e+02
1.650000e-06	-8.279135e-07	-1.990704e-09	-6.127230e+00	-1.354482e+02
1.660000e-06	-7.840744e-07	-1.952291e-09	-5.802786e+00	-1.328295e+02
1.670000e-06	-7.402736e-07	-1.912095e-09	-5.478624e+00	-1.301236e+02
1.680000e-06	-6.964666e-07	-1.871686e-09	-5.154417e+00	-1.273267e+02
1.690000e-06	-6.525758e-07	-1.832506e-09	-4.829589e+00	-1.244353e+02
1.700000e-06	-6.086591e-07	-1.793677e-09	-4.504570e+00	-1.214461e+02
1.710000e-06	-5.647616e-07	-1.752115e-09	-4.179693e+00	-1.183560e+02
1.720000e-06	-5.208573e-07	-1.709097e-09	-3.854766e+00	-1.151624e+02
1.730000e-06	-4.769203e-07	-1.665193e-09	-3.529597e+00	-1.118628e+02
1.740000e-06	-4.329582e-07	-1.619034e-09	-3.204242e+00	-1.084554e+02
1.750000e-06	-3.889916e-07	-1.566840e-09	-2.878853e+00	-1.049384e+02
1.760000e-06	-3.450108e-07	-1.512656e-09	-2.553359e+00	-1.013108e+02
1.770000e-06	-3.010096e-07	-1.459377e-09	-2.227715e+00	-9.757183e+01
1.780000e-06	-2.569912e-07	-1.405311e-09	-1.901943e+00	-9.372130e+01
1.790000e-06	-2.129121e-07	-1.347229e-09	-1.575722e+00	-8.975947e+01
1.800000e-06	-1.687742e-07	-1.286203e-09	-1.249066e+00	-8.568712e+01
1.810000e-06	-1.246582e-07	-1.225278e-09	-9.225718e-01	-8.150554e+01
1.820000e-06	-8.060728e-08	-1.166678e-09	-5.965591e-01	-7.721656e+01
1.830000e-06	-3.661493e-08	-1.107203e-09	-2.709801e-01	-7.282251e+01
1.840000e-06	7.382519e-09	-1.041767e-09	5.463662e-02	-6.832626e+01
1.850000e-06	5.141564e-08	-9.726114e-10	3.805174e-01	-6.373119e+01
1.860000e-06	9.544859e-08	-9.004652e-10	7.063969e-01	-5.904118e+01
1.870000e-06	1.395048e-07	-8.283259e-10	1.032448e+00	-5.426063e+01
1.880000e-06	1.835796e-07	-7.557583e-10	1.358638e+00	-4.939438e+01
1.890000e-06	2.276174e-07	-6.780918e-10	1.684553e+00	-4.444773e+01
1.900000e-06	2.716159e-07	-5.957181e-10	2.010178e+00	-3.942643e+01
1.910000e-06	3.156028e-07	-5.185047e-10	2.335716e+00	-3.433661e+01
1.920000e-06	3.595833e-07	-4.456387e-10	2.661208e+00	-2.918477e+01
1.930000e-06	4.035519e-07	-3.671937e-10	2.986611e+00	-2.397774e+01
1.940000e-06	4.475818e-07	-2.843118e-10	3.312468e+00	-1.872265e+01
1.950000e-06	4.915852e-07	-2.042339e-10	3.638128e+00	-1.342691e+01
1.960000e-06	5.355059e-07	-1.240086e-10	3.963177e+00	-8.098098e+00
1.970000e-06	5.794182e-07	-4.044798e-11	4.288164e+00	-2.744004e+00
1.980000e-06	6.233222e-07	4.525615e-11	4.613089e+00	2.627468e+00
1.990000e-06	6.672369e-07	1.300783e-10	4.938094e+00	8.008331e+00
2.000000e-06	7.111563e-07	2.138364e-10	5.263132e+00	1.339056e+01
2.010000e-06	7.550626e-07	2.968182e-10	5.588075e+00	1.876612e+01
2.020000e-06	7.989372e-07	3.814229e-10	5.912782e+00	2.412707e+01
2.030000e-06	8.427437e-07	4.639204e-10	6.236986e+00	2.946552e+01
2.040000e-06	8.865168e-07	5.443091e-10	6.560942e+00	3.477374e+01
2.050000e-06	9.303041e-07	6.269286e-10	6.885004e+00	4.004420e+01
2.060000e-06	9.740783e-07	7.097402e-10	7.208968e+00	4.526957e+01
2.070000e-06	1.017773e-06	7.921552e-10	7.532345e+00	5.044279e+01
2.080000e-06	1.061357e-06	8.742673e-10	7.854902e+00	5.555710e+01
2.090000e-06	1.104889e-06	9.550932e-10	8.177072e+00	6.060607e+01
2.100000e-06	1.148343e-06	1.031439e-09	8.498667e+00	6.558365e+01
2.110000e-06	1.191626e-06	1.103700e-09	8.818995e+00	7.048415e+01
2.120000e-06	1.234786e-06	1.173843e-09	9.138416e+00	7.530233e+01
2.130000e-06	1.277842e-06	1.241684e-09	9.457065e+00	8.003335e+01
2.140000e-06	1.320700e-06	1.306520e-09	9.774246e+00	8.467286e+01
2.150000e-06	1.363452e-06	1.372526e-09	1.009065e+01	8.921696e+01
2.160000e-06	1.406134e-06	1.438274e-09	1.040653e+01	9.366222e+01
2.170000e-06	1.448594e-06	1.498800e-09	1.072077e+01	9.800571e+01
2.180000e-06	1.490863e-06	1.556030e-09	1.103360e+01	1.022450e+02
2.190000e-06	1.532912e-06	1.614646e-09	1.134479e+01	1.063781e+02
2.200000e-06	1.574786e-06	1.672230e-09	1.165469e+01	1.104035e+02
2.210000e-06	1.616544e-06	1.725094e-09	1.196373e+01	1.143203e+02
2.220000e-06	1.658035e-06	1.774031e-09	1.227080e+01	1.181279e+02
2.230000e-06	1.699238e-06	1.822105e-09	1.257573e+01	1.218261e+02
2.240000e-06	1.740201e-06	1.870947e-09	1.287890e+01	1.254154e+02
2.250000e-06	1.780979e-06	1.919839e-09	1.318069e+01	1.288965e+02
2.260000e-06	1.821613e-06	1.966727e-09	1.348141e+01	1.322705e+02
2.270000e-06	1.862126e-06	2.011884e-09	1.378124e+01	1.355390e+02
2.280000e-06	1.902521e-06	2.054746e-09	1.408019e+01	1.387037e+02
2.290000e-06	1.942835e-06	2.096635e-09	1.437856e+01	1.417667e+02
2.300000e-06	1.983068e-06	2.137571e-09	1.467631e+01	1.447307e+02
2.310000e-06	2.023166e-06	2.177343e-09	1.497307e+01	1.475981e+02
2.320000e-06	2.063162e-06	2.215451e-09	1.526907e+01	1.503718e+02
2.330000e-06	2.103064e-06	2.251664e-09	1.556438e+01	1.530551e+02
2.340000e-06	2.142893e-06	2.286998e-09	1.585914e+01	1.556510e+02
2.350000e-06	2.182677e-06	2.323683e-09	1.615358e+01	1.581629e+02
2.360000e-06	2.222334e-06	2.361213e-09	1.644707e+01	1.605943e+02
2.370000e-06	2.261820e-06	2.398408e-09	1.673930e+01	1.629486e+02
2.380000e-06	2.301183e-06	2.434570e-09	1.703062e+01	1.652293e+02
2.390000e-06	2.340388e-06	2.468249e-09	1.732077e+01	1.674400e+02
2.400000e-06	2.379322e-06	2.499222e-09	1.760891e+01	1.695842e+02
2.410000e-06	2.418008e-06	2.528752e-09	1.789522e+01	1.716653e+02
2.420000e-06	2.456596e-06	2.558114e-09	1.818080e+01	1.736866e+02
2.430000e-06	2.495005e-06	2.587274e-09	1.846506e+01	1.756514e+02
2.440000e-06	2.533305e-06	2.618084e-09	1.874851e+01	1.775629e+02
2.450000e-06	2.571516e-06	2.648653e-09	1.903130e+01	1.794240e+02
2.460000e-06	2.609523e-06	2.676689e-09	1.931258e+01	1.812377e+02
2.470000e-06	2.647404e-06	2.704273e-09	1.959293e+01	1.830066e+02
2.480000e-06	2.685071e-06	2.733573e-09	1.987170e+01	1.847332e+02
2.490000e-06	2.722518e-06	2.761696e-09	2.014884e+01	1.864199e+02
2.500000e-06	2.759771e-06	2.785566e-09	2.042454e+01	1.880689e+02
2.510000e-06	2.796741e-06	2.808311e-09	2.069815e+01	1.896822e+02
2.520000e-06	2.833482e-06	2.832534e-09	2.097006e+01	1.912614e+02
2.530000e-06	2.870038e-06	2.855748e-09	2.124060e+01	1.928083e+02
2.540000e-06	2.906397e-06	2.879726e-09	2.150969e+01	1.943243e+02
2.550000e-06	2.942643e-06	2.903605e-09	2.177794e+01	1.958105e+02
2.560000e-06	2.978805e-06	2.927357e-09	2.204557e+01	1.972681e+02
2.570000e-06	3.014860e-06	2.950870e-09	2.231240e+01	1.986980e+02
2.580000e-06	3.050843e-06	2.974158e-09	2.257871e+01	2.001009e+02
2.590000e-06	3.086711e-06	2.994746e-09	2.284416e+01	2.014775e+02
2.600000e-06	3.122418e-06	3.014837e-09	2.310842e+01	2.028282e+02
2.610000e-06	3.157948e-06	3.035209e-09	2.337137e+01	2.041535e+02
2.620000e-06	3.193238e-06	3.055764e-09	2.363255e+01	2.054536e+02
2.630000e-06	3.228200e-06	3.073224e-09	2.389130e+01	2.067287e+02
2.640000e-06	3.262747e-06	3.088931e-09	2.414697e+01	2.079789e+02
2.650000e-06	3.296868e-06	3.105959e-09	2.439949e+01	2.092043e+02
2.660000e-06	3.330549e-06	3.124618e-09	2.464876e+01	2.104049e+02
2.670000e-06	3.363849e-06	3.142790e-09	2.489521e+01	2.115806e+02
2.680000e-06	3.396771e-06	3.159958e-09	2.513886e+01	2.127315e+02
2.690000e-06	3.429315e-06	3.177245e-09	2.537971e+01	2.138576e+02
2.700000e-06	3.461669e-06	3.193611e-09	2.561915e+01	2.149587e+02
2.710000e-06	3.493878e-06	3.207616e-09	2.585753e+01	2.160349e+02
2.720000e-06	3.525903e-06	3.219382e-09	2.609454e+01	2.170861e+02
2.730000e-06	3.557811e-06	3.233149e-09	2.633069e+01	2.181126e+02
2.740000e-06	3.589535e-06	3.248852e-09	2.656546e+01	2.191142e+02
2.750000e-06	3.621049e-06	3.264041e-09	2.679870e+01	2.200912e+02
2.760000e-06	3.652386e-06	3.277667e-09	2.703061e+01	2.210438e+02
2.770000e-06	3.683411e-06	3.291359e-09	2.726022e+01	2.219723e+02
2.780000e-06	3.714140e-06	3.305505e-09	2.748764e+01	2.228768e+02
2.790000e-06	3.744599e-06	3.318900e-09	2.771306e+01	2.237579e+02
2.800000e-06	3.774778e-06	3.332115e-09	2.793642e+01	2.246159e+02
2.810000e-06	3.804765e-06	3.346615e-09	2.815834e+01	2.254514e+02
2.820000e-06	3.834561e-06	3.359186e-09	2.837886e+01	2.262649e+02
2.830000e-06	3.864174e-06	3.372126e-09	2.859801e+01	2.270569e+02
2.840000e-06	3.893544e-06	3.386201e-09	2.881538e+01	2.278282e+02
2.850000e-06	3.922532e-06	3.399249e-09	2.902991e+01	2.285795e+02
2.860000e-06	3.951131e-06	3.410694e-09	2.924157e+01	2.293113e+02
2.870000e-06	3.979513e-06	3.423377e-09	2.945162e+01	2.300246e+02
2.880000e-06	4.007739e-06	3.436189e-09	2.966052e+01	2.307201e+02
2.890000e-06	4.035773e-06	3.447173e-09	2.986799e+01	2.313985e+02
2.900000e-06	4.063675e-06	3.454724e-09	3.007448e+01	2.320607e+02
