# Temperatura_=_20.0
# Concentracion g/m^3_=_9000.0
# C_Vs_to_Am_M_A/Vsm_=_65563218390.804596
# pendiente_HvsI_1/m_=_3716.3
# ordenada_HvsI_A/m_=_1297.0
# frecuencia_Hz_=_135106.11640160164

Tiempo_(s)	Campo_(V.s)	Magnetizacion_(V.s)	Campo_(kA/m)	Magnetizacion_(A/m)
0.000000e+00	-5.189864e-06	-3.930919e-09	-3.837481e+01	-2.560975e+02
1.000000e-08	-5.189954e-06	-3.931556e-09	-3.837547e+01	-2.560994e+02
2.000000e-08	-5.189793e-06	-3.934262e-09	-3.837428e+01	-2.560904e+02
3.000000e-08	-5.189317e-06	-3.936942e-09	-3.837076e+01	-2.560705e+02
4.000000e-08	-5.188538e-06	-3.936648e-09	-3.836500e+01	-2.560395e+02
5.000000e-08	-5.187285e-06	-3.933137e-09	-3.835574e+01	-2.559974e+02
6.000000e-08	-5.185503e-06	-3.925089e-09	-3.834256e+01	-2.559443e+02
7.000000e-08	-5.183242e-06	-3.930840e-09	-3.832584e+01	-2.558804e+02
8.000000e-08	-5.180430e-06	-3.966311e-09	-3.830505e+01	-2.558059e+02
9.000000e-08	-5.177039e-06	-3.985000e-09	-3.827998e+01	-2.557210e+02
1.000000e-07	-5.173107e-06	-3.930959e-09	-3.825090e+01	-2.556263e+02
1.100000e-07	-5.168898e-06	-3.894315e-09	-3.821978e+01	-2.555222e+02
1.200000e-07	-5.164560e-06	-3.900891e-09	-3.818771e+01	-2.554092e+02
1.300000e-07	-5.160015e-06	-3.964941e-09	-3.815410e+01	-2.552879e+02
1.400000e-07	-5.155088e-06	-3.938204e-09	-3.811766e+01	-2.551591e+02
1.500000e-07	-5.149711e-06	-3.893515e-09	-3.807791e+01	-2.550235e+02
1.600000e-07	-5.143997e-06	-3.896941e-09	-3.803566e+01	-2.548819e+02
1.700000e-07	-5.137998e-06	-3.963791e-09	-3.799130e+01	-2.547352e+02
1.800000e-07	-5.131672e-06	-4.011685e-09	-3.794453e+01	-2.545842e+02
1.900000e-07	-5.124923e-06	-3.966426e-09	-3.789462e+01	-2.544299e+02
2.000000e-07	-5.117793e-06	-3.924893e-09	-3.784190e+01	-2.542732e+02
2.100000e-07	-5.110399e-06	-3.917733e-09	-3.778723e+01	-2.541151e+02
2.200000e-07	-5.102697e-06	-3.969227e-09	-3.773028e+01	-2.539565e+02
2.300000e-07	-5.094761e-06	-3.914888e-09	-3.767160e+01	-2.537984e+02
2.400000e-07	-5.086571e-06	-3.805135e-09	-3.761104e+01	-2.536416e+02
2.500000e-07	-5.077948e-06	-3.712212e-09	-3.754728e+01	-2.534870e+02
2.600000e-07	-5.068873e-06	-3.747718e-09	-3.748018e+01	-2.533355e+02
2.700000e-07	-5.059199e-06	-3.749092e-09	-3.740865e+01	-2.531877e+02
2.800000e-07	-5.048950e-06	-3.671800e-09	-3.733286e+01	-2.530444e+02
2.900000e-07	-5.038258e-06	-3.600061e-09	-3.725380e+01	-2.529061e+02
3.000000e-07	-5.027048e-06	-3.650860e-09	-3.717091e+01	-2.527734e+02
3.100000e-07	-5.015391e-06	-3.690464e-09	-3.708472e+01	-2.526467e+02
3.200000e-07	-5.003387e-06	-3.668268e-09	-3.699596e+01	-2.525262e+02
3.300000e-07	-4.991010e-06	-3.641244e-09	-3.690445e+01	-2.524122e+02
3.400000e-07	-4.978348e-06	-3.674794e-09	-3.681082e+01	-2.523046e+02
3.500000e-07	-4.965352e-06	-3.702381e-09	-3.671473e+01	-2.522035e+02
3.600000e-07	-4.951868e-06	-3.701255e-09	-3.661502e+01	-2.521085e+02
3.700000e-07	-4.938034e-06	-3.693331e-09	-3.651273e+01	-2.520195e+02
3.800000e-07	-4.923874e-06	-3.656526e-09	-3.640803e+01	-2.519359e+02
3.900000e-07	-4.909189e-06	-3.660774e-09	-3.629944e+01	-2.518572e+02
4.000000e-07	-4.893973e-06	-3.707263e-09	-3.618693e+01	-2.517825e+02
4.100000e-07	-4.878250e-06	-3.721885e-09	-3.607067e+01	-2.517112e+02
4.200000e-07	-4.862005e-06	-3.661249e-09	-3.595056e+01	-2.516423e+02
4.300000e-07	-4.845370e-06	-3.686991e-09	-3.582756e+01	-2.515746e+02
4.400000e-07	-4.828436e-06	-3.772916e-09	-3.570234e+01	-2.515071e+02
4.500000e-07	-4.811244e-06	-3.792403e-09	-3.557522e+01	-2.514385e+02
4.600000e-07	-4.793756e-06	-3.729122e-09	-3.544591e+01	-2.513676e+02
4.700000e-07	-4.775971e-06	-3.752394e-09	-3.531441e+01	-2.512928e+02
4.800000e-07	-4.757891e-06	-3.807839e-09	-3.518072e+01	-2.512128e+02
4.900000e-07	-4.739455e-06	-3.810796e-09	-3.504440e+01	-2.511262e+02
5.000000e-07	-4.720674e-06	-3.768246e-09	-3.490553e+01	-2.510314e+02
5.100000e-07	-4.701546e-06	-3.776846e-09	-3.476409e+01	-2.509269e+02
5.200000e-07	-4.682062e-06	-3.783336e-09	-3.462003e+01	-2.508113e+02
5.300000e-07	-4.662328e-06	-3.779377e-09	-3.447411e+01	-2.506830e+02
5.400000e-07	-4.642472e-06	-3.768158e-09	-3.432729e+01	-2.505407e+02
5.500000e-07	-4.622393e-06	-3.761117e-09	-3.417882e+01	-2.503830e+02
5.600000e-07	-4.602022e-06	-3.745561e-09	-3.402820e+01	-2.502086e+02
5.700000e-07	-4.581373e-06	-3.756521e-09	-3.387552e+01	-2.500163e+02
5.800000e-07	-4.560426e-06	-3.767871e-09	-3.372063e+01	-2.498049e+02
5.900000e-07	-4.539112e-06	-3.744205e-09	-3.356303e+01	-2.495734e+02
6.000000e-07	-4.517459e-06	-3.715495e-09	-3.340292e+01	-2.493209e+02
6.100000e-07	-4.495516e-06	-3.726711e-09	-3.324067e+01	-2.490468e+02
6.200000e-07	-4.473210e-06	-3.737417e-09	-3.307574e+01	-2.487502e+02
6.300000e-07	-4.450562e-06	-3.707898e-09	-3.290827e+01	-2.484308e+02
6.400000e-07	-4.427639e-06	-3.691005e-09	-3.273878e+01	-2.480882e+02
6.500000e-07	-4.404436e-06	-3.705710e-09	-3.256721e+01	-2.477223e+02
6.600000e-07	-4.380921e-06	-3.715903e-09	-3.239333e+01	-2.473329e+02
6.700000e-07	-4.357167e-06	-3.693486e-09	-3.221769e+01	-2.469203e+02
6.800000e-07	-4.333233e-06	-3.680121e-09	-3.204072e+01	-2.464848e+02
6.900000e-07	-4.309089e-06	-3.677256e-09	-3.186220e+01	-2.460266e+02
7.000000e-07	-4.284654e-06	-3.679955e-09	-3.168152e+01	-2.455466e+02
7.100000e-07	-4.259862e-06	-3.668398e-09	-3.149820e+01	-2.450453e+02
7.200000e-07	-4.234605e-06	-3.657993e-09	-3.131145e+01	-2.445235e+02
7.300000e-07	-4.208867e-06	-3.648683e-09	-3.112113e+01	-2.439824e+02
7.400000e-07	-4.182780e-06	-3.653954e-09	-3.092824e+01	-2.434229e+02
7.500000e-07	-4.156246e-06	-3.652626e-09	-3.073205e+01	-2.428462e+02
7.600000e-07	-4.129218e-06	-3.643242e-09	-3.053220e+01	-2.422535e+02
7.700000e-07	-4.101842e-06	-3.622126e-09	-3.032977e+01	-2.416463e+02
7.800000e-07	-4.074223e-06	-3.615171e-09	-3.012555e+01	-2.410257e+02
7.900000e-07	-4.046400e-06	-3.615429e-09	-2.991983e+01	-2.403933e+02
8.000000e-07	-4.018400e-06	-3.606917e-09	-2.971279e+01	-2.397503e+02
8.100000e-07	-3.990158e-06	-3.584110e-09	-2.950396e+01	-2.390983e+02
8.200000e-07	-3.961597e-06	-3.578523e-09	-2.929277e+01	-2.384386e+02
8.300000e-07	-3.932748e-06	-3.584714e-09	-2.907946e+01	-2.377725e+02
8.400000e-07	-3.903626e-06	-3.577553e-09	-2.886413e+01	-2.371013e+02
8.500000e-07	-3.874290e-06	-3.557210e-09	-2.864721e+01	-2.364262e+02
8.600000e-07	-3.844685e-06	-3.546963e-09	-2.842831e+01	-2.357484e+02
8.700000e-07	-3.814775e-06	-3.545827e-09	-2.820715e+01	-2.350688e+02
8.800000e-07	-3.784704e-06	-3.538009e-09	-2.798480e+01	-2.343884e+02
8.900000e-07	-3.754458e-06	-3.522568e-09	-2.776115e+01	-2.337079e+02
9.000000e-07	-3.723975e-06	-3.507227e-09	-2.753576e+01	-2.330280e+02
9.100000e-07	-3.693198e-06	-3.498776e-09	-2.730819e+01	-2.323491e+02
9.200000e-07	-3.662143e-06	-3.490149e-09	-2.707856e+01	-2.316716e+02
9.300000e-07	-3.630853e-06	-3.478683e-09	-2.684719e+01	-2.309956e+02
9.400000e-07	-3.599337e-06	-3.463389e-09	-2.661416e+01	-2.303210e+02
9.500000e-07	-3.567624e-06	-3.455513e-09	-2.637966e+01	-2.296478e+02
9.600000e-07	-3.535757e-06	-3.449492e-09	-2.614404e+01	-2.289756e+02
9.700000e-07	-3.503759e-06	-3.440627e-09	-2.590744e+01	-2.283038e+02
9.800000e-07	-3.471585e-06	-3.425125e-09	-2.566954e+01	-2.276318e+02
9.900000e-07	-3.439171e-06	-3.412670e-09	-2.542986e+01	-2.269588e+02
1.000000e-06	-3.406543e-06	-3.401273e-09	-2.518860e+01	-2.262837e+02
1.010000e-06	-3.373674e-06	-3.391425e-09	-2.494557e+01	-2.256055e+02
1.020000e-06	-3.340370e-06	-3.375226e-09	-2.469931e+01	-2.249229e+02
1.030000e-06	-3.306585e-06	-3.361359e-09	-2.444949e+01	-2.242345e+02
1.040000e-06	-3.272419e-06	-3.352892e-09	-2.419686e+01	-2.235389e+02
1.050000e-06	-3.237880e-06	-3.347161e-09	-2.394148e+01	-2.228346e+02
1.060000e-06	-3.202982e-06	-3.333494e-09	-2.368343e+01	-2.221199e+02
1.070000e-06	-3.167698e-06	-3.318422e-09	-2.342254e+01	-2.213931e+02
1.080000e-06	-3.132100e-06	-3.307569e-09	-2.315932e+01	-2.206527e+02
1.090000e-06	-3.096405e-06	-3.296490e-09	-2.289539e+01	-2.198968e+02
1.100000e-06	-3.060619e-06	-3.282113e-09	-2.263078e+01	-2.191238e+02
1.110000e-06	-3.024704e-06	-3.267438e-09	-2.236522e+01	-2.183321e+02
1.120000e-06	-2.988643e-06	-3.256406e-09	-2.209858e+01	-2.175200e+02
1.130000e-06	-2.952469e-06	-3.247391e-09	-2.183110e+01	-2.166859e+02
1.140000e-06	-2.916182e-06	-3.237115e-09	-2.156278e+01	-2.158284e+02
1.150000e-06	-2.879713e-06	-3.221790e-09	-2.129313e+01	-2.149461e+02
1.160000e-06	-2.843094e-06	-3.203950e-09	-2.102236e+01	-2.140377e+02
1.170000e-06	-2.806245e-06	-3.187670e-09	-2.074989e+01	-2.131020e+02
1.180000e-06	-2.769113e-06	-3.172970e-09	-2.047533e+01	-2.121380e+02
1.190000e-06	-2.731772e-06	-3.155096e-09	-2.019923e+01	-2.111449e+02
1.200000e-06	-2.694257e-06	-3.136881e-09	-1.992183e+01	-2.101219e+02
1.210000e-06	-2.656570e-06	-3.121528e-09	-1.964317e+01	-2.090685e+02
1.220000e-06	-2.618655e-06	-3.109717e-09	-1.936282e+01	-2.079841e+02
1.230000e-06	-2.580472e-06	-3.097840e-09	-1.908048e+01	-2.068687e+02
1.240000e-06	-2.542123e-06	-3.083513e-09	-1.879692e+01	-2.057220e+02
1.250000e-06	-2.503651e-06	-3.068027e-09	-1.851246e+01	-2.045442e+02
1.260000e-06	-2.465110e-06	-3.051285e-09	-1.822748e+01	-2.033354e+02
1.270000e-06	-2.426463e-06	-3.032016e-09	-1.794171e+01	-2.020961e+02
1.280000e-06	-2.387555e-06	-3.011385e-09	-1.765402e+01	-2.008266e+02
1.290000e-06	-2.348445e-06	-2.989404e-09	-1.736484e+01	-1.995276e+02
1.300000e-06	-2.309141e-06	-2.968359e-09	-1.707421e+01	-1.981999e+02
1.310000e-06	-2.269645e-06	-2.949547e-09	-1.678217e+01	-1.968441e+02
1.320000e-06	-2.230029e-06	-2.933431e-09	-1.648924e+01	-1.954612e+02
1.330000e-06	-2.190312e-06	-2.914000e-09	-1.619557e+01	-1.940520e+02
1.340000e-06	-2.150493e-06	-2.891613e-09	-1.590114e+01	-1.926175e+02
1.350000e-06	-2.110594e-06	-2.871739e-09	-1.560612e+01	-1.911586e+02
1.360000e-06	-2.070680e-06	-2.855309e-09	-1.531099e+01	-1.896762e+02
1.370000e-06	-2.030740e-06	-2.833949e-09	-1.501567e+01	-1.881712e+02
1.380000e-06	-1.990684e-06	-2.807686e-09	-1.471948e+01	-1.866444e+02
1.390000e-06	-1.950475e-06	-2.782946e-09	-1.442217e+01	-1.850965e+02
1.400000e-06	-1.910139e-06	-2.760414e-09	-1.412392e+01	-1.835281e+02
1.410000e-06	-1.869675e-06	-2.735116e-09	-1.382472e+01	-1.819395e+02
1.420000e-06	-1.829041e-06	-2.708184e-09	-1.352426e+01	-1.803313e+02
1.430000e-06	-1.788196e-06	-2.682879e-09	-1.322225e+01	-1.787033e+02
1.440000e-06	-1.747145e-06	-2.660082e-09	-1.291871e+01	-1.770556e+02
1.450000e-06	-1.705887e-06	-2.636451e-09	-1.261365e+01	-1.753878e+02
1.460000e-06	-1.664520e-06	-2.609615e-09	-1.230777e+01	-1.736994e+02
1.470000e-06	-1.623021e-06	-2.582771e-09	-1.200092e+01	-1.719895e+02
1.480000e-06	-1.581241e-06	-2.555767e-09	-1.169199e+01	-1.702572e+02
1.490000e-06	-1.539114e-06	-2.526370e-09	-1.138049e+01	-1.685012e+02
1.500000e-06	-1.496679e-06	-2.494257e-09	-1.106672e+01	-1.667197e+02
1.510000e-06	-1.454085e-06	-2.466663e-09	-1.075177e+01	-1.649111e+02
1.520000e-06	-1.411432e-06	-2.443771e-09	-1.043639e+01	-1.630730e+02
1.530000e-06	-1.368687e-06	-2.420418e-09	-1.012033e+01	-1.612032e+02
1.540000e-06	-1.325817e-06	-2.392465e-09	-9.803334e+00	-1.592990e+02
1.550000e-06	-1.282834e-06	-2.360736e-09	-9.485507e+00	-1.573574e+02
1.560000e-06	-1.239657e-06	-2.328452e-09	-9.166250e+00	-1.553753e+02
1.570000e-06	-1.196295e-06	-2.296729e-09	-8.845626e+00	-1.533494e+02
1.580000e-06	-1.152886e-06	-2.261496e-09	-8.524647e+00	-1.512760e+02
1.590000e-06	-1.109426e-06	-2.225054e-09	-8.203296e+00	-1.491515e+02
1.600000e-06	-1.065868e-06	-2.189585e-09	-7.881224e+00	-1.469720e+02
1.610000e-06	-1.022234e-06	-2.155416e-09	-7.558589e+00	-1.447334e+02
1.620000e-06	-9.785377e-07	-2.117537e-09	-7.235487e+00	-1.424316e+02
1.630000e-06	-9.348354e-07	-2.077151e-09	-6.912344e+00	-1.400625e+02
1.640000e-06	-8.911423e-07	-2.041843e-09	-6.589270e+00	-1.376220e+02
1.650000e-06	-8.473816e-07	-2.009389e-09	-6.265695e+00	-1.351058e+02
1.660000e-06	-8.035466e-07	-1.974017e-09	-5.941571e+00	-1.325098e+02
1.670000e-06	-7.597201e-07	-1.932217e-09	-5.617510e+00	-1.298300e+02
1.680000e-06	-7.159016e-07	-1.888504e-09	-5.293508e+00	-1.270626e+02
1.690000e-06	-6.720270e-07	-1.847787e-09	-4.969091e+00	-1.242038e+02
1.700000e-06	-6.281281e-07	-1.807658e-09	-4.644495e+00	-1.212501e+02
1.710000e-06	-5.842101e-07	-1.763013e-09	-4.319757e+00	-1.181983e+02
1.720000e-06	-5.402647e-07	-1.718100e-09	-3.994817e+00	-1.150453e+02
1.730000e-06	-4.963330e-07	-1.674629e-09	-3.669977e+00	-1.117885e+02
1.740000e-06	-4.523652e-07	-1.629529e-09	-3.344871e+00	-1.084256e+02
1.750000e-06	-4.083562e-07	-1.579665e-09	-3.019461e+00	-1.049546e+02
1.760000e-06	-3.643833e-07	-1.526416e-09	-2.694317e+00	-1.013741e+02
1.770000e-06	-3.203852e-07	-1.472999e-09	-2.368987e+00	-9.768292e+01
1.780000e-06	-2.763103e-07	-1.418801e-09	-2.043089e+00	-9.388055e+01
1.790000e-06	-2.322178e-07	-1.360918e-09	-1.717061e+00	-8.996684e+01
1.800000e-06	-1.881630e-07	-1.299691e-09	-1.391312e+00	-8.594219e+01
1.810000e-06	-1.441772e-07	-1.238696e-09	-1.066072e+00	-8.180750e+01
1.820000e-06	-1.002132e-07	-1.178306e-09	-7.409947e-01	-7.756420e+01
1.830000e-06	-5.620705e-08	-1.116160e-09	-4.156052e-01	-7.321427e+01
1.840000e-06	-1.215240e-08	-1.052027e-09	-8.985704e-02	-6.876021e+01
1.850000e-06	3.189357e-08	-9.860776e-10	2.358269e-01	-6.420505e+01
1.860000e-06	7.591124e-08	-9.190049e-10	5.613016e-01	-5.955236e+01
1.870000e-06	1.199236e-07	-8.494781e-10	8.867370e-01	-5.480621e+01
1.880000e-06	1.639480e-07	-7.765455e-10	1.212262e+00	-4.997119e+01
1.890000e-06	2.080138e-07	-7.003579e-10	1.538092e+00	-4.505235e+01
1.900000e-06	2.520786e-07	-6.232374e-10	1.863915e+00	-4.005520e+01
1.910000e-06	2.961189e-07	-5.456465e-10	2.189558e+00	-3.498570e+01
1.920000e-06	3.401246e-07	-4.656779e-10	2.514944e+00	-2.985020e+01
1.930000e-06	3.840703e-07	-3.853385e-10	2.839886e+00	-2.465542e+01
1.940000e-06	4.280150e-07	-3.060668e-10	3.164821e+00	-1.940840e+01
1.950000e-06	4.719772e-07	-2.268398e-10	3.489886e+00	-1.411650e+01
1.960000e-06	5.159189e-07	-1.443161e-10	3.814799e+00	-8.787328e+00
1.970000e-06	5.598007e-07	-6.083640e-11	4.139269e+00	-3.428680e+00
1.980000e-06	6.036371e-07	2.206079e-11	4.463404e+00	1.951463e+00
1.990000e-06	6.475286e-07	1.060072e-10	4.787946e+00	7.345004e+00
2.000000e-06	6.914609e-07	1.924039e-10	5.112789e+00	1.274378e+01
2.010000e-06	7.353258e-07	2.772420e-10	5.437134e+00	1.813959e+01
2.020000e-06	7.791335e-07	3.587933e-10	5.761057e+00	2.352426e+01
2.030000e-06	8.229281e-07	4.386903e-10	6.084881e+00	2.888971e+01
2.040000e-06	8.666842e-07	5.204095e-10	6.408422e+00	3.422792e+01
2.050000e-06	9.103605e-07	6.036194e-10	6.731373e+00	3.953109e+01
2.060000e-06	9.540212e-07	6.834234e-10	7.054208e+00	4.479159e+01
2.070000e-06	9.977134e-07	7.603038e-10	7.377276e+00	5.000205e+01
2.080000e-06	1.041318e-06	8.397304e-10	7.699695e+00	5.515536e+01
2.090000e-06	1.084817e-06	9.224809e-10	8.021333e+00	6.024477e+01
2.100000e-06	1.128264e-06	1.002401e-09	8.342594e+00	6.526387e+01
2.110000e-06	1.171639e-06	1.077129e-09	8.663315e+00	7.020663e+01
2.120000e-06	1.214900e-06	1.150939e-09	8.983194e+00	7.506745e+01
2.130000e-06	1.258101e-06	1.223578e-09	9.302633e+00	7.984117e+01
2.140000e-06	1.301123e-06	1.293335e-09	9.620743e+00	8.452309e+01
2.150000e-06	1.343919e-06	1.357702e-09	9.937186e+00	8.910898e+01
2.160000e-06	1.386686e-06	1.416854e-09	1.025341e+01	9.359512e+01
2.170000e-06	1.429337e-06	1.476108e-09	1.056878e+01	9.797828e+01
2.180000e-06	1.471725e-06	1.538016e-09	1.088221e+01	1.022557e+02
2.190000e-06	1.513942e-06	1.599850e-09	1.119436e+01	1.064253e+02
2.200000e-06	1.556013e-06	1.658062e-09	1.150545e+01	1.104853e+02
2.210000e-06	1.597813e-06	1.715629e-09	1.181452e+01	1.144344e+02
2.220000e-06	1.639264e-06	1.771545e-09	1.212102e+01	1.182720e+02
2.230000e-06	1.680528e-06	1.821209e-09	1.242613e+01	1.219979e+02
2.240000e-06	1.721637e-06	1.866210e-09	1.273010e+01	1.256123e+02
2.250000e-06	1.762611e-06	1.910634e-09	1.303307e+01	1.291158e+02
2.260000e-06	1.803542e-06	1.954610e-09	1.333572e+01	1.325096e+02
2.270000e-06	1.844233e-06	1.999389e-09	1.363660e+01	1.357950e+02
2.280000e-06	1.884689e-06	2.044432e-09	1.393574e+01	1.389741e+02
2.290000e-06	1.924997e-06	2.088720e-09	1.423378e+01	1.420490e+02
2.300000e-06	1.965184e-06	2.129954e-09	1.453093e+01	1.450221e+02
2.310000e-06	2.005292e-06	2.170990e-09	1.482750e+01	1.478963e+02
2.320000e-06	2.045309e-06	2.209677e-09	1.512339e+01	1.506745e+02
2.330000e-06	2.085291e-06	2.245745e-09	1.541903e+01	1.533600e+02
2.340000e-06	2.125221e-06	2.279803e-09	1.571427e+01	1.559562e+02
2.350000e-06	2.165036e-06	2.313547e-09	1.600867e+01	1.584666e+02
2.360000e-06	2.204762e-06	2.347654e-09	1.630241e+01	1.608948e+02
2.370000e-06	2.244316e-06	2.383898e-09	1.659488e+01	1.632445e+02
2.380000e-06	2.283685e-06	2.420039e-09	1.688599e+01	1.655196e+02
2.390000e-06	2.322931e-06	2.453212e-09	1.717618e+01	1.677236e+02
2.400000e-06	2.362060e-06	2.484588e-09	1.746551e+01	1.698605e+02
2.410000e-06	2.401043e-06	2.515674e-09	1.775375e+01	1.719337e+02
2.420000e-06	2.439764e-06	2.545692e-09	1.804007e+01	1.739470e+02
2.430000e-06	2.478284e-06	2.572779e-09	1.832488e+01	1.759038e+02
2.440000e-06	2.516724e-06	2.601213e-09	1.860912e+01	1.778075e+02
2.450000e-06	2.555002e-06	2.630945e-09	1.889216e+01	1.796612e+02
2.460000e-06	2.593115e-06	2.659609e-09	1.917397e+01	1.814682e+02
2.470000e-06	2.631090e-06	2.686798e-09	1.945476e+01	1.832311e+02
2.480000e-06	2.668866e-06	2.715956e-09	1.973409e+01	1.849528e+02
2.490000e-06	2.706421e-06	2.744190e-09	2.001177e+01	1.866357e+02
2.500000e-06	2.743772e-06	2.771017e-09	2.028796e+01	1.882821e+02
2.510000e-06	2.780942e-06	2.795593e-09	2.056280e+01	1.898940e+02
2.520000e-06	2.817913e-06	2.819405e-09	2.083616e+01	1.914735e+02
2.530000e-06	2.854676e-06	2.841667e-09	2.110800e+01	1.930220e+02
2.540000e-06	2.891216e-06	2.862332e-09	2.137818e+01	1.945410e+02
2.550000e-06	2.927557e-06	2.883927e-09	2.164689e+01	1.960319e+02
2.560000e-06	2.963748e-06	2.906214e-09	2.191450e+01	1.974955e+02
2.570000e-06	2.999840e-06	2.929608e-09	2.218137e+01	1.989329e+02
2.580000e-06	3.035812e-06	2.953108e-09	2.244735e+01	2.003447e+02
2.590000e-06	3.071660e-06	2.974545e-09	2.271242e+01	2.017315e+02
2.600000e-06	3.107377e-06	2.995173e-09	2.297651e+01	2.030935e+02
2.610000e-06	3.142971e-06	3.017525e-09	2.323971e+01	2.044311e+02
2.620000e-06	3.178350e-06	3.038882e-09	2.350130e+01	2.057444e+02
2.630000e-06	3.213465e-06	3.055362e-09	2.376095e+01	2.070334e+02
2.640000e-06	3.248346e-06	3.070256e-09	2.401887e+01	2.082981e+02
2.650000e-06	3.282829e-06	3.087206e-09	2.427384e+01	2.095384e+02
2.660000e-06	3.316864e-06	3.104604e-09	2.452550e+01	2.107540e+02
2.670000e-06	3.350402e-06	3.123419e-09	2.477349e+01	2.119447e+02
2.680000e-06	3.383479e-06	3.142224e-09	2.501806e+01	2.131104e+02
2.690000e-06	3.416232e-06	3.160499e-09	2.526025e+01	2.142508e+02
2.700000e-06	3.448690e-06	3.178217e-09	2.550025e+01	2.153656e+02
2.710000e-06	3.480936e-06	3.193346e-09	2.573868e+01	2.164547e+02
2.720000e-06	3.513030e-06	3.205012e-09	2.597599e+01	2.175179e+02
2.730000e-06	3.544966e-06	3.216799e-09	2.621213e+01	2.185550e+02
2.740000e-06	3.576766e-06	3.231452e-09	2.644727e+01	2.195661e+02
2.750000e-06	3.608462e-06	3.245824e-09	2.668163e+01	2.205510e+02
2.760000e-06	3.639996e-06	3.258765e-09	2.691480e+01	2.215099e+02
2.770000e-06	3.671199e-06	3.272654e-09	2.714552e+01	2.224429e+02
2.780000e-06	3.702119e-06	3.287496e-09	2.737415e+01	2.233502e+02
2.790000e-06	3.732845e-06	3.301030e-09	2.760134e+01	2.242321e+02
2.800000e-06	3.763221e-06	3.314850e-09	2.782595e+01	2.250891e+02
2.810000e-06	3.793210e-06	3.327492e-09	2.804769e+01	2.259215e+02
2.820000e-06	3.822950e-06	3.337862e-09	2.826760e+01	2.267299e+02
2.830000e-06	3.852490e-06	3.345317e-09	2.848602e+01	2.275149e+02
2.840000e-06	3.881858e-06	3.353521e-09	2.870317e+01	2.282772e+02
2.850000e-06	3.911097e-06	3.363370e-09	2.891937e+01	2.290176e+02
2.860000e-06	3.940046e-06	3.371002e-09	2.913342e+01	2.297369e+02
2.870000e-06	3.968572e-06	3.380421e-09	2.934435e+01	2.304359e+02
2.880000e-06	3.996798e-06	3.392284e-09	2.955306e+01	2.311156e+02
2.890000e-06	4.024866e-06	3.403719e-09	2.976060e+01	2.317768e+02
2.900000e-06	4.052806e-06	3.415062e-09	2.996719e+01	2.324205e+02
