# Temperatura_=_20.0
# Concentracion g/m^3_=_9000.0
# C_Vs_to_Am_M_A/Vsm_=_65563218390.804596
# pendiente_HvsI_1/m_=_3716.3
# ordenada_HvsI_A/m_=_1297.0
# frecuencia_Hz_=_135106.26719561816

Tiempo_(s)	Campo_(V.s)	Magnetizacion_(V.s)	Campo_(kA/m)	Magnetizacion_(A/m)
0.000000e+00	-5.196942e-06	-3.963683e-09	-3.837179e+01	-2.632759e+02
1.000000e-08	-5.197182e-06	-3.967403e-09	-3.837357e+01	-2.632731e+02
2.000000e-08	-5.197175e-06	-3.968257e-09	-3.837351e+01	-2.632495e+02
3.000000e-08	-5.196896e-06	-3.968918e-09	-3.837146e+01	-2.632042e+02
4.000000e-08	-5.196299e-06	-3.970641e-09	-3.836705e+01	-2.631365e+02
5.000000e-08	-5.195278e-06	-3.971228e-09	-3.835951e+01	-2.630455e+02
6.000000e-08	-5.193754e-06	-3.972290e-09	-3.834825e+01	-2.629308e+02
7.000000e-08	-5.191712e-06	-3.982974e-09	-3.833318e+01	-2.627919e+02
8.000000e-08	-5.189169e-06	-4.002198e-09	-3.831441e+01	-2.626286e+02
9.000000e-08	-5.186027e-06	-3.975184e-09	-3.829120e+01	-2.624410e+02
1.000000e-07	-5.182294e-06	-3.899027e-09	-3.826365e+01	-2.622290e+02
1.100000e-07	-5.178234e-06	-3.897688e-09	-3.823366e+01	-2.619931e+02
1.200000e-07	-5.173917e-06	-4.031764e-09	-3.820179e+01	-2.617338e+02
1.300000e-07	-5.169362e-06	-4.087548e-09	-3.816816e+01	-2.614518e+02
1.400000e-07	-5.164585e-06	-3.953263e-09	-3.813289e+01	-2.611480e+02
1.500000e-07	-5.159494e-06	-3.810594e-09	-3.809530e+01	-2.608235e+02
1.600000e-07	-5.153946e-06	-3.927313e-09	-3.805433e+01	-2.604795e+02
1.700000e-07	-5.148002e-06	-4.125701e-09	-3.801045e+01	-2.601174e+02
1.800000e-07	-5.141811e-06	-4.127029e-09	-3.796474e+01	-2.597388e+02
1.900000e-07	-5.135271e-06	-3.936901e-09	-3.791645e+01	-2.593455e+02
2.000000e-07	-5.128299e-06	-3.860039e-09	-3.786497e+01	-2.589391e+02
2.100000e-07	-5.121041e-06	-3.971923e-09	-3.781138e+01	-2.585217e+02
2.200000e-07	-5.113594e-06	-4.080520e-09	-3.775639e+01	-2.580952e+02
2.300000e-07	-5.105830e-06	-3.966027e-09	-3.769907e+01	-2.576616e+02
2.400000e-07	-5.097655e-06	-3.755104e-09	-3.763871e+01	-2.572232e+02
2.500000e-07	-5.089111e-06	-3.742602e-09	-3.757562e+01	-2.567819e+02
2.600000e-07	-5.080265e-06	-3.893924e-09	-3.751031e+01	-2.563400e+02
2.700000e-07	-5.070951e-06	-3.863155e-09	-3.744154e+01	-2.558996e+02
2.800000e-07	-5.061035e-06	-3.630591e-09	-3.736832e+01	-2.554626e+02
2.900000e-07	-5.050713e-06	-3.591694e-09	-3.729211e+01	-2.550312e+02
3.000000e-07	-5.039916e-06	-3.807724e-09	-3.721239e+01	-2.546071e+02
3.100000e-07	-5.028479e-06	-3.874347e-09	-3.712794e+01	-2.541922e+02
3.200000e-07	-5.016588e-06	-3.667661e-09	-3.704014e+01	-2.537882e+02
3.300000e-07	-5.004428e-06	-3.607308e-09	-3.695036e+01	-2.533965e+02
3.400000e-07	-4.991969e-06	-3.797972e-09	-3.685837e+01	-2.530185e+02
3.500000e-07	-4.979106e-06	-3.913348e-09	-3.676340e+01	-2.526553e+02
3.600000e-07	-4.965854e-06	-3.777095e-09	-3.666555e+01	-2.523080e+02
3.700000e-07	-4.952259e-06	-3.672811e-09	-3.656517e+01	-2.519773e+02
3.800000e-07	-4.938225e-06	-3.693210e-09	-3.646155e+01	-2.516638e+02
3.900000e-07	-4.923712e-06	-3.790600e-09	-3.635439e+01	-2.513678e+02
4.000000e-07	-4.908750e-06	-3.836750e-09	-3.624392e+01	-2.510894e+02
4.100000e-07	-4.893318e-06	-3.772810e-09	-3.612998e+01	-2.508285e+02
4.200000e-07	-4.877339e-06	-3.644517e-09	-3.601200e+01	-2.505847e+02
4.300000e-07	-4.860898e-06	-3.722643e-09	-3.589061e+01	-2.503575e+02
4.400000e-07	-4.844160e-06	-3.922887e-09	-3.576702e+01	-2.501462e+02
4.500000e-07	-4.827064e-06	-3.889142e-09	-3.564079e+01	-2.499496e+02
4.600000e-07	-4.809671e-06	-3.698377e-09	-3.551237e+01	-2.497667e+02
4.700000e-07	-4.792136e-06	-3.776277e-09	-3.538289e+01	-2.495960e+02
4.800000e-07	-4.774381e-06	-3.991384e-09	-3.525180e+01	-2.494360e+02
4.900000e-07	-4.756297e-06	-3.928029e-09	-3.511828e+01	-2.492851e+02
5.000000e-07	-4.737801e-06	-3.741721e-09	-3.498172e+01	-2.491413e+02
5.100000e-07	-4.718795e-06	-3.792512e-09	-3.484138e+01	-2.490027e+02
5.200000e-07	-4.699419e-06	-3.932915e-09	-3.469832e+01	-2.488672e+02
5.300000e-07	-4.679764e-06	-3.893624e-09	-3.455319e+01	-2.487328e+02
5.400000e-07	-4.659851e-06	-3.801239e-09	-3.440617e+01	-2.485973e+02
5.500000e-07	-4.639744e-06	-3.796374e-09	-3.425771e+01	-2.484584e+02
5.600000e-07	-4.619396e-06	-3.830195e-09	-3.410747e+01	-2.483139e+02
5.700000e-07	-4.598817e-06	-3.856013e-09	-3.395552e+01	-2.481617e+02
5.800000e-07	-4.577959e-06	-3.865713e-09	-3.380151e+01	-2.479996e+02
5.900000e-07	-4.556786e-06	-3.791407e-09	-3.364519e+01	-2.478255e+02
6.000000e-07	-4.535278e-06	-3.735876e-09	-3.348638e+01	-2.476375e+02
6.100000e-07	-4.513415e-06	-3.806891e-09	-3.332495e+01	-2.474336e+02
6.200000e-07	-4.491265e-06	-3.864125e-09	-3.316141e+01	-2.472121e+02
6.300000e-07	-4.468820e-06	-3.762494e-09	-3.299568e+01	-2.469714e+02
6.400000e-07	-4.446024e-06	-3.698311e-09	-3.282737e+01	-2.467100e+02
6.500000e-07	-4.422935e-06	-3.783917e-09	-3.265689e+01	-2.464267e+02
6.600000e-07	-4.399543e-06	-3.833507e-09	-3.248417e+01	-2.461203e+02
6.700000e-07	-4.375821e-06	-3.749943e-09	-3.230902e+01	-2.457899e+02
6.800000e-07	-4.351905e-06	-3.703537e-09	-3.213244e+01	-2.454350e+02
6.900000e-07	-4.327840e-06	-3.739664e-09	-3.195475e+01	-2.450549e+02
7.000000e-07	-4.303562e-06	-3.755746e-09	-3.177549e+01	-2.446495e+02
7.100000e-07	-4.278974e-06	-3.726596e-09	-3.159395e+01	-2.442185e+02
7.200000e-07	-4.254051e-06	-3.705958e-09	-3.140993e+01	-2.437623e+02
7.300000e-07	-4.228735e-06	-3.701136e-09	-3.122301e+01	-2.432811e+02
7.400000e-07	-4.202843e-06	-3.711216e-09	-3.103184e+01	-2.427755e+02
7.500000e-07	-4.176369e-06	-3.722358e-09	-3.083636e+01	-2.422461e+02
7.600000e-07	-4.149400e-06	-3.703915e-09	-3.063723e+01	-2.416939e+02
7.700000e-07	-4.122058e-06	-3.666735e-09	-3.043535e+01	-2.411199e+02
7.800000e-07	-4.094509e-06	-3.662878e-09	-3.023194e+01	-2.405253e+02
7.900000e-07	-4.066758e-06	-3.685100e-09	-3.002704e+01	-2.399113e+02
8.000000e-07	-4.038845e-06	-3.667558e-09	-2.982095e+01	-2.392795e+02
8.100000e-07	-4.010724e-06	-3.621486e-09	-2.961332e+01	-2.386313e+02
8.200000e-07	-3.982366e-06	-3.616652e-09	-2.940394e+01	-2.379681e+02
8.300000e-07	-3.953770e-06	-3.647599e-09	-2.919279e+01	-2.372917e+02
8.400000e-07	-3.924837e-06	-3.634797e-09	-2.897917e+01	-2.366036e+02
8.500000e-07	-3.895612e-06	-3.592432e-09	-2.876338e+01	-2.359054e+02
8.600000e-07	-3.866076e-06	-3.585906e-09	-2.854530e+01	-2.351986e+02
8.700000e-07	-3.836253e-06	-3.605822e-09	-2.832510e+01	-2.344848e+02
8.800000e-07	-3.806241e-06	-3.593862e-09	-2.810351e+01	-2.337654e+02
8.900000e-07	-3.776054e-06	-3.561698e-09	-2.788062e+01	-2.330418e+02
9.000000e-07	-3.745637e-06	-3.544273e-09	-2.765604e+01	-2.323151e+02
9.100000e-07	-3.714933e-06	-3.542683e-09	-2.742933e+01	-2.315865e+02
9.200000e-07	-3.683974e-06	-3.535318e-09	-2.720074e+01	-2.308569e+02
9.300000e-07	-3.652740e-06	-3.519765e-09	-2.697013e+01	-2.301271e+02
9.400000e-07	-3.621226e-06	-3.497603e-09	-2.673744e+01	-2.293978e+02
9.500000e-07	-3.589536e-06	-3.488364e-09	-2.650346e+01	-2.286693e+02
9.600000e-07	-3.557752e-06	-3.494967e-09	-2.626878e+01	-2.279420e+02
9.700000e-07	-3.525830e-06	-3.490640e-09	-2.603308e+01	-2.272158e+02
9.800000e-07	-3.493698e-06	-3.461477e-09	-2.579584e+01	-2.264908e+02
9.900000e-07	-3.461328e-06	-3.439922e-09	-2.555683e+01	-2.257665e+02
1.000000e-06	-3.428729e-06	-3.441285e-09	-2.531613e+01	-2.250423e+02
1.010000e-06	-3.395807e-06	-3.438222e-09	-2.507305e+01	-2.243178e+02
1.020000e-06	-3.362523e-06	-3.412313e-09	-2.482730e+01	-2.235918e+02
1.030000e-06	-3.328933e-06	-3.388236e-09	-2.457929e+01	-2.228634e+02
1.040000e-06	-3.294901e-06	-3.387146e-09	-2.432802e+01	-2.221314e+02
1.050000e-06	-3.260479e-06	-3.389262e-09	-2.407386e+01	-2.213945e+02
1.060000e-06	-3.225745e-06	-3.373683e-09	-2.381740e+01	-2.206511e+02
1.070000e-06	-3.190703e-06	-3.349741e-09	-2.355866e+01	-2.198996e+02
1.080000e-06	-3.155323e-06	-3.337609e-09	-2.329743e+01	-2.191385e+02
1.090000e-06	-3.119642e-06	-3.332483e-09	-2.303398e+01	-2.183660e+02
1.100000e-06	-3.083843e-06	-3.319252e-09	-2.276966e+01	-2.175802e+02
1.110000e-06	-3.047972e-06	-3.296829e-09	-2.250480e+01	-2.167794e+02
1.120000e-06	-3.011960e-06	-3.277774e-09	-2.223891e+01	-2.159618e+02
1.130000e-06	-2.975758e-06	-3.267695e-09	-2.197161e+01	-2.151255e+02
1.140000e-06	-2.939389e-06	-3.262316e-09	-2.170308e+01	-2.142688e+02
1.150000e-06	-2.902900e-06	-3.249459e-09	-2.143366e+01	-2.133900e+02
1.160000e-06	-2.866281e-06	-3.228473e-09	-2.116328e+01	-2.124875e+02
1.170000e-06	-2.829487e-06	-3.210282e-09	-2.089161e+01	-2.115597e+02
1.180000e-06	-2.792522e-06	-3.200418e-09	-2.061868e+01	-2.106053e+02
1.190000e-06	-2.755291e-06	-3.184831e-09	-2.034379e+01	-2.096230e+02
1.200000e-06	-2.717764e-06	-3.158831e-09	-2.006670e+01	-2.086116e+02
1.210000e-06	-2.680048e-06	-3.136452e-09	-1.978823e+01	-2.075702e+02
1.220000e-06	-2.642207e-06	-3.124638e-09	-1.950882e+01	-2.064980e+02
1.230000e-06	-2.604192e-06	-3.111817e-09	-1.922814e+01	-2.053943e+02
1.240000e-06	-2.566019e-06	-3.091331e-09	-1.894629e+01	-2.042588e+02
1.250000e-06	-2.527663e-06	-3.071803e-09	-1.866308e+01	-2.030910e+02
1.260000e-06	-2.489108e-06	-3.060025e-09	-1.837842e+01	-2.018910e+02
1.270000e-06	-2.450385e-06	-3.046146e-09	-1.809250e+01	-2.006587e+02
1.280000e-06	-2.411360e-06	-3.026957e-09	-1.780436e+01	-1.993946e+02
1.290000e-06	-2.372155e-06	-3.005341e-09	-1.751489e+01	-1.980988e+02
1.300000e-06	-2.332942e-06	-2.983877e-09	-1.722536e+01	-1.967720e+02
1.310000e-06	-2.293606e-06	-2.963884e-09	-1.693492e+01	-1.954149e+02
1.320000e-06	-2.254106e-06	-2.948275e-09	-1.664327e+01	-1.940281e+02
1.330000e-06	-2.214434e-06	-2.930138e-09	-1.635035e+01	-1.926127e+02
1.340000e-06	-2.174643e-06	-2.904633e-09	-1.605655e+01	-1.911696e+02
1.350000e-06	-2.134802e-06	-2.881940e-09	-1.576238e+01	-1.896997e+02
1.360000e-06	-2.094843e-06	-2.864810e-09	-1.546734e+01	-1.882040e+02
1.370000e-06	-2.054732e-06	-2.846785e-09	-1.517119e+01	-1.866837e+02
1.380000e-06	-2.014534e-06	-2.822088e-09	-1.487438e+01	-1.851396e+02
1.390000e-06	-1.974304e-06	-2.796470e-09	-1.457734e+01	-1.835728e+02
1.400000e-06	-1.933969e-06	-2.772355e-09	-1.427952e+01	-1.819840e+02
1.410000e-06	-1.893484e-06	-2.746934e-09	-1.398061e+01	-1.803740e+02
1.420000e-06	-1.852833e-06	-2.721523e-09	-1.368045e+01	-1.787435e+02
1.430000e-06	-1.811952e-06	-2.697662e-09	-1.337861e+01	-1.770928e+02
1.440000e-06	-1.770882e-06	-2.672492e-09	-1.307536e+01	-1.754224e+02
1.450000e-06	-1.729663e-06	-2.646881e-09	-1.277102e+01	-1.737321e+02
1.460000e-06	-1.688394e-06	-2.621153e-09	-1.246631e+01	-1.720218e+02
1.470000e-06	-1.646914e-06	-2.595024e-09	-1.216005e+01	-1.702912e+02
1.480000e-06	-1.605078e-06	-2.568417e-09	-1.185115e+01	-1.685396e+02
1.490000e-06	-1.563080e-06	-2.541254e-09	-1.154106e+01	-1.667659e+02
1.500000e-06	-1.520869e-06	-2.511412e-09	-1.122939e+01	-1.649691e+02
1.510000e-06	-1.478424e-06	-2.481861e-09	-1.091600e+01	-1.631474e+02
1.520000e-06	-1.435834e-06	-2.456021e-09	-1.060153e+01	-1.612992e+02
1.530000e-06	-1.393087e-06	-2.432047e-09	-1.028591e+01	-1.594223e+02
1.540000e-06	-1.350209e-06	-2.406945e-09	-9.969316e+00	-1.575142e+02
1.550000e-06	-1.307234e-06	-2.379557e-09	-9.652005e+00	-1.555723e+02
1.560000e-06	-1.264164e-06	-2.349761e-09	-9.333996e+00	-1.535937e+02
1.570000e-06	-1.221027e-06	-2.319091e-09	-9.015493e+00	-1.515750e+02
1.580000e-06	-1.177696e-06	-2.285945e-09	-8.695561e+00	-1.495128e+02
1.590000e-06	-1.134163e-06	-2.247852e-09	-8.374128e+00	-1.474033e+02
1.600000e-06	-1.090585e-06	-2.209065e-09	-8.052368e+00	-1.452428e+02
1.610000e-06	-1.046950e-06	-2.174453e-09	-7.730191e+00	-1.430272e+02
1.620000e-06	-1.003300e-06	-2.140286e-09	-7.407901e+00	-1.407522e+02
1.630000e-06	-9.596558e-07	-2.102230e-09	-7.085651e+00	-1.384135e+02
1.640000e-06	-9.159458e-07	-2.063046e-09	-6.762917e+00	-1.360069e+02
1.650000e-06	-8.720989e-07	-2.025667e-09	-6.439172e+00	-1.335279e+02
1.660000e-06	-8.281828e-07	-1.988811e-09	-6.114915e+00	-1.309721e+02
1.670000e-06	-7.842782e-07	-1.947647e-09	-5.790745e+00	-1.283352e+02
1.680000e-06	-7.404049e-07	-1.902629e-09	-5.466805e+00	-1.256130e+02
1.690000e-06	-6.965724e-07	-1.859263e-09	-5.143166e+00	-1.228014e+02
1.700000e-06	-6.526784e-07	-1.818739e-09	-4.819073e+00	-1.198966e+02
1.710000e-06	-6.086897e-07	-1.776081e-09	-4.494281e+00	-1.168947e+02
1.720000e-06	-5.646767e-07	-1.729851e-09	-4.169310e+00	-1.137925e+02
1.730000e-06	-5.206671e-07	-1.684790e-09	-3.844363e+00	-1.105869e+02
1.740000e-06	-4.766464e-07	-1.640578e-09	-3.519335e+00	-1.072750e+02
1.750000e-06	-4.326262e-07	-1.591524e-09	-3.194310e+00	-1.038545e+02
1.760000e-06	-3.885603e-07	-1.539795e-09	-2.868948e+00	-1.003234e+02
1.770000e-06	-3.444581e-07	-1.487905e-09	-2.543318e+00	-9.668036e+01
1.780000e-06	-3.003656e-07	-1.434129e-09	-2.217760e+00	-9.292422e+01
1.790000e-06	-2.562763e-07	-1.378153e-09	-1.892225e+00	-8.905451e+01
1.800000e-06	-2.122007e-07	-1.318824e-09	-1.566791e+00	-8.507123e+01
1.810000e-06	-1.681136e-07	-1.256974e-09	-1.241272e+00	-8.097494e+01
1.820000e-06	-1.239906e-07	-1.196371e-09	-9.154885e-01	-7.676675e+01
1.830000e-06	-7.983975e-08	-1.136020e-09	-5.894995e-01	-7.244835e+01
1.840000e-06	-3.572452e-08	-1.073833e-09	-2.637732e-01	-6.802197e+01
1.850000e-06	8.359561e-09	-1.007941e-09	6.172310e-02	-6.349044e+01
1.860000e-06	5.244805e-08	-9.372559e-10	3.872519e-01	-5.885715e+01
1.870000e-06	9.650920e-08	-8.638785e-10	7.125789e-01	-5.412603e+01
1.880000e-06	1.405675e-07	-7.918906e-10	1.037885e+00	-4.930157e+01
1.890000e-06	1.846592e-07	-7.204231e-10	1.363438e+00	-4.438876e+01
1.900000e-06	2.287582e-07	-6.431729e-10	1.689044e+00	-3.939312e+01
1.910000e-06	2.728565e-07	-5.624032e-10	2.014645e+00	-3.432062e+01
1.920000e-06	3.169730e-07	-4.856690e-10	2.340381e+00	-2.917767e+01
1.930000e-06	3.610521e-07	-4.095201e-10	2.665840e+00	-2.397109e+01
1.940000e-06	4.050898e-07	-3.294590e-10	2.990994e+00	-1.870808e+01
1.950000e-06	4.491342e-07	-2.484621e-10	3.316197e+00	-1.339616e+01
1.960000e-06	4.931444e-07	-1.679969e-10	3.641148e+00	-8.043110e+00
1.970000e-06	5.371372e-07	-8.647441e-11	3.965971e+00	-2.656971e+00
1.980000e-06	5.811184e-07	-4.066277e-12	4.290707e+00	2.754039e+00
1.990000e-06	6.250542e-07	7.953063e-11	4.615108e+00	8.181568e+00
2.000000e-06	6.689347e-07	1.636534e-10	4.939102e+00	1.361717e+01
2.010000e-06	7.127973e-07	2.462224e-10	5.262963e+00	1.905238e+01
2.020000e-06	7.566566e-07	3.298936e-10	5.586800e+00	2.447874e+01
2.030000e-06	8.004415e-07	4.143057e-10	5.910087e+00	2.988786e+01
2.040000e-06	8.441849e-07	4.953814e-10	6.233068e+00	3.527148e+01
2.050000e-06	8.879735e-07	5.755851e-10	6.556382e+00	4.062149e+01
2.060000e-06	9.317553e-07	6.572506e-10	6.879647e+00	4.593002e+01
2.070000e-06	9.755094e-07	7.375179e-10	7.202707e+00	5.118945e+01
2.080000e-06	1.019244e-06	8.175388e-10	7.525624e+00	5.639247e+01
2.090000e-06	1.062907e-06	8.999040e-10	7.848011e+00	6.153210e+01
2.100000e-06	1.106558e-06	9.803246e-10	8.170305e+00	6.660178e+01
2.110000e-06	1.150178e-06	1.055620e-09	8.492378e+00	7.159533e+01
2.120000e-06	1.193601e-06	1.127877e-09	8.812991e+00	7.650704e+01
2.130000e-06	1.236884e-06	1.199715e-09	9.132573e+00	8.133165e+01
2.140000e-06	1.280168e-06	1.269361e-09	9.452163e+00	8.606442e+01
2.150000e-06	1.323356e-06	1.335350e-09	9.771041e+00	9.070110e+01
2.160000e-06	1.366388e-06	1.402335e-09	1.008877e+01	9.523799e+01
2.170000e-06	1.409223e-06	1.466716e-09	1.040504e+01	9.967190e+01
2.180000e-06	1.451834e-06	1.526776e-09	1.071967e+01	1.040002e+02
2.190000e-06	1.494316e-06	1.587483e-09	1.103334e+01	1.082208e+02
2.200000e-06	1.536612e-06	1.646950e-09	1.134563e+01	1.123321e+02
2.210000e-06	1.578635e-06	1.702752e-09	1.165590e+01	1.163330e+02
2.220000e-06	1.620461e-06	1.756071e-09	1.196473e+01	1.202231e+02
2.230000e-06	1.662075e-06	1.807211e-09	1.227199e+01	1.240023e+02
2.240000e-06	1.703457e-06	1.855497e-09	1.257753e+01	1.276711e+02
2.250000e-06	1.744677e-06	1.904649e-09	1.288188e+01	1.312303e+02
2.260000e-06	1.785751e-06	1.954396e-09	1.318515e+01	1.346813e+02
2.270000e-06	1.826564e-06	2.000246e-09	1.348650e+01	1.380258e+02
2.280000e-06	1.867150e-06	2.044325e-09	1.378617e+01	1.412659e+02
2.290000e-06	1.907634e-06	2.086741e-09	1.408508e+01	1.444039e+02
2.300000e-06	1.947949e-06	2.128477e-09	1.438275e+01	1.474427e+02
2.310000e-06	1.988181e-06	2.169991e-09	1.467980e+01	1.503852e+02
2.320000e-06	2.028348e-06	2.209399e-09	1.497637e+01	1.532345e+02
2.330000e-06	2.068422e-06	2.246189e-09	1.527226e+01	1.559941e+02
2.340000e-06	2.108413e-06	2.283708e-09	1.556754e+01	1.586675e+02
2.350000e-06	2.148278e-06	2.322082e-09	1.586188e+01	1.612583e+02
2.360000e-06	2.188034e-06	2.359274e-09	1.615543e+01	1.637702e+02
2.370000e-06	2.227753e-06	2.396448e-09	1.644869e+01	1.662070e+02
2.380000e-06	2.267383e-06	2.435347e-09	1.674130e+01	1.685724e+02
2.390000e-06	2.306799e-06	2.473000e-09	1.703233e+01	1.708701e+02
2.400000e-06	2.346054e-06	2.507276e-09	1.732217e+01	1.731038e+02
2.410000e-06	2.385175e-06	2.539404e-09	1.761102e+01	1.752769e+02
2.420000e-06	2.424110e-06	2.569867e-09	1.789849e+01	1.773930e+02
2.430000e-06	2.462812e-06	2.599892e-09	1.818425e+01	1.794554e+02
2.440000e-06	2.501292e-06	2.631995e-09	1.846837e+01	1.814670e+02
2.450000e-06	2.539605e-06	2.664598e-09	1.875126e+01	1.834310e+02
2.460000e-06	2.577815e-06	2.694218e-09	1.903338e+01	1.853499e+02
2.470000e-06	2.615939e-06	2.722287e-09	1.931487e+01	1.872264e+02
2.480000e-06	2.653884e-06	2.750631e-09	1.959504e+01	1.890628e+02
2.490000e-06	2.691677e-06	2.780543e-09	1.987409e+01	1.908611e+02
2.500000e-06	2.729239e-06	2.809381e-09	2.015143e+01	1.926232e+02
2.510000e-06	2.766560e-06	2.834314e-09	2.042699e+01	1.943507e+02
2.520000e-06	2.803765e-06	2.857873e-09	2.070170e+01	1.960450e+02
2.530000e-06	2.840739e-06	2.883703e-09	2.097469e+01	1.977074e+02
2.540000e-06	2.877438e-06	2.907752e-09	2.124566e+01	1.993388e+02
2.550000e-06	2.913889e-06	2.928778e-09	2.151480e+01	2.009399e+02
2.560000e-06	2.950171e-06	2.952420e-09	2.178269e+01	2.025114e+02
2.570000e-06	2.986331e-06	2.978618e-09	2.204968e+01	2.040537e+02
2.580000e-06	3.022370e-06	3.002413e-09	2.231577e+01	2.055670e+02
2.590000e-06	3.058347e-06	3.024614e-09	2.258141e+01	2.070514e+02
2.600000e-06	3.094215e-06	3.044474e-09	2.284624e+01	2.085071e+02
2.610000e-06	3.129959e-06	3.065381e-09	2.311016e+01	2.099337e+02
2.620000e-06	3.165525e-06	3.087389e-09	2.337276e+01	2.113313e+02
2.630000e-06	3.200794e-06	3.108732e-09	2.363317e+01	2.126995e+02
2.640000e-06	3.235782e-06	3.124771e-09	2.389151e+01	2.140380e+02
2.650000e-06	3.270471e-06	3.139638e-09	2.414763e+01	2.153466e+02
2.660000e-06	3.304739e-06	3.159343e-09	2.440065e+01	2.166249e+02
2.670000e-06	3.338531e-06	3.180651e-09	2.465015e+01	2.178727e+02
2.680000e-06	3.371842e-06	3.199605e-09	2.489611e+01	2.190896e+02
2.690000e-06	3.404812e-06	3.218095e-09	2.513955e+01	2.202755e+02
2.700000e-06	3.437582e-06	3.236878e-09	2.538150e+01	2.214302e+02
2.710000e-06	3.470079e-06	3.253475e-09	2.562145e+01	2.225537e+02
2.720000e-06	3.502316e-06	3.267165e-09	2.585947e+01	2.236459e+02
2.730000e-06	3.534368e-06	3.278728e-09	2.609612e+01	2.247070e+02
2.740000e-06	3.566313e-06	3.291401e-09	2.633200e+01	2.257372e+02
2.750000e-06	3.598148e-06	3.307432e-09	2.656705e+01	2.267367e+02
2.760000e-06	3.629812e-06	3.323736e-09	2.680084e+01	2.277061e+02
2.770000e-06	3.661243e-06	3.338593e-09	2.703291e+01	2.286458e+02
2.780000e-06	3.692394e-06	3.353711e-09	2.726291e+01	2.295566e+02
2.790000e-06	3.723244e-06	3.369600e-09	2.749070e+01	2.304391e+02
2.800000e-06	3.753815e-06	3.384160e-09	2.771642e+01	2.312943e+02
2.810000e-06	3.784163e-06	3.396568e-09	2.794049e+01	2.321230e+02
2.820000e-06	3.814274e-06	3.408530e-09	2.816282e+01	2.329264e+02
2.830000e-06	3.844112e-06	3.418458e-09	2.838313e+01	2.337056e+02
2.840000e-06	3.873701e-06	3.429537e-09	2.860160e+01	2.344616e+02
2.850000e-06	3.903080e-06	3.441792e-09	2.881852e+01	2.351959e+02
2.860000e-06	3.932152e-06	3.453437e-09	2.903317e+01	2.359097e+02
2.870000e-06	3.960956e-06	3.464290e-09	2.924585e+01	2.366043e+02
2.880000e-06	3.989573e-06	3.477166e-09	2.945715e+01	2.372810e+02
2.890000e-06	4.017919e-06	3.489604e-09	2.966644e+01	2.379413e+02
2.900000e-06	4.046023e-06	3.502649e-09	2.987395e+01	2.385863e+02
