# Temperatura_=_20.0
# Concentracion g/m^3_=_9000.0
# C_Vs_to_Am_M_A/Vsm_=_65563218390.804596
# pendiente_HvsI_1/m_=_3716.3
# ordenada_HvsI_A/m_=_1297.0
# frecuencia_Hz_=_135105.29002807898

Tiempo_(s)	Campo_(V.s)	Magnetizacion_(V.s)	Campo_(kA/m)	Magnetizacion_(A/m)
0.000000e+00	-5.200406e-06	-4.033543e-09	-3.837421e+01	-2.618525e+02
1.000000e-08	-5.200540e-06	-4.033525e-09	-3.837519e+01	-2.618566e+02
2.000000e-08	-5.200519e-06	-4.033815e-09	-3.837504e+01	-2.618467e+02
3.000000e-08	-5.200300e-06	-4.035966e-09	-3.837342e+01	-2.618223e+02
4.000000e-08	-5.199765e-06	-4.039379e-09	-3.836948e+01	-2.617830e+02
5.000000e-08	-5.198760e-06	-4.039996e-09	-3.836206e+01	-2.617284e+02
6.000000e-08	-5.197172e-06	-4.034439e-09	-3.835034e+01	-2.616584e+02
7.000000e-08	-5.194977e-06	-4.025202e-09	-3.833414e+01	-2.615729e+02
8.000000e-08	-5.192200e-06	-4.022928e-09	-3.831365e+01	-2.614719e+02
9.000000e-08	-5.188863e-06	-4.054923e-09	-3.828903e+01	-2.613555e+02
1.000000e-07	-5.185048e-06	-4.116038e-09	-3.826088e+01	-2.612241e+02
1.100000e-07	-5.180910e-06	-4.099222e-09	-3.823034e+01	-2.610779e+02
1.200000e-07	-5.176581e-06	-3.943181e-09	-3.819840e+01	-2.609175e+02
1.300000e-07	-5.172140e-06	-3.899645e-09	-3.816563e+01	-2.607434e+02
1.400000e-07	-5.167390e-06	-4.021488e-09	-3.813058e+01	-2.605565e+02
1.500000e-07	-5.162154e-06	-4.156927e-09	-3.809194e+01	-2.603575e+02
1.600000e-07	-5.156465e-06	-4.069860e-09	-3.804996e+01	-2.601473e+02
1.700000e-07	-5.150475e-06	-3.924395e-09	-3.800576e+01	-2.599269e+02
1.800000e-07	-5.144175e-06	-3.980093e-09	-3.795927e+01	-2.596975e+02
1.900000e-07	-5.137448e-06	-4.108063e-09	-3.790964e+01	-2.594603e+02
2.000000e-07	-5.130406e-06	-4.155950e-09	-3.785767e+01	-2.592163e+02
2.100000e-07	-5.123167e-06	-4.022793e-09	-3.780425e+01	-2.589669e+02
2.200000e-07	-5.115618e-06	-3.938027e-09	-3.774855e+01	-2.587133e+02
2.300000e-07	-5.107691e-06	-3.966286e-09	-3.769006e+01	-2.584569e+02
2.400000e-07	-5.099545e-06	-4.085645e-09	-3.762994e+01	-2.581989e+02
2.500000e-07	-5.091116e-06	-4.003854e-09	-3.756774e+01	-2.579406e+02
2.600000e-07	-5.082085e-06	-3.804340e-09	-3.750111e+01	-2.576833e+02
2.700000e-07	-5.072345e-06	-3.751746e-09	-3.742923e+01	-2.574282e+02
2.800000e-07	-5.062378e-06	-3.942872e-09	-3.735568e+01	-2.571764e+02
2.900000e-07	-5.052122e-06	-3.974676e-09	-3.728001e+01	-2.569290e+02
3.000000e-07	-5.041074e-06	-3.742984e-09	-3.719848e+01	-2.566869e+02
3.100000e-07	-5.029437e-06	-3.644858e-09	-3.711261e+01	-2.564510e+02
3.200000e-07	-5.017537e-06	-3.847635e-09	-3.702480e+01	-2.562221e+02
3.300000e-07	-5.005291e-06	-3.931851e-09	-3.693443e+01	-2.560009e+02
3.400000e-07	-4.992657e-06	-3.765595e-09	-3.684121e+01	-2.557877e+02
3.500000e-07	-4.979666e-06	-3.698540e-09	-3.674535e+01	-2.555830e+02
3.600000e-07	-4.966224e-06	-3.803648e-09	-3.664616e+01	-2.553870e+02
3.700000e-07	-4.952429e-06	-3.865017e-09	-3.654437e+01	-2.551998e+02
3.800000e-07	-4.938344e-06	-3.833311e-09	-3.644043e+01	-2.550211e+02
3.900000e-07	-4.923826e-06	-3.820875e-09	-3.633330e+01	-2.548509e+02
4.000000e-07	-4.908771e-06	-3.717948e-09	-3.622220e+01	-2.546886e+02
4.100000e-07	-4.893075e-06	-3.736288e-09	-3.610639e+01	-2.545337e+02
4.200000e-07	-4.876929e-06	-3.889000e-09	-3.598724e+01	-2.543855e+02
4.300000e-07	-4.860421e-06	-3.896141e-09	-3.586543e+01	-2.542432e+02
4.400000e-07	-4.843412e-06	-3.701268e-09	-3.573992e+01	-2.541056e+02
4.500000e-07	-4.826155e-06	-3.769879e-09	-3.561258e+01	-2.539718e+02
4.600000e-07	-4.808713e-06	-3.986252e-09	-3.548387e+01	-2.538404e+02
4.700000e-07	-4.790921e-06	-3.925886e-09	-3.535258e+01	-2.537101e+02
4.800000e-07	-4.772843e-06	-3.728285e-09	-3.521918e+01	-2.535795e+02
4.900000e-07	-4.754521e-06	-3.827567e-09	-3.508398e+01	-2.534471e+02
5.000000e-07	-4.735808e-06	-3.968750e-09	-3.494590e+01	-2.533113e+02
5.100000e-07	-4.716638e-06	-3.876805e-09	-3.480444e+01	-2.531705e+02
5.200000e-07	-4.697097e-06	-3.769557e-09	-3.466024e+01	-2.530231e+02
5.300000e-07	-4.677308e-06	-3.834422e-09	-3.451422e+01	-2.528674e+02
5.400000e-07	-4.657340e-06	-3.864976e-09	-3.436688e+01	-2.527018e+02
5.500000e-07	-4.637204e-06	-3.827631e-09	-3.421829e+01	-2.525246e+02
5.600000e-07	-4.616886e-06	-3.825994e-09	-3.406837e+01	-2.523344e+02
5.700000e-07	-4.596346e-06	-3.818986e-09	-3.391680e+01	-2.521295e+02
5.800000e-07	-4.575389e-06	-3.783061e-09	-3.376216e+01	-2.519087e+02
5.900000e-07	-4.554014e-06	-3.808695e-09	-3.360443e+01	-2.516705e+02
6.000000e-07	-4.532358e-06	-3.847825e-09	-3.344463e+01	-2.514137e+02
6.100000e-07	-4.510426e-06	-3.777990e-09	-3.328279e+01	-2.511372e+02
6.200000e-07	-4.488213e-06	-3.720067e-09	-3.311888e+01	-2.508401e+02
6.300000e-07	-4.465722e-06	-3.782388e-09	-3.295292e+01	-2.505215e+02
6.400000e-07	-4.442930e-06	-3.828265e-09	-3.278473e+01	-2.501807e+02
6.500000e-07	-4.419733e-06	-3.742157e-09	-3.261356e+01	-2.498172e+02
6.600000e-07	-4.396195e-06	-3.705273e-09	-3.243987e+01	-2.494308e+02
6.700000e-07	-4.372472e-06	-3.768173e-09	-3.226482e+01	-2.490210e+02
6.800000e-07	-4.348577e-06	-3.787427e-09	-3.208849e+01	-2.485880e+02
6.900000e-07	-4.324489e-06	-3.716614e-09	-3.191074e+01	-2.481319e+02
7.000000e-07	-4.300148e-06	-3.700678e-09	-3.173113e+01	-2.476530e+02
7.100000e-07	-4.275453e-06	-3.728347e-09	-3.154890e+01	-2.471518e+02
7.200000e-07	-4.250350e-06	-3.732104e-09	-3.136366e+01	-2.466288e+02
7.300000e-07	-4.224757e-06	-3.703629e-09	-3.117481e+01	-2.460848e+02
7.400000e-07	-4.198734e-06	-3.694826e-09	-3.098279e+01	-2.455207e+02
7.500000e-07	-4.172310e-06	-3.688724e-09	-3.078780e+01	-2.449375e+02
7.600000e-07	-4.145335e-06	-3.692214e-09	-3.058875e+01	-2.443364e+02
7.700000e-07	-4.117940e-06	-3.692228e-09	-3.038660e+01	-2.437184e+02
7.800000e-07	-4.090324e-06	-3.674305e-09	-3.018282e+01	-2.430850e+02
7.900000e-07	-4.062497e-06	-3.639557e-09	-2.997749e+01	-2.424374e+02
8.000000e-07	-4.034469e-06	-3.636521e-09	-2.977066e+01	-2.417771e+02
8.100000e-07	-4.006270e-06	-3.656584e-09	-2.956258e+01	-2.411053e+02
8.200000e-07	-3.977865e-06	-3.644309e-09	-2.935298e+01	-2.404236e+02
8.300000e-07	-3.949184e-06	-3.599425e-09	-2.914134e+01	-2.397332e+02
8.400000e-07	-3.920249e-06	-3.597080e-09	-2.892782e+01	-2.390356e+02
8.500000e-07	-3.890998e-06	-3.629399e-09	-2.871198e+01	-2.383320e+02
8.600000e-07	-3.861429e-06	-3.614196e-09	-2.849378e+01	-2.376237e+02
8.700000e-07	-3.831693e-06	-3.570766e-09	-2.827436e+01	-2.369118e+02
8.800000e-07	-3.801768e-06	-3.563640e-09	-2.805354e+01	-2.361973e+02
8.900000e-07	-3.771565e-06	-3.578506e-09	-2.783068e+01	-2.354812e+02
9.000000e-07	-3.740998e-06	-3.562340e-09	-2.760512e+01	-2.347643e+02
9.100000e-07	-3.710237e-06	-3.536135e-09	-2.737813e+01	-2.340471e+02
9.200000e-07	-3.679317e-06	-3.521092e-09	-2.714997e+01	-2.333302e+02
9.300000e-07	-3.648081e-06	-3.516789e-09	-2.691948e+01	-2.326139e+02
9.400000e-07	-3.616585e-06	-3.509779e-09	-2.668707e+01	-2.318984e+02
9.500000e-07	-3.584888e-06	-3.502974e-09	-2.645317e+01	-2.311836e+02
9.600000e-07	-3.553059e-06	-3.484095e-09	-2.621830e+01	-2.304695e+02
9.700000e-07	-3.521078e-06	-3.467122e-09	-2.598231e+01	-2.297556e+02
9.800000e-07	-3.488968e-06	-3.462193e-09	-2.574537e+01	-2.290414e+02
9.900000e-07	-3.456646e-06	-3.460893e-09	-2.550686e+01	-2.283263e+02
1.000000e-06	-3.423996e-06	-3.438259e-09	-2.526593e+01	-2.276094e+02
1.010000e-06	-3.391043e-06	-3.413789e-09	-2.502277e+01	-2.268897e+02
1.020000e-06	-3.357761e-06	-3.406473e-09	-2.477718e+01	-2.261661e+02
1.030000e-06	-3.324002e-06	-3.407040e-09	-2.452807e+01	-2.254374e+02
1.040000e-06	-3.289725e-06	-3.392980e-09	-2.427514e+01	-2.247021e+02
1.050000e-06	-3.255129e-06	-3.375131e-09	-2.401986e+01	-2.239588e+02
1.060000e-06	-3.220257e-06	-3.364774e-09	-2.376253e+01	-2.232060e+02
1.070000e-06	-3.185069e-06	-3.356164e-09	-2.350288e+01	-2.224421e+02
1.080000e-06	-3.149610e-06	-3.340925e-09	-2.324122e+01	-2.216653e+02
1.090000e-06	-3.113923e-06	-3.326103e-09	-2.297788e+01	-2.208740e+02
1.100000e-06	-3.078130e-06	-3.312259e-09	-2.271376e+01	-2.200666e+02
1.110000e-06	-3.042207e-06	-3.295841e-09	-2.244869e+01	-2.192413e+02
1.120000e-06	-3.006153e-06	-3.281458e-09	-2.218264e+01	-2.183965e+02
1.130000e-06	-2.970011e-06	-3.268471e-09	-2.191594e+01	-2.175306e+02
1.140000e-06	-2.933704e-06	-3.253072e-09	-2.164804e+01	-2.166421e+02
1.150000e-06	-2.897240e-06	-3.235309e-09	-2.137896e+01	-2.157295e+02
1.160000e-06	-2.860532e-06	-3.220058e-09	-2.110809e+01	-2.147915e+02
1.170000e-06	-2.823543e-06	-3.203506e-09	-2.083515e+01	-2.138268e+02
1.180000e-06	-2.786399e-06	-3.185347e-09	-2.056106e+01	-2.128344e+02
1.190000e-06	-2.749072e-06	-3.166691e-09	-2.028562e+01	-2.118133e+02
1.200000e-06	-2.711487e-06	-3.150873e-09	-2.000828e+01	-2.107627e+02
1.210000e-06	-2.673649e-06	-3.133748e-09	-1.972907e+01	-2.096820e+02
1.220000e-06	-2.635698e-06	-3.116488e-09	-1.944902e+01	-2.085705e+02
1.230000e-06	-2.597654e-06	-3.101326e-09	-1.916829e+01	-2.074281e+02
1.240000e-06	-2.559429e-06	-3.086254e-09	-1.888622e+01	-2.062545e+02
1.250000e-06	-2.521060e-06	-3.066697e-09	-1.860310e+01	-2.050497e+02
1.260000e-06	-2.482467e-06	-3.047748e-09	-1.831832e+01	-2.038139e+02
1.270000e-06	-2.443564e-06	-3.030178e-09	-1.803125e+01	-2.025473e+02
1.280000e-06	-2.404435e-06	-3.011909e-09	-1.774252e+01	-2.012504e+02
1.290000e-06	-2.365134e-06	-2.988430e-09	-1.745251e+01	-1.999237e+02
1.300000e-06	-2.325762e-06	-2.965300e-09	-1.716198e+01	-1.985679e+02
1.310000e-06	-2.286312e-06	-2.943849e-09	-1.687088e+01	-1.971838e+02
1.320000e-06	-2.246731e-06	-2.924832e-09	-1.657880e+01	-1.957721e+02
1.330000e-06	-2.207012e-06	-2.903736e-09	-1.628572e+01	-1.943338e+02
1.340000e-06	-2.167182e-06	-2.881523e-09	-1.599181e+01	-1.928698e+02
1.350000e-06	-2.127301e-06	-2.859924e-09	-1.569752e+01	-1.913810e+02
1.360000e-06	-2.087286e-06	-2.840118e-09	-1.540224e+01	-1.898684e+02
1.370000e-06	-2.047141e-06	-2.820821e-09	-1.510601e+01	-1.883328e+02
1.380000e-06	-2.006890e-06	-2.798074e-09	-1.480900e+01	-1.867752e+02
1.390000e-06	-1.966562e-06	-2.770620e-09	-1.451141e+01	-1.851961e+02
1.400000e-06	-1.926217e-06	-2.743017e-09	-1.421371e+01	-1.835963e+02
1.410000e-06	-1.885783e-06	-2.719191e-09	-1.391534e+01	-1.819763e+02
1.420000e-06	-1.845164e-06	-2.695260e-09	-1.361561e+01	-1.803364e+02
1.430000e-06	-1.804265e-06	-2.666965e-09	-1.331381e+01	-1.786768e+02
1.440000e-06	-1.763006e-06	-2.638230e-09	-1.300936e+01	-1.769975e+02
1.450000e-06	-1.721609e-06	-2.614096e-09	-1.270389e+01	-1.752981e+02
1.460000e-06	-1.680202e-06	-2.589540e-09	-1.239834e+01	-1.735783e+02
1.470000e-06	-1.638686e-06	-2.561774e-09	-1.209199e+01	-1.718374e+02
1.480000e-06	-1.596992e-06	-2.531779e-09	-1.178433e+01	-1.700742e+02
1.490000e-06	-1.555002e-06	-2.501571e-09	-1.147448e+01	-1.682877e+02
1.500000e-06	-1.512687e-06	-2.470883e-09	-1.116224e+01	-1.664762e+02
1.510000e-06	-1.470141e-06	-2.442560e-09	-1.084828e+01	-1.646379e+02
1.520000e-06	-1.427415e-06	-2.414919e-09	-1.053300e+01	-1.627708e+02
1.530000e-06	-1.384592e-06	-2.387979e-09	-1.021702e+01	-1.608725e+02
1.540000e-06	-1.341676e-06	-2.362252e-09	-9.900336e+00	-1.589403e+02
1.550000e-06	-1.298534e-06	-2.337481e-09	-9.581988e+00	-1.569715e+02
1.560000e-06	-1.255188e-06	-2.307996e-09	-9.262128e+00	-1.549628e+02
1.570000e-06	-1.211815e-06	-2.273565e-09	-8.942076e+00	-1.529109e+02
1.580000e-06	-1.168409e-06	-2.237055e-09	-8.621781e+00	-1.508123e+02
1.590000e-06	-1.124924e-06	-2.201426e-09	-8.300905e+00	-1.486632e+02
1.600000e-06	-1.081382e-06	-2.163928e-09	-7.979604e+00	-1.464597e+02
1.610000e-06	-1.037762e-06	-2.126749e-09	-7.657726e+00	-1.441977e+02
1.620000e-06	-9.940366e-07	-2.090507e-09	-7.335074e+00	-1.418732e+02
1.630000e-06	-9.501968e-07	-2.052338e-09	-7.011577e+00	-1.394819e+02
1.640000e-06	-9.063056e-07	-2.014550e-09	-6.687701e+00	-1.370197e+02
1.650000e-06	-8.624151e-07	-1.977146e-09	-6.363829e+00	-1.344822e+02
1.660000e-06	-8.185282e-07	-1.938126e-09	-6.039984e+00	-1.318653e+02
1.670000e-06	-7.745992e-07	-1.896310e-09	-5.715829e+00	-1.291650e+02
1.680000e-06	-7.306219e-07	-1.853904e-09	-5.391316e+00	-1.263772e+02
1.690000e-06	-6.866531e-07	-1.812559e-09	-5.066867e+00	-1.234981e+02
1.700000e-06	-6.426817e-07	-1.770314e-09	-4.742399e+00	-1.205243e+02
1.710000e-06	-5.986614e-07	-1.724758e-09	-4.417570e+00	-1.174522e+02
1.720000e-06	-5.546446e-07	-1.679669e-09	-4.092766e+00	-1.142789e+02
1.730000e-06	-5.106126e-07	-1.636160e-09	-3.767850e+00	-1.110015e+02
1.740000e-06	-4.665656e-07	-1.590048e-09	-3.442824e+00	-1.076177e+02
1.750000e-06	-4.225013e-07	-1.538239e-09	-3.117671e+00	-1.041254e+02
1.760000e-06	-3.784069e-07	-1.484530e-09	-2.792294e+00	-1.005231e+02
1.770000e-06	-3.342851e-07	-1.432027e-09	-2.466716e+00	-9.680964e+01
1.780000e-06	-2.901163e-07	-1.377534e-09	-2.140791e+00	-9.298427e+01
1.790000e-06	-2.459468e-07	-1.319159e-09	-1.814861e+00	-8.904681e+01
1.800000e-06	-2.018136e-07	-1.258376e-09	-1.489198e+00	-8.499760e+01
1.810000e-06	-1.577168e-07	-1.196030e-09	-1.163805e+00	-8.083746e+01
1.820000e-06	-1.136095e-07	-1.134136e-09	-8.383335e-01	-7.656779e+01
1.830000e-06	-6.949672e-08	-1.072750e-09	-5.128218e-01	-7.219048e+01
1.840000e-06	-2.537623e-08	-1.008859e-09	-1.872532e-01	-6.770799e+01
1.850000e-06	1.877615e-08	-9.415684e-10	1.385507e-01	-6.312333e+01
1.860000e-06	6.289508e-08	-8.722820e-10	4.641077e-01	-5.844001e+01
1.870000e-06	1.069697e-07	-8.000431e-10	7.893379e-01	-5.366210e+01
1.880000e-06	1.510658e-07	-7.263709e-10	1.114726e+00	-4.879415e+01
1.890000e-06	1.951740e-07	-6.503065e-10	1.440204e+00	-4.384121e+01
1.900000e-06	2.392833e-07	-5.727050e-10	1.765691e+00	-3.880879e+01
1.910000e-06	2.834084e-07	-4.934863e-10	2.091293e+00	-3.370284e+01
1.920000e-06	3.275073e-07	-4.163837e-10	2.416702e+00	-2.852972e+01
1.930000e-06	3.715568e-07	-3.385969e-10	2.741747e+00	-2.329617e+01
1.940000e-06	4.156056e-07	-2.579777e-10	3.066787e+00	-1.800925e+01
1.950000e-06	4.596750e-07	-1.775635e-10	3.391978e+00	-1.267635e+01
1.960000e-06	5.037447e-07	-9.636384e-11	3.717172e+00	-7.305076e+00
1.970000e-06	5.477773e-07	-1.380668e-11	4.042092e+00	-1.903279e+00
1.980000e-06	5.917431e-07	7.080888e-11	4.366519e+00	3.521037e+00
1.990000e-06	6.357064e-07	1.562144e-10	4.690928e+00	8.959742e+00
2.000000e-06	6.796858e-07	2.424098e-10	5.015455e+00	1.440464e+01
2.010000e-06	7.236698e-07	3.268454e-10	5.340017e+00	1.984750e+01
2.020000e-06	7.676732e-07	4.096562e-10	5.664721e+00	2.528011e+01
2.030000e-06	8.116326e-07	4.925217e-10	5.989101e+00	3.069436e+01
2.040000e-06	8.555592e-07	5.754343e-10	6.313239e+00	3.608221e+01
2.050000e-06	8.994772e-07	6.577424e-10	6.637313e+00	4.143583e+01
2.060000e-06	9.433583e-07	7.395214e-10	6.961115e+00	4.674756e+01
2.070000e-06	9.872127e-07	8.204100e-10	7.284720e+00	5.201001e+01
2.080000e-06	1.031028e-06	9.023167e-10	7.608039e+00	5.721607e+01
2.090000e-06	1.074704e-06	9.837614e-10	7.930326e+00	6.235897e+01
2.100000e-06	1.118269e-06	1.063988e-09	8.251792e+00	6.743229e+01
2.110000e-06	1.161790e-06	1.140863e-09	8.572939e+00	7.242999e+01
2.120000e-06	1.205191e-06	1.215505e-09	8.893198e+00	7.734648e+01
2.130000e-06	1.248445e-06	1.288150e-09	9.212375e+00	8.217660e+01
2.140000e-06	1.291633e-06	1.359649e-09	9.531061e+00	8.691565e+01
2.150000e-06	1.334780e-06	1.428587e-09	9.849443e+00	9.155943e+01
2.160000e-06	1.377789e-06	1.495336e-09	1.016681e+01	9.610420e+01
2.170000e-06	1.420559e-06	1.560454e-09	1.048242e+01	1.005468e+02
2.180000e-06	1.463077e-06	1.623087e-09	1.079616e+01	1.048844e+02
2.190000e-06	1.505405e-06	1.684288e-09	1.110850e+01	1.091150e+02
2.200000e-06	1.547641e-06	1.741671e-09	1.142016e+01	1.132367e+02
2.210000e-06	1.589659e-06	1.795929e-09	1.173022e+01	1.172485e+02
2.220000e-06	1.631446e-06	1.847623e-09	1.203857e+01	1.211496e+02
2.230000e-06	1.673139e-06	1.896061e-09	1.234622e+01	1.249397e+02
2.240000e-06	1.714522e-06	1.942305e-09	1.265159e+01	1.286192e+02
2.250000e-06	1.755587e-06	1.989873e-09	1.295461e+01	1.321887e+02
2.260000e-06	1.796514e-06	2.038779e-09	1.325662e+01	1.356493e+02
2.270000e-06	1.837283e-06	2.086416e-09	1.355746e+01	1.390024e+02
2.280000e-06	1.877879e-06	2.131969e-09	1.385701e+01	1.422499e+02
2.290000e-06	1.918332e-06	2.175479e-09	1.415552e+01	1.453939e+02
2.300000e-06	1.958643e-06	2.217386e-09	1.445298e+01	1.484369e+02
2.310000e-06	1.998889e-06	2.258240e-09	1.474996e+01	1.513816e+02
2.320000e-06	2.039069e-06	2.295768e-09	1.504645e+01	1.542310e+02
2.330000e-06	2.079150e-06	2.332505e-09	1.534221e+01	1.569883e+02
2.340000e-06	2.119186e-06	2.368265e-09	1.563764e+01	1.596566e+02
2.350000e-06	2.159141e-06	2.403156e-09	1.593247e+01	1.622396e+02
2.360000e-06	2.198994e-06	2.439195e-09	1.622655e+01	1.647407e+02
2.370000e-06	2.238738e-06	2.476517e-09	1.651982e+01	1.671635e+02
2.380000e-06	2.278341e-06	2.514487e-09	1.681205e+01	1.695116e+02
2.390000e-06	2.317860e-06	2.549117e-09	1.710367e+01	1.717887e+02
2.400000e-06	2.357232e-06	2.581132e-09	1.739420e+01	1.739984e+02
2.410000e-06	2.396323e-06	2.612120e-09	1.768265e+01	1.761442e+02
2.420000e-06	2.435209e-06	2.642145e-09	1.796960e+01	1.782295e+02
2.430000e-06	2.473953e-06	2.672860e-09	1.825549e+01	1.802577e+02
2.440000e-06	2.512448e-06	2.703485e-09	1.853955e+01	1.822319e+02
2.450000e-06	2.550717e-06	2.734099e-09	1.882194e+01	1.841554e+02
2.460000e-06	2.588871e-06	2.763764e-09	1.910348e+01	1.860309e+02
2.470000e-06	2.626884e-06	2.791454e-09	1.938398e+01	1.878612e+02
2.480000e-06	2.664750e-06	2.818230e-09	1.966340e+01	1.896487e+02
2.490000e-06	2.702515e-06	2.845417e-09	1.994207e+01	1.913960e+02
2.500000e-06	2.740068e-06	2.873050e-09	2.021917e+01	1.931050e+02
2.510000e-06	2.777349e-06	2.897627e-09	2.049428e+01	1.947778e+02
2.520000e-06	2.814386e-06	2.920352e-09	2.076757e+01	1.964161e+02
2.530000e-06	2.851141e-06	2.943637e-09	2.103879e+01	1.980213e+02
2.540000e-06	2.887739e-06	2.967998e-09	2.130885e+01	1.995949e+02
2.550000e-06	2.924195e-06	2.992536e-09	2.157786e+01	2.011380e+02
2.560000e-06	2.960483e-06	3.015653e-09	2.184564e+01	2.026515e+02
2.570000e-06	2.996640e-06	3.038536e-09	2.211244e+01	2.041363e+02
2.580000e-06	3.032659e-06	3.062628e-09	2.237823e+01	2.055930e+02
2.590000e-06	3.068596e-06	3.085482e-09	2.264341e+01	2.070221e+02
2.600000e-06	3.104458e-06	3.104903e-09	2.290804e+01	2.084240e+02
2.610000e-06	3.140252e-06	3.125781e-09	2.317217e+01	2.097988e+02
2.620000e-06	3.175879e-06	3.147807e-09	2.343506e+01	2.111468e+02
2.630000e-06	3.211166e-06	3.168227e-09	2.369545e+01	2.124681e+02
2.640000e-06	3.246175e-06	3.186288e-09	2.395378e+01	2.137625e+02
2.650000e-06	3.280838e-06	3.204674e-09	2.420956e+01	2.150302e+02
2.660000e-06	3.315041e-06	3.222993e-09	2.446195e+01	2.162709e+02
2.670000e-06	3.348760e-06	3.242035e-09	2.471077e+01	2.174846e+02
2.680000e-06	3.382007e-06	3.262792e-09	2.495609e+01	2.186712e+02
2.690000e-06	3.414847e-06	3.282573e-09	2.519842e+01	2.198306e+02
2.700000e-06	3.447382e-06	3.299298e-09	2.543850e+01	2.209628e+02
2.710000e-06	3.479756e-06	3.314614e-09	2.567739e+01	2.220676e+02
2.720000e-06	3.511968e-06	3.330749e-09	2.591509e+01	2.231451e+02
2.730000e-06	3.544019e-06	3.346251e-09	2.615160e+01	2.241953e+02
2.740000e-06	3.575948e-06	3.361168e-09	2.638720e+01	2.252185e+02
2.750000e-06	3.607766e-06	3.377268e-09	2.662199e+01	2.262147e+02
2.760000e-06	3.639430e-06	3.393515e-09	2.685564e+01	2.271843e+02
2.770000e-06	3.670898e-06	3.408073e-09	2.708784e+01	2.281276e+02
2.780000e-06	3.702116e-06	3.422202e-09	2.731821e+01	2.290450e+02
2.790000e-06	3.732950e-06	3.436121e-09	2.754573e+01	2.299371e+02
2.800000e-06	3.763426e-06	3.447901e-09	2.777062e+01	2.308043e+02
2.810000e-06	3.793651e-06	3.459190e-09	2.799365e+01	2.316475e+02
2.820000e-06	3.823602e-06	3.471605e-09	2.821466e+01	2.324671e+02
2.830000e-06	3.853341e-06	3.483348e-09	2.843411e+01	2.332642e+02
2.840000e-06	3.882904e-06	3.494360e-09	2.865225e+01	2.340394e+02
2.850000e-06	3.912223e-06	3.505853e-09	2.886860e+01	2.347937e+02
2.860000e-06	3.941196e-06	3.517511e-09	2.908239e+01	2.355280e+02
2.870000e-06	3.969864e-06	3.528588e-09	2.929394e+01	2.362432e+02
2.880000e-06	3.998308e-06	3.540480e-09	2.950383e+01	2.369404e+02
2.890000e-06	4.026525e-06	3.551152e-09	2.971205e+01	2.376205e+02
2.900000e-06	4.054603e-06	3.562449e-09	2.991923e+01	2.382845e+02
