# Temperatura_=_20.0
# Concentracion g/m^3_=_9000.0
# C_Vs_to_Am_M_A/Vsm_=_65563218390.804596
# pendiente_HvsI_1/m_=_3716.3
# ordenada_HvsI_A/m_=_1297.0
# frecuencia_Hz_=_135104.87819065846

Tiempo_(s)	Campo_(V.s)	Magnetizacion_(V.s)	Campo_(kA/m)	Magnetizacion_(A/m)
0.000000e+00	-5.209094e-06	-1.303607e-10	-3.837632e+01	-1.182106e+00
1.000000e-08	-5.209162e-06	-1.317490e-10	-3.837682e+01	-1.187396e+00
2.000000e-08	-5.208969e-06	-1.310593e-10	-3.837540e+01	-1.191747e+00
3.000000e-08	-5.208409e-06	-1.268401e-10	-3.837127e+01	-1.195091e+00
4.000000e-08	-5.207452e-06	-1.239135e-10	-3.836422e+01	-1.197375e+00
5.000000e-08	-5.205915e-06	-1.280292e-10	-3.835290e+01	-1.198553e+00
6.000000e-08	-5.203693e-06	-1.370109e-10	-3.833653e+01	-1.198594e+00
7.000000e-08	-5.200982e-06	-1.189030e-10	-3.831655e+01	-1.197477e+00
8.000000e-08	-5.197815e-06	-7.002022e-11	-3.829322e+01	-1.195193e+00
9.000000e-08	-5.194117e-06	-1.003563e-10	-3.826598e+01	-1.191747e+00
1.000000e-07	-5.190035e-06	-2.391174e-10	-3.823591e+01	-1.187152e+00
1.100000e-07	-5.185766e-06	-2.478141e-10	-3.820446e+01	-1.181436e+00
1.200000e-07	-5.181300e-06	-6.551130e-11	-3.817155e+01	-1.174635e+00
1.300000e-07	-5.176523e-06	1.375010e-11	-3.813636e+01	-1.166797e+00
1.400000e-07	-5.171389e-06	-1.537963e-10	-3.809854e+01	-1.157980e+00
1.500000e-07	-5.165910e-06	-3.105399e-10	-3.805817e+01	-1.148249e+00
1.600000e-07	-5.160017e-06	-1.494597e-10	-3.801476e+01	-1.137679e+00
1.700000e-07	-5.153683e-06	4.601459e-11	-3.796810e+01	-1.126350e+00
1.800000e-07	-5.147077e-06	-2.536019e-12	-3.791943e+01	-1.114348e+00
1.900000e-07	-5.140303e-06	-1.854786e-10	-3.786952e+01	-1.101763e+00
2.000000e-07	-5.133198e-06	-2.225011e-10	-3.781717e+01	-1.088690e+00
2.100000e-07	-5.125690e-06	-7.310467e-11	-3.776186e+01	-1.075225e+00
2.200000e-07	-5.117952e-06	3.418385e-11	-3.770486e+01	-1.061464e+00
2.300000e-07	-5.110014e-06	-7.440596e-11	-3.764638e+01	-1.047503e+00
2.400000e-07	-5.101571e-06	-3.011734e-10	-3.758417e+01	-1.033437e+00
2.500000e-07	-5.092371e-06	-2.662027e-10	-3.751640e+01	-1.019356e+00
2.600000e-07	-5.082764e-06	-3.117121e-11	-3.744562e+01	-1.005348e+00
2.700000e-07	-5.072860e-06	-1.665128e-11	-3.737266e+01	-9.914946e-01
2.800000e-07	-5.062369e-06	-2.922507e-10	-3.729537e+01	-9.778714e-01
2.900000e-07	-5.051296e-06	-3.304129e-10	-3.721379e+01	-9.645468e-01
3.000000e-07	-5.039864e-06	-5.194911e-11	-3.712957e+01	-9.515809e-01
3.100000e-07	-5.028078e-06	1.892783e-11	-3.704274e+01	-9.390255e-01
3.200000e-07	-5.015844e-06	-2.355894e-10	-3.695261e+01	-9.269228e-01
3.300000e-07	-5.003251e-06	-2.702667e-10	-3.685984e+01	-9.153053e-01
3.400000e-07	-4.990272e-06	-3.368118e-11	-3.676422e+01	-9.041955e-01
3.500000e-07	-4.976909e-06	8.681737e-12	-3.666577e+01	-8.936056e-01
3.600000e-07	-4.963242e-06	-1.500042e-10	-3.656508e+01	-8.835375e-01
3.700000e-07	-4.949224e-06	-1.680010e-10	-3.646181e+01	-8.739830e-01
3.800000e-07	-4.934716e-06	-1.343689e-10	-3.635493e+01	-8.649239e-01
3.900000e-07	-4.919648e-06	-1.320200e-10	-3.624392e+01	-8.563324e-01
4.000000e-07	-4.904039e-06	-3.524603e-11	-3.612893e+01	-8.481719e-01
4.100000e-07	-4.887914e-06	-5.620109e-11	-3.601013e+01	-8.403971e-01
4.200000e-07	-4.871407e-06	-2.349068e-10	-3.588852e+01	-8.329552e-01
4.300000e-07	-4.854714e-06	-1.528845e-10	-3.576553e+01	-8.257867e-01
4.400000e-07	-4.837715e-06	1.251922e-10	-3.564030e+01	-8.188262e-01
4.500000e-07	-4.820326e-06	2.023906e-11	-3.551219e+01	-8.120033e-01
4.600000e-07	-4.802573e-06	-2.356039e-10	-3.538140e+01	-8.052440e-01
4.700000e-07	-4.784514e-06	-7.312929e-11	-3.524836e+01	-7.984719e-01
4.800000e-07	-4.766159e-06	1.811410e-10	-3.511314e+01	-7.916089e-01
4.900000e-07	-4.747386e-06	1.669001e-11	-3.497484e+01	-7.845770e-01
5.000000e-07	-4.728229e-06	-1.672641e-10	-3.483370e+01	-7.772989e-01
5.100000e-07	-4.708823e-06	-2.520454e-11	-3.469073e+01	-7.696998e-01
5.200000e-07	-4.689212e-06	9.980147e-11	-3.454626e+01	-7.617081e-01
5.300000e-07	-4.669339e-06	-5.290093e-12	-3.439984e+01	-7.532566e-01
5.400000e-07	-4.649267e-06	-6.626484e-11	-3.425197e+01	-7.442840e-01
5.500000e-07	-4.628948e-06	-2.242664e-11	-3.410228e+01	-7.347352e-01
5.600000e-07	-4.608311e-06	1.423540e-12	-3.395025e+01	-7.245626e-01
5.700000e-07	-4.587315e-06	1.767516e-11	-3.379557e+01	-7.137271e-01
5.800000e-07	-4.565972e-06	3.094350e-11	-3.363832e+01	-7.021981e-01
5.900000e-07	-4.544364e-06	-3.727547e-11	-3.347913e+01	-6.899548e-01
6.000000e-07	-4.522489e-06	-7.162653e-11	-3.331798e+01	-6.769864e-01
6.100000e-07	-4.500365e-06	3.115417e-11	-3.315498e+01	-6.632920e-01
6.200000e-07	-4.477903e-06	7.788859e-11	-3.298950e+01	-6.488814e-01
6.300000e-07	-4.455066e-06	-4.199401e-11	-3.282126e+01	-6.337747e-01
6.400000e-07	-4.431938e-06	-8.752046e-11	-3.265087e+01	-6.180023e-01
6.500000e-07	-4.408538e-06	3.651416e-11	-3.247848e+01	-6.016045e-01
6.600000e-07	-4.384904e-06	7.611799e-11	-3.230436e+01	-5.846314e-01
6.700000e-07	-4.361032e-06	-2.794871e-11	-3.212850e+01	-5.671420e-01
6.800000e-07	-4.336849e-06	-6.099644e-11	-3.195033e+01	-5.492037e-01
6.900000e-07	-4.312371e-06	1.404241e-11	-3.177000e+01	-5.308915e-01
7.000000e-07	-4.287578e-06	4.168035e-11	-3.158735e+01	-5.122869e-01
7.100000e-07	-4.262357e-06	4.097975e-12	-3.140154e+01	-4.934772e-01
7.200000e-07	-4.236694e-06	-2.202247e-11	-3.121247e+01	-4.745539e-01
7.300000e-07	-4.210589e-06	-8.920041e-12	-3.102016e+01	-4.556120e-01
7.400000e-07	-4.183999e-06	1.680977e-11	-3.082426e+01	-4.367486e-01
7.500000e-07	-4.157038e-06	3.060723e-11	-3.062563e+01	-4.180614e-01
7.600000e-07	-4.129771e-06	7.250179e-12	-3.042476e+01	-3.996474e-01
7.700000e-07	-4.102222e-06	-1.879701e-11	-3.022180e+01	-3.816020e-01
7.800000e-07	-4.074452e-06	-6.423435e-12	-3.001721e+01	-3.640171e-01
7.900000e-07	-4.046520e-06	3.069881e-11	-2.981143e+01	-3.469799e-01
8.000000e-07	-4.018405e-06	2.257900e-11	-2.960430e+01	-3.305720e-01
8.100000e-07	-3.990017e-06	-1.951524e-11	-2.939516e+01	-3.148678e-01
8.200000e-07	-3.961340e-06	-1.346585e-11	-2.918389e+01	-2.999335e-01
8.300000e-07	-3.932401e-06	3.804051e-11	-2.897070e+01	-2.858259e-01
8.400000e-07	-3.903158e-06	3.681385e-11	-2.875525e+01	-2.725916e-01
8.500000e-07	-3.873577e-06	-7.884147e-12	-2.853733e+01	-2.602663e-01
8.600000e-07	-3.843842e-06	-4.527145e-12	-2.831826e+01	-2.488736e-01
8.700000e-07	-3.813937e-06	3.230713e-11	-2.809795e+01	-2.384250e-01
8.800000e-07	-3.783689e-06	2.753573e-11	-2.787510e+01	-2.289190e-01
8.900000e-07	-3.753156e-06	-5.355012e-13	-2.765016e+01	-2.203412e-01
9.000000e-07	-3.722445e-06	-2.339586e-12	-2.742391e+01	-2.126638e-01
9.100000e-07	-3.691490e-06	1.011261e-11	-2.719586e+01	-2.058462e-01
9.200000e-07	-3.660238e-06	1.507296e-11	-2.696562e+01	-1.998345e-01
9.300000e-07	-3.628791e-06	1.104702e-11	-2.673395e+01	-1.945627e-01
9.400000e-07	-3.597168e-06	4.581371e-12	-2.650097e+01	-1.899525e-01
9.500000e-07	-3.565292e-06	6.945773e-12	-2.626614e+01	-1.859145e-01
9.600000e-07	-3.533246e-06	1.910387e-11	-2.603005e+01	-1.823489e-01
9.700000e-07	-3.501059e-06	2.123604e-11	-2.579292e+01	-1.791464e-01
9.800000e-07	-3.468554e-06	1.030008e-11	-2.555345e+01	-1.761894e-01
9.900000e-07	-3.435742e-06	5.237936e-12	-2.531172e+01	-1.733533e-01
1.000000e-06	-3.402747e-06	1.755113e-11	-2.506864e+01	-1.705078e-01
1.010000e-06	-3.369447e-06	2.482317e-11	-2.482331e+01	-1.675184e-01
1.020000e-06	-3.335738e-06	1.471804e-11	-2.457497e+01	-1.642479e-01
1.030000e-06	-3.301649e-06	7.694343e-12	-2.432384e+01	-1.605577e-01
1.040000e-06	-3.267165e-06	2.102288e-11	-2.406978e+01	-1.563099e-01
1.050000e-06	-3.232277e-06	3.029916e-11	-2.381276e+01	-1.513688e-01
1.060000e-06	-3.197063e-06	2.013608e-11	-2.355333e+01	-1.456020e-01
1.070000e-06	-3.161609e-06	1.259601e-11	-2.329214e+01	-1.388829e-01
1.080000e-06	-3.125960e-06	2.366444e-11	-2.302950e+01	-1.310914e-01
1.090000e-06	-3.090184e-06	3.086917e-11	-2.276593e+01	-1.221162e-01
1.100000e-06	-3.054305e-06	2.436227e-11	-2.250161e+01	-1.118557e-01
1.110000e-06	-3.018265e-06	1.780449e-11	-2.223609e+01	-1.002195e-01
1.120000e-06	-2.982099e-06	2.274936e-11	-2.196965e+01	-8.712965e-02
1.130000e-06	-2.945787e-06	3.052731e-11	-2.170213e+01	-7.252178e-02
1.140000e-06	-2.909304e-06	3.365560e-11	-2.143336e+01	-5.634605e-02
1.150000e-06	-2.872629e-06	3.078172e-11	-2.116317e+01	-3.856792e-02
1.160000e-06	-2.835737e-06	2.525836e-11	-2.089138e+01	-1.916882e-02
1.170000e-06	-2.798665e-06	2.742455e-11	-2.061826e+01	1.853407e-03
1.180000e-06	-2.761308e-06	3.273024e-11	-2.034305e+01	2.448419e-02
1.190000e-06	-2.723636e-06	2.914756e-11	-2.006551e+01	4.869216e-02
1.200000e-06	-2.685816e-06	2.210909e-11	-1.978688e+01	7.442926e-02
1.210000e-06	-2.647842e-06	2.439351e-11	-1.950712e+01	1.016310e-01
1.220000e-06	-2.609609e-06	3.295820e-11	-1.922545e+01	1.302171e-01
1.230000e-06	-2.571198e-06	3.335702e-11	-1.894247e+01	1.600917e-01
1.240000e-06	-2.532647e-06	2.650807e-11	-1.865846e+01	1.911450e-01
1.250000e-06	-2.493969e-06	2.646158e-11	-1.837351e+01	2.232535e-01
1.260000e-06	-2.455130e-06	3.113695e-11	-1.808738e+01	2.562816e-01
1.270000e-06	-2.416091e-06	2.880921e-11	-1.779977e+01	2.900830e-01
1.280000e-06	-2.376906e-06	2.401344e-11	-1.751109e+01	3.245020e-01
1.290000e-06	-2.337571e-06	2.424753e-11	-1.722130e+01	3.593750e-01
1.300000e-06	-2.298044e-06	2.682261e-11	-1.693010e+01	3.945326e-01
1.310000e-06	-2.258422e-06	2.936215e-11	-1.663820e+01	4.298011e-01
1.320000e-06	-2.218776e-06	3.022612e-11	-1.634611e+01	4.650045e-01
1.330000e-06	-2.178982e-06	2.924442e-11	-1.605295e+01	4.999662e-01
1.340000e-06	-2.139047e-06	2.589762e-11	-1.575874e+01	5.345112e-01
1.350000e-06	-2.099012e-06	2.718947e-11	-1.546379e+01	5.684680e-01
1.360000e-06	-2.058907e-06	3.035016e-11	-1.516834e+01	6.016704e-01
1.370000e-06	-2.018725e-06	2.850423e-11	-1.487230e+01	6.339595e-01
1.380000e-06	-1.978417e-06	2.445800e-11	-1.457535e+01	6.651852e-01
1.390000e-06	-1.937970e-06	2.643846e-11	-1.427736e+01	6.952084e-01
1.400000e-06	-1.897452e-06	3.066151e-11	-1.397886e+01	7.239025e-01
1.410000e-06	-1.856802e-06	2.934309e-11	-1.367939e+01	7.511547e-01
1.420000e-06	-1.815890e-06	2.623821e-11	-1.337798e+01	7.768675e-01
1.430000e-06	-1.774731e-06	2.854426e-11	-1.307476e+01	8.009599e-01
1.440000e-06	-1.733436e-06	3.287790e-11	-1.277053e+01	8.233685e-01
1.450000e-06	-1.691962e-06	3.393542e-11	-1.246499e+01	8.440482e-01
1.460000e-06	-1.650131e-06	3.199163e-11	-1.215681e+01	8.629730e-01
1.470000e-06	-1.608078e-06	3.222717e-11	-1.184700e+01	8.801363e-01
1.480000e-06	-1.565872e-06	3.443301e-11	-1.153606e+01	8.955512e-01
1.490000e-06	-1.523441e-06	3.789480e-11	-1.122346e+01	9.092507e-01
1.500000e-06	-1.480782e-06	4.038003e-11	-1.090918e+01	9.212872e-01
1.510000e-06	-1.437954e-06	4.065691e-11	-1.059366e+01	9.317322e-01
1.520000e-06	-1.395034e-06	4.330920e-11	-1.027746e+01	9.406756e-01
1.530000e-06	-1.351990e-06	5.028460e-11	-9.960349e+00	9.482251e-01
1.540000e-06	-1.308810e-06	5.572047e-11	-9.642237e+00	9.545049e-01
1.550000e-06	-1.265471e-06	5.634495e-11	-9.322950e+00	9.596544e-01
1.560000e-06	-1.222044e-06	5.716967e-11	-9.003013e+00	9.638271e-01
1.570000e-06	-1.178567e-06	5.976345e-11	-8.682710e+00	9.671888e-01
1.580000e-06	-1.135004e-06	6.147589e-11	-8.361775e+00	9.699159e-01
1.590000e-06	-1.091420e-06	6.049339e-11	-8.040685e+00	9.721936e-01
1.600000e-06	-1.047845e-06	5.946436e-11	-7.719659e+00	9.742137e-01
1.610000e-06	-1.004213e-06	6.018720e-11	-7.398218e+00	9.761730e-01
1.620000e-06	-9.604800e-07	6.368548e-11	-7.076026e+00	9.782707e-01
1.630000e-06	-9.167003e-07	6.611648e-11	-6.753494e+00	9.807065e-01
1.640000e-06	-8.729140e-07	6.702940e-11	-6.430912e+00	9.836784e-01
1.650000e-06	-8.290938e-07	6.996988e-11	-6.108081e+00	9.873804e-01
1.660000e-06	-7.852068e-07	7.312105e-11	-5.784758e+00	9.920005e-01
1.670000e-06	-7.413256e-07	7.397963e-11	-5.461477e+00	9.977183e-01
1.680000e-06	-6.974669e-07	7.417688e-11	-5.138362e+00	1.004703e+00
1.690000e-06	-6.535637e-07	7.597286e-11	-4.814920e+00	1.013113e+00
1.700000e-06	-6.096235e-07	8.026224e-11	-4.491204e+00	1.023091e+00
1.710000e-06	-5.656661e-07	8.285220e-11	-4.167362e+00	1.034765e+00
1.720000e-06	-5.216777e-07	8.374581e-11	-3.843292e+00	1.048245e+00
1.730000e-06	-4.776800e-07	8.576883e-11	-3.519153e+00	1.063623e+00
1.740000e-06	-4.336905e-07	8.862083e-11	-3.195075e+00	1.080972e+00
1.750000e-06	-3.896432e-07	9.078243e-11	-2.870571e+00	1.100345e+00
1.760000e-06	-3.455537e-07	8.983091e-11	-2.545756e+00	1.121770e+00
1.770000e-06	-3.014265e-07	8.870366e-11	-2.220663e+00	1.145257e+00
1.780000e-06	-2.572907e-07	9.074391e-11	-1.895506e+00	1.170793e+00
1.790000e-06	-2.131893e-07	9.053969e-11	-1.570603e+00	1.198343e+00
1.800000e-06	-1.690480e-07	8.843868e-11	-1.245407e+00	1.227847e+00
1.810000e-06	-1.248923e-07	9.008544e-11	-9.201035e-01	1.259229e+00
1.820000e-06	-8.077955e-08	9.315530e-11	-5.951172e-01	1.292387e+00
1.830000e-06	-3.670872e-08	9.465343e-11	-2.704396e-01	1.327203e+00
1.840000e-06	7.363922e-09	9.660708e-11	5.425132e-02	1.363537e+00
1.850000e-06	5.146096e-08	9.805890e-11	3.791220e-01	1.401233e+00
1.860000e-06	9.551581e-08	9.616276e-11	7.036819e-01	1.440119e+00
1.870000e-06	1.395454e-07	9.619605e-11	1.028056e+00	1.480009e+00
1.880000e-06	1.836600e-07	9.942277e-11	1.353056e+00	1.520702e+00
1.890000e-06	2.278464e-07	9.910848e-11	1.678585e+00	1.561990e+00
1.900000e-06	2.720134e-07	9.533115e-11	2.003971e+00	1.603654e+00
1.910000e-06	3.161125e-07	9.655918e-11	2.328857e+00	1.645469e+00
1.920000e-06	3.601379e-07	1.001012e-10	2.653200e+00	1.687206e+00
1.930000e-06	4.041570e-07	9.984248e-11	2.977496e+00	1.728634e+00
1.940000e-06	4.481585e-07	9.915457e-11	3.301663e+00	1.769524e+00
1.950000e-06	4.921371e-07	1.022798e-10	3.625661e+00	1.809647e+00
1.960000e-06	5.361371e-07	1.053333e-10	3.949817e+00	1.848781e+00
1.970000e-06	5.800922e-07	1.044857e-10	4.273642e+00	1.886712e+00
1.980000e-06	6.239835e-07	1.033725e-10	4.596997e+00	1.923233e+00
1.990000e-06	6.678676e-07	1.038592e-10	4.920299e+00	1.958150e+00
2.000000e-06	7.117427e-07	1.046829e-10	5.243535e+00	1.991282e+00
2.010000e-06	7.555904e-07	1.049074e-10	5.566568e+00	2.022464e+00
2.020000e-06	7.994529e-07	1.051161e-10	5.889711e+00	2.051548e+00
2.030000e-06	8.433366e-07	1.066390e-10	6.213010e+00	2.078403e+00
2.040000e-06	8.872030e-07	1.081033e-10	6.536182e+00	2.102917e+00
2.050000e-06	9.309840e-07	1.087478e-10	6.858724e+00	2.125002e+00
2.060000e-06	9.747427e-07	1.089124e-10	7.181102e+00	2.144589e+00
2.070000e-06	1.018507e-06	1.083811e-10	7.503520e+00	2.161630e+00
2.080000e-06	1.062153e-06	1.071334e-10	7.825073e+00	2.176102e+00
2.090000e-06	1.105756e-06	1.069519e-10	8.146302e+00	2.188004e+00
2.100000e-06	1.149371e-06	1.066420e-10	8.467619e+00	2.197357e+00
2.110000e-06	1.192877e-06	1.059433e-10	8.788139e+00	2.204204e+00
2.120000e-06	1.236242e-06	1.058913e-10	9.107611e+00	2.208610e+00
2.130000e-06	1.279520e-06	1.069815e-10	9.426452e+00	2.210661e+00
2.140000e-06	1.322832e-06	1.070434e-10	9.745536e+00	2.210463e+00
2.150000e-06	1.366058e-06	1.055241e-10	1.006399e+01	2.208141e+00
2.160000e-06	1.409050e-06	1.077413e-10	1.038072e+01	2.203836e+00
2.170000e-06	1.451814e-06	1.101019e-10	1.069577e+01	2.197706e+00
2.180000e-06	1.494455e-06	1.108551e-10	1.100992e+01	2.189923e+00
2.190000e-06	1.537007e-06	1.117024e-10	1.132340e+01	2.180671e+00
2.200000e-06	1.579364e-06	1.132226e-10	1.163545e+01	2.170144e+00
2.210000e-06	1.621424e-06	1.134845e-10	1.194531e+01	2.158544e+00
2.220000e-06	1.663119e-06	1.141043e-10	1.225249e+01	2.146080e+00
2.230000e-06	1.704572e-06	1.158595e-10	1.255788e+01	2.132965e+00
2.240000e-06	1.745869e-06	1.166426e-10	1.286212e+01	2.119411e+00
2.250000e-06	1.786979e-06	1.166482e-10	1.316499e+01	2.105632e+00
2.260000e-06	1.827905e-06	1.184483e-10	1.346650e+01	2.091840e+00
2.270000e-06	1.868694e-06	1.206195e-10	1.376700e+01	2.078240e+00
2.280000e-06	1.909306e-06	1.221926e-10	1.406620e+01	2.065031e+00
2.290000e-06	1.949764e-06	1.224090e-10	1.436425e+01	2.052402e+00
2.300000e-06	1.990042e-06	1.235957e-10	1.466099e+01	2.040535e+00
2.310000e-06	2.030186e-06	1.255127e-10	1.495674e+01	2.029594e+00
2.320000e-06	2.070276e-06	1.255903e-10	1.525209e+01	2.019734e+00
2.330000e-06	2.110242e-06	1.241652e-10	1.554652e+01	2.011091e+00
2.340000e-06	2.150080e-06	1.237049e-10	1.584002e+01	2.003786e+00
2.350000e-06	2.189829e-06	1.237535e-10	1.613285e+01	1.997922e+00
2.360000e-06	2.229525e-06	1.223582e-10	1.642530e+01	1.993584e+00
2.370000e-06	2.269167e-06	1.199955e-10	1.671736e+01	1.990837e+00
2.380000e-06	2.308688e-06	1.184521e-10	1.700851e+01	1.989726e+00
2.390000e-06	2.348142e-06	1.181828e-10	1.729918e+01	1.990277e+00
2.400000e-06	2.387478e-06	1.190243e-10	1.758897e+01	1.992497e+00
2.410000e-06	2.426571e-06	1.183776e-10	1.787698e+01	1.996372e+00
2.420000e-06	2.465490e-06	1.159183e-10	1.816370e+01	2.001870e+00
2.430000e-06	2.504149e-06	1.140743e-10	1.844851e+01	2.008940e+00
2.440000e-06	2.542527e-06	1.120159e-10	1.873125e+01	2.017514e+00
2.450000e-06	2.580793e-06	1.112806e-10	1.901316e+01	2.027507e+00
2.460000e-06	2.618904e-06	1.112219e-10	1.929393e+01	2.038819e+00
2.470000e-06	2.656834e-06	1.112309e-10	1.957337e+01	2.051336e+00
2.480000e-06	2.694629e-06	1.090522e-10	1.985181e+01	2.064931e+00
2.490000e-06	2.732219e-06	1.077772e-10	2.012874e+01	2.079469e+00
2.500000e-06	2.769629e-06	1.082096e-10	2.040435e+01	2.094801e+00
2.510000e-06	2.806876e-06	1.083166e-10	2.067875e+01	2.110776e+00
2.520000e-06	2.843853e-06	1.075793e-10	2.095117e+01	2.127234e+00
2.530000e-06	2.880635e-06	1.077669e-10	2.122215e+01	2.144013e+00
2.540000e-06	2.917252e-06	1.067575e-10	2.149191e+01	2.160948e+00
2.550000e-06	2.953701e-06	1.041542e-10	2.176044e+01	2.177878e+00
2.560000e-06	2.989987e-06	1.029073e-10	2.202776e+01	2.194639e+00
2.570000e-06	3.026085e-06	1.036934e-10	2.229371e+01	2.211075e+00
2.580000e-06	3.062053e-06	1.041905e-10	2.255869e+01	2.227035e+00
2.590000e-06	3.097886e-06	1.057034e-10	2.282267e+01	2.242374e+00
2.600000e-06	3.133604e-06	1.067577e-10	2.308581e+01	2.256957e+00
2.610000e-06	3.169181e-06	1.060964e-10	2.334792e+01	2.270660e+00
2.620000e-06	3.204596e-06	1.045603e-10	2.360883e+01	2.283371e+00
2.630000e-06	3.239929e-06	1.049046e-10	2.386913e+01	2.294988e+00
2.640000e-06	3.274958e-06	1.049376e-10	2.412719e+01	2.305428e+00
2.650000e-06	3.309462e-06	1.055165e-10	2.438139e+01	2.314617e+00
2.660000e-06	3.343509e-06	1.043886e-10	2.463222e+01	2.322501e+00
2.670000e-06	3.377124e-06	1.025554e-10	2.487987e+01	2.329039e+00
2.680000e-06	3.410262e-06	1.011508e-10	2.512401e+01	2.334206e+00
2.690000e-06	3.443008e-06	9.979380e-11	2.536525e+01	2.337995e+00
2.700000e-06	3.475503e-06	1.009933e-10	2.560465e+01	2.340414e+00
2.710000e-06	3.507727e-06	1.043613e-10	2.584205e+01	2.341485e+00
2.720000e-06	3.539715e-06	1.065425e-10	2.607771e+01	2.341246e+00
2.730000e-06	3.571540e-06	1.043768e-10	2.631216e+01	2.339751e+00
2.740000e-06	3.603269e-06	1.041887e-10	2.654592e+01	2.337065e+00
2.750000e-06	3.634910e-06	1.069470e-10	2.677903e+01	2.333266e+00
2.760000e-06	3.666404e-06	1.068331e-10	2.701105e+01	2.328446e+00
2.770000e-06	3.697650e-06	1.045204e-10	2.724124e+01	2.322703e+00
2.780000e-06	3.728545e-06	1.044104e-10	2.746885e+01	2.316146e+00
2.790000e-06	3.759107e-06	1.075761e-10	2.769401e+01	2.308892e+00
2.800000e-06	3.789397e-06	1.102393e-10	2.791716e+01	2.301061e+00
2.810000e-06	3.819408e-06	1.113393e-10	2.813825e+01	2.292781e+00
2.820000e-06	3.849230e-06	1.146451e-10	2.835796e+01	2.284178e+00
2.830000e-06	3.878921e-06	1.167760e-10	2.857670e+01	2.275383e+00
2.840000e-06	3.908381e-06	1.188637e-10	2.879374e+01	2.266524e+00
2.850000e-06	3.937620e-06	1.208482e-10	2.900915e+01	2.257726e+00
2.860000e-06	3.966513e-06	1.214806e-10	2.922200e+01	2.249113e+00
2.870000e-06	3.995028e-06	1.220637e-10	2.943208e+01	2.240801e+00
2.880000e-06	4.023340e-06	1.253430e-10	2.964066e+01	2.232901e+00
2.890000e-06	4.051472e-06	1.274178e-10	2.984791e+01	2.225514e+00
2.900000e-06	4.079471e-06	1.280317e-10	3.005418e+01	2.218734e+00
2.910000e-06	4.107338e-06	1.295740e-10	3.025948e+01	2.212643e+00
2.920000e-06	4.135010e-06	1.331445e-10	3.046335e+01	2.207311e+00
2.930000e-06	4.162415e-06	1.332724e-10	3.066525e+01	2.202799e+00
2.940000e-06	4.189524e-06	1.332525e-10	3.086497e+01	2.199153e+00
