# Temperatura_=_20.0
# Concentracion g/m^3_=_9000.0
# C_Vs_to_Am_M_A/Vsm_=_65563218390.804596
# pendiente_HvsI_1/m_=_3716.3
# ordenada_HvsI_A/m_=_1297.0
# frecuencia_Hz_=_135109.74519205504

Tiempo_(s)	Campo_(V.s)	Magnetizacion_(V.s)	Campo_(kA/m)	Magnetizacion_(A/m)
0.000000e+00	-5.187938e-06	-3.949915e-09	-3.837474e+01	-2.602716e+02
1.000000e-08	-5.187944e-06	-3.949964e-09	-3.837478e+01	-2.602307e+02
2.000000e-08	-5.187666e-06	-3.950996e-09	-3.837273e+01	-2.601719e+02
3.000000e-08	-5.187091e-06	-3.954782e-09	-3.836847e+01	-2.600948e+02
4.000000e-08	-5.186233e-06	-3.958223e-09	-3.836213e+01	-2.599993e+02
5.000000e-08	-5.184816e-06	-3.957060e-09	-3.835164e+01	-2.598853e+02
6.000000e-08	-5.182675e-06	-3.956611e-09	-3.833581e+01	-2.597528e+02
7.000000e-08	-5.179901e-06	-3.967747e-09	-3.831529e+01	-2.596020e+02
8.000000e-08	-5.176652e-06	-3.986138e-09	-3.829126e+01	-2.594332e+02
9.000000e-08	-5.173059e-06	-3.969133e-09	-3.826468e+01	-2.592469e+02
1.000000e-07	-5.169111e-06	-3.902577e-09	-3.823548e+01	-2.590438e+02
1.100000e-07	-5.164928e-06	-3.896421e-09	-3.820454e+01	-2.588245e+02
1.200000e-07	-5.160578e-06	-3.980285e-09	-3.817236e+01	-2.585899e+02
1.300000e-07	-5.155863e-06	-4.019217e-09	-3.813748e+01	-2.583411e+02
1.400000e-07	-5.150705e-06	-3.929802e-09	-3.809933e+01	-2.580792e+02
1.500000e-07	-5.145227e-06	-3.864313e-09	-3.805881e+01	-2.578054e+02
1.600000e-07	-5.139373e-06	-3.955957e-09	-3.801551e+01	-2.575211e+02
1.700000e-07	-5.133089e-06	-4.082665e-09	-3.796903e+01	-2.572277e+02
1.800000e-07	-5.126506e-06	-4.040393e-09	-3.792033e+01	-2.569268e+02
1.900000e-07	-5.119637e-06	-3.901492e-09	-3.786952e+01	-2.566197e+02
2.000000e-07	-5.112440e-06	-3.846410e-09	-3.781629e+01	-2.563083e+02
2.100000e-07	-5.104928e-06	-3.915482e-09	-3.776072e+01	-2.559940e+02
2.200000e-07	-5.097202e-06	-3.967310e-09	-3.770358e+01	-2.556786e+02
2.300000e-07	-5.089238e-06	-3.883160e-09	-3.764466e+01	-2.553637e+02
2.400000e-07	-5.080775e-06	-3.725919e-09	-3.758206e+01	-2.550508e+02
2.500000e-07	-5.071749e-06	-3.694102e-09	-3.751530e+01	-2.547416e+02
2.600000e-07	-5.062333e-06	-3.793475e-09	-3.744565e+01	-2.544374e+02
2.700000e-07	-5.052593e-06	-3.795318e-09	-3.737361e+01	-2.541398e+02
2.800000e-07	-5.042318e-06	-3.659364e-09	-3.729760e+01	-2.538501e+02
2.900000e-07	-5.031438e-06	-3.618269e-09	-3.721712e+01	-2.535694e+02
3.000000e-07	-5.020094e-06	-3.753824e-09	-3.713321e+01	-2.532989e+02
3.100000e-07	-5.008321e-06	-3.806748e-09	-3.704613e+01	-2.530395e+02
3.200000e-07	-4.996165e-06	-3.688441e-09	-3.695621e+01	-2.527919e+02
3.300000e-07	-4.983662e-06	-3.660463e-09	-3.686373e+01	-2.525568e+02
3.400000e-07	-4.970795e-06	-3.801668e-09	-3.676855e+01	-2.523347e+02
3.500000e-07	-4.957603e-06	-3.843281e-09	-3.667097e+01	-2.521259e+02
3.600000e-07	-4.944081e-06	-3.752275e-09	-3.657095e+01	-2.519303e+02
3.700000e-07	-4.930160e-06	-3.715820e-09	-3.646798e+01	-2.517480e+02
3.800000e-07	-4.915772e-06	-3.748631e-09	-3.636155e+01	-2.515787e+02
3.900000e-07	-4.900817e-06	-3.753686e-09	-3.625093e+01	-2.514219e+02
4.000000e-07	-4.885295e-06	-3.790563e-09	-3.613611e+01	-2.512770e+02
4.100000e-07	-4.869407e-06	-3.781274e-09	-3.601859e+01	-2.511431e+02
4.200000e-07	-4.853163e-06	-3.704735e-09	-3.589843e+01	-2.510193e+02
4.300000e-07	-4.836516e-06	-3.745064e-09	-3.577530e+01	-2.509043e+02
4.400000e-07	-4.819616e-06	-3.898757e-09	-3.565029e+01	-2.507970e+02
4.500000e-07	-4.802445e-06	-3.869528e-09	-3.552328e+01	-2.506958e+02
4.600000e-07	-4.784975e-06	-3.732393e-09	-3.539405e+01	-2.505992e+02
4.700000e-07	-4.767182e-06	-3.807344e-09	-3.526244e+01	-2.505055e+02
4.800000e-07	-4.749030e-06	-3.957746e-09	-3.512817e+01	-2.504131e+02
4.900000e-07	-4.730536e-06	-3.887342e-09	-3.499138e+01	-2.503199e+02
5.000000e-07	-4.711637e-06	-3.770067e-09	-3.485158e+01	-2.502243e+02
5.100000e-07	-4.692301e-06	-3.842065e-09	-3.470855e+01	-2.501242e+02
5.200000e-07	-4.672660e-06	-3.917729e-09	-3.456327e+01	-2.500177e+02
5.300000e-07	-4.652821e-06	-3.853957e-09	-3.441652e+01	-2.499030e+02
5.400000e-07	-4.632795e-06	-3.799869e-09	-3.426839e+01	-2.497781e+02
5.500000e-07	-4.612575e-06	-3.832250e-09	-3.411883e+01	-2.496412e+02
5.600000e-07	-4.592101e-06	-3.844752e-09	-3.396739e+01	-2.494905e+02
5.700000e-07	-4.571158e-06	-3.838962e-09	-3.381247e+01	-2.493244e+02
5.800000e-07	-4.549814e-06	-3.837138e-09	-3.365459e+01	-2.491412e+02
5.900000e-07	-4.528286e-06	-3.807605e-09	-3.349535e+01	-2.489396e+02
6.000000e-07	-4.506550e-06	-3.776870e-09	-3.333457e+01	-2.487182e+02
6.100000e-07	-4.484569e-06	-3.814912e-09	-3.317198e+01	-2.484757e+02
6.200000e-07	-4.462321e-06	-3.834687e-09	-3.300741e+01	-2.482113e+02
6.300000e-07	-4.439685e-06	-3.771297e-09	-3.283998e+01	-2.479241e+02
6.400000e-07	-4.416646e-06	-3.735430e-09	-3.266956e+01	-2.476133e+02
6.500000e-07	-4.393300e-06	-3.796565e-09	-3.249687e+01	-2.472786e+02
6.600000e-07	-4.369669e-06	-3.817244e-09	-3.232207e+01	-2.469197e+02
6.700000e-07	-4.345745e-06	-3.752084e-09	-3.214511e+01	-2.465364e+02
6.800000e-07	-4.321603e-06	-3.725003e-09	-3.196654e+01	-2.461288e+02
6.900000e-07	-4.297350e-06	-3.763483e-09	-3.178714e+01	-2.456973e+02
7.000000e-07	-4.272868e-06	-3.769160e-09	-3.160604e+01	-2.452422e+02
7.100000e-07	-4.248006e-06	-3.732850e-09	-3.142214e+01	-2.447643e+02
7.200000e-07	-4.222702e-06	-3.716530e-09	-3.123497e+01	-2.442642e+02
7.300000e-07	-4.196894e-06	-3.722273e-09	-3.104407e+01	-2.437431e+02
7.400000e-07	-4.170625e-06	-3.726247e-09	-3.084976e+01	-2.432018e+02
7.500000e-07	-4.143990e-06	-3.721818e-09	-3.065274e+01	-2.426417e+02
7.600000e-07	-4.116907e-06	-3.705445e-09	-3.045242e+01	-2.420640e+02
7.700000e-07	-4.089405e-06	-3.683599e-09	-3.024898e+01	-2.414702e+02
7.800000e-07	-4.061646e-06	-3.678807e-09	-3.004366e+01	-2.408616e+02
7.900000e-07	-4.033683e-06	-3.685158e-09	-2.983681e+01	-2.402399e+02
8.000000e-07	-4.005576e-06	-3.672252e-09	-2.962891e+01	-2.396066e+02
8.100000e-07	-3.977338e-06	-3.640896e-09	-2.942003e+01	-2.389632e+02
8.200000e-07	-3.948847e-06	-3.636366e-09	-2.920928e+01	-2.383113e+02
8.300000e-07	-3.920010e-06	-3.653064e-09	-2.899598e+01	-2.376523e+02
8.400000e-07	-3.890844e-06	-3.645757e-09	-2.878025e+01	-2.369878e+02
8.500000e-07	-3.861438e-06	-3.613742e-09	-2.856273e+01	-2.363190e+02
8.600000e-07	-3.831809e-06	-3.608509e-09	-2.834357e+01	-2.356474e+02
8.700000e-07	-3.801962e-06	-3.621126e-09	-2.812279e+01	-2.349739e+02
8.800000e-07	-3.771879e-06	-3.607898e-09	-2.790027e+01	-2.342998e+02
8.900000e-07	-3.741472e-06	-3.579011e-09	-2.767535e+01	-2.336259e+02
9.000000e-07	-3.710831e-06	-3.568449e-09	-2.744870e+01	-2.329529e+02
9.100000e-07	-3.679921e-06	-3.567543e-09	-2.722006e+01	-2.322814e+02
9.200000e-07	-3.648702e-06	-3.558483e-09	-2.698914e+01	-2.316119e+02
9.300000e-07	-3.617318e-06	-3.542976e-09	-2.675700e+01	-2.309445e+02
9.400000e-07	-3.585738e-06	-3.529812e-09	-2.652340e+01	-2.302792e+02
9.500000e-07	-3.553996e-06	-3.523970e-09	-2.628861e+01	-2.296160e+02
9.600000e-07	-3.522122e-06	-3.521239e-09	-2.605284e+01	-2.289545e+02
9.700000e-07	-3.490043e-06	-3.510832e-09	-2.581556e+01	-2.282941e+02
9.800000e-07	-3.457768e-06	-3.491593e-09	-2.557682e+01	-2.276342e+02
9.900000e-07	-3.425244e-06	-3.476970e-09	-2.533624e+01	-2.269737e+02
1.000000e-06	-3.392424e-06	-3.472644e-09	-2.509348e+01	-2.263118e+02
1.010000e-06	-3.359313e-06	-3.464509e-09	-2.484855e+01	-2.256471e+02
1.020000e-06	-3.325906e-06	-3.445247e-09	-2.460145e+01	-2.249783e+02
1.030000e-06	-3.292123e-06	-3.430396e-09	-2.435156e+01	-2.243039e+02
1.040000e-06	-3.257897e-06	-3.427604e-09	-2.409839e+01	-2.236223e+02
1.050000e-06	-3.223223e-06	-3.422799e-09	-2.384191e+01	-2.229318e+02
1.060000e-06	-3.188179e-06	-3.404174e-09	-2.358269e+01	-2.222306e+02
1.070000e-06	-3.152879e-06	-3.386341e-09	-2.332158e+01	-2.215170e+02
1.080000e-06	-3.117362e-06	-3.379315e-09	-2.305887e+01	-2.207891e+02
1.090000e-06	-3.081665e-06	-3.372403e-09	-2.279482e+01	-2.200450e+02
1.100000e-06	-3.045831e-06	-3.355253e-09	-2.252976e+01	-2.192828e+02
1.110000e-06	-3.009913e-06	-3.336148e-09	-2.226407e+01	-2.185008e+02
1.120000e-06	-2.973886e-06	-3.321898e-09	-2.199759e+01	-2.176971e+02
1.130000e-06	-2.937727e-06	-3.313035e-09	-2.173012e+01	-2.168700e+02
1.140000e-06	-2.901389e-06	-3.302679e-09	-2.146133e+01	-2.160180e+02
1.150000e-06	-2.864896e-06	-3.288370e-09	-2.119139e+01	-2.151395e+02
1.160000e-06	-2.828213e-06	-3.271170e-09	-2.092005e+01	-2.142332e+02
1.170000e-06	-2.791289e-06	-3.255539e-09	-2.064693e+01	-2.132977e+02
1.180000e-06	-2.754121e-06	-3.242803e-09	-2.037200e+01	-2.123320e+02
1.190000e-06	-2.716626e-06	-3.222964e-09	-2.009465e+01	-2.113352e+02
1.200000e-06	-2.678935e-06	-3.199582e-09	-1.981586e+01	-2.103065e+02
1.210000e-06	-2.641133e-06	-3.183079e-09	-1.953624e+01	-2.092453e+02
1.220000e-06	-2.603165e-06	-3.172548e-09	-1.925539e+01	-2.081511e+02
1.230000e-06	-2.564962e-06	-3.157412e-09	-1.897281e+01	-2.070239e+02
1.240000e-06	-2.526536e-06	-3.138170e-09	-1.868857e+01	-2.058634e+02
1.250000e-06	-2.487986e-06	-3.123101e-09	-1.840342e+01	-2.046699e+02
1.260000e-06	-2.449294e-06	-3.109483e-09	-1.811722e+01	-2.034436e+02
1.270000e-06	-2.410408e-06	-3.090153e-09	-1.782959e+01	-2.021849e+02
1.280000e-06	-2.371370e-06	-3.067092e-09	-1.754082e+01	-2.008945e+02
1.290000e-06	-2.332238e-06	-3.044333e-09	-1.725137e+01	-1.995730e+02
1.300000e-06	-2.292976e-06	-3.023554e-09	-1.696095e+01	-1.982213e+02
1.310000e-06	-2.253622e-06	-3.004952e-09	-1.666985e+01	-1.968402e+02
1.320000e-06	-2.214181e-06	-2.986657e-09	-1.637811e+01	-1.954309e+02
1.330000e-06	-2.174529e-06	-2.965700e-09	-1.608481e+01	-1.939943e+02
1.340000e-06	-2.134712e-06	-2.944833e-09	-1.579028e+01	-1.925315e+02
1.350000e-06	-2.094803e-06	-2.925625e-09	-1.549508e+01	-1.910435e+02
1.360000e-06	-2.054802e-06	-2.906491e-09	-1.519919e+01	-1.895314e+02
1.370000e-06	-2.014693e-06	-2.882522e-09	-1.490251e+01	-1.879963e+02
1.380000e-06	-1.974460e-06	-2.855165e-09	-1.460491e+01	-1.864389e+02
1.390000e-06	-1.934145e-06	-2.829167e-09	-1.430671e+01	-1.848602e+02
1.400000e-06	-1.893722e-06	-2.804737e-09	-1.400770e+01	-1.832608e+02
1.410000e-06	-1.853124e-06	-2.779079e-09	-1.370740e+01	-1.816412e+02
1.420000e-06	-1.812390e-06	-2.751342e-09	-1.340609e+01	-1.800018e+02
1.430000e-06	-1.771491e-06	-2.726512e-09	-1.310357e+01	-1.783428e+02
1.440000e-06	-1.730387e-06	-2.703586e-09	-1.279953e+01	-1.766640e+02
1.450000e-06	-1.689146e-06	-2.678816e-09	-1.249447e+01	-1.749653e+02
1.460000e-06	-1.647660e-06	-2.651234e-09	-1.218760e+01	-1.732459e+02
1.470000e-06	-1.605934e-06	-2.621717e-09	-1.187896e+01	-1.715052e+02
1.480000e-06	-1.564078e-06	-2.590652e-09	-1.156935e+01	-1.697420e+02
1.490000e-06	-1.522025e-06	-2.558693e-09	-1.125829e+01	-1.679550e+02
1.500000e-06	-1.479819e-06	-2.528023e-09	-1.094609e+01	-1.661424e+02
1.510000e-06	-1.437468e-06	-2.499362e-09	-1.063283e+01	-1.643023e+02
1.520000e-06	-1.394943e-06	-2.471352e-09	-1.031828e+01	-1.624324e+02
1.530000e-06	-1.352234e-06	-2.445227e-09	-1.000236e+01	-1.605303e+02
1.540000e-06	-1.309321e-06	-2.420441e-09	-9.684939e+00	-1.585931e+02
1.550000e-06	-1.266284e-06	-2.392636e-09	-9.366596e+00	-1.566178e+02
1.560000e-06	-1.223111e-06	-2.358389e-09	-9.047252e+00	-1.546010e+02
1.570000e-06	-1.179783e-06	-2.321732e-09	-8.726755e+00	-1.525393e+02
1.580000e-06	-1.136406e-06	-2.285165e-09	-8.405902e+00	-1.504289e+02
1.590000e-06	-1.092967e-06	-2.247841e-09	-8.084583e+00	-1.482659e+02
1.600000e-06	-1.049373e-06	-2.209474e-09	-7.762123e+00	-1.460463e+02
1.610000e-06	-1.005688e-06	-2.172144e-09	-7.438992e+00	-1.437660e+02
1.620000e-06	-9.620386e-07	-2.134967e-09	-7.116118e+00	-1.414206e+02
1.630000e-06	-9.184009e-07	-2.096537e-09	-6.793334e+00	-1.390060e+02
1.640000e-06	-8.746700e-07	-2.059026e-09	-6.469860e+00	-1.365179e+02
1.650000e-06	-8.308724e-07	-2.022577e-09	-6.145893e+00	-1.339519e+02
1.660000e-06	-7.870953e-07	-1.983717e-09	-5.822077e+00	-1.313040e+02
1.670000e-06	-7.432921e-07	-1.941538e-09	-5.498069e+00	-1.285700e+02
1.680000e-06	-6.994417e-07	-1.898852e-09	-5.173711e+00	-1.257462e+02
1.690000e-06	-6.555897e-07	-1.855876e-09	-4.849342e+00	-1.228287e+02
1.700000e-06	-6.117010e-07	-1.811962e-09	-4.524701e+00	-1.198141e+02
1.710000e-06	-5.677943e-07	-1.767362e-09	-4.199926e+00	-1.166992e+02
1.720000e-06	-5.238711e-07	-1.722868e-09	-3.875030e+00	-1.134812e+02
1.730000e-06	-4.799197e-07	-1.677722e-09	-3.549926e+00	-1.101575e+02
1.740000e-06	-4.359518e-07	-1.629901e-09	-3.224698e+00	-1.067259e+02
1.750000e-06	-3.919790e-07	-1.578029e-09	-2.899435e+00	-1.031848e+02
1.760000e-06	-3.479933e-07	-1.524045e-09	-2.574077e+00	-9.953282e+01
1.770000e-06	-3.039642e-07	-1.469348e-09	-2.248398e+00	-9.576917e+01
1.780000e-06	-2.599626e-07	-1.413259e-09	-1.922921e+00	-9.189354e+01
1.790000e-06	-2.159569e-07	-1.351537e-09	-1.597415e+00	-8.790612e+01
1.800000e-06	-1.719259e-07	-1.286792e-09	-1.271722e+00	-8.380761e+01
1.810000e-06	-1.278855e-07	-1.225425e-09	-9.459586e-01	-7.959928e+01
1.820000e-06	-8.378405e-08	-1.166596e-09	-6.197436e-01	-7.528291e+01
1.830000e-06	-3.970577e-08	-1.105625e-09	-2.937003e-01	-7.086085e+01
1.840000e-06	4.321813e-09	-1.039566e-09	3.196809e-02	-6.633599e+01
1.850000e-06	4.835263e-08	-9.713994e-10	3.576603e-01	-6.171174e+01
1.860000e-06	9.238919e-08	-9.016996e-10	6.833950e-01	-5.699207e+01
1.870000e-06	1.364115e-07	-8.304781e-10	1.009024e+00	-5.218142e+01
1.880000e-06	1.804032e-07	-7.545946e-10	1.334428e+00	-4.728475e+01
1.890000e-06	2.243864e-07	-6.748114e-10	1.659767e+00	-4.230749e+01
1.900000e-06	2.683500e-07	-5.959310e-10	1.984962e+00	-3.725551e+01
1.910000e-06	3.123260e-07	-5.193490e-10	2.310249e+00	-3.213507e+01
1.920000e-06	3.563363e-07	-4.403519e-10	2.635789e+00	-2.695284e+01
1.930000e-06	4.003703e-07	-3.578038e-10	2.961506e+00	-2.171581e+01
1.940000e-06	4.443886e-07	-2.768978e-10	3.287105e+00	-1.643128e+01
1.950000e-06	4.883616e-07	-1.968824e-10	3.612369e+00	-1.110680e+01
1.960000e-06	5.323317e-07	-1.148119e-10	3.937613e+00	-5.750162e+00
1.970000e-06	5.763075e-07	-3.241208e-11	4.262898e+00	-3.692917e-01
1.980000e-06	6.202459e-07	4.946083e-11	4.587906e+00	5.027743e+00
1.990000e-06	6.641334e-07	1.335722e-10	4.912539e+00	1.043280e+01
2.000000e-06	7.080104e-07	2.184968e-10	5.237094e+00	1.583773e+01
2.010000e-06	7.518821e-07	3.020304e-10	5.561609e+00	2.123437e+01
2.020000e-06	7.957129e-07	3.849896e-10	5.885821e+00	2.661465e+01
2.030000e-06	8.394725e-07	4.676260e-10	6.209507e+00	3.197062e+01
2.040000e-06	8.832442e-07	5.493557e-10	6.533283e+00	3.729449e+01
2.050000e-06	9.270621e-07	6.299927e-10	6.857400e+00	4.257867e+01
2.060000e-06	9.708463e-07	7.091397e-10	7.181268e+00	4.781581e+01
2.070000e-06	1.014537e-06	7.898960e-10	7.504447e+00	5.299887e+01
2.080000e-06	1.058138e-06	8.739720e-10	7.826956e+00	5.812113e+01
2.090000e-06	1.101633e-06	9.583719e-10	8.148685e+00	6.317621e+01
2.100000e-06	1.145061e-06	1.038765e-09	8.469923e+00	6.815814e+01
2.110000e-06	1.188422e-06	1.113328e-09	8.790659e+00	7.306137e+01
2.120000e-06	1.231727e-06	1.185987e-09	9.110980e+00	7.788078e+01
2.130000e-06	1.274912e-06	1.257995e-09	9.430419e+00	8.261172e+01
2.140000e-06	1.317882e-06	1.325989e-09	9.748264e+00	8.725000e+01
2.150000e-06	1.360706e-06	1.391946e-09	1.006503e+01	9.179195e+01
2.160000e-06	1.403304e-06	1.456442e-09	1.038012e+01	9.623438e+01
2.170000e-06	1.445718e-06	1.518027e-09	1.069386e+01	1.005746e+02
2.180000e-06	1.488050e-06	1.577783e-09	1.100698e+01	1.048104e+02
2.190000e-06	1.530107e-06	1.635864e-09	1.131807e+01	1.089402e+02
2.200000e-06	1.571899e-06	1.691276e-09	1.162720e+01	1.129627e+02
2.210000e-06	1.613476e-06	1.744944e-09	1.193474e+01	1.168772e+02
2.220000e-06	1.654788e-06	1.797632e-09	1.224032e+01	1.206835e+02
2.230000e-06	1.695944e-06	1.846832e-09	1.254475e+01	1.243818e+02
2.240000e-06	1.736946e-06	1.894319e-09	1.284805e+01	1.279726e+02
2.250000e-06	1.777822e-06	1.942941e-09	1.315040e+01	1.314571e+02
2.260000e-06	1.818576e-06	1.989546e-09	1.345185e+01	1.348367e+02
2.270000e-06	1.859170e-06	2.033719e-09	1.375213e+01	1.381130e+02
2.280000e-06	1.899649e-06	2.076194e-09	1.405154e+01	1.412881e+02
2.290000e-06	1.940051e-06	2.118656e-09	1.435039e+01	1.443645e+02
2.300000e-06	1.980294e-06	2.161823e-09	1.464807e+01	1.473447e+02
2.310000e-06	2.020347e-06	2.202558e-09	1.494433e+01	1.502316e+02
2.320000e-06	2.060327e-06	2.242126e-09	1.524006e+01	1.530282e+02
2.330000e-06	2.100258e-06	2.279978e-09	1.553543e+01	1.557375e+02
2.340000e-06	2.140132e-06	2.313762e-09	1.583038e+01	1.583631e+02
2.350000e-06	2.179921e-06	2.348525e-09	1.612469e+01	1.609081e+02
2.360000e-06	2.219626e-06	2.384640e-09	1.641838e+01	1.633760e+02
2.370000e-06	2.259307e-06	2.421444e-09	1.671190e+01	1.657703e+02
2.380000e-06	2.298870e-06	2.456988e-09	1.700455e+01	1.680945e+02
2.390000e-06	2.338177e-06	2.491664e-09	1.729530e+01	1.703518e+02
2.400000e-06	2.377211e-06	2.524475e-09	1.758403e+01	1.725456e+02
2.410000e-06	2.416123e-06	2.556089e-09	1.787186e+01	1.746793e+02
2.420000e-06	2.454931e-06	2.587951e-09	1.815892e+01	1.767559e+02
2.430000e-06	2.493515e-06	2.619425e-09	1.844432e+01	1.787784e+02
2.440000e-06	2.531904e-06	2.649469e-09	1.872828e+01	1.807497e+02
2.450000e-06	2.570105e-06	2.678462e-09	1.901085e+01	1.826725e+02
2.460000e-06	2.608077e-06	2.706470e-09	1.929172e+01	1.845494e+02
2.470000e-06	2.645877e-06	2.732527e-09	1.957133e+01	1.863826e+02
2.480000e-06	2.683551e-06	2.759416e-09	1.985000e+01	1.881743e+02
2.490000e-06	2.721000e-06	2.787435e-09	2.012701e+01	1.899266e+02
2.500000e-06	2.758219e-06	2.813939e-09	2.040231e+01	1.916411e+02
2.510000e-06	2.795286e-06	2.839027e-09	2.067650e+01	1.933196e+02
2.520000e-06	2.832164e-06	2.864850e-09	2.094928e+01	1.949632e+02
2.530000e-06	2.868787e-06	2.889535e-09	2.122018e+01	1.965734e+02
2.540000e-06	2.905184e-06	2.913333e-09	2.148940e+01	1.981511e+02
2.550000e-06	2.941391e-06	2.936693e-09	2.175722e+01	1.996971e+02
2.560000e-06	2.977476e-06	2.959876e-09	2.202414e+01	2.012123e+02
2.570000e-06	3.013487e-06	2.982314e-09	2.229051e+01	2.026973e+02
2.580000e-06	3.049403e-06	3.005200e-09	2.255618e+01	2.041523e+02
2.590000e-06	3.085174e-06	3.026641e-09	2.282077e+01	2.055779e+02
2.600000e-06	3.120802e-06	3.049655e-09	2.308431e+01	2.069742e+02
2.610000e-06	3.156320e-06	3.072700e-09	2.334704e+01	2.083414e+02
2.620000e-06	3.191573e-06	3.094145e-09	2.360780e+01	2.096796e+02
2.630000e-06	3.226428e-06	3.113058e-09	2.386561e+01	2.109889e+02
2.640000e-06	3.260883e-06	3.130832e-09	2.412048e+01	2.122693e+02
2.650000e-06	3.294949e-06	3.148484e-09	2.437246e+01	2.135207e+02
2.660000e-06	3.328603e-06	3.167738e-09	2.462140e+01	2.147432e+02
2.670000e-06	3.361827e-06	3.185822e-09	2.486715e+01	2.159368e+02
2.680000e-06	3.394782e-06	3.204454e-09	2.511092e+01	2.171015e+02
2.690000e-06	3.427583e-06	3.224567e-09	2.535354e+01	2.182373e+02
2.700000e-06	3.460136e-06	3.242250e-09	2.559433e+01	2.193445e+02
2.710000e-06	3.492410e-06	3.255921e-09	2.583306e+01	2.204231e+02
2.720000e-06	3.524460e-06	3.267843e-09	2.607013e+01	2.214734e+02
2.730000e-06	3.556345e-06	3.282007e-09	2.630598e+01	2.224957e+02
2.740000e-06	3.588056e-06	3.296819e-09	2.654055e+01	2.234904e+02
2.750000e-06	3.619579e-06	3.310515e-09	2.677372e+01	2.244578e+02
2.760000e-06	3.650977e-06	3.323536e-09	2.700597e+01	2.253986e+02
2.770000e-06	3.682117e-06	3.338431e-09	2.723631e+01	2.263133e+02
2.780000e-06	3.712940e-06	3.353732e-09	2.746430e+01	2.272026e+02
2.790000e-06	3.743480e-06	3.367960e-09	2.769020e+01	2.280673e+02
2.800000e-06	3.773690e-06	3.382349e-09	2.791367e+01	2.289082e+02
2.810000e-06	3.803657e-06	3.396255e-09	2.813533e+01	2.297261e+02
2.820000e-06	3.833491e-06	3.408470e-09	2.835601e+01	2.305219e+02
2.830000e-06	3.863151e-06	3.420729e-09	2.857540e+01	2.312968e+02
2.840000e-06	3.892571e-06	3.432169e-09	2.879302e+01	2.320516e+02
2.850000e-06	3.921732e-06	3.443286e-09	2.900872e+01	2.327874e+02
2.860000e-06	3.950547e-06	3.454236e-09	2.922186e+01	2.335052e+02
2.870000e-06	3.979050e-06	3.466970e-09	2.943270e+01	2.342063e+02
2.880000e-06	4.007316e-06	3.479386e-09	2.964178e+01	2.348915e+02
2.890000e-06	4.035380e-06	3.490379e-09	2.984936e+01	2.355619e+02
2.900000e-06	4.063309e-06	3.500556e-09	3.005596e+01	2.362186e+02
