# Temperatura_=_20.0
# Concentracion g/m^3_=_9000.0
# C_Vs_to_Am_M_A/Vsm_=_65563218390.804596
# pendiente_HvsI_1/m_=_3716.3
# ordenada_HvsI_A/m_=_1297.0
# frecuencia_Hz_=_135106.02108711682

Tiempo_(s)	Campo_(V.s)	Magnetizacion_(V.s)	Campo_(kA/m)	Magnetizacion_(A/m)
0.000000e+00	-5.194593e-06	-3.969404e-09	-3.837975e+01	-2.636645e+02
1.000000e-08	-5.194796e-06	-3.969735e-09	-3.838125e+01	-2.636374e+02
2.000000e-08	-5.194714e-06	-3.971586e-09	-3.838065e+01	-2.635857e+02
3.000000e-08	-5.194404e-06	-3.975143e-09	-3.837835e+01	-2.635086e+02
4.000000e-08	-5.193799e-06	-3.977095e-09	-3.837389e+01	-2.634052e+02
5.000000e-08	-5.192695e-06	-3.975328e-09	-3.836573e+01	-2.632751e+02
6.000000e-08	-5.191084e-06	-3.972318e-09	-3.835383e+01	-2.631179e+02
7.000000e-08	-5.188973e-06	-3.982710e-09	-3.833823e+01	-2.629333e+02
8.000000e-08	-5.186247e-06	-4.023009e-09	-3.831809e+01	-2.627214e+02
9.000000e-08	-5.182953e-06	-4.015885e-09	-3.829375e+01	-2.624824e+02
1.000000e-07	-5.179298e-06	-3.899460e-09	-3.826675e+01	-2.622167e+02
1.100000e-07	-5.175342e-06	-3.854316e-09	-3.823752e+01	-2.619250e+02
1.200000e-07	-5.171088e-06	-4.024274e-09	-3.820609e+01	-2.616081e+02
1.300000e-07	-5.166542e-06	-4.127611e-09	-3.817250e+01	-2.612672e+02
1.400000e-07	-5.161696e-06	-3.994648e-09	-3.813670e+01	-2.609033e+02
1.500000e-07	-5.156578e-06	-3.766274e-09	-3.809888e+01	-2.605180e+02
1.600000e-07	-5.151075e-06	-3.884017e-09	-3.805822e+01	-2.601128e+02
1.700000e-07	-5.145125e-06	-4.127455e-09	-3.801426e+01	-2.596896e+02
1.800000e-07	-5.138893e-06	-4.173104e-09	-3.796822e+01	-2.592503e+02
1.900000e-07	-5.132362e-06	-3.961067e-09	-3.791997e+01	-2.587968e+02
2.000000e-07	-5.125471e-06	-3.831525e-09	-3.786905e+01	-2.583315e+02
2.100000e-07	-5.118285e-06	-3.949604e-09	-3.781596e+01	-2.578564e+02
2.200000e-07	-5.110842e-06	-4.100663e-09	-3.776097e+01	-2.573740e+02
2.300000e-07	-5.103125e-06	-4.020878e-09	-3.770395e+01	-2.568867e+02
2.400000e-07	-5.094997e-06	-3.753579e-09	-3.764389e+01	-2.563967e+02
2.500000e-07	-5.086438e-06	-3.704952e-09	-3.758066e+01	-2.559065e+02
2.600000e-07	-5.077647e-06	-3.885262e-09	-3.751571e+01	-2.554185e+02
2.700000e-07	-5.068441e-06	-3.924284e-09	-3.744769e+01	-2.549350e+02
2.800000e-07	-5.058398e-06	-3.631170e-09	-3.737349e+01	-2.544581e+02
2.900000e-07	-5.047767e-06	-3.527820e-09	-3.729495e+01	-2.539901e+02
3.000000e-07	-5.036847e-06	-3.782626e-09	-3.721426e+01	-2.535329e+02
3.100000e-07	-5.025496e-06	-3.913148e-09	-3.713039e+01	-2.530885e+02
3.200000e-07	-5.013620e-06	-3.645426e-09	-3.704265e+01	-2.526585e+02
3.300000e-07	-5.001379e-06	-3.547664e-09	-3.695221e+01	-2.522444e+02
3.400000e-07	-4.988871e-06	-3.776883e-09	-3.685980e+01	-2.518476e+02
3.500000e-07	-4.975980e-06	-3.928829e-09	-3.676455e+01	-2.514692e+02
3.600000e-07	-4.962720e-06	-3.769781e-09	-3.666658e+01	-2.511101e+02
3.700000e-07	-4.949155e-06	-3.677621e-09	-3.656636e+01	-2.507710e+02
3.800000e-07	-4.935135e-06	-3.681923e-09	-3.646277e+01	-2.504521e+02
3.900000e-07	-4.920571e-06	-3.742359e-09	-3.635517e+01	-2.501538e+02
4.000000e-07	-4.905512e-06	-3.843878e-09	-3.624391e+01	-2.498759e+02
4.100000e-07	-4.889974e-06	-3.816728e-09	-3.612910e+01	-2.496181e+02
4.200000e-07	-4.873991e-06	-3.614531e-09	-3.601102e+01	-2.493797e+02
4.300000e-07	-4.857743e-06	-3.653473e-09	-3.589097e+01	-2.491600e+02
4.400000e-07	-4.841128e-06	-3.951233e-09	-3.576821e+01	-2.489578e+02
4.500000e-07	-4.824069e-06	-3.920745e-09	-3.564217e+01	-2.487720e+02
4.600000e-07	-4.806692e-06	-3.636314e-09	-3.551378e+01	-2.486010e+02
4.700000e-07	-4.789059e-06	-3.714945e-09	-3.538351e+01	-2.484431e+02
4.800000e-07	-4.771208e-06	-4.011237e-09	-3.525161e+01	-2.482964e+02
4.900000e-07	-4.753007e-06	-3.920538e-09	-3.511714e+01	-2.481590e+02
5.000000e-07	-4.734384e-06	-3.693094e-09	-3.497954e+01	-2.480286e+02
5.100000e-07	-4.715390e-06	-3.763037e-09	-3.483921e+01	-2.479031e+02
5.200000e-07	-4.696081e-06	-3.925911e-09	-3.469655e+01	-2.477800e+02
5.300000e-07	-4.676491e-06	-3.863615e-09	-3.455180e+01	-2.476570e+02
5.400000e-07	-4.656663e-06	-3.777276e-09	-3.440531e+01	-2.475316e+02
5.500000e-07	-4.636620e-06	-3.765411e-09	-3.425722e+01	-2.474014e+02
5.600000e-07	-4.616316e-06	-3.786545e-09	-3.410721e+01	-2.472638e+02
5.700000e-07	-4.595738e-06	-3.824486e-09	-3.395517e+01	-2.471166e+02
5.800000e-07	-4.574914e-06	-3.856702e-09	-3.380131e+01	-2.469574e+02
5.900000e-07	-4.553751e-06	-3.757078e-09	-3.364495e+01	-2.467839e+02
6.000000e-07	-4.532214e-06	-3.687235e-09	-3.348583e+01	-2.465940e+02
6.100000e-07	-4.510389e-06	-3.787659e-09	-3.332458e+01	-2.463858e+02
6.200000e-07	-4.488328e-06	-3.864017e-09	-3.316158e+01	-2.461573e+02
6.300000e-07	-4.465909e-06	-3.730471e-09	-3.299594e+01	-2.459071e+02
6.400000e-07	-4.443140e-06	-3.643720e-09	-3.282772e+01	-2.456335e+02
6.500000e-07	-4.420095e-06	-3.751749e-09	-3.265745e+01	-2.453354e+02
6.600000e-07	-4.396742e-06	-3.818485e-09	-3.248491e+01	-2.450116e+02
6.700000e-07	-4.373138e-06	-3.720521e-09	-3.231051e+01	-2.446615e+02
6.800000e-07	-4.349278e-06	-3.659096e-09	-3.213423e+01	-2.442843e+02
6.900000e-07	-4.325159e-06	-3.710021e-09	-3.195603e+01	-2.438798e+02
7.000000e-07	-4.300798e-06	-3.741306e-09	-3.177603e+01	-2.434479e+02
7.100000e-07	-4.276136e-06	-3.713941e-09	-3.159382e+01	-2.429886e+02
7.200000e-07	-4.251130e-06	-3.674360e-09	-3.140907e+01	-2.425024e+02
7.300000e-07	-4.225779e-06	-3.661178e-09	-3.122176e+01	-2.419898e+02
7.400000e-07	-4.199985e-06	-3.677276e-09	-3.103119e+01	-2.414515e+02
7.500000e-07	-4.173680e-06	-3.702565e-09	-3.083683e+01	-2.408886e+02
7.600000e-07	-4.146962e-06	-3.677683e-09	-3.063943e+01	-2.403023e+02
7.700000e-07	-4.119865e-06	-3.631210e-09	-3.043923e+01	-2.396938e+02
7.800000e-07	-4.092402e-06	-3.627867e-09	-3.023632e+01	-2.390647e+02
7.900000e-07	-4.064640e-06	-3.667209e-09	-3.003120e+01	-2.384165e+02
8.000000e-07	-4.036670e-06	-3.654523e-09	-2.982455e+01	-2.377509e+02
8.100000e-07	-4.008464e-06	-3.597543e-09	-2.961615e+01	-2.370698e+02
8.200000e-07	-3.979996e-06	-3.582917e-09	-2.940582e+01	-2.363749e+02
8.300000e-07	-3.951370e-06	-3.627774e-09	-2.919432e+01	-2.356682e+02
8.400000e-07	-3.922606e-06	-3.621777e-09	-2.898180e+01	-2.349515e+02
8.500000e-07	-3.893544e-06	-3.569575e-09	-2.876708e+01	-2.342266e+02
8.600000e-07	-3.864098e-06	-3.555621e-09	-2.854952e+01	-2.334954e+02
8.700000e-07	-3.834320e-06	-3.582379e-09	-2.832951e+01	-2.327596e+02
8.800000e-07	-3.804257e-06	-3.574637e-09	-2.810739e+01	-2.320208e+02
8.900000e-07	-3.774022e-06	-3.542067e-09	-2.788400e+01	-2.312806e+02
9.000000e-07	-3.743641e-06	-3.525218e-09	-2.765953e+01	-2.305404e+02
9.100000e-07	-3.712978e-06	-3.524897e-09	-2.743298e+01	-2.298014e+02
9.200000e-07	-3.682010e-06	-3.520738e-09	-2.720418e+01	-2.290646e+02
9.300000e-07	-3.650833e-06	-3.507952e-09	-2.697383e+01	-2.283309e+02
9.400000e-07	-3.619454e-06	-3.484975e-09	-2.674199e+01	-2.276011e+02
9.500000e-07	-3.587885e-06	-3.469399e-09	-2.650874e+01	-2.268755e+02
9.600000e-07	-3.556115e-06	-3.475144e-09	-2.627402e+01	-2.261545e+02
9.700000e-07	-3.524131e-06	-3.473515e-09	-2.603770e+01	-2.254380e+02
9.800000e-07	-3.491923e-06	-3.446765e-09	-2.579974e+01	-2.247260e+02
9.900000e-07	-3.459548e-06	-3.424903e-09	-2.556054e+01	-2.240179e+02
1.000000e-06	-3.427027e-06	-3.430057e-09	-2.532026e+01	-2.233131e+02
1.010000e-06	-3.394183e-06	-3.429313e-09	-2.507759e+01	-2.226109e+02
1.020000e-06	-3.361002e-06	-3.404924e-09	-2.483244e+01	-2.219101e+02
1.030000e-06	-3.327523e-06	-3.378268e-09	-2.458508e+01	-2.212095e+02
1.040000e-06	-3.293607e-06	-3.377707e-09	-2.433450e+01	-2.205078e+02
1.050000e-06	-3.259296e-06	-3.379175e-09	-2.408100e+01	-2.198034e+02
1.060000e-06	-3.224560e-06	-3.360701e-09	-2.382435e+01	-2.190945e+02
1.070000e-06	-3.189419e-06	-3.333023e-09	-2.356472e+01	-2.183793e+02
1.080000e-06	-3.154015e-06	-3.324312e-09	-2.330314e+01	-2.176559e+02
1.090000e-06	-3.118400e-06	-3.323338e-09	-2.304000e+01	-2.169224e+02
1.100000e-06	-3.082655e-06	-3.310588e-09	-2.277590e+01	-2.161765e+02
1.110000e-06	-3.046817e-06	-3.287130e-09	-2.251111e+01	-2.154164e+02
1.120000e-06	-3.010861e-06	-3.270542e-09	-2.224545e+01	-2.146397e+02
1.130000e-06	-2.974736e-06	-3.261746e-09	-2.197855e+01	-2.138445e+02
1.140000e-06	-2.938467e-06	-3.254918e-09	-2.171058e+01	-2.130288e+02
1.150000e-06	-2.902032e-06	-3.238819e-09	-2.144139e+01	-2.121905e+02
1.160000e-06	-2.865335e-06	-3.215926e-09	-2.117026e+01	-2.113278e+02
1.170000e-06	-2.828442e-06	-3.198235e-09	-2.089767e+01	-2.104389e+02
1.180000e-06	-2.791417e-06	-3.190094e-09	-2.062412e+01	-2.095222e+02
1.190000e-06	-2.754170e-06	-3.175623e-09	-2.034892e+01	-2.085761e+02
1.200000e-06	-2.716708e-06	-3.149687e-09	-2.007214e+01	-2.075993e+02
1.210000e-06	-2.679018e-06	-3.129304e-09	-1.979367e+01	-2.065907e+02
1.220000e-06	-2.641082e-06	-3.119645e-09	-1.951338e+01	-2.055492e+02
1.230000e-06	-2.602963e-06	-3.108284e-09	-1.923174e+01	-2.044741e+02
1.240000e-06	-2.564678e-06	-3.086909e-09	-1.894888e+01	-2.033648e+02
1.250000e-06	-2.526237e-06	-3.065989e-09	-1.866486e+01	-2.022209e+02
1.260000e-06	-2.487640e-06	-3.053344e-09	-1.837969e+01	-2.010422e+02
1.270000e-06	-2.448913e-06	-3.039286e-09	-1.809356e+01	-1.998287e+02
1.280000e-06	-2.409991e-06	-3.017311e-09	-1.780599e+01	-1.985806e+02
1.290000e-06	-2.370956e-06	-2.994749e-09	-1.751758e+01	-1.972982e+02
1.300000e-06	-2.331807e-06	-2.974315e-09	-1.722833e+01	-1.959820e+02
1.310000e-06	-2.292421e-06	-2.955945e-09	-1.693733e+01	-1.946329e+02
1.320000e-06	-2.252898e-06	-2.939221e-09	-1.664532e+01	-1.932515e+02
1.330000e-06	-2.213272e-06	-2.920708e-09	-1.635255e+01	-1.918388e+02
1.340000e-06	-2.173504e-06	-2.895484e-09	-1.605873e+01	-1.903959e+02
1.350000e-06	-2.133615e-06	-2.872933e-09	-1.576401e+01	-1.889237e+02
1.360000e-06	-2.093692e-06	-2.856371e-09	-1.546905e+01	-1.874235e+02
1.370000e-06	-2.053730e-06	-2.837276e-09	-1.517378e+01	-1.858963e+02
1.380000e-06	-2.013643e-06	-2.809674e-09	-1.487761e+01	-1.843434e+02
1.390000e-06	-1.973402e-06	-2.783944e-09	-1.458029e+01	-1.827656e+02
1.400000e-06	-1.933038e-06	-2.760548e-09	-1.428207e+01	-1.811642e+02
1.410000e-06	-1.892599e-06	-2.735860e-09	-1.398329e+01	-1.795400e+02
1.420000e-06	-1.851991e-06	-2.710067e-09	-1.368326e+01	-1.778937e+02
1.430000e-06	-1.811248e-06	-2.685464e-09	-1.338224e+01	-1.762261e+02
1.440000e-06	-1.770386e-06	-2.660500e-09	-1.308033e+01	-1.745374e+02
1.450000e-06	-1.729274e-06	-2.636082e-09	-1.277657e+01	-1.728281e+02
1.460000e-06	-1.687981e-06	-2.611014e-09	-1.247149e+01	-1.710981e+02
1.470000e-06	-1.646504e-06	-2.583410e-09	-1.216504e+01	-1.693471e+02
1.480000e-06	-1.604784e-06	-2.555377e-09	-1.185679e+01	-1.675748e+02
1.490000e-06	-1.562727e-06	-2.527944e-09	-1.154606e+01	-1.657802e+02
1.500000e-06	-1.520432e-06	-2.499421e-09	-1.123357e+01	-1.639624e+02
1.510000e-06	-1.477916e-06	-2.470179e-09	-1.091944e+01	-1.621199e+02
1.520000e-06	-1.435218e-06	-2.443117e-09	-1.060397e+01	-1.602511e+02
1.530000e-06	-1.392491e-06	-2.419203e-09	-1.028829e+01	-1.583541e+02
1.540000e-06	-1.349670e-06	-2.396528e-09	-9.971905e+00	-1.564265e+02
1.550000e-06	-1.306675e-06	-2.369124e-09	-9.654240e+00	-1.544657e+02
1.560000e-06	-1.263543e-06	-2.336911e-09	-9.335563e+00	-1.524690e+02
1.570000e-06	-1.220319e-06	-2.303754e-09	-9.016211e+00	-1.504332e+02
1.580000e-06	-1.176944e-06	-2.269451e-09	-8.695735e+00	-1.483549e+02
1.590000e-06	-1.133412e-06	-2.232451e-09	-8.374106e+00	-1.462304e+02
1.600000e-06	-1.089811e-06	-2.195718e-09	-8.051961e+00	-1.440561e+02
1.610000e-06	-1.046188e-06	-2.160095e-09	-7.729662e+00	-1.418278e+02
1.620000e-06	-1.002494e-06	-2.125366e-09	-7.406828e+00	-1.395414e+02
1.630000e-06	-9.587679e-07	-2.087789e-09	-7.083765e+00	-1.371927e+02
1.640000e-06	-9.150127e-07	-2.048864e-09	-6.760484e+00	-1.347772e+02
1.650000e-06	-8.712347e-07	-2.010696e-09	-6.437034e+00	-1.322907e+02
1.660000e-06	-8.274751e-07	-1.974628e-09	-6.113721e+00	-1.297288e+02
1.670000e-06	-7.836663e-07	-1.937164e-09	-5.790043e+00	-1.270871e+02
1.680000e-06	-7.397272e-07	-1.895083e-09	-5.465403e+00	-1.243613e+02
1.690000e-06	-6.957405e-07	-1.852474e-09	-5.140412e+00	-1.215474e+02
1.700000e-06	-6.517751e-07	-1.812136e-09	-4.815578e+00	-1.186414e+02
1.710000e-06	-6.078113e-07	-1.770581e-09	-4.490756e+00	-1.156397e+02
1.720000e-06	-5.638094e-07	-1.726097e-09	-4.165652e+00	-1.125386e+02
1.730000e-06	-5.197758e-07	-1.681665e-09	-3.840314e+00	-1.093351e+02
1.740000e-06	-4.757790e-07	-1.636537e-09	-3.515248e+00	-1.060263e+02
1.750000e-06	-4.317826e-07	-1.587122e-09	-3.190185e+00	-1.026098e+02
1.760000e-06	-3.877218e-07	-1.533267e-09	-2.864645e+00	-9.908351e+01
1.770000e-06	-3.436368e-07	-1.478103e-09	-2.538927e+00	-9.544593e+01
1.780000e-06	-2.995515e-07	-1.422657e-09	-2.213207e+00	-9.169592e+01
1.790000e-06	-2.554117e-07	-1.364901e-09	-1.887085e+00	-8.783288e+01
1.800000e-06	-2.112606e-07	-1.302864e-09	-1.560879e+00	-8.385672e+01
1.810000e-06	-1.671332e-07	-1.240948e-09	-1.234848e+00	-7.976792e+01
1.820000e-06	-1.230038e-07	-1.182081e-09	-9.088018e-01	-7.556749e+01
1.830000e-06	-7.888683e-08	-1.122361e-09	-5.828478e-01	-7.125702e+01
1.840000e-06	-3.482809e-08	-1.058398e-09	-2.573240e-01	-6.683869e+01
1.850000e-06	9.197733e-09	-9.891463e-10	6.795657e-02	-6.231521e+01
1.860000e-06	5.322731e-08	-9.170436e-10	3.932649e-01	-5.768989e+01
1.870000e-06	9.724191e-08	-8.447660e-10	7.184626e-01	-5.296659e+01
1.880000e-06	1.412630e-07	-7.720303e-10	1.043708e+00	-4.814972e+01
1.890000e-06	1.852739e-07	-6.975075e-10	1.368878e+00	-4.324420e+01
1.900000e-06	2.292679e-07	-6.207575e-10	1.693924e+00	-3.825548e+01
1.910000e-06	2.732834e-07	-5.419484e-10	2.019128e+00	-3.318946e+01
1.920000e-06	3.173199e-07	-4.667641e-10	2.344488e+00	-2.805251e+01
1.930000e-06	3.613794e-07	-3.911719e-10	2.670017e+00	-2.285138e+01
1.940000e-06	4.054414e-07	-3.074448e-10	2.995565e+00	-1.759323e+01
1.950000e-06	4.494755e-07	-2.234078e-10	3.320907e+00	-1.228552e+01
1.960000e-06	4.934695e-07	-1.452677e-10	3.645952e+00	-6.936025e+00
1.970000e-06	5.374451e-07	-6.636163e-11	3.970861e+00	-1.552735e+00
1.980000e-06	5.813986e-07	1.740102e-11	4.295608e+00	3.856152e+00
1.990000e-06	6.253184e-07	1.001704e-10	4.620105e+00	9.282297e+00
2.000000e-06	6.692327e-07	1.836881e-10	4.944562e+00	1.471727e+01
2.010000e-06	7.131577e-07	2.684321e-10	5.269098e+00	2.015261e+01
2.020000e-06	7.570926e-07	3.522698e-10	5.593706e+00	2.557984e+01
2.030000e-06	8.009603e-07	4.364134e-10	5.917818e+00	3.099059e+01
2.040000e-06	8.447557e-07	5.189530e-10	6.241397e+00	3.637655e+01
2.050000e-06	8.885344e-07	5.990074e-10	6.564851e+00	4.172962e+01
2.060000e-06	9.322928e-07	6.792994e-10	6.888156e+00	4.704189e+01
2.070000e-06	9.760372e-07	7.609464e-10	7.211357e+00	5.230569e+01
2.080000e-06	1.019729e-06	8.416149e-10	7.534170e+00	5.751368e+01
2.090000e-06	1.063335e-06	9.214376e-10	7.856345e+00	6.265884e+01
2.100000e-06	1.106831e-06	1.002338e-09	8.177712e+00	6.773454e+01
2.110000e-06	1.150268e-06	1.081366e-09	8.498647e+00	7.273454e+01
2.120000e-06	1.193690e-06	1.154443e-09	8.819466e+00	7.765306e+01
2.130000e-06	1.236982e-06	1.225088e-09	9.139326e+00	8.248478e+01
2.140000e-06	1.280131e-06	1.296424e-09	9.458125e+00	8.722488e+01
2.150000e-06	1.323193e-06	1.365877e-09	9.776282e+00	9.186902e+01
2.160000e-06	1.366109e-06	1.432231e-09	1.009336e+01	9.641342e+01
2.170000e-06	1.408755e-06	1.494799e-09	1.040845e+01	1.008548e+02
2.180000e-06	1.451225e-06	1.556687e-09	1.072223e+01	1.051904e+02
2.190000e-06	1.493643e-06	1.618409e-09	1.103564e+01	1.094181e+02
2.200000e-06	1.535904e-06	1.674542e-09	1.134788e+01	1.135361e+02
2.210000e-06	1.577811e-06	1.727755e-09	1.165751e+01	1.175434e+02
2.220000e-06	1.619469e-06	1.782096e-09	1.196529e+01	1.214392e+02
2.230000e-06	1.661025e-06	1.834574e-09	1.227233e+01	1.252236e+02
2.240000e-06	1.702462e-06	1.883104e-09	1.257848e+01	1.288967e+02
2.250000e-06	1.743692e-06	1.931314e-09	1.288310e+01	1.324594e+02
2.260000e-06	1.784606e-06	1.981117e-09	1.318539e+01	1.359129e+02
2.270000e-06	1.825342e-06	2.029453e-09	1.348636e+01	1.392588e+02
2.280000e-06	1.865957e-06	2.075762e-09	1.378645e+01	1.424991e+02
2.290000e-06	1.906401e-06	2.118776e-09	1.408526e+01	1.456362e+02
2.300000e-06	1.946670e-06	2.160285e-09	1.438279e+01	1.486727e+02
2.310000e-06	1.986891e-06	2.202308e-09	1.467995e+01	1.516114e+02
2.320000e-06	2.027033e-06	2.242889e-09	1.497654e+01	1.544554e+02
2.330000e-06	2.067024e-06	2.280544e-09	1.527201e+01	1.572082e+02
2.340000e-06	2.106970e-06	2.316177e-09	1.556714e+01	1.598731e+02
2.350000e-06	2.146890e-06	2.351949e-09	1.586209e+01	1.624537e+02
2.360000e-06	2.186749e-06	2.388681e-09	1.615659e+01	1.649537e+02
2.370000e-06	2.226499e-06	2.425804e-09	1.645028e+01	1.673769e+02
2.380000e-06	2.266121e-06	2.463627e-09	1.674302e+01	1.697268e+02
2.390000e-06	2.305552e-06	2.501245e-09	1.703435e+01	1.720073e+02
2.400000e-06	2.344799e-06	2.536530e-09	1.732432e+01	1.742219e+02
2.410000e-06	2.383888e-06	2.567244e-09	1.761313e+01	1.763743e+02
2.420000e-06	2.422733e-06	2.597368e-09	1.790013e+01	1.784679e+02
2.430000e-06	2.461375e-06	2.629146e-09	1.818564e+01	1.805060e+02
2.440000e-06	2.499867e-06	2.660122e-09	1.847002e+01	1.824918e+02
2.450000e-06	2.538153e-06	2.690975e-09	1.875290e+01	1.844284e+02
2.460000e-06	2.576247e-06	2.721677e-09	1.903436e+01	1.863185e+02
2.470000e-06	2.614208e-06	2.752270e-09	1.931482e+01	1.881647e+02
2.480000e-06	2.652090e-06	2.781122e-09	1.959471e+01	1.899696e+02
2.490000e-06	2.689857e-06	2.809025e-09	1.987375e+01	1.917352e+02
2.500000e-06	2.727418e-06	2.835398e-09	2.015127e+01	1.934637e+02
2.510000e-06	2.764726e-06	2.859759e-09	2.042691e+01	1.951567e+02
2.520000e-06	2.801814e-06	2.883863e-09	2.070094e+01	1.968159e+02
2.530000e-06	2.838766e-06	2.907513e-09	2.097395e+01	1.984425e+02
2.540000e-06	2.875483e-06	2.928999e-09	2.124523e+01	2.000378e+02
2.550000e-06	2.911902e-06	2.951454e-09	2.151431e+01	2.016027e+02
2.560000e-06	2.948164e-06	2.978204e-09	2.178223e+01	2.031380e+02
2.570000e-06	2.984310e-06	3.006537e-09	2.204929e+01	2.046443e+02
2.580000e-06	3.020342e-06	3.031403e-09	2.231551e+01	2.061221e+02
2.590000e-06	3.056289e-06	3.054069e-09	2.258110e+01	2.075716e+02
2.600000e-06	3.092117e-06	3.076197e-09	2.284581e+01	2.089930e+02
2.610000e-06	3.127836e-06	3.099308e-09	2.310972e+01	2.103866e+02
2.620000e-06	3.163435e-06	3.119804e-09	2.337273e+01	2.117522e+02
2.630000e-06	3.198765e-06	3.138738e-09	2.363377e+01	2.130898e+02
2.640000e-06	3.233780e-06	3.156011e-09	2.389247e+01	2.143994e+02
2.650000e-06	3.268429e-06	3.173254e-09	2.414847e+01	2.156807e+02
2.660000e-06	3.302577e-06	3.190784e-09	2.440078e+01	2.169337e+02
2.670000e-06	3.336241e-06	3.210266e-09	2.464950e+01	2.181581e+02
2.680000e-06	3.369463e-06	3.230685e-09	2.489496e+01	2.193540e+02
2.690000e-06	3.402327e-06	3.251596e-09	2.513777e+01	2.205211e+02
2.700000e-06	3.434890e-06	3.270936e-09	2.537835e+01	2.216594e+02
2.710000e-06	3.467270e-06	3.283040e-09	2.561759e+01	2.227689e+02
2.720000e-06	3.499486e-06	3.293042e-09	2.585561e+01	2.238498e+02
2.730000e-06	3.531485e-06	3.306883e-09	2.609204e+01	2.249022e+02
2.740000e-06	3.563402e-06	3.322109e-09	2.632786e+01	2.259263e+02
2.750000e-06	3.595254e-06	3.334860e-09	2.656319e+01	2.269224e+02
2.760000e-06	3.626972e-06	3.348540e-09	2.679753e+01	2.278910e+02
2.770000e-06	3.658458e-06	3.364826e-09	2.703017e+01	2.288326e+02
2.780000e-06	3.689627e-06	3.382333e-09	2.726046e+01	2.297477e+02
2.790000e-06	3.720449e-06	3.397994e-09	2.748818e+01	2.306371e+02
2.800000e-06	3.750937e-06	3.409612e-09	2.771344e+01	2.315014e+02
2.810000e-06	3.781153e-06	3.420154e-09	2.793669e+01	2.323416e+02
2.820000e-06	3.811149e-06	3.431918e-09	2.815831e+01	2.331585e+02
2.830000e-06	3.840939e-06	3.442074e-09	2.837841e+01	2.339531e+02
2.840000e-06	3.870525e-06	3.451893e-09	2.859701e+01	2.347265e+02
2.850000e-06	3.899839e-06	3.463148e-09	2.881358e+01	2.354796e+02
2.860000e-06	3.928894e-06	3.476609e-09	2.902826e+01	2.362136e+02
2.870000e-06	3.957669e-06	3.488088e-09	2.924086e+01	2.369296e+02
2.880000e-06	3.986103e-06	3.500573e-09	2.945094e+01	2.376286e+02
2.890000e-06	4.014310e-06	3.510258e-09	2.965934e+01	2.383118e+02
2.900000e-06	4.042384e-06	3.518893e-09	2.986676e+01	2.389803e+02
