# Temperatura_=_20.0
# Concentracion g/m^3_=_9000.0
# C_Vs_to_Am_M_A/Vsm_=_65563218390.804596
# pendiente_HvsI_1/m_=_3716.3
# ordenada_HvsI_A/m_=_1297.0
# frecuencia_Hz_=_135106.31170048713

Tiempo_(s)	Campo_(V.s)	Magnetizacion_(V.s)	Campo_(kA/m)	Magnetizacion_(A/m)
0.000000e+00	-5.180490e-06	-1.606037e-11	-3.836507e+01	-1.738391e+00
1.000000e-08	-5.180706e-06	-1.503513e-11	-3.836667e+01	-1.745420e+00
2.000000e-08	-5.180694e-06	-1.399891e-11	-3.836658e+01	-1.751139e+00
3.000000e-08	-5.180401e-06	-1.445048e-11	-3.836441e+01	-1.755427e+00
4.000000e-08	-5.179765e-06	-1.435287e-11	-3.835970e+01	-1.758182e+00
5.000000e-08	-5.178620e-06	-1.300497e-11	-3.835122e+01	-1.759317e+00
6.000000e-08	-5.176951e-06	-1.522344e-11	-3.833886e+01	-1.758764e+00
7.000000e-08	-5.174806e-06	-1.902797e-11	-3.832297e+01	-1.756475e+00
8.000000e-08	-5.172135e-06	-5.698088e-12	-3.830319e+01	-1.752421e+00
9.000000e-08	-5.168972e-06	2.373913e-11	-3.827977e+01	-1.746592e+00
1.000000e-07	-5.165351e-06	1.313638e-12	-3.825295e+01	-1.738999e+00
1.100000e-07	-5.161359e-06	-7.618997e-11	-3.822339e+01	-1.729672e+00
1.200000e-07	-5.157092e-06	-7.706544e-11	-3.819179e+01	-1.718659e+00
1.300000e-07	-5.152616e-06	1.885958e-11	-3.815864e+01	-1.706027e+00
1.400000e-07	-5.147903e-06	6.001937e-11	-3.812373e+01	-1.691859e+00
1.500000e-07	-5.142769e-06	-3.518700e-11	-3.808572e+01	-1.676255e+00
1.600000e-07	-5.137186e-06	-1.167866e-10	-3.804437e+01	-1.659328e+00
1.700000e-07	-5.131266e-06	-2.925276e-11	-3.800053e+01	-1.641205e+00
1.800000e-07	-5.124959e-06	8.444345e-11	-3.795382e+01	-1.622024e+00
1.900000e-07	-5.118324e-06	5.842105e-11	-3.790468e+01	-1.601932e+00
2.000000e-07	-5.111424e-06	-5.888042e-11	-3.785358e+01	-1.581084e+00
2.100000e-07	-5.104213e-06	-7.604993e-11	-3.780019e+01	-1.559638e+00
2.200000e-07	-5.096720e-06	6.971356e-12	-3.774470e+01	-1.537759e+00
2.300000e-07	-5.088992e-06	7.004750e-11	-3.768746e+01	-1.515610e+00
2.400000e-07	-5.081038e-06	-3.056402e-11	-3.762856e+01	-1.493355e+00
2.500000e-07	-5.072746e-06	-1.897441e-10	-3.756715e+01	-1.471153e+00
2.600000e-07	-5.063812e-06	-1.940170e-10	-3.750099e+01	-1.449160e+00
2.700000e-07	-5.054310e-06	-4.297964e-11	-3.743062e+01	-1.427523e+00
2.800000e-07	-5.044457e-06	-2.890845e-11	-3.735765e+01	-1.406382e+00
2.900000e-07	-5.033969e-06	-1.919022e-10	-3.727998e+01	-1.385864e+00
3.000000e-07	-5.022810e-06	-2.397203e-10	-3.719734e+01	-1.366087e+00
3.100000e-07	-5.011227e-06	-7.785284e-11	-3.711156e+01	-1.347151e+00
3.200000e-07	-4.999311e-06	2.429978e-12	-3.702331e+01	-1.329145e+00
3.300000e-07	-4.987138e-06	-1.117395e-10	-3.693316e+01	-1.312140e+00
3.400000e-07	-4.974590e-06	-1.279418e-10	-3.684023e+01	-1.296191e+00
3.500000e-07	-4.961592e-06	4.352092e-12	-3.674398e+01	-1.281334e+00
3.600000e-07	-4.948295e-06	5.530384e-11	-3.664551e+01	-1.267590e+00
3.700000e-07	-4.934723e-06	-2.891155e-11	-3.654500e+01	-1.254958e+00
3.800000e-07	-4.920784e-06	-5.544497e-11	-3.644176e+01	-1.243422e+00
3.900000e-07	-4.906393e-06	-4.124836e-11	-3.633519e+01	-1.232949e+00
4.000000e-07	-4.891473e-06	-1.010179e-11	-3.622470e+01	-1.223486e+00
4.100000e-07	-4.875941e-06	3.414222e-11	-3.610967e+01	-1.214965e+00
4.200000e-07	-4.859893e-06	9.489403e-12	-3.599083e+01	-1.207304e+00
4.300000e-07	-4.843467e-06	-9.437345e-11	-3.586918e+01	-1.200405e+00
4.400000e-07	-4.826706e-06	-4.975206e-11	-3.574505e+01	-1.194157e+00
4.500000e-07	-4.809722e-06	8.386524e-11	-3.561928e+01	-1.188439e+00
4.600000e-07	-4.792492e-06	3.650993e-11	-3.549168e+01	-1.183119e+00
4.700000e-07	-4.774917e-06	-9.457685e-11	-3.536152e+01	-1.178057e+00
4.800000e-07	-4.757007e-06	-1.924807e-11	-3.522889e+01	-1.173109e+00
4.900000e-07	-4.738758e-06	1.074457e-10	-3.509374e+01	-1.168124e+00
5.000000e-07	-4.720209e-06	4.598215e-11	-3.495637e+01	-1.162951e+00
5.100000e-07	-4.701272e-06	-5.052201e-11	-3.481613e+01	-1.157438e+00
5.200000e-07	-4.681937e-06	4.252165e-12	-3.467294e+01	-1.151436e+00
5.300000e-07	-4.662361e-06	7.498152e-11	-3.452797e+01	-1.144798e+00
5.400000e-07	-4.642578e-06	4.583156e-11	-3.438146e+01	-1.137385e+00
5.500000e-07	-4.622597e-06	7.891704e-13	-3.423348e+01	-1.129066e+00
5.600000e-07	-4.602394e-06	4.960413e-12	-3.408387e+01	-1.119718e+00
5.700000e-07	-4.581902e-06	2.903886e-11	-3.393211e+01	-1.109230e+00
5.800000e-07	-4.561078e-06	4.460199e-11	-3.377790e+01	-1.097506e+00
5.900000e-07	-4.539841e-06	3.817393e-11	-3.362063e+01	-1.084461e+00
6.000000e-07	-4.518287e-06	4.208902e-12	-3.346100e+01	-1.070027e+00
6.100000e-07	-4.496498e-06	-3.423221e-12	-3.329964e+01	-1.054153e+00
6.200000e-07	-4.474384e-06	3.517327e-11	-3.313587e+01	-1.036804e+00
6.300000e-07	-4.451914e-06	5.455907e-11	-3.296946e+01	-1.017964e+00
6.400000e-07	-4.429185e-06	9.783779e-12	-3.280114e+01	-9.976344e-01
6.500000e-07	-4.406138e-06	-1.003661e-11	-3.263046e+01	-9.758347e-01
6.600000e-07	-4.382735e-06	3.771045e-11	-3.245715e+01	-9.526025e-01
6.700000e-07	-4.359120e-06	6.539683e-11	-3.228226e+01	-9.279932e-01
6.800000e-07	-4.335352e-06	2.292245e-11	-3.210624e+01	-9.020792e-01
6.900000e-07	-4.311389e-06	1.652951e-12	-3.192878e+01	-8.749490e-01
7.000000e-07	-4.287147e-06	3.491743e-11	-3.174925e+01	-8.467064e-01
7.100000e-07	-4.262544e-06	5.757584e-11	-3.156705e+01	-8.174688e-01
7.200000e-07	-4.237484e-06	3.320473e-11	-3.138146e+01	-7.873663e-01
7.300000e-07	-4.211980e-06	1.807015e-11	-3.119259e+01	-7.565397e-01
7.400000e-07	-4.186106e-06	3.255165e-11	-3.100098e+01	-7.251390e-01
7.500000e-07	-4.159788e-06	5.153170e-11	-3.080607e+01	-6.933213e-01
7.600000e-07	-4.132939e-06	4.875586e-11	-3.060724e+01	-6.612488e-01
7.700000e-07	-4.105695e-06	3.622183e-11	-3.040547e+01	-6.290870e-01
7.800000e-07	-4.078142e-06	3.213894e-11	-3.020143e+01	-5.970022e-01
7.900000e-07	-4.050377e-06	4.226300e-11	-2.999581e+01	-5.651595e-01
8.000000e-07	-4.022505e-06	5.246190e-11	-2.978940e+01	-5.337210e-01
8.100000e-07	-3.994503e-06	4.660487e-11	-2.958202e+01	-5.028429e-01
8.200000e-07	-3.966317e-06	3.271132e-11	-2.937329e+01	-4.726740e-01
8.300000e-07	-3.937820e-06	4.103563e-11	-2.916224e+01	-4.433535e-01
8.400000e-07	-3.908953e-06	6.546386e-11	-2.894847e+01	-4.150093e-01
8.500000e-07	-3.879751e-06	6.377966e-11	-2.873221e+01	-3.877559e-01
8.600000e-07	-3.850269e-06	4.208382e-11	-2.851387e+01	-3.616930e-01
8.700000e-07	-3.820609e-06	4.538298e-11	-2.829422e+01	-3.369039e-01
8.800000e-07	-3.790756e-06	6.829848e-11	-2.807314e+01	-3.134546e-01
8.900000e-07	-3.760654e-06	6.501010e-11	-2.785021e+01	-2.913922e-01
9.000000e-07	-3.730284e-06	4.543095e-11	-2.762530e+01	-2.707446e-01
9.100000e-07	-3.699710e-06	4.154931e-11	-2.739888e+01	-2.515197e-01
9.200000e-07	-3.668930e-06	5.387269e-11	-2.717093e+01	-2.337050e-01
9.300000e-07	-3.637833e-06	6.048771e-11	-2.694064e+01	-2.172676e-01
9.400000e-07	-3.606461e-06	5.675385e-11	-2.670831e+01	-2.021543e-01
9.500000e-07	-3.574900e-06	5.480667e-11	-2.647457e+01	-1.882922e-01
9.600000e-07	-3.543152e-06	6.460254e-11	-2.623946e+01	-1.755891e-01
9.700000e-07	-3.511251e-06	7.425061e-11	-2.600321e+01	-1.639347e-01
9.800000e-07	-3.479233e-06	7.289330e-11	-2.576610e+01	-1.532014e-01
9.900000e-07	-3.447001e-06	6.281129e-11	-2.552740e+01	-1.432461e-01
1.000000e-06	-3.414370e-06	5.956728e-11	-2.528574e+01	-1.339113e-01
1.010000e-06	-3.381446e-06	6.615007e-11	-2.504192e+01	-1.250273e-01
1.020000e-06	-3.348356e-06	7.226752e-11	-2.479686e+01	-1.164138e-01
1.030000e-06	-3.314896e-06	6.689514e-11	-2.454907e+01	-1.078824e-01
1.040000e-06	-3.281010e-06	6.477048e-11	-2.429812e+01	-9.923818e-02
1.050000e-06	-3.246725e-06	7.673706e-11	-2.404421e+01	-9.028261e-02
1.060000e-06	-3.211937e-06	8.817285e-11	-2.378659e+01	-8.081561e-02
1.070000e-06	-3.176798e-06	8.490959e-11	-2.352636e+01	-7.063804e-02
1.080000e-06	-3.141426e-06	7.871404e-11	-2.326440e+01	-5.955411e-02
1.090000e-06	-3.105817e-06	8.440100e-11	-2.300070e+01	-4.737384e-02
1.100000e-06	-3.070114e-06	9.201009e-11	-2.273629e+01	-3.391537e-02
1.110000e-06	-3.034347e-06	8.904063e-11	-2.247141e+01	-1.900731e-02
1.120000e-06	-2.998459e-06	8.593043e-11	-2.220563e+01	-2.490893e-03
1.130000e-06	-2.962450e-06	8.858748e-11	-2.193897e+01	1.577793e-02
1.140000e-06	-2.926329e-06	9.536992e-11	-2.167147e+01	3.592662e-02
1.150000e-06	-2.889968e-06	1.008849e-10	-2.140219e+01	5.806427e-02
1.160000e-06	-2.853266e-06	1.019398e-10	-2.113038e+01	8.228011e-02
1.170000e-06	-2.816367e-06	9.865583e-11	-2.085712e+01	1.086422e-01
1.180000e-06	-2.779363e-06	9.699158e-11	-2.058308e+01	1.371963e-01
1.190000e-06	-2.742197e-06	9.986117e-11	-2.030784e+01	1.679653e-01
1.200000e-06	-2.704887e-06	9.999296e-11	-2.003153e+01	2.009481e-01
1.210000e-06	-2.667360e-06	9.779159e-11	-1.975362e+01	2.361200e-01
1.220000e-06	-2.629553e-06	9.608690e-11	-1.947364e+01	2.734324e-01
1.230000e-06	-2.591563e-06	9.988423e-11	-1.919229e+01	3.128129e-01
1.240000e-06	-2.553460e-06	1.041959e-10	-1.891012e+01	3.541661e-01
1.250000e-06	-2.515227e-06	1.046413e-10	-1.862697e+01	3.973744e-01
1.260000e-06	-2.476805e-06	1.049284e-10	-1.834243e+01	4.422992e-01
1.270000e-06	-2.438238e-06	1.080940e-10	-1.805682e+01	4.887818e-01
1.280000e-06	-2.399474e-06	1.096039e-10	-1.776974e+01	5.366457e-01
1.290000e-06	-2.360441e-06	1.073334e-10	-1.748068e+01	5.856977e-01
1.300000e-06	-2.321315e-06	1.049406e-10	-1.719092e+01	6.357306e-01
1.310000e-06	-2.282072e-06	1.057300e-10	-1.690030e+01	6.865250e-01
1.320000e-06	-2.242613e-06	1.070420e-10	-1.660808e+01	7.378517e-01
1.330000e-06	-2.203059e-06	1.080518e-10	-1.631516e+01	7.894744e-01
1.340000e-06	-2.163410e-06	1.072721e-10	-1.602153e+01	8.411521e-01
1.350000e-06	-2.123585e-06	1.070202e-10	-1.572660e+01	8.926419e-01
1.360000e-06	-2.083678e-06	1.107368e-10	-1.543106e+01	9.437020e-01
1.370000e-06	-2.043759e-06	1.172587e-10	-1.513543e+01	9.940937e-01
1.380000e-06	-2.003770e-06	1.181554e-10	-1.483929e+01	1.043585e+00
1.390000e-06	-1.963660e-06	1.157147e-10	-1.454224e+01	1.091953e+00
1.400000e-06	-1.923373e-06	1.157439e-10	-1.424389e+01	1.138985e+00
1.410000e-06	-1.883011e-06	1.159163e-10	-1.394498e+01	1.184485e+00
1.420000e-06	-1.842574e-06	1.138193e-10	-1.364552e+01	1.228271e+00
1.430000e-06	-1.802020e-06	1.133392e-10	-1.334519e+01	1.270181e+00
1.440000e-06	-1.761408e-06	1.158082e-10	-1.304443e+01	1.310073e+00
1.450000e-06	-1.720606e-06	1.191900e-10	-1.274226e+01	1.347826e+00
1.460000e-06	-1.679502e-06	1.211862e-10	-1.243786e+01	1.383346e+00
1.470000e-06	-1.638130e-06	1.216072e-10	-1.213147e+01	1.416562e+00
1.480000e-06	-1.596485e-06	1.219897e-10	-1.182306e+01	1.447428e+00
1.490000e-06	-1.554482e-06	1.208100e-10	-1.151200e+01	1.475928e+00
1.500000e-06	-1.512262e-06	1.187241e-10	-1.119933e+01	1.502070e+00
1.510000e-06	-1.469948e-06	1.168729e-10	-1.088597e+01	1.525891e+00
1.520000e-06	-1.427398e-06	1.188858e-10	-1.057086e+01	1.547455e+00
1.530000e-06	-1.384631e-06	1.241856e-10	-1.025413e+01	1.566852e+00
1.540000e-06	-1.341837e-06	1.292334e-10	-9.937223e+00	1.584198e+00
1.550000e-06	-1.299055e-06	1.315044e-10	-9.620386e+00	1.599633e+00
1.560000e-06	-1.256174e-06	1.324710e-10	-9.302829e+00	1.613322e+00
1.570000e-06	-1.213073e-06	1.327392e-10	-8.983635e+00	1.625449e+00
1.580000e-06	-1.169814e-06	1.337230e-10	-8.663272e+00	1.636220e+00
1.590000e-06	-1.126501e-06	1.344016e-10	-8.342506e+00	1.645856e+00
1.600000e-06	-1.083102e-06	1.335699e-10	-8.021110e+00	1.654595e+00
1.610000e-06	-1.039679e-06	1.337080e-10	-7.699532e+00	1.662687e+00
1.620000e-06	-9.962011e-07	1.354008e-10	-7.377550e+00	1.670392e+00
1.630000e-06	-9.526099e-07	1.348037e-10	-7.054727e+00	1.677976e+00
1.640000e-06	-9.089388e-07	1.340364e-10	-6.731313e+00	1.685711e+00
1.650000e-06	-8.652556e-07	1.373016e-10	-6.407809e+00	1.693867e+00
1.660000e-06	-8.216218e-07	1.429560e-10	-6.084671e+00	1.702716e+00
1.670000e-06	-7.779471e-07	1.443658e-10	-5.761229e+00	1.712521e+00
1.680000e-06	-7.342025e-07	1.431089e-10	-5.437271e+00	1.723541e+00
1.690000e-06	-6.904115e-07	1.445534e-10	-5.112969e+00	1.736021e+00
1.700000e-06	-6.465808e-07	1.462719e-10	-4.788372e+00	1.750194e+00
1.710000e-06	-6.027700e-07	1.465182e-10	-4.463923e+00	1.766277e+00
1.720000e-06	-5.589609e-07	1.457672e-10	-4.139487e+00	1.784467e+00
1.730000e-06	-5.150923e-07	1.454907e-10	-3.814610e+00	1.804941e+00
1.740000e-06	-4.711586e-07	1.461149e-10	-3.489251e+00	1.827852e+00
1.750000e-06	-4.272394e-07	1.475217e-10	-3.163999e+00	1.853328e+00
1.760000e-06	-3.833437e-07	1.473605e-10	-2.838922e+00	1.881472e+00
1.770000e-06	-3.394196e-07	1.462429e-10	-2.513634e+00	1.912357e+00
1.780000e-06	-2.954912e-07	1.465668e-10	-2.188314e+00	1.946029e+00
1.790000e-06	-2.515024e-07	1.474020e-10	-1.862547e+00	1.982503e+00
1.800000e-06	-2.074294e-07	1.448500e-10	-1.536156e+00	2.021765e+00
1.810000e-06	-1.633950e-07	1.424242e-10	-1.210052e+00	2.063771e+00
1.820000e-06	-1.193877e-07	1.421995e-10	-8.841476e-01	2.108446e+00
1.830000e-06	-7.534780e-08	1.419292e-10	-5.580019e-01	2.155688e+00
1.840000e-06	-3.126775e-08	1.422122e-10	-2.315590e-01	2.205367e+00
1.850000e-06	1.281771e-08	1.435880e-10	9.492387e-02	2.257323e+00
1.860000e-06	5.685495e-08	1.434443e-10	4.210497e-01	2.311374e+00
1.870000e-06	1.008578e-07	1.423025e-10	7.469210e-01	2.367313e+00
1.880000e-06	1.448690e-07	1.422509e-10	1.072854e+00	2.424911e+00
1.890000e-06	1.888896e-07	1.409547e-10	1.398857e+00	2.483921e+00
1.900000e-06	2.328940e-07	1.378478e-10	1.724739e+00	2.544078e+00
1.910000e-06	2.768651e-07	1.351829e-10	2.050375e+00	2.605104e+00
1.920000e-06	3.207961e-07	1.362330e-10	2.375714e+00	2.666709e+00
1.930000e-06	3.647598e-07	1.365435e-10	2.701296e+00	2.728596e+00
1.940000e-06	4.087591e-07	1.329701e-10	3.027140e+00	2.790459e+00
1.950000e-06	4.526901e-07	1.297998e-10	3.352480e+00	2.851995e+00
1.960000e-06	4.965394e-07	1.315487e-10	3.677214e+00	2.912899e+00
1.970000e-06	5.403904e-07	1.331248e-10	4.001960e+00	2.972869e+00
1.980000e-06	5.842168e-07	1.321984e-10	4.326525e+00	3.031614e+00
1.990000e-06	6.279984e-07	1.308024e-10	4.650757e+00	3.088848e+00
2.000000e-06	6.717640e-07	1.299765e-10	4.974871e+00	3.144302e+00
2.010000e-06	7.155523e-07	1.282246e-10	5.299153e+00	3.197722e+00
2.020000e-06	7.592869e-07	1.248170e-10	5.623038e+00	3.248870e+00
2.030000e-06	8.029455e-07	1.223016e-10	5.946360e+00	3.297530e+00
2.040000e-06	8.465950e-07	1.206080e-10	6.269614e+00	3.343510e+00
2.050000e-06	8.902418e-07	1.199259e-10	6.592848e+00	3.386639e+00
2.060000e-06	9.339092e-07	1.199168e-10	6.916235e+00	3.426775e+00
2.070000e-06	9.775397e-07	1.191394e-10	7.239349e+00	3.463803e+00
2.080000e-06	1.021089e-06	1.155004e-10	7.561859e+00	3.497636e+00
2.090000e-06	1.064485e-06	1.109873e-10	7.883239e+00	3.528215e+00
2.100000e-06	1.107795e-06	1.091576e-10	8.203979e+00	3.555512e+00
2.110000e-06	1.151116e-06	1.082221e-10	8.524799e+00	3.579528e+00
2.120000e-06	1.194348e-06	1.064006e-10	8.844963e+00	3.600293e+00
2.130000e-06	1.237405e-06	1.047727e-10	9.163832e+00	3.617866e+00
2.140000e-06	1.280333e-06	1.033078e-10	9.481744e+00	3.632333e+00
2.150000e-06	1.323174e-06	1.026622e-10	9.799005e+00	3.643809e+00
2.160000e-06	1.365936e-06	1.024447e-10	1.011569e+01	3.652430e+00
2.170000e-06	1.408493e-06	1.032156e-10	1.043085e+01	3.658359e+00
2.180000e-06	1.450831e-06	1.032021e-10	1.074439e+01	3.661779e+00
2.190000e-06	1.493105e-06	1.010610e-10	1.105746e+01	3.662892e+00
2.200000e-06	1.535136e-06	1.006741e-10	1.136873e+01	3.661918e+00
2.210000e-06	1.576814e-06	1.023295e-10	1.167739e+01	3.659089e+00
2.220000e-06	1.618333e-06	1.023044e-10	1.198486e+01	3.654650e+00
2.230000e-06	1.659698e-06	1.013634e-10	1.229119e+01	3.648856e+00
2.240000e-06	1.700935e-06	1.025259e-10	1.259659e+01	3.641964e+00
2.250000e-06	1.742012e-06	1.036917e-10	1.290079e+01	3.634239e+00
2.260000e-06	1.782844e-06	1.018586e-10	1.320317e+01	3.625941e+00
2.270000e-06	1.823428e-06	1.005260e-10	1.350373e+01	3.617330e+00
2.280000e-06	1.863802e-06	9.998822e-11	1.380273e+01	3.608660e+00
2.290000e-06	1.904153e-06	9.983081e-11	1.410155e+01	3.600175e+00
2.300000e-06	1.944451e-06	9.932782e-11	1.439999e+01	3.592109e+00
2.310000e-06	1.984600e-06	9.894363e-11	1.469732e+01	3.584683e+00
2.320000e-06	2.024618e-06	1.003843e-10	1.499368e+01	3.578099e+00
2.330000e-06	2.064544e-06	1.018276e-10	1.528936e+01	3.572544e+00
2.340000e-06	2.104401e-06	1.018539e-10	1.558453e+01	3.568183e+00
2.350000e-06	2.144130e-06	1.029931e-10	1.587875e+01	3.565161e+00
2.360000e-06	2.183745e-06	1.030842e-10	1.617212e+01	3.563597e+00
2.370000e-06	2.223281e-06	1.007940e-10	1.646491e+01	3.563590e+00
2.380000e-06	2.262693e-06	9.881881e-11	1.675679e+01	3.565209e+00
2.390000e-06	2.301922e-06	9.915608e-11	1.704730e+01	3.568501e+00
2.400000e-06	2.340916e-06	9.972123e-11	1.733608e+01	3.573487e+00
2.410000e-06	2.379719e-06	1.007540e-10	1.762345e+01	3.580161e+00
2.420000e-06	2.418331e-06	1.035913e-10	1.790939e+01	3.588492e+00
2.430000e-06	2.456782e-06	1.062315e-10	1.819415e+01	3.598424e+00
2.440000e-06	2.495095e-06	1.056286e-10	1.847788e+01	3.609879e+00
2.450000e-06	2.533262e-06	1.022422e-10	1.876054e+01	3.622754e+00
2.460000e-06	2.571341e-06	1.014407e-10	1.904253e+01	3.636927e+00
2.470000e-06	2.609256e-06	1.025107e-10	1.932332e+01	3.652257e+00
2.480000e-06	2.646962e-06	1.026409e-10	1.960256e+01	3.668582e+00
2.490000e-06	2.684544e-06	1.004935e-10	1.988088e+01	3.685729e+00
2.500000e-06	2.722014e-06	9.874846e-11	2.015837e+01	3.703510e+00
2.510000e-06	2.759218e-06	9.974556e-11	2.043389e+01	3.721727e+00
2.520000e-06	2.796119e-06	1.008016e-10	2.070717e+01	3.740172e+00
2.530000e-06	2.832818e-06	9.804971e-11	2.097895e+01	3.758635e+00
2.540000e-06	2.869310e-06	9.566116e-11	2.124920e+01	3.776900e+00
2.550000e-06	2.905629e-06	9.467026e-11	2.151817e+01	3.794753e+00
2.560000e-06	2.941837e-06	9.291507e-11	2.178631e+01	3.811981e+00
2.570000e-06	2.977887e-06	9.104437e-11	2.205328e+01	3.828377e+00
2.580000e-06	3.013809e-06	9.102544e-11	2.231932e+01	3.843740e+00
2.590000e-06	3.049623e-06	9.065947e-11	2.258454e+01	3.857883e+00
2.600000e-06	3.085254e-06	9.052723e-11	2.284841e+01	3.870626e+00
2.610000e-06	3.120718e-06	8.781633e-11	2.311105e+01	3.881807e+00
2.620000e-06	3.156013e-06	8.455077e-11	2.337243e+01	3.891280e+00
2.630000e-06	3.191114e-06	8.274138e-11	2.363238e+01	3.898916e+00
2.640000e-06	3.225961e-06	8.331859e-11	2.389045e+01	3.904606e+00
2.650000e-06	3.260428e-06	8.493676e-11	2.414570e+01	3.908262e+00
2.660000e-06	3.294464e-06	8.574925e-11	2.439776e+01	3.909818e+00
2.670000e-06	3.328103e-06	8.512678e-11	2.464688e+01	3.909231e+00
2.680000e-06	3.361383e-06	8.432013e-11	2.489334e+01	3.906479e+00
2.690000e-06	3.394313e-06	8.277865e-11	2.513721e+01	3.901566e+00
2.700000e-06	3.426953e-06	8.117561e-11	2.537893e+01	3.894518e+00
2.710000e-06	3.459344e-06	8.222095e-11	2.561880e+01	3.885384e+00
2.720000e-06	3.491483e-06	8.519239e-11	2.585681e+01	3.874234e+00
2.730000e-06	3.523461e-06	8.713871e-11	2.609363e+01	3.861160e+00
2.740000e-06	3.555308e-06	8.656619e-11	2.632948e+01	3.846276e+00
2.750000e-06	3.587042e-06	8.648969e-11	2.656449e+01	3.829712e+00
2.760000e-06	3.618651e-06	8.637504e-11	2.679858e+01	3.811616e+00
2.770000e-06	3.649996e-06	8.521610e-11	2.703071e+01	3.792152e+00
2.780000e-06	3.681034e-06	8.212069e-11	2.726057e+01	3.771496e+00
2.790000e-06	3.711786e-06	8.069887e-11	2.748831e+01	3.749838e+00
2.800000e-06	3.742226e-06	8.194797e-11	2.771374e+01	3.727374e+00
2.810000e-06	3.772334e-06	8.258489e-11	2.793671e+01	3.704307e+00
2.820000e-06	3.802213e-06	8.368593e-11	2.815798e+01	3.680846e+00
2.830000e-06	3.831930e-06	8.712946e-11	2.837805e+01	3.657201e+00
2.840000e-06	3.861461e-06	8.953319e-11	2.859676e+01	3.633580e+00
2.850000e-06	3.890772e-06	9.135701e-11	2.881383e+01	3.610190e+00
2.860000e-06	3.919756e-06	9.231306e-11	2.902847e+01	3.587231e+00
2.870000e-06	3.948426e-06	9.394513e-11	2.924079e+01	3.564896e+00
2.880000e-06	3.976843e-06	9.357868e-11	2.945124e+01	3.543366e+00
2.890000e-06	4.005036e-06	9.277706e-11	2.966003e+01	3.522812e+00
2.900000e-06	4.033054e-06	9.329865e-11	2.986752e+01	3.503391e+00
2.910000e-06	4.060932e-06	9.478909e-11	3.007397e+01	3.485243e+00
2.920000e-06	4.088637e-06	9.575131e-11	3.027915e+01	3.468490e+00
2.930000e-06	4.116038e-06	9.647914e-11	3.048208e+01	3.453237e+00
2.940000e-06	4.143081e-06	9.707327e-11	3.068234e+01	3.439569e+00
