# Temperatura_=_20.0
# Concentracion g/m^3_=_9000.0
# C_Vs_to_Am_M_A/Vsm_=_65563218390.804596
# pendiente_HvsI_1/m_=_3716.3
# ordenada_HvsI_A/m_=_1297.0
# frecuencia_Hz_=_135105.99887012757

Tiempo_(s)	Campo_(V.s)	Magnetizacion_(V.s)	Campo_(kA/m)	Magnetizacion_(A/m)
0.000000e+00	-5.187199e-06	-4.030885e-09	-3.836604e+01	-2.642438e+02
1.000000e-08	-5.187286e-06	-4.032282e-09	-3.836668e+01	-2.642253e+02
2.000000e-08	-5.187225e-06	-4.033090e-09	-3.836623e+01	-2.641845e+02
3.000000e-08	-5.186902e-06	-4.034208e-09	-3.836384e+01	-2.641203e+02
4.000000e-08	-5.186140e-06	-4.034984e-09	-3.835821e+01	-2.640320e+02
5.000000e-08	-5.184963e-06	-4.034378e-09	-3.834950e+01	-2.639189e+02
6.000000e-08	-5.183282e-06	-4.038368e-09	-3.833707e+01	-2.637807e+02
7.000000e-08	-5.180977e-06	-4.042381e-09	-3.832002e+01	-2.636169e+02
8.000000e-08	-5.178079e-06	-4.037165e-09	-3.829858e+01	-2.634275e+02
9.000000e-08	-5.174626e-06	-4.020651e-09	-3.827305e+01	-2.632126e+02
1.000000e-07	-5.170758e-06	-4.040947e-09	-3.824444e+01	-2.629725e+02
1.100000e-07	-5.166587e-06	-4.063851e-09	-3.821359e+01	-2.627076e+02
1.200000e-07	-5.162189e-06	-4.055953e-09	-3.818106e+01	-2.624186e+02
1.300000e-07	-5.157541e-06	-3.972646e-09	-3.814668e+01	-2.621065e+02
1.400000e-07	-5.152594e-06	-3.964466e-09	-3.811009e+01	-2.617723e+02
1.500000e-07	-5.147312e-06	-4.008155e-09	-3.807102e+01	-2.614171e+02
1.600000e-07	-5.141659e-06	-4.081000e-09	-3.802921e+01	-2.610425e+02
1.700000e-07	-5.135712e-06	-4.055422e-09	-3.798522e+01	-2.606500e+02
1.800000e-07	-5.129449e-06	-4.033479e-09	-3.793890e+01	-2.602413e+02
1.900000e-07	-5.122771e-06	-4.031240e-09	-3.788951e+01	-2.598182e+02
2.000000e-07	-5.115718e-06	-4.068289e-09	-3.783734e+01	-2.593828e+02
2.100000e-07	-5.108420e-06	-4.067606e-09	-3.778336e+01	-2.589369e+02
2.200000e-07	-5.100890e-06	-3.999004e-09	-3.772767e+01	-2.584829e+02
2.300000e-07	-5.093032e-06	-3.939487e-09	-3.766955e+01	-2.580227e+02
2.400000e-07	-5.084867e-06	-3.923550e-09	-3.760916e+01	-2.575587e+02
2.500000e-07	-5.076326e-06	-3.916644e-09	-3.754599e+01	-2.570930e+02
2.600000e-07	-5.067256e-06	-3.816777e-09	-3.747891e+01	-2.566278e+02
2.700000e-07	-5.057602e-06	-3.716843e-09	-3.740750e+01	-2.561653e+02
2.800000e-07	-5.047481e-06	-3.714013e-09	-3.733264e+01	-2.557075e+02
2.900000e-07	-5.036890e-06	-3.799454e-09	-3.725431e+01	-2.552564e+02
3.000000e-07	-5.025658e-06	-3.759311e-09	-3.717124e+01	-2.548139e+02
3.100000e-07	-5.013966e-06	-3.669152e-09	-3.708475e+01	-2.543818e+02
3.200000e-07	-5.002008e-06	-3.662093e-09	-3.699631e+01	-2.539617e+02
3.300000e-07	-4.989729e-06	-3.772426e-09	-3.690550e+01	-2.535551e+02
3.400000e-07	-4.977086e-06	-3.788331e-09	-3.681198e+01	-2.531632e+02
3.500000e-07	-4.964039e-06	-3.748441e-09	-3.671548e+01	-2.527871e+02
3.600000e-07	-4.950616e-06	-3.704925e-09	-3.661620e+01	-2.524277e+02
3.700000e-07	-4.936757e-06	-3.741857e-09	-3.651369e+01	-2.520856e+02
3.800000e-07	-4.922479e-06	-3.766477e-09	-3.640809e+01	-2.517613e+02
3.900000e-07	-4.907828e-06	-3.786561e-09	-3.629973e+01	-2.514550e+02
4.000000e-07	-4.892624e-06	-3.728998e-09	-3.618727e+01	-2.511666e+02
4.100000e-07	-4.876883e-06	-3.694727e-09	-3.607085e+01	-2.508960e+02
4.200000e-07	-4.860789e-06	-3.744854e-09	-3.595181e+01	-2.506426e+02
4.300000e-07	-4.844426e-06	-3.809907e-09	-3.583079e+01	-2.504058e+02
4.400000e-07	-4.827633e-06	-3.773953e-09	-3.570659e+01	-2.501845e+02
4.500000e-07	-4.810434e-06	-3.731902e-09	-3.557938e+01	-2.499778e+02
4.600000e-07	-4.792969e-06	-3.793980e-09	-3.545020e+01	-2.497842e+02
4.700000e-07	-4.775300e-06	-3.844555e-09	-3.531951e+01	-2.496023e+02
4.800000e-07	-4.757321e-06	-3.806408e-09	-3.518654e+01	-2.494305e+02
4.900000e-07	-4.738909e-06	-3.765893e-09	-3.505036e+01	-2.492668e+02
5.000000e-07	-4.720198e-06	-3.805671e-09	-3.491196e+01	-2.491094e+02
5.100000e-07	-4.701187e-06	-3.820162e-09	-3.477135e+01	-2.489563e+02
5.200000e-07	-4.681790e-06	-3.799896e-09	-3.462789e+01	-2.488053e+02
5.300000e-07	-4.662082e-06	-3.774474e-09	-3.448212e+01	-2.486542e+02
5.400000e-07	-4.642178e-06	-3.772285e-09	-3.433490e+01	-2.485009e+02
5.500000e-07	-4.622104e-06	-3.765209e-09	-3.418643e+01	-2.483432e+02
5.600000e-07	-4.601757e-06	-3.788638e-09	-3.403593e+01	-2.481787e+02
5.700000e-07	-4.581053e-06	-3.781308e-09	-3.388281e+01	-2.480054e+02
5.800000e-07	-4.560043e-06	-3.749883e-09	-3.372741e+01	-2.478211e+02
5.900000e-07	-4.538726e-06	-3.738213e-09	-3.356974e+01	-2.476239e+02
6.000000e-07	-4.517126e-06	-3.773864e-09	-3.340998e+01	-2.474117e+02
6.100000e-07	-4.495254e-06	-3.759820e-09	-3.324821e+01	-2.471828e+02
6.200000e-07	-4.473083e-06	-3.718420e-09	-3.308423e+01	-2.469355e+02
6.300000e-07	-4.450609e-06	-3.712208e-09	-3.291800e+01	-2.466683e+02
6.400000e-07	-4.427853e-06	-3.740438e-09	-3.274969e+01	-2.463798e+02
6.500000e-07	-4.404801e-06	-3.729226e-09	-3.257919e+01	-2.460690e+02
6.600000e-07	-4.381338e-06	-3.702755e-09	-3.240566e+01	-2.457349e+02
6.700000e-07	-4.357596e-06	-3.696908e-09	-3.223005e+01	-2.453767e+02
6.800000e-07	-4.333696e-06	-3.704923e-09	-3.205328e+01	-2.449939e+02
6.900000e-07	-4.309535e-06	-3.697850e-09	-3.187458e+01	-2.445862e+02
7.000000e-07	-4.285059e-06	-3.682724e-09	-3.169355e+01	-2.441534e+02
7.100000e-07	-4.260239e-06	-3.671166e-09	-3.150997e+01	-2.436956e+02
7.200000e-07	-4.235069e-06	-3.666387e-09	-3.132380e+01	-2.432132e+02
7.300000e-07	-4.209501e-06	-3.668968e-09	-3.113470e+01	-2.427067e+02
7.400000e-07	-4.183457e-06	-3.662304e-09	-3.094207e+01	-2.421766e+02
7.500000e-07	-4.156924e-06	-3.647629e-09	-3.074582e+01	-2.416239e+02
7.600000e-07	-4.129990e-06	-3.634985e-09	-3.054661e+01	-2.410497e+02
7.700000e-07	-4.102663e-06	-3.639436e-09	-3.034449e+01	-2.404550e+02
7.800000e-07	-4.075024e-06	-3.636544e-09	-3.014007e+01	-2.398411e+02
7.900000e-07	-4.047241e-06	-3.618518e-09	-2.993458e+01	-2.392095e+02
8.000000e-07	-4.019324e-06	-3.597867e-09	-2.972810e+01	-2.385616e+02
8.100000e-07	-3.991215e-06	-3.601282e-09	-2.952019e+01	-2.378990e+02
8.200000e-07	-3.962859e-06	-3.603202e-09	-2.931046e+01	-2.372233e+02
8.300000e-07	-3.934158e-06	-3.588758e-09	-2.909818e+01	-2.365360e+02
8.400000e-07	-3.905095e-06	-3.566415e-09	-2.888322e+01	-2.358389e+02
8.500000e-07	-3.875755e-06	-3.566741e-09	-2.866621e+01	-2.351334e+02
8.600000e-07	-3.846176e-06	-3.569616e-09	-2.844744e+01	-2.344212e+02
8.700000e-07	-3.816413e-06	-3.561028e-09	-2.822730e+01	-2.337036e+02
8.800000e-07	-3.786443e-06	-3.542437e-09	-2.800564e+01	-2.329821e+02
8.900000e-07	-3.756166e-06	-3.531534e-09	-2.778170e+01	-2.322579e+02
9.000000e-07	-3.725666e-06	-3.523059e-09	-2.755611e+01	-2.315322e+02
9.100000e-07	-3.695044e-06	-3.514810e-09	-2.732962e+01	-2.308059e+02
9.200000e-07	-3.664151e-06	-3.499439e-09	-2.710113e+01	-2.300799e+02
9.300000e-07	-3.632957e-06	-3.481821e-09	-2.687041e+01	-2.293548e+02
9.400000e-07	-3.601503e-06	-3.470002e-09	-2.663777e+01	-2.286310e+02
9.500000e-07	-3.569848e-06	-3.468601e-09	-2.640364e+01	-2.279090e+02
9.600000e-07	-3.538028e-06	-3.461702e-09	-2.616829e+01	-2.271887e+02
9.700000e-07	-3.505996e-06	-3.444780e-09	-2.593137e+01	-2.264700e+02
9.800000e-07	-3.473802e-06	-3.431631e-09	-2.569325e+01	-2.257527e+02
9.900000e-07	-3.441388e-06	-3.426506e-09	-2.545351e+01	-2.250362e+02
1.000000e-06	-3.408786e-06	-3.417823e-09	-2.521238e+01	-2.243197e+02
1.010000e-06	-3.375970e-06	-3.397954e-09	-2.496966e+01	-2.236025e+02
1.020000e-06	-3.342800e-06	-3.379433e-09	-2.472433e+01	-2.228834e+02
1.030000e-06	-3.309132e-06	-3.368269e-09	-2.447530e+01	-2.221612e+02
1.040000e-06	-3.274922e-06	-3.360567e-09	-2.422228e+01	-2.214345e+02
1.050000e-06	-3.240399e-06	-3.346716e-09	-2.396694e+01	-2.207017e+02
1.060000e-06	-3.205601e-06	-3.332267e-09	-2.370956e+01	-2.199614e+02
1.070000e-06	-3.170449e-06	-3.319556e-09	-2.344957e+01	-2.192117e+02
1.080000e-06	-3.134950e-06	-3.309790e-09	-2.318701e+01	-2.184507e+02
1.090000e-06	-3.099258e-06	-3.298389e-09	-2.292302e+01	-2.176767e+02
1.100000e-06	-3.063477e-06	-3.284634e-09	-2.265837e+01	-2.168878e+02
1.110000e-06	-3.027593e-06	-3.266028e-09	-2.239296e+01	-2.160819e+02
1.120000e-06	-2.991599e-06	-3.251151e-09	-2.212674e+01	-2.152573e+02
1.130000e-06	-2.955482e-06	-3.238805e-09	-2.185961e+01	-2.144120e+02
1.140000e-06	-2.919125e-06	-3.225305e-09	-2.159070e+01	-2.135442e+02
1.150000e-06	-2.882561e-06	-3.205236e-09	-2.132026e+01	-2.126523e+02
1.160000e-06	-2.845873e-06	-3.187645e-09	-2.104890e+01	-2.117344e+02
1.170000e-06	-2.808956e-06	-3.173182e-09	-2.077586e+01	-2.107892e+02
1.180000e-06	-2.771829e-06	-3.158454e-09	-2.050125e+01	-2.098152e+02
1.190000e-06	-2.734457e-06	-3.141160e-09	-2.022484e+01	-2.088111e+02
1.200000e-06	-2.696891e-06	-3.123291e-09	-1.994699e+01	-2.077759e+02
1.210000e-06	-2.659179e-06	-3.106599e-09	-1.966806e+01	-2.067087e+02
1.220000e-06	-2.621176e-06	-3.089960e-09	-1.938698e+01	-2.056087e+02
1.230000e-06	-2.582968e-06	-3.071131e-09	-1.910438e+01	-2.044752e+02
1.240000e-06	-2.544635e-06	-3.049953e-09	-1.882086e+01	-2.033081e+02
1.250000e-06	-2.506167e-06	-3.030080e-09	-1.853634e+01	-2.021070e+02
1.260000e-06	-2.467608e-06	-3.013862e-09	-1.825115e+01	-2.008720e+02
1.270000e-06	-2.428813e-06	-2.996577e-09	-1.796421e+01	-1.996033e+02
1.280000e-06	-2.389787e-06	-2.976392e-09	-1.767556e+01	-1.983011e+02
1.290000e-06	-2.350624e-06	-2.956087e-09	-1.738590e+01	-1.969660e+02
1.300000e-06	-2.311319e-06	-2.935616e-09	-1.709519e+01	-1.955987e+02
1.310000e-06	-2.271965e-06	-2.915971e-09	-1.680412e+01	-1.941999e+02
1.320000e-06	-2.232472e-06	-2.895166e-09	-1.651202e+01	-1.927705e+02
1.330000e-06	-2.192732e-06	-2.871024e-09	-1.621809e+01	-1.913115e+02
1.340000e-06	-2.152907e-06	-2.845349e-09	-1.592353e+01	-1.898239e+02
1.350000e-06	-2.113069e-06	-2.823608e-09	-1.562888e+01	-1.883089e+02
1.360000e-06	-2.073080e-06	-2.803624e-09	-1.533310e+01	-1.867675e+02
1.370000e-06	-2.032946e-06	-2.783141e-09	-1.503626e+01	-1.852008e+02
1.380000e-06	-1.992771e-06	-2.760482e-09	-1.473911e+01	-1.836100e+02
1.390000e-06	-1.952527e-06	-2.737542e-09	-1.444146e+01	-1.819960e+02
1.400000e-06	-1.912179e-06	-2.712884e-09	-1.414304e+01	-1.803597e+02
1.410000e-06	-1.871683e-06	-2.689244e-09	-1.384352e+01	-1.787019e+02
1.420000e-06	-1.831048e-06	-2.664012e-09	-1.354297e+01	-1.770233e+02
1.430000e-06	-1.790265e-06	-2.635952e-09	-1.324132e+01	-1.753244e+02
1.440000e-06	-1.749333e-06	-2.609560e-09	-1.293857e+01	-1.736055e+02
1.450000e-06	-1.708114e-06	-2.585757e-09	-1.263371e+01	-1.718666e+02
1.460000e-06	-1.666610e-06	-2.559935e-09	-1.232674e+01	-1.701076e+02
1.470000e-06	-1.624966e-06	-2.532883e-09	-1.201872e+01	-1.683281e+02
1.480000e-06	-1.583100e-06	-2.505593e-09	-1.170907e+01	-1.665274e+02
1.490000e-06	-1.541073e-06	-2.477077e-09	-1.139822e+01	-1.647046e+02
1.500000e-06	-1.498972e-06	-2.446206e-09	-1.108684e+01	-1.628584e+02
1.510000e-06	-1.456701e-06	-2.417934e-09	-1.077418e+01	-1.609874e+02
1.520000e-06	-1.414134e-06	-2.391679e-09	-1.045935e+01	-1.590895e+02
1.530000e-06	-1.371288e-06	-2.363963e-09	-1.014244e+01	-1.571628e+02
1.540000e-06	-1.328316e-06	-2.335340e-09	-9.824609e+00	-1.552048e+02
1.550000e-06	-1.285354e-06	-2.304967e-09	-9.506856e+00	-1.532129e+02
1.560000e-06	-1.242290e-06	-2.273255e-09	-9.188342e+00	-1.511839e+02
1.570000e-06	-1.199053e-06	-2.238669e-09	-8.868545e+00	-1.491148e+02
1.580000e-06	-1.155727e-06	-2.202202e-09	-8.548096e+00	-1.470020e+02
1.590000e-06	-1.112332e-06	-2.164933e-09	-8.227132e+00	-1.448418e+02
1.600000e-06	-1.068916e-06	-2.127385e-09	-7.906011e+00	-1.426305e+02
1.610000e-06	-1.025401e-06	-2.090241e-09	-7.584165e+00	-1.403640e+02
1.620000e-06	-9.817746e-07	-2.051726e-09	-7.261492e+00	-1.380381e+02
1.630000e-06	-9.381042e-07	-2.012400e-09	-6.938492e+00	-1.356486e+02
1.640000e-06	-8.943742e-07	-1.973601e-09	-6.615052e+00	-1.331912e+02
1.650000e-06	-8.506034e-07	-1.934806e-09	-6.291311e+00	-1.306617e+02
1.660000e-06	-8.068149e-07	-1.896034e-09	-5.967438e+00	-1.280557e+02
1.670000e-06	-7.629769e-07	-1.855000e-09	-5.643200e+00	-1.253690e+02
1.680000e-06	-7.190892e-07	-1.812856e-09	-5.318594e+00	-1.225975e+02
1.690000e-06	-6.752044e-07	-1.772581e-09	-4.994009e+00	-1.197373e+02
1.700000e-06	-6.312941e-07	-1.732544e-09	-4.669236e+00	-1.167846e+02
1.710000e-06	-5.873556e-07	-1.689224e-09	-4.344253e+00	-1.137359e+02
1.720000e-06	-5.433967e-07	-1.644998e-09	-4.019120e+00	-1.105879e+02
1.730000e-06	-4.994099e-07	-1.599606e-09	-3.693781e+00	-1.073377e+02
1.740000e-06	-4.553974e-07	-1.550951e-09	-3.368252e+00	-1.039827e+02
1.750000e-06	-4.113902e-07	-1.498546e-09	-3.042762e+00	-1.005208e+02
1.760000e-06	-3.673715e-07	-1.445350e-09	-2.717187e+00	-9.695008e+01
1.770000e-06	-3.232897e-07	-1.392268e-09	-2.391145e+00	-9.326934e+01
1.780000e-06	-2.791735e-07	-1.337003e-09	-2.064849e+00	-8.947771e+01
1.790000e-06	-2.350652e-07	-1.278508e-09	-1.738611e+00	-8.557486e+01
1.800000e-06	-1.910020e-07	-1.218741e-09	-1.412706e+00	-8.156099e+01
1.810000e-06	-1.469577e-07	-1.159491e-09	-1.086942e+00	-7.743681e+01
1.820000e-06	-1.028992e-07	-1.098971e-09	-7.610724e-01	-7.320362e+01
1.830000e-06	-5.880260e-08	-1.035217e-09	-4.349212e-01	-6.886325e+01
1.840000e-06	-1.473928e-08	-9.694437e-10	-1.090160e-01	-6.441809e+01
1.850000e-06	2.924507e-08	-9.023481e-10	2.163051e-01	-5.987111e+01
1.860000e-06	7.321145e-08	-8.332579e-10	5.414932e-01	-5.522582e+01
1.870000e-06	1.171753e-07	-7.615186e-10	8.666628e-01	-5.048624e+01
1.880000e-06	1.612238e-07	-6.885476e-10	1.192458e+00	-4.565697e+01
1.890000e-06	2.052854e-07	-6.147606e-10	1.518351e+00	-4.074307e+01
1.900000e-06	2.492857e-07	-5.374975e-10	1.843790e+00	-3.575009e+01
1.910000e-06	2.933105e-07	-4.579089e-10	2.169410e+00	-3.068405e+01
1.920000e-06	3.373122e-07	-3.791187e-10	2.494859e+00	-2.555136e+01
1.930000e-06	3.812924e-07	-3.005595e-10	2.820150e+00	-2.035884e+01
1.940000e-06	4.252913e-07	-2.205085e-10	3.145578e+00	-1.511365e+01
1.950000e-06	4.692510e-07	-1.393921e-10	3.470718e+00	-9.823227e+00
1.960000e-06	5.131388e-07	-5.816187e-11	3.795324e+00	-4.495302e+00
1.970000e-06	5.570153e-07	2.356220e-11	4.119847e+00	8.621988e-01
1.980000e-06	6.009059e-07	1.056032e-10	4.444475e+00	6.241181e+00
1.990000e-06	6.447653e-07	1.864434e-10	4.768872e+00	1.163344e+01
2.000000e-06	6.886161e-07	2.689809e-10	5.093206e+00	1.703069e+01
2.010000e-06	7.324229e-07	3.531586e-10	5.417214e+00	2.242465e+01
2.020000e-06	7.761765e-07	4.359854e-10	5.740828e+00	2.780706e+01
2.030000e-06	8.199594e-07	5.173308e-10	6.064659e+00	3.316975e+01
2.040000e-06	8.637614e-07	5.990994e-10	6.388632e+00	3.850468e+01
2.050000e-06	9.075467e-07	6.818632e-10	6.712480e+00	4.380400e+01
2.060000e-06	9.513107e-07	7.623965e-10	7.036172e+00	4.906009e+01
2.070000e-06	9.950523e-07	8.408053e-10	7.359697e+00	5.426557e+01
2.080000e-06	1.038718e-06	9.191167e-10	7.682660e+00	5.941341e+01
2.090000e-06	1.082323e-06	9.977767e-10	8.005177e+00	6.449690e+01
2.100000e-06	1.125928e-06	1.075655e-09	8.327691e+00	6.950974e+01
2.110000e-06	1.169441e-06	1.149759e-09	8.649524e+00	7.444602e+01
2.120000e-06	1.212816e-06	1.220969e-09	8.970340e+00	7.930029e+01
2.130000e-06	1.256120e-06	1.293005e-09	9.290633e+00	8.406755e+01
2.140000e-06	1.299348e-06	1.365062e-09	9.610354e+00	8.874330e+01
2.150000e-06	1.342336e-06	1.432517e-09	9.928311e+00	9.332355e+01
2.160000e-06	1.385074e-06	1.497178e-09	1.024441e+01	9.780480e+01
2.170000e-06	1.427626e-06	1.561598e-09	1.055914e+01	1.021841e+02
2.180000e-06	1.469985e-06	1.624578e-09	1.087244e+01	1.064589e+02
2.190000e-06	1.512160e-06	1.684949e-09	1.118438e+01	1.106275e+02
2.200000e-06	1.554116e-06	1.741428e-09	1.149470e+01	1.146882e+02
2.210000e-06	1.595849e-06	1.796722e-09	1.180337e+01	1.186403e+02
2.220000e-06	1.637438e-06	1.851639e-09	1.211097e+01	1.224833e+02
2.230000e-06	1.678849e-06	1.904927e-09	1.241725e+01	1.262173e+02
2.240000e-06	1.720046e-06	1.954366e-09	1.272196e+01	1.298428e+02
2.250000e-06	1.761025e-06	2.000482e-09	1.302505e+01	1.333606e+02
2.260000e-06	1.801807e-06	2.047460e-09	1.332669e+01	1.367723e+02
2.270000e-06	1.842463e-06	2.093438e-09	1.362739e+01	1.400794e+02
2.280000e-06	1.882899e-06	2.137476e-09	1.392647e+01	1.432841e+02
2.290000e-06	1.923209e-06	2.180190e-09	1.422462e+01	1.463887e+02
2.300000e-06	1.963492e-06	2.223893e-09	1.452256e+01	1.493958e+02
2.310000e-06	2.003655e-06	2.267574e-09	1.481962e+01	1.523084e+02
2.320000e-06	2.043684e-06	2.308718e-09	1.511569e+01	1.551295e+02
2.330000e-06	2.083638e-06	2.346631e-09	1.541120e+01	1.578624e+02
2.340000e-06	2.123529e-06	2.381957e-09	1.570624e+01	1.605105e+02
2.350000e-06	2.163341e-06	2.417606e-09	1.600070e+01	1.630773e+02
2.360000e-06	2.203094e-06	2.455459e-09	1.629473e+01	1.655663e+02
2.370000e-06	2.242745e-06	2.494113e-09	1.658799e+01	1.679811e+02
2.380000e-06	2.282278e-06	2.531273e-09	1.688039e+01	1.703252e+02
2.390000e-06	2.321620e-06	2.566963e-09	1.717138e+01	1.726023e+02
2.400000e-06	2.360742e-06	2.602024e-09	1.746074e+01	1.748157e+02
2.410000e-06	2.399670e-06	2.634082e-09	1.774866e+01	1.769688e+02
2.420000e-06	2.438385e-06	2.663795e-09	1.803501e+01	1.790649e+02
2.430000e-06	2.476921e-06	2.693893e-09	1.832003e+01	1.811072e+02
2.440000e-06	2.515348e-06	2.723325e-09	1.860425e+01	1.830985e+02
2.450000e-06	2.553638e-06	2.752740e-09	1.888745e+01	1.850417e+02
2.460000e-06	2.591722e-06	2.781432e-09	1.916913e+01	1.869394e+02
2.470000e-06	2.629623e-06	2.810506e-09	1.944946e+01	1.887940e+02
2.480000e-06	2.667387e-06	2.839388e-09	1.972878e+01	1.906077e+02
2.490000e-06	2.705006e-06	2.867321e-09	2.000701e+01	1.923825e+02
2.500000e-06	2.742409e-06	2.894923e-09	2.028365e+01	1.941202e+02
2.510000e-06	2.779637e-06	2.919664e-09	2.055901e+01	1.958224e+02
2.520000e-06	2.816635e-06	2.942211e-09	2.083266e+01	1.974905e+02
2.530000e-06	2.853366e-06	2.965419e-09	2.110433e+01	1.991256e+02
2.540000e-06	2.889878e-06	2.988964e-09	2.137438e+01	2.007288e+02
2.550000e-06	2.926203e-06	3.012182e-09	2.164305e+01	2.023008e+02
2.560000e-06	2.962364e-06	3.034871e-09	2.191051e+01	2.038423e+02
2.570000e-06	2.998388e-06	3.058588e-09	2.217695e+01	2.053539e+02
2.580000e-06	3.034310e-06	3.081443e-09	2.244265e+01	2.068358e+02
2.590000e-06	3.070134e-06	3.103264e-09	2.270761e+01	2.082883e+02
2.600000e-06	3.105904e-06	3.121109e-09	2.297217e+01	2.097116e+02
2.610000e-06	3.141566e-06	3.139232e-09	2.323594e+01	2.111056e+02
2.620000e-06	3.176995e-06	3.159786e-09	2.349798e+01	2.124705e+02
2.630000e-06	3.212174e-06	3.180129e-09	2.375818e+01	2.138061e+02
2.640000e-06	3.247003e-06	3.198200e-09	2.401578e+01	2.151123e+02
2.650000e-06	3.281323e-06	3.215378e-09	2.426962e+01	2.163891e+02
2.660000e-06	3.315227e-06	3.234672e-09	2.452039e+01	2.176362e+02
2.670000e-06	3.348829e-06	3.255989e-09	2.476892e+01	2.188537e+02
2.680000e-06	3.382018e-06	3.276089e-09	2.501439e+01	2.200415e+02
2.690000e-06	3.414773e-06	3.294558e-09	2.525666e+01	2.211996e+02
2.700000e-06	3.447261e-06	3.310497e-09	2.549695e+01	2.223280e+02
2.710000e-06	3.479521e-06	3.324200e-09	2.573556e+01	2.234268e+02
2.720000e-06	3.511608e-06	3.337457e-09	2.597288e+01	2.244963e+02
2.730000e-06	3.543573e-06	3.349732e-09	2.620930e+01	2.255368e+02
2.740000e-06	3.575393e-06	3.364171e-09	2.644465e+01	2.265485e+02
2.750000e-06	3.607050e-06	3.381094e-09	2.667880e+01	2.275321e+02
2.760000e-06	3.638527e-06	3.398021e-09	2.691161e+01	2.284879e+02
2.770000e-06	3.669752e-06	3.411290e-09	2.714255e+01	2.294168e+02
2.780000e-06	3.700723e-06	3.424743e-09	2.737163e+01	2.303194e+02
2.790000e-06	3.731414e-06	3.438899e-09	2.759863e+01	2.311965e+02
2.800000e-06	3.761708e-06	3.453594e-09	2.782269e+01	2.320491e+02
2.810000e-06	3.791739e-06	3.467882e-09	2.804480e+01	2.328781e+02
2.820000e-06	3.821574e-06	3.481206e-09	2.826548e+01	2.336846e+02
2.830000e-06	3.851202e-06	3.491298e-09	2.848461e+01	2.344697e+02
2.840000e-06	3.880621e-06	3.502401e-09	2.870220e+01	2.352345e+02
2.850000e-06	3.909773e-06	3.513311e-09	2.891782e+01	2.359802e+02
2.860000e-06	3.938626e-06	3.521686e-09	2.913123e+01	2.367079e+02
2.870000e-06	3.967270e-06	3.531717e-09	2.934309e+01	2.374190e+02
2.880000e-06	3.995658e-06	3.544044e-09	2.955306e+01	2.381145e+02
2.890000e-06	4.023759e-06	3.556294e-09	2.976090e+01	2.387956e+02
2.900000e-06	4.051697e-06	3.569420e-09	2.996753e+01	2.394636e+02
