# Temperatura_=_20.0
# Concentracion g/m^3_=_9000.0
# C_Vs_to_Am_M_A/Vsm_=_65563218390.804596
# pendiente_HvsI_1/m_=_3716.3
# ordenada_HvsI_A/m_=_1297.0
# frecuencia_Hz_=_135105.90807194324

Tiempo_(s)	Campo_(V.s)	Magnetizacion_(V.s)	Campo_(kA/m)	Magnetizacion_(A/m)
0.000000e+00	-5.200441e-06	-3.945966e-09	-3.837112e+01	-2.556577e+02
1.000000e-08	-5.200608e-06	-3.947818e-09	-3.837235e+01	-2.556724e+02
2.000000e-08	-5.200599e-06	-3.947090e-09	-3.837229e+01	-2.556849e+02
3.000000e-08	-5.200367e-06	-3.946519e-09	-3.837058e+01	-2.556953e+02
4.000000e-08	-5.199761e-06	-3.947237e-09	-3.836610e+01	-2.557040e+02
5.000000e-08	-5.198703e-06	-3.945630e-09	-3.835830e+01	-2.557111e+02
6.000000e-08	-5.197153e-06	-3.937293e-09	-3.834686e+01	-2.557170e+02
7.000000e-08	-5.195057e-06	-3.926277e-09	-3.833140e+01	-2.557220e+02
8.000000e-08	-5.192329e-06	-3.952699e-09	-3.831126e+01	-2.557262e+02
9.000000e-08	-5.188953e-06	-4.017697e-09	-3.828636e+01	-2.557300e+02
1.000000e-07	-5.185116e-06	-4.002244e-09	-3.825804e+01	-2.557336e+02
1.100000e-07	-5.180996e-06	-3.876846e-09	-3.822765e+01	-2.557374e+02
1.200000e-07	-5.176734e-06	-3.859054e-09	-3.819620e+01	-2.557416e+02
1.300000e-07	-5.172271e-06	-3.954097e-09	-3.816327e+01	-2.557465e+02
1.400000e-07	-5.167433e-06	-4.031604e-09	-3.812758e+01	-2.557524e+02
1.500000e-07	-5.162182e-06	-3.928837e-09	-3.808883e+01	-2.557595e+02
1.600000e-07	-5.156562e-06	-3.849374e-09	-3.804736e+01	-2.557682e+02
1.700000e-07	-5.150627e-06	-3.941305e-09	-3.800357e+01	-2.557785e+02
1.800000e-07	-5.144368e-06	-4.050337e-09	-3.795739e+01	-2.557908e+02
1.900000e-07	-5.137725e-06	-4.049152e-09	-3.790838e+01	-2.558053e+02
2.000000e-07	-5.130743e-06	-3.926890e-09	-3.785686e+01	-2.558220e+02
2.100000e-07	-5.123434e-06	-3.881455e-09	-3.780293e+01	-2.558412e+02
2.200000e-07	-5.115789e-06	-3.919148e-09	-3.774652e+01	-2.558628e+02
2.300000e-07	-5.107954e-06	-4.009004e-09	-3.768871e+01	-2.558871e+02
2.400000e-07	-5.099895e-06	-3.934953e-09	-3.762925e+01	-2.559138e+02
2.500000e-07	-5.091265e-06	-3.790347e-09	-3.756557e+01	-2.559430e+02
2.600000e-07	-5.082040e-06	-3.762463e-09	-3.749750e+01	-2.559746e+02
2.700000e-07	-5.072439e-06	-3.887639e-09	-3.742667e+01	-2.560083e+02
2.800000e-07	-5.062366e-06	-3.879128e-09	-3.735234e+01	-2.560439e+02
2.900000e-07	-5.051848e-06	-3.740845e-09	-3.727474e+01	-2.560812e+02
3.000000e-07	-5.040814e-06	-3.727415e-09	-3.719332e+01	-2.561198e+02
3.100000e-07	-5.029212e-06	-3.868626e-09	-3.710772e+01	-2.561591e+02
3.200000e-07	-5.017196e-06	-3.870907e-09	-3.701906e+01	-2.561988e+02
3.300000e-07	-5.004831e-06	-3.755694e-09	-3.692782e+01	-2.562381e+02
3.400000e-07	-4.992164e-06	-3.779376e-09	-3.683436e+01	-2.562766e+02
3.500000e-07	-4.979135e-06	-3.881311e-09	-3.673823e+01	-2.563133e+02
3.600000e-07	-4.965763e-06	-3.872052e-09	-3.663957e+01	-2.563477e+02
3.700000e-07	-4.952043e-06	-3.831081e-09	-3.653833e+01	-2.563788e+02
3.800000e-07	-4.937932e-06	-3.851843e-09	-3.643422e+01	-2.564058e+02
3.900000e-07	-4.923343e-06	-3.796411e-09	-3.632657e+01	-2.564276e+02
4.000000e-07	-4.908283e-06	-3.801998e-09	-3.621545e+01	-2.564434e+02
4.100000e-07	-4.892752e-06	-3.892363e-09	-3.610085e+01	-2.564521e+02
4.200000e-07	-4.876700e-06	-3.862167e-09	-3.598242e+01	-2.564526e+02
4.300000e-07	-4.860165e-06	-3.724548e-09	-3.586041e+01	-2.564438e+02
4.400000e-07	-4.843339e-06	-3.820652e-09	-3.573627e+01	-2.564247e+02
4.500000e-07	-4.826320e-06	-3.963178e-09	-3.561069e+01	-2.563941e+02
4.600000e-07	-4.808969e-06	-3.857827e-09	-3.548267e+01	-2.563510e+02
4.700000e-07	-4.791322e-06	-3.729243e-09	-3.535246e+01	-2.562942e+02
4.800000e-07	-4.773312e-06	-3.858132e-09	-3.521958e+01	-2.562227e+02
4.900000e-07	-4.754940e-06	-3.937153e-09	-3.508402e+01	-2.561354e+02
5.000000e-07	-4.736188e-06	-3.829196e-09	-3.494566e+01	-2.560314e+02
5.100000e-07	-4.717003e-06	-3.778535e-09	-3.480411e+01	-2.559097e+02
5.200000e-07	-4.697583e-06	-3.857704e-09	-3.466081e+01	-2.557694e+02
5.300000e-07	-4.677926e-06	-3.861847e-09	-3.451578e+01	-2.556097e+02
5.400000e-07	-4.657975e-06	-3.815178e-09	-3.436857e+01	-2.554299e+02
5.500000e-07	-4.637832e-06	-3.807649e-09	-3.421995e+01	-2.552293e+02
5.600000e-07	-4.617431e-06	-3.806996e-09	-3.406942e+01	-2.550073e+02
5.700000e-07	-4.596668e-06	-3.797580e-09	-3.391622e+01	-2.547636e+02
5.800000e-07	-4.575650e-06	-3.821389e-09	-3.376114e+01	-2.544977e+02
5.900000e-07	-4.554294e-06	-3.820093e-09	-3.360357e+01	-2.542094e+02
6.000000e-07	-4.532636e-06	-3.765611e-09	-3.344376e+01	-2.538986e+02
6.100000e-07	-4.510721e-06	-3.759508e-09	-3.328207e+01	-2.535652e+02
6.200000e-07	-4.488461e-06	-3.808628e-09	-3.311782e+01	-2.532094e+02
6.300000e-07	-4.465872e-06	-3.803627e-09	-3.295115e+01	-2.528314e+02
6.400000e-07	-4.442945e-06	-3.736442e-09	-3.278199e+01	-2.524315e+02
6.500000e-07	-4.419710e-06	-3.735100e-09	-3.261055e+01	-2.520101e+02
6.600000e-07	-4.396178e-06	-3.780338e-09	-3.243692e+01	-2.515679e+02
6.700000e-07	-4.372392e-06	-3.775861e-09	-3.226142e+01	-2.511055e+02
6.800000e-07	-4.348450e-06	-3.725064e-09	-3.208476e+01	-2.506236e+02
6.900000e-07	-4.324328e-06	-3.718762e-09	-3.190678e+01	-2.501231e+02
7.000000e-07	-4.299936e-06	-3.738962e-09	-3.172680e+01	-2.496049e+02
7.100000e-07	-4.275176e-06	-3.744042e-09	-3.154411e+01	-2.490701e+02
7.200000e-07	-4.249982e-06	-3.716777e-09	-3.135822e+01	-2.485197e+02
7.300000e-07	-4.224460e-06	-3.700114e-09	-3.116990e+01	-2.479548e+02
7.400000e-07	-4.198497e-06	-3.701998e-09	-3.097834e+01	-2.473766e+02
7.500000e-07	-4.171996e-06	-3.715442e-09	-3.078280e+01	-2.467863e+02
7.600000e-07	-4.145041e-06	-3.706282e-09	-3.058392e+01	-2.461851e+02
7.700000e-07	-4.117717e-06	-3.682681e-09	-3.038231e+01	-2.455743e+02
7.800000e-07	-4.090091e-06	-3.661772e-09	-3.017848e+01	-2.449549e+02
7.900000e-07	-4.062201e-06	-3.663803e-09	-2.997269e+01	-2.443282e+02
8.000000e-07	-4.034157e-06	-3.670087e-09	-2.976577e+01	-2.436953e+02
8.100000e-07	-4.005974e-06	-3.651790e-09	-2.955782e+01	-2.430572e+02
8.200000e-07	-3.977545e-06	-3.618579e-09	-2.934806e+01	-2.424150e+02
8.300000e-07	-3.948832e-06	-3.619696e-09	-2.913620e+01	-2.417697e+02
8.400000e-07	-3.919865e-06	-3.637871e-09	-2.892248e+01	-2.411220e+02
8.500000e-07	-3.890611e-06	-3.622775e-09	-2.870662e+01	-2.404727e+02
8.600000e-07	-3.861049e-06	-3.590050e-09	-2.848850e+01	-2.398224e+02
8.700000e-07	-3.831204e-06	-3.584179e-09	-2.826829e+01	-2.391716e+02
8.800000e-07	-3.801138e-06	-3.592053e-09	-2.804646e+01	-2.385208e+02
8.900000e-07	-3.770857e-06	-3.578449e-09	-2.782302e+01	-2.378702e+02
9.000000e-07	-3.740317e-06	-3.556938e-09	-2.759769e+01	-2.372198e+02
9.100000e-07	-3.709580e-06	-3.542053e-09	-2.737090e+01	-2.365698e+02
9.200000e-07	-3.678563e-06	-3.537627e-09	-2.714204e+01	-2.359198e+02
9.300000e-07	-3.647226e-06	-3.533196e-09	-2.691082e+01	-2.352697e+02
9.400000e-07	-3.615671e-06	-3.523566e-09	-2.667800e+01	-2.346189e+02
9.500000e-07	-3.583935e-06	-3.505861e-09	-2.644383e+01	-2.339669e+02
9.600000e-07	-3.552004e-06	-3.497068e-09	-2.620824e+01	-2.333130e+02
9.700000e-07	-3.519916e-06	-3.492017e-09	-2.597147e+01	-2.326564e+02
9.800000e-07	-3.487646e-06	-3.482392e-09	-2.573337e+01	-2.319960e+02
9.900000e-07	-3.455143e-06	-3.462747e-09	-2.549355e+01	-2.313308e+02
1.000000e-06	-3.422470e-06	-3.448351e-09	-2.525247e+01	-2.306596e+02
1.010000e-06	-3.389546e-06	-3.440555e-09	-2.500955e+01	-2.299813e+02
1.020000e-06	-3.356176e-06	-3.432455e-09	-2.476333e+01	-2.292944e+02
1.030000e-06	-3.322380e-06	-3.416397e-09	-2.451397e+01	-2.285976e+02
1.040000e-06	-3.288268e-06	-3.403496e-09	-2.426227e+01	-2.278895e+02
1.050000e-06	-3.253725e-06	-3.397287e-09	-2.400740e+01	-2.271685e+02
1.060000e-06	-3.218737e-06	-3.388871e-09	-2.374924e+01	-2.264332e+02
1.070000e-06	-3.183505e-06	-3.371563e-09	-2.348928e+01	-2.256821e+02
1.080000e-06	-3.148109e-06	-3.356180e-09	-2.322812e+01	-2.249137e+02
1.090000e-06	-3.112527e-06	-3.347437e-09	-2.296558e+01	-2.241266e+02
1.100000e-06	-3.076756e-06	-3.336272e-09	-2.270165e+01	-2.233194e+02
1.110000e-06	-3.040814e-06	-3.320721e-09	-2.243645e+01	-2.224907e+02
1.120000e-06	-3.004760e-06	-3.305868e-09	-2.217043e+01	-2.216394e+02
1.130000e-06	-2.968569e-06	-3.293571e-09	-2.190339e+01	-2.207641e+02
1.140000e-06	-2.932198e-06	-3.280790e-09	-2.163503e+01	-2.198639e+02
1.150000e-06	-2.895614e-06	-3.266525e-09	-2.136510e+01	-2.189377e+02
1.160000e-06	-2.858826e-06	-3.249541e-09	-2.109366e+01	-2.179848e+02
1.170000e-06	-2.821902e-06	-3.232886e-09	-2.082122e+01	-2.170044e+02
1.180000e-06	-2.784796e-06	-3.219509e-09	-2.054744e+01	-2.159958e+02
1.190000e-06	-2.747456e-06	-3.207377e-09	-2.027193e+01	-2.149587e+02
1.200000e-06	-2.709845e-06	-3.189895e-09	-1.999442e+01	-2.138928e+02
1.210000e-06	-2.672074e-06	-3.172019e-09	-1.971573e+01	-2.127978e+02
1.220000e-06	-2.634161e-06	-3.156644e-09	-1.943599e+01	-2.116737e+02
1.230000e-06	-2.596010e-06	-3.142897e-09	-1.915449e+01	-2.105207e+02
1.240000e-06	-2.557671e-06	-3.125062e-09	-1.887161e+01	-2.093389e+02
1.250000e-06	-2.519212e-06	-3.104094e-09	-1.858784e+01	-2.081287e+02
1.260000e-06	-2.480641e-06	-3.086209e-09	-1.830325e+01	-2.068906e+02
1.270000e-06	-2.441845e-06	-3.069996e-09	-1.801700e+01	-2.056251e+02
1.280000e-06	-2.402796e-06	-3.048888e-09	-1.772888e+01	-2.043329e+02
1.290000e-06	-2.363556e-06	-3.026173e-09	-1.743935e+01	-2.030148e+02
1.300000e-06	-2.324161e-06	-3.005751e-09	-1.714867e+01	-2.016715e+02
1.310000e-06	-2.284646e-06	-2.987437e-09	-1.685711e+01	-2.003038e+02
1.320000e-06	-2.245057e-06	-2.968479e-09	-1.656501e+01	-1.989126e+02
1.330000e-06	-2.205403e-06	-2.947887e-09	-1.627242e+01	-1.974988e+02
1.340000e-06	-2.165654e-06	-2.924196e-09	-1.597914e+01	-1.960632e+02
1.350000e-06	-2.125784e-06	-2.900957e-09	-1.568496e+01	-1.946066e+02
1.360000e-06	-2.085801e-06	-2.880815e-09	-1.538995e+01	-1.931297e+02
1.370000e-06	-2.045729e-06	-2.861454e-09	-1.509428e+01	-1.916333e+02
1.380000e-06	-2.005487e-06	-2.837140e-09	-1.479736e+01	-1.901178e+02
1.390000e-06	-1.965124e-06	-2.813177e-09	-1.449954e+01	-1.885837e+02
1.400000e-06	-1.924683e-06	-2.792860e-09	-1.420115e+01	-1.870313e+02
1.410000e-06	-1.884056e-06	-2.769346e-09	-1.390138e+01	-1.854607e+02
1.420000e-06	-1.843232e-06	-2.741384e-09	-1.360017e+01	-1.838718e+02
1.430000e-06	-1.802285e-06	-2.715083e-09	-1.329805e+01	-1.822645e+02
1.440000e-06	-1.761129e-06	-2.690906e-09	-1.299438e+01	-1.806383e+02
1.450000e-06	-1.719787e-06	-2.664885e-09	-1.268934e+01	-1.789925e+02
1.460000e-06	-1.678386e-06	-2.637537e-09	-1.238386e+01	-1.773261e+02
1.470000e-06	-1.636783e-06	-2.609944e-09	-1.207690e+01	-1.756381e+02
1.480000e-06	-1.594901e-06	-2.582066e-09	-1.176787e+01	-1.739270e+02
1.490000e-06	-1.552815e-06	-2.553825e-09	-1.145735e+01	-1.721911e+02
1.500000e-06	-1.510553e-06	-2.527203e-09	-1.114552e+01	-1.704286e+02
1.510000e-06	-1.468044e-06	-2.500020e-09	-1.083187e+01	-1.686372e+02
1.520000e-06	-1.425295e-06	-2.471985e-09	-1.051645e+01	-1.668147e+02
1.530000e-06	-1.382432e-06	-2.444383e-09	-1.020019e+01	-1.649582e+02
1.540000e-06	-1.339437e-06	-2.418885e-09	-9.882948e+00	-1.630649e+02
1.550000e-06	-1.296231e-06	-2.390576e-09	-9.564160e+00	-1.611318e+02
1.560000e-06	-1.252915e-06	-2.358127e-09	-9.244556e+00	-1.591555e+02
1.570000e-06	-1.209583e-06	-2.322771e-09	-8.924828e+00	-1.571326e+02
1.580000e-06	-1.166193e-06	-2.287252e-09	-8.604677e+00	-1.550593e+02
1.590000e-06	-1.122681e-06	-2.251254e-09	-8.283628e+00	-1.529320e+02
1.600000e-06	-1.079107e-06	-2.214108e-09	-7.962121e+00	-1.507467e+02
1.610000e-06	-1.035503e-06	-2.178474e-09	-7.640391e+00	-1.484994e+02
1.620000e-06	-9.917934e-07	-2.143184e-09	-7.317884e+00	-1.461862e+02
1.630000e-06	-9.480183e-07	-2.106001e-09	-6.994892e+00	-1.438029e+02
1.640000e-06	-9.042490e-07	-2.067516e-09	-6.671943e+00	-1.413456e+02
1.650000e-06	-8.604570e-07	-2.027667e-09	-6.348827e+00	-1.388103e+02
1.660000e-06	-8.166119e-07	-1.988454e-09	-6.025318e+00	-1.361929e+02
1.670000e-06	-7.727281e-07	-1.948802e-09	-5.701525e+00	-1.334898e+02
1.680000e-06	-7.288340e-07	-1.909239e-09	-5.377655e+00	-1.306973e+02
1.690000e-06	-6.849211e-07	-1.868659e-09	-5.053646e+00	-1.278120e+02
1.700000e-06	-6.409152e-07	-1.827075e-09	-4.728951e+00	-1.248305e+02
1.710000e-06	-5.968293e-07	-1.785946e-09	-4.403667e+00	-1.217500e+02
1.720000e-06	-5.527876e-07	-1.745224e-09	-4.078708e+00	-1.185677e+02
1.730000e-06	-5.087904e-07	-1.702914e-09	-3.754078e+00	-1.152812e+02
1.740000e-06	-4.647631e-07	-1.656705e-09	-3.429225e+00	-1.118887e+02
1.750000e-06	-4.207065e-07	-1.607232e-09	-3.104156e+00	-1.083883e+02
1.760000e-06	-3.766275e-07	-1.555387e-09	-2.778922e+00	-1.047789e+02
1.770000e-06	-3.325567e-07	-1.501888e-09	-2.453748e+00	-1.010597e+02
1.780000e-06	-2.884756e-07	-1.445480e-09	-2.128499e+00	-9.723026e+01
1.790000e-06	-2.443506e-07	-1.386701e-09	-1.802926e+00	-9.329076e+01
1.800000e-06	-2.002174e-07	-1.325591e-09	-1.477291e+00	-8.924176e+01
1.810000e-06	-1.560637e-07	-1.265496e-09	-1.151506e+00	-8.508433e+01
1.820000e-06	-1.118842e-07	-1.207178e-09	-8.255302e-01	-8.082006e+01
1.830000e-06	-6.772111e-08	-1.144704e-09	-4.996759e-01	-7.645101e+01
1.840000e-06	-2.354133e-08	-1.075738e-09	-1.736982e-01	-7.197975e+01
1.850000e-06	2.067714e-08	-1.005955e-09	1.525650e-01	-6.740936e+01
1.860000e-06	6.483137e-08	-9.364444e-10	4.783541e-01	-6.274339e+01
1.870000e-06	1.089377e-07	-8.636683e-10	8.037900e-01	-5.798589e+01
1.880000e-06	1.530657e-07	-7.884741e-10	1.129385e+00	-5.314136e+01
1.890000e-06	1.971670e-07	-7.131769e-10	1.454784e+00	-4.821473e+01
1.900000e-06	2.412493e-07	-6.363856e-10	1.780043e+00	-4.321140e+01
1.910000e-06	2.853430e-07	-5.587784e-10	2.105385e+00	-3.813711e+01
1.920000e-06	3.294157e-07	-4.825250e-10	2.430572e+00	-3.299803e+01
1.930000e-06	3.734620e-07	-4.033067e-10	2.755565e+00	-2.780062e+01
1.940000e-06	4.174775e-07	-3.207766e-10	3.080331e+00	-2.255168e+01
1.950000e-06	4.614772e-07	-2.387914e-10	3.404980e+00	-1.725826e+01
1.960000e-06	5.054825e-07	-1.556638e-10	3.729670e+00	-1.192766e+01
1.970000e-06	5.494253e-07	-7.212714e-11	4.053899e+00	-6.567360e+00
1.980000e-06	5.933007e-07	1.252243e-11	4.377631e+00	-1.185012e+00
1.990000e-06	6.372262e-07	9.777488e-11	4.701732e+00	4.211639e+00
2.000000e-06	6.811974e-07	1.825789e-10	5.026171e+00	9.614769e+00
2.010000e-06	7.251574e-07	2.656103e-10	5.350527e+00	1.501653e+01
2.020000e-06	7.690709e-07	3.481601e-10	5.674540e+00	2.040910e+01
2.030000e-06	8.129364e-07	4.321808e-10	5.998199e+00	2.578470e+01
2.040000e-06	8.567775e-07	5.150467e-10	6.321678e+00	3.113566e+01
2.050000e-06	9.005818e-07	5.965592e-10	6.644885e+00	3.645446e+01
2.060000e-06	9.443829e-07	6.783900e-10	6.968068e+00	4.173376e+01
2.070000e-06	9.881656e-07	7.616152e-10	7.291117e+00	4.696644e+01
2.080000e-06	1.031899e-06	8.447745e-10	7.613801e+00	5.214564e+01
2.090000e-06	1.075559e-06	9.258085e-10	7.935946e+00	5.726478e+01
2.100000e-06	1.119165e-06	1.005309e-09	8.257687e+00	6.231762e+01
2.110000e-06	1.162670e-06	1.083868e-09	8.578684e+00	6.729827e+01
2.120000e-06	1.206115e-06	1.160164e-09	8.899244e+00	7.220121e+01
2.130000e-06	1.249486e-06	1.233160e-09	9.219255e+00	7.702132e+01
2.140000e-06	1.292660e-06	1.305178e-09	9.537807e+00	8.175393e+01
2.150000e-06	1.335673e-06	1.376634e-09	9.855178e+00	8.639477e+01
2.160000e-06	1.378597e-06	1.444697e-09	1.017189e+01	9.094005e+01
2.170000e-06	1.421399e-06	1.507695e-09	1.048770e+01	9.538643e+01
2.180000e-06	1.463974e-06	1.566709e-09	1.080184e+01	9.973105e+01
2.190000e-06	1.506301e-06	1.625104e-09	1.111414e+01	1.039715e+02
2.200000e-06	1.548374e-06	1.683913e-09	1.142458e+01	1.081059e+02
2.210000e-06	1.590299e-06	1.739933e-09	1.173392e+01	1.121327e+02
2.220000e-06	1.632094e-06	1.790971e-09	1.204230e+01	1.160509e+02
2.230000e-06	1.673583e-06	1.839772e-09	1.234843e+01	1.198601e+02
2.240000e-06	1.714884e-06	1.891491e-09	1.265316e+01	1.235600e+02
2.250000e-06	1.756032e-06	1.944305e-09	1.295677e+01	1.271510e+02
2.260000e-06	1.796951e-06	1.992431e-09	1.325869e+01	1.306339e+02
2.270000e-06	1.837616e-06	2.037925e-09	1.355873e+01	1.340096e+02
2.280000e-06	1.878030e-06	2.083416e-09	1.385692e+01	1.372796e+02
2.290000e-06	1.918377e-06	2.128547e-09	1.415462e+01	1.404457e+02
2.300000e-06	1.958654e-06	2.170864e-09	1.445180e+01	1.435100e+02
2.310000e-06	1.998800e-06	2.208000e-09	1.474802e+01	1.464749e+02
2.320000e-06	2.038844e-06	2.244132e-09	1.504348e+01	1.493429e+02
2.330000e-06	2.078830e-06	2.281081e-09	1.533852e+01	1.521168e+02
2.340000e-06	2.118771e-06	2.315792e-09	1.563322e+01	1.547997e+02
2.350000e-06	2.158648e-06	2.348642e-09	1.592745e+01	1.573948e+02
2.360000e-06	2.198470e-06	2.383954e-09	1.622127e+01	1.599053e+02
2.370000e-06	2.238178e-06	2.421741e-09	1.651425e+01	1.623345e+02
2.380000e-06	2.277796e-06	2.459393e-09	1.680657e+01	1.646861e+02
2.390000e-06	2.317309e-06	2.494593e-09	1.709812e+01	1.669634e+02
2.400000e-06	2.356613e-06	2.526135e-09	1.738812e+01	1.691699e+02
2.410000e-06	2.395693e-06	2.556714e-09	1.767646e+01	1.713091e+02
2.420000e-06	2.434567e-06	2.587022e-09	1.796330e+01	1.733845e+02
2.430000e-06	2.473306e-06	2.615439e-09	1.824913e+01	1.753994e+02
2.440000e-06	2.511857e-06	2.643942e-09	1.853358e+01	1.773570e+02
2.450000e-06	2.550186e-06	2.675181e-09	1.881639e+01	1.792606e+02
2.460000e-06	2.588340e-06	2.706233e-09	1.909790e+01	1.811133e+02
2.470000e-06	2.626344e-06	2.734303e-09	1.937831e+01	1.829178e+02
2.480000e-06	2.664248e-06	2.759720e-09	1.965798e+01	1.846769e+02
2.490000e-06	2.701989e-06	2.785365e-09	1.993645e+01	1.863933e+02
2.500000e-06	2.739525e-06	2.811548e-09	2.021341e+01	1.880693e+02
2.510000e-06	2.776943e-06	2.835212e-09	2.048950e+01	1.897071e+02
2.520000e-06	2.814165e-06	2.855966e-09	2.076414e+01	1.913088e+02
2.530000e-06	2.851098e-06	2.876608e-09	2.103664e+01	1.928763e+02
2.540000e-06	2.887783e-06	2.899616e-09	2.130732e+01	1.944112e+02
2.550000e-06	2.924229e-06	2.925275e-09	2.157624e+01	1.959151e+02
2.560000e-06	2.960485e-06	2.950884e-09	2.184375e+01	1.973891e+02
2.570000e-06	2.996578e-06	2.974363e-09	2.211006e+01	1.988344e+02
2.580000e-06	3.032555e-06	2.997405e-09	2.237551e+01	2.002521e+02
2.590000e-06	3.068487e-06	3.020176e-09	2.264064e+01	2.016429e+02
2.600000e-06	3.104344e-06	3.040565e-09	2.290520e+01	2.030075e+02
2.610000e-06	3.140087e-06	3.060622e-09	2.316893e+01	2.043463e+02
2.620000e-06	3.175701e-06	3.081734e-09	2.343171e+01	2.056599e+02
2.630000e-06	3.211091e-06	3.102666e-09	2.369283e+01	2.069484e+02
2.640000e-06	3.246141e-06	3.119109e-09	2.395144e+01	2.082122e+02
2.650000e-06	3.280761e-06	3.134382e-09	2.420689e+01	2.094512e+02
2.660000e-06	3.315075e-06	3.153685e-09	2.446007e+01	2.106656e+02
2.670000e-06	3.349090e-06	3.175755e-09	2.471105e+01	2.118553e+02
2.680000e-06	3.382509e-06	3.194256e-09	2.495763e+01	2.130202e+02
2.690000e-06	3.415333e-06	3.210042e-09	2.519982e+01	2.141604e+02
2.700000e-06	3.447846e-06	3.226834e-09	2.543971e+01	2.152757e+02
2.710000e-06	3.480183e-06	3.242599e-09	2.567831e+01	2.163659e+02
2.720000e-06	3.512331e-06	3.255273e-09	2.591551e+01	2.174311e+02
2.730000e-06	3.544348e-06	3.264726e-09	2.615174e+01	2.184712e+02
2.740000e-06	3.576288e-06	3.277561e-09	2.638741e+01	2.194861e+02
2.750000e-06	3.608100e-06	3.295546e-09	2.662214e+01	2.204758e+02
2.760000e-06	3.639751e-06	3.313797e-09	2.685567e+01	2.214404e+02
2.770000e-06	3.671148e-06	3.329970e-09	2.708733e+01	2.223801e+02
2.780000e-06	3.702201e-06	3.346302e-09	2.731645e+01	2.232949e+02
2.790000e-06	3.732886e-06	3.362905e-09	2.754286e+01	2.241851e+02
2.800000e-06	3.763242e-06	3.375567e-09	2.776684e+01	2.250511e+02
2.810000e-06	3.793387e-06	3.384010e-09	2.798926e+01	2.258931e+02
2.820000e-06	3.823325e-06	3.393818e-09	2.821016e+01	2.267117e+02
2.830000e-06	3.853087e-06	3.406853e-09	2.842975e+01	2.275073e+02
2.840000e-06	3.882755e-06	3.419954e-09	2.864866e+01	2.282805e+02
2.850000e-06	3.912232e-06	3.432088e-09	2.886615e+01	2.290319e+02
2.860000e-06	3.941365e-06	3.443533e-09	2.908111e+01	2.297622e+02
2.870000e-06	3.970117e-06	3.454668e-09	2.929325e+01	2.304721e+02
2.880000e-06	3.998509e-06	3.467596e-09	2.950274e+01	2.311625e+02
2.890000e-06	4.026705e-06	3.478310e-09	2.971078e+01	2.318341e+02
2.900000e-06	4.054753e-06	3.486610e-09	2.991773e+01	2.324879e+02
