# Temperatura_=_20.0
# Concentracion g/m^3_=_9000.0
# C_Vs_to_Am_M_A/Vsm_=_65563218390.804596
# pendiente_HvsI_1/m_=_3716.3
# ordenada_HvsI_A/m_=_1297.0
# frecuencia_Hz_=_212896.1528401123

Tiempo_(s)	Campo_(V.s)	Magnetizacion_(V.s)	Campo_(kA/m)	Magnetizacion_(A/m)
0.000000e+00	-3.979488e-06	-3.409528e-09	-5.696734e+01	-2.292589e+02
1.000000e-08	-3.979574e-06	-3.412305e-09	-5.696857e+01	-2.292800e+02
2.000000e-08	-3.978963e-06	-3.415118e-09	-5.695982e+01	-2.292826e+02
3.000000e-08	-3.977364e-06	-3.413480e-09	-5.693694e+01	-2.292663e+02
4.000000e-08	-3.974799e-06	-3.410941e-09	-5.690022e+01	-2.292309e+02
5.000000e-08	-3.971533e-06	-3.409640e-09	-5.685347e+01	-2.291766e+02
6.000000e-08	-3.967764e-06	-3.407594e-09	-5.679951e+01	-2.291037e+02
7.000000e-08	-3.963456e-06	-3.404934e-09	-5.673785e+01	-2.290129e+02
8.000000e-08	-3.958507e-06	-3.409723e-09	-5.666699e+01	-2.289051e+02
9.000000e-08	-3.952710e-06	-3.429234e-09	-5.658401e+01	-2.287812e+02
1.000000e-07	-3.946013e-06	-3.436698e-09	-5.648814e+01	-2.286423e+02
1.100000e-07	-3.938689e-06	-3.392694e-09	-5.638330e+01	-2.284894e+02
1.200000e-07	-3.931000e-06	-3.362221e-09	-5.627323e+01	-2.283233e+02
1.300000e-07	-3.922745e-06	-3.393014e-09	-5.615505e+01	-2.281446e+02
1.400000e-07	-3.913626e-06	-3.438152e-09	-5.602452e+01	-2.279536e+02
1.500000e-07	-3.903719e-06	-3.392781e-09	-5.588269e+01	-2.277502e+02
1.600000e-07	-3.893026e-06	-3.383683e-09	-5.572962e+01	-2.275339e+02
1.700000e-07	-3.881293e-06	-3.390390e-09	-5.556165e+01	-2.273040e+02
1.800000e-07	-3.868673e-06	-3.392899e-09	-5.538101e+01	-2.270591e+02
1.900000e-07	-3.855651e-06	-3.438449e-09	-5.519459e+01	-2.267980e+02
2.000000e-07	-3.841841e-06	-3.449087e-09	-5.499689e+01	-2.265191e+02
2.100000e-07	-3.826722e-06	-3.420861e-09	-5.478047e+01	-2.262206e+02
2.200000e-07	-3.810743e-06	-3.440824e-09	-5.455171e+01	-2.259011e+02
2.300000e-07	-3.794372e-06	-3.545899e-09	-5.431737e+01	-2.255592e+02
2.400000e-07	-3.777471e-06	-3.513599e-09	-5.407543e+01	-2.251939e+02
2.500000e-07	-3.759882e-06	-3.447165e-09	-5.382363e+01	-2.248045e+02
2.600000e-07	-3.741575e-06	-3.480524e-09	-5.356156e+01	-2.243909e+02
2.700000e-07	-3.722588e-06	-3.526254e-09	-5.328976e+01	-2.239535e+02
2.800000e-07	-3.703110e-06	-3.488826e-09	-5.301093e+01	-2.234931e+02
2.900000e-07	-3.683174e-06	-3.454000e-09	-5.272554e+01	-2.230112e+02
3.000000e-07	-3.662624e-06	-3.454208e-09	-5.243136e+01	-2.225093e+02
3.100000e-07	-3.641365e-06	-3.445705e-09	-5.212703e+01	-2.219897e+02
3.200000e-07	-3.619418e-06	-3.448363e-09	-5.181285e+01	-2.214544e+02
3.300000e-07	-3.596797e-06	-3.437316e-09	-5.148903e+01	-2.209057e+02
3.400000e-07	-3.573629e-06	-3.429766e-09	-5.115738e+01	-2.203457e+02
3.500000e-07	-3.550005e-06	-3.395289e-09	-5.081919e+01	-2.197762e+02
3.600000e-07	-3.525792e-06	-3.377706e-09	-5.047257e+01	-2.191986e+02
3.700000e-07	-3.500914e-06	-3.430852e-09	-5.011645e+01	-2.186139e+02
3.800000e-07	-3.475121e-06	-3.411413e-09	-4.974720e+01	-2.180224e+02
3.900000e-07	-3.448309e-06	-3.323213e-09	-4.936339e+01	-2.174239e+02
4.000000e-07	-3.420875e-06	-3.372332e-09	-4.897066e+01	-2.168174e+02
4.100000e-07	-3.393159e-06	-3.422791e-09	-4.857390e+01	-2.162018e+02
4.200000e-07	-3.364946e-06	-3.334569e-09	-4.817003e+01	-2.155750e+02
4.300000e-07	-3.336042e-06	-3.311853e-09	-4.775626e+01	-2.149350e+02
4.400000e-07	-3.306625e-06	-3.360307e-09	-4.733515e+01	-2.142794e+02
4.500000e-07	-3.276641e-06	-3.327002e-09	-4.690592e+01	-2.136056e+02
4.600000e-07	-3.245988e-06	-3.286351e-09	-4.646711e+01	-2.129114e+02
4.700000e-07	-3.214844e-06	-3.304392e-09	-4.602129e+01	-2.121945e+02
4.800000e-07	-3.183406e-06	-3.289984e-09	-4.557123e+01	-2.114532e+02
4.900000e-07	-3.151609e-06	-3.256697e-09	-4.511605e+01	-2.106860e+02
5.000000e-07	-3.119298e-06	-3.261372e-09	-4.465351e+01	-2.098918e+02
5.100000e-07	-3.086234e-06	-3.255713e-09	-4.418020e+01	-2.090703e+02
5.200000e-07	-3.052209e-06	-3.225340e-09	-4.369311e+01	-2.082213e+02
5.300000e-07	-3.017369e-06	-3.209559e-09	-4.319438e+01	-2.073452e+02
5.400000e-07	-2.982051e-06	-3.211358e-09	-4.268878e+01	-2.064425e+02
5.500000e-07	-2.946435e-06	-3.202681e-09	-4.217894e+01	-2.055141e+02
5.600000e-07	-2.910448e-06	-3.170146e-09	-4.166378e+01	-2.045609e+02
5.700000e-07	-2.873972e-06	-3.150924e-09	-4.114161e+01	-2.035835e+02
5.800000e-07	-2.836989e-06	-3.157677e-09	-4.061219e+01	-2.025828e+02
5.900000e-07	-2.799545e-06	-3.142637e-09	-4.007617e+01	-2.015589e+02
6.000000e-07	-2.761558e-06	-3.103716e-09	-3.953238e+01	-2.005118e+02
6.100000e-07	-2.722983e-06	-3.090302e-09	-3.898017e+01	-1.994411e+02
6.200000e-07	-2.683950e-06	-3.092392e-09	-3.842141e+01	-1.983460e+02
6.300000e-07	-2.644587e-06	-3.065237e-09	-3.785792e+01	-1.972253e+02
6.400000e-07	-2.604932e-06	-3.036752e-09	-3.729024e+01	-1.960773e+02
6.500000e-07	-2.564961e-06	-3.027726e-09	-3.671804e+01	-1.949002e+02
6.600000e-07	-2.524519e-06	-3.007958e-09	-3.613911e+01	-1.936922e+02
6.700000e-07	-2.483371e-06	-2.983109e-09	-3.555007e+01	-1.924512e+02
6.800000e-07	-2.441454e-06	-2.970377e-09	-3.495001e+01	-1.911755e+02
6.900000e-07	-2.398871e-06	-2.950883e-09	-3.434042e+01	-1.898633e+02
7.000000e-07	-2.355782e-06	-2.918029e-09	-3.372359e+01	-1.885132e+02
7.100000e-07	-2.312347e-06	-2.898470e-09	-3.310181e+01	-1.871244e+02
7.200000e-07	-2.268647e-06	-2.888065e-09	-3.247623e+01	-1.856962e+02
7.300000e-07	-2.224619e-06	-2.858053e-09	-3.184596e+01	-1.842284e+02
7.400000e-07	-2.180205e-06	-2.822265e-09	-3.121017e+01	-1.827212e+02
7.500000e-07	-2.135393e-06	-2.803174e-09	-3.056867e+01	-1.811750e+02
7.600000e-07	-2.090197e-06	-2.787407e-09	-2.992168e+01	-1.795904e+02
7.700000e-07	-2.044721e-06	-2.760120e-09	-2.927068e+01	-1.779681e+02
7.800000e-07	-1.998898e-06	-2.729620e-09	-2.861471e+01	-1.763088e+02
7.900000e-07	-1.952611e-06	-2.707202e-09	-2.795211e+01	-1.746127e+02
8.000000e-07	-1.905973e-06	-2.684410e-09	-2.728447e+01	-1.728801e+02
8.100000e-07	-1.859065e-06	-2.654533e-09	-2.661297e+01	-1.711104e+02
8.200000e-07	-1.811891e-06	-2.625290e-09	-2.593766e+01	-1.693029e+02
8.300000e-07	-1.764491e-06	-2.594469e-09	-2.525912e+01	-1.674561e+02
8.400000e-07	-1.716875e-06	-2.559726e-09	-2.457749e+01	-1.655680e+02
8.500000e-07	-1.669031e-06	-2.528198e-09	-2.389259e+01	-1.636360e+02
8.600000e-07	-1.620887e-06	-2.501429e-09	-2.320339e+01	-1.616572e+02
8.700000e-07	-1.572303e-06	-2.470408e-09	-2.250790e+01	-1.596281e+02
8.800000e-07	-1.523228e-06	-2.432414e-09	-2.180539e+01	-1.575451e+02
8.900000e-07	-1.473700e-06	-2.398802e-09	-2.109638e+01	-1.554045e+02
9.000000e-07	-1.423849e-06	-2.369855e-09	-2.038275e+01	-1.532024e+02
9.100000e-07	-1.373696e-06	-2.334284e-09	-1.966479e+01	-1.509353e+02
9.200000e-07	-1.323112e-06	-2.293170e-09	-1.894067e+01	-1.485996e+02
9.300000e-07	-1.272126e-06	-2.253456e-09	-1.821080e+01	-1.461924e+02
9.400000e-07	-1.220881e-06	-2.215228e-09	-1.747722e+01	-1.437107e+02
9.500000e-07	-1.169495e-06	-2.176168e-09	-1.674161e+01	-1.411523e+02
9.600000e-07	-1.117868e-06	-2.134624e-09	-1.600255e+01	-1.385149e+02
9.700000e-07	-1.065992e-06	-2.091868e-09	-1.525994e+01	-1.357966e+02
9.800000e-07	-1.014026e-06	-2.048469e-09	-1.451602e+01	-1.329956e+02
9.900000e-07	-9.619234e-07	-2.007620e-09	-1.377017e+01	-1.301100e+02
1.000000e-06	-9.095636e-07	-1.966679e-09	-1.302063e+01	-1.271378e+02
1.010000e-06	-8.569289e-07	-1.919627e-09	-1.226715e+01	-1.240767e+02
1.020000e-06	-8.040870e-07	-1.866585e-09	-1.151070e+01	-1.209239e+02
1.030000e-06	-7.511317e-07	-1.812723e-09	-1.075263e+01	-1.176761e+02
1.040000e-06	-6.980934e-07	-1.762186e-09	-9.993378e+00	-1.143293e+02
1.050000e-06	-6.449060e-07	-1.708634e-09	-9.231987e+00	-1.108791e+02
1.060000e-06	-5.916098e-07	-1.651349e-09	-8.469039e+00	-1.073201e+02
1.070000e-06	-5.382255e-07	-1.595199e-09	-7.704830e+00	-1.036469e+02
1.080000e-06	-4.847719e-07	-1.537737e-09	-6.939628e+00	-9.985333e+01
1.090000e-06	-4.312699e-07	-1.475598e-09	-6.173734e+00	-9.593325e+01
1.100000e-06	-3.777264e-07	-1.410909e-09	-5.407246e+00	-9.188050e+01
1.110000e-06	-3.241402e-07	-1.346568e-09	-4.640147e+00	-8.768926e+01
1.120000e-06	-2.704935e-07	-1.280162e-09	-3.872181e+00	-8.335429e+01
1.130000e-06	-2.168402e-07	-1.210216e-09	-3.104120e+00	-7.887123e+01
1.140000e-06	-1.631241e-07	-1.138711e-09	-2.335161e+00	-7.423681e+01
1.150000e-06	-1.092966e-07	-1.065037e-09	-1.564608e+00	-6.944915e+01
1.160000e-06	-5.548004e-08	-9.889374e-10	-7.942103e-01	-6.450790e+01
1.170000e-06	-1.706222e-09	-9.114942e-10	-2.442498e-02	-5.941442e+01
1.180000e-06	5.211756e-08	-8.333222e-10	7.460757e-01	-5.417182e+01
1.190000e-06	1.058831e-07	-7.515005e-10	1.515743e+00	-4.878505e+01
1.200000e-06	1.595446e-07	-6.665257e-10	2.283920e+00	-4.326079e+01
1.210000e-06	2.131692e-07	-5.790329e-10	3.051569e+00	-3.760743e+01
1.220000e-06	2.667549e-07	-4.902124e-10	3.818662e+00	-3.183488e+01
1.230000e-06	3.203080e-07	-3.994176e-10	4.585287e+00	-2.595444e+01
1.240000e-06	3.738287e-07	-3.056620e-10	5.351450e+00	-1.997852e+01
1.250000e-06	4.273079e-07	-2.135624e-10	6.117018e+00	-1.392049e+01
1.260000e-06	4.806723e-07	-1.190622e-10	6.880942e+00	-7.794407e+00
1.270000e-06	5.339456e-07	-2.314523e-11	7.643563e+00	-1.614823e+00
1.280000e-06	5.871773e-07	7.041265e-11	8.405588e+00	4.603444e+00
1.290000e-06	6.402928e-07	1.629859e-10	9.165949e+00	1.084548e+01
1.300000e-06	6.932932e-07	2.587572e-10	9.924662e+00	1.709641e+01
1.310000e-06	7.461759e-07	3.553575e-10	1.068169e+01	2.334155e+01
1.320000e-06	7.988451e-07	4.496817e-10	1.143566e+01	2.956649e+01
1.330000e-06	8.513106e-07	5.438768e-10	1.218672e+01	3.575715e+01
1.340000e-06	9.036330e-07	6.384366e-10	1.293573e+01	4.189984e+01
1.350000e-06	9.558019e-07	7.331852e-10	1.368254e+01	4.798130e+01
1.360000e-06	1.007821e-06	8.250183e-10	1.442721e+01	5.398873e+01
1.370000e-06	1.059696e-06	9.148700e-10	1.516981e+01	5.990983e+01
1.380000e-06	1.111365e-06	1.002576e-09	1.590946e+01	6.573286e+01
1.390000e-06	1.162839e-06	1.089206e-09	1.664633e+01	7.144669e+01
1.400000e-06	1.214191e-06	1.175531e-09	1.738145e+01	7.704089e+01
1.410000e-06	1.265341e-06	1.258034e-09	1.811367e+01	8.250586e+01
1.420000e-06	1.316209e-06	1.336972e-09	1.884185e+01	8.783287e+01
1.430000e-06	1.366749e-06	1.416441e-09	1.956535e+01	9.301427e+01
1.440000e-06	1.416919e-06	1.495093e-09	2.028355e+01	9.804360e+01
1.450000e-06	1.466664e-06	1.569019e-09	2.099565e+01	1.029157e+02
1.460000e-06	1.515887e-06	1.637876e-09	2.170029e+01	1.076268e+02
1.470000e-06	1.564617e-06	1.705720e-09	2.239787e+01	1.121746e+02
1.480000e-06	1.612966e-06	1.771930e-09	2.309001e+01	1.165584e+02
1.490000e-06	1.660977e-06	1.833352e-09	2.377730e+01	1.207790e+02
1.500000e-06	1.708674e-06	1.892668e-09	2.446008e+01	1.248389e+02
1.510000e-06	1.756169e-06	1.951760e-09	2.513999e+01	1.287415e+02
1.520000e-06	1.803545e-06	2.009280e-09	2.581818e+01	1.324921e+02
1.530000e-06	1.850742e-06	2.064105e-09	2.649382e+01	1.360965e+02
1.540000e-06	1.897597e-06	2.116823e-09	2.716456e+01	1.395616e+02
1.550000e-06	1.944023e-06	2.168078e-09	2.782917e+01	1.428949e+02
1.560000e-06	1.990008e-06	2.217884e-09	2.848745e+01	1.461040e+02
1.570000e-06	2.035633e-06	2.263898e-09	2.914059e+01	1.491966e+02
1.580000e-06	2.080926e-06	2.307817e-09	2.978897e+01	1.521803e+02
1.590000e-06	2.125870e-06	2.351924e-09	3.043234e+01	1.550620e+02
1.600000e-06	2.170451e-06	2.395219e-09	3.107053e+01	1.578479e+02
1.610000e-06	2.214583e-06	2.436409e-09	3.170230e+01	1.605435e+02
1.620000e-06	2.258397e-06	2.475542e-09	3.232951e+01	1.631533e+02
1.630000e-06	2.301983e-06	2.512990e-09	3.295345e+01	1.656809e+02
1.640000e-06	2.345337e-06	2.549388e-09	3.357407e+01	1.681290e+02
1.650000e-06	2.388439e-06	2.584897e-09	3.419108e+01	1.704993e+02
1.660000e-06	2.431091e-06	2.618185e-09	3.480166e+01	1.727931e+02
1.670000e-06	2.473005e-06	2.650245e-09	3.540167e+01	1.750109e+02
1.680000e-06	2.514167e-06	2.682144e-09	3.599091e+01	1.771532e+02
1.690000e-06	2.554711e-06	2.714326e-09	3.657131e+01	1.792200e+02
1.700000e-06	2.594717e-06	2.744580e-09	3.714401e+01	1.812118e+02
1.710000e-06	2.634364e-06	2.773491e-09	3.771157e+01	1.831292e+02
1.720000e-06	2.673731e-06	2.802506e-09	3.827512e+01	1.849732e+02
1.730000e-06	2.712703e-06	2.830345e-09	3.883301e+01	1.867455e+02
1.740000e-06	2.751191e-06	2.855993e-09	3.938397e+01	1.884483e+02
1.750000e-06	2.789196e-06	2.879510e-09	3.992802e+01	1.900844e+02
1.760000e-06	2.826706e-06	2.903565e-09	4.046499e+01	1.916572e+02
1.770000e-06	2.863710e-06	2.929534e-09	4.099470e+01	1.931706e+02
1.780000e-06	2.900242e-06	2.956648e-09	4.151767e+01	1.946288e+02
1.790000e-06	2.936361e-06	2.981958e-09	4.203473e+01	1.960362e+02
1.800000e-06	2.972114e-06	3.004725e-09	4.254655e+01	1.973972e+02
1.810000e-06	3.007546e-06	3.026835e-09	4.305375e+01	1.987160e+02
1.820000e-06	3.042593e-06	3.048374e-09	4.355546e+01	1.999964e+02
1.830000e-06	3.076995e-06	3.068011e-09	4.404794e+01	2.012419e+02
1.840000e-06	3.110523e-06	3.086604e-09	4.452789e+01	2.024551e+02
1.850000e-06	3.143182e-06	3.105803e-09	4.499542e+01	2.036380e+02
1.860000e-06	3.175197e-06	3.125583e-09	4.545373e+01	2.047920e+02
1.870000e-06	3.206820e-06	3.145602e-09	4.590642e+01	2.059177e+02
1.880000e-06	3.238056e-06	3.163943e-09	4.635356e+01	2.070150e+02
1.890000e-06	3.268739e-06	3.181777e-09	4.679280e+01	2.080834e+02
1.900000e-06	3.298799e-06	3.199974e-09	4.722311e+01	2.091219e+02
1.910000e-06	3.328288e-06	3.217903e-09	4.764525e+01	2.101295e+02
1.920000e-06	3.357183e-06	3.234799e-09	4.805890e+01	2.111047e+02
1.930000e-06	3.385524e-06	3.249752e-09	4.846461e+01	2.120464e+02
1.940000e-06	3.413411e-06	3.264176e-09	4.886381e+01	2.129537e+02
1.950000e-06	3.440882e-06	3.278376e-09	4.925707e+01	2.138260e+02
1.960000e-06	3.467856e-06	3.293101e-09	4.964321e+01	2.146631e+02
1.970000e-06	3.494026e-06	3.308635e-09	5.001784e+01	2.154655e+02
1.980000e-06	3.519191e-06	3.323864e-09	5.037808e+01	2.162339e+02
1.990000e-06	3.543448e-06	3.337324e-09	5.072532e+01	2.169698e+02
2.000000e-06	3.567113e-06	3.349677e-09	5.106410e+01	2.176747e+02
2.010000e-06	3.590284e-06	3.362168e-09	5.139579e+01	2.183507e+02
2.020000e-06	3.612869e-06	3.374150e-09	5.171910e+01	2.190001e+02
2.030000e-06	3.634843e-06	3.385515e-09	5.203367e+01	2.196249e+02
2.040000e-06	3.656198e-06	3.395692e-09	5.233936e+01	2.202275e+02
2.050000e-06	3.676949e-06	3.405357e-09	5.263642e+01	2.208096e+02
2.060000e-06	3.697106e-06	3.414778e-09	5.292498e+01	2.213729e+02
2.070000e-06	3.716789e-06	3.423926e-09	5.320675e+01	2.219186e+02
2.080000e-06	3.736047e-06	3.433824e-09	5.348243e+01	2.224474e+02
2.090000e-06	3.754738e-06	3.444076e-09	5.374999e+01	2.229598e+02
2.100000e-06	3.772700e-06	3.454892e-09	5.400713e+01	2.234556e+02
2.110000e-06	3.789916e-06	3.465376e-09	5.425357e+01	2.239343e+02
2.120000e-06	3.806476e-06	3.473797e-09	5.449063e+01	2.243951e+02
2.130000e-06	3.822418e-06	3.480416e-09	5.471885e+01	2.248372e+02
2.140000e-06	3.837549e-06	3.486440e-09	5.493545e+01	2.252595e+02
2.150000e-06	3.851825e-06	3.493309e-09	5.513981e+01	2.256610e+02
2.160000e-06	3.865398e-06	3.501257e-09	5.533411e+01	2.260408e+02
2.170000e-06	3.878245e-06	3.508184e-09	5.551802e+01	2.263984e+02
2.180000e-06	3.890440e-06	3.515789e-09	5.569260e+01	2.267334e+02
2.190000e-06	3.902053e-06	3.524575e-09	5.585884e+01	2.270457e+02
2.200000e-06	3.912874e-06	3.531359e-09	5.601375e+01	2.273357e+02
2.210000e-06	3.922645e-06	3.536440e-09	5.615362e+01	2.276040e+02
2.220000e-06	3.931363e-06	3.541398e-09	5.627842e+01	2.278514e+02
2.230000e-06	3.939328e-06	3.545385e-09	5.639244e+01	2.280790e+02
2.240000e-06	3.946808e-06	3.549001e-09	5.649952e+01	2.282879e+02
2.250000e-06	3.953699e-06	3.553214e-09	5.659817e+01	2.284794e+02
2.260000e-06	3.959865e-06	3.556687e-09	5.668643e+01	2.286544e+02
2.270000e-06	3.965349e-06	3.559371e-09	5.676495e+01	2.288138e+02
2.280000e-06	3.970146e-06	3.562285e-09	5.683362e+01	2.289583e+02
2.290000e-06	3.974294e-06	3.565801e-09	5.689299e+01	2.290882e+02
2.300000e-06	3.977942e-06	3.568776e-09	5.694521e+01	2.292038e+02
2.310000e-06	3.981057e-06	3.570942e-09	5.698981e+01	2.293047e+02
2.320000e-06	3.983261e-06	3.573451e-09	5.702136e+01	2.293905e+02
2.330000e-06	3.984392e-06	3.575971e-09	5.703755e+01	2.294606e+02
2.340000e-06	3.984668e-06	3.578371e-09	5.704150e+01	2.295142e+02
2.350000e-06	3.984330e-06	3.581593e-09	5.703666e+01	2.295506e+02
2.360000e-06	3.983434e-06	3.582638e-09	5.702384e+01	2.295690e+02
2.370000e-06	3.981936e-06	3.581292e-09	5.700239e+01	2.295689e+02
2.380000e-06	3.979792e-06	3.581439e-09	5.697169e+01	2.295498e+02
2.390000e-06	3.976995e-06	3.581949e-09	5.693165e+01	2.295116e+02
2.400000e-06	3.973572e-06	3.583699e-09	5.688266e+01	2.294545e+02
2.410000e-06	3.969607e-06	3.586826e-09	5.682590e+01	2.293789e+02
2.420000e-06	3.965230e-06	3.587324e-09	5.676325e+01	2.292855e+02
2.430000e-06	3.960399e-06	3.560807e-09	5.669408e+01	2.291753e+02
2.440000e-06	3.954596e-06	3.537283e-09	5.661101e+01	2.290491e+02
2.450000e-06	3.947438e-06	3.575951e-09	5.650854e+01	2.289081e+02
2.460000e-06	3.939368e-06	3.616591e-09	5.639302e+01	2.287532e+02
2.470000e-06	3.930990e-06	3.591766e-09	5.627309e+01	2.285853e+02
2.480000e-06	3.922309e-06	3.526433e-09	5.614881e+01	2.284048e+02
2.490000e-06	3.912647e-06	3.538999e-09	5.601050e+01	2.282119e+02
2.500000e-06	3.902086e-06	3.532944e-09	5.585932e+01	2.280067e+02
2.510000e-06	3.891349e-06	3.516351e-09	5.570561e+01	2.277885e+02
2.520000e-06	3.880022e-06	3.518598e-09	5.554346e+01	2.275564e+02
2.530000e-06	3.867325e-06	3.485633e-09	5.536170e+01	2.273093e+02
2.540000e-06	3.853824e-06	3.448324e-09	5.516843e+01	2.270456e+02
2.550000e-06	3.840084e-06	3.515208e-09	5.497175e+01	2.267639e+02
2.560000e-06	3.825444e-06	3.554152e-09	5.476216e+01	2.264624e+02
2.570000e-06	3.809638e-06	3.426503e-09	5.453590e+01	2.261397e+02
2.580000e-06	3.793210e-06	3.409451e-09	5.430073e+01	2.257944e+02
2.590000e-06	3.776292e-06	3.452673e-09	5.405855e+01	2.254255e+02
2.600000e-06	3.758612e-06	3.361070e-09	5.380545e+01	2.250326e+02
2.610000e-06	3.740178e-06	3.275574e-09	5.354157e+01	2.246154e+02
2.620000e-06	3.721051e-06	3.352315e-09	5.326775e+01	2.241745e+02
2.630000e-06	3.701308e-06	3.358819e-09	5.298513e+01	2.237109e+02
2.640000e-06	3.681069e-06	3.311130e-09	5.269540e+01	2.232258e+02
2.650000e-06	3.660352e-06	3.355722e-09	5.239883e+01	2.227212e+02
2.660000e-06	3.639121e-06	3.336796e-09	5.209490e+01	2.221991e+02
2.670000e-06	3.617055e-06	3.293068e-09	5.177902e+01	2.216617e+02
2.680000e-06	3.593878e-06	3.306624e-09	5.144725e+01	2.211113e+02
2.690000e-06	3.569921e-06	3.320650e-09	5.110430e+01	2.205498e+02
2.700000e-06	3.545460e-06	3.321506e-09	5.075412e+01	2.199791e+02
2.710000e-06	3.520297e-06	3.262563e-09	5.039392e+01	2.194004e+02
2.720000e-06	3.494519e-06	3.245616e-09	5.002489e+01	2.188147e+02
2.730000e-06	3.468334e-06	3.325916e-09	4.965006e+01	2.182222e+02
2.740000e-06	3.441533e-06	3.276773e-09	4.926638e+01	2.176226e+02
2.750000e-06	3.414008e-06	3.186494e-09	4.887236e+01	2.170150e+02
2.760000e-06	3.386011e-06	3.265288e-09	4.847158e+01	2.163978e+02
2.770000e-06	3.357643e-06	3.276606e-09	4.806549e+01	2.157693e+02
2.780000e-06	3.328693e-06	3.191403e-09	4.765106e+01	2.151271e+02
2.790000e-06	3.298970e-06	3.215032e-09	4.722556e+01	2.144689e+02
2.800000e-06	3.268524e-06	3.233780e-09	4.678972e+01	2.137923e+02
2.810000e-06	3.237337e-06	3.192343e-09	4.634327e+01	2.130949e+02
2.820000e-06	3.205444e-06	3.178780e-09	4.588672e+01	2.123745e+02
2.830000e-06	3.173101e-06	3.179880e-09	4.542372e+01	2.116294e+02
2.840000e-06	3.140351e-06	3.175258e-09	4.495489e+01	2.108582e+02
2.850000e-06	3.107047e-06	3.145713e-09	4.447814e+01	2.100601e+02
2.860000e-06	3.073237e-06	3.129663e-09	4.399414e+01	2.092345e+02
2.870000e-06	3.039045e-06	3.146025e-09	4.350467e+01	2.083814e+02
2.880000e-06	3.004290e-06	3.114986e-09	4.300715e+01	2.075013e+02
2.890000e-06	2.968903e-06	3.083286e-09	4.250058e+01	2.065948e+02
2.900000e-06	2.933045e-06	3.094804e-09	4.198726e+01	2.056626e+02
2.910000e-06	2.896852e-06	3.086579e-09	4.146915e+01	2.047058e+02
2.920000e-06	2.860349e-06	3.046476e-09	4.094660e+01	2.037249e+02
2.930000e-06	2.823317e-06	3.025301e-09	4.041648e+01	2.027207e+02
2.940000e-06	2.785569e-06	3.041581e-09	3.987610e+01	2.016934e+02
2.950000e-06	2.747073e-06	3.023576e-09	3.932503e+01	2.006429e+02
