# Temperatura_=_20.0
# Concentracion g/m^3_=_9000.0
# C_Vs_to_Am_M_A/Vsm_=_65563218390.804596
# pendiente_HvsI_1/m_=_3716.3
# ordenada_HvsI_A/m_=_1297.0
# frecuencia_Hz_=_212897.87851265393

Tiempo_(s)	Campo_(V.s)	Magnetizacion_(V.s)	Campo_(kA/m)	Magnetizacion_(A/m)
0.000000e+00	-3.980933e-06	-3.837949e-11	-5.697794e+01	-3.701590e+00
1.000000e-08	-3.980839e-06	-3.978462e-11	-5.697660e+01	-3.709146e+00
2.000000e-08	-3.980014e-06	-4.359809e-11	-5.696479e+01	-3.710216e+00
3.000000e-08	-3.978167e-06	-4.484127e-11	-5.693836e+01	-3.705933e+00
4.000000e-08	-3.975350e-06	-4.539716e-11	-5.689804e+01	-3.697828e+00
5.000000e-08	-3.971846e-06	-4.725282e-11	-5.684788e+01	-3.687733e+00
6.000000e-08	-3.967860e-06	-4.441367e-11	-5.679083e+01	-3.677655e+00
7.000000e-08	-3.963317e-06	-2.761595e-11	-5.672582e+01	-3.669640e+00
8.000000e-08	-3.958049e-06	-3.097874e-11	-5.665041e+01	-3.665638e+00
9.000000e-08	-3.951969e-06	-8.448713e-11	-5.656339e+01	-3.667362e+00
1.000000e-07	-3.945079e-06	-1.185480e-10	-5.646478e+01	-3.676172e+00
1.100000e-07	-3.937593e-06	2.056256e-12	-5.635762e+01	-3.692981e+00
1.200000e-07	-3.929658e-06	6.579640e-11	-5.624406e+01	-3.718184e+00
1.300000e-07	-3.921075e-06	-4.751067e-11	-5.612121e+01	-3.751629e+00
1.400000e-07	-3.911664e-06	-1.502690e-10	-5.598651e+01	-3.792620e+00
1.500000e-07	-3.901454e-06	-4.067760e-11	-5.584038e+01	-3.839959e+00
1.600000e-07	-3.890411e-06	-3.704994e-12	-5.568232e+01	-3.892013e+00
1.700000e-07	-3.878413e-06	-6.754254e-11	-5.551060e+01	-3.946823e+00
1.800000e-07	-3.865645e-06	-3.223575e-11	-5.532785e+01	-4.002219e+00
1.900000e-07	-3.852377e-06	-1.295955e-10	-5.513796e+01	-4.055953e+00
2.000000e-07	-3.838227e-06	-1.239570e-10	-5.493543e+01	-4.105840e+00
2.100000e-07	-3.822799e-06	5.358140e-11	-5.471461e+01	-4.149885e+00
2.200000e-07	-3.806503e-06	4.834040e-11	-5.448138e+01	-4.186399e+00
2.300000e-07	-3.789825e-06	-2.012199e-10	-5.424267e+01	-4.214091e+00
2.400000e-07	-3.772601e-06	-1.500067e-10	-5.399615e+01	-4.232137e+00
2.500000e-07	-3.754683e-06	8.069765e-11	-5.373969e+01	-4.240212e+00
2.600000e-07	-3.736150e-06	-4.396348e-11	-5.347443e+01	-4.238489e+00
2.700000e-07	-3.717028e-06	-2.012705e-10	-5.320074e+01	-4.227612e+00
2.800000e-07	-3.697350e-06	-1.030316e-10	-5.291910e+01	-4.208631e+00
2.900000e-07	-3.677170e-06	1.047447e-12	-5.263027e+01	-4.182922e+00
3.000000e-07	-3.656414e-06	-3.420286e-11	-5.233320e+01	-4.152080e+00
3.100000e-07	-3.634925e-06	-7.197235e-11	-5.202563e+01	-4.117815e+00
3.200000e-07	-3.612742e-06	-9.323672e-11	-5.170813e+01	-4.081830e+00
3.300000e-07	-3.589930e-06	-9.259969e-11	-5.138163e+01	-4.045722e+00
3.400000e-07	-3.566603e-06	-6.225113e-11	-5.104776e+01	-4.010880e+00
3.500000e-07	-3.542805e-06	-1.817008e-11	-5.070714e+01	-3.978417e+00
3.600000e-07	-3.518444e-06	-5.301409e-11	-5.035847e+01	-3.949113e+00
3.700000e-07	-3.493340e-06	-1.720929e-10	-4.999916e+01	-3.923392e+00
3.800000e-07	-3.467304e-06	-1.028102e-10	-4.962652e+01	-3.901322e+00
3.900000e-07	-3.440354e-06	6.674586e-11	-4.924080e+01	-3.882640e+00
4.000000e-07	-3.412815e-06	-5.914927e-11	-4.884664e+01	-3.866799e+00
4.100000e-07	-3.384880e-06	-2.156647e-10	-4.844681e+01	-3.853034e+00
4.200000e-07	-3.356392e-06	-3.857190e-11	-4.803907e+01	-3.840435e+00
4.300000e-07	-3.327269e-06	4.493654e-11	-4.762224e+01	-3.828028e+00
4.400000e-07	-3.297647e-06	-1.021471e-10	-4.719827e+01	-3.814856e+00
4.500000e-07	-3.267570e-06	-1.224542e-10	-4.676779e+01	-3.800047e+00
4.600000e-07	-3.236841e-06	-4.286927e-11	-4.632797e+01	-3.782878e+00
4.700000e-07	-3.205545e-06	-4.184665e-11	-4.588004e+01	-3.762813e+00
4.800000e-07	-3.173899e-06	-6.184409e-11	-4.542710e+01	-3.739535e+00
4.900000e-07	-3.141919e-06	-5.970882e-11	-4.496938e+01	-3.712945e+00
5.000000e-07	-3.109435e-06	-8.167802e-11	-4.450444e+01	-3.683154e+00
5.100000e-07	-3.076170e-06	-7.544833e-11	-4.402833e+01	-3.650454e+00
5.200000e-07	-3.042066e-06	-2.843779e-11	-4.354021e+01	-3.615277e+00
5.300000e-07	-3.007190e-06	-3.710285e-11	-4.304103e+01	-3.578146e+00
5.400000e-07	-2.971737e-06	-8.113508e-11	-4.253361e+01	-3.539624e+00
5.500000e-07	-2.935958e-06	-7.964157e-11	-4.202151e+01	-3.500264e+00
5.600000e-07	-2.899788e-06	-3.183733e-11	-4.150383e+01	-3.460564e+00
5.700000e-07	-2.863085e-06	-1.140790e-11	-4.097851e+01	-3.420935e+00
5.800000e-07	-2.825889e-06	-6.961379e-11	-4.044613e+01	-3.381677e+00
5.900000e-07	-2.788251e-06	-8.949736e-11	-3.990743e+01	-3.342975e+00
6.000000e-07	-2.750106e-06	-2.947580e-11	-3.936147e+01	-3.304901e+00
6.100000e-07	-2.711398e-06	-1.639106e-11	-3.880746e+01	-3.267435e+00
6.200000e-07	-2.672224e-06	-6.712571e-11	-3.824677e+01	-3.230493e+00
6.300000e-07	-2.632738e-06	-7.185180e-11	-3.768162e+01	-3.193963e+00
6.400000e-07	-2.592965e-06	-3.229906e-11	-3.711236e+01	-3.157742e+00
6.500000e-07	-2.552844e-06	-3.842130e-11	-3.653812e+01	-3.121773e+00
6.600000e-07	-2.512253e-06	-5.510714e-11	-3.595715e+01	-3.086074e+00
6.700000e-07	-2.471017e-06	-4.311247e-11	-3.536696e+01	-3.050759e+00
6.800000e-07	-2.428965e-06	-4.786525e-11	-3.476507e+01	-3.016048e+00
6.900000e-07	-2.386214e-06	-5.196375e-11	-3.415319e+01	-2.982260e+00
7.000000e-07	-2.343034e-06	-3.704161e-11	-3.353516e+01	-2.949797e+00
7.100000e-07	-2.299493e-06	-3.854719e-11	-3.291198e+01	-2.919107e+00
7.200000e-07	-2.255693e-06	-5.488590e-11	-3.228508e+01	-2.890648e+00
7.300000e-07	-2.211634e-06	-4.744617e-11	-3.165448e+01	-2.864835e+00
7.400000e-07	-2.167084e-06	-2.921862e-11	-3.101685e+01	-2.841987e+00
7.500000e-07	-2.122066e-06	-4.232027e-11	-3.037252e+01	-2.822279e+00
7.600000e-07	-2.076758e-06	-5.624863e-11	-2.972403e+01	-2.805698e+00
7.700000e-07	-2.031191e-06	-4.217140e-11	-2.907185e+01	-2.792008e+00
7.800000e-07	-1.985274e-06	-3.231092e-11	-2.841465e+01	-2.780734e+00
7.900000e-07	-1.938882e-06	-4.524748e-11	-2.775066e+01	-2.771162e+00
8.000000e-07	-1.892089e-06	-5.897342e-11	-2.708092e+01	-2.762355e+00
8.100000e-07	-1.845046e-06	-4.685225e-11	-2.640761e+01	-2.753191e+00
8.200000e-07	-1.797775e-06	-3.329411e-11	-2.573104e+01	-2.742417e+00
8.300000e-07	-1.750306e-06	-4.382127e-11	-2.505162e+01	-2.728716e+00
8.400000e-07	-1.702608e-06	-5.414386e-11	-2.436894e+01	-2.710784e+00
8.500000e-07	-1.654648e-06	-4.931500e-11	-2.368250e+01	-2.687413e+00
8.600000e-07	-1.606373e-06	-4.105033e-11	-2.299155e+01	-2.657571e+00
8.700000e-07	-1.557721e-06	-4.360835e-11	-2.229521e+01	-2.620475e+00
8.800000e-07	-1.508714e-06	-4.886191e-11	-2.159379e+01	-2.575650e+00
8.900000e-07	-1.459273e-06	-4.876632e-11	-2.088615e+01	-2.522978e+00
9.000000e-07	-1.409419e-06	-4.604725e-11	-2.017261e+01	-2.462717e+00
9.100000e-07	-1.359141e-06	-3.651234e-11	-1.945299e+01	-2.395500e+00
9.200000e-07	-1.308413e-06	-3.535865e-11	-1.872694e+01	-2.322314e+00
9.300000e-07	-1.257321e-06	-4.682269e-11	-1.799567e+01	-2.244452e+00
9.400000e-07	-1.205932e-06	-4.601095e-11	-1.726015e+01	-2.163448e+00
9.500000e-07	-1.154378e-06	-3.271572e-11	-1.652228e+01	-2.080992e+00
9.600000e-07	-1.102680e-06	-2.676119e-11	-1.578234e+01	-1.998842e+00
9.700000e-07	-1.050811e-06	-3.671633e-11	-1.503996e+01	-1.918723e+00
9.800000e-07	-9.987917e-07	-4.177056e-11	-1.429542e+01	-1.842235e+00
9.900000e-07	-9.465466e-07	-3.013367e-11	-1.354765e+01	-1.770761e+00
1.000000e-06	-8.940363e-07	-2.062858e-11	-1.279608e+01	-1.705399e+00
1.010000e-06	-8.413095e-07	-2.142035e-11	-1.204142e+01	-1.646904e+00
1.020000e-06	-7.884171e-07	-2.741204e-11	-1.128439e+01	-1.595652e+00
1.030000e-06	-7.353638e-07	-2.711948e-11	-1.052505e+01	-1.551635e+00
1.040000e-06	-6.821458e-07	-2.166377e-11	-9.763356e+00	-1.514470e+00
1.050000e-06	-6.288027e-07	-1.969672e-11	-8.999872e+00	-1.483435e+00
1.060000e-06	-5.754059e-07	-2.060362e-11	-8.235618e+00	-1.457525e+00
1.070000e-06	-5.219159e-07	-2.387110e-11	-7.470031e+00	-1.435523e+00
1.080000e-06	-4.682923e-07	-2.255566e-11	-6.702532e+00	-1.416077e+00
1.090000e-06	-4.145857e-07	-1.616260e-11	-5.933845e+00	-1.397785e+00
1.100000e-06	-3.608087e-07	-1.386038e-11	-5.164151e+00	-1.379277e+00
1.110000e-06	-3.070273e-07	-1.852501e-11	-4.394394e+00	-1.359291e+00
1.120000e-06	-2.532149e-07	-2.228077e-11	-3.624191e+00	-1.336736e+00
1.130000e-06	-1.993514e-07	-1.690552e-11	-2.853260e+00	-1.310741e+00
1.140000e-06	-1.454433e-07	-1.292059e-11	-2.081687e+00	-1.280681e+00
1.150000e-06	-9.152997e-08	-1.727463e-11	-1.310042e+00	-1.246194e+00
1.160000e-06	-3.769135e-08	-1.859342e-11	-5.394654e-01	-1.207173e+00
1.170000e-06	1.619989e-08	-1.428742e-11	2.318643e-01	-1.163737e+00
1.180000e-06	7.015099e-08	-1.065963e-11	1.004051e+00	-1.116201e+00
1.190000e-06	1.240496e-07	-1.118455e-11	1.775486e+00	-1.065026e+00
1.200000e-06	1.779005e-07	-1.127857e-11	2.546238e+00	-1.010767e+00
1.210000e-06	2.316798e-07	-1.034649e-11	3.315966e+00	-9.540232e-01
1.220000e-06	2.854053e-07	-1.103264e-11	4.084924e+00	-8.953853e-01
1.230000e-06	3.391041e-07	-1.025813e-11	4.853498e+00	-8.353978e-01
1.240000e-06	3.927241e-07	-9.321148e-12	5.620947e+00	-7.745273e-01
1.250000e-06	4.462728e-07	-1.029670e-11	6.387374e+00	-7.131437e-01
1.260000e-06	4.997487e-07	-1.024497e-11	7.152759e+00	-6.515148e-01
1.270000e-06	5.531527e-07	-7.418637e-12	7.917115e+00	-5.898130e-01
1.280000e-06	6.064325e-07	-5.277827e-12	8.679693e+00	-5.281323e-01
1.290000e-06	6.595669e-07	-4.146018e-12	9.440190e+00	-4.665135e-01
1.300000e-06	7.126427e-07	6.624453e-13	1.019985e+01	-4.049730e-01
1.310000e-06	7.656317e-07	3.470111e-12	1.095827e+01	-3.435338e-01
1.320000e-06	8.185305e-07	6.894235e-13	1.171539e+01	-2.822525e-01
1.330000e-06	8.712558e-07	1.220797e-12	1.247003e+01	-2.212404e-01
1.340000e-06	9.237352e-07	2.583114e-12	1.322115e+01	-1.606763e-01
1.350000e-06	9.760447e-07	2.102272e-12	1.396985e+01	-1.008081e-01
1.360000e-06	1.028160e-06	1.339667e-12	1.471576e+01	-4.194288e-02
1.370000e-06	1.080092e-06	1.782753e-12	1.545904e+01	1.557260e-02
1.380000e-06	1.131883e-06	4.515644e-12	1.620032e+01	7.138208e-02
1.390000e-06	1.183473e-06	5.250571e-12	1.693870e+01	1.251556e-01
1.400000e-06	1.234814e-06	4.312467e-12	1.767354e+01	1.766289e-01
1.410000e-06	1.285872e-06	5.726050e-12	1.840432e+01	2.256424e-01
1.420000e-06	1.336539e-06	7.931233e-12	1.912950e+01	2.721750e-01
1.430000e-06	1.386816e-06	7.961163e-12	1.984910e+01	3.163705e-01
1.440000e-06	1.436712e-06	5.343406e-12	2.056325e+01	3.585518e-01
1.450000e-06	1.486190e-06	3.963495e-12	2.127141e+01	3.992217e-01
1.460000e-06	1.535191e-06	5.494250e-12	2.197275e+01	4.390491e-01
1.470000e-06	1.583702e-06	7.707599e-12	2.266707e+01	4.788392e-01
1.480000e-06	1.631911e-06	9.120539e-12	2.335708e+01	5.194919e-01
1.490000e-06	1.679878e-06	9.213574e-12	2.404361e+01	5.619480e-01
1.500000e-06	1.727623e-06	1.093104e-11	2.472697e+01	6.071288e-01
1.510000e-06	1.775174e-06	1.379358e-11	2.540755e+01	6.558726e-01
1.520000e-06	1.822427e-06	1.483720e-11	2.608387e+01	7.088738e-01
1.530000e-06	1.869355e-06	1.405773e-11	2.675553e+01	7.666282e-01
1.540000e-06	1.915869e-06	1.332686e-11	2.742128e+01	8.293905e-01
1.550000e-06	1.961982e-06	1.392287e-11	2.808129e+01	8.971469e-01
1.560000e-06	2.007787e-06	1.399609e-11	2.873687e+01	9.696053e-01
1.570000e-06	2.053243e-06	1.359992e-11	2.938747e+01	1.046206e+00
1.580000e-06	2.098373e-06	1.354999e-11	3.003341e+01	1.126149e+00
1.590000e-06	2.143120e-06	1.315944e-11	3.067386e+01	1.208445e+00
1.600000e-06	2.187452e-06	1.429042e-11	3.130837e+01	1.291972e+00
1.610000e-06	2.231441e-06	1.537844e-11	3.193797e+01	1.375553e+00
1.620000e-06	2.275167e-06	1.551253e-11	3.256381e+01	1.458027e+00
1.630000e-06	2.318739e-06	1.688199e-11	3.318745e+01	1.538332e+00
1.640000e-06	2.362058e-06	1.900734e-11	3.380746e+01	1.615570e+00
1.650000e-06	2.404916e-06	2.058106e-11	3.442086e+01	1.689068e+00
1.660000e-06	2.447167e-06	2.108407e-11	3.502560e+01	1.758419e+00
1.670000e-06	2.488698e-06	2.149455e-11	3.562001e+01	1.823506e+00
1.680000e-06	2.529517e-06	2.218624e-11	3.620424e+01	1.884498e+00
1.690000e-06	2.569749e-06	2.408466e-11	3.678007e+01	1.941829e+00
1.700000e-06	2.609582e-06	2.621109e-11	3.735019e+01	1.996156e+00
1.710000e-06	2.649155e-06	2.623007e-11	3.791659e+01	2.048296e+00
1.720000e-06	2.688430e-06	2.713332e-11	3.847872e+01	2.099152e+00
1.730000e-06	2.727253e-06	3.014482e-11	3.903439e+01	2.149630e+00
1.740000e-06	2.765620e-06	3.264922e-11	3.958352e+01	2.200556e+00
1.750000e-06	2.803540e-06	3.470001e-11	4.012626e+01	2.252598e+00
1.760000e-06	2.840941e-06	3.590350e-11	4.066157e+01	2.306200e+00
1.770000e-06	2.877762e-06	3.448814e-11	4.118858e+01	2.361530e+00
1.780000e-06	2.914061e-06	3.237897e-11	4.170811e+01	2.418453e+00
1.790000e-06	2.950019e-06	3.157712e-11	4.222277e+01	2.476529e+00
1.800000e-06	2.985697e-06	3.124834e-11	4.273342e+01	2.535033e+00
1.810000e-06	3.020998e-06	3.178187e-11	4.323867e+01	2.592996e+00
1.820000e-06	3.055718e-06	3.326778e-11	4.373561e+01	2.649278e+00
1.830000e-06	3.089720e-06	3.583496e-11	4.422227e+01	2.702645e+00
1.840000e-06	3.122899e-06	3.871658e-11	4.469715e+01	2.751864e+00
1.850000e-06	3.155316e-06	3.977080e-11	4.516113e+01	2.795797e+00
1.860000e-06	3.187172e-06	3.826369e-11	4.561707e+01	2.833499e+00
1.870000e-06	3.218633e-06	3.772459e-11	4.606736e+01	2.864291e+00
1.880000e-06	3.249654e-06	3.963677e-11	4.651136e+01	2.887830e+00
1.890000e-06	3.280061e-06	4.009286e-11	4.694656e+01	2.904149e+00
1.900000e-06	3.309879e-06	3.854407e-11	4.737334e+01	2.913670e+00
1.910000e-06	3.339124e-06	3.592755e-11	4.779191e+01	2.917190e+00
1.920000e-06	3.367741e-06	3.472485e-11	4.820151e+01	2.915843e+00
1.930000e-06	3.395872e-06	3.641015e-11	4.860413e+01	2.911028e+00
1.940000e-06	3.423634e-06	3.861387e-11	4.900149e+01	2.904327e+00
1.950000e-06	3.450940e-06	3.870147e-11	4.939231e+01	2.897399e+00
1.960000e-06	3.477630e-06	3.742512e-11	4.977431e+01	2.891872e+00
1.970000e-06	3.503451e-06	3.705328e-11	5.014388e+01	2.889233e+00
1.980000e-06	3.528258e-06	3.631408e-11	5.049893e+01	2.890729e+00
1.990000e-06	3.552263e-06	3.493569e-11	5.084252e+01	2.897280e+00
2.000000e-06	3.575781e-06	3.415950e-11	5.117912e+01	2.909420e+00
2.010000e-06	3.598782e-06	3.320862e-11	5.150833e+01	2.927263e+00
2.020000e-06	3.621156e-06	3.343153e-11	5.182856e+01	2.950494e+00
2.030000e-06	3.642916e-06	3.553134e-11	5.214000e+01	2.978402e+00
2.040000e-06	3.664043e-06	3.647270e-11	5.244238e+01	3.009931e+00
2.050000e-06	3.684584e-06	3.601736e-11	5.273639e+01	3.043763e+00
2.060000e-06	3.704626e-06	3.599412e-11	5.302324e+01	3.078422e+00
2.070000e-06	3.724280e-06	3.760290e-11	5.330454e+01	3.112379e+00
2.080000e-06	3.743417e-06	3.726238e-11	5.357845e+01	3.144178e+00
2.090000e-06	3.761843e-06	3.481995e-11	5.384217e+01	3.172541e+00
2.100000e-06	3.779530e-06	3.273085e-11	5.409531e+01	3.196473e+00
2.110000e-06	3.796548e-06	3.163859e-11	5.433889e+01	3.215334e+00
2.120000e-06	3.812975e-06	3.365034e-11	5.457401e+01	3.228898e+00
2.130000e-06	3.828694e-06	3.557470e-11	5.479898e+01	3.237367e+00
2.140000e-06	3.843610e-06	3.594065e-11	5.501247e+01	3.241367e+00
2.150000e-06	3.857719e-06	3.546936e-11	5.521441e+01	3.241895e+00
2.160000e-06	3.871099e-06	3.502230e-11	5.540592e+01	3.240258e+00
2.170000e-06	3.883811e-06	3.545123e-11	5.558787e+01	3.237967e+00
2.180000e-06	3.895837e-06	3.400985e-11	5.575999e+01	3.236628e+00
2.190000e-06	3.907141e-06	3.151543e-11	5.592178e+01	3.237820e+00
2.200000e-06	3.917555e-06	3.033510e-11	5.607084e+01	3.242975e+00
2.210000e-06	3.926939e-06	3.207848e-11	5.620515e+01	3.253261e+00
2.220000e-06	3.935393e-06	3.473400e-11	5.632614e+01	3.269497e+00
2.230000e-06	3.943178e-06	3.531909e-11	5.643756e+01	3.292075e+00
2.240000e-06	3.950434e-06	3.389898e-11	5.654142e+01	3.320928e+00
2.250000e-06	3.957029e-06	3.432117e-11	5.663581e+01	3.355525e+00
2.260000e-06	3.962921e-06	3.743864e-11	5.672015e+01	3.394896e+00
2.270000e-06	3.968144e-06	3.999625e-11	5.679489e+01	3.437704e+00
2.280000e-06	3.972648e-06	3.983024e-11	5.685936e+01	3.482326e+00
2.290000e-06	3.976574e-06	3.778468e-11	5.691556e+01	3.526972e+00
2.300000e-06	3.979973e-06	3.805568e-11	5.696420e+01	3.569813e+00
2.310000e-06	3.982680e-06	3.889249e-11	5.700295e+01	3.609107e+00
2.320000e-06	3.984489e-06	3.980963e-11	5.702884e+01	3.643332e+00
2.330000e-06	3.985313e-06	3.927949e-11	5.704063e+01	3.671297e+00
2.340000e-06	3.985374e-06	3.996989e-11	5.704150e+01	3.692235e+00
2.350000e-06	3.984899e-06	4.281368e-11	5.703470e+01	3.705862e+00
2.360000e-06	3.983850e-06	4.336434e-11	5.701970e+01	3.712409e+00
2.370000e-06	3.982112e-06	4.198775e-11	5.699481e+01	3.712610e+00
2.380000e-06	3.979729e-06	4.215867e-11	5.696071e+01	3.707664e+00
2.390000e-06	3.976720e-06	4.257825e-11	5.691764e+01	3.699156e+00
2.400000e-06	3.973111e-06	4.189052e-11	5.686598e+01	3.688950e+00
2.410000e-06	3.969039e-06	5.393271e-11	5.680771e+01	3.679069e+00
2.420000e-06	3.964495e-06	6.771234e-11	5.674267e+01	3.671554e+00
2.430000e-06	3.959155e-06	1.028342e-11	5.666624e+01	3.668326e+00
2.440000e-06	3.952574e-06	-4.486928e-11	5.657206e+01	3.671054e+00
2.450000e-06	3.944834e-06	7.482242e-11	5.646126e+01	3.681035e+00
2.460000e-06	3.936524e-06	1.484445e-10	5.634233e+01	3.699108e+00
2.470000e-06	3.928016e-06	6.401088e-11	5.622056e+01	3.725588e+00
2.480000e-06	3.919012e-06	-6.036257e-11	5.609168e+01	3.760240e+00
2.490000e-06	3.909063e-06	3.919436e-11	5.594929e+01	3.802288e+00
2.500000e-06	3.898447e-06	7.015597e-11	5.579734e+01	3.850464e+00
2.510000e-06	3.887500e-06	2.964629e-11	5.564067e+01	3.903081e+00
2.520000e-06	3.875713e-06	8.433017e-11	5.547195e+01	3.958138e+00
2.530000e-06	3.862673e-06	-5.790368e-12	5.528532e+01	4.013445e+00
2.540000e-06	3.848952e-06	-6.347854e-11	5.508893e+01	4.066756e+00
2.550000e-06	3.834885e-06	1.156290e-10	5.488760e+01	4.115905e+00
2.560000e-06	3.819910e-06	1.966945e-10	5.467327e+01	4.158937e+00
2.570000e-06	3.803935e-06	-1.073136e-10	5.444462e+01	4.194215e+00
2.580000e-06	3.787424e-06	-4.839791e-11	5.420831e+01	4.220519e+00
2.590000e-06	3.770331e-06	2.394576e-10	5.396365e+01	4.237095e+00
2.600000e-06	3.752398e-06	5.439135e-11	5.370699e+01	4.243694e+00
2.610000e-06	3.733716e-06	-1.348226e-10	5.343959e+01	4.240564e+00
2.620000e-06	3.714458e-06	8.629790e-11	5.316396e+01	4.228413e+00
2.630000e-06	3.694640e-06	1.316455e-10	5.288032e+01	4.208346e+00
2.640000e-06	3.674285e-06	-1.590659e-11	5.258897e+01	4.181778e+00
2.650000e-06	3.653473e-06	8.112205e-11	5.229111e+01	4.150330e+00
2.660000e-06	3.632047e-06	8.853332e-11	5.198443e+01	4.115717e+00
2.670000e-06	3.609625e-06	-6.153172e-12	5.166351e+01	4.079633e+00
2.680000e-06	3.586161e-06	7.627426e-11	5.132769e+01	4.043650e+00
2.690000e-06	3.562034e-06	1.191670e-10	5.098236e+01	4.009119e+00
2.700000e-06	3.537408e-06	7.651903e-11	5.062990e+01	3.977106e+00
2.710000e-06	3.512073e-06	-1.012216e-11	5.026728e+01	3.948339e+00
2.720000e-06	3.486111e-06	1.111574e-11	4.989570e+01	3.923187e+00
2.730000e-06	3.459737e-06	1.973570e-10	4.951822e+01	3.901666e+00
2.740000e-06	3.432723e-06	9.539112e-11	4.913158e+01	3.883469e+00
2.750000e-06	3.404999e-06	-9.749682e-11	4.873476e+01	3.868010e+00
2.760000e-06	3.376864e-06	8.620587e-11	4.833208e+01	3.854498e+00
2.770000e-06	3.348333e-06	1.802062e-10	4.792372e+01	3.842007e+00
2.780000e-06	3.319166e-06	1.351328e-11	4.750626e+01	3.829563e+00
2.790000e-06	3.289222e-06	1.052860e-12	4.707769e+01	3.816215e+00
2.800000e-06	3.258484e-06	8.342461e-11	4.663773e+01	3.801112e+00
2.810000e-06	3.227016e-06	8.016255e-11	4.618735e+01	3.783554e+00
2.820000e-06	3.194994e-06	4.404185e-11	4.572903e+01	3.763040e+00
2.830000e-06	3.162530e-06	4.737098e-11	4.526438e+01	3.739283e+00
2.840000e-06	3.129608e-06	6.603212e-11	4.479317e+01	3.712218e+00
2.850000e-06	3.096137e-06	4.228913e-11	4.431412e+01	3.681986e+00
2.860000e-06	3.062128e-06	4.297204e-11	4.382736e+01	3.648901e+00
2.870000e-06	3.027693e-06	8.719370e-11	4.333450e+01	3.613414e+00
2.880000e-06	2.992788e-06	5.554605e-11	4.283490e+01	3.576055e+00
2.890000e-06	2.957295e-06	1.034586e-11	4.232691e+01	3.537390e+00
2.900000e-06	2.921306e-06	6.053456e-11	4.181181e+01	3.497966e+00
2.910000e-06	2.885035e-06	9.371585e-11	4.129267e+01	3.458271e+00
2.920000e-06	2.848430e-06	3.881659e-11	4.076876e+01	3.418698e+00
2.930000e-06	2.811213e-06	9.524127e-12	4.023608e+01	3.379533e+00
2.940000e-06	2.773213e-06	6.744733e-11	3.969219e+01	3.340940e+00
