# Temperatura_=_20.0
# Concentracion g/m^3_=_9000.0
# C_Vs_to_Am_M_A/Vsm_=_65563218390.804596
# pendiente_HvsI_1/m_=_3716.3
# ordenada_HvsI_A/m_=_1297.0
# frecuencia_Hz_=_212896.52086291503

Tiempo_(s)	Campo_(V.s)	Magnetizacion_(V.s)	Campo_(kA/m)	Magnetizacion_(A/m)
0.000000e+00	-3.970518e-06	-3.402444e-09	-5.697487e+01	-2.306171e+02
1.000000e-08	-3.970343e-06	-3.403717e-09	-5.697236e+01	-2.306467e+02
2.000000e-08	-3.969471e-06	-3.404613e-09	-5.695986e+01	-2.306520e+02
3.000000e-08	-3.967612e-06	-3.403107e-09	-5.693317e+01	-2.306315e+02
4.000000e-08	-3.964795e-06	-3.401995e-09	-5.689275e+01	-2.305843e+02
5.000000e-08	-3.961371e-06	-3.400548e-09	-5.684362e+01	-2.305101e+02
6.000000e-08	-3.957529e-06	-3.396237e-09	-5.678848e+01	-2.304093e+02
7.000000e-08	-3.953109e-06	-3.392530e-09	-5.672507e+01	-2.302829e+02
8.000000e-08	-3.947884e-06	-3.405745e-09	-5.665008e+01	-2.301328e+02
9.000000e-08	-3.941796e-06	-3.422776e-09	-5.656273e+01	-2.299612e+02
1.000000e-07	-3.934871e-06	-3.413456e-09	-5.646337e+01	-2.297709e+02
1.100000e-07	-3.927371e-06	-3.348331e-09	-5.635574e+01	-2.295648e+02
1.200000e-07	-3.919538e-06	-3.374791e-09	-5.624335e+01	-2.293462e+02
1.300000e-07	-3.911076e-06	-3.417214e-09	-5.612192e+01	-2.291180e+02
1.400000e-07	-3.901704e-06	-3.412474e-09	-5.598742e+01	-2.288829e+02
1.500000e-07	-3.891646e-06	-3.363960e-09	-5.584311e+01	-2.286431e+02
1.600000e-07	-3.880798e-06	-3.381952e-09	-5.568744e+01	-2.284002e+02
1.700000e-07	-3.868785e-06	-3.392991e-09	-5.551506e+01	-2.281551e+02
1.800000e-07	-3.855990e-06	-3.364101e-09	-5.533146e+01	-2.279077e+02
1.900000e-07	-3.842881e-06	-3.457866e-09	-5.514335e+01	-2.276576e+02
2.000000e-07	-3.828749e-06	-3.410803e-09	-5.494057e+01	-2.274031e+02
2.100000e-07	-3.813188e-06	-3.407432e-09	-5.471727e+01	-2.271423e+02
2.200000e-07	-3.797021e-06	-3.531212e-09	-5.448528e+01	-2.268725e+02
2.300000e-07	-3.780435e-06	-3.605388e-09	-5.424729e+01	-2.265910e+02
2.400000e-07	-3.763096e-06	-3.503788e-09	-5.399847e+01	-2.262946e+02
2.500000e-07	-3.745158e-06	-3.480562e-09	-5.374108e+01	-2.259804e+02
2.600000e-07	-3.726661e-06	-3.610401e-09	-5.347566e+01	-2.256458e+02
2.700000e-07	-3.707467e-06	-3.563097e-09	-5.320023e+01	-2.252882e+02
2.800000e-07	-3.687749e-06	-3.510932e-09	-5.291728e+01	-2.249060e+02
2.900000e-07	-3.667620e-06	-3.534515e-09	-5.262844e+01	-2.244979e+02
3.000000e-07	-3.646871e-06	-3.544307e-09	-5.233070e+01	-2.240634e+02
3.100000e-07	-3.625448e-06	-3.506393e-09	-5.202330e+01	-2.236028e+02
3.200000e-07	-3.603362e-06	-3.504641e-09	-5.170638e+01	-2.231166e+02
3.300000e-07	-3.580602e-06	-3.536420e-09	-5.137978e+01	-2.226062e+02
3.400000e-07	-3.557303e-06	-3.490374e-09	-5.104546e+01	-2.220733e+02
3.500000e-07	-3.533470e-06	-3.427332e-09	-5.070347e+01	-2.215197e+02
3.600000e-07	-3.509176e-06	-3.482761e-09	-5.035486e+01	-2.209474e+02
3.700000e-07	-3.484326e-06	-3.533139e-09	-4.999827e+01	-2.203583e+02
3.800000e-07	-3.458396e-06	-3.410360e-09	-4.962620e+01	-2.197540e+02
3.900000e-07	-3.431365e-06	-3.376302e-09	-4.923831e+01	-2.191360e+02
4.000000e-07	-3.403793e-06	-3.502357e-09	-4.884267e+01	-2.185049e+02
4.100000e-07	-3.375902e-06	-3.465460e-09	-4.844245e+01	-2.178612e+02
4.200000e-07	-3.347393e-06	-3.340680e-09	-4.803336e+01	-2.172046e+02
4.300000e-07	-3.318233e-06	-3.414243e-09	-4.761493e+01	-2.165344e+02
4.400000e-07	-3.288649e-06	-3.446122e-09	-4.719041e+01	-2.158494e+02
4.500000e-07	-3.258518e-06	-3.349616e-09	-4.675805e+01	-2.151481e+02
4.600000e-07	-3.227735e-06	-3.352830e-09	-4.631632e+01	-2.144286e+02
4.700000e-07	-3.196477e-06	-3.391113e-09	-4.586779e+01	-2.136891e+02
4.800000e-07	-3.164871e-06	-3.343565e-09	-4.541426e+01	-2.129276e+02
4.900000e-07	-3.132978e-06	-3.302362e-09	-4.495661e+01	-2.121423e+02
5.000000e-07	-3.100672e-06	-3.331674e-09	-4.449303e+01	-2.113315e+02
5.100000e-07	-3.067535e-06	-3.324314e-09	-4.401754e+01	-2.104940e+02
5.200000e-07	-3.033381e-06	-3.268272e-09	-4.352745e+01	-2.096287e+02
5.300000e-07	-2.998459e-06	-3.264135e-09	-4.302634e+01	-2.087351e+02
5.400000e-07	-2.963040e-06	-3.280969e-09	-4.251809e+01	-2.078128e+02
5.500000e-07	-2.927273e-06	-3.253880e-09	-4.200485e+01	-2.068620e+02
5.600000e-07	-2.891183e-06	-3.212534e-09	-4.148697e+01	-2.058828e+02
5.700000e-07	-2.854622e-06	-3.209741e-09	-4.096235e+01	-2.048758e+02
5.800000e-07	-2.817546e-06	-3.217872e-09	-4.043033e+01	-2.038413e+02
5.900000e-07	-2.779988e-06	-3.171102e-09	-3.989139e+01	-2.027798e+02
6.000000e-07	-2.741890e-06	-3.140820e-09	-3.934470e+01	-2.016917e+02
6.100000e-07	-2.703258e-06	-3.153843e-09	-3.879035e+01	-2.005771e+02
6.200000e-07	-2.664189e-06	-3.134020e-09	-3.822973e+01	-1.994357e+02
6.300000e-07	-2.624774e-06	-3.091092e-09	-3.766414e+01	-1.982673e+02
6.400000e-07	-2.585073e-06	-3.078909e-09	-3.709446e+01	-1.970711e+02
6.500000e-07	-2.545116e-06	-3.081751e-09	-3.652109e+01	-1.958462e+02
6.600000e-07	-2.504674e-06	-3.047000e-09	-3.594078e+01	-1.945916e+02
6.700000e-07	-2.463502e-06	-3.014176e-09	-3.534997e+01	-1.933060e+02
6.800000e-07	-2.421588e-06	-3.011817e-09	-3.474854e+01	-1.919881e+02
6.900000e-07	-2.378936e-06	-2.985478e-09	-3.413650e+01	-1.906368e+02
7.000000e-07	-2.335748e-06	-2.948605e-09	-3.351677e+01	-1.892508e+02
7.100000e-07	-2.292247e-06	-2.935088e-09	-3.289256e+01	-1.878293e+02
7.200000e-07	-2.248478e-06	-2.922542e-09	-3.226450e+01	-1.863716e+02
7.300000e-07	-2.204424e-06	-2.889494e-09	-3.163234e+01	-1.848772e+02
7.400000e-07	-2.159967e-06	-2.857162e-09	-3.099441e+01	-1.833458e+02
7.500000e-07	-2.115055e-06	-2.848246e-09	-3.034995e+01	-1.817773e+02
7.600000e-07	-2.069770e-06	-2.824945e-09	-2.970013e+01	-1.801719e+02
7.700000e-07	-2.024196e-06	-2.784848e-09	-2.904617e+01	-1.785296e+02
7.800000e-07	-1.978340e-06	-2.761491e-09	-2.838816e+01	-1.768505e+02
7.900000e-07	-1.932150e-06	-2.743681e-09	-2.772535e+01	-1.751345e+02
8.000000e-07	-1.885551e-06	-2.712930e-09	-2.705667e+01	-1.733814e+02
8.100000e-07	-1.838608e-06	-2.675704e-09	-2.638307e+01	-1.715905e+02
8.200000e-07	-1.791425e-06	-2.654347e-09	-2.570602e+01	-1.697606e+02
8.300000e-07	-1.743995e-06	-2.632037e-09	-2.502543e+01	-1.678904e+02
8.400000e-07	-1.696359e-06	-2.591989e-09	-2.434187e+01	-1.659778e+02
8.500000e-07	-1.648582e-06	-2.558147e-09	-2.365629e+01	-1.640205e+02
8.600000e-07	-1.600531e-06	-2.530306e-09	-2.296678e+01	-1.620155e+02
8.700000e-07	-1.552092e-06	-2.495970e-09	-2.227172e+01	-1.599598e+02
8.800000e-07	-1.503247e-06	-2.457986e-09	-2.157081e+01	-1.578499e+02
8.900000e-07	-1.454000e-06	-2.425806e-09	-2.086415e+01	-1.556823e+02
9.000000e-07	-1.404395e-06	-2.394638e-09	-2.015234e+01	-1.534533e+02
9.100000e-07	-1.354337e-06	-2.352996e-09	-1.943404e+01	-1.511596e+02
9.200000e-07	-1.303808e-06	-2.316054e-09	-1.870898e+01	-1.487977e+02
9.300000e-07	-1.252849e-06	-2.282321e-09	-1.797773e+01	-1.463645e+02
9.400000e-07	-1.201569e-06	-2.238634e-09	-1.724189e+01	-1.438571e+02
9.500000e-07	-1.150166e-06	-2.195311e-09	-1.650428e+01	-1.412729e+02
9.600000e-07	-1.098582e-06	-2.155006e-09	-1.576408e+01	-1.386095e+02
9.700000e-07	-1.046773e-06	-2.113982e-09	-1.502065e+01	-1.358647e+02
9.800000e-07	-9.948278e-07	-2.067124e-09	-1.427526e+01	-1.330362e+02
9.900000e-07	-9.427492e-07	-2.021997e-09	-1.352796e+01	-1.301219e+02
1.000000e-06	-8.904850e-07	-1.981336e-09	-1.277800e+01	-1.271192e+02
1.010000e-06	-8.378872e-07	-1.932623e-09	-1.202325e+01	-1.240256e+02
1.020000e-06	-7.850504e-07	-1.879822e-09	-1.126507e+01	-1.208378e+02
1.030000e-06	-7.321781e-07	-1.828112e-09	-1.050638e+01	-1.175523e+02
1.040000e-06	-6.792039e-07	-1.776046e-09	-9.746224e+00	-1.141648e+02
1.050000e-06	-6.260493e-07	-1.718429e-09	-8.983483e+00	-1.106706e+02
1.060000e-06	-5.727756e-07	-1.658650e-09	-8.219033e+00	-1.070644e+02
1.070000e-06	-5.194292e-07	-1.604989e-09	-7.453540e+00	-1.033405e+02
1.080000e-06	-4.659974e-07	-1.546263e-09	-6.686822e+00	-9.949289e+01
1.090000e-06	-4.124739e-07	-1.480313e-09	-5.918787e+00	-9.551547e+01
1.100000e-06	-3.588818e-07	-1.416157e-09	-5.149768e+00	-9.140229e+01
1.110000e-06	-3.052682e-07	-1.351763e-09	-4.380441e+00	-8.714780e+01
1.120000e-06	-2.516191e-07	-1.283344e-09	-3.610604e+00	-8.274711e+01
1.130000e-06	-1.979618e-07	-1.209549e-09	-2.840649e+00	-7.819628e+01
1.140000e-06	-1.442748e-07	-1.135790e-09	-2.070269e+00	-7.349256e+01
1.150000e-06	-9.054230e-08	-1.061517e-09	-1.299235e+00	-6.863465e+01
1.160000e-06	-3.683141e-08	-9.845783e-10	-5.285117e-01	-6.362285e+01
1.170000e-06	1.687123e-08	-9.072886e-10	2.420935e-01	-5.845921e+01
1.180000e-06	7.055219e-08	-8.256835e-10	1.012387e+00	-5.314761e+01
1.190000e-06	1.241731e-07	-7.398456e-10	1.781819e+00	-4.769376e+01
1.200000e-06	1.777875e-07	-6.536571e-10	2.551159e+00	-4.210515e+01
1.210000e-06	2.313815e-07	-5.649300e-10	3.320205e+00	-3.639094e+01
1.220000e-06	2.848727e-07	-4.752669e-10	4.087776e+00	-3.056178e+01
1.230000e-06	3.382980e-07	-3.824639e-10	4.854401e+00	-2.462966e+01
1.240000e-06	3.917030e-07	-2.882804e-10	5.620736e+00	-1.860759e+01
1.250000e-06	4.450655e-07	-1.966230e-10	6.386459e+00	-1.250942e+01
1.260000e-06	4.983748e-07	-1.013310e-10	7.151420e+00	-6.349584e+00
1.270000e-06	5.515616e-07	-5.459003e-12	7.914623e+00	-1.428211e-01
1.280000e-06	6.045979e-07	9.141281e-11	8.675667e+00	6.095998e+00
1.290000e-06	6.574478e-07	1.859471e-10	9.434035e+00	1.235208e+01
1.300000e-06	7.101666e-07	2.817754e-10	1.019052e+01	1.861083e+01
1.310000e-06	7.627999e-07	3.804384e-10	1.094578e+01	2.485802e+01
1.320000e-06	8.152835e-07	4.767958e-10	1.169890e+01	3.107979e+01
1.330000e-06	8.676270e-07	5.738282e-10	1.245000e+01	3.726276e+01
1.340000e-06	9.198014e-07	6.691472e-10	1.319867e+01	4.339397e+01
1.350000e-06	9.717812e-07	7.627025e-10	1.394456e+01	4.946098e+01
1.360000e-06	1.023616e-06	8.533095e-10	1.468836e+01	5.545176e+01
1.370000e-06	1.075385e-06	9.438772e-10	1.543122e+01	6.135477e+01
1.380000e-06	1.127027e-06	1.032401e-09	1.617225e+01	6.715892e+01
1.390000e-06	1.178433e-06	1.118663e-09	1.690990e+01	7.285364e+01
1.400000e-06	1.229590e-06	1.205364e-09	1.764398e+01	7.842891e+01
1.410000e-06	1.280444e-06	1.287862e-09	1.837371e+01	8.387534e+01
1.420000e-06	1.330922e-06	1.367803e-09	1.909804e+01	8.918431e+01
1.430000e-06	1.381010e-06	1.448243e-09	1.981678e+01	9.434806e+01
1.440000e-06	1.430624e-06	1.524990e-09	2.052871e+01	9.935988e+01
1.450000e-06	1.479694e-06	1.597062e-09	2.123285e+01	1.042142e+02
1.460000e-06	1.528335e-06	1.666858e-09	2.193082e+01	1.089069e+02
1.470000e-06	1.576681e-06	1.738211e-09	2.262455e+01	1.134350e+02
1.480000e-06	1.624773e-06	1.805794e-09	2.331465e+01	1.177974e+02
1.490000e-06	1.672642e-06	1.865961e-09	2.400154e+01	1.219944e+02
1.500000e-06	1.720340e-06	1.924881e-09	2.468599e+01	1.260278e+02
1.510000e-06	1.767883e-06	1.983921e-09	2.536821e+01	1.299011e+02
1.520000e-06	1.815151e-06	2.042012e-09	2.604647e+01	1.336191e+02
1.530000e-06	1.861992e-06	2.096170e-09	2.671862e+01	1.371878e+02
1.540000e-06	1.908416e-06	2.147287e-09	2.738478e+01	1.406142e+02
1.550000e-06	1.954490e-06	2.199096e-09	2.804592e+01	1.439063e+02
1.560000e-06	2.000287e-06	2.250295e-09	2.870308e+01	1.470721e+02
1.570000e-06	2.045808e-06	2.298080e-09	2.935629e+01	1.501201e+02
1.580000e-06	2.090946e-06	2.342808e-09	3.000399e+01	1.530586e+02
1.590000e-06	2.135630e-06	2.386134e-09	3.064518e+01	1.558954e+02
1.600000e-06	2.179933e-06	2.430228e-09	3.128091e+01	1.586377e+02
1.610000e-06	2.223953e-06	2.471799e-09	3.191257e+01	1.612917e+02
1.620000e-06	2.267750e-06	2.510039e-09	3.254103e+01	1.638628e+02
1.630000e-06	2.311350e-06	2.546511e-09	3.316667e+01	1.663552e+02
1.640000e-06	2.354617e-06	2.581451e-09	3.378753e+01	1.687721e+02
1.650000e-06	2.397430e-06	2.615502e-09	3.440188e+01	1.711156e+02
1.660000e-06	2.439634e-06	2.647879e-09	3.500748e+01	1.733872e+02
1.670000e-06	2.480966e-06	2.680412e-09	3.560058e+01	1.755873e+02
1.680000e-06	2.521543e-06	2.713609e-09	3.618283e+01	1.777161e+02
1.690000e-06	2.561666e-06	2.747128e-09	3.675858e+01	1.797734e+02
1.700000e-06	2.601491e-06	2.778840e-09	3.733005e+01	1.817590e+02
1.710000e-06	2.641095e-06	2.807826e-09	3.789834e+01	1.836729e+02
1.720000e-06	2.680419e-06	2.836691e-09	3.846263e+01	1.855155e+02
1.730000e-06	2.719237e-06	2.864725e-09	3.901964e+01	1.872876e+02
1.740000e-06	2.757477e-06	2.890390e-09	3.956836e+01	1.889910e+02
1.750000e-06	2.795288e-06	2.914811e-09	4.011094e+01	1.906276e+02
1.760000e-06	2.832637e-06	2.940700e-09	4.064688e+01	1.922005e+02
1.770000e-06	2.869447e-06	2.967956e-09	4.117507e+01	1.937132e+02
1.780000e-06	2.905766e-06	2.994057e-09	4.169624e+01	1.951695e+02
1.790000e-06	2.941705e-06	3.019041e-09	4.221194e+01	1.965739e+02
1.800000e-06	2.977404e-06	3.042718e-09	4.272421e+01	1.979308e+02
1.810000e-06	3.012819e-06	3.064549e-09	4.323239e+01	1.992445e+02
1.820000e-06	3.047645e-06	3.085438e-09	4.373213e+01	2.005191e+02
1.830000e-06	3.081584e-06	3.103833e-09	4.421913e+01	2.017585e+02
1.840000e-06	3.114524e-06	3.121548e-09	4.469181e+01	2.029658e+02
1.850000e-06	3.146724e-06	3.141794e-09	4.515385e+01	2.041435e+02
1.860000e-06	3.178553e-06	3.163993e-09	4.561059e+01	2.052933e+02
1.870000e-06	3.210058e-06	3.184255e-09	4.606267e+01	2.064163e+02
1.880000e-06	3.241049e-06	3.202083e-09	4.650737e+01	2.075128e+02
1.890000e-06	3.271421e-06	3.221471e-09	4.694319e+01	2.085827e+02
1.900000e-06	3.301232e-06	3.239878e-09	4.737096e+01	2.096252e+02
1.910000e-06	3.330451e-06	3.255554e-09	4.779025e+01	2.106394e+02
1.920000e-06	3.358971e-06	3.269968e-09	4.819949e+01	2.116240e+02
1.930000e-06	3.386988e-06	3.284777e-09	4.860152e+01	2.125780e+02
1.940000e-06	3.414753e-06	3.300799e-09	4.899993e+01	2.135003e+02
1.950000e-06	3.442108e-06	3.316580e-09	4.939247e+01	2.143903e+02
1.960000e-06	3.468702e-06	3.332015e-09	4.977407e+01	2.152479e+02
1.970000e-06	3.494268e-06	3.347137e-09	5.014093e+01	2.160731e+02
1.980000e-06	3.518872e-06	3.362251e-09	5.049399e+01	2.168668e+02
1.990000e-06	3.542871e-06	3.376552e-09	5.083836e+01	2.176300e+02
2.000000e-06	3.566363e-06	3.389187e-09	5.117546e+01	2.183643e+02
2.010000e-06	3.589288e-06	3.402471e-09	5.150442e+01	2.190716e+02
2.020000e-06	3.611616e-06	3.415725e-09	5.182482e+01	2.197538e+02
2.030000e-06	3.633334e-06	3.425890e-09	5.213646e+01	2.204129e+02
2.040000e-06	3.654436e-06	3.436350e-09	5.243927e+01	2.210506e+02
2.050000e-06	3.674909e-06	3.448487e-09	5.273304e+01	2.216687e+02
2.060000e-06	3.694891e-06	3.458446e-09	5.301977e+01	2.222683e+02
2.070000e-06	3.714496e-06	3.468149e-09	5.330109e+01	2.228503e+02
2.080000e-06	3.733634e-06	3.479051e-09	5.357571e+01	2.234148e+02
2.090000e-06	3.752025e-06	3.489774e-09	5.383961e+01	2.239617e+02
2.100000e-06	3.769540e-06	3.500675e-09	5.409095e+01	2.244904e+02
2.110000e-06	3.786453e-06	3.510840e-09	5.433364e+01	2.249999e+02
2.120000e-06	3.802883e-06	3.518099e-09	5.456939e+01	2.254889e+02
2.130000e-06	3.818571e-06	3.524126e-09	5.479452e+01	2.259562e+02
2.140000e-06	3.833367e-06	3.531795e-09	5.500683e+01	2.264003e+02
2.150000e-06	3.847358e-06	3.540019e-09	5.520760e+01	2.268201e+02
2.160000e-06	3.860669e-06	3.546711e-09	5.539859e+01	2.272148e+02
2.170000e-06	3.873340e-06	3.553554e-09	5.558042e+01	2.275838e+02
2.180000e-06	3.885352e-06	3.563986e-09	5.575279e+01	2.279270e+02
2.190000e-06	3.896651e-06	3.573241e-09	5.591492e+01	2.282449e+02
2.200000e-06	3.907080e-06	3.579165e-09	5.606458e+01	2.285385e+02
2.210000e-06	3.916426e-06	3.583100e-09	5.619868e+01	2.288090e+02
2.220000e-06	3.924831e-06	3.588369e-09	5.631929e+01	2.290581e+02
2.230000e-06	3.932660e-06	3.593135e-09	5.643163e+01	2.292876e+02
2.240000e-06	3.939990e-06	3.596593e-09	5.653682e+01	2.294995e+02
2.250000e-06	3.946612e-06	3.600068e-09	5.663184e+01	2.296956e+02
2.260000e-06	3.952545e-06	3.602852e-09	5.671697e+01	2.298775e+02
2.270000e-06	3.957822e-06	3.605775e-09	5.679270e+01	2.300464e+02
2.280000e-06	3.962360e-06	3.607779e-09	5.685781e+01	2.302032e+02
2.290000e-06	3.966354e-06	3.609991e-09	5.691512e+01	2.303479e+02
2.300000e-06	3.969860e-06	3.612948e-09	5.696544e+01	2.304803e+02
2.310000e-06	3.972592e-06	3.618179e-09	5.700464e+01	2.305995e+02
2.320000e-06	3.974325e-06	3.623445e-09	5.702951e+01	2.307039e+02
2.330000e-06	3.975085e-06	3.627431e-09	5.704041e+01	2.307920e+02
2.340000e-06	3.975161e-06	3.630231e-09	5.704150e+01	2.308614e+02
2.350000e-06	3.974756e-06	3.631775e-09	5.703570e+01	2.309103e+02
2.360000e-06	3.973726e-06	3.632661e-09	5.702091e+01	2.309364e+02
2.370000e-06	3.972028e-06	3.631704e-09	5.699654e+01	2.309379e+02
2.380000e-06	3.969732e-06	3.629690e-09	5.696359e+01	2.309135e+02
2.390000e-06	3.966755e-06	3.629893e-09	5.692089e+01	2.308624e+02
2.400000e-06	3.963102e-06	3.632633e-09	5.686847e+01	2.307842e+02
2.410000e-06	3.959019e-06	3.636360e-09	5.680987e+01	2.306795e+02
2.420000e-06	3.954598e-06	3.629359e-09	5.674643e+01	2.305495e+02
2.430000e-06	3.949464e-06	3.594744e-09	5.667277e+01	2.303961e+02
2.440000e-06	3.943049e-06	3.596187e-09	5.658072e+01	2.302216e+02
2.450000e-06	3.935381e-06	3.670414e-09	5.647068e+01	2.300287e+02
2.460000e-06	3.927155e-06	3.649353e-09	5.635264e+01	2.298207e+02
2.470000e-06	3.918842e-06	3.608876e-09	5.623335e+01	2.296005e+02
2.480000e-06	3.910001e-06	3.577199e-09	5.610649e+01	2.293712e+02
2.490000e-06	3.899963e-06	3.627894e-09	5.596245e+01	2.291353e+02
2.500000e-06	3.889283e-06	3.581089e-09	5.580920e+01	2.288950e+02
2.510000e-06	3.878591e-06	3.573981e-09	5.565577e+01	2.286518e+02
2.520000e-06	3.866962e-06	3.589427e-09	5.548889e+01	2.284064e+02
2.530000e-06	3.853725e-06	3.488336e-09	5.529896e+01	2.281588e+02
2.540000e-06	3.840056e-06	3.532556e-09	5.510282e+01	2.279081e+02
2.550000e-06	3.826232e-06	3.600834e-09	5.490444e+01	2.276529e+02
2.560000e-06	3.811214e-06	3.531579e-09	5.468895e+01	2.273910e+02
2.570000e-06	3.795219e-06	3.392666e-09	5.445943e+01	2.271197e+02
2.580000e-06	3.778797e-06	3.504668e-09	5.422378e+01	2.268362e+02
2.590000e-06	3.761731e-06	3.488235e-09	5.397889e+01	2.265374e+02
2.600000e-06	3.743911e-06	3.290833e-09	5.372318e+01	2.262204e+02
2.610000e-06	3.725409e-06	3.324319e-09	5.345770e+01	2.258825e+02
2.620000e-06	3.706208e-06	3.410750e-09	5.318217e+01	2.255214e+02
2.630000e-06	3.686440e-06	3.310960e-09	5.289850e+01	2.251354e+02
2.640000e-06	3.666134e-06	3.277988e-09	5.260713e+01	2.247235e+02
2.650000e-06	3.645287e-06	3.382259e-09	5.230798e+01	2.242851e+02
2.660000e-06	3.623883e-06	3.312345e-09	5.200084e+01	2.238206e+02
2.670000e-06	3.601433e-06	3.231100e-09	5.167870e+01	2.233308e+02
2.680000e-06	3.577903e-06	3.310293e-09	5.134106e+01	2.228170e+02
2.690000e-06	3.553902e-06	3.336184e-09	5.099666e+01	2.222809e+02
2.700000e-06	3.529375e-06	3.271635e-09	5.064470e+01	2.217244e+02
2.710000e-06	3.504038e-06	3.192362e-09	5.028113e+01	2.211495e+02
2.720000e-06	3.478236e-06	3.278087e-09	4.991088e+01	2.205581e+02
2.730000e-06	3.452070e-06	3.339427e-09	4.953542e+01	2.199518e+02
2.740000e-06	3.425089e-06	3.166200e-09	4.914825e+01	2.193318e+02
2.750000e-06	3.397397e-06	3.180885e-09	4.875088e+01	2.186989e+02
2.760000e-06	3.369384e-06	3.315085e-09	4.834891e+01	2.180533e+02
2.770000e-06	3.340948e-06	3.201698e-09	4.794088e+01	2.173948e+02
2.780000e-06	3.311720e-06	3.142824e-09	4.752147e+01	2.167225e+02
2.790000e-06	3.281681e-06	3.238505e-09	4.709042e+01	2.160353e+02
2.800000e-06	3.250983e-06	3.218237e-09	4.664992e+01	2.153314e+02
2.810000e-06	3.219589e-06	3.145171e-09	4.619944e+01	2.146092e+02
2.820000e-06	3.187602e-06	3.153777e-09	4.574044e+01	2.138665e+02
2.830000e-06	3.155267e-06	3.195294e-09	4.527644e+01	2.131016e+02
2.840000e-06	3.122536e-06	3.153709e-09	4.480677e+01	2.123127e+02
2.850000e-06	3.089131e-06	3.095366e-09	4.432743e+01	2.114980e+02
2.860000e-06	3.055157e-06	3.129693e-09	4.383992e+01	2.106564e+02
2.870000e-06	3.020827e-06	3.144255e-09	4.334731e+01	2.097870e+02
2.880000e-06	2.986012e-06	3.076977e-09	4.284773e+01	2.088891e+02
2.890000e-06	2.950565e-06	3.059524e-09	4.233908e+01	2.079626e+02
2.900000e-06	2.914653e-06	3.096432e-09	4.182376e+01	2.070076e+02
2.910000e-06	2.878492e-06	3.066010e-09	4.130486e+01	2.060243e+02
2.920000e-06	2.841968e-06	3.015405e-09	4.078077e+01	2.050131e+02
2.930000e-06	2.804835e-06	3.031804e-09	4.024793e+01	2.039746e+02
2.940000e-06	2.767039e-06	3.040255e-09	3.970558e+01	2.029092e+02
2.950000e-06	2.728396e-06	2.987765e-09	3.915107e+01	2.018172e+02
