# Temperatura_=_20.0
# Concentracion g/m^3_=_9000.0
# C_Vs_to_Am_M_A/Vsm_=_65563218390.804596
# pendiente_HvsI_1/m_=_3716.3
# ordenada_HvsI_A/m_=_1297.0
# frecuencia_Hz_=_212895.72357721414

Tiempo_(s)	Campo_(V.s)	Magnetizacion_(V.s)	Campo_(kA/m)	Magnetizacion_(A/m)
0.000000e+00	-3.974500e-06	-3.478077e-09	-5.697022e+01	-2.317835e+02
1.000000e-08	-3.974607e-06	-3.479527e-09	-5.697175e+01	-2.317987e+02
2.000000e-08	-3.974122e-06	-3.480530e-09	-5.696481e+01	-2.318053e+02
3.000000e-08	-3.972768e-06	-3.481404e-09	-5.694540e+01	-2.318036e+02
4.000000e-08	-3.970401e-06	-3.479374e-09	-5.691147e+01	-2.317931e+02
5.000000e-08	-3.967148e-06	-3.477605e-09	-5.686484e+01	-2.317726e+02
6.000000e-08	-3.963363e-06	-3.478197e-09	-5.681058e+01	-2.317404e+02
7.000000e-08	-3.959116e-06	-3.478911e-09	-5.674971e+01	-2.316941e+02
8.000000e-08	-3.954187e-06	-3.462637e-09	-5.667907e+01	-2.316308e+02
9.000000e-08	-3.948430e-06	-3.464819e-09	-5.659654e+01	-2.315472e+02
1.000000e-07	-3.941801e-06	-3.515913e-09	-5.650152e+01	-2.314399e+02
1.100000e-07	-3.934434e-06	-3.564112e-09	-5.639592e+01	-2.313053e+02
1.200000e-07	-3.926675e-06	-3.424217e-09	-5.628471e+01	-2.311400e+02
1.300000e-07	-3.918533e-06	-3.356553e-09	-5.616800e+01	-2.309411e+02
1.400000e-07	-3.909484e-06	-3.478656e-09	-5.603830e+01	-2.307061e+02
1.500000e-07	-3.899413e-06	-3.581510e-09	-5.589394e+01	-2.304330e+02
1.600000e-07	-3.888748e-06	-3.466382e-09	-5.574106e+01	-2.301208e+02
1.700000e-07	-3.877255e-06	-3.440696e-09	-5.557632e+01	-2.297695e+02
1.800000e-07	-3.864668e-06	-3.510076e-09	-5.539590e+01	-2.293799e+02
1.900000e-07	-3.851561e-06	-3.426814e-09	-5.520803e+01	-2.289536e+02
2.000000e-07	-3.838007e-06	-3.568326e-09	-5.501374e+01	-2.284935e+02
2.100000e-07	-3.823080e-06	-3.588102e-09	-5.479978e+01	-2.280030e+02
2.200000e-07	-3.806921e-06	-3.397883e-09	-5.456815e+01	-2.274861e+02
2.300000e-07	-3.790461e-06	-3.384785e-09	-5.433222e+01	-2.269476e+02
2.400000e-07	-3.773534e-06	-3.646788e-09	-5.408959e+01	-2.263923e+02
2.500000e-07	-3.755858e-06	-3.585333e-09	-5.383623e+01	-2.258251e+02
2.600000e-07	-3.737552e-06	-3.304172e-09	-5.357384e+01	-2.252508e+02
2.700000e-07	-3.718666e-06	-3.450438e-09	-5.330312e+01	-2.246738e+02
2.800000e-07	-3.699213e-06	-3.593714e-09	-5.302428e+01	-2.240979e+02
2.900000e-07	-3.679273e-06	-3.488391e-09	-5.273846e+01	-2.235260e+02
3.000000e-07	-3.658797e-06	-3.389820e-09	-5.244496e+01	-2.229605e+02
3.100000e-07	-3.637638e-06	-3.427193e-09	-5.214167e+01	-2.224025e+02
3.200000e-07	-3.615802e-06	-3.430326e-09	-5.182868e+01	-2.218522e+02
3.300000e-07	-3.593276e-06	-3.424584e-09	-5.150578e+01	-2.213091e+02
3.400000e-07	-3.570144e-06	-3.464106e-09	-5.117422e+01	-2.207714e+02
3.500000e-07	-3.546569e-06	-3.421603e-09	-5.083629e+01	-2.202368e+02
3.600000e-07	-3.522481e-06	-3.316237e-09	-5.049101e+01	-2.197023e+02
3.700000e-07	-3.497782e-06	-3.357752e-09	-5.013698e+01	-2.191645e+02
3.800000e-07	-3.472223e-06	-3.509447e-09	-4.977062e+01	-2.186197e+02
3.900000e-07	-3.445527e-06	-3.401446e-09	-4.938796e+01	-2.180641e+02
4.000000e-07	-3.418069e-06	-3.219487e-09	-4.899438e+01	-2.174941e+02
4.100000e-07	-3.390332e-06	-3.364995e-09	-4.859680e+01	-2.169062e+02
4.200000e-07	-3.362168e-06	-3.492024e-09	-4.819310e+01	-2.162976e+02
4.300000e-07	-3.333256e-06	-3.300013e-09	-4.777868e+01	-2.156658e+02
4.400000e-07	-3.303781e-06	-3.245878e-09	-4.735618e+01	-2.150090e+02
4.500000e-07	-3.273924e-06	-3.356608e-09	-4.692822e+01	-2.143258e+02
4.600000e-07	-3.243446e-06	-3.335935e-09	-4.649135e+01	-2.136158e+02
4.700000e-07	-3.212335e-06	-3.282562e-09	-4.604540e+01	-2.128786e+02
4.800000e-07	-3.180855e-06	-3.275022e-09	-4.559417e+01	-2.121148e+02
4.900000e-07	-3.149080e-06	-3.255175e-09	-4.513871e+01	-2.113248e+02
5.000000e-07	-3.116813e-06	-3.241282e-09	-4.467620e+01	-2.105096e+02
5.100000e-07	-3.083864e-06	-3.268144e-09	-4.420391e+01	-2.096701e+02
5.200000e-07	-3.050062e-06	-3.249114e-09	-4.371939e+01	-2.088071e+02
5.300000e-07	-3.015374e-06	-3.182348e-09	-4.322217e+01	-2.079213e+02
5.400000e-07	-2.980098e-06	-3.184118e-09	-4.271654e+01	-2.070132e+02
5.500000e-07	-2.944515e-06	-3.217080e-09	-4.220649e+01	-2.060827e+02
5.600000e-07	-2.908623e-06	-3.201482e-09	-4.169201e+01	-2.051296e+02
5.700000e-07	-2.872224e-06	-3.142824e-09	-4.117028e+01	-2.041532e+02
5.800000e-07	-2.835247e-06	-3.107050e-09	-4.064024e+01	-2.031525e+02
5.900000e-07	-2.797796e-06	-3.148089e-09	-4.010343e+01	-2.021261e+02
6.000000e-07	-2.759874e-06	-3.147074e-09	-3.955985e+01	-2.010724e+02
6.100000e-07	-2.721439e-06	-3.073610e-09	-3.900893e+01	-1.999898e+02
6.200000e-07	-2.682542e-06	-3.042632e-09	-3.845138e+01	-1.988766e+02
6.300000e-07	-2.643270e-06	-3.066725e-09	-3.788846e+01	-1.977311e+02
6.400000e-07	-2.603686e-06	-3.058560e-09	-3.732106e+01	-1.965519e+02
6.500000e-07	-2.563813e-06	-3.006116e-09	-3.674953e+01	-1.953378e+02
6.600000e-07	-2.523483e-06	-2.987023e-09	-3.617144e+01	-1.940880e+02
6.700000e-07	-2.482506e-06	-2.980064e-09	-3.558407e+01	-1.928018e+02
6.800000e-07	-2.440742e-06	-2.956809e-09	-3.498544e+01	-1.914792e+02
6.900000e-07	-2.398271e-06	-2.945274e-09	-3.437666e+01	-1.901203e+02
7.000000e-07	-2.355262e-06	-2.912926e-09	-3.376017e+01	-1.887256e+02
7.100000e-07	-2.311822e-06	-2.872218e-09	-3.313751e+01	-1.872957e+02
7.200000e-07	-2.268105e-06	-2.863343e-09	-3.251087e+01	-1.858314e+02
7.300000e-07	-2.224112e-06	-2.862111e-09	-3.188028e+01	-1.843334e+02
7.400000e-07	-2.179800e-06	-2.827156e-09	-3.124511e+01	-1.828025e+02
7.500000e-07	-2.135062e-06	-2.776885e-09	-3.060384e+01	-1.812392e+02
7.600000e-07	-2.089887e-06	-2.768061e-09	-2.995630e+01	-1.796436e+02
7.700000e-07	-2.044384e-06	-2.763861e-09	-2.930407e+01	-1.780157e+02
7.800000e-07	-1.998563e-06	-2.726569e-09	-2.864728e+01	-1.763548e+02
7.900000e-07	-1.952449e-06	-2.683722e-09	-2.798628e+01	-1.746600e+02
8.000000e-07	-1.905976e-06	-2.660116e-09	-2.732014e+01	-1.729298e+02
8.100000e-07	-1.859099e-06	-2.652997e-09	-2.664821e+01	-1.711624e+02
8.200000e-07	-1.811922e-06	-2.623366e-09	-2.597197e+01	-1.693554e+02
8.300000e-07	-1.764534e-06	-2.577407e-09	-2.529272e+01	-1.675064e+02
8.400000e-07	-1.717003e-06	-2.546785e-09	-2.461140e+01	-1.656127e+02
8.500000e-07	-1.669217e-06	-2.524859e-09	-2.392645e+01	-1.636712e+02
8.600000e-07	-1.621089e-06	-2.498695e-09	-2.323659e+01	-1.616791e+02
8.700000e-07	-1.572704e-06	-2.459811e-09	-2.254303e+01	-1.596335e+02
8.800000e-07	-1.523928e-06	-2.420137e-09	-2.184388e+01	-1.575315e+02
8.900000e-07	-1.474669e-06	-2.388691e-09	-2.113781e+01	-1.553706e+02
9.000000e-07	-1.425097e-06	-2.361929e-09	-2.042725e+01	-1.531482e+02
9.100000e-07	-1.375092e-06	-2.333586e-09	-1.971048e+01	-1.508620e+02
9.200000e-07	-1.324605e-06	-2.287008e-09	-1.898681e+01	-1.485100e+02
9.300000e-07	-1.273728e-06	-2.242689e-09	-1.825754e+01	-1.460900e+02
9.400000e-07	-1.222496e-06	-2.215277e-09	-1.752318e+01	-1.436002e+02
9.500000e-07	-1.171094e-06	-2.180766e-09	-1.678638e+01	-1.410384e+02
9.600000e-07	-1.119556e-06	-2.133576e-09	-1.604764e+01	-1.384026e+02
9.700000e-07	-1.067820e-06	-2.082937e-09	-1.530607e+01	-1.356903e+02
9.800000e-07	-1.015915e-06	-2.045729e-09	-1.456205e+01	-1.328989e+02
9.900000e-07	-9.638363e-07	-2.010353e-09	-1.381557e+01	-1.300253e+02
1.000000e-06	-9.115448e-07	-1.962430e-09	-1.306602e+01	-1.270660e+02
1.010000e-06	-8.590042e-07	-1.914103e-09	-1.231291e+01	-1.240170e+02
1.020000e-06	-8.061950e-07	-1.865890e-09	-1.155595e+01	-1.208739e+02
1.030000e-06	-7.532592e-07	-1.818487e-09	-1.079717e+01	-1.176317e+02
1.040000e-06	-7.002476e-07	-1.766675e-09	-1.003730e+01	-1.142852e+02
1.050000e-06	-6.470596e-07	-1.709830e-09	-9.274910e+00	-1.108288e+02
1.060000e-06	-5.937836e-07	-1.652626e-09	-8.511256e+00	-1.072567e+02
1.070000e-06	-5.404756e-07	-1.593869e-09	-7.747142e+00	-1.035631e+02
1.080000e-06	-4.870510e-07	-1.537849e-09	-6.981358e+00	-9.974221e+01
1.090000e-06	-4.335375e-07	-1.477062e-09	-6.214299e+00	-9.578865e+01
1.100000e-06	-3.799796e-07	-1.409566e-09	-5.446603e+00	-9.169742e+01
1.110000e-06	-3.263741e-07	-1.343244e-09	-4.678225e+00	-8.746414e+01
1.120000e-06	-2.727069e-07	-1.277425e-09	-3.908963e+00	-8.308522e+01
1.130000e-06	-2.190157e-07	-1.210412e-09	-3.139357e+00	-7.855800e+01
1.140000e-06	-1.653273e-07	-1.134938e-09	-2.369791e+00	-7.388086e+01
1.150000e-06	-1.116086e-07	-1.058226e-09	-1.599790e+00	-6.905334e+01
1.160000e-06	-5.787718e-08	-9.848717e-10	-8.296078e-01	-6.407623e+01
1.170000e-06	-4.181102e-09	-9.062250e-10	-5.993165e-02	-5.895160e+01
1.180000e-06	4.949074e-08	-8.245822e-10	7.093971e-01	-5.368285e+01
1.190000e-06	1.031691e-07	-7.397725e-10	1.478819e+00	-4.827472e+01
1.200000e-06	1.568228e-07	-6.539719e-10	2.247887e+00	-4.273323e+01
1.210000e-06	2.104359e-07	-5.661616e-10	3.016375e+00	-3.706571e+01
1.220000e-06	2.640437e-07	-4.752359e-10	3.784785e+00	-3.128069e+01
1.230000e-06	3.176090e-07	-3.862594e-10	4.552586e+00	-2.538786e+01
1.240000e-06	3.710960e-07	-2.943847e-10	5.319266e+00	-1.939797e+01
1.250000e-06	4.244767e-07	-2.017961e-10	6.084422e+00	-1.332276e+01
1.260000e-06	4.777491e-07	-1.090163e-10	6.848024e+00	-7.174863e+00
1.270000e-06	5.309538e-07	-1.344030e-11	7.610658e+00	-9.676611e-01
1.280000e-06	5.840628e-07	8.105057e-11	8.371918e+00	5.284781e+00
1.290000e-06	6.370342e-07	1.777380e-10	9.131207e+00	1.156786e+01
1.300000e-06	6.899298e-07	2.728030e-10	9.889409e+00	1.786656e+01
1.310000e-06	7.427218e-07	3.695549e-10	1.064613e+01	2.416558e+01
1.320000e-06	7.953173e-07	4.666886e-10	1.140003e+01	3.044949e+01
1.330000e-06	8.477701e-07	5.590883e-10	1.215188e+01	3.670284e+01
1.340000e-06	9.000806e-07	6.554773e-10	1.290170e+01	4.291038e+01
1.350000e-06	9.522427e-07	7.518038e-10	1.364939e+01	4.905716e+01
1.360000e-06	1.004233e-06	8.474575e-10	1.439461e+01	5.512876e+01
1.370000e-06	1.056019e-06	9.404244e-10	1.513691e+01	6.111138e+01
1.380000e-06	1.107616e-06	1.029908e-09	1.587650e+01	6.699207e+01
1.390000e-06	1.159043e-06	1.118812e-09	1.661365e+01	7.275885e+01
1.400000e-06	1.210318e-06	1.205413e-09	1.734862e+01	7.840088e+01
1.410000e-06	1.261382e-06	1.289729e-09	1.808057e+01	8.390855e+01
1.420000e-06	1.312184e-06	1.368664e-09	1.880875e+01	8.927363e+01
1.430000e-06	1.362679e-06	1.444494e-09	1.953256e+01	9.448933e+01
1.440000e-06	1.412714e-06	1.521936e-09	2.024975e+01	9.955036e+01
1.450000e-06	1.462259e-06	1.597205e-09	2.095993e+01	1.044529e+02
1.460000e-06	1.511367e-06	1.668451e-09	2.166384e+01	1.091948e+02
1.470000e-06	1.559978e-06	1.735674e-09	2.236062e+01	1.137751e+02
1.480000e-06	1.608141e-06	1.801001e-09	2.305099e+01	1.181945e+02
1.490000e-06	1.656056e-06	1.864774e-09	2.373779e+01	1.224547e+02
1.500000e-06	1.703807e-06	1.924058e-09	2.442226e+01	1.265586e+02
1.510000e-06	1.751395e-06	1.981654e-09	2.510438e+01	1.305103e+02
1.520000e-06	1.798759e-06	2.036767e-09	2.578330e+01	1.343144e+02
1.530000e-06	1.845833e-06	2.091795e-09	2.645806e+01	1.379761e+02
1.540000e-06	1.892554e-06	2.146024e-09	2.712775e+01	1.415012e+02
1.550000e-06	1.938877e-06	2.195359e-09	2.779174e+01	1.448957e+02
1.560000e-06	1.984780e-06	2.244004e-09	2.844971e+01	1.481655e+02
1.570000e-06	2.030329e-06	2.291824e-09	2.910260e+01	1.513165e+02
1.580000e-06	2.075575e-06	2.336810e-09	2.975116e+01	1.543545e+02
1.590000e-06	2.120474e-06	2.380492e-09	3.039474e+01	1.572849e+02
1.600000e-06	2.164979e-06	2.422674e-09	3.103267e+01	1.601124e+02
1.610000e-06	2.209088e-06	2.463734e-09	3.166493e+01	1.628418e+02
1.620000e-06	2.252927e-06	2.503405e-09	3.229331e+01	1.654770e+02
1.630000e-06	2.296551e-06	2.542241e-09	3.291861e+01	1.680215e+02
1.640000e-06	2.339964e-06	2.579054e-09	3.354089e+01	1.704786e+02
1.650000e-06	2.383077e-06	2.612953e-09	3.415887e+01	1.728509e+02
1.660000e-06	2.425668e-06	2.646842e-09	3.476937e+01	1.751410e+02
1.670000e-06	2.467529e-06	2.679565e-09	3.536940e+01	1.773510e+02
1.680000e-06	2.508504e-06	2.710973e-09	3.595674e+01	1.794831e+02
1.690000e-06	2.548806e-06	2.741727e-09	3.653442e+01	1.815393e+02
1.700000e-06	2.588724e-06	2.771644e-09	3.710661e+01	1.835214e+02
1.710000e-06	2.628321e-06	2.800883e-09	3.767418e+01	1.854317e+02
1.720000e-06	2.667643e-06	2.828384e-09	3.823783e+01	1.872723e+02
1.730000e-06	2.706624e-06	2.855563e-09	3.879657e+01	1.890456e+02
1.740000e-06	2.745117e-06	2.881469e-09	3.934833e+01	1.907541e+02
1.750000e-06	2.783113e-06	2.905718e-09	3.989297e+01	1.924005e+02
1.760000e-06	2.820643e-06	2.930670e-09	4.043091e+01	1.939877e+02
1.770000e-06	2.857717e-06	2.956151e-09	4.096233e+01	1.955186e+02
1.780000e-06	2.894331e-06	2.981513e-09	4.148716e+01	1.969964e+02
1.790000e-06	2.930455e-06	3.006343e-09	4.200495e+01	1.984240e+02
1.800000e-06	2.966219e-06	3.030238e-09	4.251759e+01	1.998047e+02
1.810000e-06	3.001688e-06	3.052652e-09	4.302601e+01	2.011413e+02
1.820000e-06	3.036683e-06	3.071926e-09	4.352761e+01	2.024368e+02
1.830000e-06	3.070989e-06	3.090126e-09	4.401936e+01	2.036936e+02
1.840000e-06	3.104487e-06	3.109470e-09	4.449951e+01	2.049142e+02
1.850000e-06	3.137134e-06	3.127826e-09	4.496748e+01	2.061005e+02
1.860000e-06	3.169089e-06	3.146144e-09	4.542552e+01	2.072544e+02
1.870000e-06	3.200649e-06	3.165079e-09	4.587790e+01	2.083770e+02
1.880000e-06	3.231836e-06	3.183811e-09	4.632492e+01	2.094694e+02
1.890000e-06	3.262490e-06	3.202169e-09	4.676432e+01	2.105323e+02
1.900000e-06	3.292597e-06	3.220091e-09	4.719588e+01	2.115659e+02
1.910000e-06	3.322101e-06	3.237447e-09	4.761878e+01	2.125703e+02
1.920000e-06	3.350947e-06	3.252948e-09	4.803226e+01	2.135455e+02
1.930000e-06	3.379216e-06	3.267457e-09	4.843746e+01	2.144909e+02
1.940000e-06	3.407068e-06	3.281754e-09	4.883669e+01	2.154063e+02
1.950000e-06	3.434563e-06	3.296040e-09	4.923081e+01	2.162912e+02
1.960000e-06	3.461541e-06	3.310258e-09	4.961750e+01	2.171450e+02
1.970000e-06	3.487726e-06	3.323836e-09	4.999284e+01	2.179676e+02
1.980000e-06	3.512925e-06	3.338592e-09	5.035404e+01	2.187588e+02
1.990000e-06	3.537172e-06	3.352751e-09	5.070159e+01	2.195186e+02
2.000000e-06	3.560814e-06	3.363206e-09	5.104048e+01	2.202472e+02
2.010000e-06	3.584016e-06	3.373290e-09	5.137306e+01	2.209452e+02
2.020000e-06	3.606605e-06	3.385664e-09	5.169684e+01	2.216134e+02
2.030000e-06	3.628517e-06	3.396757e-09	5.201093e+01	2.222528e+02
2.040000e-06	3.649899e-06	3.406141e-09	5.231742e+01	2.228647e+02
2.050000e-06	3.670721e-06	3.415677e-09	5.261588e+01	2.234506e+02
2.060000e-06	3.690845e-06	3.423571e-09	5.290433e+01	2.240120e+02
2.070000e-06	3.710503e-06	3.431671e-09	5.318611e+01	2.245505e+02
2.080000e-06	3.729799e-06	3.441271e-09	5.346269e+01	2.250678e+02
2.090000e-06	3.748456e-06	3.450129e-09	5.373013e+01	2.255655e+02
2.100000e-06	3.766361e-06	3.458978e-09	5.398677e+01	2.260449e+02
2.110000e-06	3.783611e-06	3.468761e-09	5.423404e+01	2.265072e+02
2.120000e-06	3.800289e-06	3.477240e-09	5.447310e+01	2.269535e+02
2.130000e-06	3.816339e-06	3.483662e-09	5.470316e+01	2.273842e+02
2.140000e-06	3.831647e-06	3.489271e-09	5.492258e+01	2.277997e+02
2.150000e-06	3.846076e-06	3.495077e-09	5.512941e+01	2.281998e+02
2.160000e-06	3.859706e-06	3.502221e-09	5.532477e+01	2.285843e+02
2.170000e-06	3.872657e-06	3.508738e-09	5.551042e+01	2.289524e+02
2.180000e-06	3.884867e-06	3.514127e-09	5.568543e+01	2.293032e+02
2.190000e-06	3.896386e-06	3.520680e-09	5.585054e+01	2.296356e+02
2.200000e-06	3.907157e-06	3.528373e-09	5.600494e+01	2.299483e+02
2.210000e-06	3.916959e-06	3.534042e-09	5.614544e+01	2.302403e+02
2.220000e-06	3.925756e-06	3.536824e-09	5.627153e+01	2.305104e+02
2.230000e-06	3.933773e-06	3.540790e-09	5.638645e+01	2.307577e+02
2.240000e-06	3.941256e-06	3.544439e-09	5.649371e+01	2.309817e+02
2.250000e-06	3.948201e-06	3.545543e-09	5.659326e+01	2.311820e+02
2.260000e-06	3.954433e-06	3.546030e-09	5.668259e+01	2.313587e+02
2.270000e-06	3.959935e-06	3.546952e-09	5.676146e+01	2.315123e+02
2.280000e-06	3.964750e-06	3.549976e-09	5.683047e+01	2.316438e+02
2.290000e-06	3.968891e-06	3.553758e-09	5.688983e+01	2.317545e+02
2.300000e-06	3.972486e-06	3.557334e-09	5.694135e+01	2.318458e+02
2.310000e-06	3.975586e-06	3.561216e-09	5.698580e+01	2.319197e+02
2.320000e-06	3.977909e-06	3.564727e-09	5.701909e+01	2.319782e+02
2.330000e-06	3.979156e-06	3.568791e-09	5.703697e+01	2.320230e+02
2.340000e-06	3.979472e-06	3.570117e-09	5.704150e+01	2.320562e+02
2.350000e-06	3.979197e-06	3.570890e-09	5.703755e+01	2.320791e+02
2.360000e-06	3.978412e-06	3.571977e-09	5.702630e+01	2.320929e+02
2.370000e-06	3.976964e-06	3.571143e-09	5.700555e+01	2.320983e+02
2.380000e-06	3.974884e-06	3.569513e-09	5.697572e+01	2.320954e+02
2.390000e-06	3.972194e-06	3.569459e-09	5.693717e+01	2.320835e+02
2.400000e-06	3.968789e-06	3.571382e-09	5.688836e+01	2.320614e+02
2.410000e-06	3.964798e-06	3.569803e-09	5.683116e+01	2.320273e+02
2.420000e-06	3.960432e-06	3.579608e-09	5.676857e+01	2.319787e+02
2.430000e-06	3.955566e-06	3.596391e-09	5.669882e+01	2.319125e+02
2.440000e-06	3.949736e-06	3.533909e-09	5.661526e+01	2.318256e+02
2.450000e-06	3.942585e-06	3.457647e-09	5.651276e+01	2.317145e+02
2.460000e-06	3.934388e-06	3.598067e-09	5.639526e+01	2.315755e+02
2.470000e-06	3.925872e-06	3.670422e-09	5.627320e+01	2.314054e+02
2.480000e-06	3.917185e-06	3.576655e-09	5.614868e+01	2.312013e+02
2.490000e-06	3.907661e-06	3.420352e-09	5.601216e+01	2.309606e+02
2.500000e-06	3.897057e-06	3.537698e-09	5.586016e+01	2.306818e+02
2.510000e-06	3.886157e-06	3.537190e-09	5.570393e+01	2.303638e+02
2.520000e-06	3.875028e-06	3.474308e-09	5.554441e+01	2.300066e+02
2.530000e-06	3.862682e-06	3.572417e-09	5.536744e+01	2.296114e+02
2.540000e-06	3.849125e-06	3.457442e-09	5.517311e+01	2.291799e+02
2.550000e-06	3.835345e-06	3.386860e-09	5.497559e+01	2.287150e+02
2.560000e-06	3.820988e-06	3.572214e-09	5.476979e+01	2.282203e+02
2.570000e-06	3.805273e-06	3.667187e-09	5.454454e+01	2.277000e+02
2.580000e-06	3.788805e-06	3.266691e-09	5.430849e+01	2.271586e+02
2.590000e-06	3.771958e-06	3.297604e-09	5.406701e+01	2.266012e+02
2.600000e-06	3.754392e-06	3.618595e-09	5.381521e+01	2.260327e+02
2.610000e-06	3.736069e-06	3.391140e-09	5.355258e+01	2.254578e+02
2.620000e-06	3.717094e-06	3.185428e-09	5.328059e+01	2.248807e+02
2.630000e-06	3.697486e-06	3.438784e-09	5.299953e+01	2.243053e+02
2.640000e-06	3.677366e-06	3.473540e-09	5.271113e+01	2.237343e+02
2.650000e-06	3.656760e-06	3.280267e-09	5.241577e+01	2.231698e+02
2.660000e-06	3.635607e-06	3.406432e-09	5.211255e+01	2.226130e+02
2.670000e-06	3.613690e-06	3.424263e-09	5.179841e+01	2.220639e+02
2.680000e-06	3.590635e-06	3.265099e-09	5.146793e+01	2.215217e+02
2.690000e-06	3.566671e-06	3.342517e-09	5.112443e+01	2.209847e+02
2.700000e-06	3.542265e-06	3.425347e-09	5.077460e+01	2.204504e+02
2.710000e-06	3.517207e-06	3.374016e-09	5.041542e+01	2.199157e+02
2.720000e-06	3.491426e-06	3.221578e-09	5.004588e+01	2.193771e+02
2.730000e-06	3.465260e-06	3.256506e-09	4.967081e+01	2.188309e+02
2.740000e-06	3.438573e-06	3.470861e-09	4.928829e+01	2.182734e+02
2.750000e-06	3.411079e-06	3.311182e-09	4.889418e+01	2.177010e+02
2.760000e-06	3.383039e-06	3.132865e-09	4.849226e+01	2.171102e+02
2.770000e-06	3.354728e-06	3.326828e-09	4.808645e+01	2.164983e+02
2.780000e-06	3.325962e-06	3.359623e-09	4.767413e+01	2.158628e+02
2.790000e-06	3.296405e-06	3.211570e-09	4.725046e+01	2.152021e+02
2.800000e-06	3.266030e-06	3.224452e-09	4.681506e+01	2.145150e+02
2.810000e-06	3.234909e-06	3.260276e-09	4.636897e+01	2.138009e+02
2.820000e-06	3.203100e-06	3.241187e-09	4.591303e+01	2.130598e+02
2.830000e-06	3.170839e-06	3.212295e-09	4.545060e+01	2.122920e+02
2.840000e-06	3.138205e-06	3.210530e-09	4.498283e+01	2.114982e+02
2.850000e-06	3.105026e-06	3.208138e-09	4.450724e+01	2.106793e+02
2.860000e-06	3.071229e-06	3.165923e-09	4.402280e+01	2.098363e+02
2.870000e-06	3.036993e-06	3.164587e-09	4.353207e+01	2.089699e+02
2.880000e-06	3.002330e-06	3.193666e-09	4.303520e+01	2.080807e+02
2.890000e-06	2.967063e-06	3.143974e-09	4.252970e+01	2.071693e+02
2.900000e-06	2.931232e-06	3.091667e-09	4.201609e+01	2.062355e+02
2.910000e-06	2.895079e-06	3.129509e-09	4.149787e+01	2.052790e+02
2.920000e-06	2.858689e-06	3.139381e-09	4.097626e+01	2.042991e+02
2.930000e-06	2.821857e-06	3.070461e-09	4.044832e+01	2.032946e+02
2.940000e-06	2.784326e-06	3.038118e-09	3.991035e+01	2.022642e+02
2.950000e-06	2.745954e-06	3.080792e-09	3.936032e+01	2.012064e+02
