# Temperatura_=_20.0
# Concentracion g/m^3_=_9000.0
# C_Vs_to_Am_M_A/Vsm_=_65563218390.804596
# pendiente_HvsI_1/m_=_3716.3
# ordenada_HvsI_A/m_=_1297.0
# frecuencia_Hz_=_212898.92898662834

Tiempo_(s)	Campo_(V.s)	Magnetizacion_(V.s)	Campo_(kA/m)	Magnetizacion_(A/m)
0.000000e+00	-3.961191e-06	-3.438789e-09	-5.696529e+01	-2.309273e+02
1.000000e-08	-3.961267e-06	-3.441563e-09	-5.696638e+01	-2.310008e+02
2.000000e-08	-3.960721e-06	-3.442261e-09	-5.695853e+01	-2.310424e+02
3.000000e-08	-3.959364e-06	-3.438573e-09	-5.693901e+01	-2.310467e+02
4.000000e-08	-3.957149e-06	-3.437734e-09	-5.690717e+01	-2.310094e+02
5.000000e-08	-3.954138e-06	-3.437763e-09	-5.686386e+01	-2.309277e+02
6.000000e-08	-3.950454e-06	-3.438402e-09	-5.681089e+01	-2.308010e+02
7.000000e-08	-3.946162e-06	-3.451264e-09	-5.674916e+01	-2.306308e+02
8.000000e-08	-3.941219e-06	-3.464117e-09	-5.667808e+01	-2.304210e+02
9.000000e-08	-3.935572e-06	-3.426737e-09	-5.659686e+01	-2.301773e+02
1.000000e-07	-3.929157e-06	-3.332617e-09	-5.650461e+01	-2.299076e+02
1.100000e-07	-3.922043e-06	-3.348838e-09	-5.640232e+01	-2.296210e+02
1.200000e-07	-3.914386e-06	-3.529342e-09	-5.629220e+01	-2.293277e+02
1.300000e-07	-3.906201e-06	-3.557942e-09	-5.617448e+01	-2.290381e+02
1.400000e-07	-3.897355e-06	-3.373476e-09	-5.604728e+01	-2.287626e+02
1.500000e-07	-3.887683e-06	-3.294439e-09	-5.590819e+01	-2.285103e+02
1.600000e-07	-3.877152e-06	-3.482548e-09	-5.575674e+01	-2.282890e+02
1.700000e-07	-3.865648e-06	-3.507889e-09	-5.559130e+01	-2.281044e+02
1.800000e-07	-3.853288e-06	-3.469649e-09	-5.541355e+01	-2.279599e+02
1.900000e-07	-3.840329e-06	-3.466002e-09	-5.522719e+01	-2.278558e+02
2.000000e-07	-3.826577e-06	-3.346547e-09	-5.502943e+01	-2.277900e+02
2.100000e-07	-3.811753e-06	-3.417684e-09	-5.481625e+01	-2.277575e+02
2.200000e-07	-3.796079e-06	-3.641985e-09	-5.459084e+01	-2.277507e+02
2.300000e-07	-3.779823e-06	-3.568798e-09	-5.435707e+01	-2.277601e+02
2.400000e-07	-3.762864e-06	-3.278496e-09	-5.411318e+01	-2.277745e+02
2.500000e-07	-3.745231e-06	-3.498257e-09	-5.385960e+01	-2.277816e+02
2.600000e-07	-3.727008e-06	-3.768229e-09	-5.359754e+01	-2.277692e+02
2.700000e-07	-3.708190e-06	-3.543184e-09	-5.332692e+01	-2.277249e+02
2.800000e-07	-3.688829e-06	-3.347374e-09	-5.304849e+01	-2.276377e+02
2.900000e-07	-3.668970e-06	-3.528827e-09	-5.276291e+01	-2.274981e+02
3.000000e-07	-3.648529e-06	-3.652733e-09	-5.246895e+01	-2.272985e+02
3.100000e-07	-3.627465e-06	-3.561446e-09	-5.216603e+01	-2.270339e+02
3.200000e-07	-3.605760e-06	-3.520002e-09	-5.185389e+01	-2.267016e+02
3.300000e-07	-3.583431e-06	-3.490488e-09	-5.153278e+01	-2.263017e+02
3.400000e-07	-3.560536e-06	-3.476988e-09	-5.120354e+01	-2.258365e+02
3.500000e-07	-3.537039e-06	-3.534865e-09	-5.086563e+01	-2.253108e+02
3.600000e-07	-3.513022e-06	-3.581925e-09	-5.052024e+01	-2.247309e+02
3.700000e-07	-3.488369e-06	-3.468828e-09	-5.016571e+01	-2.241043e+02
3.800000e-07	-3.462819e-06	-3.342504e-09	-4.979827e+01	-2.234395e+02
3.900000e-07	-3.436370e-06	-3.484800e-09	-4.941792e+01	-2.227448e+02
4.000000e-07	-3.409210e-06	-3.631449e-09	-4.902734e+01	-2.220284e+02
4.100000e-07	-3.381519e-06	-3.405627e-09	-4.862911e+01	-2.212975e+02
4.200000e-07	-3.353275e-06	-3.269095e-09	-4.822295e+01	-2.205581e+02
4.300000e-07	-3.324472e-06	-3.501214e-09	-4.780873e+01	-2.198143e+02
4.400000e-07	-3.295211e-06	-3.541382e-09	-4.738793e+01	-2.190688e+02
4.500000e-07	-3.265442e-06	-3.332640e-09	-4.695983e+01	-2.183224e+02
4.600000e-07	-3.235076e-06	-3.315764e-09	-4.652314e+01	-2.175741e+02
4.700000e-07	-3.204169e-06	-3.425893e-09	-4.607867e+01	-2.168213e+02
4.800000e-07	-3.172804e-06	-3.403901e-09	-4.562761e+01	-2.160602e+02
4.900000e-07	-3.141076e-06	-3.340449e-09	-4.517134e+01	-2.152864e+02
5.000000e-07	-3.108984e-06	-3.331597e-09	-4.470983e+01	-2.144945e+02
5.100000e-07	-3.076285e-06	-3.314055e-09	-4.423959e+01	-2.136794e+02
5.200000e-07	-3.042765e-06	-3.311960e-09	-4.375755e+01	-2.128360e+02
5.300000e-07	-3.008390e-06	-3.327800e-09	-4.326320e+01	-2.119600e+02
5.400000e-07	-2.973336e-06	-3.288751e-09	-4.275910e+01	-2.110478e+02
5.500000e-07	-2.937843e-06	-3.230344e-09	-4.224868e+01	-2.100970e+02
5.600000e-07	-2.901979e-06	-3.231637e-09	-4.173292e+01	-2.091063e+02
5.700000e-07	-2.865706e-06	-3.277636e-09	-4.121129e+01	-2.080754e+02
5.800000e-07	-2.828954e-06	-3.250647e-09	-4.068276e+01	-2.070051e+02
5.900000e-07	-2.791705e-06	-3.155056e-09	-4.014709e+01	-2.058972e+02
6.000000e-07	-2.753890e-06	-3.149966e-09	-3.960328e+01	-2.047538e+02
6.100000e-07	-2.715531e-06	-3.211079e-09	-3.905164e+01	-2.035776e+02
6.200000e-07	-2.676731e-06	-3.178876e-09	-3.849367e+01	-2.023713e+02
6.300000e-07	-2.637529e-06	-3.085437e-09	-3.792991e+01	-2.011374e+02
6.400000e-07	-2.598007e-06	-3.084944e-09	-3.736154e+01	-1.998780e+02
6.500000e-07	-2.558148e-06	-3.126308e-09	-3.678834e+01	-1.985947e+02
6.600000e-07	-2.517869e-06	-3.086304e-09	-3.620910e+01	-1.972882e+02
6.700000e-07	-2.477147e-06	-3.031232e-09	-3.562348e+01	-1.959586e+02
6.800000e-07	-2.435803e-06	-3.020003e-09	-3.502892e+01	-1.946052e+02
6.900000e-07	-2.393698e-06	-3.008878e-09	-3.442341e+01	-1.932264e+02
7.000000e-07	-2.350918e-06	-2.989574e-09	-3.380820e+01	-1.918203e+02
7.100000e-07	-2.307622e-06	-2.969289e-09	-3.318556e+01	-1.903846e+02
7.200000e-07	-2.264022e-06	-2.930657e-09	-3.255856e+01	-1.889167e+02
7.300000e-07	-2.220139e-06	-2.889648e-09	-3.192748e+01	-1.874141e+02
7.400000e-07	-2.175930e-06	-2.886840e-09	-3.129172e+01	-1.858742e+02
7.500000e-07	-2.131400e-06	-2.881916e-09	-3.065135e+01	-1.842951e+02
7.600000e-07	-2.086506e-06	-2.829841e-09	-3.000572e+01	-1.826751e+02
7.700000e-07	-2.041240e-06	-2.786532e-09	-2.935477e+01	-1.810129e+02
7.800000e-07	-1.995600e-06	-2.786329e-09	-2.869843e+01	-1.793079e+02
7.900000e-07	-1.949617e-06	-2.780155e-09	-2.803714e+01	-1.775597e+02
8.000000e-07	-1.903270e-06	-2.728397e-09	-2.737064e+01	-1.757684e+02
8.100000e-07	-1.856566e-06	-2.677016e-09	-2.669900e+01	-1.739341e+02
8.200000e-07	-1.809581e-06	-2.669737e-09	-2.602331e+01	-1.720570e+02
8.300000e-07	-1.762312e-06	-2.659658e-09	-2.534354e+01	-1.701372e+02
8.400000e-07	-1.714818e-06	-2.612560e-09	-2.466054e+01	-1.681744e+02
8.500000e-07	-1.667132e-06	-2.563818e-09	-2.397477e+01	-1.661679e+02
8.600000e-07	-1.619156e-06	-2.539397e-09	-2.328484e+01	-1.641165e+02
8.700000e-07	-1.570877e-06	-2.518723e-09	-2.259054e+01	-1.620182e+02
8.800000e-07	-1.522254e-06	-2.482433e-09	-2.189131e+01	-1.598706e+02
8.900000e-07	-1.473280e-06	-2.442426e-09	-2.118702e+01	-1.576708e+02
9.000000e-07	-1.423971e-06	-2.404022e-09	-2.047791e+01	-1.554151e+02
9.100000e-07	-1.374278e-06	-2.369000e-09	-1.976328e+01	-1.530998e+02
9.200000e-07	-1.324187e-06	-2.341355e-09	-1.904293e+01	-1.507207e+02
9.300000e-07	-1.273625e-06	-2.301289e-09	-1.831581e+01	-1.482737e+02
9.400000e-07	-1.222648e-06	-2.248572e-09	-1.758272e+01	-1.457549e+02
9.500000e-07	-1.171468e-06	-2.207183e-09	-1.684670e+01	-1.431604e+02
9.600000e-07	-1.120126e-06	-2.178012e-09	-1.610837e+01	-1.404867e+02
9.700000e-07	-1.068539e-06	-2.137142e-09	-1.536650e+01	-1.377309e+02
9.800000e-07	-1.016778e-06	-2.078633e-09	-1.462213e+01	-1.348902e+02
9.900000e-07	-9.648603e-07	-2.031251e-09	-1.387551e+01	-1.319623e+02
1.000000e-06	-9.127269e-07	-1.996521e-09	-1.312579e+01	-1.289450e+02
1.010000e-06	-8.604202e-07	-1.951522e-09	-1.237357e+01	-1.258364e+02
1.020000e-06	-8.079100e-07	-1.894569e-09	-1.161843e+01	-1.226344e+02
1.030000e-06	-7.552014e-07	-1.839000e-09	-1.086044e+01	-1.193367e+02
1.040000e-06	-7.023930e-07	-1.790512e-09	-1.010101e+01	-1.159408e+02
1.050000e-06	-6.494557e-07	-1.737305e-09	-9.339725e+00	-1.124434e+02
1.060000e-06	-5.963968e-07	-1.677529e-09	-8.576692e+00	-1.088407e+02
1.070000e-06	-5.432669e-07	-1.617740e-09	-7.812639e+00	-1.051283e+02
1.080000e-06	-4.900434e-07	-1.557481e-09	-7.047241e+00	-1.013011e+02
1.090000e-06	-4.367357e-07	-1.498052e-09	-6.280630e+00	-9.735340e+01
1.100000e-06	-3.833557e-07	-1.437257e-09	-5.512980e+00	-9.327926e+01
1.110000e-06	-3.299059e-07	-1.370851e-09	-4.744327e+00	-8.907252e+01
1.120000e-06	-2.763913e-07	-1.298662e-09	-3.974742e+00	-8.472723e+01
1.130000e-06	-2.228479e-07	-1.227504e-09	-3.204743e+00	-8.023792e+01
1.140000e-06	-1.692523e-07	-1.159356e-09	-2.433992e+00	-7.559999e+01
1.150000e-06	-1.156517e-07	-1.082124e-09	-1.663169e+00	-7.081008e+01
1.160000e-06	-6.212914e-08	-9.996090e-10	-8.934698e-01	-6.586636e+01
1.170000e-06	-8.577980e-09	-9.237317e-10	-1.233586e-01	-6.076884e+01
1.180000e-06	4.501256e-08	-8.488739e-10	6.473189e-01	-5.551960e+01
1.190000e-06	9.856737e-08	-7.653311e-10	1.417483e+00	-5.012291e+01
1.200000e-06	1.520684e-07	-6.756758e-10	2.186873e+00	-4.458532e+01
1.210000e-06	2.055290e-07	-5.896771e-10	2.955682e+00	-3.891554e+01
1.220000e-06	2.589694e-07	-5.026759e-10	3.724200e+00	-3.312437e+01
1.230000e-06	3.123328e-07	-4.103600e-10	4.491611e+00	-2.722445e+01
1.240000e-06	3.656499e-07	-3.170615e-10	5.258356e+00	-2.122994e+01
1.250000e-06	4.189648e-07	-2.232291e-10	6.025069e+00	-1.515619e+01
1.260000e-06	4.722350e-07	-1.300084e-10	6.791141e+00	-9.019338e+00
1.270000e-06	5.253835e-07	-3.759498e-11	7.555461e+00	-2.835932e+00
1.280000e-06	5.783798e-07	5.670228e-11	8.317593e+00	3.377463e+00
1.290000e-06	6.312189e-07	1.528991e-10	9.077465e+00	9.604606e+00
1.300000e-06	6.838745e-07	2.485943e-10	9.834696e+00	1.582988e+01
1.310000e-06	7.363797e-07	3.411331e-10	1.058977e+01	2.203850e+01
1.320000e-06	7.888124e-07	4.364698e-10	1.134379e+01	2.821669e+01
1.330000e-06	8.411312e-07	5.338802e-10	1.209618e+01	3.435173e+01
1.340000e-06	8.932576e-07	6.277115e-10	1.284580e+01	4.043199e+01
1.350000e-06	9.451982e-07	7.193875e-10	1.359275e+01	4.644684e+01
1.360000e-06	9.969882e-07	8.106380e-10	1.433754e+01	5.238654e+01
1.370000e-06	1.048621e-06	9.029536e-10	1.508007e+01	5.824212e+01
1.380000e-06	1.100083e-06	9.910113e-10	1.582013e+01	6.400523e+01
1.390000e-06	1.151359e-06	1.075681e-09	1.655752e+01	6.966795e+01
1.400000e-06	1.202412e-06	1.160985e-09	1.729170e+01	7.522272e+01
1.410000e-06	1.253205e-06	1.244335e-09	1.802216e+01	8.066225e+01
1.420000e-06	1.303667e-06	1.324971e-09	1.874784e+01	8.597944e+01
1.430000e-06	1.353754e-06	1.403691e-09	1.946813e+01	9.116750e+01
1.440000e-06	1.403389e-06	1.480210e-09	2.018192e+01	9.621996e+01
1.450000e-06	1.452603e-06	1.554393e-09	2.088966e+01	1.011308e+02
1.460000e-06	1.501459e-06	1.626050e-09	2.159226e+01	1.058947e+02
1.470000e-06	1.549961e-06	1.696582e-09	2.228975e+01	1.105072e+02
1.480000e-06	1.598116e-06	1.763786e-09	2.298227e+01	1.149648e+02
1.490000e-06	1.645953e-06	1.827514e-09	2.367021e+01	1.192653e+02
1.500000e-06	1.693585e-06	1.889364e-09	2.435520e+01	1.234079e+02
1.510000e-06	1.741048e-06	1.948555e-09	2.503775e+01	1.273933e+02
1.520000e-06	1.788268e-06	2.006053e-09	2.571682e+01	1.312237e+02
1.530000e-06	1.835212e-06	2.062362e-09	2.639191e+01	1.349030e+02
1.540000e-06	1.881811e-06	2.117658e-09	2.706204e+01	1.384363e+02
1.550000e-06	1.928031e-06	2.171176e-09	2.772673e+01	1.418299e+02
1.560000e-06	1.973879e-06	2.221735e-09	2.838606e+01	1.450912e+02
1.570000e-06	2.019390e-06	2.269890e-09	2.904054e+01	1.482282e+02
1.580000e-06	2.064572e-06	2.316302e-09	2.969030e+01	1.512494e+02
1.590000e-06	2.109370e-06	2.361319e-09	3.033453e+01	1.541628e+02
1.600000e-06	2.153780e-06	2.404627e-09	3.097319e+01	1.569767e+02
1.610000e-06	2.197850e-06	2.447019e-09	3.160694e+01	1.596981e+02
1.620000e-06	2.241682e-06	2.488407e-09	3.223728e+01	1.623335e+02
1.630000e-06	2.285307e-06	2.527484e-09	3.286466e+01	1.648881e+02
1.640000e-06	2.328628e-06	2.565278e-09	3.348765e+01	1.673659e+02
1.650000e-06	2.371481e-06	2.600807e-09	3.410391e+01	1.697698e+02
1.660000e-06	2.413752e-06	2.633844e-09	3.471180e+01	1.721014e+02
1.670000e-06	2.455343e-06	2.667239e-09	3.530991e+01	1.743614e+02
1.680000e-06	2.496269e-06	2.701386e-09	3.589847e+01	1.765497e+02
1.690000e-06	2.536649e-06	2.734070e-09	3.647917e+01	1.786658e+02
1.700000e-06	2.576594e-06	2.765296e-09	3.705361e+01	1.807090e+02
1.710000e-06	2.616225e-06	2.795368e-09	3.762353e+01	1.826786e+02
1.720000e-06	2.655515e-06	2.824486e-09	3.818856e+01	1.845745e+02
1.730000e-06	2.694373e-06	2.851937e-09	3.874737e+01	1.863972e+02
1.740000e-06	2.732801e-06	2.878492e-09	3.930000e+01	1.881480e+02
1.750000e-06	2.770788e-06	2.904422e-09	3.984628e+01	1.898291e+02
1.760000e-06	2.808280e-06	2.929597e-09	4.038545e+01	1.914437e+02
1.770000e-06	2.845226e-06	2.956538e-09	4.091676e+01	1.929959e+02
1.780000e-06	2.881673e-06	2.984243e-09	4.144090e+01	1.944905e+02
1.790000e-06	2.917754e-06	3.009881e-09	4.195978e+01	1.959329e+02
1.800000e-06	2.953488e-06	3.034057e-09	4.247366e+01	1.973285e+02
1.810000e-06	2.988821e-06	3.058111e-09	4.298179e+01	1.986830e+02
1.820000e-06	3.023677e-06	3.080517e-09	4.348305e+01	2.000013e+02
1.830000e-06	3.057886e-06	3.101265e-09	4.397500e+01	2.012882e+02
1.840000e-06	3.091257e-06	3.120624e-09	4.445490e+01	2.025472e+02
1.850000e-06	3.123839e-06	3.139499e-09	4.492345e+01	2.037808e+02
1.860000e-06	3.155849e-06	3.161055e-09	4.538379e+01	2.049905e+02
1.870000e-06	3.187408e-06	3.182738e-09	4.583763e+01	2.061765e+02
1.880000e-06	3.218501e-06	3.201608e-09	4.628478e+01	2.073380e+02
1.890000e-06	3.249089e-06	3.220869e-09	4.672466e+01	2.084731e+02
1.900000e-06	3.279130e-06	3.240485e-09	4.715667e+01	2.095793e+02
1.910000e-06	3.308587e-06	3.258039e-09	4.758030e+01	2.106538e+02
1.920000e-06	3.337472e-06	3.273760e-09	4.799569e+01	2.116933e+02
1.930000e-06	3.365836e-06	3.288870e-09	4.840358e+01	2.126952e+02
1.940000e-06	3.393774e-06	3.303828e-09	4.880535e+01	2.136570e+02
1.950000e-06	3.421257e-06	3.318621e-09	4.920058e+01	2.145771e+02
1.960000e-06	3.448103e-06	3.333477e-09	4.958665e+01	2.154550e+02
1.970000e-06	3.474083e-06	3.348233e-09	4.996026e+01	2.162912e+02
1.980000e-06	3.499168e-06	3.363342e-09	5.032101e+01	2.170871e+02
1.990000e-06	3.523520e-06	3.378667e-09	5.067120e+01	2.178454e+02
2.000000e-06	3.547266e-06	3.392101e-09	5.101270e+01	2.185694e+02
2.010000e-06	3.570432e-06	3.402918e-09	5.134585e+01	2.192634e+02
2.020000e-06	3.593055e-06	3.414431e-09	5.167119e+01	2.199317e+02
2.030000e-06	3.615110e-06	3.427851e-09	5.198835e+01	2.205788e+02
2.040000e-06	3.636531e-06	3.440177e-09	5.229641e+01	2.212088e+02
2.050000e-06	3.657314e-06	3.450740e-09	5.259528e+01	2.218253e+02
2.060000e-06	3.677538e-06	3.461251e-09	5.288612e+01	2.224308e+02
2.070000e-06	3.697336e-06	3.471559e-09	5.317084e+01	2.230270e+02
2.080000e-06	3.716582e-06	3.482517e-09	5.344761e+01	2.236141e+02
2.090000e-06	3.735162e-06	3.494619e-09	5.371480e+01	2.241912e+02
2.100000e-06	3.753071e-06	3.505690e-09	5.397234e+01	2.247562e+02
2.110000e-06	3.770369e-06	3.515737e-09	5.422111e+01	2.253061e+02
2.120000e-06	3.787107e-06	3.524368e-09	5.446181e+01	2.258370e+02
2.130000e-06	3.803191e-06	3.531105e-09	5.469312e+01	2.263448e+02
2.140000e-06	3.818425e-06	3.537387e-09	5.491219e+01	2.268253e+02
2.150000e-06	3.832749e-06	3.545501e-09	5.511819e+01	2.272745e+02
2.160000e-06	3.846354e-06	3.554516e-09	5.531383e+01	2.276891e+02
2.170000e-06	3.859316e-06	3.561410e-09	5.550024e+01	2.280669e+02
2.180000e-06	3.871614e-06	3.568427e-09	5.567710e+01	2.284069e+02
2.190000e-06	3.883188e-06	3.577369e-09	5.584354e+01	2.287094e+02
2.200000e-06	3.893890e-06	3.583746e-09	5.599745e+01	2.289759e+02
2.210000e-06	3.903623e-06	3.587381e-09	5.613742e+01	2.292096e+02
2.220000e-06	3.912430e-06	3.591454e-09	5.626407e+01	2.294145e+02
2.230000e-06	3.920498e-06	3.595837e-09	5.638009e+01	2.295955e+02
2.240000e-06	3.927981e-06	3.600307e-09	5.648771e+01	2.297580e+02
2.250000e-06	3.934879e-06	3.604479e-09	5.658691e+01	2.299074e+02
2.260000e-06	3.941133e-06	3.606901e-09	5.667684e+01	2.300490e+02
2.270000e-06	3.946694e-06	3.609173e-09	5.675681e+01	2.301869e+02
2.280000e-06	3.951562e-06	3.613718e-09	5.682681e+01	2.303244e+02
2.290000e-06	3.955811e-06	3.617787e-09	5.688792e+01	2.304632e+02
2.300000e-06	3.959533e-06	3.620715e-09	5.694145e+01	2.306034e+02
2.310000e-06	3.962594e-06	3.624606e-09	5.698547e+01	2.307436e+02
2.320000e-06	3.964767e-06	3.628044e-09	5.701671e+01	2.308804e+02
2.330000e-06	3.966009e-06	3.629796e-09	5.703458e+01	2.310094e+02
2.340000e-06	3.966490e-06	3.632003e-09	5.704150e+01	2.311250e+02
2.350000e-06	3.966346e-06	3.633547e-09	5.703942e+01	2.312206e+02
2.360000e-06	3.965551e-06	3.634808e-09	5.702800e+01	2.312898e+02
2.370000e-06	3.964131e-06	3.636084e-09	5.700758e+01	2.313263e+02
2.380000e-06	3.962067e-06	3.637497e-09	5.697788e+01	2.313248e+02
2.390000e-06	3.959373e-06	3.637660e-09	5.693914e+01	2.312810e+02
2.400000e-06	3.956079e-06	3.637758e-09	5.689178e+01	2.311926e+02
2.410000e-06	3.952265e-06	3.627721e-09	5.683693e+01	2.310594e+02
2.420000e-06	3.947982e-06	3.600238e-09	5.677533e+01	2.308831e+02
2.430000e-06	3.943022e-06	3.609713e-09	5.670400e+01	2.306679e+02
2.440000e-06	3.937052e-06	3.716627e-09	5.661815e+01	2.304199e+02
2.450000e-06	3.930004e-06	3.730698e-09	5.651679e+01	2.301472e+02
2.460000e-06	3.922172e-06	3.546686e-09	5.640416e+01	2.298590e+02
2.470000e-06	3.913874e-06	3.473002e-09	5.628483e+01	2.295657e+02
2.480000e-06	3.905098e-06	3.628766e-09	5.615863e+01	2.292778e+02
2.490000e-06	3.895574e-06	3.727961e-09	5.602166e+01	2.290052e+02
2.500000e-06	3.885378e-06	3.563226e-09	5.587503e+01	2.287573e+02
2.510000e-06	3.874710e-06	3.522120e-09	5.572162e+01	2.285413e+02
2.520000e-06	3.863282e-06	3.525725e-09	5.555728e+01	2.283627e+02
2.530000e-06	3.850914e-06	3.492307e-09	5.537942e+01	2.282244e+02
2.540000e-06	3.837848e-06	3.599628e-09	5.519152e+01	2.281264e+02
2.550000e-06	3.824084e-06	3.591776e-09	5.499358e+01	2.280661e+02
2.560000e-06	3.809460e-06	3.314350e-09	5.478327e+01	2.280381e+02
2.570000e-06	3.794039e-06	3.324947e-09	5.456150e+01	2.280345e+02
2.580000e-06	3.777923e-06	3.693416e-09	5.432974e+01	2.280456e+02
2.590000e-06	3.761108e-06	3.510475e-09	5.408792e+01	2.280598e+02
2.600000e-06	3.743608e-06	3.195676e-09	5.383626e+01	2.280649e+02
2.610000e-06	3.725381e-06	3.485499e-09	5.357415e+01	2.280485e+02
2.620000e-06	3.706475e-06	3.683916e-09	5.330226e+01	2.279986e+02
2.630000e-06	3.687026e-06	3.350165e-09	5.302257e+01	2.279043e+02
2.640000e-06	3.667010e-06	3.312059e-09	5.273473e+01	2.277562e+02
2.650000e-06	3.646442e-06	3.502424e-09	5.243894e+01	2.275473e+02
2.660000e-06	3.625280e-06	3.347886e-09	5.213460e+01	2.272727e+02
2.670000e-06	3.603283e-06	3.321029e-09	5.181828e+01	2.269303e+02
2.680000e-06	3.580373e-06	3.454169e-09	5.148880e+01	2.265205e+02
2.690000e-06	3.556708e-06	3.353938e-09	5.114848e+01	2.260461e+02
2.700000e-06	3.532391e-06	3.240116e-09	5.079878e+01	2.255120e+02
2.710000e-06	3.507414e-06	3.330859e-09	5.043959e+01	2.249246e+02
2.720000e-06	3.481909e-06	3.469226e-09	5.007280e+01	2.242919e+02
2.730000e-06	3.455915e-06	3.333080e-09	4.969899e+01	2.236221e+02
2.740000e-06	3.429269e-06	3.125031e-09	4.931580e+01	2.229239e+02
2.750000e-06	3.402006e-06	3.325347e-09	4.892373e+01	2.222050e+02
2.760000e-06	3.374231e-06	3.478544e-09	4.852430e+01	2.214726e+02
2.770000e-06	3.345989e-06	3.200747e-09	4.811817e+01	2.207324e+02
2.780000e-06	3.317173e-06	3.139530e-09	4.770377e+01	2.199884e+02
2.790000e-06	3.287611e-06	3.358705e-09	4.727864e+01	2.192429e+02
2.800000e-06	3.257287e-06	3.315576e-09	4.684255e+01	2.184964e+02
2.810000e-06	3.226231e-06	3.173255e-09	4.639594e+01	2.177477e+02
2.820000e-06	3.194550e-06	3.210656e-09	4.594034e+01	2.169940e+02
2.830000e-06	3.162422e-06	3.262829e-09	4.547832e+01	2.162315e+02
2.840000e-06	3.129884e-06	3.216127e-09	4.501040e+01	2.154554e+02
2.850000e-06	3.096802e-06	3.168847e-09	4.453465e+01	2.146605e+02
2.860000e-06	3.063198e-06	3.193748e-09	4.405139e+01	2.138416e+02
2.870000e-06	3.029129e-06	3.189115e-09	4.356145e+01	2.129937e+02
2.880000e-06	2.994544e-06	3.128947e-09	4.306408e+01	2.121125e+02
2.890000e-06	2.959412e-06	3.154017e-09	4.255886e+01	2.111948e+02
2.900000e-06	2.923802e-06	3.167704e-09	4.204675e+01	2.102382e+02
2.910000e-06	2.887786e-06	3.081496e-09	4.152882e+01	2.092416e+02
2.920000e-06	2.851373e-06	3.062612e-09	4.100516e+01	2.082049e+02
2.930000e-06	2.814575e-06	3.125415e-09	4.047597e+01	2.071290e+02
2.940000e-06	2.777167e-06	3.107008e-09	3.993802e+01	2.060157e+02
2.950000e-06	2.738950e-06	3.007589e-09	3.938843e+01	2.048673e+02
