# Temperatura_=_20.0
# Concentracion g/m^3_=_9000.0
# C_Vs_to_Am_M_A/Vsm_=_65563218390.804596
# pendiente_HvsI_1/m_=_3716.3
# ordenada_HvsI_A/m_=_1297.0
# frecuencia_Hz_=_212894.25575413948

Tiempo_(s)	Campo_(V.s)	Magnetizacion_(V.s)	Campo_(kA/m)	Magnetizacion_(A/m)
0.000000e+00	-3.975241e-06	-3.461568e-09	-5.697319e+01	-2.301936e+02
1.000000e-08	-3.975402e-06	-3.461964e-09	-5.697550e+01	-2.302352e+02
2.000000e-08	-3.974928e-06	-3.464628e-09	-5.696871e+01	-2.302686e+02
3.000000e-08	-3.973469e-06	-3.465593e-09	-5.694780e+01	-2.302928e+02
4.000000e-08	-3.971008e-06	-3.463503e-09	-5.691254e+01	-2.303063e+02
5.000000e-08	-3.967780e-06	-3.462786e-09	-5.686627e+01	-2.303068e+02
6.000000e-08	-3.964089e-06	-3.461991e-09	-5.681337e+01	-2.302914e+02
7.000000e-08	-3.959965e-06	-3.452634e-09	-5.675427e+01	-2.302566e+02
8.000000e-08	-3.955121e-06	-3.431916e-09	-5.668485e+01	-2.301987e+02
9.000000e-08	-3.949442e-06	-3.470287e-09	-5.660345e+01	-2.301138e+02
1.000000e-07	-3.942897e-06	-3.551107e-09	-5.650965e+01	-2.299980e+02
1.100000e-07	-3.935641e-06	-3.531753e-09	-5.640565e+01	-2.298477e+02
1.200000e-07	-3.928022e-06	-3.335496e-09	-5.629646e+01	-2.296596e+02
1.300000e-07	-3.919982e-06	-3.331878e-09	-5.618123e+01	-2.294312e+02
1.400000e-07	-3.911029e-06	-3.549182e-09	-5.605291e+01	-2.291608e+02
1.500000e-07	-3.901070e-06	-3.549946e-09	-5.591018e+01	-2.288475e+02
1.600000e-07	-3.890539e-06	-3.417949e-09	-5.575926e+01	-2.284915e+02
1.700000e-07	-3.879100e-06	-3.388725e-09	-5.559531e+01	-2.280940e+02
1.800000e-07	-3.866510e-06	-3.445034e-09	-5.541487e+01	-2.276574e+02
1.900000e-07	-3.853444e-06	-3.419995e-09	-5.522760e+01	-2.271848e+02
2.000000e-07	-3.839915e-06	-3.562805e-09	-5.503371e+01	-2.266804e+02
2.100000e-07	-3.824981e-06	-3.490592e-09	-5.481967e+01	-2.261489e+02
2.200000e-07	-3.808814e-06	-3.266894e-09	-5.458797e+01	-2.255956e+02
2.300000e-07	-3.792470e-06	-3.487602e-09	-5.435373e+01	-2.250259e+02
2.400000e-07	-3.775683e-06	-3.707534e-09	-5.411313e+01	-2.244453e+02
2.500000e-07	-3.758062e-06	-3.469604e-09	-5.386058e+01	-2.238590e+02
2.600000e-07	-3.739818e-06	-3.219197e-09	-5.359911e+01	-2.232717e+02
2.700000e-07	-3.720966e-06	-3.489163e-09	-5.332892e+01	-2.226876e+02
2.800000e-07	-3.701537e-06	-3.563440e-09	-5.305047e+01	-2.221100e+02
2.900000e-07	-3.681623e-06	-3.384100e-09	-5.276507e+01	-2.215410e+02
3.000000e-07	-3.661158e-06	-3.343754e-09	-5.247176e+01	-2.209819e+02
3.100000e-07	-3.639986e-06	-3.370642e-09	-5.216832e+01	-2.204330e+02
3.200000e-07	-3.618122e-06	-3.393074e-09	-5.185497e+01	-2.198935e+02
3.300000e-07	-3.595518e-06	-3.393326e-09	-5.153100e+01	-2.193615e+02
3.400000e-07	-3.572305e-06	-3.413486e-09	-5.119832e+01	-2.188347e+02
3.500000e-07	-3.548697e-06	-3.344133e-09	-5.085996e+01	-2.183097e+02
3.600000e-07	-3.524525e-06	-3.235050e-09	-5.051353e+01	-2.177830e+02
3.700000e-07	-3.499745e-06	-3.346992e-09	-5.015838e+01	-2.172508e+02
3.800000e-07	-3.474192e-06	-3.497130e-09	-4.979217e+01	-2.167090e+02
3.900000e-07	-3.447499e-06	-3.264666e-09	-4.940959e+01	-2.161539e+02
4.000000e-07	-3.420048e-06	-3.131251e-09	-4.901617e+01	-2.155821e+02
4.100000e-07	-3.392383e-06	-3.397470e-09	-4.861967e+01	-2.149905e+02
4.200000e-07	-3.364347e-06	-3.434301e-09	-4.821786e+01	-2.143766e+02
4.300000e-07	-3.335545e-06	-3.166959e-09	-4.780507e+01	-2.137387e+02
4.400000e-07	-3.306135e-06	-3.204403e-09	-4.738356e+01	-2.130755e+02
4.500000e-07	-3.276344e-06	-3.349459e-09	-4.695660e+01	-2.123864e+02
4.600000e-07	-3.245898e-06	-3.254068e-09	-4.652024e+01	-2.116714e+02
4.700000e-07	-3.214835e-06	-3.205578e-09	-4.607506e+01	-2.109309e+02
4.800000e-07	-3.183423e-06	-3.237721e-09	-4.562485e+01	-2.101656e+02
4.900000e-07	-3.151718e-06	-3.208089e-09	-4.517046e+01	-2.093767e+02
5.000000e-07	-3.119547e-06	-3.192467e-09	-4.470939e+01	-2.085651e+02
5.100000e-07	-3.086695e-06	-3.218673e-09	-4.423855e+01	-2.077319e+02
5.200000e-07	-3.052939e-06	-3.191124e-09	-4.375476e+01	-2.068781e+02
5.300000e-07	-3.018250e-06	-3.125244e-09	-4.325759e+01	-2.060043e+02
5.400000e-07	-2.982994e-06	-3.136684e-09	-4.275230e+01	-2.051108e+02
5.500000e-07	-2.947434e-06	-3.179657e-09	-4.224265e+01	-2.041975e+02
5.600000e-07	-2.911509e-06	-3.141064e-09	-4.172778e+01	-2.032641e+02
5.700000e-07	-2.875104e-06	-3.068531e-09	-4.120603e+01	-2.023098e+02
5.800000e-07	-2.838209e-06	-3.064506e-09	-4.067725e+01	-2.013333e+02
5.900000e-07	-2.800814e-06	-3.123809e-09	-4.014130e+01	-2.003335e+02
6.000000e-07	-2.762903e-06	-3.087819e-09	-3.959795e+01	-1.993086e+02
6.100000e-07	-2.724434e-06	-2.996338e-09	-3.904661e+01	-1.982571e+02
6.200000e-07	-2.685475e-06	-3.013689e-09	-3.848826e+01	-1.971773e+02
6.300000e-07	-2.646199e-06	-3.043739e-09	-3.792535e+01	-1.960676e+02
6.400000e-07	-2.606616e-06	-2.995518e-09	-3.735805e+01	-1.949265e+02
6.500000e-07	-2.566735e-06	-2.946640e-09	-3.678647e+01	-1.937530e+02
6.600000e-07	-2.526446e-06	-2.948553e-09	-3.620905e+01	-1.925459e+02
6.700000e-07	-2.485395e-06	-2.940899e-09	-3.562072e+01	-1.913047e+02
6.800000e-07	-2.443530e-06	-2.912045e-09	-3.502069e+01	-1.900288e+02
6.900000e-07	-2.401014e-06	-2.905584e-09	-3.441136e+01	-1.887181e+02
7.000000e-07	-2.357965e-06	-2.871000e-09	-3.379439e+01	-1.873726e+02
7.100000e-07	-2.314560e-06	-2.828921e-09	-3.317229e+01	-1.859922e+02
7.200000e-07	-2.270915e-06	-2.836720e-09	-3.254678e+01	-1.845772e+02
7.300000e-07	-2.227041e-06	-2.831430e-09	-3.191798e+01	-1.831276e+02
7.400000e-07	-2.182767e-06	-2.779250e-09	-3.128345e+01	-1.816435e+02
7.500000e-07	-2.137955e-06	-2.733677e-09	-3.064119e+01	-1.801247e+02
7.600000e-07	-2.092744e-06	-2.739557e-09	-2.999323e+01	-1.785708e+02
7.700000e-07	-2.047227e-06	-2.736535e-09	-2.934088e+01	-1.769811e+02
7.800000e-07	-2.001426e-06	-2.683083e-09	-2.868445e+01	-1.753549e+02
7.900000e-07	-1.955344e-06	-2.643226e-09	-2.802402e+01	-1.736907e+02
8.000000e-07	-1.908879e-06	-2.635487e-09	-2.735807e+01	-1.719872e+02
8.100000e-07	-1.862020e-06	-2.624010e-09	-2.668649e+01	-1.702426e+02
8.200000e-07	-1.814882e-06	-2.584500e-09	-2.601091e+01	-1.684550e+02
8.300000e-07	-1.767536e-06	-2.541136e-09	-2.533234e+01	-1.666222e+02
8.400000e-07	-1.719952e-06	-2.519750e-09	-2.465037e+01	-1.647422e+02
8.500000e-07	-1.672101e-06	-2.493601e-09	-2.396457e+01	-1.628125e+02
8.600000e-07	-1.624036e-06	-2.460839e-09	-2.327570e+01	-1.608310e+02
8.700000e-07	-1.575715e-06	-2.427095e-09	-2.258316e+01	-1.587955e+02
8.800000e-07	-1.526914e-06	-2.387754e-09	-2.188375e+01	-1.567037e+02
8.900000e-07	-1.477592e-06	-2.355519e-09	-2.117686e+01	-1.545536e+02
9.000000e-07	-1.427903e-06	-2.330128e-09	-2.046472e+01	-1.523431e+02
9.100000e-07	-1.377788e-06	-2.300654e-09	-1.974647e+01	-1.500702e+02
9.200000e-07	-1.327265e-06	-2.253567e-09	-1.902238e+01	-1.477330e+02
9.300000e-07	-1.276363e-06	-2.210455e-09	-1.829285e+01	-1.453294e+02
9.400000e-07	-1.225131e-06	-2.186620e-09	-1.755859e+01	-1.428573e+02
9.500000e-07	-1.173766e-06	-2.148203e-09	-1.682242e+01	-1.403145e+02
9.600000e-07	-1.122229e-06	-2.097204e-09	-1.608381e+01	-1.376984e+02
9.700000e-07	-1.070455e-06	-2.053186e-09	-1.534178e+01	-1.350063e+02
9.800000e-07	-1.018494e-06	-2.019592e-09	-1.459707e+01	-1.322351e+02
9.900000e-07	-9.664174e-07	-1.982725e-09	-1.385071e+01	-1.293815e+02
1.000000e-06	-9.141464e-07	-1.932179e-09	-1.310156e+01	-1.264416e+02
1.010000e-06	-8.615546e-07	-1.887720e-09	-1.234781e+01	-1.234112e+02
1.020000e-06	-8.087023e-07	-1.844306e-09	-1.159033e+01	-1.202859e+02
1.030000e-06	-7.557625e-07	-1.793735e-09	-1.083160e+01	-1.170608e+02
1.040000e-06	-7.027448e-07	-1.742095e-09	-1.007175e+01	-1.137309e+02
1.050000e-06	-6.495704e-07	-1.686847e-09	-9.309651e+00	-1.102910e+02
1.060000e-06	-5.962889e-07	-1.630079e-09	-8.546019e+00	-1.067356e+02
1.070000e-06	-5.429369e-07	-1.571962e-09	-7.781378e+00	-1.030595e+02
1.080000e-06	-4.895110e-07	-1.515880e-09	-7.015677e+00	-9.925759e+01
1.090000e-06	-4.360541e-07	-1.456386e-09	-6.249533e+00	-9.532490e+01
1.100000e-06	-3.825793e-07	-1.389420e-09	-5.483131e+00	-9.125693e+01
1.110000e-06	-3.290658e-07	-1.326996e-09	-4.716175e+00	-8.704971e+01
1.120000e-06	-2.754853e-07	-1.264678e-09	-3.948258e+00	-8.269989e+01
1.130000e-06	-2.218809e-07	-1.195175e-09	-3.180000e+00	-7.820488e+01
1.140000e-06	-1.682947e-07	-1.118757e-09	-2.412002e+00	-7.356298e+01
1.150000e-06	-1.146686e-07	-1.043390e-09	-1.643431e+00	-6.877347e+01
1.160000e-06	-6.096246e-08	-9.725081e-10	-8.737147e-01	-6.383669e+01
1.170000e-06	-7.238129e-09	-8.943034e-10	-1.037369e-01	-5.875414e+01
1.180000e-06	4.644881e-08	-8.123639e-10	6.657049e-01	-5.352854e+01
1.190000e-06	1.001482e-07	-7.314721e-10	1.435326e+00	-4.816388e+01
1.200000e-06	1.538474e-07	-6.490717e-10	2.204943e+00	-4.266545e+01
1.210000e-06	2.074791e-07	-5.635945e-10	2.973593e+00	-3.703984e+01
1.220000e-06	2.610629e-07	-4.730341e-10	3.741557e+00	-3.129500e+01
1.230000e-06	3.146368e-07	-3.830099e-10	4.509379e+00	-2.544013e+01
1.240000e-06	3.681240e-07	-2.917980e-10	5.275958e+00	-1.948572e+01
1.250000e-06	4.215065e-07	-1.991100e-10	6.041036e+00	-1.344344e+01
1.260000e-06	4.748601e-07	-1.072851e-10	6.805701e+00	-7.326033e+00
1.270000e-06	5.281914e-07	-8.692154e-12	7.570046e+00	-1.147276e+00
1.280000e-06	5.814120e-07	8.919077e-11	8.332803e+00	5.078215e+00
1.290000e-06	6.345074e-07	1.825289e-10	9.093768e+00	1.133511e+01
1.300000e-06	6.874464e-07	2.759334e-10	9.852489e+00	1.760755e+01
1.310000e-06	7.402695e-07	3.718236e-10	1.060955e+01	2.387932e+01
1.320000e-06	7.929527e-07	4.703086e-10	1.136461e+01	3.013407e+01
1.330000e-06	8.454571e-07	5.634996e-10	1.211710e+01	3.635552e+01
1.340000e-06	8.978348e-07	6.572774e-10	1.286778e+01	4.252765e+01
1.350000e-06	9.500190e-07	7.526689e-10	1.361568e+01	4.863498e+01
1.360000e-06	1.002034e-06	8.459628e-10	1.436116e+01	5.466270e+01
1.370000e-06	1.053902e-06	9.365891e-10	1.510454e+01	6.059695e+01
1.380000e-06	1.105605e-06	1.025171e-09	1.584554e+01	6.642491e+01
1.390000e-06	1.157089e-06	1.113356e-09	1.658341e+01	7.213503e+01
1.400000e-06	1.208327e-06	1.198821e-09	1.731776e+01	7.771713e+01
1.410000e-06	1.259331e-06	1.280784e-09	1.804875e+01	8.316246e+01
1.420000e-06	1.310123e-06	1.360325e-09	1.877669e+01	8.846383e+01
1.430000e-06	1.360674e-06	1.437593e-09	1.950119e+01	9.361558e+01
1.440000e-06	1.410834e-06	1.515028e-09	2.022008e+01	9.861361e+01
1.450000e-06	1.460357e-06	1.589616e-09	2.092985e+01	1.034553e+02
1.460000e-06	1.509368e-06	1.659717e-09	2.163227e+01	1.081394e+02
1.470000e-06	1.557964e-06	1.727526e-09	2.232876e+01	1.126661e+02
1.480000e-06	1.606160e-06	1.792511e-09	2.301951e+01	1.170367e+02
1.490000e-06	1.654094e-06	1.855426e-09	2.370649e+01	1.212535e+02
1.500000e-06	1.701799e-06	1.913910e-09	2.439021e+01	1.253197e+02
1.510000e-06	1.749349e-06	1.970760e-09	2.507169e+01	1.292393e+02
1.520000e-06	1.796691e-06	2.028178e-09	2.575020e+01	1.330168e+02
1.530000e-06	1.843791e-06	2.083581e-09	2.642523e+01	1.366571e+02
1.540000e-06	1.890583e-06	2.136375e-09	2.709585e+01	1.401652e+02
1.550000e-06	1.936931e-06	2.187203e-09	2.776011e+01	1.435464e+02
1.560000e-06	1.982871e-06	2.236951e-09	2.841853e+01	1.468059e+02
1.570000e-06	2.028479e-06	2.283834e-09	2.907218e+01	1.499488e+02
1.580000e-06	2.073766e-06	2.327640e-09	2.972123e+01	1.529799e+02
1.590000e-06	2.118716e-06	2.370455e-09	3.036546e+01	1.559040e+02
1.600000e-06	2.163272e-06	2.411718e-09	3.100404e+01	1.587254e+02
1.610000e-06	2.207452e-06	2.453227e-09	3.163723e+01	1.614481e+02
1.620000e-06	2.251327e-06	2.493150e-09	3.226604e+01	1.640759e+02
1.630000e-06	2.294978e-06	2.530555e-09	3.289166e+01	1.666122e+02
1.640000e-06	2.338415e-06	2.566992e-09	3.351419e+01	1.690603e+02
1.650000e-06	2.381565e-06	2.601701e-09	3.413261e+01	1.714232e+02
1.660000e-06	2.424299e-06	2.636067e-09	3.474508e+01	1.737035e+02
1.670000e-06	2.466346e-06	2.669396e-09	3.534770e+01	1.759040e+02
1.680000e-06	2.507524e-06	2.700431e-09	3.593787e+01	1.780272e+02
1.690000e-06	2.547953e-06	2.730993e-09	3.651729e+01	1.800755e+02
1.700000e-06	2.587860e-06	2.761232e-09	3.708923e+01	1.820514e+02
1.710000e-06	2.627485e-06	2.790515e-09	3.765714e+01	1.839574e+02
1.720000e-06	2.666877e-06	2.817938e-09	3.822171e+01	1.857959e+02
1.730000e-06	2.705873e-06	2.844300e-09	3.878061e+01	1.875693e+02
1.740000e-06	2.744436e-06	2.870725e-09	3.933330e+01	1.892803e+02
1.750000e-06	2.782532e-06	2.895489e-09	3.987928e+01	1.909314e+02
1.760000e-06	2.820119e-06	2.918968e-09	4.041799e+01	1.925253e+02
1.770000e-06	2.857201e-06	2.944203e-09	4.094944e+01	1.940646e+02
1.780000e-06	2.893752e-06	2.970947e-09	4.147328e+01	1.955520e+02
1.790000e-06	2.929818e-06	2.996779e-09	4.199019e+01	1.969900e+02
1.800000e-06	2.965543e-06	3.020483e-09	4.250219e+01	1.983812e+02
1.810000e-06	3.001030e-06	3.042273e-09	4.301080e+01	1.997281e+02
1.820000e-06	3.036164e-06	3.064172e-09	4.351434e+01	2.010330e+02
1.830000e-06	3.070658e-06	3.085157e-09	4.400870e+01	2.022981e+02
1.840000e-06	3.104223e-06	3.103381e-09	4.448976e+01	2.035254e+02
1.850000e-06	3.136813e-06	3.120341e-09	4.495684e+01	2.047165e+02
1.860000e-06	3.168733e-06	3.139583e-09	4.541432e+01	2.058731e+02
1.870000e-06	3.200309e-06	3.160040e-09	4.586686e+01	2.069963e+02
1.880000e-06	3.231539e-06	3.177902e-09	4.631445e+01	2.080871e+02
1.890000e-06	3.262190e-06	3.195368e-09	4.675374e+01	2.091464e+02
1.900000e-06	3.292226e-06	3.214640e-09	4.718422e+01	2.101744e+02
1.910000e-06	3.321773e-06	3.234213e-09	4.760770e+01	2.111715e+02
1.920000e-06	3.350744e-06	3.250121e-09	4.802290e+01	2.121377e+02
1.930000e-06	3.379102e-06	3.263614e-09	4.842932e+01	2.130730e+02
1.940000e-06	3.406985e-06	3.278355e-09	4.882895e+01	2.139771e+02
1.950000e-06	3.434482e-06	3.295025e-09	4.922303e+01	2.148498e+02
1.960000e-06	3.461458e-06	3.308911e-09	4.960966e+01	2.156909e+02
1.970000e-06	3.487634e-06	3.318762e-09	4.998481e+01	2.165004e+02
1.980000e-06	3.512824e-06	3.330419e-09	5.034584e+01	2.172781e+02
1.990000e-06	3.537075e-06	3.343836e-09	5.069341e+01	2.180242e+02
2.000000e-06	3.560698e-06	3.356975e-09	5.103196e+01	2.187392e+02
2.010000e-06	3.583870e-06	3.368120e-09	5.136407e+01	2.194238e+02
2.020000e-06	3.606493e-06	3.379348e-09	5.168830e+01	2.200787e+02
2.030000e-06	3.628498e-06	3.390890e-09	5.200368e+01	2.207051e+02
2.040000e-06	3.649944e-06	3.401471e-09	5.231104e+01	2.213043e+02
2.050000e-06	3.670759e-06	3.410983e-09	5.260936e+01	2.218779e+02
2.060000e-06	3.690902e-06	3.418958e-09	5.289806e+01	2.224275e+02
2.070000e-06	3.710610e-06	3.427486e-09	5.318050e+01	2.229547e+02
2.080000e-06	3.729928e-06	3.436067e-09	5.345738e+01	2.234614e+02
2.090000e-06	3.748616e-06	3.444814e-09	5.372520e+01	2.239489e+02
2.100000e-06	3.766536e-06	3.454031e-09	5.398203e+01	2.244187e+02
2.110000e-06	3.783728e-06	3.462953e-09	5.422844e+01	2.248721e+02
2.120000e-06	3.800349e-06	3.470618e-09	5.446664e+01	2.253098e+02
2.130000e-06	3.816434e-06	3.476979e-09	5.469717e+01	2.257325e+02
2.140000e-06	3.831680e-06	3.483526e-09	5.491568e+01	2.261403e+02
2.150000e-06	3.846004e-06	3.489567e-09	5.512097e+01	2.265331e+02
2.160000e-06	3.859619e-06	3.495790e-09	5.531610e+01	2.269104e+02
2.170000e-06	3.872531e-06	3.501644e-09	5.550116e+01	2.272714e+02
2.180000e-06	3.884759e-06	3.507555e-09	5.567642e+01	2.276153e+02
2.190000e-06	3.896387e-06	3.515108e-09	5.584307e+01	2.279409e+02
2.200000e-06	3.907270e-06	3.520478e-09	5.599903e+01	2.282471e+02
2.210000e-06	3.917102e-06	3.524228e-09	5.613995e+01	2.285329e+02
2.220000e-06	3.925830e-06	3.528916e-09	5.626505e+01	2.287974e+02
2.230000e-06	3.933812e-06	3.533751e-09	5.637944e+01	2.290400e+02
2.240000e-06	3.941296e-06	3.537591e-09	5.648670e+01	2.292605e+02
2.250000e-06	3.948198e-06	3.541129e-09	5.658562e+01	2.294589e+02
2.260000e-06	3.954377e-06	3.543974e-09	5.667418e+01	2.296356e+02
2.270000e-06	3.959900e-06	3.545107e-09	5.675333e+01	2.297918e+02
2.280000e-06	3.964764e-06	3.547048e-09	5.682304e+01	2.299285e+02
2.290000e-06	3.968961e-06	3.551502e-09	5.688319e+01	2.300475e+02
2.300000e-06	3.972678e-06	3.556065e-09	5.693647e+01	2.301504e+02
2.310000e-06	3.975848e-06	3.559128e-09	5.698190e+01	2.302393e+02
2.320000e-06	3.978257e-06	3.562431e-09	5.701642e+01	2.303159e+02
2.330000e-06	3.979654e-06	3.566686e-09	5.703645e+01	2.303819e+02
2.340000e-06	3.980007e-06	3.569280e-09	5.704150e+01	2.304387e+02
2.350000e-06	3.979726e-06	3.569967e-09	5.703748e+01	2.304871e+02
2.360000e-06	3.978977e-06	3.569844e-09	5.702674e+01	2.305276e+02
2.370000e-06	3.977552e-06	3.567322e-09	5.700633e+01	2.305598e+02
2.380000e-06	3.975436e-06	3.565650e-09	5.697600e+01	2.305826e+02
2.390000e-06	3.972757e-06	3.566260e-09	5.693760e+01	2.305944e+02
2.400000e-06	3.969427e-06	3.569498e-09	5.688987e+01	2.305927e+02
2.410000e-06	3.965444e-06	3.576793e-09	5.683279e+01	2.305746e+02
2.420000e-06	3.961075e-06	3.600973e-09	5.677018e+01	2.305367e+02
2.430000e-06	3.956291e-06	3.583528e-09	5.670161e+01	2.304750e+02
2.440000e-06	3.950567e-06	3.475338e-09	5.661957e+01	2.303858e+02
2.450000e-06	3.943415e-06	3.455650e-09	5.651707e+01	2.302651e+02
2.460000e-06	3.935219e-06	3.660882e-09	5.639960e+01	2.301094e+02
2.470000e-06	3.926804e-06	3.682024e-09	5.627900e+01	2.299155e+02
2.480000e-06	3.918237e-06	3.490394e-09	5.615622e+01	2.296810e+02
2.490000e-06	3.908760e-06	3.419247e-09	5.602039e+01	2.294042e+02
2.500000e-06	3.898181e-06	3.560012e-09	5.586878e+01	2.290845e+02
2.510000e-06	3.887353e-06	3.552700e-09	5.571359e+01	2.287223e+02
2.520000e-06	3.876243e-06	3.513234e-09	5.555436e+01	2.283188e+02
2.530000e-06	3.863800e-06	3.584288e-09	5.537603e+01	2.278766e+02
2.540000e-06	3.850240e-06	3.382179e-09	5.518169e+01	2.273990e+02
2.550000e-06	3.836638e-06	3.400951e-09	5.498674e+01	2.268903e+02
2.560000e-06	3.822363e-06	3.665102e-09	5.478216e+01	2.263553e+02
2.570000e-06	3.806647e-06	3.508790e-09	5.455691e+01	2.257992e+02
2.580000e-06	3.790216e-06	3.143865e-09	5.432143e+01	2.252276e+02
2.590000e-06	3.773402e-06	3.414892e-09	5.408044e+01	2.246459e+02
2.600000e-06	3.755803e-06	3.657268e-09	5.382822e+01	2.240592e+02
2.610000e-06	3.737436e-06	3.243348e-09	5.356498e+01	2.234722e+02
2.620000e-06	3.718492e-06	3.215663e-09	5.329347e+01	2.228890e+02
2.630000e-06	3.698860e-06	3.486162e-09	5.301211e+01	2.223126e+02
2.640000e-06	3.678688e-06	3.348304e-09	5.272300e+01	2.217451e+02
2.650000e-06	3.658074e-06	3.271326e-09	5.242757e+01	2.211876e+02
2.660000e-06	3.637013e-06	3.424585e-09	5.212571e+01	2.206403e+02
2.670000e-06	3.615189e-06	3.343173e-09	5.181292e+01	2.201020e+02
2.680000e-06	3.592100e-06	3.220737e-09	5.148201e+01	2.195711e+02
2.690000e-06	3.568118e-06	3.350530e-09	5.113831e+01	2.190448e+02
2.700000e-06	3.543755e-06	3.420537e-09	5.078914e+01	2.185199e+02
2.710000e-06	3.518691e-06	3.306855e-09	5.042992e+01	2.179927e+02
2.720000e-06	3.492908e-06	3.153312e-09	5.006040e+01	2.174593e+02
2.730000e-06	3.466879e-06	3.288242e-09	4.968736e+01	2.169158e+02
2.740000e-06	3.440289e-06	3.476237e-09	4.930627e+01	2.163585e+02
2.750000e-06	3.412795e-06	3.184059e-09	4.891222e+01	2.157839e+02
2.760000e-06	3.384781e-06	3.089793e-09	4.851071e+01	2.151892e+02
2.770000e-06	3.356485e-06	3.380280e-09	4.810518e+01	2.145719e+02
2.780000e-06	3.327655e-06	3.293689e-09	4.769200e+01	2.139303e+02
2.790000e-06	3.298051e-06	3.120692e-09	4.726771e+01	2.132633e+02
2.800000e-06	3.267680e-06	3.219055e-09	4.683242e+01	2.125704e+02
2.810000e-06	3.236629e-06	3.253482e-09	4.638741e+01	2.118516e+02
2.820000e-06	3.204916e-06	3.195807e-09	4.593289e+01	2.111073e+02
2.830000e-06	3.172662e-06	3.154533e-09	4.547062e+01	2.103385e+02
2.840000e-06	3.140052e-06	3.188773e-09	4.500327e+01	2.095462e+02
2.850000e-06	3.106905e-06	3.188501e-09	4.452820e+01	2.087314e+02
2.860000e-06	3.073119e-06	3.107484e-09	4.404398e+01	2.078951e+02
2.870000e-06	3.038914e-06	3.136777e-09	4.355375e+01	2.070383e+02
2.880000e-06	3.004322e-06	3.167254e-09	4.305798e+01	2.061616e+02
2.890000e-06	2.969123e-06	3.082555e-09	4.255351e+01	2.052652e+02
2.900000e-06	2.933306e-06	3.049218e-09	4.204017e+01	2.043490e+02
2.910000e-06	2.897141e-06	3.113619e-09	4.152186e+01	2.034126e+02
2.920000e-06	2.860680e-06	3.102574e-09	4.099930e+01	2.024551e+02
2.930000e-06	2.823766e-06	2.997444e-09	4.047025e+01	2.014753e+02
2.940000e-06	2.786296e-06	3.007808e-09	3.993323e+01	2.004718e+02
2.950000e-06	2.748074e-06	3.078678e-09	3.938543e+01	1.994431e+02
