# Temperatura_=_20.0
# Concentracion g/m^3_=_9000.0
# C_Vs_to_Am_M_A/Vsm_=_65563218390.804596
# pendiente_HvsI_1/m_=_3716.3
# ordenada_HvsI_A/m_=_1297.0
# frecuencia_Hz_=_212895.1887088431

Tiempo_(s)	Campo_(V.s)	Magnetizacion_(V.s)	Campo_(kA/m)	Magnetizacion_(A/m)
0.000000e+00	-3.972467e-06	-3.440279e-09	-5.697623e+01	-2.307757e+02
1.000000e-08	-3.972289e-06	-3.440784e-09	-5.697369e+01	-2.307971e+02
2.000000e-08	-3.971446e-06	-3.439721e-09	-5.696159e+01	-2.308057e+02
3.000000e-08	-3.969676e-06	-3.439033e-09	-5.693621e+01	-2.308015e+02
4.000000e-08	-3.967000e-06	-3.438973e-09	-5.689782e+01	-2.307842e+02
5.000000e-08	-3.963612e-06	-3.440025e-09	-5.684923e+01	-2.307534e+02
6.000000e-08	-3.959685e-06	-3.447539e-09	-5.679290e+01	-2.307086e+02
7.000000e-08	-3.955231e-06	-3.452943e-09	-5.672903e+01	-2.306489e+02
8.000000e-08	-3.950057e-06	-3.427965e-09	-5.665481e+01	-2.305735e+02
9.000000e-08	-3.944078e-06	-3.383224e-09	-5.656906e+01	-2.304810e+02
1.000000e-07	-3.937248e-06	-3.425142e-09	-5.647110e+01	-2.303700e+02
1.100000e-07	-3.929712e-06	-3.499062e-09	-5.636300e+01	-2.302386e+02
1.200000e-07	-3.921773e-06	-3.477503e-09	-5.624915e+01	-2.300850e+02
1.300000e-07	-3.913302e-06	-3.350767e-09	-5.612765e+01	-2.299070e+02
1.400000e-07	-3.903967e-06	-3.378694e-09	-5.599375e+01	-2.297026e+02
1.500000e-07	-3.893858e-06	-3.483474e-09	-5.584877e+01	-2.294698e+02
1.600000e-07	-3.883012e-06	-3.471719e-09	-5.569320e+01	-2.292066e+02
1.700000e-07	-3.871100e-06	-3.474042e-09	-5.552235e+01	-2.289115e+02
1.800000e-07	-3.858272e-06	-3.435458e-09	-5.533836e+01	-2.285833e+02
1.900000e-07	-3.845046e-06	-3.429953e-09	-5.514867e+01	-2.282214e+02
2.000000e-07	-3.831071e-06	-3.477434e-09	-5.494822e+01	-2.278257e+02
2.100000e-07	-3.815819e-06	-3.559054e-09	-5.472947e+01	-2.273970e+02
2.200000e-07	-3.799695e-06	-3.448320e-09	-5.449820e+01	-2.269365e+02
2.300000e-07	-3.783136e-06	-3.342806e-09	-5.426071e+01	-2.264463e+02
2.400000e-07	-3.765945e-06	-3.518575e-09	-5.401413e+01	-2.259291e+02
2.500000e-07	-3.748015e-06	-3.594913e-09	-5.375697e+01	-2.253882e+02
2.600000e-07	-3.729495e-06	-3.464327e-09	-5.349134e+01	-2.248274e+02
2.700000e-07	-3.710348e-06	-3.395815e-09	-5.321673e+01	-2.242506e+02
2.800000e-07	-3.690646e-06	-3.507514e-09	-5.293414e+01	-2.236620e+02
2.900000e-07	-3.670503e-06	-3.523468e-09	-5.264523e+01	-2.230658e+02
3.000000e-07	-3.649798e-06	-3.464702e-09	-5.234827e+01	-2.224657e+02
3.100000e-07	-3.628383e-06	-3.435539e-09	-5.204111e+01	-2.218650e+02
3.200000e-07	-3.606229e-06	-3.412050e-09	-5.172336e+01	-2.212665e+02
3.300000e-07	-3.583466e-06	-3.443062e-09	-5.139688e+01	-2.206721e+02
3.400000e-07	-3.560216e-06	-3.466837e-09	-5.106341e+01	-2.200829e+02
3.500000e-07	-3.536434e-06	-3.433752e-09	-5.072231e+01	-2.194990e+02
3.600000e-07	-3.512101e-06	-3.368039e-09	-5.037331e+01	-2.189197e+02
3.700000e-07	-3.487194e-06	-3.360315e-09	-5.001608e+01	-2.183432e+02
3.800000e-07	-3.461321e-06	-3.443035e-09	-4.964498e+01	-2.177671e+02
3.900000e-07	-3.434296e-06	-3.445843e-09	-4.925737e+01	-2.171883e+02
4.000000e-07	-3.406647e-06	-3.320124e-09	-4.886080e+01	-2.166031e+02
4.100000e-07	-3.378705e-06	-3.315660e-09	-4.846003e+01	-2.160075e+02
4.200000e-07	-3.350236e-06	-3.414029e-09	-4.805172e+01	-2.153975e+02
4.300000e-07	-3.321078e-06	-3.396416e-09	-4.763351e+01	-2.147692e+02
4.400000e-07	-3.291408e-06	-3.295458e-09	-4.720795e+01	-2.141189e+02
4.500000e-07	-3.261288e-06	-3.289577e-09	-4.677595e+01	-2.134434e+02
4.600000e-07	-3.230567e-06	-3.339383e-09	-4.633533e+01	-2.127402e+02
4.700000e-07	-3.199290e-06	-3.324669e-09	-4.588672e+01	-2.120073e+02
4.800000e-07	-3.167635e-06	-3.288970e-09	-4.543271e+01	-2.112436e+02
4.900000e-07	-3.135710e-06	-3.256840e-09	-4.497481e+01	-2.104484e+02
5.000000e-07	-3.103354e-06	-3.248451e-09	-4.451073e+01	-2.096221e+02
5.100000e-07	-3.070260e-06	-3.270427e-09	-4.403608e+01	-2.087653e+02
5.200000e-07	-3.036172e-06	-3.258603e-09	-4.354716e+01	-2.078791e+02
5.300000e-07	-3.001229e-06	-3.215236e-09	-4.304598e+01	-2.069650e+02
5.400000e-07	-2.965846e-06	-3.188947e-09	-4.253848e+01	-2.060246e+02
5.500000e-07	-2.930132e-06	-3.200142e-09	-4.202625e+01	-2.050592e+02
5.600000e-07	-2.893993e-06	-3.212061e-09	-4.150792e+01	-2.040702e+02
5.700000e-07	-2.857410e-06	-3.174586e-09	-4.098321e+01	-2.030585e+02
5.800000e-07	-2.820336e-06	-3.127383e-09	-4.045146e+01	-2.020246e+02
5.900000e-07	-2.782734e-06	-3.121630e-09	-3.991215e+01	-2.009685e+02
6.000000e-07	-2.744625e-06	-3.140882e-09	-3.936556e+01	-1.998898e+02
6.100000e-07	-2.705953e-06	-3.113480e-09	-3.881090e+01	-1.987874e+02
6.200000e-07	-2.666807e-06	-3.057783e-09	-3.824944e+01	-1.976601e+02
6.300000e-07	-2.627349e-06	-3.052967e-09	-3.768350e+01	-1.965059e+02
6.400000e-07	-2.587642e-06	-3.055543e-09	-3.711399e+01	-1.953231e+02
6.500000e-07	-2.547622e-06	-3.030821e-09	-3.653999e+01	-1.941096e+02
6.600000e-07	-2.507102e-06	-3.004082e-09	-3.595882e+01	-1.928635e+02
6.700000e-07	-2.465935e-06	-2.983794e-09	-3.536837e+01	-1.915829e+02
6.800000e-07	-2.423982e-06	-2.967578e-09	-3.476666e+01	-1.902665e+02
6.900000e-07	-2.381339e-06	-2.946927e-09	-3.415503e+01	-1.889132e+02
7.000000e-07	-2.338168e-06	-2.925774e-09	-3.353584e+01	-1.875222e+02
7.100000e-07	-2.294562e-06	-2.894119e-09	-3.291041e+01	-1.860935e+02
7.200000e-07	-2.250730e-06	-2.866461e-09	-3.228173e+01	-1.846271e+02
7.300000e-07	-2.206619e-06	-2.856633e-09	-3.164906e+01	-1.831236e+02
7.400000e-07	-2.162127e-06	-2.831863e-09	-3.101092e+01	-1.815839e+02
7.500000e-07	-2.117246e-06	-2.799030e-09	-3.036720e+01	-1.800088e+02
7.600000e-07	-2.071967e-06	-2.777357e-09	-2.971777e+01	-1.783992e+02
7.700000e-07	-2.026318e-06	-2.761778e-09	-2.906304e+01	-1.767558e+02
7.800000e-07	-1.980350e-06	-2.736859e-09	-2.840373e+01	-1.750792e+02
7.900000e-07	-1.934089e-06	-2.696970e-09	-2.774023e+01	-1.733692e+02
8.000000e-07	-1.887498e-06	-2.668345e-09	-2.707198e+01	-1.716255e+02
8.100000e-07	-1.840552e-06	-2.649990e-09	-2.639864e+01	-1.698468e+02
8.200000e-07	-1.793306e-06	-2.623563e-09	-2.572100e+01	-1.680316e+02
8.300000e-07	-1.745802e-06	-2.585066e-09	-2.503966e+01	-1.661775e+02
8.400000e-07	-1.698099e-06	-2.545938e-09	-2.435547e+01	-1.642817e+02
8.500000e-07	-1.650242e-06	-2.522872e-09	-2.366906e+01	-1.623410e+02
8.600000e-07	-1.602140e-06	-2.498331e-09	-2.297914e+01	-1.603517e+02
8.700000e-07	-1.553752e-06	-2.460720e-09	-2.228513e+01	-1.583099e+02
8.800000e-07	-1.504948e-06	-2.421562e-09	-2.158515e+01	-1.562118e+02
8.900000e-07	-1.455689e-06	-2.388035e-09	-2.087864e+01	-1.540534e+02
9.000000e-07	-1.406075e-06	-2.362375e-09	-2.016703e+01	-1.518312e+02
9.100000e-07	-1.356045e-06	-2.328451e-09	-1.944946e+01	-1.495416e+02
9.200000e-07	-1.305526e-06	-2.281754e-09	-1.872487e+01	-1.471817e+02
9.300000e-07	-1.254547e-06	-2.237301e-09	-1.799370e+01	-1.447486e+02
9.400000e-07	-1.203300e-06	-2.204058e-09	-1.725867e+01	-1.422402e+02
9.500000e-07	-1.151872e-06	-2.174426e-09	-1.652105e+01	-1.396543e+02
9.600000e-07	-1.100205e-06	-2.128793e-09	-1.578001e+01	-1.369890e+02
9.700000e-07	-1.048359e-06	-2.077909e-09	-1.503639e+01	-1.342428e+02
9.800000e-07	-9.964212e-07	-2.037928e-09	-1.429145e+01	-1.314137e+02
9.900000e-07	-9.443743e-07	-2.002599e-09	-1.354496e+01	-1.284998e+02
1.000000e-06	-8.921626e-07	-1.960525e-09	-1.279610e+01	-1.254990e+02
1.010000e-06	-8.396125e-07	-1.906537e-09	-1.204238e+01	-1.224083e+02
1.020000e-06	-7.867781e-07	-1.853863e-09	-1.128459e+01	-1.192246e+02
1.030000e-06	-7.338946e-07	-1.805869e-09	-1.052609e+01	-1.159439e+02
1.040000e-06	-6.808915e-07	-1.754686e-09	-9.765879e+00	-1.125618e+02
1.050000e-06	-6.276973e-07	-1.699046e-09	-9.002927e+00	-1.090730e+02
1.060000e-06	-5.743731e-07	-1.638340e-09	-8.238109e+00	-1.054719e+02
1.070000e-06	-5.209761e-07	-1.581136e-09	-7.472248e+00	-1.017526e+02
1.080000e-06	-4.675222e-07	-1.526040e-09	-6.705570e+00	-9.790862e+01
1.090000e-06	-4.139812e-07	-1.465652e-09	-5.937642e+00	-9.393388e+01
1.100000e-06	-3.603523e-07	-1.400549e-09	-5.168455e+00	-8.982232e+01
1.110000e-06	-3.066474e-07	-1.331246e-09	-4.398178e+00	-8.556846e+01
1.120000e-06	-2.529362e-07	-1.266266e-09	-3.627809e+00	-8.116758e+01
1.130000e-06	-1.992542e-07	-1.200709e-09	-2.857860e+00	-7.661596e+01
1.140000e-06	-1.455597e-07	-1.126797e-09	-2.087732e+00	-7.191112e+01
1.150000e-06	-9.184548e-08	-1.047805e-09	-1.317320e+00	-6.705202e+01
1.160000e-06	-3.811691e-08	-9.696181e-10	-5.467026e-01	-6.203918e+01
1.170000e-06	1.561026e-08	-8.946089e-10	2.238946e-01	-5.687480e+01
1.180000e-06	6.932297e-08	-8.151217e-10	9.942844e-01	-5.156283e+01
1.190000e-06	1.229770e-07	-7.305467e-10	1.763833e+00	-4.610888e+01
1.200000e-06	1.766099e-07	-6.446011e-10	2.533078e+00	-4.052027e+01
1.210000e-06	2.302462e-07	-5.558039e-10	3.302371e+00	-3.480586e+01
1.220000e-06	2.838169e-07	-4.667243e-10	4.070724e+00	-2.897591e+01
1.230000e-06	3.373149e-07	-3.754327e-10	4.838034e+00	-2.304195e+01
1.240000e-06	3.907250e-07	-2.805501e-10	5.604085e+00	-1.701659e+01
1.250000e-06	4.440441e-07	-1.854372e-10	6.368829e+00	-1.091327e+01
1.260000e-06	4.973238e-07	-9.026716e-11	7.133008e+00	-4.746135e+00
1.270000e-06	5.505583e-07	4.367078e-12	7.896539e+00	1.470206e+00
1.280000e-06	6.036666e-07	1.018430e-10	8.658259e+00	7.720835e+00
1.290000e-06	6.566151e-07	1.972551e-10	9.417688e+00	1.399069e+01
1.300000e-06	7.094201e-07	2.910479e-10	1.017506e+01	2.026471e+01
1.310000e-06	7.620430e-07	3.895786e-10	1.092982e+01	2.652795e+01
1.320000e-06	8.144947e-07	4.862401e-10	1.168212e+01	3.276569e+01
1.330000e-06	8.668073e-07	5.792994e-10	1.243243e+01	3.896352e+01
1.340000e-06	9.189555e-07	6.720946e-10	1.318038e+01	4.510743e+01
1.350000e-06	9.709645e-07	7.685982e-10	1.392633e+01	5.118389e+01
1.360000e-06	1.022863e-06	8.634497e-10	1.467070e+01	5.717990e+01
1.370000e-06	1.074616e-06	9.520855e-10	1.541298e+01	6.308310e+01
1.380000e-06	1.126160e-06	1.039545e-09	1.615226e+01	6.888184e+01
1.390000e-06	1.177483e-06	1.127400e-09	1.688838e+01	7.456527e+01
1.400000e-06	1.228597e-06	1.215493e-09	1.762150e+01	8.012345e+01
1.410000e-06	1.279472e-06	1.297933e-09	1.835118e+01	8.554745e+01
1.420000e-06	1.330039e-06	1.374883e-09	1.907647e+01	9.082945e+01
1.430000e-06	1.380134e-06	1.452601e-09	1.979496e+01	9.596281e+01
1.440000e-06	1.429709e-06	1.530765e-09	2.050600e+01	1.009422e+02
1.450000e-06	1.478859e-06	1.606204e-09	2.121095e+01	1.057637e+02
1.460000e-06	1.527607e-06	1.675839e-09	2.191014e+01	1.104247e+02
1.470000e-06	1.575971e-06	1.742481e-09	2.260382e+01	1.149241e+02
1.480000e-06	1.624050e-06	1.809894e-09	2.329340e+01	1.192621e+02
1.490000e-06	1.671954e-06	1.874403e-09	2.398047e+01	1.234404e+02
1.500000e-06	1.719701e-06	1.933948e-09	2.466529e+01	1.274617e+02
1.510000e-06	1.767247e-06	1.989259e-09	2.534724e+01	1.313301e+02
1.520000e-06	1.814536e-06	2.044417e-09	2.602550e+01	1.350504e+02
1.530000e-06	1.861490e-06	2.100799e-09	2.669895e+01	1.386284e+02
1.540000e-06	1.908016e-06	2.154426e-09	2.736626e+01	1.420701e+02
1.550000e-06	1.954141e-06	2.203733e-09	2.802782e+01	1.453822e+02
1.560000e-06	1.999944e-06	2.251873e-09	2.868476e+01	1.485713e+02
1.570000e-06	2.045419e-06	2.299119e-09	2.933700e+01	1.516441e+02
1.580000e-06	2.090586e-06	2.345357e-09	2.998483e+01	1.546068e+02
1.590000e-06	2.135358e-06	2.389865e-09	3.062697e+01	1.574655e+02
1.600000e-06	2.179709e-06	2.431037e-09	3.126310e+01	1.602255e+02
1.610000e-06	2.223760e-06	2.470817e-09	3.189491e+01	1.628916e+02
1.620000e-06	2.267576e-06	2.510325e-09	3.252335e+01	1.654679e+02
1.630000e-06	2.311165e-06	2.548379e-09	3.314855e+01	1.679581e+02
1.640000e-06	2.354403e-06	2.583892e-09	3.376869e+01	1.703650e+02
1.650000e-06	2.397177e-06	2.617706e-09	3.438220e+01	1.726912e+02
1.660000e-06	2.439341e-06	2.651040e-09	3.498695e+01	1.749387e+02
1.670000e-06	2.480768e-06	2.685019e-09	3.558112e+01	1.771092e+02
1.680000e-06	2.521450e-06	2.717162e-09	3.616462e+01	1.792045e+02
1.690000e-06	2.561610e-06	2.746401e-09	3.674062e+01	1.812259e+02
1.700000e-06	2.601464e-06	2.774755e-09	3.731224e+01	1.831753e+02
1.710000e-06	2.641076e-06	2.803103e-09	3.788039e+01	1.850544e+02
1.720000e-06	2.680388e-06	2.830662e-09	3.844423e+01	1.868653e+02
1.730000e-06	2.719231e-06	2.856128e-09	3.900135e+01	1.886103e+02
1.740000e-06	2.757533e-06	2.881169e-09	3.955069e+01	1.902921e+02
1.750000e-06	2.795274e-06	2.907233e-09	4.009201e+01	1.919134e+02
1.760000e-06	2.832517e-06	2.933083e-09	4.062618e+01	1.934775e+02
1.770000e-06	2.869353e-06	2.959313e-09	4.115451e+01	1.949874e+02
1.780000e-06	2.905734e-06	2.985011e-09	4.167632e+01	1.964464e+02
1.790000e-06	2.941688e-06	3.008194e-09	4.219200e+01	1.978578e+02
1.800000e-06	2.977360e-06	3.031611e-09	4.270363e+01	1.992246e+02
1.810000e-06	3.012691e-06	3.054145e-09	4.321038e+01	2.005497e+02
1.820000e-06	3.047386e-06	3.075318e-09	4.370799e+01	2.018357e+02
1.830000e-06	3.081257e-06	3.094972e-09	4.419380e+01	2.030847e+02
1.840000e-06	3.114301e-06	3.113279e-09	4.466775e+01	2.042986e+02
1.850000e-06	3.146609e-06	3.131902e-09	4.513114e+01	2.054789e+02
1.860000e-06	3.178445e-06	3.151966e-09	4.558775e+01	2.066265e+02
1.870000e-06	3.209963e-06	3.173238e-09	4.603981e+01	2.077422e+02
1.880000e-06	3.241037e-06	3.191026e-09	4.648549e+01	2.088264e+02
1.890000e-06	3.271506e-06	3.207345e-09	4.692250e+01	2.098793e+02
1.900000e-06	3.301359e-06	3.224722e-09	4.735068e+01	2.109011e+02
1.910000e-06	3.330614e-06	3.242831e-09	4.777028e+01	2.118918e+02
1.920000e-06	3.359227e-06	3.259335e-09	4.818066e+01	2.128513e+02
1.930000e-06	3.387330e-06	3.273095e-09	4.858374e+01	2.137799e+02
1.940000e-06	3.415079e-06	3.286825e-09	4.898174e+01	2.146778e+02
1.950000e-06	3.442437e-06	3.301873e-09	4.937414e+01	2.155453e+02
1.960000e-06	3.469107e-06	3.317528e-09	4.975665e+01	2.163831e+02
1.970000e-06	3.494795e-06	3.331060e-09	5.012510e+01	2.171919e+02
1.980000e-06	3.519574e-06	3.344382e-09	5.048048e+01	2.179726e+02
1.990000e-06	3.543659e-06	3.358430e-09	5.082594e+01	2.187261e+02
2.000000e-06	3.567197e-06	3.371787e-09	5.116354e+01	2.194535e+02
2.010000e-06	3.590177e-06	3.384998e-09	5.149313e+01	2.201557e+02
2.020000e-06	3.612575e-06	3.397681e-09	5.181438e+01	2.208337e+02
2.030000e-06	3.634340e-06	3.408840e-09	5.212655e+01	2.214882e+02
2.040000e-06	3.655451e-06	3.419631e-09	5.242935e+01	2.221200e+02
2.050000e-06	3.675969e-06	3.431968e-09	5.272363e+01	2.227294e+02
2.060000e-06	3.695990e-06	3.442530e-09	5.301078e+01	2.233168e+02
2.070000e-06	3.715601e-06	3.450904e-09	5.329206e+01	2.238822e+02
2.080000e-06	3.734721e-06	3.460081e-09	5.356630e+01	2.244254e+02
2.090000e-06	3.753167e-06	3.469733e-09	5.383086e+01	2.249463e+02
2.100000e-06	3.770840e-06	3.479299e-09	5.408435e+01	2.254444e+02
2.110000e-06	3.787833e-06	3.488222e-09	5.432807e+01	2.259193e+02
2.120000e-06	3.804257e-06	3.494633e-09	5.456364e+01	2.263708e+02
2.130000e-06	3.819977e-06	3.500826e-09	5.478911e+01	2.267983e+02
2.140000e-06	3.834832e-06	3.509885e-09	5.500217e+01	2.272017e+02
2.150000e-06	3.848885e-06	3.519682e-09	5.520373e+01	2.275810e+02
2.160000e-06	3.862266e-06	3.526158e-09	5.539564e+01	2.279363e+02
2.170000e-06	3.874984e-06	3.531405e-09	5.557806e+01	2.282678e+02
2.180000e-06	3.887010e-06	3.538930e-09	5.575055e+01	2.285762e+02
2.190000e-06	3.898313e-06	3.546260e-09	5.591266e+01	2.288620e+02
2.200000e-06	3.908756e-06	3.550610e-09	5.606244e+01	2.291260e+02
2.210000e-06	3.918205e-06	3.553020e-09	5.619796e+01	2.293693e+02
2.220000e-06	3.926681e-06	3.557352e-09	5.631954e+01	2.295928e+02
2.230000e-06	3.934459e-06	3.562414e-09	5.643109e+01	2.297976e+02
2.240000e-06	3.941670e-06	3.568089e-09	5.653452e+01	2.299846e+02
2.250000e-06	3.948245e-06	3.571512e-09	5.662882e+01	2.301549e+02
2.260000e-06	3.954184e-06	3.572325e-09	5.671400e+01	2.303092e+02
2.270000e-06	3.959433e-06	3.574606e-09	5.678929e+01	2.304483e+02
2.280000e-06	3.964025e-06	3.577715e-09	5.685516e+01	2.305729e+02
2.290000e-06	3.968057e-06	3.580492e-09	5.691299e+01	2.306835e+02
2.300000e-06	3.971585e-06	3.580826e-09	5.696359e+01	2.307805e+02
2.310000e-06	3.974386e-06	3.581964e-09	5.700376e+01	2.308642e+02
2.320000e-06	3.976163e-06	3.585673e-09	5.702925e+01	2.309348e+02
2.330000e-06	3.976941e-06	3.590373e-09	5.704040e+01	2.309925e+02
2.340000e-06	3.977017e-06	3.593518e-09	5.704150e+01	2.310375e+02
2.350000e-06	3.976641e-06	3.593849e-09	5.703611e+01	2.310697e+02
2.360000e-06	3.975657e-06	3.596217e-09	5.702200e+01	2.310892e+02
2.370000e-06	3.973979e-06	3.598176e-09	5.699792e+01	2.310960e+02
2.380000e-06	3.971750e-06	3.595434e-09	5.696596e+01	2.310899e+02
2.390000e-06	3.968876e-06	3.594151e-09	5.692474e+01	2.310706e+02
2.400000e-06	3.965293e-06	3.590507e-09	5.687334e+01	2.310378e+02
2.410000e-06	3.961233e-06	3.575880e-09	5.681511e+01	2.309908e+02
2.420000e-06	3.956780e-06	3.594234e-09	5.675123e+01	2.309289e+02
2.430000e-06	3.951579e-06	3.644442e-09	5.667664e+01	2.308511e+02
2.440000e-06	3.945190e-06	3.612609e-09	5.658501e+01	2.307559e+02
2.450000e-06	3.937613e-06	3.532952e-09	5.647633e+01	2.306420e+02
2.460000e-06	3.929314e-06	3.529955e-09	5.635730e+01	2.305074e+02
2.470000e-06	3.920840e-06	3.649290e-09	5.623576e+01	2.303503e+02
2.480000e-06	3.912009e-06	3.615775e-09	5.610910e+01	2.301686e+02
2.490000e-06	3.902139e-06	3.512292e-09	5.596754e+01	2.299601e+02
2.500000e-06	3.891447e-06	3.503906e-09	5.581418e+01	2.297229e+02
2.510000e-06	3.880542e-06	3.505426e-09	5.565778e+01	2.294550e+02
2.520000e-06	3.868934e-06	3.508082e-09	5.549128e+01	2.291551e+02
2.530000e-06	3.855910e-06	3.532970e-09	5.530449e+01	2.288219e+02
2.540000e-06	3.842085e-06	3.528426e-09	5.510620e+01	2.284549e+02
2.550000e-06	3.828082e-06	3.416791e-09	5.490535e+01	2.280543e+02
2.560000e-06	3.813248e-06	3.529111e-09	5.469259e+01	2.276207e+02
2.570000e-06	3.797299e-06	3.626487e-09	5.446384e+01	2.271557e+02
2.580000e-06	3.780791e-06	3.418864e-09	5.422707e+01	2.266613e+02
2.590000e-06	3.763788e-06	3.304809e-09	5.398320e+01	2.261403e+02
2.600000e-06	3.746043e-06	3.466201e-09	5.372868e+01	2.255963e+02
2.610000e-06	3.727556e-06	3.469071e-09	5.346353e+01	2.250328e+02
2.620000e-06	3.708380e-06	3.301007e-09	5.318850e+01	2.244540e+02
2.630000e-06	3.688593e-06	3.361139e-09	5.290469e+01	2.238641e+02
2.640000e-06	3.668328e-06	3.390608e-09	5.261403e+01	2.232671e+02
2.650000e-06	3.647504e-06	3.325969e-09	5.231536e+01	2.226667e+02
2.660000e-06	3.626000e-06	3.356761e-09	5.200694e+01	2.220662e+02
2.670000e-06	3.603585e-06	3.339757e-09	5.168544e+01	2.214683e+02
2.680000e-06	3.580115e-06	3.285784e-09	5.134882e+01	2.208747e+02
2.690000e-06	3.556043e-06	3.286529e-09	5.100356e+01	2.202863e+02
2.700000e-06	3.531505e-06	3.342682e-09	5.065161e+01	2.197033e+02
2.710000e-06	3.506181e-06	3.340466e-09	5.028840e+01	2.191245e+02
2.720000e-06	3.480255e-06	3.239100e-09	4.991655e+01	2.185483e+02
2.730000e-06	3.453964e-06	3.221122e-09	4.953947e+01	2.179721e+02
2.740000e-06	3.427020e-06	3.320743e-09	4.915300e+01	2.173926e+02
2.750000e-06	3.399356e-06	3.324200e-09	4.875622e+01	2.168061e+02
2.760000e-06	3.371309e-06	3.203838e-09	4.835396e+01	2.162086e+02
2.770000e-06	3.342908e-06	3.198191e-09	4.794661e+01	2.155962e+02
2.780000e-06	3.313832e-06	3.280111e-09	4.752958e+01	2.149649e+02
2.790000e-06	3.283933e-06	3.256323e-09	4.710074e+01	2.143110e+02
2.800000e-06	3.253253e-06	3.197103e-09	4.666071e+01	2.136316e+02
2.810000e-06	3.221876e-06	3.191817e-09	4.621067e+01	2.129241e+02
2.820000e-06	3.189980e-06	3.202145e-09	4.575320e+01	2.121867e+02
2.830000e-06	3.157680e-06	3.201619e-09	4.528992e+01	2.114182e+02
2.840000e-06	3.124857e-06	3.177401e-09	4.481915e+01	2.106184e+02
2.850000e-06	3.091440e-06	3.160234e-09	4.433986e+01	2.097875e+02
2.860000e-06	3.057530e-06	3.140481e-09	4.385350e+01	2.089263e+02
2.870000e-06	3.023211e-06	3.130159e-09	4.336126e+01	2.080359e+02
2.880000e-06	2.988361e-06	3.144980e-09	4.286141e+01	2.071178e+02
2.890000e-06	2.952834e-06	3.119532e-09	4.235187e+01	2.061735e+02
2.900000e-06	2.916861e-06	3.076426e-09	4.183590e+01	2.052045e+02
2.910000e-06	2.880645e-06	3.067690e-09	4.131647e+01	2.042121e+02
2.920000e-06	2.844064e-06	3.081123e-09	4.079179e+01	2.031971e+02
2.930000e-06	2.806902e-06	3.062182e-09	4.025879e+01	2.021599e+02
2.940000e-06	2.768983e-06	3.013278e-09	3.971493e+01	2.011006e+02
2.950000e-06	2.730226e-06	3.014823e-09	3.915904e+01	2.000184e+02
