# Temperatura_=_20.0
# Concentracion g/m^3_=_9000.0
# C_Vs_to_Am_M_A/Vsm_=_65563218390.804596
# pendiente_HvsI_1/m_=_3716.3
# ordenada_HvsI_A/m_=_1297.0
# frecuencia_Hz_=_212896.54001087113

Tiempo_(s)	Campo_(V.s)	Magnetizacion_(V.s)	Campo_(kA/m)	Magnetizacion_(A/m)
0.000000e+00	-3.976311e-06	-3.455350e-09	-5.697330e+01	-2.315321e+02
1.000000e-08	-3.976420e-06	-3.455719e-09	-5.697487e+01	-2.315494e+02
2.000000e-08	-3.975810e-06	-3.460783e-09	-5.696613e+01	-2.315598e+02
3.000000e-08	-3.974166e-06	-3.462263e-09	-5.694258e+01	-2.315628e+02
4.000000e-08	-3.971517e-06	-3.459747e-09	-5.690461e+01	-2.315575e+02
5.000000e-08	-3.968181e-06	-3.459224e-09	-5.685682e+01	-2.315417e+02
6.000000e-08	-3.964448e-06	-3.456465e-09	-5.680333e+01	-2.315130e+02
7.000000e-08	-3.960208e-06	-3.442067e-09	-5.674258e+01	-2.314678e+02
8.000000e-08	-3.955212e-06	-3.424278e-09	-5.667099e+01	-2.314024e+02
9.000000e-08	-3.949372e-06	-3.478361e-09	-5.658731e+01	-2.313123e+02
1.000000e-07	-3.942700e-06	-3.560601e-09	-5.649172e+01	-2.311932e+02
1.100000e-07	-3.935345e-06	-3.478313e-09	-5.638633e+01	-2.310406e+02
1.200000e-07	-3.927661e-06	-3.294755e-09	-5.627624e+01	-2.308502e+02
1.300000e-07	-3.919509e-06	-3.333346e-09	-5.615943e+01	-2.306186e+02
1.400000e-07	-3.910342e-06	-3.580459e-09	-5.602809e+01	-2.303427e+02
1.500000e-07	-3.900275e-06	-3.518266e-09	-5.588385e+01	-2.300207e+02
1.600000e-07	-3.889593e-06	-3.416004e-09	-5.573080e+01	-2.296516e+02
1.700000e-07	-3.877815e-06	-3.425376e-09	-5.556204e+01	-2.292359e+02
1.800000e-07	-3.865001e-06	-3.421854e-09	-5.537844e+01	-2.287752e+02
1.900000e-07	-3.851923e-06	-3.474624e-09	-5.519105e+01	-2.282725e+02
2.000000e-07	-3.838179e-06	-3.595067e-09	-5.499413e+01	-2.277319e+02
2.100000e-07	-3.822926e-06	-3.443893e-09	-5.477558e+01	-2.271586e+02
2.200000e-07	-3.806717e-06	-3.189667e-09	-5.454333e+01	-2.265587e+02
2.300000e-07	-3.790344e-06	-3.494391e-09	-5.430873e+01	-2.259388e+02
2.400000e-07	-3.773362e-06	-3.667811e-09	-5.406542e+01	-2.253059e+02
2.500000e-07	-3.755567e-06	-3.376807e-09	-5.381045e+01	-2.246669e+02
2.600000e-07	-3.737191e-06	-3.252531e-09	-5.354715e+01	-2.240286e+02
2.700000e-07	-3.718219e-06	-3.560232e-09	-5.327531e+01	-2.233971e+02
2.800000e-07	-3.698767e-06	-3.582202e-09	-5.299660e+01	-2.227774e+02
2.900000e-07	-3.678788e-06	-3.369955e-09	-5.271034e+01	-2.221737e+02
3.000000e-07	-3.658097e-06	-3.381527e-09	-5.241387e+01	-2.215888e+02
3.100000e-07	-3.636765e-06	-3.402311e-09	-5.210823e+01	-2.210239e+02
3.200000e-07	-3.614859e-06	-3.391372e-09	-5.179436e+01	-2.204789e+02
3.300000e-07	-3.592294e-06	-3.425863e-09	-5.147104e+01	-2.199525e+02
3.400000e-07	-3.569149e-06	-3.454580e-09	-5.113942e+01	-2.194416e+02
3.500000e-07	-3.545475e-06	-3.333845e-09	-5.080020e+01	-2.189424e+02
3.600000e-07	-3.521246e-06	-3.239226e-09	-5.045305e+01	-2.184500e+02
3.700000e-07	-3.496512e-06	-3.426167e-09	-5.009866e+01	-2.179588e+02
3.800000e-07	-3.470888e-06	-3.531099e-09	-4.973151e+01	-2.174630e+02
3.900000e-07	-3.444037e-06	-3.232160e-09	-4.934679e+01	-2.169567e+02
4.000000e-07	-3.416526e-06	-3.187883e-09	-4.895261e+01	-2.164341e+02
4.100000e-07	-3.388844e-06	-3.488645e-09	-4.855597e+01	-2.158900e+02
4.200000e-07	-3.360654e-06	-3.421669e-09	-4.815205e+01	-2.153201e+02
4.300000e-07	-3.331658e-06	-3.181251e-09	-4.773659e+01	-2.147205e+02
4.400000e-07	-3.302157e-06	-3.277795e-09	-4.731390e+01	-2.140889e+02
4.500000e-07	-3.272271e-06	-3.379245e-09	-4.688569e+01	-2.134235e+02
4.600000e-07	-3.241694e-06	-3.264754e-09	-4.644758e+01	-2.127239e+02
4.700000e-07	-3.210486e-06	-3.242352e-09	-4.600043e+01	-2.119905e+02
4.800000e-07	-3.178991e-06	-3.277856e-09	-4.554916e+01	-2.112243e+02
4.900000e-07	-3.147197e-06	-3.229681e-09	-4.509361e+01	-2.104274e+02
5.000000e-07	-3.114887e-06	-3.223647e-09	-4.463066e+01	-2.096017e+02
5.100000e-07	-3.081903e-06	-3.255085e-09	-4.415806e+01	-2.087497e+02
5.200000e-07	-3.047957e-06	-3.214936e-09	-4.367168e+01	-2.078738e+02
5.300000e-07	-3.013062e-06	-3.159090e-09	-4.317170e+01	-2.069759e+02
5.400000e-07	-2.977713e-06	-3.178725e-09	-4.266522e+01	-2.060579e+02
5.500000e-07	-2.942148e-06	-3.218506e-09	-4.215563e+01	-2.051206e+02
5.600000e-07	-2.906255e-06	-3.169159e-09	-4.164134e+01	-2.041647e+02
5.700000e-07	-2.869841e-06	-3.095678e-09	-4.111960e+01	-2.031897e+02
5.800000e-07	-2.832848e-06	-3.114477e-09	-4.058957e+01	-2.021949e+02
5.900000e-07	-2.795356e-06	-3.162900e-09	-4.005237e+01	-2.011787e+02
6.000000e-07	-2.757294e-06	-3.105948e-09	-3.950701e+01	-2.001389e+02
6.100000e-07	-2.718633e-06	-3.023903e-09	-3.895307e+01	-1.990734e+02
6.200000e-07	-2.679583e-06	-3.058507e-09	-3.839355e+01	-1.979795e+02
6.300000e-07	-2.640238e-06	-3.083911e-09	-3.782980e+01	-1.968545e+02
6.400000e-07	-2.600599e-06	-3.017360e-09	-3.726186e+01	-1.956960e+02
6.500000e-07	-2.560665e-06	-2.979282e-09	-3.668967e+01	-1.945020e+02
6.600000e-07	-2.520236e-06	-2.990501e-09	-3.611039e+01	-1.932705e+02
6.700000e-07	-2.479081e-06	-2.975156e-09	-3.552073e+01	-1.920004e+02
6.800000e-07	-2.437177e-06	-2.944831e-09	-3.492031e+01	-1.906910e+02
6.900000e-07	-2.394643e-06	-2.932419e-09	-3.431088e+01	-1.893420e+02
7.000000e-07	-2.351565e-06	-2.897235e-09	-3.369364e+01	-1.879539e+02
7.100000e-07	-2.308112e-06	-2.860004e-09	-3.307104e+01	-1.865273e+02
7.200000e-07	-2.264452e-06	-2.870769e-09	-3.244547e+01	-1.850633e+02
7.300000e-07	-2.220515e-06	-2.858368e-09	-3.181593e+01	-1.835631e+02
7.400000e-07	-2.176166e-06	-2.797014e-09	-3.118050e+01	-1.820279e+02
7.500000e-07	-2.131308e-06	-2.764078e-09	-3.053776e+01	-1.804588e+02
7.600000e-07	-2.086049e-06	-2.776135e-09	-2.988929e+01	-1.788563e+02
7.700000e-07	-2.040546e-06	-2.762941e-09	-2.923732e+01	-1.772210e+02
7.800000e-07	-1.994732e-06	-2.701586e-09	-2.858088e+01	-1.755527e+02
7.900000e-07	-1.948538e-06	-2.664575e-09	-2.791901e+01	-1.738505e+02
8.000000e-07	-1.901991e-06	-2.666714e-09	-2.725207e+01	-1.721131e+02
8.100000e-07	-1.855072e-06	-2.649854e-09	-2.657980e+01	-1.703387e+02
8.200000e-07	-1.807903e-06	-2.602444e-09	-2.590396e+01	-1.685248e+02
8.300000e-07	-1.760533e-06	-2.560735e-09	-2.522523e+01	-1.666686e+02
8.400000e-07	-1.712898e-06	-2.543082e-09	-2.454271e+01	-1.647671e+02
8.500000e-07	-1.665066e-06	-2.522010e-09	-2.385737e+01	-1.628168e+02
8.600000e-07	-1.616993e-06	-2.487300e-09	-2.316857e+01	-1.608146e+02
8.700000e-07	-1.568503e-06	-2.451933e-09	-2.247379e+01	-1.587570e+02
8.800000e-07	-1.519489e-06	-2.412627e-09	-2.177152e+01	-1.566411e+02
8.900000e-07	-1.470112e-06	-2.382367e-09	-2.106403e+01	-1.544640e+02
9.000000e-07	-1.420356e-06	-2.361335e-09	-2.035112e+01	-1.522234e+02
9.100000e-07	-1.370120e-06	-2.323722e-09	-1.963132e+01	-1.499170e+02
9.200000e-07	-1.319519e-06	-2.270515e-09	-1.890630e+01	-1.475432e+02
9.300000e-07	-1.268581e-06	-2.230906e-09	-1.817646e+01	-1.451002e+02
9.400000e-07	-1.217383e-06	-2.208911e-09	-1.744289e+01	-1.425869e+02
9.500000e-07	-1.166017e-06	-2.170385e-09	-1.670690e+01	-1.400017e+02
9.600000e-07	-1.114420e-06	-2.115583e-09	-1.596762e+01	-1.373434e+02
9.700000e-07	-1.062621e-06	-2.074696e-09	-1.522543e+01	-1.346102e+02
9.800000e-07	-1.010674e-06	-2.042542e-09	-1.448113e+01	-1.318002e+02
9.900000e-07	-9.585429e-07	-2.001038e-09	-1.373418e+01	-1.289108e+02
1.000000e-06	-9.062231e-07	-1.949139e-09	-1.298453e+01	-1.259390e+02
1.010000e-06	-8.536284e-07	-1.900341e-09	-1.223094e+01	-1.228810e+02
1.020000e-06	-8.007714e-07	-1.854234e-09	-1.147360e+01	-1.197324e+02
1.030000e-06	-7.478198e-07	-1.802242e-09	-1.071490e+01	-1.164882e+02
1.040000e-06	-6.947957e-07	-1.751463e-09	-9.955159e+00	-1.131427e+02
1.050000e-06	-6.416191e-07	-1.698230e-09	-9.193235e+00	-1.096898e+02
1.060000e-06	-5.883199e-07	-1.639542e-09	-8.429554e+00	-1.061232e+02
1.070000e-06	-5.349654e-07	-1.582119e-09	-7.665081e+00	-1.024361e+02
1.080000e-06	-4.815326e-07	-1.526901e-09	-6.899487e+00	-9.862219e+01
1.090000e-06	-4.280215e-07	-1.465763e-09	-6.132769e+00	-9.467509e+01
1.100000e-06	-3.744749e-07	-1.395339e-09	-5.365544e+00	-9.058911e+01
1.110000e-06	-3.208907e-07	-1.328819e-09	-4.597780e+00	-8.635920e+01
1.120000e-06	-2.672570e-07	-1.266129e-09	-3.829307e+00	-8.198127e+01
1.130000e-06	-2.135924e-07	-1.196203e-09	-3.060390e+00	-7.745229e+01
1.140000e-06	-1.599376e-07	-1.121205e-09	-2.291615e+00	-7.277049e+01
1.150000e-06	-1.062809e-07	-1.047176e-09	-1.522812e+00	-6.793544e+01
1.160000e-06	-5.258065e-08	-9.750614e-10	-7.533851e-01	-6.294813e+01
1.170000e-06	1.100369e-09	-8.977346e-10	1.576629e-02	-5.781102e+01
1.180000e-06	5.475895e-08	-8.152457e-10	7.845962e-01	-5.252804e+01
1.190000e-06	1.084383e-07	-7.310192e-10	1.553724e+00	-4.710454e+01
1.200000e-06	1.620991e-07	-6.426902e-10	2.322585e+00	-4.154723e+01
1.210000e-06	2.157156e-07	-5.539363e-10	3.090812e+00	-3.586414e+01
1.220000e-06	2.692640e-07	-4.666970e-10	3.858063e+00	-3.006449e+01
1.230000e-06	3.227452e-07	-3.771299e-10	4.624352e+00	-2.415858e+01
1.240000e-06	3.762009e-07	-2.842048e-10	5.390274e+00	-1.815769e+01
1.250000e-06	4.296047e-07	-1.895943e-10	6.155454e+00	-1.207399e+01
1.260000e-06	4.828758e-07	-9.655322e-11	6.918732e+00	-5.920369e+00
1.270000e-06	5.361104e-07	-1.189188e-12	7.681487e+00	2.896080e-01
1.280000e-06	5.893119e-07	9.632999e-11	8.443767e+00	6.541845e+00
1.290000e-06	6.423971e-07	1.902402e-10	9.204382e+00	1.282181e+01
1.300000e-06	6.953365e-07	2.855374e-10	9.962907e+00	1.911462e+01
1.310000e-06	7.480888e-07	3.827908e-10	1.071875e+01	2.540519e+01
1.320000e-06	8.007079e-07	4.802726e-10	1.147269e+01	3.167831e+01
1.330000e-06	8.531605e-07	5.744872e-10	1.222424e+01	3.791875e+01
1.340000e-06	9.054284e-07	6.694107e-10	1.297314e+01	4.411144e+01
1.350000e-06	9.575692e-07	7.653541e-10	1.372022e+01	5.024159e+01
1.360000e-06	1.009542e-06	8.560078e-10	1.446491e+01	5.629480e+01
1.370000e-06	1.061350e-06	9.447144e-10	1.520722e+01	6.225729e+01
1.380000e-06	1.113043e-06	1.032611e-09	1.594788e+01	6.811602e+01
1.390000e-06	1.164532e-06	1.120029e-09	1.668563e+01	7.385884e+01
1.400000e-06	1.215824e-06	1.206475e-09	1.742054e+01	7.947471e+01
1.410000e-06	1.266932e-06	1.289405e-09	1.815284e+01	8.495380e+01
1.420000e-06	1.317773e-06	1.368887e-09	1.888129e+01	9.028765e+01
1.430000e-06	1.368256e-06	1.446866e-09	1.960461e+01	9.546924e+01
1.440000e-06	1.418299e-06	1.525645e-09	2.032165e+01	1.004931e+02
1.450000e-06	1.467891e-06	1.600643e-09	2.103221e+01	1.053554e+02
1.460000e-06	1.517019e-06	1.668065e-09	2.173612e+01	1.100539e+02
1.470000e-06	1.565665e-06	1.733929e-09	2.243313e+01	1.145878e+02
1.480000e-06	1.613894e-06	1.798608e-09	2.312416e+01	1.189578e+02
1.490000e-06	1.661834e-06	1.860599e-09	2.381106e+01	1.231662e+02
1.500000e-06	1.709542e-06	1.920376e-09	2.449462e+01	1.272161e+02
1.510000e-06	1.757066e-06	1.977333e-09	2.517556e+01	1.311120e+02
1.520000e-06	1.804401e-06	2.034932e-09	2.585378e+01	1.348592e+02
1.530000e-06	1.851466e-06	2.092059e-09	2.652815e+01	1.384633e+02
1.540000e-06	1.898186e-06	2.144910e-09	2.719756e+01	1.419308e+02
1.550000e-06	1.944485e-06	2.193139e-09	2.786093e+01	1.452680e+02
1.560000e-06	1.990360e-06	2.239073e-09	2.851823e+01	1.484814e+02
1.570000e-06	2.035937e-06	2.284639e-09	2.917127e+01	1.515775e+02
1.580000e-06	2.081237e-06	2.328759e-09	2.982034e+01	1.545622e+02
1.590000e-06	2.126179e-06	2.371846e-09	3.046428e+01	1.574413e+02
1.600000e-06	2.170652e-06	2.414322e-09	3.110150e+01	1.602199e+02
1.610000e-06	2.214697e-06	2.456308e-09	3.173258e+01	1.629026e+02
1.620000e-06	2.258483e-06	2.496451e-09	3.235995e+01	1.654937e+02
1.630000e-06	2.302060e-06	2.533713e-09	3.298434e+01	1.679967e+02
1.640000e-06	2.345409e-06	2.569292e-09	3.360545e+01	1.704150e+02
1.650000e-06	2.388481e-06	2.604220e-09	3.422259e+01	1.727512e+02
1.660000e-06	2.431074e-06	2.638565e-09	3.483287e+01	1.750079e+02
1.670000e-06	2.472967e-06	2.671347e-09	3.543312e+01	1.771874e+02
1.680000e-06	2.514029e-06	2.701646e-09	3.602147e+01	1.792918e+02
1.690000e-06	2.554313e-06	2.732215e-09	3.659866e+01	1.813234e+02
1.700000e-06	2.594127e-06	2.762698e-09	3.716912e+01	1.832841e+02
1.710000e-06	2.633706e-06	2.791885e-09	3.773622e+01	1.851763e+02
1.720000e-06	2.673075e-06	2.819869e-09	3.830031e+01	1.870022e+02
1.730000e-06	2.712118e-06	2.846050e-09	3.885972e+01	1.887643e+02
1.740000e-06	2.750618e-06	2.871562e-09	3.941135e+01	1.904650e+02
1.750000e-06	2.788533e-06	2.897036e-09	3.995461e+01	1.921070e+02
1.760000e-06	2.826038e-06	2.921780e-09	4.049198e+01	1.936931e+02
1.770000e-06	2.863078e-06	2.946360e-09	4.102270e+01	1.952259e+02
1.780000e-06	2.899524e-06	2.971894e-09	4.154490e+01	1.967080e+02
1.790000e-06	2.935512e-06	2.997469e-09	4.206055e+01	1.981422e+02
1.800000e-06	2.971223e-06	3.021289e-09	4.257222e+01	1.995308e+02
1.810000e-06	3.006677e-06	3.043460e-09	4.308021e+01	2.008761e+02
1.820000e-06	3.041720e-06	3.064801e-09	4.358232e+01	2.021802e+02
1.830000e-06	3.076108e-06	3.084697e-09	4.407504e+01	2.034448e+02
1.840000e-06	3.109653e-06	3.103944e-09	4.455567e+01	2.046716e+02
1.850000e-06	3.142253e-06	3.122383e-09	4.502278e+01	2.058619e+02
1.860000e-06	3.174138e-06	3.141768e-09	4.547963e+01	2.070168e+02
1.870000e-06	3.205677e-06	3.162303e-09	4.593152e+01	2.081371e+02
1.880000e-06	3.236864e-06	3.180339e-09	4.637838e+01	2.092234e+02
1.890000e-06	3.267461e-06	3.197571e-09	4.681677e+01	2.102764e+02
1.900000e-06	3.297423e-06	3.215493e-09	4.724607e+01	2.112964e+02
1.910000e-06	3.326866e-06	3.234130e-09	4.766794e+01	2.122838e+02
1.920000e-06	3.355721e-06	3.250452e-09	4.808138e+01	2.132390e+02
1.930000e-06	3.383902e-06	3.263011e-09	4.848516e+01	2.141623e+02
1.940000e-06	3.411633e-06	3.275595e-09	4.888249e+01	2.150542e+02
1.950000e-06	3.439087e-06	3.288497e-09	4.927586e+01	2.159151e+02
1.960000e-06	3.466082e-06	3.303252e-09	4.966265e+01	2.167457e+02
1.970000e-06	3.492237e-06	3.317729e-09	5.003740e+01	2.175467e+02
1.980000e-06	3.517341e-06	3.330660e-09	5.039710e+01	2.183189e+02
1.990000e-06	3.541543e-06	3.343880e-09	5.074386e+01	2.190633e+02
2.000000e-06	3.565158e-06	3.357055e-09	5.108223e+01	2.197809e+02
2.010000e-06	3.588293e-06	3.370399e-09	5.141371e+01	2.204729e+02
2.020000e-06	3.610783e-06	3.381297e-09	5.173596e+01	2.211403e+02
2.030000e-06	3.632627e-06	3.391215e-09	5.204893e+01	2.217845e+02
2.040000e-06	3.653971e-06	3.401997e-09	5.235476e+01	2.224065e+02
2.050000e-06	3.674702e-06	3.412417e-09	5.265180e+01	2.230075e+02
2.060000e-06	3.694792e-06	3.421841e-09	5.293965e+01	2.235887e+02
2.070000e-06	3.714452e-06	3.430428e-09	5.322134e+01	2.241509e+02
2.080000e-06	3.733696e-06	3.439705e-09	5.349707e+01	2.246948e+02
2.090000e-06	3.752332e-06	3.450057e-09	5.376409e+01	2.252212e+02
2.100000e-06	3.770196e-06	3.460294e-09	5.402005e+01	2.257305e+02
2.110000e-06	3.787349e-06	3.470214e-09	5.426582e+01	2.262227e+02
2.120000e-06	3.803946e-06	3.478166e-09	5.450363e+01	2.266979e+02
2.130000e-06	3.819951e-06	3.484471e-09	5.473294e+01	2.271558e+02
2.140000e-06	3.835116e-06	3.491296e-09	5.495023e+01	2.275958e+02
2.150000e-06	3.849365e-06	3.498145e-09	5.515440e+01	2.280173e+02
2.160000e-06	3.862873e-06	3.505414e-09	5.534795e+01	2.284194e+02
2.170000e-06	3.875675e-06	3.512860e-09	5.553138e+01	2.288010e+02
2.180000e-06	3.887785e-06	3.522090e-09	5.570489e+01	2.291612e+02
2.190000e-06	3.899287e-06	3.531183e-09	5.586969e+01	2.294987e+02
2.200000e-06	3.910048e-06	3.536385e-09	5.602388e+01	2.298128e+02
2.210000e-06	3.919783e-06	3.541079e-09	5.616336e+01	2.301024e+02
2.220000e-06	3.928432e-06	3.546238e-09	5.628729e+01	2.303669e+02
2.230000e-06	3.936316e-06	3.549594e-09	5.640024e+01	2.306060e+02
2.240000e-06	3.943745e-06	3.553060e-09	5.650669e+01	2.308197e+02
2.250000e-06	3.950606e-06	3.557872e-09	5.660499e+01	2.310082e+02
2.260000e-06	3.956689e-06	3.561678e-09	5.669216e+01	2.311724e+02
2.270000e-06	3.962101e-06	3.564225e-09	5.676970e+01	2.313133e+02
2.280000e-06	3.966860e-06	3.567447e-09	5.683788e+01	2.314325e+02
2.290000e-06	3.970937e-06	3.571657e-09	5.689631e+01	2.315318e+02
2.300000e-06	3.974534e-06	3.575412e-09	5.694784e+01	2.316132e+02
2.310000e-06	3.977596e-06	3.577587e-09	5.699171e+01	2.316790e+02
2.320000e-06	3.979804e-06	3.580035e-09	5.702335e+01	2.317314e+02
2.330000e-06	3.980915e-06	3.583086e-09	5.703927e+01	2.317724e+02
2.340000e-06	3.981071e-06	3.585798e-09	5.704150e+01	2.318040e+02
2.350000e-06	3.980683e-06	3.588298e-09	5.703594e+01	2.318274e+02
2.360000e-06	3.979795e-06	3.589844e-09	5.702322e+01	2.318437e+02
2.370000e-06	3.978252e-06	3.587027e-09	5.700112e+01	2.318530e+02
2.380000e-06	3.976074e-06	3.585700e-09	5.696991e+01	2.318550e+02
2.390000e-06	3.973255e-06	3.587155e-09	5.692951e+01	2.318482e+02
2.400000e-06	3.969735e-06	3.589721e-09	5.687909e+01	2.318307e+02
2.410000e-06	3.965657e-06	3.598572e-09	5.682065e+01	2.317998e+02
2.420000e-06	3.961244e-06	3.626888e-09	5.675743e+01	2.317519e+02
2.430000e-06	3.956381e-06	3.582433e-09	5.668774e+01	2.316830e+02
2.440000e-06	3.950463e-06	3.468870e-09	5.660294e+01	2.315889e+02
2.450000e-06	3.943100e-06	3.521841e-09	5.649745e+01	2.314651e+02
2.460000e-06	3.934807e-06	3.724138e-09	5.637863e+01	2.313071e+02
2.470000e-06	3.926364e-06	3.711780e-09	5.625766e+01	2.311108e+02
2.480000e-06	3.917742e-06	3.462302e-09	5.613411e+01	2.308728e+02
2.490000e-06	3.908047e-06	3.453547e-09	5.599520e+01	2.305901e+02
2.500000e-06	3.897291e-06	3.552201e-09	5.584109e+01	2.302610e+02
2.510000e-06	3.886508e-06	3.523425e-09	5.568660e+01	2.298849e+02
2.520000e-06	3.875322e-06	3.534948e-09	5.552632e+01	2.294623e+02
2.530000e-06	3.862569e-06	3.550749e-09	5.534358e+01	2.289952e+02
2.540000e-06	3.848872e-06	3.356830e-09	5.514734e+01	2.284865e+02
2.550000e-06	3.835242e-06	3.449703e-09	5.495205e+01	2.279407e+02
2.560000e-06	3.820705e-06	3.771583e-09	5.474376e+01	2.273631e+02
2.570000e-06	3.804768e-06	3.474879e-09	5.451541e+01	2.267597e+02
2.580000e-06	3.788330e-06	3.156695e-09	5.427988e+01	2.261375e+02
2.590000e-06	3.771435e-06	3.509599e-09	5.403780e+01	2.255032e+02
2.600000e-06	3.753712e-06	3.616190e-09	5.378387e+01	2.248640e+02
2.610000e-06	3.735291e-06	3.140138e-09	5.351993e+01	2.242264e+02
2.620000e-06	3.716291e-06	3.235946e-09	5.324769e+01	2.235963e+02
2.630000e-06	3.696647e-06	3.522518e-09	5.296622e+01	2.229789e+02
2.640000e-06	3.676407e-06	3.292969e-09	5.267622e+01	2.223779e+02
2.650000e-06	3.655706e-06	3.294206e-09	5.237962e+01	2.217959e+02
2.660000e-06	3.634613e-06	3.468126e-09	5.207740e+01	2.212341e+02
2.670000e-06	3.612574e-06	3.314034e-09	5.176162e+01	2.206921e+02
2.680000e-06	3.589146e-06	3.212638e-09	5.142594e+01	2.201682e+02
2.690000e-06	3.565021e-06	3.369111e-09	5.108027e+01	2.196594e+02
2.700000e-06	3.540589e-06	3.454521e-09	5.073020e+01	2.191615e+02
2.710000e-06	3.515380e-06	3.271839e-09	5.036900e+01	2.186697e+02
2.720000e-06	3.489485e-06	3.122348e-09	4.999798e+01	2.181783e+02
2.730000e-06	3.463331e-06	3.369636e-09	4.962323e+01	2.176813e+02
2.740000e-06	3.436527e-06	3.478297e-09	4.923918e+01	2.171729e+02
2.750000e-06	3.408857e-06	3.130046e-09	4.884272e+01	2.166474e+02
2.760000e-06	3.380747e-06	3.155062e-09	4.843996e+01	2.160998e+02
2.770000e-06	3.352374e-06	3.430991e-09	4.803342e+01	2.155256e+02
2.780000e-06	3.323493e-06	3.267154e-09	4.761961e+01	2.149214e+02
2.790000e-06	3.293877e-06	3.140217e-09	4.719527e+01	2.142848e+02
2.800000e-06	3.263479e-06	3.266883e-09	4.675972e+01	2.136143e+02
2.810000e-06	3.232232e-06	3.267806e-09	4.631201e+01	2.129097e+02
2.820000e-06	3.200257e-06	3.192624e-09	4.585386e+01	2.121713e+02
2.830000e-06	3.167884e-06	3.171804e-09	4.539002e+01	2.114004e+02
2.840000e-06	3.135169e-06	3.220846e-09	4.492127e+01	2.105990e+02
2.850000e-06	3.101784e-06	3.200399e-09	4.444292e+01	2.097693e+02
2.860000e-06	3.067763e-06	3.109358e-09	4.395547e+01	2.089136e+02
2.870000e-06	3.033493e-06	3.163734e-09	4.346444e+01	2.080343e+02
2.880000e-06	2.998877e-06	3.181478e-09	4.296845e+01	2.071333e+02
2.890000e-06	2.963555e-06	3.077300e-09	4.246235e+01	2.062124e+02
2.900000e-06	2.927608e-06	3.073117e-09	4.194730e+01	2.052723e+02
2.910000e-06	2.891368e-06	3.136964e-09	4.142804e+01	2.043136e+02
2.920000e-06	2.854879e-06	3.100478e-09	4.090522e+01	2.033358e+02
2.930000e-06	2.817958e-06	3.001851e-09	4.037621e+01	2.023379e+02
2.940000e-06	2.780439e-06	3.037599e-09	3.983863e+01	2.013183e+02
2.950000e-06	2.742091e-06	3.100551e-09	3.928918e+01	2.002749e+02
