# Temperatura_=_20.0
# Concentracion g/m^3_=_9000.0
# C_Vs_to_Am_M_A/Vsm_=_65563218390.804596
# pendiente_HvsI_1/m_=_3716.3
# ordenada_HvsI_A/m_=_1297.0
# frecuencia_Hz_=_212897.543310377

Tiempo_(s)	Campo_(V.s)	Magnetizacion_(V.s)	Campo_(kA/m)	Magnetizacion_(A/m)
0.000000e+00	-3.982965e-06	-3.441505e-09	-5.697969e+01	-2.299712e+02
1.000000e-08	-3.982795e-06	-3.440770e-09	-5.697726e+01	-2.300266e+02
2.000000e-08	-3.981933e-06	-3.438466e-09	-5.696493e+01	-2.300641e+02
3.000000e-08	-3.980158e-06	-3.438260e-09	-5.693954e+01	-2.300810e+02
4.000000e-08	-3.977449e-06	-3.437956e-09	-5.690077e+01	-2.300744e+02
5.000000e-08	-3.974019e-06	-3.436775e-09	-5.685171e+01	-2.300417e+02
6.000000e-08	-3.970065e-06	-3.440380e-09	-5.679514e+01	-2.299806e+02
7.000000e-08	-3.965579e-06	-3.453983e-09	-5.673097e+01	-2.298894e+02
8.000000e-08	-3.960368e-06	-3.442437e-09	-5.665642e+01	-2.297667e+02
9.000000e-08	-3.954263e-06	-3.394215e-09	-5.656908e+01	-2.296121e+02
1.000000e-07	-3.947317e-06	-3.397206e-09	-5.646972e+01	-2.294257e+02
1.100000e-07	-3.939802e-06	-3.486151e-09	-5.636221e+01	-2.292081e+02
1.200000e-07	-3.931906e-06	-3.520871e-09	-5.624924e+01	-2.289609e+02
1.300000e-07	-3.923370e-06	-3.372474e-09	-5.612713e+01	-2.286860e+02
1.400000e-07	-3.913950e-06	-3.352595e-09	-5.599237e+01	-2.283860e+02
1.500000e-07	-3.903733e-06	-3.446115e-09	-5.584620e+01	-2.280637e+02
1.600000e-07	-3.892711e-06	-3.475002e-09	-5.568852e+01	-2.277221e+02
1.700000e-07	-3.880689e-06	-3.447738e-09	-5.551654e+01	-2.273645e+02
1.800000e-07	-3.867812e-06	-3.425664e-09	-5.533232e+01	-2.269940e+02
1.900000e-07	-3.854474e-06	-3.419238e-09	-5.514152e+01	-2.266133e+02
2.000000e-07	-3.840382e-06	-3.439345e-09	-5.493992e+01	-2.262252e+02
2.100000e-07	-3.825136e-06	-3.617752e-09	-5.472181e+01	-2.258318e+02
2.200000e-07	-3.809033e-06	-3.548992e-09	-5.449144e+01	-2.254347e+02
2.300000e-07	-3.792358e-06	-3.359188e-09	-5.425289e+01	-2.250351e+02
2.400000e-07	-3.775061e-06	-3.461427e-09	-5.400545e+01	-2.246335e+02
2.500000e-07	-3.757072e-06	-3.634774e-09	-5.374809e+01	-2.242299e+02
2.600000e-07	-3.738492e-06	-3.486013e-09	-5.348229e+01	-2.238236e+02
2.700000e-07	-3.719354e-06	-3.313537e-09	-5.320851e+01	-2.234137e+02
2.800000e-07	-3.699680e-06	-3.462676e-09	-5.292705e+01	-2.229986e+02
2.900000e-07	-3.679511e-06	-3.537443e-09	-5.263852e+01	-2.225766e+02
3.000000e-07	-3.658717e-06	-3.455973e-09	-5.234104e+01	-2.221455e+02
3.100000e-07	-3.637272e-06	-3.399857e-09	-5.203426e+01	-2.217032e+02
3.200000e-07	-3.615157e-06	-3.396338e-09	-5.171788e+01	-2.212476e+02
3.300000e-07	-3.592385e-06	-3.406070e-09	-5.139211e+01	-2.207764e+02
3.400000e-07	-3.569045e-06	-3.426363e-09	-5.105821e+01	-2.202876e+02
3.500000e-07	-3.545143e-06	-3.445511e-09	-5.071628e+01	-2.197796e+02
3.600000e-07	-3.520724e-06	-3.367404e-09	-5.036694e+01	-2.192507e+02
3.700000e-07	-3.495682e-06	-3.284731e-09	-5.000869e+01	-2.186998e+02
3.800000e-07	-3.469640e-06	-3.401571e-09	-4.963614e+01	-2.181259e+02
3.900000e-07	-3.442554e-06	-3.483087e-09	-4.924865e+01	-2.175287e+02
4.000000e-07	-3.414888e-06	-3.309980e-09	-4.885286e+01	-2.169078e+02
4.100000e-07	-3.386897e-06	-3.235763e-09	-4.845243e+01	-2.162635e+02
4.200000e-07	-3.358363e-06	-3.391782e-09	-4.804423e+01	-2.155961e+02
4.300000e-07	-3.329127e-06	-3.419031e-09	-4.762598e+01	-2.149062e+02
4.400000e-07	-3.299381e-06	-3.265277e-09	-4.720043e+01	-2.141946e+02
4.500000e-07	-3.269198e-06	-3.245936e-09	-4.676865e+01	-2.134621e+02
4.600000e-07	-3.238476e-06	-3.321599e-09	-4.632915e+01	-2.127097e+02
4.700000e-07	-3.207225e-06	-3.310342e-09	-4.588207e+01	-2.119382e+02
4.800000e-07	-3.175586e-06	-3.269061e-09	-4.542945e+01	-2.111484e+02
4.900000e-07	-3.143580e-06	-3.239498e-09	-4.497158e+01	-2.103409e+02
5.000000e-07	-3.111105e-06	-3.230098e-09	-4.450699e+01	-2.095162e+02
5.100000e-07	-3.077914e-06	-3.242991e-09	-4.403216e+01	-2.086743e+02
5.200000e-07	-3.043715e-06	-3.241870e-09	-4.354293e+01	-2.078152e+02
5.300000e-07	-3.008675e-06	-3.203860e-09	-4.304164e+01	-2.069384e+02
5.400000e-07	-2.973170e-06	-3.159198e-09	-4.253372e+01	-2.060434e+02
5.500000e-07	-2.937359e-06	-3.168476e-09	-4.202140e+01	-2.051291e+02
5.600000e-07	-2.901170e-06	-3.193362e-09	-4.150370e+01	-2.041942e+02
5.700000e-07	-2.864484e-06	-3.159971e-09	-4.097886e+01	-2.032374e+02
5.800000e-07	-2.827269e-06	-3.098697e-09	-4.044647e+01	-2.022568e+02
5.900000e-07	-2.789559e-06	-3.091290e-09	-3.990701e+01	-2.012508e+02
6.000000e-07	-2.751357e-06	-3.132330e-09	-3.936049e+01	-2.002175e+02
6.100000e-07	-2.712629e-06	-3.102452e-09	-3.880646e+01	-1.991550e+02
6.200000e-07	-2.673479e-06	-3.028878e-09	-3.824638e+01	-1.980616e+02
6.300000e-07	-2.633975e-06	-3.028049e-09	-3.768125e+01	-1.969355e+02
6.400000e-07	-2.594167e-06	-3.048856e-09	-3.711175e+01	-1.957754e+02
6.500000e-07	-2.554067e-06	-3.018890e-09	-3.653809e+01	-1.945799e+02
6.600000e-07	-2.513438e-06	-2.970544e-09	-3.595686e+01	-1.933481e+02
6.700000e-07	-2.472037e-06	-2.956438e-09	-3.536459e+01	-1.920792e+02
6.800000e-07	-2.429890e-06	-2.953651e-09	-3.476163e+01	-1.907730e+02
6.900000e-07	-2.387118e-06	-2.933101e-09	-3.414974e+01	-1.894292e+02
7.000000e-07	-2.343844e-06	-2.908721e-09	-3.353068e+01	-1.880479e+02
7.100000e-07	-2.300240e-06	-2.870801e-09	-3.290689e+01	-1.866295e+02
7.200000e-07	-2.256346e-06	-2.844604e-09	-3.227894e+01	-1.851745e+02
7.300000e-07	-2.212129e-06	-2.844507e-09	-3.164637e+01	-1.836833e+02
7.400000e-07	-2.167520e-06	-2.822181e-09	-3.100821e+01	-1.821565e+02
7.500000e-07	-2.122511e-06	-2.772907e-09	-3.036432e+01	-1.805944e+02
7.600000e-07	-2.077147e-06	-2.739724e-09	-2.971535e+01	-1.789975e+02
7.700000e-07	-2.031419e-06	-2.740679e-09	-2.906117e+01	-1.773657e+02
7.800000e-07	-1.985317e-06	-2.728498e-09	-2.840165e+01	-1.756987e+02
7.900000e-07	-1.938907e-06	-2.679163e-09	-2.773770e+01	-1.739961e+02
8.000000e-07	-1.892136e-06	-2.639592e-09	-2.706860e+01	-1.722568e+02
8.100000e-07	-1.845037e-06	-2.628504e-09	-2.639481e+01	-1.704796e+02
8.200000e-07	-1.797754e-06	-2.616968e-09	-2.571840e+01	-1.686627e+02
8.300000e-07	-1.750245e-06	-2.574593e-09	-2.503874e+01	-1.668042e+02
8.400000e-07	-1.702505e-06	-2.524321e-09	-2.435578e+01	-1.649018e+02
8.500000e-07	-1.654576e-06	-2.500365e-09	-2.367012e+01	-1.629528e+02
8.600000e-07	-1.606336e-06	-2.481582e-09	-2.298000e+01	-1.609547e+02
8.700000e-07	-1.557593e-06	-2.450218e-09	-2.228268e+01	-1.589044e+02
8.800000e-07	-1.508330e-06	-2.409064e-09	-2.157794e+01	-1.567991e+02
8.900000e-07	-1.458714e-06	-2.371459e-09	-2.086813e+01	-1.546358e+02
9.000000e-07	-1.408733e-06	-2.346622e-09	-2.015312e+01	-1.524118e+02
9.100000e-07	-1.358276e-06	-2.318854e-09	-1.943130e+01	-1.501240e+02
9.200000e-07	-1.307502e-06	-2.277763e-09	-1.870493e+01	-1.477698e+02
9.300000e-07	-1.256472e-06	-2.225473e-09	-1.797489e+01	-1.453465e+02
9.400000e-07	-1.205188e-06	-2.185596e-09	-1.724124e+01	-1.428514e+02
9.500000e-07	-1.153709e-06	-2.161283e-09	-1.650479e+01	-1.402819e+02
9.600000e-07	-1.101995e-06	-2.120356e-09	-1.576498e+01	-1.376353e+02
9.700000e-07	-1.050019e-06	-2.065689e-09	-1.502141e+01	-1.349088e+02
9.800000e-07	-9.978318e-07	-2.019761e-09	-1.427483e+01	-1.320992e+02
9.900000e-07	-9.454915e-07	-1.987214e-09	-1.352606e+01	-1.292035e+02
1.000000e-06	-8.929574e-07	-1.948841e-09	-1.277451e+01	-1.262179e+02
1.010000e-06	-8.401800e-07	-1.893955e-09	-1.201949e+01	-1.231386e+02
1.020000e-06	-7.872256e-07	-1.839340e-09	-1.126193e+01	-1.199612e+02
1.030000e-06	-7.342188e-07	-1.788816e-09	-1.050362e+01	-1.166813e+02
1.040000e-06	-6.811213e-07	-1.738245e-09	-9.744017e+00	-1.132936e+02
1.050000e-06	-6.278401e-07	-1.682877e-09	-8.981785e+00	-1.097932e+02
1.060000e-06	-5.744474e-07	-1.622570e-09	-8.217957e+00	-1.061745e+02
1.070000e-06	-5.209916e-07	-1.565451e-09	-7.453226e+00	-1.024322e+02
1.080000e-06	-4.674547e-07	-1.507705e-09	-6.687335e+00	-9.856082e+01
1.090000e-06	-4.138529e-07	-1.447788e-09	-5.920516e+00	-9.455542e+01
1.100000e-06	-3.601677e-07	-1.383518e-09	-5.152504e+00	-9.041131e+01
1.110000e-06	-3.064483e-07	-1.313614e-09	-4.384002e+00	-8.612445e+01
1.120000e-06	-2.527142e-07	-1.246638e-09	-3.615291e+00	-8.169158e+01
1.130000e-06	-1.989321e-07	-1.178796e-09	-2.845893e+00	-7.711039e+01
1.140000e-06	-1.451373e-07	-1.103083e-09	-2.076312e+00	-7.237964e+01
1.150000e-06	-9.132728e-08	-1.022900e-09	-1.306514e+00	-6.749931e+01
1.160000e-06	-3.753659e-08	-9.473831e-10	-5.369927e-01	-6.247066e+01
1.170000e-06	1.626716e-08	-8.742513e-10	2.327156e-01	-5.729632e+01
1.180000e-06	7.010712e-08	-7.913023e-10	1.002942e+00	-5.198031e+01
1.190000e-06	1.238969e-07	-7.040479e-10	1.772451e+00	-4.652803e+01
1.200000e-06	1.776507e-07	-6.202366e-10	2.541444e+00	-4.094624e+01
1.210000e-06	2.313693e-07	-5.345471e-10	3.309934e+00	-3.524298e+01
1.220000e-06	2.850176e-07	-4.437664e-10	4.077418e+00	-2.942752e+01
1.230000e-06	3.386058e-07	-3.478283e-10	4.844043e+00	-2.351022e+01
1.240000e-06	3.921146e-07	-2.545097e-10	5.609531e+00	-1.750246e+01
1.250000e-06	4.455370e-07	-1.637422e-10	6.373785e+00	-1.141647e+01
1.260000e-06	4.989407e-07	-7.047634e-11	7.137770e+00	-5.265263e+00
1.270000e-06	5.522702e-07	2.239113e-11	7.900693e+00	9.375527e-01
1.280000e-06	6.054721e-07	1.185546e-10	8.661791e+00	7.177855e+00
1.290000e-06	6.585807e-07	2.111164e-10	9.421555e+00	1.344114e+01
1.300000e-06	7.115499e-07	3.026232e-10	1.017932e+01	1.971265e+01
1.310000e-06	7.644010e-07	3.988933e-10	1.093540e+01	2.597747e+01
1.320000e-06	8.171321e-07	4.988551e-10	1.168977e+01	3.222064e+01
1.330000e-06	8.697036e-07	5.959359e-10	1.244185e+01	3.842730e+01
1.340000e-06	9.221008e-07	6.878694e-10	1.319143e+01	4.458276e+01
1.350000e-06	9.742891e-07	7.831539e-10	1.393803e+01	5.067267e+01
1.360000e-06	1.026301e-06	8.787366e-10	1.468211e+01	5.668310e+01
1.370000e-06	1.078135e-06	9.705783e-10	1.542363e+01	6.260073e+01
1.380000e-06	1.129817e-06	1.056940e-09	1.616298e+01	6.841296e+01
1.390000e-06	1.181329e-06	1.141781e-09	1.689991e+01	7.410805e+01
1.400000e-06	1.232617e-06	1.230063e-09	1.763364e+01	7.967531e+01
1.410000e-06	1.283641e-06	1.314778e-09	1.836357e+01	8.510519e+01
1.420000e-06	1.334338e-06	1.393431e-09	1.908883e+01	9.038945e+01
1.430000e-06	1.384675e-06	1.471052e-09	1.980895e+01	9.552130e+01
1.440000e-06	1.434683e-06	1.548072e-09	2.052436e+01	1.004954e+02
1.450000e-06	1.484252e-06	1.623215e-09	2.123349e+01	1.053081e+02
1.460000e-06	1.533283e-06	1.692057e-09	2.193491e+01	1.099573e+02
1.470000e-06	1.581901e-06	1.757511e-09	2.263043e+01	1.144425e+02
1.480000e-06	1.630083e-06	1.820354e-09	2.331971e+01	1.187648e+02
1.490000e-06	1.677958e-06	1.880089e-09	2.400462e+01	1.229266e+02
1.500000e-06	1.725701e-06	1.940747e-09	2.468762e+01	1.269319e+02
1.510000e-06	1.773274e-06	1.998232e-09	2.536819e+01	1.307855e+02
1.520000e-06	1.820596e-06	2.053244e-09	2.604516e+01	1.344935e+02
1.530000e-06	1.867620e-06	2.109268e-09	2.671789e+01	1.380623e+02
1.540000e-06	1.914321e-06	2.163491e-09	2.738598e+01	1.414989e+02
1.550000e-06	1.960587e-06	2.214708e-09	2.804785e+01	1.448107e+02
1.560000e-06	2.006430e-06	2.260761e-09	2.870367e+01	1.480047e+02
1.570000e-06	2.051971e-06	2.304726e-09	2.935519e+01	1.510877e+02
1.580000e-06	2.097210e-06	2.348802e-09	3.000236e+01	1.540660e+02
1.590000e-06	2.142042e-06	2.393380e-09	3.064372e+01	1.569453e+02
1.600000e-06	2.186446e-06	2.436100e-09	3.127896e+01	1.597306e+02
1.610000e-06	2.230525e-06	2.475254e-09	3.190955e+01	1.624258e+02
1.620000e-06	2.274361e-06	2.514435e-09	3.253666e+01	1.650342e+02
1.630000e-06	2.318007e-06	2.554027e-09	3.316105e+01	1.675583e+02
1.640000e-06	2.361392e-06	2.591277e-09	3.378171e+01	1.699997e+02
1.650000e-06	2.404340e-06	2.624711e-09	3.439612e+01	1.723595e+02
1.660000e-06	2.446699e-06	2.657601e-09	3.500210e+01	1.746385e+02
1.670000e-06	2.488341e-06	2.691025e-09	3.559782e+01	1.768371e+02
1.680000e-06	2.529205e-06	2.722551e-09	3.618242e+01	1.789558e+02
1.690000e-06	2.569465e-06	2.752069e-09	3.675838e+01	1.809951e+02
1.700000e-06	2.609356e-06	2.782051e-09	3.732904e+01	1.829558e+02
1.710000e-06	2.648939e-06	2.811755e-09	3.789532e+01	1.848391e+02
1.720000e-06	2.688207e-06	2.839627e-09	3.845708e+01	1.866468e+02
1.730000e-06	2.727120e-06	2.866971e-09	3.901376e+01	1.883812e+02
1.740000e-06	2.765553e-06	2.893973e-09	3.956358e+01	1.900452e+02
1.750000e-06	2.803465e-06	2.918423e-09	4.010594e+01	1.916423e+02
1.760000e-06	2.840912e-06	2.941229e-09	4.064165e+01	1.931763e+02
1.770000e-06	2.877846e-06	2.965410e-09	4.117002e+01	1.946516e+02
1.780000e-06	2.914259e-06	2.991000e-09	4.169094e+01	1.960727e+02
1.790000e-06	2.950258e-06	3.015896e-09	4.220594e+01	1.974440e+02
1.800000e-06	2.985941e-06	3.038541e-09	4.271642e+01	1.987701e+02
1.810000e-06	3.021317e-06	3.058771e-09	4.322249e+01	2.000552e+02
1.820000e-06	3.056154e-06	3.078824e-09	4.372087e+01	2.013029e+02
1.830000e-06	3.090247e-06	3.098237e-09	4.420860e+01	2.025165e+02
1.840000e-06	3.123481e-06	3.116962e-09	4.468404e+01	2.036986e+02
1.850000e-06	3.155884e-06	3.135556e-09	4.514759e+01	2.048510e+02
1.860000e-06	3.187785e-06	3.155450e-09	4.560396e+01	2.059751e+02
1.870000e-06	3.219335e-06	3.175811e-09	4.605531e+01	2.070714e+02
1.880000e-06	3.250358e-06	3.194534e-09	4.649912e+01	2.081398e+02
1.890000e-06	3.280776e-06	3.211773e-09	4.693428e+01	2.091800e+02
1.900000e-06	3.310637e-06	3.226775e-09	4.736147e+01	2.101912e+02
1.910000e-06	3.339916e-06	3.242191e-09	4.778032e+01	2.111722e+02
1.920000e-06	3.368620e-06	3.257365e-09	4.819096e+01	2.121222e+02
1.930000e-06	3.396813e-06	3.271523e-09	4.859429e+01	2.130401e+02
1.940000e-06	3.424596e-06	3.285245e-09	4.899174e+01	2.139253e+02
1.950000e-06	3.451950e-06	3.299441e-09	4.938307e+01	2.147773e+02
1.960000e-06	3.478695e-06	3.314832e-09	4.976568e+01	2.155962e+02
1.970000e-06	3.504550e-06	3.329831e-09	5.013555e+01	2.163825e+02
1.980000e-06	3.529387e-06	3.345070e-09	5.049088e+01	2.171370e+02
1.990000e-06	3.553446e-06	3.359000e-09	5.083506e+01	2.178612e+02
2.000000e-06	3.576984e-06	3.369752e-09	5.117179e+01	2.185566e+02
2.010000e-06	3.599985e-06	3.380662e-09	5.150084e+01	2.192252e+02
2.020000e-06	3.622342e-06	3.392661e-09	5.182066e+01	2.198690e+02
2.030000e-06	3.644072e-06	3.403830e-09	5.213153e+01	2.204900e+02
2.040000e-06	3.665261e-06	3.414142e-09	5.243466e+01	2.210902e+02
2.050000e-06	3.685919e-06	3.424906e-09	5.273019e+01	2.216712e+02
2.060000e-06	3.706025e-06	3.436644e-09	5.301783e+01	2.222342e+02
2.070000e-06	3.725629e-06	3.448046e-09	5.329827e+01	2.227803e+02
2.080000e-06	3.744660e-06	3.458684e-09	5.357054e+01	2.233098e+02
2.090000e-06	3.762969e-06	3.467789e-09	5.383246e+01	2.238227e+02
2.100000e-06	3.780573e-06	3.476874e-09	5.408430e+01	2.243186e+02
2.110000e-06	3.797572e-06	3.485824e-09	5.432749e+01	2.247966e+02
2.120000e-06	3.814024e-06	3.491598e-09	5.456284e+01	2.252555e+02
2.130000e-06	3.829821e-06	3.495900e-09	5.478883e+01	2.256940e+02
2.140000e-06	3.844762e-06	3.502028e-09	5.500257e+01	2.261108e+02
2.150000e-06	3.858864e-06	3.509691e-09	5.520432e+01	2.265046e+02
2.160000e-06	3.872269e-06	3.517097e-09	5.539608e+01	2.268743e+02
2.170000e-06	3.884991e-06	3.523264e-09	5.557809e+01	2.272191e+02
2.180000e-06	3.897036e-06	3.531122e-09	5.575040e+01	2.275386e+02
2.190000e-06	3.908404e-06	3.537902e-09	5.591303e+01	2.278329e+02
2.200000e-06	3.918880e-06	3.542884e-09	5.606290e+01	2.281026e+02
2.210000e-06	3.928335e-06	3.546645e-09	5.619816e+01	2.283487e+02
2.220000e-06	3.936828e-06	3.551096e-09	5.631966e+01	2.285727e+02
2.230000e-06	3.944616e-06	3.555278e-09	5.643107e+01	2.287766e+02
2.240000e-06	3.951887e-06	3.560008e-09	5.653510e+01	2.289623e+02
2.250000e-06	3.958514e-06	3.566065e-09	5.662990e+01	2.291320e+02
2.260000e-06	3.964467e-06	3.568101e-09	5.671506e+01	2.292881e+02
2.270000e-06	3.969761e-06	3.569293e-09	5.679080e+01	2.294324e+02
2.280000e-06	3.974349e-06	3.571787e-09	5.685643e+01	2.295667e+02
2.290000e-06	3.978354e-06	3.575080e-09	5.691372e+01	2.296923e+02
2.300000e-06	3.981829e-06	3.577234e-09	5.696343e+01	2.298099e+02
2.310000e-06	3.984567e-06	3.580270e-09	5.700260e+01	2.299198e+02
2.320000e-06	3.986361e-06	3.583365e-09	5.702826e+01	2.300215e+02
2.330000e-06	3.987180e-06	3.585884e-09	5.703998e+01	2.301139e+02
2.340000e-06	3.987286e-06	3.588646e-09	5.704150e+01	2.301954e+02
2.350000e-06	3.986865e-06	3.589866e-09	5.703549e+01	2.302640e+02
2.360000e-06	3.985852e-06	3.591653e-09	5.702099e+01	2.303170e+02
2.370000e-06	3.984151e-06	3.592816e-09	5.699666e+01	2.303517e+02
2.380000e-06	3.981812e-06	3.591295e-09	5.696319e+01	2.303653e+02
2.390000e-06	3.978827e-06	3.590495e-09	5.692049e+01	2.303550e+02
2.400000e-06	3.975227e-06	3.590745e-09	5.686898e+01	2.303183e+02
2.410000e-06	3.971160e-06	3.574580e-09	5.681081e+01	2.302529e+02
2.420000e-06	3.966668e-06	3.572967e-09	5.674654e+01	2.301571e+02
2.430000e-06	3.961447e-06	3.617780e-09	5.667185e+01	2.300297e+02
2.440000e-06	3.955028e-06	3.631239e-09	5.658002e+01	2.298704e+02
2.450000e-06	3.947430e-06	3.538933e-09	5.647133e+01	2.296793e+02
2.460000e-06	3.939177e-06	3.486975e-09	5.635327e+01	2.294573e+02
2.470000e-06	3.930686e-06	3.616809e-09	5.623179e+01	2.292059e+02
2.480000e-06	3.921741e-06	3.644250e-09	5.610382e+01	2.289271e+02
2.490000e-06	3.911849e-06	3.545857e-09	5.596232e+01	2.286237e+02
2.500000e-06	3.901158e-06	3.498795e-09	5.580937e+01	2.282984e+02
2.510000e-06	3.890192e-06	3.530685e-09	5.565249e+01	2.279543e+02
2.520000e-06	3.878482e-06	3.499526e-09	5.548497e+01	2.275946e+02
2.530000e-06	3.865415e-06	3.517872e-09	5.529804e+01	2.272225e+02
2.540000e-06	3.851658e-06	3.531161e-09	5.510123e+01	2.268407e+02
2.550000e-06	3.837619e-06	3.334941e-09	5.490039e+01	2.264517e+02
2.560000e-06	3.822689e-06	3.364000e-09	5.468681e+01	2.260577e+02
2.570000e-06	3.806726e-06	3.563812e-09	5.445844e+01	2.256603e+02
2.580000e-06	3.790217e-06	3.431080e-09	5.422227e+01	2.252605e+02
2.590000e-06	3.773153e-06	3.178925e-09	5.397815e+01	2.248587e+02
2.600000e-06	3.755282e-06	3.368427e-09	5.372249e+01	2.244548e+02
2.610000e-06	3.736729e-06	3.503153e-09	5.345707e+01	2.240481e+02
2.620000e-06	3.717554e-06	3.286046e-09	5.318276e+01	2.236376e+02
2.630000e-06	3.697741e-06	3.284030e-09	5.289932e+01	2.232217e+02
2.640000e-06	3.677341e-06	3.392844e-09	5.260748e+01	2.227985e+02
2.650000e-06	3.656403e-06	3.339677e-09	5.230795e+01	2.223660e+02
2.660000e-06	3.634874e-06	3.309098e-09	5.199996e+01	2.219219e+02
2.670000e-06	3.612440e-06	3.350396e-09	5.167901e+01	2.214642e+02
2.680000e-06	3.588988e-06	3.309398e-09	5.134351e+01	2.209906e+02
2.690000e-06	3.564884e-06	3.235048e-09	5.099868e+01	2.204991e+02
2.700000e-06	3.540276e-06	3.300848e-09	5.064665e+01	2.199881e+02
2.710000e-06	3.514949e-06	3.377673e-09	5.028432e+01	2.194561e+02
2.720000e-06	3.489037e-06	3.271623e-09	4.991363e+01	2.189018e+02
2.730000e-06	3.462700e-06	3.149625e-09	4.953686e+01	2.183246e+02
2.740000e-06	3.435683e-06	3.277831e-09	4.915035e+01	2.177239e+02
2.750000e-06	3.407956e-06	3.375468e-09	4.875370e+01	2.170996e+02
2.760000e-06	3.379803e-06	3.186769e-09	4.835094e+01	2.164519e+02
2.770000e-06	3.351267e-06	3.133557e-09	4.794271e+01	2.157812e+02
2.780000e-06	3.322027e-06	3.279806e-09	4.752441e+01	2.150880e+02
2.790000e-06	3.291949e-06	3.259737e-09	4.709412e+01	2.143733e+02
2.800000e-06	3.261138e-06	3.165770e-09	4.665335e+01	2.136379e+02
2.810000e-06	3.229655e-06	3.165926e-09	4.620295e+01	2.128827e+02
2.820000e-06	3.197611e-06	3.200753e-09	4.574453e+01	2.121085e+02
2.830000e-06	3.165147e-06	3.186119e-09	4.528010e+01	2.113161e+02
2.840000e-06	3.132296e-06	3.137216e-09	4.481015e+01	2.105061e+02
2.850000e-06	3.098889e-06	3.145700e-09	4.433223e+01	2.096788e+02
2.860000e-06	3.064927e-06	3.136233e-09	4.384638e+01	2.088344e+02
2.870000e-06	3.030551e-06	3.102025e-09	4.335460e+01	2.079728e+02
2.880000e-06	2.995679e-06	3.116428e-09	4.285572e+01	2.070935e+02
2.890000e-06	2.960215e-06	3.108548e-09	4.234838e+01	2.061957e+02
2.900000e-06	2.924272e-06	3.058524e-09	4.183419e+01	2.052785e+02
2.910000e-06	2.888003e-06	3.041712e-09	4.131533e+01	2.043405e+02
2.920000e-06	2.851360e-06	3.077036e-09	4.079112e+01	2.033803e+02
2.930000e-06	2.814069e-06	3.058366e-09	4.025764e+01	2.023961e+02
2.940000e-06	2.776018e-06	2.982905e-09	3.971329e+01	2.013863e+02
2.950000e-06	2.737183e-06	2.994623e-09	3.915772e+01	2.003488e+02
