# Temperatura_=_20.0
# Concentracion g/m^3_=_9000.0
# C_Vs_to_Am_M_A/Vsm_=_65563218390.804596
# pendiente_HvsI_1/m_=_3716.3
# ordenada_HvsI_A/m_=_1297.0
# frecuencia_Hz_=_212868.8403739092
# Promedio de 27 ciclos

Tiempo_(s)	Campo_(V.s)	Magnetizacion_(V.s)	Campo_(kA/m)	Magnetizacion_(A/m)
0.000000e+00	-3.972169e-09	-3.447642e-09	-5.698697e+01	-2.302968e+02
1.000000e-08	-3.972010e-09	-3.447178e-09	-5.698469e+01	-2.302493e+02
2.000000e-08	-3.971072e-09	-3.446375e-09	-5.697124e+01	-2.301864e+02
3.000000e-08	-3.969161e-09	-3.445786e-09	-5.694381e+01	-2.301126e+02
4.000000e-08	-3.966339e-09	-3.444488e-09	-5.690332e+01	-2.300323e+02
5.000000e-08	-3.962877e-09	-3.443368e-09	-5.685366e+01	-2.299497e+02
6.000000e-08	-3.958942e-09	-3.445661e-09	-5.679720e+01	-2.298682e+02
7.000000e-08	-3.954423e-09	-3.452289e-09	-5.673238e+01	-2.297905e+02
8.000000e-08	-3.949155e-09	-3.443028e-09	-5.665680e+01	-2.297179e+02
9.000000e-08	-3.943027e-09	-3.422310e-09	-5.656888e+01	-2.296503e+02
1.000000e-07	-3.936085e-09	-3.425306e-09	-5.646929e+01	-2.295864e+02
1.100000e-07	-3.928607e-09	-3.465849e-09	-5.636201e+01	-2.295230e+02
1.200000e-07	-3.920726e-09	-3.448506e-09	-5.624894e+01	-2.294558e+02
1.300000e-07	-3.912171e-09	-3.392371e-09	-5.612620e+01	-2.293791e+02
1.400000e-07	-3.902731e-09	-3.417644e-09	-5.599078e+01	-2.292863e+02
1.500000e-07	-3.892520e-09	-3.464334e-09	-5.584429e+01	-2.291702e+02
1.600000e-07	-3.881476e-09	-3.462039e-09	-5.568584e+01	-2.290235e+02
1.700000e-07	-3.869401e-09	-3.448526e-09	-5.551261e+01	-2.288390e+02
1.800000e-07	-3.856619e-09	-3.475764e-09	-5.532923e+01	-2.286102e+02
1.900000e-07	-3.843389e-09	-3.434537e-09	-5.513942e+01	-2.283319e+02
2.000000e-07	-3.829120e-09	-3.446836e-09	-5.493472e+01	-2.280001e+02
2.100000e-07	-3.813552e-09	-3.509986e-09	-5.471136e+01	-2.276127e+02
2.200000e-07	-3.797319e-09	-3.460533e-09	-5.447848e+01	-2.271694e+02
2.300000e-07	-3.780660e-09	-3.423913e-09	-5.423948e+01	-2.266721e+02
2.400000e-07	-3.763342e-09	-3.489915e-09	-5.399103e+01	-2.261244e+02
2.500000e-07	-3.745385e-09	-3.528722e-09	-5.373340e+01	-2.255317e+02
2.600000e-07	-3.726845e-09	-3.442803e-09	-5.346743e+01	-2.249011e+02
2.700000e-07	-3.707721e-09	-3.451406e-09	-5.319306e+01	-2.242405e+02
2.800000e-07	-3.688088e-09	-3.493123e-09	-5.291139e+01	-2.235589e+02
2.900000e-07	-3.667932e-09	-3.475492e-09	-5.262222e+01	-2.228650e+02
3.000000e-07	-3.647137e-09	-3.468796e-09	-5.232389e+01	-2.221678e+02
3.100000e-07	-3.625661e-09	-3.454029e-09	-5.201578e+01	-2.214750e+02
3.200000e-07	-3.603508e-09	-3.435855e-09	-5.169796e+01	-2.207936e+02
3.300000e-07	-3.580726e-09	-3.436564e-09	-5.137111e+01	-2.201288e+02
3.400000e-07	-3.557410e-09	-3.447077e-09	-5.103661e+01	-2.194839e+02
3.500000e-07	-3.533579e-09	-3.434228e-09	-5.069472e+01	-2.188607e+02
3.600000e-07	-3.509202e-09	-3.397530e-09	-5.034499e+01	-2.182586e+02
3.700000e-07	-3.484122e-09	-3.380064e-09	-4.998517e+01	-2.176753e+02
3.800000e-07	-3.458010e-09	-3.417192e-09	-4.961056e+01	-2.171069e+02
3.900000e-07	-3.430946e-09	-3.406854e-09	-4.922229e+01	-2.165480e+02
4.000000e-07	-3.403403e-09	-3.343166e-09	-4.882714e+01	-2.159921e+02
4.100000e-07	-3.375496e-09	-3.342896e-09	-4.842676e+01	-2.154322e+02
4.200000e-07	-3.346986e-09	-3.383778e-09	-4.801775e+01	-2.148610e+02
4.300000e-07	-3.317848e-09	-3.352624e-09	-4.759971e+01	-2.142716e+02
4.400000e-07	-3.288253e-09	-3.311608e-09	-4.717513e+01	-2.136574e+02
4.500000e-07	-3.258141e-09	-3.322835e-09	-4.674312e+01	-2.130132e+02
4.600000e-07	-3.227397e-09	-3.317403e-09	-4.630206e+01	-2.123345e+02
4.700000e-07	-3.196158e-09	-3.301063e-09	-4.585389e+01	-2.116185e+02
4.800000e-07	-3.164590e-09	-3.288454e-09	-4.540099e+01	-2.108636e+02
4.900000e-07	-3.132681e-09	-3.267659e-09	-4.494320e+01	-2.100697e+02
5.000000e-07	-3.100231e-09	-3.254187e-09	-4.447767e+01	-2.092378e+02
5.100000e-07	-3.066970e-09	-3.252586e-09	-4.400049e+01	-2.083701e+02
5.200000e-07	-3.032763e-09	-3.241774e-09	-4.350972e+01	-2.074693e+02
5.300000e-07	-2.997798e-09	-3.213073e-09	-4.300809e+01	-2.065388e+02
5.400000e-07	-2.962404e-09	-3.197988e-09	-4.250031e+01	-2.055819e+02
5.500000e-07	-2.926700e-09	-3.197991e-09	-4.198809e+01	-2.046019e+02
5.600000e-07	-2.890597e-09	-3.184782e-09	-4.147013e+01	-2.036015e+02
5.700000e-07	-2.853995e-09	-3.159033e-09	-4.094502e+01	-2.025827e+02
5.800000e-07	-2.816888e-09	-3.131065e-09	-4.041266e+01	-2.015467e+02
5.900000e-07	-2.779283e-09	-3.127005e-09	-3.987316e+01	-2.004938e+02
6.000000e-07	-2.741155e-09	-3.124861e-09	-3.932615e+01	-1.994231e+02
6.100000e-07	-2.702496e-09	-3.090232e-09	-3.877153e+01	-1.983331e+02
6.200000e-07	-2.663392e-09	-3.061372e-09	-3.821052e+01	-1.972214e+02
6.300000e-07	-2.623975e-09	-3.056940e-09	-3.764502e+01	-1.960850e+02
6.400000e-07	-2.584297e-09	-3.047576e-09	-3.707577e+01	-1.949206e+02
6.500000e-07	-2.544267e-09	-3.018306e-09	-3.650148e+01	-1.937248e+02
6.600000e-07	-2.503671e-09	-2.991765e-09	-3.591907e+01	-1.924943e+02
6.700000e-07	-2.462350e-09	-2.976928e-09	-3.532626e+01	-1.912262e+02
6.800000e-07	-2.420299e-09	-2.958577e-09	-3.472297e+01	-1.899181e+02
6.900000e-07	-2.377603e-09	-2.941495e-09	-3.411043e+01	-1.885682e+02
7.000000e-07	-2.334408e-09	-2.915668e-09	-3.349073e+01	-1.871756e+02
7.100000e-07	-2.290889e-09	-2.881515e-09	-3.286638e+01	-1.857399e+02
7.200000e-07	-2.247136e-09	-2.864437e-09	-3.223868e+01	-1.842617e+02
7.300000e-07	-2.203077e-09	-2.852785e-09	-3.160658e+01	-1.827418e+02
7.400000e-07	-2.158588e-09	-2.825569e-09	-3.096831e+01	-1.811818e+02
7.500000e-07	-2.113672e-09	-2.788402e-09	-3.032393e+01	-1.795832e+02
7.600000e-07	-2.068414e-09	-2.763455e-09	-2.967462e+01	-1.779478e+02
7.700000e-07	-2.022838e-09	-2.748063e-09	-2.902076e+01	-1.762770e+02
7.800000e-07	-1.976929e-09	-2.719805e-09	-2.836213e+01	-1.745719e+02
7.900000e-07	-1.930669e-09	-2.683093e-09	-2.769847e+01	-1.728332e+02
8.000000e-07	-1.884039e-09	-2.651249e-09	-2.702948e+01	-1.710607e+02
8.100000e-07	-1.837075e-09	-2.629394e-09	-2.635571e+01	-1.692538e+02
8.200000e-07	-1.789863e-09	-2.606511e-09	-2.567838e+01	-1.674110e+02
8.300000e-07	-1.742436e-09	-2.571565e-09	-2.499796e+01	-1.655301e+02
8.400000e-07	-1.694794e-09	-2.536828e-09	-2.431446e+01	-1.636084e+02
8.500000e-07	-1.646943e-09	-2.507507e-09	-2.362797e+01	-1.616428e+02
8.600000e-07	-1.598805e-09	-2.478915e-09	-2.293735e+01	-1.596297e+02
8.700000e-07	-1.550265e-09	-2.446304e-09	-2.224097e+01	-1.575657e+02
8.800000e-07	-1.501258e-09	-2.408322e-09	-2.153789e+01	-1.554470e+02
8.900000e-07	-1.451830e-09	-2.372412e-09	-2.082877e+01	-1.532702e+02
9.000000e-07	-1.402026e-09	-2.338289e-09	-2.011427e+01	-1.510321e+02
9.100000e-07	-1.351808e-09	-2.303059e-09	-1.939380e+01	-1.487298e+02
9.200000e-07	-1.301171e-09	-2.263680e-09	-1.866735e+01	-1.463608e+02
9.300000e-07	-1.250190e-09	-2.221837e-09	-1.793595e+01	-1.439229e+02
9.400000e-07	-1.198976e-09	-2.184041e-09	-1.720120e+01	-1.414142e+02
9.500000e-07	-1.147577e-09	-2.142606e-09	-1.646380e+01	-1.388328e+02
9.600000e-07	-1.095976e-09	-2.098136e-09	-1.572351e+01	-1.361769e+02
9.700000e-07	-1.044190e-09	-2.054670e-09	-1.498055e+01	-1.334445e+02
9.800000e-07	-9.922562e-10	-2.011317e-09	-1.423548e+01	-1.306332e+02
9.900000e-07	-9.401642e-10	-1.967505e-09	-1.348814e+01	-1.277404e+02
1.000000e-06	-8.878378e-10	-1.919288e-09	-1.273743e+01	-1.247624e+02
1.010000e-06	-8.352375e-10	-1.870951e-09	-1.198280e+01	-1.216954e+02
1.020000e-06	-7.824497e-10	-1.822678e-09	-1.122548e+01	-1.185344e+02
1.030000e-06	-7.295544e-10	-1.771541e-09	-1.046661e+01	-1.152740e+02
1.040000e-06	-6.765343e-10	-1.717561e-09	-9.705956e+00	-1.119079e+02
1.050000e-06	-6.233785e-10	-1.661565e-09	-8.943353e+00	-1.084297e+02
1.060000e-06	-5.701270e-10	-1.606648e-09	-8.179375e+00	-1.048323e+02
1.070000e-06	-5.168047e-10	-1.550228e-09	-7.414382e+00	-1.011089e+02
1.080000e-06	-4.634076e-10	-1.490044e-09	-6.648317e+00	-9.725256e+01
1.090000e-06	-4.099432e-10	-1.426287e-09	-5.881285e+00	-9.325698e+01
1.100000e-06	-3.564218e-10	-1.358437e-09	-5.113435e+00	-8.911654e+01
1.110000e-06	-3.028550e-10	-1.290960e-09	-4.344935e+00	-8.482658e+01
1.120000e-06	-2.492502e-10	-1.222707e-09	-3.575889e+00	-8.038363e+01
1.130000e-06	-1.956231e-10	-1.150226e-09	-2.806523e+00	-7.578561e+01
1.140000e-06	-1.419800e-10	-1.075198e-09	-2.036929e+00	-7.103189e+01
1.150000e-06	-8.831434e-11	-1.000720e-09	-1.267010e+00	-6.612345e+01
1.160000e-06	-3.464217e-11	-9.274078e-10	-4.969979e-01	-6.106283e+01
1.170000e-06	1.902125e-11	-8.486814e-10	2.728888e-01	-5.585415e+01
1.180000e-06	7.266326e-11	-7.649016e-10	1.042469e+00	-5.050299e+01
1.190000e-06	1.262824e-10	-6.806949e-10	1.811720e+00	-4.501629e+01
1.200000e-06	1.798770e-10	-5.947690e-10	2.580619e+00	-3.940223e+01
1.210000e-06	2.334355e-10	-5.066805e-10	3.349000e+00	-3.367005e+01
1.220000e-06	2.869439e-10	-4.158917e-10	4.116664e+00	-2.782992e+01
1.230000e-06	3.403985e-10	-3.241192e-10	4.883555e+00	-2.189276e+01
1.240000e-06	3.938000e-10	-2.321038e-10	5.649684e+00	-1.587016e+01
1.250000e-06	4.471283e-10	-1.396357e-10	6.414762e+00	-9.774214e+00
1.260000e-06	5.003693e-10	-4.772250e-11	7.178588e+00	-3.617500e+00
1.270000e-06	5.535235e-10	4.654489e-11	7.941168e+00	2.587019e+00
1.280000e-06	6.065842e-10	1.427384e-10	8.702406e+00	8.826012e+00
1.290000e-06	6.595233e-10	2.397284e-10	9.461901e+00	1.508581e+01
1.300000e-06	7.123188e-10	3.354763e-10	1.021933e+01	2.135241e+01
1.310000e-06	7.649737e-10	4.308702e-10	1.097475e+01	2.761152e+01
1.320000e-06	8.174731e-10	5.277675e-10	1.172794e+01	3.384857e+01
1.330000e-06	8.698074e-10	6.233517e-10	1.247875e+01	4.004878e+01
1.340000e-06	9.219791e-10	7.162629e-10	1.322724e+01	4.619726e+01
1.350000e-06	9.739671e-10	8.084287e-10	1.397309e+01	5.227912e+01
1.360000e-06	1.025785e-09	9.012446e-10	1.471650e+01	5.827963e+01
1.370000e-06	1.077456e-09	9.920322e-10	1.545780e+01	6.418443e+01
1.380000e-06	1.128967e-09	1.079949e-09	1.619680e+01	6.997977e+01
1.390000e-06	1.180303e-09	1.166402e-09	1.693330e+01	7.565270e+01
1.400000e-06	1.231442e-09	1.251978e-09	1.766696e+01	8.119139e+01
1.410000e-06	1.282320e-09	1.335690e-09	1.839689e+01	8.658534e+01
1.420000e-06	1.332870e-09	1.417054e-09	1.912211e+01	9.182561e+01
1.430000e-06	1.383034e-09	1.494563e-09	1.984179e+01	9.690505e+01
1.440000e-06	1.432762e-09	1.569437e-09	2.055520e+01	1.018184e+02
1.450000e-06	1.482026e-09	1.641931e-09	2.126197e+01	1.065624e+02
1.460000e-06	1.530837e-09	1.711777e-09	2.196225e+01	1.111357e+02
1.470000e-06	1.579246e-09	1.779131e-09	2.265675e+01	1.155392e+02
1.480000e-06	1.627320e-09	1.843478e-09	2.334644e+01	1.197753e+02
1.490000e-06	1.675138e-09	1.906293e-09	2.403246e+01	1.238482e+02
1.500000e-06	1.722764e-09	1.966257e-09	2.471573e+01	1.277635e+02
1.510000e-06	1.770207e-09	2.023223e-09	2.539639e+01	1.315280e+02
1.520000e-06	1.817418e-09	2.078182e-09	2.607370e+01	1.351490e+02
1.530000e-06	1.864310e-09	2.132950e-09	2.674644e+01	1.386346e+02
1.540000e-06	1.910818e-09	2.186712e-09	2.741366e+01	1.419929e+02
1.550000e-06	1.956931e-09	2.235155e-09	2.807523e+01	1.452316e+02
1.560000e-06	2.002687e-09	2.280004e-09	2.873167e+01	1.483583e+02
1.570000e-06	2.048103e-09	2.324508e-09	2.938323e+01	1.513798e+02
1.580000e-06	2.093163e-09	2.368500e-09	3.002968e+01	1.543021e+02
1.590000e-06	2.137846e-09	2.410675e-09	3.067074e+01	1.571303e+02
1.600000e-06	2.182148e-09	2.450178e-09	3.130632e+01	1.598688e+02
1.610000e-06	2.226108e-09	2.489553e-09	3.193700e+01	1.625208e+02
1.620000e-06	2.269808e-09	2.530060e-09	3.256394e+01	1.650891e+02
1.630000e-06	2.313310e-09	2.569320e-09	3.318805e+01	1.675756e+02
1.640000e-06	2.356557e-09	2.605188e-09	3.380850e+01	1.699819e+02
1.650000e-06	2.399381e-09	2.638456e-09	3.442287e+01	1.723094e+02
1.660000e-06	2.441578e-09	2.671747e-09	3.502826e+01	1.745593e+02
1.670000e-06	2.483017e-09	2.703852e-09	3.562276e+01	1.767329e+02
1.680000e-06	2.523729e-09	2.733006e-09	3.620683e+01	1.788318e+02
1.690000e-06	2.563872e-09	2.761817e-09	3.678275e+01	1.808579e+02
1.700000e-06	2.603645e-09	2.791078e-09	3.735335e+01	1.828133e+02
1.710000e-06	2.643148e-09	2.819197e-09	3.792009e+01	1.847008e+02
1.720000e-06	2.682331e-09	2.846089e-09	3.848223e+01	1.865233e+02
1.730000e-06	2.721083e-09	2.873131e-09	3.903819e+01	1.882840e+02
1.740000e-06	2.759349e-09	2.901261e-09	3.958717e+01	1.899862e+02
1.750000e-06	2.797138e-09	2.928332e-09	4.012931e+01	1.916333e+02
1.760000e-06	2.834441e-09	2.953347e-09	4.066448e+01	1.932286e+02
1.770000e-06	2.871239e-09	2.976487e-09	4.119241e+01	1.947751e+02
1.780000e-06	2.907550e-09	2.998344e-09	4.171335e+01	1.962754e+02
1.790000e-06	2.943460e-09	3.020287e-09	4.222853e+01	1.977316e+02
1.800000e-06	2.979049e-09	3.041969e-09	4.273911e+01	1.991456e+02
1.810000e-06	3.014281e-09	3.063029e-09	4.324457e+01	2.005184e+02
1.820000e-06	3.048984e-09	3.084088e-09	4.374244e+01	2.018506e+02
1.830000e-06	3.082925e-09	3.105294e-09	4.422938e+01	2.031427e+02
1.840000e-06	3.115981e-09	3.126163e-09	4.470362e+01	2.043944e+02
1.850000e-06	3.148273e-09	3.145504e-09	4.516689e+01	2.056055e+02
1.860000e-06	3.180052e-09	3.163548e-09	4.562282e+01	2.067757e+02
1.870000e-06	3.211444e-09	3.181907e-09	4.607319e+01	2.079045e+02
1.880000e-06	3.242379e-09	3.200062e-09	4.651700e+01	2.089920e+02
1.890000e-06	3.272755e-09	3.217250e-09	4.695279e+01	2.100382e+02
1.900000e-06	3.302537e-09	3.233276e-09	4.738006e+01	2.110437e+02
1.910000e-06	3.331718e-09	3.249318e-09	4.779871e+01	2.120093e+02
1.920000e-06	3.360295e-09	3.264308e-09	4.820868e+01	2.129365e+02
1.930000e-06	3.388350e-09	3.278080e-09	4.861118e+01	2.138268e+02
1.940000e-06	3.416027e-09	3.291762e-09	4.900825e+01	2.146823e+02
1.950000e-06	3.443300e-09	3.305271e-09	4.939953e+01	2.155051e+02
1.960000e-06	3.469918e-09	3.318944e-09	4.978140e+01	2.162975e+02
1.970000e-06	3.495621e-09	3.331691e-09	5.015014e+01	2.170616e+02
1.980000e-06	3.520378e-09	3.344316e-09	5.050533e+01	2.177994e+02
1.990000e-06	3.544392e-09	3.357032e-09	5.084984e+01	2.185127e+02
2.000000e-06	3.567850e-09	3.369583e-09	5.118639e+01	2.192028e+02
2.010000e-06	3.590750e-09	3.380386e-09	5.151492e+01	2.198708e+02
2.020000e-06	3.613029e-09	3.389413e-09	5.183455e+01	2.205171e+02
2.030000e-06	3.634709e-09	3.399483e-09	5.214558e+01	2.211419e+02
2.040000e-06	3.655780e-09	3.409709e-09	5.244787e+01	2.217449e+02
2.050000e-06	3.676223e-09	3.419303e-09	5.274116e+01	2.223257e+02
2.060000e-06	3.696151e-09	3.428365e-09	5.302706e+01	2.228837e+02
2.070000e-06	3.715672e-09	3.437196e-09	5.330713e+01	2.234183e+02
2.080000e-06	3.734689e-09	3.446530e-09	5.357996e+01	2.239289e+02
2.090000e-06	3.753031e-09	3.455509e-09	5.384310e+01	2.244152e+02
2.100000e-06	3.770652e-09	3.463401e-09	5.409590e+01	2.248773e+02
2.110000e-06	3.787643e-09	3.470877e-09	5.433967e+01	2.253157e+02
2.120000e-06	3.804065e-09	3.478881e-09	5.457526e+01	2.257310e+02
2.130000e-06	3.819787e-09	3.486815e-09	5.480081e+01	2.261245e+02
2.140000e-06	3.834658e-09	3.494244e-09	5.501416e+01	2.264978e+02
2.150000e-06	3.848715e-09	3.502388e-09	5.521583e+01	2.268525e+02
2.160000e-06	3.862052e-09	3.510497e-09	5.540717e+01	2.271906e+02
2.170000e-06	3.874683e-09	3.517401e-09	5.558838e+01	2.275138e+02
2.180000e-06	3.886634e-09	3.524190e-09	5.575984e+01	2.278237e+02
2.190000e-06	3.897896e-09	3.530515e-09	5.592141e+01	2.281216e+02
2.200000e-06	3.908292e-09	3.536467e-09	5.607056e+01	2.284081e+02
2.210000e-06	3.917652e-09	3.542558e-09	5.620484e+01	2.286835e+02
2.220000e-06	3.926068e-09	3.548778e-09	5.632559e+01	2.289472e+02
2.230000e-06	3.933825e-09	3.554395e-09	5.643687e+01	2.291983e+02
2.240000e-06	3.941031e-09	3.558528e-09	5.654026e+01	2.294349e+02
2.250000e-06	3.947594e-09	3.562798e-09	5.663441e+01	2.296550e+02
2.260000e-06	3.953479e-09	3.566727e-09	5.671883e+01	2.298562e+02
2.270000e-06	3.958674e-09	3.569123e-09	5.679337e+01	2.300358e+02
2.280000e-06	3.963177e-09	3.571247e-09	5.685797e+01	2.301915e+02
2.290000e-06	3.967105e-09	3.574605e-09	5.691432e+01	2.303211e+02
2.300000e-06	3.970538e-09	3.578545e-09	5.696357e+01	2.304231e+02
2.310000e-06	3.973288e-09	3.581400e-09	5.700302e+01	2.304966e+02
2.320000e-06	3.975083e-09	3.583293e-09	5.702878e+01	2.305417e+02
2.330000e-06	3.975890e-09	3.586018e-09	5.704035e+01	2.305593e+02
2.340000e-06	3.975933e-09	3.588289e-09	5.704097e+01	2.305514e+02
2.350000e-06	3.975423e-09	3.588963e-09	5.703366e+01	2.305210e+02
2.360000e-06	3.974333e-09	3.590364e-09	5.701802e+01	2.304715e+02
2.370000e-06	3.972588e-09	3.591171e-09	5.699299e+01	2.304072e+02
2.380000e-06	3.970219e-09	3.589731e-09	5.695900e+01	2.303324e+02
2.390000e-06	3.967217e-09	3.587708e-09	5.691592e+01	2.302517e+02
2.400000e-06	3.963587e-09	3.586694e-09	5.686384e+01	2.301691e+02
2.410000e-06	3.959468e-09	3.579724e-09	5.680475e+01	2.300880e+02
2.420000e-06	3.954918e-09	3.580034e-09	5.673948e+01	2.300109e+02
2.430000e-06	3.949651e-09	3.601937e-09	5.666391e+01	2.299389e+02
2.440000e-06	3.943201e-09	3.599926e-09	5.657138e+01	2.298718e+02
2.450000e-06	3.935561e-09	3.550458e-09	5.646178e+01	2.298081e+02
2.460000e-06	3.927309e-09	3.563119e-09	5.634339e+01	2.297444e+02
2.470000e-06	3.918841e-09	3.610000e-09	5.622189e+01	2.296763e+02
2.480000e-06	3.909801e-09	3.597884e-09	5.609220e+01	2.295980e+02
2.490000e-06	3.899759e-09	3.532469e-09	5.594814e+01	2.295027e+02
2.500000e-06	3.889109e-09	3.537302e-09	5.579535e+01	2.293833e+02
2.510000e-06	3.878213e-09	3.541662e-09	5.563903e+01	2.292324e+02
2.520000e-06	3.866422e-09	3.497439e-09	5.546986e+01	2.290429e+02
2.530000e-06	3.853406e-09	3.546141e-09	5.528313e+01	2.288085e+02
2.540000e-06	3.839887e-09	3.539644e-09	5.508918e+01	2.285240e+02
2.550000e-06	3.825940e-09	3.456894e-09	5.488909e+01	2.281857e+02
2.560000e-06	3.810896e-09	3.486919e-09	5.467326e+01	2.277917e+02
2.570000e-06	3.794868e-09	3.567473e-09	5.444331e+01	2.273420e+02
2.580000e-06	3.778320e-09	3.466849e-09	5.420590e+01	2.268385e+02
2.590000e-06	3.761163e-09	3.394241e-09	5.395975e+01	2.262853e+02
2.600000e-06	3.743244e-09	3.468545e-09	5.370268e+01	2.256879e+02
2.610000e-06	3.724649e-09	3.394774e-09	5.343591e+01	2.250534e+02
2.620000e-06	3.705432e-09	3.292729e-09	5.316021e+01	2.243901e+02
2.630000e-06	3.685628e-09	3.337323e-09	5.287609e+01	2.237066e+02
2.640000e-06	3.665310e-09	3.325961e-09	5.258460e+01	2.230121e+02
2.650000e-06	3.644522e-09	3.266995e-09	5.228636e+01	2.223151e+02
2.660000e-06	3.623123e-09	3.311920e-09	5.197936e+01	2.216235e+02
2.670000e-06	3.600694e-09	3.318059e-09	5.165757e+01	2.209438e+02
2.680000e-06	3.577192e-09	3.248309e-09	5.132040e+01	2.202813e+02
2.690000e-06	3.553069e-09	3.258427e-09	5.097432e+01	2.196390e+02
2.700000e-06	3.528399e-09	3.282964e-09	5.062039e+01	2.190183e+02
2.710000e-06	3.503019e-09	3.272439e-09	5.025628e+01	2.184186e+02
2.720000e-06	3.477133e-09	3.238339e-09	4.988490e+01	2.178373e+02
2.730000e-06	3.450800e-09	3.210754e-09	4.950711e+01	2.172703e+02
2.740000e-06	3.423748e-09	3.255341e-09	4.911901e+01	2.167121e+02
2.750000e-06	3.396030e-09	3.245802e-09	4.872134e+01	2.161560e+02
2.760000e-06	3.367923e-09	3.183374e-09	4.831811e+01	2.155951e+02
2.770000e-06	3.339417e-09	3.204876e-09	4.790915e+01	2.150221e+02
2.780000e-06	3.310286e-09	3.217795e-09	4.749121e+01	2.144301e+02
2.790000e-06	3.280412e-09	3.184189e-09	4.706263e+01	2.138126e+02
2.800000e-06	3.249779e-09	3.173173e-09	4.662315e+01	2.131645e+02
2.810000e-06	3.218386e-09	3.169954e-09	4.617277e+01	2.124816e+02
2.820000e-06	3.186387e-09	3.169674e-09	4.571370e+01	2.117611e+02
2.830000e-06	3.153988e-09	3.150789e-09	4.524888e+01	2.110016e+02
2.840000e-06	3.121132e-09	3.134443e-09	4.477751e+01	2.102032e+02
2.850000e-06	3.087672e-09	3.129346e-09	4.429747e+01	2.093671e+02
2.860000e-06	3.053689e-09	3.108358e-09	4.380993e+01	2.084954e+02
2.870000e-06	3.019295e-09	3.103685e-09	4.331650e+01	2.075910e+02
2.880000e-06	2.984390e-09	3.097694e-09	4.281573e+01	2.066573e+02
2.890000e-06	2.948887e-09	3.070558e-09	4.230639e+01	2.056976e+02
2.900000e-06	2.912943e-09	3.051368e-09	4.179071e+01	2.047151e+02
2.910000e-06	2.876702e-09	3.051221e-09	4.127078e+01	2.037125e+02
2.920000e-06	2.840085e-09	3.050278e-09	4.074544e+01	2.026917e+02
2.930000e-06	2.802948e-09	3.019004e-09	4.021265e+01	2.016538e+02
2.940000e-06	2.765136e-09	2.989481e-09	3.967018e+01	2.005989e+02
