# Temperatura_=_20.0
# Concentracion g/m^3_=_9000.0
# C_Vs_to_Am_M_A/Vsm_=_65563218390.804596
# pendiente_HvsI_1/m_=_3716.3
# ordenada_HvsI_A/m_=_1297.0
# frecuencia_Hz_=_301151.1684489146

Tiempo_(s)	Campo_(V.s)	Magnetizacion_(V.s)	Campo_(kA/m)	Magnetizacion_(A/m)
0.000000e+00	-6.738582e-06	-4.840670e-09	-4.745460e+01	-3.180944e+02
1.000000e-08	-6.736868e-06	-4.843615e-09	-4.744253e+01	-3.179881e+02
2.000000e-08	-6.732858e-06	-4.843464e-09	-4.741429e+01	-3.178565e+02
3.000000e-08	-6.726753e-06	-4.839598e-09	-4.737130e+01	-3.177015e+02
4.000000e-08	-6.718503e-06	-4.833133e-09	-4.731320e+01	-3.175234e+02
5.000000e-08	-6.707794e-06	-4.825950e-09	-4.723778e+01	-3.173213e+02
6.000000e-08	-6.694511e-06	-4.822880e-09	-4.714424e+01	-3.170936e+02
7.000000e-08	-6.678739e-06	-4.814673e-09	-4.703317e+01	-3.168385e+02
8.000000e-08	-6.660769e-06	-4.804665e-09	-4.690662e+01	-3.165542e+02
9.000000e-08	-6.640789e-06	-4.850664e-09	-4.676592e+01	-3.162399e+02
1.000000e-07	-6.618344e-06	-4.890460e-09	-4.660785e+01	-3.158954e+02
1.100000e-07	-6.593096e-06	-4.851603e-09	-4.643006e+01	-3.155213e+02
1.200000e-07	-6.565339e-06	-4.794072e-09	-4.623459e+01	-3.151187e+02
1.300000e-07	-6.535466e-06	-4.768614e-09	-4.602421e+01	-3.146889e+02
1.400000e-07	-6.503696e-06	-4.738800e-09	-4.580048e+01	-3.142328e+02
1.500000e-07	-6.470067e-06	-4.766435e-09	-4.556366e+01	-3.137503e+02
1.600000e-07	-6.434352e-06	-4.849960e-09	-4.531214e+01	-3.132405e+02
1.700000e-07	-6.396515e-06	-4.733498e-09	-4.504569e+01	-3.127010e+02
1.800000e-07	-6.356620e-06	-4.732784e-09	-4.476473e+01	-3.121280e+02
1.900000e-07	-6.314310e-06	-4.795399e-09	-4.446678e+01	-3.115174e+02
2.000000e-07	-6.269588e-06	-4.717407e-09	-4.415184e+01	-3.108642e+02
2.100000e-07	-6.222655e-06	-4.747018e-09	-4.382132e+01	-3.101641e+02
2.200000e-07	-6.173089e-06	-4.712878e-09	-4.347227e+01	-3.094136e+02
2.300000e-07	-6.120826e-06	-4.681324e-09	-4.310422e+01	-3.086107e+02
2.400000e-07	-6.066249e-06	-4.712567e-09	-4.271988e+01	-3.077551e+02
2.500000e-07	-6.009455e-06	-4.682664e-09	-4.231993e+01	-3.068485e+02
2.600000e-07	-5.950402e-06	-4.668826e-09	-4.190406e+01	-3.058939e+02
2.700000e-07	-5.889188e-06	-4.644197e-09	-4.147297e+01	-3.048954e+02
2.800000e-07	-5.825936e-06	-4.621249e-09	-4.102754e+01	-3.038577e+02
2.900000e-07	-5.760627e-06	-4.619342e-09	-4.056762e+01	-3.027845e+02
3.000000e-07	-5.693175e-06	-4.620753e-09	-4.009261e+01	-3.016788e+02
3.100000e-07	-5.623573e-06	-4.590877e-09	-3.960245e+01	-3.005414e+02
3.200000e-07	-5.552012e-06	-4.529910e-09	-3.909851e+01	-2.993712e+02
3.300000e-07	-5.478449e-06	-4.565246e-09	-3.858046e+01	-2.981650e+02
3.400000e-07	-5.402603e-06	-4.546098e-09	-3.804633e+01	-2.969176e+02
3.500000e-07	-5.324535e-06	-4.485635e-09	-3.749657e+01	-2.956229e+02
3.600000e-07	-5.244366e-06	-4.487151e-09	-3.693199e+01	-2.942741e+02
3.700000e-07	-5.162287e-06	-4.474718e-09	-3.635398e+01	-2.928649e+02
3.800000e-07	-5.078505e-06	-4.441324e-09	-3.576397e+01	-2.913901e+02
3.900000e-07	-4.993105e-06	-4.406166e-09	-3.516256e+01	-2.898461e+02
4.000000e-07	-4.906098e-06	-4.402454e-09	-3.454984e+01	-2.882311e+02
4.100000e-07	-4.817353e-06	-4.365915e-09	-3.392487e+01	-2.865450e+02
4.200000e-07	-4.726891e-06	-4.328817e-09	-3.328782e+01	-2.847891e+02
4.300000e-07	-4.634704e-06	-4.320618e-09	-3.263862e+01	-2.829653e+02
4.400000e-07	-4.540824e-06	-4.296038e-09	-3.197750e+01	-2.810752e+02
4.500000e-07	-4.445312e-06	-4.252725e-09	-3.130488e+01	-2.791194e+02
4.600000e-07	-4.348136e-06	-4.220968e-09	-3.062055e+01	-2.770971e+02
4.700000e-07	-4.249384e-06	-4.206777e-09	-2.992511e+01	-2.750053e+02
4.800000e-07	-4.149113e-06	-4.160894e-09	-2.921898e+01	-2.728391e+02
4.900000e-07	-4.047422e-06	-4.112706e-09	-2.850285e+01	-2.705922e+02
5.000000e-07	-3.944270e-06	-4.088334e-09	-2.777643e+01	-2.682570e+02
5.100000e-07	-3.839554e-06	-4.058934e-09	-2.703900e+01	-2.658259e+02
5.200000e-07	-3.733408e-06	-4.006851e-09	-2.629149e+01	-2.632919e+02
5.300000e-07	-3.625914e-06	-3.962895e-09	-2.553450e+01	-2.606499e+02
5.400000e-07	-3.517149e-06	-3.931347e-09	-2.476855e+01	-2.578962e+02
5.500000e-07	-3.407261e-06	-3.887283e-09	-2.399469e+01	-2.550297e+02
5.600000e-07	-3.296243e-06	-3.840263e-09	-2.321288e+01	-2.520507e+02
5.700000e-07	-3.183909e-06	-3.797966e-09	-2.242180e+01	-2.489607e+02
5.800000e-07	-3.070227e-06	-3.751115e-09	-2.162122e+01	-2.457609e+02
5.900000e-07	-2.955282e-06	-3.696969e-09	-2.081176e+01	-2.424513e+02
6.000000e-07	-2.839136e-06	-3.650507e-09	-1.999383e+01	-2.390296e+02
6.100000e-07	-2.721910e-06	-3.600785e-09	-1.916830e+01	-2.354895e+02
6.200000e-07	-2.603756e-06	-3.540111e-09	-1.833623e+01	-2.318209e+02
6.300000e-07	-2.484706e-06	-3.475669e-09	-1.749785e+01	-2.280094e+02
6.400000e-07	-2.364622e-06	-3.415231e-09	-1.665219e+01	-2.240369e+02
6.500000e-07	-2.243595e-06	-3.352900e-09	-1.579990e+01	-2.198819e+02
6.600000e-07	-2.121873e-06	-3.280583e-09	-1.494270e+01	-2.155214e+02
6.700000e-07	-1.999464e-06	-3.207319e-09	-1.408067e+01	-2.109314e+02
6.800000e-07	-1.876242e-06	-3.136165e-09	-1.321292e+01	-2.060882e+02
6.900000e-07	-1.752257e-06	-3.059743e-09	-1.233979e+01	-2.009688e+02
7.000000e-07	-1.627685e-06	-2.972423e-09	-1.146252e+01	-1.955509e+02
7.100000e-07	-1.502609e-06	-2.884507e-09	-1.058171e+01	-1.898118e+02
7.200000e-07	-1.377092e-06	-2.793862e-09	-9.697793e+00	-1.837275e+02
7.300000e-07	-1.251131e-06	-2.694151e-09	-8.810747e+00	-1.772700e+02
7.400000e-07	-1.124746e-06	-2.587108e-09	-7.920712e+00	-1.704060e+02
7.500000e-07	-9.979428e-07	-2.477894e-09	-7.027736e+00	-1.630942e+02
7.600000e-07	-8.707321e-07	-2.360683e-09	-6.131890e+00	-1.552848e+02
7.700000e-07	-7.431970e-07	-2.226554e-09	-5.233759e+00	-1.469189e+02
7.800000e-07	-6.153968e-07	-2.085809e-09	-4.333762e+00	-1.379298e+02
7.900000e-07	-4.873518e-07	-1.939008e-09	-3.432040e+00	-1.282465e+02
8.000000e-07	-3.590554e-07	-1.778300e-09	-2.528548e+00	-1.177974e+02
8.100000e-07	-2.306555e-07	-1.601882e-09	-1.624328e+00	-1.065167e+02
8.200000e-07	-1.022240e-07	-1.414269e-09	-7.198842e-01	-9.435140e+01
8.300000e-07	2.632106e-08	-1.211859e-09	1.853588e-01	-8.126834e+01
8.400000e-07	1.549320e-07	-9.937130e-10	1.091066e+00	-6.726124e+01
8.500000e-07	2.834391e-07	-7.660244e-10	1.996041e+00	-5.235645e+01
8.600000e-07	4.117904e-07	-5.295626e-10	2.899920e+00	-3.661691e+01
8.700000e-07	5.400624e-07	-2.824014e-10	3.803240e+00	-2.014365e+01
8.800000e-07	6.681601e-07	-2.477087e-11	4.705332e+00	-3.074449e+00
8.900000e-07	7.958721e-07	2.400256e-10	5.604709e+00	1.442042e+01
9.000000e-07	9.231776e-07	5.093331e-10	6.501223e+00	3.214517e+01
9.100000e-07	1.050167e-06	7.804477e-10	7.395511e+00	4.988770e+01
9.200000e-07	1.176808e-06	1.049557e-09	8.287347e+00	6.743045e+01
9.300000e-07	1.303058e-06	1.312007e-09	9.176425e+00	8.456176e+01
9.400000e-07	1.428879e-06	1.564695e-09	1.006249e+01	1.010870e+02
9.500000e-07	1.554279e-06	1.803933e-09	1.094558e+01	1.168384e+02
9.600000e-07	1.679250e-06	2.026676e-09	1.182566e+01	1.316827e+02
9.700000e-07	1.803747e-06	2.232822e-09	1.270239e+01	1.455264e+02
9.800000e-07	1.927657e-06	2.423410e-09	1.357499e+01	1.583175e+02
9.900000e-07	2.050785e-06	2.598944e-09	1.444209e+01	1.700446e+02
1.000000e-06	2.173051e-06	2.758979e-09	1.530311e+01	1.807328e+02
1.010000e-06	2.294536e-06	2.907584e-09	1.615864e+01	1.904378e+02
1.020000e-06	2.415281e-06	3.044723e-09	1.700895e+01	1.992383e+02
1.030000e-06	2.535091e-06	3.168276e-09	1.785267e+01	2.072270e+02
1.040000e-06	2.653887e-06	3.278970e-09	1.868926e+01	2.145028e+02
1.050000e-06	2.771781e-06	3.383389e-09	1.951950e+01	2.211630e+02
1.060000e-06	2.888750e-06	3.479838e-09	2.034323e+01	2.272975e+02
1.070000e-06	3.004602e-06	3.564455e-09	2.115908e+01	2.329840e+02
1.080000e-06	3.119221e-06	3.641404e-09	2.196625e+01	2.382865e+02
1.090000e-06	3.232595e-06	3.714506e-09	2.276466e+01	2.432541e+02
1.100000e-06	3.344679e-06	3.786371e-09	2.355398e+01	2.479226e+02
1.110000e-06	3.455476e-06	3.854720e-09	2.433423e+01	2.523169e+02
1.120000e-06	3.565097e-06	3.917527e-09	2.510621e+01	2.564536e+02
1.130000e-06	3.673599e-06	3.974543e-09	2.587030e+01	2.603444e+02
1.140000e-06	3.780866e-06	4.030041e-09	2.662570e+01	2.639987e+02
1.150000e-06	3.886772e-06	4.082267e-09	2.737152e+01	2.674262e+02
1.160000e-06	3.991224e-06	4.129739e-09	2.810709e+01	2.706381e+02
1.170000e-06	4.094201e-06	4.173416e-09	2.883228e+01	2.736475e+02
1.180000e-06	4.195717e-06	4.212716e-09	2.954718e+01	2.764693e+02
1.190000e-06	4.295849e-06	4.250080e-09	3.025233e+01	2.791195e+02
1.200000e-06	4.394498e-06	4.285857e-09	3.094704e+01	2.816143e+02
1.210000e-06	4.491416e-06	4.319700e-09	3.162955e+01	2.839684e+02
1.220000e-06	4.586575e-06	4.352417e-09	3.229968e+01	2.861946e+02
1.230000e-06	4.680086e-06	4.383653e-09	3.295821e+01	2.883031e+02
1.240000e-06	4.772126e-06	4.414625e-09	3.360638e+01	2.903015e+02
1.250000e-06	4.862594e-06	4.442476e-09	3.424347e+01	2.921951e+02
1.260000e-06	4.951247e-06	4.466450e-09	3.486779e+01	2.939873e+02
1.270000e-06	5.038066e-06	4.490218e-09	3.547919e+01	2.956810e+02
1.280000e-06	5.123156e-06	4.513825e-09	3.607841e+01	2.972791e+02
1.290000e-06	5.206595e-06	4.534965e-09	3.666600e+01	2.987853e+02
1.300000e-06	5.288185e-06	4.554405e-09	3.724058e+01	3.002047e+02
1.310000e-06	5.367805e-06	4.574612e-09	3.780128e+01	3.015435e+02
1.320000e-06	5.445533e-06	4.595505e-09	3.834866e+01	3.028092e+02
1.330000e-06	5.521284e-06	4.615103e-09	3.888212e+01	3.040093e+02
1.340000e-06	5.594898e-06	4.632706e-09	3.940052e+01	3.051512e+02
1.350000e-06	5.666380e-06	4.649104e-09	3.990391e+01	3.062409e+02
1.360000e-06	5.735872e-06	4.664937e-09	4.039329e+01	3.072828e+02
1.370000e-06	5.803399e-06	4.681917e-09	4.086883e+01	3.082788e+02
1.380000e-06	5.868819e-06	4.698878e-09	4.132953e+01	3.092286e+02
1.390000e-06	5.932093e-06	4.713647e-09	4.177512e+01	3.101299e+02
1.400000e-06	5.993402e-06	4.726671e-09	4.220687e+01	3.109795e+02
1.410000e-06	6.052786e-06	4.738626e-09	4.262507e+01	3.117734e+02
1.420000e-06	6.109988e-06	4.748746e-09	4.302790e+01	3.125087e+02
1.430000e-06	6.164901e-06	4.759059e-09	4.341461e+01	3.131838e+02
1.440000e-06	6.217490e-06	4.768296e-09	4.378495e+01	3.137996e+02
1.450000e-06	6.267455e-06	4.776752e-09	4.413682e+01	3.143595e+02
1.460000e-06	6.314869e-06	4.787453e-09	4.447072e+01	3.148695e+02
1.470000e-06	6.360091e-06	4.798056e-09	4.478918e+01	3.153375e+02
1.480000e-06	6.403217e-06	4.805453e-09	4.509288e+01	3.157727e+02
1.490000e-06	6.444016e-06	4.811839e-09	4.538020e+01	3.161844e+02
1.500000e-06	6.482415e-06	4.820359e-09	4.565062e+01	3.165810e+02
1.510000e-06	6.518690e-06	4.827831e-09	4.590607e+01	3.169688e+02
1.520000e-06	6.552748e-06	4.834555e-09	4.614592e+01	3.173513e+02
1.530000e-06	6.584417e-06	4.840361e-09	4.636894e+01	3.177291e+02
1.540000e-06	6.613830e-06	4.844429e-09	4.657607e+01	3.180994e+02
1.550000e-06	6.641069e-06	4.850091e-09	4.676789e+01	3.184570e+02
1.560000e-06	6.665918e-06	4.858039e-09	4.694288e+01	3.187946e+02
1.570000e-06	6.688251e-06	4.865186e-09	4.710016e+01	3.191041e+02
1.580000e-06	6.708292e-06	4.869577e-09	4.724129e+01	3.193776e+02
1.590000e-06	6.726019e-06	4.873905e-09	4.736613e+01	3.196085e+02
1.600000e-06	6.741254e-06	4.878534e-09	4.747341e+01	3.197920e+02
1.610000e-06	6.754024e-06	4.882287e-09	4.756334e+01	3.199258e+02
1.620000e-06	6.764211e-06	4.885538e-09	4.763509e+01	3.200100e+02
1.630000e-06	6.771797e-06	4.888138e-09	4.768851e+01	3.200471e+02
1.640000e-06	6.777048e-06	4.890462e-09	4.772549e+01	3.200410e+02
1.650000e-06	6.780045e-06	4.892721e-09	4.774659e+01	3.199969e+02
1.660000e-06	6.780636e-06	4.895723e-09	4.775075e+01	3.199196e+02
1.670000e-06	6.778888e-06	4.890334e-09	4.773844e+01	3.198138e+02
1.680000e-06	6.775019e-06	4.884274e-09	4.771120e+01	3.196826e+02
1.690000e-06	6.768880e-06	4.881021e-09	4.766796e+01	3.195279e+02
1.700000e-06	6.760449e-06	4.880134e-09	4.760859e+01	3.193501e+02
1.710000e-06	6.749917e-06	4.881105e-09	4.753443e+01	3.191484e+02
1.720000e-06	6.737102e-06	4.881351e-09	4.744418e+01	3.189211e+02
1.730000e-06	6.721889e-06	4.891916e-09	4.733704e+01	3.186664e+02
1.740000e-06	6.704548e-06	4.860912e-09	4.721492e+01	3.183828e+02
1.750000e-06	6.684907e-06	4.772266e-09	4.707661e+01	3.180690e+02
1.760000e-06	6.662206e-06	4.777970e-09	4.691675e+01	3.177251e+02
1.770000e-06	6.636350e-06	4.826185e-09	4.673466e+01	3.173515e+02
1.780000e-06	6.608138e-06	4.857106e-09	4.653598e+01	3.169494e+02
1.790000e-06	6.577932e-06	4.933634e-09	4.632327e+01	3.165200e+02
1.800000e-06	6.545958e-06	4.878402e-09	4.609810e+01	3.160643e+02
1.810000e-06	6.512368e-06	4.716373e-09	4.586155e+01	3.155823e+02
1.820000e-06	6.476547e-06	4.814288e-09	4.560929e+01	3.150730e+02
1.830000e-06	6.438386e-06	4.804236e-09	4.534055e+01	3.145340e+02
1.840000e-06	6.398108e-06	4.767458e-09	4.505690e+01	3.139618e+02
1.850000e-06	6.355557e-06	4.841326e-09	4.475725e+01	3.133521e+02
1.860000e-06	6.310844e-06	4.691038e-09	4.444237e+01	3.127000e+02
1.870000e-06	6.263856e-06	4.770289e-09	4.411147e+01	3.120011e+02
1.880000e-06	6.214542e-06	4.806756e-09	4.376419e+01	3.112519e+02
1.890000e-06	6.162978e-06	4.697577e-09	4.340107e+01	3.104504e+02
1.900000e-06	6.108748e-06	4.725985e-09	4.301917e+01	3.095962e+02
1.910000e-06	6.052106e-06	4.667324e-09	4.262028e+01	3.086908e+02
1.920000e-06	5.993393e-06	4.721104e-09	4.220681e+01	3.077373e+02
1.930000e-06	5.932548e-06	4.711155e-09	4.177833e+01	3.067399e+02
1.940000e-06	5.869504e-06	4.623486e-09	4.133436e+01	3.057029e+02
1.950000e-06	5.804233e-06	4.640616e-09	4.087471e+01	3.046305e+02
1.960000e-06	5.737017e-06	4.615767e-09	4.040136e+01	3.035254e+02
1.970000e-06	5.667636e-06	4.659710e-09	3.991276e+01	3.023886e+02
1.980000e-06	5.595942e-06	4.568698e-09	3.940788e+01	3.012191e+02
1.990000e-06	5.522252e-06	4.558646e-09	3.888893e+01	3.000137e+02
2.000000e-06	5.446514e-06	4.582814e-09	3.835557e+01	2.987674e+02
2.010000e-06	5.368638e-06	4.521014e-09	3.780715e+01	2.974740e+02
2.020000e-06	5.288695e-06	4.537898e-09	3.724417e+01	2.961267e+02
2.030000e-06	5.206879e-06	4.477918e-09	3.666801e+01	2.947193e+02
2.040000e-06	5.123257e-06	4.472726e-09	3.607912e+01	2.932464e+02
2.050000e-06	5.037776e-06	4.448317e-09	3.547715e+01	2.917043e+02
2.060000e-06	4.950462e-06	4.440427e-09	3.486226e+01	2.900913e+02
2.070000e-06	4.861341e-06	4.409147e-09	3.423465e+01	2.884073e+02
2.080000e-06	4.770574e-06	4.344829e-09	3.359545e+01	2.866534e+02
2.090000e-06	4.678182e-06	4.344952e-09	3.294480e+01	2.848314e+02
2.100000e-06	4.584118e-06	4.320960e-09	3.228238e+01	2.829431e+02
2.110000e-06	4.488337e-06	4.295842e-09	3.160787e+01	2.809892e+02
2.120000e-06	4.390947e-06	4.235745e-09	3.092203e+01	2.789688e+02
2.130000e-06	4.292202e-06	4.218200e-09	3.022664e+01	2.768790e+02
2.140000e-06	4.191994e-06	4.198362e-09	2.952096e+01	2.747151e+02
2.150000e-06	4.090159e-06	4.155919e-09	2.880381e+01	2.724707e+02
2.160000e-06	3.986793e-06	4.114224e-09	2.807588e+01	2.701382e+02
2.170000e-06	3.881989e-06	4.077841e-09	2.733783e+01	2.677101e+02
2.180000e-06	3.775802e-06	4.048872e-09	2.659004e+01	2.651795e+02
2.190000e-06	3.668403e-06	4.001127e-09	2.583371e+01	2.625408e+02
2.200000e-06	3.559777e-06	3.965152e-09	2.506874e+01	2.597907e+02
2.210000e-06	3.449946e-06	3.916044e-09	2.429529e+01	2.569277e+02
2.220000e-06	3.338824e-06	3.867995e-09	2.351275e+01	2.539522e+02
2.230000e-06	3.226338e-06	3.822592e-09	2.272059e+01	2.508655e+02
2.240000e-06	3.112692e-06	3.779349e-09	2.192027e+01	2.476691e+02
2.250000e-06	2.997906e-06	3.721852e-09	2.111192e+01	2.443630e+02
2.260000e-06	2.881930e-06	3.663583e-09	2.029520e+01	2.409448e+02
2.270000e-06	2.764746e-06	3.615140e-09	1.946996e+01	2.374086e+02
2.280000e-06	2.646476e-06	3.563990e-09	1.863707e+01	2.337443e+02
2.290000e-06	2.527183e-06	3.503093e-09	1.779699e+01	2.299378e+02
2.300000e-06	2.406864e-06	3.437424e-09	1.694967e+01	2.259708e+02
2.310000e-06	2.285592e-06	3.380635e-09	1.609565e+01	2.218222e+02
2.320000e-06	2.163610e-06	3.316707e-09	1.523663e+01	2.174689e+02
2.330000e-06	2.041071e-06	3.244323e-09	1.437368e+01	2.128870e+02
2.340000e-06	1.917893e-06	3.169393e-09	1.350623e+01	2.080527e+02
2.350000e-06	1.793958e-06	3.095383e-09	1.263345e+01	2.029431e+02
2.360000e-06	1.669254e-06	3.013727e-09	1.175526e+01	1.975357e+02
2.370000e-06	1.543983e-06	2.928642e-09	1.087307e+01	1.918080e+02
2.380000e-06	1.418223e-06	2.840393e-09	9.987445e+00	1.857359e+02
2.390000e-06	1.291997e-06	2.741308e-09	9.098532e+00	1.792918e+02
2.400000e-06	1.165329e-06	2.635533e-09	8.206509e+00	1.724424e+02
2.410000e-06	1.038255e-06	2.526566e-09	7.311624e+00	1.651470e+02
2.420000e-06	9.108315e-07	2.410962e-09	6.414279e+00	1.573558e+02
2.430000e-06	7.830794e-07	2.281998e-09	5.514620e+00	1.490103e+02
2.440000e-06	6.550293e-07	2.145165e-09	4.612862e+00	1.400442e+02
2.450000e-06	5.266909e-07	2.000984e-09	3.709075e+00	1.303864e+02
2.460000e-06	3.981747e-07	1.842371e-09	2.804035e+00	1.199653e+02
2.470000e-06	2.695158e-07	1.670880e-09	1.897991e+00	1.087148e+02
2.480000e-06	1.406867e-07	1.490045e-09	9.907472e-01	9.658131e+01
2.490000e-06	1.181422e-08	1.295608e-09	8.319839e-02	8.353080e+01
2.500000e-06	-1.170341e-07	1.082025e-09	-8.241800e-01	6.955594e+01
2.510000e-06	-2.458262e-07	8.554744e-10	-1.731163e+00	5.468184e+01
2.520000e-06	-3.745017e-07	6.206942e-10	-2.637325e+00	3.897008e+01
2.530000e-06	-5.030262e-07	3.730078e-10	-3.542423e+00	2.252035e+01
2.540000e-06	-6.313392e-07	1.103409e-10	-4.446031e+00	5.469158e+00
2.550000e-06	-7.593796e-07	-1.595863e-10	-5.347721e+00	-1.201427e+01
2.560000e-06	-8.870695e-07	-4.295723e-10	-6.246942e+00	-2.973491e+01
2.570000e-06	-1.014341e-06	-7.015761e-10	-7.143216e+00	-4.748107e+01
2.580000e-06	-1.141183e-06	-9.737689e-10	-8.036469e+00	-6.503518e+01
2.590000e-06	-1.267649e-06	-1.239340e-09	-8.927069e+00	-8.218518e+01
2.600000e-06	-1.393767e-06	-1.494080e-09	-9.815219e+00	-9.873565e+01
2.610000e-06	-1.519450e-06	-1.735683e-09	-1.070031e+01	-1.145177e+02
2.620000e-06	-1.644537e-06	-1.963665e-09	-1.158120e+01	-1.293968e+02
2.630000e-06	-1.768917e-06	-2.177063e-09	-1.245711e+01	-1.432779e+02
2.640000e-06	-1.892539e-06	-2.373228e-09	-1.332768e+01	-1.561075e+02
2.650000e-06	-2.015391e-06	-2.551896e-09	-1.419283e+01	-1.678729e+02
2.660000e-06	-2.137548e-06	-2.714468e-09	-1.505309e+01	-1.785979e+02
2.670000e-06	-2.259062e-06	-2.862257e-09	-1.590882e+01	-1.883374e+02
2.680000e-06	-2.379813e-06	-2.996309e-09	-1.675917e+01	-1.971691e+02
2.690000e-06	-2.499636e-06	-3.118581e-09	-1.760300e+01	-2.051856e+02
2.700000e-06	-2.618484e-06	-3.231728e-09	-1.843995e+01	-2.124857e+02
2.710000e-06	-2.736301e-06	-3.335552e-09	-1.926964e+01	-2.191668e+02
2.720000e-06	-2.853019e-06	-3.430067e-09	-2.009159e+01	-2.253191e+02
2.730000e-06	-2.968571e-06	-3.518356e-09	-2.090534e+01	-2.310210e+02
2.740000e-06	-3.082879e-06	-3.602186e-09	-2.171032e+01	-2.363367e+02
2.750000e-06	-3.195906e-06	-3.679870e-09	-2.250629e+01	-2.413161e+02
2.760000e-06	-3.307648e-06	-3.750178e-09	-2.329320e+01	-2.459954e+02
2.770000e-06	-3.418106e-06	-3.815883e-09	-2.407107e+01	-2.503997e+02
2.780000e-06	-3.527409e-06	-3.879438e-09	-2.484080e+01	-2.545459e+02
2.790000e-06	-3.635618e-06	-3.938579e-09	-2.560283e+01	-2.584457e+02
2.800000e-06	-3.742657e-06	-3.992998e-09	-2.635663e+01	-2.621089e+02
2.810000e-06	-3.848432e-06	-4.045930e-09	-2.710151e+01	-2.655448e+02
2.820000e-06	-3.952802e-06	-4.098238e-09	-2.783652e+01	-2.687647e+02
2.830000e-06	-4.055631e-06	-4.148305e-09	-2.856066e+01	-2.717816e+02
2.840000e-06	-4.156908e-06	-4.194563e-09	-2.927387e+01	-2.746103e+02
2.850000e-06	-4.256681e-06	-4.238053e-09	-2.997650e+01	-2.772670e+02
2.860000e-06	-4.355032e-06	-4.279432e-09	-3.066911e+01	-2.797675e+02
2.870000e-06	-4.451991e-06	-4.317666e-09	-3.135191e+01	-2.821269e+02
2.880000e-06	-4.547429e-06	-4.352988e-09	-3.202401e+01	-2.843580e+02
2.890000e-06	-4.641185e-06	-4.386906e-09	-3.268426e+01	-2.864711e+02
2.900000e-06	-4.733251e-06	-4.418741e-09	-3.333261e+01	-2.884739e+02
2.910000e-06	-4.823712e-06	-4.447892e-09	-3.396966e+01	-2.903716e+02
2.920000e-06	-4.912482e-06	-4.475792e-09	-3.459480e+01	-2.921679e+02
2.930000e-06	-4.999417e-06	-4.503202e-09	-3.520701e+01	-2.938656e+02
2.940000e-06	-5.084485e-06	-4.529551e-09	-3.580608e+01	-2.954675e+02
