# Temperatura_=_20.0
# Concentracion g/m^3_=_9000.0
# C_Vs_to_Am_M_A/Vsm_=_65563218390.804596
# pendiente_HvsI_1/m_=_3716.3
# ordenada_HvsI_A/m_=_1297.0
# frecuencia_Hz_=_301155.77638583013

Tiempo_(s)	Campo_(V.s)	Magnetizacion_(V.s)	Campo_(kA/m)	Magnetizacion_(A/m)
0.000000e+00	-6.752039e-06	-4.835893e-09	-4.745384e+01	-3.180627e+02
1.000000e-08	-6.749817e-06	-4.840635e-09	-4.743822e+01	-3.179844e+02
2.000000e-08	-6.745302e-06	-4.836116e-09	-4.740649e+01	-3.178999e+02
3.000000e-08	-6.738715e-06	-4.833473e-09	-4.736020e+01	-3.178061e+02
4.000000e-08	-6.729981e-06	-4.828607e-09	-4.729881e+01	-3.176960e+02
5.000000e-08	-6.718852e-06	-4.820421e-09	-4.722059e+01	-3.175593e+02
6.000000e-08	-6.705165e-06	-4.814135e-09	-4.712440e+01	-3.173836e+02
7.000000e-08	-6.689000e-06	-4.793213e-09	-4.701080e+01	-3.171562e+02
8.000000e-08	-6.670718e-06	-4.791466e-09	-4.688231e+01	-3.168655e+02
9.000000e-08	-6.650292e-06	-4.891566e-09	-4.673875e+01	-3.165026e+02
1.000000e-07	-6.627266e-06	-4.912547e-09	-4.657693e+01	-3.160625e+02
1.100000e-07	-6.601469e-06	-4.830791e-09	-4.639562e+01	-3.155448e+02
1.200000e-07	-6.573210e-06	-4.777452e-09	-4.619701e+01	-3.149536e+02
1.300000e-07	-6.542885e-06	-4.752725e-09	-4.598389e+01	-3.142973e+02
1.400000e-07	-6.510733e-06	-4.696413e-09	-4.575792e+01	-3.135876e+02
1.500000e-07	-6.476663e-06	-4.808808e-09	-4.551848e+01	-3.128379e+02
1.600000e-07	-6.440507e-06	-4.872918e-09	-4.526437e+01	-3.120618e+02
1.700000e-07	-6.402322e-06	-4.624369e-09	-4.499600e+01	-3.112722e+02
1.800000e-07	-6.362019e-06	-4.761455e-09	-4.471275e+01	-3.104791e+02
1.900000e-07	-6.319209e-06	-4.803481e-09	-4.441188e+01	-3.096893e+02
2.000000e-07	-6.273950e-06	-4.670212e-09	-4.409379e+01	-3.089059e+02
2.100000e-07	-6.226417e-06	-4.758829e-09	-4.375973e+01	-3.081281e+02
2.200000e-07	-6.176217e-06	-4.671627e-09	-4.340692e+01	-3.073517e+02
2.300000e-07	-6.123424e-06	-4.671455e-09	-4.303589e+01	-3.065702e+02
2.400000e-07	-6.068377e-06	-4.711560e-09	-4.264901e+01	-3.057753e+02
2.500000e-07	-6.011045e-06	-4.673813e-09	-4.224608e+01	-3.049582e+02
2.600000e-07	-5.951501e-06	-4.661179e-09	-4.182759e+01	-3.041106e+02
2.700000e-07	-5.889834e-06	-4.600783e-09	-4.139420e+01	-3.032253e+02
2.800000e-07	-5.826108e-06	-4.603773e-09	-4.094632e+01	-3.022965e+02
2.900000e-07	-5.760291e-06	-4.614361e-09	-4.048376e+01	-3.013201e+02
3.000000e-07	-5.692308e-06	-4.613785e-09	-4.000597e+01	-3.002937e+02
3.100000e-07	-5.622245e-06	-4.550498e-09	-3.951356e+01	-2.992157e+02
3.200000e-07	-5.550188e-06	-4.506935e-09	-3.900714e+01	-2.980857e+02
3.300000e-07	-5.476014e-06	-4.590646e-09	-3.848584e+01	-2.969031e+02
3.400000e-07	-5.399574e-06	-4.517125e-09	-3.794861e+01	-2.956674e+02
3.500000e-07	-5.320913e-06	-4.460968e-09	-3.739578e+01	-2.943775e+02
3.600000e-07	-5.240225e-06	-4.484992e-09	-3.682869e+01	-2.930319e+02
3.700000e-07	-5.157735e-06	-4.464110e-09	-3.624895e+01	-2.916288e+02
3.800000e-07	-5.073522e-06	-4.427561e-09	-3.565709e+01	-2.901658e+02
3.900000e-07	-4.987667e-06	-4.400475e-09	-3.505370e+01	-2.886405e+02
4.000000e-07	-4.900186e-06	-4.397574e-09	-3.443888e+01	-2.870509e+02
4.100000e-07	-4.810892e-06	-4.333546e-09	-3.381131e+01	-2.853949e+02
4.200000e-07	-4.719784e-06	-4.316998e-09	-3.317099e+01	-2.836709e+02
4.300000e-07	-4.627019e-06	-4.321810e-09	-3.251904e+01	-2.818773e+02
4.400000e-07	-4.532685e-06	-4.280936e-09	-3.185605e+01	-2.800128e+02
4.500000e-07	-4.436699e-06	-4.231014e-09	-3.118145e+01	-2.780755e+02
4.600000e-07	-4.339000e-06	-4.210512e-09	-3.049482e+01	-2.760634e+02
4.700000e-07	-4.239740e-06	-4.203213e-09	-2.979721e+01	-2.739736e+02
4.800000e-07	-4.138952e-06	-4.141263e-09	-2.908887e+01	-2.718027e+02
4.900000e-07	-4.036718e-06	-4.093883e-09	-2.837035e+01	-2.695467e+02
5.000000e-07	-3.933027e-06	-4.075062e-09	-2.764161e+01	-2.672011e+02
5.100000e-07	-3.827819e-06	-4.049171e-09	-2.690220e+01	-2.647616e+02
5.200000e-07	-3.721229e-06	-3.994758e-09	-2.615308e+01	-2.622242e+02
5.300000e-07	-3.613313e-06	-3.952658e-09	-2.539463e+01	-2.595854e+02
5.400000e-07	-3.504103e-06	-3.923016e-09	-2.462710e+01	-2.568424e+02
5.500000e-07	-3.393777e-06	-3.873649e-09	-2.385172e+01	-2.539933e+02
5.600000e-07	-3.282318e-06	-3.828393e-09	-2.306837e+01	-2.510365e+02
5.700000e-07	-3.169452e-06	-3.787571e-09	-2.227515e+01	-2.479704e+02
5.800000e-07	-3.055162e-06	-3.738570e-09	-2.147191e+01	-2.447927e+02
5.900000e-07	-2.939635e-06	-3.678312e-09	-2.065998e+01	-2.414995e+02
6.000000e-07	-2.822946e-06	-3.633279e-09	-1.983987e+01	-2.380852e+02
6.100000e-07	-2.705303e-06	-3.584176e-09	-1.901307e+01	-2.345413e+02
6.200000e-07	-2.586885e-06	-3.520568e-09	-1.818082e+01	-2.308566e+02
6.300000e-07	-2.467498e-06	-3.454477e-09	-1.734176e+01	-2.270169e+02
6.400000e-07	-2.347021e-06	-3.396308e-09	-1.649504e+01	-2.230059e+02
6.500000e-07	-2.225620e-06	-3.336940e-09	-1.564182e+01	-2.188051e+02
6.600000e-07	-2.103466e-06	-3.261881e-09	-1.478331e+01	-2.143949e+02
6.700000e-07	-1.980579e-06	-3.188774e-09	-1.391966e+01	-2.097549e+02
6.800000e-07	-1.856935e-06	-3.120316e-09	-1.305068e+01	-2.048648e+02
6.900000e-07	-1.732587e-06	-3.043300e-09	-1.217675e+01	-1.997038e+02
7.000000e-07	-1.607614e-06	-2.951215e-09	-1.129843e+01	-1.942504e+02
7.100000e-07	-1.482143e-06	-2.862837e-09	-1.041662e+01	-1.884815e+02
7.200000e-07	-1.356295e-06	-2.774540e-09	-9.532143e+00	-1.823705e+02
7.300000e-07	-1.230023e-06	-2.673987e-09	-8.644694e+00	-1.758860e+02
7.400000e-07	-1.103302e-06	-2.563546e-09	-7.754092e+00	-1.689901e+02
7.500000e-07	-9.762008e-07	-2.450877e-09	-6.860813e+00	-1.616367e+02
7.600000e-07	-8.487182e-07	-2.330805e-09	-5.964855e+00	-1.537715e+02
7.700000e-07	-7.208785e-07	-2.195426e-09	-5.066388e+00	-1.453319e+02
7.800000e-07	-5.927436e-07	-2.056675e-09	-4.165847e+00	-1.362497e+02
7.900000e-07	-4.643425e-07	-1.907751e-09	-3.263434e+00	-1.264535e+02
8.000000e-07	-3.357457e-07	-1.741899e-09	-2.359646e+00	-1.158742e+02
8.100000e-07	-2.070251e-07	-1.566177e-09	-1.454988e+00	-1.044507e+02
8.200000e-07	-7.822192e-08	-1.383466e-09	-5.497495e-01	-9.213619e+01
8.300000e-07	5.061910e-08	-1.179375e-09	3.557548e-01	-7.890561e+01
8.400000e-07	1.794398e-07	-9.543562e-10	1.261116e+00	-6.476143e+01
8.500000e-07	3.082094e-07	-7.242387e-10	2.166119e+00	-4.973893e+01
8.600000e-07	4.368656e-07	-4.881955e-10	3.070325e+00	-3.390935e+01
8.700000e-07	5.653042e-07	-2.386671e-10	3.973001e+00	-1.738065e+01
8.800000e-07	6.934889e-07	2.378822e-11	4.873892e+00	-2.956567e-01
8.900000e-07	8.214360e-07	2.903883e-10	5.773114e+00	1.717263e+01
9.000000e-07	9.490642e-07	5.582914e-10	6.670094e+00	3.482821e+01
9.100000e-07	1.076306e-06	8.253657e-10	7.564357e+00	5.246129e+01
9.200000e-07	1.203135e-06	1.090084e-09	8.455721e+00	6.985888e+01
9.300000e-07	1.329561e-06	1.349700e-09	9.344254e+00	8.681579e+01
9.400000e-07	1.455560e-06	1.598875e-09	1.022979e+01	1.031452e+02
9.500000e-07	1.581070e-06	1.834510e-09	1.111188e+01	1.186879e+02
9.600000e-07	1.706126e-06	2.053569e-09	1.199078e+01	1.333193e+02
9.700000e-07	1.830676e-06	2.257018e-09	1.286613e+01	1.469542e+02
9.800000e-07	1.954586e-06	2.445657e-09	1.373698e+01	1.595475e+02
9.900000e-07	2.077760e-06	2.618315e-09	1.460265e+01	1.710937e+02
1.000000e-06	2.200140e-06	2.776287e-09	1.546275e+01	1.816219e+02
1.010000e-06	2.321747e-06	2.925234e-09	1.631741e+01	1.911901e+02
1.020000e-06	2.442594e-06	3.061163e-09	1.716673e+01	1.998772e+02
1.030000e-06	2.562541e-06	3.181636e-09	1.800973e+01	2.077747e+02
1.040000e-06	2.681469e-06	3.290914e-09	1.884557e+01	2.149789e+02
1.050000e-06	2.799434e-06	3.394844e-09	1.967463e+01	2.215836e+02
1.060000e-06	2.916410e-06	3.491504e-09	2.049675e+01	2.276741e+02
1.070000e-06	3.032264e-06	3.576303e-09	2.131098e+01	2.333242e+02
1.080000e-06	3.146868e-06	3.651417e-09	2.211642e+01	2.385934e+02
1.090000e-06	3.260210e-06	3.722936e-09	2.291300e+01	2.435274e+02
1.100000e-06	3.372321e-06	3.793999e-09	2.370093e+01	2.481596e+02
1.110000e-06	3.483201e-06	3.858582e-09	2.448020e+01	2.525129e+02
1.120000e-06	3.592902e-06	3.918119e-09	2.525119e+01	2.566037e+02
1.130000e-06	3.701431e-06	3.975865e-09	2.601393e+01	2.604442e+02
1.140000e-06	3.808701e-06	4.032546e-09	2.676783e+01	2.640455e+02
1.150000e-06	3.914597e-06	4.083697e-09	2.751208e+01	2.674197e+02
1.160000e-06	4.019024e-06	4.130418e-09	2.824600e+01	2.705804e+02
1.170000e-06	4.121920e-06	4.173181e-09	2.896916e+01	2.735436e+02
1.180000e-06	4.223375e-06	4.211789e-09	2.968220e+01	2.763269e+02
1.190000e-06	4.323433e-06	4.249823e-09	3.038541e+01	2.789481e+02
1.200000e-06	4.421889e-06	4.287727e-09	3.107737e+01	2.814247e+02
1.210000e-06	4.518626e-06	4.321962e-09	3.175724e+01	2.837718e+02
1.220000e-06	4.613678e-06	4.351491e-09	3.242527e+01	2.860017e+02
1.230000e-06	4.707135e-06	4.380216e-09	3.308210e+01	2.881235e+02
1.240000e-06	4.799103e-06	4.409504e-09	3.372845e+01	2.901427e+02
1.250000e-06	4.889411e-06	4.437021e-09	3.436315e+01	2.920622e+02
1.260000e-06	4.977837e-06	4.462086e-09	3.498461e+01	2.938832e+02
1.270000e-06	5.064449e-06	4.486133e-09	3.559333e+01	2.956060e+02
1.280000e-06	5.149398e-06	4.509795e-09	3.619036e+01	2.972319e+02
1.290000e-06	5.232675e-06	4.533075e-09	3.677563e+01	2.987631e+02
1.300000e-06	5.314120e-06	4.554361e-09	3.734804e+01	3.002040e+02
1.310000e-06	5.393620e-06	4.575058e-09	3.790676e+01	3.015609e+02
1.320000e-06	5.471167e-06	4.595631e-09	3.845177e+01	3.028417e+02
1.330000e-06	5.546698e-06	4.615794e-09	3.898261e+01	3.040549e+02
1.340000e-06	5.620033e-06	4.634556e-09	3.949802e+01	3.052091e+02
1.350000e-06	5.691221e-06	4.650966e-09	3.999833e+01	3.063115e+02
1.360000e-06	5.760416e-06	4.665911e-09	4.048464e+01	3.073673e+02
1.370000e-06	5.827620e-06	4.681723e-09	4.095695e+01	3.083789e+02
1.380000e-06	5.892742e-06	4.698999e-09	4.141463e+01	3.093463e+02
1.390000e-06	5.955763e-06	4.715634e-09	4.185755e+01	3.102669e+02
1.400000e-06	6.016834e-06	4.729390e-09	4.228676e+01	3.111369e+02
1.410000e-06	6.075906e-06	4.740849e-09	4.270192e+01	3.119516e+02
1.420000e-06	6.132749e-06	4.752300e-09	4.310142e+01	3.127071e+02
1.430000e-06	6.187357e-06	4.764698e-09	4.348521e+01	3.134013e+02
1.440000e-06	6.239642e-06	4.775643e-09	4.385267e+01	3.140347e+02
1.450000e-06	6.289249e-06	4.784934e-09	4.420132e+01	3.146104e+02
1.460000e-06	6.336302e-06	4.796479e-09	4.453200e+01	3.151348e+02
1.470000e-06	6.381196e-06	4.808875e-09	4.484752e+01	3.156160e+02
1.480000e-06	6.423965e-06	4.818655e-09	4.514811e+01	3.160638e+02
1.490000e-06	6.464337e-06	4.825619e-09	4.543185e+01	3.164877e+02
1.500000e-06	6.502373e-06	4.832514e-09	4.569916e+01	3.168961e+02
1.510000e-06	6.538330e-06	4.840909e-09	4.595187e+01	3.172948e+02
1.520000e-06	6.571992e-06	4.849941e-09	4.618845e+01	3.176862e+02
1.530000e-06	6.603223e-06	4.856578e-09	4.640795e+01	3.180692e+02
1.540000e-06	6.632273e-06	4.860702e-09	4.661211e+01	3.184393e+02
1.550000e-06	6.659120e-06	4.867011e-09	4.680080e+01	3.187891e+02
1.560000e-06	6.683480e-06	4.876082e-09	4.697200e+01	3.191097e+02
1.570000e-06	6.705389e-06	4.883224e-09	4.712598e+01	3.193921e+02
1.580000e-06	6.725107e-06	4.886943e-09	4.726456e+01	3.196283e+02
1.590000e-06	6.742486e-06	4.890953e-09	4.738670e+01	3.198128e+02
1.600000e-06	6.757352e-06	4.895417e-09	4.749117e+01	3.199436e+02
1.610000e-06	6.769748e-06	4.899618e-09	4.757830e+01	3.200223e+02
1.620000e-06	6.779494e-06	4.903465e-09	4.764679e+01	3.200538e+02
1.630000e-06	6.786657e-06	4.906061e-09	4.769714e+01	3.200461e+02
1.640000e-06	6.791527e-06	4.908249e-09	4.773136e+01	3.200084e+02
1.650000e-06	6.794116e-06	4.913148e-09	4.774956e+01	3.199502e+02
1.660000e-06	6.794286e-06	4.917378e-09	4.775075e+01	3.198792e+02
1.670000e-06	6.792120e-06	4.907240e-09	4.773553e+01	3.198008e+02
1.680000e-06	6.787855e-06	4.902907e-09	4.770555e+01	3.197161e+02
1.690000e-06	6.781269e-06	4.901631e-09	4.765927e+01	3.196223e+02
1.700000e-06	6.772369e-06	4.902562e-09	4.759672e+01	3.195125e+02
1.710000e-06	6.761414e-06	4.903263e-09	4.751972e+01	3.193765e+02
1.720000e-06	6.748110e-06	4.909067e-09	4.742623e+01	3.192021e+02
1.730000e-06	6.732384e-06	4.932416e-09	4.731570e+01	3.189763e+02
1.740000e-06	6.714603e-06	4.850288e-09	4.719073e+01	3.186876e+02
1.750000e-06	6.694465e-06	4.745711e-09	4.704920e+01	3.183270e+02
1.760000e-06	6.671069e-06	4.804608e-09	4.688478e+01	3.178893e+02
1.770000e-06	6.644556e-06	4.853572e-09	4.669844e+01	3.173738e+02
1.780000e-06	6.615963e-06	4.900027e-09	4.649748e+01	3.167847e+02
1.790000e-06	6.585454e-06	5.024613e-09	4.628306e+01	3.161302e+02
1.800000e-06	6.553185e-06	4.810985e-09	4.605628e+01	3.154217e+02
1.810000e-06	6.519223e-06	4.649828e-09	4.581759e+01	3.146728e+02
1.820000e-06	6.482852e-06	4.865617e-09	4.556197e+01	3.138970e+02
1.830000e-06	6.444128e-06	4.700280e-09	4.528982e+01	3.131072e+02
1.840000e-06	6.403286e-06	4.752454e-09	4.500278e+01	3.123137e+02
1.850000e-06	6.360230e-06	4.809085e-09	4.470018e+01	3.115233e+02
1.860000e-06	6.315087e-06	4.570539e-09	4.438291e+01	3.107392e+02
1.870000e-06	6.267608e-06	4.817423e-09	4.404922e+01	3.099608e+02
1.880000e-06	6.217805e-06	4.749476e-09	4.369920e+01	3.091841e+02
1.890000e-06	6.165693e-06	4.640131e-09	4.333296e+01	3.084025e+02
1.900000e-06	6.110855e-06	4.672435e-09	4.294755e+01	3.076078e+02
1.910000e-06	6.053678e-06	4.583598e-09	4.254571e+01	3.067913e+02
1.920000e-06	5.994507e-06	4.767153e-09	4.212985e+01	3.059445e+02
1.930000e-06	5.933236e-06	4.642500e-09	4.169923e+01	3.050602e+02
1.940000e-06	5.869714e-06	4.563305e-09	4.125279e+01	3.041326e+02
1.950000e-06	5.803993e-06	4.603609e-09	4.079090e+01	3.031575e+02
1.960000e-06	5.736289e-06	4.590109e-09	4.031507e+01	3.021325e+02
1.970000e-06	5.666247e-06	4.659148e-09	3.982281e+01	3.010560e+02
1.980000e-06	5.593955e-06	4.488847e-09	3.931473e+01	2.999274e+02
1.990000e-06	5.519692e-06	4.558391e-09	3.879281e+01	2.987463e+02
2.000000e-06	5.443352e-06	4.539419e-09	3.825628e+01	2.975120e+02
2.010000e-06	5.364883e-06	4.500385e-09	3.770480e+01	2.962237e+02
2.020000e-06	5.284314e-06	4.534582e-09	3.713855e+01	2.948797e+02
2.030000e-06	5.201941e-06	4.413489e-09	3.655964e+01	2.934783e+02
2.040000e-06	5.117837e-06	4.438247e-09	3.596854e+01	2.920170e+02
2.050000e-06	5.031841e-06	4.413918e-09	3.536415e+01	2.904936e+02
2.060000e-06	4.943978e-06	4.456068e-09	3.474665e+01	2.889059e+02
2.070000e-06	4.854416e-06	4.373360e-09	3.411720e+01	2.872519e+02
2.080000e-06	4.763259e-06	4.299801e-09	3.347654e+01	2.855299e+02
2.090000e-06	4.670433e-06	4.319951e-09	3.282416e+01	2.837384e+02
2.100000e-06	4.575895e-06	4.297455e-09	3.215973e+01	2.818760e+02
2.110000e-06	4.479635e-06	4.275418e-09	3.148321e+01	2.799410e+02
2.120000e-06	4.381801e-06	4.197447e-09	3.079563e+01	2.779312e+02
2.130000e-06	4.282592e-06	4.203363e-09	3.009838e+01	2.758438e+02
2.140000e-06	4.181853e-06	4.171726e-09	2.939037e+01	2.736754e+02
2.150000e-06	4.079444e-06	4.139634e-09	2.867064e+01	2.714221e+02
2.160000e-06	3.975519e-06	4.094473e-09	2.794025e+01	2.690793e+02
2.170000e-06	3.870234e-06	4.056350e-09	2.720030e+01	2.666429e+02
2.180000e-06	3.763637e-06	4.021138e-09	2.645112e+01	2.641086e+02
2.190000e-06	3.655896e-06	3.975223e-09	2.569391e+01	2.614730e+02
2.200000e-06	3.546919e-06	3.947373e-09	2.492802e+01	2.587334e+02
2.210000e-06	3.436607e-06	3.887761e-09	2.415273e+01	2.558877e+02
2.220000e-06	3.325000e-06	3.840372e-09	2.336835e+01	2.529344e+02
2.230000e-06	3.212122e-06	3.798586e-09	2.257503e+01	2.498718e+02
2.240000e-06	3.097987e-06	3.761293e-09	2.177288e+01	2.466976e+02
2.250000e-06	2.982701e-06	3.698019e-09	2.096265e+01	2.434083e+02
2.260000e-06	2.866238e-06	3.647650e-09	2.014414e+01	2.399980e+02
2.270000e-06	2.748532e-06	3.607016e-09	1.931689e+01	2.364585e+02
2.280000e-06	2.629801e-06	3.553599e-09	1.848244e+01	2.327786e+02
2.290000e-06	2.510025e-06	3.483751e-09	1.764065e+01	2.289443e+02
2.300000e-06	2.389242e-06	3.417598e-09	1.679177e+01	2.249393e+02
2.310000e-06	2.267635e-06	3.364600e-09	1.593711e+01	2.207452e+02
2.320000e-06	2.145358e-06	3.295799e-09	1.507774e+01	2.163424e+02
2.330000e-06	2.022459e-06	3.218624e-09	1.421399e+01	2.117106e+02
2.340000e-06	1.898967e-06	3.146025e-09	1.334608e+01	2.068293e+02
2.350000e-06	1.774736e-06	3.076623e-09	1.247298e+01	2.016779e+02
2.360000e-06	1.649716e-06	2.996462e-09	1.159433e+01	1.962350e+02
2.370000e-06	1.524100e-06	2.911657e-09	1.071149e+01	1.904773e+02
2.380000e-06	1.397996e-06	2.818863e-09	9.825221e+00	1.843786e+02
2.390000e-06	1.271459e-06	2.716683e-09	8.935908e+00	1.779077e+02
2.400000e-06	1.144458e-06	2.611500e-09	8.043337e+00	1.710267e+02
2.410000e-06	1.017087e-06	2.504262e-09	7.148163e+00	1.636902e+02
2.420000e-06	8.893590e-07	2.386598e-09	6.250482e+00	1.558438e+02
2.430000e-06	7.612115e-07	2.253100e-09	5.349852e+00	1.474255e+02
2.440000e-06	6.327394e-07	2.116308e-09	4.446940e+00	1.383670e+02
2.450000e-06	5.040608e-07	1.973851e-09	3.542577e+00	1.285971e+02
2.460000e-06	3.751941e-07	1.812104e-09	2.636892e+00	1.180465e+02
2.470000e-06	2.461595e-07	1.635933e-09	1.730027e+00	1.066536e+02
2.480000e-06	1.170466e-07	1.453185e-09	8.226120e-01	9.437113e+01
2.490000e-06	-1.201140e-08	1.259777e-09	-8.441701e-02	8.117298e+01
2.500000e-06	-1.410134e-07	1.044143e-09	-9.910530e-01	6.706061e+01
2.510000e-06	-2.700022e-07	8.124578e-10	-1.897596e+00	5.206805e+01
2.520000e-06	-3.988713e-07	5.724123e-10	-2.803297e+00	3.626523e+01
2.530000e-06	-5.275590e-07	3.238416e-10	-3.707724e+00	1.975882e+01
2.540000e-06	-6.560771e-07	6.593355e-11	-4.610959e+00	2.690455e+00
2.550000e-06	-7.843939e-07	-2.019889e-10	-5.512779e+00	-1.476783e+01
2.560000e-06	-9.123696e-07	-4.745167e-10	-6.412202e+00	-3.242069e+01
2.570000e-06	-1.039903e-06	-7.475512e-10	-7.308519e+00	-5.005868e+01
2.580000e-06	-1.167004e-06	-1.014551e-09	-8.201793e+00	-6.746871e+01
2.590000e-06	-1.293671e-06	-1.275180e-09	-9.092015e+00	-8.444513e+01
2.600000e-06	-1.419956e-06	-1.529531e-09	-9.979556e+00	-1.008003e+02
2.610000e-06	-1.545811e-06	-1.770566e-09	-1.086407e+01	-1.163739e+02
2.620000e-06	-1.671044e-06	-1.993461e-09	-1.174422e+01	-1.310400e+02
2.630000e-06	-1.795539e-06	-2.199400e-09	-1.261919e+01	-1.447119e+02
2.640000e-06	-1.919230e-06	-2.392928e-09	-1.348849e+01	-1.573432e+02
2.650000e-06	-2.042212e-06	-2.573231e-09	-1.435282e+01	-1.689268e+02
2.660000e-06	-2.164569e-06	-2.732689e-09	-1.521275e+01	-1.794910e+02
2.670000e-06	-2.286250e-06	-2.873344e-09	-1.606794e+01	-1.890927e+02
2.680000e-06	-2.407117e-06	-3.005287e-09	-1.691740e+01	-1.978101e+02
2.690000e-06	-2.527020e-06	-3.129381e-09	-1.776009e+01	-2.057346e+02
2.700000e-06	-2.645934e-06	-3.241916e-09	-1.859582e+01	-2.129623e+02
2.710000e-06	-2.763809e-06	-3.343545e-09	-1.942426e+01	-2.195872e+02
2.720000e-06	-2.880571e-06	-3.437227e-09	-2.024487e+01	-2.256952e+02
2.730000e-06	-2.996184e-06	-3.525236e-09	-2.105741e+01	-2.313603e+02
2.740000e-06	-3.110537e-06	-3.607684e-09	-2.186109e+01	-2.366427e+02
2.750000e-06	-3.223567e-06	-3.683524e-09	-2.265547e+01	-2.415885e+02
2.760000e-06	-3.335287e-06	-3.753119e-09	-2.344064e+01	-2.462314e+02
2.770000e-06	-3.445722e-06	-3.817724e-09	-2.421679e+01	-2.505948e+02
2.780000e-06	-3.554992e-06	-3.881362e-09	-2.498475e+01	-2.546951e+02
2.790000e-06	-3.663151e-06	-3.941496e-09	-2.574490e+01	-2.585448e+02
2.800000e-06	-3.770186e-06	-3.995457e-09	-2.649715e+01	-2.621549e+02
2.810000e-06	-3.875964e-06	-4.048301e-09	-2.724057e+01	-2.655374e+02
2.820000e-06	-3.980277e-06	-4.101581e-09	-2.797369e+01	-2.687059e+02
2.830000e-06	-4.083030e-06	-4.150872e-09	-2.869584e+01	-2.716763e+02
2.840000e-06	-4.184230e-06	-4.194365e-09	-2.940709e+01	-2.744660e+02
2.850000e-06	-4.283958e-06	-4.236626e-09	-3.010798e+01	-2.770932e+02
2.860000e-06	-4.382305e-06	-4.278226e-09	-3.079917e+01	-2.795751e+02
2.870000e-06	-4.479214e-06	-4.316685e-09	-3.148025e+01	-2.819270e+02
2.880000e-06	-4.574543e-06	-4.351611e-09	-3.215023e+01	-2.841614e+02
2.890000e-06	-4.668226e-06	-4.385678e-09	-3.280864e+01	-2.862873e+02
2.900000e-06	-4.760230e-06	-4.419798e-09	-3.345525e+01	-2.883105e+02
2.910000e-06	-4.850558e-06	-4.451389e-09	-3.409009e+01	-2.902340e+02
2.920000e-06	-4.939200e-06	-4.480751e-09	-3.471307e+01	-2.920589e+02
2.930000e-06	-5.026004e-06	-4.506537e-09	-3.532313e+01	-2.937857e+02
2.940000e-06	-5.110935e-06	-4.531455e-09	-3.592004e+01	-2.954153e+02
