# Temperatura_=_20.0
# Concentracion g/m^3_=_9000.0
# C_Vs_to_Am_M_A/Vsm_=_65563218390.804596
# pendiente_HvsI_1/m_=_3716.3
# ordenada_HvsI_A/m_=_1297.0
# frecuencia_Hz_=_301146.60007522727

Tiempo_(s)	Campo_(V.s)	Magnetizacion_(V.s)	Campo_(kA/m)	Magnetizacion_(A/m)
0.000000e+00	-6.701454e-06	-4.888458e-09	-4.745307e+01	-3.206830e+02
1.000000e-08	-6.699755e-06	-4.887998e-09	-4.744104e+01	-3.205853e+02
2.000000e-08	-6.695765e-06	-4.886680e-09	-4.741279e+01	-3.204605e+02
3.000000e-08	-6.689661e-06	-4.883738e-09	-4.736956e+01	-3.203115e+02
4.000000e-08	-6.681437e-06	-4.880124e-09	-4.731133e+01	-3.201394e+02
5.000000e-08	-6.670823e-06	-4.874792e-09	-4.723617e+01	-3.199440e+02
6.000000e-08	-6.657674e-06	-4.868429e-09	-4.714306e+01	-3.197233e+02
7.000000e-08	-6.642150e-06	-4.861593e-09	-4.703314e+01	-3.194743e+02
8.000000e-08	-6.624417e-06	-4.853960e-09	-4.690757e+01	-3.191930e+02
9.000000e-08	-6.604491e-06	-4.866695e-09	-4.676647e+01	-3.188751e+02
1.000000e-07	-6.582134e-06	-4.902352e-09	-4.660816e+01	-3.185166e+02
1.100000e-07	-6.557079e-06	-4.890144e-09	-4.643075e+01	-3.181142e+02
1.200000e-07	-6.529437e-06	-4.842818e-09	-4.623502e+01	-3.176658e+02
1.300000e-07	-6.499652e-06	-4.814021e-09	-4.602411e+01	-3.171704e+02
1.400000e-07	-6.468092e-06	-4.795373e-09	-4.580063e+01	-3.166286e+02
1.500000e-07	-6.434725e-06	-4.786284e-09	-4.556436e+01	-3.160420e+02
1.600000e-07	-6.399297e-06	-4.835991e-09	-4.531349e+01	-3.154132e+02
1.700000e-07	-6.361730e-06	-4.813510e-09	-4.504748e+01	-3.147456e+02
1.800000e-07	-6.322081e-06	-4.757366e-09	-4.476672e+01	-3.140428e+02
1.900000e-07	-6.280071e-06	-4.796385e-09	-4.446925e+01	-3.133083e+02
2.000000e-07	-6.235576e-06	-4.770561e-09	-4.415418e+01	-3.125454e+02
2.100000e-07	-6.188812e-06	-4.748055e-09	-4.382304e+01	-3.117566e+02
2.200000e-07	-6.139562e-06	-4.743331e-09	-4.347431e+01	-3.109436e+02
2.300000e-07	-6.087700e-06	-4.708988e-09	-4.310707e+01	-3.101071e+02
2.400000e-07	-6.033520e-06	-4.721925e-09	-4.272342e+01	-3.092470e+02
2.500000e-07	-5.977122e-06	-4.717946e-09	-4.232407e+01	-3.083620e+02
2.600000e-07	-5.918455e-06	-4.691025e-09	-4.190864e+01	-3.074499e+02
2.700000e-07	-5.857682e-06	-4.670096e-09	-4.147831e+01	-3.065077e+02
2.800000e-07	-5.794840e-06	-4.655590e-09	-4.103333e+01	-3.055314e+02
2.900000e-07	-5.729846e-06	-4.649640e-09	-4.057310e+01	-3.045166e+02
3.000000e-07	-5.662761e-06	-4.637310e-09	-4.009807e+01	-3.034585e+02
3.100000e-07	-5.593599e-06	-4.628166e-09	-3.960834e+01	-3.023520e+02
3.200000e-07	-5.522484e-06	-4.585859e-09	-3.910477e+01	-3.011923e+02
3.300000e-07	-5.449446e-06	-4.571691e-09	-3.858759e+01	-2.999750e+02
3.400000e-07	-5.374166e-06	-4.572297e-09	-3.805453e+01	-2.986964e+02
3.500000e-07	-5.296591e-06	-4.526590e-09	-3.750522e+01	-2.973536e+02
3.600000e-07	-5.216913e-06	-4.501769e-09	-3.694102e+01	-2.959451e+02
3.700000e-07	-5.135306e-06	-4.494405e-09	-3.636316e+01	-2.944705e+02
3.800000e-07	-5.051990e-06	-4.472615e-09	-3.577320e+01	-2.929304e+02
3.900000e-07	-4.967040e-06	-4.436594e-09	-3.517166e+01	-2.913262e+02
4.000000e-07	-4.880454e-06	-4.414849e-09	-3.455855e+01	-2.896597e+02
4.100000e-07	-4.792238e-06	-4.392281e-09	-3.393389e+01	-2.879326e+02
4.200000e-07	-4.702254e-06	-4.358930e-09	-3.329671e+01	-2.861461e+02
4.300000e-07	-4.610466e-06	-4.338910e-09	-3.264676e+01	-2.843001e+02
4.400000e-07	-4.517072e-06	-4.312503e-09	-3.198543e+01	-2.823931e+02
4.500000e-07	-4.422139e-06	-4.275214e-09	-3.131322e+01	-2.804220e+02
4.600000e-07	-4.325591e-06	-4.246655e-09	-3.062956e+01	-2.783818e+02
4.700000e-07	-4.227338e-06	-4.223940e-09	-2.993383e+01	-2.762662e+02
4.800000e-07	-4.127521e-06	-4.185362e-09	-2.922702e+01	-2.740679e+02
4.900000e-07	-4.026277e-06	-4.138153e-09	-2.851011e+01	-2.717795e+02
5.000000e-07	-3.923580e-06	-4.104750e-09	-2.778291e+01	-2.693939e+02
5.100000e-07	-3.819513e-06	-4.072208e-09	-2.704601e+01	-2.669052e+02
5.200000e-07	-3.714062e-06	-4.029022e-09	-2.629931e+01	-2.643091e+02
5.300000e-07	-3.607145e-06	-3.982153e-09	-2.554224e+01	-2.616033e+02
5.400000e-07	-3.498967e-06	-3.938364e-09	-2.477622e+01	-2.587874e+02
5.500000e-07	-3.389659e-06	-3.897794e-09	-2.400222e+01	-2.558625e+02
5.600000e-07	-3.279191e-06	-3.857224e-09	-2.321999e+01	-2.528306e+02
5.700000e-07	-3.167543e-06	-3.810675e-09	-2.242941e+01	-2.496934e+02
5.800000e-07	-3.054586e-06	-3.755628e-09	-2.162956e+01	-2.464513e+02
5.900000e-07	-2.940305e-06	-3.705324e-09	-2.082033e+01	-2.431025e+02
6.000000e-07	-2.824792e-06	-3.662295e-09	-2.000239e+01	-2.396421e+02
6.100000e-07	-2.708182e-06	-3.611509e-09	-1.917667e+01	-2.360613e+02
6.200000e-07	-2.590628e-06	-3.549564e-09	-1.834427e+01	-2.323476e+02
6.300000e-07	-2.472216e-06	-3.484840e-09	-1.750579e+01	-2.284850e+02
6.400000e-07	-2.352960e-06	-3.420347e-09	-1.666134e+01	-2.244544e+02
6.500000e-07	-2.232910e-06	-3.355121e-09	-1.581126e+01	-2.202351e+02
6.600000e-07	-2.112087e-06	-3.286451e-09	-1.495571e+01	-2.158052e+02
6.700000e-07	-1.990322e-06	-3.211922e-09	-1.409349e+01	-2.111431e+02
6.800000e-07	-1.867580e-06	-3.136428e-09	-1.322436e+01	-2.062278e+02
6.900000e-07	-1.744161e-06	-3.060433e-09	-1.235042e+01	-2.010388e+02
7.000000e-07	-1.620264e-06	-2.977816e-09	-1.147311e+01	-1.955561e+02
7.100000e-07	-1.495857e-06	-2.887078e-09	-1.059218e+01	-1.897583e+02
7.200000e-07	-1.370917e-06	-2.792270e-09	-9.707477e+00	-1.836216e+02
7.300000e-07	-1.245498e-06	-2.693997e-09	-8.819384e+00	-1.771175e+02
7.400000e-07	-1.119686e-06	-2.588846e-09	-7.928509e+00	-1.702108e+02
7.500000e-07	-9.935224e-07	-2.478721e-09	-7.035143e+00	-1.628580e+02
7.600000e-07	-8.670185e-07	-2.358129e-09	-6.139368e+00	-1.550070e+02
7.700000e-07	-7.401855e-07	-2.223869e-09	-5.241262e+00	-1.465965e+02
7.800000e-07	-6.130339e-07	-2.080750e-09	-4.340900e+00	-1.375588e+02
7.900000e-07	-4.856631e-07	-1.930689e-09	-3.438985e+00	-1.278224e+02
8.000000e-07	-3.582184e-07	-1.769612e-09	-2.536549e+00	-1.173169e+02
8.100000e-07	-2.307014e-07	-1.594561e-09	-1.633599e+00	-1.059790e+02
8.200000e-07	-1.030765e-07	-1.406669e-09	-7.298861e-01	-9.375902e+01
8.300000e-07	2.459082e-08	-1.204736e-09	1.741279e-01	-8.062800e+01
8.400000e-07	1.522429e-07	-9.886982e-10	1.078034e+00	-6.658394e+01
8.500000e-07	2.798706e-07	-7.582360e-10	1.981767e+00	-5.165703e+01
8.600000e-07	4.074264e-07	-5.172573e-10	2.884991e+00	-3.591310e+01
8.700000e-07	5.348775e-07	-2.693937e-10	3.787473e+00	-1.945456e+01
8.800000e-07	6.621525e-07	-1.382986e-11	4.688709e+00	-2.418898e+00
8.900000e-07	7.891863e-07	2.499221e-10	5.588237e+00	1.502567e+01
9.000000e-07	9.159197e-07	5.179536e-10	6.485637e+00	3.268700e+01
9.100000e-07	1.042285e-06	7.863067e-10	7.380431e+00	5.035791e+01
9.200000e-07	1.168240e-06	1.053477e-09	8.272320e+00	6.782643e+01
9.300000e-07	1.293832e-06	1.315467e-09	9.161641e+00	8.488664e+01
9.400000e-07	1.419069e-06	1.566772e-09	1.004844e+01	1.013491e+02
9.500000e-07	1.543853e-06	1.804068e-09	1.093204e+01	1.170504e+02
9.600000e-07	1.668107e-06	2.026894e-09	1.181188e+01	1.318601e+02
9.700000e-07	1.791864e-06	2.234074e-09	1.268821e+01	1.456860e+02
9.800000e-07	1.915175e-06	2.423910e-09	1.356137e+01	1.584759e+02
9.900000e-07	2.037833e-06	2.597575e-09	1.442992e+01	1.702169e+02
1.000000e-06	2.159582e-06	2.758293e-09	1.529202e+01	1.809316e+02
1.010000e-06	2.280330e-06	2.908480e-09	1.614704e+01	1.906728e+02
1.020000e-06	2.400182e-06	3.045856e-09	1.699571e+01	1.995158e+02
1.030000e-06	2.519250e-06	3.170164e-09	1.783884e+01	2.075506e+02
1.040000e-06	2.637464e-06	3.284164e-09	1.867591e+01	2.148740e+02
1.050000e-06	2.754786e-06	3.390383e-09	1.950667e+01	2.215819e+02
1.060000e-06	2.871162e-06	3.487391e-09	2.033073e+01	2.277635e+02
1.070000e-06	2.986388e-06	3.575483e-09	2.114665e+01	2.334967e+02
1.080000e-06	3.100320e-06	3.655412e-09	2.195340e+01	2.388459e+02
1.090000e-06	3.212912e-06	3.729152e-09	2.275066e+01	2.438609e+02
1.100000e-06	3.324248e-06	3.800320e-09	2.353904e+01	2.485781e+02
1.110000e-06	3.434426e-06	3.868054e-09	2.431921e+01	2.530225e+02
1.120000e-06	3.543464e-06	3.930150e-09	2.509131e+01	2.572105e+02
1.130000e-06	3.651438e-06	3.987479e-09	2.585587e+01	2.611530e+02
1.140000e-06	3.758261e-06	4.045200e-09	2.661229e+01	2.648586e+02
1.150000e-06	3.863596e-06	4.099432e-09	2.735817e+01	2.683357e+02
1.160000e-06	3.967367e-06	4.148002e-09	2.809297e+01	2.715943e+02
1.170000e-06	4.069716e-06	4.192816e-09	2.881771e+01	2.746469e+02
1.180000e-06	4.170708e-06	4.233449e-09	2.953283e+01	2.775082e+02
1.190000e-06	4.270355e-06	4.271501e-09	3.023843e+01	2.801948e+02
1.200000e-06	4.368464e-06	4.307513e-09	3.093314e+01	2.827239e+02
1.210000e-06	4.464804e-06	4.341464e-09	3.161533e+01	2.851120e+02
1.220000e-06	4.559445e-06	4.374038e-09	3.228548e+01	2.873739e+02
1.230000e-06	4.652550e-06	4.405267e-09	3.294476e+01	2.895218e+02
1.240000e-06	4.744187e-06	4.435679e-09	3.359364e+01	2.915649e+02
1.250000e-06	4.834175e-06	4.463995e-09	3.423084e+01	2.935094e+02
1.260000e-06	4.922315e-06	4.489590e-09	3.485497e+01	2.953592e+02
1.270000e-06	5.008668e-06	4.514652e-09	3.546643e+01	2.971163e+02
1.280000e-06	5.093360e-06	4.538488e-09	3.606614e+01	2.987821e+02
1.290000e-06	5.176434e-06	4.559843e-09	3.665439e+01	3.003582e+02
1.300000e-06	5.257654e-06	4.580137e-09	3.722951e+01	3.018472e+02
1.310000e-06	5.336892e-06	4.601512e-09	3.779059e+01	3.032531e+02
1.320000e-06	5.414241e-06	4.623230e-09	3.833830e+01	3.045814e+02
1.330000e-06	5.489562e-06	4.642065e-09	3.887165e+01	3.058385e+02
1.340000e-06	5.562728e-06	4.660126e-09	3.938974e+01	3.070317e+02
1.350000e-06	5.633816e-06	4.677951e-09	3.989311e+01	3.081680e+02
1.360000e-06	5.702949e-06	4.694108e-09	4.038265e+01	3.092536e+02
1.370000e-06	5.770164e-06	4.709347e-09	4.085860e+01	3.102928e+02
1.380000e-06	5.835259e-06	4.724974e-09	4.131953e+01	3.112881e+02
1.390000e-06	5.898217e-06	4.741445e-09	4.176534e+01	3.122398e+02
1.400000e-06	5.959210e-06	4.756292e-09	4.219723e+01	3.131462e+02
1.410000e-06	6.018246e-06	4.769460e-09	4.261527e+01	3.140044e+02
1.420000e-06	6.075102e-06	4.780934e-09	4.301786e+01	3.148107e+02
1.430000e-06	6.129687e-06	4.792442e-09	4.340438e+01	3.155618e+02
1.440000e-06	6.182019e-06	4.803374e-09	4.377495e+01	3.162554e+02
1.450000e-06	6.231784e-06	4.812594e-09	4.412733e+01	3.168911e+02
1.460000e-06	6.279023e-06	4.822303e-09	4.446183e+01	3.174705e+02
1.470000e-06	6.324124e-06	4.832362e-09	4.478119e+01	3.179974e+02
1.480000e-06	6.367105e-06	4.841515e-09	4.508554e+01	3.184776e+02
1.490000e-06	6.407702e-06	4.848634e-09	4.537301e+01	3.189182e+02
1.500000e-06	6.445961e-06	4.856126e-09	4.564392e+01	3.193266e+02
1.510000e-06	6.482107e-06	4.863823e-09	4.589987e+01	3.197100e+02
1.520000e-06	6.516005e-06	4.871324e-09	4.613990e+01	3.200743e+02
1.530000e-06	6.547511e-06	4.876455e-09	4.636300e+01	3.204234e+02
1.540000e-06	6.576819e-06	4.879822e-09	4.657053e+01	3.207590e+02
1.550000e-06	6.603966e-06	4.886162e-09	4.676276e+01	3.210802e+02
1.560000e-06	6.628641e-06	4.894260e-09	4.693748e+01	3.213840e+02
1.570000e-06	6.650832e-06	4.901114e-09	4.709461e+01	3.216657e+02
1.580000e-06	6.670840e-06	4.905387e-09	4.723629e+01	3.219196e+02
1.590000e-06	6.688620e-06	4.909427e-09	4.736219e+01	3.221400e+02
1.600000e-06	6.703898e-06	4.913665e-09	4.747037e+01	3.223218e+02
1.610000e-06	6.716663e-06	4.917071e-09	4.756077e+01	3.224612e+02
1.620000e-06	6.726897e-06	4.919381e-09	4.763323e+01	3.225563e+02
1.630000e-06	6.734548e-06	4.922255e-09	4.768741e+01	3.226070e+02
1.640000e-06	6.739846e-06	4.925871e-09	4.772493e+01	3.226152e+02
1.650000e-06	6.742885e-06	4.928996e-09	4.774644e+01	3.225842e+02
1.660000e-06	6.743493e-06	4.932354e-09	4.775075e+01	3.225179e+02
1.670000e-06	6.741758e-06	4.930221e-09	4.773846e+01	3.224207e+02
1.680000e-06	6.737925e-06	4.924310e-09	4.771132e+01	3.222964e+02
1.690000e-06	6.731890e-06	4.921810e-09	4.766859e+01	3.221477e+02
1.700000e-06	6.723570e-06	4.921265e-09	4.760968e+01	3.219760e+02
1.710000e-06	6.713085e-06	4.918896e-09	4.753543e+01	3.217810e+02
1.720000e-06	6.700337e-06	4.915015e-09	4.744516e+01	3.215608e+02
1.730000e-06	6.685218e-06	4.916987e-09	4.733810e+01	3.213125e+02
1.740000e-06	6.667915e-06	4.909967e-09	4.721558e+01	3.210319e+02
1.750000e-06	6.648318e-06	4.852338e-09	4.707681e+01	3.207149e+02
1.760000e-06	6.625749e-06	4.831155e-09	4.691700e+01	3.203574e+02
1.770000e-06	6.600079e-06	4.868189e-09	4.673523e+01	3.199562e+02
1.780000e-06	6.572018e-06	4.898038e-09	4.653653e+01	3.195090e+02
1.790000e-06	6.541988e-06	4.926262e-09	4.632389e+01	3.190149e+02
1.800000e-06	6.510188e-06	4.931374e-09	4.609871e+01	3.184742e+02
1.810000e-06	6.476761e-06	4.820908e-09	4.586202e+01	3.178887e+02
1.820000e-06	6.441214e-06	4.807838e-09	4.561031e+01	3.172609e+02
1.830000e-06	6.403285e-06	4.845685e-09	4.534173e+01	3.165941e+02
1.840000e-06	6.363118e-06	4.791503e-09	4.505731e+01	3.158920e+02
1.850000e-06	6.320709e-06	4.829733e-09	4.475701e+01	3.151582e+02
1.860000e-06	6.276196e-06	4.789830e-09	4.444181e+01	3.143958e+02
1.870000e-06	6.229484e-06	4.772065e-09	4.411105e+01	3.136074e+02
1.880000e-06	6.180479e-06	4.817411e-09	4.376404e+01	3.127948e+02
1.890000e-06	6.129210e-06	4.740055e-09	4.340100e+01	3.119587e+02
1.900000e-06	6.075361e-06	4.730880e-09	4.301970e+01	3.110990e+02
1.910000e-06	6.019077e-06	4.721672e-09	4.262115e+01	3.102145e+02
1.920000e-06	5.960747e-06	4.715995e-09	4.220812e+01	3.093029e+02
1.930000e-06	5.900374e-06	4.736883e-09	4.178061e+01	3.083613e+02
1.940000e-06	5.837785e-06	4.667837e-09	4.133742e+01	3.073859e+02
1.950000e-06	5.772962e-06	4.661727e-09	4.087841e+01	3.063721e+02
1.960000e-06	5.706071e-06	4.650962e-09	4.040475e+01	3.053152e+02
1.970000e-06	5.637007e-06	4.655032e-09	3.991571e+01	3.042101e+02
1.980000e-06	5.565738e-06	4.619993e-09	3.941105e+01	3.030519e+02
1.990000e-06	5.492438e-06	4.578268e-09	3.889202e+01	3.018363e+02
2.000000e-06	5.417149e-06	4.607300e-09	3.835889e+01	3.005594e+02
2.010000e-06	5.339820e-06	4.564276e-09	3.781132e+01	2.992185e+02
2.020000e-06	5.260385e-06	4.543941e-09	3.724885e+01	2.978119e+02
2.030000e-06	5.179008e-06	4.510582e-09	3.667261e+01	2.963392e+02
2.040000e-06	5.095883e-06	4.485325e-09	3.608400e+01	2.948009e+02
2.050000e-06	5.011034e-06	4.485078e-09	3.548319e+01	2.931985e+02
2.060000e-06	4.924364e-06	4.464600e-09	3.486948e+01	2.915337e+02
2.070000e-06	4.835774e-06	4.434881e-09	3.424217e+01	2.898083e+02
2.080000e-06	4.745487e-06	4.374739e-09	3.360284e+01	2.880235e+02
2.090000e-06	4.653657e-06	4.362268e-09	3.295259e+01	2.861792e+02
2.100000e-06	4.560245e-06	4.347623e-09	3.229114e+01	2.842740e+02
2.110000e-06	4.465102e-06	4.309950e-09	3.161743e+01	2.823048e+02
2.120000e-06	4.368276e-06	4.258783e-09	3.093181e+01	2.802667e+02
2.130000e-06	4.270034e-06	4.224043e-09	3.023616e+01	2.781534e+02
2.140000e-06	4.170380e-06	4.212366e-09	2.953051e+01	2.759578e+02
2.150000e-06	4.069207e-06	4.181891e-09	2.881410e+01	2.736722e+02
2.160000e-06	3.966393e-06	4.142055e-09	2.808608e+01	2.712898e+02
2.170000e-06	3.862067e-06	4.094756e-09	2.734734e+01	2.688043e+02
2.180000e-06	3.756447e-06	4.063253e-09	2.659944e+01	2.662116e+02
2.190000e-06	3.649619e-06	4.030354e-09	2.584299e+01	2.635093e+02
2.200000e-06	3.541635e-06	3.985898e-09	2.507835e+01	2.606969e+02
2.210000e-06	3.432497e-06	3.927704e-09	2.430555e+01	2.577754e+02
2.220000e-06	3.322100e-06	3.873955e-09	2.352383e+01	2.547468e+02
2.230000e-06	3.210366e-06	3.834568e-09	2.273264e+01	2.516129e+02
2.240000e-06	3.097419e-06	3.794099e-09	2.193286e+01	2.483741e+02
2.250000e-06	2.983343e-06	3.738842e-09	2.112508e+01	2.450287e+02
2.260000e-06	2.868140e-06	3.674690e-09	2.030933e+01	2.415719e+02
2.270000e-06	2.751792e-06	3.623047e-09	1.948547e+01	2.379952e+02
2.280000e-06	2.634283e-06	3.578968e-09	1.865339e+01	2.342861e+02
2.290000e-06	2.515597e-06	3.524007e-09	1.781297e+01	2.304286e+02
2.300000e-06	2.395868e-06	3.452839e-09	1.696517e+01	2.264039e+02
2.310000e-06	2.275324e-06	3.383260e-09	1.611160e+01	2.221912e+02
2.320000e-06	2.154092e-06	3.318847e-09	1.525315e+01	2.177688e+02
2.330000e-06	2.032173e-06	3.252841e-09	1.438984e+01	2.131149e+02
2.340000e-06	1.909548e-06	3.179317e-09	1.352153e+01	2.082085e+02
2.350000e-06	1.786287e-06	3.100834e-09	1.264872e+01	2.030292e+02
2.360000e-06	1.662415e-06	3.019522e-09	1.177158e+01	1.975569e+02
2.370000e-06	1.538034e-06	2.938048e-09	1.089084e+01	1.917702e+02
2.380000e-06	1.413225e-06	2.851506e-09	1.000706e+01	1.856457e+02
2.390000e-06	1.287960e-06	2.749400e-09	9.120056e+00	1.791548e+02
2.400000e-06	1.162199e-06	2.635956e-09	8.229544e+00	1.722627e+02
2.410000e-06	1.035889e-06	2.520471e-09	7.335141e+00	1.649263e+02
2.420000e-06	9.090659e-07	2.404645e-09	6.437105e+00	1.570935e+02
2.430000e-06	7.818521e-07	2.280506e-09	5.536303e+00	1.487037e+02
2.440000e-06	6.543283e-07	2.143944e-09	4.633306e+00	1.396892e+02
2.450000e-06	5.265309e-07	1.994695e-09	3.728371e+00	1.299785e+02
2.460000e-06	3.985272e-07	1.836691e-09	2.821976e+00	1.195012e+02
2.470000e-06	2.703688e-07	1.671114e-09	1.914485e+00	1.081935e+02
2.480000e-06	1.421090e-07	1.491920e-09	1.006275e+00	9.600519e+01
2.490000e-06	1.381352e-08	1.292456e-09	9.781371e-02	8.290646e+01
2.500000e-06	-1.144793e-07	1.075579e-09	-8.106288e-01	6.889422e+01
2.510000e-06	-2.427425e-07	8.491835e-10	-1.718862e+00	5.399748e+01
2.520000e-06	-3.709241e-07	6.123967e-10	-2.626517e+00	3.828071e+01
2.530000e-06	-4.989441e-07	3.621352e-10	-3.533028e+00	2.184506e+01
2.540000e-06	-6.267739e-07	9.973152e-11	-4.438193e+00	4.826824e+00
2.550000e-06	-7.543814e-07	-1.682857e-10	-5.341783e+00	-1.260679e+01
2.560000e-06	-8.815856e-07	-4.373284e-10	-6.242518e+00	-3.026434e+01
2.570000e-06	-1.008218e-06	-7.073305e-10	-7.139202e+00	-4.793903e+01
2.580000e-06	-1.134276e-06	-9.771500e-10	-8.031820e+00	-6.541885e+01
2.590000e-06	-1.259826e-06	-1.243091e-09	-8.920842e+00	-8.249749e+01
2.600000e-06	-1.384939e-06	-1.498995e-09	-9.806767e+00	-9.898479e+01
2.610000e-06	-1.509692e-06	-1.741010e-09	-1.069014e+01	-1.147162e+02
2.620000e-06	-1.633993e-06	-1.969004e-09	-1.157032e+01	-1.295600e+02
2.630000e-06	-1.757677e-06	-2.182201e-09	-1.244613e+01	-1.434226e+02
2.640000e-06	-1.880666e-06	-2.378665e-09	-1.331702e+01	-1.562505e+02
2.650000e-06	-2.002940e-06	-2.558520e-09	-1.418284e+01	-1.680292e+02
2.660000e-06	-2.124499e-06	-2.718720e-09	-1.504360e+01	-1.787802e+02
2.670000e-06	-2.245395e-06	-2.863616e-09	-1.589967e+01	-1.885554e+02
2.680000e-06	-2.365616e-06	-3.000709e-09	-1.675095e+01	-1.974295e+02
2.690000e-06	-2.484904e-06	-3.127683e-09	-1.759563e+01	-2.054920e+02
2.700000e-06	-2.603046e-06	-3.241444e-09	-1.843220e+01	-2.128396e+02
2.710000e-06	-2.720085e-06	-3.342514e-09	-1.926095e+01	-2.195683e+02
2.720000e-06	-2.836053e-06	-3.436168e-09	-2.008213e+01	-2.257678e+02
2.730000e-06	-2.950897e-06	-3.525049e-09	-2.089533e+01	-2.315163e+02
2.740000e-06	-3.064504e-06	-3.607768e-09	-2.169979e+01	-2.368787e+02
2.750000e-06	-3.176763e-06	-3.683368e-09	-2.249469e+01	-2.419054e+02
2.760000e-06	-3.287716e-06	-3.753418e-09	-2.328035e+01	-2.466332e+02
2.770000e-06	-3.397480e-06	-3.820804e-09	-2.405759e+01	-2.510875e+02
2.780000e-06	-3.506195e-06	-3.885527e-09	-2.482740e+01	-2.552849e+02
2.790000e-06	-3.613880e-06	-3.945350e-09	-2.558992e+01	-2.592365e+02
2.800000e-06	-3.720379e-06	-4.001830e-09	-2.634405e+01	-2.629509e+02
2.810000e-06	-3.825601e-06	-4.057383e-09	-2.708912e+01	-2.664364e+02
2.820000e-06	-3.929444e-06	-4.111211e-09	-2.782444e+01	-2.697031e+02
2.830000e-06	-4.031695e-06	-4.161809e-09	-2.854848e+01	-2.727632e+02
2.840000e-06	-4.132390e-06	-4.208112e-09	-2.926150e+01	-2.756316e+02
2.850000e-06	-4.231698e-06	-4.250151e-09	-2.996470e+01	-2.783246e+02
2.860000e-06	-4.329624e-06	-4.290585e-09	-3.065812e+01	-2.808594e+02
2.870000e-06	-4.426085e-06	-4.329967e-09	-3.134116e+01	-2.832527e+02
2.880000e-06	-4.520931e-06	-4.366085e-09	-3.201276e+01	-2.855194e+02
2.890000e-06	-4.614137e-06	-4.400058e-09	-3.267276e+01	-2.876716e+02
2.900000e-06	-4.705800e-06	-4.432348e-09	-3.332182e+01	-2.897188e+02
2.910000e-06	-4.795810e-06	-4.463173e-09	-3.395918e+01	-2.916673e+02
2.920000e-06	-4.884071e-06	-4.493140e-09	-3.458416e+01	-2.935209e+02
2.930000e-06	-4.970532e-06	-4.522881e-09	-3.519639e+01	-2.952817e+02
2.940000e-06	-5.055182e-06	-4.551316e-09	-3.579580e+01	-2.969512e+02
