# Temperatura_=_20.0
# Concentracion g/m^3_=_9000.0
# C_Vs_to_Am_M_A/Vsm_=_65563218390.804596
# pendiente_HvsI_1/m_=_3716.3
# ordenada_HvsI_A/m_=_1297.0
# frecuencia_Hz_=_301146.9054721528

Tiempo_(s)	Campo_(V.s)	Magnetizacion_(V.s)	Campo_(kA/m)	Magnetizacion_(A/m)
0.000000e+00	-6.702458e-06	-4.866520e-09	-4.745812e+01	-3.190961e+02
1.000000e-08	-6.700544e-06	-4.870272e-09	-4.744456e+01	-3.189779e+02
2.000000e-08	-6.696373e-06	-4.866706e-09	-4.741503e+01	-3.188405e+02
3.000000e-08	-6.690156e-06	-4.860961e-09	-4.737101e+01	-3.186853e+02
4.000000e-08	-6.681732e-06	-4.854997e-09	-4.731136e+01	-3.185114e+02
5.000000e-08	-6.670858e-06	-4.847664e-09	-4.723437e+01	-3.183154e+02
6.000000e-08	-6.657532e-06	-4.842659e-09	-4.714001e+01	-3.180926e+02
7.000000e-08	-6.641849e-06	-4.830482e-09	-4.702896e+01	-3.178369e+02
8.000000e-08	-6.623965e-06	-4.817078e-09	-4.690233e+01	-3.175422e+02
9.000000e-08	-6.603948e-06	-4.869639e-09	-4.676060e+01	-3.172032e+02
1.000000e-07	-6.581468e-06	-4.905614e-09	-4.660143e+01	-3.168159e+02
1.100000e-07	-6.556172e-06	-4.858501e-09	-4.642231e+01	-3.163781e+02
1.200000e-07	-6.528295e-06	-4.802410e-09	-4.622492e+01	-3.158898e+02
1.300000e-07	-6.498323e-06	-4.777700e-09	-4.601270e+01	-3.153529e+02
1.400000e-07	-6.466640e-06	-4.740002e-09	-4.578836e+01	-3.147710e+02
1.500000e-07	-6.433159e-06	-4.785443e-09	-4.555129e+01	-3.141489e+02
1.600000e-07	-6.397508e-06	-4.861084e-09	-4.529886e+01	-3.134919e+02
1.700000e-07	-6.359713e-06	-4.711764e-09	-4.503124e+01	-3.128052e+02
1.800000e-07	-6.319848e-06	-4.736374e-09	-4.474897e+01	-3.120935e+02
1.900000e-07	-6.277579e-06	-4.796436e-09	-4.444968e+01	-3.113606e+02
2.000000e-07	-6.232895e-06	-4.716015e-09	-4.413328e+01	-3.106088e+02
2.100000e-07	-6.185999e-06	-4.757343e-09	-4.380123e+01	-3.098393e+02
2.200000e-07	-6.136457e-06	-4.705293e-09	-4.345043e+01	-3.090520e+02
2.300000e-07	-6.084281e-06	-4.675109e-09	-4.308099e+01	-3.082458e+02
2.400000e-07	-6.029861e-06	-4.714264e-09	-4.269566e+01	-3.074186e+02
2.500000e-07	-5.973249e-06	-4.693753e-09	-4.229480e+01	-3.065679e+02
2.600000e-07	-5.914415e-06	-4.672222e-09	-4.187822e+01	-3.056907e+02
2.700000e-07	-5.853473e-06	-4.631985e-09	-4.144671e+01	-3.047836e+02
2.800000e-07	-5.790480e-06	-4.628701e-09	-4.100067e+01	-3.038429e+02
2.900000e-07	-5.725394e-06	-4.633611e-09	-4.053982e+01	-3.028646e+02
3.000000e-07	-5.658207e-06	-4.627352e-09	-4.006409e+01	-3.018444e+02
3.100000e-07	-5.588855e-06	-4.594777e-09	-3.957303e+01	-3.007780e+02
3.200000e-07	-5.517523e-06	-4.539036e-09	-3.906795e+01	-2.996607e+02
3.300000e-07	-5.444248e-06	-4.577871e-09	-3.854911e+01	-2.984879e+02
3.400000e-07	-5.368692e-06	-4.550673e-09	-3.801412e+01	-2.972553e+02
3.500000e-07	-5.290939e-06	-4.494305e-09	-3.746357e+01	-2.959592e+02
3.600000e-07	-5.211130e-06	-4.492432e-09	-3.689847e+01	-2.945968e+02
3.700000e-07	-5.129371e-06	-4.476308e-09	-3.631956e+01	-2.931664e+02
3.800000e-07	-5.045921e-06	-4.450741e-09	-3.572867e+01	-2.916674e+02
3.900000e-07	-4.960812e-06	-4.419670e-09	-3.512604e+01	-2.901004e+02
4.000000e-07	-4.874036e-06	-4.408597e-09	-3.451161e+01	-2.884669e+02
4.100000e-07	-4.785636e-06	-4.365444e-09	-3.388567e+01	-2.867690e+02
4.200000e-07	-4.695462e-06	-4.340396e-09	-3.324718e+01	-2.850086e+02
4.300000e-07	-4.603519e-06	-4.333125e-09	-3.259615e+01	-2.831871e+02
4.400000e-07	-4.510013e-06	-4.295391e-09	-3.193406e+01	-2.813047e+02
4.500000e-07	-4.414948e-06	-4.251124e-09	-3.126094e+01	-2.793599e+02
4.600000e-07	-4.318320e-06	-4.224631e-09	-3.057674e+01	-2.773495e+02
4.700000e-07	-4.219964e-06	-4.210301e-09	-2.988032e+01	-2.752683e+02
4.800000e-07	-4.120018e-06	-4.162865e-09	-2.917263e+01	-2.731099e+02
4.900000e-07	-4.018701e-06	-4.117692e-09	-2.845523e+01	-2.708666e+02
5.000000e-07	-3.915862e-06	-4.090295e-09	-2.772706e+01	-2.685307e+02
5.100000e-07	-3.811581e-06	-4.058295e-09	-2.698868e+01	-2.660948e+02
5.200000e-07	-3.705930e-06	-4.010605e-09	-2.624059e+01	-2.635529e+02
5.300000e-07	-3.598857e-06	-3.967166e-09	-2.548244e+01	-2.609005e+02
5.400000e-07	-3.490528e-06	-3.930794e-09	-2.471540e+01	-2.581354e+02
5.500000e-07	-3.381085e-06	-3.886032e-09	-2.394046e+01	-2.552567e+02
5.600000e-07	-3.270516e-06	-3.843303e-09	-2.315755e+01	-2.522651e+02
5.700000e-07	-3.158760e-06	-3.799787e-09	-2.236624e+01	-2.491614e+02
5.800000e-07	-3.045760e-06	-3.747620e-09	-2.156613e+01	-2.459460e+02
5.900000e-07	-2.931459e-06	-3.692199e-09	-2.075679e+01	-2.426176e+02
6.000000e-07	-2.815891e-06	-3.647274e-09	-1.993849e+01	-2.391719e+02
6.100000e-07	-2.699243e-06	-3.596568e-09	-1.911254e+01	-2.356015e+02
6.200000e-07	-2.581622e-06	-3.534518e-09	-1.827970e+01	-2.318951e+02
6.300000e-07	-2.463071e-06	-3.470089e-09	-1.744028e+01	-2.280375e+02
6.400000e-07	-2.343639e-06	-3.409297e-09	-1.659461e+01	-2.240108e+02
6.500000e-07	-2.223453e-06	-3.347804e-09	-1.574361e+01	-2.197945e+02
6.600000e-07	-2.102574e-06	-3.275710e-09	-1.488770e+01	-2.153670e+02
6.700000e-07	-1.980848e-06	-3.200753e-09	-1.402580e+01	-2.107061e+02
6.800000e-07	-1.858143e-06	-3.128266e-09	-1.315696e+01	-2.057901e+02
6.900000e-07	-1.734601e-06	-3.051147e-09	-1.228220e+01	-2.005980e+02
7.000000e-07	-1.610556e-06	-2.963926e-09	-1.140387e+01	-1.951086e+02
7.100000e-07	-1.486160e-06	-2.876303e-09	-1.052306e+01	-1.893000e+02
7.200000e-07	-1.361316e-06	-2.784445e-09	-9.639076e+00	-1.831479e+02
7.300000e-07	-1.235908e-06	-2.682781e-09	-8.751095e+00	-1.766234e+02
7.400000e-07	-1.110014e-06	-2.574758e-09	-7.859680e+00	-1.696915e+02
7.500000e-07	-9.837844e-07	-2.463960e-09	-6.965886e+00	-1.623090e+02
7.600000e-07	-8.572398e-07	-2.342262e-09	-6.069861e+00	-1.544242e+02
7.700000e-07	-7.303238e-07	-2.204945e-09	-5.171206e+00	-1.459764e+02
7.800000e-07	-6.030649e-07	-2.063404e-09	-4.270124e+00	-1.368985e+02
7.900000e-07	-4.755831e-07	-1.915710e-09	-3.367463e+00	-1.271196e+02
8.000000e-07	-3.479439e-07	-1.753689e-09	-2.463688e+00	-1.165696e+02
8.100000e-07	-2.201772e-07	-1.577305e-09	-1.559009e+00	-1.051857e+02
8.200000e-07	-9.236865e-08	-1.390588e-09	-6.540350e-01	-9.291896e+01
8.300000e-07	3.543869e-08	-1.188065e-09	2.509308e-01	-7.974093e+01
8.400000e-07	1.632625e-07	-9.692189e-10	1.156013e+00	-6.565062e+01
8.500000e-07	2.910389e-07	-7.401779e-10	2.060760e+00	-5.067953e+01
8.600000e-07	4.187174e-07	-5.011834e-10	2.964813e+00	-3.489519e+01
8.700000e-07	5.461997e-07	-2.506138e-10	3.867478e+00	-1.840213e+01
8.800000e-07	6.734412e-07	8.548969e-12	4.768437e+00	-1.340255e+00
8.900000e-07	8.004871e-07	2.721094e-10	5.668012e+00	1.611965e+01
9.000000e-07	9.272588e-07	5.389066e-10	6.565645e+00	3.378292e+01
9.100000e-07	1.053677e-06	8.076000e-10	7.460775e+00	5.144015e+01
9.200000e-07	1.179745e-06	1.073911e-09	8.353423e+00	6.887766e+01
9.300000e-07	1.305405e-06	1.333636e-09	9.243186e+00	8.588856e+01
9.400000e-07	1.430558e-06	1.582978e-09	1.012936e+01	1.022834e+02
9.500000e-07	1.555244e-06	1.819330e-09	1.101222e+01	1.178995e+02
9.600000e-07	1.679546e-06	2.041472e-09	1.189237e+01	1.326082e+02
9.700000e-07	1.803420e-06	2.247163e-09	1.276948e+01	1.463199e+02
9.800000e-07	1.926706e-06	2.435686e-09	1.364243e+01	1.589853e+02
9.900000e-07	2.049133e-06	2.608373e-09	1.450931e+01	1.705949e+02
1.000000e-06	2.170619e-06	2.767465e-09	1.536951e+01	1.811745e+02
1.010000e-06	2.291301e-06	2.916434e-09	1.622402e+01	1.907798e+02
1.020000e-06	2.411233e-06	3.051101e-09	1.707323e+01	1.994883e+02
1.030000e-06	2.530360e-06	3.170850e-09	1.791673e+01	2.073920e+02
1.040000e-06	2.648568e-06	3.279940e-09	1.875372e+01	2.145883e+02
1.050000e-06	2.765780e-06	3.382722e-09	1.958367e+01	2.211735e+02
1.060000e-06	2.881982e-06	3.476878e-09	2.040646e+01	2.272365e+02
1.070000e-06	2.997037e-06	3.561746e-09	2.122113e+01	2.328547e+02
1.080000e-06	3.110790e-06	3.639336e-09	2.202658e+01	2.380919e+02
1.090000e-06	3.223350e-06	3.712183e-09	2.282359e+01	2.429974e+02
1.100000e-06	3.334772e-06	3.782718e-09	2.361254e+01	2.476078e+02
1.110000e-06	3.444967e-06	3.847840e-09	2.439279e+01	2.519482e+02
1.120000e-06	3.553986e-06	3.907088e-09	2.516472e+01	2.560361e+02
1.130000e-06	3.661909e-06	3.962903e-09	2.592889e+01	2.598838e+02
1.140000e-06	3.768552e-06	4.018362e-09	2.668400e+01	2.635015e+02
1.150000e-06	3.873718e-06	4.070069e-09	2.742865e+01	2.668990e+02
1.160000e-06	3.977417e-06	4.117733e-09	2.816291e+01	2.700880e+02
1.170000e-06	4.079671e-06	4.161176e-09	2.888694e+01	2.730819e+02
1.180000e-06	4.180541e-06	4.200835e-09	2.960117e+01	2.758958e+02
1.190000e-06	4.280040e-06	4.238264e-09	3.030569e+01	2.785462e+02
1.200000e-06	4.377889e-06	4.275945e-09	3.099853e+01	2.810492e+02
1.210000e-06	4.474028e-06	4.312068e-09	3.167927e+01	2.834201e+02
1.220000e-06	4.568568e-06	4.344013e-09	3.234868e+01	2.856718e+02
1.230000e-06	4.661548e-06	4.373697e-09	3.300704e+01	2.878147e+02
1.240000e-06	4.753031e-06	4.404961e-09	3.365481e+01	2.898561e+02
1.250000e-06	4.842847e-06	4.434441e-09	3.429076e+01	2.918009e+02
1.260000e-06	4.930837e-06	4.459497e-09	3.491380e+01	2.936516e+02
1.270000e-06	5.017056e-06	4.483565e-09	3.552428e+01	2.954101e+02
1.280000e-06	5.101622e-06	4.507504e-09	3.612307e+01	2.970776e+02
1.290000e-06	5.184508e-06	4.530312e-09	3.670997e+01	2.986562e+02
1.300000e-06	5.265529e-06	4.551287e-09	3.728365e+01	3.001490e+02
1.310000e-06	5.344634e-06	4.571649e-09	3.784377e+01	3.015606e+02
1.320000e-06	5.421864e-06	4.591950e-09	3.839061e+01	3.028966e+02
1.330000e-06	5.497054e-06	4.611457e-09	3.892301e+01	3.041635e+02
1.340000e-06	5.570064e-06	4.630556e-09	3.943997e+01	3.053678e+02
1.350000e-06	5.641000e-06	4.649607e-09	3.994225e+01	3.065154e+02
1.360000e-06	5.710027e-06	4.665790e-09	4.043101e+01	3.076108e+02
1.370000e-06	5.777106e-06	4.680377e-09	4.090598e+01	3.086566e+02
1.380000e-06	5.842006e-06	4.696427e-09	4.136551e+01	3.096537e+02
1.390000e-06	5.904749e-06	4.712841e-09	4.180978e+01	3.106010e+02
1.400000e-06	5.965555e-06	4.727709e-09	4.224033e+01	3.114965e+02
1.410000e-06	6.024388e-06	4.740857e-09	4.265691e+01	3.123374e+02
1.420000e-06	6.081037e-06	4.753446e-09	4.305802e+01	3.131214e+02
1.430000e-06	6.135453e-06	4.765826e-09	4.344332e+01	3.138475e+02
1.440000e-06	6.187514e-06	4.775596e-09	4.381196e+01	3.145164e+02
1.450000e-06	6.236948e-06	4.784180e-09	4.416198e+01	3.151310e+02
1.460000e-06	6.283899e-06	4.794894e-09	4.449442e+01	3.156964e+02
1.470000e-06	6.328733e-06	4.805879e-09	4.481188e+01	3.162195e+02
1.480000e-06	6.371456e-06	4.814626e-09	4.511439e+01	3.167082e+02
1.490000e-06	6.411783e-06	4.822419e-09	4.539994e+01	3.171705e+02
1.500000e-06	6.449813e-06	4.831185e-09	4.566921e+01	3.176136e+02
1.510000e-06	6.485771e-06	4.840544e-09	4.592382e+01	3.180428e+02
1.520000e-06	6.519463e-06	4.848958e-09	4.616238e+01	3.184608e+02
1.530000e-06	6.550768e-06	4.855269e-09	4.638405e+01	3.188675e+02
1.540000e-06	6.579884e-06	4.860599e-09	4.659021e+01	3.192598e+02
1.550000e-06	6.606785e-06	4.867191e-09	4.678069e+01	3.196321e+02
1.560000e-06	6.631203e-06	4.874926e-09	4.695358e+01	3.199774e+02
1.570000e-06	6.653191e-06	4.880345e-09	4.710927e+01	3.202876e+02
1.580000e-06	6.673002e-06	4.883284e-09	4.724955e+01	3.205553e+02
1.590000e-06	6.690549e-06	4.887429e-09	4.737379e+01	3.207743e+02
1.600000e-06	6.705631e-06	4.892580e-09	4.748058e+01	3.209406e+02
1.610000e-06	6.718214e-06	4.896978e-09	4.756968e+01	3.210532e+02
1.620000e-06	6.728121e-06	4.899530e-09	4.763983e+01	3.211134e+02
1.630000e-06	6.735452e-06	4.901795e-09	4.769174e+01	3.211255e+02
1.640000e-06	6.740551e-06	4.904620e-09	4.772785e+01	3.210952e+02
1.650000e-06	6.743390e-06	4.906875e-09	4.774795e+01	3.210293e+02
1.660000e-06	6.743786e-06	4.908598e-09	4.775075e+01	3.209345e+02
1.670000e-06	6.741863e-06	4.901097e-09	4.773713e+01	3.208165e+02
1.680000e-06	6.737870e-06	4.895974e-09	4.770886e+01	3.206791e+02
1.690000e-06	6.731662e-06	4.893764e-09	4.766490e+01	3.205240e+02
1.700000e-06	6.723125e-06	4.893239e-09	4.760446e+01	3.203501e+02
1.710000e-06	6.712471e-06	4.893521e-09	4.752902e+01	3.201545e+02
1.720000e-06	6.699572e-06	4.893184e-09	4.743768e+01	3.199321e+02
1.730000e-06	6.684242e-06	4.908411e-09	4.732914e+01	3.196770e+02
1.740000e-06	6.666795e-06	4.872770e-09	4.720560e+01	3.193833e+02
1.750000e-06	6.647098e-06	4.781250e-09	4.706613e+01	3.190454e+02
1.760000e-06	6.624320e-06	4.797755e-09	4.690485e+01	3.186592e+02
1.770000e-06	6.598385e-06	4.845651e-09	4.672121e+01	3.182227e+02
1.780000e-06	6.570174e-06	4.870113e-09	4.652145e+01	3.177355e+02
1.790000e-06	6.540029e-06	4.952524e-09	4.630801e+01	3.171997e+02
1.800000e-06	6.508104e-06	4.870853e-09	4.608196e+01	3.166187e+02
1.810000e-06	6.474570e-06	4.721413e-09	4.584451e+01	3.159974e+02
1.820000e-06	6.438883e-06	4.848269e-09	4.559182e+01	3.153409e+02
1.830000e-06	6.400891e-06	4.794111e-09	4.532282e+01	3.146546e+02
1.840000e-06	6.360666e-06	4.762082e-09	4.503799e+01	3.139431e+02
1.850000e-06	6.318089e-06	4.828385e-09	4.473652e+01	3.132103e+02
1.860000e-06	6.273466e-06	4.664981e-09	4.442055e+01	3.124586e+02
1.870000e-06	6.226605e-06	4.784153e-09	4.408874e+01	3.116891e+02
1.880000e-06	6.177346e-06	4.798283e-09	4.373996e+01	3.109018e+02
1.890000e-06	6.125860e-06	4.683951e-09	4.337540e+01	3.100957e+02
1.900000e-06	6.071730e-06	4.710472e-09	4.299212e+01	3.092687e+02
1.910000e-06	6.015151e-06	4.653163e-09	4.259150e+01	3.084184e+02
1.920000e-06	5.956558e-06	4.743970e-09	4.217662e+01	3.075416e+02
1.930000e-06	5.895958e-06	4.698342e-09	4.174753e+01	3.066350e+02
1.940000e-06	5.833189e-06	4.605968e-09	4.130308e+01	3.056949e+02
1.950000e-06	5.768211e-06	4.639515e-09	4.084299e+01	3.047174e+02
1.960000e-06	5.701234e-06	4.614474e-09	4.036875e+01	3.036983e+02
1.970000e-06	5.632020e-06	4.666023e-09	3.987866e+01	3.026330e+02
1.980000e-06	5.560506e-06	4.559751e-09	3.937229e+01	3.015170e+02
1.990000e-06	5.486990e-06	4.562160e-09	3.885175e+01	3.003456e+02
2.000000e-06	5.411513e-06	4.578962e-09	3.831732e+01	2.991146e+02
2.010000e-06	5.333932e-06	4.526755e-09	3.776799e+01	2.978203e+02
2.020000e-06	5.254229e-06	4.553106e-09	3.720364e+01	2.964597e+02
2.030000e-06	5.172672e-06	4.468795e-09	3.662616e+01	2.950311e+02
2.040000e-06	5.089357e-06	4.469578e-09	3.603623e+01	2.935339e+02
2.050000e-06	5.004255e-06	4.453944e-09	3.543364e+01	2.919687e+02
2.060000e-06	4.917328e-06	4.455727e-09	3.481814e+01	2.903370e+02
2.070000e-06	4.828575e-06	4.405380e-09	3.418971e+01	2.886408e+02
2.080000e-06	4.738139e-06	4.338143e-09	3.354936e+01	2.868820e+02
2.090000e-06	4.646067e-06	4.353872e-09	3.289742e+01	2.850620e+02
2.100000e-06	4.552426e-06	4.328550e-09	3.223438e+01	2.831812e+02
2.110000e-06	4.457052e-06	4.302147e-09	3.155907e+01	2.812381e+02
2.120000e-06	4.360046e-06	4.238749e-09	3.087219e+01	2.792295e+02
2.130000e-06	4.261665e-06	4.225067e-09	3.017559e+01	2.771504e+02
2.140000e-06	4.161822e-06	4.201776e-09	2.946863e+01	2.749943e+02
2.150000e-06	4.060515e-06	4.165953e-09	2.875131e+01	2.727535e+02
2.160000e-06	3.957669e-06	4.126020e-09	2.802308e+01	2.704204e+02
2.170000e-06	3.853266e-06	4.082537e-09	2.728383e+01	2.679876e+02
2.180000e-06	3.747484e-06	4.054118e-09	2.653482e+01	2.654490e+02
2.190000e-06	3.640467e-06	4.013611e-09	2.577707e+01	2.628001e+02
2.200000e-06	3.532196e-06	3.978966e-09	2.501044e+01	2.600384e+02
2.210000e-06	3.422807e-06	3.921162e-09	2.423588e+01	2.571631e+02
2.220000e-06	3.312160e-06	3.872763e-09	2.345243e+01	2.541749e+02
2.230000e-06	3.200199e-06	3.831800e-09	2.265966e+01	2.510746e+02
2.240000e-06	3.087108e-06	3.791980e-09	2.185890e+01	2.478627e+02
2.250000e-06	2.972871e-06	3.731593e-09	2.105002e+01	2.445377e+02
2.260000e-06	2.857533e-06	3.672850e-09	2.023335e+01	2.410958e+02
2.270000e-06	2.741079e-06	3.626265e-09	1.940877e+01	2.375294e+02
2.280000e-06	2.623567e-06	3.574974e-09	1.857670e+01	2.338274e+02
2.290000e-06	2.504951e-06	3.513021e-09	1.773682e+01	2.299749e+02
2.300000e-06	2.385169e-06	3.445004e-09	1.688868e+01	2.259540e+02
2.310000e-06	2.264419e-06	3.384520e-09	1.603368e+01	2.217443e+02
2.320000e-06	2.143037e-06	3.318049e-09	1.517421e+01	2.173241e+02
2.330000e-06	2.021084e-06	3.247481e-09	1.431069e+01	2.126713e+02
2.340000e-06	1.898461e-06	3.174065e-09	1.344244e+01	2.077642e+02
2.350000e-06	1.775114e-06	3.097946e-09	1.256905e+01	2.025817e+02
2.360000e-06	1.651117e-06	3.014812e-09	1.169107e+01	1.971027e+02
2.370000e-06	1.526593e-06	2.930702e-09	1.080935e+01	1.913053e+02
2.380000e-06	1.401551e-06	2.840866e-09	9.923965e+00	1.851653e+02
2.390000e-06	1.276130e-06	2.739016e-09	9.035899e+00	1.786541e+02
2.400000e-06	1.150337e-06	2.630940e-09	8.145194e+00	1.717368e+02
2.410000e-06	1.024135e-06	2.519882e-09	7.251598e+00	1.643707e+02
2.420000e-06	8.975335e-07	2.402907e-09	6.355169e+00	1.565042e+02
2.430000e-06	7.704611e-07	2.273470e-09	5.455406e+00	1.480771e+02
2.440000e-06	6.430066e-07	2.135927e-09	4.552939e+00	1.390223e+02
2.450000e-06	5.152805e-07	1.989321e-09	3.648549e+00	1.292690e+02
2.460000e-06	3.873281e-07	1.829452e-09	2.742556e+00	1.187471e+02
2.470000e-06	2.592079e-07	1.658806e-09	1.835375e+00	1.073933e+02
2.480000e-06	1.309798e-07	1.478196e-09	9.274290e-01	9.515814e+01
2.490000e-06	2.710069e-09	1.281742e-09	1.918919e-02	8.201226e+01
2.500000e-06	-1.255665e-07	1.065228e-09	-8.890991e-01	6.795359e+01
2.510000e-06	-2.537807e-07	8.361877e-10	-1.796946e+00	5.301242e+01
2.520000e-06	-3.817669e-07	5.982669e-10	-2.703178e+00	3.725494e+01
2.530000e-06	-5.095556e-07	3.482891e-10	-3.608012e+00	2.078438e+01
2.540000e-06	-6.371483e-07	8.555651e-11	-4.511458e+00	3.739450e+00
2.550000e-06	-7.644217e-07	-1.833606e-10	-5.412643e+00	-1.371007e+01
2.560000e-06	-8.913083e-07	-4.529017e-10	-6.311090e+00	-3.137023e+01
2.570000e-06	-1.017771e-06	-7.231076e-10	-7.206532e+00	-4.903195e+01
2.580000e-06	-1.143828e-06	-9.928534e-10	-8.099105e+00	-6.648155e+01
2.590000e-06	-1.269473e-06	-1.257111e-09	-8.988763e+00	-8.351168e+01
2.600000e-06	-1.394719e-06	-1.510588e-09	-9.875593e+00	-9.993209e+01
2.610000e-06	-1.519523e-06	-1.751020e-09	-1.075929e+01	-1.155790e+02
2.620000e-06	-1.643811e-06	-1.976570e-09	-1.163934e+01	-1.303225e+02
2.630000e-06	-1.767508e-06	-2.186635e-09	-1.251520e+01	-1.440715e+02
2.640000e-06	-1.890462e-06	-2.381729e-09	-1.338580e+01	-1.567753e+02
2.650000e-06	-2.012637e-06	-2.561101e-09	-1.425089e+01	-1.684230e+02
2.660000e-06	-2.134180e-06	-2.721577e-09	-1.511149e+01	-1.790392e+02
2.670000e-06	-2.255132e-06	-2.865102e-09	-1.596792e+01	-1.886786e+02
2.680000e-06	-2.375257e-06	-2.998006e-09	-1.681849e+01	-1.974182e+02
2.690000e-06	-2.494330e-06	-3.121542e-09	-1.766161e+01	-2.053496e+02
2.700000e-06	-2.612363e-06	-3.233364e-09	-1.849737e+01	-2.125701e+02
2.710000e-06	-2.729373e-06	-3.332795e-09	-1.932588e+01	-2.191761e+02
2.720000e-06	-2.845344e-06	-3.424792e-09	-2.014704e+01	-2.252569e+02
2.730000e-06	-2.960158e-06	-3.513203e-09	-2.096000e+01	-2.308905e+02
2.740000e-06	-3.073629e-06	-3.597053e-09	-2.176346e+01	-2.361409e+02
2.750000e-06	-3.185812e-06	-3.674108e-09	-2.255779e+01	-2.410582e+02
2.760000e-06	-3.296783e-06	-3.744079e-09	-2.334354e+01	-2.456791e+02
2.770000e-06	-3.406576e-06	-3.810364e-09	-2.412095e+01	-2.500295e+02
2.780000e-06	-3.515291e-06	-3.873450e-09	-2.489073e+01	-2.541268e+02
2.790000e-06	-3.622888e-06	-3.931510e-09	-2.565259e+01	-2.579835e+02
2.800000e-06	-3.729258e-06	-3.984763e-09	-2.640577e+01	-2.616098e+02
2.810000e-06	-3.834321e-06	-4.037185e-09	-2.714969e+01	-2.650156e+02
2.820000e-06	-3.937923e-06	-4.090272e-09	-2.788326e+01	-2.682124e+02
2.830000e-06	-4.040016e-06	-4.140133e-09	-2.860615e+01	-2.712136e+02
2.840000e-06	-4.140679e-06	-4.186137e-09	-2.931892e+01	-2.740343e+02
2.850000e-06	-4.239899e-06	-4.228776e-09	-3.002147e+01	-2.766908e+02
2.860000e-06	-4.337680e-06	-4.268842e-09	-3.071383e+01	-2.791994e+02
2.870000e-06	-4.434036e-06	-4.307636e-09	-3.139610e+01	-2.815754e+02
2.880000e-06	-4.528824e-06	-4.343578e-09	-3.206726e+01	-2.838318e+02
2.890000e-06	-4.621975e-06	-4.376943e-09	-3.272683e+01	-2.859790e+02
2.900000e-06	-4.713504e-06	-4.408263e-09	-3.337492e+01	-2.880246e+02
2.910000e-06	-4.803396e-06	-4.438810e-09	-3.401142e+01	-2.899733e+02
2.920000e-06	-4.891571e-06	-4.468644e-09	-3.463576e+01	-2.918280e+02
2.930000e-06	-4.977918e-06	-4.497070e-09	-3.524716e+01	-2.935903e+02
2.940000e-06	-5.062473e-06	-4.523657e-09	-3.584587e+01	-2.952616e+02
