# Temperatura_=_20.0
# Concentracion g/m^3_=_9000.0
# C_Vs_to_Am_M_A/Vsm_=_65563218390.804596
# pendiente_HvsI_1/m_=_3716.3
# ordenada_HvsI_A/m_=_1297.0
# frecuencia_Hz_=_301146.93848944025

Tiempo_(s)	Campo_(V.s)	Magnetizacion_(V.s)	Campo_(kA/m)	Magnetizacion_(A/m)
0.000000e+00	-6.760538e-06	-4.866964e-09	-4.745388e+01	-3.197579e+02
1.000000e-08	-6.758143e-06	-4.870469e-09	-4.743707e+01	-3.196485e+02
2.000000e-08	-6.753517e-06	-4.866228e-09	-4.740460e+01	-3.195319e+02
3.000000e-08	-6.746854e-06	-4.862726e-09	-4.735783e+01	-3.194073e+02
4.000000e-08	-6.737934e-06	-4.858227e-09	-4.729522e+01	-3.192699e+02
5.000000e-08	-6.726551e-06	-4.854154e-09	-4.721532e+01	-3.191115e+02
6.000000e-08	-6.712657e-06	-4.849450e-09	-4.711779e+01	-3.189214e+02
7.000000e-08	-6.696415e-06	-4.830314e-09	-4.700379e+01	-3.186877e+02
8.000000e-08	-6.678059e-06	-4.835058e-09	-4.687494e+01	-3.183992e+02
9.000000e-08	-6.657477e-06	-4.923547e-09	-4.673047e+01	-3.180465e+02
1.000000e-07	-6.634317e-06	-4.921045e-09	-4.656791e+01	-3.176235e+02
1.100000e-07	-6.608403e-06	-4.843273e-09	-4.638601e+01	-3.171280e+02
1.200000e-07	-6.579980e-06	-4.805575e-09	-4.618650e+01	-3.165622e+02
1.300000e-07	-6.549529e-06	-4.788446e-09	-4.597276e+01	-3.159321e+02
1.400000e-07	-6.517244e-06	-4.736543e-09	-4.574614e+01	-3.152470e+02
1.500000e-07	-6.483026e-06	-4.840486e-09	-4.550596e+01	-3.145183e+02
1.600000e-07	-6.446691e-06	-4.869386e-09	-4.525091e+01	-3.137579e+02
1.700000e-07	-6.408248e-06	-4.671442e-09	-4.498107e+01	-3.129773e+02
1.800000e-07	-6.367644e-06	-4.804842e-09	-4.469607e+01	-3.121860e+02
1.900000e-07	-6.324557e-06	-4.797114e-09	-4.439362e+01	-3.113907e+02
2.000000e-07	-6.279139e-06	-4.712352e-09	-4.407482e+01	-3.105946e+02
2.100000e-07	-6.231386e-06	-4.776665e-09	-4.373963e+01	-3.097979e+02
2.200000e-07	-6.180928e-06	-4.688060e-09	-4.338546e+01	-3.089974e+02
2.300000e-07	-6.127947e-06	-4.712090e-09	-4.301357e+01	-3.081877e+02
2.400000e-07	-6.072646e-06	-4.718323e-09	-4.262540e+01	-3.073617e+02
2.500000e-07	-6.015041e-06	-4.686060e-09	-4.222105e+01	-3.065115e+02
2.600000e-07	-5.955270e-06	-4.691541e-09	-4.180151e+01	-3.056297e+02
2.700000e-07	-5.893414e-06	-4.641544e-09	-4.136732e+01	-3.047094e+02
2.800000e-07	-5.829492e-06	-4.634231e-09	-4.091864e+01	-3.037450e+02
2.900000e-07	-5.763461e-06	-4.635178e-09	-4.045516e+01	-3.027323e+02
3.000000e-07	-5.695320e-06	-4.645539e-09	-3.997685e+01	-3.016686e+02
3.100000e-07	-5.625100e-06	-4.574182e-09	-3.948396e+01	-3.005521e+02
3.200000e-07	-5.552867e-06	-4.538583e-09	-3.897694e+01	-2.993819e+02
3.300000e-07	-5.478546e-06	-4.599746e-09	-3.845527e+01	-2.981574e+02
3.400000e-07	-5.401917e-06	-4.525474e-09	-3.791738e+01	-2.968780e+02
3.500000e-07	-5.323064e-06	-4.493039e-09	-3.736390e+01	-2.955431e+02
3.600000e-07	-5.242219e-06	-4.507332e-09	-3.679643e+01	-2.941519e+02
3.700000e-07	-5.159542e-06	-4.481552e-09	-3.621609e+01	-2.927032e+02
3.800000e-07	-5.075143e-06	-4.439374e-09	-3.562368e+01	-2.911958e+02
3.900000e-07	-4.989139e-06	-4.424044e-09	-3.501999e+01	-2.896283e+02
4.000000e-07	-4.901438e-06	-4.424574e-09	-3.440440e+01	-2.879994e+02
4.100000e-07	-4.811921e-06	-4.360242e-09	-3.377606e+01	-2.863077e+02
4.200000e-07	-4.720655e-06	-4.338323e-09	-3.313544e+01	-2.845518e+02
4.300000e-07	-4.627726e-06	-4.335677e-09	-3.248315e+01	-2.827298e+02
4.400000e-07	-4.533194e-06	-4.301859e-09	-3.181961e+01	-2.808394e+02
4.500000e-07	-4.436931e-06	-4.254371e-09	-3.114391e+01	-2.788777e+02
4.600000e-07	-4.338981e-06	-4.227696e-09	-3.045637e+01	-2.768407e+02
4.700000e-07	-4.239453e-06	-4.211780e-09	-2.975776e+01	-2.747239e+02
4.800000e-07	-4.138423e-06	-4.159267e-09	-2.904861e+01	-2.725216e+02
4.900000e-07	-4.036074e-06	-4.122931e-09	-2.833019e+01	-2.702282e+02
5.000000e-07	-3.932226e-06	-4.097636e-09	-2.760126e+01	-2.678377e+02
5.100000e-07	-3.826836e-06	-4.058488e-09	-2.686150e+01	-2.653449e+02
5.200000e-07	-3.720076e-06	-4.003198e-09	-2.611213e+01	-2.627454e+02
5.300000e-07	-3.611961e-06	-3.965794e-09	-2.535325e+01	-2.600361e+02
5.400000e-07	-3.502634e-06	-3.934906e-09	-2.458585e+01	-2.572155e+02
5.500000e-07	-3.392180e-06	-3.882519e-09	-2.381055e+01	-2.542832e+02
5.600000e-07	-3.280490e-06	-3.835112e-09	-2.302657e+01	-2.512397e+02
5.700000e-07	-3.167452e-06	-3.794097e-09	-2.223313e+01	-2.480854e+02
5.800000e-07	-3.053036e-06	-3.747199e-09	-2.143001e+01	-2.448203e+02
5.900000e-07	-2.937353e-06	-3.690114e-09	-2.061800e+01	-2.414424e+02
6.000000e-07	-2.820572e-06	-3.640959e-09	-1.979829e+01	-2.379472e+02
6.100000e-07	-2.702846e-06	-3.589040e-09	-1.897194e+01	-2.343271e+02
6.200000e-07	-2.584212e-06	-3.527695e-09	-1.813922e+01	-2.305706e+02
6.300000e-07	-2.464552e-06	-3.463218e-09	-1.729929e+01	-2.266631e+02
6.400000e-07	-2.343838e-06	-3.400231e-09	-1.645197e+01	-2.225866e+02
6.500000e-07	-2.222283e-06	-3.336538e-09	-1.559875e+01	-2.183208e+02
6.600000e-07	-2.100047e-06	-3.261950e-09	-1.474075e+01	-2.138442e+02
6.700000e-07	-1.977061e-06	-3.187935e-09	-1.387748e+01	-2.091344e+02
6.800000e-07	-1.853291e-06	-3.117201e-09	-1.300871e+01	-2.041690e+02
6.900000e-07	-1.728767e-06	-3.038129e-09	-1.213464e+01	-1.989256e+02
7.000000e-07	-1.603655e-06	-2.946615e-09	-1.125645e+01	-1.933818e+02
7.100000e-07	-1.478110e-06	-2.858147e-09	-1.037522e+01	-1.875135e+02
7.200000e-07	-1.352121e-06	-2.768809e-09	-9.490870e+00	-1.812940e+02
7.300000e-07	-1.225617e-06	-2.666358e-09	-8.602909e+00	-1.746919e+02
7.400000e-07	-1.098705e-06	-2.554428e-09	-7.712084e+00	-1.676694e+02
7.500000e-07	-9.714290e-07	-2.439370e-09	-6.818700e+00	-1.601804e+02
7.600000e-07	-8.436712e-07	-2.316164e-09	-5.921936e+00	-1.521706e+02
7.700000e-07	-7.155446e-07	-2.177838e-09	-5.022584e+00	-1.435772e+02
7.800000e-07	-5.871697e-07	-2.034104e-09	-4.121489e+00	-1.343312e+02
7.900000e-07	-4.585154e-07	-1.880985e-09	-3.218432e+00	-1.243605e+02
8.000000e-07	-3.296586e-07	-1.713109e-09	-2.313955e+00	-1.135954e+02
8.100000e-07	-2.006981e-07	-1.534551e-09	-1.408749e+00	-1.019741e+02
8.200000e-07	-7.162663e-08	-1.345775e-09	-5.027650e-01	-8.945016e+01
8.300000e-07	5.748220e-08	-1.138737e-09	4.034817e-01	-7.599931e+01
8.400000e-07	1.865066e-07	-9.148441e-10	1.309136e+00	-6.162619e+01
8.500000e-07	3.154204e-07	-6.820915e-10	2.214013e+00	-4.636954e+01
8.600000e-07	4.442275e-07	-4.387805e-10	3.118142e+00	-3.030543e+01
8.700000e-07	5.729175e-07	-1.847522e-10	4.021449e+00	-1.354797e+01
8.800000e-07	7.013957e-07	7.895647e-11	4.923269e+00	3.752819e+00
8.900000e-07	8.295423e-07	3.482143e-10	5.822762e+00	2.141610e+01
9.000000e-07	9.573038e-07	6.210279e-10	6.719551e+00	3.923791e+01
9.100000e-07	1.084672e-06	8.925248e-10	7.613577e+00	5.700098e+01
9.200000e-07	1.211614e-06	1.159068e-09	8.504618e+00	7.448594e+01
9.300000e-07	1.338068e-06	1.419226e-09	9.392228e+00	9.148290e+01
9.400000e-07	1.464066e-06	1.668594e-09	1.027664e+01	1.078025e+02
9.500000e-07	1.589654e-06	1.903690e-09	1.115818e+01	1.232855e+02
9.600000e-07	1.714865e-06	2.120067e-09	1.203706e+01	1.378097e+02
9.700000e-07	1.839594e-06	2.321394e-09	1.291256e+01	1.512948e+02
9.800000e-07	1.963637e-06	2.508592e-09	1.378325e+01	1.637029e+02
9.900000e-07	2.086869e-06	2.679531e-09	1.464825e+01	1.750371e+02
1.000000e-06	2.209317e-06	2.834679e-09	1.550774e+01	1.853362e+02
1.010000e-06	2.331084e-06	2.977832e-09	1.636246e+01	1.946681e+02
1.020000e-06	2.452073e-06	3.108526e-09	1.721170e+01	2.031209e+02
1.030000e-06	2.572051e-06	3.225182e-09	1.805386e+01	2.107947e+02
1.040000e-06	2.690977e-06	3.332505e-09	1.888863e+01	2.177922e+02
1.050000e-06	2.808961e-06	3.433816e-09	1.971679e+01	2.242117e+02
1.060000e-06	2.926021e-06	3.527724e-09	2.053846e+01	2.301413e+02
1.070000e-06	3.041990e-06	3.609507e-09	2.135247e+01	2.356548e+02
1.080000e-06	3.156733e-06	3.683177e-09	2.215788e+01	2.408104e+02
1.090000e-06	3.270201e-06	3.754755e-09	2.295434e+01	2.456510e+02
1.100000e-06	3.382330e-06	3.824864e-09	2.374141e+01	2.502059e+02
1.110000e-06	3.493170e-06	3.888577e-09	2.451942e+01	2.544941e+02
1.120000e-06	3.602873e-06	3.947788e-09	2.528945e+01	2.585277e+02
1.130000e-06	3.711465e-06	4.006278e-09	2.605169e+01	2.623157e+02
1.140000e-06	3.818773e-06	4.062246e-09	2.680491e+01	2.658665e+02
1.150000e-06	3.924747e-06	4.112257e-09	2.754877e+01	2.691905e+02
1.160000e-06	4.029289e-06	4.158035e-09	2.828257e+01	2.723010e+02
1.170000e-06	4.132232e-06	4.200810e-09	2.900515e+01	2.752143e+02
1.180000e-06	4.233710e-06	4.239306e-09	2.971745e+01	2.779490e+02
1.190000e-06	4.333748e-06	4.277262e-09	3.041965e+01	2.805246e+02
1.200000e-06	4.432259e-06	4.313969e-09	3.111112e+01	2.829600e+02
1.210000e-06	4.529126e-06	4.346922e-09	3.179105e+01	2.852717e+02
1.220000e-06	4.624197e-06	4.377881e-09	3.245838e+01	2.874730e+02
1.230000e-06	4.717634e-06	4.408788e-09	3.311423e+01	2.895731e+02
1.240000e-06	4.809573e-06	4.439225e-09	3.375958e+01	2.915773e+02
1.250000e-06	4.899922e-06	4.466800e-09	3.439376e+01	2.934878e+02
1.260000e-06	4.988484e-06	4.491520e-09	3.501540e+01	2.953046e+02
1.270000e-06	5.075181e-06	4.515932e-09	3.562394e+01	2.970269e+02
1.280000e-06	5.160117e-06	4.539997e-09	3.622013e+01	2.986543e+02
1.290000e-06	5.243328e-06	4.563212e-09	3.680421e+01	3.001883e+02
1.300000e-06	5.324709e-06	4.584351e-09	3.737545e+01	3.016326e+02
1.310000e-06	5.404082e-06	4.605186e-09	3.793258e+01	3.029934e+02
1.320000e-06	5.481494e-06	4.625986e-09	3.847596e+01	3.042789e+02
1.330000e-06	5.556981e-06	4.644831e-09	3.900582e+01	3.054985e+02
1.340000e-06	5.630305e-06	4.663171e-09	3.952050e+01	3.066616e+02
1.350000e-06	5.701479e-06	4.681220e-09	4.002009e+01	3.077766e+02
1.360000e-06	5.770690e-06	4.696625e-09	4.050589e+01	3.088493e+02
1.370000e-06	5.837930e-06	4.711772e-09	4.097787e+01	3.098830e+02
1.380000e-06	5.903040e-06	4.729561e-09	4.143489e+01	3.108774e+02
1.390000e-06	5.966018e-06	4.747499e-09	4.187695e+01	3.118296e+02
1.400000e-06	6.027016e-06	4.761949e-09	4.230511e+01	3.127345e+02
1.410000e-06	6.085985e-06	4.773994e-09	4.271903e+01	3.135859e+02
1.420000e-06	6.142733e-06	4.786082e-09	4.311736e+01	3.143781e+02
1.430000e-06	6.197258e-06	4.797971e-09	4.350008e+01	3.151070e+02
1.440000e-06	6.249466e-06	4.809035e-09	4.386654e+01	3.157713e+02
1.450000e-06	6.299008e-06	4.819071e-09	4.421429e+01	3.163727e+02
1.460000e-06	6.346041e-06	4.828987e-09	4.454443e+01	3.169164e+02
1.470000e-06	6.390960e-06	4.838764e-09	4.485972e+01	3.174104e+02
1.480000e-06	6.433740e-06	4.847800e-09	4.516001e+01	3.178647e+02
1.490000e-06	6.474167e-06	4.856127e-09	4.544377e+01	3.182898e+02
1.500000e-06	6.512242e-06	4.863866e-09	4.571103e+01	3.186954e+02
1.510000e-06	6.548150e-06	4.870875e-09	4.596308e+01	3.190890e+02
1.520000e-06	6.581770e-06	4.878041e-09	4.619907e+01	3.194746e+02
1.530000e-06	6.613009e-06	4.885399e-09	4.641834e+01	3.198529e+02
1.540000e-06	6.642058e-06	4.891128e-09	4.662224e+01	3.202203e+02
1.550000e-06	6.668841e-06	4.896491e-09	4.681024e+01	3.205702e+02
1.560000e-06	6.693089e-06	4.902377e-09	4.698044e+01	3.208938e+02
1.570000e-06	6.714893e-06	4.907950e-09	4.713349e+01	3.211812e+02
1.580000e-06	6.734522e-06	4.912402e-09	4.727127e+01	3.214235e+02
1.590000e-06	6.751826e-06	4.916940e-09	4.739273e+01	3.216138e+02
1.600000e-06	6.766650e-06	4.922100e-09	4.749678e+01	3.217483e+02
1.610000e-06	6.778980e-06	4.926788e-09	4.758333e+01	3.218268e+02
1.620000e-06	6.788623e-06	4.930384e-09	4.765102e+01	3.218532e+02
1.630000e-06	6.795678e-06	4.932865e-09	4.770054e+01	3.218344e+02
1.640000e-06	6.800436e-06	4.934449e-09	4.773393e+01	3.217794e+02
1.650000e-06	6.802831e-06	4.936201e-09	4.775075e+01	3.216979e+02
1.660000e-06	6.802790e-06	4.935663e-09	4.775046e+01	3.215990e+02
1.670000e-06	6.800483e-06	4.925905e-09	4.773427e+01	3.214893e+02
1.680000e-06	6.796081e-06	4.923021e-09	4.770337e+01	3.213724e+02
1.690000e-06	6.789423e-06	4.921578e-09	4.765663e+01	3.212475e+02
1.700000e-06	6.780473e-06	4.922001e-09	4.759381e+01	3.211101e+02
1.710000e-06	6.769393e-06	4.923131e-09	4.751603e+01	3.209521e+02
1.720000e-06	6.755907e-06	4.929029e-09	4.742137e+01	3.207627e+02
1.730000e-06	6.740015e-06	4.944869e-09	4.730983e+01	3.205302e+02
1.740000e-06	6.722034e-06	4.856793e-09	4.718361e+01	3.202432e+02
1.750000e-06	6.701579e-06	4.785978e-09	4.704004e+01	3.198923e+02
1.760000e-06	6.677964e-06	4.846650e-09	4.687427e+01	3.194713e+02
1.770000e-06	6.651410e-06	4.878203e-09	4.668788e+01	3.189778e+02
1.780000e-06	6.622643e-06	4.902073e-09	4.648596e+01	3.184138e+02
1.790000e-06	6.591892e-06	4.999496e-09	4.627011e+01	3.177853e+02
1.800000e-06	6.559515e-06	4.821886e-09	4.604285e+01	3.171014e+02
1.810000e-06	6.525412e-06	4.738222e-09	4.580347e+01	3.163734e+02
1.820000e-06	6.488858e-06	4.898756e-09	4.554689e+01	3.156134e+02
1.830000e-06	6.450017e-06	4.722691e-09	4.527426e+01	3.148328e+02
1.840000e-06	6.409059e-06	4.799958e-09	4.498676e+01	3.140412e+02
1.850000e-06	6.365863e-06	4.805732e-09	4.468356e+01	3.132453e+02
1.860000e-06	6.320542e-06	4.639563e-09	4.436544e+01	3.124486e+02
1.870000e-06	6.272853e-06	4.840197e-09	4.403070e+01	3.116514e+02
1.880000e-06	6.222873e-06	4.732578e-09	4.367988e+01	3.108505e+02
1.890000e-06	6.170527e-06	4.696565e-09	4.331245e+01	3.100407e+02
1.900000e-06	6.115499e-06	4.706608e-09	4.292620e+01	3.092148e+02
1.910000e-06	6.058145e-06	4.622220e-09	4.252361e+01	3.083651e+02
1.920000e-06	5.998712e-06	4.770631e-09	4.210644e+01	3.074839e+02
1.930000e-06	5.937171e-06	4.652501e-09	4.167446e+01	3.065645e+02
1.940000e-06	5.873369e-06	4.627353e-09	4.122662e+01	3.056011e+02
1.950000e-06	5.807378e-06	4.617482e-09	4.076342e+01	3.045897e+02
1.960000e-06	5.739427e-06	4.614268e-09	4.028645e+01	3.035272e+02
1.970000e-06	5.669161e-06	4.660349e-09	3.979323e+01	3.024121e+02
1.980000e-06	5.596679e-06	4.522004e-09	3.928447e+01	3.012432e+02
1.990000e-06	5.522282e-06	4.597242e-09	3.876226e+01	3.000200e+02
2.000000e-06	5.445754e-06	4.538111e-09	3.822509e+01	2.987420e+02
2.010000e-06	5.367085e-06	4.521593e-09	3.767289e+01	2.974085e+02
2.020000e-06	5.286424e-06	4.538046e-09	3.710671e+01	2.960187e+02
2.030000e-06	5.203978e-06	4.461710e-09	3.652801e+01	2.945715e+02
2.040000e-06	5.119711e-06	4.469683e-09	3.593651e+01	2.930657e+02
2.050000e-06	5.033522e-06	4.417315e-09	3.533153e+01	2.914998e+02
2.060000e-06	4.945457e-06	4.453449e-09	3.471338e+01	2.898725e+02
2.070000e-06	4.855652e-06	4.381592e-09	3.408301e+01	2.881825e+02
2.080000e-06	4.764201e-06	4.339054e-09	3.344110e+01	2.864283e+02
2.090000e-06	4.671014e-06	4.329983e-09	3.278700e+01	2.846081e+02
2.100000e-06	4.576179e-06	4.307917e-09	3.212133e+01	2.827196e+02
2.110000e-06	4.479746e-06	4.287809e-09	3.144444e+01	2.807599e+02
2.120000e-06	4.381789e-06	4.225293e-09	3.075685e+01	2.787252e+02
2.130000e-06	4.282398e-06	4.220088e-09	3.005920e+01	2.766106e+02
2.140000e-06	4.181399e-06	4.173092e-09	2.935027e+01	2.744109e+02
2.150000e-06	4.078853e-06	4.142230e-09	2.863047e+01	2.721203e+02
2.160000e-06	3.974836e-06	4.100299e-09	2.790035e+01	2.697328e+02
2.170000e-06	3.869326e-06	4.073621e-09	2.715975e+01	2.672431e+02
2.180000e-06	3.762556e-06	4.031208e-09	2.641031e+01	2.646469e+02
2.190000e-06	3.654566e-06	3.982914e-09	2.565230e+01	2.619410e+02
2.200000e-06	3.545264e-06	3.951562e-09	2.488508e+01	2.591238e+02
2.210000e-06	3.434720e-06	3.902950e-09	2.410914e+01	2.561949e+02
2.220000e-06	3.322898e-06	3.854014e-09	2.332424e+01	2.531547e+02
2.230000e-06	3.209809e-06	3.803046e-09	2.253044e+01	2.500038e+02
2.240000e-06	3.095514e-06	3.760771e-09	2.172818e+01	2.467421e+02
2.250000e-06	2.980020e-06	3.700491e-09	2.091749e+01	2.433677e+02
2.260000e-06	2.863253e-06	3.646637e-09	2.009788e+01	2.398763e+02
2.270000e-06	2.745307e-06	3.594501e-09	1.926999e+01	2.362602e+02
2.280000e-06	2.626370e-06	3.540049e-09	1.843513e+01	2.325082e+02
2.290000e-06	2.506440e-06	3.475746e-09	1.759332e+01	2.286058e+02
2.300000e-06	2.385550e-06	3.415695e-09	1.674476e+01	2.245350e+02
2.310000e-06	2.263759e-06	3.361217e-09	1.588988e+01	2.202758e+02
2.320000e-06	2.141288e-06	3.292303e-09	1.503023e+01	2.158066e+02
2.330000e-06	2.018275e-06	3.213917e-09	1.416677e+01	2.111049e+02
2.340000e-06	1.894647e-06	3.139467e-09	1.329899e+01	2.061483e+02
2.350000e-06	1.770181e-06	3.066292e-09	1.242534e+01	2.009147e+02
2.360000e-06	1.644903e-06	2.982880e-09	1.154598e+01	1.953814e+02
2.370000e-06	1.519073e-06	2.892710e-09	1.066275e+01	1.895246e+02
2.380000e-06	1.392780e-06	2.796407e-09	9.776269e+00	1.833176e+02
2.390000e-06	1.266040e-06	2.694982e-09	8.886650e+00	1.767292e+02
2.400000e-06	1.138885e-06	2.589428e-09	7.994114e+00	1.697218e+02
2.410000e-06	1.011390e-06	2.479117e-09	7.099196e+00	1.622498e+02
2.420000e-06	8.835007e-07	2.358774e-09	6.201509e+00	1.542590e+02
2.430000e-06	7.552279e-07	2.227196e-09	5.301131e+00	1.456870e+02
2.440000e-06	6.266503e-07	2.089442e-09	4.398613e+00	1.364649e+02
2.450000e-06	4.978670e-07	1.942888e-09	3.494651e+00	1.265208e+02
2.460000e-06	3.688929e-07	1.779356e-09	2.589350e+00	1.157846e+02
2.470000e-06	2.397099e-07	1.602116e-09	1.682583e+00	1.041942e+02
2.480000e-06	1.104947e-07	1.414248e-09	7.755893e-01	9.170251e+01
2.490000e-06	-1.868678e-08	1.214268e-09	-1.311671e-01	7.828428e+01
2.500000e-06	-1.478681e-07	9.966433e-10	-1.037922e+00	6.394306e+01
2.510000e-06	-2.770071e-07	7.646460e-10	-1.944381e+00	4.871629e+01
2.520000e-06	-4.060130e-07	5.223398e-10	-2.849905e+00	3.267869e+01
2.530000e-06	-5.348116e-07	2.703923e-10	-3.753974e+00	1.594303e+01
2.540000e-06	-6.633811e-07	7.347034e-12	-4.656435e+00	-1.341893e+00
2.550000e-06	-7.916643e-07	-2.646347e-10	-5.556886e+00	-1.899622e+01
2.560000e-06	-9.196166e-07	-5.378338e-10	-6.455015e+00	-3.681665e+01
2.570000e-06	-1.047203e-06	-8.124588e-10	-7.350577e+00	-5.458621e+01
2.580000e-06	-1.174393e-06	-1.084036e-09	-8.243355e+00	-7.208539e+01
2.590000e-06	-1.301254e-06	-1.345652e-09	-9.133820e+00	-8.910378e+01
2.600000e-06	-1.427806e-06	-1.595402e-09	-1.002212e+01	-1.054511e+02
2.610000e-06	-1.553911e-06	-1.831613e-09	-1.090728e+01	-1.209669e+02
2.620000e-06	-1.679406e-06	-2.053000e-09	-1.178817e+01	-1.355276e+02
2.630000e-06	-1.804105e-06	-2.257784e-09	-1.266346e+01	-1.490512e+02
2.640000e-06	-1.927885e-06	-2.447077e-09	-1.353230e+01	-1.614986e+02
2.650000e-06	-2.050911e-06	-2.621851e-09	-1.439585e+01	-1.728713e+02
2.660000e-06	-2.173359e-06	-2.779412e-09	-1.525534e+01	-1.832069e+02
2.670000e-06	-2.295164e-06	-2.922376e-09	-1.611032e+01	-1.925725e+02
2.680000e-06	-2.416116e-06	-3.053745e-09	-1.695932e+01	-2.010557e+02
2.690000e-06	-2.536061e-06	-3.173953e-09	-1.780124e+01	-2.087560e+02
2.700000e-06	-2.655053e-06	-3.283455e-09	-1.863647e+01	-2.157765e+02
2.710000e-06	-2.773091e-06	-3.382104e-09	-1.946501e+01	-2.222157e+02
2.720000e-06	-2.889995e-06	-3.471807e-09	-2.028559e+01	-2.281620e+02
2.730000e-06	-3.005646e-06	-3.556185e-09	-2.109737e+01	-2.336899e+02
2.740000e-06	-3.120057e-06	-3.635644e-09	-2.190045e+01	-2.388580e+02
2.750000e-06	-3.233258e-06	-3.709488e-09	-2.269503e+01	-2.437099e+02
2.760000e-06	-3.345082e-06	-3.778956e-09	-2.347995e+01	-2.482751e+02
2.770000e-06	-3.455558e-06	-3.844652e-09	-2.425541e+01	-2.525732e+02
2.780000e-06	-3.564904e-06	-3.905983e-09	-2.502294e+01	-2.566164e+02
2.790000e-06	-3.673103e-06	-3.963978e-09	-2.578241e+01	-2.604136e+02
2.800000e-06	-3.780147e-06	-4.019406e-09	-2.653379e+01	-2.639733e+02
2.810000e-06	-3.885981e-06	-4.071561e-09	-2.727666e+01	-2.673058e+02
2.820000e-06	-3.990338e-06	-4.121029e-09	-2.800917e+01	-2.704242e+02
2.830000e-06	-4.093131e-06	-4.167827e-09	-2.873070e+01	-2.733448e+02
2.840000e-06	-4.194394e-06	-4.212289e-09	-2.944149e+01	-2.760862e+02
2.850000e-06	-4.294151e-06	-4.255030e-09	-3.014170e+01	-2.786677e+02
2.860000e-06	-4.392494e-06	-4.295886e-09	-3.083200e+01	-2.811084e+02
2.870000e-06	-4.489332e-06	-4.332541e-09	-3.151173e+01	-2.834249e+02
2.880000e-06	-4.584598e-06	-4.366511e-09	-3.218042e+01	-2.856305e+02
2.890000e-06	-4.678239e-06	-4.401623e-09	-3.283771e+01	-2.877346e+02
2.900000e-06	-4.770199e-06	-4.434856e-09	-3.348320e+01	-2.897429e+02
2.910000e-06	-4.860561e-06	-4.463869e-09	-3.411747e+01	-2.916573e+02
2.920000e-06	-4.949253e-06	-4.491081e-09	-3.474003e+01	-2.934781e+02
2.930000e-06	-5.036151e-06	-4.517726e-09	-3.534998e+01	-2.952042e+02
2.940000e-06	-5.121165e-06	-4.543627e-09	-3.594672e+01	-2.968356e+02
