# Temperatura_=_20.0
# Concentracion g/m^3_=_9000.0
# C_Vs_to_Am_M_A/Vsm_=_65563218390.804596
# pendiente_HvsI_1/m_=_3716.3
# ordenada_HvsI_A/m_=_1297.0
# frecuencia_Hz_=_301156.3834390313

Tiempo_(s)	Campo_(V.s)	Magnetizacion_(V.s)	Campo_(kA/m)	Magnetizacion_(A/m)
0.000000e+00	-6.741142e-06	-4.771920e-09	-4.745343e+01	-3.141406e+02
1.000000e-08	-6.739214e-06	-4.774304e-09	-4.743986e+01	-3.140081e+02
2.000000e-08	-6.735066e-06	-4.772090e-09	-4.741066e+01	-3.138638e+02
3.000000e-08	-6.728786e-06	-4.769102e-09	-4.736646e+01	-3.137095e+02
4.000000e-08	-6.720257e-06	-4.763503e-09	-4.730642e+01	-3.135433e+02
5.000000e-08	-6.709323e-06	-4.756358e-09	-4.722945e+01	-3.133599e+02
6.000000e-08	-6.695885e-06	-4.751623e-09	-4.713485e+01	-3.131514e+02
7.000000e-08	-6.679942e-06	-4.741317e-09	-4.702262e+01	-3.129079e+02
8.000000e-08	-6.661798e-06	-4.738565e-09	-4.689490e+01	-3.126193e+02
9.000000e-08	-6.641639e-06	-4.783434e-09	-4.675300e+01	-3.122766e+02
1.000000e-07	-6.619019e-06	-4.804610e-09	-4.659377e+01	-3.118728e+02
1.100000e-07	-6.593575e-06	-4.767720e-09	-4.641466e+01	-3.114044e+02
1.200000e-07	-6.565582e-06	-4.725168e-09	-4.621760e+01	-3.108715e+02
1.300000e-07	-6.535491e-06	-4.701684e-09	-4.600578e+01	-3.102779e+02
1.400000e-07	-6.503594e-06	-4.674487e-09	-4.578125e+01	-3.096309e+02
1.500000e-07	-6.469817e-06	-4.710797e-09	-4.554348e+01	-3.089399e+02
1.600000e-07	-6.433952e-06	-4.744512e-09	-4.529101e+01	-3.082159e+02
1.700000e-07	-6.395989e-06	-4.644705e-09	-4.502377e+01	-3.074698e+02
1.800000e-07	-6.355903e-06	-4.678988e-09	-4.474159e+01	-3.067114e+02
1.900000e-07	-6.313366e-06	-4.704799e-09	-4.444216e+01	-3.059483e+02
2.000000e-07	-6.268423e-06	-4.644531e-09	-4.412579e+01	-3.051850e+02
2.100000e-07	-6.221252e-06	-4.662427e-09	-4.379373e+01	-3.044230e+02
2.200000e-07	-6.171451e-06	-4.629517e-09	-4.344317e+01	-3.036607e+02
2.300000e-07	-6.119033e-06	-4.619088e-09	-4.307418e+01	-3.028939e+02
2.400000e-07	-6.064318e-06	-4.626673e-09	-4.268902e+01	-3.021160e+02
2.500000e-07	-6.007314e-06	-4.613063e-09	-4.228774e+01	-3.013197e+02
2.600000e-07	-5.948063e-06	-4.597652e-09	-4.187065e+01	-3.004972e+02
2.700000e-07	-5.886680e-06	-4.554248e-09	-4.143856e+01	-2.996411e+02
2.800000e-07	-5.823253e-06	-4.557259e-09	-4.099207e+01	-2.987452e+02
2.900000e-07	-5.757739e-06	-4.560430e-09	-4.053089e+01	-2.978046e+02
3.000000e-07	-5.690091e-06	-4.537450e-09	-4.005469e+01	-2.968160e+02
3.100000e-07	-5.620383e-06	-4.509750e-09	-3.956399e+01	-2.957773e+02
3.200000e-07	-5.548746e-06	-4.489241e-09	-3.905971e+01	-2.946878e+02
3.300000e-07	-5.475049e-06	-4.502279e-09	-3.854093e+01	-2.935472e+02
3.400000e-07	-5.399011e-06	-4.460351e-09	-3.800567e+01	-2.923557e+02
3.500000e-07	-5.320671e-06	-4.429543e-09	-3.745420e+01	-2.911136e+02
3.600000e-07	-5.240216e-06	-4.427756e-09	-3.688785e+01	-2.898205e+02
3.700000e-07	-5.157982e-06	-4.408390e-09	-3.630898e+01	-2.884759e+02
3.800000e-07	-5.074122e-06	-4.385013e-09	-3.571866e+01	-2.870785e+02
3.900000e-07	-4.988561e-06	-4.358300e-09	-3.511636e+01	-2.856265e+02
4.000000e-07	-4.901350e-06	-4.340983e-09	-3.450245e+01	-2.841178e+02
4.100000e-07	-4.812425e-06	-4.302355e-09	-3.387647e+01	-2.825496e+02
4.200000e-07	-4.721685e-06	-4.284945e-09	-3.323772e+01	-2.809189e+02
4.300000e-07	-4.629217e-06	-4.274310e-09	-3.258680e+01	-2.792223e+02
4.400000e-07	-4.535163e-06	-4.237061e-09	-3.192472e+01	-2.774562e+02
4.500000e-07	-4.439508e-06	-4.200964e-09	-3.125137e+01	-2.756165e+02
4.600000e-07	-4.342140e-06	-4.182601e-09	-3.056595e+01	-2.736987e+02
4.700000e-07	-4.243131e-06	-4.160093e-09	-2.986900e+01	-2.716983e+02
4.800000e-07	-4.142626e-06	-4.110458e-09	-2.916150e+01	-2.696103e+02
4.900000e-07	-4.040732e-06	-4.074248e-09	-2.844423e+01	-2.674301e+02
5.000000e-07	-3.937436e-06	-4.048404e-09	-2.771709e+01	-2.651531e+02
5.100000e-07	-3.832683e-06	-4.012073e-09	-2.697970e+01	-2.627752e+02
5.200000e-07	-3.726435e-06	-3.966717e-09	-2.623178e+01	-2.602933e+02
5.300000e-07	-3.618769e-06	-3.928997e-09	-2.547387e+01	-2.577051e+02
5.400000e-07	-3.509844e-06	-3.891375e-09	-2.470711e+01	-2.550092e+02
5.500000e-07	-3.399785e-06	-3.846398e-09	-2.393237e+01	-2.522048e+02
5.600000e-07	-3.288602e-06	-3.807150e-09	-2.314971e+01	-2.492918e+02
5.700000e-07	-3.176100e-06	-3.765033e-09	-2.235776e+01	-2.462694e+02
5.800000e-07	-3.062135e-06	-3.713542e-09	-2.155552e+01	-2.431363e+02
5.900000e-07	-2.946904e-06	-3.659962e-09	-2.074436e+01	-2.398894e+02
6.000000e-07	-2.830600e-06	-3.615429e-09	-1.992566e+01	-2.365234e+02
6.100000e-07	-2.713264e-06	-3.564129e-09	-1.909968e+01	-2.330302e+02
6.200000e-07	-2.595044e-06	-3.503987e-09	-1.826749e+01	-2.293990e+02
6.300000e-07	-2.475936e-06	-3.443189e-09	-1.742904e+01	-2.256158e+02
6.400000e-07	-2.355865e-06	-3.382528e-09	-1.658382e+01	-2.216641e+02
6.500000e-07	-2.234884e-06	-3.319307e-09	-1.573219e+01	-2.175255e+02
6.600000e-07	-2.113050e-06	-3.250110e-09	-1.487455e+01	-2.131801e+02
6.700000e-07	-1.990385e-06	-3.180840e-09	-1.401107e+01	-2.086073e+02
6.800000e-07	-1.866970e-06	-3.110021e-09	-1.314231e+01	-2.037861e+02
6.900000e-07	-1.742911e-06	-3.032523e-09	-1.226900e+01	-1.986952e+02
7.000000e-07	-1.618226e-06	-2.947014e-09	-1.139130e+01	-1.933125e+02
7.100000e-07	-1.492994e-06	-2.860034e-09	-1.050974e+01	-1.876144e+02
7.200000e-07	-1.367312e-06	-2.768502e-09	-9.625022e+00	-1.815742e+02
7.300000e-07	-1.241214e-06	-2.669762e-09	-8.737373e+00	-1.751610e+02
7.400000e-07	-1.114726e-06	-2.564678e-09	-7.846978e+00	-1.683377e+02
7.500000e-07	-9.878548e-07	-2.452712e-09	-6.953881e+00	-1.610600e+02
7.600000e-07	-8.605627e-07	-2.330082e-09	-6.057824e+00	-1.532759e+02
7.700000e-07	-7.328435e-07	-2.196778e-09	-5.158761e+00	-1.449261e+02
7.800000e-07	-6.048922e-07	-2.058295e-09	-4.258064e+00	-1.359455e+02
7.900000e-07	-4.767902e-07	-1.909497e-09	-3.356306e+00	-1.262665e+02
8.000000e-07	-3.484660e-07	-1.747838e-09	-2.452983e+00	-1.158230e+02
8.100000e-07	-2.200385e-07	-1.574833e-09	-1.548934e+00	-1.045563e+02
8.200000e-07	-9.153904e-08	-1.390060e-09	-6.443778e-01	-9.242096e+01
8.300000e-07	3.703576e-08	-1.188366e-09	2.607086e-01	-7.939160e+01
8.400000e-07	1.655848e-07	-9.718752e-10	1.165613e+00	-6.546874e+01
8.500000e-07	2.940631e-07	-7.449461e-10	2.070020e+00	-5.068392e+01
8.600000e-07	4.224574e-07	-5.080640e-10	2.973837e+00	-3.510302e+01
8.700000e-07	5.507231e-07	-2.615515e-10	3.876747e+00	-1.882734e+01
8.800000e-07	6.787633e-07	-6.209924e-12	4.778070e+00	-1.992194e+00
8.900000e-07	8.065108e-07	2.548998e-10	5.677333e+00	1.523712e+01
9.000000e-07	9.339663e-07	5.204053e-10	6.574540e+00	3.267187e+01
9.100000e-07	1.061072e-06	7.852695e-10	7.469283e+00	5.010849e+01
9.200000e-07	1.187770e-06	1.046823e-09	8.361160e+00	6.733857e+01
9.300000e-07	1.314015e-06	1.303705e-09	9.249845e+00	8.415951e+01
9.400000e-07	1.439808e-06	1.551487e-09	1.013535e+01	1.003849e+02
9.500000e-07	1.565202e-06	1.786385e-09	1.101805e+01	1.158538e+02
9.600000e-07	1.690147e-06	2.005672e-09	1.189758e+01	1.304381e+02
9.700000e-07	1.814622e-06	2.209156e-09	1.277381e+01	1.440473e+02
9.800000e-07	1.938531e-06	2.396784e-09	1.364605e+01	1.566306e+02
9.900000e-07	2.061680e-06	2.569312e-09	1.451294e+01	1.681763e+02
1.000000e-06	2.183940e-06	2.728502e-09	1.537357e+01	1.787078e+02
1.010000e-06	2.305355e-06	2.876742e-09	1.622826e+01	1.882783e+02
1.020000e-06	2.426012e-06	3.011165e-09	1.707761e+01	1.969630e+02
1.030000e-06	2.545756e-06	3.131349e-09	1.792053e+01	2.048516e+02
1.040000e-06	2.664524e-06	3.240661e-09	1.875659e+01	2.120398e+02
1.050000e-06	2.782408e-06	3.343826e-09	1.958641e+01	2.186221e+02
1.060000e-06	2.899354e-06	3.438538e-09	2.040964e+01	2.246857e+02
1.070000e-06	3.015180e-06	3.522986e-09	2.122499e+01	2.303065e+02
1.080000e-06	3.129712e-06	3.599605e-09	2.203122e+01	2.355464e+02
1.090000e-06	3.242968e-06	3.672154e-09	2.282847e+01	2.404532e+02
1.100000e-06	3.354974e-06	3.742818e-09	2.361693e+01	2.450612e+02
1.110000e-06	3.465745e-06	3.807332e-09	2.439668e+01	2.493942e+02
1.120000e-06	3.575310e-06	3.867678e-09	2.516795e+01	2.534680e+02
1.130000e-06	3.683771e-06	3.925786e-09	2.593145e+01	2.572938e+02
1.140000e-06	3.791048e-06	3.983079e-09	2.668661e+01	2.608810e+02
1.150000e-06	3.896868e-06	4.034935e-09	2.743152e+01	2.642399e+02
1.160000e-06	4.001200e-06	4.081759e-09	2.816595e+01	2.673827e+02
1.170000e-06	4.104056e-06	4.125239e-09	2.888999e+01	2.703242e+02
1.180000e-06	4.205471e-06	4.164034e-09	2.960390e+01	2.730814e+02
1.190000e-06	4.305507e-06	4.200266e-09	3.030808e+01	2.756729e+02
1.200000e-06	4.404003e-06	4.235376e-09	3.100144e+01	2.781169e+02
1.210000e-06	4.500793e-06	4.269123e-09	3.168277e+01	2.804306e+02
1.220000e-06	4.595872e-06	4.301640e-09	3.235207e+01	2.826282e+02
1.230000e-06	4.689359e-06	4.332945e-09	3.301016e+01	2.847208e+02
1.240000e-06	4.781346e-06	4.363705e-09	3.365769e+01	2.867158e+02
1.250000e-06	4.871698e-06	4.392263e-09	3.429371e+01	2.886172e+02
1.260000e-06	4.960241e-06	4.417551e-09	3.491700e+01	2.904266e+02
1.270000e-06	5.046947e-06	4.441448e-09	3.552736e+01	2.921443e+02
1.280000e-06	5.131928e-06	4.463009e-09	3.612557e+01	2.937702e+02
1.290000e-06	5.215239e-06	4.484196e-09	3.671203e+01	2.953051e+02
1.300000e-06	5.296774e-06	4.505543e-09	3.728598e+01	2.967514e+02
1.310000e-06	5.376363e-06	4.526997e-09	3.784624e+01	2.981135e+02
1.320000e-06	5.453989e-06	4.548741e-09	3.839268e+01	2.993975e+02
1.330000e-06	5.529616e-06	4.569977e-09	3.892505e+01	3.006110e+02
1.340000e-06	5.603068e-06	4.589536e-09	3.944210e+01	3.017619e+02
1.350000e-06	5.674398e-06	4.607100e-09	3.994423e+01	3.028575e+02
1.360000e-06	5.743766e-06	4.623558e-09	4.043253e+01	3.039037e+02
1.370000e-06	5.811192e-06	4.640088e-09	4.090717e+01	3.049042e+02
1.380000e-06	5.876484e-06	4.656249e-09	4.136678e+01	3.058601e+02
1.390000e-06	5.939578e-06	4.671761e-09	4.181092e+01	3.067699e+02
1.400000e-06	6.000673e-06	4.684620e-09	4.224099e+01	3.076304e+02
1.410000e-06	6.059751e-06	4.694508e-09	4.265687e+01	3.084370e+02
1.420000e-06	6.116633e-06	4.705105e-09	4.305728e+01	3.091855e+02
1.430000e-06	6.171355e-06	4.717439e-09	4.344249e+01	3.098725e+02
1.440000e-06	6.223796e-06	4.729093e-09	4.381164e+01	3.104969e+02
1.450000e-06	6.273584e-06	4.739282e-09	4.416212e+01	3.110605e+02
1.460000e-06	6.320825e-06	4.751133e-09	4.449466e+01	3.115679e+02
1.470000e-06	6.365897e-06	4.762120e-09	4.481194e+01	3.120265e+02
1.480000e-06	6.408851e-06	4.771058e-09	4.511431e+01	3.124456e+02
1.490000e-06	6.449444e-06	4.779248e-09	4.540006e+01	3.128355e+02
1.500000e-06	6.487669e-06	4.785785e-09	4.566914e+01	3.132059e+02
1.510000e-06	6.523784e-06	4.791268e-09	4.592337e+01	3.135650e+02
1.520000e-06	6.557712e-06	4.797718e-09	4.616221e+01	3.139179e+02
1.530000e-06	6.589244e-06	4.804705e-09	4.638417e+01	3.142666e+02
1.540000e-06	6.618504e-06	4.810114e-09	4.659014e+01	3.146090e+02
1.550000e-06	6.645533e-06	4.816075e-09	4.678041e+01	3.149397e+02
1.560000e-06	6.670103e-06	4.823024e-09	4.695337e+01	3.152507e+02
1.570000e-06	6.692259e-06	4.827830e-09	4.710933e+01	3.155326e+02
1.580000e-06	6.712192e-06	4.831172e-09	4.724964e+01	3.157757e+02
1.590000e-06	6.729811e-06	4.835508e-09	4.737367e+01	3.159720e+02
1.600000e-06	6.744961e-06	4.839404e-09	4.748032e+01	3.161156e+02
1.610000e-06	6.757629e-06	4.842065e-09	4.756949e+01	3.162041e+02
1.620000e-06	6.767694e-06	4.845202e-09	4.764035e+01	3.162386e+02
1.630000e-06	6.775148e-06	4.848521e-09	4.769282e+01	3.162238e+02
1.640000e-06	6.780238e-06	4.851134e-09	4.772864e+01	3.161666e+02
1.650000e-06	6.783029e-06	4.852779e-09	4.774830e+01	3.160759e+02
1.660000e-06	6.783378e-06	4.853069e-09	4.775075e+01	3.159604e+02
1.670000e-06	6.781420e-06	4.847396e-09	4.773697e+01	3.158277e+02
1.680000e-06	6.777354e-06	4.843237e-09	4.770834e+01	3.156830e+02
1.690000e-06	6.770997e-06	4.840175e-09	4.766359e+01	3.155284e+02
1.700000e-06	6.762379e-06	4.838494e-09	4.760293e+01	3.153620e+02
1.710000e-06	6.751646e-06	4.836751e-09	4.752737e+01	3.151787e+02
1.720000e-06	6.738575e-06	4.835392e-09	4.743536e+01	3.149705e+02
1.730000e-06	6.723145e-06	4.840050e-09	4.732675e+01	3.147277e+02
1.740000e-06	6.705639e-06	4.800159e-09	4.720351e+01	3.144402e+02
1.750000e-06	6.685784e-06	4.735458e-09	4.706375e+01	3.140988e+02
1.760000e-06	6.662832e-06	4.748093e-09	4.690218e+01	3.136966e+02
1.770000e-06	6.636794e-06	4.782708e-09	4.671889e+01	3.132299e+02
1.780000e-06	6.608437e-06	4.817191e-09	4.651928e+01	3.126985e+02
1.790000e-06	6.578081e-06	4.871183e-09	4.630559e+01	3.121063e+02
1.800000e-06	6.546014e-06	4.788670e-09	4.607986e+01	3.114603e+02
1.810000e-06	6.512301e-06	4.688085e-09	4.584254e+01	3.107700e+02
1.820000e-06	6.476336e-06	4.743263e-09	4.558937e+01	3.100463e+02
1.830000e-06	6.437986e-06	4.682255e-09	4.531941e+01	3.093002e+02
1.840000e-06	6.397465e-06	4.685346e-09	4.503416e+01	3.085414e+02
1.850000e-06	6.354736e-06	4.709798e-09	4.473338e+01	3.077775e+02
1.860000e-06	6.309852e-06	4.612808e-09	4.441742e+01	3.070135e+02
1.870000e-06	6.262666e-06	4.702671e-09	4.408526e+01	3.062508e+02
1.880000e-06	6.213132e-06	4.674746e-09	4.373657e+01	3.054879e+02
1.890000e-06	6.161305e-06	4.609480e-09	4.337174e+01	3.047206e+02
1.900000e-06	6.106831e-06	4.617387e-09	4.298828e+01	3.039426e+02
1.910000e-06	6.049969e-06	4.579748e-09	4.258801e+01	3.031464e+02
1.920000e-06	5.991062e-06	4.650446e-09	4.217334e+01	3.023242e+02
1.930000e-06	5.930076e-06	4.587408e-09	4.174403e+01	3.014688e+02
1.940000e-06	5.866846e-06	4.532581e-09	4.129894e+01	3.005737e+02
1.950000e-06	5.801393e-06	4.556581e-09	4.083819e+01	2.996340e+02
1.960000e-06	5.733964e-06	4.538715e-09	4.036353e+01	2.986465e+02
1.970000e-06	5.664324e-06	4.557283e-09	3.987331e+01	2.976089e+02
1.980000e-06	5.592410e-06	4.477711e-09	3.936708e+01	2.965205e+02
1.990000e-06	5.518499e-06	4.492535e-09	3.884679e+01	2.953810e+02
2.000000e-06	5.442533e-06	4.488295e-09	3.831203e+01	2.941907e+02
2.010000e-06	5.364408e-06	4.457542e-09	3.776209e+01	2.929496e+02
2.020000e-06	5.284194e-06	4.456333e-09	3.719743e+01	2.916577e+02
2.030000e-06	5.202122e-06	4.384705e-09	3.661970e+01	2.903142e+02
2.040000e-06	5.118329e-06	4.386509e-09	3.602985e+01	2.889180e+02
2.050000e-06	5.032729e-06	4.373517e-09	3.542727e+01	2.874674e+02
2.060000e-06	4.945258e-06	4.378053e-09	3.481153e+01	2.859600e+02
2.070000e-06	4.855999e-06	4.325531e-09	3.418320e+01	2.843933e+02
2.080000e-06	4.765105e-06	4.275097e-09	3.354337e+01	2.827642e+02
2.090000e-06	4.672586e-06	4.278674e-09	3.289209e+01	2.810693e+02
2.100000e-06	4.578374e-06	4.254180e-09	3.222890e+01	2.793050e+02
2.110000e-06	4.482441e-06	4.225863e-09	3.155359e+01	2.774673e+02
2.120000e-06	4.384956e-06	4.176326e-09	3.086736e+01	2.755517e+02
2.130000e-06	4.286069e-06	4.160798e-09	3.017126e+01	2.735536e+02
2.140000e-06	4.185666e-06	4.128262e-09	2.946448e+01	2.714682e+02
2.150000e-06	4.083653e-06	4.099221e-09	2.874637e+01	2.692906e+02
2.160000e-06	3.980061e-06	4.062767e-09	2.801714e+01	2.670164e+02
2.170000e-06	3.875038e-06	4.020864e-09	2.727785e+01	2.646415e+02
2.180000e-06	3.768765e-06	3.986680e-09	2.652976e+01	2.621627e+02
2.190000e-06	3.661329e-06	3.949980e-09	2.577347e+01	2.595776e+02
2.200000e-06	3.552672e-06	3.913942e-09	2.500859e+01	2.568848e+02
2.210000e-06	3.442739e-06	3.859395e-09	2.423473e+01	2.540837e+02
2.220000e-06	3.331438e-06	3.815614e-09	2.345125e+01	2.511738e+02
2.230000e-06	3.218845e-06	3.774582e-09	2.265866e+01	2.481547e+02
2.240000e-06	3.105078e-06	3.730012e-09	2.185781e+01	2.450248e+02
2.250000e-06	2.990134e-06	3.671614e-09	2.104868e+01	2.417814e+02
2.260000e-06	2.874018e-06	3.620584e-09	2.023129e+01	2.384190e+02
2.270000e-06	2.756734e-06	3.574483e-09	1.940569e+01	2.349299e+02
2.280000e-06	2.638331e-06	3.522238e-09	1.857220e+01	2.313031e+02
2.290000e-06	2.518824e-06	3.461668e-09	1.773095e+01	2.275249e+02
2.300000e-06	2.398353e-06	3.397879e-09	1.688291e+01	2.235788e+02
2.310000e-06	2.277077e-06	3.337613e-09	1.602920e+01	2.194466e+02
2.320000e-06	2.155103e-06	3.271499e-09	1.517058e+01	2.151082e+02
2.330000e-06	2.032457e-06	3.201559e-09	1.430723e+01	2.105432e+02
2.340000e-06	1.909153e-06	3.127263e-09	1.343925e+01	2.057306e+02
2.350000e-06	1.785142e-06	3.049894e-09	1.256629e+01	2.006490e+02
2.360000e-06	1.660464e-06	2.970047e-09	1.168863e+01	1.952764e+02
2.370000e-06	1.535280e-06	2.889666e-09	1.080741e+01	1.895893e+02
2.380000e-06	1.409588e-06	2.800200e-09	9.922620e+00	1.835611e+02
2.390000e-06	1.283356e-06	2.697969e-09	9.034023e+00	1.771611e+02
2.400000e-06	1.156628e-06	2.592334e-09	8.141936e+00	1.703524e+02
2.410000e-06	1.029402e-06	2.486240e-09	7.246350e+00	1.630911e+02
2.420000e-06	9.017090e-07	2.370436e-09	6.347469e+00	1.553254e+02
2.430000e-06	7.736560e-07	2.240802e-09	5.446056e+00	1.469962e+02
2.440000e-06	6.453774e-07	2.105045e-09	4.543055e+00	1.380386e+02
2.450000e-06	5.169322e-07	1.962880e-09	3.638881e+00	1.283850e+02
2.460000e-06	3.883314e-07	1.806155e-09	2.733611e+00	1.179692e+02
2.470000e-06	2.595967e-07	1.636075e-09	1.827399e+00	1.067320e+02
2.480000e-06	1.307737e-07	1.455290e-09	9.205649e-01	9.462760e+01
2.490000e-06	1.931809e-09	1.260409e-09	1.359873e-02	8.162963e+01
2.500000e-06	-1.268959e-07	1.048018e-09	-8.932682e-01	6.773764e+01
2.510000e-06	-2.556823e-07	8.216853e-10	-1.799844e+00	5.298198e+01
2.520000e-06	-3.843930e-07	5.846404e-10	-2.705887e+00	3.742728e+01
2.530000e-06	-5.129666e-07	3.385116e-10	-3.610965e+00	2.117357e+01
2.540000e-06	-6.413945e-07	8.376063e-11	-4.515017e+00	4.355024e+00
2.550000e-06	-7.696423e-07	-1.792633e-10	-5.417802e+00	-1.286404e+01
2.560000e-06	-8.975916e-07	-4.473156e-10	-6.318485e+00	-3.029561e+01
2.570000e-06	-1.025100e-06	-7.153547e-10	-7.216065e+00	-4.773645e+01
2.580000e-06	-1.152091e-06	-9.794803e-10	-8.109999e+00	-6.497816e+01
2.590000e-06	-1.278583e-06	-1.238094e-09	-9.000430e+00	-8.181774e+01
2.600000e-06	-1.404625e-06	-1.489728e-09	-9.887687e+00	-9.806805e+01
2.610000e-06	-1.530214e-06	-1.730234e-09	-1.077175e+01	-1.135671e+02
2.620000e-06	-1.655281e-06	-1.954772e-09	-1.165214e+01	-1.281854e+02
2.630000e-06	-1.779702e-06	-2.163250e-09	-1.252800e+01	-1.418313e+02
2.640000e-06	-1.903365e-06	-2.356125e-09	-1.339850e+01	-1.544524e+02
2.650000e-06	-2.026279e-06	-2.534272e-09	-1.426374e+01	-1.660356e+02
2.660000e-06	-2.148465e-06	-2.694060e-09	-1.512385e+01	-1.766033e+02
2.670000e-06	-2.269935e-06	-2.836290e-09	-1.597892e+01	-1.862076e+02
2.680000e-06	-2.390680e-06	-2.966734e-09	-1.682889e+01	-1.949232e+02
2.690000e-06	-2.510542e-06	-3.087968e-09	-1.767265e+01	-2.028393e+02
2.700000e-06	-2.629385e-06	-3.201473e-09	-1.850923e+01	-2.100515e+02
2.710000e-06	-2.747173e-06	-3.304460e-09	-1.933838e+01	-2.166546e+02
2.720000e-06	-2.863855e-06	-3.397127e-09	-2.015975e+01	-2.227361e+02
2.730000e-06	-2.979360e-06	-3.484332e-09	-2.097284e+01	-2.283722e+02
2.740000e-06	-3.093598e-06	-3.567973e-09	-2.177700e+01	-2.336255e+02
2.750000e-06	-3.206552e-06	-3.645148e-09	-2.257213e+01	-2.385442e+02
2.760000e-06	-3.318235e-06	-3.714344e-09	-2.335830e+01	-2.431632e+02
2.770000e-06	-3.428609e-06	-3.778565e-09	-2.413527e+01	-2.475064e+02
2.780000e-06	-3.537791e-06	-3.839325e-09	-2.490384e+01	-2.515899e+02
2.790000e-06	-3.645886e-06	-3.895858e-09	-2.566477e+01	-2.554251e+02
2.800000e-06	-3.752815e-06	-3.949466e-09	-2.641748e+01	-2.590214e+02
2.810000e-06	-3.858482e-06	-4.002159e-09	-2.716130e+01	-2.623889e+02
2.820000e-06	-3.962743e-06	-4.053221e-09	-2.789524e+01	-2.655399e+02
2.830000e-06	-4.065452e-06	-4.100789e-09	-2.861824e+01	-2.684889e+02
2.840000e-06	-4.166617e-06	-4.145456e-09	-2.933039e+01	-2.712532e+02
2.850000e-06	-4.266326e-06	-4.188632e-09	-3.003228e+01	-2.738509e+02
2.860000e-06	-4.364654e-06	-4.229431e-09	-3.072444e+01	-2.763007e+02
2.870000e-06	-4.461584e-06	-4.266066e-09	-3.140677e+01	-2.786194e+02
2.880000e-06	-4.556923e-06	-4.298417e-09	-3.207789e+01	-2.808217e+02
2.890000e-06	-4.650610e-06	-4.331111e-09	-3.273739e+01	-2.829186e+02
2.900000e-06	-4.742686e-06	-4.364368e-09	-3.338555e+01	-2.849176e+02
2.910000e-06	-4.833128e-06	-4.394492e-09	-3.402221e+01	-2.868230e+02
2.920000e-06	-4.921853e-06	-4.422039e-09	-3.464677e+01	-2.886364e+02
2.930000e-06	-5.008728e-06	-4.448553e-09	-3.525832e+01	-2.903581e+02
2.940000e-06	-5.093728e-06	-4.474858e-09	-3.585667e+01	-2.919880e+02
