# Temperatura_=_20.0
# Concentracion g/m^3_=_9000.0
# C_Vs_to_Am_M_A/Vsm_=_65563218390.804596
# pendiente_HvsI_1/m_=_3716.3
# ordenada_HvsI_A/m_=_1297.0
# frecuencia_Hz_=_301146.09551722015

Tiempo_(s)	Campo_(V.s)	Magnetizacion_(V.s)	Campo_(kA/m)	Magnetizacion_(A/m)
0.000000e+00	-6.736072e-06	-4.878849e-09	-4.745149e+01	-3.192031e+02
1.000000e-08	-6.733610e-06	-4.883809e-09	-4.743415e+01	-3.190669e+02
2.000000e-08	-6.728879e-06	-4.879209e-09	-4.740082e+01	-3.189128e+02
3.000000e-08	-6.722053e-06	-4.873140e-09	-4.735274e+01	-3.187446e+02
4.000000e-08	-6.712961e-06	-4.865161e-09	-4.728869e+01	-3.185635e+02
5.000000e-08	-6.701393e-06	-4.857670e-09	-4.720720e+01	-3.183683e+02
6.000000e-08	-6.687316e-06	-4.849774e-09	-4.710803e+01	-3.181554e+02
7.000000e-08	-6.670852e-06	-4.824913e-09	-4.699206e+01	-3.179198e+02
8.000000e-08	-6.652272e-06	-4.828530e-09	-4.686118e+01	-3.176553e+02
9.000000e-08	-6.631548e-06	-4.929580e-09	-4.671519e+01	-3.173555e+02
1.000000e-07	-6.608206e-06	-4.933649e-09	-4.655075e+01	-3.170148e+02
1.100000e-07	-6.582087e-06	-4.848672e-09	-4.636677e+01	-3.166285e+02
1.200000e-07	-6.553554e-06	-4.807940e-09	-4.616577e+01	-3.161936e+02
1.300000e-07	-6.523025e-06	-4.785393e-09	-4.595071e+01	-3.157088e+02
1.400000e-07	-6.490692e-06	-4.725489e-09	-4.572294e+01	-3.151746e+02
1.500000e-07	-6.456408e-06	-4.856900e-09	-4.548143e+01	-3.145928e+02
1.600000e-07	-6.420017e-06	-4.884004e-09	-4.522508e+01	-3.139664e+02
1.700000e-07	-6.381595e-06	-4.653063e-09	-4.495442e+01	-3.132988e+02
1.800000e-07	-6.340983e-06	-4.801507e-09	-4.466834e+01	-3.125938e+02
1.900000e-07	-6.297844e-06	-4.806067e-09	-4.436445e+01	-3.118547e+02
2.000000e-07	-6.252362e-06	-4.714860e-09	-4.404405e+01	-3.110846e+02
2.100000e-07	-6.204596e-06	-4.773261e-09	-4.370757e+01	-3.102856e+02
2.200000e-07	-6.154126e-06	-4.680763e-09	-4.335204e+01	-3.094592e+02
2.300000e-07	-6.101071e-06	-4.718400e-09	-4.297830e+01	-3.086060e+02
2.400000e-07	-6.045741e-06	-4.723308e-09	-4.258853e+01	-3.077263e+02
2.500000e-07	-5.988164e-06	-4.683614e-09	-4.218294e+01	-3.068194e+02
2.600000e-07	-5.928485e-06	-4.691211e-09	-4.176254e+01	-3.058842e+02
2.700000e-07	-5.866696e-06	-4.624337e-09	-4.132727e+01	-3.049193e+02
2.800000e-07	-5.802795e-06	-4.621066e-09	-4.087713e+01	-3.039226e+02
2.900000e-07	-5.736798e-06	-4.648424e-09	-4.041222e+01	-3.028916e+02
3.000000e-07	-5.668627e-06	-4.655190e-09	-3.993200e+01	-3.018234e+02
3.100000e-07	-5.598385e-06	-4.557355e-09	-3.943719e+01	-3.007145e+02
3.200000e-07	-5.526224e-06	-4.531042e-09	-3.892885e+01	-2.995611e+02
3.300000e-07	-5.452008e-06	-4.614500e-09	-3.840605e+01	-2.983592e+02
3.400000e-07	-5.375488e-06	-4.523199e-09	-3.786701e+01	-2.971048e+02
3.500000e-07	-5.296705e-06	-4.479358e-09	-3.731204e+01	-2.957941e+02
3.600000e-07	-5.215907e-06	-4.505530e-09	-3.674286e+01	-2.944237e+02
3.700000e-07	-5.133320e-06	-4.479607e-09	-3.616109e+01	-2.929909e+02
3.800000e-07	-5.049009e-06	-4.430492e-09	-3.556717e+01	-2.914937e+02
3.900000e-07	-4.963037e-06	-4.415841e-09	-3.496155e+01	-2.899311e+02
4.000000e-07	-4.875440e-06	-4.416626e-09	-3.434448e+01	-2.883023e+02
4.100000e-07	-4.786104e-06	-4.350249e-09	-3.371517e+01	-2.866073e+02
4.200000e-07	-4.694938e-06	-4.335254e-09	-3.307296e+01	-2.848456e+02
4.300000e-07	-4.602078e-06	-4.337584e-09	-3.241882e+01	-2.830168e+02
4.400000e-07	-4.507683e-06	-4.295618e-09	-3.175386e+01	-2.811194e+02
4.500000e-07	-4.411620e-06	-4.246023e-09	-3.107716e+01	-2.791509e+02
4.600000e-07	-4.313864e-06	-4.226831e-09	-3.038853e+01	-2.771079e+02
4.700000e-07	-4.214519e-06	-4.212411e-09	-2.968870e+01	-2.749858e+02
4.800000e-07	-4.113687e-06	-4.148936e-09	-2.897840e+01	-2.727792e+02
4.900000e-07	-4.011482e-06	-4.106484e-09	-2.825843e+01	-2.704826e+02
5.000000e-07	-3.907796e-06	-4.086199e-09	-2.752803e+01	-2.680905e+02
5.100000e-07	-3.802664e-06	-4.052007e-09	-2.678743e+01	-2.655981e+02
5.200000e-07	-3.696172e-06	-3.994950e-09	-2.603727e+01	-2.630018e+02
5.300000e-07	-3.588314e-06	-3.953889e-09	-2.527747e+01	-2.602992e+02
5.400000e-07	-3.479180e-06	-3.926195e-09	-2.450869e+01	-2.574891e+02
5.500000e-07	-3.368912e-06	-3.879088e-09	-2.373192e+01	-2.545713e+02
5.600000e-07	-3.257484e-06	-3.832121e-09	-2.294698e+01	-2.515458e+02
5.700000e-07	-3.144707e-06	-3.786469e-09	-2.215253e+01	-2.484122e+02
5.800000e-07	-3.030569e-06	-3.738087e-09	-2.134850e+01	-2.451685e+02
5.900000e-07	-2.915148e-06	-3.684510e-09	-2.053543e+01	-2.418104e+02
6.000000e-07	-2.798609e-06	-3.639280e-09	-1.971448e+01	-2.383306e+02
6.100000e-07	-2.681109e-06	-3.586653e-09	-1.888677e+01	-2.347186e+02
6.200000e-07	-2.562794e-06	-3.519551e-09	-1.805331e+01	-2.309603e+02
6.300000e-07	-2.443612e-06	-3.452693e-09	-1.721375e+01	-2.270389e+02
6.400000e-07	-2.323333e-06	-3.392449e-09	-1.636646e+01	-2.229351e+02
6.500000e-07	-2.202145e-06	-3.329811e-09	-1.551276e+01	-2.186285e+02
6.600000e-07	-2.080276e-06	-3.251370e-09	-1.465427e+01	-2.140981e+02
6.700000e-07	-1.957658e-06	-3.175601e-09	-1.379050e+01	-2.093235e+02
6.800000e-07	-1.834170e-06	-3.106404e-09	-1.292060e+01	-2.042850e+02
6.900000e-07	-1.709930e-06	-3.026772e-09	-1.204540e+01	-1.989634e+02
7.000000e-07	-1.585161e-06	-2.932353e-09	-1.116649e+01	-1.933396e+02
7.100000e-07	-1.459871e-06	-2.841912e-09	-1.028389e+01	-1.873927e+02
7.200000e-07	-1.334128e-06	-2.753394e-09	-9.398114e+00	-1.810983e+02
7.300000e-07	-1.208049e-06	-2.651929e-09	-8.509963e+00	-1.744267e+02
7.400000e-07	-1.081630e-06	-2.540877e-09	-7.619416e+00	-1.673404e+02
7.500000e-07	-9.548411e-07	-2.425820e-09	-6.726270e+00	-1.597932e+02
7.600000e-07	-8.276868e-07	-2.301293e-09	-5.830546e+00	-1.517294e+02
7.700000e-07	-7.002116e-07	-2.161450e-09	-4.932561e+00	-1.430845e+02
7.800000e-07	-5.723825e-07	-2.016917e-09	-4.032084e+00	-1.337875e+02
7.900000e-07	-4.442254e-07	-1.863573e-09	-3.129296e+00	-1.237650e+02
8.000000e-07	-3.158300e-07	-1.695769e-09	-2.224829e+00	-1.129462e+02
8.100000e-07	-1.872265e-07	-1.517555e-09	-1.318896e+00	-1.012694e+02
8.200000e-07	-5.850841e-08	-1.327497e-09	-4.121559e-01	-8.868914e+01
8.300000e-07	7.020758e-08	-1.119014e-09	4.945693e-01	-7.518340e+01
8.400000e-07	1.988558e-07	-8.945722e-10	1.400817e+00	-6.075979e+01
8.500000e-07	3.274126e-07	-6.633120e-10	2.306421e+00	-4.546061e+01
8.600000e-07	4.558028e-07	-4.221318e-10	3.210851e+00	-2.936564e+01
8.700000e-07	5.839685e-07	-1.672842e-10	4.113700e+00	-1.259239e+01
8.800000e-07	7.118682e-07	9.760472e-11	5.014674e+00	4.706447e+00
8.900000e-07	8.393682e-07	3.646667e-10	5.912834e+00	2.234841e+01
9.000000e-07	9.664642e-07	6.346516e-10	6.808147e+00	4.012919e+01
9.100000e-07	1.093169e-06	9.085952e-10	7.700704e+00	5.783253e+01
9.200000e-07	1.219498e-06	1.177513e-09	8.590616e+00	7.524127e+01
9.300000e-07	1.345513e-06	1.434290e-09	9.478313e+00	9.214876e+01
9.400000e-07	1.471185e-06	1.679078e-09	1.036359e+01	1.083695e+02
9.500000e-07	1.596451e-06	1.912891e-09	1.124602e+01	1.237483e+02
9.600000e-07	1.721211e-06	2.129662e-09	1.212488e+01	1.381670e+02
9.700000e-07	1.845377e-06	2.328780e-09	1.299955e+01	1.515487e+02
9.800000e-07	1.968873e-06	2.512518e-09	1.386950e+01	1.638583e+02
9.900000e-07	2.091599e-06	2.681058e-09	1.473403e+01	1.751005e+02
1.000000e-06	2.213571e-06	2.835623e-09	1.559325e+01	1.853152e+02
1.010000e-06	2.334860e-06	2.978846e-09	1.644765e+01	1.945704e+02
1.020000e-06	2.455251e-06	3.107752e-09	1.729573e+01	2.029538e+02
1.030000e-06	2.574556e-06	3.222477e-09	1.813617e+01	2.105646e+02
1.040000e-06	2.692945e-06	3.327754e-09	1.897015e+01	2.175047e+02
1.050000e-06	2.810506e-06	3.427342e-09	1.979829e+01	2.238717e+02
1.060000e-06	2.927097e-06	3.520658e-09	2.061960e+01	2.297530e+02
1.070000e-06	3.042516e-06	3.602561e-09	2.143266e+01	2.352223e+02
1.080000e-06	3.156671e-06	3.676469e-09	2.223681e+01	2.403377e+02
1.090000e-06	3.269546e-06	3.747368e-09	2.303195e+01	2.451422e+02
1.100000e-06	3.381088e-06	3.818230e-09	2.381769e+01	2.496654e+02
1.110000e-06	3.491404e-06	3.882812e-09	2.459480e+01	2.539261e+02
1.120000e-06	3.600626e-06	3.941243e-09	2.536420e+01	2.579363e+02
1.130000e-06	3.708711e-06	3.996345e-09	2.612559e+01	2.617043e+02
1.140000e-06	3.815506e-06	4.048821e-09	2.687790e+01	2.652376e+02
1.150000e-06	3.920942e-06	4.097892e-09	2.762063e+01	2.685456e+02
1.160000e-06	4.024878e-06	4.143891e-09	2.835279e+01	2.716405e+02
1.170000e-06	4.127312e-06	4.186560e-09	2.907438e+01	2.745376e+02
1.180000e-06	4.228369e-06	4.224247e-09	2.978626e+01	2.772550e+02
1.190000e-06	4.327954e-06	4.261864e-09	3.048778e+01	2.798120e+02
1.200000e-06	4.425968e-06	4.298767e-09	3.117823e+01	2.822280e+02
1.210000e-06	4.522260e-06	4.332468e-09	3.185655e+01	2.845207e+02
1.220000e-06	4.616842e-06	4.362193e-09	3.252282e+01	2.867046e+02
1.230000e-06	4.709868e-06	4.391174e-09	3.317813e+01	2.887909e+02
1.240000e-06	4.801366e-06	4.421074e-09	3.382268e+01	2.907865e+02
1.250000e-06	4.891165e-06	4.448266e-09	3.445526e+01	2.926947e+02
1.260000e-06	4.979056e-06	4.472679e-09	3.507439e+01	2.945163e+02
1.270000e-06	5.065187e-06	4.496247e-09	3.568114e+01	2.962504e+02
1.280000e-06	5.149727e-06	4.519436e-09	3.627667e+01	2.978955e+02
1.290000e-06	5.232582e-06	4.542242e-09	3.686033e+01	2.994513e+02
1.300000e-06	5.313563e-06	4.563296e-09	3.743079e+01	3.009189e+02
1.310000e-06	5.392560e-06	4.583314e-09	3.798728e+01	3.023015e+02
1.320000e-06	5.469624e-06	4.603390e-09	3.853014e+01	3.036045e+02
1.330000e-06	5.544704e-06	4.624242e-09	3.905904e+01	3.048345e+02
1.340000e-06	5.617612e-06	4.644153e-09	3.957263e+01	3.059993e+02
1.350000e-06	5.688374e-06	4.660776e-09	4.007110e+01	3.071065e+02
1.360000e-06	5.757188e-06	4.674857e-09	4.055586e+01	3.081624e+02
1.370000e-06	5.824023e-06	4.690459e-09	4.102667e+01	3.091718e+02
1.380000e-06	5.888670e-06	4.707433e-09	4.148207e+01	3.101370e+02
1.390000e-06	5.951180e-06	4.722959e-09	4.192241e+01	3.110584e+02
1.400000e-06	6.011767e-06	4.735960e-09	4.234921e+01	3.119342e+02
1.410000e-06	6.070352e-06	4.747264e-09	4.276191e+01	3.127617e+02
1.420000e-06	6.126725e-06	4.758816e-09	4.315902e+01	3.135375e+02
1.430000e-06	6.180889e-06	4.770027e-09	4.354057e+01	3.142593e+02
1.440000e-06	6.232677e-06	4.779973e-09	4.390538e+01	3.149259e+02
1.450000e-06	6.281787e-06	4.789314e-09	4.425133e+01	3.155384e+02
1.460000e-06	6.328381e-06	4.800631e-09	4.457956e+01	3.161001e+02
1.470000e-06	6.372840e-06	4.812060e-09	4.489275e+01	3.166164e+02
1.480000e-06	6.415140e-06	4.820549e-09	4.519073e+01	3.170944e+02
1.490000e-06	6.455075e-06	4.827288e-09	4.547204e+01	3.175418e+02
1.500000e-06	6.492743e-06	4.834451e-09	4.573739e+01	3.179661e+02
1.510000e-06	6.528297e-06	4.841785e-09	4.598785e+01	3.183736e+02
1.520000e-06	6.561547e-06	4.848967e-09	4.622207e+01	3.187683e+02
1.530000e-06	6.592391e-06	4.855232e-09	4.643935e+01	3.191514e+02
1.540000e-06	6.621053e-06	4.860394e-09	4.664125e+01	3.195215e+02
1.550000e-06	6.647476e-06	4.866864e-09	4.682739e+01	3.198741e+02
1.560000e-06	6.671416e-06	4.875286e-09	4.699603e+01	3.202028e+02
1.570000e-06	6.692948e-06	4.882523e-09	4.714771e+01	3.204999e+02
1.580000e-06	6.712290e-06	4.886451e-09	4.728396e+01	3.207576e+02
1.590000e-06	6.729279e-06	4.889648e-09	4.740364e+01	3.209689e+02
1.600000e-06	6.743796e-06	4.893426e-09	4.750590e+01	3.211288e+02
1.610000e-06	6.755836e-06	4.896350e-09	4.759072e+01	3.212348e+02
1.620000e-06	6.765162e-06	4.897167e-09	4.765642e+01	3.212871e+02
1.630000e-06	6.771924e-06	4.898763e-09	4.770405e+01	3.212889e+02
1.640000e-06	6.776409e-06	4.901688e-09	4.773564e+01	3.212455e+02
1.650000e-06	6.778554e-06	4.906630e-09	4.775075e+01	3.211638e+02
1.660000e-06	6.778318e-06	4.908269e-09	4.774909e+01	3.210513e+02
1.670000e-06	6.775867e-06	4.897548e-09	4.773182e+01	3.209151e+02
1.680000e-06	6.771267e-06	4.894716e-09	4.769942e+01	3.207609e+02
1.690000e-06	6.764328e-06	4.893570e-09	4.765054e+01	3.205925e+02
1.700000e-06	6.755121e-06	4.892782e-09	4.758569e+01	3.204112e+02
1.710000e-06	6.743825e-06	4.892677e-09	4.750611e+01	3.202158e+02
1.720000e-06	6.730192e-06	4.901523e-09	4.741007e+01	3.200029e+02
1.730000e-06	6.714197e-06	4.925408e-09	4.729740e+01	3.197675e+02
1.740000e-06	6.696141e-06	4.831246e-09	4.717020e+01	3.195034e+02
1.750000e-06	6.675545e-06	4.751667e-09	4.702512e+01	3.192043e+02
1.760000e-06	6.651641e-06	4.819913e-09	4.685673e+01	3.188644e+02
1.770000e-06	6.624793e-06	4.854779e-09	4.666760e+01	3.184791e+02
1.780000e-06	6.595835e-06	4.894300e-09	4.646361e+01	3.180453e+02
1.790000e-06	6.564980e-06	5.013054e-09	4.624625e+01	3.175616e+02
1.800000e-06	6.532506e-06	4.788752e-09	4.601750e+01	3.170285e+02
1.810000e-06	6.498272e-06	4.706504e-09	4.577634e+01	3.164476e+02
1.820000e-06	6.461633e-06	4.930358e-09	4.551824e+01	3.158220e+02
1.830000e-06	6.422739e-06	4.740290e-09	4.524426e+01	3.151551e+02
1.840000e-06	6.381695e-06	4.813225e-09	4.495513e+01	3.144507e+02
1.850000e-06	6.338420e-06	4.820422e-09	4.465028e+01	3.137121e+02
1.860000e-06	6.293041e-06	4.646603e-09	4.433061e+01	3.129423e+02
1.870000e-06	6.245297e-06	4.872257e-09	4.399429e+01	3.121436e+02
1.880000e-06	6.195254e-06	4.747268e-09	4.364176e+01	3.113174e+02
1.890000e-06	6.142854e-06	4.696540e-09	4.327264e+01	3.104646e+02
1.900000e-06	6.087790e-06	4.712390e-09	4.288475e+01	3.095851e+02
1.910000e-06	6.030501e-06	4.635013e-09	4.248118e+01	3.086784e+02
1.920000e-06	5.971199e-06	4.810359e-09	4.206343e+01	3.077436e+02
1.930000e-06	5.909734e-06	4.660623e-09	4.163045e+01	3.067791e+02
1.940000e-06	5.846010e-06	4.606609e-09	4.118156e+01	3.057828e+02
1.950000e-06	5.780154e-06	4.629259e-09	4.071764e+01	3.047524e+02
1.960000e-06	5.712202e-06	4.645947e-09	4.023896e+01	3.036849e+02
1.970000e-06	5.641863e-06	4.672938e-09	3.974346e+01	3.025768e+02
1.980000e-06	5.569442e-06	4.512979e-09	3.923330e+01	3.014244e+02
1.990000e-06	5.495127e-06	4.612606e-09	3.870980e+01	3.002236e+02
2.000000e-06	5.418727e-06	4.562767e-09	3.817160e+01	2.989705e+02
2.010000e-06	5.340205e-06	4.533241e-09	3.761847e+01	2.976611e+02
2.020000e-06	5.259648e-06	4.548353e-09	3.705099e+01	2.962922e+02
2.030000e-06	5.177277e-06	4.460055e-09	3.647074e+01	2.948609e+02
2.040000e-06	5.093074e-06	4.481846e-09	3.587758e+01	2.933654e+02
2.050000e-06	5.007015e-06	4.445364e-09	3.527135e+01	2.918044e+02
2.060000e-06	4.919098e-06	4.476638e-09	3.465203e+01	2.901773e+02
2.070000e-06	4.829461e-06	4.386264e-09	3.402059e+01	2.884839e+02
2.080000e-06	4.738214e-06	4.341586e-09	3.337781e+01	2.867240e+02
2.090000e-06	4.645283e-06	4.358503e-09	3.272317e+01	2.848969e+02
2.100000e-06	4.550679e-06	4.333455e-09	3.205674e+01	2.830012e+02
2.110000e-06	4.454372e-06	4.291558e-09	3.137832e+01	2.810346e+02
2.120000e-06	4.356535e-06	4.220799e-09	3.068911e+01	2.789937e+02
2.130000e-06	4.257329e-06	4.236636e-09	2.999027e+01	2.768738e+02
2.140000e-06	4.156599e-06	4.202125e-09	2.928069e+01	2.746696e+02
2.150000e-06	4.054265e-06	4.162190e-09	2.855981e+01	2.723756e+02
2.160000e-06	3.950355e-06	4.115358e-09	2.782783e+01	2.699863e+02
2.170000e-06	3.845012e-06	4.090596e-09	2.708575e+01	2.674969e+02
2.180000e-06	3.738447e-06	4.054532e-09	2.633507e+01	2.649036e+02
2.190000e-06	3.630728e-06	4.005377e-09	2.557625e+01	2.622041e+02
2.200000e-06	3.521770e-06	3.970042e-09	2.480871e+01	2.593972e+02
2.210000e-06	3.411569e-06	3.915461e-09	2.403241e+01	2.564825e+02
2.220000e-06	3.300025e-06	3.868128e-09	2.324665e+01	2.534602e+02
2.230000e-06	3.187218e-06	3.823184e-09	2.245199e+01	2.503298e+02
2.240000e-06	3.073272e-06	3.781071e-09	2.164932e+01	2.470893e+02
2.250000e-06	2.958168e-06	3.714680e-09	2.083848e+01	2.437347e+02
2.260000e-06	2.841864e-06	3.662047e-09	2.001919e+01	2.402588e+02
2.270000e-06	2.724342e-06	3.621255e-09	1.919132e+01	2.366510e+02
2.280000e-06	2.605805e-06	3.569949e-09	1.835630e+01	2.328975e+02
2.290000e-06	2.486217e-06	3.497801e-09	1.751387e+01	2.289815e+02
2.300000e-06	2.365595e-06	3.431449e-09	1.666416e+01	2.248839e+02
2.310000e-06	2.244147e-06	3.376865e-09	1.580864e+01	2.205842e+02
2.320000e-06	2.122043e-06	3.306058e-09	1.494849e+01	2.160614e+02
2.330000e-06	1.999345e-06	3.225994e-09	1.408416e+01	2.112952e+02
2.340000e-06	1.876039e-06	3.153913e-09	1.321554e+01	2.062657e+02
2.350000e-06	1.751985e-06	3.083088e-09	1.234166e+01	2.009539e+02
2.360000e-06	1.627172e-06	2.998396e-09	1.146243e+01	1.953406e+02
2.370000e-06	1.501758e-06	2.908836e-09	1.057897e+01	1.894049e+02
2.380000e-06	1.375846e-06	2.812705e-09	9.691990e+00	1.831227e+02
2.390000e-06	1.249553e-06	2.707093e-09	8.802332e+00	1.764644e+02
2.400000e-06	1.122944e-06	2.596450e-09	7.910448e+00	1.693930e+02
2.410000e-06	9.959153e-07	2.484889e-09	7.015612e+00	1.618625e+02
2.420000e-06	8.684151e-07	2.364891e-09	6.117452e+00	1.538174e+02
2.430000e-06	7.405101e-07	2.231357e-09	5.216439e+00	1.451937e+02
2.440000e-06	6.123044e-07	2.092110e-09	4.313309e+00	1.359206e+02
2.450000e-06	4.838656e-07	1.944278e-09	3.408536e+00	1.259246e+02
2.460000e-06	3.552448e-07	1.777851e-09	2.502482e+00	1.151347e+02
2.470000e-06	2.265376e-07	1.599939e-09	1.595819e+00	1.034887e+02
2.480000e-06	9.775340e-08	1.414371e-09	6.886127e-01	9.094056e+01
2.490000e-06	-3.106628e-08	1.213706e-09	-2.188429e-01	7.746723e+01
2.500000e-06	-1.598672e-07	9.914617e-10	-1.126167e+00	6.307519e+01
2.510000e-06	-2.886489e-07	7.580940e-10	-2.033354e+00	4.780544e+01
2.520000e-06	-4.173189e-07	5.181567e-10	-2.939756e+00	3.173638e+01
2.530000e-06	-5.458374e-07	2.627085e-10	-3.845089e+00	1.498422e+01
2.540000e-06	-6.741494e-07	-4.130738e-12	-4.748969e+00	-2.299530e+00
2.550000e-06	-8.020647e-07	-2.756299e-10	-5.650054e+00	-1.993335e+01
2.560000e-06	-9.295249e-07	-5.468848e-10	-6.547933e+00	-3.771357e+01
2.570000e-06	-1.056573e-06	-8.180694e-10	-7.442908e+00	-5.542414e+01
2.580000e-06	-1.183280e-06	-1.086170e-09	-8.335485e+00	-7.284776e+01
2.590000e-06	-1.309690e-06	-1.346959e-09	-9.225962e+00	-8.977719e+01
2.600000e-06	-1.435744e-06	-1.597016e-09	-1.011394e+01	-1.060260e+02
2.610000e-06	-1.561319e-06	-1.832522e-09	-1.099853e+01	-1.214378e+02
2.620000e-06	-1.686198e-06	-2.052891e-09	-1.187823e+01	-1.358932e+02
2.630000e-06	-1.810213e-06	-2.258995e-09	-1.275184e+01	-1.493134e+02
2.640000e-06	-1.933464e-06	-2.450130e-09	-1.362007e+01	-1.616621e+02
2.650000e-06	-2.056091e-06	-2.623114e-09	-1.448390e+01	-1.729427e+02
2.660000e-06	-2.177995e-06	-2.777854e-09	-1.534264e+01	-1.831938e+02
2.670000e-06	-2.299207e-06	-2.917310e-09	-1.619650e+01	-1.924825e+02
2.680000e-06	-2.419683e-06	-3.045570e-09	-1.704518e+01	-2.008961e+02
2.690000e-06	-2.539155e-06	-3.164289e-09	-1.788679e+01	-2.085334e+02
2.700000e-06	-2.657629e-06	-3.273205e-09	-1.872136e+01	-2.154964e+02
2.710000e-06	-2.775154e-06	-3.371600e-09	-1.954926e+01	-2.218830e+02
2.720000e-06	-2.891466e-06	-3.463190e-09	-2.036860e+01	-2.277810e+02
2.730000e-06	-3.006564e-06	-3.550369e-09	-2.117940e+01	-2.332646e+02
2.740000e-06	-3.120513e-06	-3.630535e-09	-2.198210e+01	-2.383926e+02
2.750000e-06	-3.233166e-06	-3.703866e-09	-2.277567e+01	-2.432083e+02
2.760000e-06	-3.344434e-06	-3.772104e-09	-2.355948e+01	-2.477418e+02
2.770000e-06	-3.454390e-06	-3.836783e-09	-2.433406e+01	-2.520124e+02
2.780000e-06	-3.563264e-06	-3.897557e-09	-2.510101e+01	-2.560321e+02
2.790000e-06	-3.671015e-06	-3.954416e-09	-2.586005e+01	-2.598093e+02
2.800000e-06	-3.777549e-06	-4.008533e-09	-2.661051e+01	-2.633516e+02
2.810000e-06	-3.882797e-06	-4.061380e-09	-2.735192e+01	-2.666681e+02
2.820000e-06	-3.986595e-06	-4.113727e-09	-2.808311e+01	-2.697711e+02
2.830000e-06	-4.088879e-06	-4.162432e-09	-2.880364e+01	-2.726757e+02
2.840000e-06	-4.189598e-06	-4.207538e-09	-2.951315e+01	-2.753998e+02
2.850000e-06	-4.288825e-06	-4.250420e-09	-3.021214e+01	-2.779629e+02
2.860000e-06	-4.386702e-06	-4.289260e-09	-3.090162e+01	-2.803844e+02
2.870000e-06	-4.483136e-06	-4.324415e-09	-3.158095e+01	-2.826818e+02
2.880000e-06	-4.577954e-06	-4.358433e-09	-3.224888e+01	-2.848702e+02
2.890000e-06	-4.671056e-06	-4.392296e-09	-3.290472e+01	-2.869605e+02
2.900000e-06	-4.762514e-06	-4.424819e-09	-3.354899e+01	-2.889599e+02
2.910000e-06	-4.852410e-06	-4.455136e-09	-3.418225e+01	-2.908720e+02
2.920000e-06	-4.940624e-06	-4.483854e-09	-3.480366e+01	-2.926974e+02
2.930000e-06	-5.026967e-06	-4.511456e-09	-3.541190e+01	-2.944353e+02
2.940000e-06	-5.111426e-06	-4.538987e-09	-3.600686e+01	-2.960843e+02
