# Temperatura_=_20.0
# Concentracion g/m^3_=_9000.0
# C_Vs_to_Am_M_A/Vsm_=_65563218390.804596
# pendiente_HvsI_1/m_=_3716.3
# ordenada_HvsI_A/m_=_1297.0
# frecuencia_Hz_=_301146.0634008281

Tiempo_(s)	Campo_(V.s)	Magnetizacion_(V.s)	Campo_(kA/m)	Magnetizacion_(A/m)
0.000000e+00	-6.667576e-06	-4.873005e-09	-4.745206e+01	-3.197369e+02
1.000000e-08	-6.665781e-06	-4.879250e-09	-4.743929e+01	-3.196601e+02
2.000000e-08	-6.661715e-06	-4.879054e-09	-4.741035e+01	-3.195617e+02
3.000000e-08	-6.655598e-06	-4.876678e-09	-4.736682e+01	-3.194428e+02
4.000000e-08	-6.647321e-06	-4.871733e-09	-4.730791e+01	-3.193024e+02
5.000000e-08	-6.636611e-06	-4.863176e-09	-4.723169e+01	-3.191377e+02
6.000000e-08	-6.623382e-06	-4.857156e-09	-4.713754e+01	-3.189447e+02
7.000000e-08	-6.607750e-06	-4.843031e-09	-4.702629e+01	-3.187183e+02
8.000000e-08	-6.589903e-06	-4.823984e-09	-4.689928e+01	-3.184533e+02
9.000000e-08	-6.569935e-06	-4.882356e-09	-4.675717e+01	-3.181449e+02
1.000000e-07	-6.547498e-06	-4.931737e-09	-4.659749e+01	-3.177892e+02
1.100000e-07	-6.522286e-06	-4.888244e-09	-4.641806e+01	-3.173836e+02
1.200000e-07	-6.494571e-06	-4.828510e-09	-4.622081e+01	-3.169268e+02
1.300000e-07	-6.464782e-06	-4.799746e-09	-4.600881e+01	-3.164193e+02
1.400000e-07	-6.433246e-06	-4.747327e-09	-4.578438e+01	-3.158627e+02
1.500000e-07	-6.399922e-06	-4.799171e-09	-4.554721e+01	-3.152598e+02
1.600000e-07	-6.364471e-06	-4.906694e-09	-4.529491e+01	-3.146137e+02
1.700000e-07	-6.326877e-06	-4.741716e-09	-4.502736e+01	-3.139280e+02
1.800000e-07	-6.287241e-06	-4.755406e-09	-4.474528e+01	-3.132063e+02
1.900000e-07	-6.245236e-06	-4.819849e-09	-4.444634e+01	-3.124516e+02
2.000000e-07	-6.200826e-06	-4.733940e-09	-4.413028e+01	-3.116668e+02
2.100000e-07	-6.154186e-06	-4.783884e-09	-4.379835e+01	-3.108541e+02
2.200000e-07	-6.104946e-06	-4.723312e-09	-4.344792e+01	-3.100151e+02
2.300000e-07	-6.053113e-06	-4.689219e-09	-4.307903e+01	-3.091511e+02
2.400000e-07	-5.998990e-06	-4.732389e-09	-4.269385e+01	-3.082628e+02
2.500000e-07	-5.942679e-06	-4.713813e-09	-4.229309e+01	-3.073505e+02
2.600000e-07	-5.884183e-06	-4.702790e-09	-4.187678e+01	-3.064137e+02
2.700000e-07	-5.823503e-06	-4.648493e-09	-4.144493e+01	-3.054513e+02
2.800000e-07	-5.760782e-06	-4.629645e-09	-4.099856e+01	-3.044615e+02
2.900000e-07	-5.696044e-06	-4.647123e-09	-4.053783e+01	-3.034412e+02
3.000000e-07	-5.629200e-06	-4.648352e-09	-4.006211e+01	-3.023868e+02
3.100000e-07	-5.560163e-06	-4.606574e-09	-3.957078e+01	-3.012933e+02
3.200000e-07	-5.489225e-06	-4.543727e-09	-3.906593e+01	-3.001553e+02
3.300000e-07	-5.416460e-06	-4.589826e-09	-3.854807e+01	-2.989669e+02
3.400000e-07	-5.341430e-06	-4.562047e-09	-3.801410e+01	-2.977224e+02
3.500000e-07	-5.264169e-06	-4.504198e-09	-3.746424e+01	-2.964163e+02
3.600000e-07	-5.184727e-06	-4.504128e-09	-3.689887e+01	-2.950446e+02
3.700000e-07	-5.103269e-06	-4.481455e-09	-3.631914e+01	-2.936042e+02
3.800000e-07	-5.020157e-06	-4.457195e-09	-3.572764e+01	-2.920938e+02
3.900000e-07	-4.935461e-06	-4.428011e-09	-3.512488e+01	-2.905137e+02
4.000000e-07	-4.849236e-06	-4.415968e-09	-3.451123e+01	-2.888655e+02
4.100000e-07	-4.761454e-06	-4.367281e-09	-3.388650e+01	-2.871516e+02
4.200000e-07	-4.671810e-06	-4.339237e-09	-3.324852e+01	-2.853749e+02
4.300000e-07	-4.580330e-06	-4.337913e-09	-3.259747e+01	-2.835374e+02
4.400000e-07	-4.487216e-06	-4.302182e-09	-3.193479e+01	-2.816406e+02
4.500000e-07	-4.392595e-06	-4.256945e-09	-3.126139e+01	-2.796838e+02
4.600000e-07	-4.296475e-06	-4.230843e-09	-3.057732e+01	-2.776646e+02
4.700000e-07	-4.198614e-06	-4.218779e-09	-2.988086e+01	-2.755784e+02
4.800000e-07	-4.099221e-06	-4.169287e-09	-2.917349e+01	-2.734188e+02
4.900000e-07	-3.998440e-06	-4.123203e-09	-2.845625e+01	-2.711784e+02
5.000000e-07	-3.896167e-06	-4.096464e-09	-2.772839e+01	-2.688488e+02
5.100000e-07	-3.792590e-06	-4.063416e-09	-2.699125e+01	-2.664222e+02
5.200000e-07	-3.687565e-06	-4.015040e-09	-2.624380e+01	-2.638917e+02
5.300000e-07	-3.580995e-06	-3.972271e-09	-2.548537e+01	-2.612520e+02
5.400000e-07	-3.473182e-06	-3.937415e-09	-2.471807e+01	-2.584994e+02
5.500000e-07	-3.364216e-06	-3.892686e-09	-2.394258e+01	-2.556323e+02
5.600000e-07	-3.254150e-06	-3.850771e-09	-2.315926e+01	-2.526502e+02
5.700000e-07	-3.143042e-06	-3.806865e-09	-2.236852e+01	-2.495532e+02
5.800000e-07	-3.030711e-06	-3.754807e-09	-2.156908e+01	-2.463409e+02
5.900000e-07	-2.916982e-06	-3.699843e-09	-2.075969e+01	-2.430113e+02
6.000000e-07	-2.801937e-06	-3.657166e-09	-1.994093e+01	-2.395601e+02
6.100000e-07	-2.685760e-06	-3.607552e-09	-1.911412e+01	-2.359796e+02
6.200000e-07	-2.568632e-06	-3.543441e-09	-1.828054e+01	-2.322588e+02
6.300000e-07	-2.450630e-06	-3.475897e-09	-1.744074e+01	-2.283832e+02
6.400000e-07	-2.331846e-06	-3.414297e-09	-1.659537e+01	-2.243354e+02
6.500000e-07	-2.212428e-06	-3.355375e-09	-1.574549e+01	-2.200957e+02
6.600000e-07	-2.092259e-06	-3.283478e-09	-1.489027e+01	-2.156436e+02
6.700000e-07	-1.971095e-06	-3.205790e-09	-1.402797e+01	-2.109582e+02
6.800000e-07	-1.848955e-06	-3.130709e-09	-1.315872e+01	-2.060190e+02
6.900000e-07	-1.726097e-06	-3.054461e-09	-1.228436e+01	-2.008060e+02
7.000000e-07	-1.602720e-06	-2.966950e-09	-1.140630e+01	-1.952996e+02
7.100000e-07	-1.478863e-06	-2.876754e-09	-1.052483e+01	-1.894788e+02
7.200000e-07	-1.354516e-06	-2.784305e-09	-9.639869e+00	-1.833204e+02
7.300000e-07	-1.229693e-06	-2.685584e-09	-8.751524e+00	-1.767965e+02
7.400000e-07	-1.104474e-06	-2.581792e-09	-7.860360e+00	-1.698725e+02
7.500000e-07	-9.788771e-07	-2.472113e-09	-6.966511e+00	-1.625060e+02
7.600000e-07	-8.529164e-07	-2.349235e-09	-6.070068e+00	-1.546454e+02
7.700000e-07	-7.266867e-07	-2.211740e-09	-5.171712e+00	-1.462303e+02
7.800000e-07	-6.002443e-07	-2.070975e-09	-4.271842e+00	-1.371932e+02
7.900000e-07	-4.735606e-07	-1.922450e-09	-3.370254e+00	-1.274627e+02
8.000000e-07	-3.467198e-07	-1.759454e-09	-2.467549e+00	-1.169683e+02
8.100000e-07	-2.198420e-07	-1.583721e-09	-1.564580e+00	-1.056462e+02
8.200000e-07	-9.288924e-08	-1.399220e-09	-6.610777e-01	-9.344583e+01
8.300000e-07	3.412059e-08	-1.198918e-09	2.428307e-01	-8.033748e+01
8.400000e-07	1.611037e-07	-9.810582e-10	1.146549e+00	-6.631821e+01
8.500000e-07	2.880601e-07	-7.514720e-10	2.050077e+00	-5.141743e+01
8.600000e-07	4.149466e-07	-5.125992e-10	2.953108e+00	-3.570036e+01
8.700000e-07	5.417310e-07	-2.641087e-10	3.855412e+00	-1.926913e+01
8.800000e-07	6.683912e-07	-5.937526e-12	4.756832e+00	-2.261219e+00
8.900000e-07	7.948104e-07	2.577388e-10	5.656537e+00	1.515490e+01
9.000000e-07	9.208990e-07	5.245966e-10	6.553890e+00	3.278663e+01
9.100000e-07	1.046671e-06	7.929214e-10	7.448990e+00	5.042621e+01
9.200000e-07	1.172059e-06	1.060329e-09	8.341354e+00	6.786112e+01
9.300000e-07	1.297010e-06	1.320950e-09	9.230610e+00	8.488499e+01
9.400000e-07	1.421567e-06	1.570419e-09	1.011707e+01	1.013082e+02
9.500000e-07	1.545736e-06	1.807108e-09	1.100075e+01	1.169671e+02
9.600000e-07	1.669460e-06	2.029240e-09	1.188128e+01	1.317317e+02
9.700000e-07	1.792714e-06	2.235671e-09	1.275846e+01	1.455099e+02
9.800000e-07	1.915434e-06	2.425217e-09	1.363183e+01	1.582500e+02
9.900000e-07	2.037360e-06	2.598478e-09	1.449956e+01	1.699394e+02
1.000000e-06	2.158276e-06	2.757694e-09	1.536010e+01	1.806008e+02
1.010000e-06	2.278249e-06	2.908246e-09	1.621393e+01	1.902871e+02
1.020000e-06	2.397433e-06	3.045604e-09	1.706214e+01	1.990731e+02
1.030000e-06	2.515890e-06	3.167326e-09	1.790518e+01	2.070485e+02
1.040000e-06	2.633504e-06	3.277467e-09	1.874222e+01	2.143091e+02
1.050000e-06	2.750142e-06	3.382368e-09	1.957232e+01	2.209504e+02
1.060000e-06	2.865792e-06	3.479563e-09	2.039538e+01	2.270608e+02
1.070000e-06	2.980272e-06	3.565196e-09	2.121012e+01	2.327183e+02
1.080000e-06	3.093361e-06	3.640834e-09	2.201495e+01	2.379875e+02
1.090000e-06	3.205144e-06	3.713110e-09	2.281050e+01	2.429193e+02
1.100000e-06	3.315827e-06	3.784934e-09	2.359821e+01	2.475515e+02
1.110000e-06	3.425427e-06	3.850463e-09	2.437821e+01	2.519113e+02
1.120000e-06	3.533962e-06	3.909907e-09	2.515064e+01	2.560177e+02
1.130000e-06	3.641476e-06	3.966261e-09	2.591580e+01	2.598846e+02
1.140000e-06	3.747723e-06	4.023407e-09	2.667194e+01	2.635231e+02
1.150000e-06	3.852395e-06	4.074939e-09	2.741687e+01	2.669441e+02
1.160000e-06	3.955565e-06	4.122338e-09	2.815112e+01	2.701594e+02
1.170000e-06	4.057349e-06	4.166957e-09	2.887550e+01	2.731822e+02
1.180000e-06	4.157737e-06	4.207366e-09	2.958994e+01	2.760273e+02
1.190000e-06	4.256760e-06	4.244847e-09	3.029467e+01	2.787102e+02
1.200000e-06	4.354175e-06	4.280382e-09	3.098796e+01	2.812458e+02
1.210000e-06	4.449843e-06	4.316057e-09	3.166881e+01	2.836481e+02
1.220000e-06	4.543932e-06	4.350651e-09	3.233843e+01	2.859286e+02
1.230000e-06	4.636499e-06	4.382204e-09	3.299722e+01	2.880961e+02
1.240000e-06	4.727621e-06	4.412320e-09	3.364572e+01	2.901567e+02
1.250000e-06	4.817030e-06	4.441115e-09	3.428203e+01	2.921140e+02
1.260000e-06	4.904500e-06	4.466914e-09	3.490454e+01	2.939700e+02
1.270000e-06	4.990243e-06	4.490404e-09	3.551475e+01	2.957257e+02
1.280000e-06	5.074424e-06	4.513015e-09	3.611385e+01	2.973824e+02
1.290000e-06	5.156966e-06	4.535271e-09	3.670130e+01	2.989427e+02
1.300000e-06	5.237646e-06	4.555797e-09	3.727548e+01	3.004104e+02
1.310000e-06	5.316369e-06	4.575450e-09	3.783574e+01	3.017916e+02
1.320000e-06	5.393159e-06	4.595322e-09	3.838224e+01	3.030937e+02
1.330000e-06	5.467923e-06	4.615039e-09	3.891433e+01	3.043253e+02
1.340000e-06	5.540522e-06	4.634129e-09	3.943100e+01	3.054955e+02
1.350000e-06	5.611083e-06	4.651781e-09	3.993317e+01	3.066125e+02
1.360000e-06	5.679768e-06	4.667475e-09	4.042199e+01	3.076834e+02
1.370000e-06	5.746512e-06	4.682821e-09	4.089700e+01	3.087130e+02
1.380000e-06	5.811107e-06	4.698748e-09	4.135671e+01	3.097038e+02
1.390000e-06	5.873599e-06	4.714002e-09	4.180146e+01	3.106558e+02
1.400000e-06	5.934193e-06	4.727548e-09	4.223269e+01	3.115673e+02
1.410000e-06	5.992798e-06	4.740545e-09	4.264978e+01	3.124349e+02
1.420000e-06	6.049202e-06	4.753545e-09	4.305120e+01	3.132551e+02
1.430000e-06	6.103393e-06	4.766866e-09	4.343686e+01	3.140246e+02
1.440000e-06	6.155211e-06	4.778259e-09	4.380564e+01	3.147416e+02
1.450000e-06	6.204366e-06	4.788041e-09	4.415547e+01	3.154059e+02
1.460000e-06	6.251134e-06	4.800046e-09	4.448831e+01	3.160194e+02
1.470000e-06	6.295849e-06	4.812664e-09	4.480654e+01	3.165861e+02
1.480000e-06	6.338415e-06	4.822649e-09	4.510948e+01	3.171114e+02
1.490000e-06	6.378613e-06	4.830224e-09	4.539556e+01	3.176014e+02
1.500000e-06	6.416500e-06	4.838032e-09	4.566519e+01	3.180624e+02
1.510000e-06	6.452312e-06	4.846030e-09	4.592006e+01	3.184996e+02
1.520000e-06	6.485897e-06	4.854178e-09	4.615908e+01	3.189168e+02
1.530000e-06	6.517093e-06	4.860685e-09	4.638110e+01	3.193156e+02
1.540000e-06	6.546132e-06	4.866231e-09	4.658777e+01	3.196953e+02
1.550000e-06	6.572976e-06	4.872855e-09	4.677881e+01	3.200533e+02
1.560000e-06	6.597271e-06	4.880964e-09	4.695171e+01	3.203854e+02
1.570000e-06	6.619107e-06	4.887083e-09	4.710711e+01	3.206862e+02
1.580000e-06	6.638841e-06	4.889517e-09	4.724756e+01	3.209505e+02
1.590000e-06	6.656345e-06	4.893772e-09	4.737213e+01	3.211739e+02
1.600000e-06	6.671344e-06	4.899516e-09	4.747888e+01	3.213532e+02
1.610000e-06	6.683920e-06	4.905713e-09	4.756838e+01	3.214872e+02
1.620000e-06	6.693908e-06	4.909942e-09	4.763946e+01	3.215766e+02
1.630000e-06	6.701269e-06	4.912867e-09	4.769185e+01	3.216241e+02
1.640000e-06	6.706356e-06	4.916961e-09	4.772806e+01	3.216335e+02
1.650000e-06	6.709165e-06	4.920539e-09	4.774805e+01	3.216098e+02
1.660000e-06	6.709545e-06	4.923793e-09	4.775075e+01	3.215577e+02
1.670000e-06	6.707663e-06	4.916248e-09	4.773735e+01	3.214813e+02
1.680000e-06	6.703699e-06	4.910855e-09	4.770915e+01	3.213833e+02
1.690000e-06	6.697446e-06	4.908743e-09	4.766464e+01	3.212647e+02
1.700000e-06	6.688922e-06	4.908364e-09	4.760398e+01	3.211248e+02
1.710000e-06	6.678412e-06	4.909309e-09	4.752918e+01	3.209606e+02
1.720000e-06	6.665674e-06	4.910111e-09	4.743853e+01	3.207684e+02
1.730000e-06	6.650466e-06	4.932082e-09	4.733029e+01	3.205429e+02
1.740000e-06	6.633080e-06	4.900898e-09	4.720656e+01	3.202790e+02
1.750000e-06	6.613443e-06	4.799876e-09	4.706681e+01	3.199719e+02
1.760000e-06	6.590802e-06	4.811761e-09	4.690568e+01	3.196176e+02
1.770000e-06	6.564985e-06	4.861277e-09	4.672194e+01	3.192134e+02
1.780000e-06	6.536871e-06	4.888712e-09	4.652185e+01	3.187581e+02
1.790000e-06	6.506870e-06	4.995226e-09	4.630835e+01	3.182520e+02
1.800000e-06	6.475089e-06	4.904768e-09	4.608217e+01	3.176968e+02
1.810000e-06	6.441678e-06	4.719490e-09	4.584439e+01	3.170951e+02
1.820000e-06	6.406119e-06	4.858317e-09	4.559131e+01	3.164501e+02
1.830000e-06	6.368298e-06	4.797684e-09	4.532215e+01	3.157654e+02
1.840000e-06	6.328299e-06	4.775955e-09	4.503748e+01	3.150445e+02
1.850000e-06	6.285949e-06	4.866166e-09	4.473609e+01	3.142906e+02
1.860000e-06	6.241565e-06	4.668386e-09	4.442021e+01	3.135065e+02
1.870000e-06	6.195021e-06	4.795169e-09	4.408896e+01	3.126944e+02
1.880000e-06	6.146118e-06	4.819264e-09	4.374093e+01	3.118559e+02
1.890000e-06	6.094990e-06	4.696036e-09	4.337706e+01	3.109925e+02
1.900000e-06	6.041185e-06	4.726700e-09	4.299414e+01	3.101047e+02
1.910000e-06	5.984939e-06	4.641583e-09	4.259385e+01	3.091928e+02
1.920000e-06	5.926641e-06	4.745018e-09	4.217895e+01	3.082566e+02
1.930000e-06	5.866304e-06	4.718186e-09	4.174954e+01	3.072948e+02
1.940000e-06	5.803845e-06	4.616014e-09	4.130503e+01	3.063056e+02
1.950000e-06	5.739121e-06	4.654158e-09	4.084440e+01	3.052862e+02
1.960000e-06	5.672369e-06	4.614705e-09	4.036933e+01	3.042326e+02
1.970000e-06	5.603473e-06	4.671273e-09	3.987901e+01	3.031403e+02
1.980000e-06	5.532321e-06	4.568869e-09	3.937263e+01	3.020036e+02
1.990000e-06	5.459136e-06	4.574182e-09	3.885179e+01	3.008168e+02
2.000000e-06	5.384119e-06	4.589970e-09	3.831791e+01	2.995739e+02
2.010000e-06	5.307119e-06	4.523105e-09	3.776991e+01	2.982698e+02
2.020000e-06	5.227905e-06	4.562822e-09	3.720616e+01	2.969001e+02
2.030000e-06	5.146742e-06	4.474125e-09	3.662853e+01	2.954618e+02
2.040000e-06	5.063827e-06	4.473640e-09	3.603844e+01	2.939536e+02
2.050000e-06	4.979270e-06	4.459550e-09	3.543666e+01	2.923756e+02
2.060000e-06	4.892857e-06	4.467197e-09	3.482168e+01	2.907294e+02
2.070000e-06	4.804480e-06	4.424459e-09	3.419271e+01	2.890175e+02
2.080000e-06	4.714454e-06	4.344619e-09	3.355201e+01	2.872426e+02
2.090000e-06	4.622891e-06	4.361300e-09	3.290037e+01	2.854069e+02
2.100000e-06	4.529853e-06	4.334546e-09	3.223823e+01	2.835118e+02
2.110000e-06	4.435044e-06	4.306235e-09	3.156349e+01	2.815569e+02
2.120000e-06	4.338582e-06	4.236121e-09	3.087699e+01	2.795396e+02
2.130000e-06	4.240722e-06	4.222830e-09	3.018053e+01	2.774555e+02
2.140000e-06	4.141427e-06	4.204500e-09	2.947387e+01	2.752983e+02
2.150000e-06	4.040788e-06	4.169275e-09	2.875763e+01	2.730605e+02
2.160000e-06	3.938522e-06	4.134476e-09	2.802983e+01	2.707339e+02
2.170000e-06	3.834585e-06	4.090329e-09	2.729012e+01	2.683106e+02
2.180000e-06	3.729288e-06	4.061100e-09	2.654074e+01	2.657836e+02
2.190000e-06	3.622789e-06	4.018320e-09	2.578280e+01	2.631474e+02
2.200000e-06	3.515167e-06	3.985925e-09	2.501687e+01	2.603985e+02
2.210000e-06	3.406472e-06	3.926209e-09	2.424331e+01	2.575352e+02
2.220000e-06	3.296474e-06	3.874869e-09	2.346047e+01	2.545569e+02
2.230000e-06	3.185170e-06	3.835703e-09	2.266834e+01	2.514636e+02
2.240000e-06	3.072697e-06	3.798974e-09	2.186789e+01	2.482550e+02
2.250000e-06	2.959038e-06	3.738369e-09	2.105899e+01	2.449293e+02
2.260000e-06	2.844354e-06	3.675759e-09	2.024281e+01	2.414822e+02
2.270000e-06	2.728695e-06	3.628958e-09	1.941968e+01	2.379062e+02
2.280000e-06	2.611973e-06	3.580307e-09	1.858899e+01	2.341903e+02
2.290000e-06	2.493936e-06	3.520036e-09	1.774894e+01	2.303201e+02
2.300000e-06	2.374697e-06	3.451118e-09	1.690034e+01	2.262783e+02
2.310000e-06	2.254638e-06	3.390889e-09	1.604589e+01	2.220455e+02
2.320000e-06	2.133936e-06	3.324432e-09	1.518688e+01	2.176010e+02
2.330000e-06	2.012527e-06	3.254052e-09	1.432283e+01	2.129239e+02
2.340000e-06	1.890430e-06	3.179748e-09	1.345388e+01	2.079937e+02
2.350000e-06	1.767666e-06	3.103258e-09	1.258019e+01	2.027906e+02
2.360000e-06	1.644268e-06	3.020311e-09	1.170199e+01	1.972946e+02
2.370000e-06	1.520452e-06	2.937753e-09	1.082081e+01	1.914851e+02
2.380000e-06	1.396289e-06	2.849114e-09	9.937164e+00	1.853388e+02
2.390000e-06	1.271754e-06	2.743997e-09	9.050867e+00	1.788281e+02
2.400000e-06	1.146744e-06	2.632086e-09	8.161191e+00	1.719188e+02
2.410000e-06	1.021202e-06	2.519842e-09	7.267731e+00	1.645686e+02
2.420000e-06	8.951231e-07	2.404035e-09	6.370446e+00	1.567262e+02
2.430000e-06	7.685306e-07	2.276710e-09	5.469508e+00	1.483317e+02
2.440000e-06	6.415596e-07	2.142122e-09	4.565876e+00	1.393176e+02
2.450000e-06	5.143422e-07	1.997370e-09	3.660491e+00	1.296128e+02
2.460000e-06	3.869056e-07	1.838430e-09	2.753545e+00	1.191465e+02
2.470000e-06	2.592612e-07	1.669320e-09	1.845120e+00	1.078545e+02
2.480000e-06	1.315226e-07	1.488998e-09	9.360249e-01	9.568580e+01
2.490000e-06	3.751415e-09	1.290546e-09	2.669822e-02	8.260975e+01
2.500000e-06	-1.240325e-07	1.073321e-09	-8.827191e-01	6.862234e+01
2.510000e-06	-2.517150e-07	8.476270e-10	-1.791415e+00	5.375178e+01
2.520000e-06	-3.792540e-07	6.137668e-10	-2.699089e+00	3.806196e+01
2.530000e-06	-5.066688e-07	3.661133e-10	-3.605880e+00	2.165371e+01
2.540000e-06	-6.338420e-07	1.043028e-10	-4.510951e+00	4.663292e+00
2.550000e-06	-7.606808e-07	-1.630212e-10	-5.413643e+00	-1.274181e+01
2.560000e-06	-8.870484e-07	-4.312100e-10	-6.312980e+00	-3.036972e+01
2.570000e-06	-1.012848e-06	-7.018282e-10	-7.208276e+00	-4.801304e+01
2.580000e-06	-1.138139e-06	-9.718312e-10	-8.099948e+00	-6.545925e+01
2.590000e-06	-1.262959e-06	-1.236804e-09	-8.988276e+00	-8.250155e+01
2.600000e-06	-1.387407e-06	-1.492501e-09	-9.873950e+00	-9.894955e+01
2.610000e-06	-1.511478e-06	-1.735034e-09	-1.075695e+01	-1.146386e+02
2.620000e-06	-1.635062e-06	-1.960798e-09	-1.163648e+01	-1.294373e+02
2.630000e-06	-1.758093e-06	-2.171507e-09	-1.251206e+01	-1.432522e+02
2.640000e-06	-1.880435e-06	-2.368337e-09	-1.338275e+01	-1.560302e+02
2.650000e-06	-2.002023e-06	-2.548961e-09	-1.424808e+01	-1.677573e+02
2.660000e-06	-2.122935e-06	-2.709386e-09	-1.510858e+01	-1.784551e+02
2.670000e-06	-2.243257e-06	-2.853020e-09	-1.596489e+01	-1.881753e+02
2.680000e-06	-2.362932e-06	-2.987108e-09	-1.681661e+01	-1.969924e+02
2.690000e-06	-2.481551e-06	-3.111599e-09	-1.766080e+01	-2.049954e+02
2.700000e-06	-2.598856e-06	-3.226389e-09	-1.849564e+01	-2.122803e+02
2.710000e-06	-2.715063e-06	-3.329205e-09	-1.932266e+01	-2.189424e+02
2.720000e-06	-2.830335e-06	-3.422290e-09	-2.014304e+01	-2.250708e+02
2.730000e-06	-2.944510e-06	-3.510591e-09	-2.095560e+01	-2.307437e+02
2.740000e-06	-3.057416e-06	-3.594280e-09	-2.175914e+01	-2.360261e+02
2.750000e-06	-3.168962e-06	-3.671146e-09	-2.255299e+01	-2.409695e+02
2.760000e-06	-3.279243e-06	-3.739847e-09	-2.333784e+01	-2.456123e+02
2.770000e-06	-3.388440e-06	-3.804444e-09	-2.411498e+01	-2.499818e+02
2.780000e-06	-3.496670e-06	-3.867288e-09	-2.488523e+01	-2.540974e+02
2.790000e-06	-3.603880e-06	-3.927358e-09	-2.564823e+01	-2.579730e+02
2.800000e-06	-3.709820e-06	-3.982695e-09	-2.640219e+01	-2.616199e+02
2.810000e-06	-3.814414e-06	-4.035561e-09	-2.714657e+01	-2.650488e+02
2.820000e-06	-3.917519e-06	-4.089074e-09	-2.788035e+01	-2.682716e+02
2.830000e-06	-4.019015e-06	-4.140060e-09	-2.860268e+01	-2.713014e+02
2.840000e-06	-4.119102e-06	-4.187253e-09	-2.931498e+01	-2.741530e+02
2.850000e-06	-4.217809e-06	-4.230402e-09	-3.001746e+01	-2.768417e+02
2.860000e-06	-4.315126e-06	-4.270874e-09	-3.071006e+01	-2.793827e+02
2.870000e-06	-4.411120e-06	-4.311626e-09	-3.139323e+01	-2.817899e+02
2.880000e-06	-4.505435e-06	-4.349969e-09	-3.206446e+01	-2.840749e+02
2.890000e-06	-4.598044e-06	-4.384414e-09	-3.272353e+01	-2.862467e+02
2.900000e-06	-4.689163e-06	-4.416056e-09	-3.337202e+01	-2.883114e+02
2.910000e-06	-4.778650e-06	-4.445486e-09	-3.400888e+01	-2.902728e+02
2.920000e-06	-4.866387e-06	-4.473964e-09	-3.463329e+01	-2.921327e+02
2.930000e-06	-4.952301e-06	-4.502583e-09	-3.524472e+01	-2.938923e+02
2.940000e-06	-5.036471e-06	-4.531172e-09	-3.584375e+01	-2.955529e+02
