# Temperatura_=_20.0
# Concentracion g/m^3_=_9000.0
# C_Vs_to_Am_M_A/Vsm_=_65563218390.804596
# pendiente_HvsI_1/m_=_3716.3
# ordenada_HvsI_A/m_=_1297.0
# frecuencia_Hz_=_301145.03853989934

Tiempo_(s)	Campo_(V.s)	Magnetizacion_(V.s)	Campo_(kA/m)	Magnetizacion_(A/m)
0.000000e+00	-6.757973e-06	-4.872766e-09	-4.745502e+01	-3.176859e+02
1.000000e-08	-6.755664e-06	-4.872455e-09	-4.743881e+01	-3.175821e+02
2.000000e-08	-6.751082e-06	-4.867368e-09	-4.740663e+01	-3.174646e+02
3.000000e-08	-6.744413e-06	-4.862193e-09	-4.735981e+01	-3.173346e+02
4.000000e-08	-6.735486e-06	-4.857758e-09	-4.729712e+01	-3.171906e+02
5.000000e-08	-6.724063e-06	-4.852530e-09	-4.721690e+01	-3.170283e+02
6.000000e-08	-6.710157e-06	-4.844503e-09	-4.711926e+01	-3.168411e+02
7.000000e-08	-6.693877e-06	-4.825847e-09	-4.700494e+01	-3.166206e+02
8.000000e-08	-6.675422e-06	-4.818904e-09	-4.687534e+01	-3.163580e+02
9.000000e-08	-6.654793e-06	-4.863310e-09	-4.673049e+01	-3.160447e+02
1.000000e-07	-6.631626e-06	-4.863737e-09	-4.656780e+01	-3.156733e+02
1.100000e-07	-6.605648e-06	-4.818755e-09	-4.638538e+01	-3.152386e+02
1.200000e-07	-6.577180e-06	-4.800310e-09	-4.618548e+01	-3.147384e+02
1.300000e-07	-6.546676e-06	-4.799922e-09	-4.597127e+01	-3.141729e+02
1.400000e-07	-6.514307e-06	-4.760709e-09	-4.574398e+01	-3.135457e+02
1.500000e-07	-6.480002e-06	-4.804549e-09	-4.550309e+01	-3.128625e+02
1.600000e-07	-6.443662e-06	-4.827170e-09	-4.524791e+01	-3.121312e+02
1.700000e-07	-6.405330e-06	-4.696833e-09	-4.497873e+01	-3.113607e+02
1.800000e-07	-6.364852e-06	-4.746158e-09	-4.469450e+01	-3.105605e+02
1.900000e-07	-6.321849e-06	-4.764494e-09	-4.439252e+01	-3.097395e+02
2.000000e-07	-6.276433e-06	-4.718802e-09	-4.407361e+01	-3.089055e+02
2.100000e-07	-6.228685e-06	-4.716998e-09	-4.373832e+01	-3.080646e+02
2.200000e-07	-6.178247e-06	-4.671382e-09	-4.338414e+01	-3.072211e+02
2.300000e-07	-6.125256e-06	-4.713398e-09	-4.301203e+01	-3.063768e+02
2.400000e-07	-6.069960e-06	-4.688144e-09	-4.262374e+01	-3.055314e+02
2.500000e-07	-6.012404e-06	-4.642497e-09	-4.221958e+01	-3.046824e+02
2.600000e-07	-5.952677e-06	-4.667563e-09	-4.180017e+01	-3.038254e+02
2.700000e-07	-5.890844e-06	-4.621936e-09	-4.136598e+01	-3.029546e+02
2.800000e-07	-5.826965e-06	-4.583769e-09	-4.091741e+01	-3.020629e+02
2.900000e-07	-5.760982e-06	-4.608537e-09	-4.045407e+01	-3.011425e+02
3.000000e-07	-5.692812e-06	-4.621733e-09	-3.997538e+01	-3.001854e+02
3.100000e-07	-5.622503e-06	-4.540876e-09	-3.948166e+01	-2.991837e+02
3.200000e-07	-5.550222e-06	-4.516525e-09	-3.897410e+01	-2.981300e+02
3.300000e-07	-5.475905e-06	-4.575598e-09	-3.845224e+01	-2.970180e+02
3.400000e-07	-5.399266e-06	-4.510003e-09	-3.791408e+01	-2.958427e+02
3.500000e-07	-5.320414e-06	-4.458366e-09	-3.736037e+01	-2.946004e+02
3.600000e-07	-5.239594e-06	-4.474943e-09	-3.679284e+01	-2.932895e+02
3.700000e-07	-5.156906e-06	-4.457205e-09	-3.621220e+01	-2.919094e+02
3.800000e-07	-5.072521e-06	-4.404949e-09	-3.561964e+01	-2.904613e+02
3.900000e-07	-4.986551e-06	-4.387177e-09	-3.501596e+01	-2.889472e+02
4.000000e-07	-4.898887e-06	-4.393106e-09	-3.440037e+01	-2.873696e+02
4.100000e-07	-4.809459e-06	-4.340804e-09	-3.377240e+01	-2.857309e+02
4.200000e-07	-4.718200e-06	-4.307853e-09	-3.313157e+01	-2.840328e+02
4.300000e-07	-4.625235e-06	-4.307204e-09	-3.247877e+01	-2.822757e+02
4.400000e-07	-4.530702e-06	-4.280516e-09	-3.181495e+01	-2.804585e+02
4.500000e-07	-4.434520e-06	-4.228382e-09	-3.113955e+01	-2.785780e+02
4.600000e-07	-4.336693e-06	-4.200659e-09	-3.045260e+01	-2.766292e+02
4.700000e-07	-4.237182e-06	-4.189535e-09	-2.975383e+01	-2.746055e+02
4.800000e-07	-4.136190e-06	-4.140081e-09	-2.904465e+01	-2.724992e+02
4.900000e-07	-4.033824e-06	-4.095886e-09	-2.832583e+01	-2.703023e+02
5.000000e-07	-3.929890e-06	-4.072948e-09	-2.759600e+01	-2.680068e+02
5.100000e-07	-3.824512e-06	-4.039034e-09	-2.685603e+01	-2.656060e+02
5.200000e-07	-3.717787e-06	-3.986678e-09	-2.610660e+01	-2.630945e+02
5.300000e-07	-3.609673e-06	-3.948639e-09	-2.534741e+01	-2.604689e+02
5.400000e-07	-3.500301e-06	-3.919297e-09	-2.457939e+01	-2.577274e+02
5.500000e-07	-3.389782e-06	-3.872270e-09	-2.380332e+01	-2.548698e+02
5.600000e-07	-3.278053e-06	-3.823029e-09	-2.301875e+01	-2.518962e+02
5.700000e-07	-3.164996e-06	-3.779664e-09	-2.222486e+01	-2.488069e+02
5.800000e-07	-3.050616e-06	-3.734006e-09	-2.142167e+01	-2.456008e+02
5.900000e-07	-2.935002e-06	-3.678035e-09	-2.060982e+01	-2.422744e+02
6.000000e-07	-2.818277e-06	-3.626640e-09	-1.979017e+01	-2.388217e+02
6.100000e-07	-2.700566e-06	-3.576705e-09	-1.896358e+01	-2.352330e+02
6.200000e-07	-2.581910e-06	-3.518216e-09	-1.813038e+01	-2.314954e+02
6.300000e-07	-2.462235e-06	-3.452242e-09	-1.729001e+01	-2.275931e+02
6.400000e-07	-2.341584e-06	-3.386961e-09	-1.644279e+01	-2.235077e+02
6.500000e-07	-2.220150e-06	-3.323393e-09	-1.559007e+01	-2.192201e+02
6.600000e-07	-2.098000e-06	-3.248870e-09	-1.473232e+01	-2.147103e+02
6.700000e-07	-1.975068e-06	-3.171814e-09	-1.386908e+01	-2.099591e+02
6.800000e-07	-1.851300e-06	-3.099423e-09	-1.299997e+01	-2.049480e+02
6.900000e-07	-1.726824e-06	-3.021325e-09	-1.212590e+01	-1.996591e+02
7.000000e-07	-1.601806e-06	-2.929841e-09	-1.124801e+01	-1.940740e+02
7.100000e-07	-1.476335e-06	-2.838742e-09	-1.036694e+01	-1.881730e+02
7.200000e-07	-1.350376e-06	-2.749051e-09	-9.482448e+00	-1.819322e+02
7.300000e-07	-1.223910e-06	-2.647044e-09	-8.594392e+00	-1.753222e+02
7.400000e-07	-1.097004e-06	-2.535318e-09	-7.703252e+00	-1.683055e+02
7.500000e-07	-9.696915e-07	-2.420782e-09	-6.809251e+00	-1.608354e+02
7.600000e-07	-8.420088e-07	-2.298079e-09	-5.912652e+00	-1.528551e+02
7.700000e-07	-7.139359e-07	-2.162287e-09	-5.013315e+00	-1.442990e+02
7.800000e-07	-5.855739e-07	-2.020396e-09	-4.111947e+00	-1.350944e+02
7.900000e-07	-4.569885e-07	-1.869057e-09	-3.209010e+00	-1.251660e+02
8.000000e-07	-3.281923e-07	-1.702724e-09	-2.304593e+00	-1.144409e+02
8.100000e-07	-1.993031e-07	-1.525212e-09	-1.399522e+00	-1.028550e+02
8.200000e-07	-7.036160e-08	-1.337568e-09	-4.940847e-01	-9.036097e+01
8.300000e-07	5.861736e-08	-1.132407e-09	4.116158e-01	-7.693445e+01
8.400000e-07	1.875805e-07	-9.078794e-10	1.317205e+00	-6.258120e+01
8.500000e-07	3.164457e-07	-6.718954e-10	2.222107e+00	-4.734183e+01
8.600000e-07	4.451813e-07	-4.300231e-10	3.126099e+00	-3.129472e+01
8.700000e-07	5.737837e-07	-1.796005e-10	4.029155e+00	-1.455633e+01
8.800000e-07	7.022304e-07	8.283238e-11	4.931117e+00	2.721324e+00
8.900000e-07	8.304353e-07	3.514866e-10	5.831383e+00	2.035608e+01
9.000000e-07	9.582656e-07	6.209658e-10	6.729017e+00	3.814351e+01
9.100000e-07	1.085600e-06	8.900728e-10	7.623169e+00	5.586679e+01
9.200000e-07	1.212399e-06	1.156898e-09	8.513563e+00	7.330782e+01
9.300000e-07	1.338734e-06	1.416896e-09	9.400695e+00	9.025854e+01
9.400000e-07	1.464676e-06	1.665195e-09	1.028507e+01	1.065317e+02
9.500000e-07	1.590265e-06	1.899850e-09	1.116697e+01	1.219701e+02
9.600000e-07	1.715439e-06	2.116158e-09	1.204595e+01	1.364532e+02
9.700000e-07	1.840006e-06	2.314442e-09	1.292067e+01	1.499015e+02
9.800000e-07	1.963887e-06	2.499067e-09	1.379057e+01	1.622775e+02
9.900000e-07	2.087071e-06	2.669283e-09	1.465558e+01	1.735834e+02
1.000000e-06	2.209482e-06	2.824000e-09	1.551516e+01	1.838568e+02
1.010000e-06	2.331169e-06	2.966108e-09	1.636966e+01	1.931636e+02
1.020000e-06	2.452075e-06	3.095879e-09	1.721867e+01	2.015903e+02
1.030000e-06	2.571974e-06	3.213033e-09	1.806061e+01	2.092350e+02
1.040000e-06	2.690817e-06	3.319428e-09	1.889513e+01	2.161991e+02
1.050000e-06	2.808745e-06	3.417849e-09	1.972323e+01	2.225804e+02
1.060000e-06	2.925710e-06	3.509513e-09	2.054456e+01	2.284671e+02
1.070000e-06	3.041540e-06	3.592572e-09	2.135793e+01	2.339337e+02
1.080000e-06	3.156205e-06	3.667806e-09	2.216312e+01	2.390401e+02
1.090000e-06	3.269630e-06	3.738171e-09	2.295960e+01	2.438308e+02
1.100000e-06	3.381682e-06	3.804097e-09	2.374644e+01	2.483371e+02
1.110000e-06	3.492410e-06	3.865841e-09	2.452398e+01	2.525796e+02
1.120000e-06	3.602042e-06	3.925001e-09	2.529383e+01	2.565718e+02
1.130000e-06	3.710593e-06	3.979875e-09	2.605608e+01	2.603230e+02
1.140000e-06	3.817847e-06	4.031360e-09	2.680922e+01	2.638418e+02
1.150000e-06	3.923768e-06	4.080273e-09	2.755301e+01	2.671380e+02
1.160000e-06	4.028238e-06	4.126706e-09	2.828661e+01	2.702240e+02
1.170000e-06	4.131100e-06	4.168554e-09	2.900891e+01	2.731151e+02
1.180000e-06	4.232525e-06	4.205760e-09	2.972112e+01	2.758290e+02
1.190000e-06	4.332532e-06	4.241063e-09	3.042338e+01	2.783844e+02
1.200000e-06	4.431038e-06	4.275153e-09	3.111510e+01	2.808003e+02
1.210000e-06	4.527877e-06	4.307094e-09	3.179511e+01	2.830936e+02
1.220000e-06	4.622936e-06	4.337176e-09	3.246263e+01	2.852786e+02
1.230000e-06	4.716401e-06	4.366501e-09	3.311894e+01	2.873657e+02
1.240000e-06	4.808295e-06	4.395397e-09	3.376423e+01	2.893617e+02
1.250000e-06	4.898579e-06	4.422338e-09	3.439821e+01	2.912697e+02
1.260000e-06	4.987086e-06	4.447243e-09	3.501971e+01	2.930905e+02
1.270000e-06	5.073743e-06	4.471140e-09	3.562823e+01	2.948229e+02
1.280000e-06	5.158686e-06	4.493317e-09	3.622470e+01	2.964659e+02
1.290000e-06	5.241915e-06	4.514793e-09	3.680914e+01	2.980190e+02
1.300000e-06	5.323315e-06	4.534987e-09	3.738074e+01	2.994835e+02
1.310000e-06	5.402732e-06	4.554430e-09	3.793842e+01	3.008629e+02
1.320000e-06	5.480172e-06	4.572675e-09	3.848220e+01	3.021627e+02
1.330000e-06	5.555604e-06	4.591120e-09	3.901189e+01	3.033899e+02
1.340000e-06	5.628885e-06	4.610244e-09	3.952648e+01	3.045525e+02
1.350000e-06	5.700028e-06	4.625530e-09	4.002605e+01	3.056582e+02
1.360000e-06	5.769211e-06	4.639847e-09	4.051186e+01	3.067137e+02
1.370000e-06	5.836435e-06	4.656025e-09	4.098391e+01	3.077241e+02
1.380000e-06	5.901493e-06	4.673069e-09	4.144075e+01	3.086920e+02
1.390000e-06	5.964447e-06	4.686914e-09	4.188282e+01	3.096177e+02
1.400000e-06	6.025418e-06	4.697479e-09	4.231096e+01	3.104996e+02
1.410000e-06	6.084348e-06	4.708009e-09	4.272477e+01	3.113348e+02
1.420000e-06	6.141106e-06	4.717659e-09	4.312333e+01	3.121197e+02
1.430000e-06	6.195620e-06	4.728235e-09	4.350614e+01	3.128514e+02
1.440000e-06	6.247793e-06	4.739317e-09	4.387250e+01	3.135283e+02
1.450000e-06	6.297323e-06	4.750658e-09	4.422030e+01	3.141504e+02
1.460000e-06	6.344336e-06	4.761772e-09	4.455043e+01	3.147204e+02
1.470000e-06	6.389206e-06	4.772837e-09	4.486551e+01	3.152428e+02
1.480000e-06	6.431912e-06	4.782953e-09	4.516540e+01	3.157237e+02
1.490000e-06	6.472210e-06	4.789930e-09	4.544837e+01	3.161702e+02
1.500000e-06	6.510181e-06	4.795134e-09	4.571500e+01	3.165891e+02
1.510000e-06	6.546012e-06	4.801304e-09	4.596662e+01	3.169866e+02
1.520000e-06	6.579543e-06	4.808888e-09	4.620207e+01	3.173665e+02
1.530000e-06	6.610686e-06	4.814359e-09	4.642076e+01	3.177307e+02
1.540000e-06	6.639606e-06	4.818486e-09	4.662384e+01	3.180781e+02
1.550000e-06	6.666289e-06	4.825208e-09	4.681121e+01	3.184054e+02
1.560000e-06	6.690504e-06	4.833926e-09	4.698125e+01	3.187074e+02
1.570000e-06	6.712316e-06	4.840658e-09	4.713441e+01	3.189779e+02
1.580000e-06	6.731937e-06	4.844713e-09	4.727219e+01	3.192105e+02
1.590000e-06	6.749203e-06	4.847865e-09	4.739344e+01	3.194000e+02
1.600000e-06	6.763981e-06	4.849107e-09	4.749721e+01	3.195426e+02
1.610000e-06	6.776274e-06	4.849759e-09	4.758354e+01	3.196373e+02
1.620000e-06	6.785909e-06	4.852143e-09	4.765119e+01	3.196853e+02
1.630000e-06	6.792940e-06	4.855101e-09	4.770057e+01	3.196906e+02
1.640000e-06	6.797681e-06	4.856645e-09	4.773386e+01	3.196588e+02
1.650000e-06	6.800087e-06	4.859638e-09	4.775075e+01	3.195965e+02
1.660000e-06	6.800035e-06	4.863523e-09	4.775039e+01	3.195106e+02
1.670000e-06	6.797722e-06	4.860514e-09	4.773414e+01	3.194069e+02
1.680000e-06	6.793315e-06	4.858702e-09	4.770320e+01	3.192893e+02
1.690000e-06	6.786636e-06	4.857555e-09	4.765630e+01	3.191592e+02
1.700000e-06	6.777673e-06	4.857272e-09	4.759336e+01	3.190152e+02
1.710000e-06	6.766574e-06	4.856082e-09	4.751542e+01	3.188531e+02
1.720000e-06	6.753137e-06	4.860169e-09	4.742106e+01	3.186664e+02
1.730000e-06	6.737319e-06	4.878913e-09	4.730999e+01	3.184468e+02
1.740000e-06	6.719340e-06	4.839704e-09	4.718374e+01	3.181853e+02
1.750000e-06	6.698837e-06	4.795456e-09	4.703977e+01	3.178733e+02
1.760000e-06	6.675154e-06	4.825444e-09	4.687346e+01	3.175036e+02
1.770000e-06	6.648544e-06	4.835014e-09	4.668661e+01	3.170707e+02
1.780000e-06	6.619726e-06	4.827867e-09	4.648424e+01	3.165723e+02
1.790000e-06	6.588949e-06	4.884053e-09	4.626812e+01	3.160086e+02
1.800000e-06	6.556508e-06	4.792085e-09	4.604032e+01	3.153829e+02
1.810000e-06	6.522363e-06	4.736938e-09	4.580055e+01	3.147011e+02
1.820000e-06	6.485852e-06	4.862189e-09	4.554417e+01	3.139708e+02
1.830000e-06	6.447019e-06	4.768275e-09	4.527148e+01	3.132011e+02
1.840000e-06	6.406052e-06	4.742286e-09	4.498380e+01	3.124012e+02
1.850000e-06	6.362845e-06	4.731443e-09	4.468041e+01	3.115803e+02
1.860000e-06	6.317495e-06	4.664037e-09	4.436195e+01	3.107461e+02
1.870000e-06	6.269858e-06	4.767624e-09	4.402744e+01	3.099049e+02
1.880000e-06	6.219879e-06	4.690128e-09	4.367649e+01	3.090608e+02
1.890000e-06	6.167520e-06	4.674354e-09	4.330881e+01	3.082160e+02
1.900000e-06	6.112591e-06	4.682480e-09	4.292310e+01	3.073701e+02
1.910000e-06	6.055331e-06	4.615502e-09	4.252102e+01	3.065208e+02
1.920000e-06	5.995924e-06	4.716186e-09	4.210385e+01	3.056636e+02
1.930000e-06	5.934377e-06	4.658192e-09	4.167166e+01	3.047929e+02
1.940000e-06	5.870609e-06	4.589210e-09	4.122388e+01	3.039015e+02
1.950000e-06	5.804680e-06	4.588295e-09	4.076093e+01	3.029818e+02
1.960000e-06	5.736707e-06	4.619572e-09	4.028361e+01	3.020256e+02
1.970000e-06	5.666434e-06	4.627139e-09	3.979015e+01	3.010251e+02
1.980000e-06	5.593973e-06	4.518166e-09	3.928132e+01	2.999728e+02
1.990000e-06	5.519488e-06	4.565027e-09	3.875828e+01	2.988625e+02
2.000000e-06	5.442894e-06	4.546659e-09	3.822043e+01	2.976889e+02
2.010000e-06	5.364210e-06	4.516732e-09	3.766790e+01	2.964486e+02
2.020000e-06	5.283504e-06	4.523950e-09	3.710118e+01	2.951396e+02
2.030000e-06	5.200988e-06	4.477729e-09	3.652175e+01	2.937615e+02
2.040000e-06	5.116643e-06	4.465436e-09	3.592947e+01	2.923152e+02
2.050000e-06	5.030471e-06	4.431332e-09	3.532437e+01	2.908029e+02
2.060000e-06	4.942467e-06	4.449343e-09	3.470640e+01	2.892270e+02
2.070000e-06	4.852721e-06	4.395586e-09	3.407619e+01	2.875898e+02
2.080000e-06	4.761328e-06	4.344290e-09	3.343442e+01	2.858933e+02
2.090000e-06	4.668222e-06	4.339810e-09	3.278062e+01	2.841378e+02
2.100000e-06	4.573472e-06	4.328921e-09	3.211529e+01	2.823223e+02
2.110000e-06	4.477012e-06	4.296496e-09	3.143794e+01	2.804435e+02
2.120000e-06	4.379068e-06	4.238745e-09	3.075016e+01	2.784968e+02
2.130000e-06	4.279705e-06	4.231728e-09	3.005242e+01	2.764753e+02
2.140000e-06	4.178732e-06	4.202599e-09	2.934339e+01	2.743716e+02
2.150000e-06	4.076184e-06	4.165484e-09	2.862329e+01	2.721775e+02
2.160000e-06	3.972125e-06	4.126589e-09	2.789258e+01	2.698852e+02
2.170000e-06	3.866651e-06	4.098734e-09	2.715193e+01	2.674877e+02
2.180000e-06	3.759894e-06	4.059416e-09	2.640227e+01	2.649797e+02
2.190000e-06	3.651896e-06	4.012157e-09	2.564390e+01	2.623577e+02
2.200000e-06	3.542633e-06	3.977652e-09	2.487665e+01	2.596198e+02
2.210000e-06	3.432169e-06	3.934321e-09	2.410096e+01	2.567657e+02
2.220000e-06	3.320387e-06	3.887482e-09	2.331602e+01	2.537958e+02
2.230000e-06	3.207304e-06	3.837371e-09	2.252194e+01	2.507101e+02
2.240000e-06	3.093067e-06	3.794221e-09	2.171976e+01	2.475076e+02
2.250000e-06	2.977607e-06	3.740517e-09	2.090899e+01	2.441852e+02
2.260000e-06	2.860904e-06	3.686952e-09	2.008949e+01	2.407366e+02
2.270000e-06	2.743101e-06	3.637619e-09	1.926227e+01	2.371524e+02
2.280000e-06	2.624309e-06	3.584381e-09	1.842811e+01	2.334199e+02
2.290000e-06	2.504413e-06	3.517391e-09	1.758618e+01	2.295231e+02
2.300000e-06	2.383473e-06	3.453296e-09	1.673693e+01	2.254441e+02
2.310000e-06	2.261758e-06	3.399470e-09	1.588225e+01	2.211635e+02
2.320000e-06	2.139450e-06	3.331770e-09	1.502338e+01	2.166614e+02
2.330000e-06	2.016537e-06	3.249243e-09	1.416029e+01	2.119187e+02
2.340000e-06	1.892857e-06	3.171594e-09	1.329179e+01	2.069166e+02
2.350000e-06	1.768293e-06	3.101315e-09	1.241709e+01	2.016374e+02
2.360000e-06	1.643069e-06	3.022013e-09	1.153776e+01	1.960627e+02
2.370000e-06	1.517357e-06	2.932911e-09	1.065500e+01	1.901728e+02
2.380000e-06	1.391149e-06	2.837960e-09	9.768761e+00	1.839441e+02
2.390000e-06	1.264475e-06	2.736691e-09	8.879245e+00	1.773473e+02
2.400000e-06	1.137381e-06	2.630180e-09	7.986782e+00	1.703454e+02
2.410000e-06	1.009914e-06	2.518266e-09	7.091698e+00	1.628918e+02
2.420000e-06	8.820670e-07	2.394733e-09	6.193945e+00	1.549303e+02
2.430000e-06	7.538809e-07	2.258900e-09	5.293811e+00	1.463955e+02
2.440000e-06	6.254340e-07	2.119201e-09	4.391847e+00	1.372148e+02
2.450000e-06	4.967949e-07	1.974962e-09	3.488533e+00	1.273130e+02
2.460000e-06	3.679484e-07	1.814396e-09	2.583763e+00	1.166170e+02
2.470000e-06	2.389201e-07	1.636895e-09	1.677716e+00	1.050623e+02
2.480000e-06	1.097970e-07	1.449813e-09	7.710033e-01	9.260068e+01
2.490000e-06	-1.931694e-08	1.251666e-09	-1.356451e-01	7.920703e+01
2.500000e-06	-1.484050e-07	1.034722e-09	-1.042112e+00	6.488586e+01
2.510000e-06	-2.774508e-07	8.005787e-10	-1.948282e+00	4.967648e+01
2.520000e-06	-4.063434e-07	5.553444e-10	-2.853375e+00	3.365590e+01
2.530000e-06	-5.350636e-07	3.007372e-10	-3.757259e+00	1.693925e+01
2.540000e-06	-6.636072e-07	3.715508e-11	-4.659902e+00	-3.226621e-01
2.550000e-06	-7.919175e-07	-2.333471e-10	-5.560908e+00	-1.794862e+01
2.560000e-06	-9.199327e-07	-5.062947e-10	-6.459840e+00	-3.573482e+01
2.570000e-06	-1.047557e-06	-7.795675e-10	-7.356026e+00	-5.346471e+01
2.580000e-06	-1.174748e-06	-1.048888e-09	-8.249171e+00	-7.092002e+01
2.590000e-06	-1.301546e-06	-1.309603e-09	-9.139557e+00	-8.789217e+01
2.600000e-06	-1.427937e-06	-1.560661e-09	-1.002709e+01	-1.041930e+02
2.610000e-06	-1.553921e-06	-1.800717e-09	-1.091176e+01	-1.196640e+02
2.620000e-06	-1.679373e-06	-2.024759e-09	-1.179269e+01	-1.341834e+02
2.630000e-06	-1.804023e-06	-2.229846e-09	-1.266800e+01	-1.476701e+02
2.640000e-06	-1.927806e-06	-2.419932e-09	-1.353721e+01	-1.600851e+02
2.650000e-06	-2.050856e-06	-2.594857e-09	-1.440128e+01	-1.714293e+02
2.660000e-06	-2.173281e-06	-2.751733e-09	-1.526095e+01	-1.817391e+02
2.670000e-06	-2.295011e-06	-2.891666e-09	-1.611575e+01	-1.910796e+02
2.680000e-06	-2.415840e-06	-3.021093e-09	-1.696422e+01	-1.995366e+02
2.690000e-06	-2.535720e-06	-3.140825e-09	-1.780602e+01	-2.072080e+02
2.700000e-06	-2.654693e-06	-3.249233e-09	-1.864146e+01	-2.141953e+02
2.710000e-06	-2.772717e-06	-3.347256e-09	-1.947024e+01	-2.205963e+02
2.720000e-06	-2.889586e-06	-3.438455e-09	-2.029090e+01	-2.264998e+02
2.730000e-06	-3.005165e-06	-3.525819e-09	-2.110250e+01	-2.319809e+02
2.740000e-06	-3.119612e-06	-3.605829e-09	-2.190617e+01	-2.370998e+02
2.750000e-06	-3.232876e-06	-3.678665e-09	-2.270151e+01	-2.419017e+02
2.760000e-06	-3.344708e-06	-3.747582e-09	-2.348681e+01	-2.464183e+02
2.770000e-06	-3.455125e-06	-3.813169e-09	-2.426216e+01	-2.506705e+02
2.780000e-06	-3.564343e-06	-3.873567e-09	-2.502910e+01	-2.546719e+02
2.790000e-06	-3.672439e-06	-3.930274e-09	-2.578816e+01	-2.584321e+02
2.800000e-06	-3.779412e-06	-3.985278e-09	-2.653933e+01	-2.619596e+02
2.810000e-06	-3.885133e-06	-4.039059e-09	-2.728171e+01	-2.652641e+02
2.820000e-06	-3.989395e-06	-4.090427e-09	-2.801385e+01	-2.683580e+02
2.830000e-06	-4.092200e-06	-4.138348e-09	-2.873575e+01	-2.712563e+02
2.840000e-06	-4.193452e-06	-4.183675e-09	-2.944675e+01	-2.739766e+02
2.850000e-06	-4.293184e-06	-4.226723e-09	-3.014708e+01	-2.765380e+02
2.860000e-06	-4.391536e-06	-4.267301e-09	-3.083771e+01	-2.789590e+02
2.870000e-06	-4.488339e-06	-4.303723e-09	-3.151747e+01	-2.812570e+02
2.880000e-06	-4.583577e-06	-4.338048e-09	-3.218624e+01	-2.834461e+02
2.890000e-06	-4.677191e-06	-4.371342e-09	-3.284361e+01	-2.855372e+02
2.900000e-06	-4.769128e-06	-4.403198e-09	-3.348919e+01	-2.875369e+02
2.910000e-06	-4.859509e-06	-4.434658e-09	-3.412386e+01	-2.894486e+02
2.920000e-06	-4.948175e-06	-4.464774e-09	-3.474648e+01	-2.912730e+02
2.930000e-06	-5.035002e-06	-4.492455e-09	-3.535619e+01	-2.930091e+02
2.940000e-06	-5.119911e-06	-4.520274e-09	-3.595242e+01	-2.946558e+02
