# Temperatura_=_20.0
# Concentracion g/m^3_=_12600.0
# C_Vs_to_Am_M_A/Vsm_=_65563218390.804596
# pendiente_HvsI_1/m_=_3716.3
# ordenada_HvsI_A/m_=_1297.0
# frecuencia_Hz_=_213154.57795148063
# Promedio de 30 ciclos

Tiempo_(s)	Campo_(V.s)	Magnetizacion_(V.s)	Campo_(kA/m)	Magnetizacion_(A/m)
0.000000e+00	-6.745893e-09	-3.933135e-09	-4.757826e+01	-2.559747e+02
1.000000e-08	-6.745305e-09	-3.932739e-09	-4.757411e+01	-2.559385e+02
2.000000e-08	-6.743333e-09	-3.933030e-09	-4.756021e+01	-2.558754e+02
3.000000e-08	-6.740019e-09	-3.932385e-09	-4.753683e+01	-2.557876e+02
4.000000e-08	-6.735743e-09	-3.932241e-09	-4.750667e+01	-2.556777e+02
5.000000e-08	-6.730458e-09	-3.931784e-09	-4.746940e+01	-2.555487e+02
6.000000e-08	-6.724014e-09	-3.928453e-09	-4.742395e+01	-2.554041e+02
7.000000e-08	-6.716549e-09	-3.923380e-09	-4.737130e+01	-2.552470e+02
8.000000e-08	-6.708105e-09	-3.918138e-09	-4.731174e+01	-2.550808e+02
9.000000e-08	-6.698195e-09	-3.913268e-09	-4.724184e+01	-2.549084e+02
1.000000e-07	-6.686502e-09	-3.935377e-09	-4.715938e+01	-2.547324e+02
1.100000e-07	-6.673231e-09	-3.946575e-09	-4.706578e+01	-2.545548e+02
1.200000e-07	-6.658484e-09	-3.929599e-09	-4.696176e+01	-2.543769e+02
1.300000e-07	-6.642323e-09	-3.901669e-09	-4.684778e+01	-2.541992e+02
1.400000e-07	-6.625105e-09	-3.838575e-09	-4.672634e+01	-2.540213e+02
1.500000e-07	-6.606944e-09	-3.893284e-09	-4.659825e+01	-2.538419e+02
1.600000e-07	-6.587817e-09	-3.963820e-09	-4.646335e+01	-2.536591e+02
1.700000e-07	-6.567899e-09	-3.863911e-09	-4.632287e+01	-2.534698e+02
1.800000e-07	-6.546873e-09	-3.871531e-09	-4.617457e+01	-2.532706e+02
1.900000e-07	-6.524596e-09	-3.879073e-09	-4.601745e+01	-2.530574e+02
2.000000e-07	-6.501477e-09	-3.804856e-09	-4.585440e+01	-2.528257e+02
2.100000e-07	-6.477390e-09	-3.889757e-09	-4.568451e+01	-2.525710e+02
2.200000e-07	-6.451804e-09	-3.896957e-09	-4.550405e+01	-2.522887e+02
2.300000e-07	-6.424760e-09	-3.769871e-09	-4.531331e+01	-2.519743e+02
2.400000e-07	-6.396677e-09	-3.796927e-09	-4.511525e+01	-2.516242e+02
2.500000e-07	-6.367679e-09	-3.852427e-09	-4.491073e+01	-2.512347e+02
2.600000e-07	-6.337592e-09	-3.811002e-09	-4.469853e+01	-2.508035e+02
2.700000e-07	-6.306351e-09	-3.782546e-09	-4.447818e+01	-2.503284e+02
2.800000e-07	-6.274160e-09	-3.748044e-09	-4.425114e+01	-2.498087e+02
2.900000e-07	-6.240906e-09	-3.757027e-09	-4.401660e+01	-2.492440e+02
3.000000e-07	-6.206297e-09	-3.785846e-09	-4.377251e+01	-2.486351e+02
3.100000e-07	-6.170429e-09	-3.742218e-09	-4.351953e+01	-2.479833e+02
3.200000e-07	-6.133428e-09	-3.713584e-09	-4.325856e+01	-2.472905e+02
3.300000e-07	-6.095349e-09	-3.727656e-09	-4.299000e+01	-2.465594e+02
3.400000e-07	-6.056293e-09	-3.718675e-09	-4.271454e+01	-2.457925e+02
3.500000e-07	-6.016322e-09	-3.707782e-09	-4.243263e+01	-2.449929e+02
3.600000e-07	-5.975224e-09	-3.706578e-09	-4.214276e+01	-2.441634e+02
3.700000e-07	-5.932742e-09	-3.686676e-09	-4.184314e+01	-2.433068e+02
3.800000e-07	-5.889085e-09	-3.649431e-09	-4.153523e+01	-2.424256e+02
3.900000e-07	-5.844479e-09	-3.647930e-09	-4.122062e+01	-2.415218e+02
4.000000e-07	-5.798869e-09	-3.657085e-09	-4.089894e+01	-2.405969e+02
4.100000e-07	-5.752213e-09	-3.627249e-09	-4.056988e+01	-2.396518e+02
4.200000e-07	-5.704585e-09	-3.604835e-09	-4.023396e+01	-2.386870e+02
4.300000e-07	-5.655906e-09	-3.595721e-09	-3.989063e+01	-2.377024e+02
4.400000e-07	-5.605869e-09	-3.586245e-09	-3.953773e+01	-2.366974e+02
4.500000e-07	-5.554408e-09	-3.573347e-09	-3.917477e+01	-2.356709e+02
4.600000e-07	-5.501808e-09	-3.547504e-09	-3.880379e+01	-2.346216e+02
4.700000e-07	-5.448276e-09	-3.533061e-09	-3.842623e+01	-2.335479e+02
4.800000e-07	-5.393832e-09	-3.518531e-09	-3.804224e+01	-2.324482e+02
4.900000e-07	-5.338531e-09	-3.492166e-09	-3.765220e+01	-2.313208e+02
5.000000e-07	-5.282375e-09	-3.471021e-09	-3.725614e+01	-2.301641e+02
5.100000e-07	-5.225139e-09	-3.458643e-09	-3.685245e+01	-2.289767e+02
5.200000e-07	-5.166713e-09	-3.449826e-09	-3.644038e+01	-2.277576e+02
5.300000e-07	-5.107298e-09	-3.427698e-09	-3.602133e+01	-2.265059e+02
5.400000e-07	-5.047059e-09	-3.399935e-09	-3.559647e+01	-2.252211e+02
5.500000e-07	-4.985995e-09	-3.383832e-09	-3.516579e+01	-2.239030e+02
5.600000e-07	-4.924080e-09	-3.374878e-09	-3.472911e+01	-2.225517e+02
5.700000e-07	-4.861363e-09	-3.357378e-09	-3.428677e+01	-2.211675e+02
5.800000e-07	-4.797893e-09	-3.317351e-09	-3.383912e+01	-2.197511e+02
5.900000e-07	-4.733573e-09	-3.282080e-09	-3.338547e+01	-2.183031e+02
6.000000e-07	-4.668215e-09	-3.279646e-09	-3.292451e+01	-2.168243e+02
6.100000e-07	-4.601807e-09	-3.273775e-09	-3.245614e+01	-2.153155e+02
6.200000e-07	-4.534539e-09	-3.233918e-09	-3.198170e+01	-2.137774e+02
6.300000e-07	-4.466580e-09	-3.187929e-09	-3.150239e+01	-2.122107e+02
6.400000e-07	-4.397961e-09	-3.176868e-09	-3.101843e+01	-2.106156e+02
6.500000e-07	-4.328610e-09	-3.181721e-09	-3.052929e+01	-2.089925e+02
6.600000e-07	-4.258485e-09	-3.151131e-09	-3.003471e+01	-2.073413e+02
6.700000e-07	-4.187641e-09	-3.096614e-09	-2.953505e+01	-2.056617e+02
6.800000e-07	-4.116145e-09	-3.065913e-09	-2.903080e+01	-2.039532e+02
6.900000e-07	-4.043951e-09	-3.065580e-09	-2.852161e+01	-2.022150e+02
7.000000e-07	-3.970926e-09	-3.048822e-09	-2.800657e+01	-2.004462e+02
7.100000e-07	-3.896966e-09	-2.995831e-09	-2.748495e+01	-1.986455e+02
7.200000e-07	-3.822121e-09	-2.952929e-09	-2.695707e+01	-1.968118e+02
7.300000e-07	-3.746508e-09	-2.943017e-09	-2.642378e+01	-1.949435e+02
7.400000e-07	-3.670200e-09	-2.933524e-09	-2.588558e+01	-1.930392e+02
7.500000e-07	-3.593235e-09	-2.892184e-09	-2.534275e+01	-1.910973e+02
7.600000e-07	-3.515568e-09	-2.841132e-09	-2.479497e+01	-1.891164e+02
7.700000e-07	-3.437152e-09	-2.818552e-09	-2.424191e+01	-1.870949e+02
7.800000e-07	-3.358046e-09	-2.806140e-09	-2.368398e+01	-1.850314e+02
7.900000e-07	-3.278267e-09	-2.773073e-09	-2.312131e+01	-1.829247e+02
8.000000e-07	-3.197801e-09	-2.724686e-09	-2.255379e+01	-1.807735e+02
8.100000e-07	-3.116729e-09	-2.686279e-09	-2.198199e+01	-1.785768e+02
8.200000e-07	-3.035134e-09	-2.664071e-09	-2.140650e+01	-1.763335e+02
8.300000e-07	-2.953044e-09	-2.634054e-09	-2.082753e+01	-1.740431e+02
8.400000e-07	-2.870488e-09	-2.590633e-09	-2.024527e+01	-1.717049e+02
8.500000e-07	-2.787497e-09	-2.548541e-09	-1.965994e+01	-1.693183e+02
8.600000e-07	-2.704098e-09	-2.515053e-09	-1.907173e+01	-1.668833e+02
8.700000e-07	-2.620308e-09	-2.483972e-09	-1.848077e+01	-1.643995e+02
8.800000e-07	-2.536139e-09	-2.444785e-09	-1.788713e+01	-1.618669e+02
8.900000e-07	-2.451597e-09	-2.401531e-09	-1.729085e+01	-1.592857e+02
9.000000e-07	-2.366650e-09	-2.358836e-09	-1.669172e+01	-1.566560e+02
9.100000e-07	-2.281315e-09	-2.317485e-09	-1.608987e+01	-1.539780e+02
9.200000e-07	-2.195635e-09	-2.280098e-09	-1.548557e+01	-1.512518e+02
9.300000e-07	-2.109587e-09	-2.242400e-09	-1.487868e+01	-1.484776e+02
9.400000e-07	-2.023160e-09	-2.198866e-09	-1.426911e+01	-1.456555e+02
9.500000e-07	-1.936385e-09	-2.149235e-09	-1.365710e+01	-1.427855e+02
9.600000e-07	-1.849326e-09	-2.102703e-09	-1.304307e+01	-1.398676e+02
9.700000e-07	-1.762045e-09	-2.065382e-09	-1.242748e+01	-1.369012e+02
9.800000e-07	-1.674537e-09	-2.025006e-09	-1.181030e+01	-1.338861e+02
9.900000e-07	-1.586731e-09	-1.973273e-09	-1.119100e+01	-1.308215e+02
1.000000e-06	-1.498560e-09	-1.917659e-09	-1.056914e+01	-1.277065e+02
1.010000e-06	-1.410080e-09	-1.871510e-09	-9.945098e+00	-1.245402e+02
1.020000e-06	-1.321384e-09	-1.832984e-09	-9.319534e+00	-1.213214e+02
1.030000e-06	-1.232447e-09	-1.784311e-09	-8.692265e+00	-1.180488e+02
1.040000e-06	-1.143212e-09	-1.724542e-09	-8.062904e+00	-1.147210e+02
1.050000e-06	-1.053717e-09	-1.669534e-09	-7.431702e+00	-1.113367e+02
1.060000e-06	-9.640335e-10	-1.627560e-09	-6.799174e+00	-1.078946e+02
1.070000e-06	-8.742149e-10	-1.583481e-09	-6.165693e+00	-1.043935e+02
1.080000e-06	-7.842232e-10	-1.522676e-09	-5.530990e+00	-1.008322e+02
1.090000e-06	-6.940271e-10	-1.457356e-09	-4.894846e+00	-9.720980e+01
1.100000e-06	-6.036942e-10	-1.401042e-09	-4.257736e+00	-9.352560e+01
1.110000e-06	-5.132838e-10	-1.351972e-09	-3.620080e+00	-8.977906e+01
1.120000e-06	-4.227926e-10	-1.296241e-09	-2.981853e+00	-8.596989e+01
1.130000e-06	-3.322248e-10	-1.230607e-09	-2.343086e+00	-8.209796e+01
1.140000e-06	-2.415915e-10	-1.168006e-09	-1.703857e+00	-7.816328e+01
1.150000e-06	-1.508960e-10	-1.111354e-09	-1.064190e+00	-7.416596e+01
1.160000e-06	-6.016722e-11	-1.054897e-09	-4.242874e-01	-7.010615e+01
1.170000e-06	3.056319e-11	-9.921117e-10	2.156261e-01	-6.598394e+01
1.180000e-06	1.212871e-10	-9.229673e-10	8.554936e-01	-6.179930e+01
1.190000e-06	2.119959e-10	-8.540192e-10	1.495255e+00	-5.755201e+01
1.200000e-06	3.026714e-10	-7.886956e-10	2.134782e+00	-5.324163e+01
1.210000e-06	3.932961e-10	-7.262469e-10	2.773951e+00	-4.886741e+01
1.220000e-06	4.838373e-10	-6.595791e-10	3.412530e+00	-4.442831e+01
1.230000e-06	5.742776e-10	-5.855607e-10	4.050397e+00	-3.992300e+01
1.240000e-06	6.646253e-10	-5.118270e-10	4.687610e+00	-3.534992e+01
1.250000e-06	7.548541e-10	-4.442875e-10	5.323986e+00	-3.070731e+01
1.260000e-06	8.449188e-10	-3.771846e-10	5.959203e+00	-2.599336e+01
1.270000e-06	9.348052e-10	-3.009816e-10	6.593162e+00	-2.120632e+01
1.280000e-06	1.024497e-09	-2.187046e-10	7.225752e+00	-1.634469e+01
1.290000e-06	1.113972e-09	-1.414699e-10	7.856809e+00	-1.140733e+01
1.300000e-06	1.203203e-09	-6.906138e-11	8.486144e+00	-6.393722e+00
1.310000e-06	1.292175e-09	5.199052e-12	9.113653e+00	-1.304103e+00
1.320000e-06	1.380876e-09	8.702100e-11	9.739250e+00	3.860339e+00
1.330000e-06	1.469269e-09	1.718892e-10	1.036268e+01	9.097320e+00
1.340000e-06	1.557345e-09	2.511880e-10	1.098387e+01	1.440333e+01
1.350000e-06	1.645121e-09	3.273460e-10	1.160295e+01	1.977354e+01
1.360000e-06	1.732592e-09	4.092718e-10	1.221988e+01	2.520179e+01
1.370000e-06	1.819781e-09	4.976412e-10	1.283482e+01	3.068054e+01
1.380000e-06	1.906723e-09	5.851004e-10	1.344801e+01	3.620099e+01
1.390000e-06	1.993389e-09	6.686985e-10	1.405926e+01	4.175314e+01
1.400000e-06	2.079733e-09	7.516797e-10	1.466824e+01	4.732598e+01
1.410000e-06	2.165728e-09	8.368255e-10	1.527476e+01	5.290766e+01
1.420000e-06	2.251341e-09	9.233116e-10	1.587858e+01	5.848576e+01
1.430000e-06	2.336565e-09	1.009032e-09	1.647966e+01	6.404750e+01
1.440000e-06	2.421431e-09	1.092524e-09	1.707822e+01	6.958005e+01
1.450000e-06	2.505958e-09	1.173951e-09	1.767438e+01	7.507079e+01
1.460000e-06	2.590127e-09	1.253049e-09	1.826801e+01	8.050756e+01
1.470000e-06	2.673898e-09	1.334358e-09	1.885885e+01	8.587894e+01
1.480000e-06	2.757238e-09	1.417925e-09	1.944664e+01	9.117441e+01
1.490000e-06	2.840138e-09	1.497675e-09	2.003133e+01	9.638459e+01
1.500000e-06	2.922572e-09	1.571467e-09	2.061273e+01	1.015013e+02
1.510000e-06	3.004483e-09	1.645176e-09	2.119044e+01	1.065178e+02
1.520000e-06	3.085837e-09	1.723012e-09	2.176422e+01	1.114284e+02
1.530000e-06	3.166610e-09	1.799205e-09	2.233391e+01	1.162292e+02
1.540000e-06	3.246793e-09	1.866878e-09	2.289943e+01	1.209172e+02
1.550000e-06	3.326367e-09	1.930748e-09	2.346066e+01	1.254908e+02
1.560000e-06	3.405329e-09	1.999467e-09	2.401757e+01	1.299494e+02
1.570000e-06	3.483681e-09	2.070199e-09	2.457018e+01	1.342934e+02
1.580000e-06	3.561373e-09	2.134905e-09	2.511814e+01	1.385238e+02
1.590000e-06	3.638420e-09	2.194487e-09	2.566155e+01	1.426424e+02
1.600000e-06	3.714851e-09	2.254990e-09	2.620061e+01	1.466513e+02
1.610000e-06	3.790595e-09	2.319681e-09	2.673483e+01	1.505530e+02
1.620000e-06	3.865556e-09	2.380231e-09	2.726352e+01	1.543501e+02
1.630000e-06	3.939645e-09	2.432023e-09	2.778606e+01	1.580452e+02
1.640000e-06	4.012833e-09	2.480186e-09	2.830224e+01	1.616409e+02
1.650000e-06	4.085177e-09	2.530340e-09	2.881248e+01	1.651398e+02
1.660000e-06	4.156774e-09	2.583020e-09	2.931745e+01	1.685443e+02
1.670000e-06	4.227691e-09	2.632613e-09	2.981762e+01	1.718565e+02
1.680000e-06	4.297919e-09	2.679126e-09	3.031293e+01	1.750785e+02
1.690000e-06	4.367388e-09	2.725943e-09	3.080289e+01	1.782122e+02
1.700000e-06	4.436113e-09	2.773133e-09	3.128761e+01	1.812596e+02
1.710000e-06	4.504162e-09	2.817970e-09	3.176755e+01	1.842222e+02
1.720000e-06	4.571521e-09	2.859107e-09	3.224263e+01	1.871017e+02
1.730000e-06	4.638030e-09	2.898227e-09	3.271171e+01	1.898998e+02
1.740000e-06	4.703521e-09	2.934780e-09	3.317361e+01	1.926181e+02
1.750000e-06	4.768028e-09	2.969700e-09	3.362857e+01	1.952581e+02
1.760000e-06	4.831700e-09	3.006215e-09	3.407764e+01	1.978216e+02
1.770000e-06	4.894629e-09	3.043414e-09	3.452148e+01	2.003102e+02
1.780000e-06	4.956790e-09	3.078800e-09	3.495989e+01	2.027254e+02
1.790000e-06	5.018145e-09	3.111897e-09	3.539263e+01	2.050689e+02
1.800000e-06	5.078723e-09	3.145589e-09	3.581988e+01	2.073423e+02
1.810000e-06	5.138564e-09	3.178546e-09	3.624194e+01	2.095470e+02
1.820000e-06	5.197558e-09	3.207856e-09	3.665801e+01	2.116846e+02
1.830000e-06	5.255442e-09	3.234145e-09	3.706627e+01	2.137564e+02
1.840000e-06	5.312167e-09	3.261023e-09	3.746634e+01	2.157637e+02
1.850000e-06	5.367917e-09	3.289057e-09	3.785954e+01	2.177078e+02
1.860000e-06	5.422815e-09	3.315960e-09	3.824673e+01	2.195897e+02
1.870000e-06	5.476815e-09	3.341690e-09	3.862759e+01	2.214106e+02
1.880000e-06	5.529839e-09	3.366415e-09	3.900156e+01	2.231715e+02
1.890000e-06	5.581815e-09	3.391412e-09	3.936814e+01	2.248734e+02
1.900000e-06	5.632572e-09	3.417529e-09	3.972613e+01	2.265173e+02
1.910000e-06	5.681972e-09	3.442267e-09	4.007453e+01	2.281042e+02
1.920000e-06	5.730145e-09	3.464515e-09	4.041429e+01	2.296351e+02
1.930000e-06	5.777309e-09	3.484409e-09	4.074694e+01	2.311111e+02
1.940000e-06	5.823524e-09	3.503498e-09	4.107289e+01	2.325333e+02
1.950000e-06	5.868778e-09	3.523184e-09	4.139207e+01	2.339028e+02
1.960000e-06	5.913109e-09	3.542530e-09	4.170472e+01	2.352208e+02
1.970000e-06	5.956566e-09	3.561083e-09	4.201123e+01	2.364885e+02
1.980000e-06	5.998934e-09	3.579404e-09	4.231004e+01	2.377069e+02
1.990000e-06	6.039960e-09	3.598474e-09	4.259939e+01	2.388774e+02
2.000000e-06	6.079823e-09	3.618183e-09	4.288055e+01	2.400010e+02
2.010000e-06	6.118708e-09	3.635698e-09	4.315479e+01	2.410789e+02
2.020000e-06	6.156581e-09	3.649818e-09	4.342191e+01	2.421119e+02
2.030000e-06	6.193444e-09	3.663649e-09	4.368190e+01	2.431011e+02
2.040000e-06	6.229379e-09	3.678949e-09	4.393535e+01	2.440475e+02
2.050000e-06	6.264327e-09	3.693497e-09	4.418183e+01	2.449517e+02
2.060000e-06	6.297971e-09	3.706365e-09	4.441913e+01	2.458148e+02
2.070000e-06	6.330301e-09	3.718076e-09	4.464714e+01	2.466375e+02
2.080000e-06	6.361578e-09	3.729914e-09	4.486774e+01	2.474206e+02
2.090000e-06	6.391841e-09	3.743509e-09	4.508118e+01	2.481650e+02
2.100000e-06	6.421047e-09	3.756582e-09	4.528716e+01	2.488716e+02
2.110000e-06	6.449261e-09	3.767187e-09	4.548616e+01	2.495415e+02
2.120000e-06	6.476453e-09	3.776784e-09	4.567794e+01	2.501758e+02
2.130000e-06	6.502321e-09	3.786255e-09	4.586038e+01	2.507757e+02
2.140000e-06	6.526769e-09	3.794420e-09	4.603281e+01	2.513425e+02
2.150000e-06	6.550051e-09	3.803343e-09	4.619701e+01	2.518774e+02
2.160000e-06	6.572256e-09	3.812878e-09	4.635363e+01	2.523819e+02
2.170000e-06	6.593362e-09	3.821510e-09	4.650249e+01	2.528574e+02
2.180000e-06	6.613483e-09	3.830477e-09	4.664440e+01	2.533049e+02
2.190000e-06	6.632633e-09	3.840192e-09	4.677946e+01	2.537257e+02
2.200000e-06	6.650583e-09	3.848585e-09	4.690606e+01	2.541207e+02
2.210000e-06	6.667277e-09	3.854035e-09	4.702380e+01	2.544907e+02
2.220000e-06	6.682754e-09	3.859042e-09	4.713296e+01	2.548359e+02
2.230000e-06	6.696957e-09	3.865262e-09	4.723313e+01	2.551567e+02
2.240000e-06	6.709925e-09	3.870720e-09	4.732459e+01	2.554528e+02
2.250000e-06	6.721671e-09	3.873851e-09	4.740743e+01	2.557237e+02
2.260000e-06	6.731993e-09	3.876288e-09	4.748023e+01	2.559688e+02
2.270000e-06	6.740808e-09	3.879365e-09	4.754240e+01	2.561873e+02
2.280000e-06	6.748411e-09	3.883366e-09	4.759603e+01	2.563781e+02
2.290000e-06	6.754928e-09	3.887445e-09	4.764199e+01	2.565402e+02
2.300000e-06	6.760289e-09	3.890673e-09	4.767980e+01	2.566726e+02
2.310000e-06	6.764593e-09	3.892061e-09	4.771015e+01	2.567748e+02
2.320000e-06	6.767880e-09	3.892244e-09	4.773333e+01	2.568461e+02
2.330000e-06	6.769831e-09	3.893644e-09	4.774710e+01	2.568866e+02
2.340000e-06	6.770349e-09	3.895492e-09	4.775075e+01	2.568966e+02
2.350000e-06	6.769742e-09	3.896160e-09	4.774647e+01	2.568771e+02
2.360000e-06	6.768096e-09	3.895295e-09	4.773486e+01	2.568294e+02
2.370000e-06	6.765374e-09	3.893614e-09	4.771566e+01	2.567556e+02
2.380000e-06	6.761675e-09	3.893755e-09	4.768957e+01	2.566582e+02
2.390000e-06	6.757050e-09	3.892204e-09	4.765695e+01	2.565399e+02
2.400000e-06	6.751155e-09	3.889170e-09	4.761537e+01	2.564039e+02
2.410000e-06	6.743864e-09	3.886798e-09	4.756395e+01	2.562536e+02
2.420000e-06	6.735533e-09	3.885499e-09	4.750519e+01	2.560922e+02
2.430000e-06	6.726251e-09	3.888941e-09	4.743973e+01	2.559230e+02
2.440000e-06	6.715710e-09	3.852772e-09	4.736537e+01	2.557487e+02
2.450000e-06	6.703336e-09	3.830571e-09	4.727810e+01	2.555717e+02
2.460000e-06	6.688883e-09	3.842798e-09	4.717617e+01	2.553937e+02
2.470000e-06	6.673088e-09	3.879929e-09	4.706476e+01	2.552157e+02
2.480000e-06	6.656848e-09	3.940961e-09	4.695022e+01	2.550379e+02
2.490000e-06	6.639975e-09	3.866619e-09	4.683122e+01	2.548595e+02
2.500000e-06	6.621633e-09	3.811779e-09	4.670185e+01	2.546789e+02
2.510000e-06	6.602057e-09	3.895290e-09	4.656378e+01	2.544937e+02
2.520000e-06	6.581864e-09	3.853047e-09	4.642136e+01	2.543007e+02
2.530000e-06	6.560362e-09	3.860025e-09	4.626971e+01	2.540962e+02
2.540000e-06	6.537175e-09	3.918316e-09	4.610617e+01	2.538758e+02
2.550000e-06	6.512909e-09	3.807220e-09	4.593503e+01	2.536351e+02
2.560000e-06	6.487713e-09	3.823058e-09	4.575731e+01	2.533694e+02
2.570000e-06	6.461545e-09	3.926024e-09	4.557276e+01	2.530743e+02
2.580000e-06	6.434255e-09	3.841414e-09	4.538028e+01	2.527455e+02
2.590000e-06	6.405714e-09	3.806517e-09	4.517898e+01	2.523794e+02
2.600000e-06	6.376225e-09	3.873658e-09	4.497100e+01	2.519729e+02
2.610000e-06	6.345494e-09	3.873416e-09	4.475425e+01	2.515236e+02
2.620000e-06	6.313275e-09	3.876747e-09	4.452702e+01	2.510300e+02
2.630000e-06	6.279988e-09	3.821938e-09	4.429225e+01	2.504916e+02
2.640000e-06	6.245641e-09	3.807886e-09	4.405000e+01	2.499084e+02
2.650000e-06	6.210221e-09	3.868438e-09	4.380018e+01	2.492814e+02
2.660000e-06	6.173885e-09	3.818918e-09	4.354391e+01	2.486122e+02
2.670000e-06	6.136365e-09	3.795489e-09	4.327928e+01	2.479031e+02
2.680000e-06	6.097492e-09	3.791655e-09	4.300511e+01	2.471567e+02
2.690000e-06	6.057428e-09	3.753122e-09	4.272254e+01	2.463758e+02
2.700000e-06	6.016380e-09	3.772006e-09	4.243304e+01	2.455634e+02
2.710000e-06	5.974430e-09	3.758029e-09	4.213716e+01	2.447223e+02
2.720000e-06	5.931444e-09	3.753412e-09	4.183398e+01	2.438551e+02
2.730000e-06	5.887498e-09	3.723470e-09	4.152404e+01	2.429642e+02
2.740000e-06	5.842650e-09	3.680016e-09	4.120773e+01	2.420514e+02
2.750000e-06	5.796807e-09	3.719859e-09	4.088440e+01	2.411180e+02
2.760000e-06	5.749885e-09	3.699573e-09	4.055346e+01	2.401646e+02
2.770000e-06	5.701780e-09	3.653564e-09	4.021418e+01	2.391916e+02
2.780000e-06	5.652610e-09	3.629563e-09	3.986739e+01	2.381986e+02
2.790000e-06	5.602450e-09	3.630603e-09	3.951362e+01	2.371847e+02
2.800000e-06	5.551297e-09	3.655774e-09	3.915284e+01	2.361489e+02
2.810000e-06	5.499105e-09	3.600298e-09	3.878473e+01	2.350896e+02
2.820000e-06	5.445658e-09	3.563265e-09	3.840778e+01	2.340053e+02
2.830000e-06	5.390920e-09	3.574047e-09	3.802171e+01	2.328943e+02
2.840000e-06	5.335110e-09	3.574994e-09	3.762809e+01	2.317548e+02
2.850000e-06	5.278442e-09	3.551565e-09	3.722841e+01	2.305855e+02
2.860000e-06	5.220914e-09	3.497602e-09	3.682267e+01	2.293851e+02
2.870000e-06	5.162448e-09	3.488609e-09	3.641032e+01	2.281524e+02
2.880000e-06	5.103133e-09	3.492651e-09	3.599197e+01	2.268870e+02
2.890000e-06	5.043069e-09	3.469416e-09	3.556834e+01	2.255883e+02
2.900000e-06	4.982141e-09	3.426323e-09	3.513862e+01	2.242562e+02
2.910000e-06	4.920101e-09	3.396385e-09	3.470106e+01	2.228911e+02
2.920000e-06	4.856954e-09	3.404908e-09	3.425569e+01	2.214934e+02
2.930000e-06	4.792913e-09	3.390760e-09	3.380400e+01	2.200637e+02
2.940000e-06	4.728103e-09	3.337721e-09	3.334691e+01	2.186028e+02
