# Temperatura_=_20.0
# Concentracion g/m^3_=_9000.0
# C_Vs_to_Am_M_A/Vsm_=_65563218390.804596
# pendiente_HvsI_1/m_=_3716.3
# ordenada_HvsI_A/m_=_1297.0
# frecuencia_Hz_=_301069.07849169907

Tiempo_(s)	Campo_(V.s)	Magnetizacion_(V.s)	Campo_(kA/m)	Magnetizacion_(A/m)
0.000000e+00	-2.634970e-06	-2.894929e-09	-1.977892e+01	-1.941531e+02
1.000000e-08	-2.634514e-06	-2.900365e-09	-1.977550e+01	-1.942627e+02
2.000000e-08	-2.632928e-06	-2.904010e-09	-1.976360e+01	-1.943312e+02
3.000000e-08	-2.630168e-06	-2.903857e-09	-1.974288e+01	-1.943652e+02
4.000000e-08	-2.626571e-06	-2.901588e-09	-1.971588e+01	-1.943705e+02
5.000000e-08	-2.622266e-06	-2.898525e-09	-1.968356e+01	-1.943507e+02
6.000000e-08	-2.617128e-06	-2.894326e-09	-1.964500e+01	-1.943065e+02
7.000000e-08	-2.611057e-06	-2.888224e-09	-1.959943e+01	-1.942354e+02
8.000000e-08	-2.604064e-06	-2.895572e-09	-1.954694e+01	-1.941315e+02
9.000000e-08	-2.596175e-06	-2.929404e-09	-1.948771e+01	-1.939864e+02
1.000000e-07	-2.587039e-06	-2.934326e-09	-1.941914e+01	-1.937897e+02
1.100000e-07	-2.576627e-06	-2.843280e-09	-1.934098e+01	-1.935311e+02
1.200000e-07	-2.565384e-06	-2.806736e-09	-1.925659e+01	-1.932010e+02
1.300000e-07	-2.553331e-06	-2.868998e-09	-1.916611e+01	-1.927927e+02
1.400000e-07	-2.540353e-06	-2.949232e-09	-1.906870e+01	-1.923028e+02
1.500000e-07	-2.526625e-06	-2.873769e-09	-1.896566e+01	-1.917325e+02
1.600000e-07	-2.511818e-06	-2.841249e-09	-1.885451e+01	-1.910872e+02
1.700000e-07	-2.495476e-06	-2.856549e-09	-1.873183e+01	-1.903766e+02
1.800000e-07	-2.478214e-06	-2.857374e-09	-1.860226e+01	-1.896137e+02
1.900000e-07	-2.460638e-06	-2.935634e-09	-1.847034e+01	-1.888130e+02
2.000000e-07	-2.442204e-06	-2.904881e-09	-1.833196e+01	-1.879896e+02
2.100000e-07	-2.422699e-06	-2.779447e-09	-1.818555e+01	-1.871571e+02
2.200000e-07	-2.402722e-06	-2.798011e-09	-1.803560e+01	-1.863262e+02
2.300000e-07	-2.382129e-06	-2.963063e-09	-1.788102e+01	-1.855038e+02
2.400000e-07	-2.360346e-06	-2.897396e-09	-1.771751e+01	-1.846924e+02
2.500000e-07	-2.337599e-06	-2.796004e-09	-1.754676e+01	-1.838897e+02
2.600000e-07	-2.314280e-06	-2.858805e-09	-1.737172e+01	-1.830895e+02
2.700000e-07	-2.290367e-06	-2.928238e-09	-1.719222e+01	-1.822824e+02
2.800000e-07	-2.265604e-06	-2.851861e-09	-1.700634e+01	-1.814572e+02
2.900000e-07	-2.239641e-06	-2.816581e-09	-1.681146e+01	-1.806024e+02
3.000000e-07	-2.212564e-06	-2.816217e-09	-1.660821e+01	-1.797073e+02
3.100000e-07	-2.184778e-06	-2.792736e-09	-1.639964e+01	-1.787634e+02
3.200000e-07	-2.156394e-06	-2.801258e-09	-1.618658e+01	-1.777651e+02
3.300000e-07	-2.127335e-06	-2.776515e-09	-1.596845e+01	-1.767101e+02
3.400000e-07	-2.097564e-06	-2.751799e-09	-1.574498e+01	-1.755989e+02
3.500000e-07	-2.066920e-06	-2.708630e-09	-1.551496e+01	-1.744346e+02
3.600000e-07	-2.035560e-06	-2.695325e-09	-1.527956e+01	-1.732221e+02
3.700000e-07	-2.003854e-06	-2.718996e-09	-1.504156e+01	-1.719665e+02
3.800000e-07	-1.971487e-06	-2.706662e-09	-1.479861e+01	-1.706725e+02
3.900000e-07	-1.937912e-06	-2.591346e-09	-1.454658e+01	-1.693437e+02
4.000000e-07	-1.903355e-06	-2.611463e-09	-1.428719e+01	-1.679813e+02
4.100000e-07	-1.868217e-06	-2.680020e-09	-1.402343e+01	-1.665848e+02
4.200000e-07	-1.832491e-06	-2.581174e-09	-1.375526e+01	-1.651512e+02
4.300000e-07	-1.796257e-06	-2.507150e-09	-1.348328e+01	-1.636761e+02
4.400000e-07	-1.759504e-06	-2.555866e-09	-1.320740e+01	-1.621544e+02
4.500000e-07	-1.722062e-06	-2.550555e-09	-1.292634e+01	-1.605806e+02
4.600000e-07	-1.683903e-06	-2.455779e-09	-1.263991e+01	-1.589501e+02
4.700000e-07	-1.645132e-06	-2.447817e-09	-1.234889e+01	-1.572596e+02
4.800000e-07	-1.605851e-06	-2.444742e-09	-1.205403e+01	-1.555077e+02
4.900000e-07	-1.566224e-06	-2.405948e-09	-1.175658e+01	-1.536946e+02
5.000000e-07	-1.526325e-06	-2.364801e-09	-1.145708e+01	-1.518222e+02
5.100000e-07	-1.485883e-06	-2.347642e-09	-1.115351e+01	-1.498932e+02
5.200000e-07	-1.444497e-06	-2.315233e-09	-1.084286e+01	-1.479110e+02
5.300000e-07	-1.402071e-06	-2.269036e-09	-1.052439e+01	-1.458783e+02
5.400000e-07	-1.359017e-06	-2.252787e-09	-1.020122e+01	-1.437968e+02
5.500000e-07	-1.315628e-06	-2.225771e-09	-9.875523e+00	-1.416664e+02
5.600000e-07	-1.271890e-06	-2.176278e-09	-9.547210e+00	-1.394852e+02
5.700000e-07	-1.227820e-06	-2.121182e-09	-9.216405e+00	-1.372495e+02
5.800000e-07	-1.183363e-06	-2.115888e-09	-8.882701e+00	-1.349536e+02
5.900000e-07	-1.138440e-06	-2.090198e-09	-8.545495e+00	-1.325912e+02
6.000000e-07	-1.093034e-06	-2.024186e-09	-8.204665e+00	-1.301553e+02
6.100000e-07	-1.047244e-06	-1.976741e-09	-7.860945e+00	-1.276393e+02
6.200000e-07	-1.001112e-06	-1.959515e-09	-7.514665e+00	-1.250377e+02
6.300000e-07	-9.546185e-07	-1.920439e-09	-7.165671e+00	-1.223462e+02
6.400000e-07	-9.077864e-07	-1.855531e-09	-6.814134e+00	-1.195621e+02
6.500000e-07	-8.606558e-07	-1.818116e-09	-6.460357e+00	-1.166842e+02
6.600000e-07	-8.133435e-07	-1.779442e-09	-6.105215e+00	-1.137123e+02
6.700000e-07	-7.658334e-07	-1.729401e-09	-5.748589e+00	-1.106469e+02
6.800000e-07	-7.181095e-07	-1.678197e-09	-5.390358e+00	-1.074882e+02
6.900000e-07	-6.701815e-07	-1.637892e-09	-5.030595e+00	-1.042357e+02
7.000000e-07	-6.219171e-07	-1.583379e-09	-4.668308e+00	-1.008874e+02
7.100000e-07	-5.732232e-07	-1.520535e-09	-4.302796e+00	-9.743982e+01
7.200000e-07	-5.242642e-07	-1.472444e-09	-3.935294e+00	-9.388771e+01
7.300000e-07	-4.750891e-07	-1.418825e-09	-3.566170e+00	-9.022439e+01
7.400000e-07	-4.255210e-07	-1.351435e-09	-3.194096e+00	-8.644226e+01
7.500000e-07	-3.756287e-07	-1.283847e-09	-2.819588e+00	-8.253351e+01
7.600000e-07	-3.255088e-07	-1.232708e-09	-2.443372e+00	-7.849094e+01
7.700000e-07	-2.752121e-07	-1.168024e-09	-2.065830e+00	-7.430878e+01
7.800000e-07	-2.247781e-07	-1.092503e-09	-1.687256e+00	-6.998333e+01
7.900000e-07	-1.742375e-07	-1.026138e-09	-1.307882e+00	-6.551348e+01
8.000000e-07	-1.235837e-07	-9.619377e-10	-9.276585e-01	-6.090085e+01
8.100000e-07	-7.280769e-08	-8.834974e-10	-5.465177e-01	-5.614975e+01
8.200000e-07	-2.196652e-08	-8.015114e-10	-1.648877e-01	-5.126678e+01
8.300000e-07	2.886831e-08	-7.315294e-10	2.166947e-01	-4.626034e+01
8.400000e-07	7.962243e-08	-6.546608e-10	5.976713e-01	-4.113995e+01
8.500000e-07	1.303150e-07	-5.699020e-10	9.781857e-01	-3.591565e+01
8.600000e-07	1.809150e-07	-4.855001e-10	1.358005e+00	-3.059745e+01
8.700000e-07	2.313807e-07	-4.061527e-10	1.736817e+00	-2.519499e+01
8.800000e-07	2.817181e-07	-3.193541e-10	2.114666e+00	-1.971742e+01
8.900000e-07	3.318635e-07	-2.308833e-10	2.491073e+00	-1.417352e+01
9.000000e-07	3.817166e-07	-1.479195e-10	2.865286e+00	-8.571986e+00
9.100000e-07	4.313033e-07	-6.104910e-11	3.237500e+00	-2.921841e+00
9.200000e-07	4.806181e-07	2.990363e-11	3.607673e+00	2.767076e+00
9.300000e-07	5.296381e-07	1.177998e-10	3.975632e+00	8.483740e+00
9.400000e-07	5.783144e-07	2.007299e-10	4.341012e+00	1.421569e+01
9.500000e-07	6.266360e-07	2.937471e-10	4.703729e+00	1.994902e+01
9.600000e-07	6.746994e-07	3.877977e-10	5.064509e+00	2.566857e+01
9.700000e-07	7.225505e-07	4.738869e-10	5.423694e+00	3.135841e+01
9.800000e-07	7.702279e-07	5.567831e-10	5.781576e+00	3.700244e+01
9.900000e-07	8.177728e-07	6.455855e-10	6.138463e+00	4.258511e+01
1.000000e-06	8.651435e-07	7.336714e-10	6.494043e+00	4.809218e+01
1.010000e-06	9.122036e-07	8.148630e-10	6.847291e+00	5.351132e+01
1.020000e-06	9.588998e-07	8.972490e-10	7.197808e+00	5.883251e+01
1.030000e-06	1.005219e-06	9.783813e-10	7.545492e+00	6.404831e+01
1.040000e-06	1.051150e-06	1.058482e-09	7.890270e+00	6.915367e+01
1.050000e-06	1.096703e-06	1.137138e-09	8.232200e+00	7.414569e+01
1.060000e-06	1.141882e-06	1.213840e-09	8.571327e+00	7.902302e+01
1.070000e-06	1.186706e-06	1.284928e-09	8.907793e+00	8.378526e+01
1.080000e-06	1.231094e-06	1.354799e-09	9.240981e+00	8.843228e+01
1.090000e-06	1.275041e-06	1.426234e-09	9.570866e+00	9.296368e+01
1.100000e-06	1.318723e-06	1.495139e-09	9.898752e+00	9.737841e+01
1.110000e-06	1.362197e-06	1.559537e-09	1.022508e+01	1.016746e+02
1.120000e-06	1.405361e-06	1.620223e-09	1.054909e+01	1.058496e+02
1.130000e-06	1.447914e-06	1.683102e-09	1.086850e+01	1.099002e+02
1.140000e-06	1.489576e-06	1.743793e-09	1.118123e+01	1.138235e+02
1.150000e-06	1.530287e-06	1.800730e-09	1.148682e+01	1.176168e+02
1.160000e-06	1.570267e-06	1.853888e-09	1.178693e+01	1.212785e+02
1.170000e-06	1.609869e-06	1.907624e-09	1.208419e+01	1.248084e+02
1.180000e-06	1.649156e-06	1.961869e-09	1.237909e+01	1.282078e+02
1.190000e-06	1.687939e-06	2.012322e-09	1.267021e+01	1.314796e+02
1.200000e-06	1.726099e-06	2.060772e-09	1.295665e+01	1.346281e+02
1.210000e-06	1.763583e-06	2.108288e-09	1.323801e+01	1.376581e+02
1.220000e-06	1.800380e-06	2.154881e-09	1.351422e+01	1.405750e+02
1.230000e-06	1.836599e-06	2.198255e-09	1.378610e+01	1.433838e+02
1.240000e-06	1.872399e-06	2.239549e-09	1.405482e+01	1.460887e+02
1.250000e-06	1.907844e-06	2.278029e-09	1.432088e+01	1.486929e+02
1.260000e-06	1.942614e-06	2.315560e-09	1.458188e+01	1.511981e+02
1.270000e-06	1.976336e-06	2.353735e-09	1.483501e+01	1.536049e+02
1.280000e-06	2.008984e-06	2.391131e-09	1.508008e+01	1.559134e+02
1.290000e-06	2.040861e-06	2.425675e-09	1.531935e+01	1.581230e+02
1.300000e-06	2.072221e-06	2.457453e-09	1.555475e+01	1.602337e+02
1.310000e-06	2.102994e-06	2.487761e-09	1.578574e+01	1.622464e+02
1.320000e-06	2.133038e-06	2.516747e-09	1.601127e+01	1.641632e+02
1.330000e-06	2.162347e-06	2.545721e-09	1.623127e+01	1.659880e+02
1.340000e-06	2.190890e-06	2.573249e-09	1.644552e+01	1.677261e+02
1.350000e-06	2.218781e-06	2.599808e-09	1.665488e+01	1.693844e+02
1.360000e-06	2.246199e-06	2.625700e-09	1.686069e+01	1.709702e+02
1.370000e-06	2.272814e-06	2.651249e-09	1.706046e+01	1.724913e+02
1.380000e-06	2.298219e-06	2.676216e-09	1.725116e+01	1.739544e+02
1.390000e-06	2.322512e-06	2.697689e-09	1.743352e+01	1.753650e+02
1.400000e-06	2.346018e-06	2.718185e-09	1.760996e+01	1.767268e+02
1.410000e-06	2.368752e-06	2.739100e-09	1.778061e+01	1.780412e+02
1.420000e-06	2.390649e-06	2.759985e-09	1.794497e+01	1.793072e+02
1.430000e-06	2.411765e-06	2.779370e-09	1.810348e+01	1.805223e+02
1.440000e-06	2.432095e-06	2.797056e-09	1.825608e+01	1.816826e+02
1.450000e-06	2.451774e-06	2.814939e-09	1.840380e+01	1.827842e+02
1.460000e-06	2.470781e-06	2.832788e-09	1.854647e+01	1.838233e+02
1.470000e-06	2.488811e-06	2.849490e-09	1.868181e+01	1.847978e+02
1.480000e-06	2.505802e-06	2.865120e-09	1.880935e+01	1.857076e+02
1.490000e-06	2.522013e-06	2.879445e-09	1.893103e+01	1.865546e+02
1.500000e-06	2.537275e-06	2.892646e-09	1.904559e+01	1.873435e+02
1.510000e-06	2.551440e-06	2.905892e-09	1.915192e+01	1.880803e+02
1.520000e-06	2.564721e-06	2.918451e-09	1.925161e+01	1.887727e+02
1.530000e-06	2.577130e-06	2.930166e-09	1.934476e+01	1.894284e+02
1.540000e-06	2.588570e-06	2.939183e-09	1.943063e+01	1.900543e+02
1.550000e-06	2.598845e-06	2.947335e-09	1.950776e+01	1.906557e+02
1.560000e-06	2.607826e-06	2.959801e-09	1.957517e+01	1.912356e+02
1.570000e-06	2.615801e-06	2.973070e-09	1.963503e+01	1.917941e+02
1.580000e-06	2.623023e-06	2.981800e-09	1.968925e+01	1.923287e+02
1.590000e-06	2.629346e-06	2.987050e-09	1.973671e+01	1.928346e+02
1.600000e-06	2.634735e-06	2.994555e-09	1.977716e+01	1.933053e+02
1.610000e-06	2.639267e-06	3.004623e-09	1.981118e+01	1.937339e+02
1.620000e-06	2.643065e-06	3.012096e-09	1.983969e+01	1.941139e+02
1.630000e-06	2.646001e-06	3.017080e-09	1.986173e+01	1.944405e+02
1.640000e-06	2.647706e-06	3.022278e-09	1.987453e+01	1.947110e+02
1.650000e-06	2.648236e-06	3.029708e-09	1.987850e+01	1.949257e+02
1.660000e-06	2.647931e-06	3.036991e-09	1.987621e+01	1.950873e+02
1.670000e-06	2.646854e-06	3.039782e-09	1.986813e+01	1.952008e+02
1.680000e-06	2.644978e-06	3.039252e-09	1.985405e+01	1.952727e+02
1.690000e-06	2.642292e-06	3.041093e-09	1.983388e+01	1.953096e+02
1.700000e-06	2.638769e-06	3.043078e-09	1.980744e+01	1.953175e+02
1.710000e-06	2.634599e-06	3.042934e-09	1.977614e+01	1.953002e+02
1.720000e-06	2.629740e-06	3.043535e-09	1.973966e+01	1.952585e+02
1.730000e-06	2.623846e-06	3.049619e-09	1.969542e+01	1.951902e+02
1.740000e-06	2.616716e-06	3.023729e-09	1.964190e+01	1.950896e+02
1.750000e-06	2.608339e-06	2.986902e-09	1.957902e+01	1.949483e+02
1.760000e-06	2.598646e-06	3.012151e-09	1.950627e+01	1.947564e+02
1.770000e-06	2.588002e-06	3.099369e-09	1.942637e+01	1.945032e+02
1.780000e-06	2.577263e-06	3.081156e-09	1.934576e+01	1.941793e+02
1.790000e-06	2.566205e-06	2.979981e-09	1.926276e+01	1.937774e+02
1.800000e-06	2.553426e-06	2.958852e-09	1.916683e+01	1.932941e+02
1.810000e-06	2.538833e-06	2.990561e-09	1.905729e+01	1.927300e+02
1.820000e-06	2.523834e-06	2.991088e-09	1.894470e+01	1.920905e+02
1.830000e-06	2.508339e-06	2.974517e-09	1.882839e+01	1.913849e+02
1.840000e-06	2.491360e-06	2.951211e-09	1.870094e+01	1.906259e+02
1.850000e-06	2.473436e-06	2.849206e-09	1.856640e+01	1.898281e+02
1.860000e-06	2.455226e-06	2.885279e-09	1.842971e+01	1.890066e+02
1.870000e-06	2.436168e-06	2.965856e-09	1.828665e+01	1.881750e+02
1.880000e-06	2.416120e-06	2.794297e-09	1.813617e+01	1.873444e+02
1.890000e-06	2.395582e-06	2.671829e-09	1.798200e+01	1.865220e+02
1.900000e-06	2.374062e-06	2.825439e-09	1.782047e+01	1.857106e+02
1.910000e-06	2.351033e-06	2.838427e-09	1.764760e+01	1.849081e+02
1.920000e-06	2.327002e-06	2.671980e-09	1.746722e+01	1.841087e+02
1.930000e-06	2.302401e-06	2.730112e-09	1.728256e+01	1.833031e+02
1.940000e-06	2.277165e-06	2.804079e-09	1.709313e+01	1.824803e+02
1.950000e-06	2.251002e-06	2.670065e-09	1.689674e+01	1.816287e+02
1.960000e-06	2.223828e-06	2.670195e-09	1.669276e+01	1.807374e+02
1.970000e-06	2.196065e-06	2.735962e-09	1.648436e+01	1.797980e+02
1.980000e-06	2.167811e-06	2.651600e-09	1.627228e+01	1.788044e+02
1.990000e-06	2.138595e-06	2.625764e-09	1.605298e+01	1.777541e+02
2.000000e-06	2.108577e-06	2.646111e-09	1.582765e+01	1.766475e+02
2.010000e-06	2.077967e-06	2.638269e-09	1.559788e+01	1.754877e+02
2.020000e-06	2.046331e-06	2.598673e-09	1.536041e+01	1.742791e+02
2.030000e-06	2.013847e-06	2.539679e-09	1.511657e+01	1.730271e+02
2.040000e-06	1.980946e-06	2.575997e-09	1.486961e+01	1.717364e+02
2.050000e-06	1.947310e-06	2.613679e-09	1.461713e+01	1.704107e+02
2.060000e-06	1.912830e-06	2.482689e-09	1.435831e+01	1.690514e+02
2.070000e-06	1.877842e-06	2.453825e-09	1.409568e+01	1.676581e+02
2.080000e-06	1.842294e-06	2.555186e-09	1.382885e+01	1.662280e+02
2.090000e-06	1.806135e-06	2.480852e-09	1.355743e+01	1.647567e+02
2.100000e-06	1.769438e-06	2.396457e-09	1.328197e+01	1.632392e+02
2.110000e-06	1.732085e-06	2.421760e-09	1.300158e+01	1.616700e+02
2.120000e-06	1.693820e-06	2.419112e-09	1.271435e+01	1.600444e+02
2.130000e-06	1.654538e-06	2.367139e-09	1.241949e+01	1.583590e+02
2.140000e-06	1.614597e-06	2.324111e-09	1.211968e+01	1.566122e+02
2.150000e-06	1.574344e-06	2.319147e-09	1.181753e+01	1.548041e+02
2.160000e-06	1.533634e-06	2.300783e-09	1.151194e+01	1.529365e+02
2.170000e-06	1.492301e-06	2.244044e-09	1.120169e+01	1.510122e+02
2.180000e-06	1.450488e-06	2.223510e-09	1.088783e+01	1.490344e+02
2.190000e-06	1.408247e-06	2.228808e-09	1.057075e+01	1.470059e+02
2.200000e-06	1.365452e-06	2.163585e-09	1.024952e+01	1.449285e+02
2.210000e-06	1.322150e-06	2.116230e-09	9.924477e+00	1.428024e+02
2.220000e-06	1.278478e-06	2.122100e-09	9.596665e+00	1.406256e+02
2.230000e-06	1.234486e-06	2.094606e-09	9.266443e+00	1.383946e+02
2.240000e-06	1.190254e-06	2.025817e-09	8.934428e+00	1.361040e+02
2.250000e-06	1.145812e-06	1.990893e-09	8.600833e+00	1.337472e+02
2.260000e-06	1.100944e-06	1.989751e-09	8.264037e+00	1.313175e+02
2.270000e-06	1.055486e-06	1.932785e-09	7.922813e+00	1.288082e+02
2.280000e-06	1.009493e-06	1.876320e-09	7.577573e+00	1.262135e+02
2.290000e-06	9.631431e-07	1.860589e-09	7.229659e+00	1.235292e+02
2.300000e-06	9.165312e-07	1.823403e-09	6.879775e+00	1.207525e+02
2.310000e-06	8.696457e-07	1.757643e-09	6.527838e+00	1.178820e+02
2.320000e-06	8.225297e-07	1.718763e-09	6.174170e+00	1.149175e+02
2.330000e-06	7.752243e-07	1.690995e-09	5.819081e+00	1.118595e+02
2.340000e-06	7.277087e-07	1.633289e-09	5.462413e+00	1.087082e+02
2.350000e-06	6.799518e-07	1.571241e-09	5.103934e+00	1.054631e+02
2.360000e-06	6.319301e-07	1.533093e-09	4.743469e+00	1.021224e+02
2.370000e-06	5.835853e-07	1.492334e-09	4.380577e+00	9.868280e+01
2.380000e-06	5.349418e-07	1.424604e-09	4.015444e+00	9.513907e+01
2.390000e-06	4.860983e-07	1.370931e-09	3.648809e+00	9.148463e+01
2.400000e-06	4.369724e-07	1.324839e-09	3.280054e+00	8.771195e+01
2.410000e-06	3.874975e-07	1.260338e-09	2.908680e+00	8.381319e+01
2.420000e-06	3.378869e-07	1.192594e-09	2.536287e+00	7.978109e+01
2.430000e-06	2.882441e-07	1.137964e-09	2.163652e+00	7.560975e+01
2.440000e-06	2.384363e-07	1.077630e-09	1.789779e+00	7.129530e+01
2.450000e-06	1.884891e-07	9.965044e-10	1.414859e+00	6.683644e+01
2.460000e-06	1.385115e-07	9.273313e-10	1.039712e+00	6.223460e+01
2.470000e-06	8.848214e-08	8.709803e-10	6.641751e-01	5.749389e+01
2.480000e-06	3.838810e-08	7.976858e-10	2.881533e-01	5.262078e+01
2.490000e-06	-1.170105e-08	7.111468e-10	-8.783182e-02	4.762355e+01
2.500000e-06	-6.171187e-08	6.374287e-10	-4.632290e-01	4.251167e+01
2.510000e-06	-1.116590e-07	5.671487e-10	-8.381484e-01	3.729515e+01
2.520000e-06	-1.616224e-07	4.840847e-10	-1.213189e+00	3.198403e+01
2.530000e-06	-2.115584e-07	3.973899e-10	-1.588025e+00	2.658798e+01
2.540000e-06	-2.613665e-07	3.171656e-10	-1.961901e+00	2.111618e+01
2.550000e-06	-3.110858e-07	2.366890e-10	-2.335109e+00	1.557743e+01
2.560000e-06	-3.606394e-07	1.498379e-10	-2.707074e+00	9.980416e+00
2.570000e-06	-4.098713e-07	6.755184e-11	-3.076624e+00	4.334127e+00
2.580000e-06	-4.588765e-07	-1.865530e-11	-3.444473e+00	-1.351673e+00
2.590000e-06	-5.077346e-07	-1.116140e-10	-3.811218e+00	-7.066052e+00
2.600000e-06	-5.561745e-07	-1.978876e-10	-4.174823e+00	-1.279666e+01
2.610000e-06	-6.041820e-07	-2.772186e-10	-4.535183e+00	-1.852968e+01
2.620000e-06	-6.519711e-07	-3.617188e-10	-4.893903e+00	-2.425004e+01
2.630000e-06	-6.995098e-07	-4.527415e-10	-5.250743e+00	-2.994184e+01
2.640000e-06	-7.467601e-07	-5.378730e-10	-5.605419e+00	-3.558897e+01
2.650000e-06	-7.937558e-07	-6.181877e-10	-5.958184e+00	-4.117582e+01
2.660000e-06	-8.406065e-07	-6.999719e-10	-6.309860e+00	-4.668802e+01
2.670000e-06	-8.872527e-07	-7.833629e-10	-6.660001e+00	-5.211310e+01
2.680000e-06	-9.336140e-07	-8.632445e-10	-7.008004e+00	-5.744087e+01
2.690000e-06	-9.797417e-07	-9.421303e-10	-7.354253e+00	-6.266369e+01
2.700000e-06	-1.025542e-06	-1.018694e-09	-7.698048e+00	-6.777637e+01
2.710000e-06	-1.070907e-06	-1.090577e-09	-8.038567e+00	-7.277585e+01
2.720000e-06	-1.115768e-06	-1.163830e-09	-8.375309e+00	-7.766069e+01
2.730000e-06	-1.160248e-06	-1.239848e-09	-8.709192e+00	-8.243045e+01
2.740000e-06	-1.204509e-06	-1.312136e-09	-9.041430e+00	-8.708501e+01
2.750000e-06	-1.248542e-06	-1.376349e-09	-9.371953e+00	-9.162400e+01
2.760000e-06	-1.292329e-06	-1.441663e-09	-9.700632e+00	-9.604642e+01
2.770000e-06	-1.335712e-06	-1.511385e-09	-1.002628e+01	-1.003504e+02
2.780000e-06	-1.378543e-06	-1.578901e-09	-1.034778e+01	-1.045335e+02
2.790000e-06	-1.420849e-06	-1.637550e-09	-1.066535e+01	-1.085924e+02
2.800000e-06	-1.462708e-06	-1.693151e-09	-1.097955e+01	-1.125242e+02
2.810000e-06	-1.504071e-06	-1.752212e-09	-1.129004e+01	-1.163262e+02
2.820000e-06	-1.544816e-06	-1.810935e-09	-1.159588e+01	-1.199966e+02
2.830000e-06	-1.585099e-06	-1.865530e-09	-1.189825e+01	-1.235352e+02
2.840000e-06	-1.625090e-06	-1.915027e-09	-1.219844e+01	-1.269431e+02
2.850000e-06	-1.664584e-06	-1.962773e-09	-1.249490e+01	-1.302232e+02
2.860000e-06	-1.703322e-06	-2.010757e-09	-1.278568e+01	-1.333796e+02
2.870000e-06	-1.741123e-06	-2.059605e-09	-1.306942e+01	-1.364172e+02
2.880000e-06	-1.777987e-06	-2.104061e-09	-1.334613e+01	-1.393413e+02
2.890000e-06	-1.814229e-06	-2.143926e-09	-1.361818e+01	-1.421570e+02
2.900000e-06	-1.850030e-06	-2.185561e-09	-1.388692e+01	-1.448686e+02
2.910000e-06	-1.885256e-06	-2.227014e-09	-1.415133e+01	-1.474791e+02
2.920000e-06	-1.919817e-06	-2.265749e-09	-1.441076e+01	-1.499906e+02
2.930000e-06	-1.953729e-06	-2.301368e-09	-1.466531e+01	-1.524038e+02
2.940000e-06	-1.986906e-06	-2.335505e-09	-1.491435e+01	-1.547186e+02
