# Temperatura_=_20.0
# Concentracion g/m^3_=_9000.0
# C_Vs_to_Am_M_A/Vsm_=_65563218390.804596
# pendiente_HvsI_1/m_=_3716.3
# ordenada_HvsI_A/m_=_1297.0
# frecuencia_Hz_=_301056.5087916497

Tiempo_(s)	Campo_(V.s)	Magnetizacion_(V.s)	Campo_(kA/m)	Magnetizacion_(A/m)
0.000000e+00	-2.655030e-06	-2.913745e-09	-1.977105e+01	-1.934563e+02
1.000000e-08	-2.654575e-06	-2.914992e-09	-1.976766e+01	-1.936004e+02
2.000000e-08	-2.652994e-06	-2.916679e-09	-1.975589e+01	-1.937184e+02
3.000000e-08	-2.650297e-06	-2.919960e-09	-1.973580e+01	-1.938088e+02
4.000000e-08	-2.646728e-06	-2.920335e-09	-1.970923e+01	-1.938681e+02
5.000000e-08	-2.642419e-06	-2.918985e-09	-1.967714e+01	-1.938907e+02
6.000000e-08	-2.637285e-06	-2.921449e-09	-1.963891e+01	-1.938695e+02
7.000000e-08	-2.631238e-06	-2.933833e-09	-1.959388e+01	-1.937974e+02
8.000000e-08	-2.624272e-06	-2.929600e-09	-1.954200e+01	-1.936675e+02
9.000000e-08	-2.616304e-06	-2.887032e-09	-1.948267e+01	-1.934747e+02
1.000000e-07	-2.607112e-06	-2.865652e-09	-1.941422e+01	-1.932163e+02
1.100000e-07	-2.596697e-06	-2.935038e-09	-1.933666e+01	-1.928930e+02
1.200000e-07	-2.585323e-06	-2.982117e-09	-1.925197e+01	-1.925086e+02
1.300000e-07	-2.573131e-06	-2.882914e-09	-1.916118e+01	-1.920702e+02
1.400000e-07	-2.560101e-06	-2.815995e-09	-1.906415e+01	-1.915873e+02
1.500000e-07	-2.546249e-06	-2.910059e-09	-1.896100e+01	-1.910713e+02
1.600000e-07	-2.531217e-06	-2.936438e-09	-1.884906e+01	-1.905334e+02
1.700000e-07	-2.514736e-06	-2.889491e-09	-1.872633e+01	-1.899840e+02
1.800000e-07	-2.497427e-06	-2.907876e-09	-1.859743e+01	-1.894313e+02
1.900000e-07	-2.479618e-06	-2.858730e-09	-1.846482e+01	-1.888799e+02
2.000000e-07	-2.460963e-06	-2.809107e-09	-1.832590e+01	-1.883308e+02
2.100000e-07	-2.441424e-06	-2.946767e-09	-1.818040e+01	-1.877807e+02
2.200000e-07	-2.421265e-06	-2.960447e-09	-1.803028e+01	-1.872229e+02
2.300000e-07	-2.400370e-06	-2.747823e-09	-1.787469e+01	-1.866474e+02
2.400000e-07	-2.378449e-06	-2.788916e-09	-1.771145e+01	-1.860430e+02
2.500000e-07	-2.355556e-06	-2.985540e-09	-1.754097e+01	-1.853976e+02
2.600000e-07	-2.332008e-06	-2.898609e-09	-1.736562e+01	-1.847005e+02
2.700000e-07	-2.307825e-06	-2.757771e-09	-1.718554e+01	-1.839429e+02
2.800000e-07	-2.282762e-06	-2.832302e-09	-1.699891e+01	-1.831193e+02
2.900000e-07	-2.256577e-06	-2.876619e-09	-1.680391e+01	-1.822277e+02
3.000000e-07	-2.229374e-06	-2.816477e-09	-1.660134e+01	-1.812695e+02
3.100000e-07	-2.201440e-06	-2.779354e-09	-1.639333e+01	-1.802493e+02
3.200000e-07	-2.172849e-06	-2.771163e-09	-1.618042e+01	-1.791738e+02
3.300000e-07	-2.143601e-06	-2.756968e-09	-1.596262e+01	-1.780509e+02
3.400000e-07	-2.113582e-06	-2.736560e-09	-1.573908e+01	-1.768881e+02
3.500000e-07	-2.082713e-06	-2.738476e-09	-1.550921e+01	-1.756918e+02
3.600000e-07	-2.051216e-06	-2.724836e-09	-1.527466e+01	-1.744664e+02
3.700000e-07	-2.019261e-06	-2.640613e-09	-1.503670e+01	-1.732131e+02
3.800000e-07	-1.986471e-06	-2.633334e-09	-1.479253e+01	-1.719306e+02
3.900000e-07	-1.952570e-06	-2.715190e-09	-1.454008e+01	-1.706148e+02
4.000000e-07	-1.917753e-06	-2.633311e-09	-1.428081e+01	-1.692597e+02
4.100000e-07	-1.882301e-06	-2.515949e-09	-1.401682e+01	-1.678581e+02
4.200000e-07	-1.846298e-06	-2.588017e-09	-1.374871e+01	-1.664029e+02
4.300000e-07	-1.809725e-06	-2.625550e-09	-1.347637e+01	-1.648879e+02
4.400000e-07	-1.772572e-06	-2.502312e-09	-1.319970e+01	-1.633085e+02
4.500000e-07	-1.734752e-06	-2.454335e-09	-1.291807e+01	-1.616624e+02
4.600000e-07	-1.696215e-06	-2.494757e-09	-1.263110e+01	-1.599498e+02
4.700000e-07	-1.657118e-06	-2.468542e-09	-1.233996e+01	-1.581730e+02
4.800000e-07	-1.617664e-06	-2.409433e-09	-1.204616e+01	-1.563361e+02
4.900000e-07	-1.577873e-06	-2.380164e-09	-1.174985e+01	-1.544439e+02
5.000000e-07	-1.537591e-06	-2.354973e-09	-1.144989e+01	-1.525015e+02
5.100000e-07	-1.496639e-06	-2.325321e-09	-1.114493e+01	-1.505128e+02
5.200000e-07	-1.454827e-06	-2.306482e-09	-1.083357e+01	-1.484804e+02
5.300000e-07	-1.412096e-06	-2.269684e-09	-1.051537e+01	-1.464046e+02
5.400000e-07	-1.368748e-06	-2.217396e-09	-1.019257e+01	-1.442838e+02
5.500000e-07	-1.325116e-06	-2.183035e-09	-9.867662e+00	-1.421139e+02
5.600000e-07	-1.281147e-06	-2.172733e-09	-9.540240e+00	-1.398896e+02
5.700000e-07	-1.236764e-06	-2.142839e-09	-9.209733e+00	-1.376043e+02
5.800000e-07	-1.191942e-06	-2.077543e-09	-8.875962e+00	-1.352513e+02
5.900000e-07	-1.146680e-06	-2.030979e-09	-8.538910e+00	-1.328244e+02
6.000000e-07	-1.101056e-06	-2.021096e-09	-8.199163e+00	-1.303185e+02
6.100000e-07	-1.055043e-06	-1.989923e-09	-7.856526e+00	-1.277300e+02
6.200000e-07	-1.008590e-06	-1.919840e-09	-7.510604e+00	-1.250570e+02
6.300000e-07	-9.617109e-07	-1.873722e-09	-7.161513e+00	-1.222989e+02
6.400000e-07	-9.144979e-07	-1.851949e-09	-6.809935e+00	-1.194559e+02
6.500000e-07	-8.670537e-07	-1.806956e-09	-6.456635e+00	-1.165288e+02
6.600000e-07	-8.194111e-07	-1.748714e-09	-6.101858e+00	-1.135181e+02
6.700000e-07	-7.715727e-07	-1.706218e-09	-5.745623e+00	-1.104231e+02
6.800000e-07	-7.235001e-07	-1.662709e-09	-5.387643e+00	-1.072418e+02
6.900000e-07	-6.750571e-07	-1.607228e-09	-5.026906e+00	-1.039703e+02
7.000000e-07	-6.262089e-07	-1.556740e-09	-4.663151e+00	-1.006028e+02
7.100000e-07	-5.770410e-07	-1.503761e-09	-4.297016e+00	-9.713233e+01
7.200000e-07	-5.275508e-07	-1.442354e-09	-3.928480e+00	-9.355045e+01
7.300000e-07	-4.776466e-07	-1.386165e-09	-3.556861e+00	-8.984855e+01
7.400000e-07	-4.273805e-07	-1.334765e-09	-3.182548e+00	-8.601838e+01
7.500000e-07	-3.768840e-07	-1.269205e-09	-2.806519e+00	-8.205279e+01
7.600000e-07	-3.261938e-07	-1.198447e-09	-2.429047e+00	-7.794642e+01
7.700000e-07	-2.753609e-07	-1.140915e-09	-2.050513e+00	-7.369612e+01
7.800000e-07	-2.244253e-07	-1.079476e-09	-1.671214e+00	-6.930117e+01
7.900000e-07	-1.733937e-07	-9.999771e-10	-1.291200e+00	-6.476325e+01
8.000000e-07	-1.222727e-07	-9.208813e-10	-9.105206e-01	-6.008624e+01
8.100000e-07	-7.106199e-08	-8.587218e-10	-5.291729e-01	-5.527578e+01
8.200000e-07	-1.983252e-08	-7.928643e-10	-1.476856e-01	-5.033886e+01
8.300000e-07	3.137793e-08	-7.085462e-10	2.336601e-01	-4.528333e+01
8.400000e-07	8.261467e-08	-6.213300e-10	6.152016e-01	-4.011748e+01
8.500000e-07	1.338307e-07	-5.452517e-10	9.965889e-01	-3.484984e+01
8.600000e-07	1.849193e-07	-4.702240e-10	1.377027e+00	-2.948904e+01
8.700000e-07	2.358624e-07	-3.824228e-10	1.756382e+00	-2.404388e+01
8.800000e-07	2.867584e-07	-2.877316e-10	2.135386e+00	-1.852353e+01
8.900000e-07	3.374877e-07	-2.001301e-10	2.513149e+00	-1.293780e+01
9.000000e-07	3.878936e-07	-1.204900e-10	2.888504e+00	-7.297369e+00
9.100000e-07	4.380110e-07	-3.728877e-11	3.261709e+00	-1.614018e+00
9.200000e-07	4.878704e-07	5.312199e-11	3.632994e+00	4.099291e+00
9.300000e-07	5.374602e-07	1.463580e-10	4.002272e+00	9.828496e+00
9.400000e-07	5.866531e-07	2.318892e-10	4.368594e+00	1.555867e+01
9.500000e-07	6.353891e-07	3.124938e-10	4.731513e+00	2.127443e+01
9.600000e-07	6.837568e-07	4.014550e-10	5.091689e+00	2.696040e+01
9.700000e-07	7.318941e-07	4.967767e-10	5.450151e+00	3.260180e+01
9.800000e-07	7.798486e-07	5.857110e-10	5.807251e+00	3.818489e+01
9.900000e-07	8.276151e-07	6.656149e-10	6.162951e+00	4.369745e+01
1.000000e-06	8.752128e-07	7.457613e-10	6.517393e+00	4.912902e+01
1.010000e-06	9.226309e-07	8.305541e-10	6.870499e+00	5.447101e+01
1.020000e-06	9.697559e-07	9.141633e-10	7.221421e+00	5.971658e+01
1.030000e-06	1.016464e-06	9.923769e-10	7.569237e+00	6.486045e+01
1.040000e-06	1.062719e-06	1.068617e-09	7.913681e+00	6.989855e+01
1.050000e-06	1.108581e-06	1.145415e-09	8.255204e+00	7.482759e+01
1.060000e-06	1.154073e-06	1.221743e-09	8.593965e+00	7.964474e+01
1.070000e-06	1.199151e-06	1.295648e-09	8.929642e+00	8.434736e+01
1.080000e-06	1.243783e-06	1.364676e-09	9.262003e+00	8.893277e+01
1.090000e-06	1.288008e-06	1.429882e-09	9.591328e+00	9.339831e+01
1.100000e-06	1.331935e-06	1.496303e-09	9.918442e+00	9.774145e+01
1.110000e-06	1.375598e-06	1.563826e-09	1.024358e+01	1.019599e+02
1.120000e-06	1.418993e-06	1.625158e-09	1.056673e+01	1.060522e+02
1.130000e-06	1.461900e-06	1.681041e-09	1.088624e+01	1.100174e+02
1.140000e-06	1.503946e-06	1.737774e-09	1.119934e+01	1.138559e+02
1.150000e-06	1.545025e-06	1.797159e-09	1.150524e+01	1.175690e+02
1.160000e-06	1.585318e-06	1.853002e-09	1.180529e+01	1.211594e+02
1.170000e-06	1.625121e-06	1.905413e-09	1.210169e+01	1.246302e+02
1.180000e-06	1.664569e-06	1.957203e-09	1.239544e+01	1.279853e+02
1.190000e-06	1.703550e-06	2.006659e-09	1.268572e+01	1.312285e+02
1.200000e-06	1.741940e-06	2.053573e-09	1.297159e+01	1.343633e+02
1.210000e-06	1.779735e-06	2.100220e-09	1.325304e+01	1.373925e+02
1.220000e-06	1.816886e-06	2.145734e-09	1.352969e+01	1.403179e+02
1.230000e-06	1.853336e-06	2.187037e-09	1.380112e+01	1.431403e+02
1.240000e-06	1.889254e-06	2.227181e-09	1.406859e+01	1.458597e+02
1.250000e-06	1.924784e-06	2.267854e-09	1.433317e+01	1.484752e+02
1.260000e-06	1.959753e-06	2.307401e-09	1.459357e+01	1.509859e+02
1.270000e-06	1.993821e-06	2.343759e-09	1.484727e+01	1.533911e+02
1.280000e-06	2.026810e-06	2.378372e-09	1.509292e+01	1.556909e+02
1.290000e-06	2.058914e-06	2.411373e-09	1.533199e+01	1.578865e+02
1.300000e-06	2.090400e-06	2.442419e-09	1.556646e+01	1.599808e+02
1.310000e-06	2.121270e-06	2.472954e-09	1.579633e+01	1.619779e+02
1.320000e-06	2.151437e-06	2.503165e-09	1.602097e+01	1.638833e+02
1.330000e-06	2.180903e-06	2.529877e-09	1.624040e+01	1.657034e+02
1.340000e-06	2.209646e-06	2.555145e-09	1.645444e+01	1.674452e+02
1.350000e-06	2.237733e-06	2.583215e-09	1.666359e+01	1.691151e+02
1.360000e-06	2.265249e-06	2.611500e-09	1.686849e+01	1.707193e+02
1.370000e-06	2.291996e-06	2.634688e-09	1.706767e+01	1.722623e+02
1.380000e-06	2.317628e-06	2.655521e-09	1.725853e+01	1.737473e+02
1.390000e-06	2.342088e-06	2.678195e-09	1.744068e+01	1.751756e+02
1.400000e-06	2.365652e-06	2.701455e-09	1.761616e+01	1.765472e+02
1.410000e-06	2.388479e-06	2.722190e-09	1.778614e+01	1.778608e+02
1.420000e-06	2.410541e-06	2.739539e-09	1.795043e+01	1.791147e+02
1.430000e-06	2.431801e-06	2.756804e-09	1.810875e+01	1.803069e+02
1.440000e-06	2.452253e-06	2.775107e-09	1.826104e+01	1.814362e+02
1.450000e-06	2.471997e-06	2.792685e-09	1.840806e+01	1.825022e+02
1.460000e-06	2.491005e-06	2.807090e-09	1.854961e+01	1.835061e+02
1.470000e-06	2.509112e-06	2.820011e-09	1.868445e+01	1.844503e+02
1.480000e-06	2.526378e-06	2.834705e-09	1.881303e+01	1.853387e+02
1.490000e-06	2.542748e-06	2.850925e-09	1.893493e+01	1.861759e+02
1.500000e-06	2.558007e-06	2.865729e-09	1.904855e+01	1.869669e+02
1.510000e-06	2.572289e-06	2.877033e-09	1.915491e+01	1.877164e+02
1.520000e-06	2.585682e-06	2.887003e-09	1.925464e+01	1.884284e+02
1.530000e-06	2.598098e-06	2.898082e-09	1.934709e+01	1.891055e+02
1.540000e-06	2.609525e-06	2.908202e-09	1.943219e+01	1.897487e+02
1.550000e-06	2.619824e-06	2.917013e-09	1.950888e+01	1.903576e+02
1.560000e-06	2.628878e-06	2.927636e-09	1.957630e+01	1.909306e+02
1.570000e-06	2.636855e-06	2.937957e-09	1.963570e+01	1.914651e+02
1.580000e-06	2.643985e-06	2.946648e-09	1.968880e+01	1.919584e+02
1.590000e-06	2.650285e-06	2.954955e-09	1.973571e+01	1.924079e+02
1.600000e-06	2.655710e-06	2.963085e-09	1.977611e+01	1.928123e+02
1.610000e-06	2.660280e-06	2.970517e-09	1.981014e+01	1.931715e+02
1.620000e-06	2.664088e-06	2.976330e-09	1.983850e+01	1.934868e+02
1.630000e-06	2.667032e-06	2.980833e-09	1.986042e+01	1.937610e+02
1.640000e-06	2.668804e-06	2.986358e-09	1.987362e+01	1.939977e+02
1.650000e-06	2.669460e-06	2.992955e-09	1.987850e+01	1.942011e+02
1.660000e-06	2.669201e-06	2.997167e-09	1.987658e+01	1.943749e+02
1.670000e-06	2.668101e-06	3.000276e-09	1.986838e+01	1.945217e+02
1.680000e-06	2.666180e-06	3.003394e-09	1.985408e+01	1.946424e+02
1.690000e-06	2.663412e-06	3.005258e-09	1.983346e+01	1.947358e+02
1.700000e-06	2.659845e-06	3.006322e-09	1.980690e+01	1.947983e+02
1.710000e-06	2.655619e-06	3.005910e-09	1.977543e+01	1.948244e+02
1.720000e-06	2.650651e-06	2.996706e-09	1.973844e+01	1.948075e+02
1.730000e-06	2.644660e-06	2.980033e-09	1.969382e+01	1.947401e+02
1.740000e-06	2.637482e-06	3.001878e-09	1.964038e+01	1.946153e+02
1.750000e-06	2.628982e-06	3.051543e-09	1.957708e+01	1.944279e+02
1.760000e-06	2.619176e-06	3.015484e-09	1.950405e+01	1.941751e+02
1.770000e-06	2.608523e-06	2.929399e-09	1.942472e+01	1.938571e+02
1.780000e-06	2.597593e-06	2.951935e-09	1.934334e+01	1.934777e+02
1.790000e-06	2.586087e-06	3.039013e-09	1.925766e+01	1.930437e+02
1.800000e-06	2.573022e-06	2.995221e-09	1.916036e+01	1.925645e+02
1.810000e-06	2.558454e-06	2.905764e-09	1.905188e+01	1.920512e+02
1.820000e-06	2.543228e-06	2.943800e-09	1.893850e+01	1.915153e+02
1.830000e-06	2.527300e-06	2.913611e-09	1.881989e+01	1.909673e+02
1.840000e-06	2.510209e-06	2.859528e-09	1.869262e+01	1.904154e+02
1.850000e-06	2.492224e-06	2.960927e-09	1.855869e+01	1.898647e+02
1.860000e-06	2.473686e-06	2.918021e-09	1.842065e+01	1.893163e+02
1.870000e-06	2.454375e-06	2.740021e-09	1.827684e+01	1.887673e+02
1.880000e-06	2.434247e-06	2.864200e-09	1.812695e+01	1.882111e+02
1.890000e-06	2.413358e-06	2.993959e-09	1.797140e+01	1.876382e+02
1.900000e-06	2.391414e-06	2.753262e-09	1.780800e+01	1.870370e+02
1.910000e-06	2.368267e-06	2.708560e-09	1.763562e+01	1.863957e+02
1.920000e-06	2.344207e-06	2.940840e-09	1.745646e+01	1.857034e+02
1.930000e-06	2.319430e-06	2.840518e-09	1.727195e+01	1.849513e+02
1.940000e-06	2.293877e-06	2.655261e-09	1.708168e+01	1.841333e+02
1.950000e-06	2.267446e-06	2.780287e-09	1.688485e+01	1.832474e+02
1.960000e-06	2.240137e-06	2.808805e-09	1.668149e+01	1.822947e+02
1.970000e-06	2.212204e-06	2.696881e-09	1.647348e+01	1.812795e+02
1.980000e-06	2.183570e-06	2.719349e-09	1.626026e+01	1.802085e+02
1.990000e-06	2.153964e-06	2.733837e-09	1.603979e+01	1.790895e+02
2.000000e-06	2.123517e-06	2.673651e-09	1.581307e+01	1.779301e+02
2.010000e-06	2.092329e-06	2.633248e-09	1.558082e+01	1.767370e+02
2.020000e-06	2.060307e-06	2.665795e-09	1.534236e+01	1.755143e+02
2.030000e-06	2.027641e-06	2.694472e-09	1.509911e+01	1.742638e+02
2.040000e-06	1.994398e-06	2.569527e-09	1.485156e+01	1.729844e+02
2.050000e-06	1.960376e-06	2.516382e-09	1.459821e+01	1.716719e+02
2.060000e-06	1.925623e-06	2.654213e-09	1.433942e+01	1.703207e+02
2.070000e-06	1.890312e-06	2.603310e-09	1.407647e+01	1.689235e+02
2.080000e-06	1.854509e-06	2.445662e-09	1.380986e+01	1.674732e+02
2.090000e-06	1.818073e-06	2.497701e-09	1.353853e+01	1.659634e+02
2.100000e-06	1.780877e-06	2.543598e-09	1.326155e+01	1.643895e+02
2.110000e-06	1.742913e-06	2.461331e-09	1.297884e+01	1.627490e+02
2.120000e-06	1.704124e-06	2.406012e-09	1.269000e+01	1.610420e+02
2.130000e-06	1.664592e-06	2.403429e-09	1.239561e+01	1.592705e+02
2.140000e-06	1.624562e-06	2.397827e-09	1.209753e+01	1.574385e+02
2.150000e-06	1.584108e-06	2.351580e-09	1.179628e+01	1.555510e+02
2.160000e-06	1.543068e-06	2.313815e-09	1.149067e+01	1.536128e+02
2.170000e-06	1.501429e-06	2.305655e-09	1.118060e+01	1.516281e+02
2.180000e-06	1.459372e-06	2.258480e-09	1.086742e+01	1.495996e+02
2.190000e-06	1.416849e-06	2.217951e-09	1.055077e+01	1.475278e+02
2.200000e-06	1.373718e-06	2.218032e-09	1.022958e+01	1.454111e+02
2.210000e-06	1.330100e-06	2.179888e-09	9.904773e+00	1.432457e+02
2.220000e-06	1.286175e-06	2.116124e-09	9.577680e+00	1.410263e+02
2.230000e-06	1.241982e-06	2.093757e-09	9.248590e+00	1.387464e+02
2.240000e-06	1.197523e-06	2.088634e-09	8.917523e+00	1.363992e+02
2.250000e-06	1.152686e-06	2.034508e-09	8.583636e+00	1.339786e+02
2.260000e-06	1.107320e-06	1.969567e-09	8.245810e+00	1.314794e+02
2.270000e-06	1.061395e-06	1.954588e-09	7.903824e+00	1.288977e+02
2.280000e-06	1.015099e-06	1.928152e-09	7.559074e+00	1.262316e+02
2.290000e-06	9.685095e-07	1.862426e-09	7.212140e+00	1.234803e+02
2.300000e-06	9.215684e-07	1.819026e-09	6.862587e+00	1.206442e+02
2.310000e-06	8.744076e-07	1.793228e-09	6.511397e+00	1.177240e+02
2.320000e-06	8.270615e-07	1.742848e-09	6.158828e+00	1.147200e+02
2.330000e-06	7.794307e-07	1.684131e-09	5.804139e+00	1.116319e+02
2.340000e-06	7.314323e-07	1.643901e-09	5.446712e+00	1.084577e+02
2.350000e-06	6.831389e-07	1.601391e-09	5.087088e+00	1.051936e+02
2.360000e-06	6.345415e-07	1.541409e-09	4.725201e+00	1.018341e+02
2.370000e-06	5.855991e-07	1.490505e-09	4.360745e+00	9.837202e+01
2.380000e-06	5.363961e-07	1.443331e-09	3.994348e+00	9.479920e+01
2.390000e-06	4.869452e-07	1.380638e-09	3.626104e+00	9.110698e+01
2.400000e-06	4.373115e-07	1.321971e-09	3.256501e+00	8.728704e+01
2.410000e-06	3.875113e-07	1.269953e-09	2.885656e+00	8.333214e+01
2.420000e-06	3.375443e-07	1.205601e-09	2.513570e+00	7.923679e+01
2.430000e-06	2.874570e-07	1.132846e-09	2.140588e+00	7.499764e+01
2.440000e-06	2.372593e-07	1.069147e-09	1.766784e+00	7.061382e+01
2.450000e-06	1.870050e-07	1.010350e-09	1.392559e+00	6.608683e+01
2.460000e-06	1.367499e-07	9.344707e-10	1.018327e+00	6.142040e+01
2.470000e-06	8.645501e-08	8.505592e-10	6.437992e-01	5.662007e+01
2.480000e-06	3.609639e-08	7.816363e-10	2.687968e-01	5.169276e+01
2.490000e-06	-1.422097e-08	7.172583e-10	-1.058984e-01	4.664624e+01
2.500000e-06	-6.450342e-08	6.383347e-10	-4.803336e-01	4.148881e+01
2.510000e-06	-1.148138e-07	5.492062e-10	-8.549771e-01	3.622898e+01
2.520000e-06	-1.651304e-07	4.672009e-10	-1.229667e+00	3.087536e+01
2.530000e-06	-2.153476e-07	3.917896e-10	-1.603616e+00	2.543675e+01
2.540000e-06	-2.654612e-07	3.099225e-10	-1.976794e+00	1.992228e+01
2.550000e-06	-3.155260e-07	2.231496e-10	-2.349608e+00	1.434170e+01
2.560000e-06	-3.654659e-07	1.361060e-10	-2.721492e+00	8.705617e+00
2.570000e-06	-4.152569e-07	4.932856e-11	-3.092268e+00	3.025736e+00
2.580000e-06	-4.648965e-07	-3.440619e-11	-3.461916e+00	-2.685067e+00
2.590000e-06	-5.142935e-07	-1.188791e-10	-3.829758e+00	-8.412802e+00
2.600000e-06	-5.633625e-07	-2.099868e-10	-4.195157e+00	-1.414260e+01
2.610000e-06	-6.120640e-07	-3.017408e-10	-4.557819e+00	-1.985908e+01
2.620000e-06	-6.604673e-07	-3.829396e-10	-4.918261e+00	-2.554686e+01
2.630000e-06	-7.084130e-07	-4.605402e-10	-5.275296e+00	-3.119108e+01
2.640000e-06	-7.558705e-07	-5.476153e-10	-5.628695e+00	-3.677794e+01
2.650000e-06	-8.031351e-07	-6.372932e-10	-5.980657e+00	-4.229509e+01
2.660000e-06	-8.501795e-07	-7.185659e-10	-6.330979e+00	-4.773194e+01
2.670000e-06	-8.968821e-07	-7.956283e-10	-6.678756e+00	-5.307974e+01
2.680000e-06	-9.433523e-07	-8.755391e-10	-7.024804e+00	-5.833157e+01
2.690000e-06	-9.896848e-07	-9.550228e-10	-7.369824e+00	-6.348204e+01
2.700000e-06	-1.035783e-06	-1.032033e-09	-7.713103e+00	-6.852699e+01
2.710000e-06	-1.081556e-06	-1.106144e-09	-8.053958e+00	-7.346309e+01
2.720000e-06	-1.126886e-06	-1.177229e-09	-8.391511e+00	-7.828751e+01
2.730000e-06	-1.171727e-06	-1.247548e-09	-8.725426e+00	-8.299757e+01
2.740000e-06	-1.216162e-06	-1.318798e-09	-9.056320e+00	-8.759062e+01
2.750000e-06	-1.260306e-06	-1.389904e-09	-9.385044e+00	-9.206400e+01
2.760000e-06	-1.304205e-06	-1.456743e-09	-9.711940e+00	-9.641513e+01
2.770000e-06	-1.347759e-06	-1.519628e-09	-1.003628e+01	-1.006418e+02
2.780000e-06	-1.390833e-06	-1.582649e-09	-1.035703e+01	-1.047422e+02
2.790000e-06	-1.433410e-06	-1.644849e-09	-1.067408e+01	-1.087157e+02
2.800000e-06	-1.475555e-06	-1.702759e-09	-1.098792e+01	-1.125624e+02
2.810000e-06	-1.517171e-06	-1.757608e-09	-1.129782e+01	-1.162836e+02
2.820000e-06	-1.558177e-06	-1.812023e-09	-1.160318e+01	-1.198818e+02
2.830000e-06	-1.598688e-06	-1.865467e-09	-1.190485e+01	-1.233602e+02
2.840000e-06	-1.638804e-06	-1.917524e-09	-1.220358e+01	-1.267226e+02
2.850000e-06	-1.678521e-06	-1.968755e-09	-1.249934e+01	-1.299728e+02
2.860000e-06	-1.717611e-06	-2.018243e-09	-1.279042e+01	-1.331145e+02
2.870000e-06	-1.755830e-06	-2.065414e-09	-1.307503e+01	-1.361503e+02
2.880000e-06	-1.793158e-06	-2.110256e-09	-1.335300e+01	-1.390823e+02
2.890000e-06	-1.829684e-06	-2.154473e-09	-1.362500e+01	-1.419113e+02
2.900000e-06	-1.865606e-06	-2.196231e-09	-1.389249e+01	-1.446372e+02
2.910000e-06	-1.901022e-06	-2.233563e-09	-1.415623e+01	-1.472593e+02
2.920000e-06	-1.935818e-06	-2.269503e-09	-1.441533e+01	-1.497767e+02
2.930000e-06	-1.969922e-06	-2.307575e-09	-1.466930e+01	-1.521886e+02
2.940000e-06	-2.003272e-06	-2.345139e-09	-1.491764e+01	-1.544951e+02
