# Temperatura_=_20.0
# Concentracion g/m^3_=_9000.0
# C_Vs_to_Am_M_A/Vsm_=_65563218390.804596
# pendiente_HvsI_1/m_=_3716.3
# ordenada_HvsI_A/m_=_1297.0
# frecuencia_Hz_=_301062.86759802076

Tiempo_(s)	Campo_(V.s)	Magnetizacion_(V.s)	Campo_(kA/m)	Magnetizacion_(A/m)
0.000000e+00	-2.648824e-06	-2.908189e-09	-1.977320e+01	-1.932292e+02
1.000000e-08	-2.648444e-06	-2.911707e-09	-1.977036e+01	-1.933637e+02
2.000000e-08	-2.646977e-06	-2.914492e-09	-1.975941e+01	-1.934718e+02
3.000000e-08	-2.644267e-06	-2.915706e-09	-1.973918e+01	-1.935528e+02
4.000000e-08	-2.640714e-06	-2.914912e-09	-1.971266e+01	-1.936039e+02
5.000000e-08	-2.636454e-06	-2.913317e-09	-1.968085e+01	-1.936193e+02
6.000000e-08	-2.631320e-06	-2.912785e-09	-1.964253e+01	-1.935914e+02
7.000000e-08	-2.625241e-06	-2.913362e-09	-1.959715e+01	-1.935111e+02
8.000000e-08	-2.618278e-06	-2.909812e-09	-1.954518e+01	-1.933689e+02
9.000000e-08	-2.610468e-06	-2.910657e-09	-1.948687e+01	-1.931564e+02
1.000000e-07	-2.601426e-06	-2.906579e-09	-1.941937e+01	-1.928674e+02
1.100000e-07	-2.591017e-06	-2.904444e-09	-1.934168e+01	-1.924993e+02
1.200000e-07	-2.579663e-06	-2.872459e-09	-1.925692e+01	-1.920534e+02
1.300000e-07	-2.567482e-06	-2.865686e-09	-1.916599e+01	-1.915357e+02
1.400000e-07	-2.554402e-06	-2.889613e-09	-1.906835e+01	-1.909567e+02
1.500000e-07	-2.540611e-06	-2.902007e-09	-1.896540e+01	-1.903302e+02
1.600000e-07	-2.525756e-06	-2.868227e-09	-1.885451e+01	-1.896724e+02
1.700000e-07	-2.509324e-06	-2.852047e-09	-1.873185e+01	-1.890001e+02
1.800000e-07	-2.491982e-06	-2.890508e-09	-1.860239e+01	-1.883289e+02
1.900000e-07	-2.474313e-06	-2.856858e-09	-1.847049e+01	-1.876715e+02
2.000000e-07	-2.455840e-06	-2.846406e-09	-1.833259e+01	-1.870364e+02
2.100000e-07	-2.436360e-06	-2.866081e-09	-1.818718e+01	-1.864265e+02
2.200000e-07	-2.416347e-06	-2.848688e-09	-1.803778e+01	-1.858388e+02
2.300000e-07	-2.395709e-06	-2.831395e-09	-1.788372e+01	-1.852650e+02
2.400000e-07	-2.373927e-06	-2.877673e-09	-1.772112e+01	-1.846920e+02
2.500000e-07	-2.351113e-06	-2.872366e-09	-1.755081e+01	-1.841034e+02
2.600000e-07	-2.327661e-06	-2.829858e-09	-1.737575e+01	-1.834816e+02
2.700000e-07	-2.303611e-06	-2.853012e-09	-1.719622e+01	-1.828092e+02
2.800000e-07	-2.278693e-06	-2.861582e-09	-1.701020e+01	-1.820713e+02
2.900000e-07	-2.252597e-06	-2.810273e-09	-1.681541e+01	-1.812567e+02
3.000000e-07	-2.225416e-06	-2.779415e-09	-1.661250e+01	-1.803592e+02
3.100000e-07	-2.197550e-06	-2.803361e-09	-1.640448e+01	-1.793778e+02
3.200000e-07	-2.169040e-06	-2.773948e-09	-1.619166e+01	-1.783163e+02
3.300000e-07	-2.139828e-06	-2.741613e-09	-1.597359e+01	-1.771830e+02
3.400000e-07	-2.109898e-06	-2.731194e-09	-1.575017e+01	-1.759886e+02
3.500000e-07	-2.079125e-06	-2.722221e-09	-1.552045e+01	-1.747453e+02
3.600000e-07	-2.047677e-06	-2.682712e-09	-1.528569e+01	-1.734649e+02
3.700000e-07	-2.015861e-06	-2.671989e-09	-1.504819e+01	-1.721570e+02
3.800000e-07	-1.983322e-06	-2.665390e-09	-1.480529e+01	-1.708284e+02
3.900000e-07	-1.949556e-06	-2.614642e-09	-1.455324e+01	-1.694818e+02
4.000000e-07	-1.914813e-06	-2.594573e-09	-1.429388e+01	-1.681162e+02
4.100000e-07	-1.879483e-06	-2.602990e-09	-1.403015e+01	-1.667270e+02
4.200000e-07	-1.843600e-06	-2.575024e-09	-1.376229e+01	-1.653069e+02
4.300000e-07	-1.807147e-06	-2.516057e-09	-1.349017e+01	-1.638470e+02
4.400000e-07	-1.770173e-06	-2.517974e-09	-1.321416e+01	-1.623381e+02
4.500000e-07	-1.732582e-06	-2.503695e-09	-1.293354e+01	-1.607722e+02
4.600000e-07	-1.694255e-06	-2.466493e-09	-1.264744e+01	-1.591430e+02
4.700000e-07	-1.655258e-06	-2.432301e-09	-1.235633e+01	-1.574469e+02
4.800000e-07	-1.615833e-06	-2.408925e-09	-1.206203e+01	-1.556830e+02
4.900000e-07	-1.576143e-06	-2.381967e-09	-1.176575e+01	-1.538532e+02
5.000000e-07	-1.536054e-06	-2.351377e-09	-1.146649e+01	-1.519609e+02
5.100000e-07	-1.495301e-06	-2.328847e-09	-1.116227e+01	-1.500111e+02
5.200000e-07	-1.453621e-06	-2.286384e-09	-1.085113e+01	-1.480084e+02
5.300000e-07	-1.410944e-06	-2.250797e-09	-1.053255e+01	-1.459568e+02
5.400000e-07	-1.367646e-06	-2.226608e-09	-1.020933e+01	-1.438583e+02
5.500000e-07	-1.324093e-06	-2.207050e-09	-9.884218e+00	-1.417131e+02
5.600000e-07	-1.280242e-06	-2.155427e-09	-9.556874e+00	-1.395185e+02
5.700000e-07	-1.235992e-06	-2.110793e-09	-9.226553e+00	-1.372702e+02
5.800000e-07	-1.191342e-06	-2.088382e-09	-8.893244e+00	-1.349619e+02
5.900000e-07	-1.146237e-06	-2.057829e-09	-8.556540e+00	-1.325863e+02
6.000000e-07	-1.100653e-06	-2.014391e-09	-8.216259e+00	-1.301364e+02
6.100000e-07	-1.054655e-06	-1.967664e-09	-7.872892e+00	-1.276055e+02
6.200000e-07	-1.008290e-06	-1.929984e-09	-7.526778e+00	-1.249883e+02
6.300000e-07	-9.615759e-07	-1.887450e-09	-7.178065e+00	-1.222808e+02
6.400000e-07	-9.145461e-07	-1.850082e-09	-6.826992e+00	-1.194812e+02
6.500000e-07	-8.672475e-07	-1.804731e-09	-6.473913e+00	-1.165885e+02
6.600000e-07	-8.197269e-07	-1.754730e-09	-6.119177e+00	-1.136029e+02
6.700000e-07	-7.719729e-07	-1.707301e-09	-5.762698e+00	-1.105247e+02
6.800000e-07	-7.240500e-07	-1.664917e-09	-5.404958e+00	-1.073538e+02
6.900000e-07	-6.759104e-07	-1.618579e-09	-5.045602e+00	-1.040889e+02
7.000000e-07	-6.273491e-07	-1.557025e-09	-4.683096e+00	-1.007271e+02
7.100000e-07	-5.783967e-07	-1.496873e-09	-4.317671e+00	-9.726403e+01
7.200000e-07	-5.290852e-07	-1.445671e-09	-3.949566e+00	-9.369349e+01
7.300000e-07	-4.794016e-07	-1.396264e-09	-3.578683e+00	-9.000815e+01
7.400000e-07	-4.292998e-07	-1.332347e-09	-3.204679e+00	-8.620014e+01
7.500000e-07	-3.788760e-07	-1.268010e-09	-2.828270e+00	-8.226179e+01
7.600000e-07	-3.283584e-07	-1.206864e-09	-2.451162e+00	-7.818647e+01
7.700000e-07	-2.777423e-07	-1.143763e-09	-2.073318e+00	-7.396929e+01
7.800000e-07	-2.269815e-07	-1.076551e-09	-1.694393e+00	-6.960770e+01
7.900000e-07	-1.760527e-07	-1.007064e-09	-1.314215e+00	-6.510179e+01
8.000000e-07	-1.250201e-07	-9.351259e-10	-9.332622e-01	-6.045432e+01
8.100000e-07	-7.398893e-08	-8.573812e-10	-5.523197e-01	-5.567052e+01
8.200000e-07	-2.293673e-08	-7.857071e-10	-1.712204e-01	-5.075764e+01
8.300000e-07	2.815190e-08	-7.121384e-10	2.101510e-01	-4.572438e+01
8.400000e-07	7.926615e-08	-6.311718e-10	5.917136e-01	-4.058033e+01
8.500000e-07	1.303357e-07	-5.466989e-10	9.729422e-01	-3.533539e+01
8.600000e-07	1.813147e-07	-4.672021e-10	1.353496e+00	-2.999937e+01
8.700000e-07	2.322348e-07	-3.870971e-10	1.733609e+00	-2.458177e+01
8.800000e-07	2.830434e-07	-2.995209e-10	2.112889e+00	-1.909183e+01
8.900000e-07	3.335723e-07	-2.107751e-10	2.490083e+00	-1.353865e+01
9.000000e-07	3.838294e-07	-1.233219e-10	2.865247e+00	-7.931561e+00
9.100000e-07	4.339024e-07	-3.779363e-11	3.239037e+00	-2.280513e+00
9.200000e-07	4.837039e-07	4.940873e-11	3.610800e+00	3.403573e+00
9.300000e-07	5.332105e-07	1.348542e-10	3.980362e+00	9.108536e+00
9.400000e-07	5.823283e-07	2.221061e-10	4.347020e+00	1.482090e+01
9.500000e-07	6.309535e-07	3.109242e-10	4.710003e+00	2.052597e+01
9.600000e-07	6.792531e-07	3.985169e-10	5.070555e+00	2.620822e+01
9.700000e-07	7.273151e-07	4.844225e-10	5.429332e+00	3.185173e+01
9.800000e-07	7.751523e-07	5.705260e-10	5.786432e+00	3.744090e+01
9.900000e-07	8.228235e-07	6.596122e-10	6.142292e+00	4.296103e+01
1.000000e-06	8.703238e-07	7.445940e-10	6.496878e+00	4.839900e+01
1.010000e-06	9.175723e-07	8.264388e-10	6.849583e+00	5.374372e+01
1.020000e-06	9.645047e-07	9.067932e-10	7.199928e+00	5.898638e+01
1.030000e-06	1.011100e-06	9.874544e-10	7.547755e+00	6.412058e+01
1.040000e-06	1.057293e-06	1.065799e-09	7.892584e+00	6.914206e+01
1.050000e-06	1.103103e-06	1.140329e-09	8.234547e+00	7.404844e+01
1.060000e-06	1.148508e-06	1.212466e-09	8.573493e+00	7.883864e+01
1.070000e-06	1.193490e-06	1.283764e-09	8.909282e+00	8.351239e+01
1.080000e-06	1.238045e-06	1.355050e-09	9.241881e+00	8.806970e+01
1.090000e-06	1.282177e-06	1.423940e-09	9.571320e+00	9.251045e+01
1.100000e-06	1.326004e-06	1.491704e-09	9.898485e+00	9.683414e+01
1.110000e-06	1.369603e-06	1.555725e-09	1.022394e+01	1.010398e+02
1.120000e-06	1.412913e-06	1.616382e-09	1.054725e+01	1.051262e+02
1.130000e-06	1.455759e-06	1.676095e-09	1.086709e+01	1.090917e+02
1.140000e-06	1.497718e-06	1.735008e-09	1.118031e+01	1.129352e+02
1.150000e-06	1.538651e-06	1.792279e-09	1.148587e+01	1.166559e+02
1.160000e-06	1.578886e-06	1.846251e-09	1.178622e+01	1.202538e+02
1.170000e-06	1.618653e-06	1.898826e-09	1.208307e+01	1.237301e+02
1.180000e-06	1.658035e-06	1.949687e-09	1.237706e+01	1.270865e+02
1.190000e-06	1.696928e-06	1.999041e-09	1.266740e+01	1.303260e+02
1.200000e-06	1.735202e-06	2.046763e-09	1.295310e+01	1.334519e+02
1.210000e-06	1.772899e-06	2.094002e-09	1.323450e+01	1.364679e+02
1.220000e-06	1.810003e-06	2.139994e-09	1.351148e+01	1.393773e+02
1.230000e-06	1.846440e-06	2.184265e-09	1.378349e+01	1.421831e+02
1.240000e-06	1.882357e-06	2.225104e-09	1.405160e+01	1.448877e+02
1.250000e-06	1.917881e-06	2.262201e-09	1.431678e+01	1.474925e+02
1.260000e-06	1.952842e-06	2.298586e-09	1.457776e+01	1.499984e+02
1.270000e-06	1.986864e-06	2.335007e-09	1.483174e+01	1.524058e+02
1.280000e-06	2.019778e-06	2.370469e-09	1.507743e+01	1.547152e+02
1.290000e-06	2.051845e-06	2.402407e-09	1.531681e+01	1.569271e+02
1.300000e-06	2.083326e-06	2.434076e-09	1.555181e+01	1.590430e+02
1.310000e-06	2.114213e-06	2.466431e-09	1.578239e+01	1.610655e+02
1.320000e-06	2.144419e-06	2.497927e-09	1.600787e+01	1.629980e+02
1.330000e-06	2.173879e-06	2.525391e-09	1.622778e+01	1.648455e+02
1.340000e-06	2.202564e-06	2.549813e-09	1.644191e+01	1.666135e+02
1.350000e-06	2.230555e-06	2.576560e-09	1.665087e+01	1.683083e+02
1.360000e-06	2.257966e-06	2.604827e-09	1.685548e+01	1.699359e+02
1.370000e-06	2.284615e-06	2.629391e-09	1.705442e+01	1.715019e+02
1.380000e-06	2.310172e-06	2.650450e-09	1.724520e+01	1.730108e+02
1.390000e-06	2.334605e-06	2.672816e-09	1.742758e+01	1.744658e+02
1.400000e-06	2.358189e-06	2.697364e-09	1.760364e+01	1.758683e+02
1.410000e-06	2.381038e-06	2.720952e-09	1.777420e+01	1.772183e+02
1.420000e-06	2.403062e-06	2.740950e-09	1.793861e+01	1.785145e+02
1.430000e-06	2.424222e-06	2.759064e-09	1.809656e+01	1.797547e+02
1.440000e-06	2.444581e-06	2.777422e-09	1.824855e+01	1.809364e+02
1.450000e-06	2.464315e-06	2.794547e-09	1.839586e+01	1.820574e+02
1.460000e-06	2.483421e-06	2.809431e-09	1.853848e+01	1.831164e+02
1.470000e-06	2.501597e-06	2.823264e-09	1.867416e+01	1.841133e+02
1.480000e-06	2.518794e-06	2.838588e-09	1.880254e+01	1.850491e+02
1.490000e-06	2.535125e-06	2.854124e-09	1.892444e+01	1.859266e+02
1.500000e-06	2.550502e-06	2.869335e-09	1.903923e+01	1.867493e+02
1.510000e-06	2.564835e-06	2.883462e-09	1.914623e+01	1.875214e+02
1.520000e-06	2.578192e-06	2.896402e-09	1.924594e+01	1.882471e+02
1.530000e-06	2.590674e-06	2.908819e-09	1.933911e+01	1.889302e+02
1.540000e-06	2.602242e-06	2.917832e-09	1.942546e+01	1.895737e+02
1.550000e-06	2.612653e-06	2.925247e-09	1.950318e+01	1.901790e+02
1.560000e-06	2.621750e-06	2.936094e-09	1.957110e+01	1.907464e+02
1.570000e-06	2.629781e-06	2.947823e-09	1.963105e+01	1.912752e+02
1.580000e-06	2.637016e-06	2.955232e-09	1.968505e+01	1.917636e+02
1.590000e-06	2.643444e-06	2.960711e-09	1.973304e+01	1.922099e+02
1.600000e-06	2.648939e-06	2.968852e-09	1.977405e+01	1.926123e+02
1.610000e-06	2.653489e-06	2.978450e-09	1.980802e+01	1.929703e+02
1.620000e-06	2.657289e-06	2.986327e-09	1.983638e+01	1.932842e+02
1.630000e-06	2.660332e-06	2.990925e-09	1.985911e+01	1.935559e+02
1.640000e-06	2.662245e-06	2.994523e-09	1.987338e+01	1.937885e+02
1.650000e-06	2.662930e-06	3.000917e-09	1.987850e+01	1.939856e+02
1.660000e-06	2.662720e-06	3.006725e-09	1.987693e+01	1.941512e+02
1.670000e-06	2.661702e-06	3.008343e-09	1.986933e+01	1.942884e+02
1.680000e-06	2.659790e-06	3.008740e-09	1.985505e+01	1.943991e+02
1.690000e-06	2.657021e-06	3.011825e-09	1.983439e+01	1.944830e+02
1.700000e-06	2.653457e-06	3.014670e-09	1.980778e+01	1.945371e+02
1.710000e-06	2.649223e-06	3.015408e-09	1.977618e+01	1.945561e+02
1.720000e-06	2.644310e-06	3.013456e-09	1.973950e+01	1.945323e+02
1.730000e-06	2.638392e-06	3.009148e-09	1.969532e+01	1.944569e+02
1.740000e-06	2.631203e-06	3.008550e-09	1.964166e+01	1.943202e+02
1.750000e-06	2.622789e-06	2.995264e-09	1.957885e+01	1.941137e+02
1.760000e-06	2.613053e-06	2.988543e-09	1.950617e+01	1.938311e+02
1.770000e-06	2.602334e-06	3.009653e-09	1.942616e+01	1.934694e+02
1.780000e-06	2.591491e-06	3.023811e-09	1.934521e+01	1.930296e+02
1.790000e-06	2.580281e-06	3.007099e-09	1.926153e+01	1.925176e+02
1.800000e-06	2.567443e-06	2.932116e-09	1.916570e+01	1.919433e+02
1.810000e-06	2.552818e-06	2.942762e-09	1.905652e+01	1.913205e+02
1.820000e-06	2.537684e-06	2.947162e-09	1.894355e+01	1.906651e+02
1.830000e-06	2.522086e-06	2.911349e-09	1.882711e+01	1.899940e+02
1.840000e-06	2.505079e-06	2.890275e-09	1.870016e+01	1.893231e+02
1.850000e-06	2.487085e-06	2.897063e-09	1.856583e+01	1.886652e+02
1.860000e-06	2.468728e-06	2.884452e-09	1.842880e+01	1.880291e+02
1.870000e-06	2.449588e-06	2.858053e-09	1.828592e+01	1.874181e+02
1.880000e-06	2.429547e-06	2.881636e-09	1.813632e+01	1.868299e+02
1.890000e-06	2.408896e-06	2.810222e-09	1.798216e+01	1.862562e+02
1.900000e-06	2.387245e-06	2.756097e-09	1.782054e+01	1.856845e+02
1.910000e-06	2.364211e-06	2.809109e-09	1.764859e+01	1.850984e+02
1.920000e-06	2.340152e-06	2.808004e-09	1.746899e+01	1.844803e+02
1.930000e-06	2.315422e-06	2.720522e-09	1.728438e+01	1.838128e+02
1.940000e-06	2.290014e-06	2.744733e-09	1.709471e+01	1.830808e+02
1.950000e-06	2.263760e-06	2.775838e-09	1.689874e+01	1.822727e+02
1.960000e-06	2.236529e-06	2.708064e-09	1.669546e+01	1.813820e+02
1.970000e-06	2.208643e-06	2.681126e-09	1.648729e+01	1.804073e+02
1.980000e-06	2.180170e-06	2.706465e-09	1.627474e+01	1.793521e+02
1.990000e-06	2.150744e-06	2.683499e-09	1.605509e+01	1.782243e+02
2.000000e-06	2.120461e-06	2.648869e-09	1.582902e+01	1.770346e+02
2.010000e-06	2.089527e-06	2.637214e-09	1.559810e+01	1.757952e+02
2.020000e-06	2.057697e-06	2.635205e-09	1.536050e+01	1.745179e+02
2.030000e-06	2.025092e-06	2.597198e-09	1.511710e+01	1.732125e+02
2.040000e-06	1.991998e-06	2.568769e-09	1.487006e+01	1.718860e+02
2.050000e-06	1.958129e-06	2.596165e-09	1.461723e+01	1.705414e+02
2.060000e-06	1.923453e-06	2.548376e-09	1.435838e+01	1.691781e+02
2.070000e-06	1.888227e-06	2.487776e-09	1.409542e+01	1.677916e+02
2.080000e-06	1.852487e-06	2.515683e-09	1.382862e+01	1.663747e+02
2.090000e-06	1.816177e-06	2.511811e-09	1.355757e+01	1.649187e+02
2.100000e-06	1.779190e-06	2.440847e-09	1.328147e+01	1.634144e+02
2.110000e-06	1.741450e-06	2.421441e-09	1.299975e+01	1.618536e+02
2.120000e-06	1.702909e-06	2.418208e-09	1.271204e+01	1.602298e+02
2.130000e-06	1.663476e-06	2.389954e-09	1.241768e+01	1.585393e+02
2.140000e-06	1.623444e-06	2.361249e-09	1.211884e+01	1.567811e+02
2.150000e-06	1.583090e-06	2.327390e-09	1.181760e+01	1.549566e+02
2.160000e-06	1.542182e-06	2.308124e-09	1.151223e+01	1.530694e+02
2.170000e-06	1.500639e-06	2.271307e-09	1.120212e+01	1.511243e+02
2.180000e-06	1.458602e-06	2.246574e-09	1.088832e+01	1.491260e+02
2.190000e-06	1.416126e-06	2.231803e-09	1.057123e+01	1.470786e+02
2.200000e-06	1.373130e-06	2.179954e-09	1.025027e+01	1.449842e+02
2.210000e-06	1.329600e-06	2.140013e-09	9.925327e+00	1.428431e+02
2.220000e-06	1.285690e-06	2.130699e-09	9.597546e+00	1.406530e+02
2.230000e-06	1.241544e-06	2.102448e-09	9.267999e+00	1.384095e+02
2.240000e-06	1.197186e-06	2.046724e-09	8.936870e+00	1.361064e+02
2.250000e-06	1.152580e-06	2.007982e-09	8.603892e+00	1.337367e+02
2.260000e-06	1.107525e-06	1.981408e-09	8.267559e+00	1.312931e+02
2.270000e-06	1.061784e-06	1.946816e-09	7.926106e+00	1.287690e+02
2.280000e-06	1.015553e-06	1.900167e-09	7.580996e+00	1.261588e+02
2.290000e-06	9.690494e-07	1.860657e-09	7.233854e+00	1.234587e+02
2.300000e-06	9.222458e-07	1.820048e-09	6.884470e+00	1.206664e+02
2.310000e-06	8.751744e-07	1.773083e-09	6.533086e+00	1.177812e+02
2.320000e-06	8.278912e-07	1.736389e-09	6.180122e+00	1.148030e+02
2.330000e-06	7.803837e-07	1.693056e-09	5.825484e+00	1.117322e+02
2.340000e-06	7.325484e-07	1.638112e-09	5.468398e+00	1.085687e+02
2.350000e-06	6.843949e-07	1.581339e-09	5.108937e+00	1.053113e+02
2.360000e-06	6.359371e-07	1.540803e-09	4.747204e+00	1.019574e+02
2.370000e-06	5.871277e-07	1.495753e-09	4.382847e+00	9.850249e+01
2.380000e-06	5.380468e-07	1.432417e-09	4.016464e+00	9.494063e+01
2.390000e-06	4.887704e-07	1.373399e-09	3.648620e+00	9.126452e+01
2.400000e-06	4.393111e-07	1.321650e-09	3.279412e+00	8.746631e+01
2.410000e-06	3.896229e-07	1.264846e-09	2.908494e+00	8.353828e+01
2.420000e-06	3.398013e-07	1.202703e-09	2.536582e+00	7.947370e+01
2.430000e-06	2.899303e-07	1.141462e-09	2.164300e+00	7.526754e+01
2.440000e-06	2.399223e-07	1.072264e-09	1.790995e+00	7.091708e+01
2.450000e-06	1.897930e-07	1.000387e-09	1.416785e+00	6.642219e+01
2.460000e-06	1.396647e-07	9.326427e-10	1.042583e+00	6.178546e+01
2.470000e-06	8.949513e-08	8.646779e-10	6.680719e-01	5.701195e+01
2.480000e-06	3.920967e-08	7.868795e-10	2.926961e-01	5.210878e+01
2.490000e-06	-1.110636e-08	7.075290e-10	-8.290784e-02	4.708459e+01
2.500000e-06	-6.132552e-08	6.351981e-10	-4.577886e-01	4.194890e+01
2.510000e-06	-1.114855e-07	5.587426e-10	-8.322279e-01	3.671161e+01
2.520000e-06	-1.616866e-07	4.777316e-10	-1.206974e+00	3.138255e+01
2.530000e-06	-2.118319e-07	3.934292e-10	-1.581303e+00	2.597125e+01
2.540000e-06	-2.618662e-07	3.101348e-10	-1.954804e+00	2.048694e+01
2.550000e-06	-3.118442e-07	2.267029e-10	-2.327885e+00	1.493875e+01
2.560000e-06	-3.617085e-07	1.427695e-10	-2.700117e+00	9.335964e+00
2.570000e-06	-4.113438e-07	5.705527e-11	-3.070639e+00	3.688481e+00
2.580000e-06	-4.608251e-07	-3.212348e-11	-3.440012e+00	-1.992859e+00
2.590000e-06	-5.101501e-07	-1.219946e-10	-3.808218e+00	-7.695989e+00
2.600000e-06	-5.590538e-07	-2.064561e-10	-4.173279e+00	-1.340752e+01
2.610000e-06	-6.075090e-07	-2.872789e-10	-4.534992e+00	-1.911285e+01
2.620000e-06	-6.556537e-07	-3.734696e-10	-4.894387e+00	-2.479648e+01
2.630000e-06	-7.034667e-07	-4.612604e-10	-5.251306e+00	-3.044251e+01
2.640000e-06	-7.509150e-07	-5.460038e-10	-5.605503e+00	-3.603529e+01
2.650000e-06	-7.980649e-07	-6.271250e-10	-5.957472e+00	-4.156003e+01
2.660000e-06	-8.450271e-07	-7.104529e-10	-6.308040e+00	-4.700349e+01
2.670000e-06	-8.917922e-07	-7.936801e-10	-6.657137e+00	-5.235442e+01
2.680000e-06	-9.383171e-07	-8.735729e-10	-7.004441e+00	-5.760384e+01
2.690000e-06	-9.846203e-07	-9.501788e-10	-7.350089e+00	-6.274517e+01
2.700000e-06	-1.030669e-06	-1.024471e-09	-7.693839e+00	-6.777403e+01
2.710000e-06	-1.076285e-06	-1.098156e-09	-8.034355e+00	-7.268791e+01
2.720000e-06	-1.121436e-06	-1.170689e-09	-8.371407e+00	-7.748564e+01
2.730000e-06	-1.166184e-06	-1.243805e-09	-8.705443e+00	-8.216694e+01
2.740000e-06	-1.210554e-06	-1.312718e-09	-9.036662e+00	-8.673179e+01
2.750000e-06	-1.254678e-06	-1.378719e-09	-9.366044e+00	-9.118011e+01
2.760000e-06	-1.298607e-06	-1.446178e-09	-9.693968e+00	-9.551142e+01
2.770000e-06	-1.342205e-06	-1.513075e-09	-1.001942e+01	-9.972479e+01
2.780000e-06	-1.385281e-06	-1.575957e-09	-1.034098e+01	-1.038189e+02
2.790000e-06	-1.427811e-06	-1.633979e-09	-1.065846e+01	-1.077924e+02
2.800000e-06	-1.469895e-06	-1.690789e-09	-1.097261e+01	-1.116438e+02
2.810000e-06	-1.511455e-06	-1.748043e-09	-1.128286e+01	-1.153725e+02
2.820000e-06	-1.552380e-06	-1.803427e-09	-1.158836e+01	-1.189785e+02
2.830000e-06	-1.592816e-06	-1.855404e-09	-1.189020e+01	-1.224626e+02
2.840000e-06	-1.632861e-06	-1.906155e-09	-1.218914e+01	-1.258267e+02
2.850000e-06	-1.672460e-06	-1.956462e-09	-1.248474e+01	-1.290737e+02
2.860000e-06	-1.711406e-06	-2.005188e-09	-1.277547e+01	-1.322068e+02
2.870000e-06	-1.749466e-06	-2.052315e-09	-1.305958e+01	-1.352297e+02
2.880000e-06	-1.786609e-06	-2.096720e-09	-1.333685e+01	-1.381459e+02
2.890000e-06	-1.823051e-06	-2.138266e-09	-1.360889e+01	-1.409582e+02
2.900000e-06	-1.859009e-06	-2.178917e-09	-1.387731e+01	-1.436692e+02
2.910000e-06	-1.894447e-06	-2.218318e-09	-1.414185e+01	-1.462803e+02
2.920000e-06	-1.929222e-06	-2.254733e-09	-1.440145e+01	-1.487925e+02
2.930000e-06	-1.963321e-06	-2.290282e-09	-1.465599e+01	-1.512062e+02
2.940000e-06	-1.996731e-06	-2.327324e-09	-1.490539e+01	-1.535217e+02
