# Temperatura_=_20.0
# Concentracion g/m^3_=_9000.0
# C_Vs_to_Am_M_A/Vsm_=_65563218390.804596
# pendiente_HvsI_1/m_=_3716.3
# ordenada_HvsI_A/m_=_1297.0
# frecuencia_Hz_=_301063.2511923415

Tiempo_(s)	Campo_(V.s)	Magnetizacion_(V.s)	Campo_(kA/m)	Magnetizacion_(A/m)
0.000000e+00	-2.641593e-06	-2.907542e-09	-1.977390e+01	-1.945739e+02
1.000000e-08	-2.641401e-06	-2.910266e-09	-1.977246e+01	-1.946795e+02
2.000000e-08	-2.640241e-06	-2.914691e-09	-1.976378e+01	-1.947315e+02
3.000000e-08	-2.637809e-06	-2.915698e-09	-1.974557e+01	-1.947352e+02
4.000000e-08	-2.634391e-06	-2.914724e-09	-1.971998e+01	-1.946980e+02
5.000000e-08	-2.630298e-06	-2.912649e-09	-1.968935e+01	-1.946281e+02
6.000000e-08	-2.625414e-06	-2.908247e-09	-1.965279e+01	-1.945334e+02
7.000000e-08	-2.619639e-06	-2.899579e-09	-1.960956e+01	-1.944199e+02
8.000000e-08	-2.612915e-06	-2.889218e-09	-1.955922e+01	-1.942907e+02
9.000000e-08	-2.605223e-06	-2.928342e-09	-1.950165e+01	-1.941449e+02
1.000000e-07	-2.596404e-06	-2.980310e-09	-1.943563e+01	-1.939777e+02
1.100000e-07	-2.586280e-06	-2.909866e-09	-1.935985e+01	-1.937801e+02
1.200000e-07	-2.575161e-06	-2.777258e-09	-1.927661e+01	-1.935398e+02
1.300000e-07	-2.563240e-06	-2.810863e-09	-1.918738e+01	-1.932426e+02
1.400000e-07	-2.550402e-06	-2.992725e-09	-1.909128e+01	-1.928740e+02
1.500000e-07	-2.536765e-06	-2.912150e-09	-1.898920e+01	-1.924210e+02
1.600000e-07	-2.522228e-06	-2.812245e-09	-1.888038e+01	-1.918737e+02
1.700000e-07	-2.506158e-06	-2.865245e-09	-1.876009e+01	-1.912268e+02
1.800000e-07	-2.488929e-06	-2.854651e-09	-1.863112e+01	-1.904804e+02
1.900000e-07	-2.471420e-06	-2.839179e-09	-1.850006e+01	-1.896407e+02
2.000000e-07	-2.453207e-06	-2.945619e-09	-1.836372e+01	-1.887191e+02
2.100000e-07	-2.433864e-06	-2.854131e-09	-1.821892e+01	-1.877316e+02
2.200000e-07	-2.413902e-06	-2.649486e-09	-1.806950e+01	-1.866970e+02
2.300000e-07	-2.393492e-06	-2.850822e-09	-1.791671e+01	-1.856352e+02
2.400000e-07	-2.372031e-06	-3.012705e-09	-1.775607e+01	-1.845652e+02
2.500000e-07	-2.349328e-06	-2.794558e-09	-1.758612e+01	-1.835034e+02
2.600000e-07	-2.325945e-06	-2.688438e-09	-1.741109e+01	-1.824616e+02
2.700000e-07	-2.302092e-06	-2.915509e-09	-1.723254e+01	-1.814463e+02
2.800000e-07	-2.277434e-06	-2.906579e-09	-1.704795e+01	-1.804585e+02
2.900000e-07	-2.251677e-06	-2.755159e-09	-1.685514e+01	-1.794933e+02
3.000000e-07	-2.224751e-06	-2.745011e-09	-1.665359e+01	-1.785416e+02
3.100000e-07	-2.196994e-06	-2.806312e-09	-1.644581e+01	-1.775906e+02
3.200000e-07	-2.168660e-06	-2.763355e-09	-1.623372e+01	-1.766258e+02
3.300000e-07	-2.139668e-06	-2.709598e-09	-1.601669e+01	-1.756328e+02
3.400000e-07	-2.109976e-06	-2.757865e-09	-1.579443e+01	-1.745983e+02
3.500000e-07	-2.079412e-06	-2.723736e-09	-1.556564e+01	-1.735118e+02
3.600000e-07	-2.048071e-06	-2.592669e-09	-1.533104e+01	-1.723662e+02
3.700000e-07	-2.016377e-06	-2.659330e-09	-1.509379e+01	-1.711579e+02
3.800000e-07	-1.984171e-06	-2.786145e-09	-1.485270e+01	-1.698869e+02
3.900000e-07	-1.950837e-06	-2.552103e-09	-1.460318e+01	-1.685560e+02
4.000000e-07	-1.916384e-06	-2.488190e-09	-1.434527e+01	-1.671699e+02
4.100000e-07	-1.881266e-06	-2.701810e-09	-1.408240e+01	-1.657339e+02
4.200000e-07	-1.845597e-06	-2.632539e-09	-1.381539e+01	-1.642532e+02
4.300000e-07	-1.809335e-06	-2.410602e-09	-1.354395e+01	-1.627318e+02
4.400000e-07	-1.772507e-06	-2.506700e-09	-1.326827e+01	-1.611717e+02
4.500000e-07	-1.735076e-06	-2.582991e-09	-1.298808e+01	-1.595730e+02
4.600000e-07	-1.696954e-06	-2.439228e-09	-1.270271e+01	-1.579336e+02
4.700000e-07	-1.658154e-06	-2.395817e-09	-1.241228e+01	-1.562500e+02
4.800000e-07	-1.618853e-06	-2.426133e-09	-1.211808e+01	-1.545174e+02
4.900000e-07	-1.579225e-06	-2.393429e-09	-1.182144e+01	-1.527307e+02
5.000000e-07	-1.539296e-06	-2.325571e-09	-1.152255e+01	-1.508850e+02
5.100000e-07	-1.498884e-06	-2.331707e-09	-1.122004e+01	-1.489766e+02
5.200000e-07	-1.457632e-06	-2.296586e-09	-1.091125e+01	-1.470027e+02
5.300000e-07	-1.415354e-06	-2.227715e-09	-1.059477e+01	-1.449619e+02
5.400000e-07	-1.372300e-06	-2.214483e-09	-1.027249e+01	-1.428542e+02
5.500000e-07	-1.328838e-06	-2.231246e-09	-9.947148e+00	-1.406804e+02
5.600000e-07	-1.285082e-06	-2.167063e-09	-9.619602e+00	-1.384417e+02
5.700000e-07	-1.241004e-06	-2.070616e-09	-9.289656e+00	-1.361394e+02
5.800000e-07	-1.196566e-06	-2.083361e-09	-8.957012e+00	-1.337740e+02
5.900000e-07	-1.151657e-06	-2.090327e-09	-8.620841e+00	-1.313454e+02
6.000000e-07	-1.106276e-06	-2.010420e-09	-8.281137e+00	-1.288524e+02
6.100000e-07	-1.060516e-06	-1.929563e-09	-7.938596e+00	-1.262925e+02
6.200000e-07	-1.014305e-06	-1.931655e-09	-7.592681e+00	-1.236625e+02
6.300000e-07	-9.676960e-07	-1.908039e-09	-7.243782e+00	-1.209585e+02
6.400000e-07	-9.207949e-07	-1.834518e-09	-6.892699e+00	-1.181764e+02
6.500000e-07	-8.736426e-07	-1.787262e-09	-6.539736e+00	-1.153120e+02
6.600000e-07	-8.262820e-07	-1.757172e-09	-6.185213e+00	-1.123614e+02
6.700000e-07	-7.787281e-07	-1.708496e-09	-5.829245e+00	-1.093213e+02
6.800000e-07	-7.309703e-07	-1.651186e-09	-5.471748e+00	-1.061886e+02
6.900000e-07	-6.829332e-07	-1.616316e-09	-5.112163e+00	-1.029604e+02
7.000000e-07	-6.345648e-07	-1.554391e-09	-4.750096e+00	-9.963383e+01
7.100000e-07	-5.858370e-07	-1.484503e-09	-4.385339e+00	-9.620571e+01
7.200000e-07	-5.368537e-07	-1.445442e-09	-4.018670e+00	-9.267219e+01
7.300000e-07	-4.875739e-07	-1.408907e-09	-3.649781e+00	-8.902871e+01
7.400000e-07	-4.378851e-07	-1.332351e-09	-3.277831e+00	-8.526994e+01
7.500000e-07	-3.878539e-07	-1.258240e-09	-2.903317e+00	-8.138997e+01
7.600000e-07	-3.375329e-07	-1.219514e-09	-2.526635e+00	-7.738272e+01
7.700000e-07	-2.870419e-07	-1.159863e-09	-2.148680e+00	-7.324244e+01
7.800000e-07	-2.364288e-07	-1.073530e-09	-1.769811e+00	-6.896435e+01
7.900000e-07	-1.856653e-07	-9.998962e-10	-1.389815e+00	-6.454525e+01
8.000000e-07	-1.348382e-07	-9.456217e-10	-1.009345e+00	-5.998409e+01
8.100000e-07	-8.397027e-08	-8.680972e-10	-6.285676e-01	-5.528237e+01
8.200000e-07	-3.303850e-08	-7.832933e-10	-2.473129e-01	-5.044429e+01
8.300000e-07	1.791915e-08	-7.141314e-10	1.341355e-01	-4.547671e+01
8.400000e-07	6.884880e-08	-6.436974e-10	5.153743e-01	-4.038882e+01
8.500000e-07	1.197221e-07	-5.599902e-10	8.961911e-01	-3.519167e+01
8.600000e-07	1.705007e-07	-4.741534e-10	1.276300e+00	-2.989748e+01
8.700000e-07	2.211596e-07	-3.967939e-10	1.655511e+00	-2.451902e+01
8.800000e-07	2.717760e-07	-3.103619e-10	2.034406e+00	-1.906896e+01
8.900000e-07	3.222476e-07	-2.226355e-10	2.412215e+00	-1.355939e+01
9.000000e-07	3.724741e-07	-1.385887e-10	2.788191e+00	-8.001547e+00
9.100000e-07	4.223938e-07	-5.376642e-11	3.161870e+00	-2.405779e+00
9.200000e-07	4.719410e-07	3.829439e-11	3.532760e+00	3.218309e+00
9.300000e-07	5.211402e-07	1.248616e-10	3.901045e+00	8.861493e+00
9.400000e-07	5.699808e-07	2.035938e-10	4.266647e+00	1.451448e+01
9.500000e-07	6.185192e-07	2.952888e-10	4.629985e+00	2.016744e+01
9.600000e-07	6.667404e-07	3.910857e-10	4.990949e+00	2.580962e+01
9.700000e-07	7.147070e-07	4.763252e-10	5.350008e+00	3.142914e+01
9.800000e-07	7.625063e-07	5.535962e-10	5.707815e+00	3.701297e+01
9.900000e-07	8.101376e-07	6.427149e-10	6.064363e+00	4.254716e+01
1.000000e-06	8.575970e-07	7.329005e-10	6.419625e+00	4.801730e+01
1.010000e-06	9.048279e-07	8.128552e-10	6.773177e+00	5.340918e+01
1.020000e-06	9.517447e-07	8.910241e-10	7.124377e+00	5.870946e+01
1.030000e-06	9.982566e-07	9.727371e-10	7.472546e+00	6.390644e+01
1.040000e-06	1.044386e-06	1.053239e-09	7.817854e+00	6.899058e+01
1.050000e-06	1.090137e-06	1.127608e-09	8.160328e+00	7.395500e+01
1.060000e-06	1.135510e-06	1.203358e-09	8.499967e+00	7.879556e+01
1.070000e-06	1.180494e-06	1.275387e-09	8.836699e+00	8.351078e+01
1.080000e-06	1.225020e-06	1.344298e-09	9.170008e+00	8.810143e+01
1.090000e-06	1.269147e-06	1.414645e-09	9.500322e+00	9.256997e+01
1.100000e-06	1.312998e-06	1.485424e-09	9.828574e+00	9.691981e+01
1.110000e-06	1.356626e-06	1.548647e-09	1.015515e+01	1.011546e+02
1.120000e-06	1.399982e-06	1.605293e-09	1.047970e+01	1.052775e+02
1.130000e-06	1.442781e-06	1.667912e-09	1.080008e+01	1.092907e+02
1.140000e-06	1.484701e-06	1.729143e-09	1.111388e+01	1.131952e+02
1.150000e-06	1.525678e-06	1.784825e-09	1.142061e+01	1.169906e+02
1.160000e-06	1.565895e-06	1.837219e-09	1.172166e+01	1.206754e+02
1.170000e-06	1.605678e-06	1.894278e-09	1.201946e+01	1.242475e+02
1.180000e-06	1.645155e-06	1.950565e-09	1.231497e+01	1.277043e+02
1.190000e-06	1.684186e-06	2.000619e-09	1.260714e+01	1.310437e+02
1.200000e-06	1.722576e-06	2.050461e-09	1.289451e+01	1.342642e+02
1.210000e-06	1.760330e-06	2.099671e-09	1.317712e+01	1.373654e+02
1.220000e-06	1.797444e-06	2.146388e-09	1.345494e+01	1.403482e+02
1.230000e-06	1.833865e-06	2.190463e-09	1.372758e+01	1.432146e+02
1.240000e-06	1.869778e-06	2.232759e-09	1.399640e+01	1.459677e+02
1.250000e-06	1.905374e-06	2.270853e-09	1.426286e+01	1.486114e+02
1.260000e-06	1.940469e-06	2.310016e-09	1.452557e+01	1.511496e+02
1.270000e-06	1.974582e-06	2.349516e-09	1.478092e+01	1.535863e+02
1.280000e-06	2.007527e-06	2.386487e-09	1.502754e+01	1.559251e+02
1.290000e-06	2.039603e-06	2.419357e-09	1.526765e+01	1.581691e+02
1.300000e-06	2.071138e-06	2.451508e-09	1.550371e+01	1.603206e+02
1.310000e-06	2.102113e-06	2.484124e-09	1.573557e+01	1.623818e+02
1.320000e-06	2.132341e-06	2.513902e-09	1.596185e+01	1.643545e+02
1.330000e-06	2.161822e-06	2.540595e-09	1.618253e+01	1.662407e+02
1.340000e-06	2.190586e-06	2.567800e-09	1.639784e+01	1.680431e+02
1.350000e-06	2.218691e-06	2.598065e-09	1.660823e+01	1.697648e+02
1.360000e-06	2.246309e-06	2.626246e-09	1.681496e+01	1.714101e+02
1.370000e-06	2.273239e-06	2.650853e-09	1.701655e+01	1.729835e+02
1.380000e-06	2.299051e-06	2.675343e-09	1.720977e+01	1.744905e+02
1.390000e-06	2.323671e-06	2.699838e-09	1.739406e+01	1.759361e+02
1.400000e-06	2.347402e-06	2.722508e-09	1.757170e+01	1.773252e+02
1.410000e-06	2.370387e-06	2.744363e-09	1.774376e+01	1.786614e+02
1.420000e-06	2.392543e-06	2.764699e-09	1.790961e+01	1.799471e+02
1.430000e-06	2.413859e-06	2.781845e-09	1.806917e+01	1.811829e+02
1.440000e-06	2.434346e-06	2.799028e-09	1.822254e+01	1.823679e+02
1.450000e-06	2.454171e-06	2.817868e-09	1.837093e+01	1.834994e+02
1.460000e-06	2.473386e-06	2.835472e-09	1.851477e+01	1.845741e+02
1.470000e-06	2.491681e-06	2.851010e-09	1.865172e+01	1.855880e+02
1.480000e-06	2.508985e-06	2.868600e-09	1.878125e+01	1.865377e+02
1.490000e-06	2.525474e-06	2.885987e-09	1.890468e+01	1.874211e+02
1.500000e-06	2.540978e-06	2.900481e-09	1.902074e+01	1.882376e+02
1.510000e-06	2.555397e-06	2.913616e-09	1.912867e+01	1.889890e+02
1.520000e-06	2.568881e-06	2.925388e-09	1.922960e+01	1.896792e+02
1.530000e-06	2.581446e-06	2.936435e-09	1.932366e+01	1.903139e+02
1.540000e-06	2.593061e-06	2.945659e-09	1.941061e+01	1.909005e+02
1.550000e-06	2.603592e-06	2.954538e-09	1.948944e+01	1.914468e+02
1.560000e-06	2.612916e-06	2.965395e-09	1.955924e+01	1.919602e+02
1.570000e-06	2.621162e-06	2.976749e-09	1.962096e+01	1.924468e+02
1.580000e-06	2.628512e-06	2.986839e-09	1.967598e+01	1.929107e+02
1.590000e-06	2.635014e-06	2.994211e-09	1.972465e+01	1.933532e+02
1.600000e-06	2.640640e-06	3.000511e-09	1.976676e+01	1.937729e+02
1.610000e-06	2.645366e-06	3.007454e-09	1.980214e+01	1.941657e+02
1.620000e-06	2.649330e-06	3.013489e-09	1.983181e+01	1.945259e+02
1.630000e-06	2.652559e-06	3.018917e-09	1.985598e+01	1.948465e+02
1.640000e-06	2.654703e-06	3.023663e-09	1.987204e+01	1.951206e+02
1.650000e-06	2.655567e-06	3.029228e-09	1.987850e+01	1.953427e+02
1.660000e-06	2.655472e-06	3.035239e-09	1.987779e+01	1.955092e+02
1.670000e-06	2.654672e-06	3.038811e-09	1.987180e+01	1.956194e+02
1.680000e-06	2.653030e-06	3.038150e-09	1.985951e+01	1.956758e+02
1.690000e-06	2.650496e-06	3.040544e-09	1.984054e+01	1.956835e+02
1.700000e-06	2.647119e-06	3.043626e-09	1.981526e+01	1.956497e+02
1.710000e-06	2.643077e-06	3.043337e-09	1.978501e+01	1.955826e+02
1.720000e-06	2.638413e-06	3.041317e-09	1.975010e+01	1.954901e+02
1.730000e-06	2.632807e-06	3.054824e-09	1.970813e+01	1.953785e+02
1.740000e-06	2.625947e-06	3.051435e-09	1.965678e+01	1.952511e+02
1.750000e-06	2.617793e-06	2.981407e-09	1.959574e+01	1.951073e+02
1.760000e-06	2.608355e-06	2.945450e-09	1.952509e+01	1.949426e+02
1.770000e-06	2.597812e-06	3.094311e-09	1.944617e+01	1.947483e+02
1.780000e-06	2.586962e-06	3.136776e-09	1.936495e+01	1.945121e+02
1.790000e-06	2.576006e-06	3.013986e-09	1.928294e+01	1.942202e+02
1.800000e-06	2.563688e-06	2.897764e-09	1.919073e+01	1.938579e+02
1.810000e-06	2.549273e-06	3.019891e-09	1.908283e+01	1.934120e+02
1.820000e-06	2.534129e-06	3.011440e-09	1.896947e+01	1.928724e+02
1.830000e-06	2.518777e-06	2.935065e-09	1.885455e+01	1.922333e+02
1.840000e-06	2.502062e-06	3.056084e-09	1.872943e+01	1.914947e+02
1.850000e-06	2.484147e-06	2.948126e-09	1.859532e+01	1.906621e+02
1.860000e-06	2.465926e-06	2.816611e-09	1.845893e+01	1.897465e+02
1.870000e-06	2.447021e-06	2.997536e-09	1.831741e+01	1.887638e+02
1.880000e-06	2.427073e-06	3.015210e-09	1.816809e+01	1.877326e+02
1.890000e-06	2.406534e-06	2.621649e-09	1.801435e+01	1.866728e+02
1.900000e-06	2.385207e-06	2.689689e-09	1.785470e+01	1.856036e+02
1.910000e-06	2.362458e-06	2.983318e-09	1.768440e+01	1.845414e+02
1.920000e-06	2.338572e-06	2.751614e-09	1.750561e+01	1.834986e+02
1.930000e-06	2.314014e-06	2.558740e-09	1.732178e+01	1.824821e+02
1.940000e-06	2.288803e-06	2.822071e-09	1.713306e+01	1.814930e+02
1.950000e-06	2.262851e-06	2.783858e-09	1.693879e+01	1.805272e+02
1.960000e-06	2.235874e-06	2.591245e-09	1.673685e+01	1.795756e+02
1.970000e-06	2.208126e-06	2.688350e-09	1.652914e+01	1.786258e+02
1.980000e-06	2.179927e-06	2.718795e-09	1.631805e+01	1.776632e+02
1.990000e-06	2.150756e-06	2.621398e-09	1.609969e+01	1.766734e+02
2.000000e-06	2.120564e-06	2.582445e-09	1.587369e+01	1.756430e+02
2.010000e-06	2.089903e-06	2.653657e-09	1.564417e+01	1.745612e+02
2.020000e-06	2.058408e-06	2.675222e-09	1.540841e+01	1.734206e+02
2.030000e-06	2.025991e-06	2.489141e-09	1.516575e+01	1.722175e+02
2.040000e-06	1.993142e-06	2.478345e-09	1.491986e+01	1.709516e+02
2.050000e-06	1.959609e-06	2.719045e-09	1.466884e+01	1.696256e+02
2.060000e-06	1.925184e-06	2.528369e-09	1.441115e+01	1.682440e+02
2.070000e-06	1.890152e-06	2.322546e-09	1.414891e+01	1.668121e+02
2.080000e-06	1.854617e-06	2.558412e-09	1.388292e+01	1.653352e+02
2.090000e-06	1.818524e-06	2.562159e-09	1.361274e+01	1.638173e+02
2.100000e-06	1.781818e-06	2.348198e-09	1.333797e+01	1.622606e+02
2.110000e-06	1.744482e-06	2.371742e-09	1.305849e+01	1.606654e+02
2.120000e-06	1.706332e-06	2.441256e-09	1.277291e+01	1.590298e+02
2.130000e-06	1.667173e-06	2.379128e-09	1.247978e+01	1.573502e+02
2.140000e-06	1.627315e-06	2.303956e-09	1.218142e+01	1.556219e+02
2.150000e-06	1.587134e-06	2.303282e-09	1.188065e+01	1.538399e+02
2.160000e-06	1.546468e-06	2.327047e-09	1.157623e+01	1.519994e+02
2.170000e-06	1.505121e-06	2.233265e-09	1.126673e+01	1.500962e+02
2.180000e-06	1.463274e-06	2.194229e-09	1.095348e+01	1.481277e+02
2.190000e-06	1.421039e-06	2.252706e-09	1.063732e+01	1.460925e+02
2.200000e-06	1.378268e-06	2.161068e-09	1.031716e+01	1.439902e+02
2.210000e-06	1.334918e-06	2.075202e-09	9.992659e+00	1.418218e+02
2.220000e-06	1.291201e-06	2.118887e-09	9.665413e+00	1.395884e+02
2.230000e-06	1.247217e-06	2.116297e-09	9.336167e+00	1.372913e+02
2.240000e-06	1.202988e-06	2.001755e-09	9.005082e+00	1.349312e+02
2.250000e-06	1.158520e-06	1.950528e-09	8.672210e+00	1.325079e+02
2.260000e-06	1.113676e-06	1.987157e-09	8.336529e+00	1.300202e+02
2.270000e-06	1.068234e-06	1.935830e-09	7.996368e+00	1.274659e+02
2.280000e-06	1.022266e-06	1.840913e-09	7.652268e+00	1.248417e+02
2.290000e-06	9.759253e-07	1.830683e-09	7.305383e+00	1.221439e+02
2.300000e-06	9.292580e-07	1.820081e-09	6.956050e+00	1.193682e+02
2.310000e-06	8.823147e-07	1.740986e-09	6.604652e+00	1.165105e+02
2.320000e-06	8.351809e-07	1.692983e-09	6.251827e+00	1.135669e+02
2.330000e-06	7.878402e-07	1.673466e-09	5.897453e+00	1.105340e+02
2.340000e-06	7.402040e-07	1.619701e-09	5.540869e+00	1.074087e+02
2.350000e-06	6.923383e-07	1.544745e-09	5.182565e+00	1.041881e+02
2.360000e-06	6.441765e-07	1.515544e-09	4.822046e+00	1.008694e+02
2.370000e-06	5.956460e-07	1.485644e-09	4.458766e+00	9.744938e+01
2.380000e-06	5.467683e-07	1.398953e-09	4.092887e+00	9.392425e+01
2.390000e-06	4.977039e-07	1.341996e-09	3.725611e+00	9.028950e+01
2.400000e-06	4.485052e-07	1.312796e-09	3.357329e+00	8.653986e+01
2.410000e-06	3.990062e-07	1.250002e-09	2.986800e+00	8.266946e+01
2.420000e-06	3.492560e-07	1.168272e-09	2.614390e+00	7.867221e+01
2.430000e-06	2.993709e-07	1.115915e-09	2.240970e+00	7.454231e+01
2.440000e-06	2.494065e-07	1.068209e-09	1.866957e+00	7.027490e+01
2.450000e-06	1.993926e-07	9.856405e-10	1.492573e+00	6.586665e+01
2.460000e-06	1.493172e-07	9.056011e-10	1.117728e+00	6.131633e+01
2.470000e-06	9.920669e-08	8.534059e-10	7.426213e-01	5.662525e+01
2.480000e-06	4.904003e-08	7.869942e-10	3.670939e-01	5.179742e+01
2.490000e-06	-1.109224e-09	6.939026e-10	-8.303207e-03	4.683952e+01
2.500000e-06	-5.120405e-08	6.182763e-10	-3.832928e-01	4.176059e+01
2.510000e-06	-1.012965e-07	5.531994e-10	-7.582645e-01	3.657155e+01
2.520000e-06	-1.513784e-07	4.730808e-10	-1.133158e+00	3.128459e+01
2.530000e-06	-2.013628e-07	3.821307e-10	-1.507320e+00	2.591243e+01
2.540000e-06	-2.512413e-07	3.036524e-10	-1.880691e+00	2.046778e+01
2.550000e-06	-3.010726e-07	2.262520e-10	-2.253708e+00	1.496279e+01
2.560000e-06	-3.508040e-07	1.368375e-10	-2.625977e+00	9.408753e+00
2.570000e-06	-4.003424e-07	5.646717e-11	-2.996802e+00	3.816078e+00
2.580000e-06	-4.496950e-07	-2.425899e-11	-3.366235e+00	-1.805586e+00
2.590000e-06	-4.989083e-07	-1.175704e-10	-3.734626e+00	-7.447000e+00
2.600000e-06	-5.477149e-07	-2.082971e-10	-4.099973e+00	-1.309889e+01
2.610000e-06	-5.959694e-07	-2.836416e-10	-4.461187e+00	-1.875149e+01
2.620000e-06	-6.440422e-07	-3.651119e-10	-4.821040e+00	-2.439411e+01
2.630000e-06	-6.919002e-07	-4.591822e-10	-5.179286e+00	-3.001497e+01
2.640000e-06	-7.392850e-07	-5.455671e-10	-5.533989e+00	-3.560109e+01
2.650000e-06	-7.863450e-07	-6.205674e-10	-5.886261e+00	-4.113858e+01
2.660000e-06	-8.332494e-07	-7.007185e-10	-6.237368e+00	-4.661307e+01
2.670000e-06	-8.799650e-07	-7.886942e-10	-6.587063e+00	-5.201028e+01
2.680000e-06	-9.264186e-07	-8.673809e-10	-6.934796e+00	-5.731681e+01
2.690000e-06	-9.726621e-07	-9.416248e-10	-7.280956e+00	-6.252080e+01
2.700000e-06	-1.018660e-06	-1.018219e-09	-7.625276e+00	-6.761256e+01
2.710000e-06	-1.064293e-06	-1.093862e-09	-7.966867e+00	-7.258499e+01
2.720000e-06	-1.109438e-06	-1.164771e-09	-8.304805e+00	-7.743377e+01
2.730000e-06	-1.154123e-06	-1.238081e-09	-8.639298e+00	-8.215722e+01
2.740000e-06	-1.198467e-06	-1.311513e-09	-8.971240e+00	-8.675600e+01
2.750000e-06	-1.242577e-06	-1.376366e-09	-9.301428e+00	-9.123244e+01
2.760000e-06	-1.286456e-06	-1.441952e-09	-9.629888e+00	-9.558993e+01
2.770000e-06	-1.329987e-06	-1.512570e-09	-9.955750e+00	-9.983210e+01
2.780000e-06	-1.373027e-06	-1.579628e-09	-1.027793e+01	-1.039622e+02
2.790000e-06	-1.415520e-06	-1.635561e-09	-1.059601e+01	-1.079825e+02
2.800000e-06	-1.457599e-06	-1.691692e-09	-1.091100e+01	-1.118940e+02
2.810000e-06	-1.499245e-06	-1.752603e-09	-1.122274e+01	-1.156965e+02
2.820000e-06	-1.540263e-06	-1.809523e-09	-1.152979e+01	-1.193886e+02
2.830000e-06	-1.580711e-06	-1.860433e-09	-1.183257e+01	-1.229681e+02
2.840000e-06	-1.620780e-06	-1.912439e-09	-1.213251e+01	-1.264326e+02
2.850000e-06	-1.660465e-06	-1.965092e-09	-1.242957e+01	-1.297797e+02
2.860000e-06	-1.699555e-06	-2.013305e-09	-1.272219e+01	-1.330080e+02
2.870000e-06	-1.737702e-06	-2.062105e-09	-1.300774e+01	-1.361170e+02
2.880000e-06	-1.774845e-06	-2.109527e-09	-1.328578e+01	-1.391075e+02
2.890000e-06	-1.811252e-06	-2.151979e-09	-1.355830e+01	-1.419814e+02
2.900000e-06	-1.847161e-06	-2.192494e-09	-1.382710e+01	-1.447418e+02
2.910000e-06	-1.882567e-06	-2.234093e-09	-1.409213e+01	-1.473924e+02
2.920000e-06	-1.917351e-06	-2.272471e-09	-1.435252e+01	-1.499373e+02
2.930000e-06	-1.951477e-06	-2.307795e-09	-1.460797e+01	-1.523805e+02
2.940000e-06	-1.984915e-06	-2.345030e-09	-1.485828e+01	-1.547255e+02
