# Temperatura_=_20.0
# Concentracion g/m^3_=_9000.0
# C_Vs_to_Am_M_A/Vsm_=_65563218390.804596
# pendiente_HvsI_1/m_=_3716.3
# ordenada_HvsI_A/m_=_1297.0
# frecuencia_Hz_=_301059.0943081987

Tiempo_(s)	Campo_(V.s)	Magnetizacion_(V.s)	Campo_(kA/m)	Magnetizacion_(A/m)
0.000000e+00	-2.649456e-06	-2.916430e-09	-1.977178e+01	-1.957812e+02
1.000000e-08	-2.649146e-06	-2.918838e-09	-1.976947e+01	-1.959554e+02
2.000000e-08	-2.647819e-06	-2.921600e-09	-1.975957e+01	-1.960699e+02
3.000000e-08	-2.645324e-06	-2.923264e-09	-1.974095e+01	-1.961254e+02
4.000000e-08	-2.641901e-06	-2.922997e-09	-1.971540e+01	-1.961253e+02
5.000000e-08	-2.637715e-06	-2.921183e-09	-1.968416e+01	-1.960761e+02
6.000000e-08	-2.632756e-06	-2.919378e-09	-1.964715e+01	-1.959863e+02
7.000000e-08	-2.626947e-06	-2.916486e-09	-1.960381e+01	-1.958649e+02
8.000000e-08	-2.620157e-06	-2.917161e-09	-1.955314e+01	-1.957205e+02
9.000000e-08	-2.612392e-06	-2.934859e-09	-1.949519e+01	-1.955593e+02
1.000000e-07	-2.603487e-06	-2.948409e-09	-1.942873e+01	-1.953841e+02
1.100000e-07	-2.593319e-06	-2.908353e-09	-1.935286e+01	-1.951932e+02
1.200000e-07	-2.582145e-06	-2.853922e-09	-1.926946e+01	-1.949803e+02
1.300000e-07	-2.570130e-06	-2.870403e-09	-1.917981e+01	-1.947345e+02
1.400000e-07	-2.557264e-06	-2.934592e-09	-1.908379e+01	-1.944410e+02
1.500000e-07	-2.543690e-06	-2.920638e-09	-1.898250e+01	-1.940833e+02
1.600000e-07	-2.529084e-06	-2.885897e-09	-1.887350e+01	-1.936442e+02
1.700000e-07	-2.512908e-06	-2.878970e-09	-1.875278e+01	-1.931084e+02
1.800000e-07	-2.495731e-06	-2.874711e-09	-1.862459e+01	-1.924640e+02
1.900000e-07	-2.478171e-06	-2.892367e-09	-1.849355e+01	-1.917046e+02
2.000000e-07	-2.459796e-06	-2.924477e-09	-1.835643e+01	-1.908302e+02
2.100000e-07	-2.440347e-06	-2.882551e-09	-1.821129e+01	-1.898473e+02
2.200000e-07	-2.420347e-06	-2.821382e-09	-1.806204e+01	-1.887690e+02
2.300000e-07	-2.399800e-06	-2.885131e-09	-1.790871e+01	-1.876136e+02
2.400000e-07	-2.378125e-06	-2.934595e-09	-1.774695e+01	-1.864032e+02
2.500000e-07	-2.355388e-06	-2.871041e-09	-1.757727e+01	-1.851612e+02
2.600000e-07	-2.332022e-06	-2.813511e-09	-1.740290e+01	-1.839103e+02
2.700000e-07	-2.308106e-06	-2.851788e-09	-1.722443e+01	-1.826702e+02
2.800000e-07	-2.283351e-06	-2.871681e-09	-1.703970e+01	-1.814559e+02
2.900000e-07	-2.257421e-06	-2.837710e-09	-1.684619e+01	-1.802764e+02
3.000000e-07	-2.230405e-06	-2.790643e-09	-1.664458e+01	-1.791340e+02
3.100000e-07	-2.202620e-06	-2.777633e-09	-1.643723e+01	-1.780248e+02
3.200000e-07	-2.174166e-06	-2.773797e-09	-1.622489e+01	-1.769393e+02
3.300000e-07	-2.145096e-06	-2.759111e-09	-1.600796e+01	-1.758637e+02
3.400000e-07	-2.115382e-06	-2.756711e-09	-1.578621e+01	-1.747823e+02
3.500000e-07	-2.084791e-06	-2.716969e-09	-1.555792e+01	-1.736784e+02
3.600000e-07	-2.053439e-06	-2.652738e-09	-1.532396e+01	-1.725368e+02
3.700000e-07	-2.021721e-06	-2.676641e-09	-1.508726e+01	-1.713452e+02
3.800000e-07	-1.989388e-06	-2.715389e-09	-1.484597e+01	-1.700946e+02
3.900000e-07	-1.955756e-06	-2.615920e-09	-1.459499e+01	-1.687803e+02
4.000000e-07	-1.921045e-06	-2.568299e-09	-1.433595e+01	-1.674014e+02
4.100000e-07	-1.885791e-06	-2.628904e-09	-1.407287e+01	-1.659604e+02
4.200000e-07	-1.850018e-06	-2.602624e-09	-1.380591e+01	-1.644617e+02
4.300000e-07	-1.813707e-06	-2.516303e-09	-1.353494e+01	-1.629110e+02
4.400000e-07	-1.776873e-06	-2.515303e-09	-1.326006e+01	-1.613138e+02
4.500000e-07	-1.739350e-06	-2.514638e-09	-1.298004e+01	-1.596744e+02
4.600000e-07	-1.701067e-06	-2.463916e-09	-1.269435e+01	-1.579952e+02
4.700000e-07	-1.662189e-06	-2.440035e-09	-1.240422e+01	-1.562764e+02
4.800000e-07	-1.622844e-06	-2.419283e-09	-1.211061e+01	-1.545160e+02
4.900000e-07	-1.583154e-06	-2.378531e-09	-1.181442e+01	-1.527103e+02
5.000000e-07	-1.543138e-06	-2.344944e-09	-1.151580e+01	-1.508545e+02
5.100000e-07	-1.502545e-06	-2.332415e-09	-1.121287e+01	-1.489435e+02
5.200000e-07	-1.460957e-06	-2.293782e-09	-1.090251e+01	-1.469724e+02
5.300000e-07	-1.418360e-06	-2.241459e-09	-1.058462e+01	-1.449377e+02
5.400000e-07	-1.375134e-06	-2.216676e-09	-1.026205e+01	-1.428371e+02
5.500000e-07	-1.331590e-06	-2.204341e-09	-9.937101e+00	-1.406698e+02
5.600000e-07	-1.287781e-06	-2.158710e-09	-9.610174e+00	-1.384366e+02
5.700000e-07	-1.243609e-06	-2.099295e-09	-9.280531e+00	-1.361388e+02
5.800000e-07	-1.199047e-06	-2.079464e-09	-8.947984e+00	-1.337784e+02
5.900000e-07	-1.154015e-06	-2.062148e-09	-8.611934e+00	-1.313568e+02
6.000000e-07	-1.108519e-06	-2.011024e-09	-8.272412e+00	-1.288745e+02
6.100000e-07	-1.062661e-06	-1.953657e-09	-7.930195e+00	-1.263306e+02
6.200000e-07	-1.016363e-06	-1.923640e-09	-7.584690e+00	-1.237227e+02
6.300000e-07	-9.696189e-07	-1.892503e-09	-7.235860e+00	-1.210467e+02
6.400000e-07	-9.225684e-07	-1.844134e-09	-6.884742e+00	-1.182971e+02
6.500000e-07	-8.752882e-07	-1.793470e-09	-6.531910e+00	-1.154675e+02
6.600000e-07	-8.278164e-07	-1.748003e-09	-6.177647e+00	-1.125512e+02
6.700000e-07	-7.801216e-07	-1.706874e-09	-5.821721e+00	-1.095415e+02
6.800000e-07	-7.321758e-07	-1.663521e-09	-5.463921e+00	-1.064323e+02
6.900000e-07	-6.839644e-07	-1.616411e-09	-5.104140e+00	-1.032183e+02
7.000000e-07	-6.353413e-07	-1.556933e-09	-4.741286e+00	-9.989551e+01
7.100000e-07	-5.863189e-07	-1.498529e-09	-4.375452e+00	-9.646054e+01
7.200000e-07	-5.370052e-07	-1.453298e-09	-4.007445e+00	-9.291082e+01
7.300000e-07	-4.872870e-07	-1.406021e-09	-3.636419e+00	-8.924411e+01
7.400000e-07	-4.371667e-07	-1.337149e-09	-3.262392e+00	-8.545813e+01
7.500000e-07	-3.868582e-07	-1.266157e-09	-2.886961e+00	-8.155029e+01
7.600000e-07	-3.363966e-07	-1.213680e-09	-2.510387e+00	-7.751749e+01
7.700000e-07	-2.857513e-07	-1.156828e-09	-2.132442e+00	-7.335620e+01
7.800000e-07	-2.349477e-07	-1.083037e-09	-1.753316e+00	-6.906266e+01
7.900000e-07	-1.840198e-07	-1.007332e-09	-1.373263e+00	-6.463333e+01
8.000000e-07	-1.330157e-07	-9.413915e-10	-9.926403e-01	-6.006543e+01
8.100000e-07	-8.190715e-08	-8.734854e-10	-6.112388e-01	-5.535758e+01
8.200000e-07	-3.074378e-08	-7.981995e-10	-2.294279e-01	-5.051037e+01
8.300000e-07	2.037766e-08	-7.196195e-10	1.520700e-01	-4.552683e+01
8.400000e-07	7.147242e-08	-6.394366e-10	5.333687e-01	-4.041267e+01
8.500000e-07	1.225560e-07	-5.598162e-10	9.145842e-01	-3.517630e+01
8.600000e-07	1.735600e-07	-4.802706e-10	1.295206e+00	-2.982861e+01
8.700000e-07	2.244635e-07	-3.957666e-10	1.675077e+00	-2.438249e+01
8.800000e-07	2.752539e-07	-3.046031e-10	2.054105e+00	-1.885219e+01
8.900000e-07	3.258854e-07	-2.182092e-10	2.431947e+00	-1.325268e+01
9.000000e-07	3.763035e-07	-1.378179e-10	2.808196e+00	-7.598919e+00
9.100000e-07	4.264343e-07	-5.260142e-11	3.182301e+00	-1.905317e+00
9.200000e-07	4.762701e-07	4.124836e-11	3.554205e+00	3.814640e+00
9.300000e-07	5.257884e-07	1.314379e-10	3.923739e+00	9.548555e+00
9.400000e-07	5.749443e-07	2.143315e-10	4.290568e+00	1.528505e+01
9.500000e-07	6.236797e-07	3.019971e-10	4.654260e+00	2.101350e+01
9.600000e-07	6.720122e-07	3.949566e-10	5.014946e+00	2.672366e+01
9.700000e-07	7.200834e-07	4.845560e-10	5.373681e+00	3.240528e+01
9.800000e-07	7.679462e-07	5.683580e-10	5.730861e+00	3.804769e+01
9.900000e-07	8.156110e-07	6.543855e-10	6.086564e+00	4.363964e+01
1.000000e-06	8.631345e-07	7.414946e-10	6.441211e+00	4.916924e+01
1.010000e-06	9.105117e-07	8.259942e-10	6.794768e+00	5.462421e+01
1.020000e-06	9.576351e-07	9.081896e-10	7.146430e+00	5.999224e+01
1.030000e-06	1.004343e-06	9.892460e-10	7.494988e+00	6.526155e+01
1.040000e-06	1.050565e-06	1.069410e-09	7.839926e+00	7.042156e+01
1.050000e-06	1.096378e-06	1.148124e-09	8.181807e+00	7.546347e+01
1.060000e-06	1.141810e-06	1.226491e-09	8.520853e+00	8.038070e+01
1.070000e-06	1.186872e-06	1.301001e-09	8.857129e+00	8.516921e+01
1.080000e-06	1.231560e-06	1.371565e-09	9.190614e+00	8.982747e+01
1.090000e-06	1.275790e-06	1.441266e-09	9.520690e+00	9.435618e+01
1.100000e-06	1.319628e-06	1.511726e-09	9.847830e+00	9.875776e+01
1.110000e-06	1.363231e-06	1.579050e-09	1.017322e+01	1.030356e+02
1.120000e-06	1.406597e-06	1.640197e-09	1.049684e+01	1.071935e+02
1.130000e-06	1.449526e-06	1.701216e-09	1.081721e+01	1.112344e+02
1.140000e-06	1.491739e-06	1.762862e-09	1.113222e+01	1.151603e+02
1.150000e-06	1.533011e-06	1.822033e-09	1.144022e+01	1.189717e+02
1.160000e-06	1.573424e-06	1.877883e-09	1.174181e+01	1.226674e+02
1.170000e-06	1.613269e-06	1.933549e-09	1.203915e+01	1.262445e+02
1.180000e-06	1.652701e-06	1.988836e-09	1.233341e+01	1.296996e+02
1.190000e-06	1.691648e-06	2.040549e-09	1.262406e+01	1.330287e+02
1.200000e-06	1.730038e-06	2.089099e-09	1.291055e+01	1.362283e+02
1.210000e-06	1.767858e-06	2.136305e-09	1.319279e+01	1.392962e+02
1.220000e-06	1.805053e-06	2.182084e-09	1.347035e+01	1.422320e+02
1.230000e-06	1.841567e-06	2.224961e-09	1.374284e+01	1.450375e+02
1.240000e-06	1.877513e-06	2.265563e-09	1.401109e+01	1.477168e+02
1.250000e-06	1.913074e-06	2.304401e-09	1.427647e+01	1.502762e+02
1.260000e-06	1.948158e-06	2.343203e-09	1.453828e+01	1.527234e+02
1.270000e-06	1.982400e-06	2.380822e-09	1.479382e+01	1.550672e+02
1.280000e-06	2.015530e-06	2.415818e-09	1.504106e+01	1.573162e+02
1.290000e-06	2.047718e-06	2.448328e-09	1.528126e+01	1.594785e+02
1.300000e-06	2.079269e-06	2.478987e-09	1.551672e+01	1.615610e+02
1.310000e-06	2.110275e-06	2.509288e-09	1.574810e+01	1.635684e+02
1.320000e-06	2.140616e-06	2.539537e-09	1.597452e+01	1.655037e+02
1.330000e-06	2.170170e-06	2.567859e-09	1.619507e+01	1.673680e+02
1.340000e-06	2.198957e-06	2.594983e-09	1.640990e+01	1.691610e+02
1.350000e-06	2.227058e-06	2.623445e-09	1.661960e+01	1.708814e+02
1.360000e-06	2.254572e-06	2.651423e-09	1.682492e+01	1.725277e+02
1.370000e-06	2.281397e-06	2.676731e-09	1.702511e+01	1.740989e+02
1.380000e-06	2.307219e-06	2.699867e-09	1.721781e+01	1.755950e+02
1.390000e-06	2.331901e-06	2.722901e-09	1.740200e+01	1.770171e+02
1.400000e-06	2.355668e-06	2.745473e-09	1.757937e+01	1.783678e+02
1.410000e-06	2.378615e-06	2.766593e-09	1.775061e+01	1.796508e+02
1.420000e-06	2.400720e-06	2.787116e-09	1.791557e+01	1.808707e+02
1.430000e-06	2.422031e-06	2.805252e-09	1.807460e+01	1.820321e+02
1.440000e-06	2.442535e-06	2.821491e-09	1.822761e+01	1.831395e+02
1.450000e-06	2.462369e-06	2.838176e-09	1.837563e+01	1.841966e+02
1.460000e-06	2.481606e-06	2.854100e-09	1.851919e+01	1.852058e+02
1.470000e-06	2.499979e-06	2.869105e-09	1.865630e+01	1.861684e+02
1.480000e-06	2.517354e-06	2.884719e-09	1.878596e+01	1.870845e+02
1.490000e-06	2.533855e-06	2.900070e-09	1.890910e+01	1.879532e+02
1.500000e-06	2.549412e-06	2.915130e-09	1.902519e+01	1.887736e+02
1.510000e-06	2.563895e-06	2.928713e-09	1.913328e+01	1.895448e+02
1.520000e-06	2.577383e-06	2.940563e-09	1.923393e+01	1.902668e+02
1.530000e-06	2.589953e-06	2.951800e-09	1.932774e+01	1.909409e+02
1.540000e-06	2.601630e-06	2.961711e-09	1.941488e+01	1.915697e+02
1.550000e-06	2.612245e-06	2.971534e-09	1.949409e+01	1.921572e+02
1.560000e-06	2.621533e-06	2.983462e-09	1.956340e+01	1.927080e+02
1.570000e-06	2.629699e-06	2.994619e-09	1.962434e+01	1.932275e+02
1.580000e-06	2.637091e-06	3.002922e-09	1.967951e+01	1.937201e+02
1.590000e-06	2.643576e-06	3.010677e-09	1.972790e+01	1.941895e+02
1.600000e-06	2.649089e-06	3.019465e-09	1.976904e+01	1.946372e+02
1.610000e-06	2.653770e-06	3.028261e-09	1.980398e+01	1.950626e+02
1.620000e-06	2.657691e-06	3.036213e-09	1.983323e+01	1.954626e+02
1.630000e-06	2.660841e-06	3.043833e-09	1.985674e+01	1.958319e+02
1.640000e-06	2.662931e-06	3.050850e-09	1.987234e+01	1.961639e+02
1.650000e-06	2.663756e-06	3.058013e-09	1.987850e+01	1.964514e+02
1.660000e-06	2.663608e-06	3.064491e-09	1.987739e+01	1.966875e+02
1.670000e-06	2.662668e-06	3.067954e-09	1.987038e+01	1.968669e+02
1.680000e-06	2.660917e-06	3.068485e-09	1.985731e+01	1.969868e+02
1.690000e-06	2.658339e-06	3.071033e-09	1.983807e+01	1.970474e+02
1.700000e-06	2.654905e-06	3.074274e-09	1.981244e+01	1.970522e+02
1.710000e-06	2.650814e-06	3.076255e-09	1.978192e+01	1.970073e+02
1.720000e-06	2.646082e-06	3.077644e-09	1.974660e+01	1.969212e+02
1.730000e-06	2.640333e-06	3.081154e-09	1.970370e+01	1.968029e+02
1.740000e-06	2.633321e-06	3.069734e-09	1.965138e+01	1.966609e+02
1.750000e-06	2.625115e-06	3.039067e-09	1.959013e+01	1.965019e+02
1.760000e-06	2.615628e-06	3.040184e-09	1.951934e+01	1.963287e+02
1.770000e-06	2.605057e-06	3.098817e-09	1.944045e+01	1.961402e+02
1.780000e-06	2.594236e-06	3.113307e-09	1.935970e+01	1.959303e+02
1.790000e-06	2.583174e-06	3.054723e-09	1.927715e+01	1.956883e+02
1.800000e-06	2.570633e-06	3.001883e-09	1.918356e+01	1.953998e+02
1.810000e-06	2.556237e-06	3.026195e-09	1.907613e+01	1.950484e+02
1.820000e-06	2.541103e-06	3.026964e-09	1.896319e+01	1.946167e+02
1.830000e-06	2.525514e-06	3.020830e-09	1.884686e+01	1.940893e+02
1.840000e-06	2.508682e-06	3.035615e-09	1.872124e+01	1.934540e+02
1.850000e-06	2.490809e-06	2.971808e-09	1.858786e+01	1.927040e+02
1.860000e-06	2.472480e-06	2.934161e-09	1.845109e+01	1.918387e+02
1.870000e-06	2.453395e-06	2.988166e-09	1.830866e+01	1.908643e+02
1.880000e-06	2.433410e-06	2.959595e-09	1.815952e+01	1.897933e+02
1.890000e-06	2.412858e-06	2.807210e-09	1.800615e+01	1.886438e+02
1.900000e-06	2.391328e-06	2.791616e-09	1.784548e+01	1.874376e+02
1.910000e-06	2.368378e-06	2.845578e-09	1.767422e+01	1.861982e+02
1.920000e-06	2.344418e-06	2.775116e-09	1.749541e+01	1.849483e+02
1.930000e-06	2.319815e-06	2.709589e-09	1.731181e+01	1.837079e+02
1.940000e-06	2.294587e-06	2.731355e-09	1.712354e+01	1.824925e+02
1.950000e-06	2.268523e-06	2.706529e-09	1.692904e+01	1.813114e+02
1.960000e-06	2.241441e-06	2.683861e-09	1.672694e+01	1.801675e+02
1.970000e-06	2.213670e-06	2.697584e-09	1.651969e+01	1.790572e+02
1.980000e-06	2.185361e-06	2.668599e-09	1.630843e+01	1.779715e+02
1.990000e-06	2.156127e-06	2.628488e-09	1.609027e+01	1.768969e+02
2.000000e-06	2.125999e-06	2.609265e-09	1.586544e+01	1.758174e+02
2.010000e-06	2.095201e-06	2.628585e-09	1.563561e+01	1.747167e+02
2.020000e-06	2.063458e-06	2.625746e-09	1.539873e+01	1.735794e+02
2.030000e-06	2.030922e-06	2.535404e-09	1.515592e+01	1.723927e+02
2.040000e-06	1.997918e-06	2.517057e-09	1.490963e+01	1.711476e+02
2.050000e-06	1.964182e-06	2.589180e-09	1.465787e+01	1.698391e+02
2.060000e-06	1.929607e-06	2.519992e-09	1.439985e+01	1.684658e+02
2.070000e-06	1.894436e-06	2.439727e-09	1.413738e+01	1.670302e+02
2.080000e-06	1.858776e-06	2.487024e-09	1.387127e+01	1.655365e+02
2.090000e-06	1.822526e-06	2.474071e-09	1.360075e+01	1.639904e+02
2.100000e-06	1.785574e-06	2.406809e-09	1.332499e+01	1.623974e+02
2.110000e-06	1.747904e-06	2.395368e-09	1.304387e+01	1.607620e+02
2.120000e-06	1.709430e-06	2.386277e-09	1.275676e+01	1.590867e+02
2.130000e-06	1.670047e-06	2.352394e-09	1.246286e+01	1.573718e+02
2.140000e-06	1.630044e-06	2.320293e-09	1.216433e+01	1.556156e+02
2.150000e-06	1.589722e-06	2.301387e-09	1.186343e+01	1.538144e+02
2.160000e-06	1.548863e-06	2.284066e-09	1.155852e+01	1.519634e+02
2.170000e-06	1.507326e-06	2.236359e-09	1.124854e+01	1.500575e+02
2.180000e-06	1.465335e-06	2.211614e-09	1.093519e+01	1.480920e+02
2.190000e-06	1.422960e-06	2.209504e-09	1.061896e+01	1.460630e+02
2.200000e-06	1.380012e-06	2.153347e-09	1.029845e+01	1.439682e+02
2.210000e-06	1.336505e-06	2.101300e-09	9.973779e+00	1.418067e+02
2.220000e-06	1.292678e-06	2.097167e-09	9.646717e+00	1.395792e+02
2.230000e-06	1.248576e-06	2.076347e-09	9.317601e+00	1.372871e+02
2.240000e-06	1.204216e-06	2.012369e-09	8.986560e+00	1.349321e+02
2.250000e-06	1.159594e-06	1.971153e-09	8.653566e+00	1.325159e+02
2.260000e-06	1.114506e-06	1.962235e-09	8.317089e+00	1.300390e+02
2.270000e-06	1.068811e-06	1.922807e-09	7.976088e+00	1.275007e+02
2.280000e-06	1.022621e-06	1.863591e-09	7.631391e+00	1.248986e+02
2.290000e-06	9.760712e-07	1.826433e-09	7.284011e+00	1.222287e+02
2.300000e-06	9.292393e-07	1.793861e-09	6.934524e+00	1.194856e+02
2.310000e-06	8.822008e-07	1.745576e-09	6.583495e+00	1.166631e+02
2.320000e-06	8.350199e-07	1.701790e-09	6.231404e+00	1.137542e+02
2.330000e-06	7.876117e-07	1.659783e-09	5.877617e+00	1.107525e+02
2.340000e-06	7.398390e-07	1.608335e-09	5.521109e+00	1.076516e+02
2.350000e-06	6.918310e-07	1.555924e-09	5.162845e+00	1.044464e+02
2.360000e-06	6.435928e-07	1.516909e-09	4.802864e+00	1.011325e+02
2.370000e-06	5.948947e-07	1.469154e-09	4.439450e+00	9.770671e+01
2.380000e-06	5.458359e-07	1.399820e-09	4.073345e+00	9.416634e+01
2.390000e-06	4.965829e-07	1.345206e-09	3.705790e+00	9.050913e+01
2.400000e-06	4.471310e-07	1.303285e-09	3.336752e+00	8.673283e+01
2.410000e-06	3.974279e-07	1.243791e-09	2.965838e+00	8.283486e+01
2.420000e-06	3.475380e-07	1.171477e-09	2.593531e+00	7.881217e+01
2.430000e-06	2.975729e-07	1.112385e-09	2.220662e+00	7.466126e+01
2.440000e-06	2.474998e-07	1.057840e-09	1.846988e+00	7.037836e+01
2.450000e-06	1.973592e-07	9.873056e-10	1.472809e+00	6.595990e+01
2.460000e-06	1.472001e-07	9.119380e-10	1.098493e+00	6.140304e+01
2.470000e-06	9.698209e-08	8.440289e-10	7.237367e-01	5.670627e+01
2.480000e-06	4.669705e-08	7.740046e-10	3.484805e-01	5.187002e+01
2.490000e-06	-3.570252e-09	6.972393e-10	-2.664330e-02	4.689713e+01
2.500000e-06	-5.380114e-08	6.211135e-10	-4.014954e-01	4.179312e+01
2.510000e-06	-1.040498e-07	5.424393e-10	-7.764798e-01	3.656622e+01
2.520000e-06	-1.543094e-07	4.603993e-10	-1.151546e+00	3.122715e+01
2.530000e-06	-2.044484e-07	3.797185e-10	-1.525713e+00	2.578866e+01
2.540000e-06	-2.544534e-07	3.011484e-10	-1.898879e+00	2.026496e+01
2.550000e-06	-3.044150e-07	2.168528e-10	-2.271721e+00	1.467097e+01
2.560000e-06	-3.542530e-07	1.284338e-10	-2.643642e+00	9.021666e+00
2.570000e-06	-4.039273e-07	4.530979e-11	-3.014340e+00	3.331523e+00
2.580000e-06	-4.534227e-07	-3.934738e-11	-3.383704e+00	-2.385904e+00
2.590000e-06	-5.026771e-07	-1.304763e-10	-3.751269e+00	-8.118138e+00
2.600000e-06	-5.516285e-07	-2.209851e-10	-4.116573e+00	-1.385373e+01
2.610000e-06	-6.001946e-07	-3.050274e-10	-4.479001e+00	-1.958202e+01
2.620000e-06	-6.484290e-07	-3.880770e-10	-4.838954e+00	-2.529276e+01
2.630000e-06	-6.963696e-07	-4.750546e-10	-5.196715e+00	-3.097569e+01
2.640000e-06	-7.439230e-07	-5.620298e-10	-5.551586e+00	-3.662020e+01
2.650000e-06	-7.911094e-07	-6.444609e-10	-5.903718e+00	-4.221506e+01
2.660000e-06	-8.381269e-07	-7.263113e-10	-6.254590e+00	-4.774846e+01
2.670000e-06	-8.849204e-07	-8.097205e-10	-6.603790e+00	-5.320810e+01
2.680000e-06	-9.314206e-07	-8.911206e-10	-6.950803e+00	-5.858166e+01
2.690000e-06	-9.777368e-07	-9.715103e-10	-7.296441e+00	-6.385732e+01
2.700000e-06	-1.023815e-06	-1.049482e-09	-7.640304e+00	-6.902438e+01
2.710000e-06	-1.069504e-06	-1.123410e-09	-7.981258e+00	-7.407389e+01
2.720000e-06	-1.114716e-06	-1.195904e-09	-8.318660e+00	-7.899912e+01
2.730000e-06	-1.159498e-06	-1.270759e-09	-8.652845e+00	-8.379584e+01
2.740000e-06	-1.203977e-06	-1.343517e-09	-8.984778e+00	-8.846233e+01
2.750000e-06	-1.248203e-06	-1.410480e-09	-9.314819e+00	-9.299915e+01
2.760000e-06	-1.292177e-06	-1.477220e-09	-9.642975e+00	-9.740864e+01
2.770000e-06	-1.335850e-06	-1.545644e-09	-9.968889e+00	-1.016942e+02
2.780000e-06	-1.379003e-06	-1.610212e-09	-1.029092e+01	-1.058594e+02
2.790000e-06	-1.421638e-06	-1.668913e-09	-1.060909e+01	-1.099075e+02
2.800000e-06	-1.463858e-06	-1.726239e-09	-1.092416e+01	-1.138406e+02
2.810000e-06	-1.505540e-06	-1.784521e-09	-1.123521e+01	-1.176591e+02
2.820000e-06	-1.546583e-06	-1.841330e-09	-1.154151e+01	-1.213620e+02
2.830000e-06	-1.587098e-06	-1.895319e-09	-1.184385e+01	-1.249466e+02
2.840000e-06	-1.627221e-06	-1.947401e-09	-1.214327e+01	-1.284095e+02
2.850000e-06	-1.666965e-06	-1.997418e-09	-1.243986e+01	-1.317466e+02
2.860000e-06	-1.706152e-06	-2.046394e-09	-1.273230e+01	-1.349545e+02
2.870000e-06	-1.744386e-06	-2.094930e-09	-1.301762e+01	-1.380308e+02
2.880000e-06	-1.781586e-06	-2.139849e-09	-1.329523e+01	-1.409749e+02
2.890000e-06	-1.818078e-06	-2.180041e-09	-1.356756e+01	-1.437885e+02
2.900000e-06	-1.854105e-06	-2.220254e-09	-1.383641e+01	-1.464756e+02
2.910000e-06	-1.889636e-06	-2.260811e-09	-1.410156e+01	-1.490423e+02
2.920000e-06	-1.924493e-06	-2.297431e-09	-1.436168e+01	-1.514961e+02
2.930000e-06	-1.958636e-06	-2.331852e-09	-1.461648e+01	-1.538459e+02
2.940000e-06	-1.992042e-06	-2.366846e-09	-1.486577e+01	-1.561003e+02
