# Temperatura_=_20.0
# Concentracion g/m^3_=_9000.0
# C_Vs_to_Am_M_A/Vsm_=_65563218390.804596
# pendiente_HvsI_1/m_=_3716.3
# ordenada_HvsI_A/m_=_1297.0
# frecuencia_Hz_=_301066.0647376116

Tiempo_(s)	Campo_(V.s)	Magnetizacion_(V.s)	Campo_(kA/m)	Magnetizacion_(A/m)
0.000000e+00	-2.639729e-06	-2.879292e-09	-1.977568e+01	-1.929368e+02
1.000000e-08	-2.639575e-06	-2.883589e-09	-1.977452e+01	-1.930925e+02
2.000000e-08	-2.638300e-06	-2.888281e-09	-1.976497e+01	-1.932178e+02
3.000000e-08	-2.635753e-06	-2.889977e-09	-1.974589e+01	-1.933140e+02
4.000000e-08	-2.632329e-06	-2.889862e-09	-1.972023e+01	-1.933804e+02
5.000000e-08	-2.628226e-06	-2.888550e-09	-1.968950e+01	-1.934137e+02
6.000000e-08	-2.623320e-06	-2.885451e-09	-1.965275e+01	-1.934082e+02
7.000000e-08	-2.617517e-06	-2.876408e-09	-1.960927e+01	-1.933564e+02
8.000000e-08	-2.610798e-06	-2.880065e-09	-1.955893e+01	-1.932502e+02
9.000000e-08	-2.603163e-06	-2.918011e-09	-1.950174e+01	-1.930815e+02
1.000000e-07	-2.594324e-06	-2.949279e-09	-1.943552e+01	-1.928442e+02
1.100000e-07	-2.584153e-06	-2.864766e-09	-1.935932e+01	-1.925344e+02
1.200000e-07	-2.573016e-06	-2.776708e-09	-1.927589e+01	-1.921522e+02
1.300000e-07	-2.561069e-06	-2.828198e-09	-1.918639e+01	-1.917016e+02
1.400000e-07	-2.548255e-06	-2.944257e-09	-1.909039e+01	-1.911906e+02
1.500000e-07	-2.534704e-06	-2.911052e-09	-1.898887e+01	-1.906306e+02
1.600000e-07	-2.520172e-06	-2.826608e-09	-1.888000e+01	-1.900354e+02
1.700000e-07	-2.504064e-06	-2.840682e-09	-1.875933e+01	-1.894195e+02
1.800000e-07	-2.486858e-06	-2.851693e-09	-1.863043e+01	-1.887968e+02
1.900000e-07	-2.469354e-06	-2.912997e-09	-1.849930e+01	-1.881789e+02
2.000000e-07	-2.451159e-06	-2.929593e-09	-1.836299e+01	-1.875733e+02
2.100000e-07	-2.431871e-06	-2.797169e-09	-1.821849e+01	-1.869829e+02
2.200000e-07	-2.411995e-06	-2.758554e-09	-1.806960e+01	-1.864056e+02
2.300000e-07	-2.391607e-06	-2.944867e-09	-1.791686e+01	-1.858339e+02
2.400000e-07	-2.370070e-06	-2.965496e-09	-1.775551e+01	-1.852564e+02
2.500000e-07	-2.347393e-06	-2.801804e-09	-1.758562e+01	-1.846585e+02
2.600000e-07	-2.324080e-06	-2.814700e-09	-1.741097e+01	-1.840246e+02
2.700000e-07	-2.300278e-06	-2.931770e-09	-1.723266e+01	-1.833394e+02
2.800000e-07	-2.275645e-06	-2.896904e-09	-1.704812e+01	-1.825898e+02
2.900000e-07	-2.249818e-06	-2.813424e-09	-1.685464e+01	-1.817663e+02
3.000000e-07	-2.222925e-06	-2.802657e-09	-1.665316e+01	-1.808640e+02
3.100000e-07	-2.195329e-06	-2.792862e-09	-1.644642e+01	-1.798825e+02
3.200000e-07	-2.167092e-06	-2.803019e-09	-1.623489e+01	-1.788262e+02
3.300000e-07	-2.138125e-06	-2.790071e-09	-1.601788e+01	-1.777033e+02
3.400000e-07	-2.108515e-06	-2.754356e-09	-1.579605e+01	-1.765243e+02
3.500000e-07	-2.078049e-06	-2.708317e-09	-1.556782e+01	-1.753007e+02
3.600000e-07	-2.046777e-06	-2.687006e-09	-1.533354e+01	-1.740434e+02
3.700000e-07	-2.015173e-06	-2.724797e-09	-1.509678e+01	-1.727613e+02
3.800000e-07	-1.983003e-06	-2.714072e-09	-1.485577e+01	-1.714605e+02
3.900000e-07	-1.949659e-06	-2.592888e-09	-1.460598e+01	-1.701431e+02
4.000000e-07	-1.915178e-06	-2.584207e-09	-1.434766e+01	-1.688078e+02
4.100000e-07	-1.880054e-06	-2.685866e-09	-1.408452e+01	-1.674499e+02
4.200000e-07	-1.844428e-06	-2.610367e-09	-1.381763e+01	-1.660623e+02
4.300000e-07	-1.808235e-06	-2.499425e-09	-1.354649e+01	-1.646364e+02
4.400000e-07	-1.771455e-06	-2.538707e-09	-1.327095e+01	-1.631637e+02
4.500000e-07	-1.734029e-06	-2.565239e-09	-1.299057e+01	-1.616365e+02
4.600000e-07	-1.695934e-06	-2.483104e-09	-1.270518e+01	-1.600491e+02
4.700000e-07	-1.657252e-06	-2.443002e-09	-1.241539e+01	-1.583979e+02
4.800000e-07	-1.618072e-06	-2.442654e-09	-1.212188e+01	-1.566821e+02
4.900000e-07	-1.578505e-06	-2.408279e-09	-1.182546e+01	-1.549032e+02
5.000000e-07	-1.538571e-06	-2.380528e-09	-1.152629e+01	-1.530641e+02
5.100000e-07	-1.498163e-06	-2.360636e-09	-1.122357e+01	-1.511685e+02
5.200000e-07	-1.456932e-06	-2.316710e-09	-1.091468e+01	-1.492202e+02
5.300000e-07	-1.414627e-06	-2.266498e-09	-1.059776e+01	-1.472217e+02
5.400000e-07	-1.371606e-06	-2.264394e-09	-1.027546e+01	-1.451741e+02
5.500000e-07	-1.328238e-06	-2.250626e-09	-9.950567e+00	-1.430763e+02
5.600000e-07	-1.284590e-06	-2.186613e-09	-9.623579e+00	-1.409253e+02
5.700000e-07	-1.240616e-06	-2.127664e-09	-9.294145e+00	-1.387160e+02
5.800000e-07	-1.196247e-06	-2.122241e-09	-8.961748e+00	-1.364424e+02
5.900000e-07	-1.151391e-06	-2.110825e-09	-8.625710e+00	-1.340979e+02
6.000000e-07	-1.106046e-06	-2.044793e-09	-8.286005e+00	-1.316761e+02
6.100000e-07	-1.060342e-06	-1.989305e-09	-7.943613e+00	-1.291715e+02
6.200000e-07	-1.014248e-06	-1.967593e-09	-7.598295e+00	-1.265801e+02
6.300000e-07	-9.676845e-07	-1.937402e-09	-7.249461e+00	-1.238994e+02
6.400000e-07	-9.207769e-07	-1.880210e-09	-6.898050e+00	-1.211284e+02
6.500000e-07	-8.736216e-07	-1.833735e-09	-6.544784e+00	-1.182674e+02
6.600000e-07	-8.263040e-07	-1.793350e-09	-6.190302e+00	-1.153170e+02
6.700000e-07	-7.787897e-07	-1.743757e-09	-5.834346e+00	-1.122778e+02
6.800000e-07	-7.310581e-07	-1.698458e-09	-5.476762e+00	-1.091495e+02
6.900000e-07	-6.830825e-07	-1.656439e-09	-5.117350e+00	-1.059303e+02
7.000000e-07	-6.347179e-07	-1.599913e-09	-4.755024e+00	-1.026167e+02
7.100000e-07	-5.859827e-07	-1.534651e-09	-4.389922e+00	-9.920323e+01
7.200000e-07	-5.369311e-07	-1.489102e-09	-4.022449e+00	-9.568293e+01
7.300000e-07	-4.875692e-07	-1.441176e-09	-3.652652e+00	-9.204756e+01
7.400000e-07	-4.378383e-07	-1.374482e-09	-3.280090e+00	-8.828850e+01
7.500000e-07	-3.877429e-07	-1.308823e-09	-2.904798e+00	-8.439753e+01
7.600000e-07	-3.374715e-07	-1.255393e-09	-2.528186e+00	-8.036763e+01
7.700000e-07	-2.870510e-07	-1.191630e-09	-2.150459e+00	-7.619368e+01
7.800000e-07	-2.364440e-07	-1.116277e-09	-1.771334e+00	-7.187300e+01
7.900000e-07	-1.857110e-07	-1.052013e-09	-1.391264e+00	-6.740553e+01
8.000000e-07	-1.348973e-07	-9.857479e-10	-1.010590e+00	-6.279387e+01
8.100000e-07	-8.399924e-08	-9.060625e-10	-6.292849e-01	-5.804294e+01
8.200000e-07	-3.301742e-08	-8.269936e-10	-2.473518e-01	-5.315953e+01
8.300000e-07	1.798939e-08	-7.583891e-10	1.347685e-01	-4.815176e+01
8.400000e-07	6.895269e-08	-6.823111e-10	5.165629e-01	-4.302847e+01
8.500000e-07	1.197872e-07	-5.955261e-10	8.973922e-01	-3.779876e+01
8.600000e-07	1.705427e-07	-5.106882e-10	1.277630e+00	-3.247169e+01
8.700000e-07	2.212424e-07	-4.298383e-10	1.657449e+00	-2.705613e+01
8.800000e-07	2.718138e-07	-3.459585e-10	2.036308e+00	-2.156086e+01
8.900000e-07	3.221577e-07	-2.578983e-10	2.413462e+00	-1.599485e+01
9.000000e-07	3.722790e-07	-1.713417e-10	2.788949e+00	-1.036756e+01
9.100000e-07	4.222181e-07	-8.239599e-11	3.163070e+00	-4.689392e+00
9.200000e-07	4.718282e-07	5.402991e-12	3.534727e+00	1.028047e+00
9.300000e-07	5.210592e-07	8.960065e-11	3.903544e+00	6.771770e+00
9.400000e-07	5.699910e-07	1.760007e-10	4.270119e+00	1.252744e+01
9.500000e-07	6.185892e-07	2.711669e-10	4.634195e+00	1.827961e+01
9.600000e-07	6.668088e-07	3.652412e-10	4.995435e+00	2.401221e+01
9.700000e-07	7.147523e-07	4.485445e-10	5.354606e+00	2.970909e+01
9.800000e-07	7.625170e-07	5.302216e-10	5.712438e+00	3.535473e+01
9.900000e-07	8.101024e-07	6.191345e-10	6.068927e+00	4.093490e+01
1.000000e-06	8.574957e-07	7.097213e-10	6.423976e+00	4.643716e+01
1.010000e-06	9.046993e-07	7.916005e-10	6.777605e+00	5.185126e+01
1.020000e-06	9.516908e-07	8.708896e-10	7.129644e+00	5.716923e+01
1.030000e-06	9.982937e-07	9.520322e-10	7.478772e+00	6.238528e+01
1.040000e-06	1.044427e-06	1.034219e-09	7.824381e+00	6.749544e+01
1.050000e-06	1.090152e-06	1.113693e-09	8.166937e+00	7.249709e+01
1.060000e-06	1.135477e-06	1.188468e-09	8.506487e+00	7.738835e+01
1.070000e-06	1.180426e-06	1.260759e-09	8.843228e+00	8.216754e+01
1.080000e-06	1.224953e-06	1.331638e-09	9.176802e+00	8.683270e+01
1.090000e-06	1.269050e-06	1.403646e-09	9.507158e+00	9.138130e+01
1.100000e-06	1.312804e-06	1.473492e-09	9.834944e+00	9.581019e+01
1.110000e-06	1.356292e-06	1.538325e-09	1.016074e+01	1.001157e+02
1.120000e-06	1.399512e-06	1.597909e-09	1.048452e+01	1.042940e+02
1.130000e-06	1.442278e-06	1.659474e-09	1.080490e+01	1.083416e+02
1.140000e-06	1.484221e-06	1.721951e-09	1.111912e+01	1.122557e+02
1.150000e-06	1.525179e-06	1.779988e-09	1.142596e+01	1.160346e+02
1.160000e-06	1.565353e-06	1.833706e-09	1.172693e+01	1.196784e+02
1.170000e-06	1.605059e-06	1.887131e-09	1.202439e+01	1.231887e+02
1.180000e-06	1.644402e-06	1.942607e-09	1.231913e+01	1.265686e+02
1.190000e-06	1.683297e-06	1.994859e-09	1.261051e+01	1.298226e+02
1.200000e-06	1.721672e-06	2.042124e-09	1.289800e+01	1.329557e+02
1.210000e-06	1.759402e-06	2.086267e-09	1.318065e+01	1.359736e+02
1.220000e-06	1.796431e-06	2.131251e-09	1.345806e+01	1.388812e+02
1.230000e-06	1.832847e-06	2.176877e-09	1.373088e+01	1.416829e+02
1.240000e-06	1.868773e-06	2.219748e-09	1.400002e+01	1.443820e+02
1.250000e-06	1.904275e-06	2.257441e-09	1.426598e+01	1.469803e+02
1.260000e-06	1.939240e-06	2.292932e-09	1.452793e+01	1.494788e+02
1.270000e-06	1.973342e-06	2.330517e-09	1.478340e+01	1.518777e+02
1.280000e-06	2.006379e-06	2.367115e-09	1.503090e+01	1.541769e+02
1.290000e-06	2.038481e-06	2.399029e-09	1.527140e+01	1.563767e+02
1.300000e-06	2.069952e-06	2.428633e-09	1.550716e+01	1.584782e+02
1.310000e-06	2.100890e-06	2.459124e-09	1.573893e+01	1.604835e+02
1.320000e-06	2.131161e-06	2.489218e-09	1.596571e+01	1.623966e+02
1.330000e-06	2.160709e-06	2.517885e-09	1.618707e+01	1.642226e+02
1.340000e-06	2.189465e-06	2.544588e-09	1.640250e+01	1.659679e+02
1.350000e-06	2.217508e-06	2.570815e-09	1.661258e+01	1.676394e+02
1.360000e-06	2.245054e-06	2.596914e-09	1.681894e+01	1.692443e+02
1.370000e-06	2.271921e-06	2.621567e-09	1.702022e+01	1.707889e+02
1.380000e-06	2.297627e-06	2.645226e-09	1.721280e+01	1.722785e+02
1.390000e-06	2.322100e-06	2.666803e-09	1.739614e+01	1.737166e+02
1.400000e-06	2.345725e-06	2.687845e-09	1.757313e+01	1.751048e+02
1.410000e-06	2.368603e-06	2.708300e-09	1.774452e+01	1.764428e+02
1.420000e-06	2.390672e-06	2.729262e-09	1.790985e+01	1.777288e+02
1.430000e-06	2.411959e-06	2.749392e-09	1.806932e+01	1.789601e+02
1.440000e-06	2.432442e-06	2.767597e-09	1.822278e+01	1.801336e+02
1.450000e-06	2.452258e-06	2.786023e-09	1.837123e+01	1.812466e+02
1.460000e-06	2.471461e-06	2.803371e-09	1.851509e+01	1.822974e+02
1.470000e-06	2.489774e-06	2.818840e-09	1.865228e+01	1.832860e+02
1.480000e-06	2.507024e-06	2.833951e-09	1.878151e+01	1.842141e+02
1.490000e-06	2.523380e-06	2.849799e-09	1.890404e+01	1.850852e+02
1.500000e-06	2.538903e-06	2.864251e-09	1.902033e+01	1.859040e+02
1.510000e-06	2.553434e-06	2.877204e-09	1.912919e+01	1.866760e+02
1.520000e-06	2.566929e-06	2.890842e-09	1.923029e+01	1.874071e+02
1.530000e-06	2.579474e-06	2.904009e-09	1.932427e+01	1.881020e+02
1.540000e-06	2.591108e-06	2.913126e-09	1.941142e+01	1.887647e+02
1.550000e-06	2.601655e-06	2.920891e-09	1.949044e+01	1.893972e+02
1.560000e-06	2.610901e-06	2.932091e-09	1.955971e+01	1.899995e+02
1.570000e-06	2.619051e-06	2.944397e-09	1.962077e+01	1.905701e+02
1.580000e-06	2.626368e-06	2.954319e-09	1.967558e+01	1.911059e+02
1.590000e-06	2.632870e-06	2.961498e-09	1.972429e+01	1.916034e+02
1.600000e-06	2.638515e-06	2.968325e-09	1.976658e+01	1.920588e+02
1.610000e-06	2.643234e-06	2.976780e-09	1.980194e+01	1.924692e+02
1.620000e-06	2.647165e-06	2.985738e-09	1.983138e+01	1.928329e+02
1.630000e-06	2.650393e-06	2.992661e-09	1.985556e+01	1.931500e+02
1.640000e-06	2.652568e-06	2.997928e-09	1.987186e+01	1.934222e+02
1.650000e-06	2.653455e-06	3.005194e-09	1.987850e+01	1.936526e+02
1.660000e-06	2.653311e-06	3.013036e-09	1.987742e+01	1.938453e+02
1.670000e-06	2.652291e-06	3.016076e-09	1.986979e+01	1.940042e+02
1.680000e-06	2.650492e-06	3.015963e-09	1.985631e+01	1.941324e+02
1.690000e-06	2.647973e-06	3.018241e-09	1.983744e+01	1.942317e+02
1.700000e-06	2.644644e-06	3.020992e-09	1.981249e+01	1.943012e+02
1.710000e-06	2.640593e-06	3.022490e-09	1.978215e+01	1.943379e+02
1.720000e-06	2.635932e-06	3.024769e-09	1.974723e+01	1.943362e+02
1.730000e-06	2.630416e-06	3.035966e-09	1.970590e+01	1.942889e+02
1.740000e-06	2.623645e-06	3.015125e-09	1.965518e+01	1.941878e+02
1.750000e-06	2.615542e-06	2.960001e-09	1.959448e+01	1.940247e+02
1.760000e-06	2.606111e-06	2.966986e-09	1.952382e+01	1.937933e+02
1.770000e-06	2.595588e-06	3.067056e-09	1.944499e+01	1.934897e+02
1.780000e-06	2.584763e-06	3.105050e-09	1.936389e+01	1.931135e+02
1.790000e-06	2.573811e-06	2.979779e-09	1.928185e+01	1.926685e+02
1.800000e-06	2.561444e-06	2.909087e-09	1.918920e+01	1.921623e+02
1.810000e-06	2.547172e-06	2.952189e-09	1.908228e+01	1.916063e+02
1.820000e-06	2.532277e-06	2.968464e-09	1.897069e+01	1.910140e+02
1.830000e-06	2.516961e-06	2.948307e-09	1.885595e+01	1.904000e+02
1.840000e-06	2.500279e-06	2.926976e-09	1.873097e+01	1.897783e+02
1.850000e-06	2.482492e-06	2.846923e-09	1.859772e+01	1.891606e+02
1.860000e-06	2.464357e-06	2.842359e-09	1.846186e+01	1.885548e+02
1.870000e-06	2.445482e-06	2.967711e-09	1.832046e+01	1.879643e+02
1.880000e-06	2.425544e-06	2.860967e-09	1.817109e+01	1.873871e+02
1.890000e-06	2.405019e-06	2.658025e-09	1.801733e+01	1.868163e+02
1.900000e-06	2.383722e-06	2.782734e-09	1.785779e+01	1.862405e+02
1.910000e-06	2.361007e-06	2.900569e-09	1.768762e+01	1.856455e+02
1.920000e-06	2.337101e-06	2.720817e-09	1.750852e+01	1.850156e+02
1.930000e-06	2.312543e-06	2.695129e-09	1.732454e+01	1.843354e+02
1.940000e-06	2.287383e-06	2.831453e-09	1.713606e+01	1.835917e+02
1.950000e-06	2.261375e-06	2.747570e-09	1.694122e+01	1.827746e+02
1.960000e-06	2.234355e-06	2.677825e-09	1.673879e+01	1.818788e+02
1.970000e-06	2.206602e-06	2.742724e-09	1.653088e+01	1.809038e+02
1.980000e-06	2.178348e-06	2.692192e-09	1.631922e+01	1.798536e+02
1.990000e-06	2.149217e-06	2.643520e-09	1.610097e+01	1.787360e+02
2.000000e-06	2.119221e-06	2.671382e-09	1.587626e+01	1.775615e+02
2.010000e-06	2.088593e-06	2.672757e-09	1.564681e+01	1.763416e+02
2.020000e-06	2.057021e-06	2.622697e-09	1.541028e+01	1.750872e+02
2.030000e-06	2.024608e-06	2.542466e-09	1.516746e+01	1.738076e+02
2.040000e-06	1.991755e-06	2.583116e-09	1.492134e+01	1.725089e+02
2.050000e-06	1.958210e-06	2.651240e-09	1.467004e+01	1.711936e+02
2.060000e-06	1.923799e-06	2.517928e-09	1.441225e+01	1.698606e+02
2.070000e-06	1.888825e-06	2.442384e-09	1.415023e+01	1.685054e+02
2.080000e-06	1.853301e-06	2.557350e-09	1.388411e+01	1.671211e+02
2.090000e-06	1.817209e-06	2.525477e-09	1.361372e+01	1.656992e+02
2.100000e-06	1.780577e-06	2.415628e-09	1.333929e+01	1.642310e+02
2.110000e-06	1.743324e-06	2.426478e-09	1.306020e+01	1.627088e+02
2.120000e-06	1.705269e-06	2.432181e-09	1.277511e+01	1.611267e+02
2.130000e-06	1.666179e-06	2.391443e-09	1.248227e+01	1.594810e+02
2.140000e-06	1.626303e-06	2.353611e-09	1.218354e+01	1.577707e+02
2.150000e-06	1.586050e-06	2.343545e-09	1.188198e+01	1.559971e+02
2.160000e-06	1.545349e-06	2.321787e-09	1.157707e+01	1.541630e+02
2.170000e-06	1.504066e-06	2.268261e-09	1.126779e+01	1.522723e+02
2.180000e-06	1.462249e-06	2.254855e-09	1.095452e+01	1.503285e+02
2.190000e-06	1.420005e-06	2.254607e-09	1.063805e+01	1.483345e+02
2.200000e-06	1.377299e-06	2.187229e-09	1.031811e+01	1.462913e+02
2.210000e-06	1.334033e-06	2.137813e-09	9.993982e+00	1.441981e+02
2.220000e-06	1.290326e-06	2.149338e-09	9.666549e+00	1.420519e+02
2.230000e-06	1.246312e-06	2.124035e-09	9.336815e+00	1.398479e+02
2.240000e-06	1.202044e-06	2.053627e-09	9.005182e+00	1.375800e+02
2.250000e-06	1.157578e-06	2.013682e-09	8.672056e+00	1.352417e+02
2.260000e-06	1.112772e-06	2.010744e-09	8.336391e+00	1.328265e+02
2.270000e-06	1.067350e-06	1.964788e-09	7.996109e+00	1.303288e+02
2.280000e-06	1.021342e-06	1.902936e-09	7.651439e+00	1.277446e+02
2.290000e-06	9.749708e-07	1.880009e-09	7.304047e+00	1.250712e+02
2.300000e-06	9.282666e-07	1.844657e-09	6.954160e+00	1.223076e+02
2.310000e-06	8.813031e-07	1.785521e-09	6.602330e+00	1.194539e+02
2.320000e-06	8.341426e-07	1.745971e-09	6.249025e+00	1.165108e+02
2.330000e-06	7.867476e-07	1.716535e-09	5.893963e+00	1.134788e+02
2.340000e-06	7.390812e-07	1.659617e-09	5.536867e+00	1.103578e+02
2.350000e-06	6.912154e-07	1.598256e-09	5.178278e+00	1.071461e+02
2.360000e-06	6.431479e-07	1.562129e-09	4.818177e+00	1.038402e+02
2.370000e-06	5.947149e-07	1.520304e-09	4.455340e+00	1.004351e+02
2.380000e-06	5.459761e-07	1.452278e-09	4.090210e+00	9.692355e+01
2.390000e-06	4.970889e-07	1.396038e-09	3.723968e+00	9.329758e+01
2.400000e-06	4.480063e-07	1.351289e-09	3.356263e+00	8.954853e+01
2.410000e-06	3.985733e-07	1.288256e-09	2.985934e+00	8.566814e+01
2.420000e-06	3.488813e-07	1.222887e-09	2.613663e+00	8.164925e+01
2.430000e-06	2.991358e-07	1.168545e-09	2.240993e+00	7.748661e+01
2.440000e-06	2.492897e-07	1.105930e-09	1.867567e+00	7.317734e+01
2.450000e-06	1.992855e-07	1.025309e-09	1.492958e+00	6.872120e+01
2.460000e-06	1.492411e-07	9.549528e-10	1.118048e+00	6.412060e+01
2.470000e-06	9.921779e-08	8.962507e-10	7.432955e-01	5.938030e+01
2.480000e-06	4.911406e-08	8.220540e-10	3.679406e-01	5.450700e+01
2.490000e-06	-1.044597e-09	7.383313e-10	-7.825657e-03	4.950872e+01
2.500000e-06	-5.116302e-08	6.642033e-10	-3.832906e-01	4.439428e+01
2.510000e-06	-1.012659e-07	5.932588e-10	-7.586393e-01	3.917277e+01
2.520000e-06	-1.513031e-07	5.125091e-10	-1.133495e+00	3.385326e+01
2.530000e-06	-2.012217e-07	4.281082e-10	-1.507464e+00	2.844462e+01
2.540000e-06	-2.510671e-07	3.449155e-10	-1.880883e+00	2.295565e+01
2.550000e-06	-3.009018e-07	2.601084e-10	-2.254222e+00	1.739528e+01
2.560000e-06	-3.505965e-07	1.750229e-10	-2.626513e+00	1.177293e+01
2.570000e-06	-4.000733e-07	9.368501e-11	-2.997171e+00	6.098926e+00
2.580000e-06	-4.493568e-07	5.085902e-12	-3.366381e+00	3.847753e-01
2.590000e-06	-4.983364e-07	-9.146203e-11	-3.733314e+00	-5.356634e+00
2.600000e-06	-5.469189e-07	-1.779174e-10	-4.097273e+00	-1.111105e+01
2.610000e-06	-5.951940e-07	-2.558493e-10	-4.458928e+00	-1.686311e+01
2.620000e-06	-6.431735e-07	-3.394229e-10	-4.818370e+00	-2.259674e+01
2.630000e-06	-6.908311e-07	-4.314103e-10	-5.175399e+00	-2.829580e+01
2.640000e-06	-7.381526e-07	-5.183571e-10	-5.529911e+00	-3.394470e+01
2.650000e-06	-7.852184e-07	-5.967518e-10	-5.882507e+00	-3.952908e+01
2.660000e-06	-8.321628e-07	-6.776687e-10	-6.234193e+00	-4.503638e+01
2.670000e-06	-8.789145e-07	-7.637944e-10	-6.584436e+00	-5.045617e+01
2.680000e-06	-9.253953e-07	-8.482630e-10	-6.932649e+00	-5.578032e+01
2.690000e-06	-9.716307e-07	-9.270922e-10	-7.279025e+00	-6.100290e+01
2.700000e-06	-1.017652e-06	-1.002491e-09	-7.623796e+00	-6.611983e+01
2.710000e-06	-1.063286e-06	-1.075918e-09	-7.965664e+00	-7.112841e+01
2.720000e-06	-1.108362e-06	-1.149305e-09	-8.303354e+00	-7.602671e+01
2.730000e-06	-1.153031e-06	-1.223157e-09	-8.637996e+00	-8.081307e+01
2.740000e-06	-1.197447e-06	-1.293369e-09	-8.970744e+00	-8.548555e+01
2.750000e-06	-1.241635e-06	-1.357889e-09	-9.301780e+00	-9.004167e+01
2.760000e-06	-1.285562e-06	-1.424205e-09	-9.630861e+00	-9.447833e+01
2.770000e-06	-1.329052e-06	-1.494956e-09	-9.956663e+00	-9.879190e+01
2.780000e-06	-1.372026e-06	-1.561790e-09	-1.027861e+01	-1.029785e+02
2.790000e-06	-1.414554e-06	-1.620202e-09	-1.059721e+01	-1.070347e+02
2.800000e-06	-1.456659e-06	-1.675683e-09	-1.091264e+01	-1.109574e+02
2.810000e-06	-1.498229e-06	-1.734187e-09	-1.122406e+01	-1.147451e+02
2.820000e-06	-1.539143e-06	-1.790895e-09	-1.153057e+01	-1.183977e+02
2.830000e-06	-1.579569e-06	-1.842982e-09	-1.183343e+01	-1.219165e+02
2.840000e-06	-1.619699e-06	-1.892434e-09	-1.213406e+01	-1.253047e+02
2.850000e-06	-1.659337e-06	-1.940977e-09	-1.243101e+01	-1.285666e+02
2.860000e-06	-1.698269e-06	-1.989494e-09	-1.272268e+01	-1.317073e+02
2.870000e-06	-1.736309e-06	-2.038441e-09	-1.300765e+01	-1.347323e+02
2.880000e-06	-1.773365e-06	-2.083317e-09	-1.328526e+01	-1.376468e+02
2.890000e-06	-1.809779e-06	-2.121551e-09	-1.355806e+01	-1.404550e+02
2.900000e-06	-1.845775e-06	-2.161732e-09	-1.382773e+01	-1.431604e+02
2.910000e-06	-1.881252e-06	-2.204124e-09	-1.409350e+01	-1.457650e+02
2.920000e-06	-1.916029e-06	-2.241700e-09	-1.435404e+01	-1.482697e+02
2.930000e-06	-1.950086e-06	-2.274869e-09	-1.460918e+01	-1.506749e+02
2.940000e-06	-1.983465e-06	-2.309938e-09	-1.485923e+01	-1.529803e+02
