# Temperatura_=_20.0
# Concentracion g/m^3_=_9000.0
# C_Vs_to_Am_M_A/Vsm_=_65563218390.804596
# pendiente_HvsI_1/m_=_3716.3
# ordenada_HvsI_A/m_=_1297.0
# frecuencia_Hz_=_301067.3084274163

Tiempo_(s)	Campo_(V.s)	Magnetizacion_(V.s)	Campo_(kA/m)	Magnetizacion_(A/m)
0.000000e+00	-2.637291e-06	-2.876994e-09	-1.977680e+01	-1.926475e+02
1.000000e-08	-2.637207e-06	-2.876452e-09	-1.977616e+01	-1.927948e+02
2.000000e-08	-2.636186e-06	-2.878989e-09	-1.976851e+01	-1.929205e+02
3.000000e-08	-2.633887e-06	-2.880451e-09	-1.975127e+01	-1.930267e+02
4.000000e-08	-2.630567e-06	-2.880163e-09	-1.972638e+01	-1.931125e+02
5.000000e-08	-2.626557e-06	-2.879742e-09	-1.969631e+01	-1.931739e+02
6.000000e-08	-2.621794e-06	-2.879309e-09	-1.966059e+01	-1.932037e+02
7.000000e-08	-2.616145e-06	-2.874917e-09	-1.961823e+01	-1.931924e+02
8.000000e-08	-2.609571e-06	-2.860743e-09	-1.956893e+01	-1.931292e+02
9.000000e-08	-2.602096e-06	-2.890664e-09	-1.951288e+01	-1.930030e+02
1.000000e-07	-2.593570e-06	-2.945520e-09	-1.944894e+01	-1.928045e+02
1.100000e-07	-2.583686e-06	-2.900569e-09	-1.937482e+01	-1.925273e+02
1.200000e-07	-2.572693e-06	-2.756254e-09	-1.929239e+01	-1.921687e+02
1.300000e-07	-2.560930e-06	-2.755441e-09	-1.920417e+01	-1.917312e+02
1.400000e-07	-2.548259e-06	-2.943188e-09	-1.910915e+01	-1.912219e+02
1.500000e-07	-2.534754e-06	-2.942116e-09	-1.900789e+01	-1.906525e+02
1.600000e-07	-2.520391e-06	-2.819998e-09	-1.890017e+01	-1.900380e+02
1.700000e-07	-2.504602e-06	-2.821551e-09	-1.878178e+01	-1.893954e+02
1.800000e-07	-2.487560e-06	-2.847463e-09	-1.865398e+01	-1.887415e+02
1.900000e-07	-2.470119e-06	-2.871928e-09	-1.852319e+01	-1.880915e+02
2.000000e-07	-2.452079e-06	-2.963243e-09	-1.838791e+01	-1.874569e+02
2.100000e-07	-2.432892e-06	-2.852401e-09	-1.824403e+01	-1.868445e+02
2.200000e-07	-2.412985e-06	-2.677780e-09	-1.809475e+01	-1.862552e+02
2.300000e-07	-2.392652e-06	-2.878047e-09	-1.794227e+01	-1.856841e+02
2.400000e-07	-2.371336e-06	-3.049146e-09	-1.778243e+01	-1.851213e+02
2.500000e-07	-2.348809e-06	-2.837019e-09	-1.761350e+01	-1.845525e+02
2.600000e-07	-2.325542e-06	-2.730298e-09	-1.743902e+01	-1.839610e+02
2.700000e-07	-2.301816e-06	-2.925668e-09	-1.726110e+01	-1.833294e+02
2.800000e-07	-2.277364e-06	-2.944415e-09	-1.707774e+01	-1.826415e+02
2.900000e-07	-2.251771e-06	-2.829377e-09	-1.688582e+01	-1.818840e+02
3.000000e-07	-2.224976e-06	-2.786161e-09	-1.668488e+01	-1.810477e+02
3.100000e-07	-2.197387e-06	-2.797277e-09	-1.647800e+01	-1.801282e+02
3.200000e-07	-2.169230e-06	-2.806146e-09	-1.626685e+01	-1.791263e+02
3.300000e-07	-2.140397e-06	-2.790441e-09	-1.605064e+01	-1.780469e+02
3.400000e-07	-2.110877e-06	-2.757792e-09	-1.582927e+01	-1.768985e+02
3.500000e-07	-2.080534e-06	-2.744785e-09	-1.560173e+01	-1.756916e+02
3.600000e-07	-2.049364e-06	-2.678192e-09	-1.536799e+01	-1.744376e+02
3.700000e-07	-2.017753e-06	-2.680609e-09	-1.513094e+01	-1.731464e+02
3.800000e-07	-1.985747e-06	-2.781159e-09	-1.489093e+01	-1.718264e+02
3.900000e-07	-1.952687e-06	-2.638422e-09	-1.464302e+01	-1.704825e+02
4.000000e-07	-1.918379e-06	-2.520259e-09	-1.438574e+01	-1.691165e+02
4.100000e-07	-1.883382e-06	-2.679081e-09	-1.412331e+01	-1.677270e+02
4.200000e-07	-1.847907e-06	-2.693438e-09	-1.385728e+01	-1.663097e+02
4.300000e-07	-1.811855e-06	-2.475908e-09	-1.358693e+01	-1.648585e+02
4.400000e-07	-1.775249e-06	-2.501836e-09	-1.331242e+01	-1.633663e+02
4.500000e-07	-1.738000e-06	-2.603935e-09	-1.303310e+01	-1.618262e+02
4.600000e-07	-1.700013e-06	-2.502573e-09	-1.274824e+01	-1.602324e+02
4.700000e-07	-1.661377e-06	-2.420575e-09	-1.245851e+01	-1.585805e+02
4.800000e-07	-1.622231e-06	-2.446726e-09	-1.216496e+01	-1.568682e+02
4.900000e-07	-1.582733e-06	-2.437153e-09	-1.186876e+01	-1.550949e+02
5.000000e-07	-1.542957e-06	-2.372057e-09	-1.157049e+01	-1.532614e+02
5.100000e-07	-1.502743e-06	-2.358260e-09	-1.126893e+01	-1.513693e+02
5.200000e-07	-1.461697e-06	-2.331500e-09	-1.096113e+01	-1.494205e+02
5.300000e-07	-1.419593e-06	-2.279790e-09	-1.064539e+01	-1.474160e+02
5.400000e-07	-1.376677e-06	-2.249909e-09	-1.032357e+01	-1.453559e+02
5.500000e-07	-1.333319e-06	-2.252713e-09	-9.998432e+00	-1.432388e+02
5.600000e-07	-1.289622e-06	-2.206979e-09	-9.670751e+00	-1.410620e+02
5.700000e-07	-1.245614e-06	-2.122997e-09	-9.340742e+00	-1.388212e+02
5.800000e-07	-1.201320e-06	-2.108907e-09	-9.008585e+00	-1.365118e+02
5.900000e-07	-1.156556e-06	-2.119420e-09	-8.672904e+00	-1.341286e+02
6.000000e-07	-1.111274e-06	-2.057646e-09	-8.333339e+00	-1.316674e+02
6.100000e-07	-1.065602e-06	-1.967328e-09	-7.990847e+00	-1.291244e+02
6.200000e-07	-1.019546e-06	-1.959711e-09	-7.645481e+00	-1.264977e+02
6.300000e-07	-9.730739e-07	-1.951197e-09	-7.296990e+00	-1.237866e+02
6.400000e-07	-9.262198e-07	-1.879843e-09	-6.945635e+00	-1.209915e+02
6.500000e-07	-8.790964e-07	-1.815945e-09	-6.592262e+00	-1.181139e+02
6.600000e-07	-8.317568e-07	-1.791009e-09	-6.237266e+00	-1.151554e+02
6.700000e-07	-7.842051e-07	-1.751823e-09	-5.880681e+00	-1.121171e+02
6.800000e-07	-7.364813e-07	-1.688894e-09	-5.522804e+00	-1.089988e+02
6.900000e-07	-6.885867e-07	-1.646547e-09	-5.163647e+00	-1.057988e+02
7.000000e-07	-6.404270e-07	-1.596683e-09	-4.802502e+00	-1.025129e+02
7.100000e-07	-5.919095e-07	-1.531188e-09	-4.438674e+00	-9.913509e+01
7.200000e-07	-5.430943e-07	-1.480944e-09	-4.072613e+00	-9.565744e+01
7.300000e-07	-4.939781e-07	-1.444889e-09	-3.704295e+00	-9.207070e+01
7.400000e-07	-4.444423e-07	-1.377524e-09	-3.332831e+00	-8.836516e+01
7.500000e-07	-3.945552e-07	-1.301236e-09	-2.958732e+00	-8.453147e+01
7.600000e-07	-3.443571e-07	-1.255164e-09	-2.582302e+00	-8.056155e+01
7.700000e-07	-2.939308e-07	-1.202644e-09	-2.204159e+00	-7.644935e+01
7.800000e-07	-2.434258e-07	-1.120115e-09	-1.825427e+00	-7.219136e+01
7.900000e-07	-1.927994e-07	-1.041816e-09	-1.445785e+00	-6.778693e+01
8.000000e-07	-1.420007e-07	-9.870966e-10	-1.064850e+00	-6.323821e+01
8.100000e-07	-9.110869e-08	-9.159212e-10	-6.832155e-01	-5.854986e+01
8.200000e-07	-4.021504e-08	-8.303758e-10	-3.015688e-01	-5.372856e+01
8.300000e-07	1.068793e-08	-7.565989e-10	8.014781e-02	-4.878236e+01
8.400000e-07	6.158680e-08	-6.892214e-10	4.618336e-01	-4.372005e+01
8.500000e-07	1.123668e-07	-6.080690e-10	8.426279e-01	-3.855063e+01
8.600000e-07	1.630172e-07	-5.209138e-10	1.222451e+00	-3.328287e+01
8.700000e-07	2.135551e-07	-4.407375e-10	1.601430e+00	-2.792522e+01
8.800000e-07	2.640250e-07	-3.553926e-10	1.979899e+00	-2.248580e+01
8.900000e-07	3.144367e-07	-2.659427e-10	2.357932e+00	-1.697270e+01
9.000000e-07	3.645482e-07	-1.791345e-10	2.733713e+00	-1.139435e+01
9.100000e-07	4.143068e-07	-9.527909e-11	3.106848e+00	-5.760004e+00
9.200000e-07	4.637877e-07	-6.416024e-12	3.477900e+00	-8.011293e-02
9.300000e-07	5.129760e-07	7.923773e-11	3.846759e+00	5.633377e+00
9.400000e-07	5.618739e-07	1.606757e-10	4.213440e+00	1.136695e+01
9.500000e-07	6.103899e-07	2.516517e-10	4.577256e+00	1.710567e+01
9.600000e-07	6.585606e-07	3.476314e-10	4.938484e+00	2.283356e+01
9.700000e-07	7.065560e-07	4.343707e-10	5.298397e+00	2.853416e+01
9.800000e-07	7.544073e-07	5.147738e-10	5.657230e+00	3.419119e+01
9.900000e-07	8.020705e-07	6.058984e-10	6.014651e+00	3.978931e+01
1.000000e-06	8.494941e-07	6.979113e-10	6.370277e+00	4.531471e+01
1.010000e-06	8.966957e-07	7.792996e-10	6.724237e+00	5.075562e+01
1.020000e-06	9.436322e-07	8.566696e-10	7.076210e+00	5.610261e+01
1.030000e-06	9.901607e-07	9.392853e-10	7.425122e+00	6.134859e+01
1.040000e-06	1.036223e-06	1.021801e-09	7.770541e+00	6.648861e+01
1.050000e-06	1.081930e-06	1.098591e-09	8.113290e+00	7.151948e+01
1.060000e-06	1.127345e-06	1.174214e-09	8.453858e+00	7.643924e+01
1.070000e-06	1.172373e-06	1.248550e-09	8.791512e+00	8.124657e+01
1.080000e-06	1.216923e-06	1.321501e-09	9.125591e+00	8.594029e+01
1.090000e-06	1.261009e-06	1.393728e-09	9.456187e+00	9.051895e+01
1.100000e-06	1.304772e-06	1.465951e-09	9.784363e+00	9.498056e+01
1.110000e-06	1.348350e-06	1.531658e-09	1.011115e+01	9.932265e+01
1.120000e-06	1.391692e-06	1.591465e-09	1.043617e+01	1.035423e+02
1.130000e-06	1.434586e-06	1.655027e-09	1.075782e+01	1.076365e+02
1.140000e-06	1.476710e-06	1.718276e-09	1.107371e+01	1.116027e+02
1.150000e-06	1.517834e-06	1.776101e-09	1.138209e+01	1.154387e+02
1.160000e-06	1.558121e-06	1.829914e-09	1.168420e+01	1.191436e+02
1.170000e-06	1.597864e-06	1.887831e-09	1.198224e+01	1.227176e+02
1.180000e-06	1.637257e-06	1.943990e-09	1.227763e+01	1.261619e+02
1.190000e-06	1.676254e-06	1.994394e-09	1.257007e+01	1.294791e+02
1.200000e-06	1.714642e-06	2.043168e-09	1.285794e+01	1.326724e+02
1.210000e-06	1.752423e-06	2.090911e-09	1.314126e+01	1.357456e+02
1.220000e-06	1.789614e-06	2.135907e-09	1.342015e+01	1.387024e+02
1.230000e-06	1.826132e-06	2.179104e-09	1.369399e+01	1.415463e+02
1.240000e-06	1.862067e-06	2.222027e-09	1.396346e+01	1.442802e+02
1.250000e-06	1.897592e-06	2.260319e-09	1.422987e+01	1.469066e+02
1.260000e-06	1.932583e-06	2.298540e-09	1.449226e+01	1.494272e+02
1.270000e-06	1.966715e-06	2.337357e-09	1.474821e+01	1.518436e+02
1.280000e-06	1.999778e-06	2.374572e-09	1.499615e+01	1.541574e+02
1.290000e-06	2.031932e-06	2.407080e-09	1.523726e+01	1.563705e+02
1.300000e-06	2.063514e-06	2.437874e-09	1.547410e+01	1.584856e+02
1.310000e-06	2.094530e-06	2.468839e-09	1.570669e+01	1.605065e+02
1.320000e-06	2.124859e-06	2.498315e-09	1.593411e+01	1.624380e+02
1.330000e-06	2.154462e-06	2.526530e-09	1.615611e+01	1.642856e+02
1.340000e-06	2.183279e-06	2.554840e-09	1.637220e+01	1.660557e+02
1.350000e-06	2.211394e-06	2.583510e-09	1.658304e+01	1.677548e+02
1.360000e-06	2.238964e-06	2.610739e-09	1.678978e+01	1.693887e+02
1.370000e-06	2.265917e-06	2.636255e-09	1.699190e+01	1.709626e+02
1.380000e-06	2.291814e-06	2.660256e-09	1.718610e+01	1.724801e+02
1.390000e-06	2.316454e-06	2.683124e-09	1.737087e+01	1.739430e+02
1.400000e-06	2.340204e-06	2.704683e-09	1.754897e+01	1.753514e+02
1.410000e-06	2.363218e-06	2.725968e-09	1.772155e+01	1.767038e+02
1.420000e-06	2.385433e-06	2.746937e-09	1.788813e+01	1.779974e+02
1.430000e-06	2.406859e-06	2.765982e-09	1.804881e+01	1.792290e+02
1.440000e-06	2.427470e-06	2.783207e-09	1.820337e+01	1.803954e+02
1.450000e-06	2.447374e-06	2.799615e-09	1.835262e+01	1.814943e+02
1.460000e-06	2.466643e-06	2.815849e-09	1.849713e+01	1.825250e+02
1.470000e-06	2.485037e-06	2.831110e-09	1.863506e+01	1.834884e+02
1.480000e-06	2.502370e-06	2.846621e-09	1.876504e+01	1.843874e+02
1.490000e-06	2.518831e-06	2.861969e-09	1.888848e+01	1.852266e+02
1.500000e-06	2.534454e-06	2.875782e-09	1.900563e+01	1.860121e+02
1.510000e-06	2.549058e-06	2.888666e-09	1.911515e+01	1.867503e+02
1.520000e-06	2.562658e-06	2.900968e-09	1.921713e+01	1.874478e+02
1.530000e-06	2.575306e-06	2.912050e-09	1.931198e+01	1.881099e+02
1.540000e-06	2.587031e-06	2.921608e-09	1.939990e+01	1.887405e+02
1.550000e-06	2.597781e-06	2.930457e-09	1.948051e+01	1.893416e+02
1.560000e-06	2.607298e-06	2.940214e-09	1.955188e+01	1.899131e+02
1.570000e-06	2.615611e-06	2.951023e-09	1.961422e+01	1.904530e+02
1.580000e-06	2.623080e-06	2.960685e-09	1.967023e+01	1.909580e+02
1.590000e-06	2.629714e-06	2.968643e-09	1.971997e+01	1.914241e+02
1.600000e-06	2.635398e-06	2.975241e-09	1.976260e+01	1.918478e+02
1.610000e-06	2.640195e-06	2.982916e-09	1.979857e+01	1.922265e+02
1.620000e-06	2.644205e-06	2.990631e-09	1.982865e+01	1.925591e+02
1.630000e-06	2.647514e-06	2.996665e-09	1.985346e+01	1.928467e+02
1.640000e-06	2.649834e-06	3.001681e-09	1.987086e+01	1.930925e+02
1.650000e-06	2.650853e-06	3.007575e-09	1.987850e+01	1.933009e+02
1.660000e-06	2.650846e-06	3.014341e-09	1.987845e+01	1.934777e+02
1.670000e-06	2.650086e-06	3.018858e-09	1.987275e+01	1.936283e+02
1.680000e-06	2.648506e-06	3.019233e-09	1.986090e+01	1.937569e+02
1.690000e-06	2.646132e-06	3.021015e-09	1.984309e+01	1.938660e+02
1.700000e-06	2.642930e-06	3.023799e-09	1.981908e+01	1.939549e+02
1.710000e-06	2.638936e-06	3.024090e-09	1.978913e+01	1.940199e+02
1.720000e-06	2.634288e-06	3.022800e-09	1.975428e+01	1.940543e+02
1.730000e-06	2.628813e-06	3.034969e-09	1.971322e+01	1.940487e+02
1.740000e-06	2.622148e-06	3.041531e-09	1.966324e+01	1.939923e+02
1.750000e-06	2.614229e-06	2.980999e-09	1.960386e+01	1.938741e+02
1.760000e-06	2.605045e-06	2.928035e-09	1.953499e+01	1.936845e+02
1.770000e-06	2.594621e-06	3.053406e-09	1.945682e+01	1.934167e+02
1.780000e-06	2.583718e-06	3.131626e-09	1.937506e+01	1.930676e+02
1.790000e-06	2.572753e-06	3.037881e-09	1.929283e+01	1.926390e+02
1.800000e-06	2.560706e-06	2.878692e-09	1.920249e+01	1.921377e+02
1.810000e-06	2.546642e-06	2.958145e-09	1.909703e+01	1.915748e+02
1.820000e-06	2.531622e-06	2.996445e-09	1.898440e+01	1.909651e+02
1.830000e-06	2.516454e-06	2.930128e-09	1.887065e+01	1.903254e+02
1.840000e-06	2.500091e-06	2.971420e-09	1.874795e+01	1.896728e+02
1.850000e-06	2.482373e-06	2.868752e-09	1.861508e+01	1.890225e+02
1.860000e-06	2.464236e-06	2.769152e-09	1.847908e+01	1.883866e+02
1.870000e-06	2.445541e-06	2.934502e-09	1.833888e+01	1.877724e+02
1.880000e-06	2.425784e-06	2.975778e-09	1.819073e+01	1.871815e+02
1.890000e-06	2.405391e-06	2.633990e-09	1.803780e+01	1.866097e+02
1.900000e-06	2.384352e-06	2.668759e-09	1.788003e+01	1.860474e+02
1.910000e-06	2.361938e-06	2.946887e-09	1.771195e+01	1.854808e+02
1.920000e-06	2.338218e-06	2.769677e-09	1.753408e+01	1.848933e+02
1.930000e-06	2.313801e-06	2.582386e-09	1.735098e+01	1.842676e+02
1.940000e-06	2.288800e-06	2.809741e-09	1.716350e+01	1.835872e+02
1.950000e-06	2.263005e-06	2.787155e-09	1.697006e+01	1.828384e+02
1.960000e-06	2.236180e-06	2.624465e-09	1.676891e+01	1.820116e+02
1.970000e-06	2.208557e-06	2.719630e-09	1.656176e+01	1.811019e+02
1.980000e-06	2.180480e-06	2.716100e-09	1.635122e+01	1.801093e+02
1.990000e-06	2.151595e-06	2.624315e-09	1.613461e+01	1.790386e+02
2.000000e-06	2.121713e-06	2.631155e-09	1.591053e+01	1.778979e+02
2.010000e-06	2.091243e-06	2.649426e-09	1.568203e+01	1.766976e+02
2.020000e-06	2.059978e-06	2.664545e-09	1.544758e+01	1.754488e+02
2.030000e-06	2.027734e-06	2.559860e-09	1.520579e+01	1.741620e+02
2.040000e-06	1.995008e-06	2.490102e-09	1.496038e+01	1.728454e+02
2.050000e-06	1.961669e-06	2.671987e-09	1.471037e+01	1.715047e+02
2.060000e-06	1.927420e-06	2.586752e-09	1.445354e+01	1.701419e+02
2.070000e-06	1.892540e-06	2.368857e-09	1.419198e+01	1.687559e+02
2.080000e-06	1.857119e-06	2.522209e-09	1.392636e+01	1.673426e+02
2.090000e-06	1.821129e-06	2.583723e-09	1.365647e+01	1.658961e+02
2.100000e-06	1.784611e-06	2.391353e-09	1.338263e+01	1.644094e+02
2.110000e-06	1.747446e-06	2.375021e-09	1.310393e+01	1.628755e+02
2.120000e-06	1.709514e-06	2.448454e-09	1.281948e+01	1.612884e+02
2.130000e-06	1.670599e-06	2.408223e-09	1.252766e+01	1.596437e+02
2.140000e-06	1.630814e-06	2.332060e-09	1.222932e+01	1.579387e+02
2.150000e-06	1.590629e-06	2.305362e-09	1.192798e+01	1.561727e+02
2.160000e-06	1.550110e-06	2.338458e-09	1.162413e+01	1.543463e+02
2.170000e-06	1.508994e-06	2.282233e-09	1.131580e+01	1.524612e+02
2.180000e-06	1.467263e-06	2.215698e-09	1.100287e+01	1.505191e+02
2.190000e-06	1.425084e-06	2.249750e-09	1.068657e+01	1.485213e+02
2.200000e-06	1.382470e-06	2.204767e-09	1.036701e+01	1.464680e+02
2.210000e-06	1.339347e-06	2.118062e-09	1.004364e+01	1.443579e+02
2.220000e-06	1.295756e-06	2.125801e-09	9.716754e+00	1.421884e+02
2.230000e-06	1.251833e-06	2.138279e-09	9.387376e+00	1.399555e+02
2.240000e-06	1.207672e-06	2.050308e-09	9.056221e+00	1.376544e+02
2.250000e-06	1.163335e-06	1.981866e-09	8.723739e+00	1.352801e+02
2.260000e-06	1.118652e-06	2.008140e-09	8.388666e+00	1.328282e+02
2.270000e-06	1.073350e-06	1.982531e-09	8.048948e+00	1.302949e+02
2.280000e-06	1.027474e-06	1.881915e-09	7.704928e+00	1.276780e+02
2.290000e-06	9.812077e-07	1.852956e-09	7.357984e+00	1.249766e+02
2.300000e-06	9.346567e-07	1.854709e-09	7.008903e+00	1.221912e+02
2.310000e-06	8.878346e-07	1.786270e-09	6.657788e+00	1.193232e+02
2.320000e-06	8.407440e-07	1.724296e-09	6.304660e+00	1.163740e+02
2.330000e-06	7.934707e-07	1.701801e-09	5.950162e+00	1.133450e+02
2.340000e-06	7.459238e-07	1.663404e-09	5.593613e+00	1.102362e+02
2.350000e-06	6.980628e-07	1.589096e-09	5.234707e+00	1.070458e+02
2.360000e-06	6.499677e-07	1.545269e-09	4.874047e+00	1.037701e+02
2.370000e-06	6.015853e-07	1.520491e-09	4.511231e+00	1.004033e+02
2.380000e-06	5.528564e-07	1.448349e-09	4.145818e+00	9.693752e+01
2.390000e-06	5.039158e-07	1.381733e-09	3.778817e+00	9.336370e+01
2.400000e-06	4.548436e-07	1.347282e-09	3.410829e+00	8.967211e+01
2.410000e-06	4.054776e-07	1.293387e-09	3.040638e+00	8.585333e+01
2.420000e-06	3.558524e-07	1.214332e-09	2.668504e+00	8.189911e+01
2.430000e-06	3.061736e-07	1.157088e-09	2.295967e+00	7.780313e+01
2.440000e-06	2.563643e-07	1.111899e-09	1.922452e+00	7.356160e+01
2.450000e-06	2.063828e-07	1.036444e-09	1.547645e+00	6.917357e+01
2.460000e-06	1.563692e-07	9.506344e-10	1.172598e+00	6.464089e+01
2.470000e-06	1.063580e-07	8.932097e-10	7.975689e-01	5.996798e+01
2.480000e-06	5.630105e-08	8.332924e-10	4.221963e-01	5.516132e+01
2.490000e-06	6.234146e-09	7.452570e-10	4.674928e-02	5.022886e+01
2.500000e-06	-4.379365e-08	6.636419e-10	-3.284045e-01	4.517932e+01
2.510000e-06	-9.383277e-08	5.963382e-10	-7.036431e-01	4.002171e+01
2.520000e-06	-1.438498e-07	5.217248e-10	-1.078716e+00	3.476485e+01
2.530000e-06	-1.938199e-07	4.332674e-10	-1.453437e+00	2.941720e+01
2.540000e-06	-2.436932e-07	3.520775e-10	-1.827432e+00	2.398692e+01
2.550000e-06	-2.934528e-07	2.741680e-10	-2.200575e+00	1.848208e+01
2.560000e-06	-3.431057e-07	1.857250e-10	-2.572917e+00	1.291106e+01
2.570000e-06	-3.925419e-07	1.013106e-10	-2.943635e+00	7.283005e+00
2.580000e-06	-4.417869e-07	1.975807e-11	-3.312918e+00	1.608214e+00
2.590000e-06	-4.909203e-07	-7.217361e-11	-3.681365e+00	-4.101531e+00
2.600000e-06	-5.397230e-07	-1.659431e-10	-4.047332e+00	-9.832882e+00
2.610000e-06	-5.880112e-07	-2.459255e-10	-4.409441e+00	-1.557104e+01
2.620000e-06	-6.359647e-07	-3.269773e-10	-4.769039e+00	-2.130011e+01
2.630000e-06	-6.837184e-07	-4.185188e-10	-5.127140e+00	-2.700365e+01
2.640000e-06	-7.311628e-07	-5.061484e-10	-5.482921e+00	-3.266534e+01
2.650000e-06	-7.782694e-07	-5.827840e-10	-5.836169e+00	-3.826970e+01
2.660000e-06	-8.251807e-07	-6.622926e-10	-6.187953e+00	-4.380273e+01
2.670000e-06	-8.718986e-07	-7.496425e-10	-6.538286e+00	-4.925243e+01
2.680000e-06	-9.183739e-07	-8.309916e-10	-6.886800e+00	-5.460910e+01
2.690000e-06	-9.646113e-07	-9.079827e-10	-7.233530e+00	-5.986540e+01
2.700000e-06	-1.010596e-06	-9.874033e-10	-7.578366e+00	-6.501619e+01
2.710000e-06	-1.056202e-06	-1.064856e-09	-7.920356e+00	-7.005810e+01
2.720000e-06	-1.101277e-06	-1.135789e-09	-8.258371e+00	-7.498907e+01
2.730000e-06	-1.145901e-06	-1.208037e-09	-8.593005e+00	-7.980774e+01
2.740000e-06	-1.190219e-06	-1.281603e-09	-8.925341e+00	-8.451294e+01
2.750000e-06	-1.234322e-06	-1.349006e-09	-9.256067e+00	-8.910324e+01
2.760000e-06	-1.278199e-06	-1.413563e-09	-9.585092e+00	-9.357674e+01
2.770000e-06	-1.321704e-06	-1.481700e-09	-9.911335e+00	-9.793100e+01
2.780000e-06	-1.364732e-06	-1.549487e-09	-1.023400e+01	-1.021631e+02
2.790000e-06	-1.407281e-06	-1.609053e-09	-1.055307e+01	-1.062702e+02
2.800000e-06	-1.449366e-06	-1.665700e-09	-1.086866e+01	-1.102494e+02
2.810000e-06	-1.490896e-06	-1.725277e-09	-1.118009e+01	-1.140987e+02
2.820000e-06	-1.531799e-06	-1.783474e-09	-1.148682e+01	-1.178169e+02
2.830000e-06	-1.572213e-06	-1.835769e-09	-1.178988e+01	-1.214041e+02
2.840000e-06	-1.612265e-06	-1.886510e-09	-1.209022e+01	-1.248614e+02
2.850000e-06	-1.651937e-06	-1.936581e-09	-1.238772e+01	-1.281913e+02
2.860000e-06	-1.690994e-06	-1.984546e-09	-1.268060e+01	-1.313970e+02
2.870000e-06	-1.729098e-06	-2.032115e-09	-1.296634e+01	-1.344821e+02
2.880000e-06	-1.766267e-06	-2.079049e-09	-1.324507e+01	-1.374504e+02
2.890000e-06	-1.802750e-06	-2.122773e-09	-1.351866e+01	-1.403055e+02
2.900000e-06	-1.838745e-06	-2.163990e-09	-1.378857e+01	-1.430503e+02
2.910000e-06	-1.874245e-06	-2.205525e-09	-1.405478e+01	-1.456874e+02
2.920000e-06	-1.909099e-06	-2.243773e-09	-1.431616e+01	-1.482185e+02
2.930000e-06	-1.943266e-06	-2.278315e-09	-1.457237e+01	-1.506452e+02
2.940000e-06	-1.976724e-06	-2.311852e-09	-1.482327e+01	-1.529691e+02
