# Temperatura_=_20.0
# Concentracion g/m^3_=_9000.0
# C_Vs_to_Am_M_A/Vsm_=_65563218390.804596
# pendiente_HvsI_1/m_=_3716.3
# ordenada_HvsI_A/m_=_1297.0
# frecuencia_Hz_=_301063.23015913955

Tiempo_(s)	Campo_(V.s)	Magnetizacion_(V.s)	Campo_(kA/m)	Magnetizacion_(A/m)
0.000000e+00	-2.645610e-06	-2.864861e-09	-1.977464e+01	-1.913676e+02
1.000000e-08	-2.645388e-06	-2.867405e-09	-1.977298e+01	-1.914966e+02
2.000000e-08	-2.644135e-06	-2.870744e-09	-1.976361e+01	-1.916026e+02
3.000000e-08	-2.641654e-06	-2.871553e-09	-1.974507e+01	-1.916873e+02
4.000000e-08	-2.638231e-06	-2.871018e-09	-1.971948e+01	-1.917486e+02
5.000000e-08	-2.634107e-06	-2.868518e-09	-1.968866e+01	-1.917808e+02
6.000000e-08	-2.629208e-06	-2.865130e-09	-1.965204e+01	-1.917752e+02
7.000000e-08	-2.623447e-06	-2.857124e-09	-1.960898e+01	-1.917211e+02
8.000000e-08	-2.616745e-06	-2.854138e-09	-1.955889e+01	-1.916072e+02
9.000000e-08	-2.609067e-06	-2.891395e-09	-1.950150e+01	-1.914239e+02
1.000000e-07	-2.600190e-06	-2.932290e-09	-1.943514e+01	-1.911645e+02
1.100000e-07	-2.589994e-06	-2.867298e-09	-1.935894e+01	-1.908269e+02
1.200000e-07	-2.578860e-06	-2.745244e-09	-1.927571e+01	-1.904145e+02
1.300000e-07	-2.566940e-06	-2.783066e-09	-1.918662e+01	-1.899368e+02
1.400000e-07	-2.554101e-06	-2.925352e-09	-1.909066e+01	-1.894081e+02
1.500000e-07	-2.540507e-06	-2.911990e-09	-1.898904e+01	-1.888469e+02
1.600000e-07	-2.525978e-06	-2.805467e-09	-1.888045e+01	-1.882737e+02
1.700000e-07	-2.509952e-06	-2.802336e-09	-1.876066e+01	-1.877086e+02
1.800000e-07	-2.492793e-06	-2.834363e-09	-1.863240e+01	-1.871688e+02
1.900000e-07	-2.475211e-06	-2.879788e-09	-1.850099e+01	-1.866669e+02
2.000000e-07	-2.456896e-06	-2.934961e-09	-1.836409e+01	-1.862084e+02
2.100000e-07	-2.437501e-06	-2.808985e-09	-1.821913e+01	-1.857915e+02
2.200000e-07	-2.417502e-06	-2.718742e-09	-1.806964e+01	-1.854066e+02
2.300000e-07	-2.397022e-06	-2.906103e-09	-1.791656e+01	-1.850370e+02
2.400000e-07	-2.375501e-06	-2.993015e-09	-1.775571e+01	-1.846613e+02
2.500000e-07	-2.352855e-06	-2.807160e-09	-1.758644e+01	-1.842549e+02
2.600000e-07	-2.329520e-06	-2.772229e-09	-1.741202e+01	-1.837931e+02
2.700000e-07	-2.305649e-06	-2.920556e-09	-1.723360e+01	-1.832538e+02
2.800000e-07	-2.280963e-06	-2.916553e-09	-1.704908e+01	-1.826195e+02
2.900000e-07	-2.255088e-06	-2.817135e-09	-1.685567e+01	-1.818794e+02
3.000000e-07	-2.228081e-06	-2.783537e-09	-1.665381e+01	-1.810298e+02
3.100000e-07	-2.200365e-06	-2.799981e-09	-1.644665e+01	-1.800748e+02
3.200000e-07	-2.172027e-06	-2.806553e-09	-1.623483e+01	-1.790246e+02
3.300000e-07	-2.142992e-06	-2.787444e-09	-1.601781e+01	-1.778943e+02
3.400000e-07	-2.113288e-06	-2.757156e-09	-1.579579e+01	-1.767017e+02
3.500000e-07	-2.082735e-06	-2.732027e-09	-1.556742e+01	-1.754650e+02
3.600000e-07	-2.051417e-06	-2.674265e-09	-1.533333e+01	-1.742001e+02
3.700000e-07	-2.019735e-06	-2.707608e-09	-1.509653e+01	-1.729194e+02
3.800000e-07	-1.987445e-06	-2.751704e-09	-1.485517e+01	-1.716299e+02
3.900000e-07	-1.953968e-06	-2.607236e-09	-1.460495e+01	-1.703330e+02
4.000000e-07	-1.919409e-06	-2.554551e-09	-1.434664e+01	-1.690249e+02
4.100000e-07	-1.884208e-06	-2.695348e-09	-1.408353e+01	-1.676973e+02
4.200000e-07	-1.848461e-06	-2.651102e-09	-1.381634e+01	-1.663390e+02
4.300000e-07	-1.812132e-06	-2.480242e-09	-1.354480e+01	-1.649377e+02
4.400000e-07	-1.775260e-06	-2.529898e-09	-1.326920e+01	-1.634817e+02
4.500000e-07	-1.737767e-06	-2.584099e-09	-1.298895e+01	-1.619614e+02
4.600000e-07	-1.699615e-06	-2.485613e-09	-1.270379e+01	-1.603704e+02
4.700000e-07	-1.660910e-06	-2.428510e-09	-1.241449e+01	-1.587062e+02
4.800000e-07	-1.621698e-06	-2.450190e-09	-1.212140e+01	-1.569698e+02
4.900000e-07	-1.582073e-06	-2.419642e-09	-1.182522e+01	-1.551651e+02
5.000000e-07	-1.542118e-06	-2.370349e-09	-1.152657e+01	-1.532980e+02
5.100000e-07	-1.501700e-06	-2.360216e-09	-1.122447e+01	-1.513750e+02
5.200000e-07	-1.460411e-06	-2.324974e-09	-1.091586e+01	-1.494016e+02
5.300000e-07	-1.418017e-06	-2.270831e-09	-1.059898e+01	-1.473819e+02
5.400000e-07	-1.374884e-06	-2.250218e-09	-1.027659e+01	-1.453169e+02
5.500000e-07	-1.331406e-06	-2.251702e-09	-9.951603e+00	-1.432052e+02
5.600000e-07	-1.287608e-06	-2.191792e-09	-9.624237e+00	-1.410423e+02
5.700000e-07	-1.243475e-06	-2.120133e-09	-9.294365e+00	-1.388218e+02
5.800000e-07	-1.198996e-06	-2.112852e-09	-8.961904e+00	-1.365363e+02
5.900000e-07	-1.154088e-06	-2.110503e-09	-8.626243e+00	-1.341783e+02
6.000000e-07	-1.108646e-06	-2.042131e-09	-8.286586e+00	-1.317411e+02
6.100000e-07	-1.062767e-06	-1.975221e-09	-7.943661e+00	-1.292199e+02
6.200000e-07	-1.016527e-06	-1.968700e-09	-7.598039e+00	-1.266123e+02
6.300000e-07	-9.699047e-07	-1.941469e-09	-7.249562e+00	-1.239178e+02
6.400000e-07	-9.229394e-07	-1.873384e-09	-6.898519e+00	-1.211379e+02
6.500000e-07	-8.756803e-07	-1.822363e-09	-6.545281e+00	-1.182750e+02
6.600000e-07	-8.282313e-07	-1.794971e-09	-6.190622e+00	-1.153317e+02
6.700000e-07	-7.805774e-07	-1.745166e-09	-5.834433e+00	-1.123095e+02
6.800000e-07	-7.327037e-07	-1.690113e-09	-5.476601e+00	-1.092081e+02
6.900000e-07	-6.846079e-07	-1.650902e-09	-5.117108e+00	-1.060246e+02
7.000000e-07	-6.361511e-07	-1.599156e-09	-4.754917e+00	-1.027532e+02
7.100000e-07	-5.873034e-07	-1.536731e-09	-4.389805e+00	-9.938579e+01
7.200000e-07	-5.381443e-07	-1.490025e-09	-4.022364e+00	-9.591199e+01
7.300000e-07	-4.886588e-07	-1.447213e-09	-3.652485e+00	-9.232052e+01
7.400000e-07	-4.387871e-07	-1.376360e-09	-3.279718e+00	-8.860021e+01
7.500000e-07	-3.885418e-07	-1.307731e-09	-2.904159e+00	-8.474120e+01
7.600000e-07	-3.380946e-07	-1.258975e-09	-2.527091e+00	-8.073604e+01
7.700000e-07	-2.875573e-07	-1.197581e-09	-2.149350e+00	-7.658041e+01
7.800000e-07	-2.368739e-07	-1.115931e-09	-1.770516e+00	-7.227357e+01
7.900000e-07	-1.860292e-07	-1.048239e-09	-1.390477e+00	-6.781832e+01
8.000000e-07	-1.350914e-07	-9.914988e-10	-1.009742e+00	-6.322053e+01
8.100000e-07	-8.406583e-08	-9.142756e-10	-6.283508e-01	-5.848841e+01
8.200000e-07	-3.300477e-08	-8.307021e-10	-2.466944e-01	-5.363157e+01
8.300000e-07	1.804679e-08	-7.595591e-10	1.348909e-01	-4.866004e+01
8.400000e-07	6.909321e-08	-6.886433e-10	5.164379e-01	-4.358341e+01
8.500000e-07	1.201184e-07	-6.030450e-10	8.978260e-01	-3.841024e+01
8.600000e-07	1.710167e-07	-5.171354e-10	1.278266e+00	-3.314780e+01
8.700000e-07	2.217908e-07	-4.365079e-10	1.657777e+00	-2.780218e+01
8.800000e-07	2.725221e-07	-3.515136e-10	2.036969e+00	-2.237875e+01
8.900000e-07	3.230995e-07	-2.646459e-10	2.415010e+00	-1.688286e+01
9.000000e-07	3.733996e-07	-1.813256e-10	2.790979e+00	-1.132064e+01
9.100000e-07	4.233362e-07	-9.617289e-11	3.164230e+00	-5.699800e+00
9.200000e-07	4.730021e-07	-4.922488e-12	3.535459e+00	-3.021425e-02
9.300000e-07	5.223704e-07	8.080165e-11	3.904462e+00	5.675728e+00
9.400000e-07	5.713609e-07	1.635644e-10	4.270642e+00	1.140318e+01
9.500000e-07	6.200246e-07	2.550166e-10	4.634380e+00	1.713522e+01
9.600000e-07	6.683988e-07	3.499106e-10	4.995953e+00	2.285360e+01
9.700000e-07	7.164815e-07	4.357145e-10	5.355348e+00	2.853968e+01
9.800000e-07	7.642716e-07	5.173572e-10	5.712555e+00	3.417546e+01
9.900000e-07	8.118930e-07	6.064612e-10	6.068502e+00	3.974454e+01
1.000000e-06	8.593982e-07	6.956460e-10	6.423580e+00	4.523294e+01
1.010000e-06	9.067126e-07	7.771169e-10	6.777232e+00	5.062956e+01
1.020000e-06	9.537178e-07	8.559922e-10	7.128573e+00	5.592629e+01
1.030000e-06	1.000299e-06	9.383048e-10	7.476742e+00	6.111782e+01
1.040000e-06	1.046500e-06	1.018672e-09	7.822075e+00	6.620109e+01
1.050000e-06	1.092340e-06	1.095464e-09	8.164709e+00	7.117452e+01
1.060000e-06	1.137765e-06	1.171389e-09	8.504238e+00	7.603727e+01
1.070000e-06	1.182799e-06	1.245340e-09	8.840845e+00	8.078840e+01
1.080000e-06	1.227362e-06	1.315455e-09	9.173929e+00	8.542639e+01
1.090000e-06	1.271493e-06	1.384746e-09	9.503787e+00	8.994878e+01
1.100000e-06	1.315319e-06	1.454745e-09	9.831365e+00	9.435219e+01
1.110000e-06	1.358909e-06	1.518679e-09	1.015718e+01	9.863265e+01
1.120000e-06	1.402237e-06	1.577563e-09	1.048103e+01	1.027861e+02
1.130000e-06	1.445156e-06	1.638482e-09	1.080183e+01	1.068090e+02
1.140000e-06	1.487376e-06	1.700875e-09	1.111740e+01	1.106991e+02
1.150000e-06	1.528584e-06	1.759033e-09	1.142541e+01	1.144558e+02
1.160000e-06	1.568922e-06	1.813330e-09	1.172692e+01	1.180807e+02
1.170000e-06	1.608743e-06	1.867982e-09	1.202456e+01	1.215772e+02
1.180000e-06	1.648174e-06	1.920095e-09	1.231930e+01	1.249504e+02
1.190000e-06	1.687122e-06	1.970054e-09	1.261041e+01	1.282067e+02
1.200000e-06	1.725467e-06	2.019292e-09	1.289702e+01	1.313528e+02
1.210000e-06	1.763220e-06	2.065870e-09	1.317920e+01	1.343948e+02
1.220000e-06	1.800327e-06	2.109108e-09	1.345656e+01	1.373376e+02
1.230000e-06	1.836769e-06	2.152488e-09	1.372895e+01	1.401843e+02
1.240000e-06	1.872704e-06	2.196187e-09	1.399754e+01	1.429361e+02
1.250000e-06	1.908251e-06	2.236185e-09	1.426324e+01	1.455920e+02
1.260000e-06	1.943320e-06	2.273397e-09	1.452536e+01	1.481495e+02
1.270000e-06	1.977563e-06	2.311154e-09	1.478131e+01	1.506054e+02
1.280000e-06	2.010700e-06	2.348379e-09	1.502899e+01	1.529564e+02
1.290000e-06	2.042876e-06	2.381275e-09	1.526949e+01	1.552000e+02
1.300000e-06	2.074427e-06	2.411746e-09	1.550533e+01	1.573356e+02
1.310000e-06	2.105419e-06	2.441748e-09	1.573698e+01	1.593647e+02
1.320000e-06	2.135729e-06	2.472067e-09	1.596353e+01	1.612915e+02
1.330000e-06	2.165352e-06	2.500984e-09	1.618495e+01	1.631222e+02
1.340000e-06	2.194194e-06	2.528538e-09	1.640052e+01	1.648650e+02
1.350000e-06	2.222266e-06	2.556285e-09	1.661035e+01	1.665290e+02
1.360000e-06	2.249786e-06	2.583794e-09	1.681605e+01	1.681235e+02
1.370000e-06	2.276692e-06	2.608155e-09	1.701716e+01	1.696564e+02
1.380000e-06	2.302492e-06	2.630519e-09	1.721000e+01	1.711343e+02
1.390000e-06	2.327054e-06	2.652925e-09	1.739359e+01	1.725612e+02
1.400000e-06	2.350797e-06	2.674244e-09	1.757105e+01	1.739384e+02
1.410000e-06	2.373832e-06	2.694208e-09	1.774323e+01	1.752651e+02
1.420000e-06	2.396037e-06	2.713796e-09	1.790920e+01	1.765384e+02
1.430000e-06	2.417386e-06	2.733308e-09	1.806878e+01	1.777547e+02
1.440000e-06	2.437927e-06	2.751570e-09	1.822230e+01	1.789101e+02
1.450000e-06	2.457818e-06	2.769485e-09	1.837099e+01	1.800018e+02
1.460000e-06	2.477083e-06	2.786721e-09	1.851498e+01	1.810286e+02
1.470000e-06	2.495419e-06	2.801985e-09	1.865203e+01	1.819917e+02
1.480000e-06	2.512699e-06	2.817420e-09	1.878119e+01	1.828944e+02
1.490000e-06	2.529111e-06	2.832821e-09	1.890387e+01	1.837420e+02
1.500000e-06	2.544586e-06	2.846717e-09	1.901953e+01	1.845412e+02
1.510000e-06	2.558995e-06	2.860260e-09	1.912724e+01	1.852993e+02
1.520000e-06	2.572488e-06	2.873375e-09	1.922809e+01	1.860227e+02
1.530000e-06	2.585124e-06	2.884846e-09	1.932254e+01	1.867164e+02
1.540000e-06	2.596853e-06	2.894778e-09	1.941020e+01	1.873834e+02
1.550000e-06	2.607507e-06	2.905170e-09	1.948984e+01	1.880237e+02
1.560000e-06	2.616866e-06	2.916796e-09	1.955979e+01	1.886350e+02
1.570000e-06	2.625063e-06	2.926988e-09	1.962106e+01	1.892128e+02
1.580000e-06	2.632427e-06	2.935620e-09	1.967610e+01	1.897514e+02
1.590000e-06	2.638958e-06	2.943555e-09	1.972492e+01	1.902447e+02
1.600000e-06	2.644574e-06	2.951441e-09	1.976689e+01	1.906877e+02
1.610000e-06	2.649306e-06	2.959908e-09	1.980226e+01	1.910772e+02
1.620000e-06	2.653271e-06	2.967608e-09	1.983190e+01	1.914123e+02
1.630000e-06	2.656492e-06	2.973656e-09	1.985597e+01	1.916952e+02
1.640000e-06	2.658654e-06	2.978754e-09	1.987214e+01	1.919303e+02
1.650000e-06	2.659506e-06	2.985407e-09	1.987850e+01	1.921240e+02
1.660000e-06	2.659336e-06	2.992292e-09	1.987723e+01	1.922834e+02
1.670000e-06	2.658453e-06	2.995388e-09	1.987063e+01	1.924149e+02
1.680000e-06	2.656729e-06	2.995180e-09	1.985775e+01	1.925232e+02
1.690000e-06	2.654155e-06	2.997061e-09	1.983850e+01	1.926102e+02
1.700000e-06	2.650764e-06	2.999423e-09	1.981316e+01	1.926740e+02
1.710000e-06	2.646652e-06	3.000060e-09	1.978242e+01	1.927093e+02
1.720000e-06	2.641907e-06	3.002229e-09	1.974696e+01	1.927075e+02
1.730000e-06	2.636239e-06	3.014115e-09	1.970459e+01	1.926580e+02
1.740000e-06	2.629365e-06	3.003157e-09	1.965322e+01	1.925495e+02
1.750000e-06	2.621254e-06	2.938334e-09	1.959259e+01	1.923721e+02
1.760000e-06	2.611806e-06	2.926870e-09	1.952197e+01	1.921190e+02
1.770000e-06	2.601183e-06	3.039403e-09	1.944257e+01	1.917876e+02
1.780000e-06	2.590308e-06	3.095119e-09	1.936128e+01	1.913812e+02
1.790000e-06	2.579318e-06	2.984654e-09	1.927914e+01	1.909084e+02
1.800000e-06	2.566891e-06	2.860371e-09	1.918625e+01	1.903835e+02
1.810000e-06	2.552507e-06	2.929532e-09	1.907874e+01	1.898247e+02
1.820000e-06	2.537419e-06	2.956203e-09	1.896596e+01	1.892524e+02
1.830000e-06	2.522021e-06	2.928451e-09	1.885087e+01	1.886868e+02
1.840000e-06	2.505299e-06	2.913008e-09	1.872588e+01	1.881455e+02
1.850000e-06	2.487432e-06	2.816848e-09	1.859233e+01	1.876413e+02
1.860000e-06	2.469234e-06	2.798406e-09	1.845632e+01	1.871805e+02
1.870000e-06	2.450370e-06	2.942922e-09	1.831532e+01	1.867616e+02
1.880000e-06	2.430479e-06	2.907449e-09	1.816664e+01	1.863756e+02
1.890000e-06	2.409941e-06	2.649739e-09	1.801313e+01	1.860063e+02
1.900000e-06	2.388530e-06	2.735376e-09	1.785309e+01	1.856326e+02
1.910000e-06	2.365744e-06	2.919970e-09	1.768277e+01	1.852299e+02
1.920000e-06	2.341857e-06	2.749071e-09	1.750424e+01	1.847736e+02
1.930000e-06	2.317313e-06	2.653290e-09	1.732078e+01	1.842412e+02
1.940000e-06	2.292113e-06	2.826093e-09	1.713242e+01	1.836149e+02
1.950000e-06	2.266032e-06	2.772646e-09	1.693748e+01	1.828833e+02
1.960000e-06	2.238946e-06	2.662866e-09	1.673502e+01	1.820423e+02
1.970000e-06	2.211179e-06	2.734323e-09	1.652748e+01	1.810952e+02
1.980000e-06	2.182939e-06	2.714373e-09	1.631640e+01	1.800521e+02
1.990000e-06	2.153802e-06	2.642873e-09	1.609861e+01	1.789277e+02
2.000000e-06	2.123707e-06	2.653917e-09	1.587367e+01	1.777397e+02
2.010000e-06	2.092977e-06	2.670945e-09	1.564398e+01	1.765063e+02
2.020000e-06	2.061365e-06	2.656788e-09	1.540769e+01	1.752437e+02
2.030000e-06	2.028885e-06	2.550782e-09	1.516492e+01	1.739645e+02
2.040000e-06	1.995958e-06	2.543493e-09	1.491880e+01	1.726763e+02
2.050000e-06	1.962338e-06	2.675305e-09	1.466752e+01	1.713807e+02
2.060000e-06	1.927848e-06	2.552860e-09	1.440972e+01	1.700744e+02
2.070000e-06	1.892799e-06	2.414449e-09	1.414775e+01	1.687492e+02
2.080000e-06	1.857258e-06	2.556698e-09	1.388209e+01	1.673943e+02
2.090000e-06	1.821111e-06	2.566877e-09	1.361191e+01	1.659972e+02
2.100000e-06	1.784362e-06	2.408370e-09	1.333723e+01	1.645462e+02
2.110000e-06	1.747028e-06	2.416585e-09	1.305818e+01	1.630315e+02
2.120000e-06	1.708867e-06	2.460508e-09	1.277294e+01	1.614464e+02
2.130000e-06	1.669624e-06	2.406413e-09	1.247962e+01	1.597882e+02
2.140000e-06	1.629625e-06	2.348133e-09	1.218065e+01	1.580576e+02
2.150000e-06	1.589300e-06	2.340897e-09	1.187924e+01	1.562583e+02
2.160000e-06	1.548518e-06	2.346023e-09	1.157441e+01	1.543962e+02
2.170000e-06	1.507115e-06	2.275795e-09	1.126495e+01	1.524777e+02
2.180000e-06	1.465250e-06	2.241176e-09	1.095203e+01	1.505086e+02
2.190000e-06	1.423022e-06	2.265825e-09	1.063639e+01	1.484928e+02
2.200000e-06	1.380227e-06	2.206548e-09	1.031652e+01	1.464318e+02
2.210000e-06	1.336852e-06	2.134968e-09	9.992316e+00	1.443243e+02
2.220000e-06	1.293098e-06	2.148203e-09	9.665274e+00	1.421659e+02
2.230000e-06	1.249053e-06	2.141487e-09	9.336055e+00	1.399506e+02
2.240000e-06	1.204797e-06	2.057281e-09	9.005269e+00	1.376707e+02
2.250000e-06	1.160311e-06	2.009477e-09	8.672758e+00	1.353188e+02
2.260000e-06	1.115428e-06	2.018414e-09	8.337278e+00	1.328882e+02
2.270000e-06	1.069883e-06	1.973172e-09	7.996854e+00	1.303739e+02
2.280000e-06	1.023727e-06	1.892139e-09	7.651858e+00	1.277733e+02
2.290000e-06	9.772695e-07	1.876782e-09	7.304610e+00	1.250857e+02
2.300000e-06	9.305577e-07	1.858951e-09	6.955462e+00	1.223125e+02
2.310000e-06	8.835663e-07	1.787741e-09	6.604224e+00	1.194562e+02
2.320000e-06	8.363882e-07	1.740207e-09	6.251591e+00	1.165193e+02
2.330000e-06	7.889868e-07	1.719252e-09	5.897289e+00	1.135035e+02
2.340000e-06	7.412270e-07	1.670881e-09	5.540308e+00	1.104085e+02
2.350000e-06	6.931931e-07	1.599835e-09	5.181278e+00	1.072318e+02
2.360000e-06	6.450018e-07	1.560825e-09	4.821072e+00	1.039677e+02
2.370000e-06	5.964268e-07	1.525124e-09	4.457997e+00	1.006082e+02
2.380000e-06	5.474461e-07	1.453820e-09	4.091891e+00	9.714307e+01
2.390000e-06	4.982707e-07	1.394942e-09	3.724329e+00	9.356112e+01
2.400000e-06	4.489057e-07	1.357698e-09	3.355350e+00	8.985110e+01
2.410000e-06	3.992823e-07	1.296765e-09	2.984440e+00	8.600302e+01
2.420000e-06	3.495093e-07	1.221458e-09	2.612410e+00	8.200922e+01
2.430000e-06	2.997058e-07	1.168808e-09	2.240154e+00	7.786514e+01
2.440000e-06	2.497758e-07	1.115360e-09	1.866952e+00	7.356979e+01
2.450000e-06	1.996838e-07	1.034152e-09	1.492539e+00	6.912572e+01
2.460000e-06	1.495553e-07	9.545332e-10	1.117853e+00	6.453859e+01
2.470000e-06	9.940979e-08	8.988788e-10	7.430394e-01	5.981650e+01
2.480000e-06	4.920657e-08	8.319509e-10	3.677950e-01	5.496898e+01
2.490000e-06	-1.002850e-09	7.458967e-10	-7.495811e-03	5.000605e+01
2.500000e-06	-5.113058e-08	6.703696e-10	-3.821760e-01	4.493737e+01
2.510000e-06	-1.012436e-07	6.015441e-10	-7.567464e-01	3.977158e+01
2.520000e-06	-1.514043e-07	5.224386e-10	-1.131672e+00	3.451604e+01
2.530000e-06	-2.014799e-07	4.370399e-10	-1.505964e+00	2.917692e+01
2.540000e-06	-2.514400e-07	3.586298e-10	-1.879390e+00	2.375961e+01
2.550000e-06	-3.013942e-07	2.764149e-10	-2.252774e+00	1.826945e+01
2.560000e-06	-3.512443e-07	1.880855e-10	-2.625379e+00	1.271247e+01
2.570000e-06	-4.008329e-07	1.072198e-10	-2.996029e+00	7.096256e+00
2.580000e-06	-4.502147e-07	2.546383e-11	-3.365134e+00	1.430511e+00
2.590000e-06	-4.993454e-07	-6.897209e-11	-3.732362e+00	-4.272561e+00
2.600000e-06	-5.481252e-07	-1.607928e-10	-4.096967e+00	-9.998274e+00
2.610000e-06	-5.966151e-07	-2.388087e-10	-4.459405e+00	-1.572984e+01
2.620000e-06	-6.448134e-07	-3.201589e-10	-4.819664e+00	-2.144908e+01
2.630000e-06	-6.926712e-07	-4.115251e-10	-5.177378e+00	-2.713734e+01
2.640000e-06	-7.401419e-07	-4.993026e-10	-5.532198e+00	-3.277654e+01
2.650000e-06	-7.872834e-07	-5.765882e-10	-5.884557e+00	-3.835014e+01
2.660000e-06	-8.342674e-07	-6.563476e-10	-6.235740e+00	-4.384397e+01
2.670000e-06	-8.810645e-07	-7.412402e-10	-6.585525e+00	-4.924671e+01
2.680000e-06	-9.276040e-07	-8.225713e-10	-6.933385e+00	-5.455004e+01
2.690000e-06	-9.739505e-07	-9.004687e-10	-7.279802e+00	-5.974848e+01
2.700000e-06	-1.020065e-06	-9.777765e-10	-7.624488e+00	-6.483880e+01
2.710000e-06	-1.065746e-06	-1.052342e-09	-7.965928e+00	-6.981938e+01
2.720000e-06	-1.110899e-06	-1.123710e-09	-8.303426e+00	-7.468931e+01
2.730000e-06	-1.155603e-06	-1.197659e-09	-8.637564e+00	-7.944772e+01
2.740000e-06	-1.200014e-06	-1.270090e-09	-8.969514e+00	-8.409312e+01
2.750000e-06	-1.244215e-06	-1.336270e-09	-9.299899e+00	-8.862313e+01
2.760000e-06	-1.288183e-06	-1.401631e-09	-9.628538e+00	-9.303444e+01
2.770000e-06	-1.331776e-06	-1.470969e-09	-9.954375e+00	-9.732308e+01
2.780000e-06	-1.374858e-06	-1.537597e-09	-1.027639e+01	-1.014850e+02
2.790000e-06	-1.417430e-06	-1.596554e-09	-1.059459e+01	-1.055166e+02
2.800000e-06	-1.459554e-06	-1.654095e-09	-1.090945e+01	-1.094155e+02
2.810000e-06	-1.501183e-06	-1.712064e-09	-1.122061e+01	-1.131810e+02
2.820000e-06	-1.542208e-06	-1.766643e-09	-1.152725e+01	-1.168144e+02
2.830000e-06	-1.582698e-06	-1.818167e-09	-1.182989e+01	-1.203191e+02
2.840000e-06	-1.622842e-06	-1.871105e-09	-1.212995e+01	-1.237002e+02
2.850000e-06	-1.662616e-06	-1.922017e-09	-1.242724e+01	-1.269640e+02
2.860000e-06	-1.701670e-06	-1.969958e-09	-1.271915e+01	-1.301170e+02
2.870000e-06	-1.739756e-06	-2.020195e-09	-1.300382e+01	-1.331654e+02
2.880000e-06	-1.776935e-06	-2.068932e-09	-1.328172e+01	-1.361144e+02
2.890000e-06	-1.813450e-06	-2.110777e-09	-1.355465e+01	-1.389673e+02
2.900000e-06	-1.849470e-06	-2.149625e-09	-1.382388e+01	-1.417251e+02
2.910000e-06	-1.884954e-06	-2.189572e-09	-1.408911e+01	-1.443872e+02
2.920000e-06	-1.919787e-06	-2.227562e-09	-1.434946e+01	-1.469511e+02
2.930000e-06	-1.953954e-06	-2.263158e-09	-1.460485e+01	-1.494136e+02
2.940000e-06	-1.987392e-06	-2.299264e-09	-1.485478e+01	-1.517714e+02
