# Temperatura_=_20.0
# Concentracion g/m^3_=_9000.0
# C_Vs_to_Am_M_A/Vsm_=_65563218390.804596
# pendiente_HvsI_1/m_=_3716.3
# ordenada_HvsI_A/m_=_1297.0
# frecuencia_Hz_=_301057.22495955403

Tiempo_(s)	Campo_(V.s)	Magnetizacion_(V.s)	Campo_(kA/m)	Magnetizacion_(A/m)
0.000000e+00	-2.652003e-06	-2.883793e-09	-1.977891e+01	-1.915831e+02
1.000000e-08	-2.651731e-06	-2.888952e-09	-1.977688e+01	-1.917040e+02
2.000000e-08	-2.650333e-06	-2.894457e-09	-1.976646e+01	-1.918102e+02
3.000000e-08	-2.647652e-06	-2.895268e-09	-1.974646e+01	-1.919037e+02
4.000000e-08	-2.644102e-06	-2.895301e-09	-1.971998e+01	-1.919821e+02
5.000000e-08	-2.639924e-06	-2.894334e-09	-1.968882e+01	-1.920383e+02
6.000000e-08	-2.634980e-06	-2.889973e-09	-1.965195e+01	-1.920614e+02
7.000000e-08	-2.629141e-06	-2.876631e-09	-1.960840e+01	-1.920375e+02
8.000000e-08	-2.622300e-06	-2.879550e-09	-1.955738e+01	-1.919523e+02
9.000000e-08	-2.614531e-06	-2.940676e-09	-1.949944e+01	-1.917922e+02
1.000000e-07	-2.605533e-06	-2.986411e-09	-1.943233e+01	-1.915474e+02
1.100000e-07	-2.595182e-06	-2.854980e-09	-1.935513e+01	-1.912130e+02
1.200000e-07	-2.583957e-06	-2.738882e-09	-1.927141e+01	-1.907909e+02
1.300000e-07	-2.571914e-06	-2.840274e-09	-1.918160e+01	-1.902897e+02
1.400000e-07	-2.558917e-06	-3.019916e-09	-1.908466e+01	-1.897246e+02
1.500000e-07	-2.545221e-06	-2.887310e-09	-1.898252e+01	-1.891159e+02
1.600000e-07	-2.530547e-06	-2.800920e-09	-1.887308e+01	-1.884871e+02
1.700000e-07	-2.514190e-06	-2.854591e-09	-1.875108e+01	-1.878620e+02
1.800000e-07	-2.496791e-06	-2.835736e-09	-1.862132e+01	-1.872622e+02
1.900000e-07	-2.479185e-06	-2.923744e-09	-1.849001e+01	-1.867039e+02
2.000000e-07	-2.460800e-06	-2.965555e-09	-1.835290e+01	-1.861965e+02
2.100000e-07	-2.441324e-06	-2.744506e-09	-1.820765e+01	-1.857407e+02
2.200000e-07	-2.421357e-06	-2.668011e-09	-1.805873e+01	-1.853285e+02
2.300000e-07	-2.400826e-06	-2.995582e-09	-1.790561e+01	-1.849436e+02
2.400000e-07	-2.379075e-06	-2.968734e-09	-1.774338e+01	-1.845635e+02
2.500000e-07	-2.356173e-06	-2.694647e-09	-1.757257e+01	-1.841617e+02
2.600000e-07	-2.332672e-06	-2.760798e-09	-1.739731e+01	-1.837105e+02
2.700000e-07	-2.308724e-06	-2.972565e-09	-1.721870e+01	-1.831844e+02
2.800000e-07	-2.283942e-06	-2.858671e-09	-1.703387e+01	-1.825629e+02
2.900000e-07	-2.257898e-06	-2.750233e-09	-1.683963e+01	-1.818318e+02
3.000000e-07	-2.230747e-06	-2.764630e-09	-1.663714e+01	-1.809856e+02
3.100000e-07	-2.202987e-06	-2.773032e-09	-1.643010e+01	-1.800268e+02
3.200000e-07	-2.174628e-06	-2.783138e-09	-1.621859e+01	-1.789654e+02
3.300000e-07	-2.145497e-06	-2.746427e-09	-1.600133e+01	-1.778173e+02
3.400000e-07	-2.115628e-06	-2.731291e-09	-1.577857e+01	-1.766018e+02
3.500000e-07	-2.084884e-06	-2.678232e-09	-1.554928e+01	-1.753392e+02
3.600000e-07	-2.053469e-06	-2.638505e-09	-1.531498e+01	-1.740478e+02
3.700000e-07	-2.021775e-06	-2.706866e-09	-1.507861e+01	-1.727419e+02
3.800000e-07	-1.989388e-06	-2.726296e-09	-1.483706e+01	-1.714303e+02
3.900000e-07	-1.955642e-06	-2.515816e-09	-1.458538e+01	-1.701155e+02
4.000000e-07	-1.920847e-06	-2.550917e-09	-1.432587e+01	-1.687937e+02
4.100000e-07	-1.885545e-06	-2.722571e-09	-1.406259e+01	-1.674559e+02
4.200000e-07	-1.849722e-06	-2.577655e-09	-1.379541e+01	-1.660897e+02
4.300000e-07	-1.813327e-06	-2.426293e-09	-1.352398e+01	-1.646810e+02
4.400000e-07	-1.776343e-06	-2.544229e-09	-1.324814e+01	-1.632160e+02
4.500000e-07	-1.738724e-06	-2.578510e-09	-1.296758e+01	-1.616835e+02
4.600000e-07	-1.700417e-06	-2.426609e-09	-1.268188e+01	-1.600760e+02
4.700000e-07	-1.661494e-06	-2.408835e-09	-1.239159e+01	-1.583902e+02
4.800000e-07	-1.622134e-06	-2.434439e-09	-1.209804e+01	-1.566275e+02
4.900000e-07	-1.582442e-06	-2.400405e-09	-1.180201e+01	-1.547929e+02
5.000000e-07	-1.542414e-06	-2.346151e-09	-1.150348e+01	-1.528943e+02
5.100000e-07	-1.501771e-06	-2.335438e-09	-1.120036e+01	-1.509402e+02
5.200000e-07	-1.460117e-06	-2.298118e-09	-1.088970e+01	-1.489388e+02
5.300000e-07	-1.417416e-06	-2.250685e-09	-1.057123e+01	-1.468960e+02
5.400000e-07	-1.374143e-06	-2.247512e-09	-1.024850e+01	-1.448148e+02
5.500000e-07	-1.330612e-06	-2.227453e-09	-9.923837e+00	-1.426941e+02
5.600000e-07	-1.286739e-06	-2.163504e-09	-9.596628e+00	-1.405293e+02
5.700000e-07	-1.242470e-06	-2.096718e-09	-9.266467e+00	-1.383127e+02
5.800000e-07	-1.197775e-06	-2.113101e-09	-8.933126e+00	-1.360345e+02
5.900000e-07	-1.152690e-06	-2.095471e-09	-8.596877e+00	-1.336842e+02
6.000000e-07	-1.107140e-06	-2.006487e-09	-8.257162e+00	-1.312519e+02
6.100000e-07	-1.061115e-06	-1.952105e-09	-7.913903e+00	-1.287293e+02
6.200000e-07	-1.014706e-06	-1.965879e-09	-7.567783e+00	-1.261111e+02
6.300000e-07	-9.679129e-07	-1.929114e-09	-7.218793e+00	-1.233946e+02
6.400000e-07	-9.208318e-07	-1.839780e-09	-6.867658e+00	-1.205803e+02
6.500000e-07	-8.735346e-07	-1.804486e-09	-6.514910e+00	-1.176708e+02
6.600000e-07	-8.260627e-07	-1.783021e-09	-6.160860e+00	-1.146700e+02
6.700000e-07	-7.783736e-07	-1.731557e-09	-5.805190e+00	-1.115818e+02
6.800000e-07	-7.304566e-07	-1.670161e-09	-5.447820e+00	-1.084091e+02
6.900000e-07	-6.822595e-07	-1.632483e-09	-5.088361e+00	-1.051526e+02
7.000000e-07	-6.336314e-07	-1.576789e-09	-4.725688e+00	-1.018103e+02
7.100000e-07	-5.846271e-07	-1.516019e-09	-4.360209e+00	-9.837710e+01
7.200000e-07	-5.352721e-07	-1.475073e-09	-3.992114e+00	-9.484538e+01
7.300000e-07	-4.854885e-07	-1.420030e-09	-3.620823e+00	-9.120533e+01
7.400000e-07	-4.353303e-07	-1.345429e-09	-3.246738e+00	-8.744621e+01
7.500000e-07	-3.848742e-07	-1.285317e-09	-2.870431e+00	-8.355747e+01
7.600000e-07	-3.341875e-07	-1.246061e-09	-2.492404e+00	-7.953000e+01
7.700000e-07	-2.834006e-07	-1.173797e-09	-2.113631e+00	-7.535712e+01
7.800000e-07	-2.325133e-07	-1.087948e-09	-1.734108e+00	-7.103530e+01
7.900000e-07	-1.814841e-07	-1.026574e-09	-1.353527e+00	-6.656452e+01
8.000000e-07	-1.303639e-07	-9.735477e-10	-9.722675e-01	-6.194816e+01
8.100000e-07	-7.926305e-08	-8.921405e-10	-5.911519e-01	-5.719253e+01
8.200000e-07	-2.817260e-08	-8.030753e-10	-2.101141e-01	-5.230616e+01
8.300000e-07	2.302774e-08	-7.372023e-10	1.717432e-01	-4.729893e+01
8.400000e-07	7.424028e-08	-6.692325e-10	5.536916e-01	-4.218115e+01
8.500000e-07	1.253341e-07	-5.849977e-10	9.347547e-01	-3.696294e+01
8.600000e-07	1.762963e-07	-4.946949e-10	1.314835e+00	-3.165370e+01
8.700000e-07	2.271895e-07	-4.138519e-10	1.694403e+00	-2.626198e+01
8.800000e-07	2.780407e-07	-3.290430e-10	2.073656e+00	-2.079572e+01
8.900000e-07	3.287654e-07	-2.428241e-10	2.451966e+00	-1.526260e+01
9.000000e-07	3.792309e-07	-1.588240e-10	2.828343e+00	-9.670727e+00
9.100000e-07	4.294055e-07	-6.947918e-11	3.202550e+00	-4.029203e+00
9.200000e-07	4.792366e-07	2.035556e-11	3.574195e+00	1.651288e+00
9.300000e-07	5.287140e-07	1.041855e-10	3.943203e+00	7.358164e+00
9.400000e-07	5.778810e-07	1.854607e-10	4.309895e+00	1.307691e+01
9.500000e-07	6.266215e-07	2.801221e-10	4.673407e+00	1.879133e+01
9.600000e-07	6.749749e-07	3.732519e-10	5.034032e+00	2.448417e+01
9.700000e-07	7.230834e-07	4.549365e-10	5.392830e+00	3.013785e+01
9.800000e-07	7.709603e-07	5.343596e-10	5.749901e+00	3.573541e+01
9.900000e-07	8.186334e-07	6.250993e-10	6.105451e+00	4.126135e+01
1.000000e-06	8.661587e-07	7.145630e-10	6.459900e+00	4.670243e+01
1.010000e-06	9.135429e-07	7.920895e-10	6.813296e+00	5.204809e+01
1.020000e-06	9.606735e-07	8.717275e-10	7.164801e+00	5.729062e+01
1.030000e-06	1.007364e-06	9.540524e-10	7.513025e+00	6.242508e+01
1.040000e-06	1.053574e-06	1.032664e-09	7.857659e+00	6.744875e+01
1.050000e-06	1.099418e-06	1.105281e-09	8.199570e+00	7.236054e+01
1.060000e-06	1.144924e-06	1.179711e-09	8.538958e+00	7.716023e+01
1.070000e-06	1.190077e-06	1.252335e-09	8.875715e+00	8.184771e+01
1.080000e-06	1.234790e-06	1.322467e-09	9.209190e+00	8.642244e+01
1.090000e-06	1.278979e-06	1.391805e-09	9.538758e+00	9.088310e+01
1.100000e-06	1.322803e-06	1.457620e-09	9.865598e+00	9.522747e+01
1.110000e-06	1.366412e-06	1.520603e-09	1.019084e+01	9.945269e+01
1.120000e-06	1.409811e-06	1.580261e-09	1.051452e+01	1.035556e+02
1.130000e-06	1.452781e-06	1.642001e-09	1.083499e+01	1.075335e+02
1.140000e-06	1.494994e-06	1.698595e-09	1.114982e+01	1.113843e+02
1.150000e-06	1.536243e-06	1.754399e-09	1.145746e+01	1.151074e+02
1.160000e-06	1.576593e-06	1.811036e-09	1.175839e+01	1.187039e+02
1.170000e-06	1.616390e-06	1.864705e-09	1.205520e+01	1.221764e+02
1.180000e-06	1.655860e-06	1.913063e-09	1.234957e+01	1.255291e+02
1.190000e-06	1.694900e-06	1.959977e-09	1.264074e+01	1.287671e+02
1.200000e-06	1.733361e-06	2.011739e-09	1.292758e+01	1.318958e+02
1.210000e-06	1.771179e-06	2.060332e-09	1.320964e+01	1.349201e+02
1.220000e-06	1.808364e-06	2.104775e-09	1.348696e+01	1.378441e+02
1.230000e-06	1.844886e-06	2.146478e-09	1.375935e+01	1.406704e+02
1.240000e-06	1.880801e-06	2.188247e-09	1.402721e+01	1.433998e+02
1.250000e-06	1.916334e-06	2.227016e-09	1.429221e+01	1.460315e+02
1.260000e-06	1.951411e-06	2.264812e-09	1.455382e+01	1.485639e+02
1.270000e-06	1.985658e-06	2.301055e-09	1.480924e+01	1.509945e+02
1.280000e-06	2.018810e-06	2.335416e-09	1.505649e+01	1.533212e+02
1.290000e-06	2.050987e-06	2.368178e-09	1.529647e+01	1.555430e+02
1.300000e-06	2.082560e-06	2.400844e-09	1.553194e+01	1.576606e+02
1.310000e-06	2.113597e-06	2.432688e-09	1.576342e+01	1.596767e+02
1.320000e-06	2.143910e-06	2.460959e-09	1.598950e+01	1.615964e+02
1.330000e-06	2.173453e-06	2.488036e-09	1.620983e+01	1.634267e+02
1.340000e-06	2.202190e-06	2.516513e-09	1.642416e+01	1.651758e+02
1.350000e-06	2.230203e-06	2.546425e-09	1.663308e+01	1.668527e+02
1.360000e-06	2.257706e-06	2.571732e-09	1.683820e+01	1.684656e+02
1.370000e-06	2.284564e-06	2.594792e-09	1.703851e+01	1.700217e+02
1.380000e-06	2.310325e-06	2.619219e-09	1.723064e+01	1.715258e+02
1.390000e-06	2.334858e-06	2.642474e-09	1.741361e+01	1.729803e+02
1.400000e-06	2.358534e-06	2.663925e-09	1.759019e+01	1.743850e+02
1.410000e-06	2.381483e-06	2.684550e-09	1.776134e+01	1.757371e+02
1.420000e-06	2.403605e-06	2.704126e-09	1.792633e+01	1.770326e+02
1.430000e-06	2.424912e-06	2.722885e-09	1.808524e+01	1.782664e+02
1.440000e-06	2.445385e-06	2.741560e-09	1.823793e+01	1.794341e+02
1.450000e-06	2.465201e-06	2.758899e-09	1.838572e+01	1.805327e+02
1.460000e-06	2.484385e-06	2.774516e-09	1.852879e+01	1.815611e+02
1.470000e-06	2.502643e-06	2.789432e-09	1.866497e+01	1.825209e+02
1.480000e-06	2.519892e-06	2.805183e-09	1.879361e+01	1.834165e+02
1.490000e-06	2.536298e-06	2.820302e-09	1.891597e+01	1.842541e+02
1.500000e-06	2.551768e-06	2.833921e-09	1.903135e+01	1.850416e+02
1.510000e-06	2.566157e-06	2.846698e-09	1.913866e+01	1.857871e+02
1.520000e-06	2.579635e-06	2.858466e-09	1.923918e+01	1.864978e+02
1.530000e-06	2.592215e-06	2.869938e-09	1.933300e+01	1.871792e+02
1.540000e-06	2.603843e-06	2.879552e-09	1.941973e+01	1.878341e+02
1.550000e-06	2.614354e-06	2.887694e-09	1.949812e+01	1.884623e+02
1.560000e-06	2.623517e-06	2.898123e-09	1.956646e+01	1.890611e+02
1.570000e-06	2.631623e-06	2.909391e-09	1.962691e+01	1.896250e+02
1.580000e-06	2.638946e-06	2.918546e-09	1.968153e+01	1.901478e+02
1.590000e-06	2.645396e-06	2.925722e-09	1.972963e+01	1.906228e+02
1.600000e-06	2.650921e-06	2.931996e-09	1.977084e+01	1.910449e+02
1.610000e-06	2.655546e-06	2.938371e-09	1.980533e+01	1.914109e+02
1.620000e-06	2.659444e-06	2.944629e-09	1.983441e+01	1.917211e+02
1.630000e-06	2.662636e-06	2.950497e-09	1.985821e+01	1.919786e+02
1.640000e-06	2.664668e-06	2.955463e-09	1.987337e+01	1.921896e+02
1.650000e-06	2.665356e-06	2.961537e-09	1.987850e+01	1.923625e+02
1.660000e-06	2.665136e-06	2.967776e-09	1.987686e+01	1.925062e+02
1.670000e-06	2.664170e-06	2.970392e-09	1.986965e+01	1.926291e+02
1.680000e-06	2.662363e-06	2.969091e-09	1.985618e+01	1.927369e+02
1.690000e-06	2.659740e-06	2.970560e-09	1.983661e+01	1.928320e+02
1.700000e-06	2.656296e-06	2.972680e-09	1.981093e+01	1.929123e+02
1.710000e-06	2.652180e-06	2.973584e-09	1.978023e+01	1.929711e+02
1.720000e-06	2.647425e-06	2.976537e-09	1.974476e+01	1.929976e+02
1.730000e-06	2.641687e-06	2.997417e-09	1.970197e+01	1.929783e+02
1.740000e-06	2.634680e-06	2.969167e-09	1.964971e+01	1.928986e+02
1.750000e-06	2.626457e-06	2.883030e-09	1.958838e+01	1.927449e+02
1.760000e-06	2.616852e-06	2.890624e-09	1.951675e+01	1.925070e+02
1.770000e-06	2.606064e-06	3.067906e-09	1.943629e+01	1.921798e+02
1.780000e-06	2.595143e-06	3.079634e-09	1.935484e+01	1.917644e+02
1.790000e-06	2.584151e-06	2.891900e-09	1.927286e+01	1.912691e+02
1.800000e-06	2.571546e-06	2.829180e-09	1.917885e+01	1.907086e+02
1.810000e-06	2.556834e-06	2.948427e-09	1.906913e+01	1.901030e+02
1.820000e-06	2.541700e-06	2.927756e-09	1.895626e+01	1.894755e+02
1.830000e-06	2.526304e-06	2.875661e-09	1.884143e+01	1.888500e+02
1.840000e-06	2.509348e-06	2.917259e-09	1.871498e+01	1.882484e+02
1.850000e-06	2.491343e-06	2.746448e-09	1.858069e+01	1.876874e+02
1.860000e-06	2.473095e-06	2.766595e-09	1.844460e+01	1.871769e+02
1.870000e-06	2.454049e-06	3.026416e-09	1.830255e+01	1.867183e+02
1.880000e-06	2.433981e-06	2.856587e-09	1.815288e+01	1.863041e+02
1.890000e-06	2.413415e-06	2.550525e-09	1.799950e+01	1.859187e+02
1.900000e-06	2.391960e-06	2.840586e-09	1.783948e+01	1.855397e+02
1.910000e-06	2.368997e-06	3.009686e-09	1.766822e+01	1.851410e+02
1.920000e-06	2.344961e-06	2.672021e-09	1.748896e+01	1.846949e+02
1.930000e-06	2.320298e-06	2.693678e-09	1.730502e+01	1.841757e+02
1.940000e-06	2.295006e-06	2.949433e-09	1.711639e+01	1.835621e+02
1.950000e-06	2.268904e-06	2.764042e-09	1.692171e+01	1.828399e+02
1.960000e-06	2.241706e-06	2.680221e-09	1.671887e+01	1.820026e+02
1.970000e-06	2.213808e-06	2.813385e-09	1.651081e+01	1.810522e+02
1.980000e-06	2.185519e-06	2.721163e-09	1.629982e+01	1.799983e+02
1.990000e-06	2.156255e-06	2.663236e-09	1.608157e+01	1.788565e+02
2.000000e-06	2.126103e-06	2.698166e-09	1.585669e+01	1.776459e+02
2.010000e-06	2.095315e-06	2.726285e-09	1.562707e+01	1.763866e+02
2.020000e-06	2.063479e-06	2.674420e-09	1.538964e+01	1.750974e+02
2.030000e-06	2.030861e-06	2.536541e-09	1.514637e+01	1.737929e+02
2.040000e-06	1.997848e-06	2.618399e-09	1.490015e+01	1.724822e+02
2.050000e-06	1.964052e-06	2.751299e-09	1.464810e+01	1.711684e+02
2.060000e-06	1.929368e-06	2.503989e-09	1.438942e+01	1.698480e+02
2.070000e-06	1.894118e-06	2.431872e-09	1.412652e+01	1.685124e+02
2.080000e-06	1.858361e-06	2.658621e-09	1.385985e+01	1.671494e+02
2.090000e-06	1.822069e-06	2.558836e-09	1.358918e+01	1.657448e+02
2.100000e-06	1.785190e-06	2.396696e-09	1.331413e+01	1.642849e+02
2.110000e-06	1.747642e-06	2.459192e-09	1.303410e+01	1.627583e+02
2.120000e-06	1.709190e-06	2.498139e-09	1.274731e+01	1.611569e+02
2.130000e-06	1.669712e-06	2.421461e-09	1.245288e+01	1.594774e+02
2.140000e-06	1.629611e-06	2.348348e-09	1.215380e+01	1.577207e+02
2.150000e-06	1.589209e-06	2.368275e-09	1.185248e+01	1.558917e+02
2.160000e-06	1.548336e-06	2.372357e-09	1.154765e+01	1.539980e+02
2.170000e-06	1.506812e-06	2.280448e-09	1.123796e+01	1.520483e+02
2.180000e-06	1.464773e-06	2.257240e-09	1.092443e+01	1.500507e+02
2.190000e-06	1.422370e-06	2.287179e-09	1.060818e+01	1.480115e+02
2.200000e-06	1.379398e-06	2.203402e-09	1.028769e+01	1.459336e+02
2.210000e-06	1.335817e-06	2.152467e-09	9.962660e+00	1.438165e+02
2.220000e-06	1.291895e-06	2.177281e-09	9.635088e+00	1.416558e+02
2.230000e-06	1.247733e-06	2.146132e-09	9.305722e+00	1.394439e+02
2.240000e-06	1.203354e-06	2.050746e-09	8.974738e+00	1.371711e+02
2.250000e-06	1.158772e-06	2.027820e-09	8.642237e+00	1.348270e+02
2.260000e-06	1.113702e-06	2.056794e-09	8.306105e+00	1.324015e+02
2.270000e-06	1.067935e-06	1.972184e-09	7.964765e+00	1.298863e+02
2.280000e-06	1.021673e-06	1.891794e-09	7.619739e+00	1.272756e+02
2.290000e-06	9.751269e-07	1.903385e-09	7.272596e+00	1.245669e+02
2.300000e-06	9.282786e-07	1.880548e-09	6.923196e+00	1.217602e+02
2.310000e-06	8.811752e-07	1.792574e-09	6.571895e+00	1.188580e+02
2.320000e-06	8.339142e-07	1.746337e-09	6.219417e+00	1.158643e+02
2.330000e-06	7.864395e-07	1.731381e-09	5.865346e+00	1.127829e+02
2.340000e-06	7.385547e-07	1.675103e-09	5.508216e+00	1.096168e+02
2.350000e-06	6.903566e-07	1.604617e-09	5.148750e+00	1.063670e+02
2.360000e-06	6.419680e-07	1.569613e-09	4.787863e+00	1.030316e+02
2.370000e-06	5.931877e-07	1.525449e-09	4.424054e+00	9.960586e+01
2.380000e-06	5.440887e-07	1.447312e-09	4.057869e+00	9.608215e+01
2.390000e-06	4.948392e-07	1.403328e-09	3.690561e+00	9.245087e+01
2.400000e-06	4.453968e-07	1.362967e-09	3.321815e+00	8.870128e+01
2.410000e-06	3.956417e-07	1.287765e-09	2.950736e+00	8.482280e+01
2.420000e-06	3.457143e-07	1.213507e-09	2.578372e+00	8.080617e+01
2.430000e-06	2.957395e-07	1.171018e-09	2.205656e+00	7.664451e+01
2.440000e-06	2.456558e-07	1.117671e-09	1.832126e+00	7.233404e+01
2.450000e-06	1.954847e-07	1.023545e-09	1.457945e+00	6.787451e+01
2.460000e-06	1.453318e-07	9.467834e-10	1.083900e+00	6.326904e+01
2.470000e-06	9.516313e-08	8.959247e-10	7.097363e-01	5.852377e+01
2.480000e-06	4.486053e-08	8.258282e-10	3.345744e-01	5.364710e+01
2.490000e-06	-5.464205e-09	7.338653e-10	-4.075260e-02	4.864883e+01
2.500000e-06	-5.569730e-08	6.588702e-10	-4.153961e-01	4.353929e+01
2.510000e-06	-1.059097e-07	5.907575e-10	-7.898854e-01	3.832860e+01
2.520000e-06	-1.561690e-07	5.076420e-10	-1.164725e+00	3.302624e+01
2.530000e-06	-2.063311e-07	4.223033e-10	-1.538838e+00	2.764082e+01
2.540000e-06	-2.562962e-07	3.445026e-10	-1.911483e+00	2.218030e+01
2.550000e-06	-3.062449e-07	2.602389e-10	-2.284006e+00	1.665238e+01
2.560000e-06	-3.561856e-07	1.690479e-10	-2.656468e+00	1.106509e+01
2.570000e-06	-4.059637e-07	9.052986e-11	-3.027718e+00	5.427449e+00
2.580000e-06	-4.556322e-07	6.386167e-12	-3.398151e+00	-2.499777e-01
2.590000e-06	-5.051730e-07	-9.007808e-11	-3.767631e+00	-5.954754e+00
2.600000e-06	-5.543409e-07	-1.794447e-10	-4.134331e+00	-1.167249e+01
2.610000e-06	-6.029849e-07	-2.567566e-10	-4.497123e+00	-1.738712e+01
2.620000e-06	-6.511946e-07	-3.401020e-10	-4.856675e+00	-2.308141e+01
2.630000e-06	-6.990315e-07	-4.319672e-10	-5.213448e+00	-2.873779e+01
2.640000e-06	-7.464734e-07	-5.152592e-10	-5.567275e+00	-3.433921e+01
2.650000e-06	-7.936502e-07	-5.936438e-10	-5.919124e+00	-3.987007e+01
2.660000e-06	-8.406113e-07	-6.770384e-10	-6.269365e+00	-4.531692e+01
2.670000e-06	-8.873306e-07	-7.620084e-10	-6.617802e+00	-5.066900e+01
2.680000e-06	-9.338728e-07	-8.396678e-10	-6.964918e+00	-5.591843e+01
2.690000e-06	-9.802630e-07	-9.173832e-10	-7.310901e+00	-6.106004e+01
2.700000e-06	-1.026433e-06	-9.969000e-10	-7.655240e+00	-6.609100e+01
2.710000e-06	-1.072200e-06	-1.070417e-09	-7.996576e+00	-7.101012e+01
2.720000e-06	-1.117470e-06	-1.138619e-09	-8.334207e+00	-7.581714e+01
2.730000e-06	-1.162302e-06	-1.211019e-09	-8.668566e+00	-8.051197e+01
2.740000e-06	-1.206785e-06	-1.283936e-09	-9.000327e+00	-8.509412e+01
2.750000e-06	-1.251006e-06	-1.350714e-09	-9.330131e+00	-8.956231e+01
2.760000e-06	-1.295008e-06	-1.417990e-09	-9.658305e+00	-9.391441e+01
2.770000e-06	-1.338718e-06	-1.485479e-09	-9.984299e+00	-9.814757e+01
2.780000e-06	-1.381886e-06	-1.550081e-09	-1.030625e+01	-1.022587e+02
2.790000e-06	-1.424472e-06	-1.607996e-09	-1.062386e+01	-1.062448e+02
2.800000e-06	-1.466640e-06	-1.666421e-09	-1.093835e+01	-1.101041e+02
2.810000e-06	-1.508354e-06	-1.725301e-09	-1.124946e+01	-1.138356e+02
2.820000e-06	-1.549447e-06	-1.777934e-09	-1.155594e+01	-1.174404e+02
2.830000e-06	-1.589969e-06	-1.829826e-09	-1.185815e+01	-1.209210e+02
2.840000e-06	-1.630139e-06	-1.884099e-09	-1.215774e+01	-1.242815e+02
2.850000e-06	-1.669889e-06	-1.934830e-09	-1.245420e+01	-1.275268e+02
2.860000e-06	-1.708960e-06	-1.980333e-09	-1.274560e+01	-1.306624e+02
2.870000e-06	-1.747150e-06	-2.028508e-09	-1.303042e+01	-1.336934e+02
2.880000e-06	-1.784351e-06	-2.076788e-09	-1.330787e+01	-1.366238e+02
2.890000e-06	-1.820812e-06	-2.121075e-09	-1.357980e+01	-1.394563e+02
2.900000e-06	-1.856876e-06	-2.162788e-09	-1.384877e+01	-1.421919e+02
2.910000e-06	-1.892454e-06	-2.201733e-09	-1.411412e+01	-1.448301e+02
2.920000e-06	-1.927340e-06	-2.238724e-09	-1.437430e+01	-1.473689e+02
2.930000e-06	-1.961548e-06	-2.275000e-09	-1.462942e+01	-1.498062e+02
2.940000e-06	-1.995084e-06	-2.312221e-09	-1.487954e+01	-1.521397e+02
