# Temperatura_=_20.0
# Concentracion g/m^3_=_9000.0
# C_Vs_to_Am_M_A/Vsm_=_65563218390.804596
# pendiente_HvsI_1/m_=_3716.3
# ordenada_HvsI_A/m_=_1297.0
# frecuencia_Hz_=_301059.9687711211

Tiempo_(s)	Campo_(V.s)	Magnetizacion_(V.s)	Campo_(kA/m)	Magnetizacion_(A/m)
0.000000e+00	-2.648698e-06	-2.903519e-09	-1.977500e+01	-1.921280e+02
1.000000e-08	-2.648543e-06	-2.907217e-09	-1.977384e+01	-1.922990e+02
2.000000e-08	-2.647300e-06	-2.911309e-09	-1.976456e+01	-1.924477e+02
3.000000e-08	-2.644817e-06	-2.913734e-09	-1.974603e+01	-1.925756e+02
4.000000e-08	-2.641456e-06	-2.914314e-09	-1.972093e+01	-1.926810e+02
5.000000e-08	-2.637374e-06	-2.913526e-09	-1.969046e+01	-1.927586e+02
6.000000e-08	-2.632473e-06	-2.910199e-09	-1.965386e+01	-1.927999e+02
7.000000e-08	-2.626668e-06	-2.900409e-09	-1.961052e+01	-1.927940e+02
8.000000e-08	-2.619976e-06	-2.903915e-09	-1.956056e+01	-1.927289e+02
9.000000e-08	-2.612347e-06	-2.950328e-09	-1.950360e+01	-1.925931e+02
1.000000e-07	-2.603399e-06	-2.989817e-09	-1.943680e+01	-1.923773e+02
1.100000e-07	-2.593066e-06	-2.890560e-09	-1.935965e+01	-1.920761e+02
1.200000e-07	-2.581852e-06	-2.789754e-09	-1.927593e+01	-1.916895e+02
1.300000e-07	-2.569944e-06	-2.860934e-09	-1.918702e+01	-1.912228e+02
1.400000e-07	-2.557156e-06	-2.995307e-09	-1.909155e+01	-1.906876e+02
1.500000e-07	-2.543557e-06	-2.919962e-09	-1.899002e+01	-1.901001e+02
1.600000e-07	-2.528925e-06	-2.837165e-09	-1.888078e+01	-1.894799e+02
1.700000e-07	-2.512754e-06	-2.875279e-09	-1.876005e+01	-1.888480e+02
1.800000e-07	-2.495505e-06	-2.868703e-09	-1.863127e+01	-1.882245e+02
1.900000e-07	-2.477937e-06	-2.921786e-09	-1.850011e+01	-1.876257e+02
2.000000e-07	-2.459660e-06	-2.962790e-09	-1.836365e+01	-1.870629e+02
2.100000e-07	-2.440296e-06	-2.802648e-09	-1.821908e+01	-1.865400e+02
2.200000e-07	-2.420323e-06	-2.720807e-09	-1.806997e+01	-1.860537e+02
2.300000e-07	-2.399810e-06	-2.951061e-09	-1.791682e+01	-1.855931e+02
2.400000e-07	-2.378200e-06	-2.975484e-09	-1.775548e+01	-1.851407e+02
2.500000e-07	-2.355483e-06	-2.760047e-09	-1.758588e+01	-1.846748e+02
2.600000e-07	-2.332179e-06	-2.777280e-09	-1.741189e+01	-1.841715e+02
2.700000e-07	-2.308374e-06	-2.952925e-09	-1.723416e+01	-1.836074e+02
2.800000e-07	-2.283696e-06	-2.889315e-09	-1.704992e+01	-1.829619e+02
2.900000e-07	-2.257846e-06	-2.767857e-09	-1.685692e+01	-1.822199e+02
3.000000e-07	-2.230935e-06	-2.786846e-09	-1.665601e+01	-1.813725e+02
3.100000e-07	-2.203268e-06	-2.804588e-09	-1.644945e+01	-1.804184e+02
3.200000e-07	-2.174938e-06	-2.776170e-09	-1.623794e+01	-1.793628e+02
3.300000e-07	-2.145920e-06	-2.754772e-09	-1.602129e+01	-1.782172e+02
3.400000e-07	-2.116225e-06	-2.759753e-09	-1.579959e+01	-1.769968e+02
3.500000e-07	-2.085679e-06	-2.691459e-09	-1.557154e+01	-1.757189e+02
3.600000e-07	-2.054374e-06	-2.643098e-09	-1.533781e+01	-1.744003e+02
3.700000e-07	-2.022719e-06	-2.716964e-09	-1.510148e+01	-1.730552e+02
3.800000e-07	-1.990417e-06	-2.716244e-09	-1.486031e+01	-1.716938e+02
3.900000e-07	-1.956826e-06	-2.546550e-09	-1.460953e+01	-1.703211e+02
4.000000e-07	-1.922189e-06	-2.564495e-09	-1.435093e+01	-1.689365e+02
4.100000e-07	-1.887034e-06	-2.690740e-09	-1.408846e+01	-1.675347e+02
4.200000e-07	-1.851340e-06	-2.578184e-09	-1.382198e+01	-1.661066e+02
4.300000e-07	-1.815035e-06	-2.458035e-09	-1.355092e+01	-1.646410e+02
4.400000e-07	-1.778162e-06	-2.534544e-09	-1.327563e+01	-1.631262e+02
4.500000e-07	-1.740650e-06	-2.554966e-09	-1.299558e+01	-1.615520e+02
4.600000e-07	-1.702459e-06	-2.440662e-09	-1.271044e+01	-1.599109e+02
4.700000e-07	-1.663691e-06	-2.410062e-09	-1.242100e+01	-1.581990e+02
4.800000e-07	-1.624442e-06	-2.425816e-09	-1.212797e+01	-1.564161e+02
4.900000e-07	-1.584811e-06	-2.390853e-09	-1.183209e+01	-1.545660e+02
5.000000e-07	-1.544746e-06	-2.341285e-09	-1.153296e+01	-1.526547e+02
5.100000e-07	-1.504119e-06	-2.320048e-09	-1.122965e+01	-1.506897e+02
5.200000e-07	-1.462653e-06	-2.287572e-09	-1.092007e+01	-1.486785e+02
5.300000e-07	-1.420220e-06	-2.244400e-09	-1.060326e+01	-1.466270e+02
5.400000e-07	-1.377131e-06	-2.232424e-09	-1.028157e+01	-1.445386e+02
5.500000e-07	-1.333655e-06	-2.207807e-09	-9.956974e+00	-1.424131e+02
5.600000e-07	-1.289866e-06	-2.148793e-09	-9.630048e+00	-1.402471e+02
5.700000e-07	-1.245732e-06	-2.098297e-09	-9.300552e+00	-1.380340e+02
5.800000e-07	-1.201197e-06	-2.098302e-09	-8.968052e+00	-1.357646e+02
5.900000e-07	-1.156161e-06	-2.074620e-09	-8.631816e+00	-1.334289e+02
6.000000e-07	-1.110643e-06	-1.999862e-09	-8.291987e+00	-1.310165e+02
6.100000e-07	-1.064797e-06	-1.950123e-09	-7.949700e+00	-1.285186e+02
6.200000e-07	-1.018626e-06	-1.944945e-09	-7.604988e+00	-1.259283e+02
6.300000e-07	-9.720357e-07	-1.910220e-09	-7.257152e+00	-1.232416e+02
6.400000e-07	-9.250172e-07	-1.835714e-09	-6.906115e+00	-1.204572e+02
6.500000e-07	-8.777164e-07	-1.792976e-09	-6.552970e+00	-1.175763e+02
6.600000e-07	-8.302740e-07	-1.768787e-09	-6.198769e+00	-1.146017e+02
6.700000e-07	-7.826493e-07	-1.721986e-09	-5.843206e+00	-1.115370e+02
6.800000e-07	-7.347864e-07	-1.662720e-09	-5.485865e+00	-1.083849e+02
6.900000e-07	-6.866107e-07	-1.617873e-09	-5.126189e+00	-1.051468e+02
7.000000e-07	-6.380417e-07	-1.567808e-09	-4.763575e+00	-1.018219e+02
7.100000e-07	-5.890659e-07	-1.510115e-09	-4.397925e+00	-9.840632e+01
7.200000e-07	-5.397347e-07	-1.462565e-09	-4.029622e+00	-9.489363e+01
7.300000e-07	-4.901044e-07	-1.407183e-09	-3.659086e+00	-9.127511e+01
7.400000e-07	-4.400675e-07	-1.339578e-09	-3.285514e+00	-8.754064e+01
7.500000e-07	-3.896994e-07	-1.281797e-09	-2.909469e+00	-8.367974e+01
7.600000e-07	-3.392093e-07	-1.235754e-09	-2.532513e+00	-7.968279e+01
7.700000e-07	-2.885486e-07	-1.167829e-09	-2.154284e+00	-7.554206e+01
7.800000e-07	-2.376860e-07	-1.087541e-09	-1.774548e+00	-7.125260e+01
7.900000e-07	-1.867210e-07	-1.024379e-09	-1.394046e+00	-6.681278e+01
8.000000e-07	-1.357148e-07	-9.665514e-10	-1.013237e+00	-6.222443e+01
8.100000e-07	-8.466013e-08	-8.887167e-10	-6.320667e-01	-5.749255e+01
8.200000e-07	-3.356650e-08	-8.034222e-10	-2.506052e-01	-5.262482e+01
8.300000e-07	1.756193e-08	-7.331377e-10	1.311162e-01	-4.763077e+01
8.400000e-07	6.864851e-08	-6.643463e-10	5.125251e-01	-4.252098e+01
8.500000e-07	1.196382e-07	-5.839070e-10	8.932108e-01	-3.730626e+01
8.600000e-07	1.705117e-07	-4.969821e-10	1.273028e+00	-3.199709e+01
8.700000e-07	2.212943e-07	-4.140086e-10	1.652168e+00	-2.660328e+01
8.800000e-07	2.720540e-07	-3.303676e-10	2.031137e+00	-2.113396e+01
8.900000e-07	3.226453e-07	-2.444339e-10	2.408847e+00	-1.559781e+01
9.000000e-07	3.729609e-07	-1.584917e-10	2.784500e+00	-1.000352e+01
9.100000e-07	4.230897e-07	-6.931477e-11	3.158758e+00	-4.360386e+00
9.200000e-07	4.730242e-07	2.031568e-11	3.531567e+00	1.321157e+00
9.300000e-07	5.225971e-07	1.043263e-10	3.901674e+00	7.029135e+00
9.400000e-07	5.717109e-07	1.859628e-10	4.268355e+00	1.274985e+01
9.500000e-07	6.204208e-07	2.775994e-10	4.632019e+00	1.846799e+01
9.600000e-07	6.688298e-07	3.718685e-10	4.993438e+00	2.416703e+01
9.700000e-07	7.170015e-07	4.561537e-10	5.353084e+00	2.982988e+01
9.800000e-07	7.648770e-07	5.360307e-10	5.710519e+00	3.543972e+01
9.900000e-07	8.124781e-07	6.233686e-10	6.065906e+00	4.098082e+01
1.000000e-06	8.599312e-07	7.118732e-10	6.420187e+00	4.643939e+01
1.010000e-06	9.072645e-07	7.929552e-10	6.773575e+00	5.180409e+01
1.020000e-06	9.543598e-07	8.727198e-10	7.125185e+00	5.706643e+01
1.030000e-06	1.001044e-06	9.532256e-10	7.473725e+00	6.222073e+01
1.040000e-06	1.047302e-06	1.032548e-09	7.819085e+00	6.726382e+01
1.050000e-06	1.093190e-06	1.109357e-09	8.161683e+00	7.219452e+01
1.060000e-06	1.138717e-06	1.184947e-09	8.501580e+00	7.701285e+01
1.070000e-06	1.183868e-06	1.256069e-09	8.838674e+00	8.171932e+01
1.080000e-06	1.228547e-06	1.324529e-09	9.172248e+00	8.631424e+01
1.090000e-06	1.272750e-06	1.394052e-09	9.502265e+00	9.079716e+01
1.100000e-06	1.316605e-06	1.462705e-09	9.829684e+00	9.516668e+01
1.110000e-06	1.360208e-06	1.526383e-09	1.015522e+01	9.942042e+01
1.120000e-06	1.403597e-06	1.584990e-09	1.047916e+01	1.035553e+02
1.130000e-06	1.446593e-06	1.645228e-09	1.080016e+01	1.075681e+02
1.140000e-06	1.488887e-06	1.705272e-09	1.111593e+01	1.114559e+02
1.150000e-06	1.530170e-06	1.762537e-09	1.142414e+01	1.152168e+02
1.160000e-06	1.570497e-06	1.817175e-09	1.172522e+01	1.188502e+02
1.170000e-06	1.610284e-06	1.871314e-09	1.202227e+01	1.223574e+02
1.180000e-06	1.649747e-06	1.924041e-09	1.231690e+01	1.257410e+02
1.190000e-06	1.688754e-06	1.973835e-09	1.260812e+01	1.290052e+02
1.200000e-06	1.727189e-06	2.023418e-09	1.289507e+01	1.321550e+02
1.210000e-06	1.765037e-06	2.072284e-09	1.317764e+01	1.351955e+02
1.220000e-06	1.802263e-06	2.117966e-09	1.345557e+01	1.381315e+02
1.230000e-06	1.838794e-06	2.160516e-09	1.372831e+01	1.409668e+02
1.240000e-06	1.874710e-06	2.201878e-09	1.399645e+01	1.437034e+02
1.250000e-06	1.910275e-06	2.241712e-09	1.426198e+01	1.463419e+02
1.260000e-06	1.945381e-06	2.280094e-09	1.452408e+01	1.488814e+02
1.270000e-06	1.979634e-06	2.316904e-09	1.477981e+01	1.513200e+02
1.280000e-06	2.012791e-06	2.351620e-09	1.502736e+01	1.536551e+02
1.290000e-06	2.044972e-06	2.384515e-09	1.526762e+01	1.558849e+02
1.300000e-06	2.076523e-06	2.417275e-09	1.550318e+01	1.580085e+02
1.310000e-06	2.107550e-06	2.449873e-09	1.573482e+01	1.600266e+02
1.320000e-06	2.137898e-06	2.479256e-09	1.596140e+01	1.619424e+02
1.330000e-06	2.167541e-06	2.506446e-09	1.618271e+01	1.637611e+02
1.340000e-06	2.196386e-06	2.533404e-09	1.639806e+01	1.654899e+02
1.350000e-06	2.224443e-06	2.560143e-09	1.660754e+01	1.671375e+02
1.360000e-06	2.252004e-06	2.584366e-09	1.681331e+01	1.687129e+02
1.370000e-06	2.278931e-06	2.606109e-09	1.701434e+01	1.702252e+02
1.380000e-06	2.304770e-06	2.629287e-09	1.720726e+01	1.716820e+02
1.390000e-06	2.329410e-06	2.653265e-09	1.739122e+01	1.730891e+02
1.400000e-06	2.353134e-06	2.675106e-09	1.756834e+01	1.744497e+02
1.410000e-06	2.376092e-06	2.694217e-09	1.773974e+01	1.757648e+02
1.420000e-06	2.398244e-06	2.712431e-09	1.790512e+01	1.770329e+02
1.430000e-06	2.419618e-06	2.730177e-09	1.806470e+01	1.782510e+02
1.440000e-06	2.440181e-06	2.746413e-09	1.821822e+01	1.794150e+02
1.450000e-06	2.460045e-06	2.761982e-09	1.836653e+01	1.805210e+02
1.460000e-06	2.479306e-06	2.776814e-09	1.851033e+01	1.815659e+02
1.470000e-06	2.497682e-06	2.791441e-09	1.864753e+01	1.825485e+02
1.480000e-06	2.515057e-06	2.807818e-09	1.877724e+01	1.834693e+02
1.490000e-06	2.531591e-06	2.823787e-09	1.890068e+01	1.843312e+02
1.500000e-06	2.547225e-06	2.837084e-09	1.901741e+01	1.851387e+02
1.510000e-06	2.561763e-06	2.849537e-09	1.912595e+01	1.858975e+02
1.520000e-06	2.575284e-06	2.861776e-09	1.922689e+01	1.866140e+02
1.530000e-06	2.587935e-06	2.873786e-09	1.932134e+01	1.872939e+02
1.540000e-06	2.599694e-06	2.883487e-09	1.940914e+01	1.879416e+02
1.550000e-06	2.610388e-06	2.890700e-09	1.948898e+01	1.885599e+02
1.560000e-06	2.619770e-06	2.900417e-09	1.955902e+01	1.891492e+02
1.570000e-06	2.627983e-06	2.912444e-09	1.962034e+01	1.897081e+02
1.580000e-06	2.635358e-06	2.921977e-09	1.967540e+01	1.902334e+02
1.590000e-06	2.641879e-06	2.928306e-09	1.972409e+01	1.907214e+02
1.600000e-06	2.647501e-06	2.935303e-09	1.976606e+01	1.911681e+02
1.610000e-06	2.652235e-06	2.943349e-09	1.980140e+01	1.915706e+02
1.620000e-06	2.656148e-06	2.949763e-09	1.983062e+01	1.919275e+02
1.630000e-06	2.659410e-06	2.955434e-09	1.985497e+01	1.922397e+02
1.640000e-06	2.661679e-06	2.961180e-09	1.987191e+01	1.925100e+02
1.650000e-06	2.662561e-06	2.967986e-09	1.987850e+01	1.927428e+02
1.660000e-06	2.662433e-06	2.974878e-09	1.987755e+01	1.929438e+02
1.670000e-06	2.661563e-06	2.978707e-09	1.987104e+01	1.931181e+02
1.680000e-06	2.659824e-06	2.979107e-09	1.985806e+01	1.932700e+02
1.690000e-06	2.657271e-06	2.981480e-09	1.983901e+01	1.934010e+02
1.700000e-06	2.653886e-06	2.984561e-09	1.981373e+01	1.935099e+02
1.710000e-06	2.649769e-06	2.985481e-09	1.978299e+01	1.935917e+02
1.720000e-06	2.645066e-06	2.988723e-09	1.974788e+01	1.936383e+02
1.730000e-06	2.639515e-06	3.004690e-09	1.970644e+01	1.936389e+02
1.740000e-06	2.632743e-06	2.983542e-09	1.965588e+01	1.935816e+02
1.750000e-06	2.624645e-06	2.917342e-09	1.959542e+01	1.934548e+02
1.760000e-06	2.615158e-06	2.921290e-09	1.952459e+01	1.932487e+02
1.770000e-06	2.604505e-06	3.045228e-09	1.944506e+01	1.929577e+02
1.780000e-06	2.593609e-06	3.076118e-09	1.936371e+01	1.925809e+02
1.790000e-06	2.582634e-06	2.933626e-09	1.928177e+01	1.921233e+02
1.800000e-06	2.570223e-06	2.867374e-09	1.918911e+01	1.915956e+02
1.810000e-06	2.555773e-06	2.940060e-09	1.908123e+01	1.910136e+02
1.820000e-06	2.540686e-06	2.940223e-09	1.896859e+01	1.903968e+02
1.830000e-06	2.525298e-06	2.912529e-09	1.885370e+01	1.897661e+02
1.840000e-06	2.508502e-06	2.921307e-09	1.872830e+01	1.891416e+02
1.850000e-06	2.490606e-06	2.813025e-09	1.859470e+01	1.885405e+02
1.860000e-06	2.472431e-06	2.806351e-09	1.845900e+01	1.879743e+02
1.870000e-06	2.453523e-06	2.983871e-09	1.831784e+01	1.874481e+02
1.880000e-06	2.433533e-06	2.879378e-09	1.816859e+01	1.869592e+02
1.890000e-06	2.412935e-06	2.632885e-09	1.801481e+01	1.864973e+02
1.900000e-06	2.391535e-06	2.805361e-09	1.785503e+01	1.860459e+02
1.910000e-06	2.368728e-06	2.964848e-09	1.768476e+01	1.855835e+02
1.920000e-06	2.344760e-06	2.734463e-09	1.750582e+01	1.850863e+02
1.930000e-06	2.320130e-06	2.695635e-09	1.732193e+01	1.845306e+02
1.940000e-06	2.294876e-06	2.892681e-09	1.713339e+01	1.838956e+02
1.950000e-06	2.268799e-06	2.795356e-09	1.693870e+01	1.831653e+02
1.960000e-06	2.241711e-06	2.681750e-09	1.673646e+01	1.823303e+02
1.970000e-06	2.213948e-06	2.779073e-09	1.652918e+01	1.813883e+02
1.980000e-06	2.185700e-06	2.754367e-09	1.631829e+01	1.803441e+02
1.990000e-06	2.156516e-06	2.663629e-09	1.610040e+01	1.792083e+02
2.000000e-06	2.126401e-06	2.673987e-09	1.587556e+01	1.779960e+02
2.010000e-06	2.095610e-06	2.725467e-09	1.564568e+01	1.767242e+02
2.020000e-06	2.063928e-06	2.674426e-09	1.540914e+01	1.754101e+02
2.030000e-06	2.031470e-06	2.551508e-09	1.516682e+01	1.740682e+02
2.040000e-06	1.998549e-06	2.613157e-09	1.492103e+01	1.727091e+02
2.050000e-06	1.964865e-06	2.705209e-09	1.466955e+01	1.713384e+02
2.060000e-06	1.930304e-06	2.529069e-09	1.441152e+01	1.699562e+02
2.070000e-06	1.895179e-06	2.459600e-09	1.414928e+01	1.685575e+02
2.080000e-06	1.859549e-06	2.608993e-09	1.388326e+01	1.671336e+02
2.090000e-06	1.823334e-06	2.549366e-09	1.361289e+01	1.656734e+02
2.100000e-06	1.786544e-06	2.417003e-09	1.333822e+01	1.641653e+02
2.110000e-06	1.749101e-06	2.449749e-09	1.305867e+01	1.625988e+02
2.120000e-06	1.710781e-06	2.478692e-09	1.277257e+01	1.609660e+02
2.130000e-06	1.671474e-06	2.418242e-09	1.247911e+01	1.592625e+02
2.140000e-06	1.631465e-06	2.352890e-09	1.218041e+01	1.574881e+02
2.150000e-06	1.591102e-06	2.358540e-09	1.187906e+01	1.556458e+02
2.160000e-06	1.550327e-06	2.359769e-09	1.157463e+01	1.537416e+02
2.170000e-06	1.508949e-06	2.287245e-09	1.126571e+01	1.517828e+02
2.180000e-06	1.467048e-06	2.256370e-09	1.095288e+01	1.497772e+02
2.190000e-06	1.424731e-06	2.267486e-09	1.063695e+01	1.477306e+02
2.200000e-06	1.381887e-06	2.206694e-09	1.031707e+01	1.456469e+02
2.210000e-06	1.338434e-06	2.157724e-09	9.992656e+00	1.435264e+02
2.220000e-06	1.294572e-06	2.163545e-09	9.665187e+00	1.413659e+02
2.230000e-06	1.250463e-06	2.131077e-09	9.335868e+00	1.391591e+02
2.240000e-06	1.206129e-06	2.057236e-09	9.004879e+00	1.368972e+02
2.250000e-06	1.161587e-06	2.029597e-09	8.672332e+00	1.345699e+02
2.260000e-06	1.116628e-06	2.037627e-09	8.336671e+00	1.321671e+02
2.270000e-06	1.071022e-06	1.975402e-09	7.996179e+00	1.296796e+02
2.280000e-06	1.024866e-06	1.901321e-09	7.651582e+00	1.271003e+02
2.290000e-06	9.783605e-07	1.893289e-09	7.304372e+00	1.244249e+02
2.300000e-06	9.315670e-07	1.870327e-09	6.955015e+00	1.216518e+02
2.310000e-06	8.845488e-07	1.796966e-09	6.603981e+00	1.187820e+02
2.320000e-06	8.373371e-07	1.744885e-09	6.251502e+00	1.158182e+02
2.330000e-06	7.899170e-07	1.722436e-09	5.897466e+00	1.127638e+02
2.340000e-06	7.422082e-07	1.675406e-09	5.541275e+00	1.096219e+02
2.350000e-06	6.942778e-07	1.610724e-09	5.183431e+00	1.063939e+02
2.360000e-06	6.460925e-07	1.569281e-09	4.823683e+00	1.030793e+02
2.370000e-06	5.975097e-07	1.525901e-09	4.460967e+00	9.967458e+01
2.380000e-06	5.486123e-07	1.458770e-09	4.095902e+00	9.617354e+01
2.390000e-06	4.994262e-07	1.407135e-09	3.728682e+00	9.256771e+01
2.400000e-06	4.499981e-07	1.361419e-09	3.359655e+00	8.884704e+01
2.410000e-06	4.003632e-07	1.292940e-09	2.989085e+00	8.500106e+01
2.420000e-06	3.505590e-07	1.222026e-09	2.617250e+00	8.101997e+01
2.430000e-06	3.007028e-07	1.171590e-09	2.245026e+00	7.689581e+01
2.440000e-06	2.507202e-07	1.116809e-09	1.871860e+00	7.262330e+01
2.450000e-06	2.005952e-07	1.033680e-09	1.497630e+00	6.820045e+01
2.460000e-06	1.504570e-07	9.570293e-10	1.123302e+00	6.362870e+01
2.470000e-06	1.003004e-07	9.017143e-10	7.488362e-01	5.891275e+01
2.480000e-06	5.007764e-08	8.327786e-10	3.738762e-01	5.406002e+01
2.490000e-06	-1.895559e-10	7.444034e-10	-1.415211e-03	4.907989e+01
2.500000e-06	-5.044840e-08	6.654094e-10	-3.766443e-01	4.398285e+01
2.510000e-06	-1.006976e-07	5.945815e-10	-7.518014e-01	3.877974e+01
2.520000e-06	-1.509172e-07	5.149410e-10	-1.126738e+00	3.348109e+01
2.530000e-06	-2.010080e-07	4.293958e-10	-1.500712e+00	2.809678e+01
2.540000e-06	-2.509575e-07	3.474730e-10	-1.873632e+00	2.263601e+01
2.550000e-06	-3.008826e-07	2.655364e-10	-2.246369e+00	1.710748e+01
2.560000e-06	-3.507083e-07	1.791335e-10	-2.618364e+00	1.151987e+01
2.570000e-06	-4.003021e-07	9.719014e-11	-2.988628e+00	5.882372e+00
2.580000e-06	-4.498275e-07	1.014750e-11	-3.358381e+00	2.052787e-01
2.590000e-06	-4.992270e-07	-8.564038e-11	-3.727194e+00	-5.499615e+00
2.600000e-06	-5.481417e-07	-1.746127e-10	-4.092388e+00	-1.121879e+01
2.610000e-06	-5.966002e-07	-2.545772e-10	-4.454176e+00	-1.693711e+01
2.620000e-06	-6.448049e-07	-3.381220e-10	-4.814069e+00	-2.263813e+01
2.630000e-06	-6.926393e-07	-4.277322e-10	-5.171197e+00	-2.830480e+01
2.640000e-06	-7.400381e-07	-5.105566e-10	-5.525074e+00	-3.392021e+01
2.650000e-06	-7.871807e-07	-5.892128e-10	-5.877037e+00	-3.946851e+01
2.660000e-06	-8.341920e-07	-6.724827e-10	-6.228020e+00	-4.493563e+01
2.670000e-06	-8.810222e-07	-7.576754e-10	-6.577652e+00	-5.030996e+01
2.680000e-06	-9.275721e-07	-8.375337e-10	-6.925190e+00	-5.558271e+01
2.690000e-06	-9.739162e-07	-9.167910e-10	-7.271191e+00	-6.074790e+01
2.700000e-06	-1.020065e-06	-9.974314e-10	-7.615737e+00	-6.580212e+01
2.710000e-06	-1.065809e-06	-1.072006e-09	-7.957254e+00	-7.074400e+01
2.720000e-06	-1.111011e-06	-1.141859e-09	-8.294733e+00	-7.557347e+01
2.730000e-06	-1.155800e-06	-1.212774e-09	-8.629121e+00	-8.029103e+01
2.740000e-06	-1.200287e-06	-1.285069e-09	-8.961257e+00	-8.489702e+01
2.750000e-06	-1.244513e-06	-1.353211e-09	-9.291451e+00	-8.939112e+01
2.760000e-06	-1.288529e-06	-1.419423e-09	-9.620066e+00	-9.377201e+01
2.770000e-06	-1.332223e-06	-1.487701e-09	-9.946286e+00	-9.803741e+01
2.780000e-06	-1.375413e-06	-1.554479e-09	-1.026874e+01	-1.021843e+02
2.790000e-06	-1.418055e-06	-1.615489e-09	-1.058710e+01	-1.062095e+02
2.800000e-06	-1.460264e-06	-1.673901e-09	-1.090223e+01	-1.101099e+02
2.810000e-06	-1.501946e-06	-1.731493e-09	-1.121342e+01	-1.138836e+02
2.820000e-06	-1.542975e-06	-1.785298e-09	-1.151974e+01	-1.175298e+02
2.830000e-06	-1.583491e-06	-1.838105e-09	-1.182223e+01	-1.210495e+02
2.840000e-06	-1.623700e-06	-1.892196e-09	-1.212243e+01	-1.244452e+02
2.850000e-06	-1.663549e-06	-1.942734e-09	-1.241994e+01	-1.277211e+02
2.860000e-06	-1.702693e-06	-1.989509e-09	-1.271219e+01	-1.308820e+02
2.870000e-06	-1.740918e-06	-2.038581e-09	-1.299758e+01	-1.339331e+02
2.880000e-06	-1.778227e-06	-2.086258e-09	-1.327612e+01	-1.368793e+02
2.890000e-06	-1.814807e-06	-2.127607e-09	-1.354922e+01	-1.397243e+02
2.900000e-06	-1.850885e-06	-2.167182e-09	-1.381858e+01	-1.424706e+02
2.910000e-06	-1.886401e-06	-2.207817e-09	-1.408374e+01	-1.451187e+02
2.920000e-06	-1.921207e-06	-2.245673e-09	-1.434360e+01	-1.476681e+02
2.930000e-06	-1.955364e-06	-2.281307e-09	-1.459861e+01	-1.501167e+02
2.940000e-06	-1.988868e-06	-2.317336e-09	-1.484875e+01	-1.524622e+02
