# Temperatura_=_20.0
# Concentracion g/m^3_=_9000.0
# C_Vs_to_Am_M_A/Vsm_=_65563218390.804596
# pendiente_HvsI_1/m_=_3716.3
# ordenada_HvsI_A/m_=_1297.0
# frecuencia_Hz_=_301064.166204189

Tiempo_(s)	Campo_(V.s)	Magnetizacion_(V.s)	Campo_(kA/m)	Magnetizacion_(A/m)
0.000000e+00	-2.645989e-06	-2.876037e-09	-1.977213e+01	-1.911666e+02
1.000000e-08	-2.645698e-06	-2.881238e-09	-1.976996e+01	-1.913110e+02
2.000000e-08	-2.644330e-06	-2.884250e-09	-1.975973e+01	-1.914395e+02
3.000000e-08	-2.641726e-06	-2.883980e-09	-1.974028e+01	-1.915538e+02
4.000000e-08	-2.638264e-06	-2.883715e-09	-1.971441e+01	-1.916509e+02
5.000000e-08	-2.634115e-06	-2.883896e-09	-1.968340e+01	-1.917229e+02
6.000000e-08	-2.629136e-06	-2.882424e-09	-1.964619e+01	-1.917575e+02
7.000000e-08	-2.623322e-06	-2.875579e-09	-1.960275e+01	-1.917398e+02
8.000000e-08	-2.616579e-06	-2.884366e-09	-1.955237e+01	-1.916537e+02
9.000000e-08	-2.608850e-06	-2.907240e-09	-1.949461e+01	-1.914851e+02
1.000000e-07	-2.599943e-06	-2.919170e-09	-1.942805e+01	-1.912236e+02
1.100000e-07	-2.589746e-06	-2.854239e-09	-1.935186e+01	-1.908649e+02
1.200000e-07	-2.578586e-06	-2.817380e-09	-1.926846e+01	-1.904124e+02
1.300000e-07	-2.566588e-06	-2.847093e-09	-1.917881e+01	-1.898774e+02
1.400000e-07	-2.553687e-06	-2.889978e-09	-1.908241e+01	-1.892789e+02
1.500000e-07	-2.540059e-06	-2.889428e-09	-1.898056e+01	-1.886417e+02
1.600000e-07	-2.525379e-06	-2.847976e-09	-1.887087e+01	-1.879941e+02
1.700000e-07	-2.509173e-06	-2.842046e-09	-1.874977e+01	-1.873648e+02
1.800000e-07	-2.492009e-06	-2.848239e-09	-1.862151e+01	-1.867793e+02
1.900000e-07	-2.474424e-06	-2.914331e-09	-1.849011e+01	-1.862571e+02
2.000000e-07	-2.456010e-06	-2.879268e-09	-1.835251e+01	-1.858090e+02
2.100000e-07	-2.436582e-06	-2.797051e-09	-1.820734e+01	-1.854352e+02
2.200000e-07	-2.416605e-06	-2.841914e-09	-1.805806e+01	-1.851254e+02
2.300000e-07	-2.396016e-06	-2.916706e-09	-1.790420e+01	-1.848592e+02
2.400000e-07	-2.374352e-06	-2.871188e-09	-1.774232e+01	-1.846083e+02
2.500000e-07	-2.351612e-06	-2.844025e-09	-1.757240e+01	-1.843395e+02
2.600000e-07	-2.328220e-06	-2.893000e-09	-1.739760e+01	-1.840183e+02
2.700000e-07	-2.304320e-06	-2.889004e-09	-1.721901e+01	-1.836123e+02
2.800000e-07	-2.279567e-06	-2.876148e-09	-1.703404e+01	-1.830950e+02
2.900000e-07	-2.253586e-06	-2.851425e-09	-1.683990e+01	-1.824482e+02
3.000000e-07	-2.226457e-06	-2.813627e-09	-1.663718e+01	-1.816635e+02
3.100000e-07	-2.198642e-06	-2.796079e-09	-1.642933e+01	-1.807430e+02
3.200000e-07	-2.170223e-06	-2.830565e-09	-1.621697e+01	-1.796982e+02
3.300000e-07	-2.141162e-06	-2.783251e-09	-1.599982e+01	-1.785480e+02
3.400000e-07	-2.111401e-06	-2.739952e-09	-1.577742e+01	-1.773161e+02
3.500000e-07	-2.080775e-06	-2.742536e-09	-1.554857e+01	-1.760276e+02
3.600000e-07	-2.049460e-06	-2.724771e-09	-1.531457e+01	-1.747062e+02
3.700000e-07	-2.017770e-06	-2.704228e-09	-1.507777e+01	-1.733708e+02
3.800000e-07	-1.985400e-06	-2.685046e-09	-1.483588e+01	-1.720340e+02
3.900000e-07	-1.951793e-06	-2.642828e-09	-1.458476e+01	-1.707006e+02
4.000000e-07	-1.917167e-06	-2.621814e-09	-1.432602e+01	-1.693682e+02
4.100000e-07	-1.881961e-06	-2.657499e-09	-1.406294e+01	-1.680275e+02
4.200000e-07	-1.846195e-06	-2.598491e-09	-1.379567e+01	-1.666646e+02
4.300000e-07	-1.809828e-06	-2.536916e-09	-1.352393e+01	-1.652633e+02
4.400000e-07	-1.772940e-06	-2.541318e-09	-1.324828e+01	-1.638070e+02
4.500000e-07	-1.735461e-06	-2.550978e-09	-1.296822e+01	-1.622819e+02
4.600000e-07	-1.697226e-06	-2.491765e-09	-1.268251e+01	-1.606778e+02
4.700000e-07	-1.658306e-06	-2.447557e-09	-1.239168e+01	-1.589898e+02
4.800000e-07	-1.618928e-06	-2.442959e-09	-1.209742e+01	-1.572179e+02
4.900000e-07	-1.579245e-06	-2.414957e-09	-1.180089e+01	-1.553671e+02
5.000000e-07	-1.539235e-06	-2.384428e-09	-1.150192e+01	-1.534452e+02
5.100000e-07	-1.498664e-06	-2.345011e-09	-1.119875e+01	-1.514620e+02
5.200000e-07	-1.457162e-06	-2.319447e-09	-1.088863e+01	-1.494269e+02
5.300000e-07	-1.414663e-06	-2.278673e-09	-1.057105e+01	-1.473472e+02
5.400000e-07	-1.371501e-06	-2.256480e-09	-1.024853e+01	-1.452272e+02
5.500000e-07	-1.327972e-06	-2.231504e-09	-9.923257e+00	-1.430674e+02
5.600000e-07	-1.284143e-06	-2.185990e-09	-9.595746e+00	-1.408639e+02
5.700000e-07	-1.239986e-06	-2.133902e-09	-9.265787e+00	-1.386100e+02
5.800000e-07	-1.195432e-06	-2.107988e-09	-8.932855e+00	-1.362965e+02
5.900000e-07	-1.150424e-06	-2.092181e-09	-8.596531e+00	-1.339134e+02
6.000000e-07	-1.104976e-06	-2.033216e-09	-8.256920e+00	-1.314513e+02
6.100000e-07	-1.059102e-06	-1.982415e-09	-7.914130e+00	-1.289028e+02
6.200000e-07	-1.012906e-06	-1.950028e-09	-7.568933e+00	-1.262634e+02
6.300000e-07	-9.663217e-07	-1.916315e-09	-7.220830e+00	-1.235315e+02
6.400000e-07	-9.192938e-07	-1.861775e-09	-6.869415e+00	-1.207086e+02
6.500000e-07	-8.720276e-07	-1.818077e-09	-6.516218e+00	-1.177984e+02
6.600000e-07	-8.245916e-07	-1.776897e-09	-6.161754e+00	-1.148054e+02
6.700000e-07	-7.769391e-07	-1.723951e-09	-5.805670e+00	-1.117340e+02
6.800000e-07	-7.290953e-07	-1.678212e-09	-5.448158e+00	-1.085868e+02
6.900000e-07	-6.809973e-07	-1.635137e-09	-5.088746e+00	-1.053637e+02
7.000000e-07	-6.324371e-07	-1.584029e-09	-4.725881e+00	-1.020612e+02
7.100000e-07	-5.834701e-07	-1.517393e-09	-4.359975e+00	-9.867241e+01
7.200000e-07	-5.342635e-07	-1.466353e-09	-3.992279e+00	-9.518719e+01
7.300000e-07	-4.846728e-07	-1.419863e-09	-3.621713e+00	-9.159336e+01
7.400000e-07	-4.346999e-07	-1.360636e-09	-3.248291e+00	-8.787786e+01
7.500000e-07	-3.845057e-07	-1.292806e-09	-2.873215e+00	-8.402824e+01
7.600000e-07	-3.340573e-07	-1.233275e-09	-2.496240e+00	-8.003406e+01
7.700000e-07	-2.833869e-07	-1.173622e-09	-2.117606e+00	-7.588804e+01
7.800000e-07	-2.326213e-07	-1.102561e-09	-1.738261e+00	-7.158686e+01
7.900000e-07	-1.817714e-07	-1.035248e-09	-1.358285e+00	-6.713139e+01
8.000000e-07	-1.308061e-07	-9.642752e-10	-9.774472e-01	-6.252643e+01
8.100000e-07	-7.983749e-08	-8.869121e-10	-5.965849e-01	-5.778006e+01
8.200000e-07	-2.887207e-08	-8.087110e-10	-2.157463e-01	-5.290259e+01
8.300000e-07	2.216697e-08	-7.400140e-10	1.656425e-01	-4.790544e+01
8.400000e-07	7.317779e-08	-6.638177e-10	5.468203e-01	-4.280005e+01
8.500000e-07	1.241416e-07	-5.774105e-10	9.276473e-01	-3.759699e+01
8.600000e-07	1.750478e-07	-4.944566e-10	1.308043e+00	-3.230547e+01
8.700000e-07	2.258258e-07	-4.142041e-10	1.687481e+00	-2.693322e+01
8.800000e-07	2.765267e-07	-3.308251e-10	2.066343e+00	-2.148681e+01
8.900000e-07	3.271288e-07	-2.411739e-10	2.444467e+00	-1.597232e+01
9.000000e-07	3.775403e-07	-1.549021e-10	2.821166e+00	-1.039615e+01
9.100000e-07	4.276257e-07	-6.774848e-11	3.195429e+00	-4.765927e+00
9.200000e-07	4.772674e-07	1.788438e-11	3.566376e+00	9.087704e-01
9.300000e-07	5.266052e-07	1.027924e-10	3.935052e+00	6.615944e+00
9.400000e-07	5.756640e-07	1.892202e-10	4.301644e+00	1.234110e+01
9.500000e-07	6.242931e-07	2.805684e-10	4.665024e+00	1.806757e+01
9.600000e-07	6.725580e-07	3.718806e-10	5.025683e+00	2.377727e+01
9.700000e-07	7.205968e-07	4.556688e-10	5.384653e+00	2.945164e+01
9.800000e-07	7.684614e-07	5.402149e-10	5.742321e+00	3.507278e+01
9.900000e-07	8.161358e-07	6.292133e-10	6.098567e+00	4.062458e+01
1.000000e-06	8.636230e-07	7.179048e-10	6.453415e+00	4.609356e+01
1.010000e-06	9.109121e-07	7.977274e-10	6.806783e+00	5.146947e+01
1.020000e-06	9.579228e-07	8.767346e-10	7.158069e+00	5.674538e+01
1.030000e-06	1.004516e-06	9.576523e-10	7.506240e+00	6.191744e+01
1.040000e-06	1.050692e-06	1.037560e-09	7.851290e+00	6.698423e+01
1.050000e-06	1.096504e-06	1.114593e-09	8.193613e+00	7.194582e+01
1.060000e-06	1.141909e-06	1.188507e-09	8.532901e+00	7.680274e+01
1.070000e-06	1.186901e-06	1.262457e-09	8.869106e+00	8.155510e+01
1.080000e-06	1.231472e-06	1.334332e-09	9.202161e+00	8.620175e+01
1.090000e-06	1.275639e-06	1.405449e-09	9.532198e+00	9.073995e+01
1.100000e-06	1.319463e-06	1.474488e-09	9.859678e+00	9.516532e+01
1.110000e-06	1.363060e-06	1.539685e-09	1.018545e+01	9.947222e+01
1.120000e-06	1.406416e-06	1.599641e-09	1.050943e+01	1.036544e+02
1.130000e-06	1.449268e-06	1.659395e-09	1.082964e+01	1.077061e+02
1.140000e-06	1.491317e-06	1.720469e-09	1.114385e+01	1.116224e+02
1.150000e-06	1.532434e-06	1.778712e-09	1.145110e+01	1.154008e+02
1.160000e-06	1.572728e-06	1.834085e-09	1.175220e+01	1.190411e+02
1.170000e-06	1.612494e-06	1.886441e-09	1.204935e+01	1.225458e+02
1.180000e-06	1.651897e-06	1.938354e-09	1.234379e+01	1.259200e+02
1.190000e-06	1.690825e-06	1.990536e-09	1.263467e+01	1.291703e+02
1.200000e-06	1.729164e-06	2.040932e-09	1.292116e+01	1.323045e+02
1.210000e-06	1.766915e-06	2.087460e-09	1.320325e+01	1.353302e+02
1.220000e-06	1.804006e-06	2.131228e-09	1.348042e+01	1.382538e+02
1.230000e-06	1.840412e-06	2.174642e-09	1.375246e+01	1.410801e+02
1.240000e-06	1.876335e-06	2.216343e-09	1.402089e+01	1.438114e+02
1.250000e-06	1.911876e-06	2.254963e-09	1.428648e+01	1.464474e+02
1.260000e-06	1.946879e-06	2.290714e-09	1.454803e+01	1.489862e+02
1.270000e-06	1.980943e-06	2.326462e-09	1.480258e+01	1.514241e+02
1.280000e-06	2.013893e-06	2.362339e-09	1.504880e+01	1.537575e+02
1.290000e-06	2.046024e-06	2.397085e-09	1.528890e+01	1.559833e+02
1.300000e-06	2.077587e-06	2.428409e-09	1.552475e+01	1.581001e+02
1.310000e-06	2.108579e-06	2.457300e-09	1.575634e+01	1.601090e+02
1.320000e-06	2.138867e-06	2.487129e-09	1.598267e+01	1.620139e+02
1.330000e-06	2.168371e-06	2.515968e-09	1.620313e+01	1.638212e+02
1.340000e-06	2.197096e-06	2.542176e-09	1.641778e+01	1.655397e+02
1.350000e-06	2.225164e-06	2.567750e-09	1.662752e+01	1.671791e+02
1.360000e-06	2.252691e-06	2.594260e-09	1.683321e+01	1.687494e+02
1.370000e-06	2.279493e-06	2.618974e-09	1.703349e+01	1.702594e+02
1.380000e-06	2.305164e-06	2.642039e-09	1.722532e+01	1.717157e+02
1.390000e-06	2.329675e-06	2.662980e-09	1.740847e+01	1.731223e+02
1.400000e-06	2.353350e-06	2.683302e-09	1.758539e+01	1.744800e+02
1.410000e-06	2.376248e-06	2.703676e-09	1.775649e+01	1.757868e+02
1.420000e-06	2.398355e-06	2.723152e-09	1.792169e+01	1.770383e+02
1.430000e-06	2.419666e-06	2.741006e-09	1.808093e+01	1.782291e+02
1.440000e-06	2.440158e-06	2.757179e-09	1.823406e+01	1.793539e+02
1.450000e-06	2.459999e-06	2.774022e-09	1.838232e+01	1.804084e+02
1.460000e-06	2.479176e-06	2.790385e-09	1.852562e+01	1.813909e+02
1.470000e-06	2.497439e-06	2.804987e-09	1.866209e+01	1.823025e+02
1.480000e-06	2.514672e-06	2.819297e-09	1.879086e+01	1.831475e+02
1.490000e-06	2.531022e-06	2.833609e-09	1.891304e+01	1.839330e+02
1.500000e-06	2.546455e-06	2.846620e-09	1.902836e+01	1.846680e+02
1.510000e-06	2.560865e-06	2.858832e-09	1.913604e+01	1.853622e+02
1.520000e-06	2.574334e-06	2.869867e-09	1.923668e+01	1.860251e+02
1.530000e-06	2.586882e-06	2.880255e-09	1.933045e+01	1.866640e+02
1.540000e-06	2.598473e-06	2.889705e-09	1.941707e+01	1.872837e+02
1.550000e-06	2.608970e-06	2.898558e-09	1.949551e+01	1.878855e+02
1.560000e-06	2.618232e-06	2.908850e-09	1.956472e+01	1.884671e+02
1.570000e-06	2.626401e-06	2.918472e-09	1.962575e+01	1.890235e+02
1.580000e-06	2.633682e-06	2.927098e-09	1.968016e+01	1.895477e+02
1.590000e-06	2.640125e-06	2.934392e-09	1.972831e+01	1.900321e+02
1.600000e-06	2.645695e-06	2.940777e-09	1.976993e+01	1.904698e+02
1.610000e-06	2.650391e-06	2.947229e-09	1.980502e+01	1.908563e+02
1.620000e-06	2.654339e-06	2.953784e-09	1.983452e+01	1.911899e+02
1.630000e-06	2.657518e-06	2.959787e-09	1.985828e+01	1.914724e+02
1.640000e-06	2.659512e-06	2.964300e-09	1.987318e+01	1.917090e+02
1.650000e-06	2.660224e-06	2.969976e-09	1.987850e+01	1.919072e+02
1.660000e-06	2.660045e-06	2.976002e-09	1.987716e+01	1.920755e+02
1.670000e-06	2.659087e-06	2.979051e-09	1.987001e+01	1.922220e+02
1.680000e-06	2.657323e-06	2.981434e-09	1.985682e+01	1.923523e+02
1.690000e-06	2.654701e-06	2.983915e-09	1.983723e+01	1.924685e+02
1.700000e-06	2.651250e-06	2.984751e-09	1.981144e+01	1.925679e+02
1.710000e-06	2.647131e-06	2.984329e-09	1.978066e+01	1.926428e+02
1.720000e-06	2.642326e-06	2.985635e-09	1.974476e+01	1.926814e+02
1.730000e-06	2.636503e-06	2.990495e-09	1.970125e+01	1.926687e+02
1.740000e-06	2.629463e-06	2.967685e-09	1.964864e+01	1.925888e+02
1.750000e-06	2.621214e-06	2.938580e-09	1.958700e+01	1.924273e+02
1.760000e-06	2.611622e-06	2.959021e-09	1.951532e+01	1.921734e+02
1.770000e-06	2.600949e-06	3.001401e-09	1.943557e+01	1.918225e+02
1.780000e-06	2.590089e-06	3.027667e-09	1.935442e+01	1.913772e+02
1.790000e-06	2.579028e-06	2.946341e-09	1.927176e+01	1.908484e+02
1.800000e-06	2.566370e-06	2.911488e-09	1.917718e+01	1.902544e+02
1.810000e-06	2.551894e-06	2.890467e-09	1.906901e+01	1.896199e+02
1.820000e-06	2.536915e-06	2.907705e-09	1.895707e+01	1.889729e+02
1.830000e-06	2.521418e-06	2.922696e-09	1.884128e+01	1.883421e+02
1.840000e-06	2.504517e-06	2.856700e-09	1.871498e+01	1.877535e+02
1.850000e-06	2.486644e-06	2.814839e-09	1.858142e+01	1.872272e+02
1.860000e-06	2.468443e-06	2.842841e-09	1.844542e+01	1.867744e+02
1.870000e-06	2.449480e-06	2.878795e-09	1.830372e+01	1.863963e+02
1.880000e-06	2.429554e-06	2.768600e-09	1.815482e+01	1.860833e+02
1.890000e-06	2.409027e-06	2.731350e-09	1.800143e+01	1.858156e+02
1.900000e-06	2.387522e-06	2.807760e-09	1.784073e+01	1.855655e+02
1.910000e-06	2.364561e-06	2.803942e-09	1.766916e+01	1.853000e+02
1.920000e-06	2.340574e-06	2.743184e-09	1.748992e+01	1.849844e+02
1.930000e-06	2.315973e-06	2.789847e-09	1.730609e+01	1.845862e+02
1.940000e-06	2.290720e-06	2.787475e-09	1.711738e+01	1.840784e+02
1.950000e-06	2.264613e-06	2.724107e-09	1.692230e+01	1.834420e+02
1.960000e-06	2.237498e-06	2.739926e-09	1.671969e+01	1.826680e+02
1.970000e-06	2.209708e-06	2.730537e-09	1.651202e+01	1.817578e+02
1.980000e-06	2.181433e-06	2.675328e-09	1.630074e+01	1.807221e+02
1.990000e-06	2.152200e-06	2.694054e-09	1.608229e+01	1.795794e+02
2.000000e-06	2.122087e-06	2.680506e-09	1.585728e+01	1.783533e+02
2.010000e-06	2.091326e-06	2.630967e-09	1.562742e+01	1.770689e+02
2.020000e-06	2.059599e-06	2.631199e-09	1.539034e+01	1.757500e+02
2.030000e-06	2.027096e-06	2.606146e-09	1.514745e+01	1.744159e+02
2.040000e-06	1.994163e-06	2.599738e-09	1.490137e+01	1.730797e+02
2.050000e-06	1.960545e-06	2.601221e-09	1.465016e+01	1.717469e+02
2.060000e-06	1.926101e-06	2.545152e-09	1.439277e+01	1.704154e+02
2.070000e-06	1.891015e-06	2.502848e-09	1.413059e+01	1.690765e+02
2.080000e-06	1.855348e-06	2.534530e-09	1.386407e+01	1.677166e+02
2.090000e-06	1.819142e-06	2.517436e-09	1.359352e+01	1.663193e+02
2.100000e-06	1.782337e-06	2.452275e-09	1.331849e+01	1.648683e+02
2.110000e-06	1.744813e-06	2.429462e-09	1.303810e+01	1.633493e+02
2.120000e-06	1.706375e-06	2.430104e-09	1.275087e+01	1.617518e+02
2.130000e-06	1.667004e-06	2.414704e-09	1.245667e+01	1.600707e+02
2.140000e-06	1.627046e-06	2.366429e-09	1.215809e+01	1.583055e+02
2.150000e-06	1.586749e-06	2.344215e-09	1.185696e+01	1.564608e+02
2.160000e-06	1.545945e-06	2.327269e-09	1.155206e+01	1.545445e+02
2.170000e-06	1.504458e-06	2.287810e-09	1.124205e+01	1.525662e+02
2.180000e-06	1.462481e-06	2.259620e-09	1.092837e+01	1.505353e+02
2.190000e-06	1.420108e-06	2.244427e-09	1.061174e+01	1.484594e+02
2.200000e-06	1.377200e-06	2.201862e-09	1.029111e+01	1.463431e+02
2.210000e-06	1.333769e-06	2.148746e-09	9.966574e+00	1.441869e+02
2.220000e-06	1.289988e-06	2.141029e-09	9.639426e+00	1.419876e+02
2.230000e-06	1.245947e-06	2.122238e-09	9.310329e+00	1.397384e+02
2.240000e-06	1.201658e-06	2.064546e-09	8.979376e+00	1.374302e+02
2.250000e-06	1.157132e-06	2.016638e-09	8.646660e+00	1.350532e+02
2.260000e-06	1.112187e-06	2.001471e-09	8.310804e+00	1.325978e+02
2.270000e-06	1.066563e-06	1.963822e-09	7.969884e+00	1.300565e+02
2.280000e-06	1.020354e-06	1.911599e-09	7.624587e+00	1.274244e+02
2.290000e-06	9.738481e-07	1.879126e-09	7.277071e+00	1.247000e+02
2.300000e-06	9.270785e-07	1.837209e-09	6.927586e+00	1.218843e+02
2.310000e-06	8.800774e-07	1.786050e-09	6.576370e+00	1.189809e+02
2.320000e-06	8.328675e-07	1.744452e-09	6.223595e+00	1.159945e+02
2.330000e-06	7.853958e-07	1.713502e-09	5.868863e+00	1.129294e+02
2.340000e-06	7.376401e-07	1.660100e-09	5.512009e+00	1.097883e+02
2.350000e-06	6.895806e-07	1.598366e-09	5.152885e+00	1.065715e+02
2.360000e-06	6.412062e-07	1.555795e-09	4.791407e+00	1.032757e+02
2.370000e-06	5.924699e-07	1.516830e-09	4.427226e+00	9.989419e+01
2.380000e-06	5.434978e-07	1.457327e-09	4.061283e+00	9.641704e+01
2.390000e-06	4.943817e-07	1.392325e-09	3.694263e+00	9.283219e+01
2.400000e-06	4.449670e-07	1.343005e-09	3.325012e+00	8.912661e+01
2.410000e-06	3.952608e-07	1.289293e-09	2.953583e+00	8.528775e+01
2.420000e-06	3.454463e-07	1.227340e-09	2.581344e+00	8.130498e+01
2.430000e-06	2.955758e-07	1.165860e-09	2.208688e+00	7.717076e+01
2.440000e-06	2.456069e-07	1.101306e-09	1.835295e+00	7.288149e+01
2.450000e-06	1.955234e-07	1.027110e-09	1.461047e+00	6.843772e+01
2.460000e-06	1.454022e-07	9.601777e-10	1.086517e+00	6.384400e+01
2.470000e-06	9.524906e-08	8.995775e-10	7.117478e-01	5.910821e+01
2.480000e-06	4.504711e-08	8.246642e-10	3.366141e-01	5.424053e+01
2.490000e-06	-5.152859e-09	7.416095e-10	-3.850469e-02	4.925234e+01
2.500000e-06	-5.530679e-08	6.669334e-10	-4.132795e-01	4.415512e+01
2.510000e-06	-1.054762e-07	5.980317e-10	-7.881697e-01	3.895951e+01
2.520000e-06	-1.556228e-07	5.171708e-10	-1.162890e+00	3.367483e+01
2.530000e-06	-2.056592e-07	4.312117e-10	-1.536787e+00	2.830891e+01
2.540000e-06	-2.556554e-07	3.490439e-10	-1.910382e+00	2.286840e+01
2.550000e-06	-3.056529e-07	2.677258e-10	-2.283989e+00	1.735937e+01
2.560000e-06	-3.555135e-07	1.838171e-10	-2.656571e+00	1.178817e+01
2.570000e-06	-4.051093e-07	9.952904e-11	-3.027176e+00	6.162315e+00
2.580000e-06	-4.545426e-07	1.268648e-11	-3.396565e+00	4.912249e-01
2.590000e-06	-5.037322e-07	-7.908245e-11	-3.764134e+00	-5.213282e+00
2.600000e-06	-5.525844e-07	-1.647459e-10	-4.129182e+00	-1.093688e+01
2.610000e-06	-6.011418e-07	-2.463716e-10	-4.492027e+00	-1.666306e+01
2.620000e-06	-6.493727e-07	-3.300450e-10	-4.852431e+00	-2.237377e+01
2.630000e-06	-6.972365e-07	-4.190873e-10	-5.210093e+00	-2.805047e+01
2.640000e-06	-7.447098e-07	-5.038748e-10	-5.564837e+00	-3.367517e+01
2.650000e-06	-7.919146e-07	-5.826407e-10	-5.917575e+00	-3.923161e+01
2.660000e-06	-8.389556e-07	-6.644307e-10	-6.269088e+00	-4.470609e+01
2.670000e-06	-8.857613e-07	-7.486423e-10	-6.618843e+00	-5.008812e+01
2.680000e-06	-9.322734e-07	-8.311169e-10	-6.966404e+00	-5.537053e+01
2.690000e-06	-9.785479e-07	-9.079422e-10	-7.312191e+00	-6.054929e+01
2.700000e-06	-1.024592e-06	-9.841734e-10	-7.656253e+00	-6.562281e+01
2.710000e-06	-1.070228e-06	-1.058619e-09	-7.997268e+00	-7.059109e+01
2.720000e-06	-1.115330e-06	-1.132438e-09	-8.334292e+00	-7.545468e+01
2.730000e-06	-1.160009e-06	-1.205945e-09	-8.668158e+00	-8.021372e+01
2.740000e-06	-1.204399e-06	-1.276529e-09	-8.999862e+00	-8.486720e+01
2.750000e-06	-1.248544e-06	-1.343708e-09	-9.329731e+00	-8.941247e+01
2.760000e-06	-1.292467e-06	-1.410299e-09	-9.657947e+00	-9.384528e+01
2.770000e-06	-1.336049e-06	-1.478395e-09	-9.983614e+00	-9.816005e+01
2.780000e-06	-1.379130e-06	-1.542743e-09	-1.030553e+01	-1.023506e+02
2.790000e-06	-1.421695e-06	-1.602529e-09	-1.062361e+01	-1.064109e+02
2.800000e-06	-1.463804e-06	-1.660424e-09	-1.093826e+01	-1.103362e+02
2.810000e-06	-1.505400e-06	-1.719336e-09	-1.124909e+01	-1.141237e+02
2.820000e-06	-1.546339e-06	-1.776325e-09	-1.155501e+01	-1.177730e+02
2.830000e-06	-1.586756e-06	-1.829689e-09	-1.185702e+01	-1.212865e+02
2.840000e-06	-1.626842e-06	-1.880543e-09	-1.215656e+01	-1.246690e+02
2.850000e-06	-1.666516e-06	-1.930045e-09	-1.245303e+01	-1.279271e+02
2.860000e-06	-1.705532e-06	-1.978486e-09	-1.274457e+01	-1.310685e+02
2.870000e-06	-1.743633e-06	-2.025967e-09	-1.302928e+01	-1.341009e+02
2.880000e-06	-1.780779e-06	-2.072437e-09	-1.330686e+01	-1.370309e+02
2.890000e-06	-1.817232e-06	-2.115492e-09	-1.357925e+01	-1.398632e+02
2.900000e-06	-1.853193e-06	-2.157651e-09	-1.384797e+01	-1.426005e+02
2.910000e-06	-1.888644e-06	-2.198388e-09	-1.411287e+01	-1.452426e+02
2.920000e-06	-1.923480e-06	-2.235942e-09	-1.437319e+01	-1.477876e+02
2.930000e-06	-1.957603e-06	-2.272175e-09	-1.462817e+01	-1.502320e+02
2.940000e-06	-1.990999e-06	-2.308113e-09	-1.487772e+01	-1.525722e+02
