# Temperatura_=_20.0
# Concentracion g/m^3_=_12600.0
# C_Vs_to_Am_M_A/Vsm_=_65563218390.804596
# pendiente_HvsI_1/m_=_3716.3
# ordenada_HvsI_A/m_=_1297.0
# frecuencia_Hz_=_213172.7033259176

Tiempo_(s)	Campo_(V.s)	Magnetizacion_(V.s)	Campo_(kA/m)	Magnetizacion_(A/m)
0.000000e+00	-6.744186e-06	-4.129039e-09	-5.682930e+01	-2.677583e+02
1.000000e-08	-6.743823e-06	-4.127357e-09	-5.682624e+01	-2.677420e+02
2.000000e-08	-6.742085e-06	-4.126773e-09	-5.681159e+01	-2.677059e+02
3.000000e-08	-6.738982e-06	-4.128001e-09	-5.678545e+01	-2.676511e+02
4.000000e-08	-6.734888e-06	-4.129140e-09	-5.675095e+01	-2.675779e+02
5.000000e-08	-6.729847e-06	-4.126953e-09	-5.670847e+01	-2.674865e+02
6.000000e-08	-6.723676e-06	-4.123095e-09	-5.665647e+01	-2.673765e+02
7.000000e-08	-6.716401e-06	-4.121146e-09	-5.659517e+01	-2.672471e+02
8.000000e-08	-6.708135e-06	-4.117419e-09	-5.652552e+01	-2.670971e+02
9.000000e-08	-6.698571e-06	-4.107427e-09	-5.644493e+01	-2.669252e+02
1.000000e-07	-6.687354e-06	-4.116810e-09	-5.635041e+01	-2.667296e+02
1.100000e-07	-6.674494e-06	-4.126271e-09	-5.624204e+01	-2.665086e+02
1.200000e-07	-6.660037e-06	-4.125145e-09	-5.612023e+01	-2.662607e+02
1.300000e-07	-6.644097e-06	-4.110173e-09	-5.598591e+01	-2.659843e+02
1.400000e-07	-6.627133e-06	-4.052510e-09	-5.584297e+01	-2.656781e+02
1.500000e-07	-6.609307e-06	-4.069440e-09	-5.569275e+01	-2.653415e+02
1.600000e-07	-6.590424e-06	-4.123929e-09	-5.553364e+01	-2.649740e+02
1.700000e-07	-6.570674e-06	-4.083276e-09	-5.536722e+01	-2.645759e+02
1.800000e-07	-6.549925e-06	-4.060081e-09	-5.519237e+01	-2.641478e+02
1.900000e-07	-6.527926e-06	-4.052645e-09	-5.500700e+01	-2.636908e+02
2.000000e-07	-6.504992e-06	-4.031000e-09	-5.481376e+01	-2.632067e+02
2.100000e-07	-6.481153e-06	-4.078734e-09	-5.461287e+01	-2.626973e+02
2.200000e-07	-6.455948e-06	-4.047661e-09	-5.440049e+01	-2.621648e+02
2.300000e-07	-6.429236e-06	-3.927651e-09	-5.417540e+01	-2.616115e+02
2.400000e-07	-6.401388e-06	-3.923637e-09	-5.394074e+01	-2.610395e+02
2.500000e-07	-6.372631e-06	-3.992260e-09	-5.369842e+01	-2.604508e+02
2.600000e-07	-6.342846e-06	-4.007532e-09	-5.344744e+01	-2.598469e+02
2.700000e-07	-6.311890e-06	-3.913440e-09	-5.318660e+01	-2.592289e+02
2.800000e-07	-6.279940e-06	-3.832715e-09	-5.291737e+01	-2.585974e+02
2.900000e-07	-6.246977e-06	-3.902700e-09	-5.263961e+01	-2.579522e+02
3.000000e-07	-6.212696e-06	-3.970608e-09	-5.235075e+01	-2.572924e+02
3.100000e-07	-6.177163e-06	-3.928441e-09	-5.205133e+01	-2.566166e+02
3.200000e-07	-6.140405e-06	-3.837741e-09	-5.174159e+01	-2.559226e+02
3.300000e-07	-6.102498e-06	-3.789809e-09	-5.142217e+01	-2.552080e+02
3.400000e-07	-6.063620e-06	-3.862375e-09	-5.109457e+01	-2.544697e+02
3.500000e-07	-6.023911e-06	-3.936038e-09	-5.075997e+01	-2.537047e+02
3.600000e-07	-5.983185e-06	-3.853337e-09	-5.041679e+01	-2.529096e+02
3.700000e-07	-5.941019e-06	-3.738762e-09	-5.006149e+01	-2.520815e+02
3.800000e-07	-5.897591e-06	-3.771642e-09	-4.969554e+01	-2.512176e+02
3.900000e-07	-5.853232e-06	-3.868464e-09	-4.932176e+01	-2.503154e+02
4.000000e-07	-5.807876e-06	-3.833651e-09	-4.893956e+01	-2.493733e+02
4.100000e-07	-5.761438e-06	-3.709404e-09	-4.854826e+01	-2.483900e+02
4.200000e-07	-5.714063e-06	-3.678615e-09	-4.814906e+01	-2.473651e+02
4.300000e-07	-5.665767e-06	-3.757422e-09	-4.774209e+01	-2.462989e+02
4.400000e-07	-5.616184e-06	-3.791050e-09	-4.732429e+01	-2.451922e+02
4.500000e-07	-5.565108e-06	-3.698038e-09	-4.689390e+01	-2.440466e+02
4.600000e-07	-5.512755e-06	-3.609041e-09	-4.645275e+01	-2.428638e+02
4.700000e-07	-5.459395e-06	-3.638062e-09	-4.600312e+01	-2.416463e+02
4.800000e-07	-5.405180e-06	-3.700412e-09	-4.554628e+01	-2.403963e+02
4.900000e-07	-5.350095e-06	-3.670692e-09	-4.508211e+01	-2.391163e+02
5.000000e-07	-5.294173e-06	-3.574472e-09	-4.461089e+01	-2.378086e+02
5.100000e-07	-5.237333e-06	-3.531776e-09	-4.413194e+01	-2.364751e+02
5.200000e-07	-5.179216e-06	-3.567759e-09	-4.364222e+01	-2.351172e+02
5.300000e-07	-5.119929e-06	-3.588405e-09	-4.314264e+01	-2.337361e+02
5.400000e-07	-5.059869e-06	-3.533758e-09	-4.263655e+01	-2.323321e+02
5.500000e-07	-4.999025e-06	-3.464194e-09	-4.212385e+01	-2.309051e+02
5.600000e-07	-4.937325e-06	-3.451008e-09	-4.160394e+01	-2.294545e+02
5.700000e-07	-4.874745e-06	-3.473440e-09	-4.107662e+01	-2.279790e+02
5.800000e-07	-4.811387e-06	-3.468127e-09	-4.054273e+01	-2.264772e+02
5.900000e-07	-4.747297e-06	-3.411769e-09	-4.000269e+01	-2.249470e+02
6.000000e-07	-4.682209e-06	-3.355659e-09	-3.945423e+01	-2.233866e+02
6.100000e-07	-4.615936e-06	-3.344067e-09	-3.889579e+01	-2.217938e+02
6.200000e-07	-4.548681e-06	-3.356276e-09	-3.832907e+01	-2.201668e+02
6.300000e-07	-4.480832e-06	-3.339900e-09	-3.775735e+01	-2.185039e+02
6.400000e-07	-4.412377e-06	-3.277887e-09	-3.718051e+01	-2.168037e+02
6.500000e-07	-4.343168e-06	-3.224567e-09	-3.659733e+01	-2.150652e+02
6.600000e-07	-4.273279e-06	-3.220264e-09	-3.600842e+01	-2.132879e+02
6.700000e-07	-4.202650e-06	-3.232506e-09	-3.541327e+01	-2.114716e+02
6.800000e-07	-4.131278e-06	-3.200713e-09	-3.481186e+01	-2.096165e+02
6.900000e-07	-4.059306e-06	-3.128970e-09	-3.420539e+01	-2.077232e+02
7.000000e-07	-3.986549e-06	-3.086605e-09	-3.359231e+01	-2.057924e+02
7.100000e-07	-3.912747e-06	-3.093636e-09	-3.297043e+01	-2.038250e+02
7.200000e-07	-3.838007e-06	-3.092928e-09	-3.234063e+01	-2.018220e+02
7.300000e-07	-3.762519e-06	-3.039330e-09	-3.170454e+01	-1.997841e+02
7.400000e-07	-3.686327e-06	-2.971290e-09	-3.106251e+01	-1.977120e+02
7.500000e-07	-3.609462e-06	-2.949055e-09	-3.041482e+01	-1.956059e+02
7.600000e-07	-3.531979e-06	-2.953050e-09	-2.976191e+01	-1.934659e+02
7.700000e-07	-3.453914e-06	-2.924483e-09	-2.910411e+01	-1.912916e+02
7.800000e-07	-3.375126e-06	-2.858051e-09	-2.844021e+01	-1.890820e+02
7.900000e-07	-3.295480e-06	-2.805205e-09	-2.776907e+01	-1.868362e+02
8.000000e-07	-3.215071e-06	-2.791003e-09	-2.709152e+01	-1.845527e+02
8.100000e-07	-3.134121e-06	-2.776540e-09	-2.640940e+01	-1.822297e+02
8.200000e-07	-3.052669e-06	-2.727535e-09	-2.572305e+01	-1.798656e+02
8.300000e-07	-2.970725e-06	-2.664475e-09	-2.503255e+01	-1.774583e+02
8.400000e-07	-2.888298e-06	-2.626650e-09	-2.433799e+01	-1.750063e+02
8.500000e-07	-2.805329e-06	-2.611147e-09	-2.363886e+01	-1.725078e+02
8.600000e-07	-2.721950e-06	-2.579825e-09	-2.293627e+01	-1.699615e+02
8.700000e-07	-2.638262e-06	-2.526785e-09	-2.223109e+01	-1.673664e+02
8.800000e-07	-2.554212e-06	-2.476319e-09	-2.152285e+01	-1.647218e+02
8.900000e-07	-2.469813e-06	-2.440391e-09	-2.081167e+01	-1.620272e+02
9.000000e-07	-2.385012e-06	-2.409695e-09	-2.009709e+01	-1.592825e+02
9.100000e-07	-2.299723e-06	-2.367602e-09	-1.937841e+01	-1.564880e+02
9.200000e-07	-2.214100e-06	-2.315644e-09	-1.865692e+01	-1.536440e+02
9.300000e-07	-2.128206e-06	-2.263323e-09	-1.793314e+01	-1.507509e+02
9.400000e-07	-2.041933e-06	-2.221572e-09	-1.720617e+01	-1.478092e+02
9.500000e-07	-1.955212e-06	-2.186830e-09	-1.647543e+01	-1.448191e+02
9.600000e-07	-1.868129e-06	-2.143256e-09	-1.574163e+01	-1.417809e+02
9.700000e-07	-1.780811e-06	-2.090515e-09	-1.500585e+01	-1.386942e+02
9.800000e-07	-1.693276e-06	-2.039699e-09	-1.426824e+01	-1.355586e+02
9.900000e-07	-1.605547e-06	-1.997321e-09	-1.352901e+01	-1.323732e+02
1.000000e-06	-1.517622e-06	-1.953576e-09	-1.278811e+01	-1.291368e+02
1.010000e-06	-1.429409e-06	-1.897283e-09	-1.204479e+01	-1.258477e+02
1.020000e-06	-1.340978e-06	-1.835780e-09	-1.129963e+01	-1.225042e+02
1.030000e-06	-1.252342e-06	-1.780804e-09	-1.055276e+01	-1.191040e+02
1.040000e-06	-1.163425e-06	-1.735572e-09	-9.803503e+00	-1.156452e+02
1.050000e-06	-1.074215e-06	-1.687535e-09	-9.051782e+00	-1.121255e+02
1.060000e-06	-9.846851e-07	-1.627788e-09	-8.297364e+00	-1.085431e+02
1.070000e-06	-8.948648e-07	-1.567639e-09	-7.540501e+00	-1.048962e+02
1.080000e-06	-8.047915e-07	-1.516065e-09	-6.781506e+00	-1.011835e+02
1.090000e-06	-7.145095e-07	-1.467448e-09	-6.020752e+00	-9.740402e+01
1.100000e-06	-6.240405e-07	-1.409671e-09	-5.258423e+00	-9.355729e+01
1.110000e-06	-5.334369e-07	-1.343519e-09	-4.494960e+00	-8.964329e+01
1.120000e-06	-4.427063e-07	-1.280590e-09	-3.730426e+00	-8.566244e+01
1.130000e-06	-3.518679e-07	-1.222365e-09	-2.964984e+00	-8.161549e+01
1.140000e-06	-2.610087e-07	-1.162717e-09	-2.199368e+00	-7.750349e+01
1.150000e-06	-1.700596e-07	-1.096138e-09	-1.432993e+00	-7.332762e+01
1.160000e-06	-7.903513e-08	-1.027997e-09	-6.659827e-01	-6.908905e+01
1.170000e-06	1.198283e-08	-9.626711e-10	1.009723e-01	-6.478883e+01
1.180000e-06	1.029593e-07	-8.969444e-10	8.675780e-01	-6.042773e+01
1.190000e-06	1.938644e-07	-8.324683e-10	1.633581e+00	-5.600612e+01
1.200000e-06	2.847504e-07	-7.657198e-10	2.399425e+00	-5.152386e+01
1.210000e-06	3.756235e-07	-6.964532e-10	3.165159e+00	-4.698028e+01
1.220000e-06	4.664054e-07	-6.252638e-10	3.930124e+00	-4.237410e+01
1.230000e-06	5.570215e-07	-5.535246e-10	4.693694e+00	-3.770354e+01
1.240000e-06	6.474956e-07	-4.821240e-10	5.456066e+00	-3.296632e+01
1.250000e-06	7.379283e-07	-4.079347e-10	6.218089e+00	-2.815983e+01
1.260000e-06	8.281742e-07	-3.332223e-10	6.978539e+00	-2.328131e+01
1.270000e-06	9.181197e-07	-2.586328e-10	7.736456e+00	-1.832804e+01
1.280000e-06	1.007823e-06	-1.847136e-10	8.492333e+00	-1.329755e+01
1.290000e-06	1.097261e-06	-1.095062e-10	9.245979e+00	-8.187913e+00
1.300000e-06	1.186411e-06	-2.917626e-11	9.997192e+00	-2.997985e+00
1.310000e-06	1.275300e-06	5.318942e-11	1.074620e+01	2.272387e+00
1.320000e-06	1.363863e-06	1.343490e-10	1.149248e+01	7.622127e+00
1.330000e-06	1.452084e-06	2.155841e-10	1.223586e+01	1.304877e+01
1.340000e-06	1.540072e-06	2.981499e-10	1.297729e+01	1.854832e+01
1.350000e-06	1.627842e-06	3.828659e-10	1.371687e+01	2.411520e+01
1.360000e-06	1.715361e-06	4.686645e-10	1.445434e+01	2.974223e+01
1.370000e-06	1.802603e-06	5.553741e-10	1.518948e+01	3.542070e+01
1.380000e-06	1.889629e-06	6.424414e-10	1.592279e+01	4.114046e+01
1.390000e-06	1.976421e-06	7.303643e-10	1.665414e+01	4.689011e+01
1.400000e-06	2.062863e-06	8.193886e-10	1.738253e+01	5.265721e+01
1.410000e-06	2.148878e-06	9.073165e-10	1.810733e+01	5.842857e+01
1.420000e-06	2.234506e-06	9.955105e-10	1.882887e+01	6.419052e+01
1.430000e-06	2.319805e-06	1.085402e-09	1.954764e+01	6.992920e+01
1.440000e-06	2.404765e-06	1.174453e-09	2.026355e+01	7.563094e+01
1.450000e-06	2.489353e-06	1.259953e-09	2.097632e+01	8.128247e+01
1.460000e-06	2.573526e-06	1.343513e-09	2.168560e+01	8.687125e+01
1.470000e-06	2.657334e-06	1.428490e-09	2.239180e+01	9.238571e+01
1.480000e-06	2.740771e-06	1.512212e-09	2.309487e+01	9.781546e+01
1.490000e-06	2.823789e-06	1.592821e-09	2.379441e+01	1.031514e+02
1.500000e-06	2.906335e-06	1.672564e-09	2.448998e+01	1.083858e+02
1.510000e-06	2.988275e-06	1.752603e-09	2.518044e+01	1.135126e+02
1.520000e-06	3.069661e-06	1.829408e-09	2.586623e+01	1.185270e+02
1.530000e-06	3.150544e-06	1.901350e-09	2.654779e+01	1.234257e+02
1.540000e-06	3.230842e-06	1.973137e-09	2.722441e+01	1.282067e+02
1.550000e-06	3.310553e-06	2.046108e-09	2.789609e+01	1.328693e+02
1.560000e-06	3.389631e-06	2.118400e-09	2.856243e+01	1.374138e+02
1.570000e-06	3.468045e-06	2.186504e-09	2.922318e+01	1.418412e+02
1.580000e-06	3.545848e-06	2.248664e-09	2.987878e+01	1.461536e+02
1.590000e-06	3.623096e-06	2.310034e-09	3.052970e+01	1.503534e+02
1.600000e-06	3.699667e-06	2.374740e-09	3.117492e+01	1.544433e+02
1.610000e-06	3.775527e-06	2.440571e-09	3.181415e+01	1.584262e+02
1.620000e-06	3.850701e-06	2.501337e-09	3.244760e+01	1.623054e+02
1.630000e-06	3.925035e-06	2.555337e-09	3.307397e+01	1.660837e+02
1.640000e-06	3.998380e-06	2.608827e-09	3.369200e+01	1.697641e+02
1.650000e-06	4.070809e-06	2.662992e-09	3.430232e+01	1.733493e+02
1.660000e-06	4.142534e-06	2.714105e-09	3.490670e+01	1.768417e+02
1.670000e-06	4.213609e-06	2.761083e-09	3.550561e+01	1.802435e+02
1.680000e-06	4.283955e-06	2.807724e-09	3.609837e+01	1.835567e+02
1.690000e-06	4.353522e-06	2.856106e-09	3.668458e+01	1.867828e+02
1.700000e-06	4.422348e-06	2.903375e-09	3.726453e+01	1.899236e+02
1.710000e-06	4.490514e-06	2.948464e-09	3.783893e+01	1.929802e+02
1.720000e-06	4.558039e-06	2.992158e-09	3.840792e+01	1.959540e+02
1.730000e-06	4.624721e-06	3.033443e-09	3.896981e+01	1.988460e+02
1.740000e-06	4.690402e-06	3.073815e-09	3.952327e+01	2.016573e+02
1.750000e-06	4.755093e-06	3.112808e-09	4.006838e+01	2.043892e+02
1.760000e-06	4.818929e-06	3.150411e-09	4.060629e+01	2.070428e+02
1.770000e-06	4.882025e-06	3.186243e-09	4.113796e+01	2.096193e+02
1.780000e-06	4.944335e-06	3.219701e-09	4.166301e+01	2.121200e+02
1.790000e-06	5.005827e-06	3.253656e-09	4.218117e+01	2.145463e+02
1.800000e-06	5.066515e-06	3.288798e-09	4.269255e+01	2.168998e+02
1.810000e-06	5.126481e-06	3.323033e-09	4.319785e+01	2.191820e+02
1.820000e-06	5.185714e-06	3.352992e-09	4.369697e+01	2.213944e+02
1.830000e-06	5.243838e-06	3.381336e-09	4.418675e+01	2.235388e+02
1.840000e-06	5.300643e-06	3.413591e-09	4.466541e+01	2.256168e+02
1.850000e-06	5.356475e-06	3.446275e-09	4.513588e+01	2.276301e+02
1.860000e-06	5.411531e-06	3.474129e-09	4.559980e+01	2.295802e+02
1.870000e-06	5.465707e-06	3.496661e-09	4.605631e+01	2.314686e+02
1.880000e-06	5.518906e-06	3.520035e-09	4.650459e+01	2.332967e+02
1.890000e-06	5.571071e-06	3.544895e-09	4.694415e+01	2.350658e+02
1.900000e-06	5.622019e-06	3.568850e-09	4.737346e+01	2.367772e+02
1.910000e-06	5.671566e-06	3.592985e-09	4.779096e+01	2.384317e+02
1.920000e-06	5.719875e-06	3.614759e-09	4.819803e+01	2.400304e+02
1.930000e-06	5.767182e-06	3.636802e-09	4.859666e+01	2.415740e+02
1.940000e-06	5.813530e-06	3.660910e-09	4.898720e+01	2.430631e+02
1.950000e-06	5.858925e-06	3.684366e-09	4.936973e+01	2.444985e+02
1.960000e-06	5.903440e-06	3.703826e-09	4.974482e+01	2.458807e+02
1.970000e-06	5.947129e-06	3.720702e-09	5.011297e+01	2.472103e+02
1.980000e-06	5.989781e-06	3.739416e-09	5.047237e+01	2.484880e+02
1.990000e-06	6.031088e-06	3.759635e-09	5.082044e+01	2.497143e+02
2.000000e-06	6.071166e-06	3.777903e-09	5.115816e+01	2.508903e+02
2.010000e-06	6.110236e-06	3.793554e-09	5.148737e+01	2.520167e+02
2.020000e-06	6.148309e-06	3.809001e-09	5.180819e+01	2.530947e+02
2.030000e-06	6.185364e-06	3.826806e-09	5.212044e+01	2.541255e+02
2.040000e-06	6.221492e-06	3.843895e-09	5.242487e+01	2.551107e+02
2.050000e-06	6.256732e-06	3.856801e-09	5.272181e+01	2.560516e+02
2.060000e-06	6.290691e-06	3.866687e-09	5.300796e+01	2.569502e+02
2.070000e-06	6.323253e-06	3.877765e-09	5.328235e+01	2.578081e+02
2.080000e-06	6.354736e-06	3.891002e-09	5.354763e+01	2.586271e+02
2.090000e-06	6.385201e-06	3.902645e-09	5.380435e+01	2.594091e+02
2.100000e-06	6.414591e-06	3.912545e-09	5.405200e+01	2.601559e+02
2.110000e-06	6.442961e-06	3.922861e-09	5.429106e+01	2.608690e+02
2.120000e-06	6.470404e-06	3.935587e-09	5.452230e+01	2.615498e+02
2.130000e-06	6.496568e-06	3.950331e-09	5.474276e+01	2.621997e+02
2.140000e-06	6.521248e-06	3.963273e-09	5.495073e+01	2.628194e+02
2.150000e-06	6.544715e-06	3.972265e-09	5.514848e+01	2.634097e+02
2.160000e-06	6.567106e-06	3.980134e-09	5.533715e+01	2.639709e+02
2.170000e-06	6.588436e-06	3.988753e-09	5.551688e+01	2.645030e+02
2.180000e-06	6.608762e-06	3.995914e-09	5.568816e+01	2.650057e+02
2.190000e-06	6.628091e-06	4.000417e-09	5.585104e+01	2.654787e+02
2.200000e-06	6.646310e-06	4.005633e-09	5.600455e+01	2.659213e+02
2.210000e-06	6.663322e-06	4.012116e-09	5.614791e+01	2.663328e+02
2.220000e-06	6.679044e-06	4.018533e-09	5.628039e+01	2.667125e+02
2.230000e-06	6.693444e-06	4.026063e-09	5.640173e+01	2.670598e+02
2.240000e-06	6.706588e-06	4.032919e-09	5.651248e+01	2.673741e+02
2.250000e-06	6.718574e-06	4.037613e-09	5.661349e+01	2.676552e+02
2.260000e-06	6.729183e-06	4.041886e-09	5.670288e+01	2.679030e+02
2.270000e-06	6.738216e-06	4.046423e-09	5.677900e+01	2.681179e+02
2.280000e-06	6.745986e-06	4.050744e-09	5.684447e+01	2.683005e+02
2.290000e-06	6.752686e-06	4.054029e-09	5.690093e+01	2.684517e+02
2.300000e-06	6.758267e-06	4.056427e-09	5.694795e+01	2.685728e+02
2.310000e-06	6.762772e-06	4.058062e-09	5.698591e+01	2.686653e+02
2.320000e-06	6.766303e-06	4.059747e-09	5.701567e+01	2.687308e+02
2.330000e-06	6.768566e-06	4.061246e-09	5.703473e+01	2.687712e+02
2.340000e-06	6.769369e-06	4.060612e-09	5.704150e+01	2.687881e+02
2.350000e-06	6.768961e-06	4.059683e-09	5.703807e+01	2.687832e+02
2.360000e-06	6.767457e-06	4.059433e-09	5.702539e+01	2.687578e+02
2.370000e-06	6.764929e-06	4.057881e-09	5.700409e+01	2.687132e+02
2.380000e-06	6.761428e-06	4.056415e-09	5.697459e+01	2.686501e+02
2.390000e-06	6.756976e-06	4.055655e-09	5.693708e+01	2.685687e+02
2.400000e-06	6.751336e-06	4.054646e-09	5.688955e+01	2.684689e+02
2.410000e-06	6.744270e-06	4.052815e-09	5.683001e+01	2.683503e+02
2.420000e-06	6.736099e-06	4.053783e-09	5.676116e+01	2.682118e+02
2.430000e-06	6.727033e-06	4.067108e-09	5.668476e+01	2.680521e+02
2.440000e-06	6.716793e-06	4.042177e-09	5.659847e+01	2.678697e+02
2.450000e-06	6.704810e-06	4.017896e-09	5.649750e+01	2.676629e+02
2.460000e-06	6.690698e-06	4.001379e-09	5.637859e+01	2.674300e+02
2.470000e-06	6.675073e-06	4.032178e-09	5.624692e+01	2.671694e+02
2.480000e-06	6.658926e-06	4.100198e-09	5.611087e+01	2.668797e+02
2.490000e-06	6.642291e-06	4.025949e-09	5.597069e+01	2.665599e+02
2.500000e-06	6.624267e-06	3.981982e-09	5.581881e+01	2.662094e+02
2.510000e-06	6.604859e-06	4.045744e-09	5.565527e+01	2.658281e+02
2.520000e-06	6.584837e-06	4.033184e-09	5.548656e+01	2.654163e+02
2.530000e-06	6.563644e-06	4.035566e-09	5.530798e+01	2.649750e+02
2.540000e-06	6.540696e-06	4.032720e-09	5.511461e+01	2.645056e+02
2.550000e-06	6.516570e-06	3.948838e-09	5.491131e+01	2.640098e+02
2.560000e-06	6.491558e-06	4.009983e-09	5.470056e+01	2.634897e+02
2.570000e-06	6.465583e-06	4.107414e-09	5.448167e+01	2.629475e+02
2.580000e-06	6.438518e-06	4.003804e-09	5.425362e+01	2.623855e+02
2.590000e-06	6.410198e-06	3.906493e-09	5.401498e+01	2.618058e+02
2.600000e-06	6.380852e-06	3.926126e-09	5.376770e+01	2.612100e+02
2.610000e-06	6.350358e-06	4.048916e-09	5.351074e+01	2.605997e+02
2.620000e-06	6.318435e-06	4.105698e-09	5.324175e+01	2.599756e+02
2.630000e-06	6.285437e-06	3.925714e-09	5.296369e+01	2.593380e+02
2.640000e-06	6.251366e-06	3.850809e-09	5.267660e+01	2.586863e+02
2.650000e-06	6.216117e-06	3.964761e-09	5.237957e+01	2.580195e+02
2.660000e-06	6.179982e-06	4.053573e-09	5.207508e+01	2.573358e+02
2.670000e-06	6.142840e-06	4.037816e-09	5.176211e+01	2.566329e+02
2.680000e-06	6.104316e-06	3.850124e-09	5.143749e+01	2.559080e+02
2.690000e-06	6.064451e-06	3.781061e-09	5.110157e+01	2.551580e+02
2.700000e-06	6.023537e-06	3.946975e-09	5.075681e+01	2.543798e+02
2.710000e-06	5.981752e-06	4.014244e-09	5.040472e+01	2.535703e+02
2.720000e-06	5.938922e-06	3.888810e-09	5.004381e+01	2.527263e+02
2.730000e-06	5.895072e-06	3.726395e-09	4.967431e+01	2.518454e+02
2.740000e-06	5.850452e-06	3.789269e-09	4.929832e+01	2.509254e+02
2.750000e-06	5.804897e-06	3.950283e-09	4.891446e+01	2.499648e+02
2.760000e-06	5.758214e-06	3.888919e-09	4.852109e+01	2.489628e+02
2.770000e-06	5.710404e-06	3.731905e-09	4.811823e+01	2.479193e+02
2.780000e-06	5.661513e-06	3.685170e-09	4.770625e+01	2.468347e+02
2.790000e-06	5.611578e-06	3.794992e-09	4.728547e+01	2.457102e+02
2.800000e-06	5.560635e-06	3.849075e-09	4.685621e+01	2.445476e+02
2.810000e-06	5.508621e-06	3.733961e-09	4.641792e+01	2.433489e+02
2.820000e-06	5.455388e-06	3.643547e-09	4.596936e+01	2.421165e+02
2.830000e-06	5.400879e-06	3.653733e-09	4.551004e+01	2.408527e+02
2.840000e-06	5.345265e-06	3.720976e-09	4.504141e+01	2.395599e+02
2.850000e-06	5.288825e-06	3.713261e-09	4.456583e+01	2.382403e+02
2.860000e-06	5.231531e-06	3.623438e-09	4.408304e+01	2.368957e+02
2.870000e-06	5.173339e-06	3.571217e-09	4.359269e+01	2.355272e+02
2.880000e-06	5.114240e-06	3.579367e-09	4.309470e+01	2.341358e+02
2.890000e-06	5.054316e-06	3.610291e-09	4.258976e+01	2.327215e+02
2.900000e-06	4.993662e-06	3.582550e-09	4.207866e+01	2.312840e+02
2.910000e-06	4.931970e-06	3.521396e-09	4.155882e+01	2.298223e+02
2.920000e-06	4.869086e-06	3.481735e-09	4.102893e+01	2.283352e+02
2.930000e-06	4.805241e-06	3.485196e-09	4.049095e+01	2.268208e+02
2.940000e-06	4.740582e-06	3.501109e-09	3.994610e+01	2.252772e+02
