# Temperatura_=_20.0
# Concentracion g/m^3_=_12600.0
# C_Vs_to_Am_M_A/Vsm_=_65563218390.804596
# pendiente_HvsI_1/m_=_3716.3
# ordenada_HvsI_A/m_=_1297.0
# frecuencia_Hz_=_213172.0924225543

Tiempo_(s)	Campo_(V.s)	Magnetizacion_(V.s)	Campo_(kA/m)	Magnetizacion_(A/m)
0.000000e+00	-6.738824e-06	-4.095707e-09	-5.682062e+01	-2.647632e+02
1.000000e-08	-6.738537e-06	-4.092193e-09	-5.681820e+01	-2.647374e+02
2.000000e-08	-6.736885e-06	-4.090572e-09	-5.680427e+01	-2.646752e+02
3.000000e-08	-6.733823e-06	-4.091667e-09	-5.677846e+01	-2.645797e+02
4.000000e-08	-6.729851e-06	-4.093074e-09	-5.674496e+01	-2.644557e+02
5.000000e-08	-6.724890e-06	-4.090989e-09	-5.670313e+01	-2.643088e+02
6.000000e-08	-6.718701e-06	-4.086872e-09	-5.665095e+01	-2.641459e+02
7.000000e-08	-6.711463e-06	-4.084940e-09	-5.658991e+01	-2.639745e+02
8.000000e-08	-6.703368e-06	-4.080863e-09	-5.652166e+01	-2.638023e+02
9.000000e-08	-6.693990e-06	-4.077093e-09	-5.644259e+01	-2.636371e+02
1.000000e-07	-6.682781e-06	-4.100957e-09	-5.634808e+01	-2.634858e+02
1.100000e-07	-6.669915e-06	-4.107569e-09	-5.623959e+01	-2.633547e+02
1.200000e-07	-6.655603e-06	-4.090123e-09	-5.611891e+01	-2.632483e+02
1.300000e-07	-6.639777e-06	-4.051632e-09	-5.598547e+01	-2.631697e+02
1.400000e-07	-6.622789e-06	-3.992171e-09	-5.584224e+01	-2.631197e+02
1.500000e-07	-6.604909e-06	-4.067100e-09	-5.569147e+01	-2.630972e+02
1.600000e-07	-6.586006e-06	-4.111498e-09	-5.553209e+01	-2.630986e+02
1.700000e-07	-6.566313e-06	-4.014377e-09	-5.536603e+01	-2.631186e+02
1.800000e-07	-6.545646e-06	-4.022893e-09	-5.519177e+01	-2.631496e+02
1.900000e-07	-6.523687e-06	-4.010299e-09	-5.500662e+01	-2.631827e+02
2.000000e-07	-6.500824e-06	-3.988701e-09	-5.481384e+01	-2.632075e+02
2.100000e-07	-6.477086e-06	-4.103719e-09	-5.461369e+01	-2.632131e+02
2.200000e-07	-6.451907e-06	-4.048381e-09	-5.440138e+01	-2.631883e+02
2.300000e-07	-6.425162e-06	-3.904817e-09	-5.417588e+01	-2.631222e+02
2.400000e-07	-6.397287e-06	-3.986637e-09	-5.394084e+01	-2.630047e+02
2.500000e-07	-6.368525e-06	-4.070748e-09	-5.369832e+01	-2.628268e+02
2.600000e-07	-6.338774e-06	-4.033864e-09	-5.344746e+01	-2.625814e+02
2.700000e-07	-6.307842e-06	-3.947394e-09	-5.318665e+01	-2.622632e+02
2.800000e-07	-6.275921e-06	-3.865493e-09	-5.291750e+01	-2.618687e+02
2.900000e-07	-6.243012e-06	-3.927047e-09	-5.264002e+01	-2.613971e+02
3.000000e-07	-6.208786e-06	-4.021876e-09	-5.235143e+01	-2.608492e+02
3.100000e-07	-6.173263e-06	-3.983440e-09	-5.205190e+01	-2.602278e+02
3.200000e-07	-6.136588e-06	-3.861921e-09	-5.174267e+01	-2.595376e+02
3.300000e-07	-6.098778e-06	-3.809741e-09	-5.142386e+01	-2.587844e+02
3.400000e-07	-6.059936e-06	-3.909174e-09	-5.109635e+01	-2.579748e+02
3.500000e-07	-6.020252e-06	-3.996601e-09	-5.076174e+01	-2.571159e+02
3.600000e-07	-5.979540e-06	-3.901578e-09	-5.041847e+01	-2.562150e+02
3.700000e-07	-5.937444e-06	-3.751640e-09	-5.006352e+01	-2.552789e+02
3.800000e-07	-5.894087e-06	-3.773411e-09	-4.969794e+01	-2.543138e+02
3.900000e-07	-5.849797e-06	-3.922509e-09	-4.932450e+01	-2.533246e+02
4.000000e-07	-5.804537e-06	-3.916596e-09	-4.894287e+01	-2.523153e+02
4.100000e-07	-5.758184e-06	-3.743974e-09	-4.855203e+01	-2.512884e+02
4.200000e-07	-5.710803e-06	-3.671706e-09	-4.815252e+01	-2.502454e+02
4.300000e-07	-5.662446e-06	-3.779309e-09	-4.774478e+01	-2.491861e+02
4.400000e-07	-5.612829e-06	-3.869414e-09	-4.732642e+01	-2.481096e+02
4.500000e-07	-5.561748e-06	-3.778284e-09	-4.689571e+01	-2.470138e+02
4.600000e-07	-5.509493e-06	-3.631058e-09	-4.645511e+01	-2.458962e+02
4.700000e-07	-5.456250e-06	-3.630426e-09	-4.600617e+01	-2.447537e+02
4.800000e-07	-5.402039e-06	-3.739216e-09	-4.554907e+01	-2.435834e+02
4.900000e-07	-5.346975e-06	-3.759558e-09	-4.508479e+01	-2.423824e+02
5.000000e-07	-5.291126e-06	-3.639180e-09	-4.461388e+01	-2.411481e+02
5.100000e-07	-5.234263e-06	-3.539791e-09	-4.413441e+01	-2.398785e+02
5.200000e-07	-5.176152e-06	-3.575781e-09	-4.364443e+01	-2.385725e+02
5.300000e-07	-5.117035e-06	-3.653114e-09	-4.314597e+01	-2.372293e+02
5.400000e-07	-5.057133e-06	-3.626363e-09	-4.264089e+01	-2.358490e+02
5.500000e-07	-4.996391e-06	-3.513041e-09	-4.212872e+01	-2.344322e+02
5.600000e-07	-4.934721e-06	-3.455574e-09	-4.160873e+01	-2.329802e+02
5.700000e-07	-4.872218e-06	-3.503112e-09	-4.108172e+01	-2.314941e+02
5.800000e-07	-4.808941e-06	-3.547594e-09	-4.054817e+01	-2.299757e+02
5.900000e-07	-4.744827e-06	-3.490971e-09	-4.000758e+01	-2.284264e+02
6.000000e-07	-4.679783e-06	-3.392638e-09	-3.945914e+01	-2.268474e+02
6.100000e-07	-4.613683e-06	-3.357933e-09	-3.890179e+01	-2.252398e+02
6.200000e-07	-4.546628e-06	-3.394558e-09	-3.833640e+01	-2.236038e+02
6.300000e-07	-4.478874e-06	-3.414332e-09	-3.776510e+01	-2.219395e+02
6.400000e-07	-4.410465e-06	-3.353304e-09	-3.718829e+01	-2.202464e+02
6.500000e-07	-4.341354e-06	-3.266555e-09	-3.660556e+01	-2.185232e+02
6.600000e-07	-4.271541e-06	-3.241080e-09	-3.601691e+01	-2.167686e+02
6.700000e-07	-4.200969e-06	-3.275234e-09	-3.542186e+01	-2.149808e+02
6.800000e-07	-4.129681e-06	-3.278292e-09	-3.482077e+01	-2.131579e+02
6.900000e-07	-4.057738e-06	-3.204417e-09	-3.421416e+01	-2.112979e+02
7.000000e-07	-3.985020e-06	-3.124474e-09	-3.360101e+01	-2.093991e+02
7.100000e-07	-3.911341e-06	-3.114559e-09	-3.297976e+01	-2.074598e+02
7.200000e-07	-3.836734e-06	-3.143530e-09	-3.235069e+01	-2.054789e+02
7.300000e-07	-3.761358e-06	-3.121789e-09	-3.171513e+01	-2.034557e+02
7.400000e-07	-3.685303e-06	-3.039967e-09	-3.107385e+01	-2.013898e+02
7.500000e-07	-3.608570e-06	-2.977661e-09	-3.042685e+01	-1.992813e+02
7.600000e-07	-3.531196e-06	-2.975393e-09	-2.977444e+01	-1.971308e+02
7.700000e-07	-3.453090e-06	-2.983770e-09	-2.911587e+01	-1.949389e+02
7.800000e-07	-3.374282e-06	-2.941313e-09	-2.845137e+01	-1.927067e+02
7.900000e-07	-3.294789e-06	-2.865262e-09	-2.778111e+01	-1.904352e+02
8.000000e-07	-3.214543e-06	-2.817005e-09	-2.710448e+01	-1.881252e+02
8.100000e-07	-3.133680e-06	-2.808727e-09	-2.642266e+01	-1.857773e+02
8.200000e-07	-3.052317e-06	-2.797484e-09	-2.573662e+01	-1.833920e+02
8.300000e-07	-2.970484e-06	-2.746523e-09	-2.504662e+01	-1.809692e+02
8.400000e-07	-2.888160e-06	-2.678489e-09	-2.435248e+01	-1.785083e+02
8.500000e-07	-2.805337e-06	-2.637045e-09	-2.365412e+01	-1.760083e+02
8.600000e-07	-2.722072e-06	-2.624307e-09	-2.295205e+01	-1.734677e+02
8.700000e-07	-2.638431e-06	-2.604987e-09	-2.224680e+01	-1.708849e+02
8.800000e-07	-2.554465e-06	-2.550740e-09	-2.153882e+01	-1.682577e+02
8.900000e-07	-2.470157e-06	-2.481380e-09	-2.082795e+01	-1.655839e+02
9.000000e-07	-2.385390e-06	-2.437113e-09	-2.011320e+01	-1.628612e+02
9.100000e-07	-2.300245e-06	-2.419254e-09	-1.939527e+01	-1.600876e+02
9.200000e-07	-2.214767e-06	-2.392366e-09	-1.867454e+01	-1.572612e+02
9.300000e-07	-2.128874e-06	-2.330998e-09	-1.795031e+01	-1.543805e+02
9.400000e-07	-2.042603e-06	-2.262553e-09	-1.722288e+01	-1.514443e+02
9.500000e-07	-1.955984e-06	-2.224451e-09	-1.649252e+01	-1.484520e+02
9.600000e-07	-1.869018e-06	-2.205363e-09	-1.575924e+01	-1.454034e+02
9.700000e-07	-1.781819e-06	-2.167000e-09	-1.502399e+01	-1.422988e+02
9.800000e-07	-1.694440e-06	-2.099540e-09	-1.428723e+01	-1.391385e+02
9.900000e-07	-1.606787e-06	-2.034657e-09	-1.354816e+01	-1.359235e+02
1.000000e-06	-1.518766e-06	-1.996188e-09	-1.280598e+01	-1.326546e+02
1.010000e-06	-1.430449e-06	-1.965463e-09	-1.206130e+01	-1.293328e+02
1.020000e-06	-1.341991e-06	-1.911836e-09	-1.131544e+01	-1.259586e+02
1.030000e-06	-1.253336e-06	-1.838458e-09	-1.056792e+01	-1.225326e+02
1.040000e-06	-1.164330e-06	-1.777298e-09	-9.817429e+00	-1.190549e+02
1.050000e-06	-1.074932e-06	-1.737316e-09	-9.063642e+00	-1.155253e+02
1.060000e-06	-9.852951e-07	-1.694301e-09	-8.307841e+00	-1.119428e+02
1.070000e-06	-8.955912e-07	-1.631840e-09	-7.551473e+00	-1.083064e+02
1.080000e-06	-8.057094e-07	-1.560340e-09	-6.793605e+00	-1.046145e+02
1.090000e-06	-7.155320e-07	-1.503234e-09	-6.033245e+00	-1.008650e+02
1.100000e-06	-6.251948e-07	-1.459165e-09	-5.271537e+00	-9.705594e+01
1.110000e-06	-5.347645e-07	-1.407042e-09	-4.509043e+00	-9.318500e+01
1.120000e-06	-4.442136e-07	-1.340460e-09	-3.745534e+00	-8.924998e+01
1.130000e-06	-3.535796e-07	-1.269614e-09	-2.981323e+00	-8.524879e+01
1.140000e-06	-2.628841e-07	-1.206732e-09	-2.216594e+00	-8.117961e+01
1.150000e-06	-1.721550e-07	-1.151023e-09	-1.451581e+00	-7.704095e+01
1.160000e-06	-8.143080e-08	-1.091685e-09	-6.866107e-01	-7.283169e+01
1.170000e-06	9.282453e-09	-1.020159e-09	7.826807e-02	-6.855112e+01
1.180000e-06	1.000087e-07	-9.424766e-10	8.432567e-01	-6.419890e+01
1.190000e-06	1.907767e-07	-8.771754e-10	1.608597e+00	-5.977502e+01
1.200000e-06	2.815399e-07	-8.226526e-10	2.373897e+00	-5.527971e+01
1.210000e-06	3.722119e-07	-7.595999e-10	3.138428e+00	-5.071338e+01
1.220000e-06	4.627847e-07	-6.802394e-10	3.902122e+00	-4.607647e+01
1.230000e-06	5.532739e-07	-5.980231e-10	4.665111e+00	-4.136938e+01
1.240000e-06	6.436520e-07	-5.273827e-10	5.427165e+00	-3.659238e+01
1.250000e-06	7.339209e-07	-4.620806e-10	6.188297e+00	-3.174557e+01
1.260000e-06	8.240559e-07	-3.878089e-10	6.948299e+00	-2.682882e+01
1.270000e-06	9.139809e-07	-3.051540e-10	7.706532e+00	-2.184184e+01
1.280000e-06	1.003622e-06	-2.259582e-10	8.462372e+00	-1.678425e+01
1.290000e-06	1.092995e-06	-1.560681e-10	9.215947e+00	-1.165566e+01
1.300000e-06	1.182163e-06	-8.419606e-11	9.967799e+00	-6.455867e+00
1.310000e-06	1.271090e-06	-1.511148e-12	1.071761e+01	-1.185033e+00
1.320000e-06	1.359739e-06	8.708659e-11	1.146509e+01	4.156094e+00
1.330000e-06	1.448076e-06	1.727311e-10	1.220993e+01	9.565962e+00
1.340000e-06	1.536096e-06	2.516980e-10	1.295210e+01	1.504200e+01
1.350000e-06	1.623847e-06	3.303356e-10	1.369201e+01	2.058042e+01
1.360000e-06	1.711292e-06	4.156507e-10	1.442932e+01	2.617608e+01
1.370000e-06	1.798480e-06	5.081763e-10	1.516448e+01	3.182238e+01
1.380000e-06	1.885455e-06	5.980314e-10	1.589784e+01	3.751122e+01
1.390000e-06	1.972120e-06	6.796803e-10	1.662858e+01	4.323306e+01
1.400000e-06	2.058453e-06	7.616447e-10	1.735652e+01	4.897700e+01
1.410000e-06	2.144469e-06	8.523938e-10	1.808180e+01	5.473097e+01
1.420000e-06	2.230127e-06	9.473492e-10	1.880405e+01	6.048200e+01
1.430000e-06	2.315381e-06	1.036963e-09	1.952290e+01	6.621647e+01
1.440000e-06	2.400225e-06	1.118422e-09	2.023829e+01	7.192050e+01
1.450000e-06	2.484744e-06	1.200704e-09	2.095094e+01	7.758026e+01
1.460000e-06	2.568938e-06	1.289169e-09	2.166085e+01	8.318233e+01
1.470000e-06	2.652716e-06	1.379349e-09	2.236725e+01	8.871409e+01
1.480000e-06	2.736045e-06	1.460512e-09	2.306987e+01	9.416396e+01
1.490000e-06	2.818946e-06	1.534809e-09	2.376888e+01	9.952171e+01
1.500000e-06	2.901476e-06	1.614667e-09	2.446475e+01	1.047786e+02
1.510000e-06	2.983435e-06	1.699261e-09	2.515581e+01	1.099276e+02
1.520000e-06	3.064720e-06	1.777694e-09	2.584120e+01	1.149634e+02
1.530000e-06	3.145476e-06	1.846667e-09	2.652212e+01	1.198822e+02
1.540000e-06	3.225737e-06	1.914051e-09	2.719887e+01	1.246819e+02
1.550000e-06	3.305468e-06	1.986137e-09	2.787115e+01	1.293618e+02
1.560000e-06	3.384563e-06	2.060582e-09	2.853806e+01	1.339224e+02
1.570000e-06	3.462947e-06	2.129372e-09	2.919898e+01	1.383652e+02
1.580000e-06	3.540677e-06	2.189480e-09	2.985439e+01	1.426925e+02
1.590000e-06	3.617764e-06	2.250355e-09	3.050437e+01	1.469071e+02
1.600000e-06	3.694241e-06	2.318232e-09	3.114922e+01	1.510119e+02
1.610000e-06	3.770093e-06	2.384947e-09	3.178878e+01	1.550100e+02
1.620000e-06	3.845216e-06	2.443124e-09	3.242221e+01	1.589043e+02
1.630000e-06	3.919515e-06	2.495062e-09	3.304869e+01	1.626977e+02
1.640000e-06	3.992907e-06	2.548293e-09	3.366752e+01	1.663925e+02
1.650000e-06	4.065394e-06	2.604223e-09	3.427871e+01	1.699908e+02
1.660000e-06	4.137095e-06	2.659018e-09	3.488328e+01	1.734946e+02
1.670000e-06	4.208114e-06	2.708521e-09	3.548210e+01	1.769052e+02
1.680000e-06	4.278460e-06	2.754397e-09	3.607525e+01	1.802242e+02
1.690000e-06	4.348080e-06	2.801592e-09	3.666227e+01	1.834528e+02
1.700000e-06	4.416865e-06	2.849969e-09	3.724226e+01	1.865923e+02
1.710000e-06	4.484949e-06	2.896170e-09	3.781633e+01	1.896441e+02
1.720000e-06	4.552407e-06	2.937388e-09	3.838513e+01	1.926096e+02
1.730000e-06	4.619033e-06	2.975052e-09	3.894690e+01	1.954905e+02
1.740000e-06	4.684709e-06	3.016583e-09	3.950067e+01	1.982888e+02
1.750000e-06	4.749372e-06	3.060571e-09	4.004590e+01	2.010065e+02
1.760000e-06	4.813130e-06	3.100672e-09	4.058349e+01	2.036459e+02
1.770000e-06	4.876228e-06	3.136292e-09	4.111553e+01	2.062092e+02
1.780000e-06	4.938577e-06	3.168912e-09	4.164124e+01	2.086987e+02
1.790000e-06	5.000049e-06	3.203403e-09	4.215956e+01	2.111166e+02
1.800000e-06	5.060742e-06	3.238569e-09	4.267132e+01	2.134651e+02
1.810000e-06	5.120681e-06	3.272295e-09	4.317671e+01	2.157458e+02
1.820000e-06	5.179802e-06	3.303208e-09	4.367521e+01	2.179603e+02
1.830000e-06	5.237908e-06	3.332331e-09	4.416515e+01	2.201098e+02
1.840000e-06	5.294797e-06	3.365621e-09	4.464483e+01	2.221952e+02
1.850000e-06	5.350647e-06	3.399069e-09	4.511574e+01	2.242171e+02
1.860000e-06	5.405678e-06	3.427569e-09	4.557976e+01	2.261758e+02
1.870000e-06	5.459800e-06	3.452047e-09	4.603611e+01	2.280717e+02
1.880000e-06	5.512943e-06	3.476096e-09	4.648420e+01	2.299048e+02
1.890000e-06	5.565084e-06	3.501661e-09	4.692384e+01	2.316753e+02
1.900000e-06	5.616075e-06	3.524724e-09	4.735379e+01	2.333839e+02
1.910000e-06	5.665742e-06	3.545959e-09	4.777257e+01	2.350309e+02
1.920000e-06	5.714119e-06	3.565934e-09	4.818048e+01	2.366175e+02
1.930000e-06	5.761484e-06	3.587199e-09	4.857986e+01	2.381448e+02
1.940000e-06	5.807925e-06	3.612152e-09	4.897144e+01	2.396147e+02
1.950000e-06	5.853361e-06	3.635517e-09	4.935455e+01	2.410290e+02
1.960000e-06	5.897852e-06	3.655065e-09	4.972969e+01	2.423902e+02
1.970000e-06	5.941494e-06	3.672303e-09	5.009767e+01	2.437007e+02
1.980000e-06	5.984217e-06	3.690881e-09	5.045790e+01	2.449630e+02
1.990000e-06	6.025622e-06	3.710726e-09	5.080703e+01	2.461796e+02
2.000000e-06	6.065687e-06	3.728331e-09	5.114484e+01	2.473530e+02
2.010000e-06	6.104725e-06	3.743604e-09	5.147401e+01	2.484851e+02
2.020000e-06	6.142785e-06	3.757807e-09	5.179492e+01	2.495776e+02
2.030000e-06	6.179850e-06	3.773245e-09	5.210745e+01	2.506316e+02
2.040000e-06	6.215991e-06	3.790329e-09	5.241218e+01	2.516480e+02
2.050000e-06	6.251212e-06	3.805478e-09	5.270916e+01	2.526268e+02
2.060000e-06	6.285175e-06	3.817068e-09	5.299553e+01	2.535679e+02
2.070000e-06	6.317741e-06	3.828667e-09	5.327012e+01	2.544706e+02
2.080000e-06	6.349209e-06	3.842572e-09	5.353546e+01	2.553340e+02
2.090000e-06	6.379693e-06	3.855067e-09	5.379249e+01	2.561571e+02
2.100000e-06	6.409128e-06	3.864577e-09	5.404068e+01	2.569392e+02
2.110000e-06	6.437567e-06	3.874367e-09	5.428047e+01	2.576794e+02
2.120000e-06	6.464992e-06	3.886157e-09	5.451171e+01	2.583775e+02
2.130000e-06	6.491128e-06	3.898632e-09	5.473209e+01	2.590334e+02
2.140000e-06	6.515821e-06	3.910638e-09	5.494029e+01	2.596480e+02
2.150000e-06	6.539331e-06	3.920696e-09	5.513853e+01	2.602224e+02
2.160000e-06	6.561803e-06	3.928828e-09	5.532801e+01	2.607584e+02
2.170000e-06	6.583144e-06	3.936821e-09	5.550795e+01	2.612582e+02
2.180000e-06	6.603445e-06	3.944189e-09	5.567913e+01	2.617246e+02
2.190000e-06	6.622839e-06	3.950247e-09	5.584265e+01	2.621603e+02
2.200000e-06	6.641158e-06	3.955456e-09	5.599712e+01	2.625682e+02
2.210000e-06	6.658171e-06	3.959674e-09	5.614057e+01	2.629510e+02
2.220000e-06	6.673919e-06	3.964354e-09	5.627335e+01	2.633110e+02
2.230000e-06	6.688386e-06	3.971931e-09	5.639533e+01	2.636499e+02
2.240000e-06	6.701578e-06	3.979718e-09	5.650657e+01	2.639688e+02
2.250000e-06	6.713659e-06	3.984924e-09	5.660843e+01	2.642678e+02
2.260000e-06	6.724462e-06	3.988656e-09	5.669952e+01	2.645464e+02
2.270000e-06	6.733659e-06	3.993299e-09	5.677707e+01	2.648033e+02
2.280000e-06	6.741497e-06	3.998472e-09	5.684315e+01	2.650362e+02
2.290000e-06	6.748260e-06	4.002197e-09	5.690019e+01	2.652426e+02
2.300000e-06	6.753869e-06	4.005798e-09	5.694748e+01	2.654195e+02
2.310000e-06	6.758365e-06	4.008485e-09	5.698539e+01	2.655640e+02
2.320000e-06	6.761816e-06	4.009845e-09	5.701449e+01	2.656735e+02
2.330000e-06	6.764133e-06	4.010713e-09	5.703402e+01	2.657457e+02
2.340000e-06	6.765020e-06	4.011847e-09	5.704150e+01	2.657794e+02
2.350000e-06	6.764637e-06	4.013726e-09	5.703827e+01	2.657745e+02
2.360000e-06	6.763245e-06	4.013835e-09	5.702653e+01	2.657319e+02
2.370000e-06	6.760777e-06	4.011306e-09	5.700572e+01	2.656543e+02
2.380000e-06	6.757265e-06	4.009885e-09	5.697611e+01	2.655453e+02
2.390000e-06	6.752800e-06	4.009214e-09	5.693846e+01	2.654102e+02
2.400000e-06	6.747229e-06	4.009346e-09	5.689149e+01	2.652552e+02
2.410000e-06	6.740267e-06	4.008393e-09	5.683279e+01	2.650875e+02
2.420000e-06	6.732144e-06	4.009114e-09	5.676429e+01	2.649147e+02
2.430000e-06	6.723132e-06	4.012782e-09	5.668830e+01	2.647447e+02
2.440000e-06	6.713027e-06	3.970958e-09	5.660310e+01	2.645849e+02
2.450000e-06	6.701197e-06	3.953065e-09	5.650335e+01	2.644420e+02
2.460000e-06	6.687178e-06	3.960024e-09	5.638515e+01	2.643215e+02
2.470000e-06	6.671547e-06	4.024401e-09	5.625335e+01	2.642274e+02
2.480000e-06	6.655369e-06	4.095592e-09	5.611695e+01	2.641616e+02
2.490000e-06	6.638761e-06	3.979197e-09	5.597690e+01	2.641243e+02
2.500000e-06	6.620774e-06	3.965911e-09	5.582524e+01	2.641131e+02
2.510000e-06	6.601338e-06	4.060016e-09	5.566136e+01	2.641236e+02
2.520000e-06	6.581299e-06	4.009059e-09	5.549240e+01	2.641496e+02
2.530000e-06	6.560215e-06	4.045018e-09	5.531462e+01	2.641827e+02
2.540000e-06	6.537350e-06	4.046167e-09	5.512182e+01	2.642134e+02
2.550000e-06	6.513257e-06	3.917599e-09	5.491868e+01	2.642309e+02
2.560000e-06	6.488269e-06	4.037444e-09	5.470798e+01	2.642242e+02
2.570000e-06	6.462285e-06	4.164232e-09	5.448889e+01	2.641821e+02
2.580000e-06	6.435264e-06	4.028655e-09	5.426105e+01	2.640940e+02
2.590000e-06	6.407064e-06	3.974748e-09	5.402328e+01	2.639503e+02
2.600000e-06	6.377952e-06	4.009215e-09	5.377781e+01	2.637429e+02
2.610000e-06	6.347678e-06	4.104463e-09	5.352254e+01	2.634652e+02
2.620000e-06	6.315828e-06	4.205075e-09	5.325399e+01	2.631129e+02
2.630000e-06	6.282817e-06	4.042120e-09	5.297565e+01	2.626837e+02
2.640000e-06	6.248744e-06	3.912857e-09	5.268835e+01	2.621775e+02
2.650000e-06	6.213583e-06	3.979033e-09	5.239188e+01	2.615960e+02
2.660000e-06	6.177538e-06	4.104548e-09	5.208795e+01	2.609431e+02
2.670000e-06	6.140405e-06	4.169635e-09	5.177486e+01	2.602237e+02
2.680000e-06	6.101848e-06	3.947378e-09	5.144974e+01	2.594442e+02
2.690000e-06	6.061952e-06	3.791893e-09	5.111335e+01	2.586115e+02
2.700000e-06	6.021087e-06	3.968734e-09	5.076878e+01	2.577328e+02
2.710000e-06	5.979380e-06	4.117410e-09	5.041712e+01	2.568153e+02
2.720000e-06	5.936653e-06	4.018959e-09	5.005685e+01	2.558654e+02
2.730000e-06	5.892908e-06	3.764876e-09	4.968800e+01	2.548888e+02
2.740000e-06	5.848189e-06	3.774256e-09	4.931094e+01	2.538901e+02
2.750000e-06	5.802538e-06	4.006670e-09	4.892602e+01	2.528727e+02
2.760000e-06	5.755893e-06	4.012547e-09	4.853271e+01	2.518385e+02
2.770000e-06	5.708068e-06	3.826112e-09	4.812946e+01	2.507882e+02
2.780000e-06	5.659207e-06	3.693761e-09	4.771747e+01	2.497213e+02
2.790000e-06	5.609389e-06	3.798575e-09	4.729742e+01	2.486364e+02
2.800000e-06	5.558507e-06	3.934569e-09	4.686839e+01	2.475311e+02
2.810000e-06	5.506656e-06	3.852927e-09	4.643119e+01	2.464026e+02
2.820000e-06	5.453708e-06	3.705508e-09	4.598474e+01	2.452480e+02
2.830000e-06	5.399361e-06	3.650958e-09	4.552650e+01	2.440642e+02
2.840000e-06	5.343718e-06	3.744228e-09	4.505732e+01	2.428484e+02
2.850000e-06	5.287209e-06	3.811023e-09	4.458085e+01	2.415985e+02
2.860000e-06	5.230026e-06	3.725607e-09	4.409869e+01	2.403126e+02
2.870000e-06	5.171891e-06	3.608956e-09	4.360851e+01	2.389898e+02
2.880000e-06	5.112782e-06	3.588206e-09	4.311011e+01	2.376299e+02
2.890000e-06	5.052926e-06	3.670340e-09	4.260541e+01	2.362331e+02
2.900000e-06	4.992352e-06	3.686638e-09	4.209467e+01	2.348002e+02
2.910000e-06	4.930780e-06	3.594789e-09	4.157550e+01	2.333327e+02
2.920000e-06	4.867957e-06	3.506779e-09	4.104579e+01	2.318319e+02
2.930000e-06	4.804079e-06	3.512177e-09	4.050718e+01	2.302994e+02
2.940000e-06	4.739436e-06	3.568513e-09	3.996212e+01	2.287365e+02
