# Temperatura_=_20.0
# Concentracion g/m^3_=_12600.0
# C_Vs_to_Am_M_A/Vsm_=_65563218390.804596
# pendiente_HvsI_1/m_=_3716.3
# ordenada_HvsI_A/m_=_1297.0
# frecuencia_Hz_=_213179.06362864972

Tiempo_(s)	Campo_(V.s)	Magnetizacion_(V.s)	Campo_(kA/m)	Magnetizacion_(A/m)
0.000000e+00	-6.674361e-06	-4.343322e-09	-5.682393e+01	-2.826482e+02
1.000000e-08	-6.674040e-06	-4.341359e-09	-5.682120e+01	-2.826077e+02
2.000000e-08	-6.672478e-06	-4.338345e-09	-5.680790e+01	-2.825216e+02
3.000000e-08	-6.669447e-06	-4.337039e-09	-5.678210e+01	-2.823939e+02
4.000000e-08	-6.665376e-06	-4.338023e-09	-5.674744e+01	-2.822304e+02
5.000000e-08	-6.660387e-06	-4.337242e-09	-5.670497e+01	-2.820389e+02
6.000000e-08	-6.654247e-06	-4.334626e-09	-5.665269e+01	-2.818281e+02
7.000000e-08	-6.647018e-06	-4.332214e-09	-5.659114e+01	-2.816081e+02
8.000000e-08	-6.638858e-06	-4.334740e-09	-5.652167e+01	-2.813891e+02
9.000000e-08	-6.629491e-06	-4.341043e-09	-5.644192e+01	-2.811815e+02
1.000000e-07	-6.618362e-06	-4.330715e-09	-5.634717e+01	-2.809947e+02
1.100000e-07	-6.605455e-06	-4.317975e-09	-5.623728e+01	-2.808369e+02
1.200000e-07	-6.591102e-06	-4.299358e-09	-5.611509e+01	-2.807143e+02
1.300000e-07	-6.575424e-06	-4.293709e-09	-5.598161e+01	-2.806309e+02
1.400000e-07	-6.558544e-06	-4.337192e-09	-5.583790e+01	-2.805879e+02
1.500000e-07	-6.540638e-06	-4.304514e-09	-5.568545e+01	-2.805835e+02
1.600000e-07	-6.521786e-06	-4.260781e-09	-5.552495e+01	-2.806133e+02
1.700000e-07	-6.502112e-06	-4.306262e-09	-5.535744e+01	-2.806698e+02
1.800000e-07	-6.481436e-06	-4.258546e-09	-5.518142e+01	-2.807431e+02
1.900000e-07	-6.459616e-06	-4.256011e-09	-5.499565e+01	-2.808213e+02
2.000000e-07	-6.436891e-06	-4.341943e-09	-5.480217e+01	-2.808908e+02
2.100000e-07	-6.413175e-06	-4.278742e-09	-5.460026e+01	-2.809374e+02
2.200000e-07	-6.388149e-06	-4.245964e-09	-5.438719e+01	-2.809465e+02
2.300000e-07	-6.361706e-06	-4.334600e-09	-5.416207e+01	-2.809044e+02
2.400000e-07	-6.334128e-06	-4.322590e-09	-5.392727e+01	-2.807982e+02
2.500000e-07	-6.305591e-06	-4.286948e-09	-5.368431e+01	-2.806173e+02
2.600000e-07	-6.275937e-06	-4.296028e-09	-5.343184e+01	-2.803530e+02
2.700000e-07	-6.245053e-06	-4.252108e-09	-5.316890e+01	-2.799996e+02
2.800000e-07	-6.213193e-06	-4.238535e-09	-5.289766e+01	-2.795541e+02
2.900000e-07	-6.180486e-06	-4.257471e-09	-5.261920e+01	-2.790165e+02
3.000000e-07	-6.146506e-06	-4.257451e-09	-5.232991e+01	-2.783895e+02
3.100000e-07	-6.111193e-06	-4.243031e-09	-5.202926e+01	-2.776783e+02
3.200000e-07	-6.074739e-06	-4.183139e-09	-5.171890e+01	-2.768901e+02
3.300000e-07	-6.037187e-06	-4.155287e-09	-5.139918e+01	-2.760337e+02
3.400000e-07	-5.998611e-06	-4.214780e-09	-5.107076e+01	-2.751189e+02
3.500000e-07	-5.959105e-06	-4.234968e-09	-5.073441e+01	-2.741558e+02
3.600000e-07	-5.918672e-06	-4.147008e-09	-5.039018e+01	-2.731540e+02
3.700000e-07	-5.876984e-06	-4.077671e-09	-5.003526e+01	-2.721225e+02
3.800000e-07	-5.833961e-06	-4.133322e-09	-4.966897e+01	-2.710692e+02
3.900000e-07	-5.789924e-06	-4.185089e-09	-4.929405e+01	-2.700000e+02
4.000000e-07	-5.744982e-06	-4.124083e-09	-4.891142e+01	-2.689192e+02
4.100000e-07	-5.699020e-06	-4.036731e-09	-4.852011e+01	-2.678290e+02
4.200000e-07	-5.651967e-06	-4.021737e-09	-4.811951e+01	-2.667298e+02
4.300000e-07	-5.603982e-06	-4.078012e-09	-4.771098e+01	-2.656201e+02
4.400000e-07	-5.554970e-06	-4.091346e-09	-4.729370e+01	-2.644972e+02
4.500000e-07	-5.504497e-06	-4.015920e-09	-4.686399e+01	-2.633571e+02
4.600000e-07	-5.452719e-06	-3.947486e-09	-4.642317e+01	-2.621950e+02
4.700000e-07	-5.399944e-06	-3.954965e-09	-4.597385e+01	-2.610061e+02
4.800000e-07	-5.346208e-06	-4.000380e-09	-4.551635e+01	-2.597855e+02
4.900000e-07	-5.291513e-06	-3.984130e-09	-4.505070e+01	-2.585288e+02
5.000000e-07	-5.235952e-06	-3.904326e-09	-4.457766e+01	-2.572325e+02
5.100000e-07	-5.179617e-06	-3.854230e-09	-4.409804e+01	-2.558941e+02
5.200000e-07	-5.122240e-06	-3.871405e-09	-4.360955e+01	-2.545122e+02
5.300000e-07	-5.063634e-06	-3.897134e-09	-4.311059e+01	-2.530865e+02
5.400000e-07	-5.004041e-06	-3.858578e-09	-4.260322e+01	-2.516179e+02
5.500000e-07	-4.943659e-06	-3.787850e-09	-4.208914e+01	-2.501081e+02
5.600000e-07	-4.882462e-06	-3.757133e-09	-4.156813e+01	-2.485596e+02
5.700000e-07	-4.820498e-06	-3.771638e-09	-4.104058e+01	-2.469752e+02
5.800000e-07	-4.757743e-06	-3.777701e-09	-4.050630e+01	-2.453577e+02
5.900000e-07	-4.694179e-06	-3.733390e-09	-3.996513e+01	-2.437101e+02
6.000000e-07	-4.629885e-06	-3.665851e-09	-3.941775e+01	-2.420346e+02
6.100000e-07	-4.564628e-06	-3.634654e-09	-3.886216e+01	-2.403329e+02
6.200000e-07	-4.498169e-06	-3.649576e-09	-3.829635e+01	-2.386058e+02
6.300000e-07	-4.430799e-06	-3.649771e-09	-3.772277e+01	-2.368532e+02
6.400000e-07	-4.362844e-06	-3.591939e-09	-3.714423e+01	-2.350742e+02
6.500000e-07	-4.294267e-06	-3.522797e-09	-3.656037e+01	-2.332671e+02
6.600000e-07	-4.224910e-06	-3.503571e-09	-3.596989e+01	-2.314294e+02
6.700000e-07	-4.154806e-06	-3.518336e-09	-3.537304e+01	-2.295582e+02
6.800000e-07	-4.083987e-06	-3.498187e-09	-3.477010e+01	-2.276504e+02
6.900000e-07	-4.012485e-06	-3.427088e-09	-3.416135e+01	-2.257028e+02
7.000000e-07	-3.940449e-06	-3.371088e-09	-3.354805e+01	-2.237124e+02
7.100000e-07	-3.867777e-06	-3.369137e-09	-3.292934e+01	-2.216767e+02
7.200000e-07	-3.794215e-06	-3.371792e-09	-3.230305e+01	-2.195939e+02
7.300000e-07	-3.719652e-06	-3.328497e-09	-3.166824e+01	-2.174628e+02
7.400000e-07	-3.644226e-06	-3.262926e-09	-3.102608e+01	-2.152830e+02
7.500000e-07	-3.568135e-06	-3.226430e-09	-3.037826e+01	-2.130546e+02
7.600000e-07	-3.491414e-06	-3.217326e-09	-2.972507e+01	-2.107787e+02
7.700000e-07	-3.414043e-06	-3.194588e-09	-2.906636e+01	-2.084567e+02
7.800000e-07	-3.336083e-06	-3.144749e-09	-2.840262e+01	-2.060904e+02
7.900000e-07	-3.257511e-06	-3.090621e-09	-2.773368e+01	-2.036815e+02
8.000000e-07	-3.178173e-06	-3.054249e-09	-2.705821e+01	-2.012319e+02
8.100000e-07	-3.097995e-06	-3.028308e-09	-2.637560e+01	-1.987429e+02
8.200000e-07	-3.017111e-06	-2.996741e-09	-2.568697e+01	-1.962155e+02
8.300000e-07	-2.935781e-06	-2.951255e-09	-2.499454e+01	-1.936500e+02
8.400000e-07	-2.854083e-06	-2.897742e-09	-2.429899e+01	-1.910459e+02
8.500000e-07	-2.771929e-06	-2.855498e-09	-2.359955e+01	-1.884021e+02
8.600000e-07	-2.689274e-06	-2.827035e-09	-2.289584e+01	-1.857167e+02
8.700000e-07	-2.606121e-06	-2.795861e-09	-2.218790e+01	-1.829873e+02
8.800000e-07	-2.522515e-06	-2.744704e-09	-2.147610e+01	-1.802110e+02
8.900000e-07	-2.438610e-06	-2.681349e-09	-2.076175e+01	-1.773847e+02
9.000000e-07	-2.354507e-06	-2.635188e-09	-2.004572e+01	-1.745052e+02
9.100000e-07	-2.270099e-06	-2.607149e-09	-1.932708e+01	-1.715695e+02
9.200000e-07	-2.185252e-06	-2.570149e-09	-1.860472e+01	-1.685748e+02
9.300000e-07	-2.099996e-06	-2.509537e-09	-1.787887e+01	-1.655189e+02
9.400000e-07	-2.014358e-06	-2.448247e-09	-1.714977e+01	-1.624003e+02
9.500000e-07	-1.928323e-06	-2.410971e-09	-1.641729e+01	-1.592181e+02
9.600000e-07	-1.842011e-06	-2.381062e-09	-1.568245e+01	-1.559722e+02
9.700000e-07	-1.755520e-06	-2.330034e-09	-1.494608e+01	-1.526631e+02
9.800000e-07	-1.668719e-06	-2.261473e-09	-1.420708e+01	-1.492919e+02
9.900000e-07	-1.581532e-06	-2.202994e-09	-1.346479e+01	-1.458600e+02
1.000000e-06	-1.494040e-06	-2.161257e-09	-1.271991e+01	-1.423691e+02
1.010000e-06	-1.406327e-06	-2.113665e-09	-1.197314e+01	-1.388212e+02
1.020000e-06	-1.318469e-06	-2.048366e-09	-1.122513e+01	-1.352177e+02
1.030000e-06	-1.230464e-06	-1.980986e-09	-1.047588e+01	-1.315601e+02
1.040000e-06	-1.142310e-06	-1.928073e-09	-9.725356e+00	-1.278493e+02
1.050000e-06	-1.054031e-06	-1.882612e-09	-8.973773e+00	-1.240855e+02
1.060000e-06	-9.656539e-07	-1.826434e-09	-8.221349e+00	-1.202686e+02
1.070000e-06	-8.772046e-07	-1.761318e-09	-7.468313e+00	-1.163976e+02
1.080000e-06	-7.886530e-07	-1.698221e-09	-6.714406e+00	-1.124712e+02
1.090000e-06	-6.998884e-07	-1.639696e-09	-5.958684e+00	-1.084874e+02
1.100000e-06	-6.109572e-07	-1.581815e-09	-5.201545e+00	-1.044441e+02
1.110000e-06	-5.219920e-07	-1.519434e-09	-4.444116e+00	-1.003391e+02
1.120000e-06	-4.329466e-07	-1.453038e-09	-3.686005e+00	-9.616996e+01
1.130000e-06	-3.438108e-07	-1.386986e-09	-2.927124e+00	-9.193469e+01
1.140000e-06	-2.545332e-07	-1.322702e-09	-2.167035e+00	-8.763151e+01
1.150000e-06	-1.650992e-07	-1.258159e-09	-1.405616e+00	-8.325913e+01
1.160000e-06	-7.560397e-08	-1.191304e-09	-6.436743e-01	-7.881674e+01
1.170000e-06	1.391887e-08	-1.119885e-09	1.185020e-01	-7.430407e+01
1.180000e-06	1.033942e-07	-1.044710e-09	8.802741e-01	-6.972130e+01
1.190000e-06	1.927783e-07	-9.736288e-10	1.641269e+00	-6.506902e+01
1.200000e-06	2.822117e-07	-9.083424e-10	2.402684e+00	-6.034805e+01
1.210000e-06	3.716072e-07	-8.388965e-10	3.163776e+00	-5.555933e+01
1.220000e-06	4.608050e-07	-7.591519e-10	3.923185e+00	-5.070373e+01
1.230000e-06	5.498547e-07	-6.784058e-10	4.681333e+00	-4.578190e+01
1.240000e-06	6.387930e-07	-6.063384e-10	5.438533e+00	-4.079410e+01
1.250000e-06	7.276390e-07	-5.370649e-10	6.194947e+00	-3.574014e+01
1.260000e-06	8.164003e-07	-4.602154e-10	6.950640e+00	-3.061931e+01
1.270000e-06	9.050332e-07	-3.765580e-10	7.705239e+00	-2.543044e+01
1.280000e-06	9.935453e-07	-2.966426e-10	8.458810e+00	-2.017190e+01
1.290000e-06	1.081930e-06	-2.208630e-10	9.211294e+00	-1.484185e+01
1.300000e-06	1.170156e-06	-1.395903e-10	9.962429e+00	-9.438400e+00
1.310000e-06	1.258211e-06	-4.905022e-11	1.071211e+01	-3.959895e+00
1.320000e-06	1.346088e-06	4.265872e-11	1.146027e+01	1.594790e+00
1.330000e-06	1.433809e-06	1.285957e-10	1.220711e+01	7.225929e+00
1.340000e-06	1.521297e-06	2.109194e-10	1.295197e+01	1.293264e+01
1.350000e-06	1.608472e-06	2.969812e-10	1.369415e+01	1.871261e+01
1.360000e-06	1.695317e-06	3.871142e-10	1.443353e+01	2.456186e+01
1.370000e-06	1.781862e-06	4.788924e-10	1.517035e+01	3.047461e+01
1.380000e-06	1.868100e-06	5.711327e-10	1.590456e+01	3.644318e+01
1.390000e-06	1.954032e-06	6.616269e-10	1.663617e+01	4.245805e+01
1.400000e-06	2.039630e-06	7.536450e-10	1.736493e+01	4.850794e+01
1.410000e-06	2.124852e-06	8.502122e-10	1.809048e+01	5.458007e+01
1.420000e-06	2.209714e-06	9.468852e-10	1.881298e+01	6.066044e+01
1.430000e-06	2.294242e-06	1.038374e-09	1.953263e+01	6.673417e+01
1.440000e-06	2.378471e-06	1.125039e-09	2.024974e+01	7.278600e+01
1.450000e-06	2.462438e-06	1.212005e-09	2.096462e+01	7.880064e+01
1.460000e-06	2.546108e-06	1.303719e-09	2.167696e+01	8.476326e+01
1.470000e-06	2.629349e-06	1.397182e-09	2.238566e+01	9.065993e+01
1.480000e-06	2.712041e-06	1.485753e-09	2.308968e+01	9.647793e+01
1.490000e-06	2.794191e-06	1.570115e-09	2.378908e+01	1.022061e+02
1.500000e-06	2.875871e-06	1.658126e-09	2.448449e+01	1.078350e+02
1.510000e-06	2.957102e-06	1.748475e-09	2.517607e+01	1.133571e+02
1.520000e-06	3.037855e-06	1.832858e-09	2.586358e+01	1.187668e+02
1.530000e-06	3.118058e-06	1.908890e-09	2.654641e+01	1.240603e+02
1.540000e-06	3.197569e-06	1.984040e-09	2.722335e+01	1.292353e+02
1.550000e-06	3.276374e-06	2.063394e-09	2.789427e+01	1.342914e+02
1.560000e-06	3.354614e-06	2.142655e-09	2.856039e+01	1.392288e+02
1.570000e-06	3.432308e-06	2.215614e-09	2.922186e+01	1.440491e+02
1.580000e-06	3.509342e-06	2.281980e-09	2.987771e+01	1.487541e+02
1.590000e-06	3.585756e-06	2.350043e-09	3.052828e+01	1.533461e+02
1.600000e-06	3.661557e-06	2.422963e-09	3.117364e+01	1.578274e+02
1.610000e-06	3.736604e-06	2.493803e-09	3.181257e+01	1.621999e+02
1.620000e-06	3.810741e-06	2.557605e-09	3.244375e+01	1.664654e+02
1.630000e-06	3.883906e-06	2.614742e-09	3.306666e+01	1.706253e+02
1.640000e-06	3.956280e-06	2.672698e-09	3.368284e+01	1.746805e+02
1.650000e-06	4.028016e-06	2.732823e-09	3.429357e+01	1.786315e+02
1.660000e-06	4.099118e-06	2.789492e-09	3.489892e+01	1.824785e+02
1.670000e-06	4.169522e-06	2.842029e-09	3.549833e+01	1.862219e+02
1.680000e-06	4.239120e-06	2.893117e-09	3.609087e+01	1.898618e+02
1.690000e-06	4.307993e-06	2.947160e-09	3.667723e+01	1.933985e+02
1.700000e-06	4.376284e-06	3.001460e-09	3.725865e+01	1.968331e+02
1.710000e-06	4.443947e-06	3.052032e-09	3.783471e+01	2.001665e+02
1.720000e-06	4.510798e-06	3.098686e-09	3.840387e+01	2.034008e+02
1.730000e-06	4.576658e-06	3.141500e-09	3.896459e+01	2.065381e+02
1.740000e-06	4.641537e-06	3.184957e-09	3.951695e+01	2.095816e+02
1.750000e-06	4.705552e-06	3.228780e-09	4.006196e+01	2.125344e+02
1.760000e-06	4.768853e-06	3.270292e-09	4.060088e+01	2.154004e+02
1.770000e-06	4.831420e-06	3.308933e-09	4.113357e+01	2.181835e+02
1.780000e-06	4.893135e-06	3.345370e-09	4.165900e+01	2.208874e+02
1.790000e-06	4.954047e-06	3.385244e-09	4.217759e+01	2.235158e+02
1.800000e-06	5.014267e-06	3.426168e-09	4.269029e+01	2.260721e+02
1.810000e-06	5.073773e-06	3.463048e-09	4.319691e+01	2.285590e+02
1.820000e-06	5.132269e-06	3.496176e-09	4.369493e+01	2.309787e+02
1.830000e-06	5.189552e-06	3.527077e-09	4.418262e+01	2.333326e+02
1.840000e-06	5.245790e-06	3.560396e-09	4.466142e+01	2.356215e+02
1.850000e-06	5.301219e-06	3.593145e-09	4.513333e+01	2.378456e+02
1.860000e-06	5.355813e-06	3.621909e-09	4.559813e+01	2.400043e+02
1.870000e-06	5.409503e-06	3.648640e-09	4.605523e+01	2.420971e+02
1.880000e-06	5.462254e-06	3.675696e-09	4.650434e+01	2.441228e+02
1.890000e-06	5.513844e-06	3.703917e-09	4.694357e+01	2.460806e+02
1.900000e-06	5.564122e-06	3.732176e-09	4.737162e+01	2.479698e+02
1.910000e-06	5.613115e-06	3.759232e-09	4.778873e+01	2.497899e+02
1.920000e-06	5.660970e-06	3.782266e-09	4.819616e+01	2.515412e+02
1.930000e-06	5.707862e-06	3.804779e-09	4.859539e+01	2.532245e+02
1.940000e-06	5.753798e-06	3.831603e-09	4.898648e+01	2.548412e+02
1.950000e-06	5.798781e-06	3.857892e-09	4.936945e+01	2.563936e+02
1.960000e-06	5.842904e-06	3.878692e-09	4.974511e+01	2.578844e+02
1.970000e-06	5.886098e-06	3.897638e-09	5.011285e+01	2.593168e+02
1.980000e-06	5.928139e-06	3.919470e-09	5.047077e+01	2.606943e+02
1.990000e-06	5.968925e-06	3.942432e-09	5.081802e+01	2.620207e+02
2.000000e-06	6.008637e-06	3.963248e-09	5.115612e+01	2.632992e+02
2.010000e-06	6.047440e-06	3.981063e-09	5.148648e+01	2.645332e+02
2.020000e-06	6.085196e-06	3.998625e-09	5.180792e+01	2.657253e+02
2.030000e-06	6.121931e-06	4.017537e-09	5.212067e+01	2.668775e+02
2.040000e-06	6.157780e-06	4.036470e-09	5.242589e+01	2.679910e+02
2.050000e-06	6.192502e-06	4.051605e-09	5.272150e+01	2.690663e+02
2.060000e-06	6.225857e-06	4.063184e-09	5.300548e+01	2.701033e+02
2.070000e-06	6.258055e-06	4.077549e-09	5.327960e+01	2.711009e+02
2.080000e-06	6.289284e-06	4.094549e-09	5.354548e+01	2.720580e+02
2.090000e-06	6.319513e-06	4.109907e-09	5.380284e+01	2.729728e+02
2.100000e-06	6.348711e-06	4.121427e-09	5.405143e+01	2.738437e+02
2.110000e-06	6.376906e-06	4.132712e-09	5.429148e+01	2.746692e+02
2.120000e-06	6.404038e-06	4.146822e-09	5.452247e+01	2.754483e+02
2.130000e-06	6.429819e-06	4.161885e-09	5.474196e+01	2.761804e+02
2.140000e-06	6.454213e-06	4.174634e-09	5.494964e+01	2.768658e+02
2.150000e-06	6.477468e-06	4.184011e-09	5.514763e+01	2.775056e+02
2.160000e-06	6.499654e-06	4.192840e-09	5.533652e+01	2.781016e+02
2.170000e-06	6.520751e-06	4.202410e-09	5.551614e+01	2.786565e+02
2.180000e-06	6.540876e-06	4.211118e-09	5.568748e+01	2.791734e+02
2.190000e-06	6.560031e-06	4.218115e-09	5.585055e+01	2.796559e+02
2.200000e-06	6.578005e-06	4.224229e-09	5.600358e+01	2.801076e+02
2.210000e-06	6.594737e-06	4.231488e-09	5.614604e+01	2.805322e+02
2.220000e-06	6.610270e-06	4.238830e-09	5.627827e+01	2.809326e+02
2.230000e-06	6.624620e-06	4.245965e-09	5.640045e+01	2.813112e+02
2.240000e-06	6.637773e-06	4.252193e-09	5.651244e+01	2.816695e+02
2.250000e-06	6.649669e-06	4.255571e-09	5.661371e+01	2.820077e+02
2.260000e-06	6.660115e-06	4.258331e-09	5.670265e+01	2.823250e+02
2.270000e-06	6.669091e-06	4.262143e-09	5.677907e+01	2.826196e+02
2.280000e-06	6.676889e-06	4.267249e-09	5.684546e+01	2.828884e+02
2.290000e-06	6.683555e-06	4.271566e-09	5.690221e+01	2.831278e+02
2.300000e-06	6.689058e-06	4.274891e-09	5.694906e+01	2.833335e+02
2.310000e-06	6.693499e-06	4.278396e-09	5.698687e+01	2.835014e+02
2.320000e-06	6.696926e-06	4.281236e-09	5.701605e+01	2.836273e+02
2.330000e-06	6.699118e-06	4.283773e-09	5.703471e+01	2.837080e+02
2.340000e-06	6.699916e-06	4.283337e-09	5.704150e+01	2.837415e+02
2.350000e-06	6.699580e-06	4.280353e-09	5.703864e+01	2.837269e+02
2.360000e-06	6.698214e-06	4.278578e-09	5.702701e+01	2.836655e+02
2.370000e-06	6.695756e-06	4.278914e-09	5.700608e+01	2.835600e+02
2.380000e-06	6.692304e-06	4.278949e-09	5.697670e+01	2.834153e+02
2.390000e-06	6.687888e-06	4.277897e-09	5.693910e+01	2.832381e+02
2.400000e-06	6.682240e-06	4.277271e-09	5.689101e+01	2.830367e+02
2.410000e-06	6.675205e-06	4.276630e-09	5.683112e+01	2.828204e+02
2.420000e-06	6.667123e-06	4.270843e-09	5.676231e+01	2.825995e+02
2.430000e-06	6.658117e-06	4.257275e-09	5.668564e+01	2.823844e+02
2.440000e-06	6.647944e-06	4.260509e-09	5.659902e+01	2.821850e+02
2.450000e-06	6.636066e-06	4.261072e-09	5.649790e+01	2.820102e+02
2.460000e-06	6.622075e-06	4.267181e-09	5.637878e+01	2.818676e+02
2.470000e-06	6.606608e-06	4.259058e-09	5.624710e+01	2.817623e+02
2.480000e-06	6.590620e-06	4.226149e-09	5.611098e+01	2.816970e+02
2.490000e-06	6.574084e-06	4.288877e-09	5.597020e+01	2.816717e+02
2.500000e-06	6.556159e-06	4.309585e-09	5.581759e+01	2.816834e+02
2.510000e-06	6.536904e-06	4.254685e-09	5.565366e+01	2.817262e+02
2.520000e-06	6.516996e-06	4.319339e-09	5.548417e+01	2.817916e+02
2.530000e-06	6.495905e-06	4.295985e-09	5.530460e+01	2.818686e+02
2.540000e-06	6.473177e-06	4.228642e-09	5.511110e+01	2.819446e+02
2.550000e-06	6.449300e-06	4.329182e-09	5.490782e+01	2.820055e+02
2.560000e-06	6.424501e-06	4.339470e-09	5.469668e+01	2.820370e+02
2.570000e-06	6.398797e-06	4.267897e-09	5.447785e+01	2.820246e+02
2.580000e-06	6.372021e-06	4.326744e-09	5.424988e+01	2.819551e+02
2.590000e-06	6.344060e-06	4.335561e-09	5.401183e+01	2.818164e+02
2.600000e-06	6.315179e-06	4.298795e-09	5.376595e+01	2.815988e+02
2.610000e-06	6.285086e-06	4.362618e-09	5.350974e+01	2.812949e+02
2.620000e-06	6.253489e-06	4.366218e-09	5.324073e+01	2.809002e+02
2.630000e-06	6.220825e-06	4.320798e-09	5.296264e+01	2.804130e+02
2.640000e-06	6.187097e-06	4.259666e-09	5.267548e+01	2.798346e+02
2.650000e-06	6.152191e-06	4.234328e-09	5.237830e+01	2.791689e+02
2.660000e-06	6.116373e-06	4.353233e-09	5.207336e+01	2.784220e+02
2.670000e-06	6.079521e-06	4.336316e-09	5.175960e+01	2.776019e+02
2.680000e-06	6.041332e-06	4.172755e-09	5.143447e+01	2.767180e+02
2.690000e-06	6.001848e-06	4.158381e-09	5.109832e+01	2.757801e+02
2.700000e-06	5.961294e-06	4.254908e-09	5.075305e+01	2.747983e+02
2.710000e-06	5.919912e-06	4.302046e-09	5.040073e+01	2.737821e+02
2.720000e-06	5.877602e-06	4.176567e-09	5.004052e+01	2.727399e+02
2.730000e-06	5.834266e-06	4.073428e-09	4.967157e+01	2.716788e+02
2.740000e-06	5.790047e-06	4.153425e-09	4.929509e+01	2.706039e+02
2.750000e-06	5.744862e-06	4.210064e-09	4.891040e+01	2.695186e+02
2.760000e-06	5.698619e-06	4.173152e-09	4.851669e+01	2.684243e+02
2.770000e-06	5.651245e-06	4.069767e-09	4.811337e+01	2.673206e+02
2.780000e-06	5.602781e-06	4.027655e-09	4.770075e+01	2.662054e+02
2.790000e-06	5.553327e-06	4.093496e-09	4.727972e+01	2.650752e+02
2.800000e-06	5.502880e-06	4.107838e-09	4.685022e+01	2.639258e+02
2.810000e-06	5.451470e-06	4.061059e-09	4.641253e+01	2.627522e+02
2.820000e-06	5.398987e-06	3.978383e-09	4.596571e+01	2.615495e+02
2.830000e-06	5.345288e-06	3.953239e-09	4.550852e+01	2.603131e+02
2.840000e-06	5.290327e-06	4.004981e-09	4.504060e+01	2.590389e+02
2.850000e-06	5.234369e-06	4.002119e-09	4.456418e+01	2.577239e+02
2.860000e-06	5.177627e-06	3.941483e-09	4.408109e+01	2.563659e+02
2.870000e-06	5.119986e-06	3.869937e-09	4.359036e+01	2.549642e+02
2.880000e-06	5.061371e-06	3.867445e-09	4.309132e+01	2.535190e+02
2.890000e-06	5.001870e-06	3.900314e-09	4.258474e+01	2.520316e+02
2.900000e-06	4.941758e-06	3.877821e-09	4.207296e+01	2.505040e+02
2.910000e-06	4.880876e-06	3.814515e-09	4.155463e+01	2.489389e+02
2.920000e-06	4.818793e-06	3.754639e-09	4.102607e+01	2.473392e+02
2.930000e-06	4.755540e-06	3.760774e-09	4.048754e+01	2.457078e+02
2.940000e-06	4.691487e-06	3.789258e-09	3.994221e+01	2.440473e+02
