# Temperatura_=_20.0
# Concentracion g/m^3_=_12600.0
# C_Vs_to_Am_M_A/Vsm_=_65563218390.804596
# pendiente_HvsI_1/m_=_3716.3
# ordenada_HvsI_A/m_=_1297.0
# frecuencia_Hz_=_213171.5658396694

Tiempo_(s)	Campo_(V.s)	Magnetizacion_(V.s)	Campo_(kA/m)	Magnetizacion_(A/m)
0.000000e+00	-6.784431e-06	-4.071948e-09	-5.682948e+01	-2.633816e+02
1.000000e-08	-6.783814e-06	-4.072269e-09	-5.682431e+01	-2.633497e+02
2.000000e-08	-6.781808e-06	-4.072916e-09	-5.680751e+01	-2.632836e+02
3.000000e-08	-6.778507e-06	-4.074500e-09	-5.677986e+01	-2.631854e+02
4.000000e-08	-6.774189e-06	-4.075449e-09	-5.674368e+01	-2.630584e+02
5.000000e-08	-6.768841e-06	-4.073012e-09	-5.669889e+01	-2.629074e+02
6.000000e-08	-6.762347e-06	-4.068837e-09	-5.664450e+01	-2.627379e+02
7.000000e-08	-6.754850e-06	-4.063462e-09	-5.658169e+01	-2.625566e+02
8.000000e-08	-6.746350e-06	-4.058904e-09	-5.651049e+01	-2.623705e+02
9.000000e-08	-6.736387e-06	-4.081640e-09	-5.642704e+01	-2.621866e+02
1.000000e-07	-6.724676e-06	-4.096822e-09	-5.632895e+01	-2.620120e+02
1.100000e-07	-6.711334e-06	-4.086481e-09	-5.621719e+01	-2.618526e+02
1.200000e-07	-6.696440e-06	-4.063355e-09	-5.609242e+01	-2.617138e+02
1.300000e-07	-6.680193e-06	-4.000556e-09	-5.595634e+01	-2.615989e+02
1.400000e-07	-6.662947e-06	-4.033324e-09	-5.581187e+01	-2.615099e+02
1.500000e-07	-6.644705e-06	-4.096004e-09	-5.565907e+01	-2.614466e+02
1.600000e-07	-6.625522e-06	-4.020763e-09	-5.549838e+01	-2.614069e+02
1.700000e-07	-6.605551e-06	-4.019992e-09	-5.533110e+01	-2.613864e+02
1.800000e-07	-6.584389e-06	-4.009185e-09	-5.515383e+01	-2.613788e+02
1.900000e-07	-6.562000e-06	-3.955646e-09	-5.496630e+01	-2.613763e+02
2.000000e-07	-6.538800e-06	-4.059969e-09	-5.477196e+01	-2.613695e+02
2.100000e-07	-6.514562e-06	-4.052440e-09	-5.456894e+01	-2.613481e+02
2.200000e-07	-6.488791e-06	-3.905773e-09	-5.435307e+01	-2.613013e+02
2.300000e-07	-6.461576e-06	-3.933837e-09	-5.412510e+01	-2.612184e+02
2.400000e-07	-6.433327e-06	-4.006713e-09	-5.388847e+01	-2.610891e+02
2.500000e-07	-6.404129e-06	-4.000246e-09	-5.364390e+01	-2.609041e+02
2.600000e-07	-6.373840e-06	-3.961726e-09	-5.339018e+01	-2.606555e+02
2.700000e-07	-6.342421e-06	-3.864781e-09	-5.312700e+01	-2.603372e+02
2.800000e-07	-6.309998e-06	-3.873073e-09	-5.285541e+01	-2.599448e+02
2.900000e-07	-6.276471e-06	-3.951291e-09	-5.257458e+01	-2.594763e+02
3.000000e-07	-6.241672e-06	-3.938975e-09	-5.228308e+01	-2.589315e+02
3.100000e-07	-6.205643e-06	-3.891465e-09	-5.198129e+01	-2.583124e+02
3.200000e-07	-6.168447e-06	-3.825219e-09	-5.166972e+01	-2.576227e+02
3.300000e-07	-6.130148e-06	-3.810427e-09	-5.134891e+01	-2.568674e+02
3.400000e-07	-6.090872e-06	-3.899037e-09	-5.101991e+01	-2.560528e+02
3.500000e-07	-6.050620e-06	-3.927301e-09	-5.068274e+01	-2.551858e+02
3.600000e-07	-6.009154e-06	-3.815726e-09	-5.033541e+01	-2.542736e+02
3.700000e-07	-5.966332e-06	-3.722425e-09	-4.997671e+01	-2.533231e+02
3.800000e-07	-5.922409e-06	-3.795671e-09	-4.960879e+01	-2.523410e+02
3.900000e-07	-5.877565e-06	-3.882070e-09	-4.923315e+01	-2.513327e+02
4.000000e-07	-5.831638e-06	-3.812007e-09	-4.884845e+01	-2.503030e+02
4.100000e-07	-5.784621e-06	-3.690165e-09	-4.845461e+01	-2.492551e+02
4.200000e-07	-5.736701e-06	-3.673339e-09	-4.805322e+01	-2.481909e+02
4.300000e-07	-5.687678e-06	-3.772326e-09	-4.764258e+01	-2.471113e+02
4.400000e-07	-5.637228e-06	-3.805022e-09	-4.721999e+01	-2.460156e+02
4.500000e-07	-5.585431e-06	-3.692358e-09	-4.678611e+01	-2.449025e+02
4.600000e-07	-5.532514e-06	-3.600073e-09	-4.634286e+01	-2.437696e+02
4.700000e-07	-5.478628e-06	-3.632754e-09	-4.589148e+01	-2.426141e+02
4.800000e-07	-5.423855e-06	-3.709796e-09	-4.543268e+01	-2.414331e+02
4.900000e-07	-5.368247e-06	-3.685441e-09	-4.496688e+01	-2.402235e+02
5.000000e-07	-5.311752e-06	-3.570668e-09	-4.449365e+01	-2.389826e+02
5.100000e-07	-5.254102e-06	-3.515406e-09	-4.401075e+01	-2.377082e+02
5.200000e-07	-5.195239e-06	-3.567077e-09	-4.351769e+01	-2.363986e+02
5.300000e-07	-5.135468e-06	-3.612366e-09	-4.301701e+01	-2.350530e+02
5.400000e-07	-5.074918e-06	-3.551460e-09	-4.250982e+01	-2.336710e+02
5.500000e-07	-5.013493e-06	-3.459601e-09	-4.199530e+01	-2.322531e+02
5.600000e-07	-4.951169e-06	-3.444981e-09	-4.147324e+01	-2.308004e+02
5.700000e-07	-4.888069e-06	-3.485154e-09	-4.094469e+01	-2.293142e+02
5.800000e-07	-4.824226e-06	-3.488153e-09	-4.040991e+01	-2.277962e+02
5.900000e-07	-4.759489e-06	-3.427004e-09	-3.986765e+01	-2.262482e+02
6.000000e-07	-4.693633e-06	-3.363229e-09	-3.931600e+01	-2.246717e+02
6.100000e-07	-4.626776e-06	-3.346484e-09	-3.875598e+01	-2.230680e+02
6.200000e-07	-4.559208e-06	-3.360723e-09	-3.819000e+01	-2.214381e+02
6.300000e-07	-4.490935e-06	-3.353512e-09	-3.761812e+01	-2.197823e+02
6.400000e-07	-4.421916e-06	-3.300229e-09	-3.703998e+01	-2.181004e+02
6.500000e-07	-4.352188e-06	-3.239562e-09	-3.645591e+01	-2.163916e+02
6.600000e-07	-4.281705e-06	-3.219065e-09	-3.586551e+01	-2.146545e+02
6.700000e-07	-4.210444e-06	-3.232822e-09	-3.526859e+01	-2.128875e+02
6.800000e-07	-4.138548e-06	-3.225531e-09	-3.466636e+01	-2.110885e+02
6.900000e-07	-4.065956e-06	-3.165764e-09	-3.405830e+01	-2.092552e+02
7.000000e-07	-3.992342e-06	-3.098785e-09	-3.344168e+01	-2.073853e+02
7.100000e-07	-3.917708e-06	-3.085502e-09	-3.281651e+01	-2.054768e+02
7.200000e-07	-3.842277e-06	-3.104589e-09	-3.218466e+01	-2.035275e+02
7.300000e-07	-3.766201e-06	-3.082426e-09	-3.154741e+01	-2.015361e+02
7.400000e-07	-3.689496e-06	-3.006051e-09	-3.090490e+01	-1.995012e+02
7.500000e-07	-3.612106e-06	-2.945076e-09	-3.025664e+01	-1.974223e+02
7.600000e-07	-3.533978e-06	-2.941022e-09	-2.960221e+01	-1.952989e+02
7.700000e-07	-3.455046e-06	-2.947899e-09	-2.894104e+01	-1.931312e+02
7.800000e-07	-3.375382e-06	-2.905280e-09	-2.827374e+01	-1.909195e+02
7.900000e-07	-3.295020e-06	-2.826997e-09	-2.760059e+01	-1.886644e+02
8.000000e-07	-3.214092e-06	-2.780342e-09	-2.692269e+01	-1.863667e+02
8.100000e-07	-3.132695e-06	-2.778722e-09	-2.624088e+01	-1.840270e+02
8.200000e-07	-3.050751e-06	-2.768275e-09	-2.555448e+01	-1.816456e+02
8.300000e-07	-2.968258e-06	-2.711368e-09	-2.486348e+01	-1.792230e+02
8.400000e-07	-2.885251e-06	-2.640522e-09	-2.416817e+01	-1.767590e+02
8.500000e-07	-2.801831e-06	-2.604582e-09	-2.346941e+01	-1.742533e+02
8.600000e-07	-2.718105e-06	-2.596077e-09	-2.276809e+01	-1.717049e+02
8.700000e-07	-2.634016e-06	-2.570713e-09	-2.206371e+01	-1.691129e+02
8.800000e-07	-2.549492e-06	-2.511484e-09	-2.135571e+01	-1.664757e+02
8.900000e-07	-2.464526e-06	-2.446926e-09	-2.064399e+01	-1.637919e+02
9.000000e-07	-2.379108e-06	-2.409360e-09	-1.992849e+01	-1.610597e+02
9.100000e-07	-2.293284e-06	-2.390873e-09	-1.920959e+01	-1.582773e+02
9.200000e-07	-2.207117e-06	-2.358733e-09	-1.848782e+01	-1.554434e+02
9.300000e-07	-2.120585e-06	-2.297025e-09	-1.776298e+01	-1.525563e+02
9.400000e-07	-2.033663e-06	-2.230399e-09	-1.703489e+01	-1.496152e+02
9.500000e-07	-1.946409e-06	-2.188990e-09	-1.630401e+01	-1.466192e+02
9.600000e-07	-1.858935e-06	-2.164562e-09	-1.557128e+01	-1.435679e+02
9.700000e-07	-1.771311e-06	-2.126161e-09	-1.483731e+01	-1.404612e+02
9.800000e-07	-1.683483e-06	-2.058994e-09	-1.410162e+01	-1.372994e+02
9.900000e-07	-1.595336e-06	-1.990370e-09	-1.336326e+01	-1.340830e+02
1.000000e-06	-1.506761e-06	-1.950481e-09	-1.262132e+01	-1.308125e+02
1.010000e-06	-1.417812e-06	-1.925934e-09	-1.187624e+01	-1.274885e+02
1.020000e-06	-1.328683e-06	-1.880345e-09	-1.112965e+01	-1.241117e+02
1.030000e-06	-1.239217e-06	-1.804145e-09	-1.038025e+01	-1.206824e+02
1.040000e-06	-1.149234e-06	-1.735353e-09	-9.626505e+00	-1.172008e+02
1.050000e-06	-1.058900e-06	-1.697223e-09	-8.869831e+00	-1.136667e+02
1.060000e-06	-9.683982e-07	-1.662427e-09	-8.111744e+00	-1.100797e+02
1.070000e-06	-8.777883e-07	-1.598936e-09	-7.352754e+00	-1.064389e+02
1.080000e-06	-7.869524e-07	-1.516840e-09	-6.591871e+00	-1.027430e+02
1.090000e-06	-6.958894e-07	-1.456269e-09	-5.829086e+00	-9.899067e+01
1.100000e-06	-6.047270e-07	-1.422520e-09	-5.065468e+00	-9.518016e+01
1.110000e-06	-5.135268e-07	-1.380482e-09	-4.301534e+00	-9.130966e+01
1.120000e-06	-4.222570e-07	-1.310056e-09	-3.537016e+00	-8.737730e+01
1.130000e-06	-3.309049e-07	-1.230841e-09	-2.771810e+00	-8.338127e+01
1.140000e-06	-2.395812e-07	-1.172068e-09	-2.006841e+00	-7.931987e+01
1.150000e-06	-1.482575e-07	-1.126203e-09	-1.241872e+00	-7.519159e+01
1.160000e-06	-5.689098e-08	-1.065811e-09	-4.765447e-01	-7.099515e+01
1.170000e-06	3.450419e-08	-9.854760e-10	2.890228e-01	-6.672948e+01
1.180000e-06	1.259104e-07	-9.057855e-10	1.054683e+00	-6.239377e+01
1.190000e-06	2.173185e-07	-8.482959e-10	1.820359e+00	-5.798734e+01
1.200000e-06	3.087240e-07	-7.972367e-10	2.586012e+00	-5.350967e+01
1.210000e-06	4.000682e-07	-7.311025e-10	3.351153e+00	-4.896028e+01
1.220000e-06	4.912727e-07	-6.501187e-10	4.115124e+00	-4.433867e+01
1.230000e-06	5.824120e-07	-5.689279e-10	4.878548e+00	-3.964427e+01
1.240000e-06	6.735397e-07	-5.019668e-10	5.641875e+00	-3.487642e+01
1.250000e-06	7.646107e-07	-4.399936e-10	6.404727e+00	-3.003429e+01
1.260000e-06	8.555948e-07	-3.674019e-10	7.166851e+00	-2.511698e+01
1.270000e-06	9.463864e-07	-2.802366e-10	7.927363e+00	-2.012356e+01
1.280000e-06	1.036837e-06	-1.963793e-10	8.685015e+00	-1.505315e+01
1.290000e-06	1.126925e-06	-1.290069e-10	9.439637e+00	-9.905110e+00
1.300000e-06	1.216767e-06	-6.160228e-11	1.019220e+01	-4.679186e+00
1.310000e-06	1.306255e-06	2.288592e-11	1.094178e+01	6.242522e-01
1.320000e-06	1.395306e-06	1.181217e-10	1.168772e+01	6.004007e+00
1.330000e-06	1.483963e-06	2.038552e-10	1.243035e+01	1.145783e+01
1.340000e-06	1.572271e-06	2.753981e-10	1.317006e+01	1.698222e+01
1.350000e-06	1.660284e-06	3.507694e-10	1.390729e+01	2.257226e+01
1.360000e-06	1.748032e-06	4.438326e-10	1.464231e+01	2.822149e+01
1.370000e-06	1.835635e-06	5.442189e-10	1.537611e+01	3.392185e+01
1.380000e-06	1.923078e-06	6.322863e-10	1.610858e+01	3.966371e+01
1.390000e-06	2.010259e-06	7.106053e-10	1.683885e+01	4.543593e+01
1.400000e-06	2.097095e-06	7.972833e-10	1.756622e+01	5.122604e+01
1.410000e-06	2.183464e-06	8.938266e-10	1.828968e+01	5.702048e+01
1.420000e-06	2.269451e-06	9.882384e-10	1.900995e+01	6.280487e+01
1.430000e-06	2.355186e-06	1.071377e-09	1.972811e+01	6.856442e+01
1.440000e-06	2.440531e-06	1.148938e-09	2.044299e+01	7.428424e+01
1.450000e-06	2.525443e-06	1.233087e-09	2.115426e+01	7.994978e+01
1.460000e-06	2.609913e-06	1.323814e-09	2.186182e+01	8.554720e+01
1.470000e-06	2.693950e-06	1.412457e-09	2.256575e+01	9.106375e+01
1.480000e-06	2.777619e-06	1.491743e-09	2.326660e+01	9.648806e+01
1.490000e-06	2.860924e-06	1.566425e-09	2.396440e+01	1.018104e+02
1.500000e-06	2.943896e-06	1.647235e-09	2.465941e+01	1.070229e+02
1.510000e-06	3.026317e-06	1.731181e-09	2.534981e+01	1.121195e+02
1.520000e-06	3.108079e-06	1.809295e-09	2.603468e+01	1.170961e+02
1.530000e-06	3.189276e-06	1.878834e-09	2.671483e+01	1.219506e+02
1.540000e-06	3.269889e-06	1.946151e-09	2.739008e+01	1.266823e+02
1.550000e-06	3.350003e-06	2.018947e-09	2.806115e+01	1.312920e+02
1.560000e-06	3.429554e-06	2.094334e-09	2.872750e+01	1.357819e+02
1.570000e-06	3.508309e-06	2.162726e-09	2.938719e+01	1.401550e+02
1.580000e-06	3.586311e-06	2.219877e-09	3.004057e+01	1.444148e+02
1.590000e-06	3.663749e-06	2.277686e-09	3.068923e+01	1.485650e+02
1.600000e-06	3.740585e-06	2.344711e-09	3.133284e+01	1.526095e+02
1.610000e-06	3.816726e-06	2.412039e-09	3.197064e+01	1.565520e+02
1.620000e-06	3.892233e-06	2.468907e-09	3.260312e+01	1.603955e+02
1.630000e-06	3.966966e-06	2.516194e-09	3.322911e+01	1.641428e+02
1.640000e-06	4.040613e-06	2.566438e-09	3.384601e+01	1.677959e+02
1.650000e-06	4.113184e-06	2.623761e-09	3.445390e+01	1.713562e+02
1.660000e-06	4.184997e-06	2.679473e-09	3.505544e+01	1.748248e+02
1.670000e-06	4.256231e-06	2.726232e-09	3.565213e+01	1.782022e+02
1.680000e-06	4.326816e-06	2.767074e-09	3.624338e+01	1.814887e+02
1.690000e-06	4.396625e-06	2.813864e-09	3.682813e+01	1.846845e+02
1.700000e-06	4.465660e-06	2.866147e-09	3.740640e+01	1.877897e+02
1.710000e-06	4.533989e-06	2.912572e-09	3.797875e+01	1.908049e+02
1.720000e-06	4.601675e-06	2.950540e-09	3.854572e+01	1.937307e+02
1.730000e-06	4.668629e-06	2.986171e-09	3.910656e+01	1.965682e+02
1.740000e-06	4.734574e-06	3.025997e-09	3.965894e+01	1.993191e+02
1.750000e-06	4.799364e-06	3.068769e-09	4.020166e+01	2.019854e+02
1.760000e-06	4.863261e-06	3.107500e-09	4.073689e+01	2.045694e+02
1.770000e-06	4.926513e-06	3.140160e-09	4.126671e+01	2.070739e+02
1.780000e-06	4.989021e-06	3.171264e-09	4.179031e+01	2.095020e+02
1.790000e-06	5.050648e-06	3.206228e-09	4.230653e+01	2.118566e+02
1.800000e-06	5.111420e-06	3.243109e-09	4.281558e+01	2.141407e+02
1.810000e-06	5.171479e-06	3.275136e-09	4.331866e+01	2.163571e+02
1.820000e-06	5.230785e-06	3.301683e-09	4.381543e+01	2.185084e+02
1.830000e-06	5.289107e-06	3.328026e-09	4.430397e+01	2.205967e+02
1.840000e-06	5.346166e-06	3.359646e-09	4.478192e+01	2.226235e+02
1.850000e-06	5.402099e-06	3.392296e-09	4.525044e+01	2.245902e+02
1.860000e-06	5.457175e-06	3.419330e-09	4.571178e+01	2.264974e+02
1.870000e-06	5.511383e-06	3.441870e-09	4.616585e+01	2.283455e+02
1.880000e-06	5.564648e-06	3.466063e-09	4.661203e+01	2.301347e+02
1.890000e-06	5.616842e-06	3.493294e-09	4.704923e+01	2.318649e+02
1.900000e-06	5.667866e-06	3.519441e-09	4.747663e+01	2.335359e+02
1.910000e-06	5.717523e-06	3.541775e-09	4.789258e+01	2.351478e+02
1.920000e-06	5.765900e-06	3.560588e-09	4.829781e+01	2.367007e+02
1.930000e-06	5.813269e-06	3.581160e-09	4.869459e+01	2.381952e+02
1.940000e-06	5.859676e-06	3.605338e-09	4.908331e+01	2.396321e+02
1.950000e-06	5.905124e-06	3.626851e-09	4.946401e+01	2.410128e+02
1.960000e-06	5.949627e-06	3.642770e-09	4.983678e+01	2.423389e+02
1.970000e-06	5.993311e-06	3.658610e-09	5.020270e+01	2.436125e+02
1.980000e-06	6.035967e-06	3.678131e-09	5.056000e+01	2.448358e+02
1.990000e-06	6.077238e-06	3.699442e-09	5.090571e+01	2.460115e+02
2.000000e-06	6.117307e-06	3.718199e-09	5.124134e+01	2.471419e+02
2.010000e-06	6.156323e-06	3.733127e-09	5.156816e+01	2.482294e+02
2.020000e-06	6.194301e-06	3.746849e-09	5.188628e+01	2.492762e+02
2.030000e-06	6.231296e-06	3.761560e-09	5.219617e+01	2.502841e+02
2.040000e-06	6.267351e-06	3.777892e-09	5.249818e+01	2.512544e+02
2.050000e-06	6.302412e-06	3.792057e-09	5.279187e+01	2.521881e+02
2.060000e-06	6.336190e-06	3.803954e-09	5.307481e+01	2.530853e+02
2.070000e-06	6.368644e-06	3.816718e-09	5.334666e+01	2.539462e+02
2.080000e-06	6.399981e-06	3.830781e-09	5.360915e+01	2.547702e+02
2.090000e-06	6.430301e-06	3.844237e-09	5.386312e+01	2.555565e+02
2.100000e-06	6.459604e-06	3.854335e-09	5.410858e+01	2.563042e+02
2.110000e-06	6.487916e-06	3.862345e-09	5.434574e+01	2.570126e+02
2.120000e-06	6.515254e-06	3.871361e-09	5.457473e+01	2.576808e+02
2.130000e-06	6.541294e-06	3.883657e-09	5.479285e+01	2.583085e+02
2.140000e-06	6.565849e-06	3.895696e-09	5.499854e+01	2.588958e+02
2.150000e-06	6.589211e-06	3.904291e-09	5.519423e+01	2.594431e+02
2.160000e-06	6.611541e-06	3.911818e-09	5.538128e+01	2.599515e+02
2.170000e-06	6.632757e-06	3.920473e-09	5.555899e+01	2.604227e+02
2.180000e-06	6.652971e-06	3.928701e-09	5.572831e+01	2.608588e+02
2.190000e-06	6.672211e-06	3.934720e-09	5.588948e+01	2.612622e+02
2.200000e-06	6.690219e-06	3.938575e-09	5.604032e+01	2.616356e+02
2.210000e-06	6.706961e-06	3.942338e-09	5.618055e+01	2.619817e+02
2.220000e-06	6.722454e-06	3.948360e-09	5.631034e+01	2.623030e+02
2.230000e-06	6.736662e-06	3.956170e-09	5.642935e+01	2.626016e+02
2.240000e-06	6.749622e-06	3.963211e-09	5.653790e+01	2.628794e+02
2.250000e-06	6.761323e-06	3.966244e-09	5.663592e+01	2.631371e+02
2.260000e-06	6.771615e-06	3.967830e-09	5.672213e+01	2.633753e+02
2.270000e-06	6.780438e-06	3.973492e-09	5.679603e+01	2.635933e+02
2.280000e-06	6.788042e-06	3.980364e-09	5.685973e+01	2.637900e+02
2.290000e-06	6.794526e-06	3.984028e-09	5.691404e+01	2.639634e+02
2.300000e-06	6.799825e-06	3.985219e-09	5.695843e+01	2.641115e+02
2.310000e-06	6.804056e-06	3.985258e-09	5.699386e+01	2.642315e+02
2.320000e-06	6.807278e-06	3.987571e-09	5.702086e+01	2.643211e+02
2.330000e-06	6.809215e-06	3.990050e-09	5.703708e+01	2.643779e+02
2.340000e-06	6.809742e-06	3.990062e-09	5.704150e+01	2.644005e+02
2.350000e-06	6.809111e-06	3.988439e-09	5.703621e+01	2.643879e+02
2.360000e-06	6.807432e-06	3.984903e-09	5.702215e+01	2.643404e+02
2.370000e-06	6.804651e-06	3.983549e-09	5.699885e+01	2.642594e+02
2.380000e-06	6.800850e-06	3.982928e-09	5.696702e+01	2.641477e+02
2.390000e-06	6.796104e-06	3.981929e-09	5.692726e+01	2.640092e+02
2.400000e-06	6.790086e-06	3.979932e-09	5.687685e+01	2.638491e+02
2.410000e-06	6.782708e-06	3.979222e-09	5.681505e+01	2.636734e+02
2.420000e-06	6.774258e-06	3.981880e-09	5.674427e+01	2.634890e+02
2.430000e-06	6.764785e-06	3.947990e-09	5.666492e+01	2.633030e+02
2.440000e-06	6.754061e-06	3.926182e-09	5.657509e+01	2.631224e+02
2.450000e-06	6.741496e-06	3.928047e-09	5.646984e+01	2.629538e+02
2.460000e-06	6.726886e-06	3.954954e-09	5.634746e+01	2.628031e+02
2.470000e-06	6.711043e-06	4.028252e-09	5.621475e+01	2.626747e+02
2.480000e-06	6.694785e-06	3.981863e-09	5.607857e+01	2.625713e+02
2.490000e-06	6.677798e-06	3.938538e-09	5.593627e+01	2.624940e+02
2.500000e-06	6.659336e-06	3.999009e-09	5.578162e+01	2.624416e+02
2.510000e-06	6.639703e-06	3.962959e-09	5.561717e+01	2.624111e+02
2.520000e-06	6.619378e-06	4.002406e-09	5.544692e+01	2.623973e+02
2.530000e-06	6.597676e-06	4.026320e-09	5.526513e+01	2.623930e+02
2.540000e-06	6.574339e-06	3.888467e-09	5.506966e+01	2.623897e+02
2.550000e-06	6.549921e-06	3.952692e-09	5.486512e+01	2.623776e+02
2.560000e-06	6.524594e-06	4.087408e-09	5.465296e+01	2.623461e+02
2.570000e-06	6.498309e-06	4.016916e-09	5.443279e+01	2.622843e+02
2.580000e-06	6.470824e-06	3.994609e-09	5.420257e+01	2.621817e+02
2.590000e-06	6.442048e-06	3.995998e-09	5.396153e+01	2.620284e+02
2.600000e-06	6.412183e-06	4.005133e-09	5.371136e+01	2.618156e+02
2.610000e-06	6.381059e-06	4.133203e-09	5.345065e+01	2.615362e+02
2.620000e-06	6.348569e-06	4.079371e-09	5.317850e+01	2.611849e+02
2.630000e-06	6.315042e-06	3.984431e-09	5.289767e+01	2.607584e+02
2.640000e-06	6.280466e-06	3.985967e-09	5.260804e+01	2.602554e+02
2.650000e-06	6.244837e-06	3.966325e-09	5.230959e+01	2.596768e+02
2.660000e-06	6.208235e-06	4.092835e-09	5.200300e+01	2.590253e+02
2.670000e-06	6.170416e-06	4.083092e-09	5.168621e+01	2.583053e+02
2.680000e-06	6.131256e-06	3.873013e-09	5.135818e+01	2.575225e+02
2.690000e-06	6.090850e-06	3.852700e-09	5.101973e+01	2.566834e+02
2.700000e-06	6.049474e-06	3.977053e-09	5.067314e+01	2.557951e+02
2.710000e-06	6.007254e-06	4.066281e-09	5.031949e+01	2.548647e+02
2.720000e-06	5.964074e-06	3.911652e-09	4.995779e+01	2.538992e+02
2.730000e-06	5.919908e-06	3.744869e-09	4.958784e+01	2.529046e+02
2.740000e-06	5.874683e-06	3.855603e-09	4.920902e+01	2.518862e+02
2.750000e-06	5.828461e-06	3.964572e-09	4.882184e+01	2.508479e+02
2.760000e-06	5.781156e-06	3.926852e-09	4.842560e+01	2.497924e+02
2.770000e-06	5.732650e-06	3.756915e-09	4.801928e+01	2.487213e+02
2.780000e-06	5.683101e-06	3.702145e-09	4.760423e+01	2.476345e+02
2.790000e-06	5.632573e-06	3.836331e-09	4.718099e+01	2.465312e+02
2.800000e-06	5.581083e-06	3.866040e-09	4.674969e+01	2.454094e+02
2.810000e-06	5.528518e-06	3.782089e-09	4.630938e+01	2.442667e+02
2.820000e-06	5.474664e-06	3.661178e-09	4.585827e+01	2.431000e+02
2.830000e-06	5.419542e-06	3.660322e-09	4.539655e+01	2.419065e+02
2.840000e-06	5.363374e-06	3.757170e-09	4.492606e+01	2.406831e+02
2.850000e-06	5.306310e-06	3.747405e-09	4.444807e+01	2.394273e+02
2.860000e-06	5.248400e-06	3.655534e-09	4.396299e+01	2.381372e+02
2.870000e-06	5.189628e-06	3.573817e-09	4.347069e+01	2.368114e+02
2.880000e-06	5.130039e-06	3.603398e-09	4.297154e+01	2.354493e+02
2.890000e-06	5.069623e-06	3.648433e-09	4.246547e+01	2.340510e+02
2.900000e-06	5.008203e-06	3.609540e-09	4.195098e+01	2.326173e+02
2.910000e-06	4.945644e-06	3.539876e-09	4.142696e+01	2.311492e+02
2.920000e-06	4.882098e-06	3.495219e-09	4.089468e+01	2.296485e+02
2.930000e-06	4.817715e-06	3.508945e-09	4.035537e+01	2.281167e+02
2.940000e-06	4.752513e-06	3.516735e-09	3.980921e+01	2.265556e+02
