# Temperatura_=_20.0
# Concentracion g/m^3_=_9000.0
# C_Vs_to_Am_M_A/Vsm_=_65563218390.804596
# pendiente_HvsI_1/m_=_3716.3
# ordenada_HvsI_A/m_=_1297.0
# frecuencia_Hz_=_212866.3389688271

Tiempo_(s)	Campo_(V.s)	Magnetizacion_(V.s)	Campo_(kA/m)	Magnetizacion_(A/m)
0.000000e+00	-3.956177e-06	-3.589721e-09	-5.697921e+01	-2.316184e+02
1.000000e-08	-3.955875e-06	-3.590191e-09	-5.697485e+01	-2.314916e+02
2.000000e-08	-3.954710e-06	-3.590454e-09	-5.695808e+01	-2.313923e+02
3.000000e-08	-3.952530e-06	-3.592381e-09	-5.692668e+01	-2.313385e+02
4.000000e-08	-3.949570e-06	-3.592816e-09	-5.688406e+01	-2.313449e+02
5.000000e-08	-3.946067e-06	-3.592139e-09	-5.683360e+01	-2.314216e+02
6.000000e-08	-3.942086e-06	-3.595956e-09	-5.677627e+01	-2.315725e+02
7.000000e-08	-3.937510e-06	-3.605590e-09	-5.671036e+01	-2.317949e+02
8.000000e-08	-3.932139e-06	-3.591099e-09	-5.663300e+01	-2.320787e+02
9.000000e-08	-3.925869e-06	-3.539175e-09	-5.654270e+01	-2.324067e+02
1.000000e-07	-3.918826e-06	-3.521074e-09	-5.644126e+01	-2.327551e+02
1.100000e-07	-3.911355e-06	-3.630727e-09	-5.633366e+01	-2.330945e+02
1.200000e-07	-3.903479e-06	-3.672071e-09	-5.622022e+01	-2.333913e+02
1.300000e-07	-3.894792e-06	-3.565309e-09	-5.609511e+01	-2.336095e+02
1.400000e-07	-3.885203e-06	-3.491055e-09	-5.595701e+01	-2.337130e+02
1.500000e-07	-3.874883e-06	-3.578100e-09	-5.580836e+01	-2.336674e+02
1.600000e-07	-3.863629e-06	-3.591538e-09	-5.564628e+01	-2.334424e+02
1.700000e-07	-3.851422e-06	-3.569765e-09	-5.547047e+01	-2.330138e+02
1.800000e-07	-3.838697e-06	-3.607338e-09	-5.528719e+01	-2.323649e+02
1.900000e-07	-3.825399e-06	-3.507302e-09	-5.509566e+01	-2.314881e+02
2.000000e-07	-3.810781e-06	-3.475112e-09	-5.488513e+01	-2.303856e+02
2.100000e-07	-3.794963e-06	-3.554430e-09	-5.465732e+01	-2.290696e+02
2.200000e-07	-3.778728e-06	-3.499084e-09	-5.442349e+01	-2.275620e+02
2.300000e-07	-3.761996e-06	-3.292946e-09	-5.418251e+01	-2.258933e+02
2.400000e-07	-3.744556e-06	-3.306109e-09	-5.393132e+01	-2.241015e+02
2.500000e-07	-3.726506e-06	-3.391090e-09	-5.367135e+01	-2.222298e+02
2.600000e-07	-3.707897e-06	-3.293270e-09	-5.340334e+01	-2.203247e+02
2.700000e-07	-3.688754e-06	-3.222696e-09	-5.312762e+01	-2.184336e+02
2.800000e-07	-3.669070e-06	-3.207484e-09	-5.284412e+01	-2.166020e+02
2.900000e-07	-3.648840e-06	-3.217551e-09	-5.255276e+01	-2.148715e+02
3.000000e-07	-3.628064e-06	-3.276680e-09	-5.225353e+01	-2.132777e+02
3.100000e-07	-3.606642e-06	-3.258804e-09	-5.194500e+01	-2.118482e+02
3.200000e-07	-3.584410e-06	-3.175377e-09	-5.162480e+01	-2.106016e+02
3.300000e-07	-3.561508e-06	-3.197513e-09	-5.129495e+01	-2.095468e+02
3.400000e-07	-3.538173e-06	-3.228391e-09	-5.095887e+01	-2.086825e+02
3.500000e-07	-3.514348e-06	-3.217100e-09	-5.061573e+01	-2.079982e+02
3.600000e-07	-3.490041e-06	-3.218447e-09	-5.026564e+01	-2.074748e+02
3.700000e-07	-3.464989e-06	-3.154587e-09	-4.990482e+01	-2.070862e+02
3.800000e-07	-3.438788e-06	-3.137798e-09	-4.952746e+01	-2.068009e+02
3.900000e-07	-3.411779e-06	-3.227022e-09	-4.913847e+01	-2.065844e+02
4.000000e-07	-3.384378e-06	-3.183530e-09	-4.874383e+01	-2.064010e+02
4.100000e-07	-3.356501e-06	-3.081325e-09	-4.834231e+01	-2.062161e+02
4.200000e-07	-3.327979e-06	-3.145712e-09	-4.793154e+01	-2.059982e+02
4.300000e-07	-3.298886e-06	-3.172277e-09	-4.751251e+01	-2.057204e+02
4.400000e-07	-3.269409e-06	-3.103518e-09	-4.708797e+01	-2.053614e+02
4.500000e-07	-3.239404e-06	-3.110133e-09	-4.665582e+01	-2.049071e+02
4.600000e-07	-3.208687e-06	-3.121312e-09	-4.621342e+01	-2.043502e+02
4.700000e-07	-3.177520e-06	-3.082033e-09	-4.576453e+01	-2.036904e+02
4.800000e-07	-3.146090e-06	-3.081379e-09	-4.531186e+01	-2.029337e+02
4.900000e-07	-3.114241e-06	-3.091572e-09	-4.485315e+01	-2.020913e+02
5.000000e-07	-3.081755e-06	-3.047338e-09	-4.438527e+01	-2.011786e+02
5.100000e-07	-3.048452e-06	-3.031349e-09	-4.390562e+01	-2.002135e+02
5.200000e-07	-3.014215e-06	-3.055355e-09	-4.341252e+01	-1.992148e+02
5.300000e-07	-2.979260e-06	-3.030076e-09	-4.290907e+01	-1.982010e+02
5.400000e-07	-2.943928e-06	-2.995858e-09	-4.240020e+01	-1.971881e+02
5.500000e-07	-2.908298e-06	-2.996848e-09	-4.188704e+01	-1.961895e+02
5.600000e-07	-2.872260e-06	-2.997296e-09	-4.136800e+01	-1.952141e+02
5.700000e-07	-2.835675e-06	-2.977306e-09	-4.084108e+01	-1.942667e+02
5.800000e-07	-2.798580e-06	-2.944919e-09	-4.030681e+01	-1.933470e+02
5.900000e-07	-2.760978e-06	-2.934952e-09	-3.976524e+01	-1.924506e+02
6.000000e-07	-2.722839e-06	-2.937495e-09	-3.921595e+01	-1.915689e+02
6.100000e-07	-2.684210e-06	-2.917843e-09	-3.865959e+01	-1.906904e+02
6.200000e-07	-2.645193e-06	-2.884189e-09	-3.809764e+01	-1.898016e+02
6.300000e-07	-2.605909e-06	-2.872256e-09	-3.753184e+01	-1.888880e+02
6.400000e-07	-2.566406e-06	-2.874327e-09	-3.696291e+01	-1.879352e+02
6.500000e-07	-2.526553e-06	-2.851495e-09	-3.638892e+01	-1.869304e+02
6.600000e-07	-2.486062e-06	-2.823452e-09	-3.580574e+01	-1.858629e+02
6.700000e-07	-2.444752e-06	-2.807318e-09	-3.521077e+01	-1.847250e+02
6.800000e-07	-2.402660e-06	-2.787911e-09	-3.460454e+01	-1.835123e+02
6.900000e-07	-2.359972e-06	-2.774540e-09	-3.398971e+01	-1.822240e+02
7.000000e-07	-2.316842e-06	-2.756736e-09	-3.336854e+01	-1.808629e+02
7.100000e-07	-2.273446e-06	-2.722501e-09	-3.274352e+01	-1.794344e+02
7.200000e-07	-2.229887e-06	-2.694425e-09	-3.211615e+01	-1.779467e+02
7.300000e-07	-2.185992e-06	-2.688559e-09	-3.148396e+01	-1.764092e+02
7.400000e-07	-2.141574e-06	-2.677391e-09	-3.084421e+01	-1.748322e+02
7.500000e-07	-2.096752e-06	-2.636264e-09	-3.019867e+01	-1.732256e+02
7.600000e-07	-2.051648e-06	-2.600544e-09	-2.954906e+01	-1.715983e+02
7.700000e-07	-2.006160e-06	-2.588278e-09	-2.889390e+01	-1.699572e+02
7.800000e-07	-1.960307e-06	-2.571855e-09	-2.823351e+01	-1.683069e+02
7.900000e-07	-1.914148e-06	-2.536847e-09	-2.756869e+01	-1.666491e+02
8.000000e-07	-1.867601e-06	-2.499333e-09	-2.689830e+01	-1.649825e+02
8.100000e-07	-1.820687e-06	-2.476543e-09	-2.622262e+01	-1.633031e+02
8.200000e-07	-1.773533e-06	-2.457660e-09	-2.554348e+01	-1.616046e+02
8.300000e-07	-1.726191e-06	-2.432264e-09	-2.486163e+01	-1.598784e+02
8.400000e-07	-1.678698e-06	-2.400228e-09	-2.417761e+01	-1.581150e+02
8.500000e-07	-1.631107e-06	-2.363562e-09	-2.349218e+01	-1.563042e+02
8.600000e-07	-1.583266e-06	-2.334487e-09	-2.280314e+01	-1.544359e+02
8.700000e-07	-1.534957e-06	-2.309792e-09	-2.210737e+01	-1.525011e+02
8.800000e-07	-1.486187e-06	-2.277729e-09	-2.140495e+01	-1.504924e+02
8.900000e-07	-1.436953e-06	-2.237930e-09	-2.069585e+01	-1.484042e+02
9.000000e-07	-1.387247e-06	-2.198690e-09	-1.997996e+01	-1.462331e+02
9.100000e-07	-1.337165e-06	-2.168166e-09	-1.925865e+01	-1.439779e+02
9.200000e-07	-1.286684e-06	-2.136459e-09	-1.853159e+01	-1.416396e+02
9.300000e-07	-1.235868e-06	-2.095962e-09	-1.779970e+01	-1.392208e+02
9.400000e-07	-1.184833e-06	-2.053600e-09	-1.706467e+01	-1.367252e+02
9.500000e-07	-1.133616e-06	-2.013445e-09	-1.632700e+01	-1.341573e+02
9.600000e-07	-1.082184e-06	-1.976974e-09	-1.558626e+01	-1.315212e+02
9.700000e-07	-1.030570e-06	-1.936695e-09	-1.484288e+01	-1.288203e+02
9.800000e-07	-9.788592e-07	-1.891398e-09	-1.409811e+01	-1.260566e+02
9.900000e-07	-9.269930e-07	-1.844738e-09	-1.335110e+01	-1.232300e+02
1.000000e-06	-8.748533e-07	-1.798368e-09	-1.260016e+01	-1.203385e+02
1.010000e-06	-8.224514e-07	-1.756056e-09	-1.184543e+01	-1.173771e+02
1.020000e-06	-7.698865e-07	-1.710837e-09	-1.108836e+01	-1.143387e+02
1.030000e-06	-7.171995e-07	-1.659859e-09	-1.032953e+01	-1.112140e+02
1.040000e-06	-6.643900e-07	-1.605827e-09	-9.568939e+00	-1.079919e+02
1.050000e-06	-6.114336e-07	-1.555067e-09	-8.806230e+00	-1.046600e+02
1.060000e-06	-5.583264e-07	-1.506142e-09	-8.041348e+00	-1.012054e+02
1.070000e-06	-5.051606e-07	-1.449330e-09	-7.275623e+00	-9.761547e+01
1.080000e-06	-4.519328e-07	-1.388204e-09	-6.509005e+00	-9.387835e+01
1.090000e-06	-3.986158e-07	-1.325624e-09	-5.741102e+00	-8.998385e+01
1.100000e-06	-3.452757e-07	-1.261059e-09	-4.972866e+00	-8.592390e+01
1.110000e-06	-2.918898e-07	-1.195969e-09	-4.203970e+00	-8.169302e+01
1.120000e-06	-2.384365e-07	-1.127663e-09	-3.434105e+00	-7.728860e+01
1.130000e-06	-1.849961e-07	-1.056711e-09	-2.664424e+00	-7.271095e+01
1.140000e-06	-1.315842e-07	-9.856268e-10	-1.895154e+00	-6.796321e+01
1.150000e-06	-7.811258e-08	-9.157707e-10	-1.125024e+00	-6.305112e+01
1.160000e-06	-2.463123e-08	-8.438693e-10	-3.547536e-01	-5.798258e+01
1.170000e-06	2.881017e-08	-7.638521e-10	4.149412e-01	-5.276719e+01
1.180000e-06	8.226478e-08	-6.814501e-10	1.184826e+00	-4.741571e+01
1.190000e-06	1.357221e-07	-5.993894e-10	1.954750e+00	-4.193946e+01
1.200000e-06	1.891376e-07	-5.141714e-10	2.724072e+00	-3.634990e+01
1.210000e-06	2.425291e-07	-4.255685e-10	3.493049e+00	-3.065816e+01
1.220000e-06	2.958832e-07	-3.358723e-10	4.261486e+00	-2.487475e+01
1.230000e-06	3.491588e-07	-2.478810e-10	5.028792e+00	-1.900942e+01
1.240000e-06	4.023802e-07	-1.574996e-10	5.795318e+00	-1.307113e+01
1.250000e-06	4.555677e-07	-6.575762e-11	6.561356e+00	-7.068222e+00
1.260000e-06	5.086332e-07	2.459009e-11	7.325638e+00	-1.008653e+00
1.270000e-06	5.615514e-07	1.159181e-10	8.087797e+00	5.099645e+00
1.280000e-06	6.144041e-07	2.112393e-10	8.849012e+00	1.124835e+01
1.290000e-06	6.671821e-07	3.089829e-10	9.609153e+00	1.742833e+01
1.300000e-06	7.197701e-07	4.032466e-10	1.036656e+01	2.362928e+01
1.310000e-06	7.721747e-07	4.952845e-10	1.112132e+01	2.983936e+01
1.320000e-06	8.244744e-07	5.879359e-10	1.187457e+01	3.604508e+01
1.330000e-06	8.766041e-07	6.819778e-10	1.262537e+01	4.223121e+01
1.340000e-06	9.285149e-07	7.748668e-10	1.337302e+01	4.838091e+01
1.350000e-06	9.802267e-07	8.663225e-10	1.411781e+01	5.447602e+01
1.360000e-06	1.031785e-06	9.573425e-10	1.486038e+01	6.049747e+01
1.370000e-06	1.083268e-06	1.046526e-09	1.560187e+01	6.642584e+01
1.380000e-06	1.134626e-06	1.133478e-09	1.634156e+01	7.224203e+01
1.390000e-06	1.185780e-06	1.218110e-09	1.707831e+01	7.792795e+01
1.400000e-06	1.236743e-06	1.300368e-09	1.781231e+01	8.346716e+01
1.410000e-06	1.287443e-06	1.381342e-09	1.854253e+01	8.884557e+01
1.420000e-06	1.337730e-06	1.462419e-09	1.926679e+01	9.405193e+01
1.430000e-06	1.387568e-06	1.540339e-09	1.998458e+01	9.907824e+01
1.440000e-06	1.436971e-06	1.613392e-09	2.069611e+01	1.039200e+02
1.450000e-06	1.485899e-06	1.682856e-09	2.140080e+01	1.085761e+02
1.460000e-06	1.534328e-06	1.751566e-09	2.209830e+01	1.130488e+02
1.470000e-06	1.582339e-06	1.818071e-09	2.278978e+01	1.173435e+02
1.480000e-06	1.630084e-06	1.880460e-09	2.347744e+01	1.214679e+02
1.490000e-06	1.677646e-06	1.940701e-09	2.416245e+01	1.254317e+02
1.500000e-06	1.725072e-06	1.998898e-09	2.484551e+01	1.292455e+02
1.510000e-06	1.772339e-06	2.055986e-09	2.552628e+01	1.329207e+02
1.520000e-06	1.819320e-06	2.110019e-09	2.620293e+01	1.364683e+02
1.530000e-06	1.865878e-06	2.162587e-09	2.687348e+01	1.398984e+02
1.540000e-06	1.912056e-06	2.214321e-09	2.753857e+01	1.432198e+02
1.550000e-06	1.957917e-06	2.260178e-09	2.819909e+01	1.464395e+02
1.560000e-06	2.003452e-06	2.302611e-09	2.885491e+01	1.495628e+02
1.570000e-06	2.048692e-06	2.345322e-09	2.950647e+01	1.525929e+02
1.580000e-06	2.093543e-06	2.388736e-09	3.015245e+01	1.555314e+02
1.590000e-06	2.137982e-06	2.429910e-09	3.079248e+01	1.583784e+02
1.600000e-06	2.182085e-06	2.467255e-09	3.142768e+01	1.611331e+02
1.610000e-06	2.225848e-06	2.505252e-09	3.205798e+01	1.637941e+02
1.620000e-06	2.269351e-06	2.545186e-09	3.268454e+01	1.663600e+02
1.630000e-06	2.312659e-06	2.583592e-09	3.330828e+01	1.688301e+02
1.640000e-06	2.355655e-06	2.617316e-09	3.392754e+01	1.712044e+02
1.650000e-06	2.398236e-06	2.648300e-09	3.454083e+01	1.734843e+02
1.660000e-06	2.440263e-06	2.680048e-09	3.514611e+01	1.756726e+02
1.670000e-06	2.481498e-06	2.710736e-09	3.574000e+01	1.777736e+02
1.680000e-06	2.521904e-06	2.738530e-09	3.632197e+01	1.797930e+02
1.690000e-06	2.561731e-06	2.765539e-09	3.689557e+01	1.817376e+02
1.700000e-06	2.601253e-06	2.792710e-09	3.746479e+01	1.836149e+02
1.710000e-06	2.640571e-06	2.819964e-09	3.803107e+01	1.854327e+02
1.720000e-06	2.679548e-06	2.845969e-09	3.859244e+01	1.871986e+02
1.730000e-06	2.718035e-06	2.871278e-09	3.914675e+01	1.889194e+02
1.740000e-06	2.756011e-06	2.897747e-09	3.969370e+01	1.906008e+02
1.750000e-06	2.793519e-06	2.923329e-09	4.023392e+01	1.922468e+02
1.760000e-06	2.830568e-06	2.947682e-09	4.076752e+01	1.938598e+02
1.770000e-06	2.867098e-06	2.969274e-09	4.129365e+01	1.954402e+02
1.780000e-06	2.903137e-06	2.989739e-09	4.181270e+01	1.969866e+02
1.790000e-06	2.938838e-06	3.010564e-09	4.232689e+01	1.984961e+02
1.800000e-06	2.974238e-06	3.030105e-09	4.283674e+01	1.999644e+02
1.810000e-06	3.009277e-06	3.048369e-09	4.334139e+01	2.013866e+02
1.820000e-06	3.043792e-06	3.068126e-09	4.383850e+01	2.027575e+02
1.830000e-06	3.077438e-06	3.089226e-09	4.432309e+01	2.040725e+02
1.840000e-06	3.110105e-06	3.108881e-09	4.479358e+01	2.053276e+02
1.850000e-06	3.142044e-06	3.126482e-09	4.525358e+01	2.065205e+02
1.860000e-06	3.173549e-06	3.143027e-09	4.570734e+01	2.076503e+02
1.870000e-06	3.204710e-06	3.161163e-09	4.615613e+01	2.087186e+02
1.880000e-06	3.235455e-06	3.177450e-09	4.659894e+01	2.097285e+02
1.890000e-06	3.265608e-06	3.191351e-09	4.703322e+01	2.106854e+02
1.900000e-06	3.295127e-06	3.205159e-09	4.745838e+01	2.115960e+02
1.910000e-06	3.324058e-06	3.220941e-09	4.787506e+01	2.124683e+02
1.920000e-06	3.352386e-06	3.235363e-09	4.828306e+01	2.133109e+02
1.930000e-06	3.380247e-06	3.246986e-09	4.868432e+01	2.141323e+02
1.940000e-06	3.407728e-06	3.258101e-09	4.908012e+01	2.149402e+02
1.950000e-06	3.434744e-06	3.271066e-09	4.946922e+01	2.157412e+02
1.960000e-06	3.461094e-06	3.285783e-09	4.984873e+01	2.165398e+02
1.970000e-06	3.486529e-06	3.296804e-09	5.021507e+01	2.173387e+02
1.980000e-06	3.511025e-06	3.306977e-09	5.056786e+01	2.181378e+02
1.990000e-06	3.534819e-06	3.318538e-09	5.091056e+01	2.189349e+02
2.000000e-06	3.558100e-06	3.330564e-09	5.124587e+01	2.197255e+02
2.010000e-06	3.580862e-06	3.339815e-09	5.157371e+01	2.205032e+02
2.020000e-06	3.602981e-06	3.346032e-09	5.189227e+01	2.212604e+02
2.030000e-06	3.624478e-06	3.354605e-09	5.220189e+01	2.219891e+02
2.040000e-06	3.645385e-06	3.365323e-09	5.250299e+01	2.226812e+02
2.050000e-06	3.665660e-06	3.376034e-09	5.279501e+01	2.233296e+02
2.060000e-06	3.685434e-06	3.384721e-09	5.307981e+01	2.239290e+02
2.070000e-06	3.704758e-06	3.391482e-09	5.335813e+01	2.244759e+02
2.080000e-06	3.723522e-06	3.398992e-09	5.362838e+01	2.249697e+02
2.090000e-06	3.741658e-06	3.407023e-09	5.388958e+01	2.254124e+02
2.100000e-06	3.759128e-06	3.414183e-09	5.414119e+01	2.258090e+02
2.110000e-06	3.776018e-06	3.421080e-09	5.438446e+01	2.261666e+02
2.120000e-06	3.792326e-06	3.429621e-09	5.461932e+01	2.264946e+02
2.130000e-06	3.807816e-06	3.437751e-09	5.484242e+01	2.268035e+02
2.140000e-06	3.822481e-06	3.444338e-09	5.505365e+01	2.271046e+02
2.150000e-06	3.836384e-06	3.451537e-09	5.525388e+01	2.274084e+02
2.160000e-06	3.849537e-06	3.457938e-09	5.544332e+01	2.277244e+02
2.170000e-06	3.861970e-06	3.463314e-09	5.562239e+01	2.280597e+02
2.180000e-06	3.873730e-06	3.468451e-09	5.579176e+01	2.284187e+02
2.190000e-06	3.884792e-06	3.471796e-09	5.595108e+01	2.288027e+02
2.200000e-06	3.895007e-06	3.476586e-09	5.609820e+01	2.292091e+02
2.210000e-06	3.904205e-06	3.483067e-09	5.623069e+01	2.296320e+02
2.220000e-06	3.912456e-06	3.488342e-09	5.634952e+01	2.300624e+02
2.230000e-06	3.920081e-06	3.492040e-09	5.645933e+01	2.304887e+02
2.240000e-06	3.927128e-06	3.495457e-09	5.656083e+01	2.308977e+02
2.250000e-06	3.933468e-06	3.500665e-09	5.665214e+01	2.312757e+02
2.260000e-06	3.939153e-06	3.504628e-09	5.673403e+01	2.316094e+02
2.270000e-06	3.944223e-06	3.505732e-09	5.680704e+01	2.318872e+02
2.280000e-06	3.948596e-06	3.506358e-09	5.687003e+01	2.321004e+02
2.290000e-06	3.952380e-06	3.509209e-09	5.692453e+01	2.322438e+02
2.300000e-06	3.955696e-06	3.512677e-09	5.697229e+01	2.323167e+02
2.310000e-06	3.958306e-06	3.514006e-09	5.700987e+01	2.323230e+02
2.320000e-06	3.959895e-06	3.513740e-09	5.703276e+01	2.322713e+02
2.330000e-06	3.960502e-06	3.515919e-09	5.704150e+01	2.321747e+02
2.340000e-06	3.960403e-06	3.519313e-09	5.704008e+01	2.320496e+02
2.350000e-06	3.959758e-06	3.519964e-09	5.703079e+01	2.319149e+02
2.360000e-06	3.958492e-06	3.521212e-09	5.701255e+01	2.317909e+02
2.370000e-06	3.956558e-06	3.523157e-09	5.698469e+01	2.316971e+02
2.380000e-06	3.954017e-06	3.522126e-09	5.694810e+01	2.316513e+02
2.390000e-06	3.950870e-06	3.520531e-09	5.690278e+01	2.316676e+02
2.400000e-06	3.947102e-06	3.519766e-09	5.684850e+01	2.317552e+02
2.410000e-06	3.942852e-06	3.512238e-09	5.678729e+01	2.319170e+02
2.420000e-06	3.938198e-06	3.513394e-09	5.672027e+01	2.321492e+02
2.430000e-06	3.932747e-06	3.569430e-09	5.664176e+01	2.324408e+02
2.440000e-06	3.926066e-06	3.601209e-09	5.654553e+01	2.327733e+02
2.450000e-06	3.918269e-06	3.491127e-09	5.643324e+01	2.331222e+02
2.460000e-06	3.909917e-06	3.440103e-09	5.631295e+01	2.334572e+02
2.470000e-06	3.901335e-06	3.527304e-09	5.618935e+01	2.337443e+02
2.480000e-06	3.892065e-06	3.619505e-09	5.605583e+01	2.339474e+02
2.490000e-06	3.881813e-06	3.532928e-09	5.590818e+01	2.340305e+02
2.500000e-06	3.871118e-06	3.522587e-09	5.575413e+01	2.339596e+02
2.510000e-06	3.860121e-06	3.548168e-09	5.559576e+01	2.337053e+02
2.520000e-06	3.848096e-06	3.496927e-09	5.542256e+01	2.332443e+02
2.530000e-06	3.835059e-06	3.578987e-09	5.523480e+01	2.325613e+02
2.540000e-06	3.821698e-06	3.651628e-09	5.504237e+01	2.316501e+02
2.550000e-06	3.807554e-06	3.526581e-09	5.483865e+01	2.305144e+02
2.560000e-06	3.792159e-06	3.474407e-09	5.461692e+01	2.291679e+02
2.570000e-06	3.775956e-06	3.689022e-09	5.438357e+01	2.276338e+02
2.580000e-06	3.759236e-06	3.630123e-09	5.414276e+01	2.259439e+02
2.590000e-06	3.741944e-06	3.430265e-09	5.389370e+01	2.241370e+02
2.600000e-06	3.723910e-06	3.453671e-09	5.363396e+01	2.222571e+02
2.610000e-06	3.705182e-06	3.405154e-09	5.336424e+01	2.203510e+02
2.620000e-06	3.685927e-06	3.243010e-09	5.308691e+01	2.184658e+02
2.630000e-06	3.666160e-06	3.272260e-09	5.280222e+01	2.166466e+02
2.640000e-06	3.645831e-06	3.246617e-09	5.250942e+01	2.149344e+02
2.650000e-06	3.625046e-06	3.117718e-09	5.221007e+01	2.133635e+02
2.660000e-06	3.603701e-06	3.223933e-09	5.190264e+01	2.119603e+02
2.670000e-06	3.581205e-06	3.264081e-09	5.157864e+01	2.107420e+02
2.680000e-06	3.557583e-06	3.143727e-09	5.123842e+01	2.097159e+02
2.690000e-06	3.533396e-06	3.163104e-09	5.089007e+01	2.088793e+02
2.700000e-06	3.508610e-06	3.168037e-09	5.053309e+01	2.082204e+02
2.710000e-06	3.483180e-06	3.173464e-09	5.016683e+01	2.077189e+02
2.720000e-06	3.457332e-06	3.207652e-09	4.979455e+01	2.073476e+02
2.730000e-06	3.430964e-06	3.108782e-09	4.941478e+01	2.070747e+02
2.740000e-06	3.403790e-06	3.112867e-09	4.902341e+01	2.068653e+02
2.750000e-06	3.375946e-06	3.206270e-09	4.862239e+01	2.066837e+02
2.760000e-06	3.347759e-06	3.130528e-09	4.821641e+01	2.064956e+02
2.770000e-06	3.319248e-06	3.100668e-09	4.780578e+01	2.062701e+02
2.780000e-06	3.290220e-06	3.158925e-09	4.738770e+01	2.059811e+02
2.790000e-06	3.260520e-06	3.111768e-09	4.695995e+01	2.056084e+02
2.800000e-06	3.230100e-06	3.082973e-09	4.652182e+01	2.051388e+02
2.810000e-06	3.198787e-06	3.120181e-09	4.607083e+01	2.045662e+02
2.820000e-06	3.166725e-06	3.104347e-09	4.560905e+01	2.038911e+02
2.830000e-06	3.134268e-06	3.062594e-09	4.514159e+01	2.031205e+02
2.840000e-06	3.101372e-06	3.068140e-09	4.466781e+01	2.022663e+02
2.850000e-06	3.067862e-06	3.072627e-09	4.418518e+01	2.013444e+02
2.860000e-06	3.033831e-06	3.040454e-09	4.369503e+01	2.003729e+02
2.870000e-06	2.999410e-06	3.027089e-09	4.319929e+01	1.993707e+02
2.880000e-06	2.964497e-06	3.036937e-09	4.269645e+01	1.983558e+02
2.890000e-06	2.928986e-06	3.012103e-09	4.218500e+01	1.973442e+02
2.900000e-06	2.893020e-06	2.981125e-09	4.166699e+01	1.963484e+02
2.910000e-06	2.856712e-06	2.986506e-09	4.114406e+01	1.953769e+02
2.920000e-06	2.820041e-06	2.989075e-09	4.061591e+01	1.944335e+02
2.930000e-06	2.783044e-06	2.961444e-09	4.008306e+01	1.935176e+02
2.940000e-06	2.745508e-06	2.923504e-09	3.954243e+01	1.926238e+02
2.950000e-06	2.707051e-06	2.921599e-09	3.898856e+01	1.917432e+02
