# Temperatura_=_20.0
# Concentracion g/m^3_=_9000.0
# C_Vs_to_Am_M_A/Vsm_=_65563218390.804596
# pendiente_HvsI_1/m_=_3716.3
# ordenada_HvsI_A/m_=_1297.0
# frecuencia_Hz_=_212865.80413878645

Tiempo_(s)	Campo_(V.s)	Magnetizacion_(V.s)	Campo_(kA/m)	Magnetizacion_(A/m)
0.000000e+00	-3.972236e-06	-3.377330e-09	-5.698186e+01	-2.282752e+02
1.000000e-08	-3.972081e-06	-3.377010e-09	-5.697963e+01	-2.282499e+02
2.000000e-08	-3.971137e-06	-3.377580e-09	-5.696609e+01	-2.281976e+02
3.000000e-08	-3.969108e-06	-3.377260e-09	-5.693699e+01	-2.281199e+02
4.000000e-08	-3.966158e-06	-3.375879e-09	-5.689467e+01	-2.280191e+02
5.000000e-08	-3.962670e-06	-3.375457e-09	-5.684464e+01	-2.278987e+02
6.000000e-08	-3.958751e-06	-3.377373e-09	-5.678842e+01	-2.277626e+02
7.000000e-08	-3.954234e-06	-3.382119e-09	-5.672361e+01	-2.276154e+02
8.000000e-08	-3.948920e-06	-3.373359e-09	-5.664740e+01	-2.274621e+02
9.000000e-08	-3.942748e-06	-3.360584e-09	-5.655885e+01	-2.273075e+02
1.000000e-07	-3.935793e-06	-3.364389e-09	-5.645909e+01	-2.271559e+02
1.100000e-07	-3.928329e-06	-3.395143e-09	-5.635201e+01	-2.270112e+02
1.200000e-07	-3.920466e-06	-3.368011e-09	-5.623922e+01	-2.268764e+02
1.300000e-07	-3.911895e-06	-3.310462e-09	-5.611627e+01	-2.267530e+02
1.400000e-07	-3.902458e-06	-3.357883e-09	-5.598089e+01	-2.266417e+02
1.500000e-07	-3.892237e-06	-3.404878e-09	-5.583427e+01	-2.265413e+02
1.600000e-07	-3.881109e-06	-3.397545e-09	-5.567463e+01	-2.264495e+02
1.700000e-07	-3.868960e-06	-3.362982e-09	-5.550036e+01	-2.263627e+02
1.800000e-07	-3.856161e-06	-3.402781e-09	-5.531676e+01	-2.262759e+02
1.900000e-07	-3.842949e-06	-3.391486e-09	-5.512723e+01	-2.261835e+02
2.000000e-07	-3.828638e-06	-3.395384e-09	-5.492193e+01	-2.260791e+02
2.100000e-07	-3.812975e-06	-3.475707e-09	-5.469725e+01	-2.259563e+02
2.200000e-07	-3.796718e-06	-3.455996e-09	-5.446404e+01	-2.258085e+02
2.300000e-07	-3.780077e-06	-3.457422e-09	-5.422534e+01	-2.256299e+02
2.400000e-07	-3.762787e-06	-3.525794e-09	-5.397730e+01	-2.254151e+02
2.500000e-07	-3.744824e-06	-3.582262e-09	-5.371963e+01	-2.251602e+02
2.600000e-07	-3.726246e-06	-3.497597e-09	-5.345312e+01	-2.248624e+02
2.700000e-07	-3.707077e-06	-3.491702e-09	-5.317815e+01	-2.245202e+02
2.800000e-07	-3.687392e-06	-3.569070e-09	-5.289576e+01	-2.241337e+02
2.900000e-07	-3.667239e-06	-3.566872e-09	-5.260667e+01	-2.237044e+02
3.000000e-07	-3.646443e-06	-3.513342e-09	-5.230835e+01	-2.232350e+02
3.100000e-07	-3.624929e-06	-3.475471e-09	-5.199973e+01	-2.227295e+02
3.200000e-07	-3.602804e-06	-3.520596e-09	-5.168234e+01	-2.221923e+02
3.300000e-07	-3.580087e-06	-3.513964e-09	-5.135647e+01	-2.216287e+02
3.400000e-07	-3.556761e-06	-3.468723e-09	-5.102186e+01	-2.210438e+02
3.500000e-07	-3.532888e-06	-3.485096e-09	-5.067940e+01	-2.204427e+02
3.600000e-07	-3.508495e-06	-3.469151e-09	-5.032948e+01	-2.198301e+02
3.700000e-07	-3.483364e-06	-3.420477e-09	-4.996898e+01	-2.192098e+02
3.800000e-07	-3.457144e-06	-3.473157e-09	-4.959284e+01	-2.185845e+02
3.900000e-07	-3.429965e-06	-3.480403e-09	-4.920296e+01	-2.179561e+02
4.000000e-07	-3.402367e-06	-3.378030e-09	-4.880706e+01	-2.173252e+02
4.100000e-07	-3.374425e-06	-3.383059e-09	-4.840624e+01	-2.166912e+02
4.200000e-07	-3.345860e-06	-3.464143e-09	-4.799648e+01	-2.160525e+02
4.300000e-07	-3.316644e-06	-3.406311e-09	-4.757737e+01	-2.154066e+02
4.400000e-07	-3.286949e-06	-3.331264e-09	-4.715139e+01	-2.147504e+02
4.500000e-07	-3.256757e-06	-3.374854e-09	-4.671828e+01	-2.140803e+02
4.600000e-07	-3.225964e-06	-3.383709e-09	-4.627656e+01	-2.133925e+02
4.700000e-07	-3.194684e-06	-3.345396e-09	-4.582785e+01	-2.126833e+02
4.800000e-07	-3.163071e-06	-3.326114e-09	-4.537436e+01	-2.119492e+02
4.900000e-07	-3.131110e-06	-3.311317e-09	-4.491587e+01	-2.111874e+02
5.000000e-07	-3.098617e-06	-3.308437e-09	-4.444976e+01	-2.103955e+02
5.100000e-07	-3.065344e-06	-3.301872e-09	-4.397247e+01	-2.095722e+02
5.200000e-07	-3.031213e-06	-3.278162e-09	-4.348285e+01	-2.087165e+02
5.300000e-07	-2.996300e-06	-3.251553e-09	-4.298202e+01	-2.078285e+02
5.400000e-07	-2.960857e-06	-3.242326e-09	-4.247360e+01	-2.069087e+02
5.500000e-07	-2.925121e-06	-3.246120e-09	-4.196096e+01	-2.059581e+02
5.600000e-07	-2.889061e-06	-3.232457e-09	-4.144368e+01	-2.049782e+02
5.700000e-07	-2.852500e-06	-3.200294e-09	-4.091920e+01	-2.039704e+02
5.800000e-07	-2.815398e-06	-3.168025e-09	-4.038698e+01	-2.029363e+02
5.900000e-07	-2.777812e-06	-3.175929e-09	-3.984780e+01	-2.018769e+02
6.000000e-07	-2.739662e-06	-3.181554e-09	-3.930055e+01	-2.007932e+02
6.100000e-07	-2.700983e-06	-3.127460e-09	-3.874569e+01	-1.996855e+02
6.200000e-07	-2.661859e-06	-3.093714e-09	-3.818446e+01	-1.985535e+02
6.300000e-07	-2.622393e-06	-3.105504e-09	-3.761832e+01	-1.973966e+02
6.400000e-07	-2.582701e-06	-3.097420e-09	-3.704893e+01	-1.962133e+02
6.500000e-07	-2.542690e-06	-3.057564e-09	-3.647497e+01	-1.950020e+02
6.600000e-07	-2.502084e-06	-3.027259e-09	-3.589248e+01	-1.937605e+02
6.700000e-07	-2.460702e-06	-3.020338e-09	-3.529886e+01	-1.924865e+02
6.800000e-07	-2.418596e-06	-3.007029e-09	-3.469485e+01	-1.911777e+02
6.900000e-07	-2.375910e-06	-2.987981e-09	-3.408250e+01	-1.898319e+02
7.000000e-07	-2.332721e-06	-2.959128e-09	-3.346296e+01	-1.884472e+02
7.100000e-07	-2.289189e-06	-2.922209e-09	-3.283850e+01	-1.870219e+02
7.200000e-07	-2.245458e-06	-2.910717e-09	-3.221117e+01	-1.855550e+02
7.300000e-07	-2.201426e-06	-2.902415e-09	-3.157953e+01	-1.840459e+02
7.400000e-07	-2.156919e-06	-2.870146e-09	-3.094108e+01	-1.824945e+02
7.500000e-07	-2.111918e-06	-2.829491e-09	-3.029554e+01	-1.809011e+02
7.600000e-07	-2.066592e-06	-2.806227e-09	-2.964534e+01	-1.792666e+02
7.700000e-07	-2.021019e-06	-2.797232e-09	-2.899159e+01	-1.775918e+02
7.800000e-07	-1.975138e-06	-2.767624e-09	-2.833343e+01	-1.758779e+02
7.900000e-07	-1.928874e-06	-2.725046e-09	-2.766976e+01	-1.741260e+02
8.000000e-07	-1.882213e-06	-2.693864e-09	-2.700041e+01	-1.723369e+02
8.100000e-07	-1.835242e-06	-2.676098e-09	-2.632661e+01	-1.705111e+02
8.200000e-07	-1.788018e-06	-2.653604e-09	-2.564917e+01	-1.686487e+02
8.300000e-07	-1.740574e-06	-2.612269e-09	-2.496860e+01	-1.667493e+02
8.400000e-07	-1.692936e-06	-2.575515e-09	-2.428522e+01	-1.648118e+02
8.500000e-07	-1.645094e-06	-2.549074e-09	-2.359893e+01	-1.628345e+02
8.600000e-07	-1.596983e-06	-2.520877e-09	-2.290878e+01	-1.608152e+02
8.700000e-07	-1.548420e-06	-2.487334e-09	-2.221214e+01	-1.587512e+02
8.800000e-07	-1.499246e-06	-2.447940e-09	-2.150673e+01	-1.566391e+02
8.900000e-07	-1.449677e-06	-2.413083e-09	-2.079567e+01	-1.544756e+02
9.000000e-07	-1.399858e-06	-2.380068e-09	-2.008101e+01	-1.522568e+02
9.100000e-07	-1.349678e-06	-2.344728e-09	-1.936118e+01	-1.499790e+02
9.200000e-07	-1.299123e-06	-2.305355e-09	-1.863597e+01	-1.476382e+02
9.300000e-07	-1.248195e-06	-2.260735e-09	-1.790540e+01	-1.452308e+02
9.400000e-07	-1.197015e-06	-2.222341e-09	-1.717122e+01	-1.427530e+02
9.500000e-07	-1.145643e-06	-2.181830e-09	-1.643429e+01	-1.402013e+02
9.600000e-07	-1.094006e-06	-2.135699e-09	-1.569355e+01	-1.375725e+02
9.700000e-07	-1.042159e-06	-2.091554e-09	-1.494981e+01	-1.348631e+02
9.800000e-07	-9.901943e-07	-2.048019e-09	-1.420437e+01	-1.320699e+02
9.900000e-07	-9.380587e-07	-2.004719e-09	-1.345648e+01	-1.291894e+02
1.000000e-06	-8.856739e-07	-1.955538e-09	-1.270502e+01	-1.262181e+02
1.010000e-06	-8.330842e-07	-1.906671e-09	-1.195062e+01	-1.231523e+02
1.020000e-06	-7.803100e-07	-1.860013e-09	-1.119357e+01	-1.199877e+02
1.030000e-06	-7.273708e-07	-1.808568e-09	-1.043416e+01	-1.167198e+02
1.040000e-06	-6.742945e-07	-1.754097e-09	-9.672778e+00	-1.133436e+02
1.050000e-06	-6.210676e-07	-1.697231e-09	-8.909235e+00	-1.098539e+02
1.060000e-06	-5.677799e-07	-1.642744e-09	-8.144821e+00	-1.062450e+02
1.070000e-06	-5.144426e-07	-1.587001e-09	-7.379696e+00	-1.025112e+02
1.080000e-06	-4.610215e-07	-1.524444e-09	-6.613368e+00	-9.864658e+01
1.090000e-06	-4.075556e-07	-1.459230e-09	-5.846399e+00	-9.464554e+01
1.100000e-06	-3.540382e-07	-1.390868e-09	-5.078690e+00	-9.050282e+01
1.110000e-06	-3.004519e-07	-1.323730e-09	-4.309992e+00	-8.621377e+01
1.120000e-06	-2.468258e-07	-1.254906e-09	-3.540725e+00	-8.177462e+01
1.130000e-06	-1.931771e-07	-1.179301e-09	-2.771132e+00	-7.718265e+01
1.140000e-06	-1.395088e-07	-1.103263e-09	-2.001258e+00	-7.243642e+01
1.150000e-06	-8.584303e-08	-1.030357e-09	-1.231421e+00	-6.753591e+01
1.160000e-06	-3.216691e-08	-9.592923e-10	-4.614354e-01	-6.248267e+01
1.170000e-06	2.148631e-08	-8.804893e-10	3.082219e-01	-5.727982e+01
1.180000e-06	7.508621e-08	-7.942157e-10	1.077114e+00	-5.193216e+01
1.190000e-06	1.286612e-07	-7.100873e-10	1.845650e+00	-4.644603e+01
1.200000e-06	1.822169e-07	-6.254465e-10	2.613907e+00	-4.082929e+01
1.210000e-06	2.357760e-07	-5.374439e-10	3.382215e+00	-3.509121e+01
1.220000e-06	2.892966e-07	-4.446001e-10	4.149970e+00	-2.924223e+01
1.230000e-06	3.427617e-07	-3.507825e-10	4.916928e+00	-2.329386e+01
1.240000e-06	3.962101e-07	-2.597612e-10	5.683648e+00	-1.725850e+01
1.250000e-06	4.495878e-07	-1.674247e-10	6.449352e+00	-1.114917e+01
1.260000e-06	5.028378e-07	-7.462986e-11	7.213224e+00	-4.979448e+00
1.270000e-06	5.559635e-07	2.054996e-11	7.975315e+00	1.236764e+00
1.280000e-06	6.089599e-07	1.162439e-10	8.735550e+00	7.485332e+00
1.290000e-06	6.617966e-07	2.125004e-10	9.493494e+00	1.375200e+01
1.300000e-06	7.145362e-07	3.079237e-10	1.025005e+01	2.002248e+01
1.310000e-06	7.671728e-07	4.026640e-10	1.100512e+01	2.628249e+01
1.320000e-06	8.196245e-07	4.991269e-10	1.175754e+01	3.251781e+01
1.330000e-06	8.718949e-07	5.949247e-10	1.250736e+01	3.871433e+01
1.340000e-06	9.240049e-07	6.875549e-10	1.325488e+01	4.485806e+01
1.350000e-06	9.759537e-07	7.794553e-10	1.400009e+01	5.093519e+01
1.360000e-06	1.027722e-06	8.724149e-10	1.474271e+01	5.693217e+01
1.370000e-06	1.079353e-06	9.627043e-10	1.548335e+01	6.283577e+01
1.380000e-06	1.130881e-06	1.050158e-09	1.622253e+01	6.863321e+01
1.390000e-06	1.182279e-06	1.136002e-09	1.695983e+01	7.431233e+01
1.400000e-06	1.233430e-06	1.221851e-09	1.769360e+01	7.986171e+01
1.410000e-06	1.284238e-06	1.306813e-09	1.842244e+01	8.527091e+01
1.420000e-06	1.334726e-06	1.390875e-09	1.914668e+01	9.053061e+01
1.430000e-06	1.384929e-06	1.469492e-09	1.986685e+01	9.563288e+01
1.440000e-06	1.434662e-06	1.543303e-09	2.058028e+01	1.005713e+02
1.450000e-06	1.483837e-06	1.615658e-09	2.128569e+01	1.053411e+02
1.460000e-06	1.532592e-06	1.686633e-09	2.198509e+01	1.099395e+02
1.470000e-06	1.580982e-06	1.755804e-09	2.267924e+01	1.143653e+02
1.480000e-06	1.629023e-06	1.820505e-09	2.336839e+01	1.186194e+02
1.490000e-06	1.676806e-06	1.882915e-09	2.405384e+01	1.227045e+02
1.500000e-06	1.724410e-06	1.943647e-09	2.473673e+01	1.266250e+02
1.510000e-06	1.771824e-06	2.000440e-09	2.541688e+01	1.303866e+02
1.520000e-06	1.818973e-06	2.054041e-09	2.609323e+01	1.339966e+02
1.530000e-06	1.865780e-06	2.107792e-09	2.676468e+01	1.374630e+02
1.540000e-06	1.912235e-06	2.161052e-09	2.743107e+01	1.407945e+02
1.550000e-06	1.958340e-06	2.209031e-09	2.809245e+01	1.440002e+02
1.560000e-06	2.004138e-06	2.252818e-09	2.874942e+01	1.470890e+02
1.570000e-06	2.049615e-06	2.296313e-09	2.940179e+01	1.500695e+02
1.580000e-06	2.094726e-06	2.339544e-09	3.004892e+01	1.529497e+02
1.590000e-06	2.139470e-06	2.381064e-09	3.069077e+01	1.557367e+02
1.600000e-06	2.183813e-06	2.421323e-09	3.132687e+01	1.584365e+02
1.610000e-06	2.227775e-06	2.461167e-09	3.195751e+01	1.610541e+02
1.620000e-06	2.271468e-06	2.501459e-09	3.258428e+01	1.635933e+02
1.630000e-06	2.314960e-06	2.541420e-09	3.320818e+01	1.660567e+02
1.640000e-06	2.358144e-06	2.577723e-09	3.382765e+01	1.684460e+02
1.650000e-06	2.400791e-06	2.610938e-09	3.443943e+01	1.707623e+02
1.660000e-06	2.442882e-06	2.644854e-09	3.504322e+01	1.730057e+02
1.670000e-06	2.484371e-06	2.677548e-09	3.563839e+01	1.751764e+02
1.680000e-06	2.525137e-06	2.706375e-09	3.622318e+01	1.772742e+02
1.690000e-06	2.565355e-06	2.735193e-09	3.680010e+01	1.792991e+02
1.700000e-06	2.605201e-06	2.764229e-09	3.737169e+01	1.812514e+02
1.710000e-06	2.644686e-06	2.791357e-09	3.793811e+01	1.831321e+02
1.720000e-06	2.683806e-06	2.818609e-09	3.849929e+01	1.849425e+02
1.730000e-06	2.722520e-06	2.846960e-09	3.905464e+01	1.866848e+02
1.740000e-06	2.760759e-06	2.875837e-09	3.960319e+01	1.883618e+02
1.750000e-06	2.798537e-06	2.902945e-09	4.014510e+01	1.899766e+02
1.760000e-06	2.835844e-06	2.928492e-09	4.068028e+01	1.915331e+02
1.770000e-06	2.872649e-06	2.952116e-09	4.120824e+01	1.930353e+02
1.780000e-06	2.908963e-06	2.973599e-09	4.172916e+01	1.944875e+02
1.790000e-06	2.944857e-06	2.994626e-09	4.224407e+01	1.958935e+02
1.800000e-06	2.980435e-06	3.015368e-09	4.275444e+01	1.972573e+02
1.810000e-06	3.015632e-06	3.035984e-09	4.325935e+01	1.985821e+02
1.820000e-06	3.050225e-06	3.056119e-09	4.375558e+01	1.998707e+02
1.830000e-06	3.084092e-06	3.077073e-09	4.424141e+01	2.011251e+02
1.840000e-06	3.117152e-06	3.099265e-09	4.471564e+01	2.023467e+02
1.850000e-06	3.149439e-06	3.119622e-09	4.517881e+01	2.035362e+02
1.860000e-06	3.181225e-06	3.137460e-09	4.563479e+01	2.046936e+02
1.870000e-06	3.212592e-06	3.155235e-09	4.608473e+01	2.058182e+02
1.880000e-06	3.243467e-06	3.172603e-09	4.652765e+01	2.069093e+02
1.890000e-06	3.273831e-06	3.189019e-09	4.696322e+01	2.079656e+02
1.900000e-06	3.303588e-06	3.204764e-09	4.739008e+01	2.089860e+02
1.910000e-06	3.332721e-06	3.220479e-09	4.780799e+01	2.099696e+02
1.920000e-06	3.361317e-06	3.234754e-09	4.821821e+01	2.109154e+02
1.930000e-06	3.389398e-06	3.248672e-09	4.862103e+01	2.118234e+02
1.940000e-06	3.417067e-06	3.263826e-09	4.901794e+01	2.126936e+02
1.950000e-06	3.444359e-06	3.279615e-09	4.940945e+01	2.135268e+02
1.960000e-06	3.471021e-06	3.294471e-09	4.979191e+01	2.143244e+02
1.970000e-06	3.496817e-06	3.307047e-09	5.016196e+01	2.150882e+02
1.980000e-06	3.521650e-06	3.319477e-09	5.051818e+01	2.158202e+02
1.990000e-06	3.545625e-06	3.332496e-09	5.086212e+01	2.165231e+02
2.000000e-06	3.569013e-06	3.345995e-09	5.119762e+01	2.171992e+02
2.010000e-06	3.591848e-06	3.356920e-09	5.152519e+01	2.178512e+02
2.020000e-06	3.614071e-06	3.365897e-09	5.184398e+01	2.184812e+02
2.030000e-06	3.635705e-06	3.375562e-09	5.215431e+01	2.190912e+02
2.040000e-06	3.656768e-06	3.385464e-09	5.245646e+01	2.196827e+02
2.050000e-06	3.677206e-06	3.396002e-09	5.274964e+01	2.202566e+02
2.060000e-06	3.697099e-06	3.405363e-09	5.303501e+01	2.208132e+02
2.070000e-06	3.716592e-06	3.413287e-09	5.331464e+01	2.213524e+02
2.080000e-06	3.735561e-06	3.423039e-09	5.358675e+01	2.218737e+02
2.090000e-06	3.753907e-06	3.433719e-09	5.384992e+01	2.223759e+02
2.100000e-06	3.771600e-06	3.441950e-09	5.410373e+01	2.228580e+02
2.110000e-06	3.788636e-06	3.448242e-09	5.434811e+01	2.233185e+02
2.120000e-06	3.805037e-06	3.455309e-09	5.458339e+01	2.237563e+02
2.130000e-06	3.820762e-06	3.465043e-09	5.480896e+01	2.241704e+02
2.140000e-06	3.835584e-06	3.474581e-09	5.502158e+01	2.245601e+02
2.150000e-06	3.849547e-06	3.482456e-09	5.522189e+01	2.249253e+02
2.160000e-06	3.862883e-06	3.488568e-09	5.541319e+01	2.252663e+02
2.170000e-06	3.875524e-06	3.494676e-09	5.559452e+01	2.255839e+02
2.180000e-06	3.887491e-06	3.503922e-09	5.576619e+01	2.258792e+02
2.190000e-06	3.898715e-06	3.511941e-09	5.592720e+01	2.261540e+02
2.200000e-06	3.909042e-06	3.517279e-09	5.607534e+01	2.264101e+02
2.210000e-06	3.918339e-06	3.522267e-09	5.620871e+01	2.266494e+02
2.220000e-06	3.926698e-06	3.528174e-09	5.632862e+01	2.268738e+02
2.230000e-06	3.934383e-06	3.534136e-09	5.643885e+01	2.270848e+02
2.240000e-06	3.941506e-06	3.537237e-09	5.654103e+01	2.272836e+02
2.250000e-06	3.948057e-06	3.541313e-09	5.663500e+01	2.274710e+02
2.260000e-06	3.953951e-06	3.546269e-09	5.671955e+01	2.276468e+02
2.270000e-06	3.959124e-06	3.549686e-09	5.679376e+01	2.278106e+02
2.280000e-06	3.963614e-06	3.553247e-09	5.685817e+01	2.279611e+02
2.290000e-06	3.967538e-06	3.557190e-09	5.691446e+01	2.280966e+02
2.300000e-06	3.970941e-06	3.562338e-09	5.696328e+01	2.282148e+02
2.310000e-06	3.973701e-06	3.565165e-09	5.700287e+01	2.283135e+02
2.320000e-06	3.975533e-06	3.565694e-09	5.702915e+01	2.283901e+02
2.330000e-06	3.976352e-06	3.567931e-09	5.704090e+01	2.284425e+02
2.340000e-06	3.976394e-06	3.570873e-09	5.704150e+01	2.284690e+02
2.350000e-06	3.975870e-06	3.573384e-09	5.703399e+01	2.284684e+02
2.360000e-06	3.974782e-06	3.575573e-09	5.701838e+01	2.284403e+02
2.370000e-06	3.973059e-06	3.575453e-09	5.699366e+01	2.283854e+02
2.380000e-06	3.970651e-06	3.572992e-09	5.695913e+01	2.283052e+02
2.390000e-06	3.967585e-06	3.570905e-09	5.691514e+01	2.282023e+02
2.400000e-06	3.963921e-06	3.571054e-09	5.686259e+01	2.280801e+02
2.410000e-06	3.959792e-06	3.565648e-09	5.680335e+01	2.279427e+02
2.420000e-06	3.955224e-06	3.565798e-09	5.673782e+01	2.277947e+02
2.430000e-06	3.949928e-06	3.582029e-09	5.666185e+01	2.276411e+02
2.440000e-06	3.943456e-06	3.576531e-09	5.656901e+01	2.274865e+02
2.450000e-06	3.935781e-06	3.528465e-09	5.645891e+01	2.273355e+02
2.460000e-06	3.927490e-06	3.555592e-09	5.633998e+01	2.271917e+02
2.470000e-06	3.919004e-06	3.611111e-09	5.621825e+01	2.270579e+02
2.480000e-06	3.909941e-06	3.580577e-09	5.608823e+01	2.269358e+02
2.490000e-06	3.899852e-06	3.509920e-09	5.594350e+01	2.268256e+02
2.500000e-06	3.889176e-06	3.515496e-09	5.579036e+01	2.267262e+02
2.510000e-06	3.878220e-06	3.542234e-09	5.563320e+01	2.266351e+02
2.520000e-06	3.866308e-06	3.483348e-09	5.546231e+01	2.265485e+02
2.530000e-06	3.853152e-06	3.513174e-09	5.527360e+01	2.264614e+02
2.540000e-06	3.839559e-06	3.510199e-09	5.507860e+01	2.263681e+02
2.550000e-06	3.825582e-06	3.424873e-09	5.487810e+01	2.262622e+02
2.560000e-06	3.810500e-06	3.459256e-09	5.466175e+01	2.261372e+02
2.570000e-06	3.794466e-06	3.533962e-09	5.443174e+01	2.259866e+02
2.580000e-06	3.777933e-06	3.440026e-09	5.419458e+01	2.258045e+02
2.590000e-06	3.760739e-06	3.356415e-09	5.394793e+01	2.255859e+02
2.600000e-06	3.742758e-06	3.440520e-09	5.368999e+01	2.253268e+02
2.610000e-06	3.724139e-06	3.387718e-09	5.342290e+01	2.250246e+02
2.620000e-06	3.704902e-06	3.281401e-09	5.314694e+01	2.246779e+02
2.630000e-06	3.685116e-06	3.305077e-09	5.286312e+01	2.242870e+02
2.640000e-06	3.664801e-06	3.328893e-09	5.257169e+01	2.238536e+02
2.650000e-06	3.643969e-06	3.307607e-09	5.227286e+01	2.233804e+02
2.660000e-06	3.622496e-06	3.293714e-09	5.196482e+01	2.228715e+02
2.670000e-06	3.599989e-06	3.294798e-09	5.164196e+01	2.223315e+02
2.680000e-06	3.576456e-06	3.278255e-09	5.130437e+01	2.217655e+02
2.690000e-06	3.552316e-06	3.272370e-09	5.095808e+01	2.211787e+02
2.700000e-06	3.527625e-06	3.268573e-09	5.060390e+01	2.205763e+02
2.710000e-06	3.502190e-06	3.281893e-09	5.023903e+01	2.199628e+02
2.720000e-06	3.476213e-06	3.255442e-09	4.986640e+01	2.193418e+02
2.730000e-06	3.449794e-06	3.197325e-09	4.948741e+01	2.187162e+02
2.740000e-06	3.422696e-06	3.264845e-09	4.909869e+01	2.180875e+02
2.750000e-06	3.394965e-06	3.272183e-09	4.870089e+01	2.174563e+02
2.760000e-06	3.366860e-06	3.165206e-09	4.829772e+01	2.168219e+02
2.770000e-06	3.338323e-06	3.196664e-09	4.788836e+01	2.161827e+02
2.780000e-06	3.309122e-06	3.250163e-09	4.746947e+01	2.155359e+02
2.790000e-06	3.279225e-06	3.195709e-09	4.704059e+01	2.148785e+02
2.800000e-06	3.248563e-06	3.161308e-09	4.660075e+01	2.142068e+02
2.810000e-06	3.217136e-06	3.174960e-09	4.614992e+01	2.135170e+02
2.820000e-06	3.185155e-06	3.193149e-09	4.569116e+01	2.128054e+02
2.830000e-06	3.152783e-06	3.163707e-09	4.522678e+01	2.120687e+02
2.840000e-06	3.119919e-06	3.128034e-09	4.475535e+01	2.113039e+02
2.850000e-06	3.086434e-06	3.134707e-09	4.427499e+01	2.105090e+02
2.860000e-06	3.052450e-06	3.127330e-09	4.378749e+01	2.096825e+02
2.870000e-06	3.018043e-06	3.112841e-09	4.329393e+01	2.088235e+02
2.880000e-06	2.983103e-06	3.102934e-09	4.279271e+01	2.079323e+02
2.890000e-06	2.947612e-06	3.084812e-09	4.228360e+01	2.070094e+02
2.900000e-06	2.911692e-06	3.063115e-09	4.176832e+01	2.060558e+02
2.910000e-06	2.875437e-06	3.062616e-09	4.124824e+01	2.050730e+02
2.920000e-06	2.838757e-06	3.072379e-09	4.072207e+01	2.040626e+02
2.930000e-06	2.801479e-06	3.031711e-09	4.018731e+01	2.030258e+02
2.940000e-06	2.763501e-06	2.995789e-09	3.964251e+01	2.019640e+02
2.950000e-06	2.724740e-06	3.014858e-09	3.908649e+01	2.008779e+02
