# Temperatura_=_20.0
# Concentracion g/m^3_=_9000.0
# C_Vs_to_Am_M_A/Vsm_=_65563218390.804596
# pendiente_HvsI_1/m_=_3716.3
# ordenada_HvsI_A/m_=_1297.0
# frecuencia_Hz_=_212865.47600452197

Tiempo_(s)	Campo_(V.s)	Magnetizacion_(V.s)	Campo_(kA/m)	Magnetizacion_(A/m)
0.000000e+00	-3.972337e-06	-3.396166e-09	-5.698376e+01	-2.288710e+02
1.000000e-08	-3.972467e-06	-3.395223e-09	-5.698562e+01	-2.288478e+02
2.000000e-08	-3.972030e-06	-3.393241e-09	-5.697936e+01	-2.287971e+02
3.000000e-08	-3.970773e-06	-3.391106e-09	-5.696133e+01	-2.287207e+02
4.000000e-08	-3.968456e-06	-3.388721e-09	-5.692808e+01	-2.286214e+02
5.000000e-08	-3.965276e-06	-3.384836e-09	-5.688246e+01	-2.285031e+02
6.000000e-08	-3.961582e-06	-3.382002e-09	-5.682947e+01	-2.283704e+02
7.000000e-08	-3.957375e-06	-3.382769e-09	-5.676913e+01	-2.282284e+02
8.000000e-08	-3.952498e-06	-3.394009e-09	-5.669916e+01	-2.280825e+02
9.000000e-08	-3.946788e-06	-3.399573e-09	-5.661726e+01	-2.279383e+02
1.000000e-07	-3.940200e-06	-3.383141e-09	-5.652275e+01	-2.278006e+02
1.100000e-07	-3.932902e-06	-3.347614e-09	-5.641805e+01	-2.276740e+02
1.200000e-07	-3.925174e-06	-3.366847e-09	-5.630721e+01	-2.275616e+02
1.300000e-07	-3.917004e-06	-3.381695e-09	-5.618999e+01	-2.274657e+02
1.400000e-07	-3.908029e-06	-3.359567e-09	-5.606125e+01	-2.273867e+02
1.500000e-07	-3.898205e-06	-3.374383e-09	-5.592033e+01	-2.273238e+02
1.600000e-07	-3.887668e-06	-3.398425e-09	-5.576917e+01	-2.272745e+02
1.700000e-07	-3.876122e-06	-3.385580e-09	-5.560354e+01	-2.272347e+02
1.800000e-07	-3.863635e-06	-3.369185e-09	-5.542441e+01	-2.271993e+02
1.900000e-07	-3.850695e-06	-3.442753e-09	-5.523879e+01	-2.271619e+02
2.000000e-07	-3.836994e-06	-3.397985e-09	-5.504224e+01	-2.271154e+02
2.100000e-07	-3.821923e-06	-3.365567e-09	-5.482605e+01	-2.270523e+02
2.200000e-07	-3.805904e-06	-3.476319e-09	-5.459625e+01	-2.269654e+02
2.300000e-07	-3.789526e-06	-3.523633e-09	-5.436131e+01	-2.268475e+02
2.400000e-07	-3.772607e-06	-3.485582e-09	-5.411860e+01	-2.266927e+02
2.500000e-07	-3.754924e-06	-3.501473e-09	-5.386493e+01	-2.264957e+02
2.600000e-07	-3.736618e-06	-3.585946e-09	-5.360234e+01	-2.262531e+02
2.700000e-07	-3.717734e-06	-3.537926e-09	-5.333145e+01	-2.259626e+02
2.800000e-07	-3.698292e-06	-3.522086e-09	-5.305254e+01	-2.256237e+02
2.900000e-07	-3.678392e-06	-3.553618e-09	-5.276708e+01	-2.252376e+02
3.000000e-07	-3.657922e-06	-3.541614e-09	-5.247343e+01	-2.248067e+02
3.100000e-07	-3.636776e-06	-3.519052e-09	-5.217008e+01	-2.243348e+02
3.200000e-07	-3.614912e-06	-3.503724e-09	-5.185644e+01	-2.238268e+02
3.300000e-07	-3.592419e-06	-3.525965e-09	-5.153378e+01	-2.232880e+02
3.400000e-07	-3.569377e-06	-3.517354e-09	-5.120324e+01	-2.227242e+02
3.500000e-07	-3.545793e-06	-3.467496e-09	-5.086492e+01	-2.221410e+02
3.600000e-07	-3.521683e-06	-3.468438e-09	-5.051906e+01	-2.215434e+02
3.700000e-07	-3.496993e-06	-3.506820e-09	-5.016488e+01	-2.209361e+02
3.800000e-07	-3.471435e-06	-3.462045e-09	-4.979824e+01	-2.203225e+02
3.900000e-07	-3.444789e-06	-3.424791e-09	-4.941600e+01	-2.197049e+02
4.000000e-07	-3.417414e-06	-3.461276e-09	-4.902331e+01	-2.190844e+02
4.100000e-07	-3.389703e-06	-3.446669e-09	-4.862579e+01	-2.184607e+02
4.200000e-07	-3.361501e-06	-3.389775e-09	-4.822123e+01	-2.178326e+02
4.300000e-07	-3.332637e-06	-3.418770e-09	-4.780716e+01	-2.171976e+02
4.400000e-07	-3.303261e-06	-3.428228e-09	-4.738577e+01	-2.165526e+02
4.500000e-07	-3.273406e-06	-3.367991e-09	-4.695748e+01	-2.158939e+02
4.600000e-07	-3.242990e-06	-3.358713e-09	-4.652117e+01	-2.152173e+02
4.700000e-07	-3.211953e-06	-3.380355e-09	-4.607594e+01	-2.145190e+02
4.800000e-07	-3.180471e-06	-3.365477e-09	-4.562432e+01	-2.137951e+02
4.900000e-07	-3.148690e-06	-3.322185e-09	-4.516843e+01	-2.130424e+02
5.000000e-07	-3.116517e-06	-3.310997e-09	-4.470689e+01	-2.122583e+02
5.100000e-07	-3.083697e-06	-3.325256e-09	-4.423609e+01	-2.114411e+02
5.200000e-07	-3.049973e-06	-3.306472e-09	-4.375230e+01	-2.105896e+02
5.300000e-07	-3.015357e-06	-3.275462e-09	-4.325574e+01	-2.097038e+02
5.400000e-07	-2.980118e-06	-3.266387e-09	-4.275023e+01	-2.087843e+02
5.500000e-07	-2.944550e-06	-3.262602e-09	-4.224001e+01	-2.078322e+02
5.600000e-07	-2.908636e-06	-3.241703e-09	-4.172481e+01	-2.068491e+02
5.700000e-07	-2.872270e-06	-3.221124e-09	-4.120313e+01	-2.058369e+02
5.800000e-07	-2.835426e-06	-3.215418e-09	-4.067461e+01	-2.047973e+02
5.900000e-07	-2.798097e-06	-3.187459e-09	-4.013911e+01	-2.037321e+02
6.000000e-07	-2.760269e-06	-3.167496e-09	-3.959646e+01	-2.026425e+02
6.100000e-07	-2.721842e-06	-3.169987e-09	-3.904522e+01	-2.015294e+02
6.200000e-07	-2.682874e-06	-3.147098e-09	-3.848622e+01	-2.003929e+02
6.300000e-07	-2.643583e-06	-3.114728e-09	-3.792259e+01	-1.992327e+02
6.400000e-07	-2.604052e-06	-3.100637e-09	-3.735551e+01	-1.980478e+02
6.500000e-07	-2.564209e-06	-3.093719e-09	-3.678396e+01	-1.968367e+02
6.600000e-07	-2.523914e-06	-3.067605e-09	-3.620592e+01	-1.955973e+02
6.700000e-07	-2.483025e-06	-3.035541e-09	-3.561936e+01	-1.943274e+02
6.800000e-07	-2.441404e-06	-3.022603e-09	-3.502230e+01	-1.930246e+02
6.900000e-07	-2.399058e-06	-3.008091e-09	-3.441485e+01	-1.916865e+02
7.000000e-07	-2.356152e-06	-2.984008e-09	-3.379935e+01	-1.903110e+02
7.100000e-07	-2.312826e-06	-2.955791e-09	-3.317783e+01	-1.888962e+02
7.200000e-07	-2.269204e-06	-2.931228e-09	-3.255206e+01	-1.874408e+02
7.300000e-07	-2.225326e-06	-2.914646e-09	-3.192263e+01	-1.859437e+02
7.400000e-07	-2.181094e-06	-2.887445e-09	-3.128811e+01	-1.844047e+02
7.500000e-07	-2.136410e-06	-2.859064e-09	-3.064711e+01	-1.828238e+02
7.600000e-07	-2.091300e-06	-2.833531e-09	-3.000000e+01	-1.812016e+02
7.700000e-07	-2.045854e-06	-2.804218e-09	-2.934807e+01	-1.795389e+02
7.800000e-07	-2.000072e-06	-2.777627e-09	-2.869132e+01	-1.778366e+02
7.900000e-07	-1.953977e-06	-2.750079e-09	-2.803009e+01	-1.760959e+02
8.000000e-07	-1.907622e-06	-2.720533e-09	-2.736512e+01	-1.743176e+02
8.100000e-07	-1.860948e-06	-2.687484e-09	-2.669557e+01	-1.725022e+02
8.200000e-07	-1.813865e-06	-2.663555e-09	-2.602016e+01	-1.706501e+02
8.300000e-07	-1.766471e-06	-2.641898e-09	-2.534028e+01	-1.687608e+02
8.400000e-07	-1.718909e-06	-2.603610e-09	-2.465800e+01	-1.668335e+02
8.500000e-07	-1.671193e-06	-2.568001e-09	-2.397351e+01	-1.648668e+02
8.600000e-07	-1.623239e-06	-2.540484e-09	-2.328560e+01	-1.628586e+02
8.700000e-07	-1.574941e-06	-2.509809e-09	-2.259276e+01	-1.608062e+02
8.800000e-07	-1.526189e-06	-2.472026e-09	-2.189340e+01	-1.587067e+02
8.900000e-07	-1.476953e-06	-2.433632e-09	-2.118711e+01	-1.565568e+02
9.000000e-07	-1.427360e-06	-2.403212e-09	-2.047569e+01	-1.543528e+02
9.100000e-07	-1.377460e-06	-2.367812e-09	-1.975986e+01	-1.520910e+02
9.200000e-07	-1.327103e-06	-2.325774e-09	-1.903749e+01	-1.497678e+02
9.300000e-07	-1.276233e-06	-2.286091e-09	-1.830775e+01	-1.473795e+02
9.400000e-07	-1.225083e-06	-2.247936e-09	-1.757400e+01	-1.449226e+02
9.500000e-07	-1.173758e-06	-2.208470e-09	-1.683773e+01	-1.423938e+02
9.600000e-07	-1.122210e-06	-2.162836e-09	-1.609827e+01	-1.397898e+02
9.700000e-07	-1.070485e-06	-2.119711e-09	-1.535626e+01	-1.371074e+02
9.800000e-07	-1.018611e-06	-2.078355e-09	-1.461213e+01	-1.343436e+02
9.900000e-07	-9.666029e-07	-2.032736e-09	-1.386606e+01	-1.314949e+02
1.000000e-06	-9.144345e-07	-1.986703e-09	-1.311770e+01	-1.285580e+02
1.010000e-06	-8.620368e-07	-1.935915e-09	-1.236604e+01	-1.255292e+02
1.020000e-06	-8.093918e-07	-1.886114e-09	-1.161084e+01	-1.224042e+02
1.030000e-06	-7.565355e-07	-1.838165e-09	-1.085261e+01	-1.191784e+02
1.040000e-06	-7.035283e-07	-1.785075e-09	-1.009222e+01	-1.158468e+02
1.050000e-06	-6.503805e-07	-1.726327e-09	-9.329804e+00	-1.124037e+02
1.060000e-06	-5.971048e-07	-1.666596e-09	-8.565556e+00	-1.088434e+02
1.070000e-06	-5.437633e-07	-1.613526e-09	-7.800364e+00	-1.051595e+02
1.080000e-06	-4.903698e-07	-1.556668e-09	-7.034428e+00	-1.013457e+02
1.090000e-06	-4.368756e-07	-1.491149e-09	-6.267045e+00	-9.739585e+01
1.100000e-06	-3.833351e-07	-1.423855e-09	-5.498998e+00	-9.330402e+01
1.110000e-06	-3.298160e-07	-1.357174e-09	-4.731259e+00	-8.906490e+01
1.120000e-06	-2.762390e-07	-1.292676e-09	-3.962689e+00	-8.467404e+01
1.130000e-06	-2.225855e-07	-1.221908e-09	-3.193021e+00	-8.012810e+01
1.140000e-06	-1.689116e-07	-1.145471e-09	-2.423061e+00	-7.542503e+01
1.150000e-06	-1.152331e-07	-1.071131e-09	-1.653035e+00	-7.056434e+01
1.160000e-06	-6.152423e-08	-9.967139e-10	-8.825741e-01	-6.554715e+01
1.170000e-06	-7.795031e-09	-9.199355e-10	-1.118209e-01	-6.037635e+01
1.180000e-06	4.588989e-08	-8.378572e-10	6.582972e-01	-5.505660e+01
1.190000e-06	9.954923e-08	-7.522713e-10	1.428048e+00	-4.959430e+01
1.200000e-06	1.532321e-07	-6.670239e-10	2.198136e+00	-4.399749e+01
1.210000e-06	2.068672e-07	-5.807100e-10	2.967540e+00	-3.827575e+01
1.220000e-06	2.604424e-07	-4.926757e-10	3.736084e+00	-3.243997e+01
1.230000e-06	3.139684e-07	-3.996049e-10	4.503923e+00	-2.650222e+01
1.240000e-06	3.674172e-07	-3.061971e-10	5.270654e+00	-2.047545e+01
1.250000e-06	4.208039e-07	-2.152720e-10	6.036495e+00	-1.437334e+01
1.260000e-06	4.741064e-07	-1.219843e-10	6.801126e+00	-8.210037e+00
1.270000e-06	5.272972e-07	-2.929299e-11	7.564156e+00	-2.000003e+00
1.280000e-06	5.803730e-07	6.606817e-11	8.325537e+00	4.242184e+00
1.290000e-06	6.333014e-07	1.631413e-10	9.084801e+00	1.050195e+01
1.300000e-06	6.860755e-07	2.600444e-10	9.841854e+00	1.676483e+01
1.310000e-06	7.387476e-07	3.564164e-10	1.059744e+01	2.301654e+01
1.320000e-06	7.912894e-07	4.511515e-10	1.135116e+01	2.924304e+01
1.330000e-06	8.436967e-07	5.474273e-10	1.210295e+01	3.543057e+01
1.340000e-06	8.960099e-07	6.416309e-10	1.285339e+01	4.156563e+01
1.350000e-06	9.481257e-07	7.344555e-10	1.360100e+01	4.763508e+01
1.360000e-06	1.000033e-06	8.266342e-10	1.434562e+01	5.362610e+01
1.370000e-06	1.051784e-06	9.180172e-10	1.508800e+01	5.952631e+01
1.380000e-06	1.103368e-06	1.008613e-09	1.582797e+01	6.532380e+01
1.390000e-06	1.154753e-06	1.095993e-09	1.656510e+01	7.100725e+01
1.400000e-06	1.205965e-06	1.180712e-09	1.729974e+01	7.656606e+01
1.410000e-06	1.257060e-06	1.264643e-09	1.803271e+01	8.199049e+01
1.420000e-06	1.307868e-06	1.347197e-09	1.876156e+01	8.727183e+01
1.430000e-06	1.358204e-06	1.427129e-09	1.948363e+01	9.240257e+01
1.440000e-06	1.408081e-06	1.503389e-09	2.019914e+01	9.737658e+01
1.450000e-06	1.457531e-06	1.577703e-09	2.090850e+01	1.021892e+02
1.460000e-06	1.506581e-06	1.649858e-09	2.161213e+01	1.068375e+02
1.470000e-06	1.555218e-06	1.719358e-09	2.230983e+01	1.113200e+02
1.480000e-06	1.603455e-06	1.786586e-09	2.300179e+01	1.156373e+02
1.490000e-06	1.651414e-06	1.850551e-09	2.368978e+01	1.197914e+02
1.500000e-06	1.699130e-06	1.912456e-09	2.437427e+01	1.237859e+02
1.510000e-06	1.746627e-06	1.970604e-09	2.505563e+01	1.276259e+02
1.520000e-06	1.793967e-06	2.026328e-09	2.573472e+01	1.313177e+02
1.530000e-06	1.841087e-06	2.082605e-09	2.641067e+01	1.348685e+02
1.540000e-06	1.887821e-06	2.139171e-09	2.708106e+01	1.382862e+02
1.550000e-06	1.934119e-06	2.191810e-09	2.774523e+01	1.415788e+02
1.560000e-06	1.980050e-06	2.239095e-09	2.840412e+01	1.447547e+02
1.570000e-06	2.025630e-06	2.285700e-09	2.905796e+01	1.478217e+02
1.580000e-06	2.070875e-06	2.332957e-09	2.970700e+01	1.507871e+02
1.590000e-06	2.115782e-06	2.377280e-09	3.035120e+01	1.536575e+02
1.600000e-06	2.160281e-06	2.418280e-09	3.098954e+01	1.564386e+02
1.610000e-06	2.204401e-06	2.458510e-09	3.162245e+01	1.591349e+02
1.620000e-06	2.248240e-06	2.500223e-09	3.225134e+01	1.617500e+02
1.630000e-06	2.291908e-06	2.542243e-09	3.287776e+01	1.642864e+02
1.640000e-06	2.335383e-06	2.580234e-09	3.350141e+01	1.667459e+02
1.650000e-06	2.378497e-06	2.614196e-09	3.411989e+01	1.691295e+02
1.660000e-06	2.421038e-06	2.648055e-09	3.473015e+01	1.714375e+02
1.670000e-06	2.462857e-06	2.682532e-09	3.533004e+01	1.736702e+02
1.680000e-06	2.503907e-06	2.713774e-09	3.591891e+01	1.758278e+02
1.690000e-06	2.544276e-06	2.742355e-09	3.649801e+01	1.779104e+02
1.700000e-06	2.584217e-06	2.772613e-09	3.707098e+01	1.799190e+02
1.710000e-06	2.623878e-06	2.802992e-09	3.763992e+01	1.818546e+02
1.720000e-06	2.663274e-06	2.830750e-09	3.820506e+01	1.837191e+02
1.730000e-06	2.702253e-06	2.857249e-09	3.876422e+01	1.855151e+02
1.740000e-06	2.740717e-06	2.884357e-09	3.931599e+01	1.872457e+02
1.750000e-06	2.778711e-06	2.912790e-09	3.986102e+01	1.889146e+02
1.760000e-06	2.816246e-06	2.939279e-09	4.039947e+01	1.905259e+02
1.770000e-06	2.853278e-06	2.963131e-09	4.093070e+01	1.920841e+02
1.780000e-06	2.889773e-06	2.985510e-09	4.145422e+01	1.935935e+02
1.790000e-06	2.925822e-06	3.007855e-09	4.197135e+01	1.950584e+02
1.800000e-06	2.961580e-06	3.031334e-09	4.248431e+01	1.964827e+02
1.810000e-06	2.997056e-06	3.053180e-09	4.299321e+01	1.978697e+02
1.820000e-06	3.032159e-06	3.073572e-09	4.349676e+01	1.992221e+02
1.830000e-06	3.066576e-06	3.094635e-09	4.399049e+01	2.005417e+02
1.840000e-06	3.099983e-06	3.116521e-09	4.446972e+01	2.018295e+02
1.850000e-06	3.132546e-06	3.137342e-09	4.493683e+01	2.030857e+02
1.860000e-06	3.164567e-06	3.155948e-09	4.539617e+01	2.043098e+02
1.870000e-06	3.196192e-06	3.174207e-09	4.584985e+01	2.055005e+02
1.880000e-06	3.227430e-06	3.193338e-09	4.629796e+01	2.066564e+02
1.890000e-06	3.258193e-06	3.211298e-09	4.673926e+01	2.077755e+02
1.900000e-06	3.288324e-06	3.227131e-09	4.717149e+01	2.088560e+02
1.910000e-06	3.317803e-06	3.243653e-09	4.759438e+01	2.098962e+02
1.920000e-06	3.346666e-06	3.261590e-09	4.800842e+01	2.108946e+02
1.930000e-06	3.374910e-06	3.276256e-09	4.841358e+01	2.118504e+02
1.940000e-06	3.402744e-06	3.289334e-09	4.881286e+01	2.127635e+02
1.950000e-06	3.430282e-06	3.303567e-09	4.920790e+01	2.136342e+02
1.960000e-06	3.457310e-06	3.318812e-09	4.959563e+01	2.144637e+02
1.970000e-06	3.483543e-06	3.333575e-09	4.997194e+01	2.152539e+02
1.980000e-06	3.508757e-06	3.345559e-09	5.033364e+01	2.160072e+02
1.990000e-06	3.533048e-06	3.358428e-09	5.068209e+01	2.167263e+02
2.000000e-06	3.556773e-06	3.373019e-09	5.102243e+01	2.174142e+02
2.010000e-06	3.579969e-06	3.385808e-09	5.135518e+01	2.180741e+02
2.020000e-06	3.602540e-06	3.395028e-09	5.167897e+01	2.187089e+02
2.030000e-06	3.624523e-06	3.403850e-09	5.199431e+01	2.193213e+02
2.040000e-06	3.645954e-06	3.414979e-09	5.230175e+01	2.199137e+02
2.050000e-06	3.666746e-06	3.426149e-09	5.260001e+01	2.204876e+02
2.060000e-06	3.686890e-06	3.435942e-09	5.288898e+01	2.210443e+02
2.070000e-06	3.706598e-06	3.444634e-09	5.317170e+01	2.215842e+02
2.080000e-06	3.725870e-06	3.454636e-09	5.344815e+01	2.221074e+02
2.090000e-06	3.744562e-06	3.465783e-09	5.371629e+01	2.226132e+02
2.100000e-06	3.762533e-06	3.473980e-09	5.397409e+01	2.231010e+02
2.110000e-06	3.779804e-06	3.481074e-09	5.422184e+01	2.235695e+02
2.120000e-06	3.796504e-06	3.489578e-09	5.446141e+01	2.240177e+02
2.130000e-06	3.812591e-06	3.497794e-09	5.469217e+01	2.244445e+02
2.140000e-06	3.827864e-06	3.504480e-09	5.491128e+01	2.248491e+02
2.150000e-06	3.842273e-06	3.510859e-09	5.511797e+01	2.252312e+02
2.160000e-06	3.855971e-06	3.519401e-09	5.531447e+01	2.255907e+02
2.170000e-06	3.868961e-06	3.528402e-09	5.550082e+01	2.259280e+02
2.180000e-06	3.881229e-06	3.536777e-09	5.567679e+01	2.262440e+02
2.190000e-06	3.892821e-06	3.544816e-09	5.584309e+01	2.265400e+02
2.200000e-06	3.903622e-06	3.551746e-09	5.599803e+01	2.268174e+02
2.210000e-06	3.913478e-06	3.558485e-09	5.613942e+01	2.270778e+02
2.220000e-06	3.922332e-06	3.565540e-09	5.626643e+01	2.273227e+02
2.230000e-06	3.930390e-06	3.571915e-09	5.638203e+01	2.275534e+02
2.240000e-06	3.937899e-06	3.577016e-09	5.648974e+01	2.277709e+02
2.250000e-06	3.944836e-06	3.581336e-09	5.658925e+01	2.279756e+02
2.260000e-06	3.951115e-06	3.585708e-09	5.667932e+01	2.281674e+02
2.270000e-06	3.956644e-06	3.588983e-09	5.675863e+01	2.283457e+02
2.280000e-06	3.961482e-06	3.591317e-09	5.682804e+01	2.285091e+02
2.290000e-06	3.965728e-06	3.594385e-09	5.688895e+01	2.286559e+02
2.300000e-06	3.969450e-06	3.597455e-09	5.694235e+01	2.287839e+02
2.310000e-06	3.972537e-06	3.600282e-09	5.698663e+01	2.288907e+02
2.320000e-06	3.974758e-06	3.603427e-09	5.701849e+01	2.289741e+02
2.330000e-06	3.976000e-06	3.606406e-09	5.703631e+01	2.290318e+02
2.340000e-06	3.976362e-06	3.609400e-09	5.704150e+01	2.290623e+02
2.350000e-06	3.976140e-06	3.609883e-09	5.703831e+01	2.290646e+02
2.360000e-06	3.975394e-06	3.610705e-09	5.702761e+01	2.290386e+02
2.370000e-06	3.974003e-06	3.612487e-09	5.700765e+01	2.289852e+02
2.380000e-06	3.971922e-06	3.612190e-09	5.697781e+01	2.289064e+02
2.390000e-06	3.969261e-06	3.610173e-09	5.693963e+01	2.288050e+02
2.400000e-06	3.965974e-06	3.608551e-09	5.689247e+01	2.286851e+02
2.410000e-06	3.962068e-06	3.612113e-09	5.683645e+01	2.285512e+02
2.420000e-06	3.957788e-06	3.606095e-09	5.677505e+01	2.284085e+02
2.430000e-06	3.953007e-06	3.586825e-09	5.670647e+01	2.282626e+02
2.440000e-06	3.947193e-06	3.592849e-09	5.662307e+01	2.281188e+02
2.450000e-06	3.940026e-06	3.627527e-09	5.652026e+01	2.279821e+02
2.460000e-06	3.931939e-06	3.605840e-09	5.640424e+01	2.278567e+02
2.470000e-06	3.923595e-06	3.596360e-09	5.628455e+01	2.277459e+02
2.480000e-06	3.914951e-06	3.595884e-09	5.616055e+01	2.276517e+02
2.490000e-06	3.905410e-06	3.586201e-09	5.602368e+01	2.275744e+02
2.500000e-06	3.894979e-06	3.537421e-09	5.587405e+01	2.275130e+02
2.510000e-06	3.884255e-06	3.553476e-09	5.572021e+01	2.274648e+02
2.520000e-06	3.873008e-06	3.570711e-09	5.555886e+01	2.274258e+02
2.530000e-06	3.860494e-06	3.474260e-09	5.537936e+01	2.273905e+02
2.540000e-06	3.847132e-06	3.500398e-09	5.518768e+01	2.273525e+02
2.550000e-06	3.833587e-06	3.549428e-09	5.499337e+01	2.273046e+02
2.560000e-06	3.819225e-06	3.471388e-09	5.478735e+01	2.272395e+02
2.570000e-06	3.803654e-06	3.397414e-09	5.456397e+01	2.271498e+02
2.580000e-06	3.787366e-06	3.478705e-09	5.433033e+01	2.270285e+02
2.590000e-06	3.770525e-06	3.450523e-09	5.408874e+01	2.268696e+02
2.600000e-06	3.752947e-06	3.316765e-09	5.383657e+01	2.266683e+02
2.610000e-06	3.734673e-06	3.355045e-09	5.357444e+01	2.264209e+02
2.620000e-06	3.715754e-06	3.370278e-09	5.330303e+01	2.261256e+02
2.630000e-06	3.696190e-06	3.277642e-09	5.302238e+01	2.257819e+02
2.640000e-06	3.676124e-06	3.265691e-09	5.273454e+01	2.253911e+02
2.650000e-06	3.655618e-06	3.320310e-09	5.244038e+01	2.249560e+02
2.660000e-06	3.634539e-06	3.293251e-09	5.213800e+01	2.244803e+02
2.670000e-06	3.612572e-06	3.250575e-09	5.182287e+01	2.239689e+02
2.680000e-06	3.589498e-06	3.261857e-09	5.149187e+01	2.234274e+02
2.690000e-06	3.565608e-06	3.273946e-09	5.114917e+01	2.228614e+02
2.700000e-06	3.541230e-06	3.276656e-09	5.079946e+01	2.222765e+02
2.710000e-06	3.516200e-06	3.220225e-09	5.044040e+01	2.216778e+02
2.720000e-06	3.490541e-06	3.229464e-09	5.007232e+01	2.210697e+02
2.730000e-06	3.464508e-06	3.279579e-09	4.969887e+01	2.204556e+02
2.740000e-06	3.437885e-06	3.199021e-09	4.931696e+01	2.198377e+02
2.750000e-06	3.410459e-06	3.191275e-09	4.892354e+01	2.192169e+02
2.760000e-06	3.382526e-06	3.255687e-09	4.852284e+01	2.185928e+02
2.770000e-06	3.354252e-06	3.196048e-09	4.811723e+01	2.179642e+02
2.780000e-06	3.325407e-06	3.160348e-09	4.770345e+01	2.173283e+02
2.790000e-06	3.295796e-06	3.205232e-09	4.727868e+01	2.166822e+02
2.800000e-06	3.265411e-06	3.203767e-09	4.684281e+01	2.160218e+02
2.810000e-06	3.234301e-06	3.161505e-09	4.639652e+01	2.153433e+02
2.820000e-06	3.202571e-06	3.141199e-09	4.594135e+01	2.146425e+02
2.830000e-06	3.170390e-06	3.168361e-09	4.547971e+01	2.139159e+02
2.840000e-06	3.137803e-06	3.162155e-09	4.501225e+01	2.131602e+02
2.850000e-06	3.104653e-06	3.113915e-09	4.453671e+01	2.123729e+02
2.860000e-06	3.070925e-06	3.106709e-09	4.405288e+01	2.115522e+02
2.870000e-06	3.036778e-06	3.120329e-09	4.356302e+01	2.106973e+02
2.880000e-06	3.002148e-06	3.102004e-09	4.306626e+01	2.098081e+02
2.890000e-06	2.966892e-06	3.069255e-09	4.256050e+01	2.088853e+02
2.900000e-06	2.931078e-06	3.066222e-09	4.204675e+01	2.079300e+02
2.910000e-06	2.894951e-06	3.062754e-09	4.152850e+01	2.069439e+02
2.920000e-06	2.858547e-06	3.038702e-09	4.100628e+01	2.059289e+02
2.930000e-06	2.821660e-06	3.032045e-09	4.047713e+01	2.048867e+02
2.940000e-06	2.784115e-06	3.025686e-09	3.993853e+01	2.038189e+02
2.950000e-06	2.745768e-06	2.996177e-09	3.938844e+01	2.027270e+02
