# Temperatura_=_20.0
# Concentracion g/m^3_=_9000.0
# C_Vs_to_Am_M_A/Vsm_=_65563218390.804596
# pendiente_HvsI_1/m_=_3716.3
# ordenada_HvsI_A/m_=_1297.0
# frecuencia_Hz_=_212862.79736077134

Tiempo_(s)	Campo_(V.s)	Magnetizacion_(V.s)	Campo_(kA/m)	Magnetizacion_(A/m)
0.000000e+00	-3.984050e-06	-3.411915e-09	-5.698561e+01	-2.300782e+02
1.000000e-08	-3.983880e-06	-3.413389e-09	-5.698318e+01	-2.300625e+02
2.000000e-08	-3.982959e-06	-3.412288e-09	-5.697000e+01	-2.300202e+02
3.000000e-08	-3.981042e-06	-3.410511e-09	-5.694258e+01	-2.299523e+02
4.000000e-08	-3.978174e-06	-3.409248e-09	-5.690156e+01	-2.298608e+02
5.000000e-08	-3.974639e-06	-3.408567e-09	-5.685100e+01	-2.297485e+02
6.000000e-08	-3.970609e-06	-3.410043e-09	-5.679336e+01	-2.296189e+02
7.000000e-08	-3.965979e-06	-3.416061e-09	-5.672713e+01	-2.294758e+02
8.000000e-08	-3.960651e-06	-3.409374e-09	-5.665093e+01	-2.293233e+02
9.000000e-08	-3.954470e-06	-3.391065e-09	-5.656252e+01	-2.291654e+02
1.000000e-07	-3.947433e-06	-3.393905e-09	-5.646186e+01	-2.290058e+02
1.100000e-07	-3.939837e-06	-3.432423e-09	-5.635322e+01	-2.288477e+02
1.200000e-07	-3.931861e-06	-3.411467e-09	-5.623913e+01	-2.286933e+02
1.300000e-07	-3.923207e-06	-3.342447e-09	-5.611535e+01	-2.285440e+02
1.400000e-07	-3.913736e-06	-3.377595e-09	-5.597987e+01	-2.284000e+02
1.500000e-07	-3.903549e-06	-3.464405e-09	-5.583417e+01	-2.282603e+02
1.600000e-07	-3.892408e-06	-3.437327e-09	-5.567481e+01	-2.281227e+02
1.700000e-07	-3.880215e-06	-3.401269e-09	-5.550041e+01	-2.279843e+02
1.800000e-07	-3.867405e-06	-3.438642e-09	-5.531719e+01	-2.278409e+02
1.900000e-07	-3.854203e-06	-3.431324e-09	-5.512836e+01	-2.276880e+02
2.000000e-07	-3.839920e-06	-3.433667e-09	-5.492406e+01	-2.275205e+02
2.100000e-07	-3.824287e-06	-3.505186e-09	-5.470045e+01	-2.273333e+02
2.200000e-07	-3.807941e-06	-3.487451e-09	-5.446665e+01	-2.271217e+02
2.300000e-07	-3.791092e-06	-3.431987e-09	-5.422565e+01	-2.268813e+02
2.400000e-07	-3.773660e-06	-3.540216e-09	-5.397631e+01	-2.266087e+02
2.500000e-07	-3.755694e-06	-3.613327e-09	-5.371934e+01	-2.263011e+02
2.600000e-07	-3.737102e-06	-3.507221e-09	-5.345340e+01	-2.259573e+02
2.700000e-07	-3.717893e-06	-3.484636e-09	-5.317865e+01	-2.255768e+02
2.800000e-07	-3.698172e-06	-3.589050e-09	-5.289657e+01	-2.251607e+02
2.900000e-07	-3.677888e-06	-3.579403e-09	-5.260644e+01	-2.247108e+02
3.000000e-07	-3.656976e-06	-3.515978e-09	-5.230733e+01	-2.242300e+02
3.100000e-07	-3.635399e-06	-3.516694e-09	-5.199871e+01	-2.237218e+02
3.200000e-07	-3.613171e-06	-3.520647e-09	-5.168077e+01	-2.231903e+02
3.300000e-07	-3.590322e-06	-3.518241e-09	-5.135394e+01	-2.226395e+02
3.400000e-07	-3.566953e-06	-3.522811e-09	-5.101969e+01	-2.220736e+02
3.500000e-07	-3.543082e-06	-3.507280e-09	-5.067825e+01	-2.214960e+02
3.600000e-07	-3.518621e-06	-3.454007e-09	-5.032838e+01	-2.209097e+02
3.700000e-07	-3.493459e-06	-3.447723e-09	-4.996847e+01	-2.203168e+02
3.800000e-07	-3.467229e-06	-3.508285e-09	-4.959329e+01	-2.197185e+02
3.900000e-07	-3.440009e-06	-3.480556e-09	-4.920395e+01	-2.191150e+02
4.000000e-07	-3.412321e-06	-3.388905e-09	-4.880792e+01	-2.185053e+02
4.100000e-07	-3.384273e-06	-3.412160e-09	-4.840674e+01	-2.178877e+02
4.200000e-07	-3.355645e-06	-3.471589e-09	-4.799726e+01	-2.172595e+02
4.300000e-07	-3.326422e-06	-3.421506e-09	-4.757928e+01	-2.166177e+02
4.400000e-07	-3.296731e-06	-3.366998e-09	-4.715459e+01	-2.159585e+02
4.500000e-07	-3.266531e-06	-3.381778e-09	-4.672263e+01	-2.152784e+02
4.600000e-07	-3.235731e-06	-3.386513e-09	-4.628207e+01	-2.145737e+02
4.700000e-07	-3.204354e-06	-3.371269e-09	-4.583328e+01	-2.138411e+02
4.800000e-07	-3.172646e-06	-3.351687e-09	-4.537975e+01	-2.130778e+02
4.900000e-07	-3.140645e-06	-3.319578e-09	-4.492202e+01	-2.122818e+02
5.000000e-07	-3.108097e-06	-3.314148e-09	-4.445647e+01	-2.114517e+02
5.100000e-07	-3.074692e-06	-3.327389e-09	-4.397866e+01	-2.105869e+02
5.200000e-07	-3.040260e-06	-3.303516e-09	-4.348618e+01	-2.096876e+02
5.300000e-07	-3.005116e-06	-3.260971e-09	-4.298349e+01	-2.087546e+02
5.400000e-07	-2.969614e-06	-3.252946e-09	-4.247569e+01	-2.077894e+02
5.500000e-07	-2.933811e-06	-3.262803e-09	-4.196358e+01	-2.067937e+02
5.600000e-07	-2.897628e-06	-3.243175e-09	-4.144604e+01	-2.057695e+02
5.700000e-07	-2.860934e-06	-3.204481e-09	-4.092120e+01	-2.047189e+02
5.800000e-07	-2.823709e-06	-3.181678e-09	-4.038875e+01	-2.036436e+02
5.900000e-07	-2.786010e-06	-3.184288e-09	-3.984953e+01	-2.025453e+02
6.000000e-07	-2.747767e-06	-3.180535e-09	-3.930251e+01	-2.014248e+02
6.100000e-07	-2.708952e-06	-3.142515e-09	-3.874733e+01	-2.002826e+02
6.200000e-07	-2.669731e-06	-3.109497e-09	-3.818633e+01	-1.991187e+02
6.300000e-07	-2.630207e-06	-3.108213e-09	-3.762100e+01	-1.979323e+02
6.400000e-07	-2.590398e-06	-3.101279e-09	-3.705160e+01	-1.967221e+02
6.500000e-07	-2.550204e-06	-3.069170e-09	-3.647668e+01	-1.954864e+02
6.600000e-07	-2.509409e-06	-3.036967e-09	-3.589318e+01	-1.942230e+02
6.700000e-07	-2.467939e-06	-3.023130e-09	-3.530002e+01	-1.929298e+02
6.800000e-07	-2.425739e-06	-3.014179e-09	-3.469640e+01	-1.916044e+02
6.900000e-07	-2.382832e-06	-2.996435e-09	-3.408269e+01	-1.902446e+02
7.000000e-07	-2.339474e-06	-2.963640e-09	-3.346252e+01	-1.888483e+02
7.100000e-07	-2.295843e-06	-2.928721e-09	-3.283845e+01	-1.874139e+02
7.200000e-07	-2.251966e-06	-2.918148e-09	-3.221085e+01	-1.859400e+02
7.300000e-07	-2.207777e-06	-2.910300e-09	-3.157881e+01	-1.844258e+02
7.400000e-07	-2.163225e-06	-2.874034e-09	-3.094155e+01	-1.828707e+02
7.500000e-07	-2.118258e-06	-2.832888e-09	-3.029837e+01	-1.812746e+02
7.600000e-07	-2.072863e-06	-2.814368e-09	-2.964906e+01	-1.796377e+02
7.700000e-07	-2.027121e-06	-2.802369e-09	-2.899481e+01	-1.779604e+02
7.800000e-07	-1.981020e-06	-2.773043e-09	-2.833539e+01	-1.762429e+02
7.900000e-07	-1.934569e-06	-2.734311e-09	-2.767098e+01	-1.744856e+02
8.000000e-07	-1.887784e-06	-2.704415e-09	-2.700181e+01	-1.726886e+02
8.100000e-07	-1.840695e-06	-2.685437e-09	-2.632826e+01	-1.708519e+02
8.200000e-07	-1.793397e-06	-2.662891e-09	-2.565174e+01	-1.689747e+02
8.300000e-07	-1.745880e-06	-2.623655e-09	-2.497208e+01	-1.670563e+02
8.400000e-07	-1.698122e-06	-2.583155e-09	-2.428899e+01	-1.650952e+02
8.500000e-07	-1.650133e-06	-2.557681e-09	-2.360257e+01	-1.630895e+02
8.600000e-07	-1.601804e-06	-2.533929e-09	-2.291131e+01	-1.610370e+02
8.700000e-07	-1.553117e-06	-2.498018e-09	-2.221492e+01	-1.589351e+02
8.800000e-07	-1.504000e-06	-2.456254e-09	-2.151238e+01	-1.567809e+02
8.900000e-07	-1.454384e-06	-2.420907e-09	-2.080269e+01	-1.545715e+02
9.000000e-07	-1.404379e-06	-2.389719e-09	-2.008745e+01	-1.523037e+02
9.100000e-07	-1.353942e-06	-2.352429e-09	-1.936603e+01	-1.499745e+02
9.200000e-07	-1.303140e-06	-2.308633e-09	-1.863938e+01	-1.475807e+02
9.300000e-07	-1.252047e-06	-2.266211e-09	-1.790858e+01	-1.451195e+02
9.400000e-07	-1.200685e-06	-2.229334e-09	-1.717393e+01	-1.425880e+02
9.500000e-07	-1.149113e-06	-2.187374e-09	-1.643626e+01	-1.399834e+02
9.600000e-07	-1.097349e-06	-2.140343e-09	-1.569586e+01	-1.373030e+02
9.700000e-07	-1.045430e-06	-2.094732e-09	-1.495324e+01	-1.345441e+02
9.800000e-07	-9.933240e-07	-2.050955e-09	-1.420795e+01	-1.317039e+02
9.900000e-07	-9.410517e-07	-2.006243e-09	-1.346028e+01	-1.287791e+02
1.000000e-06	-8.886158e-07	-1.956039e-09	-1.271026e+01	-1.257665e+02
1.010000e-06	-8.359466e-07	-1.904153e-09	-1.195691e+01	-1.226622e+02
1.020000e-06	-7.830527e-07	-1.853912e-09	-1.120035e+01	-1.194620e+02
1.030000e-06	-7.300278e-07	-1.803726e-09	-1.044191e+01	-1.161613e+02
1.040000e-06	-6.768740e-07	-1.750168e-09	-9.681626e+00	-1.127548e+02
1.050000e-06	-6.235337e-07	-1.693234e-09	-8.918675e+00	-1.092371e+02
1.060000e-06	-5.701536e-07	-1.636444e-09	-8.155156e+00	-1.056023e+02
1.070000e-06	-5.167753e-07	-1.579756e-09	-7.391663e+00	-1.018442e+02
1.080000e-06	-4.633002e-07	-1.519649e-09	-6.626786e+00	-9.795685e+01
1.090000e-06	-4.097293e-07	-1.454542e-09	-5.860537e+00	-9.393441e+01
1.100000e-06	-3.560947e-07	-1.385429e-09	-5.093379e+00	-8.977144e+01
1.110000e-06	-3.024188e-07	-1.317595e-09	-4.325629e+00	-8.546314e+01
1.120000e-06	-2.486800e-07	-1.250008e-09	-3.556979e+00	-8.100561e+01
1.130000e-06	-1.949256e-07	-1.175408e-09	-2.788106e+00	-7.639601e+01
1.140000e-06	-1.411737e-07	-1.097666e-09	-2.019270e+00	-7.163278e+01
1.150000e-06	-8.736877e-08	-1.021930e-09	-1.249674e+00	-6.671575e+01
1.160000e-06	-3.353263e-08	-9.467705e-10	-4.796319e-01	-6.164626e+01
1.170000e-06	2.024906e-08	-8.676125e-10	2.896312e-01	-5.642723e+01
1.180000e-06	7.400355e-08	-7.834221e-10	1.058505e+00	-5.106315e+01
1.190000e-06	1.277804e-07	-6.989254e-10	1.827699e+00	-4.556005e+01
1.200000e-06	1.815256e-07	-6.133466e-10	2.596440e+00	-3.992543e+01
1.210000e-06	2.352199e-07	-5.241463e-10	3.364453e+00	-3.416814e+01
1.220000e-06	2.888617e-07	-4.309174e-10	4.131715e+00	-2.829826e+01
1.230000e-06	3.424427e-07	-3.373062e-10	4.898108e+00	-2.232695e+01
1.240000e-06	3.959146e-07	-2.451323e-10	5.662940e+00	-1.626627e+01
1.250000e-06	4.493155e-07	-1.517888e-10	6.426756e+00	-1.012906e+01
1.260000e-06	5.026906e-07	-5.811188e-11	7.190204e+00	-3.928763e+00
1.270000e-06	5.560224e-07	3.735177e-11	7.953031e+00	2.320682e+00
1.280000e-06	6.093045e-07	1.346751e-10	8.715149e+00	8.604974e+00
1.290000e-06	6.624611e-07	2.318499e-10	9.475472e+00	1.490954e+01
1.300000e-06	7.154248e-07	3.292353e-10	1.023303e+01	2.121964e+01
1.310000e-06	7.681749e-07	4.283661e-10	1.098754e+01	2.752039e+01
1.320000e-06	8.207450e-07	5.277421e-10	1.173947e+01	3.379690e+01
1.330000e-06	8.732005e-07	6.242067e-10	1.248977e+01	4.003430e+01
1.340000e-06	9.255730e-07	7.185139e-10	1.323888e+01	4.621783e+01
1.350000e-06	9.777487e-07	8.124139e-10	1.398517e+01	5.233293e+01
1.360000e-06	1.029691e-06	9.055804e-10	1.472813e+01	5.836537e+01
1.370000e-06	1.081501e-06	9.955590e-10	1.546918e+01	6.430137e+01
1.380000e-06	1.133173e-06	1.084461e-09	1.620827e+01	7.012774e+01
1.390000e-06	1.184714e-06	1.172140e-09	1.694549e+01	7.583209e+01
1.400000e-06	1.236047e-06	1.259125e-09	1.767973e+01	8.140299e+01
1.410000e-06	1.287065e-06	1.345293e-09	1.840945e+01	8.683017e+01
1.420000e-06	1.337822e-06	1.426256e-09	1.913545e+01	9.210470e+01
1.430000e-06	1.388244e-06	1.502465e-09	1.985666e+01	9.721919e+01
1.440000e-06	1.438257e-06	1.578103e-09	2.057202e+01	1.021679e+02
1.450000e-06	1.487791e-06	1.651155e-09	2.128052e+01	1.069469e+02
1.460000e-06	1.536753e-06	1.720729e-09	2.198085e+01	1.115540e+02
1.470000e-06	1.585294e-06	1.788832e-09	2.267515e+01	1.159891e+02
1.480000e-06	1.633503e-06	1.854870e-09	2.336471e+01	1.202536e+02
1.490000e-06	1.681414e-06	1.919254e-09	2.405000e+01	1.243507e+02
1.500000e-06	1.729139e-06	1.980429e-09	2.473263e+01	1.282853e+02
1.510000e-06	1.776691e-06	2.037747e-09	2.541279e+01	1.320632e+02
1.520000e-06	1.824006e-06	2.092448e-09	2.608956e+01	1.356915e+02
1.530000e-06	1.870968e-06	2.148586e-09	2.676128e+01	1.391781e+02
1.540000e-06	1.917551e-06	2.203574e-09	2.742758e+01	1.425310e+02
1.550000e-06	1.963810e-06	2.251469e-09	2.808924e+01	1.457585e+02
1.560000e-06	2.009725e-06	2.295829e-09	2.874597e+01	1.488688e+02
1.570000e-06	2.055277e-06	2.341111e-09	2.939753e+01	1.518695e+02
1.580000e-06	2.100459e-06	2.385827e-09	3.004378e+01	1.547675e+02
1.590000e-06	2.145236e-06	2.428557e-09	3.068425e+01	1.575691e+02
1.600000e-06	2.189650e-06	2.468480e-09	3.131952e+01	1.602794e+02
1.610000e-06	2.233760e-06	2.508122e-09	3.195044e+01	1.629029e+02
1.620000e-06	2.277581e-06	2.548728e-09	3.257724e+01	1.654430e+02
1.630000e-06	2.321221e-06	2.587724e-09	3.320145e+01	1.679022e+02
1.640000e-06	2.364592e-06	2.623482e-09	3.382179e+01	1.702825e+02
1.650000e-06	2.407487e-06	2.656940e-09	3.443534e+01	1.725853e+02
1.660000e-06	2.449780e-06	2.690907e-09	3.504028e+01	1.748118e+02
1.670000e-06	2.491322e-06	2.723769e-09	3.563448e+01	1.769630e+02
1.680000e-06	2.532171e-06	2.753129e-09	3.621875e+01	1.790400e+02
1.690000e-06	2.572492e-06	2.782422e-09	3.679548e+01	1.810443e+02
1.700000e-06	2.612419e-06	2.813481e-09	3.736657e+01	1.829776e+02
1.710000e-06	2.652081e-06	2.842540e-09	3.793387e+01	1.848420e+02
1.720000e-06	2.691434e-06	2.868640e-09	3.849675e+01	1.866404e+02
1.730000e-06	2.730372e-06	2.895062e-09	3.905370e+01	1.883759e+02
1.740000e-06	2.768782e-06	2.923871e-09	3.960310e+01	1.900518e+02
1.750000e-06	2.806660e-06	2.952161e-09	4.014489e+01	1.916722e+02
1.760000e-06	2.844033e-06	2.977616e-09	4.067945e+01	1.932407e+02
1.770000e-06	2.880896e-06	3.000119e-09	4.120672e+01	1.947612e+02
1.780000e-06	2.917314e-06	3.021974e-09	4.172762e+01	1.962373e+02
1.790000e-06	2.953309e-06	3.045162e-09	4.224247e+01	1.976721e+02
1.800000e-06	2.988934e-06	3.066939e-09	4.275203e+01	1.990682e+02
1.810000e-06	3.024212e-06	3.086900e-09	4.325663e+01	2.004275e+02
1.820000e-06	3.059011e-06	3.108147e-09	4.375437e+01	2.017514e+02
1.830000e-06	3.093062e-06	3.131019e-09	4.424141e+01	2.030402e+02
1.840000e-06	3.126190e-06	3.153510e-09	4.471526e+01	2.042940e+02
1.850000e-06	3.158544e-06	3.173729e-09	4.517803e+01	2.055118e+02
1.860000e-06	3.190423e-06	3.192755e-09	4.563401e+01	2.066927e+02
1.870000e-06	3.221944e-06	3.211248e-09	4.608487e+01	2.078350e+02
1.880000e-06	3.253005e-06	3.228493e-09	4.652916e+01	2.089373e+02
1.890000e-06	3.283482e-06	3.245177e-09	4.696508e+01	2.099981e+02
1.900000e-06	3.313336e-06	3.261650e-09	4.739210e+01	2.110163e+02
1.910000e-06	3.342536e-06	3.278608e-09	4.780975e+01	2.119912e+02
1.920000e-06	3.371157e-06	3.293754e-09	4.821914e+01	2.129228e+02
1.930000e-06	3.399320e-06	3.307492e-09	4.862196e+01	2.138114e+02
1.940000e-06	3.427073e-06	3.321789e-09	4.901892e+01	2.146584e+02
1.950000e-06	3.454345e-06	3.335188e-09	4.940901e+01	2.154657e+02
1.960000e-06	3.480888e-06	3.346978e-09	4.978866e+01	2.162358e+02
1.970000e-06	3.506518e-06	3.358676e-09	5.015526e+01	2.169717e+02
1.980000e-06	3.531287e-06	3.371848e-09	5.050955e+01	2.176765e+02
1.990000e-06	3.555363e-06	3.384394e-09	5.085391e+01	2.183538e+02
2.000000e-06	3.578833e-06	3.396740e-09	5.118962e+01	2.190067e+02
2.010000e-06	3.601757e-06	3.408097e-09	5.151751e+01	2.196385e+02
2.020000e-06	3.624156e-06	3.417270e-09	5.183789e+01	2.202516e+02
2.030000e-06	3.645964e-06	3.428042e-09	5.214982e+01	2.208482e+02
2.040000e-06	3.667092e-06	3.439188e-09	5.245202e+01	2.214297e+02
2.050000e-06	3.687588e-06	3.448326e-09	5.274519e+01	2.219968e+02
2.060000e-06	3.707592e-06	3.456977e-09	5.303131e+01	2.225495e+02
2.070000e-06	3.727170e-06	3.466904e-09	5.331134e+01	2.230872e+02
2.080000e-06	3.746202e-06	3.477471e-09	5.358357e+01	2.236088e+02
2.090000e-06	3.764545e-06	3.486608e-09	5.384594e+01	2.241127e+02
2.100000e-06	3.782192e-06	3.494591e-09	5.409834e+01	2.245973e+02
2.110000e-06	3.799219e-06	3.502943e-09	5.434190e+01	2.250607e+02
2.120000e-06	3.815725e-06	3.512589e-09	5.457798e+01	2.255014e+02
2.130000e-06	3.831583e-06	3.521059e-09	5.480480e+01	2.259181e+02
2.140000e-06	3.846570e-06	3.528340e-09	5.501918e+01	2.263099e+02
2.150000e-06	3.860710e-06	3.537269e-09	5.522143e+01	2.266766e+02
2.160000e-06	3.874070e-06	3.545951e-09	5.541252e+01	2.270184e+02
2.170000e-06	3.886676e-06	3.552316e-09	5.559283e+01	2.273362e+02
2.180000e-06	3.898606e-06	3.558486e-09	5.576347e+01	2.276313e+02
2.190000e-06	3.909830e-06	3.565568e-09	5.592401e+01	2.279056e+02
2.200000e-06	3.920122e-06	3.572598e-09	5.607122e+01	2.281609e+02
2.210000e-06	3.929338e-06	3.579453e-09	5.620304e+01	2.283995e+02
2.220000e-06	3.937715e-06	3.587320e-09	5.632286e+01	2.286233e+02
2.230000e-06	3.945521e-06	3.594526e-09	5.643452e+01	2.288342e+02
2.240000e-06	3.952758e-06	3.599271e-09	5.653803e+01	2.290333e+02
2.250000e-06	3.959342e-06	3.603405e-09	5.663221e+01	2.292215e+02
2.260000e-06	3.965277e-06	3.608033e-09	5.671710e+01	2.293990e+02
2.270000e-06	3.970512e-06	3.611615e-09	5.679198e+01	2.295651e+02
2.280000e-06	3.975042e-06	3.613950e-09	5.685677e+01	2.297188e+02
2.290000e-06	3.979038e-06	3.617380e-09	5.691393e+01	2.298582e+02
2.300000e-06	3.982567e-06	3.621206e-09	5.696439e+01	2.299814e+02
2.310000e-06	3.985375e-06	3.624312e-09	5.700456e+01	2.300859e+02
2.320000e-06	3.987161e-06	3.626852e-09	5.703011e+01	2.301693e+02
2.330000e-06	3.987938e-06	3.631581e-09	5.704123e+01	2.302294e+02
2.340000e-06	3.987957e-06	3.635802e-09	5.704150e+01	2.302644e+02
2.350000e-06	3.987402e-06	3.635874e-09	5.703355e+01	2.302729e+02
2.360000e-06	3.986241e-06	3.635402e-09	5.701695e+01	2.302545e+02
2.370000e-06	3.984411e-06	3.635681e-09	5.699077e+01	2.302096e+02
2.380000e-06	3.981959e-06	3.634344e-09	5.695570e+01	2.301392e+02
2.390000e-06	3.978932e-06	3.632119e-09	5.691241e+01	2.300455e+02
2.400000e-06	3.975347e-06	3.631649e-09	5.686113e+01	2.299314e+02
2.410000e-06	3.971259e-06	3.626913e-09	5.680266e+01	2.298002e+02
2.420000e-06	3.966647e-06	3.624022e-09	5.673670e+01	2.296560e+02
2.430000e-06	3.961272e-06	3.640540e-09	5.665980e+01	2.295027e+02
2.440000e-06	3.954756e-06	3.641597e-09	5.656661e+01	2.293445e+02
2.450000e-06	3.947143e-06	3.594014e-09	5.645771e+01	2.291850e+02
2.460000e-06	3.938971e-06	3.606932e-09	5.634082e+01	2.290271e+02
2.470000e-06	3.930556e-06	3.673145e-09	5.622047e+01	2.288733e+02
2.480000e-06	3.921480e-06	3.655249e-09	5.609064e+01	2.287245e+02
2.490000e-06	3.911316e-06	3.553676e-09	5.594527e+01	2.285810e+02
2.500000e-06	3.900635e-06	3.561600e-09	5.579249e+01	2.284416e+02
2.510000e-06	3.889753e-06	3.596646e-09	5.563683e+01	2.283042e+02
2.520000e-06	3.877852e-06	3.542552e-09	5.546661e+01	2.281654e+02
2.530000e-06	3.864686e-06	3.545738e-09	5.527830e+01	2.280213e+02
2.540000e-06	3.851068e-06	3.554829e-09	5.508351e+01	2.278671e+02
2.550000e-06	3.837009e-06	3.456696e-09	5.488242e+01	2.276979e+02
2.560000e-06	3.821907e-06	3.456094e-09	5.466641e+01	2.275085e+02
2.570000e-06	3.805860e-06	3.563222e-09	5.443688e+01	2.272942e+02
2.580000e-06	3.789244e-06	3.465344e-09	5.419921e+01	2.270508e+02
2.590000e-06	3.772055e-06	3.354401e-09	5.395336e+01	2.267747e+02
2.600000e-06	3.754087e-06	3.456004e-09	5.369636e+01	2.264636e+02
2.610000e-06	3.735378e-06	3.442661e-09	5.342875e+01	2.261161e+02
2.620000e-06	3.716083e-06	3.273487e-09	5.315276e+01	2.257320e+02
2.630000e-06	3.696265e-06	3.298435e-09	5.286929e+01	2.253124e+02
2.640000e-06	3.675938e-06	3.353684e-09	5.257855e+01	2.248593e+02
2.650000e-06	3.655153e-06	3.287644e-09	5.228126e+01	2.243756e+02
2.660000e-06	3.633702e-06	3.298755e-09	5.197443e+01	2.238649e+02
2.670000e-06	3.611107e-06	3.319592e-09	5.165124e+01	2.233313e+02
2.680000e-06	3.587495e-06	3.257736e-09	5.131351e+01	2.227788e+02
2.690000e-06	3.563346e-06	3.253391e-09	5.096810e+01	2.222116e+02
2.700000e-06	3.538628e-06	3.297785e-09	5.061454e+01	2.216330e+02
2.710000e-06	3.513172e-06	3.284972e-09	5.025044e+01	2.210460e+02
2.720000e-06	3.487218e-06	3.224276e-09	4.987920e+01	2.204525e+02
2.730000e-06	3.460823e-06	3.208349e-09	4.950167e+01	2.198537e+02
2.740000e-06	3.433717e-06	3.272546e-09	4.911396e+01	2.192496e+02
2.750000e-06	3.405952e-06	3.256490e-09	4.871683e+01	2.186393e+02
2.760000e-06	3.377818e-06	3.168202e-09	4.831441e+01	2.180207e+02
2.770000e-06	3.349260e-06	3.198430e-09	4.790593e+01	2.173914e+02
2.780000e-06	3.319948e-06	3.234224e-09	4.748667e+01	2.167480e+02
2.790000e-06	3.289784e-06	3.186145e-09	4.705522e+01	2.160869e+02
2.800000e-06	3.258864e-06	3.169166e-09	4.661296e+01	2.154045e+02
2.810000e-06	3.227279e-06	3.168524e-09	4.616118e+01	2.146971e+02
2.820000e-06	3.195167e-06	3.163309e-09	4.570188e+01	2.139616e+02
2.830000e-06	3.162720e-06	3.158793e-09	4.523777e+01	2.131951e+02
2.840000e-06	3.129853e-06	3.137457e-09	4.476766e+01	2.123958e+02
2.850000e-06	3.096329e-06	3.118997e-09	4.428815e+01	2.115622e+02
2.860000e-06	3.062234e-06	3.106351e-09	4.380048e+01	2.106939e+02
2.870000e-06	3.027719e-06	3.110081e-09	4.330679e+01	2.097912e+02
2.880000e-06	2.992649e-06	3.101709e-09	4.280517e+01	2.088549e+02
2.890000e-06	2.956967e-06	3.059885e-09	4.229479e+01	2.078866e+02
2.900000e-06	2.920914e-06	3.044832e-09	4.177911e+01	2.068879e+02
2.910000e-06	2.884622e-06	3.055680e-09	4.126002e+01	2.058610e+02
2.920000e-06	2.847885e-06	3.048026e-09	4.073455e+01	2.048079e+02
2.930000e-06	2.810481e-06	3.012508e-09	4.019954e+01	2.037303e+02
2.940000e-06	2.772330e-06	2.982413e-09	3.965385e+01	2.026297e+02
2.950000e-06	2.733359e-06	2.990624e-09	3.909643e+01	2.015070e+02
