# Temperatura_=_20.0
# Concentracion g/m^3_=_9000.0
# C_Vs_to_Am_M_A/Vsm_=_65563218390.804596
# pendiente_HvsI_1/m_=_3716.3
# ordenada_HvsI_A/m_=_1297.0
# frecuencia_Hz_=_212868.8403739092

Tiempo_(s)	Campo_(V.s)	Magnetizacion_(V.s)	Campo_(kA/m)	Magnetizacion_(A/m)
0.000000e+00	-3.952505e-06	-2.105201e-11	-5.697803e+01	-3.128830e+00
1.000000e-08	-3.952483e-06	-2.244169e-11	-5.697771e+01	-3.209947e+00
2.000000e-08	-3.951696e-06	-2.470188e-11	-5.696636e+01	-3.274282e+00
3.000000e-08	-3.949960e-06	-2.415344e-11	-5.694134e+01	-3.316007e+00
4.000000e-08	-3.947313e-06	-2.250526e-11	-5.690318e+01	-3.330526e+00
5.000000e-08	-3.944013e-06	-2.129742e-11	-5.685561e+01	-3.314921e+00
6.000000e-08	-3.940208e-06	-1.529011e-11	-5.680075e+01	-3.268301e+00
7.000000e-08	-3.935849e-06	5.363753e-12	-5.673792e+01	-3.192034e+00
8.000000e-08	-3.930796e-06	-4.181619e-12	-5.666508e+01	-3.089847e+00
9.000000e-08	-3.924925e-06	-8.060462e-11	-5.658044e+01	-2.967773e+00
1.000000e-07	-3.918236e-06	-1.207754e-10	-5.648401e+01	-2.833934e+00
1.100000e-07	-3.910928e-06	2.949069e-11	-5.637866e+01	-2.698190e+00
1.200000e-07	-3.903159e-06	1.356489e-10	-5.626667e+01	-2.571647e+00
1.300000e-07	-3.894735e-06	-2.109977e-11	-5.614524e+01	-2.466067e+00
1.400000e-07	-3.885556e-06	-1.473161e-10	-5.601291e+01	-2.393201e+00
1.500000e-07	-3.875610e-06	-2.140487e-11	-5.586954e+01	-2.364105e+00
1.600000e-07	-3.864785e-06	4.283903e-11	-5.571349e+01	-2.388458e+00
1.700000e-07	-3.853072e-06	1.109058e-12	-5.554464e+01	-2.473941e+00
1.800000e-07	-3.840558e-06	1.561174e-11	-5.536424e+01	-2.625715e+00
1.900000e-07	-3.827377e-06	-8.816126e-11	-5.517422e+01	-2.846031e+00
2.000000e-07	-3.813309e-06	-1.310089e-10	-5.497142e+01	-3.133997e+00
2.100000e-07	-3.798141e-06	8.956058e-11	-5.475276e+01	-3.485522e+00
2.200000e-07	-3.782107e-06	6.889901e-11	-5.452162e+01	-3.893449e+00
2.300000e-07	-3.765520e-06	-2.791576e-10	-5.428251e+01	-4.347854e+00
2.400000e-07	-3.748446e-06	-2.370706e-10	-5.403638e+01	-4.836516e+00
2.500000e-07	-3.730745e-06	4.772456e-11	-5.378121e+01	-5.345516e+00
2.600000e-07	-3.712375e-06	-9.002160e-11	-5.351640e+01	-5.859936e+00
2.700000e-07	-3.693445e-06	-3.207620e-10	-5.324350e+01	-6.364612e+00
2.800000e-07	-3.674012e-06	-1.937453e-10	-5.296336e+01	-6.844899e+00
2.900000e-07	-3.654046e-06	-8.156115e-11	-5.267553e+01	-7.287400e+00
3.000000e-07	-3.633508e-06	-1.162756e-10	-5.237947e+01	-7.680620e+00
3.100000e-07	-3.612297e-06	-1.307344e-10	-5.207370e+01	-8.015498e+00
3.200000e-07	-3.590398e-06	-1.577593e-10	-5.175801e+01	-8.285795e+00
3.300000e-07	-3.567889e-06	-1.917870e-10	-5.143353e+01	-8.488314e+00
3.400000e-07	-3.544835e-06	-1.535732e-10	-5.110119e+01	-8.622943e+00
3.500000e-07	-3.521277e-06	-5.205748e-11	-5.076159e+01	-8.692516e+00
3.600000e-07	-3.497152e-06	-9.583401e-11	-5.041380e+01	-8.702523e+00
3.700000e-07	-3.472356e-06	-2.713887e-10	-5.005636e+01	-8.660663e+00
3.800000e-07	-3.446701e-06	-1.878550e-10	-4.968651e+01	-8.576304e+00
3.900000e-07	-3.420039e-06	2.330857e-11	-4.930218e+01	-8.459859e+00
4.000000e-07	-3.392690e-06	-1.246799e-10	-4.890792e+01	-8.322138e+00
4.100000e-07	-3.364987e-06	-2.991969e-10	-4.850856e+01	-8.173708e+00
4.200000e-07	-3.336810e-06	-1.129855e-10	-4.810237e+01	-8.024306e+00
4.300000e-07	-3.308001e-06	-2.297597e-11	-4.768707e+01	-7.882337e+00
4.400000e-07	-3.278622e-06	-1.809465e-10	-4.726355e+01	-7.754486e+00
4.500000e-07	-3.248740e-06	-1.863027e-10	-4.683277e+01	-7.645465e+00
4.600000e-07	-3.218328e-06	-9.553791e-11	-4.639437e+01	-7.557902e+00
4.700000e-07	-3.187352e-06	-1.187236e-10	-4.594782e+01	-7.492373e+00
4.800000e-07	-3.155955e-06	-1.408587e-10	-4.549523e+01	-7.447573e+00
4.900000e-07	-3.124293e-06	-1.232237e-10	-4.503880e+01	-7.420599e+00
5.000000e-07	-3.092139e-06	-1.341112e-10	-4.457527e+01	-7.407317e+00
5.100000e-07	-3.059202e-06	-1.369458e-10	-4.410046e+01	-7.402799e+00
5.200000e-07	-3.025414e-06	-1.048417e-10	-4.361338e+01	-7.401780e+00
5.300000e-07	-2.990859e-06	-1.049503e-10	-4.311526e+01	-7.399102e+00
5.400000e-07	-2.955756e-06	-1.423518e-10	-4.260922e+01	-7.390129e+00
5.500000e-07	-2.920269e-06	-1.372418e-10	-4.209765e+01	-7.371087e+00
5.600000e-07	-2.884420e-06	-9.073139e-11	-4.158086e+01	-7.339315e+00
5.700000e-07	-2.848118e-06	-8.695621e-11	-4.105754e+01	-7.293422e+00
5.800000e-07	-2.811289e-06	-1.442404e-10	-4.052663e+01	-7.233329e+00
5.900000e-07	-2.773967e-06	-1.478599e-10	-3.998861e+01	-7.160210e+00
6.000000e-07	-2.736182e-06	-7.708770e-11	-3.944391e+01	-7.076332e+00
6.100000e-07	-2.697899e-06	-7.946005e-11	-3.889204e+01	-6.984827e+00
6.200000e-07	-2.659128e-06	-1.467293e-10	-3.833313e+01	-6.889398e+00
6.300000e-07	-2.619949e-06	-1.377230e-10	-3.776833e+01	-6.793999e+00
6.400000e-07	-2.580472e-06	-8.231544e-11	-3.719925e+01	-6.702507e+00
6.500000e-07	-2.540731e-06	-8.837780e-11	-3.662636e+01	-6.618417e+00
6.600000e-07	-2.500503e-06	-1.245949e-10	-3.604644e+01	-6.544580e+00
6.700000e-07	-2.459607e-06	-1.216420e-10	-3.545690e+01	-6.483003e+00
6.800000e-07	-2.418070e-06	-1.066989e-10	-3.485812e+01	-6.434719e+00
6.900000e-07	-2.375828e-06	-9.831537e-11	-3.424917e+01	-6.399745e+00
7.000000e-07	-2.332940e-06	-9.180116e-11	-3.363091e+01	-6.377118e+00
7.100000e-07	-2.289667e-06	-1.123154e-10	-3.300710e+01	-6.365004e+00
7.200000e-07	-2.246119e-06	-1.311789e-10	-3.237932e+01	-6.360872e+00
7.300000e-07	-2.202308e-06	-1.057739e-10	-3.174775e+01	-6.361710e+00
7.400000e-07	-2.158214e-06	-7.879998e-11	-3.111211e+01	-6.364274e+00
7.500000e-07	-2.113722e-06	-1.021141e-10	-3.047073e+01	-6.365337e+00
7.600000e-07	-2.068773e-06	-1.331510e-10	-2.982276e+01	-6.361926e+00
7.700000e-07	-2.023423e-06	-1.124453e-10	-2.916901e+01	-6.351525e+00
7.800000e-07	-1.977739e-06	-7.997273e-11	-2.851044e+01	-6.332234e+00
7.900000e-07	-1.931749e-06	-9.094793e-11	-2.784746e+01	-6.302862e+00
8.000000e-07	-1.885402e-06	-1.191077e-10	-2.717934e+01	-6.262967e+00
8.100000e-07	-1.838706e-06	-1.145765e-10	-2.650619e+01	-6.212824e+00
8.200000e-07	-1.791803e-06	-8.853947e-11	-2.583006e+01	-6.153340e+00
8.300000e-07	-1.744670e-06	-8.710442e-11	-2.515060e+01	-6.085925e+00
8.400000e-07	-1.697240e-06	-1.034839e-10	-2.446686e+01	-6.012317e+00
8.500000e-07	-1.649599e-06	-1.071200e-10	-2.378008e+01	-5.934402e+00
8.600000e-07	-1.601743e-06	-9.876630e-11	-2.309020e+01	-5.854029e+00
8.700000e-07	-1.553557e-06	-8.996085e-11	-2.239557e+01	-5.772833e+00
8.800000e-07	-1.505071e-06	-8.916462e-11	-2.169661e+01	-5.692101e+00
8.900000e-07	-1.456279e-06	-9.652573e-11	-2.099324e+01	-5.612668e+00
9.000000e-07	-1.407052e-06	-1.012454e-10	-2.028360e+01	-5.534869e+00
9.100000e-07	-1.357347e-06	-9.262052e-11	-1.956707e+01	-5.458537e+00
9.200000e-07	-1.307164e-06	-8.219172e-11	-1.884366e+01	-5.383061e+00
9.300000e-07	-1.256564e-06	-8.855697e-11	-1.811422e+01	-5.307475e+00
9.400000e-07	-1.205682e-06	-9.551440e-11	-1.738071e+01	-5.230590e+00
9.500000e-07	-1.154554e-06	-8.907181e-11	-1.664367e+01	-5.151147e+00
9.600000e-07	-1.103177e-06	-8.137495e-11	-1.590304e+01	-5.067975e+00
9.700000e-07	-1.051641e-06	-8.304449e-11	-1.516012e+01	-4.980138e+00
9.800000e-07	-9.999662e-07	-8.669341e-11	-1.441519e+01	-4.887068e+00
9.900000e-07	-9.481145e-07	-8.152235e-11	-1.366771e+01	-4.788655e+00
1.000000e-06	-8.960551e-07	-7.862336e-11	-1.291724e+01	-4.685298e+00
1.010000e-06	-8.437770e-07	-8.246170e-11	-1.216361e+01	-4.577910e+00
1.020000e-06	-7.913112e-07	-8.237450e-11	-1.140728e+01	-4.467872e+00
1.030000e-06	-7.386732e-07	-7.828157e-11	-1.064847e+01	-4.356937e+00
1.040000e-06	-6.858516e-07	-7.716402e-11	-9.887014e+00	-4.247109e+00
1.050000e-06	-6.328809e-07	-7.733874e-11	-9.123405e+00	-4.140479e+00
1.060000e-06	-5.798087e-07	-7.314671e-11	-8.358334e+00	-4.039064e+00
1.070000e-06	-5.266351e-07	-6.844358e-11	-7.591800e+00	-3.944636e+00
1.080000e-06	-4.733613e-07	-6.791124e-11	-6.823822e+00	-3.858568e+00
1.090000e-06	-4.199999e-07	-6.712443e-11	-6.054583e+00	-3.781719e+00
1.100000e-06	-3.666037e-07	-6.600343e-11	-5.284839e+00	-3.714346e+00
1.110000e-06	-3.131979e-07	-6.669709e-11	-4.514960e+00	-3.656075e+00
1.120000e-06	-2.597573e-07	-6.548458e-11	-3.744576e+00	-3.605917e+00
1.130000e-06	-2.062496e-07	-6.234132e-11	-2.973227e+00	-3.562339e+00
1.140000e-06	-1.526871e-07	-6.306251e-11	-2.201088e+00	-3.523378e+00
1.150000e-06	-9.912353e-08	-6.456359e-11	-1.428933e+00	-3.486795e+00
1.160000e-06	-4.557974e-08	-5.934915e-11	-6.570627e-01	-3.450251e+00
1.170000e-06	7.963550e-09	-5.317649e-11	1.148000e-01	-3.411498e+00
1.180000e-06	6.148936e-08	-5.463964e-11	8.864107e-01	-3.368556e+00
1.190000e-06	1.150143e-07	-5.778414e-11	1.658009e+00	-3.319885e+00
1.200000e-06	1.685179e-07	-5.558234e-11	2.429299e+00	-3.264506e+00
1.210000e-06	2.219519e-07	-5.334112e-11	3.199587e+00	-3.202090e+00
1.220000e-06	2.753629e-07	-5.510857e-11	3.969542e+00	-3.132993e+00
1.230000e-06	3.286989e-07	-5.815446e-11	4.738416e+00	-3.058228e+00
1.240000e-06	3.819863e-07	-5.751463e-11	5.506590e+00	-2.979387e+00
1.250000e-06	4.352869e-07	-5.464852e-11	6.274954e+00	-2.898522e+00
1.260000e-06	4.885125e-07	-5.193662e-11	7.042237e+00	-2.817973e+00
1.270000e-06	5.415989e-07	-4.949088e-11	7.807513e+00	-2.740180e+00
1.280000e-06	5.945866e-07	-4.832308e-11	8.571367e+00	-2.667478e+00
1.290000e-06	6.474669e-07	-4.845963e-11	9.333673e+00	-2.601903e+00
1.300000e-06	7.001799e-07	-4.625297e-11	1.009357e+01	-2.545016e+00
1.310000e-06	7.527119e-07	-4.304014e-11	1.085085e+01	-2.497760e+00
1.320000e-06	8.051015e-07	-4.369063e-11	1.160608e+01	-2.460365e+00
1.330000e-06	8.573698e-07	-4.493909e-11	1.235956e+01	-2.432316e+00
1.340000e-06	9.094830e-07	-4.128708e-11	1.311081e+01	-2.412362e+00
1.350000e-06	9.614356e-07	-3.837487e-11	1.385974e+01	-2.398604e+00
1.360000e-06	1.013196e-06	-3.993367e-11	1.460591e+01	-2.388613e+00
1.370000e-06	1.064752e-06	-4.088183e-11	1.534911e+01	-2.379608e+00
1.380000e-06	1.116171e-06	-3.893078e-11	1.609036e+01	-2.368651e+00
1.390000e-06	1.167405e-06	-3.740690e-11	1.682892e+01	-2.352859e+00
1.400000e-06	1.218327e-06	-3.868701e-11	1.756300e+01	-2.329617e+00
1.410000e-06	1.268951e-06	-3.950273e-11	1.829278e+01	-2.296760e+00
1.420000e-06	1.319294e-06	-3.889741e-11	1.901851e+01	-2.252736e+00
1.430000e-06	1.369291e-06	-3.706126e-11	1.973926e+01	-2.196707e+00
1.440000e-06	1.418809e-06	-3.597826e-11	2.045309e+01	-2.128606e+00
1.450000e-06	1.467786e-06	-3.488094e-11	2.115913e+01	-2.049128e+00
1.460000e-06	1.516350e-06	-3.218668e-11	2.185921e+01	-1.959669e+00
1.470000e-06	1.564521e-06	-2.899000e-11	2.255363e+01	-1.862204e+00
1.480000e-06	1.612332e-06	-2.693474e-11	2.324285e+01	-1.759129e+00
1.490000e-06	1.659974e-06	-2.603228e-11	2.392964e+01	-1.653066e+00
1.500000e-06	1.707475e-06	-2.531253e-11	2.461441e+01	-1.546659e+00
1.510000e-06	1.754789e-06	-2.336288e-11	2.529647e+01	-1.442366e+00
1.520000e-06	1.801792e-06	-2.058899e-11	2.597405e+01	-1.342270e+00
1.530000e-06	1.848393e-06	-1.978796e-11	2.664583e+01	-1.247926e+00
1.540000e-06	1.894663e-06	-2.034373e-11	2.731285e+01	-1.160249e+00
1.550000e-06	1.940582e-06	-1.827095e-11	2.797479e+01	-1.079460e+00
1.560000e-06	1.986140e-06	-1.297721e-11	2.863155e+01	-1.005086e+00
1.570000e-06	2.031380e-06	-9.995090e-12	2.928372e+01	-9.360172e-01
1.580000e-06	2.076273e-06	-9.176074e-12	2.993088e+01	-8.706250e-01
1.590000e-06	2.120799e-06	-7.651448e-12	3.057275e+01	-8.069117e-01
1.600000e-06	2.164924e-06	-5.441025e-12	3.120884e+01	-7.426990e-01
1.610000e-06	2.208740e-06	-3.412118e-12	3.184047e+01	-6.758278e-01
1.620000e-06	2.252310e-06	-2.814371e-12	3.246857e+01	-6.043582e-01
1.630000e-06	2.295614e-06	-3.368965e-12	3.309283e+01	-5.267501e-01
1.640000e-06	2.338638e-06	-3.706185e-12	3.371305e+01	-4.420127e-01
1.650000e-06	2.381159e-06	-1.731119e-12	3.432601e+01	-3.498073e-01
1.660000e-06	2.422985e-06	7.589794e-13	3.492896e+01	-2.504967e-01
1.670000e-06	2.464111e-06	2.014881e-12	3.552182e+01	-1.451367e-01
1.680000e-06	2.504557e-06	4.177051e-12	3.610487e+01	-3.540958e-02
1.690000e-06	2.544487e-06	7.309711e-12	3.668050e+01	7.649541e-02
1.700000e-06	2.584114e-06	9.605218e-12	3.725175e+01	1.880444e-01
1.710000e-06	2.623462e-06	1.108966e-11	3.781897e+01	2.965520e-01
1.720000e-06	2.662448e-06	1.259566e-11	3.838098e+01	3.993889e-01
1.730000e-06	2.701017e-06	1.417250e-11	3.893698e+01	4.941882e-01
1.740000e-06	2.739132e-06	1.420515e-11	3.948643e+01	5.790330e-01
1.750000e-06	2.776771e-06	1.389171e-11	4.002903e+01	6.526110e-01
1.760000e-06	2.813943e-06	1.476988e-11	4.056489e+01	7.143230e-01
1.770000e-06	2.850620e-06	1.677322e-11	4.109361e+01	7.643366e-01
1.780000e-06	2.886817e-06	1.855895e-11	4.161541e+01	8.035807e-01
1.790000e-06	2.922617e-06	2.045561e-11	4.213150e+01	8.336825e-01
1.800000e-06	2.958091e-06	2.260690e-11	4.264287e+01	8.568490e-01
1.810000e-06	2.993179e-06	2.393870e-11	4.314869e+01	8.757064e-01
1.820000e-06	3.027712e-06	2.396236e-11	4.364652e+01	8.931064e-01
1.830000e-06	3.061578e-06	2.335005e-11	4.413472e+01	9.119185e-01
1.840000e-06	3.094645e-06	2.312272e-11	4.461140e+01	9.348220e-01
1.850000e-06	3.126937e-06	2.335640e-11	4.507690e+01	9.641157e-01
1.860000e-06	3.158701e-06	2.429214e-11	4.553480e+01	1.001560e+00
1.870000e-06	3.190054e-06	2.495139e-11	4.598678e+01	1.048266e+00
1.880000e-06	3.220946e-06	2.591287e-11	4.643212e+01	1.104631e+00
1.890000e-06	3.251265e-06	2.723761e-11	4.686917e+01	1.170343e+00
1.900000e-06	3.280984e-06	2.827975e-11	4.729760e+01	1.244430e+00
1.910000e-06	3.310093e-06	2.836067e-11	4.771723e+01	1.325368e+00
1.920000e-06	3.338604e-06	2.795145e-11	4.812823e+01	1.411230e+00
1.930000e-06	3.366639e-06	2.915323e-11	4.853237e+01	1.499860e+00
1.940000e-06	3.394259e-06	3.058187e-11	4.893054e+01	1.589064e+00
1.950000e-06	3.421417e-06	3.158625e-11	4.932204e+01	1.676796e+00
1.960000e-06	3.447991e-06	3.277918e-11	4.970512e+01	1.761325e+00
1.970000e-06	3.473703e-06	3.533317e-11	5.007577e+01	1.841367e+00
1.980000e-06	3.498478e-06	3.800358e-11	5.043292e+01	1.916172e+00
1.990000e-06	3.522572e-06	4.001482e-11	5.078025e+01	1.985559e+00
2.000000e-06	3.546068e-06	4.257731e-11	5.111897e+01	2.049891e+00
2.010000e-06	3.568918e-06	4.397799e-11	5.144836e+01	2.110004e+00
2.020000e-06	3.591176e-06	4.610622e-11	5.176923e+01	2.167080e+00
2.030000e-06	3.612909e-06	4.914107e-11	5.208253e+01	2.222493e+00
2.040000e-06	3.634026e-06	5.079961e-11	5.238694e+01	2.277628e+00
2.050000e-06	3.654502e-06	5.108808e-11	5.268211e+01	2.333699e+00
2.060000e-06	3.674464e-06	5.104292e-11	5.296988e+01	2.391576e+00
2.070000e-06	3.693971e-06	5.197545e-11	5.325108e+01	2.451654e+00
2.080000e-06	3.712964e-06	5.387894e-11	5.352488e+01	2.513746e+00
2.090000e-06	3.731339e-06	5.567517e-11	5.378977e+01	2.577056e+00
2.100000e-06	3.749078e-06	5.752305e-11	5.404549e+01	2.640192e+00
2.110000e-06	3.766172e-06	5.929349e-11	5.429191e+01	2.701254e+00
2.120000e-06	3.782670e-06	5.988980e-11	5.452975e+01	2.757977e+00
2.130000e-06	3.798510e-06	5.916292e-11	5.475809e+01	2.807918e+00
2.140000e-06	3.813513e-06	5.919076e-11	5.497436e+01	2.848685e+00
2.150000e-06	3.827686e-06	5.954731e-11	5.517868e+01	2.878167e+00
2.160000e-06	3.841078e-06	5.929565e-11	5.537174e+01	2.894773e+00
2.170000e-06	3.853786e-06	5.821338e-11	5.555493e+01	2.897631e+00
2.180000e-06	3.865859e-06	5.853650e-11	5.572896e+01	2.886751e+00
2.190000e-06	3.877243e-06	6.101629e-11	5.589308e+01	2.863115e+00
2.200000e-06	3.887708e-06	6.251046e-11	5.604393e+01	2.828698e+00
2.210000e-06	3.897166e-06	6.226230e-11	5.618027e+01	2.786404e+00
2.220000e-06	3.905756e-06	6.115557e-11	5.630411e+01	2.739917e+00
2.230000e-06	3.913602e-06	6.090731e-11	5.641721e+01	2.693478e+00
2.240000e-06	3.920846e-06	6.122149e-11	5.652163e+01	2.651600e+00
2.250000e-06	3.927494e-06	6.133585e-11	5.661748e+01	2.618739e+00
2.260000e-06	3.933470e-06	6.136793e-11	5.670362e+01	2.598939e+00
2.270000e-06	3.938752e-06	6.264007e-11	5.677977e+01	2.595496e+00
2.280000e-06	3.943383e-06	6.456995e-11	5.684653e+01	2.610642e+00
2.290000e-06	3.947426e-06	6.528654e-11	5.690481e+01	2.645304e+00
2.300000e-06	3.950986e-06	6.523647e-11	5.695613e+01	2.698933e+00
2.310000e-06	3.953897e-06	6.512823e-11	5.699810e+01	2.769447e+00
2.320000e-06	3.955850e-06	6.732584e-11	5.702625e+01	2.853278e+00
2.330000e-06	3.956784e-06	6.896105e-11	5.703972e+01	2.945542e+00
2.340000e-06	3.956908e-06	6.837431e-11	5.704150e+01	3.040313e+00
2.350000e-06	3.956459e-06	6.882686e-11	5.703503e+01	3.131003e+00
2.360000e-06	3.955461e-06	6.875396e-11	5.702065e+01	3.210807e+00
2.370000e-06	3.953828e-06	6.779417e-11	5.699710e+01	3.273206e+00
2.380000e-06	3.951550e-06	6.845010e-11	5.696426e+01	3.312470e+00
2.390000e-06	3.948641e-06	7.028391e-11	5.692233e+01	3.324155e+00
2.400000e-06	3.945124e-06	7.371773e-11	5.687162e+01	3.305531e+00
2.410000e-06	3.941094e-06	9.328986e-11	5.681353e+01	3.255924e+00
2.420000e-06	3.936587e-06	1.087573e-10	5.674855e+01	3.176936e+00
2.430000e-06	3.931378e-06	3.342183e-11	5.667347e+01	3.072531e+00
2.440000e-06	3.925146e-06	-4.596237e-11	5.658364e+01	2.948961e+00
2.450000e-06	3.917841e-06	9.484993e-11	5.647833e+01	2.814541e+00
2.460000e-06	3.909752e-06	2.287603e-10	5.636172e+01	2.679280e+00
2.470000e-06	3.901229e-06	1.147476e-10	5.623885e+01	2.554377e+00
2.480000e-06	3.892205e-06	-5.000674e-11	5.610876e+01	2.451623e+00
2.490000e-06	3.882404e-06	3.851542e-11	5.596748e+01	2.382733e+00
2.500000e-06	3.871969e-06	1.026863e-10	5.581705e+01	2.358653e+00
2.510000e-06	3.861123e-06	6.429255e-11	5.566070e+01	2.388889e+00
2.520000e-06	3.849551e-06	1.244777e-10	5.549388e+01	2.480892e+00
2.530000e-06	3.837008e-06	1.919401e-11	5.531305e+01	2.639548e+00
2.540000e-06	3.823733e-06	-1.159327e-10	5.512169e+01	2.866800e+00
2.550000e-06	3.809840e-06	1.278366e-10	5.492142e+01	3.161436e+00
2.560000e-06	3.795109e-06	2.562492e-10	5.470906e+01	3.519051e+00
2.570000e-06	3.779403e-06	-1.236502e-10	5.448264e+01	3.932192e+00
2.580000e-06	3.762927e-06	-1.338835e-10	5.424514e+01	4.390684e+00
2.590000e-06	3.745830e-06	2.375614e-10	5.399867e+01	4.882106e+00
2.600000e-06	3.728110e-06	6.501080e-11	5.374322e+01	5.392408e+00
2.610000e-06	3.709769e-06	-1.866075e-10	5.347882e+01	5.906612e+00
2.620000e-06	3.690759e-06	1.055804e-10	5.320479e+01	6.409571e+00
2.630000e-06	3.671149e-06	1.885299e-10	5.292208e+01	6.886733e+00
2.640000e-06	3.651042e-06	7.232968e-12	5.263223e+01	7.324865e+00
2.650000e-06	3.630476e-06	1.358602e-10	5.233576e+01	7.712693e+00
2.660000e-06	3.609283e-06	1.902867e-10	5.203025e+01	8.041422e+00
2.670000e-06	3.587157e-06	1.553517e-11	5.171129e+01	8.305112e+00
2.680000e-06	3.564034e-06	5.973465e-11	5.137795e+01	8.500875e+00
2.690000e-06	3.540113e-06	2.076023e-10	5.103312e+01	8.628902e+00
2.700000e-06	3.515565e-06	1.726403e-10	5.067924e+01	8.692310e+00
2.710000e-06	3.490408e-06	3.662841e-12	5.031659e+01	8.696830e+00
2.720000e-06	3.464714e-06	1.995129e-11	4.994619e+01	8.650355e+00
2.730000e-06	3.438497e-06	2.607534e-10	4.956825e+01	8.562385e+00
2.740000e-06	3.411678e-06	1.683955e-10	4.918164e+01	8.443403e+00
2.750000e-06	3.384226e-06	-6.181172e-11	4.878590e+01	8.304223e+00
2.760000e-06	3.356241e-06	1.344816e-10	4.838247e+01	8.155354e+00
2.770000e-06	3.327809e-06	2.363630e-10	4.797262e+01	8.006420e+00
2.780000e-06	3.298833e-06	3.801255e-11	4.755490e+01	7.865672e+00
2.790000e-06	3.269286e-06	5.302179e-11	4.712897e+01	7.739604e+00
2.800000e-06	3.239080e-06	1.663439e-10	4.669352e+01	7.632723e+00
2.810000e-06	3.208113e-06	1.272276e-10	4.624712e+01	7.547448e+00
2.820000e-06	3.176405e-06	6.170821e-11	4.579002e+01	7.484158e+00
2.830000e-06	3.144122e-06	8.619956e-11	4.532464e+01	7.441373e+00
2.840000e-06	3.111430e-06	1.415345e-10	4.485336e+01	7.416049e+00
2.850000e-06	3.078258e-06	1.033192e-10	4.437517e+01	7.403952e+00
2.860000e-06	3.044514e-06	7.729143e-11	4.388873e+01	7.400101e+00
2.870000e-06	3.010262e-06	1.236632e-10	4.339495e+01	7.399221e+00
2.880000e-06	2.975550e-06	1.028303e-10	4.289457e+01	7.396188e+00
2.890000e-06	2.940319e-06	7.138128e-11	4.238669e+01	7.386440e+00
2.900000e-06	2.904586e-06	1.183578e-10	4.187156e+01	7.366302e+00
2.910000e-06	2.868477e-06	1.360162e-10	4.135104e+01	7.333237e+00
2.920000e-06	2.832027e-06	6.968440e-11	4.082559e+01	7.285984e+00
2.930000e-06	2.795185e-06	5.865310e-11	4.029448e+01	7.224595e+00
