# Temperatura_=_20.0
# Concentracion g/m^3_=_9000.0
# C_Vs_to_Am_M_A/Vsm_=_65563218390.804596
# pendiente_HvsI_1/m_=_3716.3
# ordenada_HvsI_A/m_=_1297.0
# frecuencia_Hz_=_212866.3347205902

Tiempo_(s)	Campo_(V.s)	Magnetizacion_(V.s)	Campo_(kA/m)	Magnetizacion_(A/m)
0.000000e+00	-3.966912e-06	-3.400506e-09	-5.700049e+01	-2.295248e+02
1.000000e-08	-3.966696e-06	-3.399480e-09	-5.699738e+01	-2.295253e+02
2.000000e-08	-3.965699e-06	-3.398777e-09	-5.698306e+01	-2.294989e+02
3.000000e-08	-3.963778e-06	-3.399355e-09	-5.695546e+01	-2.294465e+02
4.000000e-08	-3.960917e-06	-3.398973e-09	-5.691435e+01	-2.293698e+02
5.000000e-08	-3.957395e-06	-3.399061e-09	-5.686374e+01	-2.292714e+02
6.000000e-08	-3.953458e-06	-3.404215e-09	-5.680717e+01	-2.291546e+02
7.000000e-08	-3.948934e-06	-3.410107e-09	-5.674217e+01	-2.290234e+02
8.000000e-08	-3.943582e-06	-3.383138e-09	-5.666526e+01	-2.288820e+02
9.000000e-08	-3.937370e-06	-3.352871e-09	-5.657601e+01	-2.287346e+02
1.000000e-07	-3.930359e-06	-3.399129e-09	-5.647525e+01	-2.285855e+02
1.100000e-07	-3.922811e-06	-3.476800e-09	-5.636679e+01	-2.284382e+02
1.200000e-07	-3.914874e-06	-3.389820e-09	-5.625275e+01	-2.282956e+02
1.300000e-07	-3.906229e-06	-3.280158e-09	-5.612853e+01	-2.281597e+02
1.400000e-07	-3.896776e-06	-3.370897e-09	-5.599270e+01	-2.280312e+02
1.500000e-07	-3.886563e-06	-3.464449e-09	-5.584595e+01	-2.279096e+02
1.600000e-07	-3.875508e-06	-3.413178e-09	-5.568711e+01	-2.277932e+02
1.700000e-07	-3.863418e-06	-3.384227e-09	-5.551338e+01	-2.276791e+02
1.800000e-07	-3.850536e-06	-3.422947e-09	-5.532828e+01	-2.275632e+02
1.900000e-07	-3.837233e-06	-3.356253e-09	-5.513713e+01	-2.274406e+02
2.000000e-07	-3.822978e-06	-3.460740e-09	-5.493230e+01	-2.273060e+02
2.100000e-07	-3.807409e-06	-3.563188e-09	-5.470859e+01	-2.271534e+02
2.200000e-07	-3.791145e-06	-3.411075e-09	-5.447490e+01	-2.269772e+02
2.300000e-07	-3.774456e-06	-3.392501e-09	-5.423509e+01	-2.267720e+02
2.400000e-07	-3.757105e-06	-3.607854e-09	-5.398577e+01	-2.265331e+02
2.500000e-07	-3.739126e-06	-3.633058e-09	-5.372743e+01	-2.262566e+02
2.600000e-07	-3.720529e-06	-3.423432e-09	-5.346021e+01	-2.259400e+02
2.700000e-07	-3.701357e-06	-3.500370e-09	-5.318473e+01	-2.255819e+02
2.800000e-07	-3.681698e-06	-3.622315e-09	-5.290226e+01	-2.251822e+02
2.900000e-07	-3.661528e-06	-3.573745e-09	-5.261243e+01	-2.247422e+02
3.000000e-07	-3.640737e-06	-3.525315e-09	-5.231368e+01	-2.242643e+02
3.100000e-07	-3.619243e-06	-3.512860e-09	-5.200484e+01	-2.237520e+02
3.200000e-07	-3.597076e-06	-3.511224e-09	-5.168631e+01	-2.232095e+02
3.300000e-07	-3.574217e-06	-3.512936e-09	-5.135787e+01	-2.226414e+02
3.400000e-07	-3.550756e-06	-3.536882e-09	-5.102074e+01	-2.220526e+02
3.500000e-07	-3.526840e-06	-3.524358e-09	-5.067710e+01	-2.214478e+02
3.600000e-07	-3.502391e-06	-3.432729e-09	-5.032580e+01	-2.208313e+02
3.700000e-07	-3.477225e-06	-3.414928e-09	-4.996418e+01	-2.202066e+02
3.800000e-07	-3.451073e-06	-3.551908e-09	-4.958841e+01	-2.195766e+02
3.900000e-07	-3.423983e-06	-3.505215e-09	-4.919915e+01	-2.189428e+02
4.000000e-07	-3.396391e-06	-3.328003e-09	-4.880269e+01	-2.183059e+02
4.100000e-07	-3.368454e-06	-3.401834e-09	-4.840126e+01	-2.176652e+02
4.200000e-07	-3.339965e-06	-3.528887e-09	-4.799189e+01	-2.170193e+02
4.300000e-07	-3.310819e-06	-3.400359e-09	-4.757309e+01	-2.163657e+02
4.400000e-07	-3.281188e-06	-3.327125e-09	-4.714733e+01	-2.157014e+02
4.500000e-07	-3.251084e-06	-3.414541e-09	-4.671477e+01	-2.150229e+02
4.600000e-07	-3.220301e-06	-3.402898e-09	-4.627244e+01	-2.143263e+02
4.700000e-07	-3.188971e-06	-3.350932e-09	-4.582227e+01	-2.136079e+02
4.800000e-07	-3.157384e-06	-3.348823e-09	-4.536839e+01	-2.128644e+02
4.900000e-07	-3.125544e-06	-3.335032e-09	-4.491089e+01	-2.120927e+02
5.000000e-07	-3.093206e-06	-3.313701e-09	-4.444623e+01	-2.112904e+02
5.100000e-07	-3.060015e-06	-3.320828e-09	-4.396930e+01	-2.104559e+02
5.200000e-07	-3.025805e-06	-3.311203e-09	-4.347774e+01	-2.095882e+02
5.300000e-07	-2.990793e-06	-3.266166e-09	-4.297466e+01	-2.086870e+02
5.400000e-07	-2.955355e-06	-3.252782e-09	-4.246545e+01	-2.077529e+02
5.500000e-07	-2.919640e-06	-3.269165e-09	-4.195225e+01	-2.067867e+02
5.600000e-07	-2.883586e-06	-3.258749e-09	-4.143420e+01	-2.057899e+02
5.700000e-07	-2.847079e-06	-3.210723e-09	-4.090962e+01	-2.047638e+02
5.800000e-07	-2.809992e-06	-3.170339e-09	-4.037673e+01	-2.037100e+02
5.900000e-07	-2.772371e-06	-3.198991e-09	-3.983614e+01	-2.026300e+02
6.000000e-07	-2.734305e-06	-3.203613e-09	-3.928918e+01	-2.015248e+02
6.100000e-07	-2.695725e-06	-3.129202e-09	-3.873482e+01	-2.003951e+02
6.200000e-07	-2.656627e-06	-3.099453e-09	-3.817302e+01	-1.992410e+02
6.300000e-07	-2.617141e-06	-3.129403e-09	-3.760565e+01	-1.980621e+02
6.400000e-07	-2.577419e-06	-3.117521e-09	-3.703489e+01	-1.968577e+02
6.500000e-07	-2.537379e-06	-3.061245e-09	-3.645955e+01	-1.956263e+02
6.600000e-07	-2.496793e-06	-3.039664e-09	-3.587637e+01	-1.943664e+02
6.700000e-07	-2.455560e-06	-3.037490e-09	-3.528390e+01	-1.930759e+02
6.800000e-07	-2.413621e-06	-3.013410e-09	-3.468128e+01	-1.917529e+02
6.900000e-07	-2.370983e-06	-2.996226e-09	-3.406861e+01	-1.903955e+02
7.000000e-07	-2.327794e-06	-2.967287e-09	-3.344803e+01	-1.890017e+02
7.100000e-07	-2.284253e-06	-2.925491e-09	-3.282239e+01	-1.875702e+02
7.200000e-07	-2.240461e-06	-2.915563e-09	-3.219315e+01	-1.860996e+02
7.300000e-07	-2.196404e-06	-2.914207e-09	-3.156008e+01	-1.845894e+02
7.400000e-07	-2.151931e-06	-2.878055e-09	-3.092105e+01	-1.830391e+02
7.500000e-07	-2.107012e-06	-2.825470e-09	-3.027562e+01	-1.814488e+02
7.600000e-07	-2.061756e-06	-2.810100e-09	-2.962533e+01	-1.798187e+02
7.700000e-07	-2.016184e-06	-2.808906e-09	-2.897051e+01	-1.781495e+02
7.800000e-07	-1.970293e-06	-2.771541e-09	-2.831110e+01	-1.764416e+02
7.900000e-07	-1.924115e-06	-2.721239e-09	-2.764757e+01	-1.746957e+02
8.000000e-07	-1.877587e-06	-2.692567e-09	-2.697901e+01	-1.729121e+02
8.100000e-07	-1.830642e-06	-2.682965e-09	-2.630446e+01	-1.710908e+02
8.200000e-07	-1.783403e-06	-2.656777e-09	-2.562568e+01	-1.692313e+02
8.300000e-07	-1.736009e-06	-2.611764e-09	-2.494469e+01	-1.673328e+02
8.400000e-07	-1.688444e-06	-2.580745e-09	-2.426122e+01	-1.653938e+02
8.500000e-07	-1.640678e-06	-2.558625e-09	-2.357488e+01	-1.634123e+02
8.600000e-07	-1.592649e-06	-2.530245e-09	-2.288474e+01	-1.613858e+02
8.700000e-07	-1.544236e-06	-2.493155e-09	-2.218910e+01	-1.593112e+02
8.800000e-07	-1.495383e-06	-2.452411e-09	-2.148714e+01	-1.571853e+02
8.900000e-07	-1.446074e-06	-2.415605e-09	-2.077861e+01	-1.550045e+02
9.000000e-07	-1.396433e-06	-2.382211e-09	-2.006533e+01	-1.527650e+02
9.100000e-07	-1.346372e-06	-2.349261e-09	-1.934600e+01	-1.504631e+02
9.200000e-07	-1.295819e-06	-2.306272e-09	-1.861960e+01	-1.480950e+02
9.300000e-07	-1.245007e-06	-2.261849e-09	-1.788949e+01	-1.456572e+02
9.400000e-07	-1.193909e-06	-2.229597e-09	-1.715525e+01	-1.431465e+02
9.500000e-07	-1.142486e-06	-2.190087e-09	-1.641637e+01	-1.405595e+02
9.600000e-07	-1.090883e-06	-2.140580e-09	-1.567488e+01	-1.378935e+02
9.700000e-07	-1.039152e-06	-2.092369e-09	-1.493155e+01	-1.351456e+02
9.800000e-07	-9.873072e-07	-2.050461e-09	-1.418660e+01	-1.323130e+02
9.900000e-07	-9.353388e-07	-2.007741e-09	-1.343987e+01	-1.293930e+02
1.000000e-06	-8.831777e-07	-1.955790e-09	-1.269036e+01	-1.263826e+02
1.010000e-06	-8.306569e-07	-1.906027e-09	-1.193569e+01	-1.232787e+02
1.020000e-06	-7.778804e-07	-1.858384e-09	-1.117735e+01	-1.200778e+02
1.030000e-06	-7.251023e-07	-1.807860e-09	-1.041898e+01	-1.167759e+02
1.040000e-06	-6.721701e-07	-1.752565e-09	-9.658400e+00	-1.133688e+02
1.050000e-06	-6.190827e-07	-1.694701e-09	-8.895588e+00	-1.098514e+02
1.060000e-06	-5.659665e-07	-1.639792e-09	-8.132363e+00	-1.062188e+02
1.070000e-06	-5.127509e-07	-1.582009e-09	-7.367708e+00	-1.024653e+02
1.080000e-06	-4.593934e-07	-1.521831e-09	-6.601015e+00	-9.858536e+01
1.090000e-06	-4.059531e-07	-1.457638e-09	-5.833133e+00	-9.457330e+01
1.100000e-06	-3.524623e-07	-1.386104e-09	-5.064524e+00	-9.042379e+01
1.110000e-06	-2.989471e-07	-1.316773e-09	-4.295566e+00	-8.613192e+01
1.120000e-06	-2.454218e-07	-1.249732e-09	-3.526462e+00	-8.169354e+01
1.130000e-06	-1.918416e-07	-1.178421e-09	-2.756568e+00	-7.710545e+01
1.140000e-06	-1.382546e-07	-1.101124e-09	-1.986578e+00	-7.236562e+01
1.150000e-06	-8.464261e-08	-1.025659e-09	-1.216228e+00	-6.747340e+01
1.160000e-06	-3.099995e-08	-9.551184e-10	-4.454377e-01	-6.242967e+01
1.170000e-06	2.263093e-08	-8.760368e-10	3.251834e-01	-5.723692e+01
1.180000e-06	7.623157e-08	-7.900110e-10	1.095370e+00	-5.189933e+01
1.190000e-06	1.297488e-07	-7.045552e-10	1.864358e+00	-4.642272e+01
1.200000e-06	1.831991e-07	-6.175851e-10	2.632385e+00	-4.081455e+01
1.210000e-06	2.366490e-07	-5.280769e-10	3.400405e+00	-3.508379e+01
1.220000e-06	2.900906e-07	-4.362363e-10	4.168307e+00	-2.924079e+01
1.230000e-06	3.435084e-07	-3.451332e-10	4.935866e+00	-2.329710e+01
1.240000e-06	3.969022e-07	-2.520919e-10	5.703081e+00	-1.726527e+01
1.250000e-06	4.501969e-07	-1.584837e-10	6.468872e+00	-1.115872e+01
1.260000e-06	5.033818e-07	-6.715622e-11	7.233084e+00	-4.991446e+00
1.270000e-06	5.565220e-07	2.788350e-11	7.996654e+00	1.222070e+00
1.280000e-06	6.095694e-07	1.242216e-10	8.758892e+00	7.467087e+00
1.290000e-06	6.624339e-07	2.211862e-10	9.518501e+00	1.372873e+01
1.300000e-06	7.151428e-07	3.165594e-10	1.027587e+01	1.999211e+01
1.310000e-06	7.677021e-07	4.123128e-10	1.103110e+01	2.624243e+01
1.320000e-06	8.200539e-07	5.102543e-10	1.178334e+01	3.246507e+01
1.330000e-06	8.722207e-07	6.047013e-10	1.253292e+01	3.864566e+01
1.340000e-06	9.242899e-07	6.969962e-10	1.328111e+01	4.477013e+01
1.350000e-06	9.762224e-07	7.907476e-10	1.402732e+01	5.082479e+01
1.360000e-06	1.027979e-06	8.839698e-10	1.477101e+01	5.679637e+01
1.370000e-06	1.079586e-06	9.739084e-10	1.551255e+01	6.267216e+01
1.380000e-06	1.131055e-06	1.062998e-09	1.625211e+01	6.844005e+01
1.390000e-06	1.182363e-06	1.150373e-09	1.698936e+01	7.408866e+01
1.400000e-06	1.233432e-06	1.235842e-09	1.772316e+01	7.960751e+01
1.410000e-06	1.284184e-06	1.318970e-09	1.845242e+01	8.498709e+01
1.420000e-06	1.334573e-06	1.400880e-09	1.917645e+01	9.021910e+01
1.430000e-06	1.384572e-06	1.478182e-09	1.989489e+01	9.529652e+01
1.440000e-06	1.434149e-06	1.552141e-09	2.060727e+01	1.002138e+02
1.450000e-06	1.483238e-06	1.624954e-09	2.131263e+01	1.049669e+02
1.460000e-06	1.531905e-06	1.694252e-09	2.201192e+01	1.095535e+02
1.470000e-06	1.580207e-06	1.760106e-09	2.270597e+01	1.139729e+02
1.480000e-06	1.628185e-06	1.824355e-09	2.339536e+01	1.182262e+02
1.490000e-06	1.675949e-06	1.888696e-09	2.408168e+01	1.223158e+02
1.500000e-06	1.723540e-06	1.949835e-09	2.476551e+01	1.262460e+02
1.510000e-06	1.770945e-06	2.007369e-09	2.544668e+01	1.300222e+02
1.520000e-06	1.818053e-06	2.061932e-09	2.612357e+01	1.336508e+02
1.530000e-06	1.864781e-06	2.117048e-09	2.679500e+01	1.371394e+02
1.540000e-06	1.911099e-06	2.171875e-09	2.746055e+01	1.404958e+02
1.550000e-06	1.957057e-06	2.219935e-09	2.812091e+01	1.437282e+02
1.560000e-06	2.002721e-06	2.264071e-09	2.877706e+01	1.468450e+02
1.570000e-06	2.048055e-06	2.308576e-09	2.942847e+01	1.498540e+02
1.580000e-06	2.093041e-06	2.353195e-09	3.007487e+01	1.527626e+02
1.590000e-06	2.137654e-06	2.395712e-09	3.071591e+01	1.555775e+02
1.600000e-06	2.181854e-06	2.434937e-09	3.135102e+01	1.583044e+02
1.610000e-06	2.225709e-06	2.473961e-09	3.198118e+01	1.609481e+02
1.620000e-06	2.269331e-06	2.514928e-09	3.260798e+01	1.635125e+02
1.630000e-06	2.312755e-06	2.554834e-09	3.323194e+01	1.660005e+02
1.640000e-06	2.355907e-06	2.589680e-09	3.385198e+01	1.684142e+02
1.650000e-06	2.398579e-06	2.622193e-09	3.446513e+01	1.707548e+02
1.660000e-06	2.440611e-06	2.657458e-09	3.506910e+01	1.730232e+02
1.670000e-06	2.481949e-06	2.691730e-09	3.566308e+01	1.752201e+02
1.680000e-06	2.522558e-06	2.720879e-09	3.624660e+01	1.773458e+02
1.690000e-06	2.562619e-06	2.748396e-09	3.682223e+01	1.794007e+02
1.700000e-06	2.602350e-06	2.777051e-09	3.739312e+01	1.813857e+02
1.710000e-06	2.641823e-06	2.806094e-09	3.796030e+01	1.833019e+02
1.720000e-06	2.680921e-06	2.834013e-09	3.852210e+01	1.851508e+02
1.730000e-06	2.719533e-06	2.861396e-09	3.907693e+01	1.869345e+02
1.740000e-06	2.757711e-06	2.889219e-09	3.962550e+01	1.886556e+02
1.750000e-06	2.795425e-06	2.916231e-09	4.016741e+01	1.903169e+02
1.760000e-06	2.832591e-06	2.942564e-09	4.070145e+01	1.919218e+02
1.770000e-06	2.869269e-06	2.966870e-09	4.122848e+01	1.934737e+02
1.780000e-06	2.905553e-06	2.988787e-09	4.174984e+01	1.949760e+02
1.790000e-06	2.941447e-06	3.010202e-09	4.226560e+01	1.964320e+02
1.800000e-06	2.977002e-06	3.032477e-09	4.277648e+01	1.978446e+02
1.810000e-06	3.012109e-06	3.054208e-09	4.328093e+01	1.992163e+02
1.820000e-06	3.046610e-06	3.074668e-09	4.377669e+01	2.005492e+02
1.830000e-06	3.080411e-06	3.095701e-09	4.426237e+01	2.018444e+02
1.840000e-06	3.113324e-06	3.117409e-09	4.473530e+01	2.031028e+02
1.850000e-06	3.145482e-06	3.137929e-09	4.519737e+01	2.043246e+02
1.860000e-06	3.177202e-06	3.156058e-09	4.565316e+01	2.055093e+02
1.870000e-06	3.208529e-06	3.174537e-09	4.610329e+01	2.066561e+02
1.880000e-06	3.239360e-06	3.194605e-09	4.654630e+01	2.077643e+02
1.890000e-06	3.269598e-06	3.213598e-09	4.698080e+01	2.088325e+02
1.900000e-06	3.299242e-06	3.229880e-09	4.740675e+01	2.098600e+02
1.910000e-06	3.328383e-06	3.245609e-09	4.782547e+01	2.108460e+02
1.920000e-06	3.356944e-06	3.260427e-09	4.823587e+01	2.117903e+02
1.930000e-06	3.384958e-06	3.275206e-09	4.863840e+01	2.126931e+02
1.940000e-06	3.412606e-06	3.289781e-09	4.903568e+01	2.135553e+02
1.950000e-06	3.439734e-06	3.303408e-09	4.942548e+01	2.143782e+02
1.960000e-06	3.466135e-06	3.316964e-09	4.980483e+01	2.151639e+02
1.970000e-06	3.491609e-06	3.329399e-09	5.017087e+01	2.159148e+02
1.980000e-06	3.516214e-06	3.341968e-09	5.052441e+01	2.166339e+02
1.990000e-06	3.540158e-06	3.354132e-09	5.086847e+01	2.173241e+02
2.000000e-06	3.563514e-06	3.366097e-09	5.120407e+01	2.179888e+02
2.010000e-06	3.586351e-06	3.376509e-09	5.153222e+01	2.186308e+02
2.020000e-06	3.608587e-06	3.385775e-09	5.185172e+01	2.192529e+02
2.030000e-06	3.630244e-06	3.397292e-09	5.216292e+01	2.198574e+02
2.040000e-06	3.651300e-06	3.409574e-09	5.246547e+01	2.204460e+02
2.050000e-06	3.671728e-06	3.420220e-09	5.275899e+01	2.210199e+02
2.060000e-06	3.691650e-06	3.428809e-09	5.304526e+01	2.215795e+02
2.070000e-06	3.711154e-06	3.438519e-09	5.332551e+01	2.221247e+02
2.080000e-06	3.730171e-06	3.449653e-09	5.359877e+01	2.226547e+02
2.090000e-06	3.748486e-06	3.458894e-09	5.386193e+01	2.231683e+02
2.100000e-06	3.766073e-06	3.466554e-09	5.411464e+01	2.236641e+02
2.110000e-06	3.783060e-06	3.474700e-09	5.435872e+01	2.241403e+02
2.120000e-06	3.799464e-06	3.483833e-09	5.459444e+01	2.245955e+02
2.130000e-06	3.815144e-06	3.493653e-09	5.481973e+01	2.250282e+02
2.140000e-06	3.829980e-06	3.500879e-09	5.503292e+01	2.254374e+02
2.150000e-06	3.844010e-06	3.508589e-09	5.523451e+01	2.258223e+02
2.160000e-06	3.857246e-06	3.518268e-09	5.542470e+01	2.261831e+02
2.170000e-06	3.869781e-06	3.526281e-09	5.560481e+01	2.265200e+02
2.180000e-06	3.881680e-06	3.532779e-09	5.577579e+01	2.268341e+02
2.190000e-06	3.892875e-06	3.539272e-09	5.593666e+01	2.271267e+02
2.200000e-06	3.903125e-06	3.547369e-09	5.608394e+01	2.273996e+02
2.210000e-06	3.912326e-06	3.555096e-09	5.621614e+01	2.276548e+02
2.220000e-06	3.920658e-06	3.561986e-09	5.633587e+01	2.278941e+02
2.230000e-06	3.928352e-06	3.567105e-09	5.644642e+01	2.281193e+02
2.240000e-06	3.935508e-06	3.570885e-09	5.654924e+01	2.283318e+02
2.250000e-06	3.942034e-06	3.576352e-09	5.664302e+01	2.285326e+02
2.260000e-06	3.947849e-06	3.580271e-09	5.672657e+01	2.287221e+02
2.270000e-06	3.952993e-06	3.582045e-09	5.680048e+01	2.289000e+02
2.280000e-06	3.957531e-06	3.584774e-09	5.686570e+01	2.290655e+02
2.290000e-06	3.961435e-06	3.589332e-09	5.692179e+01	2.292172e+02
2.300000e-06	3.964713e-06	3.594128e-09	5.696889e+01	2.293531e+02
2.310000e-06	3.967297e-06	3.596758e-09	5.700602e+01	2.294711e+02
2.320000e-06	3.969012e-06	3.599201e-09	5.703067e+01	2.295688e+02
2.330000e-06	3.969766e-06	3.602912e-09	5.704150e+01	2.296439e+02
2.340000e-06	3.969722e-06	3.605117e-09	5.704087e+01	2.296945e+02
2.350000e-06	3.969148e-06	3.604529e-09	5.703261e+01	2.297191e+02
2.360000e-06	3.968040e-06	3.605836e-09	5.701670e+01	2.297168e+02
2.370000e-06	3.966244e-06	3.608316e-09	5.699089e+01	2.296878e+02
2.380000e-06	3.963807e-06	3.607566e-09	5.695587e+01	2.296329e+02
2.390000e-06	3.960789e-06	3.604595e-09	5.691250e+01	2.295539e+02
2.400000e-06	3.957165e-06	3.600746e-09	5.686043e+01	2.294535e+02
2.410000e-06	3.953008e-06	3.589099e-09	5.680069e+01	2.293352e+02
2.420000e-06	3.948395e-06	3.604140e-09	5.673442e+01	2.292028e+02
2.430000e-06	3.943083e-06	3.649172e-09	5.665809e+01	2.290605e+02
2.440000e-06	3.936578e-06	3.605866e-09	5.656462e+01	2.289129e+02
2.450000e-06	3.928922e-06	3.506199e-09	5.645461e+01	2.287638e+02
2.460000e-06	3.920658e-06	3.579970e-09	5.633586e+01	2.286169e+02
2.470000e-06	3.912122e-06	3.687760e-09	5.621321e+01	2.284749e+02
2.480000e-06	3.903044e-06	3.632998e-09	5.608277e+01	2.283397e+02
2.490000e-06	3.892987e-06	3.501430e-09	5.593826e+01	2.282120e+02
2.500000e-06	3.882241e-06	3.552364e-09	5.578386e+01	2.280910e+02
2.510000e-06	3.871221e-06	3.557766e-09	5.562551e+01	2.279751e+02
2.520000e-06	3.859447e-06	3.503557e-09	5.545632e+01	2.278610e+02
2.530000e-06	3.846408e-06	3.596357e-09	5.526896e+01	2.277446e+02
2.540000e-06	3.832811e-06	3.504774e-09	5.507359e+01	2.276212e+02
2.550000e-06	3.818939e-06	3.364189e-09	5.487427e+01	2.274850e+02
2.560000e-06	3.803933e-06	3.523086e-09	5.465864e+01	2.273303e+02
2.570000e-06	3.787829e-06	3.651389e-09	5.442725e+01	2.271515e+02
2.580000e-06	3.771228e-06	3.357955e-09	5.418870e+01	2.269431e+02
2.590000e-06	3.754086e-06	3.307610e-09	5.394240e+01	2.267006e+02
2.600000e-06	3.736164e-06	3.557369e-09	5.368487e+01	2.264203e+02
2.610000e-06	3.717532e-06	3.397074e-09	5.341715e+01	2.260996e+02
2.620000e-06	3.698283e-06	3.217157e-09	5.314056e+01	2.257373e+02
2.630000e-06	3.678435e-06	3.368868e-09	5.285537e+01	2.253335e+02
2.640000e-06	3.658121e-06	3.352379e-09	5.256347e+01	2.248896e+02
2.650000e-06	3.637341e-06	3.229925e-09	5.226489e+01	2.244082e+02
2.660000e-06	3.615939e-06	3.336315e-09	5.195736e+01	2.238927e+02
2.670000e-06	3.593538e-06	3.343927e-09	5.163548e+01	2.233474e+02
2.680000e-06	3.570048e-06	3.215236e-09	5.129795e+01	2.227770e+02
2.690000e-06	3.545906e-06	3.240053e-09	5.095106e+01	2.221864e+02
2.700000e-06	3.521215e-06	3.311034e-09	5.059627e+01	2.215803e+02
2.710000e-06	3.495815e-06	3.323845e-09	5.023130e+01	2.209628e+02
2.720000e-06	3.469897e-06	3.197909e-09	4.985889e+01	2.203376e+02
2.730000e-06	3.443577e-06	3.154380e-09	4.948069e+01	2.197071e+02
2.740000e-06	3.416574e-06	3.342722e-09	4.909269e+01	2.190730e+02
2.750000e-06	3.388880e-06	3.276061e-09	4.869476e+01	2.184358e+02
2.760000e-06	3.360785e-06	3.096540e-09	4.829107e+01	2.177947e+02
2.770000e-06	3.332274e-06	3.226284e-09	4.788139e+01	2.171481e+02
2.780000e-06	3.303154e-06	3.279255e-09	4.746297e+01	2.164937e+02
2.790000e-06	3.273300e-06	3.156311e-09	4.703399e+01	2.158282e+02
2.800000e-06	3.242729e-06	3.153303e-09	4.659472e+01	2.151480e+02
2.810000e-06	3.211438e-06	3.199653e-09	4.614510e+01	2.144494e+02
2.820000e-06	3.179491e-06	3.192926e-09	4.568605e+01	2.137287e+02
2.830000e-06	3.147110e-06	3.141094e-09	4.522077e+01	2.129825e+02
2.840000e-06	3.114291e-06	3.133902e-09	4.474919e+01	2.122079e+02
2.850000e-06	3.080875e-06	3.154831e-09	4.426903e+01	2.114025e+02
2.860000e-06	3.046904e-06	3.113784e-09	4.378090e+01	2.105647e+02
2.870000e-06	3.012517e-06	3.099684e-09	4.328680e+01	2.096936e+02
2.880000e-06	2.977617e-06	3.120072e-09	4.278533e+01	2.087892e+02
2.890000e-06	2.942146e-06	3.081700e-09	4.227564e+01	2.078518e+02
2.900000e-06	2.906281e-06	3.036165e-09	4.176031e+01	2.068825e+02
2.910000e-06	2.870078e-06	3.064590e-09	4.124009e+01	2.058827e+02
2.920000e-06	2.833462e-06	3.085324e-09	4.071397e+01	2.048538e+02
2.930000e-06	2.796363e-06	3.015278e-09	4.018089e+01	2.037974e+02
2.940000e-06	2.758624e-06	2.973050e-09	3.963861e+01	2.027148e+02
2.950000e-06	2.720053e-06	3.024684e-09	3.908440e+01	2.016072e+02
