# Temperatura_=_20.0
# Concentracion g/m^3_=_9000.0
# C_Vs_to_Am_M_A/Vsm_=_65563218390.804596
# pendiente_HvsI_1/m_=_3716.3
# ordenada_HvsI_A/m_=_1297.0
# frecuencia_Hz_=_212865.66524219958

Tiempo_(s)	Campo_(V.s)	Magnetizacion_(V.s)	Campo_(kA/m)	Magnetizacion_(A/m)
0.000000e+00	-3.969935e-06	-3.401769e-09	-5.698700e+01	-2.282658e+02
1.000000e-08	-3.969710e-06	-3.400799e-09	-5.698377e+01	-2.282514e+02
2.000000e-08	-3.968656e-06	-3.402903e-09	-5.696863e+01	-2.282150e+02
3.000000e-08	-3.966565e-06	-3.401980e-09	-5.693862e+01	-2.281582e+02
4.000000e-08	-3.963546e-06	-3.398585e-09	-5.689529e+01	-2.280832e+02
5.000000e-08	-3.959932e-06	-3.396649e-09	-5.684341e+01	-2.279926e+02
6.000000e-08	-3.955889e-06	-3.395631e-09	-5.678537e+01	-2.278891e+02
7.000000e-08	-3.951232e-06	-3.394613e-09	-5.671853e+01	-2.277758e+02
8.000000e-08	-3.945832e-06	-3.390055e-09	-5.664101e+01	-2.276556e+02
9.000000e-08	-3.939489e-06	-3.409327e-09	-5.654996e+01	-2.275312e+02
1.000000e-07	-3.932307e-06	-3.431331e-09	-5.644686e+01	-2.274048e+02
1.100000e-07	-3.924692e-06	-3.397829e-09	-5.633755e+01	-2.272781e+02
1.200000e-07	-3.916686e-06	-3.328159e-09	-5.622263e+01	-2.271521e+02
1.300000e-07	-3.907956e-06	-3.335438e-09	-5.609731e+01	-2.270268e+02
1.400000e-07	-3.898397e-06	-3.450809e-09	-5.596010e+01	-2.269014e+02
1.500000e-07	-3.888162e-06	-3.429688e-09	-5.581318e+01	-2.267744e+02
1.600000e-07	-3.877051e-06	-3.401175e-09	-5.565369e+01	-2.266434e+02
1.700000e-07	-3.864753e-06	-3.386962e-09	-5.547715e+01	-2.265050e+02
1.800000e-07	-3.851824e-06	-3.418594e-09	-5.529156e+01	-2.263558e+02
1.900000e-07	-3.838640e-06	-3.442902e-09	-5.510231e+01	-2.261915e+02
2.000000e-07	-3.824193e-06	-3.454240e-09	-5.489492e+01	-2.260080e+02
2.100000e-07	-3.808371e-06	-3.440647e-09	-5.466780e+01	-2.258013e+02
2.200000e-07	-3.792063e-06	-3.384042e-09	-5.443370e+01	-2.255674e+02
2.300000e-07	-3.775319e-06	-3.527430e-09	-5.419335e+01	-2.253032e+02
2.400000e-07	-3.757878e-06	-3.566474e-09	-5.394300e+01	-2.250061e+02
2.500000e-07	-3.739881e-06	-3.472414e-09	-5.368465e+01	-2.246744e+02
2.600000e-07	-3.721353e-06	-3.421990e-09	-5.341869e+01	-2.243073e+02
2.700000e-07	-3.702127e-06	-3.537935e-09	-5.314271e+01	-2.239051e+02
2.800000e-07	-3.682380e-06	-3.556109e-09	-5.285925e+01	-2.234688e+02
2.900000e-07	-3.662165e-06	-3.475724e-09	-5.256907e+01	-2.230005e+02
3.000000e-07	-3.641288e-06	-3.472112e-09	-5.226939e+01	-2.225028e+02
3.100000e-07	-3.619714e-06	-3.450615e-09	-5.195970e+01	-2.219792e+02
3.200000e-07	-3.597457e-06	-3.477032e-09	-5.164021e+01	-2.214331e+02
3.300000e-07	-3.574600e-06	-3.496443e-09	-5.131211e+01	-2.208684e+02
3.400000e-07	-3.551187e-06	-3.465154e-09	-5.097602e+01	-2.202887e+02
3.500000e-07	-3.527269e-06	-3.407306e-09	-5.063268e+01	-2.196973e+02
3.600000e-07	-3.502846e-06	-3.401820e-09	-5.028210e+01	-2.190969e+02
3.700000e-07	-3.477708e-06	-3.472765e-09	-4.992126e+01	-2.184898e+02
3.800000e-07	-3.451447e-06	-3.469703e-09	-4.954429e+01	-2.178772e+02
3.900000e-07	-3.424157e-06	-3.339566e-09	-4.915256e+01	-2.172597e+02
4.000000e-07	-3.396490e-06	-3.347481e-09	-4.875540e+01	-2.166370e+02
4.100000e-07	-3.368540e-06	-3.451638e-09	-4.835419e+01	-2.160079e+02
4.200000e-07	-3.339885e-06	-3.400700e-09	-4.794285e+01	-2.153705e+02
4.300000e-07	-3.310509e-06	-3.314396e-09	-4.752118e+01	-2.147224e+02
4.400000e-07	-3.280749e-06	-3.342786e-09	-4.709398e+01	-2.140609e+02
4.500000e-07	-3.250507e-06	-3.373260e-09	-4.665987e+01	-2.133828e+02
4.600000e-07	-3.219623e-06	-3.335286e-09	-4.621653e+01	-2.126850e+02
4.700000e-07	-3.188266e-06	-3.324030e-09	-4.576642e+01	-2.119646e+02
4.800000e-07	-3.156574e-06	-3.301550e-09	-4.531149e+01	-2.112187e+02
4.900000e-07	-3.124584e-06	-3.272865e-09	-4.485229e+01	-2.104451e+02
5.000000e-07	-3.092112e-06	-3.305661e-09	-4.438617e+01	-2.096421e+02
5.100000e-07	-3.058764e-06	-3.300240e-09	-4.390746e+01	-2.088083e+02
5.200000e-07	-3.024374e-06	-3.235111e-09	-4.341381e+01	-2.079431e+02
5.300000e-07	-2.989225e-06	-3.214406e-09	-4.290925e+01	-2.070464e+02
5.400000e-07	-2.953729e-06	-3.247964e-09	-4.239973e+01	-2.061185e+02
5.500000e-07	-2.917986e-06	-3.246398e-09	-4.188664e+01	-2.051601e+02
5.600000e-07	-2.881848e-06	-3.187577e-09	-4.136789e+01	-2.041721e+02
5.700000e-07	-2.845179e-06	-3.154274e-09	-4.084153e+01	-2.031557e+02
5.800000e-07	-2.807976e-06	-3.161485e-09	-4.030750e+01	-2.021119e+02
5.900000e-07	-2.770308e-06	-3.173391e-09	-3.976679e+01	-2.010416e+02
6.000000e-07	-2.732136e-06	-3.144624e-09	-3.921883e+01	-1.999456e+02
6.100000e-07	-2.693422e-06	-3.082959e-09	-3.866312e+01	-1.988243e+02
6.200000e-07	-2.654270e-06	-3.076501e-09	-3.810110e+01	-1.976776e+02
6.300000e-07	-2.614772e-06	-3.093941e-09	-3.753412e+01	-1.965051e+02
6.400000e-07	-2.575047e-06	-3.068451e-09	-3.696388e+01	-1.953062e+02
6.500000e-07	-2.535080e-06	-3.023198e-09	-3.639016e+01	-1.940796e+02
6.600000e-07	-2.494498e-06	-2.996229e-09	-3.580762e+01	-1.928241e+02
6.700000e-07	-2.453068e-06	-2.992069e-09	-3.521291e+01	-1.915380e+02
6.800000e-07	-2.410943e-06	-2.984070e-09	-3.460822e+01	-1.902197e+02
6.900000e-07	-2.368193e-06	-2.962102e-09	-3.399456e+01	-1.888675e+02
7.000000e-07	-2.324881e-06	-2.916566e-09	-3.337283e+01	-1.874797e+02
7.100000e-07	-2.281260e-06	-2.882184e-09	-3.274667e+01	-1.860550e+02
7.200000e-07	-2.237441e-06	-2.891795e-09	-3.211767e+01	-1.845922e+02
7.300000e-07	-2.193258e-06	-2.877452e-09	-3.148343e+01	-1.830903e+02
7.400000e-07	-2.148632e-06	-2.824639e-09	-3.084284e+01	-1.815487e+02
7.500000e-07	-2.103609e-06	-2.788537e-09	-3.019656e+01	-1.799669e+02
7.600000e-07	-2.058280e-06	-2.780344e-09	-2.954587e+01	-1.783447e+02
7.700000e-07	-2.012661e-06	-2.766998e-09	-2.889103e+01	-1.766822e+02
7.800000e-07	-1.966711e-06	-2.727212e-09	-2.823143e+01	-1.749795e+02
7.900000e-07	-1.920469e-06	-2.689337e-09	-2.756764e+01	-1.732365e+02
8.000000e-07	-1.873827e-06	-2.663771e-09	-2.689812e+01	-1.714534e+02
8.100000e-07	-1.826791e-06	-2.643864e-09	-2.622294e+01	-1.696299e+02
8.200000e-07	-1.779527e-06	-2.619541e-09	-2.554448e+01	-1.677657e+02
8.300000e-07	-1.732043e-06	-2.577165e-09	-2.486286e+01	-1.658602e+02
8.400000e-07	-1.684372e-06	-2.540416e-09	-2.417856e+01	-1.639123e+02
8.500000e-07	-1.636507e-06	-2.516143e-09	-2.349147e+01	-1.619206e+02
8.600000e-07	-1.588322e-06	-2.488989e-09	-2.279979e+01	-1.598834e+02
8.700000e-07	-1.539769e-06	-2.453363e-09	-2.210283e+01	-1.577986e+02
8.800000e-07	-1.490726e-06	-2.411805e-09	-2.139884e+01	-1.556639e+02
8.900000e-07	-1.441306e-06	-2.379649e-09	-2.068943e+01	-1.534764e+02
9.000000e-07	-1.391532e-06	-2.349615e-09	-1.997495e+01	-1.512334e+02
9.100000e-07	-1.341374e-06	-2.309654e-09	-1.925494e+01	-1.489316e+02
9.200000e-07	-1.290850e-06	-2.265941e-09	-1.852970e+01	-1.465677e+02
9.300000e-07	-1.239857e-06	-2.226239e-09	-1.779770e+01	-1.441384e+02
9.400000e-07	-1.188609e-06	-2.192296e-09	-1.706205e+01	-1.416401e+02
9.500000e-07	-1.137229e-06	-2.147866e-09	-1.632452e+01	-1.390691e+02
9.600000e-07	-1.085691e-06	-2.101445e-09	-1.558471e+01	-1.364220e+02
9.700000e-07	-1.033949e-06	-2.064148e-09	-1.484197e+01	-1.336947e+02
9.800000e-07	-9.820544e-07	-2.024923e-09	-1.409704e+01	-1.308835e+02
9.900000e-07	-9.300820e-07	-1.979623e-09	-1.335099e+01	-1.279842e+02
1.000000e-06	-8.778444e-07	-1.927014e-09	-1.260114e+01	-1.249927e+02
1.010000e-06	-8.252649e-07	-1.877486e-09	-1.184638e+01	-1.219046e+02
1.020000e-06	-7.725225e-07	-1.830006e-09	-1.108928e+01	-1.187153e+02
1.030000e-06	-7.196513e-07	-1.776810e-09	-1.033034e+01	-1.154199e+02
1.040000e-06	-6.665960e-07	-1.720562e-09	-9.568747e+00	-1.120136e+02
1.050000e-06	-6.133790e-07	-1.662981e-09	-8.804837e+00	-1.084913e+02
1.060000e-06	-5.600798e-07	-1.610453e-09	-8.039745e+00	-1.048480e+02
1.070000e-06	-5.067963e-07	-1.558942e-09	-7.274880e+00	-1.010788e+02
1.080000e-06	-4.534423e-07	-1.498511e-09	-6.509002e+00	-9.717872e+01
1.090000e-06	-3.999541e-07	-1.430631e-09	-5.741198e+00	-9.314344e+01
1.100000e-06	-3.463834e-07	-1.360375e-09	-4.972209e+00	-8.896893e+01
1.110000e-06	-2.927655e-07	-1.295815e-09	-4.202543e+00	-8.465184e+01
1.120000e-06	-2.391378e-07	-1.227888e-09	-3.432738e+00	-8.018959e+01
1.130000e-06	-1.855307e-07	-1.150057e-09	-2.663227e+00	-7.558053e+01
1.140000e-06	-1.318908e-07	-1.072648e-09	-1.893245e+00	-7.082407e+01
1.150000e-06	-7.820452e-08	-1.000306e-09	-1.122598e+00	-6.592079e+01
1.160000e-06	-2.452654e-08	-9.300171e-10	-3.520697e-01	-6.087253e+01
1.170000e-06	2.915010e-08	-8.497010e-10	4.184392e-01	-5.568243e+01
1.180000e-06	8.278792e-08	-7.630008e-10	1.188391e+00	-5.035499e+01
1.190000e-06	1.363458e-07	-6.798889e-10	1.957195e+00	-4.489604e+01
1.200000e-06	1.898765e-07	-5.959180e-10	2.725609e+00	-3.931275e+01
1.210000e-06	2.433801e-07	-5.094119e-10	3.493635e+00	-3.361351e+01
1.220000e-06	2.968368e-07	-4.178320e-10	4.260986e+00	-2.780794e+01
1.230000e-06	3.502817e-07	-3.238468e-10	5.028168e+00	-2.190670e+01
1.240000e-06	4.036626e-07	-2.331498e-10	5.794433e+00	-1.592144e+01
1.250000e-06	4.569340e-07	-1.430728e-10	6.559124e+00	-9.864677e+00
1.260000e-06	5.101383e-07	-5.079398e-11	7.322853e+00	-3.749640e+00
1.270000e-06	5.632390e-07	4.618943e-11	8.085094e+00	2.409836e+00
1.280000e-06	6.162264e-07	1.422996e-10	8.845710e+00	8.599445e+00
1.290000e-06	6.691408e-07	2.361866e-10	9.605277e+00	1.480454e+01
1.300000e-06	7.219047e-07	3.314878e-10	1.036268e+01	2.101025e+01
1.310000e-06	7.745153e-07	4.276345e-10	1.111789e+01	2.720162e+01
1.320000e-06	8.269975e-07	5.265378e-10	1.187125e+01	3.336372e+01
1.330000e-06	8.793163e-07	6.220233e-10	1.262227e+01	3.948178e+01
1.340000e-06	9.314025e-07	7.149008e-10	1.336995e+01	4.554133e+01
1.350000e-06	9.832900e-07	8.076899e-10	1.411478e+01	5.152833e+01
1.360000e-06	1.035052e-06	8.993931e-10	1.485780e+01	5.742928e+01
1.370000e-06	1.086672e-06	9.900418e-10	1.559879e+01	6.323142e+01
1.380000e-06	1.138151e-06	1.076190e-09	1.633775e+01	6.892281e+01
1.390000e-06	1.189488e-06	1.160856e-09	1.707468e+01	7.449255e+01
1.400000e-06	1.240629e-06	1.244821e-09	1.780879e+01	7.993085e+01
1.410000e-06	1.291463e-06	1.325974e-09	1.853849e+01	8.522920e+01
1.420000e-06	1.341948e-06	1.405240e-09	1.926318e+01	9.038046e+01
1.430000e-06	1.392062e-06	1.482366e-09	1.998255e+01	9.537900e+01
1.440000e-06	1.441657e-06	1.558093e-09	2.069446e+01	1.002207e+02
1.450000e-06	1.490647e-06	1.631116e-09	2.139770e+01	1.049030e+02
1.460000e-06	1.539229e-06	1.701379e-09	2.209508e+01	1.094250e+02
1.470000e-06	1.587532e-06	1.769545e-09	2.278845e+01	1.137872e+02
1.480000e-06	1.635523e-06	1.833371e-09	2.347735e+01	1.179916e+02
1.490000e-06	1.683298e-06	1.893633e-09	2.416314e+01	1.220416e+02
1.500000e-06	1.730931e-06	1.950852e-09	2.484689e+01	1.259414e+02
1.510000e-06	1.778395e-06	2.006411e-09	2.552823e+01	1.296966e+02
1.520000e-06	1.825595e-06	2.061197e-09	2.620576e+01	1.333131e+02
1.530000e-06	1.872408e-06	2.117252e-09	2.687775e+01	1.367978e+02
1.540000e-06	1.918824e-06	2.171498e-09	2.754403e+01	1.401573e+02
1.550000e-06	1.964862e-06	2.219133e-09	2.820489e+01	1.433987e+02
1.560000e-06	2.010498e-06	2.264111e-09	2.885998e+01	1.465286e+02
1.570000e-06	2.055764e-06	2.309908e-09	2.950976e+01	1.495534e+02
1.580000e-06	2.100744e-06	2.353743e-09	3.015543e+01	1.524789e+02
1.590000e-06	2.145349e-06	2.394080e-09	3.079571e+01	1.553103e+02
1.600000e-06	2.189524e-06	2.432308e-09	3.142984e+01	1.580521e+02
1.610000e-06	2.233394e-06	2.471489e-09	3.205957e+01	1.607082e+02
1.620000e-06	2.277056e-06	2.512749e-09	3.268632e+01	1.632815e+02
1.630000e-06	2.320548e-06	2.552381e-09	3.331063e+01	1.657745e+02
1.640000e-06	2.363766e-06	2.588486e-09	3.393102e+01	1.681892e+02
1.650000e-06	2.406482e-06	2.622304e-09	3.454419e+01	1.705270e+02
1.660000e-06	2.448463e-06	2.656146e-09	3.514682e+01	1.727892e+02
1.670000e-06	2.489652e-06	2.687598e-09	3.573806e+01	1.749767e+02
1.680000e-06	2.530191e-06	2.714711e-09	3.631998e+01	1.770907e+02
1.690000e-06	2.570218e-06	2.742852e-09	3.689456e+01	1.791324e+02
1.700000e-06	2.609928e-06	2.772328e-09	3.746458e+01	1.811030e+02
1.710000e-06	2.649433e-06	2.800073e-09	3.803166e+01	1.830043e+02
1.720000e-06	2.688608e-06	2.826235e-09	3.859400e+01	1.848381e+02
1.730000e-06	2.727281e-06	2.853353e-09	3.914915e+01	1.866069e+02
1.740000e-06	2.765389e-06	2.881888e-09	3.969617e+01	1.883131e+02
1.750000e-06	2.803034e-06	2.908900e-09	4.023656e+01	1.899596e+02
1.760000e-06	2.840175e-06	2.934429e-09	4.076969e+01	1.915492e+02
1.770000e-06	2.876747e-06	2.956716e-09	4.129468e+01	1.930850e+02
1.780000e-06	2.912917e-06	2.978152e-09	4.181388e+01	1.945697e+02
1.790000e-06	2.948774e-06	3.001335e-09	4.232860e+01	1.960063e+02
1.800000e-06	2.984340e-06	3.024022e-09	4.283913e+01	1.973972e+02
1.810000e-06	3.019503e-06	3.045736e-09	4.334389e+01	1.987446e+02
1.820000e-06	3.053958e-06	3.067321e-09	4.383848e+01	2.000502e+02
1.830000e-06	3.087572e-06	3.089525e-09	4.432100e+01	2.013155e+02
1.840000e-06	3.120358e-06	3.110931e-09	4.479162e+01	2.025415e+02
1.850000e-06	3.152464e-06	3.129224e-09	4.525249e+01	2.037288e+02
1.860000e-06	3.184183e-06	3.146482e-09	4.570781e+01	2.048778e+02
1.870000e-06	3.215551e-06	3.165356e-09	4.615808e+01	2.059886e+02
1.880000e-06	3.246381e-06	3.185677e-09	4.660064e+01	2.070612e+02
1.890000e-06	3.276589e-06	3.203901e-09	4.703426e+01	2.080956e+02
1.900000e-06	3.306231e-06	3.218296e-09	4.745977e+01	2.090918e+02
1.910000e-06	3.335280e-06	3.234109e-09	4.787675e+01	2.100501e+02
1.920000e-06	3.363706e-06	3.250000e-09	4.828480e+01	2.109709e+02
1.930000e-06	3.391667e-06	3.263960e-09	4.868617e+01	2.118548e+02
1.940000e-06	3.419326e-06	3.275601e-09	4.908320e+01	2.127031e+02
1.950000e-06	3.446620e-06	3.288976e-09	4.947499e+01	2.135168e+02
1.960000e-06	3.473145e-06	3.304413e-09	4.985575e+01	2.142978e+02
1.970000e-06	3.498540e-06	3.317891e-09	5.022029e+01	2.150477e+02
1.980000e-06	3.522989e-06	3.331162e-09	5.057125e+01	2.157684e+02
1.990000e-06	3.546855e-06	3.343769e-09	5.091383e+01	2.164621e+02
2.000000e-06	3.570265e-06	3.356586e-09	5.124988e+01	2.171307e+02
2.010000e-06	3.593114e-06	3.367772e-09	5.157787e+01	2.177759e+02
2.020000e-06	3.615294e-06	3.376217e-09	5.189625e+01	2.183995e+02
2.030000e-06	3.636862e-06	3.385159e-09	5.220586e+01	2.190027e+02
2.040000e-06	3.657781e-06	3.394454e-09	5.250614e+01	2.195867e+02
2.050000e-06	3.678058e-06	3.403681e-09	5.279721e+01	2.201520e+02
2.060000e-06	3.697913e-06	3.412936e-09	5.308221e+01	2.206991e+02
2.070000e-06	3.717410e-06	3.422360e-09	5.336209e+01	2.212281e+02
2.080000e-06	3.736294e-06	3.432269e-09	5.363316e+01	2.217387e+02
2.090000e-06	3.754407e-06	3.441171e-09	5.389317e+01	2.222306e+02
2.100000e-06	3.771865e-06	3.449451e-09	5.414377e+01	2.227034e+02
2.110000e-06	3.788783e-06	3.457987e-09	5.438662e+01	2.231565e+02
2.120000e-06	3.805139e-06	3.465062e-09	5.462141e+01	2.235896e+02
2.130000e-06	3.820719e-06	3.470852e-09	5.484505e+01	2.240025e+02
2.140000e-06	3.835410e-06	3.478942e-09	5.505593e+01	2.243949e+02
2.150000e-06	3.849318e-06	3.488515e-09	5.525558e+01	2.247672e+02
2.160000e-06	3.862510e-06	3.496447e-09	5.544495e+01	2.251197e+02
2.170000e-06	3.874994e-06	3.502298e-09	5.562416e+01	2.254529e+02
2.180000e-06	3.886792e-06	3.507999e-09	5.579351e+01	2.257677e+02
2.190000e-06	3.897875e-06	3.513437e-09	5.595260e+01	2.260648e+02
2.200000e-06	3.908010e-06	3.519081e-09	5.609808e+01	2.263453e+02
2.210000e-06	3.917036e-06	3.525573e-09	5.622764e+01	2.266099e+02
2.220000e-06	3.925205e-06	3.531438e-09	5.634492e+01	2.268592e+02
2.230000e-06	3.932837e-06	3.536903e-09	5.645447e+01	2.270939e+02
2.240000e-06	3.939978e-06	3.541903e-09	5.655698e+01	2.273139e+02
2.250000e-06	3.946464e-06	3.547541e-09	5.665008e+01	2.275191e+02
2.260000e-06	3.952252e-06	3.550645e-09	5.673316e+01	2.277091e+02
2.270000e-06	3.957344e-06	3.550943e-09	5.680626e+01	2.278831e+02
2.280000e-06	3.961719e-06	3.553253e-09	5.686906e+01	2.280399e+02
2.290000e-06	3.965560e-06	3.557518e-09	5.692420e+01	2.281783e+02
2.300000e-06	3.968940e-06	3.562090e-09	5.697272e+01	2.282969e+02
2.310000e-06	3.971566e-06	3.564645e-09	5.701040e+01	2.283945e+02
2.320000e-06	3.973141e-06	3.567411e-09	5.703302e+01	2.284699e+02
2.330000e-06	3.973732e-06	3.572449e-09	5.704150e+01	2.285221e+02
2.340000e-06	3.973645e-06	3.575491e-09	5.704025e+01	2.285508e+02
2.350000e-06	3.973052e-06	3.574566e-09	5.703174e+01	2.285559e+02
2.360000e-06	3.971814e-06	3.574097e-09	5.701397e+01	2.285382e+02
2.370000e-06	3.969913e-06	3.572646e-09	5.698668e+01	2.284986e+02
2.380000e-06	3.967489e-06	3.571393e-09	5.695189e+01	2.284389e+02
2.390000e-06	3.964387e-06	3.571210e-09	5.690736e+01	2.283614e+02
2.400000e-06	3.960569e-06	3.572790e-09	5.685255e+01	2.282686e+02
2.410000e-06	3.956382e-06	3.575187e-09	5.679245e+01	2.281635e+02
2.420000e-06	3.951864e-06	3.583070e-09	5.672760e+01	2.280490e+02
2.430000e-06	3.946522e-06	3.565920e-09	5.665091e+01	2.279281e+02
2.440000e-06	3.939807e-06	3.527195e-09	5.655453e+01	2.278032e+02
2.450000e-06	3.931879e-06	3.540441e-09	5.644072e+01	2.276767e+02
2.460000e-06	3.923549e-06	3.621111e-09	5.632115e+01	2.275501e+02
2.470000e-06	3.915143e-06	3.624788e-09	5.620048e+01	2.274242e+02
2.480000e-06	3.906061e-06	3.515739e-09	5.607011e+01	2.272989e+02
2.490000e-06	3.895801e-06	3.505766e-09	5.592283e+01	2.271735e+02
2.500000e-06	3.885021e-06	3.545327e-09	5.576808e+01	2.270460e+02
2.510000e-06	3.874128e-06	3.552668e-09	5.561172e+01	2.269141e+02
2.520000e-06	3.862083e-06	3.511820e-09	5.543882e+01	2.267744e+02
2.530000e-06	3.848684e-06	3.518495e-09	5.524648e+01	2.266231e+02
2.540000e-06	3.835125e-06	3.460958e-09	5.505185e+01	2.264563e+02
2.550000e-06	3.821202e-06	3.454916e-09	5.485199e+01	2.262696e+02
2.560000e-06	3.805929e-06	3.541738e-09	5.463275e+01	2.260590e+02
2.570000e-06	3.789713e-06	3.430181e-09	5.439998e+01	2.258208e+02
2.580000e-06	3.773149e-06	3.332840e-09	5.416220e+01	2.255518e+02
2.590000e-06	3.755928e-06	3.442392e-09	5.391501e+01	2.252496e+02
2.600000e-06	3.737911e-06	3.482040e-09	5.365637e+01	2.249126e+02
2.610000e-06	3.719246e-06	3.280045e-09	5.338844e+01	2.245402e+02
2.620000e-06	3.699900e-06	3.290272e-09	5.311074e+01	2.241328e+02
2.630000e-06	3.680021e-06	3.366001e-09	5.282539e+01	2.236915e+02
2.640000e-06	3.659662e-06	3.271244e-09	5.253314e+01	2.232186e+02
2.650000e-06	3.638746e-06	3.290563e-09	5.223290e+01	2.227169e+02
2.660000e-06	3.617157e-06	3.332986e-09	5.192300e+01	2.221896e+02
2.670000e-06	3.594462e-06	3.264506e-09	5.159722e+01	2.216406e+02
2.680000e-06	3.570729e-06	3.231644e-09	5.125654e+01	2.210734e+02
2.690000e-06	3.546509e-06	3.298590e-09	5.090887e+01	2.204917e+02
2.700000e-06	3.521747e-06	3.306159e-09	5.055343e+01	2.198988e+02
2.710000e-06	3.496231e-06	3.213024e-09	5.018714e+01	2.192973e+02
2.720000e-06	3.470312e-06	3.192799e-09	4.981509e+01	2.186893e+02
2.730000e-06	3.443970e-06	3.283861e-09	4.943695e+01	2.180760e+02
2.740000e-06	3.416746e-06	3.281176e-09	4.904617e+01	2.174578e+02
2.750000e-06	3.388887e-06	3.147439e-09	4.864626e+01	2.168342e+02
2.760000e-06	3.360746e-06	3.176245e-09	4.824231e+01	2.162039e+02
2.770000e-06	3.332128e-06	3.267104e-09	4.783151e+01	2.155651e+02
2.780000e-06	3.302746e-06	3.187517e-09	4.740974e+01	2.149153e+02
2.790000e-06	3.272623e-06	3.149812e-09	4.697734e+01	2.142515e+02
2.800000e-06	3.241851e-06	3.178336e-09	4.653562e+01	2.135706e+02
2.810000e-06	3.210323e-06	3.158754e-09	4.608303e+01	2.128696e+02
2.820000e-06	3.178207e-06	3.163755e-09	4.562203e+01	2.121455e+02
2.830000e-06	3.145794e-06	3.150355e-09	4.515675e+01	2.113956e+02
2.840000e-06	3.112883e-06	3.120910e-09	4.468432e+01	2.106177e+02
2.850000e-06	3.079311e-06	3.104299e-09	4.420240e+01	2.098102e+02
2.860000e-06	3.045269e-06	3.100995e-09	4.371374e+01	2.089717e+02
2.870000e-06	3.010840e-06	3.128598e-09	4.321953e+01	2.081018e+02
2.880000e-06	2.975827e-06	3.079942e-09	4.271694e+01	2.072004e+02
2.890000e-06	2.940190e-06	3.025596e-09	4.220537e+01	2.062678e+02
2.900000e-06	2.904175e-06	3.054763e-09	4.168839e+01	2.053049e+02
2.910000e-06	2.867910e-06	3.073794e-09	4.116783e+01	2.043126e+02
2.920000e-06	2.831236e-06	3.040383e-09	4.064139e+01	2.032920e+02
2.930000e-06	2.793969e-06	2.981478e-09	4.010643e+01	2.022442e+02
2.940000e-06	2.756002e-06	2.983562e-09	3.956143e+01	2.011701e+02
2.950000e-06	2.717160e-06	3.010585e-09	3.900386e+01	2.000703e+02
