# Temperatura_=_20.0
# Concentracion g/m^3_=_9000.0
# C_Vs_to_Am_M_A/Vsm_=_65563218390.804596
# pendiente_HvsI_1/m_=_3716.3
# ordenada_HvsI_A/m_=_1297.0
# frecuencia_Hz_=_212863.57472479928

Tiempo_(s)	Campo_(V.s)	Magnetizacion_(V.s)	Campo_(kA/m)	Magnetizacion_(A/m)
0.000000e+00	-3.973937e-06	-3.531319e-09	-5.698992e+01	-2.336802e+02
1.000000e-08	-3.973800e-06	-3.531460e-09	-5.698796e+01	-2.335954e+02
2.000000e-08	-3.972802e-06	-3.528450e-09	-5.697365e+01	-2.335034e+02
3.000000e-08	-3.970801e-06	-3.526319e-09	-5.694495e+01	-2.334100e+02
4.000000e-08	-3.967926e-06	-3.526410e-09	-5.690372e+01	-2.333204e+02
5.000000e-08	-3.964473e-06	-3.524374e-09	-5.685420e+01	-2.332385e+02
6.000000e-08	-3.960532e-06	-3.524191e-09	-5.679769e+01	-2.331669e+02
7.000000e-08	-3.955991e-06	-3.532744e-09	-5.673257e+01	-2.331059e+02
8.000000e-08	-3.950702e-06	-3.537118e-09	-5.665671e+01	-2.330542e+02
9.000000e-08	-3.944573e-06	-3.515635e-09	-5.656882e+01	-2.330080e+02
1.000000e-07	-3.937678e-06	-3.485343e-09	-5.646994e+01	-2.329617e+02
1.100000e-07	-3.930246e-06	-3.495726e-09	-5.636335e+01	-2.329077e+02
1.200000e-07	-3.922415e-06	-3.562343e-09	-5.625105e+01	-2.328368e+02
1.300000e-07	-3.913903e-06	-3.544487e-09	-5.612898e+01	-2.327390e+02
1.400000e-07	-3.904494e-06	-3.492570e-09	-5.599404e+01	-2.326035e+02
1.500000e-07	-3.894305e-06	-3.483900e-09	-5.584793e+01	-2.324198e+02
1.600000e-07	-3.883216e-06	-3.557141e-09	-5.568890e+01	-2.321783e+02
1.700000e-07	-3.871075e-06	-3.579101e-09	-5.551478e+01	-2.318706e+02
1.800000e-07	-3.858304e-06	-3.551192e-09	-5.533164e+01	-2.314902e+02
1.900000e-07	-3.845065e-06	-3.532038e-09	-5.514179e+01	-2.310333e+02
2.000000e-07	-3.830696e-06	-3.463309e-09	-5.493572e+01	-2.304987e+02
2.100000e-07	-3.815137e-06	-3.509588e-09	-5.471259e+01	-2.298880e+02
2.200000e-07	-3.799024e-06	-3.545563e-09	-5.448152e+01	-2.292060e+02
2.300000e-07	-3.782375e-06	-3.476714e-09	-5.424274e+01	-2.284602e+02
2.400000e-07	-3.765034e-06	-3.390261e-09	-5.399406e+01	-2.276606e+02
2.500000e-07	-3.747066e-06	-3.460783e-09	-5.373639e+01	-2.268191e+02
2.600000e-07	-3.728484e-06	-3.524685e-09	-5.346990e+01	-2.259493e+02
2.700000e-07	-3.709337e-06	-3.441920e-09	-5.319531e+01	-2.250652e+02
2.800000e-07	-3.689738e-06	-3.389198e-09	-5.291425e+01	-2.241810e+02
2.900000e-07	-3.669617e-06	-3.427860e-09	-5.262569e+01	-2.233100e+02
3.000000e-07	-3.648810e-06	-3.489695e-09	-5.232731e+01	-2.224642e+02
3.100000e-07	-3.627353e-06	-3.461981e-09	-5.201959e+01	-2.216536e+02
3.200000e-07	-3.605212e-06	-3.402568e-09	-5.170207e+01	-2.208854e+02
3.300000e-07	-3.582431e-06	-3.392322e-09	-5.137536e+01	-2.201644e+02
3.400000e-07	-3.559144e-06	-3.415578e-09	-5.104141e+01	-2.194920e+02
3.500000e-07	-3.535305e-06	-3.424925e-09	-5.069953e+01	-2.188666e+02
3.600000e-07	-3.510938e-06	-3.419499e-09	-5.035009e+01	-2.182840e+02
3.700000e-07	-3.485793e-06	-3.371199e-09	-4.998948e+01	-2.177372e+02
3.800000e-07	-3.459564e-06	-3.324411e-09	-4.961334e+01	-2.172173e+02
3.900000e-07	-3.432565e-06	-3.381255e-09	-4.922615e+01	-2.167138e+02
4.000000e-07	-3.405164e-06	-3.423308e-09	-4.883319e+01	-2.162155e+02
4.100000e-07	-3.377330e-06	-3.318618e-09	-4.843403e+01	-2.157110e+02
4.200000e-07	-3.348829e-06	-3.266773e-09	-4.802529e+01	-2.151891e+02
4.300000e-07	-3.319715e-06	-3.363754e-09	-4.760777e+01	-2.146398e+02
4.400000e-07	-3.290165e-06	-3.360215e-09	-4.718400e+01	-2.140548e+02
4.500000e-07	-3.260012e-06	-3.278946e-09	-4.675159e+01	-2.134272e+02
4.600000e-07	-3.229237e-06	-3.274514e-09	-4.631025e+01	-2.127525e+02
4.700000e-07	-3.198023e-06	-3.292470e-09	-4.586260e+01	-2.120286e+02
4.800000e-07	-3.166489e-06	-3.282172e-09	-4.541037e+01	-2.112550e+02
4.900000e-07	-3.134589e-06	-3.264477e-09	-4.495290e+01	-2.104335e+02
5.000000e-07	-3.102066e-06	-3.241886e-09	-4.448648e+01	-2.095675e+02
5.100000e-07	-3.068650e-06	-3.213743e-09	-4.400727e+01	-2.086615e+02
5.200000e-07	-3.034326e-06	-3.216552e-09	-4.351504e+01	-2.077208e+02
5.300000e-07	-2.999381e-06	-3.226100e-09	-4.301389e+01	-2.067509e+02
5.400000e-07	-2.964051e-06	-3.193924e-09	-4.250723e+01	-2.057573e+02
5.500000e-07	-2.928352e-06	-3.157625e-09	-4.199527e+01	-2.047447e+02
5.600000e-07	-2.892251e-06	-3.150032e-09	-4.147755e+01	-2.037170e+02
5.700000e-07	-2.855636e-06	-3.157039e-09	-4.095245e+01	-2.026767e+02
5.800000e-07	-2.818476e-06	-3.140224e-09	-4.041954e+01	-2.016249e+02
5.900000e-07	-2.780823e-06	-3.094218e-09	-3.987957e+01	-2.005616e+02
6.000000e-07	-2.742649e-06	-3.080051e-09	-3.933212e+01	-1.994851e+02
6.100000e-07	-2.703954e-06	-3.085999e-09	-3.877720e+01	-1.983925e+02
6.200000e-07	-2.664838e-06	-3.063914e-09	-3.821623e+01	-1.972802e+02
6.300000e-07	-2.625420e-06	-3.028441e-09	-3.765094e+01	-1.961438e+02
6.400000e-07	-2.585747e-06	-3.013556e-09	-3.708200e+01	-1.949785e+02
6.500000e-07	-2.545705e-06	-3.007778e-09	-3.650775e+01	-1.937796e+02
6.600000e-07	-2.505032e-06	-2.982142e-09	-3.592448e+01	-1.925428e+02
6.700000e-07	-2.463583e-06	-2.958628e-09	-3.533005e+01	-1.912644e+02
6.800000e-07	-2.421397e-06	-2.941765e-09	-3.472506e+01	-1.899414e+02
6.900000e-07	-2.378596e-06	-2.916460e-09	-3.411126e+01	-1.885719e+02
7.000000e-07	-2.335385e-06	-2.897117e-09	-3.349157e+01	-1.871550e+02
7.100000e-07	-2.291917e-06	-2.877419e-09	-3.286821e+01	-1.856907e+02
7.200000e-07	-2.248188e-06	-2.850358e-09	-3.224110e+01	-1.841799e+02
7.300000e-07	-2.204130e-06	-2.824318e-09	-3.160926e+01	-1.826242e+02
7.400000e-07	-2.159650e-06	-2.806175e-09	-3.097137e+01	-1.810258e+02
7.500000e-07	-2.114726e-06	-2.784591e-09	-3.032712e+01	-1.793870e+02
7.600000e-07	-2.069451e-06	-2.746162e-09	-2.967784e+01	-1.777101e+02
7.700000e-07	-2.023882e-06	-2.715991e-09	-2.902434e+01	-1.759972e+02
7.800000e-07	-1.977992e-06	-2.697601e-09	-2.836622e+01	-1.742498e+02
7.900000e-07	-1.931750e-06	-2.670078e-09	-2.770307e+01	-1.724688e+02
8.000000e-07	-1.885058e-06	-2.632113e-09	-2.703348e+01	-1.706545e+02
8.100000e-07	-1.838021e-06	-2.598582e-09	-2.635891e+01	-1.688063e+02
8.200000e-07	-1.790805e-06	-2.579713e-09	-2.568180e+01	-1.669227e+02
8.300000e-07	-1.743386e-06	-2.556369e-09	-2.500177e+01	-1.650017e+02
8.400000e-07	-1.695771e-06	-2.519729e-09	-2.431892e+01	-1.630407e+02
8.500000e-07	-1.647966e-06	-2.482522e-09	-2.363335e+01	-1.610367e+02
8.600000e-07	-1.599812e-06	-2.451522e-09	-2.294279e+01	-1.589863e+02
8.700000e-07	-1.551192e-06	-2.425177e-09	-2.224553e+01	-1.568862e+02
8.800000e-07	-1.502074e-06	-2.390880e-09	-2.154112e+01	-1.547332e+02
8.900000e-07	-1.452554e-06	-2.349687e-09	-2.083096e+01	-1.525243e+02
9.000000e-07	-1.402705e-06	-2.310905e-09	-2.011609e+01	-1.502567e+02
9.100000e-07	-1.352391e-06	-2.276557e-09	-1.939454e+01	-1.479280e+02
9.200000e-07	-1.301607e-06	-2.245177e-09	-1.866624e+01	-1.455360e+02
9.300000e-07	-1.250544e-06	-2.203538e-09	-1.793395e+01	-1.430790e+02
9.400000e-07	-1.199362e-06	-2.154978e-09	-1.719996e+01	-1.405551e+02
9.500000e-07	-1.147987e-06	-2.112239e-09	-1.646319e+01	-1.379625e+02
9.600000e-07	-1.096367e-06	-2.074924e-09	-1.572292e+01	-1.352992e+02
9.700000e-07	-1.044529e-06	-2.035350e-09	-1.497952e+01	-1.325628e+02
9.800000e-07	-9.925028e-07	-1.985502e-09	-1.423341e+01	-1.297503e+02
9.900000e-07	-9.403329e-07	-1.936838e-09	-1.348524e+01	-1.268581e+02
1.000000e-06	-8.879266e-07	-1.895586e-09	-1.273369e+01	-1.238818e+02
1.010000e-06	-8.352545e-07	-1.851271e-09	-1.197832e+01	-1.208163e+02
1.020000e-06	-7.824560e-07	-1.800215e-09	-1.122114e+01	-1.176558e+02
1.030000e-06	-7.295186e-07	-1.744373e-09	-1.046197e+01	-1.143935e+02
1.040000e-06	-6.764383e-07	-1.690012e-09	-9.700749e+00	-1.110226e+02
1.050000e-06	-6.233442e-07	-1.638603e-09	-8.939332e+00	-1.075356e+02
1.060000e-06	-5.701939e-07	-1.584520e-09	-8.177106e+00	-1.039252e+02
1.070000e-06	-5.169406e-07	-1.525574e-09	-7.413405e+00	-1.001841e+02
1.080000e-06	-4.635824e-07	-1.462145e-09	-6.648200e+00	-9.630564e+01
1.090000e-06	-4.101002e-07	-1.399527e-09	-5.881215e+00	-9.228377e+01
1.100000e-06	-3.565556e-07	-1.335338e-09	-5.113337e+00	-8.811350e+01
1.110000e-06	-3.030111e-07	-1.266015e-09	-4.345459e+00	-8.379101e+01
1.120000e-06	-2.494673e-07	-1.193297e-09	-3.577592e+00	-7.931384e+01
1.130000e-06	-1.958768e-07	-1.118741e-09	-2.809054e+00	-7.468092e+01
1.140000e-06	-1.422289e-07	-1.047013e-09	-2.039693e+00	-6.989272e+01
1.150000e-06	-8.857011e-08	-9.731691e-10	-1.270177e+00	-6.495114e+01
1.160000e-06	-3.492932e-08	-8.949694e-10	-5.009186e-01	-5.985950e+01
1.170000e-06	1.872395e-08	-8.154919e-10	2.685187e-01	-5.462241e+01
1.180000e-06	7.239100e-08	-7.339309e-10	1.038154e+00	-4.924569e+01
1.190000e-06	1.261066e-07	-6.511543e-10	1.808485e+00	-4.373615e+01
1.200000e-06	1.797700e-07	-5.643871e-10	2.578067e+00	-3.810153e+01
1.210000e-06	2.332949e-07	-4.740986e-10	3.345665e+00	-3.235029e+01
1.220000e-06	2.867745e-07	-3.834098e-10	4.112611e+00	-2.649157e+01
1.230000e-06	3.402772e-07	-2.918997e-10	4.879889e+00	-2.053510e+01
1.240000e-06	3.937203e-07	-2.009238e-10	5.646313e+00	-1.449112e+01
1.250000e-06	4.470328e-07	-1.081099e-10	6.410862e+00	-8.370419e+00
1.260000e-06	5.002714e-07	-1.396456e-11	7.174354e+00	-2.184326e+00
1.270000e-06	5.534275e-07	7.945466e-11	7.936662e+00	4.055227e+00
1.280000e-06	6.064881e-07	1.754908e-10	8.697599e+00	1.033566e+01
1.290000e-06	6.594423e-07	2.731793e-10	9.457012e+00	1.664372e+01
1.300000e-06	7.122822e-07	3.708527e-10	1.021478e+01	2.296541e+01
1.310000e-06	7.650350e-07	4.674586e-10	1.097131e+01	2.928603e+01
1.320000e-06	8.175920e-07	5.642671e-10	1.172502e+01	3.559020e+01
1.330000e-06	8.699113e-07	6.617102e-10	1.247533e+01	4.186198e+01
1.340000e-06	9.221012e-07	7.561064e-10	1.322378e+01	4.808502e+01
1.350000e-06	9.741449e-07	8.494056e-10	1.397014e+01	5.424275e+01
1.360000e-06	1.026009e-06	9.414479e-10	1.471392e+01	6.031867e+01
1.370000e-06	1.077708e-06	1.031429e-09	1.545532e+01	6.629666e+01
1.380000e-06	1.129265e-06	1.119233e-09	1.619471e+01	7.216131e+01
1.390000e-06	1.180626e-06	1.204392e-09	1.693127e+01	7.789827e+01
1.400000e-06	1.231782e-06	1.289498e-09	1.766489e+01	8.349458e+01
1.410000e-06	1.282722e-06	1.373076e-09	1.839542e+01	8.893900e+01
1.420000e-06	1.333357e-06	1.455261e-09	1.912157e+01	9.422230e+01
1.430000e-06	1.383595e-06	1.536206e-09	1.984203e+01	9.933742e+01
1.440000e-06	1.433381e-06	1.613047e-09	2.055601e+01	1.042796e+02
1.450000e-06	1.482720e-06	1.686213e-09	2.126357e+01	1.090465e+02
1.460000e-06	1.531608e-06	1.755947e-09	2.196468e+01	1.136380e+02
1.470000e-06	1.580091e-06	1.822977e-09	2.265996e+01	1.180562e+02
1.480000e-06	1.628227e-06	1.886272e-09	2.335027e+01	1.223052e+02
1.490000e-06	1.676067e-06	1.947148e-09	2.403635e+01	1.263905e+02
1.500000e-06	1.723670e-06	2.008324e-09	2.471901e+01	1.303190e+02
1.510000e-06	1.771080e-06	2.066150e-09	2.539892e+01	1.340987e+02
1.520000e-06	1.818278e-06	2.119146e-09	2.607579e+01	1.377379e+02
1.530000e-06	1.865137e-06	2.172786e-09	2.674779e+01	1.412449e+02
1.540000e-06	1.911598e-06	2.228194e-09	2.741408e+01	1.446281e+02
1.550000e-06	1.957722e-06	2.278589e-09	2.807554e+01	1.478951e+02
1.560000e-06	2.003531e-06	2.322664e-09	2.873249e+01	1.510529e+02
1.570000e-06	2.048977e-06	2.365839e-09	2.938423e+01	1.541073e+02
1.580000e-06	2.094065e-06	2.409235e-09	3.003082e+01	1.570635e+02
1.590000e-06	2.138827e-06	2.451714e-09	3.067276e+01	1.599254e+02
1.600000e-06	2.183150e-06	2.493279e-09	3.130839e+01	1.626960e+02
1.610000e-06	2.227051e-06	2.533795e-09	3.193796e+01	1.653777e+02
1.620000e-06	2.270722e-06	2.574955e-09	3.256426e+01	1.679721e+02
1.630000e-06	2.314188e-06	2.614020e-09	3.318759e+01	1.704806e+02
1.640000e-06	2.357374e-06	2.649351e-09	3.380692e+01	1.729041e+02
1.650000e-06	2.400173e-06	2.681683e-09	3.442069e+01	1.752440e+02
1.660000e-06	2.442372e-06	2.712256e-09	3.502587e+01	1.775015e+02
1.670000e-06	2.483890e-06	2.743187e-09	3.562128e+01	1.796785e+02
1.680000e-06	2.524739e-06	2.773595e-09	3.620708e+01	1.817772e+02
1.690000e-06	2.564896e-06	2.804720e-09	3.678298e+01	1.838003e+02
1.700000e-06	2.604604e-06	2.834583e-09	3.735243e+01	1.857510e+02
1.710000e-06	2.644048e-06	2.861595e-09	3.791809e+01	1.876329e+02
1.720000e-06	2.683142e-06	2.887451e-09	3.847874e+01	1.894501e+02
1.730000e-06	2.721837e-06	2.914121e-09	3.903365e+01	1.912065e+02
1.740000e-06	2.760100e-06	2.942612e-09	3.958238e+01	1.929061e+02
1.750000e-06	2.797898e-06	2.968668e-09	4.012444e+01	1.945529e+02
1.760000e-06	2.835233e-06	2.992300e-09	4.065986e+01	1.961504e+02
1.770000e-06	2.872034e-06	3.015840e-09	4.118761e+01	1.977015e+02
1.780000e-06	2.908278e-06	3.038760e-09	4.170739e+01	1.992087e+02
1.790000e-06	2.944142e-06	3.062225e-09	4.222172e+01	2.006739e+02
1.800000e-06	2.979709e-06	3.084333e-09	4.273177e+01	2.020981e+02
1.810000e-06	3.014950e-06	3.104441e-09	4.323716e+01	2.034822e+02
1.820000e-06	3.049755e-06	3.125184e-09	4.373630e+01	2.048261e+02
1.830000e-06	3.083810e-06	3.145791e-09	4.422468e+01	2.061297e+02
1.840000e-06	3.116953e-06	3.165509e-09	4.469999e+01	2.073926e+02
1.850000e-06	3.149305e-06	3.184353e-09	4.516394e+01	2.086143e+02
1.860000e-06	3.181082e-06	3.203037e-09	4.561966e+01	2.097945e+02
1.870000e-06	3.212481e-06	3.222912e-09	4.606994e+01	2.109331e+02
1.880000e-06	3.243425e-06	3.242489e-09	4.651371e+01	2.120304e+02
1.890000e-06	3.273814e-06	3.260206e-09	4.694951e+01	2.130869e+02
1.900000e-06	3.303607e-06	3.276084e-09	4.737677e+01	2.141040e+02
1.910000e-06	3.332769e-06	3.291801e-09	4.779498e+01	2.150830e+02
1.920000e-06	3.361352e-06	3.305832e-09	4.820489e+01	2.160259e+02
1.930000e-06	3.389389e-06	3.317910e-09	4.860696e+01	2.169348e+02
1.940000e-06	3.417031e-06	3.329921e-09	4.900338e+01	2.178120e+02
1.950000e-06	3.444321e-06	3.343022e-09	4.939475e+01	2.186597e+02
1.960000e-06	3.470964e-06	3.358150e-09	4.977682e+01	2.194801e+02
1.970000e-06	3.496701e-06	3.371353e-09	5.014592e+01	2.202748e+02
1.980000e-06	3.521496e-06	3.382707e-09	5.050149e+01	2.210453e+02
1.990000e-06	3.545520e-06	3.395037e-09	5.084603e+01	2.217924e+02
2.000000e-06	3.569012e-06	3.408196e-09	5.118293e+01	2.225164e+02
2.010000e-06	3.591962e-06	3.419471e-09	5.151205e+01	2.232175e+02
2.020000e-06	3.614257e-06	3.427226e-09	5.183178e+01	2.238949e+02
2.030000e-06	3.635920e-06	3.435011e-09	5.214244e+01	2.245479e+02
2.040000e-06	3.656963e-06	3.444820e-09	5.244423e+01	2.251756e+02
2.050000e-06	3.677415e-06	3.454217e-09	5.273752e+01	2.257768e+02
2.060000e-06	3.697369e-06	3.462574e-09	5.302368e+01	2.263509e+02
2.070000e-06	3.716899e-06	3.471824e-09	5.330377e+01	2.268973e+02
2.080000e-06	3.735925e-06	3.481850e-09	5.357661e+01	2.274159e+02
2.090000e-06	3.754293e-06	3.490172e-09	5.384003e+01	2.279071e+02
2.100000e-06	3.771896e-06	3.496097e-09	5.409246e+01	2.283719e+02
2.110000e-06	3.788838e-06	3.501745e-09	5.433543e+01	2.288119e+02
2.120000e-06	3.805261e-06	3.507580e-09	5.457095e+01	2.292291e+02
2.130000e-06	3.821007e-06	3.513836e-09	5.479677e+01	2.296258e+02
2.140000e-06	3.835880e-06	3.521112e-09	5.501007e+01	2.300046e+02
2.150000e-06	3.849908e-06	3.530483e-09	5.521123e+01	2.303680e+02
2.160000e-06	3.863222e-06	3.540050e-09	5.540217e+01	2.307183e+02
2.170000e-06	3.875827e-06	3.547922e-09	5.558293e+01	2.310574e+02
2.180000e-06	3.887786e-06	3.555836e-09	5.575443e+01	2.313863e+02
2.190000e-06	3.899094e-06	3.562316e-09	5.591660e+01	2.317057e+02
2.200000e-06	3.909585e-06	3.567375e-09	5.606706e+01	2.320150e+02
2.210000e-06	3.919066e-06	3.571965e-09	5.620302e+01	2.323130e+02
2.220000e-06	3.927538e-06	3.576000e-09	5.632452e+01	2.325975e+02
2.230000e-06	3.935309e-06	3.579714e-09	5.643596e+01	2.328657e+02
2.240000e-06	3.942502e-06	3.583663e-09	5.653912e+01	2.331141e+02
2.250000e-06	3.949060e-06	3.588463e-09	5.663317e+01	2.333391e+02
2.260000e-06	3.954955e-06	3.591608e-09	5.671770e+01	2.335372e+02
2.270000e-06	3.960147e-06	3.593174e-09	5.679216e+01	2.337050e+02
2.280000e-06	3.964658e-06	3.595279e-09	5.685685e+01	2.338400e+02
2.290000e-06	3.968593e-06	3.599579e-09	5.691328e+01	2.339404e+02
2.300000e-06	3.972062e-06	3.602558e-09	5.696304e+01	2.340058e+02
2.310000e-06	3.974873e-06	3.602260e-09	5.700335e+01	2.340369e+02
2.320000e-06	3.976705e-06	3.603277e-09	5.702961e+01	2.340357e+02
2.330000e-06	3.977495e-06	3.605618e-09	5.704095e+01	2.340057e+02
2.340000e-06	3.977533e-06	3.608229e-09	5.704150e+01	2.339515e+02
2.350000e-06	3.977054e-06	3.609293e-09	5.703463e+01	2.338785e+02
2.360000e-06	3.975981e-06	3.610013e-09	5.701924e+01	2.337927e+02
2.370000e-06	3.974249e-06	3.610704e-09	5.699440e+01	2.337003e+02
2.380000e-06	3.971918e-06	3.611193e-09	5.696097e+01	2.336070e+02
2.390000e-06	3.968956e-06	3.609699e-09	5.691849e+01	2.335179e+02
2.400000e-06	3.965303e-06	3.606573e-09	5.686611e+01	2.334369e+02
2.410000e-06	3.961138e-06	3.597922e-09	5.680637e+01	2.333663e+02
2.420000e-06	3.956561e-06	3.589153e-09	5.674073e+01	2.333063e+02
2.430000e-06	3.951227e-06	3.596255e-09	5.666423e+01	2.332552e+02
2.440000e-06	3.944704e-06	3.626425e-09	5.657069e+01	2.332093e+02
2.450000e-06	3.937074e-06	3.624940e-09	5.646127e+01	2.331626e+02
2.460000e-06	3.928877e-06	3.557742e-09	5.634373e+01	2.331072e+02
2.470000e-06	3.920423e-06	3.557985e-09	5.622249e+01	2.330340e+02
2.480000e-06	3.911324e-06	3.588501e-09	5.609200e+01	2.329328e+02
2.490000e-06	3.901226e-06	3.605768e-09	5.594718e+01	2.327929e+02
2.500000e-06	3.890648e-06	3.533342e-09	5.579549e+01	2.326038e+02
2.510000e-06	3.879830e-06	3.513554e-09	5.564034e+01	2.323560e+02
2.520000e-06	3.867953e-06	3.512648e-09	5.547001e+01	2.320412e+02
2.530000e-06	3.854976e-06	3.522192e-09	5.528391e+01	2.316533e+02
2.540000e-06	3.841670e-06	3.578976e-09	5.509310e+01	2.311885e+02
2.550000e-06	3.827730e-06	3.530711e-09	5.489318e+01	2.306461e+02
2.560000e-06	3.812593e-06	3.463915e-09	5.467611e+01	2.300279e+02
2.570000e-06	3.796586e-06	3.496161e-09	5.444654e+01	2.293391e+02
2.580000e-06	3.780032e-06	3.603297e-09	5.420915e+01	2.285873e+02
2.590000e-06	3.762822e-06	3.505945e-09	5.396234e+01	2.277829e+02
2.600000e-06	3.744895e-06	3.390477e-09	5.370525e+01	2.269380e+02
2.610000e-06	3.726290e-06	3.420808e-09	5.343844e+01	2.260660e+02
2.620000e-06	3.707033e-06	3.427114e-09	5.316227e+01	2.251812e+02
2.630000e-06	3.687154e-06	3.341444e-09	5.287719e+01	2.242977e+02
2.640000e-06	3.666753e-06	3.296584e-09	5.258462e+01	2.234286e+02
2.650000e-06	3.645983e-06	3.323226e-09	5.228677e+01	2.225859e+02
2.660000e-06	3.624629e-06	3.318049e-09	5.198052e+01	2.217791e+02
2.670000e-06	3.602183e-06	3.331622e-09	5.165863e+01	2.210155e+02
2.680000e-06	3.578701e-06	3.323985e-09	5.132187e+01	2.202992e+02
2.690000e-06	3.554645e-06	3.268022e-09	5.097689e+01	2.196316e+02
2.700000e-06	3.529928e-06	3.264750e-09	5.062243e+01	2.190107e+02
2.710000e-06	3.504438e-06	3.287208e-09	5.025687e+01	2.184319e+02
2.720000e-06	3.478530e-06	3.313060e-09	4.988533e+01	2.178882e+02
2.730000e-06	3.452167e-06	3.266120e-09	4.950726e+01	2.173703e+02
2.740000e-06	3.425052e-06	3.180610e-09	4.911841e+01	2.168678e+02
2.750000e-06	3.397338e-06	3.248803e-09	4.872097e+01	2.163694e+02
2.760000e-06	3.369221e-06	3.309204e-09	4.831774e+01	2.158635e+02
2.770000e-06	3.340659e-06	3.206244e-09	4.790813e+01	2.153393e+02
2.780000e-06	3.311507e-06	3.170291e-09	4.749007e+01	2.147867e+02
2.790000e-06	3.281668e-06	3.231979e-09	4.706215e+01	2.141976e+02
2.800000e-06	3.251073e-06	3.223276e-09	4.662339e+01	2.135654e+02
2.810000e-06	3.219680e-06	3.185557e-09	4.617319e+01	2.128859e+02
2.820000e-06	3.187660e-06	3.179180e-09	4.571399e+01	2.121568e+02
2.830000e-06	3.155247e-06	3.168383e-09	4.524915e+01	2.113783e+02
2.840000e-06	3.122370e-06	3.155063e-09	4.477767e+01	2.105522e+02
2.850000e-06	3.088877e-06	3.150668e-09	4.429734e+01	2.096819e+02
2.860000e-06	3.054849e-06	3.138673e-09	4.380935e+01	2.087721e+02
2.870000e-06	3.020354e-06	3.121937e-09	4.331466e+01	2.078281e+02
2.880000e-06	2.985351e-06	3.096889e-09	4.281268e+01	2.068556e+02
2.890000e-06	2.949812e-06	3.096556e-09	4.230303e+01	2.058598e+02
2.900000e-06	2.913849e-06	3.101655e-09	4.178728e+01	2.048455e+02
2.910000e-06	2.877534e-06	3.063935e-09	4.126649e+01	2.038163e+02
2.920000e-06	2.840883e-06	3.040558e-09	4.074089e+01	2.027748e+02
2.930000e-06	2.803827e-06	3.045869e-09	4.020947e+01	2.017219e+02
2.940000e-06	2.766139e-06	3.032539e-09	3.966899e+01	2.006572e+02
2.950000e-06	2.727548e-06	2.998252e-09	3.911556e+01	1.995792e+02
