# Temperatura_=_20.0
# Concentracion g/m^3_=_9000.0
# C_Vs_to_Am_M_A/Vsm_=_65563218390.804596
# pendiente_HvsI_1/m_=_3716.3
# ordenada_HvsI_A/m_=_1297.0
# frecuencia_Hz_=_212865.9697475917

Tiempo_(s)	Campo_(V.s)	Magnetizacion_(V.s)	Campo_(kA/m)	Magnetizacion_(A/m)
0.000000e+00	-3.971234e-06	-3.413505e-09	-5.697970e+01	-2.298914e+02
1.000000e-08	-3.971270e-06	-3.413120e-09	-5.698022e+01	-2.298766e+02
2.000000e-08	-3.970615e-06	-3.411270e-09	-5.697082e+01	-2.298413e+02
3.000000e-08	-3.969046e-06	-3.409530e-09	-5.694831e+01	-2.297883e+02
4.000000e-08	-3.966490e-06	-3.408760e-09	-5.691164e+01	-2.297204e+02
5.000000e-08	-3.963146e-06	-3.407859e-09	-5.686366e+01	-2.296411e+02
6.000000e-08	-3.959296e-06	-3.408918e-09	-5.680841e+01	-2.295539e+02
7.000000e-08	-3.954942e-06	-3.415971e-09	-5.674595e+01	-2.294622e+02
8.000000e-08	-3.949910e-06	-3.421669e-09	-5.667374e+01	-2.293691e+02
9.000000e-08	-3.944073e-06	-3.409124e-09	-5.659000e+01	-2.292768e+02
1.000000e-07	-3.937392e-06	-3.380585e-09	-5.649414e+01	-2.291872e+02
1.100000e-07	-3.930072e-06	-3.391793e-09	-5.638911e+01	-2.291008e+02
1.200000e-07	-3.922316e-06	-3.441227e-09	-5.627782e+01	-2.290171e+02
1.300000e-07	-3.913928e-06	-3.403614e-09	-5.615747e+01	-2.289345e+02
1.400000e-07	-3.904715e-06	-3.362230e-09	-5.602528e+01	-2.288504e+02
1.500000e-07	-3.894741e-06	-3.385686e-09	-5.588218e+01	-2.287610e+02
1.600000e-07	-3.883890e-06	-3.455106e-09	-5.572648e+01	-2.286617e+02
1.700000e-07	-3.872009e-06	-3.418164e-09	-5.555602e+01	-2.285473e+02
1.800000e-07	-3.859421e-06	-3.423012e-09	-5.537540e+01	-2.284123e+02
1.900000e-07	-3.846399e-06	-3.453710e-09	-5.518856e+01	-2.282511e+02
2.000000e-07	-3.832450e-06	-3.371244e-09	-5.498842e+01	-2.280585e+02
2.100000e-07	-3.817188e-06	-3.449269e-09	-5.476944e+01	-2.278297e+02
2.200000e-07	-3.801064e-06	-3.537186e-09	-5.453808e+01	-2.275611e+02
2.300000e-07	-3.784404e-06	-3.490598e-09	-5.429905e+01	-2.272498e+02
2.400000e-07	-3.767209e-06	-3.422665e-09	-5.405234e+01	-2.268944e+02
2.500000e-07	-3.749443e-06	-3.537960e-09	-5.379743e+01	-2.264949e+02
2.600000e-07	-3.731073e-06	-3.577805e-09	-5.353384e+01	-2.260526e+02
2.700000e-07	-3.712110e-06	-3.469285e-09	-5.326176e+01	-2.255700e+02
2.800000e-07	-3.692572e-06	-3.487353e-09	-5.298144e+01	-2.250509e+02
2.900000e-07	-3.672570e-06	-3.541781e-09	-5.269445e+01	-2.244999e+02
3.000000e-07	-3.651997e-06	-3.541363e-09	-5.239925e+01	-2.239222e+02
3.100000e-07	-3.630706e-06	-3.499696e-09	-5.209377e+01	-2.233234e+02
3.200000e-07	-3.608733e-06	-3.497204e-09	-5.177850e+01	-2.227092e+02
3.300000e-07	-3.586096e-06	-3.494015e-09	-5.145370e+01	-2.220848e+02
3.400000e-07	-3.562898e-06	-3.476650e-09	-5.112085e+01	-2.214548e+02
3.500000e-07	-3.539176e-06	-3.478204e-09	-5.078049e+01	-2.208232e+02
3.600000e-07	-3.514922e-06	-3.486158e-09	-5.043249e+01	-2.201925e+02
3.700000e-07	-3.490036e-06	-3.452041e-09	-5.007542e+01	-2.195643e+02
3.800000e-07	-3.464246e-06	-3.407604e-09	-4.970538e+01	-2.189390e+02
3.900000e-07	-3.437464e-06	-3.448797e-09	-4.932112e+01	-2.183156e+02
4.000000e-07	-3.410045e-06	-3.469663e-09	-4.892771e+01	-2.176923e+02
4.100000e-07	-3.382261e-06	-3.377627e-09	-4.852906e+01	-2.170661e+02
4.200000e-07	-3.353926e-06	-3.357822e-09	-4.812250e+01	-2.164334e+02
4.300000e-07	-3.324950e-06	-3.438913e-09	-4.770675e+01	-2.157903e+02
4.400000e-07	-3.295488e-06	-3.397314e-09	-4.728403e+01	-2.151326e+02
4.500000e-07	-3.265581e-06	-3.330386e-09	-4.685493e+01	-2.144562e+02
4.600000e-07	-3.235069e-06	-3.358627e-09	-4.641712e+01	-2.137573e+02
4.700000e-07	-3.203988e-06	-3.375458e-09	-4.597118e+01	-2.130327e+02
4.800000e-07	-3.172546e-06	-3.331962e-09	-4.552004e+01	-2.122801e+02
4.900000e-07	-3.140779e-06	-3.300675e-09	-4.506425e+01	-2.114977e+02
5.000000e-07	-3.108500e-06	-3.313923e-09	-4.460110e+01	-2.106847e+02
5.100000e-07	-3.075512e-06	-3.302335e-09	-4.412778e+01	-2.098411e+02
5.200000e-07	-3.041555e-06	-3.276609e-09	-4.364057e+01	-2.089674e+02
5.300000e-07	-3.006722e-06	-3.266602e-09	-4.314078e+01	-2.080651e+02
5.400000e-07	-2.971435e-06	-3.252497e-09	-4.263448e+01	-2.071356e+02
5.500000e-07	-2.935829e-06	-3.236091e-09	-4.212360e+01	-2.061808e+02
5.600000e-07	-2.899849e-06	-3.219721e-09	-4.160736e+01	-2.052025e+02
5.700000e-07	-2.863386e-06	-3.211633e-09	-4.108418e+01	-2.042023e+02
5.800000e-07	-2.826431e-06	-3.186850e-09	-4.055394e+01	-2.031813e+02
5.900000e-07	-2.789005e-06	-3.151430e-09	-4.001696e+01	-2.021402e+02
6.000000e-07	-2.751065e-06	-3.158526e-09	-3.947258e+01	-2.010789e+02
6.100000e-07	-2.712565e-06	-3.154730e-09	-3.892018e+01	-1.999968e+02
6.200000e-07	-2.673558e-06	-3.108547e-09	-3.836050e+01	-1.988927e+02
6.300000e-07	-2.634182e-06	-3.079424e-09	-3.779554e+01	-1.977646e+02
6.400000e-07	-2.594565e-06	-3.087906e-09	-3.722711e+01	-1.966101e+02
6.500000e-07	-2.554660e-06	-3.079087e-09	-3.665455e+01	-1.954267e+02
6.600000e-07	-2.514160e-06	-3.031607e-09	-3.607345e+01	-1.942114e+02
6.700000e-07	-2.472924e-06	-3.008353e-09	-3.548179e+01	-1.929615e+02
6.800000e-07	-2.431034e-06	-3.005548e-09	-3.488074e+01	-1.916741e+02
6.900000e-07	-2.388521e-06	-2.984945e-09	-3.427076e+01	-1.903471e+02
7.000000e-07	-2.345470e-06	-2.955788e-09	-3.365306e+01	-1.889785e+02
7.100000e-07	-2.302044e-06	-2.924701e-09	-3.302998e+01	-1.875669e+02
7.200000e-07	-2.258368e-06	-2.902824e-09	-3.240331e+01	-1.861116e+02
7.300000e-07	-2.214421e-06	-2.886547e-09	-3.177276e+01	-1.846122e+02
7.400000e-07	-2.170063e-06	-2.868467e-09	-3.113630e+01	-1.830692e+02
7.500000e-07	-2.125256e-06	-2.840625e-09	-3.049341e+01	-1.814831e+02
7.600000e-07	-2.080097e-06	-2.801993e-09	-2.984546e+01	-1.798549e+02
7.700000e-07	-2.034600e-06	-2.779791e-09	-2.919266e+01	-1.781857e+02
7.800000e-07	-1.988783e-06	-2.764906e-09	-2.853528e+01	-1.764768e+02
7.900000e-07	-1.942624e-06	-2.734367e-09	-2.787298e+01	-1.747289e+02
8.000000e-07	-1.896089e-06	-2.691849e-09	-2.720530e+01	-1.729428e+02
8.100000e-07	-1.849211e-06	-2.659663e-09	-2.653269e+01	-1.711188e+02
8.200000e-07	-1.802071e-06	-2.646402e-09	-2.585632e+01	-1.692566e+02
8.300000e-07	-1.754706e-06	-2.619780e-09	-2.517672e+01	-1.673555e+02
8.400000e-07	-1.707143e-06	-2.578383e-09	-2.449428e+01	-1.654141e+02
8.500000e-07	-1.659386e-06	-2.545215e-09	-2.380906e+01	-1.634305e+02
8.600000e-07	-1.611355e-06	-2.518629e-09	-2.311990e+01	-1.614025e+02
8.700000e-07	-1.562960e-06	-2.489885e-09	-2.242552e+01	-1.593274e+02
8.800000e-07	-1.514163e-06	-2.452964e-09	-2.172538e+01	-1.572021e+02
8.900000e-07	-1.464943e-06	-2.416369e-09	-2.101917e+01	-1.550236e+02
9.000000e-07	-1.415285e-06	-2.379789e-09	-2.030666e+01	-1.527884e+02
9.100000e-07	-1.365137e-06	-2.340489e-09	-1.958714e+01	-1.504935e+02
9.200000e-07	-1.314479e-06	-2.305970e-09	-1.886029e+01	-1.481355e+02
9.300000e-07	-1.263501e-06	-2.266882e-09	-1.812885e+01	-1.457114e+02
9.400000e-07	-1.212362e-06	-2.224159e-09	-1.739511e+01	-1.432183e+02
9.500000e-07	-1.161053e-06	-2.182262e-09	-1.665891e+01	-1.406531e+02
9.600000e-07	-1.109529e-06	-2.141203e-09	-1.591965e+01	-1.380131e+02
9.700000e-07	-1.057818e-06	-2.100029e-09	-1.517769e+01	-1.352954e+02
9.800000e-07	-1.005927e-06	-2.051913e-09	-1.443316e+01	-1.324970e+02
9.900000e-07	-9.538680e-07	-2.006296e-09	-1.368620e+01	-1.296146e+02
1.000000e-06	-9.015825e-07	-1.961990e-09	-1.293601e+01	-1.266447e+02
1.010000e-06	-8.490372e-07	-1.912347e-09	-1.218208e+01	-1.235834e+02
1.020000e-06	-7.962987e-07	-1.863498e-09	-1.142538e+01	-1.204263e+02
1.030000e-06	-7.434334e-07	-1.814079e-09	-1.066687e+01	-1.171686e+02
1.040000e-06	-6.904679e-07	-1.761519e-09	-9.906910e+00	-1.138052e+02
1.050000e-06	-6.374033e-07	-1.704160e-09	-9.145534e+00	-1.103304e+02
1.060000e-06	-5.842042e-07	-1.647590e-09	-8.382227e+00	-1.067384e+02
1.070000e-06	-5.309076e-07	-1.592788e-09	-7.617521e+00	-1.030232e+02
1.080000e-06	-4.775662e-07	-1.531498e-09	-6.852173e+00	-9.917907e+01
1.090000e-06	-4.241199e-07	-1.467157e-09	-6.085319e+00	-9.520029e+01
1.100000e-06	-3.706038e-07	-1.400084e-09	-5.317464e+00	-9.108174e+01
1.110000e-06	-3.170640e-07	-1.332315e-09	-4.549270e+00	-8.681899e+01
1.120000e-06	-2.634900e-07	-1.264008e-09	-3.780584e+00	-8.240849e+01
1.130000e-06	-2.098733e-07	-1.190844e-09	-3.011285e+00	-7.784778e+01
1.140000e-06	-1.562292e-07	-1.116793e-09	-2.241593e+00	-7.313567e+01
1.150000e-06	-1.025916e-07	-1.041663e-09	-1.471996e+00	-6.827231e+01
1.160000e-06	-4.893067e-08	-9.664857e-10	-7.020627e-01	-6.325931e+01
1.170000e-06	4.725373e-09	-8.890402e-10	6.780018e-02	-5.809974e+01
1.180000e-06	5.831699e-08	-8.062206e-10	8.367387e-01	-5.279818e+01
1.190000e-06	1.118704e-07	-7.210661e-10	1.605129e+00	-4.736060e+01
1.200000e-06	1.654090e-07	-6.333016e-10	2.373306e+00	-4.179433e+01
1.210000e-06	2.189494e-07	-5.466104e-10	3.141510e+00	-3.610792e+01
1.220000e-06	2.724935e-07	-4.588472e-10	3.909768e+00	-3.031104e+01
1.230000e-06	3.259576e-07	-3.658749e-10	4.676876e+00	-2.441431e+01
1.240000e-06	3.793798e-07	-2.723785e-10	5.443383e+00	-1.842917e+01
1.250000e-06	4.327869e-07	-1.791283e-10	6.209675e+00	-1.236778e+01
1.260000e-06	4.860839e-07	-8.761955e-11	6.974385e+00	-6.242847e+00
1.270000e-06	5.392558e-07	5.954198e-12	7.737302e+00	-6.755265e-02
1.280000e-06	5.923212e-07	1.024768e-10	8.498691e+00	6.144547e+00
1.290000e-06	6.452958e-07	1.981531e-10	9.258776e+00	1.237960e+01
1.300000e-06	6.981146e-07	2.947049e-10	1.001663e+01	1.862352e+01
1.310000e-06	7.507713e-07	3.901413e-10	1.077215e+01	2.486205e+01
1.320000e-06	8.032759e-07	4.875175e-10	1.152549e+01	3.108080e+01
1.330000e-06	8.555864e-07	5.840980e-10	1.227605e+01	3.726535e+01
1.340000e-06	9.077548e-07	6.768429e-10	1.302457e+01	4.340130e+01
1.350000e-06	9.597643e-07	7.690562e-10	1.377081e+01	4.947437e+01
1.360000e-06	1.011594e-06	8.627235e-10	1.451446e+01	5.547054e+01
1.370000e-06	1.063285e-06	9.559305e-10	1.525613e+01	6.137616e+01
1.380000e-06	1.114818e-06	1.044726e-09	1.599554e+01	6.717815e+01
1.390000e-06	1.166243e-06	1.130839e-09	1.673339e+01	7.286416e+01
1.400000e-06	1.217508e-06	1.217332e-09	1.746894e+01	7.842278e+01
1.410000e-06	1.268471e-06	1.302594e-09	1.820016e+01	8.384375e+01
1.420000e-06	1.319144e-06	1.384851e-09	1.892723e+01	8.911813e+01
1.430000e-06	1.369420e-06	1.463057e-09	1.964859e+01	9.423849e+01
1.440000e-06	1.419236e-06	1.538207e-09	2.036335e+01	9.919907e+01
1.450000e-06	1.468631e-06	1.612296e-09	2.107209e+01	1.039959e+02
1.460000e-06	1.517563e-06	1.683653e-09	2.177417e+01	1.086267e+02
1.470000e-06	1.566079e-06	1.752432e-09	2.247028e+01	1.130911e+02
1.480000e-06	1.614249e-06	1.817604e-09	2.316142e+01	1.173907e+02
1.490000e-06	1.662124e-06	1.880980e-09	2.384834e+01	1.215283e+02
1.500000e-06	1.709783e-06	1.943349e-09	2.453216e+01	1.255085e+02
1.510000e-06	1.757268e-06	2.001870e-09	2.521348e+01	1.293372e+02
1.520000e-06	1.804542e-06	2.058439e-09	2.589177e+01	1.330209e+02
1.530000e-06	1.851533e-06	2.113492e-09	2.656599e+01	1.365672e+02
1.540000e-06	1.898145e-06	2.167325e-09	2.723480e+01	1.399839e+02
1.550000e-06	1.944334e-06	2.218829e-09	2.789752e+01	1.432789e+02
1.560000e-06	1.990160e-06	2.265132e-09	2.855503e+01	1.464598e+02
1.570000e-06	2.035609e-06	2.309599e-09	2.920714e+01	1.495341e+02
1.580000e-06	2.080739e-06	2.353136e-09	2.985467e+01	1.525081e+02
1.590000e-06	2.125547e-06	2.396148e-09	3.049758e+01	1.553879e+02
1.600000e-06	2.169955e-06	2.437453e-09	3.113476e+01	1.581783e+02
1.610000e-06	2.213999e-06	2.476977e-09	3.176671e+01	1.608834e+02
1.620000e-06	2.257736e-06	2.518300e-09	3.239425e+01	1.635062e+02
1.630000e-06	2.301260e-06	2.559403e-09	3.301873e+01	1.660492e+02
1.640000e-06	2.344567e-06	2.597462e-09	3.364011e+01	1.685139e+02
1.650000e-06	2.387510e-06	2.631915e-09	3.425626e+01	1.709014e+02
1.660000e-06	2.429886e-06	2.664987e-09	3.486427e+01	1.732127e+02
1.670000e-06	2.471537e-06	2.698164e-09	3.546188e+01	1.754483e+02
1.680000e-06	2.512396e-06	2.728760e-09	3.604813e+01	1.776089e+02
1.690000e-06	2.552641e-06	2.758083e-09	3.662558e+01	1.796953e+02
1.700000e-06	2.592517e-06	2.787984e-09	3.719772e+01	1.817087e+02
1.710000e-06	2.632094e-06	2.817122e-09	3.776558e+01	1.836506e+02
1.720000e-06	2.671377e-06	2.845037e-09	3.832921e+01	1.855229e+02
1.730000e-06	2.710251e-06	2.872544e-09	3.888698e+01	1.873280e+02
1.740000e-06	2.748626e-06	2.901491e-09	3.943758e+01	1.890685e+02
1.750000e-06	2.786534e-06	2.930521e-09	3.998149e+01	1.907475e+02
1.760000e-06	2.824000e-06	2.957049e-09	4.051906e+01	1.923681e+02
1.770000e-06	2.860985e-06	2.980820e-09	4.104973e+01	1.939335e+02
1.780000e-06	2.897431e-06	3.003035e-09	4.157266e+01	1.954467e+02
1.790000e-06	2.933404e-06	3.025544e-09	4.208881e+01	1.969108e+02
1.800000e-06	2.969031e-06	3.046830e-09	4.259999e+01	1.983282e+02
1.810000e-06	3.004362e-06	3.066801e-09	4.310691e+01	1.997011e+02
1.820000e-06	3.039224e-06	3.089026e-09	4.360712e+01	2.010313e+02
1.830000e-06	3.073353e-06	3.111473e-09	4.409681e+01	2.023201e+02
1.840000e-06	3.106633e-06	3.133302e-09	4.457431e+01	2.035683e+02
1.850000e-06	3.139130e-06	3.153800e-09	4.504059e+01	2.047764e+02
1.860000e-06	3.171060e-06	3.172497e-09	4.549872e+01	2.059446e+02
1.870000e-06	3.202599e-06	3.192728e-09	4.595125e+01	2.070729e+02
1.880000e-06	3.233672e-06	3.213235e-09	4.639709e+01	2.081614e+02
1.890000e-06	3.264157e-06	3.231525e-09	4.683449e+01	2.092101e+02
1.900000e-06	3.294042e-06	3.246867e-09	4.726327e+01	2.102193e+02
1.910000e-06	3.323379e-06	3.262251e-09	4.768421e+01	2.111894e+02
1.920000e-06	3.352170e-06	3.277951e-09	4.809731e+01	2.121212e+02
1.930000e-06	3.380408e-06	3.292459e-09	4.850247e+01	2.130161e+02
1.940000e-06	3.408202e-06	3.306502e-09	4.890127e+01	2.138755e+02
1.950000e-06	3.435588e-06	3.319824e-09	4.929420e+01	2.147014e+02
1.960000e-06	3.462294e-06	3.333767e-09	4.967738e+01	2.154958e+02
1.970000e-06	3.488111e-06	3.347445e-09	5.004781e+01	2.162610e+02
1.980000e-06	3.513115e-06	3.360126e-09	5.040656e+01	2.169993e+02
1.990000e-06	3.537392e-06	3.373647e-09	5.075489e+01	2.177129e+02
2.000000e-06	3.561027e-06	3.386569e-09	5.109400e+01	2.184038e+02
2.010000e-06	3.584056e-06	3.397332e-09	5.142443e+01	2.190738e+02
2.020000e-06	3.606474e-06	3.407300e-09	5.174608e+01	2.197242e+02
2.030000e-06	3.628307e-06	3.417289e-09	5.205935e+01	2.203557e+02
2.040000e-06	3.649542e-06	3.427917e-09	5.236404e+01	2.209688e+02
2.050000e-06	3.670147e-06	3.438710e-09	5.265967e+01	2.215635e+02
2.060000e-06	3.690237e-06	3.448605e-09	5.294793e+01	2.221393e+02
2.070000e-06	3.709896e-06	3.457703e-09	5.322999e+01	2.226954e+02
2.080000e-06	3.729004e-06	3.466992e-09	5.350416e+01	2.232309e+02
2.090000e-06	3.747464e-06	3.476903e-09	5.376903e+01	2.237447e+02
2.100000e-06	3.765281e-06	3.484492e-09	5.402467e+01	2.242358e+02
2.110000e-06	3.782479e-06	3.491020e-09	5.427143e+01	2.247035e+02
2.120000e-06	3.799059e-06	3.499483e-09	5.450932e+01	2.251471e+02
2.130000e-06	3.814915e-06	3.507973e-09	5.473682e+01	2.255664e+02
2.140000e-06	3.829963e-06	3.516208e-09	5.495273e+01	2.259616e+02
2.150000e-06	3.844258e-06	3.524488e-09	5.515784e+01	2.263334e+02
2.160000e-06	3.857822e-06	3.533094e-09	5.535245e+01	2.266826e+02
2.170000e-06	3.870655e-06	3.540947e-09	5.553659e+01	2.270106e+02
2.180000e-06	3.882822e-06	3.548451e-09	5.571116e+01	2.273189e+02
2.190000e-06	3.894329e-06	3.555561e-09	5.587627e+01	2.276091e+02
2.200000e-06	3.904970e-06	3.560535e-09	5.602895e+01	2.278828e+02
2.210000e-06	3.914598e-06	3.566237e-09	5.616709e+01	2.281413e+02
2.220000e-06	3.923318e-06	3.572766e-09	5.629221e+01	2.283858e+02
2.230000e-06	3.931268e-06	3.579515e-09	5.640627e+01	2.286169e+02
2.240000e-06	3.938588e-06	3.584957e-09	5.651130e+01	2.288350e+02
2.250000e-06	3.945329e-06	3.588026e-09	5.660802e+01	2.290398e+02
2.260000e-06	3.951428e-06	3.591232e-09	5.669552e+01	2.292305e+02
2.270000e-06	3.956837e-06	3.594901e-09	5.677314e+01	2.294060e+02
2.280000e-06	3.961550e-06	3.597502e-09	5.684076e+01	2.295648e+02
2.290000e-06	3.965643e-06	3.599518e-09	5.689948e+01	2.297053e+02
2.300000e-06	3.969243e-06	3.603037e-09	5.695114e+01	2.298257e+02
2.310000e-06	3.972193e-06	3.607961e-09	5.699346e+01	2.299245e+02
2.320000e-06	3.974269e-06	3.611079e-09	5.702325e+01	2.300004e+02
2.330000e-06	3.975351e-06	3.612706e-09	5.703878e+01	2.300526e+02
2.340000e-06	3.975541e-06	3.615243e-09	5.704150e+01	2.300811e+02
2.350000e-06	3.975104e-06	3.616992e-09	5.703524e+01	2.300862e+02
2.360000e-06	3.974125e-06	3.619555e-09	5.702119e+01	2.300692e+02
2.370000e-06	3.972566e-06	3.621970e-09	5.699882e+01	2.300320e+02
2.380000e-06	3.970409e-06	3.621686e-09	5.696787e+01	2.299774e+02
2.390000e-06	3.967640e-06	3.619504e-09	5.692813e+01	2.299082e+02
2.400000e-06	3.964177e-06	3.619491e-09	5.687846e+01	2.298280e+02
2.410000e-06	3.960120e-06	3.617301e-09	5.682024e+01	2.297402e+02
2.420000e-06	3.955676e-06	3.606305e-09	5.675648e+01	2.296482e+02
2.430000e-06	3.950684e-06	3.606549e-09	5.668485e+01	2.295551e+02
2.440000e-06	3.944587e-06	3.639737e-09	5.659737e+01	2.294630e+02
2.450000e-06	3.937263e-06	3.629458e-09	5.649229e+01	2.293737e+02
2.460000e-06	3.929193e-06	3.575505e-09	5.637649e+01	2.292876e+02
2.470000e-06	3.920813e-06	3.601365e-09	5.625627e+01	2.292041e+02
2.480000e-06	3.911982e-06	3.641788e-09	5.612955e+01	2.291215e+02
2.490000e-06	3.902199e-06	3.632528e-09	5.598919e+01	2.290371e+02
2.500000e-06	3.891719e-06	3.546998e-09	5.583882e+01	2.289469e+02
2.510000e-06	3.880941e-06	3.573374e-09	5.568417e+01	2.288463e+02
2.520000e-06	3.869433e-06	3.545857e-09	5.551905e+01	2.287301e+02
2.530000e-06	3.856804e-06	3.521754e-09	5.533785e+01	2.285928e+02
2.540000e-06	3.843463e-06	3.597225e-09	5.514643e+01	2.284287e+02
2.550000e-06	3.829618e-06	3.542489e-09	5.494778e+01	2.282326e+02
2.560000e-06	3.814864e-06	3.436668e-09	5.473609e+01	2.280001e+02
2.570000e-06	3.799132e-06	3.486235e-09	5.451036e+01	2.277272e+02
2.580000e-06	3.782713e-06	3.611922e-09	5.427479e+01	2.274116e+02
2.590000e-06	3.765683e-06	3.449890e-09	5.403044e+01	2.270518e+02
2.600000e-06	3.747967e-06	3.355308e-09	5.377624e+01	2.266480e+02
2.610000e-06	3.729556e-06	3.441747e-09	5.351208e+01	2.262015e+02
2.620000e-06	3.710469e-06	3.386398e-09	5.323822e+01	2.257151e+02
2.630000e-06	3.690769e-06	3.260810e-09	5.295557e+01	2.251925e+02
2.640000e-06	3.670558e-06	3.306017e-09	5.266558e+01	2.246386e+02
2.650000e-06	3.649938e-06	3.341291e-09	5.236972e+01	2.240585e+02
2.660000e-06	3.628757e-06	3.255472e-09	5.206581e+01	2.234580e+02
2.670000e-06	3.606593e-06	3.290587e-09	5.174779e+01	2.228425e+02
2.680000e-06	3.583381e-06	3.310756e-09	5.141475e+01	2.222173e+02
2.690000e-06	3.559469e-06	3.253631e-09	5.107165e+01	2.215871e+02
2.700000e-06	3.534987e-06	3.244920e-09	5.072038e+01	2.209554e+02
2.710000e-06	3.509824e-06	3.243286e-09	5.035935e+01	2.203249e+02
2.720000e-06	3.484069e-06	3.284180e-09	4.998981e+01	2.196970e+02
2.730000e-06	3.457848e-06	3.244745e-09	4.961359e+01	2.190720e+02
2.740000e-06	3.430992e-06	3.161610e-09	4.922825e+01	2.184488e+02
2.750000e-06	3.403458e-06	3.241005e-09	4.883319e+01	2.178253e+02
2.760000e-06	3.375447e-06	3.262399e-09	4.843129e+01	2.171986e+02
2.770000e-06	3.347026e-06	3.151596e-09	4.802350e+01	2.165651e+02
2.780000e-06	3.318119e-06	3.165199e-09	4.760874e+01	2.159207e+02
2.790000e-06	3.288579e-06	3.226132e-09	4.718489e+01	2.152613e+02
2.800000e-06	3.258256e-06	3.172476e-09	4.674981e+01	2.145828e+02
2.810000e-06	3.227111e-06	3.124598e-09	4.630295e+01	2.138814e+02
2.820000e-06	3.195262e-06	3.160449e-09	4.584597e+01	2.131542e+02
2.830000e-06	3.162931e-06	3.172042e-09	4.538209e+01	2.123987e+02
2.840000e-06	3.130171e-06	3.119179e-09	4.491205e+01	2.116133e+02
2.850000e-06	3.096867e-06	3.095205e-09	4.443420e+01	2.107972e+02
2.860000e-06	3.063030e-06	3.114565e-09	4.394870e+01	2.099505e+02
2.870000e-06	3.028785e-06	3.110228e-09	4.345734e+01	2.090739e+02
2.880000e-06	2.993999e-06	3.067227e-09	4.295823e+01	2.081688e+02
2.890000e-06	2.958565e-06	3.059500e-09	4.244981e+01	2.072367e+02
2.900000e-06	2.922670e-06	3.064400e-09	4.193479e+01	2.062795e+02
2.910000e-06	2.886504e-06	3.032839e-09	4.141588e+01	2.052990e+02
2.920000e-06	2.850065e-06	3.025627e-09	4.089304e+01	2.042966e+02
2.930000e-06	2.813085e-06	3.028778e-09	4.036246e+01	2.032736e+02
2.940000e-06	2.775437e-06	2.995192e-09	3.982228e+01	2.022304e+02
2.950000e-06	2.736979e-06	2.960640e-09	3.927048e+01	2.011671e+02
