# Temperatura_=_20.0
# Concentracion g/m^3_=_9000.0
# C_Vs_to_Am_M_A/Vsm_=_65563218390.804596
# pendiente_HvsI_1/m_=_3716.3
# ordenada_HvsI_A/m_=_1297.0
# frecuencia_Hz_=_212863.80922484703

Tiempo_(s)	Campo_(V.s)	Magnetizacion_(V.s)	Campo_(kA/m)	Magnetizacion_(A/m)
0.000000e+00	-3.969515e-06	-3.488561e-09	-5.699355e+01	-2.316640e+02
1.000000e-08	-3.969302e-06	-3.489108e-09	-5.699050e+01	-2.316173e+02
2.000000e-08	-3.968276e-06	-3.487668e-09	-5.697576e+01	-2.315597e+02
3.000000e-08	-3.966252e-06	-3.485389e-09	-5.694670e+01	-2.314971e+02
4.000000e-08	-3.963358e-06	-3.482863e-09	-5.690515e+01	-2.314355e+02
5.000000e-08	-3.959901e-06	-3.483042e-09	-5.685551e+01	-2.313798e+02
6.000000e-08	-3.955938e-06	-3.488056e-09	-5.679862e+01	-2.313338e+02
7.000000e-08	-3.951372e-06	-3.498910e-09	-5.673306e+01	-2.312995e+02
8.000000e-08	-3.946087e-06	-3.504536e-09	-5.665718e+01	-2.312771e+02
9.000000e-08	-3.939902e-06	-3.489106e-09	-5.656838e+01	-2.312645e+02
1.000000e-07	-3.932933e-06	-3.441818e-09	-5.646831e+01	-2.312576e+02
1.100000e-07	-3.925477e-06	-3.434375e-09	-5.636126e+01	-2.312499e+02
1.200000e-07	-3.917624e-06	-3.493719e-09	-5.624851e+01	-2.312331e+02
1.300000e-07	-3.909083e-06	-3.546339e-09	-5.612589e+01	-2.311976e+02
1.400000e-07	-3.899623e-06	-3.513711e-09	-5.599005e+01	-2.311324e+02
1.500000e-07	-3.889372e-06	-3.433725e-09	-5.584287e+01	-2.310265e+02
1.600000e-07	-3.878280e-06	-3.481521e-09	-5.568362e+01	-2.308689e+02
1.700000e-07	-3.866123e-06	-3.549951e-09	-5.550907e+01	-2.306494e+02
1.800000e-07	-3.853348e-06	-3.562425e-09	-5.532565e+01	-2.303597e+02
1.900000e-07	-3.840183e-06	-3.490116e-09	-5.513663e+01	-2.299933e+02
2.000000e-07	-3.825749e-06	-3.431433e-09	-5.492939e+01	-2.295465e+02
2.100000e-07	-3.809949e-06	-3.450124e-09	-5.470253e+01	-2.290184e+02
2.200000e-07	-3.793735e-06	-3.494047e-09	-5.446973e+01	-2.284114e+02
2.300000e-07	-3.777147e-06	-3.504974e-09	-5.423156e+01	-2.277306e+02
2.400000e-07	-3.759807e-06	-3.378193e-09	-5.398260e+01	-2.269844e+02
2.500000e-07	-3.741851e-06	-3.359385e-09	-5.372480e+01	-2.261835e+02
2.600000e-07	-3.723349e-06	-3.486285e-09	-5.345915e+01	-2.253406e+02
2.700000e-07	-3.704226e-06	-3.525342e-09	-5.318458e+01	-2.244698e+02
2.800000e-07	-3.684581e-06	-3.369950e-09	-5.290253e+01	-2.235858e+02
2.900000e-07	-3.664451e-06	-3.334763e-09	-5.261350e+01	-2.227032e+02
3.000000e-07	-3.643650e-06	-3.479571e-09	-5.231484e+01	-2.218354e+02
3.100000e-07	-3.622115e-06	-3.489567e-09	-5.200564e+01	-2.209946e+02
3.200000e-07	-3.599904e-06	-3.398497e-09	-5.168675e+01	-2.201905e+02
3.300000e-07	-3.577073e-06	-3.368185e-09	-5.135894e+01	-2.194301e+02
3.400000e-07	-3.553681e-06	-3.390701e-09	-5.102308e+01	-2.187175e+02
3.500000e-07	-3.529749e-06	-3.401621e-09	-5.067947e+01	-2.180534e+02
3.600000e-07	-3.505278e-06	-3.410570e-09	-5.032812e+01	-2.174356e+02
3.700000e-07	-3.480206e-06	-3.388336e-09	-4.996814e+01	-2.168589e+02
3.800000e-07	-3.454118e-06	-3.314683e-09	-4.959358e+01	-2.163156e+02
3.900000e-07	-3.427016e-06	-3.309610e-09	-4.920446e+01	-2.157960e+02
4.000000e-07	-3.399505e-06	-3.419433e-09	-4.880946e+01	-2.152891e+02
4.100000e-07	-3.371608e-06	-3.381571e-09	-4.840891e+01	-2.147832e+02
4.200000e-07	-3.343019e-06	-3.234636e-09	-4.799843e+01	-2.142666e+02
4.300000e-07	-3.313878e-06	-3.279652e-09	-4.758004e+01	-2.137283e+02
4.400000e-07	-3.284365e-06	-3.386267e-09	-4.715629e+01	-2.131585e+02
4.500000e-07	-3.254292e-06	-3.314664e-09	-4.672451e+01	-2.125491e+02
4.600000e-07	-3.223534e-06	-3.218348e-09	-4.628289e+01	-2.118941e+02
4.700000e-07	-3.192318e-06	-3.261494e-09	-4.583470e+01	-2.111898e+02
4.800000e-07	-3.160787e-06	-3.293333e-09	-4.538199e+01	-2.104347e+02
4.900000e-07	-3.128909e-06	-3.255332e-09	-4.492428e+01	-2.096297e+02
5.000000e-07	-3.096457e-06	-3.226493e-09	-4.445835e+01	-2.087772e+02
5.100000e-07	-3.063119e-06	-3.206983e-09	-4.397969e+01	-2.078814e+02
5.200000e-07	-3.028807e-06	-3.203057e-09	-4.348705e+01	-2.069476e+02
5.300000e-07	-2.993799e-06	-3.208479e-09	-4.298441e+01	-2.059816e+02
5.400000e-07	-2.958451e-06	-3.195287e-09	-4.247689e+01	-2.049891e+02
5.500000e-07	-2.922757e-06	-3.157256e-09	-4.196440e+01	-2.039755e+02
5.600000e-07	-2.886606e-06	-3.126338e-09	-4.144535e+01	-2.029456e+02
5.700000e-07	-2.849962e-06	-3.141323e-09	-4.091922e+01	-2.019025e+02
5.800000e-07	-2.812802e-06	-3.145651e-09	-4.038569e+01	-2.008482e+02
5.900000e-07	-2.775111e-06	-3.097726e-09	-3.984453e+01	-1.997833e+02
6.000000e-07	-2.736933e-06	-3.056446e-09	-3.929637e+01	-1.987066e+02
6.100000e-07	-2.698277e-06	-3.068222e-09	-3.874136e+01	-1.976157e+02
6.200000e-07	-2.659175e-06	-3.076625e-09	-3.817994e+01	-1.965070e+02
6.300000e-07	-2.619770e-06	-3.025177e-09	-3.761417e+01	-1.953763e+02
6.400000e-07	-2.580101e-06	-2.988428e-09	-3.704460e+01	-1.942186e+02
6.500000e-07	-2.540078e-06	-2.998468e-09	-3.646997e+01	-1.930290e+02
6.600000e-07	-2.499513e-06	-2.986721e-09	-3.588754e+01	-1.918030e+02
6.700000e-07	-2.458242e-06	-2.948999e-09	-3.529498e+01	-1.905365e+02
6.800000e-07	-2.416278e-06	-2.922466e-09	-3.469246e+01	-1.892264e+02
6.900000e-07	-2.373615e-06	-2.911971e-09	-3.407991e+01	-1.878706e+02
7.000000e-07	-2.330390e-06	-2.892447e-09	-3.345930e+01	-1.864683e+02
7.100000e-07	-2.286857e-06	-2.865593e-09	-3.283426e+01	-1.850196e+02
7.200000e-07	-2.243125e-06	-2.843658e-09	-3.220637e+01	-1.835258e+02
7.300000e-07	-2.199094e-06	-2.814507e-09	-3.157418e+01	-1.819888e+02
7.400000e-07	-2.154597e-06	-2.794700e-09	-3.093529e+01	-1.804115e+02
7.500000e-07	-2.109657e-06	-2.779490e-09	-3.029005e+01	-1.787965e+02
7.600000e-07	-2.064412e-06	-2.746966e-09	-2.964044e+01	-1.771467e+02
7.700000e-07	-2.018858e-06	-2.710453e-09	-2.898638e+01	-1.754647e+02
7.800000e-07	-1.972972e-06	-2.688543e-09	-2.832756e+01	-1.737522e+02
7.900000e-07	-1.926758e-06	-2.674732e-09	-2.766404e+01	-1.720102e+02
8.000000e-07	-1.880159e-06	-2.638902e-09	-2.699497e+01	-1.702386e+02
8.100000e-07	-1.833251e-06	-2.593894e-09	-2.632148e+01	-1.684363e+02
8.200000e-07	-1.786129e-06	-2.571853e-09	-2.564491e+01	-1.666010e+02
8.300000e-07	-1.738789e-06	-2.556753e-09	-2.496521e+01	-1.647295e+02
8.400000e-07	-1.691241e-06	-2.524381e-09	-2.428252e+01	-1.628179e+02
8.500000e-07	-1.643475e-06	-2.478812e-09	-2.359670e+01	-1.608615e+02
8.600000e-07	-1.595396e-06	-2.446810e-09	-2.290640e+01	-1.588553e+02
8.700000e-07	-1.546960e-06	-2.427565e-09	-2.221096e+01	-1.567944e+02
8.800000e-07	-1.498133e-06	-2.395486e-09	-2.150992e+01	-1.546740e+02
8.900000e-07	-1.448867e-06	-2.354355e-09	-2.080257e+01	-1.524897e+02
9.000000e-07	-1.399142e-06	-2.313221e-09	-2.008862e+01	-1.502376e+02
9.100000e-07	-1.348883e-06	-2.278186e-09	-1.936700e+01	-1.479147e+02
9.200000e-07	-1.298174e-06	-2.247588e-09	-1.863893e+01	-1.455187e+02
9.300000e-07	-1.247166e-06	-2.209219e-09	-1.790658e+01	-1.430478e+02
9.400000e-07	-1.195933e-06	-2.162040e-09	-1.717098e+01	-1.405009e+02
9.500000e-07	-1.144524e-06	-2.113331e-09	-1.643285e+01	-1.378775e+02
9.600000e-07	-1.092946e-06	-2.078471e-09	-1.569232e+01	-1.351769e+02
9.700000e-07	-1.041189e-06	-2.044209e-09	-1.494920e+01	-1.323985e+02
9.800000e-07	-9.892896e-07	-1.993705e-09	-1.420403e+01	-1.295414e+02
9.900000e-07	-9.371876e-07	-1.940369e-09	-1.345596e+01	-1.266041e+02
1.000000e-06	-8.847727e-07	-1.895199e-09	-1.270340e+01	-1.235843e+02
1.010000e-06	-8.321591e-07	-1.854625e-09	-1.194798e+01	-1.204786e+02
1.020000e-06	-7.794500e-07	-1.804329e-09	-1.119120e+01	-1.172828e+02
1.030000e-06	-7.266013e-07	-1.746273e-09	-1.043240e+01	-1.139916e+02
1.040000e-06	-6.735299e-07	-1.692091e-09	-9.670416e+00	-1.105988e+02
1.050000e-06	-6.203275e-07	-1.640224e-09	-8.906546e+00	-1.070974e+02
1.060000e-06	-5.670981e-07	-1.587936e-09	-8.142288e+00	-1.034800e+02
1.070000e-06	-5.137719e-07	-1.529880e-09	-7.376641e+00	-9.973889e+01
1.080000e-06	-4.603539e-07	-1.465914e-09	-6.609675e+00	-9.586642e+01
1.090000e-06	-4.068828e-07	-1.402444e-09	-5.841947e+00	-9.185549e+01
1.100000e-06	-3.533407e-07	-1.337890e-09	-5.073199e+00	-8.769979e+01
1.110000e-06	-2.997745e-07	-1.271621e-09	-4.304106e+00	-8.339411e+01
1.120000e-06	-2.462166e-07	-1.200136e-09	-3.535132e+00	-7.893461e+01
1.130000e-06	-1.926452e-07	-1.124283e-09	-2.765964e+00	-7.431908e+01
1.140000e-06	-1.390967e-07	-1.050966e-09	-1.997125e+00	-6.954700e+01
1.150000e-06	-8.554520e-08	-9.799312e-10	-1.228242e+00	-6.461967e+01
1.160000e-06	-3.191618e-08	-9.055401e-10	-4.582465e-01	-5.954014e+01
1.170000e-06	2.174053e-08	-8.239017e-10	3.121465e-01	-5.431315e+01
1.180000e-06	7.532603e-08	-7.411227e-10	1.081517e+00	-4.894498e+01
1.190000e-06	1.289012e-07	-6.595937e-10	1.850739e+00	-4.344330e+01
1.200000e-06	1.824527e-07	-5.737251e-10	2.619622e+00	-3.781687e+01
1.210000e-06	2.359071e-07	-4.837683e-10	3.387110e+00	-3.207542e+01
1.220000e-06	2.893735e-07	-3.905022e-10	4.154770e+00	-2.622937e+01
1.230000e-06	3.428276e-07	-2.975972e-10	4.922254e+00	-2.028969e+01
1.240000e-06	3.961966e-07	-2.055788e-10	5.688516e+00	-1.426772e+01
1.250000e-06	4.494380e-07	-1.134389e-10	6.452946e+00	-8.175095e+00
1.260000e-06	5.025514e-07	-2.204185e-11	7.215538e+00	-2.023672e+00
1.270000e-06	5.555988e-07	7.271307e-11	7.977184e+00	4.174475e+00
1.280000e-06	6.085834e-07	1.677060e-10	8.737925e+00	1.040703e+01
1.290000e-06	6.614833e-07	2.631877e-10	9.497453e+00	1.666137e+01
1.300000e-06	7.142353e-07	3.595990e-10	1.025486e+01	2.292454e+01
1.310000e-06	7.668491e-07	4.551888e-10	1.101028e+01	2.918313e+01
1.320000e-06	8.193370e-07	5.510680e-10	1.176389e+01	3.542330e+01
1.330000e-06	8.716720e-07	6.468128e-10	1.251530e+01	4.163076e+01
1.340000e-06	9.238292e-07	7.399416e-10	1.326417e+01	4.779080e+01
1.350000e-06	9.757826e-07	8.313602e-10	1.401010e+01	5.388841e+01
1.360000e-06	1.027557e-06	9.242866e-10	1.475346e+01	5.990843e+01
1.370000e-06	1.079154e-06	1.016546e-09	1.549429e+01	6.583581e+01
1.380000e-06	1.130604e-06	1.105709e-09	1.623299e+01	7.165583e+01
1.390000e-06	1.181917e-06	1.191115e-09	1.696974e+01	7.735445e+01
1.400000e-06	1.233025e-06	1.275288e-09	1.770354e+01	8.291863e+01
1.410000e-06	1.283839e-06	1.359131e-09	1.843311e+01	8.833666e+01
1.420000e-06	1.334332e-06	1.441659e-09	1.915808e+01	9.359847e+01
1.430000e-06	1.384431e-06	1.520236e-09	1.987740e+01	9.869593e+01
1.440000e-06	1.434137e-06	1.595264e-09	2.059106e+01	1.036230e+02
1.450000e-06	1.483406e-06	1.667310e-09	2.129847e+01	1.083760e+02
1.460000e-06	1.532129e-06	1.737729e-09	2.199802e+01	1.129535e+02
1.470000e-06	1.580377e-06	1.806142e-09	2.269076e+01	1.173563e+02
1.480000e-06	1.628345e-06	1.869525e-09	2.337948e+01	1.215874e+02
1.490000e-06	1.676148e-06	1.929883e-09	2.406581e+01	1.256518e+02
1.500000e-06	1.723777e-06	1.988973e-09	2.474966e+01	1.295559e+02
1.510000e-06	1.771237e-06	2.047574e-09	2.543108e+01	1.333075e+02
1.520000e-06	1.818452e-06	2.102527e-09	2.610899e+01	1.369152e+02
1.530000e-06	1.865293e-06	2.154683e-09	2.678153e+01	1.403880e+02
1.540000e-06	1.911735e-06	2.207893e-09	2.744833e+01	1.437349e+02
1.550000e-06	1.957807e-06	2.259073e-09	2.810983e+01	1.469646e+02
1.560000e-06	2.003506e-06	2.305357e-09	2.876596e+01	1.500851e+02
1.570000e-06	2.048793e-06	2.349329e-09	2.941618e+01	1.531035e+02
1.580000e-06	2.093730e-06	2.393408e-09	3.006139e+01	1.560259e+02
1.590000e-06	2.138356e-06	2.435041e-09	3.070211e+01	1.588570e+02
1.600000e-06	2.182619e-06	2.474615e-09	3.133763e+01	1.616005e+02
1.610000e-06	2.226556e-06	2.513811e-09	3.196847e+01	1.642592e+02
1.620000e-06	2.270244e-06	2.552472e-09	3.259573e+01	1.668346e+02
1.630000e-06	2.313756e-06	2.590750e-09	3.322047e+01	1.693280e+02
1.640000e-06	2.356990e-06	2.628171e-09	3.384122e+01	1.717398e+02
1.650000e-06	2.399757e-06	2.663169e-09	3.445526e+01	1.740706e+02
1.660000e-06	2.441893e-06	2.695805e-09	3.506025e+01	1.763208e+02
1.670000e-06	2.483278e-06	2.726621e-09	3.565443e+01	1.784911e+02
1.680000e-06	2.523897e-06	2.755961e-09	3.623764e+01	1.805828e+02
1.690000e-06	2.563996e-06	2.785201e-09	3.681338e+01	1.825977e+02
1.700000e-06	2.603798e-06	2.812857e-09	3.738485e+01	1.845382e+02
1.710000e-06	2.643267e-06	2.838131e-09	3.795153e+01	1.864074e+02
1.720000e-06	2.682390e-06	2.864422e-09	3.851326e+01	1.882087e+02
1.730000e-06	2.721050e-06	2.893741e-09	3.906833e+01	1.899461e+02
1.740000e-06	2.759209e-06	2.923039e-09	3.961620e+01	1.916238e+02
1.750000e-06	2.796936e-06	2.949740e-09	4.015788e+01	1.932460e+02
1.760000e-06	2.834123e-06	2.974054e-09	4.069181e+01	1.948168e+02
1.770000e-06	2.870766e-06	2.996409e-09	4.121793e+01	1.963400e+02
1.780000e-06	2.906996e-06	3.017491e-09	4.173810e+01	1.978187e+02
1.790000e-06	2.942902e-06	3.038772e-09	4.225364e+01	1.992556e+02
1.800000e-06	2.978505e-06	3.059994e-09	4.276482e+01	2.006525e+02
1.810000e-06	3.013714e-06	3.080766e-09	4.327034e+01	2.020107e+02
1.820000e-06	3.048376e-06	3.103007e-09	4.376802e+01	2.033307e+02
1.830000e-06	3.082297e-06	3.125495e-09	4.425505e+01	2.046125e+02
1.840000e-06	3.115332e-06	3.146336e-09	4.472935e+01	2.058556e+02
1.850000e-06	3.147602e-06	3.165452e-09	4.519269e+01	2.070592e+02
1.860000e-06	3.179375e-06	3.183276e-09	4.564887e+01	2.082224e+02
1.870000e-06	3.210746e-06	3.200901e-09	4.609929e+01	2.093446e+02
1.880000e-06	3.241599e-06	3.218952e-09	4.654227e+01	2.104251e+02
1.890000e-06	3.271866e-06	3.236852e-09	4.697683e+01	2.114638e+02
1.900000e-06	3.301561e-06	3.252313e-09	4.740319e+01	2.124610e+02
1.910000e-06	3.330649e-06	3.267606e-09	4.782083e+01	2.134176e+02
1.920000e-06	3.359147e-06	3.282545e-09	4.823000e+01	2.143348e+02
1.930000e-06	3.387159e-06	3.296416e-09	4.863219e+01	2.152145e+02
1.940000e-06	3.414805e-06	3.311049e-09	4.902912e+01	2.160587e+02
1.950000e-06	3.442109e-06	3.326114e-09	4.942116e+01	2.168699e+02
1.960000e-06	3.468712e-06	3.340593e-09	4.980312e+01	2.176504e+02
1.970000e-06	3.494285e-06	3.353861e-09	5.017029e+01	2.184027e+02
1.980000e-06	3.518926e-06	3.366866e-09	5.052408e+01	2.191288e+02
1.990000e-06	3.542922e-06	3.378934e-09	5.086861e+01	2.198304e+02
2.000000e-06	3.566366e-06	3.390186e-09	5.120522e+01	2.205089e+02
2.010000e-06	3.589165e-06	3.400538e-09	5.153255e+01	2.211652e+02
2.020000e-06	3.611367e-06	3.410590e-09	5.185133e+01	2.217994e+02
2.030000e-06	3.633030e-06	3.421607e-09	5.216236e+01	2.224116e+02
2.040000e-06	3.654040e-06	3.431665e-09	5.246402e+01	2.230012e+02
2.050000e-06	3.674385e-06	3.441158e-09	5.275613e+01	2.235675e+02
2.060000e-06	3.694262e-06	3.450751e-09	5.304152e+01	2.241100e+02
2.070000e-06	3.713791e-06	3.459312e-09	5.332192e+01	2.246278e+02
2.080000e-06	3.732764e-06	3.467516e-09	5.359432e+01	2.251207e+02
2.090000e-06	3.750977e-06	3.475604e-09	5.385583e+01	2.255887e+02
2.100000e-06	3.768523e-06	3.484628e-09	5.410775e+01	2.260324e+02
2.110000e-06	3.785522e-06	3.492523e-09	5.435181e+01	2.264527e+02
2.120000e-06	3.801985e-06	3.499725e-09	5.458819e+01	2.268513e+02
2.130000e-06	3.817679e-06	3.507309e-09	5.481352e+01	2.272301e+02
2.140000e-06	3.832442e-06	3.515619e-09	5.502549e+01	2.275917e+02
2.150000e-06	3.846428e-06	3.524428e-09	5.522630e+01	2.279386e+02
2.160000e-06	3.859753e-06	3.531585e-09	5.541761e+01	2.282732e+02
2.170000e-06	3.872380e-06	3.538629e-09	5.559890e+01	2.285980e+02
2.180000e-06	3.884315e-06	3.546428e-09	5.577027e+01	2.289146e+02
2.190000e-06	3.895552e-06	3.552792e-09	5.593161e+01	2.292245e+02
2.200000e-06	3.905859e-06	3.557783e-09	5.607959e+01	2.295279e+02
2.210000e-06	3.915085e-06	3.563169e-09	5.621206e+01	2.298243e+02
2.220000e-06	3.923439e-06	3.568787e-09	5.633199e+01	2.301126e+02
2.230000e-06	3.931193e-06	3.574227e-09	5.644332e+01	2.303902e+02
2.240000e-06	3.938424e-06	3.578598e-09	5.654716e+01	2.306544e+02
2.250000e-06	3.944946e-06	3.581863e-09	5.664079e+01	2.309017e+02
2.260000e-06	3.950759e-06	3.584503e-09	5.672425e+01	2.311282e+02
2.270000e-06	3.955907e-06	3.586933e-09	5.679817e+01	2.313303e+02
2.280000e-06	3.960338e-06	3.589976e-09	5.686179e+01	2.315046e+02
2.290000e-06	3.964215e-06	3.592315e-09	5.691746e+01	2.316483e+02
2.300000e-06	3.967639e-06	3.595149e-09	5.696662e+01	2.317598e+02
2.310000e-06	3.970371e-06	3.599241e-09	5.700584e+01	2.318386e+02
2.320000e-06	3.972078e-06	3.601740e-09	5.703034e+01	2.318852e+02
2.330000e-06	3.972805e-06	3.602557e-09	5.704079e+01	2.319019e+02
2.340000e-06	3.972855e-06	3.602328e-09	5.704150e+01	2.318921e+02
2.350000e-06	3.972361e-06	3.602035e-09	5.703441e+01	2.318605e+02
2.360000e-06	3.971289e-06	3.602810e-09	5.701902e+01	2.318124e+02
2.370000e-06	3.969541e-06	3.604761e-09	5.699392e+01	2.317540e+02
2.380000e-06	3.967140e-06	3.604725e-09	5.695946e+01	2.316913e+02
2.390000e-06	3.964090e-06	3.603092e-09	5.691567e+01	2.316300e+02
2.400000e-06	3.960402e-06	3.603589e-09	5.686271e+01	2.315751e+02
2.410000e-06	3.956303e-06	3.598054e-09	5.680385e+01	2.315301e+02
2.420000e-06	3.951819e-06	3.585328e-09	5.673948e+01	2.314970e+02
2.430000e-06	3.946510e-06	3.587056e-09	5.666324e+01	2.314757e+02
2.440000e-06	3.939879e-06	3.626659e-09	5.656805e+01	2.314639e+02
2.450000e-06	3.932131e-06	3.648624e-09	5.645679e+01	2.314572e+02
2.460000e-06	3.923930e-06	3.604812e-09	5.633906e+01	2.314490e+02
2.470000e-06	3.915563e-06	3.522315e-09	5.621892e+01	2.314308e+02
2.480000e-06	3.906515e-06	3.535521e-09	5.608902e+01	2.313927e+02
2.490000e-06	3.896334e-06	3.605203e-09	5.594283e+01	2.313240e+02
2.500000e-06	3.885654e-06	3.589691e-09	5.578949e+01	2.312133e+02
2.510000e-06	3.874829e-06	3.511541e-09	5.563406e+01	2.310499e+02
2.520000e-06	3.862902e-06	3.471854e-09	5.546282e+01	2.308238e+02
2.530000e-06	3.849695e-06	3.528933e-09	5.527320e+01	2.305266e+02
2.540000e-06	3.836236e-06	3.562278e-09	5.507996e+01	2.301523e+02
2.550000e-06	3.822332e-06	3.559869e-09	5.488032e+01	2.296973e+02
2.560000e-06	3.807122e-06	3.501750e-09	5.466195e+01	2.291611e+02
2.570000e-06	3.791036e-06	3.458258e-09	5.443098e+01	2.285464e+02
2.580000e-06	3.774589e-06	3.550689e-09	5.419484e+01	2.278586e+02
2.590000e-06	3.757435e-06	3.587991e-09	5.394854e+01	2.271064e+02
2.600000e-06	3.739456e-06	3.418644e-09	5.369041e+01	2.263007e+02
2.610000e-06	3.720855e-06	3.306747e-09	5.342333e+01	2.254544e+02
2.620000e-06	3.701619e-06	3.434025e-09	5.314715e+01	2.245815e+02
2.630000e-06	3.681796e-06	3.424527e-09	5.286253e+01	2.236970e+02
2.640000e-06	3.661502e-06	3.253146e-09	5.257116e+01	2.228152e+02
2.650000e-06	3.640805e-06	3.267137e-09	5.227399e+01	2.219496e+02
2.660000e-06	3.619517e-06	3.335201e-09	5.196834e+01	2.211121e+02
2.670000e-06	3.597072e-06	3.297796e-09	5.164608e+01	2.203120e+02
2.680000e-06	3.573472e-06	3.279232e-09	5.130725e+01	2.195563e+02
2.690000e-06	3.549356e-06	3.287947e-09	5.096098e+01	2.188485e+02
2.700000e-06	3.524674e-06	3.238958e-09	5.060661e+01	2.181891e+02
2.710000e-06	3.499208e-06	3.226394e-09	5.024097e+01	2.175757e+02
2.720000e-06	3.473338e-06	3.296599e-09	4.986954e+01	2.170027e+02
2.730000e-06	3.447046e-06	3.295895e-09	4.949204e+01	2.164622e+02
2.740000e-06	3.419923e-06	3.181556e-09	4.910262e+01	2.159443e+02
2.750000e-06	3.392140e-06	3.156060e-09	4.870370e+01	2.154381e+02
2.760000e-06	3.364062e-06	3.289037e-09	4.830057e+01	2.149316e+02
2.770000e-06	3.335618e-06	3.275242e-09	4.789217e+01	2.144133e+02
2.780000e-06	3.306531e-06	3.114999e-09	4.747455e+01	2.138722e+02
2.790000e-06	3.276630e-06	3.157401e-09	4.704524e+01	2.132987e+02
2.800000e-06	3.245940e-06	3.248684e-09	4.660460e+01	2.126849e+02
2.810000e-06	3.214489e-06	3.178285e-09	4.615304e+01	2.120251e+02
2.820000e-06	3.182457e-06	3.134333e-09	4.569312e+01	2.113158e+02
2.830000e-06	3.150106e-06	3.146211e-09	4.522863e+01	2.105556e+02
2.840000e-06	3.117305e-06	3.151360e-09	4.475768e+01	2.097456e+02
2.850000e-06	3.083854e-06	3.127076e-09	4.427740e+01	2.088886e+02
2.860000e-06	3.049889e-06	3.097255e-09	4.378973e+01	2.079888e+02
2.870000e-06	3.015534e-06	3.110871e-09	4.329646e+01	2.070515e+02
2.880000e-06	2.980632e-06	3.081571e-09	4.279535e+01	2.060824e+02
2.890000e-06	2.945066e-06	3.050988e-09	4.228470e+01	2.050876e+02
2.900000e-06	2.909075e-06	3.075996e-09	4.176796e+01	2.040722e+02
2.910000e-06	2.872879e-06	3.058003e-09	4.124826e+01	2.030407e+02
2.920000e-06	2.836317e-06	3.008748e-09	4.072331e+01	2.019964e+02
2.930000e-06	2.799184e-06	3.004503e-09	4.019015e+01	2.009411e+02
2.940000e-06	2.761310e-06	3.022525e-09	3.964637e+01	1.998750e+02
2.950000e-06	2.722568e-06	2.985167e-09	3.909012e+01	1.987970e+02
