# Temperatura_=_20.0
# Concentracion g/m^3_=_9000.0
# C_Vs_to_Am_M_A/Vsm_=_65563218390.804596
# pendiente_HvsI_1/m_=_3716.3
# ordenada_HvsI_A/m_=_1297.0
# frecuencia_Hz_=_212864.41695772792

Tiempo_(s)	Campo_(V.s)	Magnetizacion_(V.s)	Campo_(kA/m)	Magnetizacion_(A/m)
0.000000e+00	-3.970429e-06	-3.389862e-09	-5.698565e+01	-2.287450e+02
1.000000e-08	-3.970196e-06	-3.389687e-09	-5.698229e+01	-2.287082e+02
2.000000e-08	-3.969080e-06	-3.387218e-09	-5.696628e+01	-2.286508e+02
3.000000e-08	-3.967016e-06	-3.384866e-09	-5.693665e+01	-2.285745e+02
4.000000e-08	-3.964151e-06	-3.383196e-09	-5.689554e+01	-2.284816e+02
5.000000e-08	-3.960664e-06	-3.381526e-09	-5.684550e+01	-2.283753e+02
6.000000e-08	-3.956664e-06	-3.381889e-09	-5.678809e+01	-2.282590e+02
7.000000e-08	-3.952029e-06	-3.390933e-09	-5.672156e+01	-2.281366e+02
8.000000e-08	-3.946612e-06	-3.395142e-09	-5.664382e+01	-2.280121e+02
9.000000e-08	-3.940343e-06	-3.359244e-09	-5.655383e+01	-2.278892e+02
1.000000e-07	-3.933268e-06	-3.321474e-09	-5.645230e+01	-2.277714e+02
1.100000e-07	-3.925727e-06	-3.393375e-09	-5.634405e+01	-2.276611e+02
1.200000e-07	-3.917780e-06	-3.439750e-09	-5.623000e+01	-2.275602e+02
1.300000e-07	-3.909013e-06	-3.358280e-09	-5.610417e+01	-2.274691e+02
1.400000e-07	-3.899360e-06	-3.279716e-09	-5.596563e+01	-2.273872e+02
1.500000e-07	-3.889071e-06	-3.407204e-09	-5.581796e+01	-2.273124e+02
1.600000e-07	-3.877861e-06	-3.418582e-09	-5.565707e+01	-2.272413e+02
1.700000e-07	-3.865580e-06	-3.380590e-09	-5.548080e+01	-2.271694e+02
1.800000e-07	-3.852747e-06	-3.440097e-09	-5.529660e+01	-2.270912e+02
1.900000e-07	-3.839453e-06	-3.378791e-09	-5.510582e+01	-2.270005e+02
2.000000e-07	-3.824980e-06	-3.343908e-09	-5.489808e+01	-2.268904e+02
2.100000e-07	-3.809336e-06	-3.499339e-09	-5.467355e+01	-2.267543e+02
2.200000e-07	-3.793096e-06	-3.582551e-09	-5.444048e+01	-2.265858e+02
2.300000e-07	-3.776261e-06	-3.368873e-09	-5.419885e+01	-2.263791e+02
2.400000e-07	-3.758791e-06	-3.423097e-09	-5.394811e+01	-2.261295e+02
2.500000e-07	-3.740733e-06	-3.627499e-09	-5.368894e+01	-2.258333e+02
2.600000e-07	-3.722116e-06	-3.561136e-09	-5.342173e+01	-2.254888e+02
2.700000e-07	-3.702951e-06	-3.429191e-09	-5.314666e+01	-2.250955e+02
2.800000e-07	-3.683275e-06	-3.518656e-09	-5.286426e+01	-2.246547e+02
2.900000e-07	-3.663030e-06	-3.584604e-09	-5.257369e+01	-2.241691e+02
3.000000e-07	-3.642105e-06	-3.527653e-09	-5.227337e+01	-2.236430e+02
3.100000e-07	-3.620518e-06	-3.508110e-09	-5.196354e+01	-2.230816e+02
3.200000e-07	-3.598252e-06	-3.486903e-09	-5.164397e+01	-2.224912e+02
3.300000e-07	-3.575330e-06	-3.495574e-09	-5.131499e+01	-2.218783e+02
3.400000e-07	-3.551881e-06	-3.485083e-09	-5.097843e+01	-2.212494e+02
3.500000e-07	-3.527963e-06	-3.486184e-09	-5.063515e+01	-2.206109e+02
3.600000e-07	-3.503558e-06	-3.500691e-09	-5.028487e+01	-2.199683e+02
3.700000e-07	-3.478317e-06	-3.422840e-09	-4.992261e+01	-2.193260e+02
3.800000e-07	-3.451983e-06	-3.389546e-09	-4.954464e+01	-2.186875e+02
3.900000e-07	-3.424840e-06	-3.515495e-09	-4.915507e+01	-2.180543e+02
4.000000e-07	-3.397276e-06	-3.469697e-09	-4.875945e+01	-2.174268e+02
4.100000e-07	-3.369298e-06	-3.308047e-09	-4.835790e+01	-2.168036e+02
4.200000e-07	-3.340711e-06	-3.405353e-09	-4.794761e+01	-2.161823e+02
4.300000e-07	-3.311544e-06	-3.496277e-09	-4.752899e+01	-2.155589e+02
4.400000e-07	-3.281921e-06	-3.362308e-09	-4.710382e+01	-2.149286e+02
4.500000e-07	-3.251754e-06	-3.311618e-09	-4.667084e+01	-2.142862e+02
4.600000e-07	-3.220961e-06	-3.401441e-09	-4.622890e+01	-2.136259e+02
4.700000e-07	-3.189695e-06	-3.387741e-09	-4.578015e+01	-2.129423e+02
4.800000e-07	-3.158067e-06	-3.317234e-09	-4.532620e+01	-2.122302e+02
4.900000e-07	-3.126082e-06	-3.319537e-09	-4.486714e+01	-2.114850e+02
5.000000e-07	-3.093561e-06	-3.324383e-09	-4.440038e+01	-2.107033e+02
5.100000e-07	-3.060222e-06	-3.301211e-09	-4.392188e+01	-2.098825e+02
5.200000e-07	-3.025954e-06	-3.288206e-09	-4.343005e+01	-2.090212e+02
5.300000e-07	-2.990935e-06	-3.278952e-09	-4.292744e+01	-2.081193e+02
5.400000e-07	-2.955472e-06	-3.258102e-09	-4.241846e+01	-2.071776e+02
5.500000e-07	-2.919689e-06	-3.232972e-09	-4.190488e+01	-2.061978e+02
5.600000e-07	-2.883498e-06	-3.235144e-09	-4.138545e+01	-2.051823e+02
5.700000e-07	-2.846803e-06	-3.232362e-09	-4.085878e+01	-2.041340e+02
5.800000e-07	-2.809603e-06	-3.179310e-09	-4.032487e+01	-2.030559e+02
5.900000e-07	-2.771885e-06	-3.149904e-09	-3.978353e+01	-2.019510e+02
6.000000e-07	-2.733658e-06	-3.177958e-09	-3.923487e+01	-2.008220e+02
6.100000e-07	-2.694920e-06	-3.164482e-09	-3.867888e+01	-1.996708e+02
6.200000e-07	-2.655728e-06	-3.095016e-09	-3.811638e+01	-1.984988e+02
6.300000e-07	-2.616244e-06	-3.084084e-09	-3.754968e+01	-1.973068e+02
6.400000e-07	-2.576526e-06	-3.109638e-09	-3.697963e+01	-1.960944e+02
6.500000e-07	-2.536427e-06	-3.072659e-09	-3.640410e+01	-1.948605e+02
6.600000e-07	-2.495732e-06	-3.022756e-09	-3.582004e+01	-1.936035e+02
6.700000e-07	-2.454278e-06	-3.015035e-09	-3.522506e+01	-1.923209e+02
6.800000e-07	-2.412086e-06	-3.006654e-09	-3.461951e+01	-1.910099e+02
6.900000e-07	-2.369297e-06	-2.978160e-09	-3.400537e+01	-1.896677e+02
7.000000e-07	-2.326047e-06	-2.948903e-09	-3.338462e+01	-1.882912e+02
7.100000e-07	-2.282493e-06	-2.923012e-09	-3.275952e+01	-1.868776e+02
7.200000e-07	-2.238715e-06	-2.898442e-09	-3.213119e+01	-1.854243e+02
7.300000e-07	-2.194670e-06	-2.884525e-09	-3.149903e+01	-1.839293e+02
7.400000e-07	-2.150138e-06	-2.867187e-09	-3.085989e+01	-1.823912e+02
7.500000e-07	-2.105179e-06	-2.828963e-09	-3.021461e+01	-1.808090e+02
7.600000e-07	-2.059918e-06	-2.792467e-09	-2.956500e+01	-1.791824e+02
7.700000e-07	-2.014287e-06	-2.775938e-09	-2.891008e+01	-1.775116e+02
7.800000e-07	-1.968341e-06	-2.761700e-09	-2.825064e+01	-1.757969e+02
7.900000e-07	-1.921975e-06	-2.720906e-09	-2.758518e+01	-1.740393e+02
8.000000e-07	-1.875155e-06	-2.673605e-09	-2.691319e+01	-1.722395e+02
8.100000e-07	-1.828087e-06	-2.656743e-09	-2.623765e+01	-1.703983e+02
8.200000e-07	-1.780852e-06	-2.643636e-09	-2.555971e+01	-1.685163e+02
8.300000e-07	-1.733360e-06	-2.603260e-09	-2.487808e+01	-1.665936e+02
8.400000e-07	-1.685626e-06	-2.560101e-09	-2.419298e+01	-1.646299e+02
8.500000e-07	-1.637771e-06	-2.535888e-09	-2.350613e+01	-1.626243e+02
8.600000e-07	-1.589685e-06	-2.511897e-09	-2.281598e+01	-1.605754e+02
8.700000e-07	-1.541104e-06	-2.473400e-09	-2.211872e+01	-1.584812e+02
8.800000e-07	-1.492018e-06	-2.434259e-09	-2.141422e+01	-1.563389e+02
8.900000e-07	-1.442554e-06	-2.398891e-09	-2.070428e+01	-1.541456e+02
9.000000e-07	-1.392668e-06	-2.360298e-09	-1.998829e+01	-1.518978e+02
9.100000e-07	-1.342342e-06	-2.322273e-09	-1.926598e+01	-1.495917e+02
9.200000e-07	-1.291656e-06	-2.285053e-09	-1.853851e+01	-1.472234e+02
9.300000e-07	-1.240636e-06	-2.244942e-09	-1.780624e+01	-1.447891e+02
9.400000e-07	-1.189397e-06	-2.203576e-09	-1.707084e+01	-1.422847e+02
9.500000e-07	-1.137978e-06	-2.163636e-09	-1.633284e+01	-1.397063e+02
9.600000e-07	-1.086332e-06	-2.122874e-09	-1.559160e+01	-1.370503e+02
9.700000e-07	-1.034547e-06	-2.076610e-09	-1.484835e+01	-1.343128e+02
9.800000e-07	-9.826506e-07	-2.029708e-09	-1.410351e+01	-1.314904e+02
9.900000e-07	-9.305875e-07	-1.985097e-09	-1.335627e+01	-1.285795e+02
1.000000e-06	-8.782174e-07	-1.938821e-09	-1.260463e+01	-1.255764e+02
1.010000e-06	-8.255521e-07	-1.889374e-09	-1.184875e+01	-1.224773e+02
1.020000e-06	-7.727687e-07	-1.839779e-09	-1.109117e+01	-1.192783e+02
1.030000e-06	-7.199215e-07	-1.790379e-09	-1.033269e+01	-1.159751e+02
1.040000e-06	-6.669093e-07	-1.733729e-09	-9.571827e+00	-1.125632e+02
1.050000e-06	-6.137585e-07	-1.675854e-09	-8.808979e+00	-1.090377e+02
1.060000e-06	-5.605013e-07	-1.622778e-09	-8.044603e+00	-1.053935e+02
1.070000e-06	-5.071782e-07	-1.565957e-09	-7.279284e+00	-1.016253e+02
1.080000e-06	-4.538435e-07	-1.501613e-09	-6.513796e+00	-9.772770e+01
1.090000e-06	-4.004147e-07	-1.434249e-09	-5.746959e+00	-9.369542e+01
1.100000e-06	-3.468771e-07	-1.367953e-09	-4.978559e+00	-8.952344e+01
1.110000e-06	-2.932735e-07	-1.301431e-09	-4.209212e+00	-8.520725e+01
1.120000e-06	-2.396373e-07	-1.230854e-09	-3.439399e+00	-8.074307e+01
1.130000e-06	-1.860013e-07	-1.157375e-09	-2.669587e+00	-7.612809e+01
1.140000e-06	-1.324062e-07	-1.082434e-09	-1.900362e+00	-7.136065e+01
1.150000e-06	-7.879554e-08	-1.008342e-09	-1.130914e+00	-6.644048e+01
1.160000e-06	-2.514442e-08	-9.340821e-10	-3.608857e-01	-6.136880e+01
1.170000e-06	2.849189e-08	-8.532068e-10	4.089303e-01	-5.614845e+01
1.180000e-06	8.211503e-08	-7.678089e-10	1.178557e+00	-5.078394e+01
1.190000e-06	1.356904e-07	-6.816170e-10	1.947499e+00	-4.528145e+01
1.200000e-06	1.892347e-07	-5.972611e-10	2.715994e+00	-3.964878e+01
1.210000e-06	2.427914e-07	-5.106930e-10	3.484668e+00	-3.389523e+01
1.220000e-06	2.963420e-07	-4.193994e-10	4.253254e+00	-2.803148e+01
1.230000e-06	3.498021e-07	-3.272001e-10	5.020540e+00	-2.206940e+01
1.240000e-06	4.031786e-07	-2.360543e-10	5.786627e+00	-1.602185e+01
1.250000e-06	4.564523e-07	-1.464708e-10	6.551240e+00	-9.902450e+00
1.260000e-06	5.096261e-07	-5.372048e-11	7.314417e+00	-3.725434e+00
1.270000e-06	5.627545e-07	4.141378e-11	8.076943e+00	2.494612e+00
1.280000e-06	6.158015e-07	1.388113e-10	8.838301e+00	8.742895e+00
1.290000e-06	6.687205e-07	2.373594e-10	9.597822e+00	1.500458e+01
1.300000e-06	7.214825e-07	3.313937e-10	1.035509e+01	2.126490e+01
1.310000e-06	7.740955e-07	4.254898e-10	1.111022e+01	2.750929e+01
1.320000e-06	8.265221e-07	5.232137e-10	1.186267e+01	3.372342e+01
1.330000e-06	8.787907e-07	6.203029e-10	1.261286e+01	3.989329e+01
1.340000e-06	9.308823e-07	7.108437e-10	1.336050e+01	4.600524e+01
1.350000e-06	9.827839e-07	8.015338e-10	1.410542e+01	5.204603e+01
1.360000e-06	1.034563e-06	8.973117e-10	1.484858e+01	5.800283e+01
1.370000e-06	1.086204e-06	9.895649e-10	1.558976e+01	6.386334e+01
1.380000e-06	1.137663e-06	1.074450e-09	1.632833e+01	6.961581e+01
1.390000e-06	1.188956e-06	1.158177e-09	1.706451e+01	7.524916e+01
1.400000e-06	1.240039e-06	1.243865e-09	1.779768e+01	8.075310e+01
1.410000e-06	1.290859e-06	1.328447e-09	1.852708e+01	8.611824e+01
1.420000e-06	1.341299e-06	1.409408e-09	1.925102e+01	9.133624e+01
1.430000e-06	1.391254e-06	1.485603e-09	1.996799e+01	9.639998e+01
1.440000e-06	1.440760e-06	1.559814e-09	2.067853e+01	1.013037e+02
1.450000e-06	1.489836e-06	1.632635e-09	2.138290e+01	1.060432e+02
1.460000e-06	1.538502e-06	1.702917e-09	2.208138e+01	1.106157e+02
1.470000e-06	1.586760e-06	1.769402e-09	2.277400e+01	1.150204e+02
1.480000e-06	1.634747e-06	1.833970e-09	2.346273e+01	1.192578e+02
1.490000e-06	1.682568e-06	1.897719e-09	2.414908e+01	1.233305e+02
1.500000e-06	1.730220e-06	1.958496e-09	2.483301e+01	1.272423e+02
1.510000e-06	1.777701e-06	2.016088e-09	2.551448e+01	1.309987e+02
1.520000e-06	1.824896e-06	2.070647e-09	2.619186e+01	1.346063e+02
1.530000e-06	1.871745e-06	2.125837e-09	2.686425e+01	1.380727e+02
1.540000e-06	1.918207e-06	2.179679e-09	2.753109e+01	1.414062e+02
1.550000e-06	1.964258e-06	2.226273e-09	2.819205e+01	1.446154e+02
1.560000e-06	2.009958e-06	2.270572e-09	2.884796e+01	1.477092e+02
1.570000e-06	2.055294e-06	2.316623e-09	2.949864e+01	1.506960e+02
1.580000e-06	2.100247e-06	2.361304e-09	3.014383e+01	1.535839e+02
1.590000e-06	2.144801e-06	2.402425e-09	3.078329e+01	1.563799e+02
1.600000e-06	2.188995e-06	2.441073e-09	3.141759e+01	1.590904e+02
1.610000e-06	2.232895e-06	2.480846e-09	3.204766e+01	1.617206e+02
1.620000e-06	2.276568e-06	2.521486e-09	3.267448e+01	1.642745e+02
1.630000e-06	2.320062e-06	2.559924e-09	3.329873e+01	1.667551e+02
1.640000e-06	2.363286e-06	2.594866e-09	3.391910e+01	1.691644e+02
1.650000e-06	2.406013e-06	2.628185e-09	3.453234e+01	1.715033e+02
1.660000e-06	2.448008e-06	2.662160e-09	3.513508e+01	1.737723e+02
1.670000e-06	2.489256e-06	2.694034e-09	3.572708e+01	1.759714e+02
1.680000e-06	2.529866e-06	2.723052e-09	3.630995e+01	1.781000e+02
1.690000e-06	2.569980e-06	2.752656e-09	3.688568e+01	1.801580e+02
1.700000e-06	2.609707e-06	2.782753e-09	3.745586e+01	1.821453e+02
1.710000e-06	2.649090e-06	2.810729e-09	3.802110e+01	1.840622e+02
1.720000e-06	2.688179e-06	2.837183e-09	3.858213e+01	1.859096e+02
1.730000e-06	2.726863e-06	2.864818e-09	3.913734e+01	1.876889e+02
1.740000e-06	2.765037e-06	2.894062e-09	3.968524e+01	1.894024e+02
1.750000e-06	2.802754e-06	2.921427e-09	4.022657e+01	1.910528e+02
1.760000e-06	2.839993e-06	2.945547e-09	4.076105e+01	1.926435e+02
1.770000e-06	2.876686e-06	2.968296e-09	4.128769e+01	1.941781e+02
1.780000e-06	2.912846e-06	2.991431e-09	4.180667e+01	1.956605e+02
1.790000e-06	2.948681e-06	3.014149e-09	4.232099e+01	1.970947e+02
1.800000e-06	2.984273e-06	3.035884e-09	4.283183e+01	1.984845e+02
1.810000e-06	3.019457e-06	3.057188e-09	4.333680e+01	1.998333e+02
1.820000e-06	3.054035e-06	3.079390e-09	4.383309e+01	2.011439e+02
1.830000e-06	3.087755e-06	3.101811e-09	4.431705e+01	2.024186e+02
1.840000e-06	3.120571e-06	3.123079e-09	4.478805e+01	2.036589e+02
1.850000e-06	3.152736e-06	3.142426e-09	4.524970e+01	2.048657e+02
1.860000e-06	3.184490e-06	3.159551e-09	4.570545e+01	2.060390e+02
1.870000e-06	3.215868e-06	3.177933e-09	4.615579e+01	2.071783e+02
1.880000e-06	3.246713e-06	3.196591e-09	4.659850e+01	2.082826e+02
1.890000e-06	3.276971e-06	3.213653e-09	4.703278e+01	2.093505e+02
1.900000e-06	3.306668e-06	3.229913e-09	4.745901e+01	2.103806e+02
1.910000e-06	3.335773e-06	3.245928e-09	4.787674e+01	2.113714e+02
1.920000e-06	3.364264e-06	3.260246e-09	4.828565e+01	2.123218e+02
1.930000e-06	3.392224e-06	3.273791e-09	4.868695e+01	2.132309e+02
1.940000e-06	3.419801e-06	3.287868e-09	4.908275e+01	2.140985e+02
1.950000e-06	3.446984e-06	3.302241e-09	4.947289e+01	2.149249e+02
1.960000e-06	3.473437e-06	3.316067e-09	4.985256e+01	2.157110e+02
1.970000e-06	3.498870e-06	3.327469e-09	5.021758e+01	2.164586e+02
1.980000e-06	3.523422e-06	3.338792e-09	5.056997e+01	2.171697e+02
1.990000e-06	3.547354e-06	3.351736e-09	5.091345e+01	2.178469e+02
2.000000e-06	3.570693e-06	3.365664e-09	5.124843e+01	2.184933e+02
2.010000e-06	3.593425e-06	3.375993e-09	5.157469e+01	2.191119e+02
2.020000e-06	3.615572e-06	3.384791e-09	5.189255e+01	2.197057e+02
2.030000e-06	3.637138e-06	3.396029e-09	5.220209e+01	2.202776e+02
2.040000e-06	3.658096e-06	3.406393e-09	5.250288e+01	2.208302e+02
2.050000e-06	3.678441e-06	3.415152e-09	5.279489e+01	2.213654e+02
2.060000e-06	3.698298e-06	3.422865e-09	5.307988e+01	2.218848e+02
2.070000e-06	3.717743e-06	3.430362e-09	5.335896e+01	2.223892e+02
2.080000e-06	3.736635e-06	3.438199e-09	5.363012e+01	2.228789e+02
2.090000e-06	3.754842e-06	3.447571e-09	5.389142e+01	2.233537e+02
2.100000e-06	3.772317e-06	3.456274e-09	5.414224e+01	2.238129e+02
2.110000e-06	3.789172e-06	3.464015e-09	5.438415e+01	2.242555e+02
2.120000e-06	3.805488e-06	3.473656e-09	5.461833e+01	2.246802e+02
2.130000e-06	3.821108e-06	3.482890e-09	5.484252e+01	2.250857e+02
2.140000e-06	3.835856e-06	3.491809e-09	5.505418e+01	2.254709e+02
2.150000e-06	3.849748e-06	3.501162e-09	5.525357e+01	2.258348e+02
2.160000e-06	3.862924e-06	3.510050e-09	5.544267e+01	2.261767e+02
2.170000e-06	3.875394e-06	3.516448e-09	5.562165e+01	2.264964e+02
2.180000e-06	3.887221e-06	3.523296e-09	5.579140e+01	2.267939e+02
2.190000e-06	3.898394e-06	3.530566e-09	5.595176e+01	2.270698e+02
2.200000e-06	3.908670e-06	3.537171e-09	5.609925e+01	2.273247e+02
2.210000e-06	3.917824e-06	3.543569e-09	5.623062e+01	2.275598e+02
2.220000e-06	3.926071e-06	3.549146e-09	5.634899e+01	2.277761e+02
2.230000e-06	3.933760e-06	3.554217e-09	5.645935e+01	2.279747e+02
2.240000e-06	3.940878e-06	3.558589e-09	5.656151e+01	2.281567e+02
2.250000e-06	3.947346e-06	3.564144e-09	5.665434e+01	2.283227e+02
2.260000e-06	3.953186e-06	3.567826e-09	5.673816e+01	2.284731e+02
2.270000e-06	3.958289e-06	3.570809e-09	5.681140e+01	2.286080e+02
2.280000e-06	3.962622e-06	3.575168e-09	5.687360e+01	2.287270e+02
2.290000e-06	3.966419e-06	3.580058e-09	5.692810e+01	2.288293e+02
2.300000e-06	3.969711e-06	3.581557e-09	5.697534e+01	2.289140e+02
2.310000e-06	3.972179e-06	3.581572e-09	5.701077e+01	2.289799e+02
2.320000e-06	3.973683e-06	3.582763e-09	5.703234e+01	2.290259e+02
2.330000e-06	3.974321e-06	3.585101e-09	5.704150e+01	2.290509e+02
2.340000e-06	3.974277e-06	3.588993e-09	5.704087e+01	2.290543e+02
2.350000e-06	3.973652e-06	3.591405e-09	5.703190e+01	2.290358e+02
2.360000e-06	3.972371e-06	3.593099e-09	5.701351e+01	2.289959e+02
2.370000e-06	3.970488e-06	3.596374e-09	5.698649e+01	2.289355e+02
2.380000e-06	3.968036e-06	3.597667e-09	5.695130e+01	2.288565e+02
2.390000e-06	3.964902e-06	3.596377e-09	5.690632e+01	2.287613e+02
2.400000e-06	3.961146e-06	3.595021e-09	5.685241e+01	2.286532e+02
2.410000e-06	3.956949e-06	3.587771e-09	5.679218e+01	2.285357e+02
2.420000e-06	3.952269e-06	3.567866e-09	5.672501e+01	2.284128e+02
2.430000e-06	3.946714e-06	3.596823e-09	5.664528e+01	2.282882e+02
2.440000e-06	3.939879e-06	3.647252e-09	5.654717e+01	2.281659e+02
2.450000e-06	3.932026e-06	3.582109e-09	5.643447e+01	2.280490e+02
2.460000e-06	3.923763e-06	3.521605e-09	5.631587e+01	2.279401e+02
2.470000e-06	3.915240e-06	3.579814e-09	5.619354e+01	2.278406e+02
2.480000e-06	3.905989e-06	3.662843e-09	5.606077e+01	2.277510e+02
2.490000e-06	3.895738e-06	3.549052e-09	5.591364e+01	2.276703e+02
2.500000e-06	3.885111e-06	3.518019e-09	5.576111e+01	2.275962e+02
2.510000e-06	3.874217e-06	3.552615e-09	5.560475e+01	2.275253e+02
2.520000e-06	3.862213e-06	3.479818e-09	5.543247e+01	2.274528e+02
2.530000e-06	3.849194e-06	3.500259e-09	5.524562e+01	2.273731e+02
2.540000e-06	3.835824e-06	3.601977e-09	5.505373e+01	2.272799e+02
2.550000e-06	3.821668e-06	3.467643e-09	5.485055e+01	2.271663e+02
2.560000e-06	3.806316e-06	3.340849e-09	5.463021e+01	2.270258e+02
2.570000e-06	3.790204e-06	3.595638e-09	5.439897e+01	2.268519e+02
2.580000e-06	3.773576e-06	3.589870e-09	5.416030e+01	2.266390e+02
2.590000e-06	3.756250e-06	3.297183e-09	5.391163e+01	2.263825e+02
2.600000e-06	3.738165e-06	3.340469e-09	5.365208e+01	2.260792e+02
2.610000e-06	3.719463e-06	3.504046e-09	5.338365e+01	2.257273e+02
2.620000e-06	3.700133e-06	3.293020e-09	5.310622e+01	2.253267e+02
2.630000e-06	3.680222e-06	3.231101e-09	5.282044e+01	2.248789e+02
2.640000e-06	3.659827e-06	3.382782e-09	5.252773e+01	2.243869e+02
2.650000e-06	3.638961e-06	3.295584e-09	5.222824e+01	2.238551e+02
2.660000e-06	3.617401e-06	3.261332e-09	5.191881e+01	2.232890e+02
2.670000e-06	3.594692e-06	3.325417e-09	5.159288e+01	2.226948e+02
2.680000e-06	3.571020e-06	3.281288e-09	5.125312e+01	2.220790e+02
2.690000e-06	3.546848e-06	3.253905e-09	5.090619e+01	2.214483e+02
2.700000e-06	3.522001e-06	3.234410e-09	5.054957e+01	2.208088e+02
2.710000e-06	3.496493e-06	3.262541e-09	5.018347e+01	2.201659e+02
2.720000e-06	3.470601e-06	3.318266e-09	4.981185e+01	2.195241e+02
2.730000e-06	3.444147e-06	3.179089e-09	4.943218e+01	2.188862e+02
2.740000e-06	3.416947e-06	3.146992e-09	4.904178e+01	2.182539e+02
2.750000e-06	3.389151e-06	3.327592e-09	4.864284e+01	2.176271e+02
2.760000e-06	3.360972e-06	3.234852e-09	4.823840e+01	2.170044e+02
2.770000e-06	3.332363e-06	3.091017e-09	4.782779e+01	2.163830e+02
2.780000e-06	3.303122e-06	3.221454e-09	4.740811e+01	2.157588e+02
2.790000e-06	3.273177e-06	3.256101e-09	4.697833e+01	2.151271e+02
2.800000e-06	3.242441e-06	3.138402e-09	4.653718e+01	2.144823e+02
2.810000e-06	3.210900e-06	3.132341e-09	4.608449e+01	2.138189e+02
2.820000e-06	3.178834e-06	3.187310e-09	4.562426e+01	2.131313e+02
2.830000e-06	3.146440e-06	3.173540e-09	4.515933e+01	2.124144e+02
2.840000e-06	3.113516e-06	3.110270e-09	4.468679e+01	2.116640e+02
2.850000e-06	3.079973e-06	3.106228e-09	4.420537e+01	2.108765e+02
2.860000e-06	3.045988e-06	3.142583e-09	4.371759e+01	2.100496e+02
2.870000e-06	3.011539e-06	3.100364e-09	4.322316e+01	2.091823e+02
2.880000e-06	2.976507e-06	3.068014e-09	4.272036e+01	2.082743e+02
2.890000e-06	2.940934e-06	3.087692e-09	4.220980e+01	2.073267e+02
2.900000e-06	2.904959e-06	3.066310e-09	4.169347e+01	2.063414e+02
2.910000e-06	2.868667e-06	3.027842e-09	4.117259e+01	2.053208e+02
2.920000e-06	2.831988e-06	3.038224e-09	4.064616e+01	2.042678e+02
2.930000e-06	2.794782e-06	3.050272e-09	4.011215e+01	2.031855e+02
2.940000e-06	2.756873e-06	2.986641e-09	3.956807e+01	2.020768e+02
2.950000e-06	2.718046e-06	2.953492e-09	3.901080e+01	2.009442e+02
