# Temperatura_=_20.0
# Concentracion g/m^3_=_9000.0
# C_Vs_to_Am_M_A/Vsm_=_65563218390.804596
# pendiente_HvsI_1/m_=_3716.3
# ordenada_HvsI_A/m_=_1297.0
# frecuencia_Hz_=_212864.77906591006

Tiempo_(s)	Campo_(V.s)	Magnetizacion_(V.s)	Campo_(kA/m)	Magnetizacion_(A/m)
0.000000e+00	-3.958911e-06	-3.382120e-09	-5.697899e+01	-2.279259e+02
1.000000e-08	-3.958686e-06	-3.380247e-09	-5.697575e+01	-2.278892e+02
2.000000e-08	-3.957654e-06	-3.378130e-09	-5.696089e+01	-2.278310e+02
3.000000e-08	-3.955594e-06	-3.376200e-09	-5.693125e+01	-2.277540e+02
4.000000e-08	-3.952605e-06	-3.374914e-09	-5.688822e+01	-2.276616e+02
5.000000e-08	-3.949028e-06	-3.373501e-09	-5.683674e+01	-2.275575e+02
6.000000e-08	-3.945021e-06	-3.372105e-09	-5.677907e+01	-2.274455e+02
7.000000e-08	-3.940439e-06	-3.369830e-09	-5.671313e+01	-2.273293e+02
8.000000e-08	-3.935079e-06	-3.359350e-09	-5.663597e+01	-2.272121e+02
9.000000e-08	-3.928841e-06	-3.364162e-09	-5.654620e+01	-2.270967e+02
1.000000e-07	-3.921798e-06	-3.392714e-09	-5.644483e+01	-2.269848e+02
1.100000e-07	-3.914254e-06	-3.376580e-09	-5.633625e+01	-2.268774e+02
1.200000e-07	-3.906339e-06	-3.315834e-09	-5.622233e+01	-2.267739e+02
1.300000e-07	-3.897711e-06	-3.291477e-09	-5.609816e+01	-2.266728e+02
1.400000e-07	-3.888174e-06	-3.397442e-09	-5.596090e+01	-2.265714e+02
1.500000e-07	-3.877930e-06	-3.411442e-09	-5.581346e+01	-2.264659e+02
1.600000e-07	-3.866804e-06	-3.374416e-09	-5.565332e+01	-2.263517e+02
1.700000e-07	-3.854521e-06	-3.371010e-09	-5.547655e+01	-2.262232e+02
1.800000e-07	-3.841623e-06	-3.378532e-09	-5.529090e+01	-2.260751e+02
1.900000e-07	-3.828433e-06	-3.398460e-09	-5.510107e+01	-2.259015e+02
2.000000e-07	-3.814033e-06	-3.412417e-09	-5.489382e+01	-2.256972e+02
2.100000e-07	-3.798249e-06	-3.419863e-09	-5.466665e+01	-2.254574e+02
2.200000e-07	-3.782061e-06	-3.356624e-09	-5.443365e+01	-2.251785e+02
2.300000e-07	-3.765458e-06	-3.446382e-09	-5.419470e+01	-2.248579e+02
2.400000e-07	-3.748040e-06	-3.534020e-09	-5.394401e+01	-2.244943e+02
2.500000e-07	-3.730013e-06	-3.480116e-09	-5.368455e+01	-2.240880e+02
2.600000e-07	-3.711462e-06	-3.426687e-09	-5.341755e+01	-2.236406e+02
2.700000e-07	-3.692294e-06	-3.510116e-09	-5.314168e+01	-2.231552e+02
2.800000e-07	-3.672618e-06	-3.559772e-09	-5.285848e+01	-2.226358e+02
2.900000e-07	-3.652464e-06	-3.492097e-09	-5.256842e+01	-2.220875e+02
3.000000e-07	-3.631652e-06	-3.474756e-09	-5.226888e+01	-2.215160e+02
3.100000e-07	-3.610140e-06	-3.472871e-09	-5.195926e+01	-2.209272e+02
3.200000e-07	-3.587931e-06	-3.480942e-09	-5.163963e+01	-2.203269e+02
3.300000e-07	-3.565073e-06	-3.485778e-09	-5.131063e+01	-2.197206e+02
3.400000e-07	-3.541703e-06	-3.475860e-09	-5.097428e+01	-2.191129e+02
3.500000e-07	-3.517846e-06	-3.438959e-09	-5.063092e+01	-2.185073e+02
3.600000e-07	-3.493546e-06	-3.396427e-09	-5.028118e+01	-2.179064e+02
3.700000e-07	-3.468561e-06	-3.444063e-09	-4.992158e+01	-2.173111e+02
3.800000e-07	-3.442382e-06	-3.485788e-09	-4.954479e+01	-2.167212e+02
3.900000e-07	-3.415200e-06	-3.371987e-09	-4.915357e+01	-2.161349e+02
4.000000e-07	-3.387621e-06	-3.333723e-09	-4.875664e+01	-2.155496e+02
4.100000e-07	-3.359737e-06	-3.442402e-09	-4.835532e+01	-2.149615e+02
4.200000e-07	-3.331253e-06	-3.420148e-09	-4.794536e+01	-2.143660e+02
4.300000e-07	-3.302146e-06	-3.322064e-09	-4.752643e+01	-2.137582e+02
4.400000e-07	-3.272622e-06	-3.340154e-09	-4.710150e+01	-2.131332e+02
4.500000e-07	-3.242541e-06	-3.372316e-09	-4.666856e+01	-2.124862e+02
4.600000e-07	-3.211825e-06	-3.329828e-09	-4.622648e+01	-2.118129e+02
4.700000e-07	-3.180594e-06	-3.313999e-09	-4.577698e+01	-2.111096e+02
4.800000e-07	-3.148987e-06	-3.308422e-09	-4.532207e+01	-2.103738e+02
4.900000e-07	-3.117094e-06	-3.275761e-09	-4.486305e+01	-2.096036e+02
5.000000e-07	-3.084731e-06	-3.282411e-09	-4.439727e+01	-2.087985e+02
5.100000e-07	-3.051542e-06	-3.288722e-09	-4.391959e+01	-2.079586e+02
5.200000e-07	-3.017306e-06	-3.247407e-09	-4.342685e+01	-2.070853e+02
5.300000e-07	-2.982288e-06	-3.218689e-09	-4.292285e+01	-2.061802e+02
5.400000e-07	-2.946895e-06	-3.228005e-09	-4.241345e+01	-2.052458e+02
5.500000e-07	-2.911210e-06	-3.231872e-09	-4.189985e+01	-2.042846e+02
5.600000e-07	-2.875142e-06	-3.196476e-09	-4.138074e+01	-2.032990e+02
5.700000e-07	-2.838583e-06	-3.155315e-09	-4.085456e+01	-2.022914e+02
5.800000e-07	-2.801527e-06	-3.152341e-09	-4.032124e+01	-2.012635e+02
5.900000e-07	-2.763977e-06	-3.166370e-09	-3.978079e+01	-2.002166e+02
6.000000e-07	-2.725877e-06	-3.142453e-09	-3.923243e+01	-1.991510e+02
6.100000e-07	-2.687238e-06	-3.087879e-09	-3.867632e+01	-1.980665e+02
6.200000e-07	-2.648129e-06	-3.079228e-09	-3.811344e+01	-1.969620e+02
6.300000e-07	-2.608694e-06	-3.090956e-09	-3.754586e+01	-1.958357e+02
6.400000e-07	-2.569033e-06	-3.061100e-09	-3.697504e+01	-1.946851e+02
6.500000e-07	-2.529070e-06	-3.024892e-09	-3.639987e+01	-1.935075e+02
6.600000e-07	-2.488585e-06	-3.008133e-09	-3.581719e+01	-1.922998e+02
6.700000e-07	-2.447365e-06	-2.994892e-09	-3.522392e+01	-1.910591e+02
6.800000e-07	-2.405449e-06	-2.978433e-09	-3.462064e+01	-1.897825e+02
6.900000e-07	-2.362849e-06	-2.961462e-09	-3.400752e+01	-1.884674e+02
7.000000e-07	-2.319673e-06	-2.929610e-09	-3.338610e+01	-1.871118e+02
7.100000e-07	-2.276193e-06	-2.894430e-09	-3.276031e+01	-1.857141e+02
7.200000e-07	-2.232483e-06	-2.890739e-09	-3.213121e+01	-1.842736e+02
7.300000e-07	-2.188466e-06	-2.880537e-09	-3.149770e+01	-1.827898e+02
7.400000e-07	-2.144052e-06	-2.837041e-09	-3.085846e+01	-1.812632e+02
7.500000e-07	-2.099269e-06	-2.802400e-09	-3.021392e+01	-1.796943e+02
7.600000e-07	-2.054117e-06	-2.791258e-09	-2.956406e+01	-1.780843e+02
7.700000e-07	-2.008641e-06	-2.774472e-09	-2.890955e+01	-1.764341e+02
7.800000e-07	-1.962866e-06	-2.734892e-09	-2.825072e+01	-1.747450e+02
7.900000e-07	-1.916707e-06	-2.698193e-09	-2.758638e+01	-1.730179e+02
8.000000e-07	-1.870138e-06	-2.677446e-09	-2.691613e+01	-1.712532e+02
8.100000e-07	-1.823214e-06	-2.654651e-09	-2.624077e+01	-1.694510e+02
8.200000e-07	-1.776042e-06	-2.623473e-09	-2.556185e+01	-1.676107e+02
8.300000e-07	-1.728702e-06	-2.587515e-09	-2.488050e+01	-1.657313e+02
8.400000e-07	-1.681188e-06	-2.557598e-09	-2.419665e+01	-1.638110e+02
8.500000e-07	-1.633462e-06	-2.532093e-09	-2.350975e+01	-1.618474e+02
8.600000e-07	-1.585487e-06	-2.500373e-09	-2.281926e+01	-1.598378e+02
8.700000e-07	-1.537140e-06	-2.463716e-09	-2.212343e+01	-1.577788e+02
8.800000e-07	-1.488326e-06	-2.424408e-09	-2.142087e+01	-1.556670e+02
8.900000e-07	-1.439152e-06	-2.391983e-09	-2.071312e+01	-1.534989e+02
9.000000e-07	-1.389658e-06	-2.362267e-09	-2.000078e+01	-1.512709e+02
9.100000e-07	-1.339711e-06	-2.322081e-09	-1.928191e+01	-1.489793e+02
9.200000e-07	-1.289252e-06	-2.278503e-09	-1.855567e+01	-1.466210e+02
9.300000e-07	-1.238369e-06	-2.242262e-09	-1.782334e+01	-1.441929e+02
9.400000e-07	-1.187238e-06	-2.208201e-09	-1.708743e+01	-1.416921e+02
9.500000e-07	-1.135918e-06	-2.160495e-09	-1.634880e+01	-1.391159e+02
9.600000e-07	-1.084421e-06	-2.108676e-09	-1.560762e+01	-1.364620e+02
9.700000e-07	-1.032805e-06	-2.068829e-09	-1.486474e+01	-1.337278e+02
9.800000e-07	-9.810272e-07	-2.030581e-09	-1.411952e+01	-1.309108e+02
9.900000e-07	-9.291170e-07	-1.983944e-09	-1.337240e+01	-1.280083e+02
1.000000e-06	-8.770460e-07	-1.931404e-09	-1.262296e+01	-1.250172e+02
1.010000e-06	-8.246477e-07	-1.883394e-09	-1.186882e+01	-1.219339e+02
1.020000e-06	-7.720884e-07	-1.839417e-09	-1.111235e+01	-1.187546e+02
1.030000e-06	-7.194223e-07	-1.786980e-09	-1.035435e+01	-1.154746e+02
1.040000e-06	-6.665479e-07	-1.728836e-09	-9.593351e+00	-1.120888e+02
1.050000e-06	-6.135121e-07	-1.670585e-09	-8.830029e+00	-1.085917e+02
1.060000e-06	-5.603747e-07	-1.614354e-09	-8.065243e+00	-1.049773e+02
1.070000e-06	-5.071575e-07	-1.559538e-09	-7.299310e+00	-1.012396e+02
1.080000e-06	-4.538717e-07	-1.498660e-09	-6.532389e+00	-9.737246e+01
1.090000e-06	-4.005308e-07	-1.432705e-09	-5.764676e+00	-9.336993e+01
1.100000e-06	-3.471219e-07	-1.364830e-09	-4.995984e+00	-8.922667e+01
1.110000e-06	-2.936636e-07	-1.300603e-09	-4.226580e+00	-8.493801e+01
1.120000e-06	-2.401671e-07	-1.235397e-09	-3.456627e+00	-8.050029e+01
1.130000e-06	-1.866471e-07	-1.159763e-09	-2.686335e+00	-7.591106e+01
1.140000e-06	-1.331118e-07	-1.081820e-09	-1.915824e+00	-7.116924e+01
1.150000e-06	-7.956961e-08	-1.009416e-09	-1.145213e+00	-6.627529e+01
1.160000e-06	-2.603357e-08	-9.383024e-10	-3.746905e-01	-6.123130e+01
1.170000e-06	2.749251e-08	-8.583437e-10	3.956885e-01	-5.604100e+01
1.180000e-06	8.100682e-08	-7.713140e-10	1.165898e+00	-5.070973e+01
1.190000e-06	1.345164e-07	-6.862680e-10	1.936039e+00	-4.524440e+01
1.200000e-06	1.880201e-07	-6.018192e-10	2.706096e+00	-3.965333e+01
1.210000e-06	2.414771e-07	-5.163166e-10	3.475481e+00	-3.394614e+01
1.220000e-06	2.948771e-07	-4.271724e-10	4.244045e+00	-2.813353e+01
1.230000e-06	3.482235e-07	-3.327338e-10	5.011838e+00	-2.222712e+01
1.240000e-06	4.014776e-07	-2.407681e-10	5.778303e+00	-1.623924e+01
1.250000e-06	4.545776e-07	-1.524687e-10	6.542549e+00	-1.018278e+01
1.260000e-06	5.076078e-07	-6.200018e-11	7.305791e+00	-4.070998e+00
1.270000e-06	5.605905e-07	3.235919e-11	8.068349e+00	2.082577e+00
1.280000e-06	6.134596e-07	1.290339e-10	8.829273e+00	8.264283e+00
1.290000e-06	6.662279e-07	2.239276e-10	9.588745e+00	1.446039e+01
1.300000e-06	7.188541e-07	3.175387e-10	1.034617e+01	2.065716e+01
1.310000e-06	7.713085e-07	4.120183e-10	1.110113e+01	2.684089e+01
1.320000e-06	8.235917e-07	5.080337e-10	1.185362e+01	3.299791e+01
1.330000e-06	8.756816e-07	6.022079e-10	1.260333e+01	3.911465e+01
1.340000e-06	9.275920e-07	6.922717e-10	1.335045e+01	4.517765e+01
1.350000e-06	9.793263e-07	7.839703e-10	1.409504e+01	5.117363e+01
1.360000e-06	1.030942e-06	8.759881e-10	1.483792e+01	5.708951e+01
1.370000e-06	1.082526e-06	9.659340e-10	1.558035e+01	6.291259e+01
1.380000e-06	1.133941e-06	1.052695e-09	1.632035e+01	6.863060e+01
1.390000e-06	1.185138e-06	1.136537e-09	1.705720e+01	7.423190e+01
1.400000e-06	1.236120e-06	1.220664e-09	1.779097e+01	7.970568e+01
1.410000e-06	1.286749e-06	1.303979e-09	1.851965e+01	8.504207e+01
1.420000e-06	1.336948e-06	1.385712e-09	1.924214e+01	9.023241e+01
1.430000e-06	1.386750e-06	1.463139e-09	1.995893e+01	9.526943e+01
1.440000e-06	1.436111e-06	1.537132e-09	2.066936e+01	1.001474e+02
1.450000e-06	1.484976e-06	1.609972e-09	2.137265e+01	1.048622e+02
1.460000e-06	1.533469e-06	1.678956e-09	2.207060e+01	1.094115e+02
1.470000e-06	1.581635e-06	1.745509e-09	2.276383e+01	1.137949e+02
1.480000e-06	1.629489e-06	1.810103e-09	2.345256e+01	1.180137e+02
1.490000e-06	1.677171e-06	1.871543e-09	2.413883e+01	1.220707e+02
1.500000e-06	1.724716e-06	1.930081e-09	2.482314e+01	1.259705e+02
1.510000e-06	1.772056e-06	1.987184e-09	2.550448e+01	1.297189e+02
1.520000e-06	1.819097e-06	2.043112e-09	2.618152e+01	1.333227e+02
1.530000e-06	1.865748e-06	2.097826e-09	2.685294e+01	1.367897e+02
1.540000e-06	1.911986e-06	2.150441e-09	2.751843e+01	1.401280e+02
1.550000e-06	1.957860e-06	2.197673e-09	2.817867e+01	1.433459e+02
1.560000e-06	2.003442e-06	2.242618e-09	2.883473e+01	1.464514e+02
1.570000e-06	2.048701e-06	2.288111e-09	2.948612e+01	1.494524e+02
1.580000e-06	2.093568e-06	2.331193e-09	3.013186e+01	1.523559e+02
1.590000e-06	2.138021e-06	2.371730e-09	3.077166e+01	1.551680e+02
1.600000e-06	2.182139e-06	2.411854e-09	3.140663e+01	1.578942e+02
1.610000e-06	2.225974e-06	2.451621e-09	3.203753e+01	1.605387e+02
1.620000e-06	2.269584e-06	2.491335e-09	3.266520e+01	1.631048e+02
1.630000e-06	2.312983e-06	2.530246e-09	3.328982e+01	1.655948e+02
1.640000e-06	2.356085e-06	2.565943e-09	3.391016e+01	1.680105e+02
1.650000e-06	2.398757e-06	2.600240e-09	3.452432e+01	1.703529e+02
1.660000e-06	2.440661e-06	2.634688e-09	3.512743e+01	1.726225e+02
1.670000e-06	2.481635e-06	2.666284e-09	3.571716e+01	1.748198e+02
1.680000e-06	2.521905e-06	2.693942e-09	3.629675e+01	1.769450e+02
1.690000e-06	2.561786e-06	2.722984e-09	3.687074e+01	1.789988e+02
1.700000e-06	2.601426e-06	2.754164e-09	3.744127e+01	1.809820e+02
1.710000e-06	2.640790e-06	2.782924e-09	3.800781e+01	1.828959e+02
1.720000e-06	2.679846e-06	2.809145e-09	3.856992e+01	1.847420e+02
1.730000e-06	2.718490e-06	2.835725e-09	3.912612e+01	1.865227e+02
1.740000e-06	2.756592e-06	2.864676e-09	3.967450e+01	1.882405e+02
1.750000e-06	2.794195e-06	2.892762e-09	4.021571e+01	1.898983e+02
1.760000e-06	2.831277e-06	2.917337e-09	4.074941e+01	1.914993e+02
1.770000e-06	2.867839e-06	2.940281e-09	4.127564e+01	1.930468e+02
1.780000e-06	2.903966e-06	2.963384e-09	4.179560e+01	1.945440e+02
1.790000e-06	2.939747e-06	2.987078e-09	4.231057e+01	1.959937e+02
1.800000e-06	2.975274e-06	3.009415e-09	4.282190e+01	1.973987e+02
1.810000e-06	3.010405e-06	3.030431e-09	4.332753e+01	1.987611e+02
1.820000e-06	3.044915e-06	3.051835e-09	4.382422e+01	2.000826e+02
1.830000e-06	3.078596e-06	3.073391e-09	4.430898e+01	2.013644e+02
1.840000e-06	3.111380e-06	3.094854e-09	4.478081e+01	2.026071e+02
1.850000e-06	3.143458e-06	3.114519e-09	4.524250e+01	2.038108e+02
1.860000e-06	3.175122e-06	3.132096e-09	4.569823e+01	2.049754e+02
1.870000e-06	3.206390e-06	3.150022e-09	4.614826e+01	2.061004e+02
1.880000e-06	3.237108e-06	3.168287e-09	4.659038e+01	2.071853e+02
1.890000e-06	3.267251e-06	3.186061e-09	4.702421e+01	2.082296e+02
1.900000e-06	3.296828e-06	3.203028e-09	4.744989e+01	2.092328e+02
1.910000e-06	3.325772e-06	3.219882e-09	4.786648e+01	2.101949e+02
1.920000e-06	3.354134e-06	3.235001e-09	4.827468e+01	2.111162e+02
1.930000e-06	3.382071e-06	3.249308e-09	4.867677e+01	2.119975e+02
1.940000e-06	3.409667e-06	3.263722e-09	4.907393e+01	2.128400e+02
1.950000e-06	3.436871e-06	3.278280e-09	4.946547e+01	2.136453e+02
1.960000e-06	3.463293e-06	3.293058e-09	4.984576e+01	2.144155e+02
1.970000e-06	3.488671e-06	3.305204e-09	5.021101e+01	2.151529e+02
1.980000e-06	3.513089e-06	3.317762e-09	5.056245e+01	2.158601e+02
1.990000e-06	3.536885e-06	3.330844e-09	5.090494e+01	2.165395e+02
2.000000e-06	3.560222e-06	3.342742e-09	5.124081e+01	2.171937e+02
2.010000e-06	3.582971e-06	3.352621e-09	5.156824e+01	2.178249e+02
2.020000e-06	3.605083e-06	3.361435e-09	5.188648e+01	2.184351e+02
2.030000e-06	3.626561e-06	3.372977e-09	5.219561e+01	2.190259e+02
2.040000e-06	3.647444e-06	3.384103e-09	5.249617e+01	2.195983e+02
2.050000e-06	3.667729e-06	3.393363e-09	5.278812e+01	2.201529e+02
2.060000e-06	3.687556e-06	3.402848e-09	5.307349e+01	2.206900e+02
2.070000e-06	3.707043e-06	3.413410e-09	5.335396e+01	2.212094e+02
2.080000e-06	3.725970e-06	3.423644e-09	5.362636e+01	2.217106e+02
2.090000e-06	3.744143e-06	3.430951e-09	5.388791e+01	2.221929e+02
2.100000e-06	3.761560e-06	3.437686e-09	5.413859e+01	2.226557e+02
2.110000e-06	3.778359e-06	3.445637e-09	5.438038e+01	2.230982e+02
2.120000e-06	3.794586e-06	3.455182e-09	5.461392e+01	2.235199e+02
2.130000e-06	3.810083e-06	3.463194e-09	5.483696e+01	2.239206e+02
2.140000e-06	3.824774e-06	3.469424e-09	5.504840e+01	2.243002e+02
2.150000e-06	3.838678e-06	3.478176e-09	5.524852e+01	2.246592e+02
2.160000e-06	3.851859e-06	3.488194e-09	5.543822e+01	2.249982e+02
2.170000e-06	3.864346e-06	3.496295e-09	5.561795e+01	2.253181e+02
2.180000e-06	3.876141e-06	3.501747e-09	5.578771e+01	2.256201e+02
2.190000e-06	3.887245e-06	3.506691e-09	5.594753e+01	2.259052e+02
2.200000e-06	3.897464e-06	3.513139e-09	5.609460e+01	2.261748e+02
2.210000e-06	3.906556e-06	3.520196e-09	5.622546e+01	2.264297e+02
2.220000e-06	3.914749e-06	3.527121e-09	5.634338e+01	2.266707e+02
2.230000e-06	3.922408e-06	3.532595e-09	5.645361e+01	2.268981e+02
2.240000e-06	3.929499e-06	3.536001e-09	5.655567e+01	2.271117e+02
2.250000e-06	3.935913e-06	3.540969e-09	5.664799e+01	2.273111e+02
2.260000e-06	3.941672e-06	3.545891e-09	5.673087e+01	2.274953e+02
2.270000e-06	3.946725e-06	3.548793e-09	5.680360e+01	2.276628e+02
2.280000e-06	3.951084e-06	3.550731e-09	5.686633e+01	2.278120e+02
2.290000e-06	3.954926e-06	3.553365e-09	5.692162e+01	2.279411e+02
2.300000e-06	3.958286e-06	3.556348e-09	5.696999e+01	2.280482e+02
2.310000e-06	3.960950e-06	3.558873e-09	5.700833e+01	2.281319e+02
2.320000e-06	3.962612e-06	3.562029e-09	5.703226e+01	2.281908e+02
2.330000e-06	3.963255e-06	3.563905e-09	5.704150e+01	2.282243e+02
2.340000e-06	3.963191e-06	3.565180e-09	5.704058e+01	2.282324e+02
2.350000e-06	3.962614e-06	3.566645e-09	5.703228e+01	2.282156e+02
2.360000e-06	3.961463e-06	3.568002e-09	5.701571e+01	2.281755e+02
2.370000e-06	3.959647e-06	3.567432e-09	5.698957e+01	2.281142e+02
2.380000e-06	3.957153e-06	3.565916e-09	5.695369e+01	2.280347e+02
2.390000e-06	3.953993e-06	3.564110e-09	5.690820e+01	2.279403e+02
2.400000e-06	3.950250e-06	3.564381e-09	5.685433e+01	2.278347e+02
2.410000e-06	3.946085e-06	3.563982e-09	5.679439e+01	2.277218e+02
2.420000e-06	3.941487e-06	3.575426e-09	5.672821e+01	2.276052e+02
2.430000e-06	3.936179e-06	3.571765e-09	5.665181e+01	2.274881e+02
2.440000e-06	3.929614e-06	3.533531e-09	5.655732e+01	2.273732e+02
2.450000e-06	3.921798e-06	3.533734e-09	5.644483e+01	2.272619e+02
2.460000e-06	3.913492e-06	3.594721e-09	5.632528e+01	2.271551e+02
2.470000e-06	3.905034e-06	3.630737e-09	5.620356e+01	2.270521e+02
2.480000e-06	3.895899e-06	3.528241e-09	5.607208e+01	2.269511e+02
2.490000e-06	3.885620e-06	3.487872e-09	5.592413e+01	2.268494e+02
2.500000e-06	3.874813e-06	3.520121e-09	5.576860e+01	2.267429e+02
2.510000e-06	3.863910e-06	3.528854e-09	5.561167e+01	2.266268e+02
2.520000e-06	3.851962e-06	3.506652e-09	5.543971e+01	2.264958e+02
2.530000e-06	3.838665e-06	3.512835e-09	5.524834e+01	2.263441e+02
2.540000e-06	3.825105e-06	3.478216e-09	5.505317e+01	2.261662e+02
2.550000e-06	3.811188e-06	3.452468e-09	5.485287e+01	2.259569e+02
2.560000e-06	3.795983e-06	3.552782e-09	5.463402e+01	2.257114e+02
2.570000e-06	3.779801e-06	3.484887e-09	5.440112e+01	2.254264e+02
2.580000e-06	3.763235e-06	3.358265e-09	5.416271e+01	2.250993e+02
2.590000e-06	3.746066e-06	3.418240e-09	5.391559e+01	2.247293e+02
2.600000e-06	3.728097e-06	3.467623e-09	5.365697e+01	2.243166e+02
2.610000e-06	3.709488e-06	3.298374e-09	5.338915e+01	2.238633e+02
2.620000e-06	3.690255e-06	3.268630e-09	5.311233e+01	2.233725e+02
2.630000e-06	3.670392e-06	3.349083e-09	5.282645e+01	2.228484e+02
2.640000e-06	3.649997e-06	3.257097e-09	5.253291e+01	2.222962e+02
2.650000e-06	3.629140e-06	3.252554e-09	5.223273e+01	2.217217e+02
2.660000e-06	3.607675e-06	3.314390e-09	5.192379e+01	2.211308e+02
2.670000e-06	3.585083e-06	3.258057e-09	5.159863e+01	2.205293e+02
2.680000e-06	3.561390e-06	3.217621e-09	5.125762e+01	2.199224e+02
2.690000e-06	3.537210e-06	3.256389e-09	5.090962e+01	2.193148e+02
2.700000e-06	3.512500e-06	3.283221e-09	5.055397e+01	2.187098e+02
2.710000e-06	3.487048e-06	3.224468e-09	5.018765e+01	2.181096e+02
2.720000e-06	3.461172e-06	3.168835e-09	4.981523e+01	2.175152e+02
2.730000e-06	3.434880e-06	3.240232e-09	4.943682e+01	2.169259e+02
2.740000e-06	3.407815e-06	3.277578e-09	4.904728e+01	2.163400e+02
2.750000e-06	3.380061e-06	3.158427e-09	4.864783e+01	2.157545e+02
2.760000e-06	3.351924e-06	3.151291e-09	4.824287e+01	2.151656e+02
2.770000e-06	3.323404e-06	3.244942e-09	4.783239e+01	2.145685e+02
2.780000e-06	3.294262e-06	3.188603e-09	4.741297e+01	2.139585e+02
2.790000e-06	3.264419e-06	3.134419e-09	4.698345e+01	2.133304e+02
2.800000e-06	3.233881e-06	3.163904e-09	4.654392e+01	2.126797e+02
2.810000e-06	3.202484e-06	3.161288e-09	4.609204e+01	2.120021e+02
2.820000e-06	3.170402e-06	3.151961e-09	4.563030e+01	2.112941e+02
2.830000e-06	3.137994e-06	3.136185e-09	4.516387e+01	2.105531e+02
2.840000e-06	3.105161e-06	3.124992e-09	4.469131e+01	2.097777e+02
2.850000e-06	3.071705e-06	3.113200e-09	4.420980e+01	2.089673e+02
2.860000e-06	3.037721e-06	3.087537e-09	4.372067e+01	2.081223e+02
2.870000e-06	3.003347e-06	3.107954e-09	4.322595e+01	2.072441e+02
2.880000e-06	2.968433e-06	3.091451e-09	4.272344e+01	2.063345e+02
2.890000e-06	2.932883e-06	3.034058e-09	4.221179e+01	2.053958e+02
2.900000e-06	2.896955e-06	3.038405e-09	4.169469e+01	2.044307e+02
2.910000e-06	2.860741e-06	3.060182e-09	4.117348e+01	2.034417e+02
2.920000e-06	2.824185e-06	3.040298e-09	4.064734e+01	2.024309e+02
2.930000e-06	2.787209e-06	2.986260e-09	4.011516e+01	2.014001e+02
2.940000e-06	2.749535e-06	2.978654e-09	3.957294e+01	2.003503e+02
2.950000e-06	2.710868e-06	3.005743e-09	3.901641e+01	1.992820e+02
