# Temperatura_=_20.0
# Concentracion g/m^3_=_9000.0
# C_Vs_to_Am_M_A/Vsm_=_65563218390.804596
# pendiente_HvsI_1/m_=_3716.3
# ordenada_HvsI_A/m_=_1297.0
# frecuencia_Hz_=_213025.7355915626

Tiempo_(s)	Campo_(V.s)	Magnetizacion_(V.s)	Campo_(kA/m)	Magnetizacion_(A/m)
0.000000e+00	-2.642186e-06	-2.750939e-09	-1.982834e+01	-1.807109e+02
1.000000e-08	-2.642338e-06	-2.751504e-09	-1.982948e+01	-1.807793e+02
2.000000e-08	-2.642169e-06	-2.750296e-09	-1.982821e+01	-1.808243e+02
3.000000e-08	-2.641583e-06	-2.750424e-09	-1.982381e+01	-1.808463e+02
4.000000e-08	-2.640353e-06	-2.752979e-09	-1.981458e+01	-1.808467e+02
5.000000e-08	-2.638396e-06	-2.755362e-09	-1.979990e+01	-1.808270e+02
6.000000e-08	-2.635761e-06	-2.738783e-09	-1.978012e+01	-1.807890e+02
7.000000e-08	-2.632538e-06	-2.710269e-09	-1.975593e+01	-1.807349e+02
8.000000e-08	-2.628900e-06	-2.759297e-09	-1.972863e+01	-1.806671e+02
9.000000e-08	-2.624920e-06	-2.838800e-09	-1.969876e+01	-1.805877e+02
1.000000e-07	-2.620665e-06	-2.796081e-09	-1.966683e+01	-1.804989e+02
1.100000e-07	-2.616096e-06	-2.637858e-09	-1.963255e+01	-1.804024e+02
1.200000e-07	-2.611073e-06	-2.664199e-09	-1.959485e+01	-1.802996e+02
1.300000e-07	-2.605502e-06	-2.814179e-09	-1.955304e+01	-1.801911e+02
1.400000e-07	-2.599488e-06	-2.850846e-09	-1.950791e+01	-1.800772e+02
1.500000e-07	-2.593071e-06	-2.706246e-09	-1.945975e+01	-1.799574e+02
1.600000e-07	-2.586028e-06	-2.617676e-09	-1.940690e+01	-1.798303e+02
1.700000e-07	-2.578448e-06	-2.688330e-09	-1.935002e+01	-1.796941e+02
1.800000e-07	-2.570677e-06	-2.800354e-09	-1.929170e+01	-1.795466e+02
1.900000e-07	-2.562622e-06	-2.846563e-09	-1.923125e+01	-1.793849e+02
2.000000e-07	-2.553982e-06	-2.676988e-09	-1.916641e+01	-1.792060e+02
2.100000e-07	-2.544828e-06	-2.563626e-09	-1.909772e+01	-1.790070e+02
2.200000e-07	-2.535265e-06	-2.720577e-09	-1.902595e+01	-1.787848e+02
2.300000e-07	-2.524992e-06	-2.953871e-09	-1.894885e+01	-1.785367e+02
2.400000e-07	-2.513812e-06	-2.774951e-09	-1.886495e+01	-1.782607e+02
2.500000e-07	-2.502055e-06	-2.500401e-09	-1.877672e+01	-1.779551e+02
2.600000e-07	-2.490021e-06	-2.657963e-09	-1.868641e+01	-1.776190e+02
2.700000e-07	-2.477563e-06	-2.906841e-09	-1.859292e+01	-1.772522e+02
2.800000e-07	-2.464534e-06	-2.755083e-09	-1.849514e+01	-1.768554e+02
2.900000e-07	-2.451075e-06	-2.520297e-09	-1.839414e+01	-1.764298e+02
3.000000e-07	-2.437188e-06	-2.637129e-09	-1.828993e+01	-1.759775e+02
3.100000e-07	-2.422733e-06	-2.766880e-09	-1.818145e+01	-1.755007e+02
3.200000e-07	-2.407705e-06	-2.700656e-09	-1.806867e+01	-1.750024e+02
3.300000e-07	-2.392038e-06	-2.640719e-09	-1.795109e+01	-1.744854e+02
3.400000e-07	-2.375715e-06	-2.624260e-09	-1.782860e+01	-1.739527e+02
3.500000e-07	-2.358918e-06	-2.587350e-09	-1.770255e+01	-1.734070e+02
3.600000e-07	-2.341931e-06	-2.658510e-09	-1.757507e+01	-1.728506e+02
3.700000e-07	-2.324657e-06	-2.730869e-09	-1.744543e+01	-1.722853e+02
3.800000e-07	-2.306904e-06	-2.581829e-09	-1.731221e+01	-1.717124e+02
3.900000e-07	-2.288784e-06	-2.469890e-09	-1.717623e+01	-1.711325e+02
4.000000e-07	-2.270351e-06	-2.638492e-09	-1.703789e+01	-1.705452e+02
4.100000e-07	-2.251474e-06	-2.734828e-09	-1.689623e+01	-1.699500e+02
4.200000e-07	-2.232066e-06	-2.538040e-09	-1.675058e+01	-1.693453e+02
4.300000e-07	-2.212385e-06	-2.440689e-09	-1.660288e+01	-1.687294e+02
4.400000e-07	-2.192553e-06	-2.604037e-09	-1.645406e+01	-1.681001e+02
4.500000e-07	-2.172407e-06	-2.657913e-09	-1.630287e+01	-1.674549e+02
4.600000e-07	-2.151938e-06	-2.502301e-09	-1.614926e+01	-1.667915e+02
4.700000e-07	-2.131181e-06	-2.450703e-09	-1.599349e+01	-1.661078e+02
4.800000e-07	-2.110041e-06	-2.540236e-09	-1.583485e+01	-1.654016e+02
4.900000e-07	-2.088463e-06	-2.545567e-09	-1.567291e+01	-1.646714e+02
5.000000e-07	-2.066509e-06	-2.482358e-09	-1.550816e+01	-1.639162e+02
5.100000e-07	-2.044234e-06	-2.467117e-09	-1.534100e+01	-1.631352e+02
5.200000e-07	-2.021627e-06	-2.455383e-09	-1.517134e+01	-1.623284e+02
5.300000e-07	-1.998607e-06	-2.442013e-09	-1.499859e+01	-1.614961e+02
5.400000e-07	-1.975258e-06	-2.469078e-09	-1.482336e+01	-1.606390e+02
5.500000e-07	-1.951722e-06	-2.452967e-09	-1.464674e+01	-1.597581e+02
5.600000e-07	-1.927963e-06	-2.369944e-09	-1.446844e+01	-1.588545e+02
5.700000e-07	-1.903938e-06	-2.364954e-09	-1.428814e+01	-1.579294e+02
5.800000e-07	-1.879554e-06	-2.431367e-09	-1.410515e+01	-1.569838e+02
5.900000e-07	-1.854708e-06	-2.401436e-09	-1.391869e+01	-1.560186e+02
6.000000e-07	-1.829360e-06	-2.309664e-09	-1.372847e+01	-1.550341e+02
6.100000e-07	-1.803491e-06	-2.307634e-09	-1.353433e+01	-1.540305e+02
6.200000e-07	-1.777144e-06	-2.357286e-09	-1.333661e+01	-1.530075e+02
6.300000e-07	-1.750368e-06	-2.328711e-09	-1.313567e+01	-1.519642e+02
6.400000e-07	-1.723149e-06	-2.257435e-09	-1.293141e+01	-1.508994e+02
6.500000e-07	-1.695649e-06	-2.249208e-09	-1.272503e+01	-1.498118e+02
6.600000e-07	-1.668002e-06	-2.272203e-09	-1.251755e+01	-1.486995e+02
6.700000e-07	-1.640172e-06	-2.250675e-09	-1.230870e+01	-1.475608e+02
6.800000e-07	-1.612144e-06	-2.206172e-09	-1.209837e+01	-1.463940e+02
6.900000e-07	-1.583914e-06	-2.185765e-09	-1.188652e+01	-1.451973e+02
7.000000e-07	-1.555399e-06	-2.176086e-09	-1.167252e+01	-1.439695e+02
7.100000e-07	-1.526591e-06	-2.160772e-09	-1.145633e+01	-1.427096e+02
7.200000e-07	-1.497506e-06	-2.146337e-09	-1.123807e+01	-1.414170e+02
7.300000e-07	-1.468111e-06	-2.114074e-09	-1.101747e+01	-1.400916e+02
7.400000e-07	-1.438498e-06	-2.075292e-09	-1.079524e+01	-1.387338e+02
7.500000e-07	-1.408759e-06	-2.071825e-09	-1.057206e+01	-1.373444e+02
7.600000e-07	-1.378807e-06	-2.071057e-09	-1.034729e+01	-1.359244e+02
7.700000e-07	-1.348540e-06	-2.024992e-09	-1.012015e+01	-1.344753e+02
7.800000e-07	-1.318044e-06	-1.977885e-09	-9.891290e+00	-1.329985e+02
7.900000e-07	-1.287318e-06	-1.978416e-09	-9.660700e+00	-1.314953e+02
8.000000e-07	-1.256310e-06	-1.977133e-09	-9.428002e+00	-1.299671e+02
8.100000e-07	-1.225199e-06	-1.929513e-09	-9.194533e+00	-1.284147e+02
8.200000e-07	-1.193980e-06	-1.884317e-09	-8.960248e+00	-1.268386e+02
8.300000e-07	-1.162507e-06	-1.876375e-09	-8.724060e+00	-1.252388e+02
8.400000e-07	-1.130887e-06	-1.868911e-09	-8.486761e+00	-1.236148e+02
8.500000e-07	-1.099198e-06	-1.834168e-09	-8.248953e+00	-1.219651e+02
8.600000e-07	-1.067413e-06	-1.792447e-09	-8.010424e+00	-1.202880e+02
8.700000e-07	-1.035467e-06	-1.766688e-09	-7.770683e+00	-1.185812e+02
8.800000e-07	-1.003316e-06	-1.750842e-09	-7.529404e+00	-1.168418e+02
8.900000e-07	-9.710236e-07	-1.727844e-09	-7.287066e+00	-1.150667e+02
9.000000e-07	-9.385289e-07	-1.692710e-09	-7.043209e+00	-1.132524e+02
9.100000e-07	-9.058104e-07	-1.653609e-09	-6.797672e+00	-1.113955e+02
9.200000e-07	-8.728235e-07	-1.623592e-09	-6.550122e+00	-1.094926e+02
9.300000e-07	-8.395808e-07	-1.602399e-09	-6.300651e+00	-1.075405e+02
9.400000e-07	-8.061425e-07	-1.571077e-09	-6.049713e+00	-1.055363e+02
9.500000e-07	-7.724246e-07	-1.525214e-09	-5.796676e+00	-1.034776e+02
9.600000e-07	-7.384799e-07	-1.488596e-09	-5.541937e+00	-1.013623e+02
9.700000e-07	-7.043771e-07	-1.469162e-09	-5.286012e+00	-9.918884e+01
9.800000e-07	-6.700690e-07	-1.439944e-09	-5.028546e+00	-9.695613e+01
9.900000e-07	-6.355385e-07	-1.392109e-09	-4.769412e+00	-9.466351e+01
1.000000e-06	-6.008315e-07	-1.349852e-09	-4.508952e+00	-9.231064e+01
1.010000e-06	-5.659405e-07	-1.322694e-09	-4.247111e+00	-8.989745e+01
1.020000e-06	-5.308597e-07	-1.291720e-09	-3.983847e+00	-8.742406e+01
1.030000e-06	-4.956531e-07	-1.246543e-09	-3.719639e+00	-8.489059e+01
1.040000e-06	-4.603728e-07	-1.200896e-09	-3.454877e+00	-8.229717e+01
1.050000e-06	-4.250108e-07	-1.163992e-09	-3.189502e+00	-7.964378e+01
1.060000e-06	-3.895977e-07	-1.129088e-09	-2.923743e+00	-7.693020e+01
1.070000e-06	-3.541128e-07	-1.088266e-09	-2.657447e+00	-7.415600e+01
1.080000e-06	-3.185618e-07	-1.043070e-09	-2.390654e+00	-7.132049e+01
1.090000e-06	-2.829898e-07	-9.994592e-10	-2.123702e+00	-6.842279e+01
1.100000e-06	-2.474005e-07	-9.579109e-10	-1.856622e+00	-6.546186e+01
1.110000e-06	-2.117785e-07	-9.161343e-10	-1.589296e+00	-6.243657e+01
1.120000e-06	-1.761323e-07	-8.687278e-10	-1.321788e+00	-5.934582e+01
1.130000e-06	-1.404729e-07	-8.180575e-10	-1.054181e+00	-5.618865e+01
1.140000e-06	-1.048210e-07	-7.737533e-10	-7.866309e-01	-5.296437e+01
1.150000e-06	-6.919891e-08	-7.315428e-10	-5.193046e-01	-4.967266e+01
1.160000e-06	-3.355704e-08	-6.812310e-10	-2.518295e-01	-4.631369e+01
1.170000e-06	2.086863e-09	-6.260118e-10	1.566091e-02	-4.288826e+01
1.180000e-06	3.771318e-08	-5.752039e-10	2.830193e-01	-3.939778e+01
1.190000e-06	7.335548e-08	-5.262014e-10	5.504977e-01	-3.584443e+01
1.200000e-06	1.089862e-07	-4.714950e-10	8.178892e-01	-3.223107e+01
1.210000e-06	1.446170e-07	-4.139326e-10	1.085281e+00	-2.856133e+01
1.220000e-06	1.802596e-07	-3.603647e-10	1.352762e+00	-2.483950e+01
1.230000e-06	2.158629e-07	-3.081878e-10	1.619947e+00	-2.107050e+01
1.240000e-06	2.514196e-07	-2.541805e-10	1.886784e+00	-1.725981e+01
1.250000e-06	2.869680e-07	-1.987900e-10	2.153557e+00	-1.341334e+01
1.260000e-06	3.225037e-07	-1.432648e-10	2.420235e+00	-9.537370e+00
1.270000e-06	3.580156e-07	-8.817811e-11	2.686735e+00	-5.638422e+00
1.280000e-06	3.935011e-07	-3.133085e-11	2.953037e+00	-1.723156e+00
1.290000e-06	4.289023e-07	2.767859e-11	3.218706e+00	2.201719e+00
1.300000e-06	4.642371e-07	8.953464e-11	3.483877e+00	6.129528e+00
1.310000e-06	4.995375e-07	1.498755e-10	3.748789e+00	1.005371e+01
1.320000e-06	5.347375e-07	2.058956e-10	4.012948e+00	1.396786e+01
1.330000e-06	5.697959e-07	2.619507e-10	4.276044e+00	1.786582e+01
1.340000e-06	6.047158e-07	3.202327e-10	4.538102e+00	2.174164e+01
1.350000e-06	6.394205e-07	3.786615e-10	4.798544e+00	2.558968e+01
1.360000e-06	6.738854e-07	4.349782e-10	5.057186e+00	2.940462e+01
1.370000e-06	7.082043e-07	4.919986e-10	5.314733e+00	3.318145e+01
1.380000e-06	7.423933e-07	5.507081e-10	5.571305e+00	3.691550e+01
1.390000e-06	7.763513e-07	6.074092e-10	5.826143e+00	4.060252e+01
1.400000e-06	8.099482e-07	6.606232e-10	6.078273e+00	4.423864e+01
1.410000e-06	8.432450e-07	7.122373e-10	6.328149e+00	4.782044e+01
1.420000e-06	8.763462e-07	7.643189e-10	6.576558e+00	5.134500e+01
1.430000e-06	9.091318e-07	8.157679e-10	6.822597e+00	5.480988e+01
1.440000e-06	9.416178e-07	8.643111e-10	7.066389e+00	5.821323e+01
1.450000e-06	9.739952e-07	9.123985e-10	7.309366e+00	6.155376e+01
1.460000e-06	1.006232e-06	9.602453e-10	7.551287e+00	6.483076e+01
1.470000e-06	1.038237e-06	1.007515e-09	7.791472e+00	6.804412e+01
1.480000e-06	1.070102e-06	1.055517e-09	8.030605e+00	7.119430e+01
1.490000e-06	1.101906e-06	1.103098e-09	8.269274e+00	7.428229e+01
1.500000e-06	1.133616e-06	1.149471e-09	8.507246e+00	7.730955e+01
1.510000e-06	1.165249e-06	1.194921e-09	8.744631e+00	8.027790e+01
1.520000e-06	1.196804e-06	1.240823e-09	8.981442e+00	8.318949e+01
1.530000e-06	1.228165e-06	1.284628e-09	9.216785e+00	8.604658e+01
1.540000e-06	1.259258e-06	1.325054e-09	9.450128e+00	8.885151e+01
1.550000e-06	1.290177e-06	1.364232e-09	9.682156e+00	9.160649e+01
1.560000e-06	1.320849e-06	1.403496e-09	9.912341e+00	9.431355e+01
1.570000e-06	1.351187e-06	1.442979e-09	1.014001e+01	9.697434e+01
1.580000e-06	1.381261e-06	1.480060e-09	1.036570e+01	9.959012e+01
1.590000e-06	1.411122e-06	1.516639e-09	1.058979e+01	1.021616e+02
1.600000e-06	1.440765e-06	1.555507e-09	1.081225e+01	1.046890e+02
1.610000e-06	1.470230e-06	1.594318e-09	1.103337e+01	1.071720e+02
1.620000e-06	1.499498e-06	1.630853e-09	1.125301e+01	1.096097e+02
1.630000e-06	1.528499e-06	1.663371e-09	1.147065e+01	1.120008e+02
1.640000e-06	1.557205e-06	1.695606e-09	1.168608e+01	1.143436e+02
1.650000e-06	1.585577e-06	1.730562e-09	1.189899e+01	1.166360e+02
1.660000e-06	1.613678e-06	1.764257e-09	1.210988e+01	1.188761e+02
1.670000e-06	1.641596e-06	1.796303e-09	1.231939e+01	1.210617e+02
1.680000e-06	1.669350e-06	1.827808e-09	1.252767e+01	1.231910e+02
1.690000e-06	1.696980e-06	1.859460e-09	1.273502e+01	1.252625e+02
1.700000e-06	1.724472e-06	1.890403e-09	1.294133e+01	1.272748e+02
1.710000e-06	1.751717e-06	1.919773e-09	1.314580e+01	1.292275e+02
1.720000e-06	1.778603e-06	1.948545e-09	1.334756e+01	1.311205e+02
1.730000e-06	1.805074e-06	1.977323e-09	1.354621e+01	1.329542e+02
1.740000e-06	1.831056e-06	2.004954e-09	1.374119e+01	1.347298e+02
1.750000e-06	1.856385e-06	2.030484e-09	1.393128e+01	1.364491e+02
1.760000e-06	1.881107e-06	2.055216e-09	1.411680e+01	1.381141e+02
1.770000e-06	1.905331e-06	2.079826e-09	1.429860e+01	1.397274e+02
1.780000e-06	1.929213e-06	2.104933e-09	1.447782e+01	1.412918e+02
1.790000e-06	1.952966e-06	2.129740e-09	1.465607e+01	1.428102e+02
1.800000e-06	1.976536e-06	2.154843e-09	1.483295e+01	1.442855e+02
1.810000e-06	1.999838e-06	2.179721e-09	1.500783e+01	1.457204e+02
1.820000e-06	2.022818e-06	2.202503e-09	1.518027e+01	1.471175e+02
1.830000e-06	2.045350e-06	2.224382e-09	1.534937e+01	1.484788e+02
1.840000e-06	2.067457e-06	2.246348e-09	1.551527e+01	1.498061e+02
1.850000e-06	2.089224e-06	2.267043e-09	1.567862e+01	1.511006e+02
1.860000e-06	2.110674e-06	2.286110e-09	1.583960e+01	1.523631e+02
1.870000e-06	2.131791e-06	2.304169e-09	1.599807e+01	1.535941e+02
1.880000e-06	2.152545e-06	2.322089e-09	1.615381e+01	1.547937e+02
1.890000e-06	2.172896e-06	2.341017e-09	1.630654e+01	1.559615e+02
1.900000e-06	2.192919e-06	2.360635e-09	1.645681e+01	1.570971e+02
1.910000e-06	2.212730e-06	2.379525e-09	1.660548e+01	1.582000e+02
1.920000e-06	2.232325e-06	2.397380e-09	1.675253e+01	1.592697e+02
1.930000e-06	2.251675e-06	2.414240e-09	1.689774e+01	1.603058e+02
1.940000e-06	2.270650e-06	2.430465e-09	1.704014e+01	1.613080e+02
1.950000e-06	2.289112e-06	2.447285e-09	1.717868e+01	1.622763e+02
1.960000e-06	2.307036e-06	2.463278e-09	1.731320e+01	1.632110e+02
1.970000e-06	2.324487e-06	2.476922e-09	1.744416e+01	1.641126e+02
1.980000e-06	2.341591e-06	2.490090e-09	1.757251e+01	1.649818e+02
1.990000e-06	2.358429e-06	2.505389e-09	1.769888e+01	1.658197e+02
2.000000e-06	2.375005e-06	2.521780e-09	1.782327e+01	1.666275e+02
2.010000e-06	2.391132e-06	2.535876e-09	1.794430e+01	1.674064e+02
2.020000e-06	2.406675e-06	2.546729e-09	1.806094e+01	1.681578e+02
2.030000e-06	2.421577e-06	2.557029e-09	1.817277e+01	1.688830e+02
2.040000e-06	2.435912e-06	2.569235e-09	1.828035e+01	1.695831e+02
2.050000e-06	2.449823e-06	2.582603e-09	1.838474e+01	1.702592e+02
2.060000e-06	2.463313e-06	2.594662e-09	1.848598e+01	1.709122e+02
2.070000e-06	2.476338e-06	2.604995e-09	1.858373e+01	1.715427e+02
2.080000e-06	2.488915e-06	2.614865e-09	1.867812e+01	1.721512e+02
2.090000e-06	2.501131e-06	2.625962e-09	1.876979e+01	1.727379e+02
2.100000e-06	2.512944e-06	2.637273e-09	1.885844e+01	1.733030e+02
2.110000e-06	2.524334e-06	2.646219e-09	1.894391e+01	1.738467e+02
2.120000e-06	2.535209e-06	2.653167e-09	1.902553e+01	1.743688e+02
2.130000e-06	2.545371e-06	2.661087e-09	1.910179e+01	1.748695e+02
2.140000e-06	2.554778e-06	2.670564e-09	1.917238e+01	1.753489e+02
2.150000e-06	2.563543e-06	2.679849e-09	1.923816e+01	1.758072e+02
2.160000e-06	2.571775e-06	2.689028e-09	1.929994e+01	1.762449e+02
2.170000e-06	2.579639e-06	2.697029e-09	1.935895e+01	1.766623e+02
2.180000e-06	2.587233e-06	2.705288e-09	1.941594e+01	1.770603e+02
2.190000e-06	2.594497e-06	2.713429e-09	1.947046e+01	1.774394e+02
2.200000e-06	2.601344e-06	2.719069e-09	1.952184e+01	1.778006e+02
2.210000e-06	2.607660e-06	2.723009e-09	1.956924e+01	1.781445e+02
2.220000e-06	2.613442e-06	2.728283e-09	1.961263e+01	1.784720e+02
2.230000e-06	2.618815e-06	2.735149e-09	1.965295e+01	1.787835e+02
2.240000e-06	2.623798e-06	2.741618e-09	1.969034e+01	1.790794e+02
2.250000e-06	2.628293e-06	2.747239e-09	1.972408e+01	1.793598e+02
2.260000e-06	2.632337e-06	2.752117e-09	1.975443e+01	1.796247e+02
2.270000e-06	2.636103e-06	2.756522e-09	1.978269e+01	1.798734e+02
2.280000e-06	2.639592e-06	2.760673e-09	1.980887e+01	1.801054e+02
2.290000e-06	2.642659e-06	2.764097e-09	1.983188e+01	1.803197e+02
2.300000e-06	2.645188e-06	2.766985e-09	1.985086e+01	1.805150e+02
2.310000e-06	2.647099e-06	2.770811e-09	1.986521e+01	1.806904e+02
2.320000e-06	2.648307e-06	2.774317e-09	1.987427e+01	1.808445e+02
2.330000e-06	2.648846e-06	2.777015e-09	1.987832e+01	1.809764e+02
2.340000e-06	2.648870e-06	2.779245e-09	1.987850e+01	1.810852e+02
2.350000e-06	2.648577e-06	2.780405e-09	1.987630e+01	1.811704e+02
2.360000e-06	2.648032e-06	2.781170e-09	1.987221e+01	1.812320e+02
2.370000e-06	2.647112e-06	2.783269e-09	1.986530e+01	1.812701e+02
2.380000e-06	2.645686e-06	2.782544e-09	1.985460e+01	1.812858e+02
2.390000e-06	2.643772e-06	2.777307e-09	1.984024e+01	1.812802e+02
2.400000e-06	2.641491e-06	2.786558e-09	1.982312e+01	1.812550e+02
2.410000e-06	2.638835e-06	2.819269e-09	1.980319e+01	1.812121e+02
2.420000e-06	2.635705e-06	2.779077e-09	1.977970e+01	1.811539e+02
2.430000e-06	2.632060e-06	2.701893e-09	1.975234e+01	1.810826e+02
2.440000e-06	2.627962e-06	2.720356e-09	1.972159e+01	1.810004e+02
2.450000e-06	2.623573e-06	2.851280e-09	1.968865e+01	1.809093e+02
2.460000e-06	2.618976e-06	2.832374e-09	1.965416e+01	1.808110e+02
2.470000e-06	2.613911e-06	2.710539e-09	1.961615e+01	1.807067e+02
2.480000e-06	2.608006e-06	2.680742e-09	1.957183e+01	1.805969e+02
2.490000e-06	2.601532e-06	2.766759e-09	1.952325e+01	1.804815e+02
2.500000e-06	2.594836e-06	2.832846e-09	1.947300e+01	1.803598e+02
2.510000e-06	2.587600e-06	2.804578e-09	1.941870e+01	1.802304e+02
2.520000e-06	2.579666e-06	2.709568e-09	1.935915e+01	1.800914e+02
2.530000e-06	2.571301e-06	2.639277e-09	1.929638e+01	1.799401e+02
2.540000e-06	2.562671e-06	2.773518e-09	1.923162e+01	1.797738e+02
2.550000e-06	2.553544e-06	2.892283e-09	1.916312e+01	1.795894e+02
2.560000e-06	2.543778e-06	2.744400e-09	1.908983e+01	1.793839e+02
2.570000e-06	2.533641e-06	2.540065e-09	1.901376e+01	1.791544e+02
2.580000e-06	2.523238e-06	2.719844e-09	1.893569e+01	1.788984e+02
2.590000e-06	2.512379e-06	2.932089e-09	1.885420e+01	1.786139e+02
2.600000e-06	2.501023e-06	2.729639e-09	1.876898e+01	1.782994e+02
2.610000e-06	2.489327e-06	2.519798e-09	1.868120e+01	1.779543e+02
2.620000e-06	2.477198e-06	2.713757e-09	1.859018e+01	1.775786e+02
2.630000e-06	2.464453e-06	2.861977e-09	1.849454e+01	1.771732e+02
2.640000e-06	2.451151e-06	2.669687e-09	1.839471e+01	1.767396e+02
2.650000e-06	2.437283e-06	2.604015e-09	1.829064e+01	1.762799e+02
2.660000e-06	2.422613e-06	2.731088e-09	1.818055e+01	1.757966e+02
2.670000e-06	2.407153e-06	2.699804e-09	1.806453e+01	1.752926e+02
2.680000e-06	2.391273e-06	2.635058e-09	1.794536e+01	1.747708e+02
2.690000e-06	2.375113e-06	2.719771e-09	1.782408e+01	1.742341e+02
2.700000e-06	2.358670e-06	2.676075e-09	1.770069e+01	1.736852e+02
2.710000e-06	2.341983e-06	2.538531e-09	1.757545e+01	1.731262e+02
2.720000e-06	2.324966e-06	2.653065e-09	1.744776e+01	1.725588e+02
2.730000e-06	2.307444e-06	2.766605e-09	1.731626e+01	1.719839e+02
2.740000e-06	2.289439e-06	2.589238e-09	1.718114e+01	1.714020e+02
2.750000e-06	2.271081e-06	2.490810e-09	1.704337e+01	1.708127e+02
2.760000e-06	2.252379e-06	2.663861e-09	1.690302e+01	1.702151e+02
2.770000e-06	2.233218e-06	2.708360e-09	1.675923e+01	1.696074e+02
2.780000e-06	2.213593e-06	2.531313e-09	1.661195e+01	1.689880e+02
2.790000e-06	2.193649e-06	2.499665e-09	1.646228e+01	1.683543e+02
2.800000e-06	2.173501e-06	2.622903e-09	1.631108e+01	1.677042e+02
2.810000e-06	2.153213e-06	2.613366e-09	1.615883e+01	1.670351e+02
2.820000e-06	2.132773e-06	2.507174e-09	1.600544e+01	1.663450e+02
2.830000e-06	2.111996e-06	2.517292e-09	1.584951e+01	1.656320e+02
2.840000e-06	2.090632e-06	2.568342e-09	1.568919e+01	1.648946e+02
2.850000e-06	2.068605e-06	2.520637e-09	1.552388e+01	1.641319e+02
2.860000e-06	2.045939e-06	2.484243e-09	1.535379e+01	1.633434e+02
2.870000e-06	2.022661e-06	2.514118e-09	1.517910e+01	1.625291e+02
2.880000e-06	1.998941e-06	2.485135e-09	1.500109e+01	1.616895e+02
2.890000e-06	1.974981e-06	2.436593e-09	1.482129e+01	1.608254e+02
2.900000e-06	1.950821e-06	2.470155e-09	1.463997e+01	1.599378e+02
2.910000e-06	1.926432e-06	2.475772e-09	1.445694e+01	1.590278e+02
2.920000e-06	1.901795e-06	2.400782e-09	1.427206e+01	1.580967e+02
2.930000e-06	1.876900e-06	2.386221e-09	1.408523e+01	1.571454e+02
2.940000e-06	1.851655e-06	2.433225e-09	1.389578e+01	1.561746e+02
2.950000e-06	1.825979e-06	2.403696e-09	1.370310e+01	1.551846e+02
