# Temperatura_=_20.0
# Concentracion g/m^3_=_9000.0
# C_Vs_to_Am_M_A/Vsm_=_65563218390.804596
# pendiente_HvsI_1/m_=_3716.3
# ordenada_HvsI_A/m_=_1297.0
# frecuencia_Hz_=_213026.3071296186

Tiempo_(s)	Campo_(V.s)	Magnetizacion_(V.s)	Campo_(kA/m)	Magnetizacion_(A/m)
0.000000e+00	-2.641633e-06	-2.751285e-09	-1.982441e+01	-1.808611e+02
1.000000e-08	-2.641785e-06	-2.752830e-09	-1.982555e+01	-1.809304e+02
2.000000e-08	-2.641639e-06	-2.753430e-09	-1.982445e+01	-1.809734e+02
3.000000e-08	-2.641045e-06	-2.753574e-09	-1.981999e+01	-1.809912e+02
4.000000e-08	-2.639778e-06	-2.752788e-09	-1.981048e+01	-1.809854e+02
5.000000e-08	-2.637773e-06	-2.749459e-09	-1.979544e+01	-1.809584e+02
6.000000e-08	-2.635167e-06	-2.741796e-09	-1.977589e+01	-1.809130e+02
7.000000e-08	-2.632009e-06	-2.754183e-09	-1.975219e+01	-1.808522e+02
8.000000e-08	-2.628357e-06	-2.768676e-09	-1.972478e+01	-1.807790e+02
9.000000e-08	-2.624380e-06	-2.737232e-09	-1.969493e+01	-1.806964e+02
1.000000e-07	-2.620152e-06	-2.777367e-09	-1.966320e+01	-1.806072e+02
1.100000e-07	-2.615551e-06	-2.748606e-09	-1.962867e+01	-1.805134e+02
1.200000e-07	-2.610471e-06	-2.726827e-09	-1.959055e+01	-1.804165e+02
1.300000e-07	-2.604935e-06	-2.705161e-09	-1.954900e+01	-1.803174e+02
1.400000e-07	-2.598946e-06	-2.800205e-09	-1.950406e+01	-1.802158e+02
1.500000e-07	-2.592412e-06	-2.767916e-09	-1.945502e+01	-1.801111e+02
1.600000e-07	-2.585330e-06	-2.688520e-09	-1.940188e+01	-1.800015e+02
1.700000e-07	-2.577904e-06	-2.705654e-09	-1.934615e+01	-1.798847e+02
1.800000e-07	-2.570181e-06	-2.747934e-09	-1.928818e+01	-1.797578e+02
1.900000e-07	-2.561992e-06	-2.765075e-09	-1.922673e+01	-1.796176e+02
2.000000e-07	-2.553382e-06	-2.710942e-09	-1.916212e+01	-1.794608e+02
2.100000e-07	-2.544433e-06	-2.750458e-09	-1.909496e+01	-1.792839e+02
2.200000e-07	-2.534799e-06	-2.690730e-09	-1.902266e+01	-1.790840e+02
2.300000e-07	-2.524318e-06	-2.744539e-09	-1.894400e+01	-1.788583e+02
2.400000e-07	-2.513220e-06	-2.804400e-09	-1.886072e+01	-1.786048e+02
2.500000e-07	-2.501680e-06	-2.773983e-09	-1.877412e+01	-1.783221e+02
2.600000e-07	-2.489693e-06	-2.606707e-09	-1.868416e+01	-1.780096e+02
2.700000e-07	-2.477182e-06	-2.679786e-09	-1.859026e+01	-1.776674e+02
2.800000e-07	-2.464261e-06	-2.835841e-09	-1.849330e+01	-1.772963e+02
2.900000e-07	-2.450847e-06	-2.692201e-09	-1.839263e+01	-1.768979e+02
3.000000e-07	-2.436868e-06	-2.553993e-09	-1.828772e+01	-1.764743e+02
3.100000e-07	-2.422466e-06	-2.687555e-09	-1.817965e+01	-1.760277e+02
3.200000e-07	-2.407475e-06	-2.780733e-09	-1.806714e+01	-1.755607e+02
3.300000e-07	-2.391724e-06	-2.614114e-09	-1.794894e+01	-1.750759e+02
3.400000e-07	-2.375353e-06	-2.599616e-09	-1.782608e+01	-1.745756e+02
3.500000e-07	-2.358723e-06	-2.694404e-09	-1.770128e+01	-1.740618e+02
3.600000e-07	-2.341792e-06	-2.644203e-09	-1.757422e+01	-1.735358e+02
3.700000e-07	-2.324425e-06	-2.587318e-09	-1.744388e+01	-1.729987e+02
3.800000e-07	-2.306707e-06	-2.663167e-09	-1.731092e+01	-1.724507e+02
3.900000e-07	-2.288625e-06	-2.629474e-09	-1.717522e+01	-1.718913e+02
4.000000e-07	-2.270132e-06	-2.528310e-09	-1.703644e+01	-1.713197e+02
4.100000e-07	-2.251142e-06	-2.605820e-09	-1.689393e+01	-1.707344e+02
4.200000e-07	-2.231767e-06	-2.675876e-09	-1.674852e+01	-1.701335e+02
4.300000e-07	-2.212138e-06	-2.546387e-09	-1.660121e+01	-1.695150e+02
4.400000e-07	-2.192283e-06	-2.477467e-09	-1.645222e+01	-1.688767e+02
4.500000e-07	-2.172194e-06	-2.609211e-09	-1.630146e+01	-1.682167e+02
4.600000e-07	-2.151853e-06	-2.623259e-09	-1.614880e+01	-1.675332e+02
4.700000e-07	-2.131110e-06	-2.469555e-09	-1.599314e+01	-1.668246e+02
4.800000e-07	-2.109946e-06	-2.464746e-09	-1.583431e+01	-1.660903e+02
4.900000e-07	-2.088481e-06	-2.570794e-09	-1.567322e+01	-1.653296e+02
5.000000e-07	-2.066699e-06	-2.520466e-09	-1.550976e+01	-1.645428e+02
5.100000e-07	-2.044535e-06	-2.428625e-09	-1.534342e+01	-1.637306e+02
5.200000e-07	-2.021946e-06	-2.470483e-09	-1.517390e+01	-1.628940e+02
5.300000e-07	-1.998986e-06	-2.489526e-09	-1.500159e+01	-1.620347e+02
5.400000e-07	-1.975712e-06	-2.426078e-09	-1.482693e+01	-1.611542e+02
5.500000e-07	-1.952162e-06	-2.429197e-09	-1.465020e+01	-1.602544e+02
5.600000e-07	-1.928417e-06	-2.440459e-09	-1.447201e+01	-1.593369e+02
5.700000e-07	-1.904471e-06	-2.381302e-09	-1.429230e+01	-1.584033e+02
5.800000e-07	-1.880173e-06	-2.367269e-09	-1.410995e+01	-1.574546e+02
5.900000e-07	-1.855414e-06	-2.403920e-09	-1.392415e+01	-1.564916e+02
6.000000e-07	-1.830211e-06	-2.372555e-09	-1.373500e+01	-1.555143e+02
6.100000e-07	-1.804451e-06	-2.307100e-09	-1.354169e+01	-1.545222e+02
6.200000e-07	-1.778077e-06	-2.314327e-09	-1.334376e+01	-1.535145e+02
6.300000e-07	-1.751222e-06	-2.340375e-09	-1.314222e+01	-1.524894e+02
6.400000e-07	-1.723978e-06	-2.298682e-09	-1.293777e+01	-1.514452e+02
6.500000e-07	-1.696479e-06	-2.244529e-09	-1.273140e+01	-1.503795e+02
6.600000e-07	-1.668842e-06	-2.251577e-09	-1.252400e+01	-1.492900e+02
6.700000e-07	-1.641059e-06	-2.265616e-09	-1.231550e+01	-1.481740e+02
6.800000e-07	-1.613116e-06	-2.224418e-09	-1.210579e+01	-1.470294e+02
6.900000e-07	-1.584949e-06	-2.185650e-09	-1.189441e+01	-1.458540e+02
7.000000e-07	-1.556526e-06	-2.187811e-09	-1.168111e+01	-1.446460e+02
7.100000e-07	-1.527828e-06	-2.172703e-09	-1.146574e+01	-1.434044e+02
7.200000e-07	-1.498790e-06	-2.138159e-09	-1.124782e+01	-1.421282e+02
7.300000e-07	-1.469471e-06	-2.123544e-09	-1.102780e+01	-1.408174e+02
7.400000e-07	-1.439929e-06	-2.106409e-09	-1.080609e+01	-1.394723e+02
7.500000e-07	-1.410173e-06	-2.071396e-09	-1.058279e+01	-1.380936e+02
7.600000e-07	-1.380204e-06	-2.054782e-09	-1.035789e+01	-1.366825e+02
7.700000e-07	-1.350073e-06	-2.047878e-09	-1.013176e+01	-1.352404e+02
7.800000e-07	-1.319631e-06	-2.010070e-09	-9.903308e+00	-1.337689e+02
7.900000e-07	-1.288876e-06	-1.973057e-09	-9.672502e+00	-1.322695e+02
8.000000e-07	-1.257933e-06	-1.967893e-09	-9.440291e+00	-1.307434e+02
8.100000e-07	-1.226798e-06	-1.953417e-09	-9.206631e+00	-1.291919e+02
8.200000e-07	-1.195509e-06	-1.910804e-09	-8.971823e+00	-1.276154e+02
8.300000e-07	-1.164028e-06	-1.878912e-09	-8.735570e+00	-1.260142e+02
8.400000e-07	-1.132401e-06	-1.869399e-09	-8.498216e+00	-1.243879e+02
8.500000e-07	-1.100706e-06	-1.847226e-09	-8.260362e+00	-1.227357e+02
8.600000e-07	-1.068937e-06	-1.804592e-09	-8.021948e+00	-1.210560e+02
8.700000e-07	-1.036988e-06	-1.772533e-09	-7.782182e+00	-1.193469e+02
8.800000e-07	-1.004885e-06	-1.754987e-09	-7.541263e+00	-1.176062e+02
8.900000e-07	-9.726576e-07	-1.730004e-09	-7.299409e+00	-1.158310e+02
9.000000e-07	-9.403142e-07	-1.695445e-09	-7.056684e+00	-1.140185e+02
9.100000e-07	-9.078255e-07	-1.664371e-09	-6.812870e+00	-1.121657e+02
9.200000e-07	-8.751185e-07	-1.636182e-09	-6.567417e+00	-1.102696e+02
9.300000e-07	-8.421370e-07	-1.604976e-09	-6.319904e+00	-1.083273e+02
9.400000e-07	-8.088927e-07	-1.574621e-09	-6.070418e+00	-1.063360e+02
9.500000e-07	-7.754089e-07	-1.542488e-09	-5.819136e+00	-1.042933e+02
9.600000e-07	-7.416178e-07	-1.503879e-09	-5.565547e+00	-1.021969e+02
9.700000e-07	-7.075002e-07	-1.471369e-09	-5.309508e+00	-1.000450e+02
9.800000e-07	-6.731699e-07	-1.444233e-09	-5.051873e+00	-9.783605e+01
9.900000e-07	-6.387183e-07	-1.408056e-09	-4.793327e+00	-9.556859e+01
1.000000e-06	-6.040729e-07	-1.363065e-09	-4.533327e+00	-9.324156e+01
1.010000e-06	-5.692335e-07	-1.327666e-09	-4.271871e+00	-9.085403e+01
1.020000e-06	-5.342051e-07	-1.299812e-09	-4.008997e+00	-8.840517e+01
1.030000e-06	-4.990739e-07	-1.258932e-09	-3.745351e+00	-8.589423e+01
1.040000e-06	-4.638356e-07	-1.211886e-09	-3.480902e+00	-8.332046e+01
1.050000e-06	-4.284308e-07	-1.173073e-09	-3.215203e+00	-8.068308e+01
1.060000e-06	-3.929329e-07	-1.138863e-09	-2.948805e+00	-7.798129e+01
1.070000e-06	-3.574192e-07	-1.098595e-09	-2.682289e+00	-7.521423e+01
1.080000e-06	-3.218964e-07	-1.053679e-09	-2.415705e+00	-7.238103e+01
1.090000e-06	-2.863220e-07	-1.010095e-09	-2.148733e+00	-6.948081e+01
1.100000e-06	-2.507133e-07	-9.674650e-10	-1.881504e+00	-6.651278e+01
1.110000e-06	-2.150834e-07	-9.242741e-10	-1.614115e+00	-6.347627e+01
1.120000e-06	-1.794414e-07	-8.791728e-10	-1.346636e+00	-6.037079e+01
1.130000e-06	-1.438032e-07	-8.307384e-10	-1.079186e+00	-5.719616e+01
1.140000e-06	-1.081655e-07	-7.827000e-10	-8.117390e-01	-5.395252e+01
1.150000e-06	-7.251966e-08	-7.361758e-10	-5.442313e-01	-5.064044e+01
1.160000e-06	-3.687312e-08	-6.871315e-10	-2.767181e-01	-4.726097e+01
1.170000e-06	-1.230865e-09	-6.339289e-10	-9.237151e-03	-4.381567e+01
1.180000e-06	3.443408e-08	-5.812462e-10	2.584141e-01	-4.030665e+01
1.190000e-06	7.010340e-08	-5.307644e-10	5.260981e-01	-3.673657e+01
1.200000e-06	1.057351e-07	-4.799822e-10	7.934996e-01	-3.310867e+01
1.210000e-06	1.413667e-07	-4.253825e-10	1.060901e+00	-2.942670e+01
1.220000e-06	1.770226e-07	-3.707746e-10	1.328485e+00	-2.569492e+01
1.230000e-06	2.126587e-07	-3.186853e-10	1.595919e+00	-2.191807e+01
1.240000e-06	2.482792e-07	-2.631113e-10	1.863237e+00	-1.810127e+01
1.250000e-06	2.839003e-07	-2.037910e-10	2.130559e+00	-1.425003e+01
1.260000e-06	3.194639e-07	-1.449066e-10	2.397450e+00	-1.037012e+01
1.270000e-06	3.549568e-07	-9.027578e-11	2.663810e+00	-6.467574e+00
1.280000e-06	3.903897e-07	-3.349369e-11	2.929720e+00	-2.548609e+00
1.290000e-06	4.257439e-07	2.425734e-11	3.195039e+00	1.380438e+00
1.300000e-06	4.610341e-07	8.202069e-11	3.459878e+00	5.313152e+00
1.310000e-06	4.962569e-07	1.402016e-10	3.724211e+00	9.243098e+00
1.320000e-06	5.313903e-07	1.982202e-10	3.987873e+00	1.316387e+01
1.330000e-06	5.663914e-07	2.565964e-10	4.250542e+00	1.706916e+01
1.340000e-06	6.012724e-07	3.146966e-10	4.512311e+00	2.095278e+01
1.350000e-06	6.360357e-07	3.760219e-10	4.773195e+00	2.480877e+01
1.360000e-06	6.705813e-07	4.328630e-10	5.032446e+00	2.863143e+01
1.370000e-06	7.048226e-07	4.870667e-10	5.289414e+00	3.241538e+01
1.380000e-06	7.388397e-07	5.443627e-10	5.544699e+00	3.615566e+01
1.390000e-06	7.726775e-07	6.019799e-10	5.798638e+00	3.984780e+01
1.400000e-06	8.062886e-07	6.546389e-10	6.050876e+00	4.348784e+01
1.410000e-06	8.396501e-07	7.049140e-10	6.301241e+00	4.707245e+01
1.420000e-06	8.727569e-07	7.573733e-10	6.549694e+00	5.059893e+01
1.430000e-06	9.056299e-07	8.102106e-10	6.796393e+00	5.406529e+01
1.440000e-06	9.382527e-07	8.594560e-10	7.041214e+00	5.747023e+01
1.450000e-06	9.706377e-07	9.070674e-10	7.284251e+00	6.081314e+01
1.460000e-06	1.002805e-06	9.553628e-10	7.525657e+00	6.409410e+01
1.470000e-06	1.034814e-06	1.002666e-09	7.765871e+00	6.731379e+01
1.480000e-06	1.066740e-06	1.049515e-09	8.005462e+00	7.047344e+01
1.490000e-06	1.098590e-06	1.095326e-09	8.244480e+00	7.357469e+01
1.500000e-06	1.130351e-06	1.141210e-09	8.482834e+00	7.661954e+01
1.510000e-06	1.162012e-06	1.185490e-09	8.720435e+00	7.961015e+01
1.520000e-06	1.193535e-06	1.229471e-09	8.957004e+00	8.254874e+01
1.530000e-06	1.224925e-06	1.274145e-09	9.192575e+00	8.543745e+01
1.540000e-06	1.256140e-06	1.316395e-09	9.426829e+00	8.827818e+01
1.550000e-06	1.287059e-06	1.356587e-09	9.658864e+00	9.107252e+01
1.560000e-06	1.317693e-06	1.396727e-09	9.888766e+00	9.382163e+01
1.570000e-06	1.348121e-06	1.436703e-09	1.011712e+01	9.652619e+01
1.580000e-06	1.378256e-06	1.475868e-09	1.034326e+01	9.918633e+01
1.590000e-06	1.408113e-06	1.513882e-09	1.056733e+01	1.018017e+02
1.600000e-06	1.437796e-06	1.551560e-09	1.079009e+01	1.043713e+02
1.610000e-06	1.467271e-06	1.588941e-09	1.101128e+01	1.068940e+02
1.620000e-06	1.496525e-06	1.626853e-09	1.123083e+01	1.093681e+02
1.630000e-06	1.525552e-06	1.661546e-09	1.144867e+01	1.117917e+02
1.640000e-06	1.554232e-06	1.694157e-09	1.166389e+01	1.141628e+02
1.650000e-06	1.582539e-06	1.728198e-09	1.187633e+01	1.164796e+02
1.660000e-06	1.610603e-06	1.762371e-09	1.208693e+01	1.187403e+02
1.670000e-06	1.638522e-06	1.795672e-09	1.229645e+01	1.209433e+02
1.680000e-06	1.666346e-06	1.825812e-09	1.250526e+01	1.230876e+02
1.690000e-06	1.694039e-06	1.855222e-09	1.271309e+01	1.251725e+02
1.700000e-06	1.721569e-06	1.885835e-09	1.291969e+01	1.271980e+02
1.710000e-06	1.748915e-06	1.917049e-09	1.312491e+01	1.291644e+02
1.720000e-06	1.775878e-06	1.946522e-09	1.332726e+01	1.310726e+02
1.730000e-06	1.802282e-06	1.974503e-09	1.352541e+01	1.329239e+02
1.740000e-06	1.828105e-06	2.002797e-09	1.371920e+01	1.347202e+02
1.750000e-06	1.853411e-06	2.030870e-09	1.390912e+01	1.364633e+02
1.760000e-06	1.878237e-06	2.056664e-09	1.409542e+01	1.381556e+02
1.770000e-06	1.902608e-06	2.080919e-09	1.427832e+01	1.397992e+02
1.780000e-06	1.926638e-06	2.104421e-09	1.445865e+01	1.413965e+02
1.790000e-06	1.950425e-06	2.127710e-09	1.463716e+01	1.429495e+02
1.800000e-06	1.973982e-06	2.152472e-09	1.481395e+01	1.444602e+02
1.810000e-06	1.997284e-06	2.176374e-09	1.498882e+01	1.459302e+02
1.820000e-06	2.020238e-06	2.198649e-09	1.516109e+01	1.473607e+02
1.830000e-06	2.042750e-06	2.220642e-09	1.533002e+01	1.487529e+02
1.840000e-06	2.064891e-06	2.243260e-09	1.549619e+01	1.501074e+02
1.850000e-06	2.086703e-06	2.264274e-09	1.565987e+01	1.514248e+02
1.860000e-06	2.108210e-06	2.282899e-09	1.582128e+01	1.527053e+02
1.870000e-06	2.129387e-06	2.301139e-09	1.598021e+01	1.539491e+02
1.880000e-06	2.150110e-06	2.320615e-09	1.613572e+01	1.551564e+02
1.890000e-06	2.170415e-06	2.341274e-09	1.628811e+01	1.563273e+02
1.900000e-06	2.190467e-06	2.360939e-09	1.643858e+01	1.574622e+02
1.910000e-06	2.210297e-06	2.379592e-09	1.658740e+01	1.585614e+02
1.920000e-06	2.229903e-06	2.396633e-09	1.673454e+01	1.596256e+02
1.930000e-06	2.249284e-06	2.412735e-09	1.687999e+01	1.606556e+02
1.940000e-06	2.268273e-06	2.428788e-09	1.702248e+01	1.616523e+02
1.950000e-06	2.286712e-06	2.444259e-09	1.716087e+01	1.626169e+02
1.960000e-06	2.304640e-06	2.459241e-09	1.729541e+01	1.635506e+02
1.970000e-06	2.322156e-06	2.474016e-09	1.742686e+01	1.644545e+02
1.980000e-06	2.339338e-06	2.488496e-09	1.755580e+01	1.653299e+02
1.990000e-06	2.356250e-06	2.503334e-09	1.768272e+01	1.661778e+02
2.000000e-06	2.372830e-06	2.517475e-09	1.780714e+01	1.669990e+02
2.010000e-06	2.388939e-06	2.528690e-09	1.792804e+01	1.677941e+02
2.020000e-06	2.404503e-06	2.539214e-09	1.804484e+01	1.685636e+02
2.030000e-06	2.419459e-06	2.551291e-09	1.815708e+01	1.693074e+02
2.040000e-06	2.433827e-06	2.563375e-09	1.826491e+01	1.700253e+02
2.050000e-06	2.447706e-06	2.575659e-09	1.836906e+01	1.707170e+02
2.060000e-06	2.461230e-06	2.588215e-09	1.847056e+01	1.713818e+02
2.070000e-06	2.474407e-06	2.599121e-09	1.856944e+01	1.720191e+02
2.080000e-06	2.487126e-06	2.608650e-09	1.866489e+01	1.726283e+02
2.090000e-06	2.499381e-06	2.618244e-09	1.875686e+01	1.732089e+02
2.100000e-06	2.511198e-06	2.628193e-09	1.884554e+01	1.737606e+02
2.110000e-06	2.522618e-06	2.636560e-09	1.893125e+01	1.742835e+02
2.120000e-06	2.533557e-06	2.643909e-09	1.901334e+01	1.747780e+02
2.130000e-06	2.543815e-06	2.651686e-09	1.909032e+01	1.752448e+02
2.140000e-06	2.553357e-06	2.660546e-09	1.916193e+01	1.756852e+02
2.150000e-06	2.562234e-06	2.669557e-09	1.922855e+01	1.761009e+02
2.160000e-06	2.570575e-06	2.678565e-09	1.929114e+01	1.764937e+02
2.170000e-06	2.578570e-06	2.686043e-09	1.935114e+01	1.768660e+02
2.180000e-06	2.586252e-06	2.693154e-09	1.940880e+01	1.772200e+02
2.190000e-06	2.593564e-06	2.700518e-09	1.946367e+01	1.775581e+02
2.200000e-06	2.600420e-06	2.706137e-09	1.951512e+01	1.778824e+02
2.210000e-06	2.606762e-06	2.710636e-09	1.956272e+01	1.781949e+02
2.220000e-06	2.612669e-06	2.714361e-09	1.960704e+01	1.784971e+02
2.230000e-06	2.618157e-06	2.718807e-09	1.964823e+01	1.787900e+02
2.240000e-06	2.623141e-06	2.725126e-09	1.968563e+01	1.790741e+02
2.250000e-06	2.627651e-06	2.732449e-09	1.971948e+01	1.793490e+02
2.260000e-06	2.631826e-06	2.737769e-09	1.975081e+01	1.796142e+02
2.270000e-06	2.635735e-06	2.741392e-09	1.978015e+01	1.798681e+02
2.280000e-06	2.639325e-06	2.745313e-09	1.980708e+01	1.801089e+02
2.290000e-06	2.642503e-06	2.750999e-09	1.983094e+01	1.803346e+02
2.300000e-06	2.645109e-06	2.756648e-09	1.985049e+01	1.805426e+02
2.310000e-06	2.646986e-06	2.759874e-09	1.986458e+01	1.807307e+02
2.320000e-06	2.648148e-06	2.762802e-09	1.987330e+01	1.808965e+02
2.330000e-06	2.648706e-06	2.767157e-09	1.987749e+01	1.810382e+02
2.340000e-06	2.648841e-06	2.772205e-09	1.987850e+01	1.811542e+02
2.350000e-06	2.648683e-06	2.774124e-09	1.987732e+01	1.812438e+02
2.360000e-06	2.648201e-06	2.774052e-09	1.987370e+01	1.813067e+02
2.370000e-06	2.647303e-06	2.775370e-09	1.986695e+01	1.813434e+02
2.380000e-06	2.645943e-06	2.776056e-09	1.985675e+01	1.813553e+02
2.390000e-06	2.644180e-06	2.778096e-09	1.984352e+01	1.813442e+02
2.400000e-06	2.642004e-06	2.783801e-09	1.982719e+01	1.813125e+02
2.410000e-06	2.639371e-06	2.772764e-09	1.980743e+01	1.812631e+02
2.420000e-06	2.636264e-06	2.751121e-09	1.978411e+01	1.811991e+02
2.430000e-06	2.632660e-06	2.796116e-09	1.975707e+01	1.811235e+02
2.440000e-06	2.628692e-06	2.738454e-09	1.972729e+01	1.810392e+02
2.450000e-06	2.624521e-06	2.760036e-09	1.969599e+01	1.809489e+02
2.460000e-06	2.620007e-06	2.791067e-09	1.966211e+01	1.808544e+02
2.470000e-06	2.614773e-06	2.787655e-09	1.962283e+01	1.807571e+02
2.480000e-06	2.608820e-06	2.719710e-09	1.957815e+01	1.806576e+02
2.490000e-06	2.602485e-06	2.738865e-09	1.953062e+01	1.805556e+02
2.500000e-06	2.595687e-06	2.790568e-09	1.947960e+01	1.804500e+02
2.510000e-06	2.588264e-06	2.767488e-09	1.942390e+01	1.803390e+02
2.520000e-06	2.580384e-06	2.746323e-09	1.936476e+01	1.802201e+02
2.530000e-06	2.572157e-06	2.739657e-09	1.930302e+01	1.800904e+02
2.540000e-06	2.563489e-06	2.749913e-09	1.923797e+01	1.799466e+02
2.550000e-06	2.554282e-06	2.719816e-09	1.916887e+01	1.797853e+02
2.560000e-06	2.544652e-06	2.790896e-09	1.909660e+01	1.796031e+02
2.570000e-06	2.534686e-06	2.751047e-09	1.902181e+01	1.793972e+02
2.580000e-06	2.524258e-06	2.665025e-09	1.894355e+01	1.791649e+02
2.590000e-06	2.513327e-06	2.690889e-09	1.886152e+01	1.789044e+02
2.600000e-06	2.502008e-06	2.834792e-09	1.877657e+01	1.786144e+02
2.610000e-06	2.490245e-06	2.729708e-09	1.868830e+01	1.782946e+02
2.620000e-06	2.477956e-06	2.581284e-09	1.859607e+01	1.779453e+02
2.630000e-06	2.465205e-06	2.726033e-09	1.850038e+01	1.775674e+02
2.640000e-06	2.451922e-06	2.831437e-09	1.840070e+01	1.771627e+02
2.650000e-06	2.437891e-06	2.648608e-09	1.829541e+01	1.767332e+02
2.660000e-06	2.423091e-06	2.587130e-09	1.818433e+01	1.762815e+02
2.670000e-06	2.407691e-06	2.774742e-09	1.806877e+01	1.758101e+02
2.680000e-06	2.391847e-06	2.728512e-09	1.794986e+01	1.753214e+02
2.690000e-06	2.375701e-06	2.580134e-09	1.782869e+01	1.748177e+02
2.700000e-06	2.359304e-06	2.680929e-09	1.770564e+01	1.743009e+02
2.710000e-06	2.342647e-06	2.734825e-09	1.758063e+01	1.737723e+02
2.720000e-06	2.325607e-06	2.591475e-09	1.745275e+01	1.732327e+02
2.730000e-06	2.308070e-06	2.612885e-09	1.732115e+01	1.726820e+02
2.740000e-06	2.290132e-06	2.731437e-09	1.718653e+01	1.721199e+02
2.750000e-06	2.271870e-06	2.613800e-09	1.704948e+01	1.715452e+02
2.760000e-06	2.253174e-06	2.526173e-09	1.690918e+01	1.709564e+02
2.770000e-06	2.233980e-06	2.653865e-09	1.676513e+01	1.703515e+02
2.780000e-06	2.214392e-06	2.673040e-09	1.661813e+01	1.697284e+02
2.790000e-06	2.194528e-06	2.530974e-09	1.646906e+01	1.690851e+02
2.800000e-06	2.174455e-06	2.521463e-09	1.631842e+01	1.684195e+02
2.810000e-06	2.154204e-06	2.633869e-09	1.616645e+01	1.677300e+02
2.820000e-06	2.133747e-06	2.606863e-09	1.601292e+01	1.670153e+02
2.830000e-06	2.112881e-06	2.486369e-09	1.585633e+01	1.662746e+02
2.840000e-06	2.091381e-06	2.508783e-09	1.569498e+01	1.655075e+02
2.850000e-06	2.069299e-06	2.585521e-09	1.552927e+01	1.647145e+02
2.860000e-06	2.046658e-06	2.511632e-09	1.535936e+01	1.638962e+02
2.870000e-06	2.023491e-06	2.448219e-09	1.518549e+01	1.630540e+02
2.880000e-06	1.999922e-06	2.508100e-09	1.500862e+01	1.621894e+02
2.890000e-06	1.976007e-06	2.495347e-09	1.482914e+01	1.613041e+02
2.900000e-06	1.951861e-06	2.424027e-09	1.464794e+01	1.603999e+02
2.910000e-06	1.927525e-06	2.455173e-09	1.446531e+01	1.594785e+02
2.920000e-06	1.902948e-06	2.469953e-09	1.428087e+01	1.585412e+02
2.930000e-06	1.878008e-06	2.398371e-09	1.409371e+01	1.575891e+02
2.940000e-06	1.852693e-06	2.385174e-09	1.390372e+01	1.566227e+02
2.950000e-06	1.827072e-06	2.420182e-09	1.371145e+01	1.556420e+02
