# Temperatura_=_20.0
# Concentracion g/m^3_=_9000.0
# C_Vs_to_Am_M_A/Vsm_=_65563218390.804596
# pendiente_HvsI_1/m_=_3716.3
# ordenada_HvsI_A/m_=_1297.0
# frecuencia_Hz_=_213026.3929782105

Tiempo_(s)	Campo_(V.s)	Magnetizacion_(V.s)	Campo_(kA/m)	Magnetizacion_(A/m)
0.000000e+00	-2.637235e-06	-2.796626e-09	-1.982576e+01	-1.826609e+02
1.000000e-08	-2.637380e-06	-2.797891e-09	-1.982685e+01	-1.827506e+02
2.000000e-08	-2.637258e-06	-2.799493e-09	-1.982593e+01	-1.828186e+02
3.000000e-08	-2.636733e-06	-2.800328e-09	-1.982198e+01	-1.828653e+02
4.000000e-08	-2.635628e-06	-2.801222e-09	-1.981368e+01	-1.828913e+02
5.000000e-08	-2.633777e-06	-2.801566e-09	-1.979976e+01	-1.828976e+02
6.000000e-08	-2.631199e-06	-2.793695e-09	-1.978039e+01	-1.828851e+02
7.000000e-08	-2.628036e-06	-2.801860e-09	-1.975660e+01	-1.828549e+02
8.000000e-08	-2.624380e-06	-2.811017e-09	-1.972912e+01	-1.828082e+02
9.000000e-08	-2.620410e-06	-2.786064e-09	-1.969927e+01	-1.827459e+02
1.000000e-07	-2.616195e-06	-2.837023e-09	-1.966759e+01	-1.826688e+02
1.100000e-07	-2.611601e-06	-2.782435e-09	-1.963305e+01	-1.825771e+02
1.200000e-07	-2.606513e-06	-2.749541e-09	-1.959480e+01	-1.824713e+02
1.300000e-07	-2.601005e-06	-2.749403e-09	-1.955340e+01	-1.823509e+02
1.400000e-07	-2.595128e-06	-2.849359e-09	-1.950921e+01	-1.822156e+02
1.500000e-07	-2.588713e-06	-2.809902e-09	-1.946099e+01	-1.820645e+02
1.600000e-07	-2.581683e-06	-2.715411e-09	-1.940814e+01	-1.818965e+02
1.700000e-07	-2.574278e-06	-2.745050e-09	-1.935247e+01	-1.817106e+02
1.800000e-07	-2.566581e-06	-2.770372e-09	-1.929461e+01	-1.815053e+02
1.900000e-07	-2.558513e-06	-2.801492e-09	-1.923395e+01	-1.812794e+02
2.000000e-07	-2.550042e-06	-2.754373e-09	-1.917028e+01	-1.810320e+02
2.100000e-07	-2.541154e-06	-2.766073e-09	-1.910346e+01	-1.807619e+02
2.200000e-07	-2.531712e-06	-2.689311e-09	-1.903248e+01	-1.804687e+02
2.300000e-07	-2.521415e-06	-2.760934e-09	-1.895506e+01	-1.801521e+02
2.400000e-07	-2.510368e-06	-2.848726e-09	-1.887202e+01	-1.798123e+02
2.500000e-07	-2.498828e-06	-2.768457e-09	-1.878526e+01	-1.794496e+02
2.600000e-07	-2.486842e-06	-2.603180e-09	-1.869516e+01	-1.790651e+02
2.700000e-07	-2.474422e-06	-2.701847e-09	-1.860179e+01	-1.786598e+02
2.800000e-07	-2.461524e-06	-2.856044e-09	-1.850483e+01	-1.782353e+02
2.900000e-07	-2.448155e-06	-2.688279e-09	-1.840432e+01	-1.777931e+02
3.000000e-07	-2.434351e-06	-2.566422e-09	-1.830055e+01	-1.773349e+02
3.100000e-07	-2.420074e-06	-2.709771e-09	-1.819323e+01	-1.768622e+02
3.200000e-07	-2.405203e-06	-2.770720e-09	-1.808143e+01	-1.763765e+02
3.300000e-07	-2.389654e-06	-2.620911e-09	-1.796454e+01	-1.758791e+02
3.400000e-07	-2.373457e-06	-2.628820e-09	-1.784277e+01	-1.753707e+02
3.500000e-07	-2.356758e-06	-2.697832e-09	-1.771723e+01	-1.748520e+02
3.600000e-07	-2.339699e-06	-2.627571e-09	-1.758900e+01	-1.743230e+02
3.700000e-07	-2.322357e-06	-2.608765e-09	-1.745862e+01	-1.737835e+02
3.800000e-07	-2.304716e-06	-2.690743e-09	-1.732601e+01	-1.732328e+02
3.900000e-07	-2.286728e-06	-2.622201e-09	-1.719078e+01	-1.726699e+02
4.000000e-07	-2.268328e-06	-2.526083e-09	-1.705245e+01	-1.720937e+02
4.100000e-07	-2.249439e-06	-2.625328e-09	-1.691046e+01	-1.715026e+02
4.200000e-07	-2.230129e-06	-2.678638e-09	-1.676528e+01	-1.708952e+02
4.300000e-07	-2.210527e-06	-2.538691e-09	-1.661793e+01	-1.702700e+02
4.400000e-07	-2.190740e-06	-2.490514e-09	-1.646917e+01	-1.696255e+02
4.500000e-07	-2.170732e-06	-2.617098e-09	-1.631877e+01	-1.689606e+02
4.600000e-07	-2.150389e-06	-2.612895e-09	-1.616583e+01	-1.682743e+02
4.700000e-07	-2.129653e-06	-2.474768e-09	-1.600995e+01	-1.675658e+02
4.800000e-07	-2.108558e-06	-2.484374e-09	-1.585136e+01	-1.668347e+02
4.900000e-07	-2.087105e-06	-2.571307e-09	-1.569008e+01	-1.660809e+02
5.000000e-07	-2.065292e-06	-2.513719e-09	-1.552611e+01	-1.653045e+02
5.100000e-07	-2.043151e-06	-2.440778e-09	-1.535966e+01	-1.645058e+02
5.200000e-07	-2.020616e-06	-2.478261e-09	-1.519025e+01	-1.636854e+02
5.300000e-07	-1.997688e-06	-2.480240e-09	-1.501788e+01	-1.628438e+02
5.400000e-07	-1.974441e-06	-2.423375e-09	-1.484312e+01	-1.619816e+02
5.500000e-07	-1.950939e-06	-2.434719e-09	-1.466644e+01	-1.610993e+02
5.600000e-07	-1.927235e-06	-2.439940e-09	-1.448824e+01	-1.601971e+02
5.700000e-07	-1.903327e-06	-2.378795e-09	-1.430851e+01	-1.592753e+02
5.800000e-07	-1.879141e-06	-2.372056e-09	-1.412669e+01	-1.583337e+02
5.900000e-07	-1.854540e-06	-2.405963e-09	-1.394175e+01	-1.573719e+02
6.000000e-07	-1.829537e-06	-2.370277e-09	-1.375379e+01	-1.563893e+02
6.100000e-07	-1.804054e-06	-2.309581e-09	-1.356221e+01	-1.553849e+02
6.200000e-07	-1.777955e-06	-2.316919e-09	-1.336601e+01	-1.543577e+02
6.300000e-07	-1.751300e-06	-2.337513e-09	-1.316562e+01	-1.533064e+02
6.400000e-07	-1.724213e-06	-2.297747e-09	-1.296200e+01	-1.522298e+02
6.500000e-07	-1.696800e-06	-2.248031e-09	-1.275592e+01	-1.511264e+02
6.600000e-07	-1.669178e-06	-2.250221e-09	-1.254827e+01	-1.499951e+02
6.700000e-07	-1.641407e-06	-2.259052e-09	-1.233949e+01	-1.488347e+02
6.800000e-07	-1.613483e-06	-2.221022e-09	-1.212957e+01	-1.476444e+02
6.900000e-07	-1.585382e-06	-2.184260e-09	-1.191832e+01	-1.464236e+02
7.000000e-07	-1.557060e-06	-2.182117e-09	-1.170541e+01	-1.451719e+02
7.100000e-07	-1.528466e-06	-2.165442e-09	-1.149045e+01	-1.438893e+02
7.200000e-07	-1.499510e-06	-2.136180e-09	-1.127277e+01	-1.425760e+02
7.300000e-07	-1.470231e-06	-2.124129e-09	-1.105265e+01	-1.412325e+02
7.400000e-07	-1.440735e-06	-2.102146e-09	-1.083091e+01	-1.398595e+02
7.500000e-07	-1.411039e-06	-2.064182e-09	-1.060767e+01	-1.384578e+02
7.600000e-07	-1.381116e-06	-2.049119e-09	-1.038272e+01	-1.370283e+02
7.700000e-07	-1.350972e-06	-2.042762e-09	-1.015611e+01	-1.355720e+02
7.800000e-07	-1.320654e-06	-2.004610e-09	-9.928187e+00	-1.340896e+02
7.900000e-07	-1.290079e-06	-1.968092e-09	-9.698335e+00	-1.325818e+02
8.000000e-07	-1.259262e-06	-1.962043e-09	-9.466665e+00	-1.310490e+02
8.100000e-07	-1.228249e-06	-1.946631e-09	-9.233521e+00	-1.294915e+02
8.200000e-07	-1.197012e-06	-1.906995e-09	-8.998698e+00	-1.279090e+02
8.300000e-07	-1.165639e-06	-1.878165e-09	-8.762842e+00	-1.263012e+02
8.400000e-07	-1.134165e-06	-1.865974e-09	-8.526232e+00	-1.246672e+02
8.500000e-07	-1.102545e-06	-1.843908e-09	-8.288528e+00	-1.230060e+02
8.600000e-07	-1.070764e-06	-1.807479e-09	-8.049606e+00	-1.213161e+02
8.700000e-07	-1.038860e-06	-1.778154e-09	-7.809768e+00	-1.195958e+02
8.800000e-07	-1.006867e-06	-1.759022e-09	-7.569255e+00	-1.178433e+02
8.900000e-07	-9.747793e-07	-1.734496e-09	-7.328031e+00	-1.160565e+02
9.000000e-07	-9.424505e-07	-1.702989e-09	-7.084995e+00	-1.142331e+02
9.100000e-07	-9.098520e-07	-1.672237e-09	-6.839932e+00	-1.123709e+02
9.200000e-07	-8.770712e-07	-1.640276e-09	-6.593497e+00	-1.104676e+02
9.300000e-07	-8.441329e-07	-1.605260e-09	-6.345880e+00	-1.085208e+02
9.400000e-07	-8.109968e-07	-1.574373e-09	-6.096775e+00	-1.065282e+02
9.500000e-07	-7.775946e-07	-1.543958e-09	-5.845669e+00	-1.044875e+02
9.600000e-07	-7.439880e-07	-1.506346e-09	-5.593027e+00	-1.023964e+02
9.700000e-07	-7.101415e-07	-1.472227e-09	-5.338582e+00	-1.002527e+02
9.800000e-07	-6.760432e-07	-1.444834e-09	-5.082243e+00	-9.805442e+01
9.900000e-07	-6.418450e-07	-1.412396e-09	-4.825154e+00	-9.579941e+01
1.000000e-06	-6.074120e-07	-1.371068e-09	-4.566299e+00	-9.348572e+01
1.010000e-06	-5.726338e-07	-1.335365e-09	-4.304850e+00	-9.111146e+01
1.020000e-06	-5.376706e-07	-1.307258e-09	-4.042009e+00	-8.867485e+01
1.030000e-06	-5.026380e-07	-1.268698e-09	-3.778647e+00	-8.617419e+01
1.040000e-06	-4.675223e-07	-1.222067e-09	-3.514660e+00	-8.360793e+01
1.050000e-06	-4.322421e-07	-1.181007e-09	-3.249437e+00	-8.097467e+01
1.060000e-06	-3.968594e-07	-1.145305e-09	-2.983442e+00	-7.827319e+01
1.070000e-06	-3.614359e-07	-1.105525e-09	-2.717142e+00	-7.550249e+01
1.080000e-06	-3.259371e-07	-1.060412e-09	-2.450275e+00	-7.266181e+01
1.090000e-06	-2.903794e-07	-1.016203e-09	-2.182965e+00	-6.975067e+01
1.100000e-06	-2.547880e-07	-9.734122e-10	-1.915402e+00	-6.676888e+01
1.110000e-06	-2.191669e-07	-9.311050e-10	-1.647616e+00	-6.371658e+01
1.120000e-06	-1.835234e-07	-8.868973e-10	-1.379662e+00	-6.059426e+01
1.130000e-06	-1.478717e-07	-8.377095e-10	-1.111645e+00	-5.740275e+01
1.140000e-06	-1.122341e-07	-7.894274e-10	-8.437346e-01	-5.414322e+01
1.150000e-06	-7.659049e-08	-7.434012e-10	-5.757790e-01	-5.081721e+01
1.160000e-06	-4.091437e-08	-6.944170e-10	-3.075791e-01	-4.742657e+01
1.170000e-06	-5.213428e-09	-6.401638e-10	-3.919263e-02	-4.397348e+01
1.180000e-06	3.048316e-08	-5.850324e-10	2.291612e-01	-4.046045e+01
1.190000e-06	6.615564e-08	-5.332149e-10	4.973337e-01	-3.689026e+01
1.200000e-06	1.018111e-07	-4.819790e-10	7.653779e-01	-3.326598e+01
1.210000e-06	1.374538e-07	-4.267180e-10	1.033327e+00	-2.959094e+01
1.220000e-06	1.730835e-07	-3.702342e-10	1.301178e+00	-2.586876e+01
1.230000e-06	2.086964e-07	-3.175126e-10	1.568903e+00	-2.210329e+01
1.240000e-06	2.442903e-07	-2.632678e-10	1.836484e+00	-1.829868e+01
1.250000e-06	2.798479e-07	-2.050200e-10	2.103793e+00	-1.445933e+01
1.260000e-06	3.153370e-07	-1.476096e-10	2.370587e+00	-1.058995e+01
1.270000e-06	3.507614e-07	-9.186477e-11	2.636894e+00	-6.695520e+00
1.280000e-06	3.861897e-07	-3.496701e-11	2.903231e+00	-2.781318e+00
1.290000e-06	4.215924e-07	2.315133e-11	3.169376e+00	1.147091e+00
1.300000e-06	4.568882e-07	8.043912e-11	3.434717e+00	5.083868e+00
1.310000e-06	4.920595e-07	1.389432e-10	3.699122e+00	9.022938e+00
1.320000e-06	5.271366e-07	1.980526e-10	3.962819e+00	1.295803e+01
1.330000e-06	5.621262e-07	2.559086e-10	4.225857e+00	1.688274e+01
1.340000e-06	5.969223e-07	3.147054e-10	4.487441e+00	2.079060e+01
1.350000e-06	6.314805e-07	3.756026e-10	4.747238e+00	2.467519e+01
1.360000e-06	6.658335e-07	4.348977e-10	5.005490e+00	2.853022e+01
1.370000e-06	6.999377e-07	4.908050e-10	5.261873e+00	3.234967e+01
1.380000e-06	7.338252e-07	5.474547e-10	5.516627e+00	3.612789e+01
1.390000e-06	7.675457e-07	6.036295e-10	5.770126e+00	3.985969e+01
1.400000e-06	8.010542e-07	6.572815e-10	6.022030e+00	4.354049e+01
1.410000e-06	8.342828e-07	7.105241e-10	6.271830e+00	4.716639e+01
1.420000e-06	8.672854e-07	7.642129e-10	6.519931e+00	5.073424e+01
1.430000e-06	9.000850e-07	8.174864e-10	6.766507e+00	5.424166e+01
1.440000e-06	9.326499e-07	8.681408e-10	7.011318e+00	5.768711e+01
1.450000e-06	9.650020e-07	9.176725e-10	7.254529e+00	6.106983e+01
1.460000e-06	9.971663e-07	9.671019e-10	7.496328e+00	6.438980e+01
1.470000e-06	1.029182e-06	1.016261e-09	7.737014e+00	6.764768e+01
1.480000e-06	1.061081e-06	1.063816e-09	7.976812e+00	7.084468e+01
1.490000e-06	1.092915e-06	1.109765e-09	8.216133e+00	7.398247e+01
1.500000e-06	1.124698e-06	1.155773e-09	8.455066e+00	7.706299e+01
1.510000e-06	1.156385e-06	1.200179e-09	8.693274e+00	8.008836e+01
1.520000e-06	1.187918e-06	1.244349e-09	8.930329e+00	8.306067e+01
1.530000e-06	1.219302e-06	1.290269e-09	9.166261e+00	8.598189e+01
1.540000e-06	1.250458e-06	1.334658e-09	9.400483e+00	8.885370e+01
1.550000e-06	1.281322e-06	1.375151e-09	9.632504e+00	9.167743e+01
1.560000e-06	1.311925e-06	1.415737e-09	9.862567e+00	9.445397e+01
1.570000e-06	1.342279e-06	1.457061e-09	1.009076e+01	9.718373e+01
1.580000e-06	1.372368e-06	1.496588e-09	1.031695e+01	9.986660e+01
1.590000e-06	1.402248e-06	1.533394e-09	1.054158e+01	1.025020e+02
1.600000e-06	1.431943e-06	1.569591e-09	1.076482e+01	1.050891e+02
1.610000e-06	1.461437e-06	1.607865e-09	1.098655e+01	1.076264e+02
1.620000e-06	1.490758e-06	1.646675e-09	1.120697e+01	1.101124e+02
1.630000e-06	1.519763e-06	1.681954e-09	1.142502e+01	1.125457e+02
1.640000e-06	1.548443e-06	1.714775e-09	1.164062e+01	1.149244e+02
1.650000e-06	1.576895e-06	1.748100e-09	1.185452e+01	1.172471e+02
1.660000e-06	1.605060e-06	1.781754e-09	1.206625e+01	1.195125e+02
1.670000e-06	1.632995e-06	1.815342e-09	1.227625e+01	1.217197e+02
1.680000e-06	1.660803e-06	1.846952e-09	1.248531e+01	1.238682e+02
1.690000e-06	1.688510e-06	1.876215e-09	1.269360e+01	1.259577e+02
1.700000e-06	1.716053e-06	1.904802e-09	1.290065e+01	1.279888e+02
1.710000e-06	1.743310e-06	1.934286e-09	1.310556e+01	1.299621e+02
1.720000e-06	1.770176e-06	1.964441e-09	1.330753e+01	1.318788e+02
1.730000e-06	1.796591e-06	1.993424e-09	1.350611e+01	1.337405e+02
1.740000e-06	1.822418e-06	2.021821e-09	1.370026e+01	1.355490e+02
1.750000e-06	1.847616e-06	2.049740e-09	1.388969e+01	1.373061e+02
1.760000e-06	1.872308e-06	2.075611e-09	1.407532e+01	1.390140e+02
1.770000e-06	1.896635e-06	2.101077e-09	1.425820e+01	1.406746e+02
1.780000e-06	1.920685e-06	2.124647e-09	1.443900e+01	1.422899e+02
1.790000e-06	1.944467e-06	2.146068e-09	1.461779e+01	1.438618e+02
1.800000e-06	1.968028e-06	2.168179e-09	1.479491e+01	1.453916e+02
1.810000e-06	1.991358e-06	2.191237e-09	1.497029e+01	1.468809e+02
1.820000e-06	2.014316e-06	2.214649e-09	1.514289e+01	1.483307e+02
1.830000e-06	2.036837e-06	2.237419e-09	1.531219e+01	1.497419e+02
1.840000e-06	2.059008e-06	2.260296e-09	1.547887e+01	1.511152e+02
1.850000e-06	2.080860e-06	2.281134e-09	1.564314e+01	1.524510e+02
1.860000e-06	2.102367e-06	2.301909e-09	1.580482e+01	1.537499e+02
1.870000e-06	2.123510e-06	2.322654e-09	1.596377e+01	1.550123e+02
1.880000e-06	2.144288e-06	2.341981e-09	1.611997e+01	1.562384e+02
1.890000e-06	2.164681e-06	2.360008e-09	1.627327e+01	1.574288e+02
1.900000e-06	2.184782e-06	2.376601e-09	1.642438e+01	1.585840e+02
1.910000e-06	2.204683e-06	2.394472e-09	1.657399e+01	1.597048e+02
1.920000e-06	2.224364e-06	2.410506e-09	1.672195e+01	1.607918e+02
1.930000e-06	2.243769e-06	2.425675e-09	1.686783e+01	1.618460e+02
1.940000e-06	2.262745e-06	2.440805e-09	1.701048e+01	1.628683e+02
1.950000e-06	2.281241e-06	2.456924e-09	1.714953e+01	1.638598e+02
1.960000e-06	2.299278e-06	2.475143e-09	1.728513e+01	1.648215e+02
1.970000e-06	2.316813e-06	2.491289e-09	1.741695e+01	1.657542e+02
1.980000e-06	2.333983e-06	2.505178e-09	1.754603e+01	1.666589e+02
1.990000e-06	2.350853e-06	2.518864e-09	1.767285e+01	1.675361e+02
2.000000e-06	2.367358e-06	2.533597e-09	1.779693e+01	1.683863e+02
2.010000e-06	2.383461e-06	2.545183e-09	1.791798e+01	1.692097e+02
2.020000e-06	2.398956e-06	2.553575e-09	1.803446e+01	1.700064e+02
2.030000e-06	2.413859e-06	2.562882e-09	1.814650e+01	1.707761e+02
2.040000e-06	2.428351e-06	2.574378e-09	1.825545e+01	1.715185e+02
2.050000e-06	2.442376e-06	2.588064e-09	1.836088e+01	1.722330e+02
2.060000e-06	2.455905e-06	2.600510e-09	1.846259e+01	1.729193e+02
2.070000e-06	2.469053e-06	2.611143e-09	1.856143e+01	1.735766e+02
2.080000e-06	2.481842e-06	2.621504e-09	1.865757e+01	1.742047e+02
2.090000e-06	2.494204e-06	2.631352e-09	1.875050e+01	1.748032e+02
2.100000e-06	2.506136e-06	2.640549e-09	1.884020e+01	1.753721e+02
2.110000e-06	2.517609e-06	2.649686e-09	1.892646e+01	1.759118e+02
2.120000e-06	2.528524e-06	2.658256e-09	1.900851e+01	1.764229e+02
2.130000e-06	2.538748e-06	2.665427e-09	1.908537e+01	1.769062e+02
2.140000e-06	2.548240e-06	2.672286e-09	1.915673e+01	1.773631e+02
2.150000e-06	2.557077e-06	2.681243e-09	1.922316e+01	1.777951e+02
2.160000e-06	2.565402e-06	2.691656e-09	1.928574e+01	1.782040e+02
2.170000e-06	2.573361e-06	2.699777e-09	1.934558e+01	1.785916e+02
2.180000e-06	2.581034e-06	2.705998e-09	1.940326e+01	1.789600e+02
2.190000e-06	2.588363e-06	2.712696e-09	1.945836e+01	1.793111e+02
2.200000e-06	2.595201e-06	2.718773e-09	1.950976e+01	1.796467e+02
2.210000e-06	2.601582e-06	2.722991e-09	1.955773e+01	1.799682e+02
2.220000e-06	2.607484e-06	2.727024e-09	1.960210e+01	1.802771e+02
2.230000e-06	2.612951e-06	2.731420e-09	1.964320e+01	1.805741e+02
2.240000e-06	2.617962e-06	2.736999e-09	1.968087e+01	1.808596e+02
2.250000e-06	2.622502e-06	2.743168e-09	1.971500e+01	1.811337e+02
2.260000e-06	2.626721e-06	2.748937e-09	1.974672e+01	1.813961e+02
2.270000e-06	2.630681e-06	2.753165e-09	1.977649e+01	1.816459e+02
2.280000e-06	2.634326e-06	2.756718e-09	1.980389e+01	1.818822e+02
2.290000e-06	2.637557e-06	2.762986e-09	1.982818e+01	1.821037e+02
2.300000e-06	2.640267e-06	2.768245e-09	1.984855e+01	1.823089e+02
2.310000e-06	2.642280e-06	2.770030e-09	1.986368e+01	1.824966e+02
2.320000e-06	2.643512e-06	2.772672e-09	1.987294e+01	1.826653e+02
2.330000e-06	2.644086e-06	2.776817e-09	1.987726e+01	1.828140e+02
2.340000e-06	2.644251e-06	2.780344e-09	1.987850e+01	1.829417e+02
2.350000e-06	2.644093e-06	2.782667e-09	1.987731e+01	1.830479e+02
2.360000e-06	2.643599e-06	2.783491e-09	1.987360e+01	1.831324e+02
2.370000e-06	2.642709e-06	2.784923e-09	1.986691e+01	1.831953e+02
2.380000e-06	2.641369e-06	2.784987e-09	1.985684e+01	1.832369e+02
2.390000e-06	2.639648e-06	2.783962e-09	1.984390e+01	1.832581e+02
2.400000e-06	2.637560e-06	2.789004e-09	1.982821e+01	1.832598e+02
2.410000e-06	2.634984e-06	2.783669e-09	1.980884e+01	1.832430e+02
2.420000e-06	2.631904e-06	2.765437e-09	1.978569e+01	1.832089e+02
2.430000e-06	2.628363e-06	2.805331e-09	1.975906e+01	1.831585e+02
2.440000e-06	2.624414e-06	2.743598e-09	1.972938e+01	1.830926e+02
2.450000e-06	2.620240e-06	2.786028e-09	1.969799e+01	1.830120e+02
2.460000e-06	2.615778e-06	2.827258e-09	1.966445e+01	1.829170e+02
2.470000e-06	2.610705e-06	2.804530e-09	1.962632e+01	1.828078e+02
2.480000e-06	2.604962e-06	2.733183e-09	1.958314e+01	1.826840e+02
2.490000e-06	2.598694e-06	2.762286e-09	1.953602e+01	1.825450e+02
2.500000e-06	2.591880e-06	2.819344e-09	1.948480e+01	1.823900e+02
2.510000e-06	2.584542e-06	2.786831e-09	1.942964e+01	1.822179e+02
2.520000e-06	2.576773e-06	2.775892e-09	1.937123e+01	1.820275e+02
2.530000e-06	2.568629e-06	2.755277e-09	1.931001e+01	1.818174e+02
2.540000e-06	2.560083e-06	2.758684e-09	1.924576e+01	1.815865e+02
2.550000e-06	2.551010e-06	2.751412e-09	1.917755e+01	1.813337e+02
2.560000e-06	2.541451e-06	2.830068e-09	1.910569e+01	1.810581e+02
2.570000e-06	2.531513e-06	2.760460e-09	1.903098e+01	1.807593e+02
2.580000e-06	2.521123e-06	2.661796e-09	1.895287e+01	1.804371e+02
2.590000e-06	2.510256e-06	2.731591e-09	1.887117e+01	1.800917e+02
2.600000e-06	2.498990e-06	2.865905e-09	1.878648e+01	1.797237e+02
2.610000e-06	2.487255e-06	2.730211e-09	1.869827e+01	1.793341e+02
2.620000e-06	2.475027e-06	2.594045e-09	1.860634e+01	1.789241e+02
2.630000e-06	2.462355e-06	2.765500e-09	1.851107e+01	1.784952e+02
2.640000e-06	2.449118e-06	2.844368e-09	1.841156e+01	1.780491e+02
2.650000e-06	2.435225e-06	2.651847e-09	1.830712e+01	1.775873e+02
2.660000e-06	2.420635e-06	2.626760e-09	1.819744e+01	1.771115e+02
2.670000e-06	2.405365e-06	2.796511e-09	1.808265e+01	1.766230e+02
2.680000e-06	2.389595e-06	2.719393e-09	1.796410e+01	1.761230e+02
2.690000e-06	2.373515e-06	2.597470e-09	1.784321e+01	1.756122e+02
2.700000e-06	2.357169e-06	2.721720e-09	1.772033e+01	1.750911e+02
2.710000e-06	2.340517e-06	2.735028e-09	1.759515e+01	1.745598e+02
2.720000e-06	2.323532e-06	2.585860e-09	1.746746e+01	1.740178e+02
2.730000e-06	2.306114e-06	2.648652e-09	1.733652e+01	1.734644e+02
2.740000e-06	2.288252e-06	2.754516e-09	1.720224e+01	1.728985e+02
2.750000e-06	2.269999e-06	2.614457e-09	1.706501e+01	1.723189e+02
2.760000e-06	2.251345e-06	2.547274e-09	1.692478e+01	1.717241e+02
2.770000e-06	2.232286e-06	2.684132e-09	1.678150e+01	1.711127e+02
2.780000e-06	2.212856e-06	2.680325e-09	1.663543e+01	1.704830e+02
2.790000e-06	2.193099e-06	2.544456e-09	1.648691e+01	1.698338e+02
2.800000e-06	2.173051e-06	2.552693e-09	1.633619e+01	1.691638e+02
2.810000e-06	2.152824e-06	2.645474e-09	1.618414e+01	1.684722e+02
2.820000e-06	2.132388e-06	2.608121e-09	1.603051e+01	1.677583e+02
2.830000e-06	2.111546e-06	2.511746e-09	1.587382e+01	1.670217e+02
2.840000e-06	2.090209e-06	2.541479e-09	1.571342e+01	1.662625e+02
2.850000e-06	2.068333e-06	2.599348e-09	1.554897e+01	1.654807e+02
2.860000e-06	2.045828e-06	2.525767e-09	1.537978e+01	1.646768e+02
2.870000e-06	2.022745e-06	2.479969e-09	1.520625e+01	1.638513e+02
2.880000e-06	1.999218e-06	2.537043e-09	1.502938e+01	1.630047e+02
2.890000e-06	1.975352e-06	2.513514e-09	1.484997e+01	1.621376e+02
2.900000e-06	1.951287e-06	2.448342e-09	1.466906e+01	1.612506e+02
2.910000e-06	1.927025e-06	2.482585e-09	1.448666e+01	1.603437e+02
2.920000e-06	1.902506e-06	2.491506e-09	1.430234e+01	1.594172e+02
2.930000e-06	1.877689e-06	2.422270e-09	1.411577e+01	1.584708e+02
2.940000e-06	1.852532e-06	2.413979e-09	1.392665e+01	1.575041e+02
2.950000e-06	1.827004e-06	2.445717e-09	1.373474e+01	1.565164e+02
