# Temperatura_=_20.0
# Concentracion g/m^3_=_9000.0
# C_Vs_to_Am_M_A/Vsm_=_65563218390.804596
# pendiente_HvsI_1/m_=_3716.3
# ordenada_HvsI_A/m_=_1297.0
# frecuencia_Hz_=_213026.04399570829

Tiempo_(s)	Campo_(V.s)	Magnetizacion_(V.s)	Campo_(kA/m)	Magnetizacion_(A/m)
0.000000e+00	-2.639666e-06	-2.754113e-09	-1.982702e+01	-1.810616e+02
1.000000e-08	-2.639789e-06	-2.755032e-09	-1.982794e+01	-1.811613e+02
2.000000e-08	-2.639573e-06	-2.755080e-09	-1.982632e+01	-1.812369e+02
3.000000e-08	-2.638868e-06	-2.754787e-09	-1.982103e+01	-1.812887e+02
4.000000e-08	-2.637564e-06	-2.754112e-09	-1.981123e+01	-1.813177e+02
5.000000e-08	-2.635564e-06	-2.751310e-09	-1.979621e+01	-1.813253e+02
6.000000e-08	-2.632881e-06	-2.736563e-09	-1.977606e+01	-1.813134e+02
7.000000e-08	-2.629652e-06	-2.739400e-09	-1.975181e+01	-1.812841e+02
8.000000e-08	-2.625994e-06	-2.795897e-09	-1.972433e+01	-1.812396e+02
9.000000e-08	-2.621997e-06	-2.776007e-09	-1.969431e+01	-1.811821e+02
1.000000e-07	-2.617768e-06	-2.760358e-09	-1.966254e+01	-1.811138e+02
1.100000e-07	-2.613195e-06	-2.705989e-09	-1.962819e+01	-1.810365e+02
1.200000e-07	-2.608071e-06	-2.743813e-09	-1.958970e+01	-1.809515e+02
1.300000e-07	-2.602440e-06	-2.753681e-09	-1.954741e+01	-1.808597e+02
1.400000e-07	-2.596396e-06	-2.805001e-09	-1.950202e+01	-1.807613e+02
1.500000e-07	-2.589861e-06	-2.729397e-09	-1.945293e+01	-1.806559e+02
1.600000e-07	-2.582785e-06	-2.672651e-09	-1.939978e+01	-1.805425e+02
1.700000e-07	-2.575308e-06	-2.719628e-09	-1.934362e+01	-1.804196e+02
1.800000e-07	-2.567558e-06	-2.787668e-09	-1.928541e+01	-1.802851e+02
1.900000e-07	-2.559432e-06	-2.783020e-09	-1.922437e+01	-1.801368e+02
2.000000e-07	-2.550799e-06	-2.659764e-09	-1.915953e+01	-1.799720e+02
2.100000e-07	-2.541741e-06	-2.711346e-09	-1.909149e+01	-1.797881e+02
2.200000e-07	-2.532100e-06	-2.746557e-09	-1.901908e+01	-1.795827e+02
2.300000e-07	-2.521635e-06	-2.810559e-09	-1.894047e+01	-1.793535e+02
2.400000e-07	-2.510456e-06	-2.718167e-09	-1.885650e+01	-1.790987e+02
2.500000e-07	-2.498791e-06	-2.708519e-09	-1.876888e+01	-1.788168e+02
2.600000e-07	-2.486733e-06	-2.690915e-09	-1.867831e+01	-1.785072e+02
2.700000e-07	-2.474172e-06	-2.747122e-09	-1.858397e+01	-1.781694e+02
2.800000e-07	-2.461109e-06	-2.763504e-09	-1.848585e+01	-1.778040e+02
2.900000e-07	-2.447660e-06	-2.661413e-09	-1.838483e+01	-1.774117e+02
3.000000e-07	-2.433805e-06	-2.623860e-09	-1.828076e+01	-1.769940e+02
3.100000e-07	-2.419499e-06	-2.696784e-09	-1.817331e+01	-1.765524e+02
3.200000e-07	-2.404604e-06	-2.757878e-09	-1.806143e+01	-1.760889e+02
3.300000e-07	-2.388997e-06	-2.638942e-09	-1.794420e+01	-1.756055e+02
3.400000e-07	-2.372747e-06	-2.603154e-09	-1.782214e+01	-1.751042e+02
3.500000e-07	-2.356082e-06	-2.658157e-09	-1.769697e+01	-1.745868e+02
3.600000e-07	-2.339113e-06	-2.681368e-09	-1.756951e+01	-1.740548e+02
3.700000e-07	-2.321732e-06	-2.631626e-09	-1.743896e+01	-1.735094e+02
3.800000e-07	-2.303965e-06	-2.610571e-09	-1.730551e+01	-1.729513e+02
3.900000e-07	-2.285852e-06	-2.600708e-09	-1.716946e+01	-1.723809e+02
4.000000e-07	-2.267306e-06	-2.603638e-09	-1.703016e+01	-1.717979e+02
4.100000e-07	-2.248270e-06	-2.627327e-09	-1.688717e+01	-1.712019e+02
4.200000e-07	-2.228859e-06	-2.600641e-09	-1.674138e+01	-1.705919e+02
4.300000e-07	-2.209205e-06	-2.549448e-09	-1.659375e+01	-1.699668e+02
4.400000e-07	-2.189347e-06	-2.553726e-09	-1.644459e+01	-1.693251e+02
4.500000e-07	-2.169206e-06	-2.595890e-09	-1.629331e+01	-1.686656e+02
4.600000e-07	-2.148754e-06	-2.571374e-09	-1.613969e+01	-1.679867e+02
4.700000e-07	-2.128010e-06	-2.511387e-09	-1.598388e+01	-1.672872e+02
4.800000e-07	-2.106903e-06	-2.509629e-09	-1.582534e+01	-1.665658e+02
4.900000e-07	-2.085421e-06	-2.544207e-09	-1.566399e+01	-1.658217e+02
5.000000e-07	-2.063515e-06	-2.523885e-09	-1.549944e+01	-1.650542e+02
5.100000e-07	-2.041208e-06	-2.469299e-09	-1.533190e+01	-1.642628e+02
5.200000e-07	-2.018575e-06	-2.466788e-09	-1.516189e+01	-1.634474e+02
5.300000e-07	-1.995580e-06	-2.485201e-09	-1.498917e+01	-1.626081e+02
5.400000e-07	-1.972254e-06	-2.460962e-09	-1.481397e+01	-1.617449e+02
5.500000e-07	-1.948666e-06	-2.436114e-09	-1.463679e+01	-1.608583e+02
5.600000e-07	-1.924886e-06	-2.424633e-09	-1.445818e+01	-1.599486e+02
5.700000e-07	-1.900893e-06	-2.411471e-09	-1.427796e+01	-1.590159e+02
5.800000e-07	-1.876579e-06	-2.404869e-09	-1.409533e+01	-1.580606e+02
5.900000e-07	-1.851841e-06	-2.395029e-09	-1.390952e+01	-1.570826e+02
6.000000e-07	-1.826619e-06	-2.366204e-09	-1.372007e+01	-1.560820e+02
6.100000e-07	-1.800902e-06	-2.342842e-09	-1.352691e+01	-1.550583e+02
6.200000e-07	-1.774638e-06	-2.344430e-09	-1.332964e+01	-1.540112e+02
6.300000e-07	-1.747911e-06	-2.330974e-09	-1.312889e+01	-1.529401e+02
6.400000e-07	-1.720791e-06	-2.298210e-09	-1.292518e+01	-1.518442e+02
6.500000e-07	-1.693340e-06	-2.276696e-09	-1.271899e+01	-1.507229e+02
6.600000e-07	-1.665692e-06	-2.271812e-09	-1.251132e+01	-1.495753e+02
6.700000e-07	-1.637878e-06	-2.262755e-09	-1.230241e+01	-1.484007e+02
6.800000e-07	-1.609871e-06	-2.231403e-09	-1.209204e+01	-1.471986e+02
6.900000e-07	-1.581596e-06	-2.201086e-09	-1.187966e+01	-1.459685e+02
7.000000e-07	-1.553119e-06	-2.193705e-09	-1.166577e+01	-1.447100e+02
7.100000e-07	-1.524423e-06	-2.182362e-09	-1.145023e+01	-1.434232e+02
7.200000e-07	-1.495351e-06	-2.152416e-09	-1.123186e+01	-1.421081e+02
7.300000e-07	-1.465976e-06	-2.122674e-09	-1.101122e+01	-1.407650e+02
7.400000e-07	-1.436422e-06	-2.106685e-09	-1.078923e+01	-1.393943e+02
7.500000e-07	-1.406702e-06	-2.089797e-09	-1.056600e+01	-1.379966e+02
7.600000e-07	-1.376791e-06	-2.063875e-09	-1.034133e+01	-1.365723e+02
7.700000e-07	-1.346660e-06	-2.034378e-09	-1.011501e+01	-1.351221e+02
7.800000e-07	-1.316252e-06	-2.004622e-09	-9.886614e+00	-1.336462e+02
7.900000e-07	-1.285534e-06	-1.985960e-09	-9.655885e+00	-1.321451e+02
8.000000e-07	-1.254619e-06	-1.970495e-09	-9.423677e+00	-1.306186e+02
8.100000e-07	-1.223538e-06	-1.939818e-09	-9.190221e+00	-1.290666e+02
8.200000e-07	-1.192241e-06	-1.904052e-09	-8.955147e+00	-1.274886e+02
8.300000e-07	-1.160778e-06	-1.884100e-09	-8.718819e+00	-1.258839e+02
8.400000e-07	-1.129191e-06	-1.871682e-09	-8.481561e+00	-1.242514e+02
8.500000e-07	-1.097499e-06	-1.843043e-09	-8.243516e+00	-1.225896e+02
8.600000e-07	-1.065696e-06	-1.802831e-09	-8.004639e+00	-1.208972e+02
8.700000e-07	-1.033812e-06	-1.775058e-09	-7.765156e+00	-1.191722e+02
8.800000e-07	-1.001809e-06	-1.757463e-09	-7.524772e+00	-1.174128e+02
8.900000e-07	-9.696077e-07	-1.731691e-09	-7.282904e+00	-1.156169e+02
9.000000e-07	-9.371901e-07	-1.695371e-09	-7.039409e+00	-1.137825e+02
9.100000e-07	-9.045446e-07	-1.661113e-09	-6.794202e+00	-1.119075e+02
9.200000e-07	-8.717069e-07	-1.634541e-09	-6.547553e+00	-1.099896e+02
9.300000e-07	-8.387223e-07	-1.606212e-09	-6.299799e+00	-1.080270e+02
9.400000e-07	-8.055925e-07	-1.571279e-09	-6.050955e+00	-1.060176e+02
9.500000e-07	-7.721611e-07	-1.534809e-09	-5.799846e+00	-1.039595e+02
9.600000e-07	-7.383994e-07	-1.501091e-09	-5.546255e+00	-1.018507e+02
9.700000e-07	-7.043940e-07	-1.471954e-09	-5.290834e+00	-9.968944e+01
9.800000e-07	-6.701862e-07	-1.438186e-09	-5.033893e+00	-9.747387e+01
9.900000e-07	-6.357663e-07	-1.397741e-09	-4.775359e+00	-9.520218e+01
1.000000e-06	-6.011327e-07	-1.356464e-09	-4.515219e+00	-9.287257e+01
1.010000e-06	-5.663395e-07	-1.322863e-09	-4.253881e+00	-9.048325e+01
1.020000e-06	-5.313645e-07	-1.291415e-09	-3.991177e+00	-8.803246e+01
1.030000e-06	-4.962614e-07	-1.250106e-09	-3.727512e+00	-8.551843e+01
1.040000e-06	-4.610569e-07	-1.208000e-09	-3.463084e+00	-8.293948e+01
1.050000e-06	-4.257102e-07	-1.171776e-09	-3.197588e+00	-8.029404e+01
1.060000e-06	-3.902602e-07	-1.136915e-09	-2.931317e+00	-7.758066e+01
1.070000e-06	-3.547707e-07	-1.095962e-09	-2.664749e+00	-7.479811e+01
1.080000e-06	-3.192176e-07	-1.051193e-09	-2.397703e+00	-7.194541e+01
1.090000e-06	-2.836145e-07	-1.007124e-09	-2.130281e+00	-6.902190e+01
1.100000e-06	-2.480002e-07	-9.649522e-10	-1.862776e+00	-6.602726e+01
1.110000e-06	-2.123543e-07	-9.228813e-10	-1.595033e+00	-6.296160e+01
1.120000e-06	-1.766806e-07	-8.767871e-10	-1.327081e+00	-5.982544e+01
1.130000e-06	-1.409884e-07	-8.287500e-10	-1.058990e+00	-5.661975e+01
1.140000e-06	-1.052938e-07	-7.834298e-10	-7.908811e-01	-5.334595e+01
1.150000e-06	-6.958764e-08	-7.362674e-10	-5.226857e-01	-5.000587e+01
1.160000e-06	-3.385818e-08	-6.847750e-10	-2.543151e-01	-4.660178e+01
1.170000e-06	1.842238e-09	-6.318221e-10	1.383739e-02	-4.313629e+01
1.180000e-06	3.753515e-08	-5.793377e-10	2.819335e-01	-3.961232e+01
1.190000e-06	7.324341e-08	-5.261379e-10	5.501449e-01	-3.603309e+01
1.200000e-06	1.089207e-07	-4.721463e-10	8.181237e-01	-3.240202e+01
1.210000e-06	1.445498e-07	-4.184660e-10	1.085741e+00	-2.872274e+01
1.220000e-06	1.801658e-07	-3.651993e-10	1.353259e+00	-2.499899e+01
1.230000e-06	2.158063e-07	-3.126956e-10	1.620961e+00	-2.123468e+01
1.240000e-06	2.514481e-07	-2.584752e-10	1.888673e+00	-1.743381e+01
1.250000e-06	2.870508e-07	-2.037837e-10	2.156092e+00	-1.360055e+01
1.260000e-06	3.225887e-07	-1.478832e-10	2.423024e+00	-9.739182e+00
1.270000e-06	3.580692e-07	-9.225353e-11	2.689524e+00	-5.854192e+00
1.280000e-06	3.935149e-07	-3.450129e-11	2.955764e+00	-1.950273e+00
1.290000e-06	4.288951e-07	2.403182e-11	3.221511e+00	1.967626e+00
1.300000e-06	4.641904e-07	8.185382e-11	3.486621e+00	5.894274e+00
1.310000e-06	4.994132e-07	1.410195e-10	3.751185e+00	9.824136e+00
1.320000e-06	5.344846e-07	2.001836e-10	4.014613e+00	1.375137e+01
1.330000e-06	5.694028e-07	2.587278e-10	4.276891e+00	1.766983e+01
1.340000e-06	6.041610e-07	3.139982e-10	4.537966e+00	2.157315e+01
1.350000e-06	6.386834e-07	3.715433e-10	4.797270e+00	2.545475e+01
1.360000e-06	6.730512e-07	4.297764e-10	5.055413e+00	2.930798e+01
1.370000e-06	7.072748e-07	4.867564e-10	5.312473e+00	3.312620e+01
1.380000e-06	7.412726e-07	5.431717e-10	5.567836e+00	3.690295e+01
1.390000e-06	7.749985e-07	5.995056e-10	5.821158e+00	4.063208e+01
1.400000e-06	8.084308e-07	6.546061e-10	6.072274e+00	4.430789e+01
1.410000e-06	8.416163e-07	7.082447e-10	6.321536e+00	4.792529e+01
1.420000e-06	8.745690e-07	7.618712e-10	6.569050e+00	5.147997e+01
1.430000e-06	9.072891e-07	8.134831e-10	6.814818e+00	5.496845e+01
1.440000e-06	9.398007e-07	8.624522e-10	7.059018e+00	5.838822e+01
1.450000e-06	9.720946e-07	9.108160e-10	7.301583e+00	6.173775e+01
1.460000e-06	1.004205e-06	9.595395e-10	7.542771e+00	6.501652e+01
1.470000e-06	1.036194e-06	1.007256e-09	7.783049e+00	6.822499e+01
1.480000e-06	1.068087e-06	1.053814e-09	8.022602e+00	7.136446e+01
1.490000e-06	1.099910e-06	1.099677e-09	8.261627e+00	7.443703e+01
1.500000e-06	1.131680e-06	1.145742e-09	8.500258e+00	7.744540e+01
1.510000e-06	1.163398e-06	1.190101e-09	8.738496e+00	8.039268e+01
1.520000e-06	1.194974e-06	1.233488e-09	8.975671e+00	8.328223e+01
1.530000e-06	1.226362e-06	1.276853e-09	9.211433e+00	8.611740e+01
1.540000e-06	1.257516e-06	1.317706e-09	9.445434e+00	8.890140e+01
1.550000e-06	1.288394e-06	1.356692e-09	9.677369e+00	9.163707e+01
1.560000e-06	1.318983e-06	1.396423e-09	9.907123e+00	9.432675e+01
1.570000e-06	1.349245e-06	1.435902e-09	1.013443e+01	9.697217e+01
1.580000e-06	1.379263e-06	1.473463e-09	1.035990e+01	9.957437e+01
1.590000e-06	1.409087e-06	1.510239e-09	1.058391e+01	1.021337e+02
1.600000e-06	1.438750e-06	1.548521e-09	1.080672e+01	1.046497e+02
1.610000e-06	1.468242e-06	1.588351e-09	1.102824e+01	1.071215e+02
1.620000e-06	1.497490e-06	1.625772e-09	1.124793e+01	1.095476e+02
1.630000e-06	1.526454e-06	1.658323e-09	1.146548e+01	1.119261e+02
1.640000e-06	1.555124e-06	1.690072e-09	1.168083e+01	1.142550e+02
1.650000e-06	1.583529e-06	1.723004e-09	1.189418e+01	1.165320e+02
1.660000e-06	1.611674e-06	1.754262e-09	1.210558e+01	1.187552e+02
1.670000e-06	1.639625e-06	1.785466e-09	1.231553e+01	1.209228e+02
1.680000e-06	1.667453e-06	1.817352e-09	1.252455e+01	1.230336e+02
1.690000e-06	1.695150e-06	1.847632e-09	1.273259e+01	1.250866e+02
1.700000e-06	1.722706e-06	1.876138e-09	1.293956e+01	1.270818e+02
1.710000e-06	1.749981e-06	1.904964e-09	1.314443e+01	1.290194e+02
1.720000e-06	1.776869e-06	1.934400e-09	1.334640e+01	1.309004e+02
1.730000e-06	1.803268e-06	1.963635e-09	1.354468e+01	1.327262e+02
1.740000e-06	1.829057e-06	1.991744e-09	1.373839e+01	1.344988e+02
1.750000e-06	1.854155e-06	2.017717e-09	1.392690e+01	1.362204e+02
1.760000e-06	1.878717e-06	2.041962e-09	1.411139e+01	1.378933e+02
1.770000e-06	1.902958e-06	2.066986e-09	1.429347e+01	1.395202e+02
1.780000e-06	1.926937e-06	2.091661e-09	1.447359e+01	1.411033e+02
1.790000e-06	1.950707e-06	2.114753e-09	1.465212e+01	1.426448e+02
1.800000e-06	1.974256e-06	2.139484e-09	1.482901e+01	1.441466e+02
1.810000e-06	1.997518e-06	2.164580e-09	1.500373e+01	1.456102e+02
1.820000e-06	2.020366e-06	2.188421e-09	1.517534e+01	1.470367e+02
1.830000e-06	2.042789e-06	2.210925e-09	1.534376e+01	1.484266e+02
1.840000e-06	2.064844e-06	2.233054e-09	1.550943e+01	1.497804e+02
1.850000e-06	2.086623e-06	2.254143e-09	1.567301e+01	1.510978e+02
1.860000e-06	2.108088e-06	2.274233e-09	1.583424e+01	1.523788e+02
1.870000e-06	2.129182e-06	2.293377e-09	1.599268e+01	1.536228e+02
1.880000e-06	2.149957e-06	2.310854e-09	1.614873e+01	1.548294e+02
1.890000e-06	2.170345e-06	2.329068e-09	1.630186e+01	1.559982e+02
1.900000e-06	2.190361e-06	2.348948e-09	1.645221e+01	1.571292e+02
1.910000e-06	2.210202e-06	2.368446e-09	1.660124e+01	1.582223e+02
1.920000e-06	2.229910e-06	2.385725e-09	1.674927e+01	1.592780e+02
1.930000e-06	2.249294e-06	2.402182e-09	1.689486e+01	1.602971e+02
1.940000e-06	2.268229e-06	2.418990e-09	1.703709e+01	1.612807e+02
1.950000e-06	2.286656e-06	2.435100e-09	1.717550e+01	1.622303e+02
1.960000e-06	2.304526e-06	2.449785e-09	1.730972e+01	1.631474e+02
1.970000e-06	2.322023e-06	2.463975e-09	1.744115e+01	1.640340e+02
1.980000e-06	2.339219e-06	2.478581e-09	1.757031e+01	1.648919e+02
1.990000e-06	2.356059e-06	2.493321e-09	1.769680e+01	1.657231e+02
2.000000e-06	2.372527e-06	2.507969e-09	1.782049e+01	1.665293e+02
2.010000e-06	2.388548e-06	2.520938e-09	1.794083e+01	1.673120e+02
2.020000e-06	2.404062e-06	2.532733e-09	1.805736e+01	1.680723e+02
2.030000e-06	2.418955e-06	2.544598e-09	1.816922e+01	1.688111e+02
2.040000e-06	2.433277e-06	2.556795e-09	1.827680e+01	1.695288e+02
2.050000e-06	2.447242e-06	2.570109e-09	1.838169e+01	1.702255e+02
2.060000e-06	2.460841e-06	2.583598e-09	1.848383e+01	1.709009e+02
2.070000e-06	2.473960e-06	2.595707e-09	1.858238e+01	1.715545e+02
2.080000e-06	2.486613e-06	2.606126e-09	1.867741e+01	1.721855e+02
2.090000e-06	2.498785e-06	2.615909e-09	1.876884e+01	1.727930e+02
2.100000e-06	2.510543e-06	2.626289e-09	1.885716e+01	1.733765e+02
2.110000e-06	2.521896e-06	2.637546e-09	1.894243e+01	1.739350e+02
2.120000e-06	2.532721e-06	2.647572e-09	1.902374e+01	1.744683e+02
2.130000e-06	2.542901e-06	2.656324e-09	1.910020e+01	1.749762e+02
2.140000e-06	2.552252e-06	2.666097e-09	1.917044e+01	1.754589e+02
2.150000e-06	2.560897e-06	2.676660e-09	1.923537e+01	1.759171e+02
2.160000e-06	2.569120e-06	2.685966e-09	1.929714e+01	1.763517e+02
2.170000e-06	2.577059e-06	2.693801e-09	1.935677e+01	1.767640e+02
2.180000e-06	2.584722e-06	2.701532e-09	1.941433e+01	1.771557e+02
2.190000e-06	2.591982e-06	2.708550e-09	1.946886e+01	1.775283e+02
2.200000e-06	2.598726e-06	2.714044e-09	1.951951e+01	1.778838e+02
2.210000e-06	2.605015e-06	2.718406e-09	1.956675e+01	1.782239e+02
2.220000e-06	2.610955e-06	2.723440e-09	1.961137e+01	1.785499e+02
2.230000e-06	2.616500e-06	2.729083e-09	1.965302e+01	1.788633e+02
2.240000e-06	2.621489e-06	2.735611e-09	1.969049e+01	1.791647e+02
2.250000e-06	2.625925e-06	2.742673e-09	1.972381e+01	1.794546e+02
2.260000e-06	2.629987e-06	2.749276e-09	1.975432e+01	1.797329e+02
2.270000e-06	2.633775e-06	2.755004e-09	1.978278e+01	1.799990e+02
2.280000e-06	2.637281e-06	2.759920e-09	1.980911e+01	1.802519e+02
2.290000e-06	2.640391e-06	2.765916e-09	1.983247e+01	1.804903e+02
2.300000e-06	2.642998e-06	2.771278e-09	1.985205e+01	1.807125e+02
2.310000e-06	2.644890e-06	2.774412e-09	1.986626e+01	1.809167e+02
2.320000e-06	2.645964e-06	2.778202e-09	1.987433e+01	1.811012e+02
2.330000e-06	2.646441e-06	2.783100e-09	1.987791e+01	1.812645e+02
2.340000e-06	2.646519e-06	2.788017e-09	1.987850e+01	1.814050e+02
2.350000e-06	2.646326e-06	2.791137e-09	1.987705e+01	1.815219e+02
2.360000e-06	2.645850e-06	2.792268e-09	1.987347e+01	1.816147e+02
2.370000e-06	2.644963e-06	2.791457e-09	1.986681e+01	1.816834e+02
2.380000e-06	2.643586e-06	2.790601e-09	1.985646e+01	1.817285e+02
2.390000e-06	2.641722e-06	2.792807e-09	1.984247e+01	1.817512e+02
2.400000e-06	2.639444e-06	2.802956e-09	1.982536e+01	1.817531e+02
2.410000e-06	2.636750e-06	2.807352e-09	1.980512e+01	1.817360e+02
2.420000e-06	2.633601e-06	2.748312e-09	1.978147e+01	1.817022e+02
2.430000e-06	2.629946e-06	2.776111e-09	1.975401e+01	1.816538e+02
2.440000e-06	2.625883e-06	2.771514e-09	1.972349e+01	1.815932e+02
2.450000e-06	2.621615e-06	2.812287e-09	1.969144e+01	1.815224e+02
2.460000e-06	2.617079e-06	2.792235e-09	1.965737e+01	1.814429e+02
2.470000e-06	2.611871e-06	2.767100e-09	1.961825e+01	1.813562e+02
2.480000e-06	2.605891e-06	2.728475e-09	1.957333e+01	1.812627e+02
2.490000e-06	2.599499e-06	2.776951e-09	1.952532e+01	1.811625e+02
2.500000e-06	2.592690e-06	2.826259e-09	1.947418e+01	1.810551e+02
2.510000e-06	2.585246e-06	2.781386e-09	1.941827e+01	1.809394e+02
2.520000e-06	2.577291e-06	2.717160e-09	1.935851e+01	1.808135e+02
2.530000e-06	2.569027e-06	2.724769e-09	1.929644e+01	1.806754e+02
2.540000e-06	2.560374e-06	2.815536e-09	1.923144e+01	1.805227e+02
2.550000e-06	2.551163e-06	2.776305e-09	1.916226e+01	1.803528e+02
2.560000e-06	2.541531e-06	2.736809e-09	1.908991e+01	1.801630e+02
2.570000e-06	2.531582e-06	2.699492e-09	1.901519e+01	1.799510e+02
2.580000e-06	2.521134e-06	2.759278e-09	1.893670e+01	1.797145e+02
2.590000e-06	2.510118e-06	2.751854e-09	1.885397e+01	1.794520e+02
2.600000e-06	2.498716e-06	2.756671e-09	1.876832e+01	1.791622e+02
2.610000e-06	2.486958e-06	2.700895e-09	1.868000e+01	1.788444e+02
2.620000e-06	2.474704e-06	2.674148e-09	1.858796e+01	1.784986e+02
2.630000e-06	2.461904e-06	2.735590e-09	1.849182e+01	1.781253e+02
2.640000e-06	2.448594e-06	2.769895e-09	1.839185e+01	1.777255e+02
2.650000e-06	2.434646e-06	2.689818e-09	1.828708e+01	1.773007e+02
2.660000e-06	2.419917e-06	2.631531e-09	1.817645e+01	1.768527e+02
2.670000e-06	2.404564e-06	2.730350e-09	1.806113e+01	1.763833e+02
2.680000e-06	2.388750e-06	2.738950e-09	1.794235e+01	1.758947e+02
2.690000e-06	2.372613e-06	2.651303e-09	1.782114e+01	1.753886e+02
2.700000e-06	2.356261e-06	2.651447e-09	1.769831e+01	1.748670e+02
2.710000e-06	2.339636e-06	2.691484e-09	1.757344e+01	1.743312e+02
2.720000e-06	2.322576e-06	2.657072e-09	1.744530e+01	1.737822e+02
2.730000e-06	2.305031e-06	2.643741e-09	1.731351e+01	1.732207e+02
2.740000e-06	2.287112e-06	2.669387e-09	1.717892e+01	1.726468e+02
2.750000e-06	2.268897e-06	2.612656e-09	1.704211e+01	1.720603e+02
2.760000e-06	2.250289e-06	2.597060e-09	1.690234e+01	1.714605e+02
2.770000e-06	2.231125e-06	2.650010e-09	1.675840e+01	1.708464e+02
2.780000e-06	2.211589e-06	2.621413e-09	1.661166e+01	1.702168e+02
2.790000e-06	2.191861e-06	2.562739e-09	1.646347e+01	1.695702e+02
2.800000e-06	2.171862e-06	2.581328e-09	1.631326e+01	1.689053e+02
2.810000e-06	2.151661e-06	2.604609e-09	1.616153e+01	1.682207e+02
2.820000e-06	2.131277e-06	2.573710e-09	1.600842e+01	1.675150e+02
2.830000e-06	2.110473e-06	2.542364e-09	1.585216e+01	1.667872e+02
2.840000e-06	2.089029e-06	2.540394e-09	1.569108e+01	1.660364e+02
2.850000e-06	2.066977e-06	2.550934e-09	1.552545e+01	1.652621e+02
2.860000e-06	2.044305e-06	2.528657e-09	1.535516e+01	1.644638e+02
2.870000e-06	2.020979e-06	2.493486e-09	1.517995e+01	1.636415e+02
2.880000e-06	1.997248e-06	2.496613e-09	1.500170e+01	1.627953e+02
2.890000e-06	1.973273e-06	2.497281e-09	1.482162e+01	1.619254e+02
2.900000e-06	1.949095e-06	2.468018e-09	1.464002e+01	1.610321e+02
2.910000e-06	1.924767e-06	2.461348e-09	1.445728e+01	1.601157e+02
2.920000e-06	1.900211e-06	2.454997e-09	1.427284e+01	1.591766e+02
2.930000e-06	1.875328e-06	2.428259e-09	1.408594e+01	1.582147e+02
2.940000e-06	1.850086e-06	2.420124e-09	1.389634e+01	1.572303e+02
2.950000e-06	1.824458e-06	2.409739e-09	1.370384e+01	1.562231e+02
