# Temperatura_=_20.0
# Concentracion g/m^3_=_9000.0
# C_Vs_to_Am_M_A/Vsm_=_65563218390.804596
# pendiente_HvsI_1/m_=_3716.3
# ordenada_HvsI_A/m_=_1297.0
# frecuencia_Hz_=_213025.51990821533

Tiempo_(s)	Campo_(V.s)	Magnetizacion_(V.s)	Campo_(kA/m)	Magnetizacion_(A/m)
0.000000e+00	-2.639922e-06	-2.787138e-09	-1.982745e+01	-1.824366e+02
1.000000e-08	-2.640120e-06	-2.790584e-09	-1.982893e+01	-1.825570e+02
2.000000e-08	-2.639983e-06	-2.792625e-09	-1.982790e+01	-1.826545e+02
3.000000e-08	-2.639359e-06	-2.792712e-09	-1.982322e+01	-1.827291e+02
4.000000e-08	-2.638136e-06	-2.794665e-09	-1.981403e+01	-1.827812e+02
5.000000e-08	-2.636238e-06	-2.800469e-09	-1.979978e+01	-1.828115e+02
6.000000e-08	-2.633630e-06	-2.811066e-09	-1.978019e+01	-1.828210e+02
7.000000e-08	-2.630451e-06	-2.799096e-09	-1.975631e+01	-1.828112e+02
8.000000e-08	-2.626810e-06	-2.737340e-09	-1.972897e+01	-1.827833e+02
9.000000e-08	-2.622832e-06	-2.761838e-09	-1.969909e+01	-1.827390e+02
1.000000e-07	-2.618547e-06	-2.918928e-09	-1.966691e+01	-1.826796e+02
1.100000e-07	-2.613889e-06	-2.832243e-09	-1.963192e+01	-1.826062e+02
1.200000e-07	-2.608852e-06	-2.677622e-09	-1.959409e+01	-1.825198e+02
1.300000e-07	-2.603338e-06	-2.681600e-09	-1.955268e+01	-1.824209e+02
1.400000e-07	-2.597304e-06	-2.901827e-09	-1.950736e+01	-1.823096e+02
1.500000e-07	-2.590814e-06	-2.865814e-09	-1.945862e+01	-1.821856e+02
1.600000e-07	-2.583888e-06	-2.729643e-09	-1.940660e+01	-1.820481e+02
1.700000e-07	-2.576518e-06	-2.696790e-09	-1.935124e+01	-1.818962e+02
1.800000e-07	-2.568753e-06	-2.710100e-09	-1.929292e+01	-1.817284e+02
1.900000e-07	-2.560603e-06	-2.838717e-09	-1.923171e+01	-1.815433e+02
2.000000e-07	-2.552076e-06	-2.876230e-09	-1.916767e+01	-1.813391e+02
2.100000e-07	-2.543129e-06	-2.766710e-09	-1.910047e+01	-1.811144e+02
2.200000e-07	-2.533559e-06	-2.524431e-09	-1.902860e+01	-1.808676e+02
2.300000e-07	-2.523347e-06	-2.778958e-09	-1.895189e+01	-1.805976e+02
2.400000e-07	-2.512443e-06	-3.037798e-09	-1.887000e+01	-1.803035e+02
2.500000e-07	-2.500885e-06	-2.769317e-09	-1.878319e+01	-1.799847e+02
2.600000e-07	-2.488891e-06	-2.441127e-09	-1.869311e+01	-1.796413e+02
2.700000e-07	-2.476466e-06	-2.747345e-09	-1.859979e+01	-1.792736e+02
2.800000e-07	-2.463584e-06	-3.011878e-09	-1.850304e+01	-1.788824e+02
2.900000e-07	-2.450213e-06	-2.656331e-09	-1.840261e+01	-1.784687e+02
3.000000e-07	-2.436367e-06	-2.511531e-09	-1.829863e+01	-1.780340e+02
3.100000e-07	-2.421999e-06	-2.766638e-09	-1.819071e+01	-1.775798e+02
3.200000e-07	-2.406963e-06	-2.792538e-09	-1.807778e+01	-1.771078e+02
3.300000e-07	-2.391323e-06	-2.613779e-09	-1.796032e+01	-1.766195e+02
3.400000e-07	-2.375107e-06	-2.703195e-09	-1.783852e+01	-1.761163e+02
3.500000e-07	-2.358406e-06	-2.705110e-09	-1.771308e+01	-1.755994e+02
3.600000e-07	-2.341362e-06	-2.549616e-09	-1.758507e+01	-1.750696e+02
3.700000e-07	-2.324030e-06	-2.669937e-09	-1.745490e+01	-1.745276e+02
3.800000e-07	-2.306393e-06	-2.808651e-09	-1.732244e+01	-1.739733e+02
3.900000e-07	-2.288327e-06	-2.561712e-09	-1.718675e+01	-1.734064e+02
4.000000e-07	-2.269848e-06	-2.444123e-09	-1.704796e+01	-1.728262e+02
4.100000e-07	-2.250983e-06	-2.727305e-09	-1.690627e+01	-1.722319e+02
4.200000e-07	-2.231707e-06	-2.767288e-09	-1.676150e+01	-1.716220e+02
4.300000e-07	-2.212093e-06	-2.466660e-09	-1.661419e+01	-1.709952e+02
4.400000e-07	-2.192234e-06	-2.453979e-09	-1.646503e+01	-1.703501e+02
4.500000e-07	-2.172181e-06	-2.706764e-09	-1.631442e+01	-1.696852e+02
4.600000e-07	-2.151863e-06	-2.653807e-09	-1.616182e+01	-1.689992e+02
4.700000e-07	-2.131156e-06	-2.431935e-09	-1.600630e+01	-1.682910e+02
4.800000e-07	-2.110103e-06	-2.489305e-09	-1.584817e+01	-1.675597e+02
4.900000e-07	-2.088679e-06	-2.614101e-09	-1.568727e+01	-1.668047e+02
5.000000e-07	-2.066858e-06	-2.520038e-09	-1.552338e+01	-1.660258e+02
5.100000e-07	-2.044663e-06	-2.450607e-09	-1.535668e+01	-1.652229e+02
5.200000e-07	-2.022083e-06	-2.507425e-09	-1.518709e+01	-1.643964e+02
5.300000e-07	-1.999129e-06	-2.476159e-09	-1.501470e+01	-1.635468e+02
5.400000e-07	-1.975833e-06	-2.426066e-09	-1.483973e+01	-1.626745e+02
5.500000e-07	-1.952289e-06	-2.489307e-09	-1.466289e+01	-1.617804e+02
5.600000e-07	-1.928543e-06	-2.465067e-09	-1.448455e+01	-1.608651e+02
5.700000e-07	-1.904594e-06	-2.348254e-09	-1.430468e+01	-1.599291e+02
5.800000e-07	-1.880354e-06	-2.380288e-09	-1.412262e+01	-1.589730e+02
5.900000e-07	-1.855730e-06	-2.461045e-09	-1.393768e+01	-1.579968e+02
6.000000e-07	-1.830616e-06	-2.382394e-09	-1.374906e+01	-1.570007e+02
6.100000e-07	-1.804953e-06	-2.278771e-09	-1.355631e+01	-1.559843e+02
6.200000e-07	-1.778740e-06	-2.326477e-09	-1.335944e+01	-1.549471e+02
6.300000e-07	-1.752024e-06	-2.384747e-09	-1.315878e+01	-1.538884e+02
6.400000e-07	-1.724896e-06	-2.313113e-09	-1.295503e+01	-1.528071e+02
6.500000e-07	-1.697446e-06	-2.238159e-09	-1.274887e+01	-1.517023e+02
6.600000e-07	-1.669815e-06	-2.266724e-09	-1.254134e+01	-1.505728e+02
6.700000e-07	-1.642035e-06	-2.291520e-09	-1.233270e+01	-1.494175e+02
6.800000e-07	-1.614073e-06	-2.236006e-09	-1.212268e+01	-1.482355e+02
6.900000e-07	-1.585957e-06	-2.194034e-09	-1.191152e+01	-1.470257e+02
7.000000e-07	-1.557586e-06	-2.195935e-09	-1.169843e+01	-1.457876e+02
7.100000e-07	-1.528811e-06	-2.172456e-09	-1.148232e+01	-1.445205e+02
7.200000e-07	-1.499750e-06	-2.150964e-09	-1.126405e+01	-1.432244e+02
7.300000e-07	-1.470477e-06	-2.149310e-09	-1.104419e+01	-1.418993e+02
7.400000e-07	-1.440947e-06	-2.108967e-09	-1.082240e+01	-1.405452e+02
7.500000e-07	-1.411170e-06	-2.061164e-09	-1.059876e+01	-1.391628e+02
7.600000e-07	-1.381221e-06	-2.072116e-09	-1.037383e+01	-1.377523e+02
7.700000e-07	-1.351066e-06	-2.075605e-09	-1.014734e+01	-1.363145e+02
7.800000e-07	-1.320671e-06	-2.009286e-09	-9.919054e+00	-1.348499e+02
7.900000e-07	-1.290069e-06	-1.964595e-09	-9.689212e+00	-1.333589e+02
8.000000e-07	-1.259224e-06	-1.983815e-09	-9.457551e+00	-1.318418e+02
8.100000e-07	-1.228183e-06	-1.974382e-09	-9.224417e+00	-1.302987e+02
8.200000e-07	-1.197007e-06	-1.914635e-09	-8.990265e+00	-1.287294e+02
8.300000e-07	-1.165631e-06	-1.879810e-09	-8.754609e+00	-1.271332e+02
8.400000e-07	-1.134087e-06	-1.881014e-09	-8.517698e+00	-1.255095e+02
8.500000e-07	-1.102440e-06	-1.862867e-09	-8.280006e+00	-1.238568e+02
8.600000e-07	-1.070645e-06	-1.817725e-09	-8.041209e+00	-1.221738e+02
8.700000e-07	-1.038714e-06	-1.783046e-09	-7.801381e+00	-1.204585e+02
8.800000e-07	-1.006661e-06	-1.763494e-09	-7.560650e+00	-1.187090e+02
8.900000e-07	-9.744781e-07	-1.740711e-09	-7.318933e+00	-1.169228e+02
9.000000e-07	-9.421400e-07	-1.712720e-09	-7.076054e+00	-1.150976e+02
9.100000e-07	-9.095675e-07	-1.681335e-09	-6.831414e+00	-1.132308e+02
9.200000e-07	-8.767758e-07	-1.645064e-09	-6.585128e+00	-1.113199e+02
9.300000e-07	-8.438239e-07	-1.613606e-09	-6.337639e+00	-1.093625e+02
9.400000e-07	-8.106271e-07	-1.593191e-09	-6.088311e+00	-1.073560e+02
9.500000e-07	-7.771207e-07	-1.561660e-09	-5.836657e+00	-1.052981e+02
9.600000e-07	-7.433058e-07	-1.513368e-09	-5.582686e+00	-1.031868e+02
9.700000e-07	-7.092905e-07	-1.479818e-09	-5.327210e+00	-1.010198e+02
9.800000e-07	-6.751634e-07	-1.459325e-09	-5.070894e+00	-9.879554e+01
9.900000e-07	-6.407648e-07	-1.423600e-09	-4.812540e+00	-9.651218e+01
1.000000e-06	-6.060814e-07	-1.374550e-09	-4.552046e+00	-9.416825e+01
1.010000e-06	-5.712935e-07	-1.340917e-09	-4.290768e+00	-9.176242e+01
1.020000e-06	-5.363665e-07	-1.317685e-09	-4.028444e+00	-8.929345e+01
1.030000e-06	-5.012582e-07	-1.276973e-09	-3.764759e+00	-8.676029e+01
1.040000e-06	-4.660421e-07	-1.228437e-09	-3.500264e+00	-8.416196e+01
1.050000e-06	-4.307296e-07	-1.189426e-09	-3.235045e+00	-8.149763e+01
1.060000e-06	-3.953126e-07	-1.153843e-09	-2.969042e+00	-7.876656e+01
1.070000e-06	-3.598390e-07	-1.111663e-09	-2.702613e+00	-7.596817e+01
1.080000e-06	-3.243214e-07	-1.065917e-09	-2.435854e+00	-7.310197e+01
1.090000e-06	-2.887546e-07	-1.021563e-09	-2.168726e+00	-7.016763e+01
1.100000e-06	-2.531448e-07	-9.771192e-10	-1.901274e+00	-6.716500e+01
1.110000e-06	-2.175102e-07	-9.345311e-10	-1.633636e+00	-6.409411e+01
1.120000e-06	-1.818848e-07	-8.920766e-10	-1.366068e+00	-6.095519e+01
1.130000e-06	-1.462531e-07	-8.426157e-10	-1.098451e+00	-5.774873e+01
1.140000e-06	-1.106052e-07	-7.920663e-10	-8.307132e-01	-5.447547e+01
1.150000e-06	-7.495966e-08	-7.466005e-10	-5.629934e-01	-5.113647e+01
1.160000e-06	-3.929460e-08	-6.988518e-10	-2.951267e-01	-4.773305e+01
1.170000e-06	-3.611437e-09	-6.425940e-10	-2.712412e-02	-4.426691e+01
1.180000e-06	3.206264e-08	-5.869320e-10	2.408102e-01	-4.074005e+01
1.190000e-06	6.773576e-08	-5.369571e-10	5.087374e-01	-3.715487e+01
1.200000e-06	1.034037e-07	-4.851284e-10	7.766260e-01	-3.351411e+01
1.210000e-06	1.390477e-07	-4.281847e-10	1.044334e+00	-2.982091e+01
1.220000e-06	1.746725e-07	-3.723065e-10	1.311898e+00	-2.607880e+01
1.230000e-06	2.102583e-07	-3.199631e-10	1.579169e+00	-2.229169e+01
1.240000e-06	2.458146e-07	-2.645619e-10	1.846219e+00	-1.846388e+01
1.250000e-06	2.813794e-07	-2.059050e-10	2.113333e+00	-1.460007e+01
1.260000e-06	3.169135e-07	-1.476390e-10	2.380216e+00	-1.070535e+01
1.270000e-06	3.523862e-07	-9.157716e-11	2.646638e+00	-6.785165e+00
1.280000e-06	3.877992e-07	-3.416585e-11	2.912612e+00	-2.845305e+00
1.290000e-06	4.231739e-07	2.351696e-11	3.178297e+00	1.108122e+00
1.300000e-06	4.585013e-07	8.026457e-11	3.443628e+00	5.068738e+00
1.310000e-06	4.936851e-07	1.404860e-10	3.707880e+00	9.029957e+00
1.320000e-06	5.287244e-07	1.997479e-10	3.971047e+00	1.298504e+01
1.330000e-06	5.636749e-07	2.561963e-10	4.233547e+00	1.692720e+01
1.340000e-06	5.984610e-07	3.132263e-10	4.494812e+00	2.084966e+01
1.350000e-06	6.330952e-07	3.750191e-10	4.754936e+00	2.474580e+01
1.360000e-06	6.675730e-07	4.338232e-10	5.013886e+00	2.860921e+01
1.370000e-06	7.018253e-07	4.881073e-10	5.271142e+00	3.243387e+01
1.380000e-06	7.358825e-07	5.465803e-10	5.526933e+00	3.621418e+01
1.390000e-06	7.696844e-07	6.064369e-10	5.780806e+00	3.994514e+01
1.400000e-06	8.032024e-07	6.604219e-10	6.032547e+00	4.362240e+01
1.410000e-06	8.364796e-07	7.101690e-10	6.282479e+00	4.724234e+01
1.420000e-06	8.696122e-07	7.620993e-10	6.531325e+00	5.080211e+01
1.430000e-06	9.025439e-07	8.146910e-10	6.778663e+00	5.429971e+01
1.440000e-06	9.351481e-07	8.649494e-10	7.023540e+00	5.773392e+01
1.450000e-06	9.675099e-07	9.149065e-10	7.266598e+00	6.110431e+01
1.460000e-06	9.997050e-07	9.632204e-10	7.508403e+00	6.441119e+01
1.470000e-06	1.031759e-06	1.010567e-09	7.749151e+00	6.765548e+01
1.480000e-06	1.063685e-06	1.059832e-09	7.988931e+00	7.083865e+01
1.490000e-06	1.095509e-06	1.107400e-09	8.227950e+00	7.396256e+01
1.500000e-06	1.127254e-06	1.151379e-09	8.466377e+00	7.702932e+01
1.510000e-06	1.158922e-06	1.193610e-09	8.704224e+00	8.004117e+01
1.520000e-06	1.190493e-06	1.238923e-09	8.941336e+00	8.300030e+01
1.530000e-06	1.221868e-06	1.284857e-09	9.176982e+00	8.590872e+01
1.540000e-06	1.253014e-06	1.327039e-09	9.410908e+00	8.876819e+01
1.550000e-06	1.283906e-06	1.366456e-09	9.642926e+00	9.158005e+01
1.560000e-06	1.314503e-06	1.407021e-09	9.872734e+00	9.434522e+01
1.570000e-06	1.344834e-06	1.449525e-09	1.010054e+01	9.706414e+01
1.580000e-06	1.374903e-06	1.489257e-09	1.032637e+01	9.973675e+01
1.590000e-06	1.404797e-06	1.526157e-09	1.055089e+01	1.023625e+02
1.600000e-06	1.434503e-06	1.564396e-09	1.077401e+01	1.049406e+02
1.610000e-06	1.464026e-06	1.604827e-09	1.099574e+01	1.074698e+02
1.620000e-06	1.493351e-06	1.644147e-09	1.121599e+01	1.099487e+02
1.630000e-06	1.522369e-06	1.678693e-09	1.143393e+01	1.123758e+02
1.640000e-06	1.551091e-06	1.710389e-09	1.164965e+01	1.147496e+02
1.650000e-06	1.579518e-06	1.743549e-09	1.186316e+01	1.170688e+02
1.660000e-06	1.607679e-06	1.777019e-09	1.207466e+01	1.193324e+02
1.670000e-06	1.635651e-06	1.809629e-09	1.228475e+01	1.215395e+02
1.680000e-06	1.663488e-06	1.839397e-09	1.249382e+01	1.236897e+02
1.690000e-06	1.691174e-06	1.866636e-09	1.270176e+01	1.257831e+02
1.700000e-06	1.718678e-06	1.896125e-09	1.290833e+01	1.278202e+02
1.710000e-06	1.745952e-06	1.928112e-09	1.311318e+01	1.298016e+02
1.720000e-06	1.772829e-06	1.958433e-09	1.331504e+01	1.317287e+02
1.730000e-06	1.799258e-06	1.985540e-09	1.351354e+01	1.336028e+02
1.740000e-06	1.825210e-06	2.012319e-09	1.370845e+01	1.354254e+02
1.750000e-06	1.850574e-06	2.040281e-09	1.389896e+01	1.371981e+02
1.760000e-06	1.875383e-06	2.067127e-09	1.408529e+01	1.389227e+02
1.770000e-06	1.899758e-06	2.092610e-09	1.426836e+01	1.406006e+02
1.780000e-06	1.923806e-06	2.117080e-09	1.444897e+01	1.422331e+02
1.790000e-06	1.947586e-06	2.140011e-09	1.462758e+01	1.438212e+02
1.800000e-06	1.971126e-06	2.164211e-09	1.480438e+01	1.453658e+02
1.810000e-06	1.994364e-06	2.188969e-09	1.497891e+01	1.468672e+02
1.820000e-06	2.017252e-06	2.211839e-09	1.515081e+01	1.483258e+02
1.830000e-06	2.039794e-06	2.233932e-09	1.532011e+01	1.497415e+02
1.840000e-06	2.061961e-06	2.256567e-09	1.548660e+01	1.511142e+02
1.850000e-06	2.083783e-06	2.277837e-09	1.565050e+01	1.524437e+02
1.860000e-06	2.105287e-06	2.298116e-09	1.581201e+01	1.537297e+02
1.870000e-06	2.126457e-06	2.317593e-09	1.597101e+01	1.549723e+02
1.880000e-06	2.147285e-06	2.335065e-09	1.612744e+01	1.561714e+02
1.890000e-06	2.167743e-06	2.352575e-09	1.628109e+01	1.573276e+02
1.900000e-06	2.187801e-06	2.371551e-09	1.643174e+01	1.584416e+02
1.910000e-06	2.207606e-06	2.390650e-09	1.658049e+01	1.595145e+02
1.920000e-06	2.227229e-06	2.407979e-09	1.672787e+01	1.605478e+02
1.930000e-06	2.246507e-06	2.424064e-09	1.687266e+01	1.615434e+02
1.940000e-06	2.265424e-06	2.439391e-09	1.701473e+01	1.625032e+02
1.950000e-06	2.283905e-06	2.454527e-09	1.715354e+01	1.634298e+02
1.960000e-06	2.301927e-06	2.469348e-09	1.728889e+01	1.643254e+02
1.970000e-06	2.319553e-06	2.482671e-09	1.742127e+01	1.651927e+02
1.980000e-06	2.336749e-06	2.494882e-09	1.755043e+01	1.660339e+02
1.990000e-06	2.353581e-06	2.507635e-09	1.767685e+01	1.668513e+02
2.000000e-06	2.370062e-06	2.522576e-09	1.780063e+01	1.676466e+02
2.010000e-06	2.386110e-06	2.535692e-09	1.792116e+01	1.684214e+02
2.020000e-06	2.401722e-06	2.546403e-09	1.803842e+01	1.691766e+02
2.030000e-06	2.416840e-06	2.557658e-09	1.815196e+01	1.699129e+02
2.040000e-06	2.431385e-06	2.568572e-09	1.826121e+01	1.706303e+02
2.050000e-06	2.445401e-06	2.580796e-09	1.836648e+01	1.713285e+02
2.060000e-06	2.458950e-06	2.593236e-09	1.846824e+01	1.720070e+02
2.070000e-06	2.472030e-06	2.603344e-09	1.856647e+01	1.726646e+02
2.080000e-06	2.484676e-06	2.612370e-09	1.866145e+01	1.733005e+02
2.090000e-06	2.496919e-06	2.622718e-09	1.875340e+01	1.739134e+02
2.100000e-06	2.508749e-06	2.634637e-09	1.884226e+01	1.745023e+02
2.110000e-06	2.520166e-06	2.645884e-09	1.892801e+01	1.750663e+02
2.120000e-06	2.531109e-06	2.654395e-09	1.901019e+01	1.756048e+02
2.130000e-06	2.541435e-06	2.662295e-09	1.908775e+01	1.761176e+02
2.140000e-06	2.551020e-06	2.671629e-09	1.915974e+01	1.766050e+02
2.150000e-06	2.559867e-06	2.680344e-09	1.922618e+01	1.770673e+02
2.160000e-06	2.568158e-06	2.687608e-09	1.928845e+01	1.775057e+02
2.170000e-06	2.576134e-06	2.694075e-09	1.934836e+01	1.779215e+02
2.180000e-06	2.583844e-06	2.701558e-09	1.940626e+01	1.783163e+02
2.190000e-06	2.591156e-06	2.708762e-09	1.946118e+01	1.786919e+02
2.200000e-06	2.598003e-06	2.714425e-09	1.951261e+01	1.790501e+02
2.210000e-06	2.604392e-06	2.719666e-09	1.956059e+01	1.793928e+02
2.220000e-06	2.610327e-06	2.725061e-09	1.960517e+01	1.797216e+02
2.230000e-06	2.615806e-06	2.730623e-09	1.964632e+01	1.800378e+02
2.240000e-06	2.620798e-06	2.736679e-09	1.968381e+01	1.803425e+02
2.250000e-06	2.625375e-06	2.743329e-09	1.971819e+01	1.806363e+02
2.260000e-06	2.629606e-06	2.748904e-09	1.974997e+01	1.809193e+02
2.270000e-06	2.633507e-06	2.752360e-09	1.977927e+01	1.811912e+02
2.280000e-06	2.637079e-06	2.756961e-09	1.980609e+01	1.814512e+02
2.290000e-06	2.640198e-06	2.763506e-09	1.982952e+01	1.816982e+02
2.300000e-06	2.642764e-06	2.767357e-09	1.984879e+01	1.819308e+02
2.310000e-06	2.644711e-06	2.769848e-09	1.986342e+01	1.821475e+02
2.320000e-06	2.645972e-06	2.773667e-09	1.987289e+01	1.823465e+02
2.330000e-06	2.646606e-06	2.777028e-09	1.987764e+01	1.825263e+02
2.340000e-06	2.646720e-06	2.782028e-09	1.987850e+01	1.826856e+02
2.350000e-06	2.646463e-06	2.784971e-09	1.987658e+01	1.828231e+02
2.360000e-06	2.645894e-06	2.783870e-09	1.987230e+01	1.829380e+02
2.370000e-06	2.644966e-06	2.785143e-09	1.986533e+01	1.830301e+02
2.380000e-06	2.643594e-06	2.787344e-09	1.985502e+01	1.830994e+02
2.390000e-06	2.641737e-06	2.786009e-09	1.984108e+01	1.831462e+02
2.400000e-06	2.639504e-06	2.772113e-09	1.982430e+01	1.831715e+02
2.410000e-06	2.636861e-06	2.775210e-09	1.980446e+01	1.831763e+02
2.420000e-06	2.633712e-06	2.834492e-09	1.978080e+01	1.831621e+02
2.430000e-06	2.630141e-06	2.841173e-09	1.975399e+01	1.831303e+02
2.440000e-06	2.626256e-06	2.674996e-09	1.972481e+01	1.830824e+02
2.450000e-06	2.622086e-06	2.748765e-09	1.969349e+01	1.830197e+02
2.460000e-06	2.617545e-06	2.879456e-09	1.965938e+01	1.829433e+02
2.470000e-06	2.612480e-06	2.857837e-09	1.962134e+01	1.828540e+02
2.480000e-06	2.606852e-06	2.711697e-09	1.957907e+01	1.827523e+02
2.490000e-06	2.600568e-06	2.725748e-09	1.953188e+01	1.826381e+02
2.500000e-06	2.593636e-06	2.795863e-09	1.947981e+01	1.825111e+02
2.510000e-06	2.586284e-06	2.821889e-09	1.942459e+01	1.823705e+02
2.520000e-06	2.578531e-06	2.849085e-09	1.936636e+01	1.822150e+02
2.530000e-06	2.570290e-06	2.738979e-09	1.930446e+01	1.820433e+02
2.540000e-06	2.561607e-06	2.647421e-09	1.923925e+01	1.818539e+02
2.550000e-06	2.552542e-06	2.764527e-09	1.917117e+01	1.816450e+02
2.560000e-06	2.543069e-06	2.989410e-09	1.910002e+01	1.814152e+02
2.570000e-06	2.533053e-06	2.737949e-09	1.902479e+01	1.811630e+02
2.580000e-06	2.522538e-06	2.498834e-09	1.894582e+01	1.808873e+02
2.590000e-06	2.511659e-06	2.777900e-09	1.886411e+01	1.805874e+02
2.600000e-06	2.500329e-06	3.031941e-09	1.877901e+01	1.802627e+02
2.610000e-06	2.488509e-06	2.659596e-09	1.869024e+01	1.799135e+02
2.620000e-06	2.476337e-06	2.477021e-09	1.859882e+01	1.795401e+02
2.630000e-06	2.463785e-06	2.873033e-09	1.850455e+01	1.791434e+02
2.640000e-06	2.450613e-06	2.907283e-09	1.840562e+01	1.787247e+02
2.650000e-06	2.436749e-06	2.556986e-09	1.830149e+01	1.782853e+02
2.660000e-06	2.422198e-06	2.648263e-09	1.819220e+01	1.778268e+02
2.670000e-06	2.406912e-06	2.881602e-09	1.807740e+01	1.773508e+02
2.680000e-06	2.391082e-06	2.642533e-09	1.795851e+01	1.768589e+02
2.690000e-06	2.374952e-06	2.577931e-09	1.783736e+01	1.763525e+02
2.700000e-06	2.358573e-06	2.852504e-09	1.771434e+01	1.758326e+02
2.710000e-06	2.341853e-06	2.710435e-09	1.758876e+01	1.753001e+02
2.720000e-06	2.324735e-06	2.474048e-09	1.746020e+01	1.747552e+02
2.730000e-06	2.307251e-06	2.737623e-09	1.732888e+01	1.741981e+02
2.740000e-06	2.289380e-06	2.857576e-09	1.719466e+01	1.736283e+02
2.750000e-06	2.271078e-06	2.517691e-09	1.705720e+01	1.730450e+02
2.760000e-06	2.252381e-06	2.497117e-09	1.691677e+01	1.724471e+02
2.770000e-06	2.233333e-06	2.791524e-09	1.677371e+01	1.718335e+02
2.780000e-06	2.213864e-06	2.711330e-09	1.662749e+01	1.712026e+02
2.790000e-06	2.194039e-06	2.468703e-09	1.647859e+01	1.705529e+02
2.800000e-06	2.174026e-06	2.557373e-09	1.632828e+01	1.698832e+02
2.810000e-06	2.153825e-06	2.721866e-09	1.617656e+01	1.691920e+02
2.820000e-06	2.133385e-06	2.609459e-09	1.602304e+01	1.684784e+02
2.830000e-06	2.112613e-06	2.475236e-09	1.586703e+01	1.677415e+02
2.840000e-06	2.091357e-06	2.575280e-09	1.570738e+01	1.669808e+02
2.850000e-06	2.069490e-06	2.635055e-09	1.554315e+01	1.661962e+02
2.860000e-06	2.047013e-06	2.504105e-09	1.537434e+01	1.653877e+02
2.870000e-06	2.023960e-06	2.489394e-09	1.520119e+01	1.645556e+02
2.880000e-06	2.000401e-06	2.574733e-09	1.502425e+01	1.637005e+02
2.890000e-06	1.976503e-06	2.497686e-09	1.484476e+01	1.628230e+02
2.900000e-06	1.952369e-06	2.436675e-09	1.466350e+01	1.619239e+02
2.910000e-06	1.928055e-06	2.527287e-09	1.448088e+01	1.610036e+02
2.920000e-06	1.903550e-06	2.506198e-09	1.429684e+01	1.600629e+02
2.930000e-06	1.878740e-06	2.388714e-09	1.411050e+01	1.591020e+02
2.940000e-06	1.853577e-06	2.418954e-09	1.392151e+01	1.581212e+02
