# Temperatura_=_20.0
# Concentracion g/m^3_=_9000.0
# C_Vs_to_Am_M_A/Vsm_=_65563218390.804596
# pendiente_HvsI_1/m_=_3716.3
# ordenada_HvsI_A/m_=_1297.0
# frecuencia_Hz_=_213026.59008162085

Tiempo_(s)	Campo_(V.s)	Magnetizacion_(V.s)	Campo_(kA/m)	Magnetizacion_(A/m)
0.000000e+00	-2.639041e-06	-2.764223e-09	-1.982186e+01	-1.813949e+02
1.000000e-08	-2.639213e-06	-2.764592e-09	-1.982315e+01	-1.814888e+02
2.000000e-08	-2.639062e-06	-2.764200e-09	-1.982202e+01	-1.815591e+02
3.000000e-08	-2.638474e-06	-2.763827e-09	-1.981760e+01	-1.816064e+02
4.000000e-08	-2.637262e-06	-2.766184e-09	-1.980850e+01	-1.816318e+02
5.000000e-08	-2.635367e-06	-2.768157e-09	-1.979426e+01	-1.816368e+02
6.000000e-08	-2.632787e-06	-2.763100e-09	-1.977489e+01	-1.816233e+02
7.000000e-08	-2.629602e-06	-2.732866e-09	-1.975096e+01	-1.815934e+02
8.000000e-08	-2.626009e-06	-2.733695e-09	-1.972398e+01	-1.815493e+02
9.000000e-08	-2.622082e-06	-2.837077e-09	-1.969448e+01	-1.814931e+02
1.000000e-07	-2.617848e-06	-2.851981e-09	-1.966268e+01	-1.814267e+02
1.100000e-07	-2.613282e-06	-2.669882e-09	-1.962838e+01	-1.813517e+02
1.200000e-07	-2.608214e-06	-2.628126e-09	-1.959032e+01	-1.812691e+02
1.300000e-07	-2.602615e-06	-2.803281e-09	-1.954827e+01	-1.811792e+02
1.400000e-07	-2.596608e-06	-2.886596e-09	-1.950315e+01	-1.810820e+02
1.500000e-07	-2.590219e-06	-2.750183e-09	-1.945516e+01	-1.809766e+02
1.600000e-07	-2.583267e-06	-2.622145e-09	-1.940294e+01	-1.808614e+02
1.700000e-07	-2.575799e-06	-2.678126e-09	-1.934685e+01	-1.807345e+02
1.800000e-07	-2.568073e-06	-2.770826e-09	-1.928882e+01	-1.805935e+02
1.900000e-07	-2.560069e-06	-2.873410e-09	-1.922870e+01	-1.804356e+02
2.000000e-07	-2.551584e-06	-2.755596e-09	-1.916497e+01	-1.802580e+02
2.100000e-07	-2.542522e-06	-2.557006e-09	-1.909690e+01	-1.800580e+02
2.200000e-07	-2.533035e-06	-2.647885e-09	-1.902565e+01	-1.798328e+02
2.300000e-07	-2.522877e-06	-2.964792e-09	-1.894935e+01	-1.795805e+02
2.400000e-07	-2.511791e-06	-2.906742e-09	-1.886608e+01	-1.792993e+02
2.500000e-07	-2.500140e-06	-2.482657e-09	-1.877857e+01	-1.789882e+02
2.600000e-07	-2.488210e-06	-2.571087e-09	-1.868897e+01	-1.786469e+02
2.700000e-07	-2.475851e-06	-2.935234e-09	-1.859614e+01	-1.782758e+02
2.800000e-07	-2.462893e-06	-2.842173e-09	-1.849881e+01	-1.778759e+02
2.900000e-07	-2.449468e-06	-2.495302e-09	-1.839797e+01	-1.774488e+02
3.000000e-07	-2.435634e-06	-2.595878e-09	-1.829406e+01	-1.769967e+02
3.100000e-07	-2.421225e-06	-2.799082e-09	-1.818584e+01	-1.765222e+02
3.200000e-07	-2.406222e-06	-2.697244e-09	-1.807315e+01	-1.760279e+02
3.300000e-07	-2.390599e-06	-2.643407e-09	-1.795581e+01	-1.755165e+02
3.400000e-07	-2.374330e-06	-2.662589e-09	-1.783361e+01	-1.749907e+02
3.500000e-07	-2.357591e-06	-2.577649e-09	-1.770789e+01	-1.744529e+02
3.600000e-07	-2.340572e-06	-2.607163e-09	-1.758006e+01	-1.739049e+02
3.700000e-07	-2.323220e-06	-2.780140e-09	-1.744973e+01	-1.733481e+02
3.800000e-07	-2.305502e-06	-2.650697e-09	-1.731664e+01	-1.727834e+02
3.900000e-07	-2.287481e-06	-2.422506e-09	-1.718129e+01	-1.722109e+02
4.000000e-07	-2.269081e-06	-2.590630e-09	-1.704309e+01	-1.716302e+02
4.100000e-07	-2.250187e-06	-2.797596e-09	-1.690117e+01	-1.710404e+02
4.200000e-07	-2.230813e-06	-2.585667e-09	-1.675565e+01	-1.704400e+02
4.300000e-07	-2.211163e-06	-2.394019e-09	-1.660807e+01	-1.698273e+02
4.400000e-07	-2.191348e-06	-2.583688e-09	-1.645924e+01	-1.692003e+02
4.500000e-07	-2.171306e-06	-2.707155e-09	-1.630870e+01	-1.685569e+02
4.600000e-07	-2.150970e-06	-2.527292e-09	-1.615596e+01	-1.678949e+02
4.700000e-07	-2.130307e-06	-2.436325e-09	-1.600075e+01	-1.672124e+02
4.800000e-07	-2.109245e-06	-2.551065e-09	-1.584256e+01	-1.665078e+02
4.900000e-07	-2.087751e-06	-2.565373e-09	-1.568111e+01	-1.657797e+02
5.000000e-07	-2.065906e-06	-2.484038e-09	-1.551704e+01	-1.650270e+02
5.100000e-07	-2.043742e-06	-2.487462e-09	-1.535056e+01	-1.642492e+02
5.200000e-07	-2.021167e-06	-2.478408e-09	-1.518101e+01	-1.634460e+02
5.300000e-07	-1.998195e-06	-2.429039e-09	-1.500846e+01	-1.626176e+02
5.400000e-07	-1.974963e-06	-2.469994e-09	-1.483396e+01	-1.617642e+02
5.500000e-07	-1.951476e-06	-2.493430e-09	-1.465755e+01	-1.608864e+02
5.600000e-07	-1.927732e-06	-2.386476e-09	-1.447921e+01	-1.599849e+02
5.700000e-07	-1.903802e-06	-2.342886e-09	-1.429947e+01	-1.590603e+02
5.800000e-07	-1.879595e-06	-2.437937e-09	-1.411766e+01	-1.581131e+02
5.900000e-07	-1.854911e-06	-2.434229e-09	-1.393225e+01	-1.571438e+02
6.000000e-07	-1.829689e-06	-2.315160e-09	-1.374281e+01	-1.561526e+02
6.100000e-07	-1.803975e-06	-2.295193e-09	-1.354967e+01	-1.551394e+02
6.200000e-07	-1.777699e-06	-2.365380e-09	-1.335231e+01	-1.541041e+02
6.300000e-07	-1.750934e-06	-2.352472e-09	-1.315128e+01	-1.530462e+02
6.400000e-07	-1.723785e-06	-2.264428e-09	-1.294737e+01	-1.519650e+02
6.500000e-07	-1.696319e-06	-2.247646e-09	-1.274107e+01	-1.508597e+02
6.600000e-07	-1.668691e-06	-2.282454e-09	-1.253355e+01	-1.497295e+02
6.700000e-07	-1.640921e-06	-2.263302e-09	-1.232497e+01	-1.485735e+02
6.800000e-07	-1.612952e-06	-2.214349e-09	-1.211489e+01	-1.473909e+02
6.900000e-07	-1.584750e-06	-2.196784e-09	-1.190307e+01	-1.461812e+02
7.000000e-07	-1.556236e-06	-2.185468e-09	-1.168890e+01	-1.449437e+02
7.100000e-07	-1.527442e-06	-2.164582e-09	-1.147263e+01	-1.436782e+02
7.200000e-07	-1.498440e-06	-2.158674e-09	-1.125480e+01	-1.423846e+02
7.300000e-07	-1.469159e-06	-2.133576e-09	-1.103486e+01	-1.410630e+02
7.400000e-07	-1.439629e-06	-2.081293e-09	-1.081306e+01	-1.397138e+02
7.500000e-07	-1.409922e-06	-2.072173e-09	-1.058993e+01	-1.383373e+02
7.600000e-07	-1.380019e-06	-2.086355e-09	-1.036533e+01	-1.369341e+02
7.700000e-07	-1.349875e-06	-2.041787e-09	-1.013892e+01	-1.355045e+02
7.800000e-07	-1.319468e-06	-1.979227e-09	-9.910535e+00	-1.340489e+02
7.900000e-07	-1.288825e-06	-1.979822e-09	-9.680373e+00	-1.325676e+02
8.000000e-07	-1.257959e-06	-1.992560e-09	-9.448541e+00	-1.310604e+02
8.100000e-07	-1.226908e-06	-1.945417e-09	-9.215318e+00	-1.295270e+02
8.200000e-07	-1.195709e-06	-1.891082e-09	-8.980979e+00	-1.279668e+02
8.300000e-07	-1.164322e-06	-1.882919e-09	-8.745234e+00	-1.263788e+02
8.400000e-07	-1.132791e-06	-1.880125e-09	-8.508400e+00	-1.247616e+02
8.500000e-07	-1.101172e-06	-1.846814e-09	-8.270916e+00	-1.231137e+02
8.600000e-07	-1.069437e-06	-1.803442e-09	-8.032551e+00	-1.214330e+02
8.700000e-07	-1.037556e-06	-1.775373e-09	-7.793095e+00	-1.197175e+02
8.800000e-07	-1.005549e-06	-1.758201e-09	-7.552686e+00	-1.179649e+02
8.900000e-07	-9.733837e-07	-1.736385e-09	-7.311093e+00	-1.161728e+02
9.000000e-07	-9.409733e-07	-1.703981e-09	-7.067658e+00	-1.143391e+02
9.100000e-07	-9.082723e-07	-1.662703e-09	-6.822041e+00	-1.124613e+02
9.200000e-07	-8.753448e-07	-1.629143e-09	-6.574722e+00	-1.105375e+02
9.300000e-07	-8.422895e-07	-1.612160e-09	-6.326444e+00	-1.085655e+02
9.400000e-07	-8.090799e-07	-1.587727e-09	-6.077006e+00	-1.065436e+02
9.500000e-07	-7.756273e-07	-1.540848e-09	-5.825743e+00	-1.044702e+02
9.600000e-07	-7.419198e-07	-1.499342e-09	-5.572566e+00	-1.023440e+02
9.700000e-07	-7.079143e-07	-1.480856e-09	-5.317151e+00	-1.001636e+02
9.800000e-07	-6.736527e-07	-1.455649e-09	-5.059811e+00	-9.792787e+01
9.900000e-07	-6.392242e-07	-1.406852e-09	-4.801218e+00	-9.563590e+01
1.000000e-06	-6.046429e-07	-1.360793e-09	-4.541478e+00	-9.328664e+01
1.010000e-06	-5.699111e-07	-1.333079e-09	-4.280607e+00	-9.087911e+01
1.020000e-06	-5.349540e-07	-1.305366e-09	-4.018044e+00	-8.841230e+01
1.030000e-06	-4.998522e-07	-1.262978e-09	-3.754394e+00	-8.588514e+01
1.040000e-06	-4.646605e-07	-1.217177e-09	-3.490069e+00	-8.329650e+01
1.050000e-06	-4.293308e-07	-1.178715e-09	-3.224707e+00	-8.064519e+01
1.060000e-06	-3.938909e-07	-1.142229e-09	-2.958518e+00	-7.792999e+01
1.070000e-06	-3.583899e-07	-1.104073e-09	-2.691870e+00	-7.514970e+01
1.080000e-06	-3.228786e-07	-1.059799e-09	-2.425144e+00	-7.230315e+01
1.090000e-06	-2.873528e-07	-1.011708e-09	-2.158309e+00	-6.938931e+01
1.100000e-06	-2.517939e-07	-9.692769e-10	-1.891226e+00	-6.640733e+01
1.110000e-06	-2.161985e-07	-9.315469e-10	-1.623868e+00	-6.335660e+01
1.120000e-06	-1.805943e-07	-8.873399e-10	-1.356446e+00	-6.023685e+01
1.130000e-06	-1.449809e-07	-8.327620e-10	-1.088953e+00	-5.704816e+01
1.140000e-06	-1.093783e-07	-7.829249e-10	-8.215411e-01	-5.379105e+01
1.150000e-06	-7.378094e-08	-7.409132e-10	-5.541693e-01	-5.046648e+01
1.160000e-06	-3.815209e-08	-6.908800e-10	-2.865607e-01	-4.707591e+01
1.170000e-06	-2.524160e-09	-6.324069e-10	-1.895899e-02	-4.362127e+01
1.180000e-06	3.310226e-08	-5.776773e-10	2.486313e-01	-4.010495e+01
1.190000e-06	6.869876e-08	-5.271303e-10	5.159969e-01	-3.652981e+01
1.200000e-06	1.042740e-07	-4.722442e-10	7.832030e-01	-3.289913e+01
1.210000e-06	1.399045e-07	-4.137543e-10	1.050824e+00	-2.921658e+01
1.220000e-06	1.755433e-07	-3.610461e-10	1.318507e+00	-2.548618e+01
1.230000e-06	2.111412e-07	-3.111896e-10	1.585883e+00	-2.171225e+01
1.240000e-06	2.467122e-07	-2.574011e-10	1.853057e+00	-1.789943e+01
1.250000e-06	2.822621e-07	-2.013461e-10	2.120073e+00	-1.405258e+01
1.260000e-06	3.177768e-07	-1.455631e-10	2.386824e+00	-1.017682e+01
1.270000e-06	3.532296e-07	-8.929211e-11	2.653111e+00	-6.277472e+00
1.280000e-06	3.886563e-07	-3.178316e-11	2.919201e+00	-2.360090e+00
1.290000e-06	4.240343e-07	2.563321e-11	3.184926e+00	1.569584e+00
1.300000e-06	4.593511e-07	8.475899e-11	3.450190e+00	5.505611e+00
1.310000e-06	4.945851e-07	1.464890e-10	3.714833e+00	9.441870e+00
1.320000e-06	5.296911e-07	2.038924e-10	3.978514e+00	1.337209e+01
1.330000e-06	5.646853e-07	2.587728e-10	4.241356e+00	1.728986e+01
1.340000e-06	5.995137e-07	3.178745e-10	4.502952e+00	2.118872e+01
1.350000e-06	6.341667e-07	3.788825e-10	4.763231e+00	2.506219e+01
1.360000e-06	6.686670e-07	4.360596e-10	5.022363e+00	2.890386e+01
1.370000e-06	7.029939e-07	4.903055e-10	5.280193e+00	3.270750e+01
1.380000e-06	7.370850e-07	5.499024e-10	5.536252e+00	3.646718e+01
1.390000e-06	7.708959e-07	6.082915e-10	5.790206e+00	4.017735e+01
1.400000e-06	8.044402e-07	6.614210e-10	6.042157e+00	4.383300e+01
1.410000e-06	8.377624e-07	7.125066e-10	6.292441e+00	4.742976e+01
1.420000e-06	8.707820e-07	7.624532e-10	6.540451e+00	5.096400e+01
1.430000e-06	9.035526e-07	8.134179e-10	6.786591e+00	5.443293e+01
1.440000e-06	9.362036e-07	8.624973e-10	7.031833e+00	5.783466e+01
1.450000e-06	9.686279e-07	9.108570e-10	7.275372e+00	6.116821e+01
1.460000e-06	1.000806e-06	9.580420e-10	7.517063e+00	6.443352e+01
1.470000e-06	1.032785e-06	1.006159e-09	7.757255e+00	6.763140e+01
1.480000e-06	1.064663e-06	1.055454e-09	7.996693e+00	7.076346e+01
1.490000e-06	1.096490e-06	1.101072e-09	8.235746e+00	7.383196e+01
1.500000e-06	1.128214e-06	1.144582e-09	8.474022e+00	7.683969e+01
1.510000e-06	1.159836e-06	1.188955e-09	8.711540e+00	7.978980e+01
1.520000e-06	1.191348e-06	1.234844e-09	8.948223e+00	8.268559e+01
1.530000e-06	1.222730e-06	1.279132e-09	9.183935e+00	8.553034e+01
1.540000e-06	1.253900e-06	1.319041e-09	9.418051e+00	8.832712e+01
1.550000e-06	1.284850e-06	1.357981e-09	9.650516e+00	9.107860e+01
1.560000e-06	1.315515e-06	1.397705e-09	9.880841e+00	9.378695e+01
1.570000e-06	1.345814e-06	1.436414e-09	1.010842e+01	9.645368e+01
1.580000e-06	1.375883e-06	1.473720e-09	1.033427e+01	9.907962e+01
1.590000e-06	1.405717e-06	1.510079e-09	1.055836e+01	1.016648e+02
1.600000e-06	1.435348e-06	1.547914e-09	1.078091e+01	1.042087e+02
1.610000e-06	1.464856e-06	1.586963e-09	1.100255e+01	1.067101e+02
1.620000e-06	1.494138e-06	1.624536e-09	1.122249e+01	1.091670e+02
1.630000e-06	1.523163e-06	1.659422e-09	1.144049e+01	1.115774e+02
1.640000e-06	1.551910e-06	1.692798e-09	1.165641e+01	1.139387e+02
1.650000e-06	1.580321e-06	1.725597e-09	1.186980e+01	1.162485e+02
1.660000e-06	1.608443e-06	1.757928e-09	1.208103e+01	1.185043e+02
1.670000e-06	1.636366e-06	1.789939e-09	1.229076e+01	1.207040e+02
1.680000e-06	1.664140e-06	1.820170e-09	1.249937e+01	1.228459e+02
1.690000e-06	1.691784e-06	1.848576e-09	1.270700e+01	1.249286e+02
1.700000e-06	1.719289e-06	1.879301e-09	1.291360e+01	1.269515e+02
1.710000e-06	1.746547e-06	1.910492e-09	1.311833e+01	1.289147e+02
1.720000e-06	1.773463e-06	1.938939e-09	1.332049e+01	1.308187e+02
1.730000e-06	1.799876e-06	1.967257e-09	1.351888e+01	1.326648e+02
1.740000e-06	1.825660e-06	1.995352e-09	1.371254e+01	1.344548e+02
1.750000e-06	1.850864e-06	2.021510e-09	1.390186e+01	1.361907e+02
1.760000e-06	1.875531e-06	2.046326e-09	1.408713e+01	1.378751e+02
1.770000e-06	1.899778e-06	2.071325e-09	1.426925e+01	1.395105e+02
1.780000e-06	1.923743e-06	2.096276e-09	1.444925e+01	1.410995e+02
1.790000e-06	1.947508e-06	2.120927e-09	1.462775e+01	1.426447e+02
1.800000e-06	1.971092e-06	2.146225e-09	1.480489e+01	1.441483e+02
1.810000e-06	1.994377e-06	2.170552e-09	1.497978e+01	1.456123e+02
1.820000e-06	2.017294e-06	2.193375e-09	1.515191e+01	1.470382e+02
1.830000e-06	2.039828e-06	2.215553e-09	1.532117e+01	1.484272e+02
1.840000e-06	2.061964e-06	2.237667e-09	1.548743e+01	1.497803e+02
1.850000e-06	2.083741e-06	2.258263e-09	1.565100e+01	1.510977e+02
1.860000e-06	2.105199e-06	2.277954e-09	1.581217e+01	1.523797e+02
1.870000e-06	2.126319e-06	2.297454e-09	1.597080e+01	1.536264e+02
1.880000e-06	2.147051e-06	2.315445e-09	1.612652e+01	1.548374e+02
1.890000e-06	2.167393e-06	2.333793e-09	1.627931e+01	1.560129e+02
1.900000e-06	2.187387e-06	2.353806e-09	1.642948e+01	1.571526e+02
1.910000e-06	2.207153e-06	2.373661e-09	1.657794e+01	1.582567e+02
1.920000e-06	2.226755e-06	2.391396e-09	1.672517e+01	1.593255e+02
1.930000e-06	2.246083e-06	2.408101e-09	1.687035e+01	1.603598e+02
1.940000e-06	2.265063e-06	2.423701e-09	1.701290e+01	1.613603e+02
1.950000e-06	2.283627e-06	2.439319e-09	1.715234e+01	1.623281e+02
1.960000e-06	2.301678e-06	2.454876e-09	1.728793e+01	1.632646e+02
1.970000e-06	2.319207e-06	2.468299e-09	1.741958e+01	1.641713e+02
1.980000e-06	2.336344e-06	2.481569e-09	1.754830e+01	1.650497e+02
1.990000e-06	2.353207e-06	2.496179e-09	1.767496e+01	1.659012e+02
2.000000e-06	2.369793e-06	2.510985e-09	1.779953e+01	1.667272e+02
2.010000e-06	2.385937e-06	2.524129e-09	1.792079e+01	1.675289e+02
2.020000e-06	2.401502e-06	2.536150e-09	1.803770e+01	1.683072e+02
2.030000e-06	2.416477e-06	2.548316e-09	1.815018e+01	1.690627e+02
2.040000e-06	2.430901e-06	2.560287e-09	1.825852e+01	1.697957e+02
2.050000e-06	2.444913e-06	2.573316e-09	1.836376e+01	1.705060e+02
2.060000e-06	2.458519e-06	2.584876e-09	1.846596e+01	1.711934e+02
2.070000e-06	2.471708e-06	2.594087e-09	1.856502e+01	1.718573e+02
2.080000e-06	2.484444e-06	2.603768e-09	1.866068e+01	1.724970e+02
2.090000e-06	2.496707e-06	2.613994e-09	1.875279e+01	1.731118e+02
2.100000e-06	2.508552e-06	2.623912e-09	1.884176e+01	1.737009e+02
2.110000e-06	2.520003e-06	2.634121e-09	1.892776e+01	1.742639e+02
2.120000e-06	2.530956e-06	2.644093e-09	1.901003e+01	1.748004e+02
2.130000e-06	2.541239e-06	2.651993e-09	1.908726e+01	1.753104e+02
2.140000e-06	2.550805e-06	2.660002e-09	1.915912e+01	1.757944e+02
2.150000e-06	2.559688e-06	2.668877e-09	1.922584e+01	1.762529e+02
2.160000e-06	2.567978e-06	2.677411e-09	1.928810e+01	1.766872e+02
2.170000e-06	2.575844e-06	2.683829e-09	1.934719e+01	1.770987e+02
2.180000e-06	2.583456e-06	2.690217e-09	1.940436e+01	1.774889e+02
2.190000e-06	2.590803e-06	2.698372e-09	1.945954e+01	1.778596e+02
2.200000e-06	2.597722e-06	2.705077e-09	1.951151e+01	1.782127e+02
2.210000e-06	2.604173e-06	2.710581e-09	1.955997e+01	1.785500e+02
2.220000e-06	2.610136e-06	2.717060e-09	1.960475e+01	1.788729e+02
2.230000e-06	2.615626e-06	2.723450e-09	1.964599e+01	1.791826e+02
2.240000e-06	2.620718e-06	2.729782e-09	1.968423e+01	1.794801e+02
2.250000e-06	2.625310e-06	2.735759e-09	1.971872e+01	1.797657e+02
2.260000e-06	2.629426e-06	2.739269e-09	1.974964e+01	1.800394e+02
2.270000e-06	2.633233e-06	2.741272e-09	1.977823e+01	1.803005e+02
2.280000e-06	2.636764e-06	2.745697e-09	1.980476e+01	1.805481e+02
2.290000e-06	2.639934e-06	2.751223e-09	1.982857e+01	1.807809e+02
2.300000e-06	2.642614e-06	2.755265e-09	1.984869e+01	1.809974e+02
2.310000e-06	2.644661e-06	2.759792e-09	1.986407e+01	1.811959e+02
2.320000e-06	2.645931e-06	2.763745e-09	1.987361e+01	1.813746e+02
2.330000e-06	2.646504e-06	2.768183e-09	1.987791e+01	1.815321e+02
2.340000e-06	2.646582e-06	2.773998e-09	1.987850e+01	1.816672e+02
2.350000e-06	2.646324e-06	2.777239e-09	1.987656e+01	1.817790e+02
2.360000e-06	2.645783e-06	2.777952e-09	1.987250e+01	1.818672e+02
2.370000e-06	2.644879e-06	2.780951e-09	1.986571e+01	1.819320e+02
2.380000e-06	2.643540e-06	2.782122e-09	1.985565e+01	1.819739e+02
2.390000e-06	2.641731e-06	2.778914e-09	1.984207e+01	1.819943e+02
2.400000e-06	2.639483e-06	2.778291e-09	1.982518e+01	1.819948e+02
2.410000e-06	2.636842e-06	2.806532e-09	1.980534e+01	1.819772e+02
2.420000e-06	2.633801e-06	2.814727e-09	1.978250e+01	1.819438e+02
2.430000e-06	2.630286e-06	2.724735e-09	1.975610e+01	1.818967e+02
2.440000e-06	2.626311e-06	2.696202e-09	1.972624e+01	1.818380e+02
2.450000e-06	2.622026e-06	2.847884e-09	1.969406e+01	1.817696e+02
2.460000e-06	2.617453e-06	2.885076e-09	1.965971e+01	1.816928e+02
2.470000e-06	2.612427e-06	2.744780e-09	1.962196e+01	1.816086e+02
2.480000e-06	2.606705e-06	2.685411e-09	1.957898e+01	1.815172e+02
2.490000e-06	2.600276e-06	2.767456e-09	1.953069e+01	1.814183e+02
2.500000e-06	2.593511e-06	2.846013e-09	1.947988e+01	1.813108e+02
2.510000e-06	2.586314e-06	2.834057e-09	1.942583e+01	1.811931e+02
2.520000e-06	2.578404e-06	2.767783e-09	1.936642e+01	1.810632e+02
2.530000e-06	2.570050e-06	2.650892e-09	1.930367e+01	1.809185e+02
2.540000e-06	2.561437e-06	2.732283e-09	1.923897e+01	1.807562e+02
2.550000e-06	2.552370e-06	2.928125e-09	1.917087e+01	1.805734e+02
2.560000e-06	2.542695e-06	2.845814e-09	1.909820e+01	1.803676e+02
2.570000e-06	2.532634e-06	2.544379e-09	1.902263e+01	1.801361e+02
2.580000e-06	2.522330e-06	2.630778e-09	1.894524e+01	1.798769e+02
2.590000e-06	2.511472e-06	2.989305e-09	1.886369e+01	1.795885e+02
2.600000e-06	2.500000e-06	2.836041e-09	1.877752e+01	1.792701e+02
2.610000e-06	2.488193e-06	2.491074e-09	1.868884e+01	1.789216e+02
2.620000e-06	2.476043e-06	2.659357e-09	1.859758e+01	1.785433e+02
2.630000e-06	2.463341e-06	2.942370e-09	1.850218e+01	1.781367e+02
2.640000e-06	2.450111e-06	2.720973e-09	1.840281e+01	1.777034e+02
2.650000e-06	2.436344e-06	2.563922e-09	1.829940e+01	1.772457e+02
2.660000e-06	2.421800e-06	2.767887e-09	1.819016e+01	1.767662e+02
2.670000e-06	2.406419e-06	2.750741e-09	1.807463e+01	1.762676e+02
2.680000e-06	2.390534e-06	2.602221e-09	1.795532e+01	1.757526e+02
2.690000e-06	2.374419e-06	2.737341e-09	1.783428e+01	1.752239e+02
2.700000e-06	2.357976e-06	2.771948e-09	1.771078e+01	1.746836e+02
2.710000e-06	2.341225e-06	2.522904e-09	1.758496e+01	1.741335e+02
2.720000e-06	2.324222e-06	2.602516e-09	1.745725e+01	1.735749e+02
2.730000e-06	2.306756e-06	2.849374e-09	1.732606e+01	1.730085e+02
2.740000e-06	2.288786e-06	2.655002e-09	1.719109e+01	1.724342e+02
2.750000e-06	2.270487e-06	2.443204e-09	1.705364e+01	1.718516e+02
2.760000e-06	2.251870e-06	2.651910e-09	1.691382e+01	1.712595e+02
2.770000e-06	2.232826e-06	2.778013e-09	1.677078e+01	1.706565e+02
2.780000e-06	2.213329e-06	2.556872e-09	1.662433e+01	1.700407e+02
2.790000e-06	2.193543e-06	2.475537e-09	1.647572e+01	1.694100e+02
2.800000e-06	2.173541e-06	2.638628e-09	1.632549e+01	1.687624e+02
2.810000e-06	2.153298e-06	2.653912e-09	1.617344e+01	1.680957e+02
2.820000e-06	2.132810e-06	2.511344e-09	1.601955e+01	1.674080e+02
2.830000e-06	2.111986e-06	2.513021e-09	1.586314e+01	1.666979e+02
2.840000e-06	2.090672e-06	2.600261e-09	1.570306e+01	1.659639e+02
2.850000e-06	2.068757e-06	2.538410e-09	1.553845e+01	1.652053e+02
2.860000e-06	2.046257e-06	2.473279e-09	1.536945e+01	1.644214e+02
2.870000e-06	2.023245e-06	2.540971e-09	1.519661e+01	1.636121e+02
2.880000e-06	1.999650e-06	2.523711e-09	1.501939e+01	1.627776e+02
2.890000e-06	1.975654e-06	2.430228e-09	1.483915e+01	1.619183e+02
2.900000e-06	1.951477e-06	2.476795e-09	1.465756e+01	1.610348e+02
2.910000e-06	1.927102e-06	2.521554e-09	1.447448e+01	1.601277e+02
2.920000e-06	1.902496e-06	2.424704e-09	1.428967e+01	1.591976e+02
2.930000e-06	1.877606e-06	2.384739e-09	1.410272e+01	1.582451e+02
2.940000e-06	1.852401e-06	2.455834e-09	1.391340e+01	1.572705e+02
