# Temperatura_=_20.0
# Concentracion g/m^3_=_9000.0
# C_Vs_to_Am_M_A/Vsm_=_65563218390.804596
# pendiente_HvsI_1/m_=_3716.3
# ordenada_HvsI_A/m_=_1297.0
# frecuencia_Hz_=_213026.004514831

Tiempo_(s)	Campo_(V.s)	Magnetizacion_(V.s)	Campo_(kA/m)	Magnetizacion_(A/m)
0.000000e+00	-2.637385e-06	-2.761451e-09	-1.982217e+01	-1.794733e+02
1.000000e-08	-2.637548e-06	-2.762158e-09	-1.982339e+01	-1.795892e+02
2.000000e-08	-2.637398e-06	-2.760901e-09	-1.982227e+01	-1.796867e+02
3.000000e-08	-2.636764e-06	-2.760604e-09	-1.981750e+01	-1.797656e+02
4.000000e-08	-2.635464e-06	-2.760854e-09	-1.980773e+01	-1.798257e+02
5.000000e-08	-2.633549e-06	-2.754462e-09	-1.979334e+01	-1.798668e+02
6.000000e-08	-2.630987e-06	-2.737526e-09	-1.977408e+01	-1.798890e+02
7.000000e-08	-2.627717e-06	-2.750822e-09	-1.974950e+01	-1.798924e+02
8.000000e-08	-2.624019e-06	-2.798814e-09	-1.972171e+01	-1.798774e+02
9.000000e-08	-2.620085e-06	-2.789844e-09	-1.969214e+01	-1.798440e+02
1.000000e-07	-2.615897e-06	-2.749594e-09	-1.966066e+01	-1.797925e+02
1.100000e-07	-2.611328e-06	-2.695653e-09	-1.962633e+01	-1.797228e+02
1.200000e-07	-2.606213e-06	-2.737322e-09	-1.958788e+01	-1.796349e+02
1.300000e-07	-2.600596e-06	-2.784677e-09	-1.954567e+01	-1.795287e+02
1.400000e-07	-2.594603e-06	-2.790728e-09	-1.950062e+01	-1.794037e+02
1.500000e-07	-2.588069e-06	-2.702466e-09	-1.945152e+01	-1.792597e+02
1.600000e-07	-2.580939e-06	-2.661022e-09	-1.939793e+01	-1.790959e+02
1.700000e-07	-2.573440e-06	-2.734108e-09	-1.934157e+01	-1.789118e+02
1.800000e-07	-2.565689e-06	-2.796909e-09	-1.928331e+01	-1.787069e+02
1.900000e-07	-2.557556e-06	-2.752315e-09	-1.922219e+01	-1.784805e+02
2.000000e-07	-2.548997e-06	-2.632591e-09	-1.915786e+01	-1.782323e+02
2.100000e-07	-2.540043e-06	-2.666258e-09	-1.909056e+01	-1.779621e+02
2.200000e-07	-2.530520e-06	-2.760740e-09	-1.901899e+01	-1.776698e+02
2.300000e-07	-2.520195e-06	-2.783117e-09	-1.894139e+01	-1.773557e+02
2.400000e-07	-2.509070e-06	-2.662453e-09	-1.885778e+01	-1.770203e+02
2.500000e-07	-2.497429e-06	-2.627714e-09	-1.877028e+01	-1.766644e+02
2.600000e-07	-2.485435e-06	-2.686581e-09	-1.868014e+01	-1.762891e+02
2.700000e-07	-2.472944e-06	-2.737591e-09	-1.858625e+01	-1.758957e+02
2.800000e-07	-2.459941e-06	-2.683250e-09	-1.848853e+01	-1.754855e+02
2.900000e-07	-2.446550e-06	-2.596031e-09	-1.838788e+01	-1.750600e+02
3.000000e-07	-2.432740e-06	-2.609172e-09	-1.828409e+01	-1.746208e+02
3.100000e-07	-2.418409e-06	-2.684763e-09	-1.817638e+01	-1.741691e+02
3.200000e-07	-2.403441e-06	-2.692523e-09	-1.806388e+01	-1.737063e+02
3.300000e-07	-2.387721e-06	-2.597257e-09	-1.794574e+01	-1.732331e+02
3.400000e-07	-2.371323e-06	-2.562928e-09	-1.782249e+01	-1.727504e+02
3.500000e-07	-2.354552e-06	-2.620154e-09	-1.769644e+01	-1.722584e+02
3.600000e-07	-2.337511e-06	-2.658820e-09	-1.756836e+01	-1.717570e+02
3.700000e-07	-2.320122e-06	-2.598434e-09	-1.743767e+01	-1.712457e+02
3.800000e-07	-2.302381e-06	-2.536341e-09	-1.730433e+01	-1.707238e+02
3.900000e-07	-2.284369e-06	-2.556828e-09	-1.716896e+01	-1.701901e+02
4.000000e-07	-2.265980e-06	-2.610880e-09	-1.703074e+01	-1.696434e+02
4.100000e-07	-2.246976e-06	-2.589950e-09	-1.688792e+01	-1.690823e+02
4.200000e-07	-2.227472e-06	-2.522962e-09	-1.674133e+01	-1.685052e+02
4.300000e-07	-2.207732e-06	-2.514069e-09	-1.659297e+01	-1.679106e+02
4.400000e-07	-2.187852e-06	-2.551135e-09	-1.644355e+01	-1.672972e+02
4.500000e-07	-2.167752e-06	-2.558579e-09	-1.629248e+01	-1.666640e+02
4.600000e-07	-2.147389e-06	-2.514273e-09	-1.613944e+01	-1.660099e+02
4.700000e-07	-2.126714e-06	-2.470979e-09	-1.598404e+01	-1.653345e+02
4.800000e-07	-2.105570e-06	-2.480993e-09	-1.582513e+01	-1.646373e+02
4.900000e-07	-2.083995e-06	-2.512111e-09	-1.566298e+01	-1.639185e+02
5.000000e-07	-2.062119e-06	-2.484010e-09	-1.549856e+01	-1.631784e+02
5.100000e-07	-2.039906e-06	-2.425246e-09	-1.533161e+01	-1.624174e+02
5.200000e-07	-2.017308e-06	-2.424045e-09	-1.516176e+01	-1.616361e+02
5.300000e-07	-1.994401e-06	-2.451944e-09	-1.498960e+01	-1.608354e+02
5.400000e-07	-1.971172e-06	-2.434677e-09	-1.481501e+01	-1.600158e+02
5.500000e-07	-1.947604e-06	-2.393702e-09	-1.463788e+01	-1.591779e+02
5.600000e-07	-1.923844e-06	-2.372611e-09	-1.445931e+01	-1.583221e+02
5.700000e-07	-1.899887e-06	-2.376778e-09	-1.427925e+01	-1.574487e+02
5.800000e-07	-1.875641e-06	-2.381051e-09	-1.409702e+01	-1.565573e+02
5.900000e-07	-1.850949e-06	-2.353090e-09	-1.391144e+01	-1.556477e+02
6.000000e-07	-1.825729e-06	-2.314613e-09	-1.372189e+01	-1.547190e+02
6.100000e-07	-1.800047e-06	-2.307323e-09	-1.352886e+01	-1.537701e+02
6.200000e-07	-1.773861e-06	-2.311929e-09	-1.333206e+01	-1.527999e+02
6.300000e-07	-1.747174e-06	-2.289211e-09	-1.313148e+01	-1.518067e+02
6.400000e-07	-1.720041e-06	-2.254716e-09	-1.292755e+01	-1.507892e+02
6.500000e-07	-1.692565e-06	-2.237165e-09	-1.272105e+01	-1.497458e+02
6.600000e-07	-1.664895e-06	-2.234093e-09	-1.251309e+01	-1.486750e+02
6.700000e-07	-1.637102e-06	-2.226955e-09	-1.230420e+01	-1.475754e+02
6.800000e-07	-1.609168e-06	-2.198680e-09	-1.209425e+01	-1.464461e+02
6.900000e-07	-1.581017e-06	-2.167713e-09	-1.188267e+01	-1.452862e+02
7.000000e-07	-1.552579e-06	-2.159984e-09	-1.166894e+01	-1.440954e+02
7.100000e-07	-1.523873e-06	-2.152457e-09	-1.145319e+01	-1.428735e+02
7.200000e-07	-1.494877e-06	-2.123962e-09	-1.123526e+01	-1.416207e+02
7.300000e-07	-1.465516e-06	-2.091329e-09	-1.101459e+01	-1.403376e+02
7.400000e-07	-1.435909e-06	-2.074622e-09	-1.079206e+01	-1.390249e+02
7.500000e-07	-1.406146e-06	-2.064115e-09	-1.056837e+01	-1.376834e+02
7.600000e-07	-1.376212e-06	-2.040202e-09	-1.034339e+01	-1.363141e+02
7.700000e-07	-1.346064e-06	-2.006438e-09	-1.011680e+01	-1.349180e+02
7.800000e-07	-1.315670e-06	-1.981013e-09	-9.888369e+00	-1.334958e+02
7.900000e-07	-1.284982e-06	-1.968603e-09	-9.657721e+00	-1.320482e+02
8.000000e-07	-1.254051e-06	-1.949779e-09	-9.425247e+00	-1.305754e+02
8.100000e-07	-1.222986e-06	-1.916588e-09	-9.191767e+00	-1.290775e+02
8.200000e-07	-1.191687e-06	-1.887982e-09	-8.956528e+00	-1.275541e+02
8.300000e-07	-1.160183e-06	-1.872770e-09	-8.719748e+00	-1.260043e+02
8.400000e-07	-1.128571e-06	-1.856218e-09	-8.482162e+00	-1.244269e+02
8.500000e-07	-1.096881e-06	-1.826774e-09	-8.243983e+00	-1.228204e+02
8.600000e-07	-1.065128e-06	-1.792482e-09	-8.005335e+00	-1.211829e+02
8.700000e-07	-1.033283e-06	-1.767341e-09	-7.765989e+00	-1.195122e+02
8.800000e-07	-1.001306e-06	-1.749357e-09	-7.525656e+00	-1.178059e+02
8.900000e-07	-9.691741e-07	-1.724565e-09	-7.284159e+00	-1.160616e+02
9.000000e-07	-9.368463e-07	-1.688524e-09	-7.041188e+00	-1.142766e+02
9.100000e-07	-9.042465e-07	-1.655246e-09	-6.796174e+00	-1.124485e+02
9.200000e-07	-8.714282e-07	-1.631428e-09	-6.549516e+00	-1.105749e+02
9.300000e-07	-8.384343e-07	-1.604179e-09	-6.301539e+00	-1.086533e+02
9.400000e-07	-8.052854e-07	-1.565165e-09	-6.052398e+00	-1.066816e+02
9.500000e-07	-7.719509e-07	-1.526680e-09	-5.801860e+00	-1.046579e+02
9.600000e-07	-7.383239e-07	-1.499783e-09	-5.549125e+00	-1.025804e+02
9.700000e-07	-7.044113e-07	-1.474427e-09	-5.294244e+00	-1.004475e+02
9.800000e-07	-6.702869e-07	-1.439126e-09	-5.037770e+00	-9.825782e+01
9.900000e-07	-6.359991e-07	-1.399781e-09	-4.780069e+00	-9.601008e+01
1.000000e-06	-6.015308e-07	-1.365365e-09	-4.521010e+00	-9.370313e+01
1.010000e-06	-5.667820e-07	-1.336140e-09	-4.259843e+00	-9.133593e+01
1.020000e-06	-5.317973e-07	-1.303140e-09	-3.996904e+00	-8.890747e+01
1.030000e-06	-4.966893e-07	-1.260360e-09	-3.733038e+00	-8.641682e+01
1.040000e-06	-4.614405e-07	-1.216902e-09	-3.468114e+00	-8.386306e+01
1.050000e-06	-4.261008e-07	-1.180121e-09	-3.202506e+00	-8.124532e+01
1.060000e-06	-3.906707e-07	-1.145001e-09	-2.936219e+00	-7.856275e+01
1.070000e-06	-3.551506e-07	-1.103058e-09	-2.669256e+00	-7.581460e+01
1.080000e-06	-3.196082e-07	-1.057040e-09	-2.402125e+00	-7.300017e+01
1.090000e-06	-2.840539e-07	-1.014506e-09	-2.134904e+00	-7.011890e+01
1.100000e-06	-2.484284e-07	-9.742048e-10	-1.867149e+00	-6.717040e+01
1.110000e-06	-2.127528e-07	-9.319161e-10	-1.599016e+00	-6.415446e+01
1.120000e-06	-1.770816e-07	-8.855281e-10	-1.330917e+00	-6.107115e+01
1.130000e-06	-1.413915e-07	-8.381705e-10	-1.062676e+00	-5.792076e+01
1.140000e-06	-1.057371e-07	-7.947961e-10	-7.947035e-01	-5.470394e+01
1.150000e-06	-7.010050e-08	-7.503165e-10	-5.268643e-01	-5.142162e+01
1.160000e-06	-3.443462e-08	-7.006141e-10	-2.588051e-01	-4.807511e+01
1.170000e-06	1.224905e-09	-6.477867e-10	9.206190e-03	-4.466605e+01
1.180000e-06	3.689431e-08	-5.960921e-10	2.772918e-01	-4.119643e+01
1.190000e-06	7.258463e-08	-5.447441e-10	5.455346e-01	-3.766860e+01
1.200000e-06	1.082536e-07	-4.920703e-10	8.136169e-01	-3.408524e+01
1.210000e-06	1.438838e-07	-4.392228e-10	1.081408e+00	-3.044938e+01
1.220000e-06	1.794964e-07	-3.866832e-10	1.349066e+00	-2.676437e+01
1.230000e-06	2.151402e-07	-3.340202e-10	1.616959e+00	-2.303388e+01
1.240000e-06	2.507940e-07	-2.797527e-10	1.884928e+00	-1.926192e+01
1.250000e-06	2.863798e-07	-2.248094e-10	2.152385e+00	-1.545280e+01
1.260000e-06	3.219389e-07	-1.686461e-10	2.419642e+00	-1.161116e+01
1.270000e-06	3.575379e-07	-1.124820e-10	2.687198e+00	-7.741980e+00
1.280000e-06	3.930680e-07	-5.568700e-11	2.954237e+00	-3.850541e+00
1.290000e-06	4.284317e-07	3.234399e-12	3.220025e+00	5.754189e-02
1.300000e-06	4.637037e-07	6.328765e-11	3.485123e+00	3.976347e+00
1.310000e-06	4.989012e-07	1.223508e-10	3.749662e+00	7.899673e+00
1.320000e-06	5.339241e-07	1.802122e-10	4.012889e+00	1.182107e+01
1.330000e-06	5.688168e-07	2.386032e-10	4.275137e+00	1.573391e+01
1.340000e-06	6.035855e-07	2.967061e-10	4.536453e+00	1.963144e+01
1.350000e-06	6.381033e-07	3.547499e-10	4.795883e+00	2.350686e+01
1.360000e-06	6.724225e-07	4.130384e-10	5.053821e+00	2.735348e+01
1.370000e-06	7.065409e-07	4.709228e-10	5.310249e+00	3.116478e+01
1.380000e-06	7.404042e-07	5.290641e-10	5.564760e+00	3.493455e+01
1.390000e-06	7.740572e-07	5.872879e-10	5.817691e+00	3.865704e+01
1.400000e-06	8.075080e-07	6.429319e-10	6.069102e+00	4.232706e+01
1.410000e-06	8.406981e-07	6.963176e-10	6.318553e+00	4.594013e+01
1.420000e-06	8.735807e-07	7.483554e-10	6.565694e+00	4.949251e+01
1.430000e-06	9.062191e-07	7.987302e-10	6.810999e+00	5.298137e+01
1.440000e-06	9.386594e-07	8.475411e-10	7.054815e+00	5.640474e+01
1.450000e-06	9.709379e-07	8.969903e-10	7.297415e+00	5.976161e+01
1.460000e-06	1.003081e-06	9.469873e-10	7.538999e+00	6.305182e+01
1.470000e-06	1.035074e-06	9.960868e-10	7.779451e+00	6.627609e+01
1.480000e-06	1.066972e-06	1.045013e-09	8.019190e+00	6.943585e+01
1.490000e-06	1.098814e-06	1.093076e-09	8.258508e+00	7.253314e+01
1.500000e-06	1.130581e-06	1.139655e-09	8.497265e+00	7.557047e+01
1.510000e-06	1.162259e-06	1.184454e-09	8.735353e+00	7.855065e+01
1.520000e-06	1.193788e-06	1.229415e-09	8.972320e+00	8.147659e+01
1.530000e-06	1.225128e-06	1.273546e-09	9.207866e+00	8.435111e+01
1.540000e-06	1.256241e-06	1.314982e-09	9.441709e+00	8.717681e+01
1.550000e-06	1.287052e-06	1.355224e-09	9.673278e+00	8.995589e+01
1.560000e-06	1.317571e-06	1.395397e-09	9.902655e+00	9.269005e+01
1.570000e-06	1.347825e-06	1.434548e-09	1.013004e+01	9.538034e+01
1.580000e-06	1.377832e-06	1.471715e-09	1.035556e+01	9.802721e+01
1.590000e-06	1.407647e-06	1.508311e-09	1.057965e+01	1.006304e+02
1.600000e-06	1.437267e-06	1.546360e-09	1.080227e+01	1.031891e+02
1.610000e-06	1.466698e-06	1.585780e-09	1.102347e+01	1.057018e+02
1.620000e-06	1.495959e-06	1.622350e-09	1.124339e+01	1.081667e+02
1.630000e-06	1.524972e-06	1.655220e-09	1.146145e+01	1.105816e+02
1.640000e-06	1.553652e-06	1.687444e-09	1.167700e+01	1.129442e+02
1.650000e-06	1.582022e-06	1.719632e-09	1.189023e+01	1.152522e+02
1.660000e-06	1.610145e-06	1.751841e-09	1.210160e+01	1.175034e+02
1.670000e-06	1.638085e-06	1.784394e-09	1.231159e+01	1.196959e+02
1.680000e-06	1.665917e-06	1.816366e-09	1.252077e+01	1.218284e+02
1.690000e-06	1.693637e-06	1.846528e-09	1.272910e+01	1.238999e+02
1.700000e-06	1.721183e-06	1.876102e-09	1.293614e+01	1.259103e+02
1.710000e-06	1.748445e-06	1.906189e-09	1.314103e+01	1.278598e+02
1.720000e-06	1.775329e-06	1.935314e-09	1.334309e+01	1.297495e+02
1.730000e-06	1.801675e-06	1.962217e-09	1.354110e+01	1.315808e+02
1.740000e-06	1.827402e-06	1.987737e-09	1.373446e+01	1.333558e+02
1.750000e-06	1.852548e-06	2.012583e-09	1.392346e+01	1.350769e+02
1.760000e-06	1.877182e-06	2.036526e-09	1.410860e+01	1.367467e+02
1.770000e-06	1.901442e-06	2.060610e-09	1.429094e+01	1.383680e+02
1.780000e-06	1.925438e-06	2.083929e-09	1.447129e+01	1.399435e+02
1.790000e-06	1.949233e-06	2.106676e-09	1.465013e+01	1.414759e+02
1.800000e-06	1.972793e-06	2.131198e-09	1.482720e+01	1.429674e+02
1.810000e-06	1.996056e-06	2.155247e-09	1.500204e+01	1.444200e+02
1.820000e-06	2.018920e-06	2.177472e-09	1.517388e+01	1.458354e+02
1.830000e-06	2.041394e-06	2.198800e-09	1.534279e+01	1.472146e+02
1.840000e-06	2.063532e-06	2.219855e-09	1.550918e+01	1.485584e+02
1.850000e-06	2.085308e-06	2.240559e-09	1.567285e+01	1.498672e+02
1.860000e-06	2.106695e-06	2.260278e-09	1.583359e+01	1.511409e+02
1.870000e-06	2.127681e-06	2.277840e-09	1.599131e+01	1.523794e+02
1.880000e-06	2.148303e-06	2.294679e-09	1.614631e+01	1.535823e+02
1.890000e-06	2.168643e-06	2.313378e-09	1.629918e+01	1.547491e+02
1.900000e-06	2.188725e-06	2.332316e-09	1.645011e+01	1.558794e+02
1.910000e-06	2.208585e-06	2.349910e-09	1.659937e+01	1.569732e+02
1.920000e-06	2.228221e-06	2.367349e-09	1.674696e+01	1.580302e+02
1.930000e-06	2.247549e-06	2.385019e-09	1.689222e+01	1.590509e+02
1.940000e-06	2.266469e-06	2.401366e-09	1.703442e+01	1.600357e+02
1.950000e-06	2.284953e-06	2.417065e-09	1.717335e+01	1.609855e+02
1.960000e-06	2.302974e-06	2.432777e-09	1.730879e+01	1.619015e+02
1.970000e-06	2.320441e-06	2.446309e-09	1.744007e+01	1.627850e+02
1.980000e-06	2.337557e-06	2.458233e-09	1.756870e+01	1.636376e+02
1.990000e-06	2.354405e-06	2.472065e-09	1.769534e+01	1.644609e+02
2.000000e-06	2.370879e-06	2.487167e-09	1.781915e+01	1.652565e+02
2.010000e-06	2.386965e-06	2.499416e-09	1.794005e+01	1.660261e+02
2.020000e-06	2.402551e-06	2.510903e-09	1.805719e+01	1.667710e+02
2.030000e-06	2.417491e-06	2.523426e-09	1.816948e+01	1.674925e+02
2.040000e-06	2.431866e-06	2.534220e-09	1.827752e+01	1.681916e+02
2.050000e-06	2.445789e-06	2.545469e-09	1.838216e+01	1.688690e+02
2.060000e-06	2.459269e-06	2.557512e-09	1.848348e+01	1.695250e+02
2.070000e-06	2.472296e-06	2.568487e-09	1.858138e+01	1.701600e+02
2.080000e-06	2.484929e-06	2.578748e-09	1.867633e+01	1.707737e+02
2.090000e-06	2.497194e-06	2.589239e-09	1.876851e+01	1.713659e+02
2.100000e-06	2.508997e-06	2.599662e-09	1.885722e+01	1.719364e+02
2.110000e-06	2.520362e-06	2.609841e-09	1.894264e+01	1.724847e+02
2.120000e-06	2.531218e-06	2.619016e-09	1.902423e+01	1.730105e+02
2.130000e-06	2.541313e-06	2.626935e-09	1.910011e+01	1.735136e+02
2.140000e-06	2.550562e-06	2.635280e-09	1.916962e+01	1.739939e+02
2.150000e-06	2.559180e-06	2.644239e-09	1.923439e+01	1.744515e+02
2.160000e-06	2.567419e-06	2.651860e-09	1.929631e+01	1.748869e+02
2.170000e-06	2.575366e-06	2.658475e-09	1.935604e+01	1.753005e+02
2.180000e-06	2.583009e-06	2.666378e-09	1.941349e+01	1.756932e+02
2.190000e-06	2.590280e-06	2.674412e-09	1.946813e+01	1.760659e+02
2.200000e-06	2.597140e-06	2.680529e-09	1.951969e+01	1.764197e+02
2.210000e-06	2.603555e-06	2.684824e-09	1.956790e+01	1.767558e+02
2.220000e-06	2.609453e-06	2.690535e-09	1.961224e+01	1.770752e+02
2.230000e-06	2.614840e-06	2.695778e-09	1.965272e+01	1.773791e+02
2.240000e-06	2.619716e-06	2.699809e-09	1.968937e+01	1.776683e+02
2.250000e-06	2.624169e-06	2.704011e-09	1.972284e+01	1.779435e+02
2.260000e-06	2.628298e-06	2.707381e-09	1.975387e+01	1.782054e+02
2.270000e-06	2.632129e-06	2.710009e-09	1.978266e+01	1.784540e+02
2.280000e-06	2.635690e-06	2.711354e-09	1.980943e+01	1.786895e+02
2.290000e-06	2.638856e-06	2.714846e-09	1.983323e+01	1.789116e+02
2.300000e-06	2.641386e-06	2.720813e-09	1.985224e+01	1.791199e+02
2.310000e-06	2.643098e-06	2.725506e-09	1.986511e+01	1.793138e+02
2.320000e-06	2.644137e-06	2.728863e-09	1.987291e+01	1.794925e+02
2.330000e-06	2.644725e-06	2.731886e-09	1.987734e+01	1.796553e+02
2.340000e-06	2.644880e-06	2.735101e-09	1.987850e+01	1.798014e+02
2.350000e-06	2.644661e-06	2.736852e-09	1.987685e+01	1.799302e+02
2.360000e-06	2.644139e-06	2.738215e-09	1.987293e+01	1.800410e+02
2.370000e-06	2.643195e-06	2.738329e-09	1.986583e+01	1.801333e+02
2.380000e-06	2.641736e-06	2.736983e-09	1.985487e+01	1.802069e+02
2.390000e-06	2.639850e-06	2.741341e-09	1.984069e+01	1.802616e+02
2.400000e-06	2.637630e-06	2.758300e-09	1.982401e+01	1.802973e+02
2.410000e-06	2.635032e-06	2.753625e-09	1.980448e+01	1.803142e+02
2.420000e-06	2.631932e-06	2.706148e-09	1.978119e+01	1.803124e+02
2.430000e-06	2.628320e-06	2.713358e-09	1.975403e+01	1.802922e+02
2.440000e-06	2.624298e-06	2.730959e-09	1.972381e+01	1.802537e+02
2.450000e-06	2.620062e-06	2.776571e-09	1.969197e+01	1.801970e+02
2.460000e-06	2.615567e-06	2.752796e-09	1.965819e+01	1.801222e+02
2.470000e-06	2.610400e-06	2.698508e-09	1.961935e+01	1.800292e+02
2.480000e-06	2.604451e-06	2.683426e-09	1.957464e+01	1.799177e+02
2.490000e-06	2.598059e-06	2.745680e-09	1.952660e+01	1.797874e+02
2.500000e-06	2.591238e-06	2.783614e-09	1.947533e+01	1.796378e+02
2.510000e-06	2.583762e-06	2.724786e-09	1.941914e+01	1.794683e+02
2.520000e-06	2.575806e-06	2.667807e-09	1.935935e+01	1.792784e+02
2.530000e-06	2.567609e-06	2.698919e-09	1.929774e+01	1.790674e+02
2.540000e-06	2.559034e-06	2.781885e-09	1.923330e+01	1.788349e+02
2.550000e-06	2.549893e-06	2.744395e-09	1.916459e+01	1.785804e+02
2.560000e-06	2.540249e-06	2.664006e-09	1.909211e+01	1.783039e+02
2.570000e-06	2.530292e-06	2.654226e-09	1.901727e+01	1.780053e+02
2.580000e-06	2.519925e-06	2.740745e-09	1.893935e+01	1.776851e+02
2.590000e-06	2.509006e-06	2.745701e-09	1.885729e+01	1.773438e+02
2.600000e-06	2.497611e-06	2.683239e-09	1.877165e+01	1.769823e+02
2.610000e-06	2.485773e-06	2.641490e-09	1.868267e+01	1.766017e+02
2.620000e-06	2.473483e-06	2.680757e-09	1.859031e+01	1.762034e+02
2.630000e-06	2.460737e-06	2.729549e-09	1.849451e+01	1.757888e+02
2.640000e-06	2.447485e-06	2.703397e-09	1.839491e+01	1.753594e+02
2.650000e-06	2.433522e-06	2.637843e-09	1.828996e+01	1.749166e+02
2.660000e-06	2.418714e-06	2.635728e-09	1.817867e+01	1.744618e+02
2.670000e-06	2.403251e-06	2.698129e-09	1.806245e+01	1.739961e+02
2.680000e-06	2.387370e-06	2.691819e-09	1.794309e+01	1.735204e+02
2.690000e-06	2.371180e-06	2.629892e-09	1.782141e+01	1.730352e+02
2.700000e-06	2.354739e-06	2.613165e-09	1.769784e+01	1.725407e+02
2.710000e-06	2.338038e-06	2.640434e-09	1.757233e+01	1.720367e+02
2.720000e-06	2.320921e-06	2.655126e-09	1.744367e+01	1.715227e+02
2.730000e-06	2.303291e-06	2.636010e-09	1.731117e+01	1.709977e+02
2.740000e-06	2.285317e-06	2.594066e-09	1.717608e+01	1.704606e+02
2.750000e-06	2.267104e-06	2.580232e-09	1.703919e+01	1.699101e+02
2.760000e-06	2.248468e-06	2.621526e-09	1.689913e+01	1.693446e+02
2.770000e-06	2.229297e-06	2.622676e-09	1.675504e+01	1.687627e+02
2.780000e-06	2.209698e-06	2.562006e-09	1.660774e+01	1.681630e+02
2.790000e-06	2.189830e-06	2.546461e-09	1.645842e+01	1.675441e+02
2.800000e-06	2.169773e-06	2.573282e-09	1.630767e+01	1.669050e+02
2.810000e-06	2.149567e-06	2.570810e-09	1.615581e+01	1.662449e+02
2.820000e-06	2.129137e-06	2.546525e-09	1.600226e+01	1.655633e+02
2.830000e-06	2.108230e-06	2.521395e-09	1.584512e+01	1.648600e+02
2.840000e-06	2.086721e-06	2.512548e-09	1.568346e+01	1.641351e+02
2.850000e-06	2.064687e-06	2.527470e-09	1.551786e+01	1.633889e+02
2.860000e-06	2.042125e-06	2.514375e-09	1.534829e+01	1.626221e+02
2.870000e-06	2.018919e-06	2.476838e-09	1.517387e+01	1.618353e+02
2.880000e-06	1.995254e-06	2.470837e-09	1.499602e+01	1.610291e+02
2.890000e-06	1.971333e-06	2.474736e-09	1.481623e+01	1.602043e+02
2.900000e-06	1.947182e-06	2.458998e-09	1.463471e+01	1.593614e+02
2.910000e-06	1.922886e-06	2.442704e-09	1.445211e+01	1.585006e+02
2.920000e-06	1.898373e-06	2.423922e-09	1.426787e+01	1.576222e+02
2.930000e-06	1.873598e-06	2.409438e-09	1.408166e+01	1.567257e+02
2.940000e-06	1.848454e-06	2.406211e-09	1.389269e+01	1.558108e+02
2.950000e-06	1.822841e-06	2.386836e-09	1.370019e+01	1.548764e+02
