# Temperatura_=_20.0
# Concentracion g/m^3_=_9000.0
# C_Vs_to_Am_M_A/Vsm_=_65563218390.804596
# pendiente_HvsI_1/m_=_3716.3
# ordenada_HvsI_A/m_=_1297.0
# frecuencia_Hz_=_213023.04703948076

Tiempo_(s)	Campo_(V.s)	Magnetizacion_(V.s)	Campo_(kA/m)	Magnetizacion_(A/m)
0.000000e+00	-2.641936e-06	-2.750301e-09	-1.983277e+01	-1.806081e+02
1.000000e-08	-2.642114e-06	-2.750913e-09	-1.983411e+01	-1.807102e+02
2.000000e-08	-2.641957e-06	-2.750760e-09	-1.983293e+01	-1.807903e+02
3.000000e-08	-2.641345e-06	-2.751131e-09	-1.982834e+01	-1.808485e+02
4.000000e-08	-2.640207e-06	-2.752260e-09	-1.981980e+01	-1.808855e+02
5.000000e-08	-2.638403e-06	-2.752942e-09	-1.980625e+01	-1.809025e+02
6.000000e-08	-2.635803e-06	-2.748956e-09	-1.978673e+01	-1.809011e+02
7.000000e-08	-2.632588e-06	-2.743504e-09	-1.976260e+01	-1.808832e+02
8.000000e-08	-2.628946e-06	-2.755362e-09	-1.973526e+01	-1.808509e+02
9.000000e-08	-2.624992e-06	-2.771383e-09	-1.970558e+01	-1.808063e+02
1.000000e-07	-2.620714e-06	-2.782328e-09	-1.967346e+01	-1.807513e+02
1.100000e-07	-2.616054e-06	-2.729372e-09	-1.963848e+01	-1.806876e+02
1.200000e-07	-2.610936e-06	-2.714667e-09	-1.960006e+01	-1.806163e+02
1.300000e-07	-2.605357e-06	-2.751765e-09	-1.955818e+01	-1.805381e+02
1.400000e-07	-2.599415e-06	-2.790498e-09	-1.951357e+01	-1.804529e+02
1.500000e-07	-2.592960e-06	-2.759500e-09	-1.946511e+01	-1.803600e+02
1.600000e-07	-2.585888e-06	-2.689120e-09	-1.941202e+01	-1.802583e+02
1.700000e-07	-2.578460e-06	-2.710386e-09	-1.935626e+01	-1.801456e+02
1.800000e-07	-2.570778e-06	-2.747514e-09	-1.929860e+01	-1.800197e+02
1.900000e-07	-2.562719e-06	-2.781987e-09	-1.923810e+01	-1.798777e+02
2.000000e-07	-2.554223e-06	-2.727292e-09	-1.917432e+01	-1.797168e+02
2.100000e-07	-2.545258e-06	-2.686580e-09	-1.910702e+01	-1.795340e+02
2.200000e-07	-2.535728e-06	-2.714216e-09	-1.903548e+01	-1.793266e+02
2.300000e-07	-2.525387e-06	-2.792194e-09	-1.895785e+01	-1.790921e+02
2.400000e-07	-2.514288e-06	-2.797448e-09	-1.887453e+01	-1.788287e+02
2.500000e-07	-2.502746e-06	-2.681956e-09	-1.878789e+01	-1.785352e+02
2.600000e-07	-2.490796e-06	-2.662388e-09	-1.869818e+01	-1.782109e+02
2.700000e-07	-2.478328e-06	-2.746573e-09	-1.860459e+01	-1.778563e+02
2.800000e-07	-2.465380e-06	-2.769897e-09	-1.850739e+01	-1.774721e+02
2.900000e-07	-2.452001e-06	-2.651872e-09	-1.840695e+01	-1.770601e+02
3.000000e-07	-2.438117e-06	-2.613905e-09	-1.830272e+01	-1.766224e+02
3.100000e-07	-2.423700e-06	-2.699430e-09	-1.819450e+01	-1.761616e+02
3.200000e-07	-2.408711e-06	-2.713164e-09	-1.808197e+01	-1.756806e+02
3.300000e-07	-2.393039e-06	-2.648360e-09	-1.796432e+01	-1.751824e+02
3.400000e-07	-2.376770e-06	-2.618499e-09	-1.784220e+01	-1.746697e+02
3.500000e-07	-2.360146e-06	-2.636164e-09	-1.771740e+01	-1.741452e+02
3.600000e-07	-2.343206e-06	-2.641522e-09	-1.759023e+01	-1.736107e+02
3.700000e-07	-2.325858e-06	-2.644581e-09	-1.746000e+01	-1.730680e+02
3.800000e-07	-2.308149e-06	-2.622364e-09	-1.732706e+01	-1.725177e+02
3.900000e-07	-2.290047e-06	-2.571868e-09	-1.719117e+01	-1.719601e+02
4.000000e-07	-2.271521e-06	-2.581856e-09	-1.705210e+01	-1.713947e+02
4.100000e-07	-2.252579e-06	-2.635015e-09	-1.690991e+01	-1.708201e+02
4.200000e-07	-2.233224e-06	-2.605460e-09	-1.676461e+01	-1.702348e+02
4.300000e-07	-2.213616e-06	-2.526665e-09	-1.661742e+01	-1.696366e+02
4.400000e-07	-2.193770e-06	-2.538473e-09	-1.646843e+01	-1.690230e+02
4.500000e-07	-2.173698e-06	-2.597537e-09	-1.631775e+01	-1.683916e+02
4.600000e-07	-2.153346e-06	-2.564917e-09	-1.616497e+01	-1.677398e+02
4.700000e-07	-2.132602e-06	-2.488468e-09	-1.600925e+01	-1.670655e+02
4.800000e-07	-2.111477e-06	-2.496978e-09	-1.585067e+01	-1.663666e+02
4.900000e-07	-2.090016e-06	-2.536886e-09	-1.568956e+01	-1.656415e+02
5.000000e-07	-2.068241e-06	-2.508273e-09	-1.552609e+01	-1.648893e+02
5.100000e-07	-2.046079e-06	-2.462598e-09	-1.535973e+01	-1.641094e+02
5.200000e-07	-2.023495e-06	-2.460275e-09	-1.519019e+01	-1.633017e+02
5.300000e-07	-2.000543e-06	-2.465766e-09	-1.501790e+01	-1.624666e+02
5.400000e-07	-1.977319e-06	-2.453025e-09	-1.484356e+01	-1.616049e+02
5.500000e-07	-1.953818e-06	-2.437254e-09	-1.466713e+01	-1.607175e+02
5.600000e-07	-1.930058e-06	-2.413144e-09	-1.448877e+01	-1.598056e+02
5.700000e-07	-1.906094e-06	-2.389774e-09	-1.430887e+01	-1.588704e+02
5.800000e-07	-1.881830e-06	-2.396461e-09	-1.412672e+01	-1.579129e+02
5.900000e-07	-1.857108e-06	-2.392794e-09	-1.394114e+01	-1.569339e+02
6.000000e-07	-1.831815e-06	-2.351913e-09	-1.375127e+01	-1.559340e+02
6.100000e-07	-1.805996e-06	-2.322274e-09	-1.355745e+01	-1.549132e+02
6.200000e-07	-1.779681e-06	-2.330784e-09	-1.335990e+01	-1.538715e+02
6.300000e-07	-1.752879e-06	-2.331948e-09	-1.315870e+01	-1.528083e+02
6.400000e-07	-1.725711e-06	-2.291852e-09	-1.295475e+01	-1.517226e+02
6.500000e-07	-1.698299e-06	-2.258343e-09	-1.274897e+01	-1.506134e+02
6.600000e-07	-1.670720e-06	-2.260956e-09	-1.254194e+01	-1.494794e+02
6.700000e-07	-1.642970e-06	-2.258934e-09	-1.233363e+01	-1.483191e+02
6.800000e-07	-1.615022e-06	-2.225325e-09	-1.212383e+01	-1.471314e+02
6.900000e-07	-1.586833e-06	-2.191968e-09	-1.191221e+01	-1.459150e+02
7.000000e-07	-1.558359e-06	-2.181939e-09	-1.169846e+01	-1.446690e+02
7.100000e-07	-1.529628e-06	-2.170502e-09	-1.148278e+01	-1.433929e+02
7.200000e-07	-1.500571e-06	-2.148117e-09	-1.126465e+01	-1.420864e+02
7.300000e-07	-1.471182e-06	-2.122144e-09	-1.104403e+01	-1.407496e+02
7.400000e-07	-1.441625e-06	-2.094386e-09	-1.082215e+01	-1.393830e+02
7.500000e-07	-1.411908e-06	-2.074733e-09	-1.059907e+01	-1.379874e+02
7.600000e-07	-1.381996e-06	-2.061602e-09	-1.037452e+01	-1.365637e+02
7.700000e-07	-1.351883e-06	-2.037110e-09	-1.014846e+01	-1.351130e+02
7.800000e-07	-1.321530e-06	-2.000896e-09	-9.920603e+00	-1.336364e+02
7.900000e-07	-1.290897e-06	-1.977384e-09	-9.690650e+00	-1.321349e+02
8.000000e-07	-1.260016e-06	-1.968810e-09	-9.458824e+00	-1.306092e+02
8.100000e-07	-1.228968e-06	-1.945279e-09	-9.225755e+00	-1.290599e+02
8.200000e-07	-1.197738e-06	-1.907945e-09	-8.991309e+00	-1.274870e+02
8.300000e-07	-1.166304e-06	-1.882999e-09	-8.755337e+00	-1.258898e+02
8.400000e-07	-1.134720e-06	-1.868281e-09	-8.518242e+00	-1.242676e+02
8.500000e-07	-1.103035e-06	-1.844706e-09	-8.280382e+00	-1.226189e+02
8.600000e-07	-1.071258e-06	-1.807364e-09	-8.041836e+00	-1.209416e+02
8.700000e-07	-1.039347e-06	-1.776057e-09	-7.802287e+00	-1.192335e+02
8.800000e-07	-1.007274e-06	-1.756840e-09	-7.561513e+00	-1.174919e+02
8.900000e-07	-9.750494e-07	-1.732977e-09	-7.319607e+00	-1.157138e+02
9.000000e-07	-9.426601e-07	-1.699834e-09	-7.076464e+00	-1.138963e+02
9.100000e-07	-9.100457e-07	-1.666471e-09	-6.831630e+00	-1.120362e+02
9.200000e-07	-8.771903e-07	-1.637325e-09	-6.584988e+00	-1.101307e+02
9.300000e-07	-8.441517e-07	-1.609409e-09	-6.336970e+00	-1.081771e+02
9.400000e-07	-8.108923e-07	-1.579036e-09	-6.087295e+00	-1.061729e+02
9.500000e-07	-7.772950e-07	-1.543679e-09	-5.835083e+00	-1.041159e+02
9.600000e-07	-7.433803e-07	-1.508604e-09	-5.580488e+00	-1.020046e+02
9.700000e-07	-7.092448e-07	-1.479166e-09	-5.324236e+00	-9.983748e+01
9.800000e-07	-6.749589e-07	-1.448245e-09	-5.066856e+00	-9.761350e+01
9.900000e-07	-6.405161e-07	-1.408545e-09	-4.808296e+00	-9.533195e+01
1.000000e-06	-6.058326e-07	-1.367631e-09	-4.547931e+00	-9.299231e+01
1.010000e-06	-5.709543e-07	-1.333950e-09	-4.286102e+00	-9.059421e+01
1.020000e-06	-5.359202e-07	-1.301485e-09	-4.023105e+00	-8.813735e+01
1.030000e-06	-5.007902e-07	-1.260395e-09	-3.759387e+00	-8.562144e+01
1.040000e-06	-4.656060e-07	-1.215100e-09	-3.495262e+00	-8.304611e+01
1.050000e-06	-4.303087e-07	-1.176035e-09	-3.230288e+00	-8.041084e+01
1.060000e-06	-3.949125e-07	-1.139221e-09	-2.964573e+00	-7.771496e+01
1.070000e-06	-3.594003e-07	-1.098329e-09	-2.697985e+00	-7.495764e+01
1.080000e-06	-3.238353e-07	-1.053447e-09	-2.431002e+00	-7.213787e+01
1.090000e-06	-2.882867e-07	-1.009517e-09	-2.164142e+00	-6.925452e+01
1.100000e-06	-2.527102e-07	-9.687402e-10	-1.897072e+00	-6.630639e+01
1.110000e-06	-2.171085e-07	-9.259048e-10	-1.629814e+00	-6.329230e+01
1.120000e-06	-1.814977e-07	-8.794213e-10	-1.362487e+00	-6.021114e+01
1.130000e-06	-1.458703e-07	-8.314834e-10	-1.095035e+00	-5.706204e+01
1.140000e-06	-1.102209e-07	-7.861012e-10	-8.274182e-01	-5.384437e+01
1.150000e-06	-7.455213e-08	-7.406691e-10	-5.596561e-01	-5.055794e+01
1.160000e-06	-3.889009e-08	-6.885673e-10	-2.919444e-01	-4.720300e+01
1.170000e-06	-3.245988e-09	-6.344690e-10	-2.436733e-02	-4.378035e+01
1.180000e-06	3.237846e-08	-5.838560e-10	2.430622e-01	-4.029142e+01
1.190000e-06	6.800069e-08	-5.338070e-10	5.104750e-01	-3.673823e+01
1.200000e-06	1.036375e-07	-4.805167e-10	7.779971e-01	-3.312350e+01
1.210000e-06	1.392812e-07	-4.243849e-10	1.045572e+00	-2.945058e+01
1.220000e-06	1.748831e-07	-3.716362e-10	1.312831e+00	-2.572345e+01
1.230000e-06	2.104693e-07	-3.212937e-10	1.579974e+00	-2.194668e+01
1.240000e-06	2.460963e-07	-2.665797e-10	1.847422e+00	-1.812541e+01
1.250000e-06	2.817155e-07	-2.071325e-10	2.114813e+00	-1.426523e+01
1.260000e-06	3.172746e-07	-1.486249e-10	2.381752e+00	-1.037217e+01
1.270000e-06	3.527925e-07	-9.303252e-11	2.648381e+00	-6.452620e+00
1.280000e-06	3.882803e-07	-3.581559e-11	2.914785e+00	-2.513233e+00
1.290000e-06	4.236921e-07	2.241417e-11	3.180618e+00	1.439121e+00
1.300000e-06	4.590285e-07	8.110754e-11	3.445886e+00	5.397439e+00
1.310000e-06	4.942897e-07	1.397829e-10	3.710588e+00	9.354648e+00
1.320000e-06	5.294519e-07	1.975805e-10	3.974547e+00	1.330368e+01
1.330000e-06	5.644766e-07	2.552643e-10	4.237475e+00	1.723754e+01
1.340000e-06	5.993462e-07	3.146476e-10	4.499237e+00	2.114939e+01
1.350000e-06	6.341428e-07	3.757541e-10	4.760453e+00	2.503261e+01
1.360000e-06	6.687485e-07	4.347936e-10	5.020235e+00	2.888086e+01
1.370000e-06	7.030108e-07	4.916056e-10	5.277439e+00	3.268820e+01
1.380000e-06	7.370631e-07	5.489568e-10	5.533066e+00	3.644915e+01
1.390000e-06	7.709453e-07	6.054888e-10	5.787416e+00	4.015875e+01
1.400000e-06	8.045044e-07	6.599601e-10	6.039341e+00	4.381267e+01
1.410000e-06	8.377647e-07	7.123775e-10	6.289023e+00	4.740724e+01
1.420000e-06	8.708548e-07	7.623248e-10	6.537428e+00	5.093954e+01
1.430000e-06	9.037630e-07	8.130880e-10	6.784467e+00	5.440741e+01
1.440000e-06	9.364734e-07	8.638644e-10	7.030021e+00	5.780949e+01
1.450000e-06	9.689087e-07	9.135799e-10	7.273510e+00	6.114522e+01
1.460000e-06	1.001080e-06	9.614628e-10	7.515019e+00	6.441478e+01
1.470000e-06	1.033088e-06	1.008175e-09	7.755301e+00	6.761908e+01
1.480000e-06	1.064960e-06	1.055163e-09	7.994560e+00	7.075963e+01
1.490000e-06	1.096764e-06	1.100023e-09	8.233305e+00	7.383848e+01
1.500000e-06	1.128521e-06	1.145042e-09	8.471707e+00	7.685805e+01
1.510000e-06	1.160207e-06	1.190204e-09	8.709568e+00	7.982102e+01
1.520000e-06	1.191777e-06	1.234390e-09	8.946561e+00	8.273013e+01
1.530000e-06	1.223195e-06	1.278872e-09	9.182411e+00	8.558809e+01
1.540000e-06	1.254415e-06	1.320851e-09	9.416779e+00	8.839737e+01
1.550000e-06	1.285337e-06	1.360555e-09	9.648908e+00	9.116010e+01
1.560000e-06	1.315950e-06	1.400557e-09	9.878716e+00	9.387793e+01
1.570000e-06	1.346276e-06	1.441667e-09	1.010638e+01	9.655198e+01
1.580000e-06	1.376341e-06	1.479497e-09	1.033207e+01	9.918276e+01
1.590000e-06	1.406238e-06	1.514567e-09	1.055650e+01	1.017702e+02
1.600000e-06	1.435966e-06	1.552429e-09	1.077966e+01	1.043135e+02
1.610000e-06	1.465484e-06	1.591067e-09	1.100125e+01	1.068116e+02
1.620000e-06	1.494785e-06	1.628442e-09	1.122121e+01	1.092627e+02
1.630000e-06	1.523832e-06	1.662851e-09	1.143927e+01	1.116650e+02
1.640000e-06	1.552527e-06	1.694926e-09	1.165468e+01	1.140163e+02
1.650000e-06	1.580892e-06	1.727823e-09	1.186761e+01	1.163144e+02
1.660000e-06	1.608995e-06	1.761678e-09	1.207858e+01	1.185573e+02
1.670000e-06	1.636921e-06	1.795365e-09	1.228822e+01	1.207433e+02
1.680000e-06	1.664756e-06	1.824962e-09	1.249717e+01	1.228710e+02
1.690000e-06	1.692469e-06	1.852734e-09	1.270521e+01	1.249395e+02
1.700000e-06	1.720013e-06	1.883963e-09	1.291198e+01	1.269487e+02
1.710000e-06	1.747297e-06	1.915097e-09	1.311680e+01	1.288986e+02
1.720000e-06	1.774238e-06	1.944042e-09	1.331904e+01	1.307903e+02
1.730000e-06	1.800727e-06	1.972477e-09	1.351790e+01	1.326251e+02
1.740000e-06	1.826596e-06	2.000201e-09	1.371209e+01	1.344049e+02
1.750000e-06	1.851872e-06	2.027644e-09	1.390183e+01	1.361318e+02
1.760000e-06	1.876611e-06	2.054163e-09	1.408755e+01	1.378084e+02
1.770000e-06	1.900917e-06	2.078901e-09	1.427002e+01	1.394370e+02
1.780000e-06	1.924968e-06	2.102085e-09	1.445056e+01	1.410204e+02
1.790000e-06	1.948766e-06	2.125288e-09	1.462921e+01	1.425606e+02
1.800000e-06	1.972351e-06	2.148488e-09	1.480626e+01	1.440599e+02
1.810000e-06	1.995679e-06	2.171260e-09	1.498138e+01	1.455199e+02
1.820000e-06	2.018628e-06	2.194290e-09	1.515366e+01	1.469420e+02
1.830000e-06	2.041164e-06	2.216461e-09	1.532284e+01	1.483271e+02
1.840000e-06	2.063338e-06	2.238590e-09	1.548929e+01	1.496756e+02
1.850000e-06	2.085212e-06	2.260015e-09	1.565350e+01	1.509878e+02
1.860000e-06	2.106761e-06	2.280713e-09	1.581526e+01	1.522634e+02
1.870000e-06	2.127958e-06	2.299833e-09	1.597438e+01	1.535022e+02
1.880000e-06	2.148744e-06	2.317641e-09	1.613043e+01	1.547038e+02
1.890000e-06	2.169097e-06	2.335381e-09	1.628322e+01	1.558679e+02
1.900000e-06	2.189154e-06	2.353269e-09	1.643378e+01	1.569942e+02
1.910000e-06	2.208985e-06	2.371474e-09	1.658265e+01	1.580827e+02
1.920000e-06	2.228562e-06	2.388130e-09	1.672961e+01	1.591339e+02
1.930000e-06	2.247887e-06	2.404097e-09	1.687468e+01	1.601483e+02
1.940000e-06	2.266906e-06	2.419290e-09	1.701746e+01	1.611269e+02
1.950000e-06	2.285465e-06	2.435245e-09	1.715678e+01	1.620711e+02
1.960000e-06	2.303453e-06	2.451957e-09	1.729181e+01	1.629826e+02
1.970000e-06	2.320989e-06	2.465400e-09	1.742345e+01	1.638630e+02
1.980000e-06	2.338184e-06	2.476187e-09	1.755254e+01	1.647145e+02
1.990000e-06	2.355026e-06	2.489573e-09	1.767897e+01	1.655389e+02
2.000000e-06	2.371534e-06	2.505033e-09	1.780289e+01	1.663380e+02
2.010000e-06	2.387635e-06	2.517532e-09	1.792376e+01	1.671135e+02
2.020000e-06	2.403203e-06	2.527033e-09	1.804063e+01	1.678668e+02
2.030000e-06	2.418147e-06	2.537658e-09	1.815281e+01	1.685988e+02
2.040000e-06	2.432503e-06	2.550702e-09	1.826058e+01	1.693101e+02
2.050000e-06	2.446502e-06	2.565417e-09	1.836567e+01	1.700009e+02
2.060000e-06	2.460165e-06	2.578524e-09	1.846824e+01	1.706709e+02
2.070000e-06	2.473343e-06	2.587951e-09	1.856716e+01	1.713196e+02
2.080000e-06	2.486051e-06	2.597468e-09	1.866256e+01	1.719461e+02
2.090000e-06	2.498345e-06	2.608087e-09	1.875485e+01	1.725496e+02
2.100000e-06	2.510215e-06	2.617274e-09	1.884396e+01	1.731289e+02
2.110000e-06	2.521632e-06	2.625266e-09	1.892966e+01	1.736833e+02
2.120000e-06	2.532540e-06	2.633346e-09	1.901155e+01	1.742119e+02
2.130000e-06	2.542794e-06	2.641975e-09	1.908852e+01	1.747144e+02
2.140000e-06	2.552359e-06	2.651590e-09	1.916033e+01	1.751905e+02
2.150000e-06	2.561270e-06	2.661744e-09	1.922722e+01	1.756408e+02
2.160000e-06	2.569605e-06	2.671390e-09	1.928979e+01	1.760659e+02
2.170000e-06	2.577560e-06	2.678258e-09	1.934951e+01	1.764670e+02
2.180000e-06	2.585241e-06	2.685120e-09	1.940717e+01	1.768455e+02
2.190000e-06	2.592528e-06	2.693852e-09	1.946188e+01	1.772033e+02
2.200000e-06	2.599354e-06	2.700843e-09	1.951311e+01	1.775423e+02
2.210000e-06	2.605777e-06	2.705698e-09	1.956133e+01	1.778643e+02
2.220000e-06	2.611776e-06	2.711376e-09	1.960637e+01	1.781714e+02
2.230000e-06	2.617349e-06	2.717596e-09	1.964820e+01	1.784650e+02
2.240000e-06	2.622433e-06	2.723389e-09	1.968637e+01	1.787465e+02
2.250000e-06	2.626984e-06	2.728998e-09	1.972053e+01	1.790168e+02
2.260000e-06	2.631145e-06	2.732883e-09	1.975177e+01	1.792764e+02
2.270000e-06	2.635022e-06	2.736382e-09	1.978087e+01	1.795250e+02
2.280000e-06	2.638589e-06	2.741318e-09	1.980764e+01	1.797621e+02
2.290000e-06	2.641780e-06	2.746273e-09	1.983160e+01	1.799869e+02
2.300000e-06	2.644387e-06	2.749187e-09	1.985117e+01	1.801978e+02
2.310000e-06	2.646239e-06	2.751352e-09	1.986507e+01	1.803934e+02
2.320000e-06	2.647337e-06	2.755233e-09	1.987332e+01	1.805720e+02
2.330000e-06	2.647847e-06	2.760068e-09	1.987715e+01	1.807320e+02
2.340000e-06	2.648027e-06	2.765078e-09	1.987850e+01	1.808719e+02
2.350000e-06	2.647890e-06	2.766764e-09	1.987747e+01	1.809907e+02
2.360000e-06	2.647363e-06	2.766689e-09	1.987352e+01	1.810876e+02
2.370000e-06	2.646428e-06	2.770322e-09	1.986650e+01	1.811624e+02
2.380000e-06	2.645059e-06	2.772780e-09	1.985622e+01	1.812155e+02
2.390000e-06	2.643252e-06	2.771659e-09	1.984265e+01	1.812476e+02
2.400000e-06	2.641053e-06	2.771527e-09	1.982615e+01	1.812601e+02
2.410000e-06	2.638469e-06	2.778133e-09	1.980675e+01	1.812546e+02
2.420000e-06	2.635428e-06	2.767825e-09	1.978392e+01	1.812332e+02
2.430000e-06	2.631913e-06	2.762657e-09	1.975753e+01	1.811979e+02
2.440000e-06	2.628003e-06	2.747361e-09	1.972818e+01	1.811508e+02
2.450000e-06	2.623818e-06	2.779685e-09	1.969676e+01	1.810937e+02
2.460000e-06	2.619304e-06	2.799275e-09	1.966288e+01	1.810283e+02
2.470000e-06	2.614196e-06	2.764574e-09	1.962453e+01	1.809554e+02
2.480000e-06	2.608275e-06	2.735856e-09	1.958009e+01	1.808757e+02
2.490000e-06	2.601849e-06	2.750990e-09	1.953185e+01	1.807890e+02
2.500000e-06	2.595137e-06	2.789928e-09	1.948146e+01	1.806943e+02
2.510000e-06	2.587794e-06	2.777158e-09	1.942634e+01	1.805903e+02
2.520000e-06	2.579908e-06	2.750677e-09	1.936714e+01	1.804748e+02
2.530000e-06	2.571716e-06	2.718529e-09	1.930564e+01	1.803454e+02
2.540000e-06	2.563130e-06	2.749103e-09	1.924118e+01	1.801992e+02
2.550000e-06	2.554015e-06	2.788028e-09	1.917276e+01	1.800334e+02
2.560000e-06	2.544440e-06	2.772828e-09	1.910088e+01	1.798449e+02
2.570000e-06	2.534611e-06	2.698544e-09	1.902709e+01	1.796311e+02
2.580000e-06	2.524335e-06	2.691748e-09	1.894995e+01	1.793898e+02
2.590000e-06	2.513482e-06	2.779474e-09	1.886848e+01	1.791193e+02
2.600000e-06	2.502205e-06	2.775353e-09	1.878383e+01	1.788183e+02
2.610000e-06	2.490537e-06	2.678565e-09	1.869623e+01	1.784867e+02
2.620000e-06	2.478343e-06	2.663479e-09	1.860469e+01	1.781248e+02
2.630000e-06	2.465591e-06	2.761260e-09	1.850897e+01	1.777337e+02
2.640000e-06	2.452415e-06	2.755699e-09	1.841006e+01	1.773153e+02
2.650000e-06	2.438610e-06	2.666569e-09	1.830642e+01	1.768718e+02
2.660000e-06	2.423902e-06	2.673538e-09	1.819601e+01	1.764060e+02
2.670000e-06	2.408528e-06	2.722579e-09	1.808060e+01	1.759207e+02
2.680000e-06	2.392777e-06	2.700196e-09	1.796236e+01	1.754188e+02
2.690000e-06	2.376686e-06	2.668009e-09	1.784157e+01	1.749032e+02
2.700000e-06	2.360278e-06	2.683697e-09	1.771839e+01	1.743763e+02
2.710000e-06	2.343601e-06	2.659215e-09	1.759320e+01	1.738399e+02
2.720000e-06	2.326594e-06	2.638090e-09	1.746553e+01	1.732955e+02
2.730000e-06	2.309112e-06	2.676330e-09	1.733430e+01	1.727437e+02
2.740000e-06	2.291195e-06	2.665071e-09	1.719979e+01	1.721844e+02
2.750000e-06	2.272957e-06	2.597485e-09	1.706288e+01	1.716171e+02
2.760000e-06	2.254372e-06	2.601400e-09	1.692337e+01	1.710403e+02
2.770000e-06	2.235297e-06	2.657322e-09	1.678017e+01	1.704522e+02
2.780000e-06	2.215804e-06	2.625598e-09	1.663384e+01	1.698506e+02
2.790000e-06	2.196057e-06	2.560306e-09	1.648560e+01	1.692331e+02
2.800000e-06	2.176066e-06	2.578305e-09	1.633553e+01	1.685971e+02
2.810000e-06	2.155861e-06	2.614078e-09	1.618385e+01	1.679401e+02
2.820000e-06	2.135427e-06	2.579451e-09	1.603046e+01	1.672600e+02
2.830000e-06	2.114642e-06	2.531610e-09	1.587442e+01	1.665550e+02
2.840000e-06	2.093319e-06	2.542926e-09	1.571436e+01	1.658235e+02
2.850000e-06	2.071417e-06	2.557846e-09	1.554994e+01	1.650646e+02
2.860000e-06	2.048947e-06	2.523281e-09	1.538126e+01	1.642780e+02
2.870000e-06	2.025854e-06	2.497686e-09	1.520790e+01	1.634636e+02
2.880000e-06	2.002245e-06	2.500121e-09	1.503067e+01	1.626220e+02
2.890000e-06	1.978322e-06	2.485431e-09	1.485108e+01	1.617540e+02
2.900000e-06	1.954161e-06	2.467710e-09	1.466971e+01	1.608607e+02
2.910000e-06	1.929801e-06	2.466091e-09	1.448684e+01	1.599432e+02
2.920000e-06	1.905246e-06	2.448767e-09	1.430251e+01	1.590025e+02
2.930000e-06	1.880393e-06	2.420979e-09	1.411594e+01	1.580398e+02
2.940000e-06	1.855127e-06	2.418866e-09	1.392627e+01	1.570558e+02
