# Temperatura_=_20.0
# Concentracion g/m^3_=_12600.0
# C_Vs_to_Am_M_A/Vsm_=_65563218390.804596
# pendiente_HvsI_1/m_=_3716.3
# ordenada_HvsI_A/m_=_1297.0
# frecuencia_Hz_=_135007.26832046555

Tiempo_(s)	Campo_(V.s)	Magnetizacion_(V.s)	Campo_(kA/m)	Magnetizacion_(A/m)
0.000000e+00	-3.901621e-06	-2.917035e-09	-2.915533e+01	-1.923088e+02
1.000000e-08	-3.901759e-06	-2.915140e-09	-2.915636e+01	-1.923595e+02
2.000000e-08	-3.901687e-06	-2.918064e-09	-2.915582e+01	-1.923905e+02
3.000000e-08	-3.901432e-06	-2.927005e-09	-2.915392e+01	-1.923995e+02
4.000000e-08	-3.900909e-06	-2.945808e-09	-2.915001e+01	-1.923846e+02
5.000000e-08	-3.899946e-06	-2.963216e-09	-2.914282e+01	-1.923440e+02
6.000000e-08	-3.898528e-06	-2.952036e-09	-2.913222e+01	-1.922761e+02
7.000000e-08	-3.896742e-06	-2.915263e-09	-2.911887e+01	-1.921796e+02
8.000000e-08	-3.894495e-06	-2.840463e-09	-2.910208e+01	-1.920536e+02
9.000000e-08	-3.891679e-06	-2.785014e-09	-2.908104e+01	-1.918975e+02
1.000000e-07	-3.888539e-06	-2.774508e-09	-2.905758e+01	-1.917110e+02
1.100000e-07	-3.885198e-06	-2.887380e-09	-2.903261e+01	-1.914943e+02
1.200000e-07	-3.881630e-06	-2.923200e-09	-2.900595e+01	-1.912480e+02
1.300000e-07	-3.877829e-06	-2.889662e-09	-2.897754e+01	-1.909731e+02
1.400000e-07	-3.873836e-06	-2.896006e-09	-2.894771e+01	-1.906710e+02
1.500000e-07	-3.869696e-06	-2.824475e-09	-2.891677e+01	-1.903436e+02
1.600000e-07	-3.865373e-06	-2.852085e-09	-2.888447e+01	-1.899930e+02
1.700000e-07	-3.860877e-06	-2.907809e-09	-2.885087e+01	-1.896216e+02
1.800000e-07	-3.856129e-06	-2.906983e-09	-2.881539e+01	-1.892322e+02
1.900000e-07	-3.851014e-06	-2.838722e-09	-2.877717e+01	-1.888276e+02
2.000000e-07	-3.845596e-06	-2.816257e-09	-2.873668e+01	-1.884111e+02
2.100000e-07	-3.839929e-06	-2.864693e-09	-2.869433e+01	-1.879858e+02
2.200000e-07	-3.834033e-06	-2.924986e-09	-2.865027e+01	-1.875548e+02
2.300000e-07	-3.827854e-06	-2.890029e-09	-2.860410e+01	-1.871213e+02
2.400000e-07	-3.821284e-06	-2.808725e-09	-2.855501e+01	-1.866884e+02
2.500000e-07	-3.814397e-06	-2.795582e-09	-2.850354e+01	-1.862588e+02
2.600000e-07	-3.807297e-06	-2.841776e-09	-2.845049e+01	-1.858354e+02
2.700000e-07	-3.799972e-06	-2.885116e-09	-2.839575e+01	-1.854203e+02
2.800000e-07	-3.792428e-06	-2.861921e-09	-2.833938e+01	-1.850156e+02
2.900000e-07	-3.784694e-06	-2.806115e-09	-2.828158e+01	-1.846229e+02
3.000000e-07	-3.776789e-06	-2.773209e-09	-2.822251e+01	-1.842434e+02
3.100000e-07	-3.768800e-06	-2.812533e-09	-2.816281e+01	-1.838780e+02
3.200000e-07	-3.760631e-06	-2.853529e-09	-2.810176e+01	-1.835269e+02
3.300000e-07	-3.752130e-06	-2.842832e-09	-2.803825e+01	-1.831901e+02
3.400000e-07	-3.743297e-06	-2.775882e-09	-2.797224e+01	-1.828671e+02
3.500000e-07	-3.734039e-06	-2.742215e-09	-2.790306e+01	-1.825571e+02
3.600000e-07	-3.724341e-06	-2.778583e-09	-2.783058e+01	-1.822586e+02
3.700000e-07	-3.714282e-06	-2.831693e-09	-2.775542e+01	-1.819701e+02
3.800000e-07	-3.703760e-06	-2.804110e-09	-2.767679e+01	-1.816896e+02
3.900000e-07	-3.692753e-06	-2.736012e-09	-2.759454e+01	-1.814150e+02
4.000000e-07	-3.681441e-06	-2.718976e-09	-2.751001e+01	-1.811439e+02
4.100000e-07	-3.669844e-06	-2.773226e-09	-2.742335e+01	-1.808739e+02
4.200000e-07	-3.657941e-06	-2.808034e-09	-2.733440e+01	-1.806025e+02
4.300000e-07	-3.645806e-06	-2.764157e-09	-2.724373e+01	-1.803269e+02
4.400000e-07	-3.633444e-06	-2.688004e-09	-2.715135e+01	-1.800449e+02
4.500000e-07	-3.620809e-06	-2.689820e-09	-2.705693e+01	-1.797539e+02
4.600000e-07	-3.607892e-06	-2.767436e-09	-2.696041e+01	-1.794517e+02
4.700000e-07	-3.594703e-06	-2.792388e-09	-2.686185e+01	-1.791364e+02
4.800000e-07	-3.581231e-06	-2.711938e-09	-2.676118e+01	-1.788061e+02
4.900000e-07	-3.567503e-06	-2.644730e-09	-2.665860e+01	-1.784594e+02
5.000000e-07	-3.553512e-06	-2.690691e-09	-2.655405e+01	-1.780951e+02
5.100000e-07	-3.539303e-06	-2.759541e-09	-2.644787e+01	-1.777123e+02
5.200000e-07	-3.524723e-06	-2.736447e-09	-2.633892e+01	-1.773105e+02
5.300000e-07	-3.509666e-06	-2.658546e-09	-2.622640e+01	-1.768895e+02
5.400000e-07	-3.494296e-06	-2.638528e-09	-2.611154e+01	-1.764493e+02
5.500000e-07	-3.478586e-06	-2.681924e-09	-2.599415e+01	-1.759903e+02
5.600000e-07	-3.462560e-06	-2.715286e-09	-2.587440e+01	-1.755132e+02
5.700000e-07	-3.446238e-06	-2.684872e-09	-2.575243e+01	-1.750190e+02
5.800000e-07	-3.429625e-06	-2.629171e-09	-2.562828e+01	-1.745086e+02
5.900000e-07	-3.412773e-06	-2.619358e-09	-2.550235e+01	-1.739833e+02
6.000000e-07	-3.395780e-06	-2.663685e-09	-2.537538e+01	-1.734445e+02
6.100000e-07	-3.378608e-06	-2.680900e-09	-2.524706e+01	-1.728935e+02
6.200000e-07	-3.361128e-06	-2.637716e-09	-2.511643e+01	-1.723319e+02
6.300000e-07	-3.343423e-06	-2.593478e-09	-2.498413e+01	-1.717611e+02
6.400000e-07	-3.325564e-06	-2.602252e-09	-2.485068e+01	-1.711823e+02
6.500000e-07	-3.307469e-06	-2.626800e-09	-2.471546e+01	-1.705969e+02
6.600000e-07	-3.289099e-06	-2.617332e-09	-2.457819e+01	-1.700059e+02
6.700000e-07	-3.270458e-06	-2.578498e-09	-2.443889e+01	-1.694103e+02
6.800000e-07	-3.251583e-06	-2.554082e-09	-2.429784e+01	-1.688108e+02
6.900000e-07	-3.232459e-06	-2.561285e-09	-2.415494e+01	-1.682080e+02
7.000000e-07	-3.213077e-06	-2.574388e-09	-2.401010e+01	-1.676022e+02
7.100000e-07	-3.193536e-06	-2.561144e-09	-2.386408e+01	-1.669934e+02
7.200000e-07	-3.173818e-06	-2.530255e-09	-2.371673e+01	-1.663817e+02
7.300000e-07	-3.153944e-06	-2.512931e-09	-2.356823e+01	-1.657668e+02
7.400000e-07	-3.133978e-06	-2.517239e-09	-2.341903e+01	-1.651480e+02
7.500000e-07	-3.113902e-06	-2.520367e-09	-2.326901e+01	-1.645249e+02
7.600000e-07	-3.093696e-06	-2.505092e-09	-2.311802e+01	-1.638965e+02
7.700000e-07	-3.073284e-06	-2.481027e-09	-2.296549e+01	-1.632622e+02
7.800000e-07	-3.052668e-06	-2.465219e-09	-2.281143e+01	-1.626208e+02
7.900000e-07	-3.031858e-06	-2.464691e-09	-2.265592e+01	-1.619714e+02
8.000000e-07	-3.010825e-06	-2.463155e-09	-2.249875e+01	-1.613130e+02
8.100000e-07	-2.989552e-06	-2.448713e-09	-2.233979e+01	-1.606447e+02
8.200000e-07	-2.968041e-06	-2.430372e-09	-2.217905e+01	-1.599656e+02
8.300000e-07	-2.946385e-06	-2.422084e-09	-2.201722e+01	-1.592747e+02
8.400000e-07	-2.924560e-06	-2.420420e-09	-2.185413e+01	-1.585715e+02
8.500000e-07	-2.902551e-06	-2.414497e-09	-2.168966e+01	-1.578554e+02
8.600000e-07	-2.880319e-06	-2.399876e-09	-2.152353e+01	-1.571259e+02
8.700000e-07	-2.857824e-06	-2.383514e-09	-2.135543e+01	-1.563828e+02
8.800000e-07	-2.835179e-06	-2.369853e-09	-2.118622e+01	-1.556259e+02
8.900000e-07	-2.812380e-06	-2.360965e-09	-2.101585e+01	-1.548554e+02
9.000000e-07	-2.789384e-06	-2.351470e-09	-2.084400e+01	-1.540715e+02
9.100000e-07	-2.766171e-06	-2.339514e-09	-2.067054e+01	-1.532745e+02
9.200000e-07	-2.742683e-06	-2.326221e-09	-2.049503e+01	-1.524650e+02
9.300000e-07	-2.718983e-06	-2.314470e-09	-2.031793e+01	-1.516436e+02
9.400000e-07	-2.695185e-06	-2.306786e-09	-2.014009e+01	-1.508109e+02
9.500000e-07	-2.671296e-06	-2.298828e-09	-1.996158e+01	-1.499678e+02
9.600000e-07	-2.647270e-06	-2.284484e-09	-1.978204e+01	-1.491152e+02
9.700000e-07	-2.623093e-06	-2.264354e-09	-1.960138e+01	-1.482538e+02
9.800000e-07	-2.598820e-06	-2.247041e-09	-1.942000e+01	-1.473845e+02
9.900000e-07	-2.574410e-06	-2.239705e-09	-1.923759e+01	-1.465082e+02
1.000000e-06	-2.549774e-06	-2.232369e-09	-1.905350e+01	-1.456254e+02
1.010000e-06	-2.524936e-06	-2.213471e-09	-1.886789e+01	-1.447369e+02
1.020000e-06	-2.499904e-06	-2.190423e-09	-1.868083e+01	-1.438433e+02
1.030000e-06	-2.474624e-06	-2.177873e-09	-1.849193e+01	-1.429450e+02
1.040000e-06	-2.449052e-06	-2.173105e-09	-1.830083e+01	-1.420422e+02
1.050000e-06	-2.423173e-06	-2.162056e-09	-1.810745e+01	-1.411352e+02
1.060000e-06	-2.396855e-06	-2.143881e-09	-1.791079e+01	-1.402240e+02
1.070000e-06	-2.370194e-06	-2.126952e-09	-1.771156e+01	-1.393085e+02
1.080000e-06	-2.343377e-06	-2.114379e-09	-1.751117e+01	-1.383885e+02
1.090000e-06	-2.316277e-06	-2.103271e-09	-1.730866e+01	-1.374636e+02
1.100000e-06	-2.288938e-06	-2.089600e-09	-1.710436e+01	-1.365334e+02
1.110000e-06	-2.261481e-06	-2.071841e-09	-1.689919e+01	-1.355973e+02
1.120000e-06	-2.233864e-06	-2.051852e-09	-1.669282e+01	-1.346548e+02
1.130000e-06	-2.206171e-06	-2.034483e-09	-1.648588e+01	-1.337050e+02
1.140000e-06	-2.178418e-06	-2.024018e-09	-1.627849e+01	-1.327475e+02
1.150000e-06	-2.150558e-06	-2.010592e-09	-1.607030e+01	-1.317813e+02
1.160000e-06	-2.122598e-06	-1.991241e-09	-1.586137e+01	-1.308058e+02
1.170000e-06	-2.094515e-06	-1.969821e-09	-1.565152e+01	-1.298203e+02
1.180000e-06	-2.066290e-06	-1.953605e-09	-1.544060e+01	-1.288243e+02
1.190000e-06	-2.037950e-06	-1.943354e-09	-1.522883e+01	-1.278170e+02
1.200000e-06	-2.009527e-06	-1.930132e-09	-1.501643e+01	-1.267980e+02
1.210000e-06	-1.981019e-06	-1.910369e-09	-1.480341e+01	-1.257669e+02
1.220000e-06	-1.952335e-06	-1.890397e-09	-1.458906e+01	-1.247233e+02
1.230000e-06	-1.923490e-06	-1.876817e-09	-1.437351e+01	-1.236670e+02
1.240000e-06	-1.894587e-06	-1.862270e-09	-1.415753e+01	-1.225978e+02
1.250000e-06	-1.865530e-06	-1.842930e-09	-1.394040e+01	-1.215158e+02
1.260000e-06	-1.836261e-06	-1.823282e-09	-1.372168e+01	-1.204208e+02
1.270000e-06	-1.806767e-06	-1.806892e-09	-1.350129e+01	-1.193131e+02
1.280000e-06	-1.777155e-06	-1.791403e-09	-1.328001e+01	-1.181927e+02
1.290000e-06	-1.747529e-06	-1.772622e-09	-1.305862e+01	-1.170600e+02
1.300000e-06	-1.717863e-06	-1.751596e-09	-1.283694e+01	-1.159151e+02
1.310000e-06	-1.688042e-06	-1.733406e-09	-1.261410e+01	-1.147584e+02
1.320000e-06	-1.658076e-06	-1.716647e-09	-1.239017e+01	-1.135902e+02
1.330000e-06	-1.628049e-06	-1.698915e-09	-1.216579e+01	-1.124107e+02
1.340000e-06	-1.597967e-06	-1.679585e-09	-1.194100e+01	-1.112203e+02
1.350000e-06	-1.567795e-06	-1.659815e-09	-1.171553e+01	-1.100192e+02
1.360000e-06	-1.537518e-06	-1.641150e-09	-1.148929e+01	-1.088076e+02
1.370000e-06	-1.507169e-06	-1.624109e-09	-1.126250e+01	-1.075858e+02
1.380000e-06	-1.476725e-06	-1.606044e-09	-1.103500e+01	-1.063539e+02
1.390000e-06	-1.446132e-06	-1.588957e-09	-1.080640e+01	-1.051121e+02
1.400000e-06	-1.415447e-06	-1.574134e-09	-1.057709e+01	-1.038602e+02
1.410000e-06	-1.384669e-06	-1.556686e-09	-1.034710e+01	-1.025985e+02
1.420000e-06	-1.353810e-06	-1.535377e-09	-1.011650e+01	-1.013269e+02
1.430000e-06	-1.322871e-06	-1.514543e-09	-9.885315e+00	-1.000453e+02
1.440000e-06	-1.291852e-06	-1.496025e-09	-9.653522e+00	-9.875364e+01
1.450000e-06	-1.260772e-06	-1.475272e-09	-9.421267e+00	-9.745193e+01
1.460000e-06	-1.229466e-06	-1.452733e-09	-9.187335e+00	-9.614007e+01
1.470000e-06	-1.198025e-06	-1.431785e-09	-8.952384e+00	-9.481801e+01
1.480000e-06	-1.166512e-06	-1.414263e-09	-8.716898e+00	-9.348573e+01
1.490000e-06	-1.134922e-06	-1.398439e-09	-8.480838e+00	-9.214324e+01
1.500000e-06	-1.103292e-06	-1.380931e-09	-8.244480e+00	-9.079060e+01
1.510000e-06	-1.071621e-06	-1.361707e-09	-8.007815e+00	-8.942790e+01
1.520000e-06	-1.039940e-06	-1.341577e-09	-7.771075e+00	-8.805532e+01
1.530000e-06	-1.008163e-06	-1.319435e-09	-7.533619e+00	-8.667308e+01
1.540000e-06	-9.763278e-07	-1.293678e-09	-7.295726e+00	-8.528147e+01
1.550000e-06	-9.444792e-07	-1.268460e-09	-7.057735e+00	-8.388081e+01
1.560000e-06	-9.125589e-07	-1.244890e-09	-6.819206e+00	-8.247150e+01
1.570000e-06	-8.805814e-07	-1.221557e-09	-6.580250e+00	-8.105397e+01
1.580000e-06	-8.486133e-07	-1.199180e-09	-6.341365e+00	-7.962869e+01
1.590000e-06	-8.166670e-07	-1.175387e-09	-6.102642e+00	-7.819614e+01
1.600000e-06	-7.846485e-07	-1.151688e-09	-5.863381e+00	-7.675680e+01
1.610000e-06	-7.525976e-07	-1.129017e-09	-5.623876e+00	-7.531114e+01
1.620000e-06	-7.205789e-07	-1.107911e-09	-5.384613e+00	-7.385963e+01
1.630000e-06	-6.885247e-07	-1.086089e-09	-5.145084e+00	-7.240265e+01
1.640000e-06	-6.563826e-07	-1.065381e-09	-4.904898e+00	-7.094055e+01
1.650000e-06	-6.241807e-07	-1.042853e-09	-4.664265e+00	-6.947359e+01
1.660000e-06	-5.919869e-07	-1.017217e-09	-4.423693e+00	-6.800193e+01
1.670000e-06	-5.598263e-07	-9.937227e-10	-4.183370e+00	-6.652566e+01
1.680000e-06	-5.276437e-07	-9.739965e-10	-3.942881e+00	-6.504472e+01
1.690000e-06	-4.954012e-07	-9.549060e-10	-3.701945e+00	-6.355896e+01
1.700000e-06	-4.631159e-07	-9.343074e-10	-3.460690e+00	-6.206809e+01
1.710000e-06	-4.307883e-07	-9.121631e-10	-3.219117e+00	-6.057171e+01
1.720000e-06	-3.984106e-07	-8.883917e-10	-2.977171e+00	-5.906932e+01
1.730000e-06	-3.660627e-07	-8.628182e-10	-2.735448e+00	-5.756029e+01
1.740000e-06	-3.337414e-07	-8.374527e-10	-2.493923e+00	-5.604392e+01
1.750000e-06	-3.013522e-07	-8.135413e-10	-2.251890e+00	-5.451941e+01
1.760000e-06	-2.688996e-07	-7.887532e-10	-2.009385e+00	-5.298592e+01
1.770000e-06	-2.364160e-07	-7.640121e-10	-1.766647e+00	-5.144258e+01
1.780000e-06	-2.039218e-07	-7.388911e-10	-1.523830e+00	-4.988849e+01
1.790000e-06	-1.713751e-07	-7.139880e-10	-1.280621e+00	-4.832278e+01
1.800000e-06	-1.387851e-07	-6.890518e-10	-1.037088e+00	-4.674459e+01
1.810000e-06	-1.062777e-07	-6.646124e-10	-7.941732e-01	-4.515315e+01
1.820000e-06	-7.382202e-08	-6.407040e-10	-5.516439e-01	-4.354777e+01
1.830000e-06	-4.131389e-08	-6.183907e-10	-3.087230e-01	-4.192787e+01
1.840000e-06	-8.788511e-09	-5.936739e-10	-6.567320e-02	-4.029299e+01
1.850000e-06	2.368615e-08	-5.668163e-10	1.769976e-01	-3.864282e+01
1.860000e-06	5.609935e-08	-5.417486e-10	4.192092e-01	-3.697724e+01
1.870000e-06	8.847541e-08	-5.169600e-10	6.611432e-01	-3.529626e+01
1.880000e-06	1.208638e-07	-4.891990e-10	9.031693e-01	-3.360009e+01
1.890000e-06	1.533133e-07	-4.612013e-10	1.145652e+00	-3.188910e+01
1.900000e-06	1.858587e-07	-4.364458e-10	1.388851e+00	-3.016387e+01
1.910000e-06	2.183775e-07	-4.107087e-10	1.631852e+00	-2.842509e+01
1.920000e-06	2.507848e-07	-3.849294e-10	1.874020e+00	-2.667363e+01
1.930000e-06	2.831914e-07	-3.566468e-10	2.116182e+00	-2.491050e+01
1.940000e-06	3.156679e-07	-3.287718e-10	2.358867e+00	-2.313679e+01
1.950000e-06	3.481161e-07	-3.018897e-10	2.601339e+00	-2.135371e+01
1.960000e-06	3.804934e-07	-2.729245e-10	2.843283e+00	-1.956248e+01
1.970000e-06	4.128286e-07	-2.420122e-10	3.084911e+00	-1.776439e+01
1.980000e-06	4.450986e-07	-2.137747e-10	3.326052e+00	-1.596070e+01
1.990000e-06	4.773174e-07	-1.891684e-10	3.566811e+00	-1.415265e+01
2.000000e-06	5.095530e-07	-1.653184e-10	3.807696e+00	-1.234140e+01
2.010000e-06	5.417980e-07	-1.389971e-10	4.048651e+00	-1.052803e+01
2.020000e-06	5.739666e-07	-1.116017e-10	4.289034e+00	-8.713488e+00
2.030000e-06	6.060753e-07	-8.391089e-11	4.528970e+00	-6.898585e+00
2.040000e-06	6.381608e-07	-5.470167e-11	4.768733e+00	-5.083970e+00
2.050000e-06	6.702308e-07	-2.414397e-11	5.008381e+00	-3.270112e+00
2.060000e-06	7.023340e-07	5.415871e-12	5.248276e+00	-1.457296e+00
2.070000e-06	7.344241e-07	3.375910e-11	5.488072e+00	3.543885e-01
2.080000e-06	7.664458e-07	6.270291e-11	5.727358e+00	2.165041e+00
2.090000e-06	7.984424e-07	9.227439e-11	5.966457e+00	3.974947e+00
2.100000e-06	8.304117e-07	1.214349e-10	6.205351e+00	5.784568e+00
2.110000e-06	8.623882e-07	1.467970e-10	6.444300e+00	7.594523e+00
2.120000e-06	8.943251e-07	1.719477e-10	6.682951e+00	9.405568e+00
2.130000e-06	9.262167e-07	1.987404e-10	6.921266e+00	1.121858e+01
2.140000e-06	9.581180e-07	2.276168e-10	7.159652e+00	1.303451e+01
2.150000e-06	9.899705e-07	2.548788e-10	7.397674e+00	1.485437e+01
2.160000e-06	1.021776e-06	2.820968e-10	7.635342e+00	1.667921e+01
2.170000e-06	1.053553e-06	3.117343e-10	7.872801e+00	1.851007e+01
2.180000e-06	1.085226e-06	3.420575e-10	8.109479e+00	2.034792e+01
2.190000e-06	1.116795e-06	3.698642e-10	8.345387e+00	2.219371e+01
2.200000e-06	1.148362e-06	3.966047e-10	8.581276e+00	2.404825e+01
2.210000e-06	1.179913e-06	4.248863e-10	8.817039e+00	2.591224e+01
2.220000e-06	1.211322e-06	4.542191e-10	9.051750e+00	2.778625e+01
2.230000e-06	1.242521e-06	4.836979e-10	9.284886e+00	2.967066e+01
2.240000e-06	1.273689e-06	5.139415e-10	9.517791e+00	3.156567e+01
2.250000e-06	1.304872e-06	5.449079e-10	9.750814e+00	3.347130e+01
2.260000e-06	1.335906e-06	5.766308e-10	9.982718e+00	3.538738e+01
2.270000e-06	1.366785e-06	6.064577e-10	1.021346e+01	3.731354e+01
2.280000e-06	1.397575e-06	6.337223e-10	1.044355e+01	3.924922e+01
2.290000e-06	1.428214e-06	6.602338e-10	1.067250e+01	4.119369e+01
2.300000e-06	1.458761e-06	6.885585e-10	1.090077e+01	4.314607e+01
2.310000e-06	1.489298e-06	7.179094e-10	1.112896e+01	4.510532e+01
2.320000e-06	1.519724e-06	7.466613e-10	1.135632e+01	4.707028e+01
2.330000e-06	1.550013e-06	7.747710e-10	1.158266e+01	4.903973e+01
2.340000e-06	1.580189e-06	8.033194e-10	1.180815e+01	5.101235e+01
2.350000e-06	1.610293e-06	8.350824e-10	1.203311e+01	5.298680e+01
2.360000e-06	1.640261e-06	8.684321e-10	1.225705e+01	5.496173e+01
2.370000e-06	1.670072e-06	9.008641e-10	1.247981e+01	5.693579e+01
2.380000e-06	1.699844e-06	9.314807e-10	1.270229e+01	5.890771e+01
2.390000e-06	1.729605e-06	9.611003e-10	1.292468e+01	6.087625e+01
2.400000e-06	1.759266e-06	9.893009e-10	1.314632e+01	6.284028e+01
2.410000e-06	1.788761e-06	1.018303e-09	1.336673e+01	6.479877e+01
2.420000e-06	1.818091e-06	1.048683e-09	1.358590e+01	6.675083e+01
2.430000e-06	1.847275e-06	1.078542e-09	1.380398e+01	6.869567e+01
2.440000e-06	1.876328e-06	1.106296e-09	1.402108e+01	7.063265e+01
2.450000e-06	1.905215e-06	1.135818e-09	1.423695e+01	7.256127e+01
2.460000e-06	1.933943e-06	1.168188e-09	1.445162e+01	7.448115e+01
2.470000e-06	1.962589e-06	1.199330e-09	1.466569e+01	7.639204e+01
2.480000e-06	1.991154e-06	1.225457e-09	1.487914e+01	7.829380e+01
2.490000e-06	2.019598e-06	1.251752e-09	1.509169e+01	8.018638e+01
2.500000e-06	2.047893e-06	1.283456e-09	1.530313e+01	8.206982e+01
2.510000e-06	2.076028e-06	1.315081e-09	1.551337e+01	8.394421e+01
2.520000e-06	2.104105e-06	1.342045e-09	1.572317e+01	8.580968e+01
2.530000e-06	2.132138e-06	1.367715e-09	1.593265e+01	8.766637e+01
2.540000e-06	2.160091e-06	1.395603e-09	1.614154e+01	8.951442e+01
2.550000e-06	2.187941e-06	1.425063e-09	1.634965e+01	9.135393e+01
2.560000e-06	2.215689e-06	1.454402e-09	1.655700e+01	9.318496e+01
2.570000e-06	2.243367e-06	1.480988e-09	1.676383e+01	9.500751e+01
2.580000e-06	2.270907e-06	1.508390e-09	1.696962e+01	9.682147e+01
2.590000e-06	2.298205e-06	1.540456e-09	1.717361e+01	9.862667e+01
2.600000e-06	2.325287e-06	1.570589e-09	1.737599e+01	1.004228e+02
2.610000e-06	2.352134e-06	1.595083e-09	1.757660e+01	1.022095e+02
2.620000e-06	2.378766e-06	1.618228e-09	1.777561e+01	1.039863e+02
2.630000e-06	2.405178e-06	1.643831e-09	1.797298e+01	1.057525e+02
2.640000e-06	2.431317e-06	1.670500e-09	1.816831e+01	1.075074e+02
2.650000e-06	2.457110e-06	1.695172e-09	1.836105e+01	1.092503e+02
2.660000e-06	2.482524e-06	1.720016e-09	1.855096e+01	1.109802e+02
2.670000e-06	2.507656e-06	1.745956e-09	1.873876e+01	1.126963e+02
2.680000e-06	2.532580e-06	1.773616e-09	1.892501e+01	1.143976e+02
2.690000e-06	2.557224e-06	1.801556e-09	1.910916e+01	1.160831e+02
2.700000e-06	2.581630e-06	1.827835e-09	1.929154e+01	1.177517e+02
2.710000e-06	2.605981e-06	1.851787e-09	1.947351e+01	1.194026e+02
2.720000e-06	2.630188e-06	1.876602e-09	1.965439e+01	1.210347e+02
2.730000e-06	2.654202e-06	1.902812e-09	1.983385e+01	1.226472e+02
2.740000e-06	2.678133e-06	1.926670e-09	2.001267e+01	1.242393e+02
2.750000e-06	2.701971e-06	1.947326e-09	2.019080e+01	1.258102e+02
2.760000e-06	2.725597e-06	1.969850e-09	2.036735e+01	1.273593e+02
2.770000e-06	2.749058e-06	1.996799e-09	2.054266e+01	1.288860e+02
2.780000e-06	2.772370e-06	2.022973e-09	2.071687e+01	1.303900e+02
2.790000e-06	2.795429e-06	2.044207e-09	2.088918e+01	1.318710e+02
2.800000e-06	2.818247e-06	2.064842e-09	2.105969e+01	1.333287e+02
2.810000e-06	2.840878e-06	2.086593e-09	2.122880e+01	1.347631e+02
2.820000e-06	2.863351e-06	2.110034e-09	2.139673e+01	1.361743e+02
2.830000e-06	2.885571e-06	2.132196e-09	2.156278e+01	1.375622e+02
2.840000e-06	2.907595e-06	2.150429e-09	2.172736e+01	1.389272e+02
2.850000e-06	2.929473e-06	2.167969e-09	2.189084e+01	1.402695e+02
2.860000e-06	2.951092e-06	2.188978e-09	2.205239e+01	1.415893e+02
2.870000e-06	2.972495e-06	2.212247e-09	2.221232e+01	1.428871e+02
2.880000e-06	2.993769e-06	2.233050e-09	2.237130e+01	1.441632e+02
2.890000e-06	3.014852e-06	2.251979e-09	2.252884e+01	1.454180e+02
2.900000e-06	3.035685e-06	2.269110e-09	2.268452e+01	1.466519e+02
