# Temperatura_=_20.0
# Concentracion g/m^3_=_12600.0
# C_Vs_to_Am_M_A/Vsm_=_65563218390.804596
# pendiente_HvsI_1/m_=_3716.3
# ordenada_HvsI_A/m_=_1297.0
# frecuencia_Hz_=_135009.25350066033

Tiempo_(s)	Campo_(V.s)	Magnetizacion_(V.s)	Campo_(kA/m)	Magnetizacion_(A/m)
0.000000e+00	-3.890578e-06	-2.798855e-09	-2.915242e+01	-1.860145e+02
1.000000e-08	-3.890684e-06	-2.802248e-09	-2.915322e+01	-1.860805e+02
2.000000e-08	-3.890650e-06	-2.807393e-09	-2.915296e+01	-1.861307e+02
3.000000e-08	-3.890472e-06	-2.817422e-09	-2.915163e+01	-1.861624e+02
4.000000e-08	-3.890026e-06	-2.835061e-09	-2.914829e+01	-1.861733e+02
5.000000e-08	-3.889187e-06	-2.848325e-09	-2.914200e+01	-1.861610e+02
6.000000e-08	-3.887948e-06	-2.830461e-09	-2.913272e+01	-1.861234e+02
7.000000e-08	-3.886189e-06	-2.810383e-09	-2.911954e+01	-1.860586e+02
8.000000e-08	-3.883933e-06	-2.749772e-09	-2.910263e+01	-1.859650e+02
9.000000e-08	-3.881305e-06	-2.689972e-09	-2.908294e+01	-1.858416e+02
1.000000e-07	-3.878190e-06	-2.783288e-09	-2.905960e+01	-1.856876e+02
1.100000e-07	-3.874720e-06	-2.876323e-09	-2.903360e+01	-1.855028e+02
1.200000e-07	-3.871107e-06	-2.893271e-09	-2.900652e+01	-1.852872e+02
1.300000e-07	-3.867360e-06	-2.891017e-09	-2.897845e+01	-1.850415e+02
1.400000e-07	-3.863428e-06	-2.836649e-09	-2.894899e+01	-1.847670e+02
1.500000e-07	-3.859348e-06	-2.730190e-09	-2.891841e+01	-1.844650e+02
1.600000e-07	-3.855183e-06	-2.739262e-09	-2.888720e+01	-1.841377e+02
1.700000e-07	-3.850822e-06	-2.863328e-09	-2.885453e+01	-1.837875e+02
1.800000e-07	-3.846142e-06	-2.885059e-09	-2.881946e+01	-1.834169e+02
1.900000e-07	-3.841185e-06	-2.794189e-09	-2.878232e+01	-1.830292e+02
2.000000e-07	-3.835973e-06	-2.727422e-09	-2.874326e+01	-1.826273e+02
2.100000e-07	-3.830499e-06	-2.772824e-09	-2.870225e+01	-1.822149e+02
2.200000e-07	-3.824688e-06	-2.828894e-09	-2.865870e+01	-1.817951e+02
2.300000e-07	-3.818507e-06	-2.835487e-09	-2.861239e+01	-1.813715e+02
2.400000e-07	-3.812096e-06	-2.789811e-09	-2.856435e+01	-1.809474e+02
2.500000e-07	-3.805469e-06	-2.743344e-09	-2.851469e+01	-1.805260e+02
2.600000e-07	-3.798505e-06	-2.739257e-09	-2.846251e+01	-1.801102e+02
2.700000e-07	-3.791177e-06	-2.807771e-09	-2.840761e+01	-1.797026e+02
2.800000e-07	-3.783721e-06	-2.839606e-09	-2.835174e+01	-1.793056e+02
2.900000e-07	-3.776079e-06	-2.755259e-09	-2.829447e+01	-1.789211e+02
3.000000e-07	-3.768170e-06	-2.688058e-09	-2.823521e+01	-1.785504e+02
3.100000e-07	-3.760114e-06	-2.753590e-09	-2.817485e+01	-1.781946e+02
3.200000e-07	-3.751930e-06	-2.831666e-09	-2.811352e+01	-1.778542e+02
3.300000e-07	-3.743528e-06	-2.775907e-09	-2.805056e+01	-1.775291e+02
3.400000e-07	-3.734854e-06	-2.686611e-09	-2.798557e+01	-1.772190e+02
3.500000e-07	-3.725815e-06	-2.699795e-09	-2.791784e+01	-1.769228e+02
3.600000e-07	-3.716310e-06	-2.768286e-09	-2.784662e+01	-1.766392e+02
3.700000e-07	-3.706491e-06	-2.763246e-09	-2.777304e+01	-1.763665e+02
3.800000e-07	-3.696283e-06	-2.720812e-09	-2.769656e+01	-1.761025e+02
3.900000e-07	-3.685473e-06	-2.704780e-09	-2.761556e+01	-1.758449e+02
4.000000e-07	-3.674251e-06	-2.701802e-09	-2.753147e+01	-1.755911e+02
4.100000e-07	-3.662760e-06	-2.691969e-09	-2.744536e+01	-1.753384e+02
4.200000e-07	-3.650978e-06	-2.710856e-09	-2.735708e+01	-1.750839e+02
4.300000e-07	-3.638995e-06	-2.715458e-09	-2.726729e+01	-1.748249e+02
4.400000e-07	-3.626751e-06	-2.664715e-09	-2.717555e+01	-1.745584e+02
4.500000e-07	-3.614205e-06	-2.629237e-09	-2.708154e+01	-1.742820e+02
4.600000e-07	-3.601355e-06	-2.675842e-09	-2.698525e+01	-1.739932e+02
4.700000e-07	-3.588267e-06	-2.711583e-09	-2.688718e+01	-1.736897e+02
4.800000e-07	-3.575013e-06	-2.665339e-09	-2.678787e+01	-1.733696e+02
4.900000e-07	-3.561481e-06	-2.616419e-09	-2.668647e+01	-1.730313e+02
5.000000e-07	-3.547673e-06	-2.633634e-09	-2.658301e+01	-1.726737e+02
5.100000e-07	-3.533634e-06	-2.659025e-09	-2.647781e+01	-1.722958e+02
5.200000e-07	-3.519247e-06	-2.649159e-09	-2.637001e+01	-1.718972e+02
5.300000e-07	-3.504428e-06	-2.631031e-09	-2.625897e+01	-1.714777e+02
5.400000e-07	-3.489263e-06	-2.610606e-09	-2.614534e+01	-1.710377e+02
5.500000e-07	-3.473707e-06	-2.594128e-09	-2.602878e+01	-1.705778e+02
5.600000e-07	-3.457878e-06	-2.607806e-09	-2.591016e+01	-1.700988e+02
5.700000e-07	-3.441886e-06	-2.631032e-09	-2.579034e+01	-1.696020e+02
5.800000e-07	-3.425511e-06	-2.605653e-09	-2.566763e+01	-1.690888e+02
5.900000e-07	-3.408703e-06	-2.558822e-09	-2.554169e+01	-1.685609e+02
6.000000e-07	-3.391621e-06	-2.556643e-09	-2.541370e+01	-1.680198e+02
6.100000e-07	-3.374408e-06	-2.588336e-09	-2.528472e+01	-1.674675e+02
6.200000e-07	-3.357012e-06	-2.587686e-09	-2.515437e+01	-1.669057e+02
6.300000e-07	-3.339432e-06	-2.550614e-09	-2.502264e+01	-1.663362e+02
6.400000e-07	-3.321706e-06	-2.522555e-09	-2.488982e+01	-1.657607e+02
6.500000e-07	-3.303801e-06	-2.527436e-09	-2.475566e+01	-1.651806e+02
6.600000e-07	-3.285643e-06	-2.542023e-09	-2.461960e+01	-1.645973e+02
6.700000e-07	-3.267121e-06	-2.535363e-09	-2.448081e+01	-1.640119e+02
6.800000e-07	-3.248270e-06	-2.499886e-09	-2.433956e+01	-1.634254e+02
6.900000e-07	-3.229188e-06	-2.471688e-09	-2.419657e+01	-1.628382e+02
7.000000e-07	-3.209898e-06	-2.474918e-09	-2.405203e+01	-1.622509e+02
7.100000e-07	-3.190372e-06	-2.490473e-09	-2.390572e+01	-1.616633e+02
7.200000e-07	-3.170666e-06	-2.480965e-09	-2.375806e+01	-1.610753e+02
7.300000e-07	-3.150838e-06	-2.445529e-09	-2.360949e+01	-1.604864e+02
7.400000e-07	-3.130890e-06	-2.422266e-09	-2.346002e+01	-1.598960e+02
7.500000e-07	-3.110874e-06	-2.436318e-09	-2.331004e+01	-1.593032e+02
7.600000e-07	-3.090751e-06	-2.453309e-09	-2.315926e+01	-1.587068e+02
7.700000e-07	-3.070461e-06	-2.433570e-09	-2.300722e+01	-1.581057e+02
7.800000e-07	-3.049992e-06	-2.395947e-09	-2.285385e+01	-1.574986e+02
7.900000e-07	-3.029327e-06	-2.383773e-09	-2.269900e+01	-1.568842e+02
8.000000e-07	-3.008460e-06	-2.396659e-09	-2.254264e+01	-1.562611e+02
8.100000e-07	-2.987328e-06	-2.397895e-09	-2.238430e+01	-1.556281e+02
8.200000e-07	-2.965863e-06	-2.374020e-09	-2.222346e+01	-1.549839e+02
8.300000e-07	-2.944154e-06	-2.346954e-09	-2.206079e+01	-1.543274e+02
8.400000e-07	-2.922323e-06	-2.341454e-09	-2.189720e+01	-1.536577e+02
8.500000e-07	-2.900401e-06	-2.348110e-09	-2.173294e+01	-1.529741e+02
8.600000e-07	-2.878344e-06	-2.344223e-09	-2.156767e+01	-1.522760e+02
8.700000e-07	-2.856083e-06	-2.323572e-09	-2.140086e+01	-1.515630e+02
8.800000e-07	-2.833558e-06	-2.298032e-09	-2.123208e+01	-1.508351e+02
8.900000e-07	-2.810787e-06	-2.285757e-09	-2.106146e+01	-1.500922e+02
9.000000e-07	-2.787828e-06	-2.285194e-09	-2.088942e+01	-1.493348e+02
9.100000e-07	-2.764642e-06	-2.277766e-09	-2.071569e+01	-1.485633e+02
9.200000e-07	-2.741249e-06	-2.258078e-09	-2.054040e+01	-1.477784e+02
9.300000e-07	-2.717641e-06	-2.234863e-09	-2.036351e+01	-1.469809e+02
9.400000e-07	-2.693905e-06	-2.225237e-09	-2.018565e+01	-1.461719e+02
9.500000e-07	-2.670074e-06	-2.225936e-09	-2.000709e+01	-1.453524e+02
9.600000e-07	-2.646078e-06	-2.218322e-09	-1.982728e+01	-1.445236e+02
9.700000e-07	-2.622029e-06	-2.197694e-09	-1.964708e+01	-1.436865e+02
9.800000e-07	-2.597884e-06	-2.176808e-09	-1.946616e+01	-1.428423e+02
9.900000e-07	-2.573555e-06	-2.168336e-09	-1.928386e+01	-1.419922e+02
1.000000e-06	-2.549071e-06	-2.164907e-09	-1.910040e+01	-1.411370e+02
1.010000e-06	-2.524430e-06	-2.149423e-09	-1.891576e+01	-1.402778e+02
1.020000e-06	-2.499568e-06	-2.124509e-09	-1.872947e+01	-1.394153e+02
1.030000e-06	-2.474493e-06	-2.105949e-09	-1.854158e+01	-1.385500e+02
1.040000e-06	-2.449167e-06	-2.099832e-09	-1.835181e+01	-1.376825e+02
1.050000e-06	-2.423427e-06	-2.092614e-09	-1.815894e+01	-1.368129e+02
1.060000e-06	-2.397279e-06	-2.076772e-09	-1.796301e+01	-1.359413e+02
1.070000e-06	-2.370807e-06	-2.057804e-09	-1.776465e+01	-1.350676e+02
1.080000e-06	-2.344057e-06	-2.042180e-09	-1.756421e+01	-1.341914e+02
1.090000e-06	-2.317073e-06	-2.031629e-09	-1.736202e+01	-1.333123e+02
1.100000e-06	-2.289904e-06	-2.022421e-09	-1.715844e+01	-1.324295e+02
1.110000e-06	-2.262562e-06	-2.008416e-09	-1.695357e+01	-1.315425e+02
1.120000e-06	-2.235064e-06	-1.988051e-09	-1.674752e+01	-1.306501e+02
1.130000e-06	-2.207381e-06	-1.969156e-09	-1.654009e+01	-1.297516e+02
1.140000e-06	-2.179539e-06	-1.958476e-09	-1.633147e+01	-1.288459e+02
1.150000e-06	-2.151671e-06	-1.951435e-09	-1.612265e+01	-1.279319e+02
1.160000e-06	-2.123819e-06	-1.936812e-09	-1.591395e+01	-1.270086e+02
1.170000e-06	-2.095933e-06	-1.915065e-09	-1.570500e+01	-1.260751e+02
1.180000e-06	-2.067931e-06	-1.895158e-09	-1.549518e+01	-1.251304e+02
1.190000e-06	-2.039754e-06	-1.885570e-09	-1.528404e+01	-1.241736e+02
1.200000e-06	-2.011456e-06	-1.876909e-09	-1.507201e+01	-1.232042e+02
1.210000e-06	-1.983028e-06	-1.857340e-09	-1.485899e+01	-1.222213e+02
1.220000e-06	-1.954478e-06	-1.835058e-09	-1.464507e+01	-1.212247e+02
1.230000e-06	-1.925798e-06	-1.818727e-09	-1.443016e+01	-1.202139e+02
1.240000e-06	-1.896902e-06	-1.809327e-09	-1.421365e+01	-1.191887e+02
1.250000e-06	-1.867933e-06	-1.798085e-09	-1.399657e+01	-1.181491e+02
1.260000e-06	-1.838934e-06	-1.779715e-09	-1.377929e+01	-1.170953e+02
1.270000e-06	-1.809769e-06	-1.759885e-09	-1.356075e+01	-1.160273e+02
1.280000e-06	-1.780329e-06	-1.745307e-09	-1.334015e+01	-1.149456e+02
1.290000e-06	-1.750667e-06	-1.734025e-09	-1.311789e+01	-1.138506e+02
1.300000e-06	-1.720975e-06	-1.717368e-09	-1.289541e+01	-1.127427e+02
1.310000e-06	-1.691237e-06	-1.694991e-09	-1.267258e+01	-1.116224e+02
1.320000e-06	-1.661371e-06	-1.674796e-09	-1.244879e+01	-1.104905e+02
1.330000e-06	-1.631419e-06	-1.659716e-09	-1.222436e+01	-1.093474e+02
1.340000e-06	-1.601368e-06	-1.645122e-09	-1.199919e+01	-1.081937e+02
1.350000e-06	-1.571231e-06	-1.627970e-09	-1.177336e+01	-1.070300e+02
1.360000e-06	-1.541040e-06	-1.607756e-09	-1.154714e+01	-1.058567e+02
1.370000e-06	-1.510786e-06	-1.587990e-09	-1.132045e+01	-1.046743e+02
1.380000e-06	-1.480441e-06	-1.569022e-09	-1.109307e+01	-1.034831e+02
1.390000e-06	-1.449961e-06	-1.552518e-09	-1.086468e+01	-1.022833e+02
1.400000e-06	-1.419352e-06	-1.537123e-09	-1.063532e+01	-1.010753e+02
1.410000e-06	-1.388654e-06	-1.517976e-09	-1.040530e+01	-9.985898e+01
1.420000e-06	-1.357859e-06	-1.498958e-09	-1.017455e+01	-9.863444e+01
1.430000e-06	-1.327013e-06	-1.481924e-09	-9.943420e+00	-9.740160e+01
1.440000e-06	-1.296108e-06	-1.467113e-09	-9.711843e+00	-9.616031e+01
1.450000e-06	-1.265145e-06	-1.450105e-09	-9.479838e+00	-9.491040e+01
1.460000e-06	-1.234077e-06	-1.427664e-09	-9.247040e+00	-9.365161e+01
1.470000e-06	-1.202825e-06	-1.405324e-09	-9.012865e+00	-9.238371e+01
1.480000e-06	-1.171443e-06	-1.387698e-09	-8.777716e+00	-9.110642e+01
1.490000e-06	-1.139981e-06	-1.373571e-09	-8.541975e+00	-8.981951e+01
1.500000e-06	-1.108403e-06	-1.356320e-09	-8.305352e+00	-8.852273e+01
1.510000e-06	-1.076724e-06	-1.335581e-09	-8.067983e+00	-8.721593e+01
1.520000e-06	-1.045056e-06	-1.318587e-09	-7.830693e+00	-8.589897e+01
1.530000e-06	-1.013373e-06	-1.306119e-09	-7.593290e+00	-8.457181e+01
1.540000e-06	-9.816464e-07	-1.289083e-09	-7.355558e+00	-8.323446e+01
1.550000e-06	-9.498837e-07	-1.264584e-09	-7.117558e+00	-8.188705e+01
1.560000e-06	-9.180938e-07	-1.240280e-09	-6.879353e+00	-8.052975e+01
1.570000e-06	-8.862414e-07	-1.219989e-09	-6.640680e+00	-7.916285e+01
1.580000e-06	-8.543268e-07	-1.202972e-09	-6.401542e+00	-7.778671e+01
1.590000e-06	-8.223952e-07	-1.182911e-09	-6.162275e+00	-7.640175e+01
1.600000e-06	-7.904507e-07	-1.159328e-09	-5.922913e+00	-7.500845e+01
1.610000e-06	-7.584741e-07	-1.135379e-09	-5.683310e+00	-7.360734e+01
1.620000e-06	-7.264724e-07	-1.112464e-09	-5.443518e+00	-7.219897e+01
1.630000e-06	-6.944540e-07	-1.092597e-09	-5.203601e+00	-7.078391e+01
1.640000e-06	-6.623762e-07	-1.072451e-09	-4.963240e+00	-6.936271e+01
1.650000e-06	-6.302605e-07	-1.048048e-09	-4.722594e+00	-6.793587e+01
1.660000e-06	-5.981709e-07	-1.021663e-09	-4.482144e+00	-6.650386e+01
1.670000e-06	-5.660495e-07	-1.001163e-09	-4.241456e+00	-6.506709e+01
1.680000e-06	-5.338963e-07	-9.815843e-10	-4.000529e+00	-6.362584e+01
1.690000e-06	-5.017187e-07	-9.602323e-10	-3.759420e+00	-6.218033e+01
1.700000e-06	-4.694941e-07	-9.370716e-10	-3.517958e+00	-6.073065e+01
1.710000e-06	-4.372376e-07	-9.150454e-10	-3.276257e+00	-5.927675e+01
1.720000e-06	-4.049607e-07	-8.947176e-10	-3.034404e+00	-5.781847e+01
1.730000e-06	-3.726748e-07	-8.718132e-10	-2.792483e+00	-5.635553e+01
1.740000e-06	-3.404218e-07	-8.479136e-10	-2.550808e+00	-5.488749e+01
1.750000e-06	-3.081985e-07	-8.239537e-10	-2.309357e+00	-5.341383e+01
1.760000e-06	-2.759173e-07	-8.022877e-10	-2.067471e+00	-5.193390e+01
1.770000e-06	-2.436401e-07	-7.797887e-10	-1.825616e+00	-5.044696e+01
1.780000e-06	-2.113606e-07	-7.545462e-10	-1.583742e+00	-4.895220e+01
1.790000e-06	-1.789938e-07	-7.269551e-10	-1.341216e+00	-4.744876e+01
1.800000e-06	-1.465535e-07	-7.011758e-10	-1.098137e+00	-4.593576e+01
1.810000e-06	-1.141725e-07	-6.798587e-10	-8.555037e-01	-4.441228e+01
1.820000e-06	-8.180517e-08	-6.590749e-10	-6.129729e-01	-4.287745e+01
1.830000e-06	-4.944486e-08	-6.353160e-10	-3.704945e-01	-4.133045e+01
1.840000e-06	-1.712861e-08	-6.097906e-10	-1.283461e-01	-3.977050e+01
1.850000e-06	1.522682e-08	-5.863422e-10	1.140959e-01	-3.819694e+01
1.860000e-06	4.756898e-08	-5.652861e-10	3.564383e-01	-3.660920e+01
1.870000e-06	7.994581e-08	-5.397659e-10	5.990406e-01	-3.500686e+01
1.880000e-06	1.123688e-07	-5.095642e-10	8.419889e-01	-3.338964e+01
1.890000e-06	1.448501e-07	-4.820156e-10	1.085374e+00	-3.175740e+01
1.900000e-06	1.773629e-07	-4.590261e-10	1.328995e+00	-3.011016e+01
1.910000e-06	2.097358e-07	-4.342099e-10	1.571568e+00	-2.844813e+01
1.920000e-06	2.420157e-07	-4.070047e-10	1.813443e+00	-2.677163e+01
1.930000e-06	2.742979e-07	-3.789818e-10	2.055337e+00	-2.508117e+01
1.940000e-06	3.066011e-07	-3.511124e-10	2.297387e+00	-2.337738e+01
1.950000e-06	3.389937e-07	-3.271708e-10	2.540108e+00	-2.166101e+01
1.960000e-06	3.713493e-07	-3.028696e-10	2.782551e+00	-1.993292e+01
1.970000e-06	4.035912e-07	-2.747602e-10	3.024143e+00	-1.819403e+01
1.980000e-06	4.357988e-07	-2.457011e-10	3.265477e+00	-1.644535e+01
1.990000e-06	4.679813e-07	-2.201842e-10	3.506623e+00	-1.468790e+01
2.000000e-06	5.001566e-07	-1.970811e-10	3.747715e+00	-1.292269e+01
2.010000e-06	5.323705e-07	-1.723806e-10	3.989096e+00	-1.115074e+01
2.020000e-06	5.645567e-07	-1.449205e-10	4.230270e+00	-9.372993e+00
2.030000e-06	5.966520e-07	-1.181558e-10	4.470763e+00	-7.590347e+00
2.040000e-06	6.287483e-07	-9.303920e-11	4.711263e+00	-5.803597e+00
2.050000e-06	6.608301e-07	-6.658587e-11	4.951655e+00	-4.013429e+00
2.060000e-06	6.928631e-07	-3.767306e-11	5.191681e+00	-2.220409e+00
2.070000e-06	7.248987e-07	-8.932658e-12	5.431726e+00	-4.249702e-01
2.080000e-06	7.568962e-07	1.706600e-11	5.671486e+00	1.372594e+00
2.090000e-06	7.888834e-07	4.185007e-11	5.911168e+00	3.172128e+00
2.100000e-06	8.208633e-07	6.918559e-11	6.150796e+00	4.973617e+00
2.110000e-06	8.527938e-07	9.687694e-11	6.390055e+00	6.777172e+00
2.120000e-06	8.846936e-07	1.237567e-10	6.629082e+00	8.583025e+00
2.130000e-06	9.165793e-07	1.496612e-10	6.868004e+00	1.039151e+01
2.140000e-06	9.484553e-07	1.759447e-10	7.106854e+00	1.220305e+01
2.150000e-06	9.802569e-07	2.028822e-10	7.345146e+00	1.401812e+01
2.160000e-06	1.012009e-06	2.292440e-10	7.583065e+00	1.583725e+01
2.170000e-06	1.043780e-06	2.556835e-10	7.821128e+00	1.766099e+01
2.180000e-06	1.075505e-06	2.836761e-10	8.058848e+00	1.948987e+01
2.190000e-06	1.107153e-06	3.124603e-10	8.295988e+00	2.132439e+01
2.200000e-06	1.138667e-06	3.401294e-10	8.532127e+00	2.316502e+01
2.210000e-06	1.170020e-06	3.672522e-10	8.767055e+00	2.501213e+01
2.220000e-06	1.201298e-06	3.943330e-10	9.001424e+00	2.686601e+01
2.230000e-06	1.232552e-06	4.216450e-10	9.235614e+00	2.872684e+01
2.240000e-06	1.263607e-06	4.503877e-10	9.468313e+00	3.059468e+01
2.250000e-06	1.294505e-06	4.807453e-10	9.699833e+00	3.246947e+01
2.260000e-06	1.325438e-06	5.110223e-10	9.931620e+00	3.435100e+01
2.270000e-06	1.356230e-06	5.394987e-10	1.016234e+01	3.623895e+01
2.280000e-06	1.386865e-06	5.666684e-10	1.039190e+01	3.813285e+01
2.290000e-06	1.417435e-06	5.952910e-10	1.062095e+01	4.003214e+01
2.300000e-06	1.447887e-06	6.259704e-10	1.084914e+01	4.193612e+01
2.310000e-06	1.478219e-06	6.558928e-10	1.107641e+01	4.384400e+01
2.320000e-06	1.508503e-06	6.841060e-10	1.130334e+01	4.575495e+01
2.330000e-06	1.538713e-06	7.112269e-10	1.152970e+01	4.766802e+01
2.340000e-06	1.568805e-06	7.373038e-10	1.175519e+01	4.958227e+01
2.350000e-06	1.598796e-06	7.675707e-10	1.197991e+01	5.149674e+01
2.360000e-06	1.628713e-06	8.008941e-10	1.220408e+01	5.341043e+01
2.370000e-06	1.658619e-06	8.324125e-10	1.242817e+01	5.532242e+01
2.380000e-06	1.688453e-06	8.609123e-10	1.265172e+01	5.723179e+01
2.390000e-06	1.718146e-06	8.898113e-10	1.287421e+01	5.913771e+01
2.400000e-06	1.747725e-06	9.191833e-10	1.309585e+01	6.103938e+01
2.410000e-06	1.777190e-06	9.478807e-10	1.331663e+01	6.293613e+01
2.420000e-06	1.806502e-06	9.757548e-10	1.353627e+01	6.482734e+01
2.430000e-06	1.835658e-06	1.004191e-09	1.375473e+01	6.671251e+01
2.440000e-06	1.864669e-06	1.035057e-09	1.397212e+01	6.859122e+01
2.450000e-06	1.893535e-06	1.068058e-09	1.418841e+01	7.046314e+01
2.460000e-06	1.922290e-06	1.100312e-09	1.440388e+01	7.232804e+01
2.470000e-06	1.950960e-06	1.129229e-09	1.461871e+01	7.418573e+01
2.480000e-06	1.979434e-06	1.155116e-09	1.483206e+01	7.603611e+01
2.490000e-06	2.007725e-06	1.181992e-09	1.504405e+01	7.787910e+01
2.500000e-06	2.035956e-06	1.211165e-09	1.525559e+01	7.971468e+01
2.510000e-06	2.064100e-06	1.239606e-09	1.546647e+01	8.154279e+01
2.520000e-06	2.092141e-06	1.267934e-09	1.567658e+01	8.336342e+01
2.530000e-06	2.120106e-06	1.295233e-09	1.588613e+01	8.517648e+01
2.540000e-06	2.147981e-06	1.323648e-09	1.609500e+01	8.698187e+01
2.550000e-06	2.175765e-06	1.352167e-09	1.630319e+01	8.877943e+01
2.560000e-06	2.203521e-06	1.379483e-09	1.651117e+01	9.056889e+01
2.570000e-06	2.231215e-06	1.404778e-09	1.671868e+01	9.234996e+01
2.580000e-06	2.258801e-06	1.431062e-09	1.692538e+01	9.412219e+01
2.590000e-06	2.286221e-06	1.459940e-09	1.713085e+01	9.588510e+01
2.600000e-06	2.313385e-06	1.488630e-09	1.733439e+01	9.763807e+01
2.610000e-06	2.340320e-06	1.514620e-09	1.753621e+01	9.938042e+01
2.620000e-06	2.366948e-06	1.539523e-09	1.773574e+01	1.011114e+02
2.630000e-06	2.393254e-06	1.566215e-09	1.793285e+01	1.028300e+02
2.640000e-06	2.419341e-06	1.592196e-09	1.812832e+01	1.045356e+02
2.650000e-06	2.445128e-06	1.616077e-09	1.832155e+01	1.062269e+02
2.660000e-06	2.470557e-06	1.640239e-09	1.851209e+01	1.079032e+02
2.670000e-06	2.495604e-06	1.666105e-09	1.869977e+01	1.095634e+02
2.680000e-06	2.520305e-06	1.692864e-09	1.888485e+01	1.112066e+02
2.690000e-06	2.544817e-06	1.719152e-09	1.906853e+01	1.128317e+02
2.700000e-06	2.569149e-06	1.745049e-09	1.925084e+01	1.144379e+02
2.710000e-06	2.593312e-06	1.769204e-09	1.943190e+01	1.160245e+02
2.720000e-06	2.617405e-06	1.793964e-09	1.961243e+01	1.175907e+02
2.730000e-06	2.641403e-06	1.820548e-09	1.979225e+01	1.191358e+02
2.740000e-06	2.665247e-06	1.845269e-09	1.997092e+01	1.206595e+02
2.750000e-06	2.688910e-06	1.866641e-09	2.014822e+01	1.221613e+02
2.760000e-06	2.712449e-06	1.885790e-09	2.032460e+01	1.236410e+02
2.770000e-06	2.735844e-06	1.906469e-09	2.049990e+01	1.250986e+02
2.780000e-06	2.758976e-06	1.930204e-09	2.067324e+01	1.265339e+02
2.790000e-06	2.781943e-06	1.951584e-09	2.084533e+01	1.279473e+02
2.800000e-06	2.804786e-06	1.972691e-09	2.101649e+01	1.293388e+02
2.810000e-06	2.827473e-06	1.994558e-09	2.118649e+01	1.307090e+02
2.820000e-06	2.849956e-06	2.016358e-09	2.135496e+01	1.320581e+02
2.830000e-06	2.872202e-06	2.037093e-09	2.152165e+01	1.333868e+02
2.840000e-06	2.894249e-06	2.055594e-09	2.168685e+01	1.346955e+02
2.850000e-06	2.916108e-06	2.074007e-09	2.185064e+01	1.359847e+02
2.860000e-06	2.937740e-06	2.092899e-09	2.201273e+01	1.372551e+02
2.870000e-06	2.959126e-06	2.113041e-09	2.217297e+01	1.385070e+02
2.880000e-06	2.980352e-06	2.132133e-09	2.233202e+01	1.397410e+02
2.890000e-06	3.001442e-06	2.148360e-09	2.249005e+01	1.409575e+02
2.900000e-06	3.022297e-06	2.163676e-09	2.264632e+01	1.421567e+02
