# Temperatura_=_20.0
# Concentracion g/m^3_=_12600.0
# C_Vs_to_Am_M_A/Vsm_=_65563218390.804596
# pendiente_HvsI_1/m_=_3716.3
# ordenada_HvsI_A/m_=_1297.0
# frecuencia_Hz_=_135013.43695231143

Tiempo_(s)	Campo_(V.s)	Magnetizacion_(V.s)	Campo_(kA/m)	Magnetizacion_(A/m)
0.000000e+00	-3.888365e-06	-2.081897e-10	-2.914119e+01	-1.413619e+01
1.000000e-08	-3.888446e-06	-2.089455e-10	-2.914180e+01	-1.420683e+01
2.000000e-08	-3.888394e-06	-2.110900e-10	-2.914141e+01	-1.426977e+01
3.000000e-08	-3.888137e-06	-2.150851e-10	-2.913948e+01	-1.432313e+01
4.000000e-08	-3.887698e-06	-2.169898e-10	-2.913619e+01	-1.436510e+01
5.000000e-08	-3.886971e-06	-2.204934e-10	-2.913074e+01	-1.439406e+01
6.000000e-08	-3.885791e-06	-2.096858e-10	-2.912190e+01	-1.440854e+01
7.000000e-08	-3.884039e-06	-2.079145e-10	-2.910877e+01	-1.440732e+01
8.000000e-08	-3.881680e-06	-1.557939e-10	-2.909109e+01	-1.438944e+01
9.000000e-08	-3.878858e-06	-1.853727e-10	-2.906994e+01	-1.435419e+01
1.000000e-07	-3.875609e-06	-1.957309e-10	-2.904560e+01	-1.430120e+01
1.100000e-07	-3.872100e-06	-2.550604e-10	-2.901929e+01	-1.423038e+01
1.200000e-07	-3.868463e-06	-2.498859e-10	-2.899203e+01	-1.414199e+01
1.300000e-07	-3.864660e-06	-1.840910e-10	-2.896354e+01	-1.403657e+01
1.400000e-07	-3.860731e-06	-1.713394e-10	-2.893409e+01	-1.391499e+01
1.500000e-07	-3.856632e-06	-1.315687e-10	-2.890337e+01	-1.377840e+01
1.600000e-07	-3.852385e-06	-1.966928e-10	-2.887154e+01	-1.362823e+01
1.700000e-07	-3.847960e-06	-2.175439e-10	-2.883838e+01	-1.346613e+01
1.800000e-07	-3.843276e-06	-2.060757e-10	-2.880327e+01	-1.329396e+01
1.900000e-07	-3.838325e-06	-1.304045e-10	-2.876617e+01	-1.311376e+01
2.000000e-07	-3.833022e-06	-1.577664e-10	-2.872643e+01	-1.292766e+01
2.100000e-07	-3.827363e-06	-1.837840e-10	-2.868401e+01	-1.273792e+01
2.200000e-07	-3.821379e-06	-2.336264e-10	-2.863917e+01	-1.254678e+01
2.300000e-07	-3.815100e-06	-1.940548e-10	-2.859211e+01	-1.235649e+01
2.400000e-07	-3.808648e-06	-1.454467e-10	-2.854376e+01	-1.216926e+01
2.500000e-07	-3.801903e-06	-1.352236e-10	-2.849321e+01	-1.198717e+01
2.600000e-07	-3.794754e-06	-1.887142e-10	-2.843962e+01	-1.181217e+01
2.700000e-07	-3.787289e-06	-2.283319e-10	-2.838368e+01	-1.164602e+01
2.800000e-07	-3.779633e-06	-1.931615e-10	-2.832630e+01	-1.149028e+01
2.900000e-07	-3.771887e-06	-1.387891e-10	-2.826825e+01	-1.134627e+01
3.000000e-07	-3.763998e-06	-1.307891e-10	-2.820913e+01	-1.121503e+01
3.100000e-07	-3.755977e-06	-1.932763e-10	-2.814902e+01	-1.109735e+01
3.200000e-07	-3.747789e-06	-2.071278e-10	-2.808765e+01	-1.099372e+01
3.300000e-07	-3.739403e-06	-1.851494e-10	-2.802480e+01	-1.090435e+01
3.400000e-07	-3.730788e-06	-1.326981e-10	-2.796024e+01	-1.082916e+01
3.500000e-07	-3.721707e-06	-1.418923e-10	-2.789218e+01	-1.076781e+01
3.600000e-07	-3.712101e-06	-1.633666e-10	-2.782019e+01	-1.071969e+01
3.700000e-07	-3.702041e-06	-2.034432e-10	-2.774479e+01	-1.068396e+01
3.800000e-07	-3.691479e-06	-1.700909e-10	-2.766563e+01	-1.065958e+01
3.900000e-07	-3.680460e-06	-1.310666e-10	-2.758305e+01	-1.064534e+01
4.000000e-07	-3.669123e-06	-1.153349e-10	-2.749809e+01	-1.063986e+01
4.100000e-07	-3.657617e-06	-1.748189e-10	-2.741186e+01	-1.064167e+01
4.200000e-07	-3.645909e-06	-1.957063e-10	-2.732412e+01	-1.064923e+01
4.300000e-07	-3.633884e-06	-1.572537e-10	-2.723399e+01	-1.066096e+01
4.400000e-07	-3.621601e-06	-9.679633e-11	-2.714194e+01	-1.067528e+01
4.500000e-07	-3.609083e-06	-1.280156e-10	-2.704812e+01	-1.069065e+01
4.600000e-07	-3.596230e-06	-1.935540e-10	-2.695180e+01	-1.070560e+01
4.700000e-07	-3.583066e-06	-1.961533e-10	-2.685314e+01	-1.071876e+01
4.800000e-07	-3.569659e-06	-1.285947e-10	-2.675266e+01	-1.072888e+01
4.900000e-07	-3.556039e-06	-1.009483e-10	-2.665059e+01	-1.073488e+01
5.000000e-07	-3.542117e-06	-1.517230e-10	-2.654625e+01	-1.073581e+01
5.100000e-07	-3.527922e-06	-1.957479e-10	-2.643987e+01	-1.073094e+01
5.200000e-07	-3.513440e-06	-1.746666e-10	-2.633133e+01	-1.071970e+01
5.300000e-07	-3.498636e-06	-1.261726e-10	-2.622039e+01	-1.070171e+01
5.400000e-07	-3.483339e-06	-1.286518e-10	-2.610574e+01	-1.067679e+01
5.500000e-07	-3.467577e-06	-1.628215e-10	-2.598761e+01	-1.064495e+01
5.600000e-07	-3.451540e-06	-1.849621e-10	-2.586743e+01	-1.060635e+01
5.700000e-07	-3.435237e-06	-1.591909e-10	-2.574524e+01	-1.056134e+01
5.800000e-07	-3.418701e-06	-1.344414e-10	-2.562132e+01	-1.051038e+01
5.900000e-07	-3.401858e-06	-1.371171e-10	-2.549508e+01	-1.045407e+01
6.000000e-07	-3.384829e-06	-1.699568e-10	-2.536746e+01	-1.039312e+01
6.100000e-07	-3.367653e-06	-1.731111e-10	-2.523873e+01	-1.032828e+01
6.200000e-07	-3.350234e-06	-1.525679e-10	-2.510819e+01	-1.026040e+01
6.300000e-07	-3.332673e-06	-1.326955e-10	-2.497658e+01	-1.019034e+01
6.400000e-07	-3.314915e-06	-1.449780e-10	-2.484349e+01	-1.011894e+01
6.500000e-07	-3.296828e-06	-1.578399e-10	-2.470794e+01	-1.004708e+01
6.600000e-07	-3.278634e-06	-1.602781e-10	-2.457159e+01	-9.975546e+00
6.700000e-07	-3.260256e-06	-1.472876e-10	-2.443385e+01	-9.905111e+00
6.800000e-07	-3.241513e-06	-1.397478e-10	-2.429339e+01	-9.836460e+00
6.900000e-07	-3.222503e-06	-1.408892e-10	-2.415092e+01	-9.770196e+00
7.000000e-07	-3.203277e-06	-1.531645e-10	-2.400683e+01	-9.706829e+00
7.100000e-07	-3.183818e-06	-1.574440e-10	-2.386099e+01	-9.646767e+00
7.200000e-07	-3.164162e-06	-1.466419e-10	-2.371368e+01	-9.590313e+00
7.300000e-07	-3.144366e-06	-1.308075e-10	-2.356532e+01	-9.537660e+00
7.400000e-07	-3.124426e-06	-1.346768e-10	-2.341588e+01	-9.488900e+00
7.500000e-07	-3.104355e-06	-1.504485e-10	-2.326546e+01	-9.444018e+00
7.600000e-07	-3.084173e-06	-1.531658e-10	-2.311421e+01	-9.402905e+00
7.700000e-07	-3.063845e-06	-1.388095e-10	-2.296186e+01	-9.365367e+00
7.800000e-07	-3.043311e-06	-1.276821e-10	-2.280797e+01	-9.331128e+00
7.900000e-07	-3.022574e-06	-1.365592e-10	-2.265256e+01	-9.299846e+00
8.000000e-07	-3.001620e-06	-1.488113e-10	-2.249552e+01	-9.271126e+00
8.100000e-07	-2.980436e-06	-1.480609e-10	-2.233676e+01	-9.244526e+00
8.200000e-07	-2.958995e-06	-1.349339e-10	-2.217607e+01	-9.219577e+00
8.300000e-07	-2.937342e-06	-1.315614e-10	-2.201379e+01	-9.195786e+00
8.400000e-07	-2.915545e-06	-1.393212e-10	-2.185043e+01	-9.172658e+00
8.500000e-07	-2.893668e-06	-1.470593e-10	-2.168647e+01	-9.149697e+00
8.600000e-07	-2.871646e-06	-1.440238e-10	-2.152143e+01	-9.126421e+00
8.700000e-07	-2.849316e-06	-1.395586e-10	-2.135408e+01	-9.102369e+00
8.800000e-07	-2.826739e-06	-1.369279e-10	-2.118488e+01	-9.077108e+00
8.900000e-07	-2.803871e-06	-1.407378e-10	-2.101349e+01	-9.050238e+00
9.000000e-07	-2.780757e-06	-1.434951e-10	-2.084027e+01	-9.021397e+00
9.100000e-07	-2.757571e-06	-1.432476e-10	-2.066650e+01	-8.990266e+00
9.200000e-07	-2.734200e-06	-1.390027e-10	-2.049135e+01	-8.956569e+00
9.300000e-07	-2.710610e-06	-1.371543e-10	-2.031456e+01	-8.920073e+00
9.400000e-07	-2.686877e-06	-1.386062e-10	-2.013669e+01	-8.880589e+00
9.500000e-07	-2.663005e-06	-1.427988e-10	-1.995778e+01	-8.837972e+00
9.600000e-07	-2.639017e-06	-1.414459e-10	-1.977801e+01	-8.792120e+00
9.700000e-07	-2.614963e-06	-1.357465e-10	-1.959774e+01	-8.742969e+00
9.800000e-07	-2.590840e-06	-1.303289e-10	-1.941694e+01	-8.690495e+00
9.900000e-07	-2.566562e-06	-1.353365e-10	-1.923499e+01	-8.634708e+00
1.000000e-06	-2.542051e-06	-1.414222e-10	-1.905130e+01	-8.575653e+00
1.010000e-06	-2.517349e-06	-1.390435e-10	-1.886617e+01	-8.513406e+00
1.020000e-06	-2.492431e-06	-1.289937e-10	-1.867942e+01	-8.448072e+00
1.030000e-06	-2.467248e-06	-1.260483e-10	-1.849069e+01	-8.379788e+00
1.040000e-06	-2.441853e-06	-1.318882e-10	-1.830036e+01	-8.308713e+00
1.050000e-06	-2.416106e-06	-1.342482e-10	-1.810741e+01	-8.235036e+00
1.060000e-06	-2.389875e-06	-1.306293e-10	-1.791082e+01	-8.158967e+00
1.070000e-06	-2.363354e-06	-1.259860e-10	-1.771206e+01	-8.080744e+00
1.080000e-06	-2.336685e-06	-1.265573e-10	-1.751219e+01	-8.000625e+00
1.090000e-06	-2.309815e-06	-1.297103e-10	-1.731081e+01	-7.918892e+00
1.100000e-06	-2.282718e-06	-1.321291e-10	-1.710774e+01	-7.835847e+00
1.110000e-06	-2.255380e-06	-1.289776e-10	-1.690285e+01	-7.751811e+00
1.120000e-06	-2.227838e-06	-1.219235e-10	-1.669644e+01	-7.667123e+00
1.130000e-06	-2.200184e-06	-1.158774e-10	-1.648919e+01	-7.582136e+00
1.140000e-06	-2.172434e-06	-1.155315e-10	-1.628122e+01	-7.497212e+00
1.150000e-06	-2.144574e-06	-1.169794e-10	-1.607242e+01	-7.412721e+00
1.160000e-06	-2.116663e-06	-1.150871e-10	-1.586325e+01	-7.329035e+00
1.170000e-06	-2.088699e-06	-1.092044e-10	-1.565367e+01	-7.246521e+00
1.180000e-06	-2.060619e-06	-1.075641e-10	-1.544322e+01	-7.165536e+00
1.190000e-06	-2.032390e-06	-1.103916e-10	-1.523167e+01	-7.086420e+00
1.200000e-06	-2.004048e-06	-1.149522e-10	-1.501925e+01	-7.009487e+00
1.210000e-06	-1.975664e-06	-1.124289e-10	-1.480653e+01	-6.935020e+00
1.220000e-06	-1.947169e-06	-1.065543e-10	-1.459298e+01	-6.863259e+00
1.230000e-06	-1.918436e-06	-1.037566e-10	-1.437764e+01	-6.794398e+00
1.240000e-06	-1.889564e-06	-1.035786e-10	-1.416126e+01	-6.728575e+00
1.250000e-06	-1.860613e-06	-1.023967e-10	-1.394429e+01	-6.665866e+00
1.260000e-06	-1.831477e-06	-9.856139e-11	-1.372593e+01	-6.606278e+00
1.270000e-06	-1.802179e-06	-9.507719e-11	-1.350636e+01	-6.549746e+00
1.280000e-06	-1.772784e-06	-9.280764e-11	-1.328605e+01	-6.496128e+00
1.290000e-06	-1.743301e-06	-9.448823e-11	-1.306510e+01	-6.445207e+00
1.300000e-06	-1.713644e-06	-9.581018e-11	-1.284284e+01	-6.396684e+00
1.310000e-06	-1.683836e-06	-9.360614e-11	-1.261944e+01	-6.350187e+00
1.320000e-06	-1.653962e-06	-9.080409e-11	-1.239555e+01	-6.305273e+00
1.330000e-06	-1.624002e-06	-9.015407e-11	-1.217102e+01	-6.261430e+00
1.340000e-06	-1.593999e-06	-9.116596e-11	-1.194616e+01	-6.218090e+00
1.350000e-06	-1.563910e-06	-9.038966e-11	-1.172066e+01	-6.174637e+00
1.360000e-06	-1.533681e-06	-8.779138e-11	-1.149411e+01	-6.130416e+00
1.370000e-06	-1.503302e-06	-8.492369e-11	-1.126644e+01	-6.084751e+00
1.380000e-06	-1.472854e-06	-8.476395e-11	-1.103824e+01	-6.036956e+00
1.390000e-06	-1.442381e-06	-8.858879e-11	-1.080986e+01	-5.986351e+00
1.400000e-06	-1.411779e-06	-9.156288e-11	-1.058052e+01	-5.932276e+00
1.410000e-06	-1.381098e-06	-9.055095e-11	-1.035058e+01	-5.874113e+00
1.420000e-06	-1.350350e-06	-8.738405e-11	-1.012014e+01	-5.811293e+00
1.430000e-06	-1.319506e-06	-8.445571e-11	-9.888984e+00	-5.743320e+00
1.440000e-06	-1.288514e-06	-8.396538e-11	-9.656712e+00	-5.669779e+00
1.450000e-06	-1.257429e-06	-8.243844e-11	-9.423747e+00	-5.590353e+00
1.460000e-06	-1.226323e-06	-8.071173e-11	-9.190626e+00	-5.504828e+00
1.470000e-06	-1.195074e-06	-8.103359e-11	-8.956431e+00	-5.413108e+00
1.480000e-06	-1.163718e-06	-8.284083e-11	-8.721435e+00	-5.315218e+00
1.490000e-06	-1.132284e-06	-8.363459e-11	-8.485855e+00	-5.211305e+00
1.500000e-06	-1.100793e-06	-8.190884e-11	-8.249847e+00	-5.101643e+00
1.510000e-06	-1.069222e-06	-7.897592e-11	-8.013239e+00	-4.986628e+00
1.520000e-06	-1.037550e-06	-7.671601e-11	-7.775873e+00	-4.866770e+00
1.530000e-06	-1.005894e-06	-7.584717e-11	-7.538634e+00	-4.742688e+00
1.540000e-06	-9.742298e-07	-7.442819e-11	-7.301325e+00	-4.615098e+00
1.550000e-06	-9.424402e-07	-7.227257e-11	-7.063079e+00	-4.484795e+00
1.560000e-06	-9.105881e-07	-6.999028e-11	-6.824365e+00	-4.352641e+00
1.570000e-06	-8.787457e-07	-6.709964e-11	-6.585723e+00	-4.219544e+00
1.580000e-06	-8.468744e-07	-6.675293e-11	-6.346865e+00	-4.086441e+00
1.590000e-06	-8.149929e-07	-6.564220e-11	-6.107931e+00	-3.954271e+00
1.600000e-06	-7.830908e-07	-6.174618e-11	-5.868842e+00	-3.823963e+00
1.610000e-06	-7.511485e-07	-5.718994e-11	-5.629452e+00	-3.696404e+00
1.620000e-06	-7.191904e-07	-5.399932e-11	-5.389943e+00	-3.572429e+00
1.630000e-06	-6.872028e-07	-5.201113e-11	-5.150213e+00	-3.452791e+00
1.640000e-06	-6.552050e-07	-5.065857e-11	-4.910407e+00	-3.338152e+00
1.650000e-06	-6.231952e-07	-4.862725e-11	-4.670510e+00	-3.229062e+00
1.660000e-06	-5.911331e-07	-4.560585e-11	-4.430223e+00	-3.125947e+00
1.670000e-06	-5.590167e-07	-4.479070e-11	-4.189528e+00	-3.029099e+00
1.680000e-06	-5.268824e-07	-4.442156e-11	-3.948698e+00	-2.938669e+00
1.690000e-06	-4.947529e-07	-4.498567e-11	-3.707905e+00	-2.854663e+00
1.700000e-06	-4.626534e-07	-4.431904e-11	-3.467337e+00	-2.776941e+00
1.710000e-06	-4.305626e-07	-4.221445e-11	-3.226833e+00	-2.705222e+00
1.720000e-06	-3.984632e-07	-4.108244e-11	-2.986266e+00	-2.639089e+00
1.730000e-06	-3.662591e-07	-3.841195e-11	-2.744914e+00	-2.578002e+00
1.740000e-06	-3.339631e-07	-3.596290e-11	-2.502873e+00	-2.521308e+00
1.750000e-06	-3.017245e-07	-3.432440e-11	-2.261262e+00	-2.468260e+00
1.760000e-06	-2.694542e-07	-3.243126e-11	-2.019413e+00	-2.418031e+00
1.770000e-06	-2.371443e-07	-3.324574e-11	-1.777268e+00	-2.369740e+00
1.780000e-06	-2.047994e-07	-3.319298e-11	-1.534860e+00	-2.322469e+00
1.790000e-06	-1.724338e-07	-3.068722e-11	-1.292298e+00	-2.275287e+00
1.800000e-06	-1.400968e-07	-2.819058e-11	-1.049949e+00	-2.227270e+00
1.810000e-06	-1.076733e-07	-2.829173e-11	-8.069533e-01	-2.177530e+00
1.820000e-06	-7.521929e-08	-3.088921e-11	-5.637279e-01	-2.125226e+00
1.830000e-06	-4.287189e-08	-3.361068e-11	-3.213016e-01	-2.069594e+00
1.840000e-06	-1.053838e-08	-3.390998e-11	-7.897948e-02	-2.009955e+00
1.850000e-06	2.179712e-08	-3.195658e-11	1.633576e-01	-1.945738e+00
1.860000e-06	5.406525e-08	-3.086564e-11	4.051898e-01	-1.876488e+00
1.870000e-06	8.635995e-08	-2.960102e-11	6.472211e-01	-1.801877e+00
1.880000e-06	1.187068e-07	-2.758835e-11	8.896434e-01	-1.721710e+00
1.890000e-06	1.511063e-07	-2.605604e-11	1.132460e+00	-1.635927e+00
1.900000e-06	1.835309e-07	-2.267787e-11	1.375464e+00	-1.544600e+00
1.910000e-06	2.158464e-07	-1.623899e-11	1.617652e+00	-1.447934e+00
1.920000e-06	2.481007e-07	-1.518442e-11	1.859381e+00	-1.346254e+00
1.930000e-06	2.804285e-07	-1.514992e-11	2.101660e+00	-1.239998e+00
1.940000e-06	3.127717e-07	-1.165454e-11	2.344054e+00	-1.129700e+00
1.950000e-06	3.450223e-07	-9.515679e-12	2.585755e+00	-1.015978e+00
1.960000e-06	3.772162e-07	-8.996849e-12	2.827031e+00	-8.995164e-01
1.970000e-06	4.093563e-07	-8.052965e-12	3.067904e+00	-7.810428e-01
1.980000e-06	4.415075e-07	-5.855395e-12	3.308859e+00	-6.613130e-01
1.990000e-06	4.737418e-07	-6.436647e-12	3.550439e+00	-5.410888e-01
2.000000e-06	5.058938e-07	-8.724079e-12	3.791400e+00	-4.211182e-01
2.010000e-06	5.379895e-07	-9.749819e-12	4.031940e+00	-3.021167e-01
2.020000e-06	5.701100e-07	-9.950510e-12	4.272666e+00	-1.847491e-01
2.030000e-06	6.022340e-07	-1.021980e-11	4.513418e+00	-6.961343e-02
2.040000e-06	6.343144e-07	-8.839525e-12	4.753843e+00	4.277344e-02
2.050000e-06	6.663373e-07	-4.944382e-12	4.993837e+00	1.519875e-01
2.060000e-06	6.983551e-07	-7.167309e-13	5.233793e+00	2.577067e-01
2.070000e-06	7.303191e-07	-3.952245e-13	5.473347e+00	3.597173e-01
2.080000e-06	7.622577e-07	-1.279179e-12	5.712709e+00	4.579175e-01
2.090000e-06	7.942055e-07	6.409958e-13	5.952140e+00	5.523173e-01
2.100000e-06	8.261472e-07	3.408647e-12	6.191526e+00	6.430368e-01
2.110000e-06	8.580806e-07	3.764874e-12	6.430849e+00	7.303004e-01
2.120000e-06	8.899769e-07	4.805989e-12	6.669895e+00	8.144295e-01
2.130000e-06	9.218126e-07	7.552235e-12	6.908486e+00	8.958322e-01
2.140000e-06	9.536270e-07	1.059655e-11	7.146918e+00	9.749916e-01
2.150000e-06	9.854027e-07	1.150600e-11	7.385060e+00	1.052453e+00
2.160000e-06	1.017091e-06	1.006499e-11	7.622545e+00	1.128806e+00
2.170000e-06	1.048739e-06	1.249637e-11	7.859728e+00	1.204677e+00
2.180000e-06	1.080402e-06	1.739897e-11	8.097028e+00	1.280703e+00
2.190000e-06	1.112056e-06	1.857799e-11	8.334260e+00	1.357523e+00
2.200000e-06	1.143637e-06	1.680454e-11	8.570939e+00	1.435765e+00
2.210000e-06	1.175109e-06	1.833687e-11	8.806808e+00	1.516024e+00
2.220000e-06	1.206392e-06	2.353382e-11	9.041252e+00	1.598855e+00
2.230000e-06	1.237606e-06	2.779939e-11	9.275187e+00	1.684762e+00
2.240000e-06	1.268815e-06	2.823609e-11	9.509084e+00	1.774184e+00
2.250000e-06	1.299805e-06	2.719882e-11	9.741336e+00	1.867493e+00
2.260000e-06	1.330576e-06	2.762218e-11	9.971948e+00	1.964984e+00
2.270000e-06	1.361287e-06	2.843331e-11	1.020211e+01	2.066872e+00
2.280000e-06	1.391895e-06	2.965089e-11	1.043150e+01	2.173294e+00
2.290000e-06	1.422388e-06	2.926366e-11	1.066003e+01	2.284305e+00
2.300000e-06	1.452808e-06	2.773194e-11	1.088801e+01	2.399884e+00
2.310000e-06	1.483067e-06	2.914993e-11	1.111479e+01	2.519934e+00
2.320000e-06	1.513223e-06	3.238242e-11	1.134079e+01	2.644292e+00
2.330000e-06	1.543305e-06	3.445339e-11	1.156623e+01	2.772734e+00
2.340000e-06	1.573319e-06	3.586410e-11	1.179118e+01	2.904981e+00
2.350000e-06	1.603309e-06	3.894307e-11	1.201593e+01	3.040708e+00
2.360000e-06	1.633213e-06	4.442212e-11	1.224004e+01	3.179554e+00
2.370000e-06	1.663064e-06	4.955465e-11	1.246377e+01	3.321131e+00
2.380000e-06	1.692815e-06	5.059042e-11	1.268674e+01	3.465030e+00
2.390000e-06	1.722452e-06	4.805961e-11	1.290885e+01	3.610832e+00
2.400000e-06	1.751988e-06	4.745686e-11	1.313020e+01	3.758114e+00
2.410000e-06	1.781363e-06	5.284063e-11	1.335035e+01	3.906456e+00
2.420000e-06	1.810593e-06	5.905922e-11	1.356942e+01	4.055448e+00
2.430000e-06	1.839701e-06	6.220634e-11	1.378756e+01	4.204694e+00
2.440000e-06	1.868697e-06	6.301496e-11	1.400487e+01	4.353817e+00
2.450000e-06	1.897526e-06	6.533833e-11	1.422093e+01	4.502460e+00
2.460000e-06	1.926198e-06	7.122430e-11	1.443581e+01	4.650292e+00
2.470000e-06	1.954704e-06	7.757699e-11	1.464945e+01	4.797004e+00
2.480000e-06	1.983066e-06	7.810912e-11	1.486200e+01	4.942314e+00
2.490000e-06	2.011337e-06	7.383446e-11	1.507388e+01	5.085963e+00
2.500000e-06	2.039496e-06	7.356902e-11	1.528492e+01	5.227717e+00
2.510000e-06	2.067560e-06	7.797269e-11	1.549524e+01	5.367365e+00
2.520000e-06	2.095545e-06	8.294013e-11	1.570498e+01	5.504718e+00
2.530000e-06	2.123467e-06	8.578077e-11	1.591424e+01	5.639605e+00
2.540000e-06	2.151341e-06	8.887303e-11	1.612314e+01	5.771877e+00
2.550000e-06	2.179158e-06	9.273555e-11	1.633161e+01	5.901401e+00
2.560000e-06	2.206920e-06	9.613158e-11	1.653967e+01	6.028063e+00
2.570000e-06	2.234628e-06	9.749606e-11	1.674733e+01	6.151765e+00
2.580000e-06	2.262204e-06	9.958268e-11	1.695399e+01	6.272427e+00
2.590000e-06	2.289495e-06	1.041005e-10	1.715853e+01	6.389987e+00
2.600000e-06	2.316559e-06	1.087207e-10	1.736135e+01	6.504402e+00
2.610000e-06	2.343425e-06	1.112938e-10	1.756270e+01	6.615650e+00
2.620000e-06	2.369927e-06	1.124811e-10	1.776132e+01	6.723731e+00
2.630000e-06	2.395982e-06	1.123674e-10	1.795659e+01	6.828668e+00
2.640000e-06	2.421640e-06	1.116221e-10	1.814888e+01	6.930512e+00
2.650000e-06	2.447094e-06	1.141720e-10	1.833964e+01	7.029338e+00
2.660000e-06	2.472350e-06	1.181271e-10	1.852892e+01	7.125252e+00
2.670000e-06	2.497370e-06	1.196929e-10	1.871644e+01	7.218390e+00
2.680000e-06	2.522096e-06	1.199241e-10	1.890175e+01	7.308915e+00
2.690000e-06	2.546505e-06	1.203990e-10	1.908468e+01	7.397023e+00
2.700000e-06	2.570817e-06	1.221614e-10	1.926688e+01	7.482934e+00
2.710000e-06	2.594999e-06	1.260077e-10	1.944811e+01	7.566896e+00
2.720000e-06	2.619016e-06	1.285576e-10	1.962811e+01	7.649179e+00
2.730000e-06	2.642998e-06	1.298838e-10	1.980784e+01	7.730070e+00
2.740000e-06	2.666890e-06	1.303630e-10	1.998689e+01	7.809869e+00
2.750000e-06	2.690578e-06	1.308160e-10	2.016443e+01	7.888884e+00
2.760000e-06	2.714108e-06	1.324016e-10	2.034077e+01	7.967424e+00
2.770000e-06	2.737527e-06	1.346221e-10	2.051628e+01	8.045787e+00
2.780000e-06	2.760758e-06	1.370730e-10	2.069039e+01	8.124259e+00
2.790000e-06	2.783775e-06	1.383874e-10	2.086288e+01	8.203104e+00
2.800000e-06	2.806575e-06	1.400149e-10	2.103376e+01	8.282554e+00
2.810000e-06	2.829127e-06	1.417467e-10	2.120278e+01	8.362803e+00
2.820000e-06	2.851479e-06	1.418002e-10	2.137029e+01	8.444001e+00
2.830000e-06	2.873618e-06	1.413094e-10	2.153621e+01	8.526249e+00
2.840000e-06	2.895575e-06	1.420864e-10	2.170076e+01	8.609593e+00
2.850000e-06	2.917423e-06	1.425371e-10	2.186451e+01	8.694019e+00
2.860000e-06	2.939143e-06	1.416817e-10	2.202728e+01	8.779456e+00
2.870000e-06	2.960654e-06	1.420229e-10	2.218850e+01	8.865772e+00
2.880000e-06	2.981949e-06	1.434378e-10	2.234809e+01	8.952778e+00
2.890000e-06	3.003016e-06	1.416865e-10	2.250598e+01	9.040232e+00
2.900000e-06	3.023795e-06	1.371869e-10	2.266171e+01	9.127845e+00
