# Temperatura_=_20.0
# Concentracion g/m^3_=_12600.0
# C_Vs_to_Am_M_A/Vsm_=_65563218390.804596
# pendiente_HvsI_1/m_=_3716.3
# ordenada_HvsI_A/m_=_1297.0
# frecuencia_Hz_=_135011.71967881912

Tiempo_(s)	Campo_(V.s)	Magnetizacion_(V.s)	Campo_(kA/m)	Magnetizacion_(A/m)
0.000000e+00	-3.895460e-06	-2.841961e-09	-2.915170e+01	-1.889446e+02
1.000000e-08	-3.895613e-06	-2.843148e-09	-2.915285e+01	-1.889872e+02
2.000000e-08	-3.895641e-06	-2.845949e-09	-2.915306e+01	-1.890106e+02
3.000000e-08	-3.895479e-06	-2.851181e-09	-2.915184e+01	-1.890128e+02
4.000000e-08	-3.895103e-06	-2.856607e-09	-2.914903e+01	-1.889923e+02
5.000000e-08	-3.894396e-06	-2.863899e-09	-2.914374e+01	-1.889477e+02
6.000000e-08	-3.893242e-06	-2.859058e-09	-2.913510e+01	-1.888776e+02
7.000000e-08	-3.891633e-06	-2.848053e-09	-2.912306e+01	-1.887814e+02
8.000000e-08	-3.889432e-06	-2.853481e-09	-2.910659e+01	-1.886585e+02
9.000000e-08	-3.886610e-06	-2.845519e-09	-2.908547e+01	-1.885087e+02
1.000000e-07	-3.883503e-06	-2.827898e-09	-2.906222e+01	-1.883323e+02
1.100000e-07	-3.880279e-06	-2.894032e-09	-2.903810e+01	-1.881298e+02
1.200000e-07	-3.876764e-06	-2.929653e-09	-2.901179e+01	-1.879022e+02
1.300000e-07	-3.873023e-06	-2.878025e-09	-2.898379e+01	-1.876509e+02
1.400000e-07	-3.869213e-06	-2.900799e-09	-2.895528e+01	-1.873774e+02
1.500000e-07	-3.865274e-06	-2.878263e-09	-2.892581e+01	-1.870838e+02
1.600000e-07	-3.861123e-06	-2.828965e-09	-2.889474e+01	-1.867724e+02
1.700000e-07	-3.856772e-06	-2.816187e-09	-2.886218e+01	-1.864454e+02
1.800000e-07	-3.852203e-06	-2.854902e-09	-2.882799e+01	-1.861057e+02
1.900000e-07	-3.847269e-06	-2.858027e-09	-2.879106e+01	-1.857558e+02
2.000000e-07	-3.841967e-06	-2.823219e-09	-2.875139e+01	-1.853985e+02
2.100000e-07	-3.836421e-06	-2.822653e-09	-2.870988e+01	-1.850365e+02
2.200000e-07	-3.830654e-06	-2.838063e-09	-2.866672e+01	-1.846726e+02
2.300000e-07	-3.824570e-06	-2.851827e-09	-2.862120e+01	-1.843092e+02
2.400000e-07	-3.818175e-06	-2.820605e-09	-2.857334e+01	-1.839487e+02
2.500000e-07	-3.811540e-06	-2.823971e-09	-2.852369e+01	-1.835932e+02
2.600000e-07	-3.804652e-06	-2.811922e-09	-2.847214e+01	-1.832444e+02
2.700000e-07	-3.797507e-06	-2.808556e-09	-2.841867e+01	-1.829037e+02
2.800000e-07	-3.790096e-06	-2.817167e-09	-2.836321e+01	-1.825725e+02
2.900000e-07	-3.782444e-06	-2.838001e-09	-2.830594e+01	-1.822512e+02
3.000000e-07	-3.774649e-06	-2.787130e-09	-2.824761e+01	-1.819404e+02
3.100000e-07	-3.766693e-06	-2.753643e-09	-2.818807e+01	-1.816399e+02
3.200000e-07	-3.758572e-06	-2.792475e-09	-2.812730e+01	-1.813493e+02
3.300000e-07	-3.750343e-06	-2.848652e-09	-2.806571e+01	-1.810678e+02
3.400000e-07	-3.741892e-06	-2.805246e-09	-2.800248e+01	-1.807943e+02
3.500000e-07	-3.733066e-06	-2.727448e-09	-2.793642e+01	-1.805274e+02
3.600000e-07	-3.723687e-06	-2.744032e-09	-2.786624e+01	-1.802654e+02
3.700000e-07	-3.713772e-06	-2.814489e-09	-2.779204e+01	-1.800063e+02
3.800000e-07	-3.703355e-06	-2.809955e-09	-2.771408e+01	-1.797481e+02
3.900000e-07	-3.692529e-06	-2.731926e-09	-2.763307e+01	-1.794886e+02
4.000000e-07	-3.681433e-06	-2.712884e-09	-2.755003e+01	-1.792255e+02
4.100000e-07	-3.669993e-06	-2.750148e-09	-2.746442e+01	-1.789566e+02
4.200000e-07	-3.658239e-06	-2.778323e-09	-2.737646e+01	-1.786797e+02
4.300000e-07	-3.646295e-06	-2.747654e-09	-2.728707e+01	-1.783928e+02
4.400000e-07	-3.634174e-06	-2.706676e-09	-2.719636e+01	-1.780938e+02
4.500000e-07	-3.621760e-06	-2.683906e-09	-2.710346e+01	-1.777810e+02
4.600000e-07	-3.609005e-06	-2.720412e-09	-2.700801e+01	-1.774529e+02
4.700000e-07	-3.596034e-06	-2.748415e-09	-2.691094e+01	-1.771083e+02
4.800000e-07	-3.582838e-06	-2.713919e-09	-2.681219e+01	-1.767462e+02
4.900000e-07	-3.569316e-06	-2.645071e-09	-2.671100e+01	-1.763659e+02
5.000000e-07	-3.555490e-06	-2.660959e-09	-2.660753e+01	-1.759670e+02
5.100000e-07	-3.541432e-06	-2.718744e-09	-2.650233e+01	-1.755494e+02
5.200000e-07	-3.527096e-06	-2.712674e-09	-2.639505e+01	-1.751133e+02
5.300000e-07	-3.512330e-06	-2.645343e-09	-2.628454e+01	-1.746592e+02
5.400000e-07	-3.497166e-06	-2.635380e-09	-2.617107e+01	-1.741877e+02
5.500000e-07	-3.481699e-06	-2.674666e-09	-2.605532e+01	-1.736998e+02
5.600000e-07	-3.465872e-06	-2.683935e-09	-2.593688e+01	-1.731966e+02
5.700000e-07	-3.449704e-06	-2.648391e-09	-2.581589e+01	-1.726791e+02
5.800000e-07	-3.433235e-06	-2.623834e-09	-2.569264e+01	-1.721488e+02
5.900000e-07	-3.416500e-06	-2.623904e-09	-2.556740e+01	-1.716071e+02
6.000000e-07	-3.399600e-06	-2.631859e-09	-2.544093e+01	-1.710552e+02
6.100000e-07	-3.382513e-06	-2.627823e-09	-2.531306e+01	-1.704945e+02
6.200000e-07	-3.365306e-06	-2.604584e-09	-2.518429e+01	-1.699263e+02
6.300000e-07	-3.347958e-06	-2.585124e-09	-2.505447e+01	-1.693518e+02
6.400000e-07	-3.330358e-06	-2.586871e-09	-2.492276e+01	-1.687720e+02
6.500000e-07	-3.312602e-06	-2.592338e-09	-2.478988e+01	-1.681877e+02
6.600000e-07	-3.294527e-06	-2.576074e-09	-2.465462e+01	-1.675998e+02
6.700000e-07	-3.276020e-06	-2.557412e-09	-2.451612e+01	-1.670088e+02
6.800000e-07	-3.257251e-06	-2.549187e-09	-2.437566e+01	-1.664149e+02
6.900000e-07	-3.238199e-06	-2.548673e-09	-2.423309e+01	-1.658184e+02
7.000000e-07	-3.218847e-06	-2.539411e-09	-2.408827e+01	-1.652191e+02
7.100000e-07	-3.199319e-06	-2.526022e-09	-2.394213e+01	-1.646169e+02
7.200000e-07	-3.179681e-06	-2.513385e-09	-2.379516e+01	-1.640115e+02
7.300000e-07	-3.159936e-06	-2.510301e-09	-2.364740e+01	-1.634022e+02
7.400000e-07	-3.140106e-06	-2.502605e-09	-2.349900e+01	-1.627885e+02
7.500000e-07	-3.120200e-06	-2.489578e-09	-2.335004e+01	-1.621696e+02
7.600000e-07	-3.100184e-06	-2.476543e-09	-2.320025e+01	-1.615448e+02
7.700000e-07	-3.079957e-06	-2.469915e-09	-2.304888e+01	-1.609133e+02
7.800000e-07	-3.059455e-06	-2.457528e-09	-2.289545e+01	-1.602743e+02
7.900000e-07	-3.038729e-06	-2.443738e-09	-2.274035e+01	-1.596271e+02
8.000000e-07	-3.017811e-06	-2.432377e-09	-2.258381e+01	-1.589708e+02
8.100000e-07	-2.996690e-06	-2.424234e-09	-2.242575e+01	-1.583050e+02
8.200000e-07	-2.975370e-06	-2.412074e-09	-2.226621e+01	-1.576290e+02
8.300000e-07	-2.953785e-06	-2.400992e-09	-2.210467e+01	-1.569424e+02
8.400000e-07	-2.931974e-06	-2.393457e-09	-2.194145e+01	-1.562450e+02
8.500000e-07	-2.910072e-06	-2.385130e-09	-2.177754e+01	-1.555365e+02
8.600000e-07	-2.887999e-06	-2.372943e-09	-2.161236e+01	-1.548170e+02
8.700000e-07	-2.865754e-06	-2.362553e-09	-2.144589e+01	-1.540865e+02
8.800000e-07	-2.843283e-06	-2.351291e-09	-2.127773e+01	-1.533452e+02
8.900000e-07	-2.820507e-06	-2.336143e-09	-2.110729e+01	-1.525935e+02
9.000000e-07	-2.797620e-06	-2.319659e-09	-2.093601e+01	-1.518317e+02
9.100000e-07	-2.774523e-06	-2.305304e-09	-2.076316e+01	-1.510603e+02
9.200000e-07	-2.751170e-06	-2.295513e-09	-2.058840e+01	-1.502799e+02
9.300000e-07	-2.727691e-06	-2.285668e-09	-2.041269e+01	-1.494910e+02
9.400000e-07	-2.704062e-06	-2.271647e-09	-2.023586e+01	-1.486942e+02
9.500000e-07	-2.680261e-06	-2.256646e-09	-2.005775e+01	-1.478901e+02
9.600000e-07	-2.656349e-06	-2.246516e-09	-1.987880e+01	-1.470790e+02
9.700000e-07	-2.632352e-06	-2.236974e-09	-1.969923e+01	-1.462616e+02
9.800000e-07	-2.608208e-06	-2.223441e-09	-1.951854e+01	-1.454381e+02
9.900000e-07	-2.583953e-06	-2.206417e-09	-1.933703e+01	-1.446089e+02
1.000000e-06	-2.559556e-06	-2.193148e-09	-1.915446e+01	-1.437740e+02
1.010000e-06	-2.534998e-06	-2.178663e-09	-1.897067e+01	-1.429335e+02
1.020000e-06	-2.510210e-06	-2.161295e-09	-1.878518e+01	-1.420875e+02
1.030000e-06	-2.484989e-06	-2.144401e-09	-1.859643e+01	-1.412356e+02
1.040000e-06	-2.459394e-06	-2.131576e-09	-1.840489e+01	-1.403775e+02
1.050000e-06	-2.433548e-06	-2.120331e-09	-1.821147e+01	-1.395130e+02
1.060000e-06	-2.407333e-06	-2.109238e-09	-1.801530e+01	-1.386414e+02
1.070000e-06	-2.380783e-06	-2.096142e-09	-1.781660e+01	-1.377621e+02
1.080000e-06	-2.354000e-06	-2.081769e-09	-1.761618e+01	-1.368746e+02
1.090000e-06	-2.326924e-06	-2.066623e-09	-1.741355e+01	-1.359781e+02
1.100000e-06	-2.299612e-06	-2.053191e-09	-1.720916e+01	-1.350719e+02
1.110000e-06	-2.272180e-06	-2.039138e-09	-1.700388e+01	-1.341552e+02
1.120000e-06	-2.244619e-06	-2.021614e-09	-1.679762e+01	-1.332275e+02
1.130000e-06	-2.216916e-06	-2.002290e-09	-1.659031e+01	-1.322879e+02
1.140000e-06	-2.189124e-06	-1.985834e-09	-1.638232e+01	-1.313359e+02
1.150000e-06	-2.161295e-06	-1.972966e-09	-1.617407e+01	-1.303710e+02
1.160000e-06	-2.133437e-06	-1.960949e-09	-1.596559e+01	-1.293928e+02
1.170000e-06	-2.105506e-06	-1.946403e-09	-1.575657e+01	-1.284009e+02
1.180000e-06	-2.077501e-06	-1.930915e-09	-1.554699e+01	-1.273950e+02
1.190000e-06	-2.049434e-06	-1.916211e-09	-1.533695e+01	-1.263752e+02
1.200000e-06	-2.021243e-06	-1.903262e-09	-1.512599e+01	-1.253413e+02
1.210000e-06	-1.992858e-06	-1.888148e-09	-1.491357e+01	-1.242936e+02
1.220000e-06	-1.964333e-06	-1.870290e-09	-1.470010e+01	-1.232323e+02
1.230000e-06	-1.935653e-06	-1.854046e-09	-1.448547e+01	-1.221576e+02
1.240000e-06	-1.906757e-06	-1.839428e-09	-1.426923e+01	-1.210702e+02
1.250000e-06	-1.877705e-06	-1.824384e-09	-1.405182e+01	-1.199703e+02
1.260000e-06	-1.848506e-06	-1.807534e-09	-1.383331e+01	-1.188587e+02
1.270000e-06	-1.819117e-06	-1.791522e-09	-1.361338e+01	-1.177359e+02
1.280000e-06	-1.789651e-06	-1.775545e-09	-1.339286e+01	-1.166025e+02
1.290000e-06	-1.760170e-06	-1.758494e-09	-1.317224e+01	-1.154592e+02
1.300000e-06	-1.730551e-06	-1.740291e-09	-1.295059e+01	-1.143065e+02
1.310000e-06	-1.700770e-06	-1.721652e-09	-1.272772e+01	-1.131451e+02
1.320000e-06	-1.670920e-06	-1.703800e-09	-1.250434e+01	-1.119754e+02
1.330000e-06	-1.640970e-06	-1.686923e-09	-1.228021e+01	-1.107979e+02
1.340000e-06	-1.610902e-06	-1.670423e-09	-1.205520e+01	-1.096130e+02
1.350000e-06	-1.580770e-06	-1.653818e-09	-1.182971e+01	-1.084211e+02
1.360000e-06	-1.550498e-06	-1.637631e-09	-1.160316e+01	-1.072223e+02
1.370000e-06	-1.520175e-06	-1.620964e-09	-1.137624e+01	-1.060167e+02
1.380000e-06	-1.489860e-06	-1.602975e-09	-1.114938e+01	-1.048045e+02
1.390000e-06	-1.459435e-06	-1.586520e-09	-1.092169e+01	-1.035856e+02
1.400000e-06	-1.428895e-06	-1.570589e-09	-1.069315e+01	-1.023598e+02
1.410000e-06	-1.398193e-06	-1.552670e-09	-1.046339e+01	-1.011271e+02
1.420000e-06	-1.367375e-06	-1.532441e-09	-1.023276e+01	-9.988714e+01
1.430000e-06	-1.336545e-06	-1.511387e-09	-1.000204e+01	-9.863971e+01
1.440000e-06	-1.305628e-06	-1.491229e-09	-9.770680e+00	-9.738449e+01
1.450000e-06	-1.274505e-06	-1.471793e-09	-9.537769e+00	-9.612119e+01
1.460000e-06	-1.243226e-06	-1.451561e-09	-9.303688e+00	-9.484951e+01
1.470000e-06	-1.211842e-06	-1.431532e-09	-9.068827e+00	-9.356915e+01
1.480000e-06	-1.180398e-06	-1.412878e-09	-8.833518e+00	-9.227986e+01
1.490000e-06	-1.148937e-06	-1.395485e-09	-8.598078e+00	-9.098141e+01
1.500000e-06	-1.117390e-06	-1.378553e-09	-8.361997e+00	-8.967363e+01
1.510000e-06	-1.085722e-06	-1.363130e-09	-8.125008e+00	-8.835642e+01
1.520000e-06	-1.054030e-06	-1.346442e-09	-7.887842e+00	-8.702970e+01
1.530000e-06	-1.022366e-06	-1.328090e-09	-7.650880e+00	-8.569347e+01
1.540000e-06	-9.906531e-07	-1.305685e-09	-7.413559e+00	-8.434780e+01
1.550000e-06	-9.589001e-07	-1.280781e-09	-7.175936e+00	-8.299279e+01
1.560000e-06	-9.271000e-07	-1.257464e-09	-6.937960e+00	-8.162860e+01
1.570000e-06	-8.952516e-07	-1.235847e-09	-6.699622e+00	-8.025542e+01
1.580000e-06	-8.634009e-07	-1.214400e-09	-6.461267e+00	-7.887347e+01
1.590000e-06	-8.315479e-07	-1.191862e-09	-6.222895e+00	-7.748298e+01
1.600000e-06	-7.996573e-07	-1.168965e-09	-5.984241e+00	-7.608417e+01
1.610000e-06	-7.677121e-07	-1.147560e-09	-5.745179e+00	-7.467726e+01
1.620000e-06	-7.357224e-07	-1.125541e-09	-5.505784e+00	-7.326244e+01
1.630000e-06	-7.037433e-07	-1.101737e-09	-5.266468e+00	-7.183984e+01
1.640000e-06	-6.717469e-07	-1.079902e-09	-5.027022e+00	-7.040956e+01
1.650000e-06	-6.397073e-07	-1.059092e-09	-4.787254e+00	-6.897162e+01
1.660000e-06	-6.075901e-07	-1.035703e-09	-4.546905e+00	-6.752598e+01
1.670000e-06	-5.754317e-07	-1.012630e-09	-4.306247e+00	-6.607251e+01
1.680000e-06	-5.433437e-07	-9.941402e-10	-4.066116e+00	-6.461102e+01
1.690000e-06	-5.112530e-07	-9.732332e-10	-3.825966e+00	-6.314123e+01
1.700000e-06	-4.791433e-07	-9.476092e-10	-3.585672e+00	-6.166278e+01
1.710000e-06	-4.469843e-07	-9.234976e-10	-3.345010e+00	-6.017526e+01
1.720000e-06	-4.147257e-07	-9.060899e-10	-3.103603e+00	-5.867819e+01
1.730000e-06	-3.823773e-07	-8.859745e-10	-2.861523e+00	-5.717106e+01
1.740000e-06	-3.499844e-07	-8.619737e-10	-2.619111e+00	-5.565332e+01
1.750000e-06	-3.176290e-07	-8.370183e-10	-2.376979e+00	-5.412441e+01
1.760000e-06	-2.852510e-07	-8.151532e-10	-2.134678e+00	-5.258380e+01
1.770000e-06	-2.527899e-07	-7.938737e-10	-1.891755e+00	-5.103096e+01
1.780000e-06	-2.202722e-07	-7.684885e-10	-1.648409e+00	-4.946543e+01
1.790000e-06	-1.877409e-07	-7.404073e-10	-1.404961e+00	-4.788680e+01
1.800000e-06	-1.551917e-07	-7.133752e-10	-1.161378e+00	-4.629475e+01
1.810000e-06	-1.226893e-07	-6.917242e-10	-9.181461e-01	-4.468907e+01
1.820000e-06	-9.025959e-08	-6.730818e-10	-6.754583e-01	-4.306965e+01
1.830000e-06	-5.783290e-08	-6.518237e-10	-4.327929e-01	-4.143653e+01
1.840000e-06	-2.541315e-08	-6.252693e-10	-1.901794e-01	-3.978986e+01
1.850000e-06	7.012493e-09	-5.982560e-10	5.247804e-02	-3.812993e+01
1.860000e-06	3.951693e-08	-5.753942e-10	2.957252e-01	-3.645720e+01
1.870000e-06	7.210733e-08	-5.540703e-10	5.396157e-01	-3.477221e+01
1.880000e-06	1.047208e-07	-5.266418e-10	7.836786e-01	-3.307566e+01
1.890000e-06	1.371794e-07	-4.966086e-10	1.026583e+00	-3.136836e+01
1.900000e-06	1.695388e-07	-4.705530e-10	1.268745e+00	-2.965122e+01
1.910000e-06	2.019524e-07	-4.478347e-10	1.511312e+00	-2.792520e+01
1.920000e-06	2.344452e-07	-4.236404e-10	1.754472e+00	-2.619136e+01
1.930000e-06	2.669370e-07	-3.968351e-10	1.997625e+00	-2.445074e+01
1.940000e-06	2.993224e-07	-3.685779e-10	2.239981e+00	-2.270443e+01
1.950000e-06	3.316778e-07	-3.420217e-10	2.482113e+00	-2.095348e+01
1.960000e-06	3.640694e-07	-3.158774e-10	2.724516e+00	-1.919890e+01
1.970000e-06	3.964202e-07	-2.913856e-10	2.966613e+00	-1.744161e+01
1.980000e-06	4.287021e-07	-2.649687e-10	3.208195e+00	-1.568246e+01
1.990000e-06	4.609725e-07	-2.389516e-10	3.449691e+00	-1.392216e+01
2.000000e-06	4.931902e-07	-2.154707e-10	3.690792e+00	-1.216129e+01
2.010000e-06	5.253382e-07	-1.930478e-10	3.931372e+00	-1.040029e+01
2.020000e-06	5.574791e-07	-1.676530e-10	4.171899e+00	-8.639425e+00
2.030000e-06	5.896262e-07	-1.388270e-10	4.412472e+00	-6.878782e+00
2.040000e-06	6.217079e-07	-1.115748e-10	4.652555e+00	-5.118290e+00
2.050000e-06	6.537535e-07	-8.649704e-11	4.892369e+00	-3.357704e+00
2.060000e-06	6.857972e-07	-5.950380e-11	5.132168e+00	-1.596619e+00
2.070000e-06	7.178086e-07	-3.004231e-11	5.371726e+00	1.655206e-01
2.080000e-06	7.497823e-07	-1.417625e-12	5.611001e+00	1.929404e+00
2.090000e-06	7.817215e-07	2.533159e-11	5.850018e+00	3.695831e+00
2.100000e-06	8.136235e-07	5.206879e-11	6.088757e+00	5.465691e+00
2.110000e-06	8.455189e-07	8.038302e-11	6.327446e+00	7.239935e+00
2.120000e-06	8.773938e-07	1.084159e-10	6.565982e+00	9.019550e+00
2.130000e-06	9.092378e-07	1.355695e-10	6.804287e+00	1.080553e+01
2.140000e-06	9.410646e-07	1.628392e-10	7.042464e+00	1.259883e+01
2.150000e-06	9.728288e-07	1.906245e-10	7.280171e+00	1.440037e+01
2.160000e-06	1.004559e-06	2.165024e-10	7.517626e+00	1.621099e+01
2.170000e-06	1.036275e-06	2.441606e-10	7.754970e+00	1.803140e+01
2.180000e-06	1.067961e-06	2.722190e-10	7.992093e+00	1.986221e+01
2.190000e-06	1.099607e-06	2.986518e-10	8.228918e+00	2.170386e+01
2.200000e-06	1.131211e-06	3.261271e-10	8.465426e+00	2.355665e+01
2.210000e-06	1.162727e-06	3.565002e-10	8.701275e+00	2.542068e+01
2.220000e-06	1.194060e-06	3.861080e-10	8.935755e+00	2.729588e+01
2.230000e-06	1.225277e-06	4.163426e-10	9.169373e+00	2.918203e+01
2.240000e-06	1.256518e-06	4.463144e-10	9.403164e+00	3.107870e+01
2.250000e-06	1.287742e-06	4.760353e-10	9.636823e+00	3.298530e+01
2.260000e-06	1.318823e-06	5.082872e-10	9.869424e+00	3.490111e+01
2.270000e-06	1.349688e-06	5.411631e-10	1.010040e+01	3.682524e+01
2.280000e-06	1.380372e-06	5.702281e-10	1.033002e+01	3.875671e+01
2.290000e-06	1.410980e-06	5.972096e-10	1.055908e+01	4.069443e+01
2.300000e-06	1.441510e-06	6.256784e-10	1.078755e+01	4.263727e+01
2.310000e-06	1.471920e-06	6.546746e-10	1.101513e+01	4.458403e+01
2.320000e-06	1.502201e-06	6.845944e-10	1.124173e+01	4.653349e+01
2.330000e-06	1.532354e-06	7.146728e-10	1.146738e+01	4.848448e+01
2.340000e-06	1.562482e-06	7.434524e-10	1.169285e+01	5.043582e+01
2.350000e-06	1.592567e-06	7.735206e-10	1.191799e+01	5.238642e+01
2.360000e-06	1.622526e-06	8.065012e-10	1.214218e+01	5.433525e+01
2.370000e-06	1.652427e-06	8.403393e-10	1.236595e+01	5.628137e+01
2.380000e-06	1.682198e-06	8.725569e-10	1.258874e+01	5.822397e+01
2.390000e-06	1.711881e-06	9.020762e-10	1.281088e+01	6.016232e+01
2.400000e-06	1.741547e-06	9.310066e-10	1.303288e+01	6.209584e+01
2.410000e-06	1.771112e-06	9.604119e-10	1.325413e+01	6.402406e+01
2.420000e-06	1.800561e-06	9.905409e-10	1.347451e+01	6.594661e+01
2.430000e-06	1.829893e-06	1.021565e-09	1.369402e+01	6.786324e+01
2.440000e-06	1.859007e-06	1.051744e-09	1.391189e+01	6.977377e+01
2.450000e-06	1.887947e-06	1.080841e-09	1.412847e+01	7.167813e+01
2.460000e-06	1.916837e-06	1.110184e-09	1.434466e+01	7.357628e+01
2.470000e-06	1.945581e-06	1.139708e-09	1.455977e+01	7.546823e+01
2.480000e-06	1.974145e-06	1.167244e-09	1.477353e+01	7.735399e+01
2.490000e-06	2.002518e-06	1.193425e-09	1.498586e+01	7.923358e+01
2.500000e-06	2.030705e-06	1.223010e-09	1.519680e+01	8.110697e+01
2.510000e-06	2.058855e-06	1.253846e-09	1.540746e+01	8.297409e+01
2.520000e-06	2.086917e-06	1.283639e-09	1.561746e+01	8.483481e+01
2.530000e-06	2.114829e-06	1.311629e-09	1.582634e+01	8.668888e+01
2.540000e-06	2.142696e-06	1.339600e-09	1.603488e+01	8.853598e+01
2.550000e-06	2.170523e-06	1.367347e-09	1.624312e+01	9.037566e+01
2.560000e-06	2.198315e-06	1.394926e-09	1.645110e+01	9.220736e+01
2.570000e-06	2.226033e-06	1.421040e-09	1.665854e+01	9.403039e+01
2.580000e-06	2.253677e-06	1.447545e-09	1.686540e+01	9.584396e+01
2.590000e-06	2.281246e-06	1.475601e-09	1.707172e+01	9.764716e+01
2.600000e-06	2.308610e-06	1.503751e-09	1.727650e+01	9.943898e+01
2.610000e-06	2.335685e-06	1.531533e-09	1.747911e+01	1.012183e+02
2.620000e-06	2.362504e-06	1.557624e-09	1.767982e+01	1.029840e+02
2.630000e-06	2.388990e-06	1.582762e-09	1.787803e+01	1.047349e+02
2.640000e-06	2.415158e-06	1.608599e-09	1.807385e+01	1.064697e+02
2.650000e-06	2.441066e-06	1.634446e-09	1.826773e+01	1.081873e+02
2.660000e-06	2.466659e-06	1.657197e-09	1.845926e+01	1.098864e+02
2.670000e-06	2.491873e-06	1.679234e-09	1.864795e+01	1.115659e+02
2.680000e-06	2.516770e-06	1.702447e-09	1.883427e+01	1.132248e+02
2.690000e-06	2.541431e-06	1.726364e-09	1.901882e+01	1.148621e+02
2.700000e-06	2.565897e-06	1.751797e-09	1.920191e+01	1.164769e+02
2.710000e-06	2.590211e-06	1.777394e-09	1.938386e+01	1.180687e+02
2.720000e-06	2.614284e-06	1.802244e-09	1.956401e+01	1.196368e+02
2.730000e-06	2.638221e-06	1.828483e-09	1.974315e+01	1.211810e+02
2.740000e-06	2.662084e-06	1.854554e-09	1.992172e+01	1.227009e+02
2.750000e-06	2.685833e-06	1.877755e-09	2.009945e+01	1.241966e+02
2.760000e-06	2.709499e-06	1.897255e-09	2.027656e+01	1.256682e+02
2.770000e-06	2.733009e-06	1.918027e-09	2.045249e+01	1.271160e+02
2.780000e-06	2.756240e-06	1.942851e-09	2.062634e+01	1.285404e+02
2.790000e-06	2.779304e-06	1.967549e-09	2.079894e+01	1.299419e+02
2.800000e-06	2.802239e-06	1.988684e-09	2.097058e+01	1.313212e+02
2.810000e-06	2.824952e-06	2.007673e-09	2.114055e+01	1.326790e+02
2.820000e-06	2.847439e-06	2.027357e-09	2.130883e+01	1.340162e+02
2.830000e-06	2.869684e-06	2.048127e-09	2.147530e+01	1.353334e+02
2.840000e-06	2.891699e-06	2.068279e-09	2.164005e+01	1.366316e+02
2.850000e-06	2.913597e-06	2.088034e-09	2.180392e+01	1.379116e+02
2.860000e-06	2.935407e-06	2.107566e-09	2.196714e+01	1.391740e+02
2.870000e-06	2.957054e-06	2.128776e-09	2.212913e+01	1.404195e+02
2.880000e-06	2.978445e-06	2.150970e-09	2.228921e+01	1.416487e+02
2.890000e-06	2.999552e-06	2.170126e-09	2.244717e+01	1.428621e+02
2.900000e-06	3.020433e-06	2.186224e-09	2.260343e+01	1.440601e+02
