# Temperatura_=_20.0
# Concentracion g/m^3_=_12600.0
# C_Vs_to_Am_M_A/Vsm_=_65563218390.804596
# pendiente_HvsI_1/m_=_3716.3
# ordenada_HvsI_A/m_=_1297.0
# frecuencia_Hz_=_135009.35484299227

Tiempo_(s)	Campo_(V.s)	Magnetizacion_(V.s)	Campo_(kA/m)	Magnetizacion_(A/m)
0.000000e+00	-3.885603e-06	-2.856977e-09	-2.914906e+01	-1.880918e+02
1.000000e-08	-3.885695e-06	-2.859006e-09	-2.914975e+01	-1.881445e+02
2.000000e-08	-3.885659e-06	-2.864221e-09	-2.914948e+01	-1.881775e+02
3.000000e-08	-3.885412e-06	-2.867400e-09	-2.914762e+01	-1.881888e+02
4.000000e-08	-3.884914e-06	-2.871812e-09	-2.914389e+01	-1.881768e+02
5.000000e-08	-3.883991e-06	-2.887906e-09	-2.913697e+01	-1.881399e+02
6.000000e-08	-3.882640e-06	-2.883261e-09	-2.912683e+01	-1.880769e+02
7.000000e-08	-3.880873e-06	-2.856511e-09	-2.911358e+01	-1.879867e+02
8.000000e-08	-3.878517e-06	-2.814743e-09	-2.909590e+01	-1.878687e+02
9.000000e-08	-3.875557e-06	-2.841497e-09	-2.907369e+01	-1.877226e+02
1.000000e-07	-3.872267e-06	-2.838700e-09	-2.904901e+01	-1.875484e+02
1.100000e-07	-3.868824e-06	-2.925273e-09	-2.902318e+01	-1.873466e+02
1.200000e-07	-3.865174e-06	-2.879113e-09	-2.899580e+01	-1.871181e+02
1.300000e-07	-3.861346e-06	-2.820397e-09	-2.896708e+01	-1.868639e+02
1.400000e-07	-3.857446e-06	-2.813621e-09	-2.893783e+01	-1.865857e+02
1.500000e-07	-3.853477e-06	-2.756606e-09	-2.890805e+01	-1.862853e+02
1.600000e-07	-3.849302e-06	-2.827448e-09	-2.887673e+01	-1.859648e+02
1.700000e-07	-3.844835e-06	-2.860373e-09	-2.884322e+01	-1.856268e+02
1.800000e-07	-3.840063e-06	-2.861449e-09	-2.880742e+01	-1.852738e+02
1.900000e-07	-3.835032e-06	-2.773734e-09	-2.876968e+01	-1.849085e+02
2.000000e-07	-3.829801e-06	-2.798105e-09	-2.873044e+01	-1.845339e+02
2.100000e-07	-3.824276e-06	-2.822983e-09	-2.868899e+01	-1.841528e+02
2.200000e-07	-3.818499e-06	-2.873243e-09	-2.864566e+01	-1.837680e+02
2.300000e-07	-3.812468e-06	-2.818199e-09	-2.860041e+01	-1.833824e+02
2.400000e-07	-3.806148e-06	-2.780461e-09	-2.855300e+01	-1.829984e+02
2.500000e-07	-3.799469e-06	-2.771510e-09	-2.850289e+01	-1.826185e+02
2.600000e-07	-3.792422e-06	-2.811135e-09	-2.845003e+01	-1.822449e+02
2.700000e-07	-3.785141e-06	-2.831369e-09	-2.839541e+01	-1.818793e+02
2.800000e-07	-3.777607e-06	-2.800453e-09	-2.833889e+01	-1.815232e+02
2.900000e-07	-3.769835e-06	-2.747375e-09	-2.828059e+01	-1.811777e+02
3.000000e-07	-3.761931e-06	-2.736105e-09	-2.822129e+01	-1.808437e+02
3.100000e-07	-3.753895e-06	-2.797802e-09	-2.816101e+01	-1.805213e+02
3.200000e-07	-3.745711e-06	-2.803230e-09	-2.809961e+01	-1.802105e+02
3.300000e-07	-3.737277e-06	-2.765614e-09	-2.803634e+01	-1.799109e+02
3.400000e-07	-3.728461e-06	-2.710076e-09	-2.797021e+01	-1.796216e+02
3.500000e-07	-3.719361e-06	-2.738556e-09	-2.790194e+01	-1.793415e+02
3.600000e-07	-3.709916e-06	-2.758340e-09	-2.783108e+01	-1.790689e+02
3.700000e-07	-3.699878e-06	-2.769271e-09	-2.775579e+01	-1.788023e+02
3.800000e-07	-3.689341e-06	-2.724094e-09	-2.767674e+01	-1.785395e+02
3.900000e-07	-3.678425e-06	-2.719861e-09	-2.759485e+01	-1.782784e+02
4.000000e-07	-3.667130e-06	-2.715792e-09	-2.751011e+01	-1.780168e+02
4.100000e-07	-3.655556e-06	-2.736820e-09	-2.742329e+01	-1.777522e+02
4.200000e-07	-3.643708e-06	-2.727744e-09	-2.733440e+01	-1.774824e+02
4.300000e-07	-3.631573e-06	-2.717408e-09	-2.724337e+01	-1.772051e+02
4.400000e-07	-3.619220e-06	-2.678818e-09	-2.715070e+01	-1.769180e+02
4.500000e-07	-3.606648e-06	-2.679856e-09	-2.705639e+01	-1.766193e+02
4.600000e-07	-3.593790e-06	-2.704650e-09	-2.695993e+01	-1.763069e+02
4.700000e-07	-3.580709e-06	-2.714658e-09	-2.686180e+01	-1.759794e+02
4.800000e-07	-3.567341e-06	-2.670898e-09	-2.676152e+01	-1.756354e+02
4.900000e-07	-3.553664e-06	-2.640641e-09	-2.665891e+01	-1.752739e+02
5.000000e-07	-3.539753e-06	-2.663381e-09	-2.655455e+01	-1.748941e+02
5.100000e-07	-3.525636e-06	-2.688733e-09	-2.644865e+01	-1.744957e+02
5.200000e-07	-3.511163e-06	-2.672929e-09	-2.634008e+01	-1.740784e+02
5.300000e-07	-3.496221e-06	-2.639410e-09	-2.622799e+01	-1.736425e+02
5.400000e-07	-3.481047e-06	-2.632280e-09	-2.611415e+01	-1.731885e+02
5.500000e-07	-3.465514e-06	-2.638286e-09	-2.599763e+01	-1.727170e+02
5.600000e-07	-3.449525e-06	-2.653502e-09	-2.587768e+01	-1.722289e+02
5.700000e-07	-3.433298e-06	-2.644522e-09	-2.575595e+01	-1.717255e+02
5.800000e-07	-3.416764e-06	-2.620747e-09	-2.563191e+01	-1.712079e+02
5.900000e-07	-3.399982e-06	-2.595843e-09	-2.550602e+01	-1.706775e+02
6.000000e-07	-3.383005e-06	-2.610972e-09	-2.537866e+01	-1.701357e+02
6.100000e-07	-3.365841e-06	-2.618100e-09	-2.524990e+01	-1.695840e+02
6.200000e-07	-3.348536e-06	-2.600947e-09	-2.512008e+01	-1.690238e+02
6.300000e-07	-3.330996e-06	-2.569400e-09	-2.498850e+01	-1.684564e+02
6.400000e-07	-3.313241e-06	-2.568040e-09	-2.485530e+01	-1.678831e+02
6.500000e-07	-3.295307e-06	-2.570253e-09	-2.472076e+01	-1.673050e+02
6.600000e-07	-3.277161e-06	-2.567177e-09	-2.458464e+01	-1.667229e+02
6.700000e-07	-3.258730e-06	-2.549575e-09	-2.444637e+01	-1.661377e+02
6.800000e-07	-3.239931e-06	-2.536475e-09	-2.430535e+01	-1.655499e+02
6.900000e-07	-3.220840e-06	-2.525311e-09	-2.416213e+01	-1.649597e+02
7.000000e-07	-3.201500e-06	-2.521469e-09	-2.401705e+01	-1.643674e+02
7.100000e-07	-3.181891e-06	-2.513226e-09	-2.386995e+01	-1.637728e+02
7.200000e-07	-3.162122e-06	-2.503322e-09	-2.372164e+01	-1.631756e+02
7.300000e-07	-3.142292e-06	-2.486369e-09	-2.357288e+01	-1.625754e+02
7.400000e-07	-3.122396e-06	-2.470842e-09	-2.342362e+01	-1.619714e+02
7.500000e-07	-3.102374e-06	-2.461347e-09	-2.327342e+01	-1.613629e+02
7.600000e-07	-3.082217e-06	-2.459758e-09	-2.312220e+01	-1.607491e+02
7.700000e-07	-3.061883e-06	-2.454030e-09	-2.296967e+01	-1.601288e+02
7.800000e-07	-3.041400e-06	-2.434331e-09	-2.281600e+01	-1.595012e+02
7.900000e-07	-3.020753e-06	-2.415872e-09	-2.266112e+01	-1.588652e+02
8.000000e-07	-2.999859e-06	-2.410609e-09	-2.250437e+01	-1.582198e+02
8.100000e-07	-2.978689e-06	-2.412330e-09	-2.234556e+01	-1.575639e+02
8.200000e-07	-2.957226e-06	-2.400233e-09	-2.218455e+01	-1.568969e+02
8.300000e-07	-2.935551e-06	-2.378604e-09	-2.202194e+01	-1.562177e+02
8.400000e-07	-2.913711e-06	-2.361210e-09	-2.185810e+01	-1.555259e+02
8.500000e-07	-2.891687e-06	-2.359751e-09	-2.169289e+01	-1.548209e+02
8.600000e-07	-2.869531e-06	-2.359202e-09	-2.152667e+01	-1.541024e+02
8.700000e-07	-2.847267e-06	-2.346847e-09	-2.135966e+01	-1.533701e+02
8.800000e-07	-2.824777e-06	-2.319389e-09	-2.119094e+01	-1.526240e+02
8.900000e-07	-2.802041e-06	-2.303555e-09	-2.102038e+01	-1.518642e+02
9.000000e-07	-2.779066e-06	-2.302608e-09	-2.084803e+01	-1.510909e+02
9.100000e-07	-2.755895e-06	-2.300990e-09	-2.067420e+01	-1.503046e+02
9.200000e-07	-2.732561e-06	-2.282121e-09	-2.049916e+01	-1.495058e+02
9.300000e-07	-2.708949e-06	-2.259275e-09	-2.032202e+01	-1.486950e+02
9.400000e-07	-2.685256e-06	-2.247964e-09	-2.014428e+01	-1.478730e+02
9.500000e-07	-2.661515e-06	-2.247370e-09	-1.996618e+01	-1.470404e+02
9.600000e-07	-2.637601e-06	-2.238063e-09	-1.978678e+01	-1.461980e+02
9.700000e-07	-2.613552e-06	-2.218048e-09	-1.960637e+01	-1.453464e+02
9.800000e-07	-2.589337e-06	-2.196722e-09	-1.942471e+01	-1.444865e+02
9.900000e-07	-2.565046e-06	-2.186901e-09	-1.924249e+01	-1.436189e+02
1.000000e-06	-2.540624e-06	-2.179711e-09	-1.905928e+01	-1.427442e+02
1.010000e-06	-2.515938e-06	-2.163954e-09	-1.887409e+01	-1.418628e+02
1.020000e-06	-2.490993e-06	-2.140344e-09	-1.868695e+01	-1.409752e+02
1.030000e-06	-2.465816e-06	-2.120385e-09	-1.849808e+01	-1.400816e+02
1.040000e-06	-2.440390e-06	-2.109448e-09	-1.830734e+01	-1.391823e+02
1.050000e-06	-2.414660e-06	-2.101054e-09	-1.811432e+01	-1.382772e+02
1.060000e-06	-2.388584e-06	-2.088724e-09	-1.791870e+01	-1.373663e+02
1.070000e-06	-2.362161e-06	-2.070832e-09	-1.772048e+01	-1.364495e+02
1.080000e-06	-2.335417e-06	-2.053901e-09	-1.751986e+01	-1.355264e+02
1.090000e-06	-2.308365e-06	-2.042362e-09	-1.731692e+01	-1.345967e+02
1.100000e-06	-2.281166e-06	-2.033068e-09	-1.711287e+01	-1.336599e+02
1.110000e-06	-2.253773e-06	-2.017535e-09	-1.690738e+01	-1.327155e+02
1.120000e-06	-2.226154e-06	-1.994243e-09	-1.670019e+01	-1.317630e+02
1.130000e-06	-2.198461e-06	-1.971971e-09	-1.649244e+01	-1.308019e+02
1.140000e-06	-2.170678e-06	-1.960254e-09	-1.628401e+01	-1.298316e+02
1.150000e-06	-2.142830e-06	-1.951491e-09	-1.607510e+01	-1.288516e+02
1.160000e-06	-2.114933e-06	-1.937679e-09	-1.586582e+01	-1.278614e+02
1.170000e-06	-2.086990e-06	-1.917264e-09	-1.565621e+01	-1.268606e+02
1.180000e-06	-2.058996e-06	-1.899608e-09	-1.544620e+01	-1.258489e+02
1.190000e-06	-2.030843e-06	-1.889009e-09	-1.523500e+01	-1.248259e+02
1.200000e-06	-2.002493e-06	-1.882103e-09	-1.502232e+01	-1.237916e+02
1.210000e-06	-1.974003e-06	-1.863782e-09	-1.480860e+01	-1.227457e+02
1.220000e-06	-1.945445e-06	-1.839747e-09	-1.459436e+01	-1.216884e+02
1.230000e-06	-1.916840e-06	-1.820656e-09	-1.437977e+01	-1.206197e+02
1.240000e-06	-1.888017e-06	-1.807108e-09	-1.416354e+01	-1.195398e+02
1.250000e-06	-1.858979e-06	-1.794352e-09	-1.394571e+01	-1.184490e+02
1.260000e-06	-1.829879e-06	-1.775032e-09	-1.372740e+01	-1.173476e+02
1.270000e-06	-1.800639e-06	-1.753728e-09	-1.350805e+01	-1.162359e+02
1.280000e-06	-1.771204e-06	-1.736878e-09	-1.328724e+01	-1.151145e+02
1.290000e-06	-1.741606e-06	-1.724248e-09	-1.306519e+01	-1.139836e+02
1.300000e-06	-1.711886e-06	-1.707051e-09	-1.284224e+01	-1.128438e+02
1.310000e-06	-1.682135e-06	-1.685020e-09	-1.261906e+01	-1.116954e+02
1.320000e-06	-1.652351e-06	-1.663061e-09	-1.239563e+01	-1.105388e+02
1.330000e-06	-1.622450e-06	-1.644754e-09	-1.217131e+01	-1.093744e+02
1.340000e-06	-1.592422e-06	-1.629408e-09	-1.194605e+01	-1.082023e+02
1.350000e-06	-1.562283e-06	-1.613362e-09	-1.171995e+01	-1.070229e+02
1.360000e-06	-1.532007e-06	-1.593971e-09	-1.149283e+01	-1.058361e+02
1.370000e-06	-1.501665e-06	-1.573048e-09	-1.126521e+01	-1.046420e+02
1.380000e-06	-1.471335e-06	-1.553102e-09	-1.103768e+01	-1.034406e+02
1.390000e-06	-1.440934e-06	-1.538298e-09	-1.080962e+01	-1.022317e+02
1.400000e-06	-1.410422e-06	-1.523963e-09	-1.058072e+01	-1.010151e+02
1.410000e-06	-1.379770e-06	-1.503829e-09	-1.035077e+01	-9.979040e+01
1.420000e-06	-1.349011e-06	-1.481046e-09	-1.012002e+01	-9.855735e+01
1.430000e-06	-1.318155e-06	-1.461483e-09	-9.888546e+00	-9.731549e+01
1.440000e-06	-1.287250e-06	-1.446816e-09	-9.656707e+00	-9.606439e+01
1.450000e-06	-1.256356e-06	-1.428032e-09	-9.424942e+00	-9.480359e+01
1.460000e-06	-1.225240e-06	-1.405160e-09	-9.191518e+00	-9.353262e+01
1.470000e-06	-1.193893e-06	-1.384020e-09	-8.956357e+00	-9.225105e+01
1.480000e-06	-1.162546e-06	-1.369988e-09	-8.721199e+00	-9.095847e+01
1.490000e-06	-1.131182e-06	-1.357514e-09	-8.485911e+00	-8.965452e+01
1.500000e-06	-1.099706e-06	-1.339515e-09	-8.249788e+00	-8.833893e+01
1.510000e-06	-1.068130e-06	-1.315803e-09	-8.012912e+00	-8.701148e+01
1.520000e-06	-1.036465e-06	-1.290382e-09	-7.775361e+00	-8.567204e+01
1.530000e-06	-1.004747e-06	-1.268213e-09	-7.537422e+00	-8.432061e+01
1.540000e-06	-9.729655e-07	-1.246493e-09	-7.299002e+00	-8.295723e+01
1.550000e-06	-9.411187e-07	-1.224155e-09	-7.060094e+00	-8.158209e+01
1.560000e-06	-9.092954e-07	-1.200186e-09	-6.821361e+00	-8.019546e+01
1.570000e-06	-8.775121e-07	-1.176739e-09	-6.582929e+00	-7.879768e+01
1.580000e-06	-8.456900e-07	-1.157770e-09	-6.344206e+00	-7.738919e+01
1.590000e-06	-8.137995e-07	-1.138154e-09	-6.104970e+00	-7.597048e+01
1.600000e-06	-7.818574e-07	-1.114623e-09	-5.865345e+00	-7.454211e+01
1.610000e-06	-7.498570e-07	-1.088394e-09	-5.625285e+00	-7.310465e+01
1.620000e-06	-7.178452e-07	-1.064417e-09	-5.385138e+00	-7.165871e+01
1.630000e-06	-6.858120e-07	-1.044004e-09	-5.144831e+00	-7.020487e+01
1.640000e-06	-6.537631e-07	-1.023067e-09	-4.904407e+00	-6.874371e+01
1.650000e-06	-6.216673e-07	-9.979870e-10	-4.663630e+00	-6.727574e+01
1.660000e-06	-5.895183e-07	-9.741481e-10	-4.422454e+00	-6.580142e+01
1.670000e-06	-5.574361e-07	-9.545914e-10	-4.181780e+00	-6.432115e+01
1.680000e-06	-5.253526e-07	-9.387282e-10	-3.941096e+00	-6.283522e+01
1.690000e-06	-4.931627e-07	-9.213008e-10	-3.699613e+00	-6.134380e+01
1.700000e-06	-4.609346e-07	-8.996949e-10	-3.457844e+00	-5.984700e+01
1.710000e-06	-4.287633e-07	-8.766013e-10	-3.216501e+00	-5.834476e+01
1.720000e-06	-3.965556e-07	-8.535590e-10	-2.974885e+00	-5.683694e+01
1.730000e-06	-3.642535e-07	-8.296426e-10	-2.732561e+00	-5.532328e+01
1.740000e-06	-3.319811e-07	-8.043438e-10	-2.490460e+00	-5.380340e+01
1.750000e-06	-2.997547e-07	-7.784207e-10	-2.248703e+00	-5.227686e+01
1.760000e-06	-2.674906e-07	-7.553647e-10	-2.006664e+00	-5.074311e+01
1.770000e-06	-2.350738e-07	-7.344598e-10	-1.763479e+00	-4.920154e+01
1.780000e-06	-2.024941e-07	-7.123816e-10	-1.519073e+00	-4.765152e+01
1.790000e-06	-1.700554e-07	-6.867798e-10	-1.275723e+00	-4.609237e+01
1.800000e-06	-1.377490e-07	-6.595382e-10	-1.033367e+00	-4.452341e+01
1.810000e-06	-1.054502e-07	-6.365769e-10	-7.910675e-01	-4.294402e+01
1.820000e-06	-7.313126e-08	-6.153831e-10	-5.486168e-01	-4.135357e+01
1.830000e-06	-4.073738e-08	-5.930375e-10	-3.056041e-01	-3.975155e+01
1.840000e-06	-8.422364e-09	-5.665254e-10	-6.318297e-02	-3.813750e+01
1.850000e-06	2.387564e-08	-5.400464e-10	1.791105e-01	-3.651109e+01
1.860000e-06	5.626153e-08	-5.175383e-10	4.220633e-01	-3.487208e+01
1.870000e-06	8.863526e-08	-4.947060e-10	6.649249e-01	-3.322038e+01
1.880000e-06	1.209573e-07	-4.675425e-10	9.073985e-01	-3.155605e+01
1.890000e-06	1.532855e-07	-4.395995e-10	1.149919e+00	-2.987928e+01
1.900000e-06	1.856074e-07	-4.129538e-10	1.392391e+00	-2.819039e+01
1.910000e-06	2.179746e-07	-3.877755e-10	1.635204e+00	-2.648984e+01
1.920000e-06	2.503722e-07	-3.622503e-10	1.878244e+00	-2.477825e+01
1.930000e-06	2.827158e-07	-3.347585e-10	2.120880e+00	-2.305631e+01
1.940000e-06	3.149846e-07	-3.082730e-10	2.362955e+00	-2.132483e+01
1.950000e-06	3.472203e-07	-2.853184e-10	2.604781e+00	-1.958471e+01
1.960000e-06	3.794756e-07	-2.607214e-10	2.846754e+00	-1.783688e+01
1.970000e-06	4.117047e-07	-2.333250e-10	3.088531e+00	-1.608232e+01
1.980000e-06	4.438755e-07	-2.047870e-10	3.329870e+00	-1.432201e+01
1.990000e-06	4.760366e-07	-1.787744e-10	3.571136e+00	-1.255693e+01
2.000000e-06	5.081930e-07	-1.545383e-10	3.812368e+00	-1.078798e+01
2.010000e-06	5.402884e-07	-1.301692e-10	4.053141e+00	-9.016033e+00
2.020000e-06	5.723955e-07	-1.051316e-10	4.294002e+00	-7.241842e+00
2.030000e-06	6.045049e-07	-7.837355e-11	4.534881e+00	-5.466063e+00
2.040000e-06	6.366065e-07	-5.218321e-11	4.775701e+00	-3.689224e+00
2.050000e-06	6.686914e-07	-2.514221e-11	5.016396e+00	-1.911711e+00
2.060000e-06	7.006896e-07	3.782645e-12	5.256441e+00	-1.337631e-01
2.070000e-06	7.326435e-07	3.214641e-11	5.496152e+00	1.644535e+00
2.080000e-06	7.646086e-07	5.959123e-11	5.735949e+00	3.423253e+00
2.090000e-06	7.965644e-07	8.722051e-11	5.975675e+00	5.202611e+00
2.100000e-06	8.284844e-07	1.153732e-10	6.215133e+00	6.982967e+00
2.110000e-06	8.603961e-07	1.433945e-10	6.454528e+00	8.764810e+00
2.120000e-06	8.923100e-07	1.702379e-10	6.693940e+00	1.054874e+01
2.130000e-06	9.242025e-07	1.963833e-10	6.933191e+00	1.233545e+01
2.140000e-06	9.560456e-07	2.239709e-10	7.172073e+00	1.412570e+01
2.150000e-06	9.878206e-07	2.512765e-10	7.410443e+00	1.592029e+01
2.160000e-06	1.019529e-06	2.765927e-10	7.648311e+00	1.772006e+01
2.170000e-06	1.051222e-06	3.038919e-10	7.886069e+00	1.952580e+01
2.180000e-06	1.082858e-06	3.333225e-10	8.123392e+00	2.133830e+01
2.190000e-06	1.114442e-06	3.612302e-10	8.360335e+00	2.315829e+01
2.200000e-06	1.146011e-06	3.893037e-10	8.597153e+00	2.498638e+01
2.210000e-06	1.177428e-06	4.212755e-10	8.832841e+00	2.682311e+01
2.220000e-06	1.208695e-06	4.532914e-10	9.067401e+00	2.866888e+01
2.230000e-06	1.239809e-06	4.821956e-10	9.300809e+00	3.052394e+01
2.240000e-06	1.270843e-06	5.102204e-10	9.533627e+00	3.238840e+01
2.250000e-06	1.301804e-06	5.405691e-10	9.765887e+00	3.426221e+01
2.260000e-06	1.332623e-06	5.712469e-10	9.997087e+00	3.614514e+01
2.270000e-06	1.363289e-06	5.977182e-10	1.022714e+01	3.803681e+01
2.280000e-06	1.393812e-06	6.224043e-10	1.045611e+01	3.993669e+01
2.290000e-06	1.424294e-06	6.500092e-10	1.068478e+01	4.184409e+01
2.300000e-06	1.454680e-06	6.801737e-10	1.091273e+01	4.375817e+01
2.310000e-06	1.484937e-06	7.088691e-10	1.113971e+01	4.567801e+01
2.320000e-06	1.515125e-06	7.370244e-10	1.136618e+01	4.760257e+01
2.330000e-06	1.545278e-06	7.660465e-10	1.159238e+01	4.953071e+01
2.340000e-06	1.575366e-06	7.955769e-10	1.181809e+01	5.146126e+01
2.350000e-06	1.605348e-06	8.256462e-10	1.204302e+01	5.339302e+01
2.360000e-06	1.635249e-06	8.548030e-10	1.226732e+01	5.532476e+01
2.370000e-06	1.665041e-06	8.843751e-10	1.249082e+01	5.725527e+01
2.380000e-06	1.694674e-06	9.157076e-10	1.271312e+01	5.918339e+01
2.390000e-06	1.724244e-06	9.466761e-10	1.293495e+01	6.110798e+01
2.400000e-06	1.753809e-06	9.757737e-10	1.315674e+01	6.302800e+01
2.410000e-06	1.783248e-06	1.004236e-09	1.337759e+01	6.494248e+01
2.420000e-06	1.812487e-06	1.033803e-09	1.359693e+01	6.685056e+01
2.430000e-06	1.841624e-06	1.064994e-09	1.381551e+01	6.875145e+01
2.440000e-06	1.870654e-06	1.096211e-09	1.403329e+01	7.064450e+01
2.450000e-06	1.899572e-06	1.125889e-09	1.425023e+01	7.252914e+01
2.460000e-06	1.928286e-06	1.153561e-09	1.446564e+01	7.440493e+01
2.470000e-06	1.956799e-06	1.183412e-09	1.467954e+01	7.627151e+01
2.480000e-06	1.985171e-06	1.213083e-09	1.489238e+01	7.812859e+01
2.490000e-06	2.013373e-06	1.239207e-09	1.510394e+01	7.997599e+01
2.500000e-06	2.041454e-06	1.265511e-09	1.531460e+01	8.181356e+01
2.510000e-06	2.069460e-06	1.294952e-09	1.552470e+01	8.364121e+01
2.520000e-06	2.097438e-06	1.324985e-09	1.573458e+01	8.545887e+01
2.530000e-06	2.125355e-06	1.352502e-09	1.594401e+01	8.726649e+01
2.540000e-06	2.153228e-06	1.379945e-09	1.615311e+01	8.906401e+01
2.550000e-06	2.181027e-06	1.407990e-09	1.636165e+01	9.085136e+01
2.560000e-06	2.208741e-06	1.436017e-09	1.656956e+01	9.262840e+01
2.570000e-06	2.236357e-06	1.462330e-09	1.677673e+01	9.439499e+01
2.580000e-06	2.263847e-06	1.489767e-09	1.698295e+01	9.615089e+01
2.590000e-06	2.291133e-06	1.519385e-09	1.718765e+01	9.789583e+01
2.600000e-06	2.318216e-06	1.547569e-09	1.739081e+01	9.962946e+01
2.610000e-06	2.345125e-06	1.573549e-09	1.759268e+01	1.013513e+02
2.620000e-06	2.371762e-06	1.597978e-09	1.779251e+01	1.030610e+02
2.630000e-06	2.398050e-06	1.621673e-09	1.798972e+01	1.047579e+02
2.640000e-06	2.423896e-06	1.645717e-09	1.818360e+01	1.064413e+02
2.650000e-06	2.449308e-06	1.670447e-09	1.837424e+01	1.081107e+02
2.660000e-06	2.474462e-06	1.694484e-09	1.856295e+01	1.097654e+02
2.670000e-06	2.499424e-06	1.717265e-09	1.875020e+01	1.114046e+02
2.680000e-06	2.524145e-06	1.741065e-09	1.893565e+01	1.130275e+02
2.690000e-06	2.548631e-06	1.766718e-09	1.911935e+01	1.146336e+02
2.700000e-06	2.572940e-06	1.792864e-09	1.930171e+01	1.162221e+02
2.710000e-06	2.597104e-06	1.818219e-09	1.948298e+01	1.177924e+02
2.720000e-06	2.621103e-06	1.843060e-09	1.966302e+01	1.193438e+02
2.730000e-06	2.645041e-06	1.868501e-09	1.984260e+01	1.208759e+02
2.740000e-06	2.668877e-06	1.893069e-09	2.002141e+01	1.223881e+02
2.750000e-06	2.692530e-06	1.916459e-09	2.019885e+01	1.238802e+02
2.760000e-06	2.716023e-06	1.939181e-09	2.037509e+01	1.253517e+02
2.770000e-06	2.739267e-06	1.960220e-09	2.054946e+01	1.268026e+02
2.780000e-06	2.762348e-06	1.981148e-09	2.072261e+01	1.282327e+02
2.790000e-06	2.785268e-06	2.002046e-09	2.089455e+01	1.296421e+02
2.800000e-06	2.807981e-06	2.024277e-09	2.106494e+01	1.310308e+02
2.810000e-06	2.830511e-06	2.046942e-09	2.123396e+01	1.323989e+02
2.820000e-06	2.852780e-06	2.067802e-09	2.140102e+01	1.337468e+02
2.830000e-06	2.874880e-06	2.087435e-09	2.156681e+01	1.350746e+02
2.840000e-06	2.896809e-06	2.106737e-09	2.173131e+01	1.363827e+02
2.850000e-06	2.918504e-06	2.128684e-09	2.189406e+01	1.376715e+02
2.860000e-06	2.940075e-06	2.150630e-09	2.205588e+01	1.389412e+02
2.870000e-06	2.961488e-06	2.169927e-09	2.221652e+01	1.401924e+02
2.880000e-06	2.982677e-06	2.189567e-09	2.237547e+01	1.414252e+02
2.890000e-06	3.003667e-06	2.210062e-09	2.253294e+01	1.426401e+02
2.900000e-06	3.024382e-06	2.226088e-09	2.268834e+01	1.438373e+02
