# Temperatura_=_20.0
# Concentracion g/m^3_=_12600.0
# C_Vs_to_Am_M_A/Vsm_=_65563218390.804596
# pendiente_HvsI_1/m_=_3716.3
# ordenada_HvsI_A/m_=_1297.0
# frecuencia_Hz_=_135009.3813089732

Tiempo_(s)	Campo_(V.s)	Magnetizacion_(V.s)	Campo_(kA/m)	Magnetizacion_(A/m)
0.000000e+00	-3.899642e-06	-2.822376e-09	-2.915634e+01	-1.862246e+02
1.000000e-08	-3.899739e-06	-2.826144e-09	-2.915707e+01	-1.862949e+02
2.000000e-08	-3.899707e-06	-2.831664e-09	-2.915683e+01	-1.863464e+02
3.000000e-08	-3.899463e-06	-2.835431e-09	-2.915500e+01	-1.863767e+02
4.000000e-08	-3.898981e-06	-2.839735e-09	-2.915140e+01	-1.863835e+02
5.000000e-08	-3.898159e-06	-2.850869e-09	-2.914525e+01	-1.863646e+02
6.000000e-08	-3.896859e-06	-2.847002e-09	-2.913553e+01	-1.863182e+02
7.000000e-08	-3.895090e-06	-2.821887e-09	-2.912231e+01	-1.862426e+02
8.000000e-08	-3.892769e-06	-2.782887e-09	-2.910495e+01	-1.861366e+02
9.000000e-08	-3.889880e-06	-2.799633e-09	-2.908335e+01	-1.859993e+02
1.000000e-07	-3.886689e-06	-2.857513e-09	-2.905949e+01	-1.858303e+02
1.100000e-07	-3.883343e-06	-2.896992e-09	-2.903448e+01	-1.856295e+02
1.200000e-07	-3.879755e-06	-2.865898e-09	-2.900765e+01	-1.853975e+02
1.300000e-07	-3.875911e-06	-2.803567e-09	-2.897891e+01	-1.851350e+02
1.400000e-07	-3.871964e-06	-2.760467e-09	-2.894940e+01	-1.848435e+02
1.500000e-07	-3.867910e-06	-2.760292e-09	-2.891909e+01	-1.845247e+02
1.600000e-07	-3.863671e-06	-2.794870e-09	-2.888739e+01	-1.841809e+02
1.700000e-07	-3.859163e-06	-2.833907e-09	-2.885369e+01	-1.838146e+02
1.800000e-07	-3.854311e-06	-2.812224e-09	-2.881742e+01	-1.834286e+02
1.900000e-07	-3.849253e-06	-2.753947e-09	-2.877959e+01	-1.830261e+02
2.000000e-07	-3.843936e-06	-2.756145e-09	-2.873984e+01	-1.826103e+02
2.100000e-07	-3.838263e-06	-2.793226e-09	-2.869743e+01	-1.821848e+02
2.200000e-07	-3.832281e-06	-2.838240e-09	-2.865270e+01	-1.817529e+02
2.300000e-07	-3.826006e-06	-2.796890e-09	-2.860579e+01	-1.813181e+02
2.400000e-07	-3.819546e-06	-2.739045e-09	-2.855749e+01	-1.808837e+02
2.500000e-07	-3.812861e-06	-2.728291e-09	-2.850751e+01	-1.804528e+02
2.600000e-07	-3.805888e-06	-2.795126e-09	-2.845537e+01	-1.800285e+02
2.700000e-07	-3.798615e-06	-2.816635e-09	-2.840099e+01	-1.796133e+02
2.800000e-07	-3.791036e-06	-2.773109e-09	-2.834433e+01	-1.792095e+02
2.900000e-07	-3.783248e-06	-2.703206e-09	-2.828610e+01	-1.788189e+02
3.000000e-07	-3.775334e-06	-2.705358e-09	-2.822693e+01	-1.784429e+02
3.100000e-07	-3.767295e-06	-2.757668e-09	-2.816683e+01	-1.780826e+02
3.200000e-07	-3.759109e-06	-2.784796e-09	-2.810562e+01	-1.777384e+02
3.300000e-07	-3.750731e-06	-2.741968e-09	-2.804298e+01	-1.774102e+02
3.400000e-07	-3.741959e-06	-2.683957e-09	-2.797740e+01	-1.770976e+02
3.500000e-07	-3.732716e-06	-2.688752e-09	-2.790829e+01	-1.767997e+02
3.600000e-07	-3.723100e-06	-2.739622e-09	-2.783639e+01	-1.765151e+02
3.700000e-07	-3.713046e-06	-2.765308e-09	-2.776122e+01	-1.762420e+02
3.800000e-07	-3.702414e-06	-2.706436e-09	-2.768173e+01	-1.759785e+02
3.900000e-07	-3.691292e-06	-2.650147e-09	-2.759858e+01	-1.757220e+02
4.000000e-07	-3.679871e-06	-2.670099e-09	-2.751318e+01	-1.754702e+02
4.100000e-07	-3.668254e-06	-2.743139e-09	-2.742633e+01	-1.752202e+02
4.200000e-07	-3.656407e-06	-2.732801e-09	-2.733775e+01	-1.749691e+02
4.300000e-07	-3.644250e-06	-2.654146e-09	-2.724686e+01	-1.747143e+02
4.400000e-07	-3.631821e-06	-2.609803e-09	-2.715393e+01	-1.744529e+02
4.500000e-07	-3.619233e-06	-2.671389e-09	-2.705981e+01	-1.741823e+02
4.600000e-07	-3.606423e-06	-2.720509e-09	-2.696404e+01	-1.739000e+02
4.700000e-07	-3.593250e-06	-2.678367e-09	-2.686555e+01	-1.736037e+02
4.800000e-07	-3.579833e-06	-2.594360e-09	-2.676523e+01	-1.732914e+02
4.900000e-07	-3.566210e-06	-2.595109e-09	-2.666338e+01	-1.729615e+02
5.000000e-07	-3.552316e-06	-2.658911e-09	-2.655949e+01	-1.726127e+02
5.100000e-07	-3.538098e-06	-2.682102e-09	-2.645319e+01	-1.722439e+02
5.200000e-07	-3.523549e-06	-2.619097e-09	-2.634441e+01	-1.718548e+02
5.300000e-07	-3.508696e-06	-2.570819e-09	-2.623336e+01	-1.714449e+02
5.400000e-07	-3.493363e-06	-2.597453e-09	-2.611873e+01	-1.710145e+02
5.500000e-07	-3.477570e-06	-2.643984e-09	-2.600064e+01	-1.705640e+02
5.600000e-07	-3.461426e-06	-2.626469e-09	-2.587994e+01	-1.700944e+02
5.700000e-07	-3.445016e-06	-2.571617e-09	-2.575725e+01	-1.696066e+02
5.800000e-07	-3.428419e-06	-2.555681e-09	-2.563316e+01	-1.691019e+02
5.900000e-07	-3.411677e-06	-2.585713e-09	-2.550799e+01	-1.685820e+02
6.000000e-07	-3.394723e-06	-2.600131e-09	-2.538123e+01	-1.680485e+02
6.100000e-07	-3.377494e-06	-2.566708e-09	-2.525241e+01	-1.675030e+02
6.200000e-07	-3.360139e-06	-2.530627e-09	-2.512265e+01	-1.669474e+02
6.300000e-07	-3.342605e-06	-2.532123e-09	-2.499155e+01	-1.663835e+02
6.400000e-07	-3.324791e-06	-2.552910e-09	-2.485837e+01	-1.658128e+02
6.500000e-07	-3.306711e-06	-2.544986e-09	-2.472319e+01	-1.652370e+02
6.600000e-07	-3.288460e-06	-2.513888e-09	-2.458673e+01	-1.646574e+02
6.700000e-07	-3.269940e-06	-2.495269e-09	-2.444826e+01	-1.640753e+02
6.800000e-07	-3.251024e-06	-2.500248e-09	-2.430683e+01	-1.634917e+02
6.900000e-07	-3.231855e-06	-2.502530e-09	-2.416352e+01	-1.629072e+02
7.000000e-07	-3.212509e-06	-2.491078e-09	-2.401887e+01	-1.623224e+02
7.100000e-07	-3.192906e-06	-2.470953e-09	-2.387231e+01	-1.617374e+02
7.200000e-07	-3.173085e-06	-2.462369e-09	-2.372411e+01	-1.611523e+02
7.300000e-07	-3.153177e-06	-2.460736e-09	-2.357527e+01	-1.605667e+02
7.400000e-07	-3.133222e-06	-2.455419e-09	-2.342607e+01	-1.599801e+02
7.500000e-07	-3.113214e-06	-2.437197e-09	-2.327647e+01	-1.593918e+02
7.600000e-07	-3.093091e-06	-2.421813e-09	-2.312602e+01	-1.588007e+02
7.700000e-07	-3.072744e-06	-2.415310e-09	-2.297390e+01	-1.582059e+02
7.800000e-07	-3.052189e-06	-2.411932e-09	-2.282021e+01	-1.576061e+02
7.900000e-07	-3.031410e-06	-2.397265e-09	-2.266485e+01	-1.570001e+02
8.000000e-07	-3.010363e-06	-2.382584e-09	-2.250749e+01	-1.563866e+02
8.100000e-07	-2.989118e-06	-2.375485e-09	-2.234865e+01	-1.557644e+02
8.200000e-07	-2.967632e-06	-2.372561e-09	-2.218801e+01	-1.551322e+02
8.300000e-07	-2.945883e-06	-2.362848e-09	-2.202540e+01	-1.544888e+02
8.400000e-07	-2.923961e-06	-2.346956e-09	-2.186149e+01	-1.538334e+02
8.500000e-07	-2.901960e-06	-2.332885e-09	-2.169700e+01	-1.531649e+02
8.600000e-07	-2.879866e-06	-2.327156e-09	-2.153181e+01	-1.524827e+02
8.700000e-07	-2.857552e-06	-2.323072e-09	-2.136497e+01	-1.517863e+02
8.800000e-07	-2.834981e-06	-2.308916e-09	-2.119622e+01	-1.510754e+02
8.900000e-07	-2.812186e-06	-2.291720e-09	-2.102579e+01	-1.503499e+02
9.000000e-07	-2.789187e-06	-2.281681e-09	-2.085383e+01	-1.496099e+02
9.100000e-07	-2.765899e-06	-2.276311e-09	-2.067972e+01	-1.488555e+02
9.200000e-07	-2.742367e-06	-2.266919e-09	-2.050378e+01	-1.480874e+02
9.300000e-07	-2.718731e-06	-2.249644e-09	-2.032706e+01	-1.473061e+02
9.400000e-07	-2.694943e-06	-2.232607e-09	-2.014920e+01	-1.465124e+02
9.500000e-07	-2.671009e-06	-2.223671e-09	-1.997026e+01	-1.457072e+02
9.600000e-07	-2.646962e-06	-2.215977e-09	-1.979046e+01	-1.448913e+02
9.700000e-07	-2.622808e-06	-2.203528e-09	-1.960988e+01	-1.440658e+02
9.800000e-07	-2.598576e-06	-2.187175e-09	-1.942870e+01	-1.432316e+02
9.900000e-07	-2.574216e-06	-2.177270e-09	-1.924657e+01	-1.423898e+02
1.000000e-06	-2.549725e-06	-2.169834e-09	-1.906346e+01	-1.415413e+02
1.010000e-06	-2.525017e-06	-2.154315e-09	-1.887872e+01	-1.406869e+02
1.020000e-06	-2.499948e-06	-2.133628e-09	-1.869129e+01	-1.398274e+02
1.030000e-06	-2.474532e-06	-2.119482e-09	-1.850126e+01	-1.389634e+02
1.040000e-06	-2.448784e-06	-2.111373e-09	-1.830875e+01	-1.380954e+02
1.050000e-06	-2.422800e-06	-2.099553e-09	-1.811448e+01	-1.372237e+02
1.060000e-06	-2.396563e-06	-2.082527e-09	-1.791831e+01	-1.363485e+02
1.070000e-06	-2.369942e-06	-2.068197e-09	-1.771928e+01	-1.354697e+02
1.080000e-06	-2.343049e-06	-2.055031e-09	-1.751821e+01	-1.345872e+02
1.090000e-06	-2.315934e-06	-2.040954e-09	-1.731548e+01	-1.337007e+02
1.100000e-06	-2.288585e-06	-2.026790e-09	-1.711100e+01	-1.328097e+02
1.110000e-06	-2.261008e-06	-2.012828e-09	-1.690481e+01	-1.319136e+02
1.120000e-06	-2.233292e-06	-1.997389e-09	-1.669759e+01	-1.310118e+02
1.130000e-06	-2.205545e-06	-1.980475e-09	-1.649014e+01	-1.301033e+02
1.140000e-06	-2.177744e-06	-1.965384e-09	-1.628228e+01	-1.291875e+02
1.150000e-06	-2.149899e-06	-1.953332e-09	-1.607409e+01	-1.282634e+02
1.160000e-06	-2.121973e-06	-1.938668e-09	-1.586529e+01	-1.273301e+02
1.170000e-06	-2.093954e-06	-1.919965e-09	-1.565581e+01	-1.263868e+02
1.180000e-06	-2.065874e-06	-1.900803e-09	-1.544586e+01	-1.254326e+02
1.190000e-06	-2.037706e-06	-1.886143e-09	-1.523526e+01	-1.244668e+02
1.200000e-06	-2.009378e-06	-1.873902e-09	-1.502346e+01	-1.234887e+02
1.210000e-06	-1.980869e-06	-1.859343e-09	-1.481031e+01	-1.224977e+02
1.220000e-06	-1.952245e-06	-1.843716e-09	-1.459630e+01	-1.214934e+02
1.230000e-06	-1.923496e-06	-1.827789e-09	-1.438134e+01	-1.204754e+02
1.240000e-06	-1.894604e-06	-1.810914e-09	-1.416533e+01	-1.194435e+02
1.250000e-06	-1.865538e-06	-1.794010e-09	-1.394802e+01	-1.183976e+02
1.260000e-06	-1.836280e-06	-1.777779e-09	-1.372926e+01	-1.173377e+02
1.270000e-06	-1.806887e-06	-1.760690e-09	-1.350950e+01	-1.162640e+02
1.280000e-06	-1.777366e-06	-1.744643e-09	-1.328878e+01	-1.151766e+02
1.290000e-06	-1.747753e-06	-1.728690e-09	-1.306737e+01	-1.140760e+02
1.300000e-06	-1.718017e-06	-1.709831e-09	-1.284505e+01	-1.129626e+02
1.310000e-06	-1.688172e-06	-1.691461e-09	-1.262190e+01	-1.118367e+02
1.320000e-06	-1.658284e-06	-1.675452e-09	-1.239845e+01	-1.106989e+02
1.330000e-06	-1.628363e-06	-1.657974e-09	-1.217473e+01	-1.095496e+02
1.340000e-06	-1.598370e-06	-1.639214e-09	-1.195049e+01	-1.083895e+02
1.350000e-06	-1.568255e-06	-1.622287e-09	-1.172532e+01	-1.072190e+02
1.360000e-06	-1.537943e-06	-1.606875e-09	-1.149869e+01	-1.060385e+02
1.370000e-06	-1.507514e-06	-1.588470e-09	-1.127119e+01	-1.048484e+02
1.380000e-06	-1.477061e-06	-1.566184e-09	-1.104350e+01	-1.036490e+02
1.390000e-06	-1.446531e-06	-1.547784e-09	-1.081524e+01	-1.024407e+02
1.400000e-06	-1.415928e-06	-1.534196e-09	-1.058642e+01	-1.012236e+02
1.410000e-06	-1.385198e-06	-1.519180e-09	-1.035667e+01	-9.999779e+01
1.420000e-06	-1.354365e-06	-1.497923e-09	-1.012614e+01	-9.876328e+01
1.430000e-06	-1.323461e-06	-1.475592e-09	-9.895082e+00	-9.752003e+01
1.440000e-06	-1.292397e-06	-1.459254e-09	-9.662830e+00	-9.626790e+01
1.450000e-06	-1.261208e-06	-1.443985e-09	-9.429634e+00	-9.500670e+01
1.460000e-06	-1.229931e-06	-1.425229e-09	-9.195791e+00	-9.373619e+01
1.470000e-06	-1.198540e-06	-1.403102e-09	-8.961090e+00	-9.245610e+01
1.480000e-06	-1.167066e-06	-1.381761e-09	-8.725765e+00	-9.116613e+01
1.490000e-06	-1.135528e-06	-1.364242e-09	-8.489968e+00	-8.986599e+01
1.500000e-06	-1.103943e-06	-1.348433e-09	-8.253816e+00	-8.855538e+01
1.510000e-06	-1.072289e-06	-1.331763e-09	-8.017150e+00	-8.723404e+01
1.520000e-06	-1.040578e-06	-1.312470e-09	-7.780062e+00	-8.590175e+01
1.530000e-06	-1.008812e-06	-1.290655e-09	-7.542558e+00	-8.455833e+01
1.540000e-06	-9.769991e-07	-1.269234e-09	-7.304700e+00	-8.320367e+01
1.550000e-06	-9.451479e-07	-1.248565e-09	-7.066559e+00	-8.183772e+01
1.560000e-06	-9.132345e-07	-1.227480e-09	-6.827953e+00	-8.046053e+01
1.570000e-06	-8.813041e-07	-1.204820e-09	-6.589221e+00	-7.907221e+01
1.580000e-06	-8.493615e-07	-1.184070e-09	-6.350397e+00	-7.767292e+01
1.590000e-06	-8.173678e-07	-1.164395e-09	-6.111190e+00	-7.626294e+01
1.600000e-06	-7.853534e-07	-1.143176e-09	-5.871829e+00	-7.484259e+01
1.610000e-06	-7.533571e-07	-1.119164e-09	-5.632603e+00	-7.341224e+01
1.620000e-06	-7.213220e-07	-1.095297e-09	-5.393087e+00	-7.197230e+01
1.630000e-06	-6.892474e-07	-1.073357e-09	-5.153276e+00	-7.052325e+01
1.640000e-06	-6.571302e-07	-1.052590e-09	-4.913146e+00	-6.906553e+01
1.650000e-06	-6.249283e-07	-1.029900e-09	-4.672383e+00	-6.759962e+01
1.660000e-06	-5.927166e-07	-1.004487e-09	-4.431547e+00	-6.612596e+01
1.670000e-06	-5.605196e-07	-9.814871e-10	-4.190820e+00	-6.464498e+01
1.680000e-06	-5.283306e-07	-9.612926e-10	-3.950154e+00	-6.315705e+01
1.690000e-06	-4.961206e-07	-9.402066e-10	-3.709330e+00	-6.166248e+01
1.700000e-06	-4.638904e-07	-9.164877e-10	-3.468356e+00	-6.016152e+01
1.710000e-06	-4.316279e-07	-8.927248e-10	-3.227140e+00	-5.865432e+01
1.720000e-06	-3.992445e-07	-8.686235e-10	-2.985020e+00	-5.714096e+01
1.730000e-06	-3.668064e-07	-8.436480e-10	-2.742491e+00	-5.562142e+01
1.740000e-06	-3.343958e-07	-8.184022e-10	-2.500168e+00	-5.409562e+01
1.750000e-06	-3.019173e-07	-7.942248e-10	-2.257337e+00	-5.256335e+01
1.760000e-06	-2.694340e-07	-7.696083e-10	-2.014469e+00	-5.102435e+01
1.770000e-06	-2.370193e-07	-7.455322e-10	-1.772115e+00	-4.947829e+01
1.780000e-06	-2.046380e-07	-7.220467e-10	-1.530011e+00	-4.792475e+01
1.790000e-06	-1.722745e-07	-6.976395e-10	-1.288040e+00	-4.636332e+01
1.800000e-06	-1.398516e-07	-6.719134e-10	-1.045625e+00	-4.479350e+01
1.810000e-06	-1.073594e-07	-6.479763e-10	-8.026909e-01	-4.321484e+01
1.820000e-06	-7.480761e-08	-6.262460e-10	-5.593118e-01	-4.162685e+01
1.830000e-06	-4.227529e-08	-6.049304e-10	-3.160784e-01	-4.002908e+01
1.840000e-06	-9.753019e-09	-5.802593e-10	-7.292011e-02	-3.842115e+01
1.850000e-06	2.279302e-08	-5.536812e-10	1.704159e-01	-3.680271e+01
1.860000e-06	5.528169e-08	-5.289960e-10	4.133230e-01	-3.517351e+01
1.870000e-06	8.775503e-08	-5.040756e-10	6.561155e-01	-3.353336e+01
1.880000e-06	1.203334e-07	-4.785718e-10	8.996930e-01	-3.188220e+01
1.890000e-06	1.528957e-07	-4.522793e-10	1.143150e+00	-3.022007e+01
1.900000e-06	1.853739e-07	-4.255040e-10	1.385979e+00	-2.854712e+01
1.910000e-06	2.177966e-07	-3.985756e-10	1.628394e+00	-2.686362e+01
1.920000e-06	2.501805e-07	-3.726433e-10	1.870517e+00	-2.516994e+01
1.930000e-06	2.825714e-07	-3.457070e-10	2.112693e+00	-2.346657e+01
1.940000e-06	3.149184e-07	-3.195007e-10	2.354542e+00	-2.175408e+01
1.950000e-06	3.472296e-07	-2.942382e-10	2.596121e+00	-2.003312e+01
1.960000e-06	3.795057e-07	-2.656415e-10	2.837439e+00	-1.830443e+01
1.970000e-06	4.118054e-07	-2.363915e-10	3.078934e+00	-1.656877e+01
1.980000e-06	4.441292e-07	-2.103089e-10	3.320607e+00	-1.482695e+01
1.990000e-06	4.763498e-07	-1.857455e-10	3.561511e+00	-1.307977e+01
2.000000e-06	5.085532e-07	-1.599090e-10	3.802285e+00	-1.132803e+01
2.010000e-06	5.407903e-07	-1.359367e-10	4.043311e+00	-9.572487e+00
2.020000e-06	5.729420e-07	-1.129126e-10	4.283699e+00	-7.813843e+00
2.030000e-06	6.050808e-07	-8.553172e-11	4.523990e+00	-6.052730e+00
2.040000e-06	6.372239e-07	-5.576143e-11	4.764313e+00	-4.289682e+00
2.050000e-06	6.692924e-07	-2.604531e-11	5.004079e+00	-2.525131e+00
2.060000e-06	7.013113e-07	2.473205e-12	5.243473e+00	-7.593889e-01
2.070000e-06	7.333758e-07	2.855968e-11	5.483210e+00	1.007357e+00
2.080000e-06	7.654578e-07	5.441670e-11	5.723076e+00	2.775050e+00
2.090000e-06	7.974544e-07	8.146679e-11	5.962304e+00	4.543765e+00
2.100000e-06	8.294361e-07	1.071453e-10	6.201421e+00	6.313701e+00
2.110000e-06	8.614152e-07	1.311284e-10	6.440518e+00	8.085179e+00
2.120000e-06	8.933055e-07	1.557365e-10	6.678951e+00	9.858627e+00
2.130000e-06	9.251475e-07	1.830911e-10	6.917023e+00	1.163457e+01
2.140000e-06	9.570181e-07	2.127667e-10	7.155310e+00	1.341361e+01
2.150000e-06	9.888914e-07	2.427157e-10	7.393616e+00	1.519639e+01
2.160000e-06	1.020729e-06	2.688396e-10	7.631656e+00	1.698363e+01
2.170000e-06	1.052515e-06	2.933666e-10	7.869308e+00	1.877601e+01
2.180000e-06	1.084234e-06	3.209333e-10	8.106464e+00	2.057424e+01
2.190000e-06	1.115877e-06	3.492229e-10	8.343042e+00	2.237897e+01
2.200000e-06	1.147393e-06	3.759319e-10	8.578682e+00	2.419082e+01
2.210000e-06	1.178897e-06	4.024694e-10	8.814222e+00	2.601031e+01
2.220000e-06	1.210389e-06	4.315286e-10	9.049678e+00	2.783786e+01
2.230000e-06	1.241764e-06	4.624504e-10	9.284264e+00	2.967380e+01
2.240000e-06	1.273013e-06	4.924864e-10	9.517902e+00	3.151832e+01
2.250000e-06	1.304047e-06	5.201771e-10	9.749932e+00	3.337146e+01
2.260000e-06	1.334928e-06	5.473994e-10	9.980819e+00	3.523313e+01
2.270000e-06	1.365728e-06	5.757009e-10	1.021110e+01	3.710311e+01
2.280000e-06	1.396369e-06	6.053031e-10	1.044019e+01	3.898099e+01
2.290000e-06	1.426910e-06	6.346681e-10	1.066853e+01	4.086626e+01
2.300000e-06	1.457372e-06	6.630042e-10	1.089629e+01	4.275826e+01
2.310000e-06	1.487738e-06	6.905242e-10	1.112332e+01	4.465620e+01
2.320000e-06	1.518024e-06	7.198098e-10	1.134976e+01	4.655920e+01
2.330000e-06	1.548174e-06	7.497140e-10	1.157519e+01	4.846628e+01
2.340000e-06	1.578214e-06	7.787942e-10	1.179979e+01	5.037640e+01
2.350000e-06	1.608238e-06	8.085222e-10	1.202426e+01	5.228844e+01
2.360000e-06	1.638260e-06	8.383260e-10	1.224873e+01	5.420128e+01
2.370000e-06	1.668165e-06	8.680543e-10	1.247232e+01	5.611378e+01
2.380000e-06	1.697972e-06	8.985518e-10	1.269518e+01	5.802479e+01
2.390000e-06	1.727696e-06	9.290676e-10	1.291741e+01	5.993322e+01
2.400000e-06	1.757310e-06	9.562472e-10	1.313883e+01	6.183799e+01
2.410000e-06	1.786836e-06	9.818341e-10	1.335959e+01	6.373812e+01
2.420000e-06	1.816215e-06	1.010622e-09	1.357925e+01	6.563266e+01
2.430000e-06	1.845417e-06	1.041555e-09	1.379758e+01	6.752078e+01
2.440000e-06	1.874557e-06	1.070601e-09	1.401544e+01	6.940171e+01
2.450000e-06	1.903569e-06	1.100468e-09	1.423236e+01	7.127480e+01
2.460000e-06	1.932337e-06	1.131753e-09	1.444745e+01	7.313946e+01
2.470000e-06	1.960913e-06	1.163525e-09	1.466110e+01	7.499521e+01
2.480000e-06	1.989363e-06	1.192787e-09	1.487381e+01	7.684166e+01
2.490000e-06	2.017696e-06	1.219440e-09	1.508565e+01	7.867848e+01
2.500000e-06	2.045867e-06	1.247089e-09	1.529628e+01	8.050542e+01
2.510000e-06	2.073989e-06	1.275753e-09	1.550653e+01	8.232227e+01
2.520000e-06	2.102058e-06	1.303737e-09	1.571640e+01	8.412888e+01
2.530000e-06	2.130016e-06	1.329956e-09	1.592543e+01	8.592510e+01
2.540000e-06	2.157956e-06	1.356256e-09	1.613433e+01	8.771083e+01
2.550000e-06	2.185823e-06	1.382868e-09	1.634268e+01	8.948594e+01
2.560000e-06	2.213618e-06	1.409646e-09	1.655049e+01	9.125031e+01
2.570000e-06	2.241377e-06	1.436228e-09	1.675803e+01	9.300376e+01
2.580000e-06	2.268978e-06	1.464253e-09	1.696440e+01	9.474613e+01
2.590000e-06	2.296405e-06	1.494734e-09	1.716947e+01	9.647716e+01
2.600000e-06	2.323645e-06	1.523902e-09	1.737313e+01	9.819659e+01
2.610000e-06	2.350606e-06	1.548745e-09	1.757471e+01	9.990407e+01
2.620000e-06	2.377326e-06	1.572499e-09	1.777449e+01	1.015992e+02
2.630000e-06	2.403703e-06	1.598624e-09	1.797170e+01	1.032816e+02
2.640000e-06	2.429688e-06	1.625446e-09	1.816598e+01	1.049508e+02
2.650000e-06	2.455357e-06	1.648944e-09	1.835790e+01	1.066062e+02
2.660000e-06	2.480685e-06	1.670971e-09	1.854726e+01	1.082474e+02
2.670000e-06	2.505732e-06	1.695142e-09	1.873453e+01	1.098736e+02
2.680000e-06	2.530534e-06	1.721974e-09	1.891997e+01	1.114844e+02
2.690000e-06	2.555136e-06	1.748150e-09	1.910391e+01	1.130791e+02
2.700000e-06	2.579567e-06	1.771487e-09	1.928657e+01	1.146572e+02
2.710000e-06	2.603859e-06	1.794514e-09	1.946820e+01	1.162182e+02
2.720000e-06	2.628006e-06	1.820102e-09	1.964873e+01	1.177614e+02
2.730000e-06	2.652000e-06	1.847427e-09	1.982813e+01	1.192865e+02
2.740000e-06	2.675818e-06	1.870833e-09	2.000621e+01	1.207930e+02
2.750000e-06	2.699470e-06	1.890067e-09	2.018305e+01	1.222806e+02
2.760000e-06	2.723085e-06	1.910755e-09	2.035961e+01	1.237489e+02
2.770000e-06	2.746556e-06	1.934534e-09	2.053510e+01	1.251978e+02
2.780000e-06	2.769752e-06	1.957533e-09	2.070852e+01	1.266270e+02
2.790000e-06	2.792756e-06	1.976978e-09	2.088052e+01	1.280364e+02
2.800000e-06	2.815581e-06	1.996258e-09	2.105117e+01	1.294260e+02
2.810000e-06	2.838186e-06	2.018035e-09	2.122018e+01	1.307958e+02
2.820000e-06	2.860563e-06	2.040132e-09	2.138749e+01	1.321458e+02
2.830000e-06	2.882756e-06	2.059903e-09	2.155341e+01	1.334761e+02
2.840000e-06	2.904834e-06	2.078191e-09	2.171849e+01	1.347868e+02
2.850000e-06	2.926781e-06	2.095945e-09	2.188258e+01	1.360780e+02
2.860000e-06	2.948536e-06	2.114481e-09	2.204523e+01	1.373499e+02
2.870000e-06	2.970046e-06	2.135622e-09	2.220606e+01	1.386025e+02
2.880000e-06	2.991289e-06	2.155874e-09	2.236488e+01	1.398358e+02
2.890000e-06	3.012307e-06	2.171964e-09	2.252203e+01	1.410501e+02
2.900000e-06	3.033091e-06	2.184329e-09	2.267742e+01	1.422453e+02
