# Temperatura_=_20.0
# Concentracion g/m^3_=_12600.0
# C_Vs_to_Am_M_A/Vsm_=_65563218390.804596
# pendiente_HvsI_1/m_=_3716.3
# ordenada_HvsI_A/m_=_1297.0
# frecuencia_Hz_=_135005.90813151846

Tiempo_(s)	Campo_(V.s)	Magnetizacion_(V.s)	Campo_(kA/m)	Magnetizacion_(A/m)
0.000000e+00	-3.904065e-06	-4.622988e-10	-2.914367e+01	-3.002490e+01
1.000000e-08	-3.904105e-06	-4.627572e-10	-2.914397e+01	-3.007979e+01
2.000000e-08	-3.904014e-06	-4.632307e-10	-2.914329e+01	-3.012326e+01
3.000000e-08	-3.903796e-06	-4.662763e-10	-2.914166e+01	-3.015323e+01
4.000000e-08	-3.903396e-06	-4.711834e-10	-2.913867e+01	-3.016771e+01
5.000000e-08	-3.902700e-06	-4.687008e-10	-2.913348e+01	-3.016491e+01
6.000000e-08	-3.901540e-06	-4.510618e-10	-2.912482e+01	-3.014326e+01
7.000000e-08	-3.899754e-06	-4.439602e-10	-2.911149e+01	-3.010147e+01
8.000000e-08	-3.897337e-06	-4.149956e-10	-2.909345e+01	-3.003856e+01
9.000000e-08	-3.894419e-06	-4.207574e-10	-2.907167e+01	-2.995390e+01
1.000000e-07	-3.891120e-06	-4.701873e-10	-2.904703e+01	-2.984724e+01
1.100000e-07	-3.887619e-06	-4.877711e-10	-2.902090e+01	-2.971874e+01
1.200000e-07	-3.883954e-06	-4.450620e-10	-2.899354e+01	-2.956893e+01
1.300000e-07	-3.880096e-06	-3.936783e-10	-2.896474e+01	-2.939876e+01
1.400000e-07	-3.876161e-06	-3.666709e-10	-2.893537e+01	-2.920958e+01
1.500000e-07	-3.872113e-06	-3.866041e-10	-2.890515e+01	-2.900309e+01
1.600000e-07	-3.867821e-06	-4.367105e-10	-2.887311e+01	-2.878135e+01
1.700000e-07	-3.863385e-06	-4.533866e-10	-2.883999e+01	-2.854670e+01
1.800000e-07	-3.858748e-06	-4.224713e-10	-2.880538e+01	-2.830176e+01
1.900000e-07	-3.853739e-06	-3.849889e-10	-2.876799e+01	-2.804935e+01
2.000000e-07	-3.848384e-06	-4.074717e-10	-2.872801e+01	-2.779242e+01
2.100000e-07	-3.842703e-06	-4.377707e-10	-2.868561e+01	-2.753401e+01
2.200000e-07	-3.836800e-06	-4.557584e-10	-2.864154e+01	-2.727720e+01
2.300000e-07	-3.830714e-06	-4.172579e-10	-2.859611e+01	-2.702499e+01
2.400000e-07	-3.824299e-06	-3.881026e-10	-2.854822e+01	-2.678031e+01
2.500000e-07	-3.817531e-06	-3.902022e-10	-2.849769e+01	-2.654588e+01
2.600000e-07	-3.810517e-06	-4.331781e-10	-2.844534e+01	-2.632420e+01
2.700000e-07	-3.803227e-06	-4.360573e-10	-2.839092e+01	-2.611751e+01
2.800000e-07	-3.795609e-06	-3.900149e-10	-2.833405e+01	-2.592770e+01
2.900000e-07	-3.787744e-06	-3.513522e-10	-2.827534e+01	-2.575629e+01
3.000000e-07	-3.779758e-06	-3.826610e-10	-2.821573e+01	-2.560441e+01
3.100000e-07	-3.771681e-06	-4.219149e-10	-2.815543e+01	-2.547278e+01
3.200000e-07	-3.763463e-06	-4.101020e-10	-2.809408e+01	-2.536170e+01
3.300000e-07	-3.755091e-06	-3.810291e-10	-2.803158e+01	-2.527102e+01
3.400000e-07	-3.746519e-06	-3.770486e-10	-2.796760e+01	-2.520021e+01
3.500000e-07	-3.737458e-06	-3.899590e-10	-2.789996e+01	-2.514832e+01
3.600000e-07	-3.727833e-06	-3.886649e-10	-2.782811e+01	-2.511405e+01
3.700000e-07	-3.717776e-06	-3.967514e-10	-2.775303e+01	-2.509579e+01
3.800000e-07	-3.707214e-06	-3.943971e-10	-2.767419e+01	-2.509163e+01
3.900000e-07	-3.696126e-06	-3.792727e-10	-2.759142e+01	-2.509944e+01
4.000000e-07	-3.684711e-06	-3.602138e-10	-2.750620e+01	-2.511694e+01
4.100000e-07	-3.673115e-06	-3.891255e-10	-2.741964e+01	-2.514171e+01
4.200000e-07	-3.661225e-06	-4.108294e-10	-2.733088e+01	-2.517130e+01
4.300000e-07	-3.649054e-06	-3.877149e-10	-2.724003e+01	-2.520327e+01
4.400000e-07	-3.636627e-06	-3.456258e-10	-2.714726e+01	-2.523526e+01
4.500000e-07	-3.623900e-06	-3.657044e-10	-2.705225e+01	-2.526502e+01
4.600000e-07	-3.610979e-06	-4.035969e-10	-2.695580e+01	-2.529051e+01
4.700000e-07	-3.597804e-06	-4.012618e-10	-2.685744e+01	-2.530987e+01
4.800000e-07	-3.584329e-06	-3.583939e-10	-2.675685e+01	-2.532156e+01
4.900000e-07	-3.570642e-06	-3.472896e-10	-2.665468e+01	-2.532428e+01
5.000000e-07	-3.556690e-06	-3.744740e-10	-2.655053e+01	-2.531710e+01
5.100000e-07	-3.542506e-06	-4.011567e-10	-2.644465e+01	-2.529938e+01
5.200000e-07	-3.528119e-06	-3.906993e-10	-2.633725e+01	-2.527082e+01
5.300000e-07	-3.513476e-06	-3.638757e-10	-2.622794e+01	-2.523148e+01
5.400000e-07	-3.498355e-06	-3.563591e-10	-2.611506e+01	-2.518168e+01
5.500000e-07	-3.482752e-06	-3.804304e-10	-2.599859e+01	-2.512208e+01
5.600000e-07	-3.466709e-06	-4.022234e-10	-2.587883e+01	-2.505356e+01
5.700000e-07	-3.450302e-06	-3.861381e-10	-2.575635e+01	-2.497724e+01
5.800000e-07	-3.433652e-06	-3.560617e-10	-2.563206e+01	-2.489443e+01
5.900000e-07	-3.416743e-06	-3.560616e-10	-2.550583e+01	-2.480655e+01
6.000000e-07	-3.399699e-06	-3.819622e-10	-2.537860e+01	-2.471513e+01
6.100000e-07	-3.382423e-06	-3.886242e-10	-2.524964e+01	-2.462170e+01
6.200000e-07	-3.364989e-06	-3.715961e-10	-2.511949e+01	-2.452782e+01
6.300000e-07	-3.347353e-06	-3.580669e-10	-2.498784e+01	-2.443493e+01
6.400000e-07	-3.329434e-06	-3.692068e-10	-2.485407e+01	-2.434441e+01
6.500000e-07	-3.311365e-06	-3.819751e-10	-2.471919e+01	-2.425746e+01
6.600000e-07	-3.293062e-06	-3.813822e-10	-2.458256e+01	-2.417511e+01
6.700000e-07	-3.274536e-06	-3.678599e-10	-2.444427e+01	-2.409817e+01
6.800000e-07	-3.255703e-06	-3.598834e-10	-2.430368e+01	-2.402720e+01
6.900000e-07	-3.236445e-06	-3.607472e-10	-2.415992e+01	-2.396252e+01
7.000000e-07	-3.216949e-06	-3.690053e-10	-2.401438e+01	-2.390420e+01
7.100000e-07	-3.197290e-06	-3.723106e-10	-2.386763e+01	-2.385205e+01
7.200000e-07	-3.177430e-06	-3.679847e-10	-2.371937e+01	-2.380560e+01
7.300000e-07	-3.157456e-06	-3.596375e-10	-2.357027e+01	-2.376421e+01
7.400000e-07	-3.137404e-06	-3.617278e-10	-2.342058e+01	-2.372698e+01
7.500000e-07	-3.117300e-06	-3.689049e-10	-2.327050e+01	-2.369285e+01
7.600000e-07	-3.097130e-06	-3.704058e-10	-2.311994e+01	-2.366064e+01
7.700000e-07	-3.076801e-06	-3.630721e-10	-2.296818e+01	-2.362902e+01
7.800000e-07	-3.056237e-06	-3.576481e-10	-2.281468e+01	-2.359663e+01
7.900000e-07	-3.035427e-06	-3.578538e-10	-2.265933e+01	-2.356209e+01
8.000000e-07	-3.014345e-06	-3.636402e-10	-2.250195e+01	-2.352402e+01
8.100000e-07	-2.992971e-06	-3.667028e-10	-2.234239e+01	-2.348111e+01
8.200000e-07	-2.971369e-06	-3.640964e-10	-2.218114e+01	-2.343217e+01
8.300000e-07	-2.949608e-06	-3.588542e-10	-2.201869e+01	-2.337612e+01
8.400000e-07	-2.927730e-06	-3.586367e-10	-2.185537e+01	-2.331207e+01
8.500000e-07	-2.905742e-06	-3.632495e-10	-2.169123e+01	-2.323932e+01
8.600000e-07	-2.883609e-06	-3.648412e-10	-2.152601e+01	-2.315737e+01
8.700000e-07	-2.861199e-06	-3.596079e-10	-2.135872e+01	-2.306597e+01
8.800000e-07	-2.838484e-06	-3.482496e-10	-2.118916e+01	-2.296508e+01
8.900000e-07	-2.815564e-06	-3.417775e-10	-2.101806e+01	-2.285492e+01
9.000000e-07	-2.792440e-06	-3.431481e-10	-2.084544e+01	-2.273592e+01
9.100000e-07	-2.769084e-06	-3.470511e-10	-2.067109e+01	-2.260870e+01
9.200000e-07	-2.745470e-06	-3.440581e-10	-2.049481e+01	-2.247411e+01
9.300000e-07	-2.721722e-06	-3.363754e-10	-2.031753e+01	-2.233315e+01
9.400000e-07	-2.697911e-06	-3.359850e-10	-2.013979e+01	-2.218694e+01
9.500000e-07	-2.673978e-06	-3.446117e-10	-1.996113e+01	-2.203671e+01
9.600000e-07	-2.649972e-06	-3.448431e-10	-1.978192e+01	-2.188377e+01
9.700000e-07	-2.625870e-06	-3.367219e-10	-1.960200e+01	-2.172943e+01
9.800000e-07	-2.601609e-06	-3.274094e-10	-1.942089e+01	-2.157502e+01
9.900000e-07	-2.577270e-06	-3.276497e-10	-1.923920e+01	-2.142179e+01
1.000000e-06	-2.552775e-06	-3.316378e-10	-1.905635e+01	-2.127093e+01
1.010000e-06	-2.528024e-06	-3.278276e-10	-1.887158e+01	-2.112350e+01
1.020000e-06	-2.503044e-06	-3.157450e-10	-1.868511e+01	-2.098042e+01
1.030000e-06	-2.477857e-06	-3.098593e-10	-1.849709e+01	-2.084245e+01
1.040000e-06	-2.452406e-06	-3.155348e-10	-1.830710e+01	-2.071015e+01
1.050000e-06	-2.426511e-06	-3.205026e-10	-1.811380e+01	-2.058388e+01
1.060000e-06	-2.400220e-06	-3.189998e-10	-1.791753e+01	-2.046380e+01
1.070000e-06	-2.373550e-06	-3.130601e-10	-1.771845e+01	-2.034986e+01
1.080000e-06	-2.346520e-06	-3.085833e-10	-1.751667e+01	-2.024180e+01
1.090000e-06	-2.319273e-06	-3.078269e-10	-1.731327e+01	-2.013917e+01
1.100000e-06	-2.291868e-06	-3.083731e-10	-1.710869e+01	-2.004134e+01
1.110000e-06	-2.264347e-06	-3.033861e-10	-1.690325e+01	-1.994754e+01
1.120000e-06	-2.236650e-06	-2.938309e-10	-1.669650e+01	-1.985684e+01
1.130000e-06	-2.208820e-06	-2.870410e-10	-1.648874e+01	-1.976824e+01
1.140000e-06	-2.180952e-06	-2.888424e-10	-1.628071e+01	-1.968063e+01
1.150000e-06	-2.153013e-06	-2.926660e-10	-1.607214e+01	-1.959288e+01
1.160000e-06	-2.125028e-06	-2.907453e-10	-1.586324e+01	-1.950386e+01
1.170000e-06	-2.096997e-06	-2.838988e-10	-1.565399e+01	-1.941245e+01
1.180000e-06	-2.068851e-06	-2.803497e-10	-1.544388e+01	-1.931757e+01
1.190000e-06	-2.040552e-06	-2.829455e-10	-1.523263e+01	-1.921824e+01
1.200000e-06	-2.012143e-06	-2.869014e-10	-1.502056e+01	-1.911358e+01
1.210000e-06	-1.983665e-06	-2.835712e-10	-1.480797e+01	-1.900283e+01
1.220000e-06	-1.955026e-06	-2.773149e-10	-1.459418e+01	-1.888538e+01
1.230000e-06	-1.926236e-06	-2.733691e-10	-1.437927e+01	-1.876077e+01
1.240000e-06	-1.897271e-06	-2.728883e-10	-1.416304e+01	-1.862871e+01
1.250000e-06	-1.868043e-06	-2.724297e-10	-1.394485e+01	-1.848907e+01
1.260000e-06	-1.838644e-06	-2.680517e-10	-1.372540e+01	-1.834186e+01
1.270000e-06	-1.809127e-06	-2.633289e-10	-1.350505e+01	-1.818729e+01
1.280000e-06	-1.779525e-06	-2.595048e-10	-1.328407e+01	-1.802566e+01
1.290000e-06	-1.749801e-06	-2.573706e-10	-1.306218e+01	-1.785743e+01
1.300000e-06	-1.719995e-06	-2.542310e-10	-1.283968e+01	-1.768317e+01
1.310000e-06	-1.690146e-06	-2.499717e-10	-1.261687e+01	-1.750351e+01
1.320000e-06	-1.660236e-06	-2.456290e-10	-1.239359e+01	-1.731917e+01
1.330000e-06	-1.630199e-06	-2.418129e-10	-1.216936e+01	-1.713090e+01
1.340000e-06	-1.599984e-06	-2.393090e-10	-1.194381e+01	-1.693946e+01
1.350000e-06	-1.569755e-06	-2.389381e-10	-1.171815e+01	-1.674560e+01
1.360000e-06	-1.539506e-06	-2.364931e-10	-1.149234e+01	-1.655004e+01
1.370000e-06	-1.509162e-06	-2.323049e-10	-1.126583e+01	-1.635346e+01
1.380000e-06	-1.478720e-06	-2.288616e-10	-1.103857e+01	-1.615646e+01
1.390000e-06	-1.448109e-06	-2.285069e-10	-1.081007e+01	-1.595956e+01
1.400000e-06	-1.417425e-06	-2.290122e-10	-1.058101e+01	-1.576317e+01
1.410000e-06	-1.386702e-06	-2.261464e-10	-1.035167e+01	-1.556761e+01
1.420000e-06	-1.355813e-06	-2.202656e-10	-1.012108e+01	-1.537309e+01
1.430000e-06	-1.324791e-06	-2.164308e-10	-9.889508e+00	-1.517971e+01
1.440000e-06	-1.293754e-06	-2.167553e-10	-9.657813e+00	-1.498746e+01
1.450000e-06	-1.262596e-06	-2.168939e-10	-9.425219e+00	-1.479625e+01
1.460000e-06	-1.231211e-06	-2.132927e-10	-9.190932e+00	-1.460589e+01
1.470000e-06	-1.199720e-06	-2.089941e-10	-8.955859e+00	-1.441612e+01
1.480000e-06	-1.168159e-06	-2.066371e-10	-8.720253e+00	-1.422661e+01
1.490000e-06	-1.136479e-06	-2.050049e-10	-8.483766e+00	-1.403701e+01
1.500000e-06	-1.104808e-06	-2.022159e-10	-8.247345e+00	-1.384691e+01
1.510000e-06	-1.073121e-06	-1.978368e-10	-8.010799e+00	-1.365594e+01
1.520000e-06	-1.041319e-06	-1.931667e-10	-7.773401e+00	-1.346369e+01
1.530000e-06	-1.009497e-06	-1.890558e-10	-7.535850e+00	-1.326980e+01
1.540000e-06	-9.776385e-07	-1.872592e-10	-7.298028e+00	-1.307397e+01
1.550000e-06	-9.457342e-07	-1.842665e-10	-7.059863e+00	-1.287590e+01
1.560000e-06	-9.138095e-07	-1.776600e-10	-6.821547e+00	-1.267540e+01
1.570000e-06	-8.818792e-07	-1.719849e-10	-6.583189e+00	-1.247232e+01
1.580000e-06	-8.499325e-07	-1.701284e-10	-6.344708e+00	-1.226659e+01
1.590000e-06	-8.179283e-07	-1.671553e-10	-6.105798e+00	-1.205824e+01
1.600000e-06	-7.858597e-07	-1.621004e-10	-5.866407e+00	-1.184733e+01
1.610000e-06	-7.537562e-07	-1.546851e-10	-5.626756e+00	-1.163402e+01
1.620000e-06	-7.216815e-07	-1.488692e-10	-5.387320e+00	-1.141850e+01
1.630000e-06	-6.895473e-07	-1.449477e-10	-5.147440e+00	-1.120105e+01
1.640000e-06	-6.573408e-07	-1.424392e-10	-4.907019e+00	-1.098195e+01
1.650000e-06	-6.251202e-07	-1.395135e-10	-4.666494e+00	-1.076152e+01
1.660000e-06	-5.928449e-07	-1.356632e-10	-4.425561e+00	-1.054009e+01
1.670000e-06	-5.605858e-07	-1.352348e-10	-4.184748e+00	-1.031797e+01
1.680000e-06	-5.283766e-07	-1.358961e-10	-3.944307e+00	-1.009549e+01
1.690000e-06	-4.961248e-07	-1.362350e-10	-3.703549e+00	-9.872887e+00
1.700000e-06	-4.638508e-07	-1.357734e-10	-3.462625e+00	-9.650401e+00
1.710000e-06	-4.315403e-07	-1.330079e-10	-3.221429e+00	-9.428191e+00
1.720000e-06	-3.991649e-07	-1.265872e-10	-2.979748e+00	-9.206355e+00
1.730000e-06	-3.668386e-07	-1.193355e-10	-2.738434e+00	-8.984919e+00
1.740000e-06	-3.344842e-07	-1.154908e-10	-2.496909e+00	-8.763833e+00
1.750000e-06	-3.020548e-07	-1.143979e-10	-2.254826e+00	-8.542972e+00
1.760000e-06	-2.695981e-07	-1.112690e-10	-2.012537e+00	-8.322136e+00
1.770000e-06	-2.371151e-07	-1.059419e-10	-1.770053e+00	-8.101060e+00
1.780000e-06	-2.046041e-07	-1.010867e-10	-1.527360e+00	-7.879416e+00
1.790000e-06	-1.720421e-07	-9.725943e-11	-1.284287e+00	-7.656832e+00
1.800000e-06	-1.394464e-07	-9.078394e-11	-1.040961e+00	-7.432896e+00
1.810000e-06	-1.068947e-07	-8.366978e-11	-7.979639e-01	-7.207177e+00
1.820000e-06	-7.436739e-08	-7.981752e-11	-5.551493e-01	-6.979239e+00
1.830000e-06	-4.186172e-08	-7.978365e-11	-3.124959e-01	-6.748654e+00
1.840000e-06	-9.356581e-09	-7.879195e-11	-6.984645e-02	-6.515025e+00
1.850000e-06	2.322634e-08	-7.290067e-11	1.733836e-01	-6.277996e+00
1.860000e-06	5.578198e-08	-6.757248e-11	4.164099e-01	-6.037269e+00
1.870000e-06	8.825886e-08	-6.545237e-11	6.588484e-01	-5.792617e+00
1.880000e-06	1.207704e-07	-6.463968e-11	9.015455e-01	-5.543896e+00
1.890000e-06	1.532549e-07	-6.140144e-11	1.144041e+00	-5.291051e+00
1.900000e-06	1.856767e-07	-5.380640e-11	1.386068e+00	-5.034124e+00
1.910000e-06	2.181821e-07	-4.410354e-11	1.628720e+00	-4.773255e+00
1.920000e-06	2.506282e-07	-3.871487e-11	1.870928e+00	-4.508681e+00
1.930000e-06	2.830342e-07	-3.614374e-11	2.112837e+00	-4.240735e+00
1.940000e-06	3.155359e-07	-3.308209e-11	2.355461e+00	-3.969832e+00
1.950000e-06	3.480336e-07	-2.948158e-11	2.598055e+00	-3.696466e+00
1.960000e-06	3.804734e-07	-2.507076e-11	2.840217e+00	-3.421192e+00
1.970000e-06	4.128303e-07	-2.115087e-11	3.081759e+00	-3.144613e+00
1.980000e-06	4.451079e-07	-1.962659e-11	3.322711e+00	-2.867361e+00
1.990000e-06	4.774094e-07	-1.754846e-11	3.563839e+00	-2.590079e+00
2.000000e-06	5.097381e-07	-1.166798e-11	3.805172e+00	-2.313402e+00
2.010000e-06	5.419807e-07	-6.940875e-12	4.045861e+00	-2.037935e+00
2.020000e-06	5.741852e-07	-5.532790e-12	4.286267e+00	-1.764239e+00
2.030000e-06	6.063755e-07	-3.806018e-12	4.526566e+00	-1.492808e+00
2.040000e-06	6.385125e-07	3.815124e-13	4.766467e+00	-1.224053e+00
2.050000e-06	6.705812e-07	8.311872e-12	5.005858e+00	-9.582914e-01
2.060000e-06	7.026478e-07	1.544486e-11	5.245234e+00	-6.957324e-01
2.070000e-06	7.347254e-07	1.623605e-11	5.484692e+00	-4.364698e-01
2.080000e-06	7.667593e-07	1.646326e-11	5.723824e+00	-1.804768e-01
2.090000e-06	7.987664e-07	2.287393e-11	5.962756e+00	7.239472e-02
2.100000e-06	8.307514e-07	3.129340e-11	6.201522e+00	3.224128e-01
2.110000e-06	8.627193e-07	3.497161e-11	6.440161e+00	5.699587e-01
2.120000e-06	8.946752e-07	3.817162e-11	6.678710e+00	8.155178e-01
2.130000e-06	9.266004e-07	4.416207e-11	6.917030e+00	1.059667e+00
2.140000e-06	9.584991e-07	5.176095e-11	7.155152e+00	1.303059e+00
2.150000e-06	9.903907e-07	5.746854e-11	7.393222e+00	1.546404e+00
2.160000e-06	1.022211e-06	5.905225e-11	7.630757e+00	1.790451e+00
2.170000e-06	1.053961e-06	6.000484e-11	7.867768e+00	2.035966e+00
2.180000e-06	1.085700e-06	6.325244e-11	8.104698e+00	2.283711e+00
2.190000e-06	1.117342e-06	6.635649e-11	8.340911e+00	2.534420e+00
2.200000e-06	1.148864e-06	6.870190e-11	8.576219e+00	2.788782e+00
2.210000e-06	1.180376e-06	7.256897e-11	8.811456e+00	3.047417e+00
2.220000e-06	1.211897e-06	7.758730e-11	9.046757e+00	3.310861e+00
2.230000e-06	1.243312e-06	8.463003e-11	9.281269e+00	3.579550e+00
2.240000e-06	1.274538e-06	9.211191e-11	9.514371e+00	3.853808e+00
2.250000e-06	1.305585e-06	9.673387e-11	9.746137e+00	4.133834e+00
2.260000e-06	1.336502e-06	1.017680e-10	9.976929e+00	4.419703e+00
2.270000e-06	1.367321e-06	1.064133e-10	1.020699e+01	4.711359e+00
2.280000e-06	1.397955e-06	1.080574e-10	1.043567e+01	5.008617e+00
2.290000e-06	1.428420e-06	1.079380e-10	1.066309e+01	5.311170e+00
2.300000e-06	1.458842e-06	1.105604e-10	1.089019e+01	5.618601e+00
2.310000e-06	1.489365e-06	1.142609e-10	1.111804e+01	5.930386e+00
2.320000e-06	1.519885e-06	1.194514e-10	1.134587e+01	6.245918e+00
2.330000e-06	1.550211e-06	1.271612e-10	1.157226e+01	6.564521e+00
2.340000e-06	1.580348e-06	1.329917e-10	1.179723e+01	6.885467e+00
2.350000e-06	1.610365e-06	1.386856e-10	1.202130e+01	7.208000e+00
2.360000e-06	1.640323e-06	1.448249e-10	1.224494e+01	7.531354e+00
2.370000e-06	1.670194e-06	1.513088e-10	1.246792e+01	7.854773e+00
2.380000e-06	1.699997e-06	1.563186e-10	1.269040e+01	8.177534e+00
2.390000e-06	1.729710e-06	1.604039e-10	1.291221e+01	8.498965e+00
2.400000e-06	1.759329e-06	1.645990e-10	1.313331e+01	8.818456e+00
2.410000e-06	1.788855e-06	1.693498e-10	1.335372e+01	9.135484e+00
2.420000e-06	1.818197e-06	1.756055e-10	1.357276e+01	9.449613e+00
2.430000e-06	1.847461e-06	1.832254e-10	1.379121e+01	9.760510e+00
2.440000e-06	1.876613e-06	1.887792e-10	1.400883e+01	1.006795e+01
2.450000e-06	1.905652e-06	1.937300e-10	1.422561e+01	1.037180e+01
2.460000e-06	1.934529e-06	2.006525e-10	1.444117e+01	1.067205e+01
2.470000e-06	1.963197e-06	2.074611e-10	1.465517e+01	1.096879e+01
2.480000e-06	1.991727e-06	2.102951e-10	1.486815e+01	1.126218e+01
2.490000e-06	2.020100e-06	2.107498e-10	1.507995e+01	1.155248e+01
2.500000e-06	2.048387e-06	2.149305e-10	1.529112e+01	1.184000e+01
2.510000e-06	2.076582e-06	2.214483e-10	1.550159e+01	1.212511e+01
2.520000e-06	2.104673e-06	2.273177e-10	1.571129e+01	1.240821e+01
2.530000e-06	2.132661e-06	2.327165e-10	1.592022e+01	1.268971e+01
2.540000e-06	2.160619e-06	2.381478e-10	1.612892e+01	1.297002e+01
2.550000e-06	2.188549e-06	2.424116e-10	1.633742e+01	1.324952e+01
2.560000e-06	2.216425e-06	2.451539e-10	1.654551e+01	1.352858e+01
2.570000e-06	2.244238e-06	2.467170e-10	1.675313e+01	1.380748e+01
2.580000e-06	2.271888e-06	2.499097e-10	1.695954e+01	1.408645e+01
2.590000e-06	2.299287e-06	2.559939e-10	1.716407e+01	1.436564e+01
2.600000e-06	2.326514e-06	2.618761e-10	1.736732e+01	1.464513e+01
2.610000e-06	2.353455e-06	2.665299e-10	1.756844e+01	1.492488e+01
2.620000e-06	2.380140e-06	2.697066e-10	1.776764e+01	1.520479e+01
2.630000e-06	2.406587e-06	2.720101e-10	1.796507e+01	1.548465e+01
2.640000e-06	2.432692e-06	2.766072e-10	1.815993e+01	1.576416e+01
2.650000e-06	2.458374e-06	2.810672e-10	1.835165e+01	1.604297e+01
2.660000e-06	2.483681e-06	2.815190e-10	1.854056e+01	1.632064e+01
2.670000e-06	2.508763e-06	2.803567e-10	1.872780e+01	1.659666e+01
2.680000e-06	2.533595e-06	2.832145e-10	1.891318e+01	1.687053e+01
2.690000e-06	2.558213e-06	2.891043e-10	1.909694e+01	1.714168e+01
2.700000e-06	2.582653e-06	2.929808e-10	1.927939e+01	1.740955e+01
2.710000e-06	2.606927e-06	2.953984e-10	1.946059e+01	1.767359e+01
2.720000e-06	2.631024e-06	3.011292e-10	1.964048e+01	1.793327e+01
2.730000e-06	2.655022e-06	3.084734e-10	1.981962e+01	1.818812e+01
2.740000e-06	2.678967e-06	3.119997e-10	1.999837e+01	1.843769e+01
2.750000e-06	2.702810e-06	3.122407e-10	2.017636e+01	1.868165e+01
2.760000e-06	2.726464e-06	3.123116e-10	2.035293e+01	1.891971e+01
2.770000e-06	2.749957e-06	3.167143e-10	2.052830e+01	1.915168e+01
2.780000e-06	2.773246e-06	3.233078e-10	2.070215e+01	1.937746e+01
2.790000e-06	2.796297e-06	3.252848e-10	2.087423e+01	1.959705e+01
2.800000e-06	2.819151e-06	3.255572e-10	2.104483e+01	1.981054e+01
2.810000e-06	2.841815e-06	3.292486e-10	2.121402e+01	2.001811e+01
2.820000e-06	2.864257e-06	3.348512e-10	2.138155e+01	2.022002e+01
2.830000e-06	2.886548e-06	3.381266e-10	2.154795e+01	2.041660e+01
2.840000e-06	2.908676e-06	3.372404e-10	2.171313e+01	2.060825e+01
2.850000e-06	2.930593e-06	3.360079e-10	2.187675e+01	2.079541e+01
2.860000e-06	2.952428e-06	3.376456e-10	2.203975e+01	2.097855e+01
2.870000e-06	2.974096e-06	3.434430e-10	2.220150e+01	2.115817e+01
2.880000e-06	2.995417e-06	3.496625e-10	2.236066e+01	2.133477e+01
2.890000e-06	3.016439e-06	3.516917e-10	2.251758e+01	2.150882e+01
2.900000e-06	3.037238e-06	3.511171e-10	2.267285e+01	2.168078e+01
