# Temperatura_=_20.0
# Concentracion g/m^3_=_12600.0
# C_Vs_to_Am_M_A/Vsm_=_65563218390.804596
# pendiente_HvsI_1/m_=_3716.3
# ordenada_HvsI_A/m_=_1297.0
# frecuencia_Hz_=_135009.122950863

Tiempo_(s)	Campo_(V.s)	Magnetizacion_(V.s)	Campo_(kA/m)	Magnetizacion_(A/m)
0.000000e+00	-3.887326e-06	-3.071133e-09	-2.914888e+01	-2.022933e+02
1.000000e-08	-3.887568e-06	-3.072200e-09	-2.915070e+01	-2.023374e+02
2.000000e-08	-3.887646e-06	-3.075408e-09	-2.915128e+01	-2.023660e+02
3.000000e-08	-3.887525e-06	-3.081546e-09	-2.915037e+01	-2.023777e+02
4.000000e-08	-3.887208e-06	-3.083587e-09	-2.914799e+01	-2.023711e+02
5.000000e-08	-3.886613e-06	-3.080179e-09	-2.914353e+01	-2.023452e+02
6.000000e-08	-3.885727e-06	-3.068144e-09	-2.913689e+01	-2.022988e+02
7.000000e-08	-3.884363e-06	-3.053035e-09	-2.912666e+01	-2.022312e+02
8.000000e-08	-3.882384e-06	-3.056340e-09	-2.911182e+01	-2.021419e+02
9.000000e-08	-3.879841e-06	-3.131442e-09	-2.909275e+01	-2.020305e+02
1.000000e-07	-3.876778e-06	-3.130161e-09	-2.906979e+01	-2.018970e+02
1.100000e-07	-3.873453e-06	-3.086239e-09	-2.904485e+01	-2.017416e+02
1.200000e-07	-3.870014e-06	-3.087480e-09	-2.901907e+01	-2.015650e+02
1.300000e-07	-3.866407e-06	-2.977850e-09	-2.899202e+01	-2.013679e+02
1.400000e-07	-3.862592e-06	-3.010004e-09	-2.896342e+01	-2.011513e+02
1.500000e-07	-3.858613e-06	-3.137811e-09	-2.893358e+01	-2.009167e+02
1.600000e-07	-3.854487e-06	-3.142072e-09	-2.890264e+01	-2.006654e+02
1.700000e-07	-3.850217e-06	-3.054706e-09	-2.887062e+01	-2.003993e+02
1.800000e-07	-3.845702e-06	-2.994958e-09	-2.883676e+01	-2.001201e+02
1.900000e-07	-3.840855e-06	-3.038060e-09	-2.880042e+01	-1.998298e+02
2.000000e-07	-3.835630e-06	-3.088590e-09	-2.876124e+01	-1.995303e+02
2.100000e-07	-3.830102e-06	-3.105767e-09	-2.871979e+01	-1.992236e+02
2.200000e-07	-3.824398e-06	-3.067633e-09	-2.867702e+01	-1.989117e+02
2.300000e-07	-3.818468e-06	-3.023326e-09	-2.863256e+01	-1.985964e+02
2.400000e-07	-3.812293e-06	-3.005677e-09	-2.858625e+01	-1.982794e+02
2.500000e-07	-3.805758e-06	-3.069290e-09	-2.853724e+01	-1.979622e+02
2.600000e-07	-3.798882e-06	-3.104047e-09	-2.848569e+01	-1.976463e+02
2.700000e-07	-3.791777e-06	-3.022400e-09	-2.843241e+01	-1.973326e+02
2.800000e-07	-3.784450e-06	-2.941086e-09	-2.837747e+01	-1.970220e+02
2.900000e-07	-3.776880e-06	-3.005310e-09	-2.832071e+01	-1.967151e+02
3.000000e-07	-3.769094e-06	-3.089767e-09	-2.826233e+01	-1.964121e+02
3.100000e-07	-3.761142e-06	-3.037372e-09	-2.820270e+01	-1.961131e+02
3.200000e-07	-3.753043e-06	-2.948893e-09	-2.814197e+01	-1.958177e+02
3.300000e-07	-3.744733e-06	-2.974846e-09	-2.807965e+01	-1.955253e+02
3.400000e-07	-3.736186e-06	-3.046683e-09	-2.801556e+01	-1.952353e+02
3.500000e-07	-3.727415e-06	-3.017855e-09	-2.794979e+01	-1.949464e+02
3.600000e-07	-3.718182e-06	-2.955237e-09	-2.788056e+01	-1.946575e+02
3.700000e-07	-3.708425e-06	-2.960637e-09	-2.780740e+01	-1.943673e+02
3.800000e-07	-3.698139e-06	-2.987155e-09	-2.773027e+01	-1.940742e+02
3.900000e-07	-3.687489e-06	-2.966210e-09	-2.765042e+01	-1.937766e+02
4.000000e-07	-3.676522e-06	-2.964211e-09	-2.756818e+01	-1.934730e+02
4.100000e-07	-3.665170e-06	-2.986112e-09	-2.748306e+01	-1.931618e+02
4.200000e-07	-3.653563e-06	-2.962885e-09	-2.739602e+01	-1.928414e+02
4.300000e-07	-3.641673e-06	-2.921431e-09	-2.730686e+01	-1.925104e+02
4.400000e-07	-3.629495e-06	-2.942743e-09	-2.721555e+01	-1.921674e+02
4.500000e-07	-3.617013e-06	-2.968219e-09	-2.712195e+01	-1.918114e+02
4.600000e-07	-3.604245e-06	-2.933218e-09	-2.702621e+01	-1.914413e+02
4.700000e-07	-3.591182e-06	-2.895463e-09	-2.692826e+01	-1.910564e+02
4.800000e-07	-3.577835e-06	-2.909084e-09	-2.682818e+01	-1.906560e+02
4.900000e-07	-3.564317e-06	-2.918686e-09	-2.672682e+01	-1.902399e+02
5.000000e-07	-3.550624e-06	-2.903157e-09	-2.662414e+01	-1.898080e+02
5.100000e-07	-3.536683e-06	-2.895463e-09	-2.651961e+01	-1.893604e+02
5.200000e-07	-3.522481e-06	-2.889938e-09	-2.641312e+01	-1.888973e+02
5.300000e-07	-3.507980e-06	-2.871861e-09	-2.630438e+01	-1.884193e+02
5.400000e-07	-3.493021e-06	-2.875529e-09	-2.619221e+01	-1.879271e+02
5.500000e-07	-3.477480e-06	-2.892316e-09	-2.607568e+01	-1.874214e+02
5.600000e-07	-3.461624e-06	-2.869426e-09	-2.595678e+01	-1.869032e+02
5.700000e-07	-3.445646e-06	-2.829923e-09	-2.583697e+01	-1.863735e+02
5.800000e-07	-3.429401e-06	-2.832830e-09	-2.571516e+01	-1.858333e+02
5.900000e-07	-3.412833e-06	-2.854579e-09	-2.559092e+01	-1.852836e+02
6.000000e-07	-3.395966e-06	-2.842130e-09	-2.546445e+01	-1.847254e+02
6.100000e-07	-3.378911e-06	-2.813578e-09	-2.533656e+01	-1.841597e+02
6.200000e-07	-3.361768e-06	-2.802157e-09	-2.520802e+01	-1.835873e+02
6.300000e-07	-3.344449e-06	-2.804404e-09	-2.507815e+01	-1.830090e+02
6.400000e-07	-3.326854e-06	-2.805945e-09	-2.494621e+01	-1.824253e+02
6.500000e-07	-3.309006e-06	-2.799800e-09	-2.481238e+01	-1.818366e+02
6.600000e-07	-3.290962e-06	-2.777901e-09	-2.467708e+01	-1.812433e+02
6.700000e-07	-3.272688e-06	-2.755669e-09	-2.454006e+01	-1.806455e+02
6.800000e-07	-3.254176e-06	-2.751489e-09	-2.440124e+01	-1.800430e+02
6.900000e-07	-3.235354e-06	-2.758485e-09	-2.426011e+01	-1.794355e+02
7.000000e-07	-3.216180e-06	-2.754587e-09	-2.411633e+01	-1.788228e+02
7.100000e-07	-3.196751e-06	-2.731123e-09	-2.397064e+01	-1.782041e+02
7.200000e-07	-3.177109e-06	-2.705792e-09	-2.382336e+01	-1.775789e+02
7.300000e-07	-3.157333e-06	-2.706401e-09	-2.367507e+01	-1.769464e+02
7.400000e-07	-3.137466e-06	-2.717971e-09	-2.352610e+01	-1.763057e+02
7.500000e-07	-3.117542e-06	-2.702290e-09	-2.337670e+01	-1.756559e+02
7.600000e-07	-3.097517e-06	-2.661305e-09	-2.322654e+01	-1.749960e+02
7.700000e-07	-3.077347e-06	-2.642883e-09	-2.307530e+01	-1.743253e+02
7.800000e-07	-3.057070e-06	-2.656206e-09	-2.292325e+01	-1.736428e+02
7.900000e-07	-3.036575e-06	-2.658656e-09	-2.276958e+01	-1.729477e+02
8.000000e-07	-3.015751e-06	-2.629473e-09	-2.261342e+01	-1.722393e+02
8.100000e-07	-2.994688e-06	-2.597508e-09	-2.245549e+01	-1.715171e+02
8.200000e-07	-2.973432e-06	-2.592502e-09	-2.229610e+01	-1.707805e+02
8.300000e-07	-2.951909e-06	-2.603229e-09	-2.213471e+01	-1.700294e+02
8.400000e-07	-2.930191e-06	-2.597507e-09	-2.197186e+01	-1.692635e+02
8.500000e-07	-2.908267e-06	-2.568685e-09	-2.180747e+01	-1.684828e+02
8.600000e-07	-2.886097e-06	-2.542876e-09	-2.164122e+01	-1.676876e+02
8.700000e-07	-2.863876e-06	-2.541113e-09	-2.147460e+01	-1.668780e+02
8.800000e-07	-2.841488e-06	-2.544076e-09	-2.130673e+01	-1.660546e+02
8.900000e-07	-2.818770e-06	-2.524510e-09	-2.113637e+01	-1.652180e+02
9.000000e-07	-2.795907e-06	-2.492225e-09	-2.096494e+01	-1.643688e+02
9.100000e-07	-2.772845e-06	-2.472470e-09	-2.079201e+01	-1.635078e+02
9.200000e-07	-2.749591e-06	-2.470900e-09	-2.061764e+01	-1.626359e+02
9.300000e-07	-2.726218e-06	-2.468992e-09	-2.044238e+01	-1.617538e+02
9.400000e-07	-2.702626e-06	-2.452901e-09	-2.026548e+01	-1.608625e+02
9.500000e-07	-2.678867e-06	-2.428924e-09	-2.008732e+01	-1.599627e+02
9.600000e-07	-2.655019e-06	-2.412085e-09	-1.990850e+01	-1.590554e+02
9.700000e-07	-2.631066e-06	-2.405979e-09	-1.972889e+01	-1.581412e+02
9.800000e-07	-2.606972e-06	-2.398690e-09	-1.954822e+01	-1.572207e+02
9.900000e-07	-2.582761e-06	-2.380363e-09	-1.936668e+01	-1.562946e+02
1.000000e-06	-2.558497e-06	-2.356970e-09	-1.918473e+01	-1.553632e+02
1.010000e-06	-2.534006e-06	-2.338868e-09	-1.900109e+01	-1.544267e+02
1.020000e-06	-2.509175e-06	-2.331257e-09	-1.881490e+01	-1.534854e+02
1.030000e-06	-2.484078e-06	-2.324441e-09	-1.862671e+01	-1.525392e+02
1.040000e-06	-2.458760e-06	-2.306862e-09	-1.843686e+01	-1.515879e+02
1.050000e-06	-2.433199e-06	-2.281387e-09	-1.824520e+01	-1.506313e+02
1.060000e-06	-2.407335e-06	-2.263815e-09	-1.805126e+01	-1.496690e+02
1.070000e-06	-2.381084e-06	-2.260457e-09	-1.785441e+01	-1.487004e+02
1.080000e-06	-2.354414e-06	-2.253540e-09	-1.765443e+01	-1.477250e+02
1.090000e-06	-2.327453e-06	-2.229705e-09	-1.745227e+01	-1.467421e+02
1.100000e-06	-2.300267e-06	-2.203861e-09	-1.724841e+01	-1.457510e+02
1.110000e-06	-2.272933e-06	-2.192087e-09	-1.704346e+01	-1.447508e+02
1.120000e-06	-2.245459e-06	-2.186878e-09	-1.683744e+01	-1.437409e+02
1.130000e-06	-2.217798e-06	-2.170877e-09	-1.663003e+01	-1.427206e+02
1.140000e-06	-2.190062e-06	-2.143539e-09	-1.642205e+01	-1.416891e+02
1.150000e-06	-2.162321e-06	-2.121079e-09	-1.621403e+01	-1.406459e+02
1.160000e-06	-2.134542e-06	-2.112334e-09	-1.600574e+01	-1.395903e+02
1.170000e-06	-2.106651e-06	-2.106772e-09	-1.579660e+01	-1.385221e+02
1.180000e-06	-2.078641e-06	-2.089489e-09	-1.558657e+01	-1.374408e+02
1.190000e-06	-2.050606e-06	-2.063476e-09	-1.537635e+01	-1.363462e+02
1.200000e-06	-2.022467e-06	-2.045224e-09	-1.516535e+01	-1.352382e+02
1.210000e-06	-1.994110e-06	-2.037388e-09	-1.495271e+01	-1.341169e+02
1.220000e-06	-1.965588e-06	-2.025764e-09	-1.473884e+01	-1.329824e+02
1.230000e-06	-1.936912e-06	-2.004430e-09	-1.452382e+01	-1.318350e+02
1.240000e-06	-1.908157e-06	-1.979670e-09	-1.430820e+01	-1.306750e+02
1.250000e-06	-1.879333e-06	-1.960866e-09	-1.409206e+01	-1.295029e+02
1.260000e-06	-1.850411e-06	-1.948246e-09	-1.387520e+01	-1.283192e+02
1.270000e-06	-1.821259e-06	-1.933674e-09	-1.365660e+01	-1.271244e+02
1.280000e-06	-1.791825e-06	-1.911069e-09	-1.343589e+01	-1.259190e+02
1.290000e-06	-1.762346e-06	-1.885506e-09	-1.321485e+01	-1.247038e+02
1.300000e-06	-1.732768e-06	-1.864934e-09	-1.299306e+01	-1.234792e+02
1.310000e-06	-1.703062e-06	-1.851026e-09	-1.277031e+01	-1.222459e+02
1.320000e-06	-1.673331e-06	-1.837148e-09	-1.254737e+01	-1.210042e+02
1.330000e-06	-1.643502e-06	-1.816396e-09	-1.232370e+01	-1.197546e+02
1.340000e-06	-1.613562e-06	-1.792452e-09	-1.209920e+01	-1.184976e+02
1.350000e-06	-1.583496e-06	-1.774728e-09	-1.187375e+01	-1.172332e+02
1.360000e-06	-1.553347e-06	-1.762375e-09	-1.164768e+01	-1.159616e+02
1.370000e-06	-1.523098e-06	-1.745820e-09	-1.142086e+01	-1.146829e+02
1.380000e-06	-1.492705e-06	-1.720671e-09	-1.119296e+01	-1.133970e+02
1.390000e-06	-1.462261e-06	-1.694151e-09	-1.096468e+01	-1.121037e+02
1.400000e-06	-1.431736e-06	-1.676775e-09	-1.073579e+01	-1.108027e+02
1.410000e-06	-1.401111e-06	-1.665205e-09	-1.050615e+01	-1.094936e+02
1.420000e-06	-1.370412e-06	-1.647576e-09	-1.027595e+01	-1.081761e+02
1.430000e-06	-1.339634e-06	-1.621327e-09	-1.004516e+01	-1.068495e+02
1.440000e-06	-1.308759e-06	-1.596924e-09	-9.813650e+00	-1.055134e+02
1.450000e-06	-1.277849e-06	-1.580332e-09	-9.581871e+00	-1.041670e+02
1.460000e-06	-1.246856e-06	-1.565065e-09	-9.349478e+00	-1.028099e+02
1.470000e-06	-1.215756e-06	-1.543026e-09	-9.116271e+00	-1.014415e+02
1.480000e-06	-1.184508e-06	-1.516180e-09	-8.881963e+00	-1.000611e+02
1.490000e-06	-1.153098e-06	-1.494254e-09	-8.646437e+00	-9.866825e+01
1.500000e-06	-1.121615e-06	-1.479532e-09	-8.410361e+00	-9.726254e+01
1.510000e-06	-1.090056e-06	-1.464693e-09	-8.173723e+00	-9.584357e+01
1.520000e-06	-1.058414e-06	-1.445781e-09	-7.936452e+00	-9.441106e+01
1.530000e-06	-1.026761e-06	-1.422230e-09	-7.699109e+00	-9.296483e+01
1.540000e-06	-9.950586e-07	-1.397116e-09	-7.461387e+00	-9.150480e+01
1.550000e-06	-9.632529e-07	-1.373776e-09	-7.222894e+00	-9.003099e+01
1.560000e-06	-9.314268e-07	-1.351169e-09	-6.984248e+00	-8.854353e+01
1.570000e-06	-8.996140e-07	-1.326348e-09	-6.745701e+00	-8.704266e+01
1.580000e-06	-8.677727e-07	-1.300188e-09	-6.506942e+00	-8.552868e+01
1.590000e-06	-8.358297e-07	-1.275396e-09	-6.267419e+00	-8.400201e+01
1.600000e-06	-8.038412e-07	-1.251248e-09	-6.027555e+00	-8.246312e+01
1.610000e-06	-7.718759e-07	-1.226849e-09	-5.787865e+00	-8.091254e+01
1.620000e-06	-7.399406e-07	-1.200251e-09	-5.548400e+00	-7.935082e+01
1.630000e-06	-7.079928e-07	-1.172937e-09	-5.308842e+00	-7.777855e+01
1.640000e-06	-6.760218e-07	-1.149033e-09	-5.069109e+00	-7.619631e+01
1.650000e-06	-6.439913e-07	-1.127553e-09	-4.828930e+00	-7.460468e+01
1.660000e-06	-6.119061e-07	-1.103519e-09	-4.588341e+00	-7.300417e+01
1.670000e-06	-5.798286e-07	-1.077439e-09	-4.347810e+00	-7.139528e+01
1.680000e-06	-5.477247e-07	-1.053836e-09	-4.107080e+00	-6.977843e+01
1.690000e-06	-5.155727e-07	-1.032729e-09	-3.865991e+00	-6.815396e+01
1.700000e-06	-4.833791e-07	-1.010432e-09	-3.624589e+00	-6.652215e+01
1.710000e-06	-4.511424e-07	-9.854850e-10	-3.382864e+00	-6.488315e+01
1.720000e-06	-4.188904e-07	-9.594349e-10	-3.141024e+00	-6.323706e+01
1.730000e-06	-3.865965e-07	-9.327563e-10	-2.898871e+00	-6.158386e+01
1.740000e-06	-3.542450e-07	-9.068365e-10	-2.656285e+00	-5.992345e+01
1.750000e-06	-3.219121e-07	-8.831153e-10	-2.413839e+00	-5.825567e+01
1.760000e-06	-2.896322e-07	-8.588080e-10	-2.171790e+00	-5.658024e+01
1.770000e-06	-2.573062e-07	-8.329767e-10	-1.929395e+00	-5.489687e+01
1.780000e-06	-2.249797e-07	-8.072678e-10	-1.686997e+00	-5.320519e+01
1.790000e-06	-1.926929e-07	-7.819924e-10	-1.444896e+00	-5.150480e+01
1.800000e-06	-1.603246e-07	-7.564030e-10	-1.202184e+00	-4.979532e+01
1.810000e-06	-1.279096e-07	-7.302494e-10	-9.591225e-01	-4.807633e+01
1.820000e-06	-9.554415e-08	-7.050360e-10	-7.164321e-01	-4.634744e+01
1.830000e-06	-6.321116e-08	-6.801656e-10	-4.739851e-01	-4.460832e+01
1.840000e-06	-3.080822e-08	-6.538124e-10	-2.310136e-01	-4.285867e+01
1.850000e-06	1.630725e-09	-6.262810e-10	1.222789e-02	-4.109826e+01
1.860000e-06	3.407444e-08	-5.991097e-10	2.555051e-01	-3.932693e+01
1.870000e-06	6.648950e-08	-5.734663e-10	4.985675e-01	-3.754462e+01
1.880000e-06	9.886332e-08	-5.472431e-10	7.413206e-01	-3.575136e+01
1.890000e-06	1.312390e-07	-5.197688e-10	9.840876e-01	-3.394726e+01
1.900000e-06	1.635676e-07	-4.911427e-10	1.226502e+00	-3.213254e+01
1.910000e-06	1.959244e-07	-4.612128e-10	1.469127e+00	-3.030752e+01
1.920000e-06	2.282677e-07	-4.319377e-10	1.711652e+00	-2.847260e+01
1.930000e-06	2.605211e-07	-4.033549e-10	1.953502e+00	-2.662825e+01
1.940000e-06	2.928156e-07	-3.755713e-10	2.195660e+00	-2.477503e+01
1.950000e-06	3.251353e-07	-3.468426e-10	2.438007e+00	-2.291354e+01
1.960000e-06	3.574190e-07	-3.176019e-10	2.680085e+00	-2.104443e+01
1.970000e-06	3.896670e-07	-2.898007e-10	2.921895e+00	-1.916837e+01
1.980000e-06	4.218449e-07	-2.633946e-10	3.163178e+00	-1.728603e+01
1.990000e-06	4.539479e-07	-2.384386e-10	3.403901e+00	-1.539810e+01
2.000000e-06	4.861601e-07	-2.127294e-10	3.645442e+00	-1.350521e+01
2.010000e-06	5.183926e-07	-1.842031e-10	3.887136e+00	-1.160797e+01
2.020000e-06	5.504885e-07	-1.554816e-10	4.127805e+00	-9.706922e+00
2.030000e-06	5.825406e-07	-1.282599e-10	4.368146e+00	-7.802552e+00
2.040000e-06	6.145448e-07	-1.008367e-10	4.608127e+00	-5.895259e+00
2.050000e-06	6.465737e-07	-7.049845e-11	4.848294e+00	-3.985356e+00
2.060000e-06	6.786100e-07	-3.931417e-11	5.088516e+00	-2.073064e+00
2.070000e-06	7.105635e-07	-1.163296e-11	5.328118e+00	-1.585097e-01
2.080000e-06	7.425167e-07	1.526719e-11	5.567717e+00	1.758274e+00
2.090000e-06	7.745338e-07	4.515784e-11	5.807796e+00	3.677344e+00
2.100000e-06	8.065125e-07	7.699635e-11	6.047586e+00	5.598845e+00
2.110000e-06	8.384145e-07	1.066929e-10	6.286801e+00	7.522995e+00
2.120000e-06	8.703031e-07	1.346947e-10	6.525916e+00	9.450077e+00
2.130000e-06	9.021946e-07	1.639625e-10	6.765052e+00	1.138043e+01
2.140000e-06	9.340306e-07	1.951473e-10	7.003772e+00	1.331442e+01
2.150000e-06	9.658335e-07	2.265120e-10	7.242245e+00	1.525245e+01
2.160000e-06	9.976100e-07	2.564710e-10	7.480518e+00	1.719493e+01
2.170000e-06	1.029367e-06	2.841682e-10	7.718644e+00	1.914225e+01
2.180000e-06	1.061070e-06	3.116758e-10	7.956367e+00	2.109479e+01
2.190000e-06	1.092720e-06	3.410929e-10	8.193693e+00	2.305288e+01
2.200000e-06	1.124312e-06	3.728394e-10	8.430585e+00	2.501681e+01
2.210000e-06	1.155787e-06	4.026486e-10	8.666603e+00	2.698680e+01
2.220000e-06	1.187186e-06	4.316561e-10	8.902042e+00	2.896302e+01
2.230000e-06	1.218393e-06	4.646091e-10	9.136044e+00	3.094554e+01
2.240000e-06	1.249453e-06	4.978431e-10	9.368950e+00	3.293436e+01
2.250000e-06	1.280507e-06	5.285271e-10	9.601806e+00	3.492939e+01
2.260000e-06	1.311408e-06	5.585980e-10	9.833512e+00	3.693048e+01
2.270000e-06	1.342141e-06	5.885487e-10	1.006396e+01	3.893737e+01
2.280000e-06	1.372750e-06	6.178948e-10	1.029348e+01	4.094975e+01
2.290000e-06	1.403254e-06	6.482543e-10	1.052222e+01	4.296722e+01
2.300000e-06	1.433675e-06	6.776672e-10	1.075032e+01	4.498936e+01
2.310000e-06	1.464048e-06	7.069457e-10	1.097807e+01	4.701565e+01
2.320000e-06	1.494395e-06	7.367248e-10	1.120563e+01	4.904558e+01
2.330000e-06	1.524632e-06	7.677677e-10	1.143236e+01	5.107858e+01
2.340000e-06	1.554722e-06	7.989545e-10	1.165799e+01	5.311407e+01
2.350000e-06	1.584695e-06	8.295159e-10	1.188274e+01	5.515148e+01
2.360000e-06	1.614603e-06	8.603363e-10	1.210700e+01	5.719022e+01
2.370000e-06	1.644432e-06	8.928949e-10	1.233067e+01	5.922974e+01
2.380000e-06	1.674221e-06	9.265750e-10	1.255404e+01	6.126947e+01
2.390000e-06	1.703965e-06	9.579696e-10	1.277708e+01	6.330889e+01
2.400000e-06	1.733616e-06	9.867106e-10	1.299942e+01	6.534749e+01
2.410000e-06	1.763149e-06	1.015058e-09	1.322086e+01	6.738481e+01
2.420000e-06	1.792504e-06	1.044869e-09	1.344098e+01	6.942038e+01
2.430000e-06	1.821717e-06	1.076593e-09	1.366004e+01	7.145377e+01
2.440000e-06	1.850841e-06	1.109603e-09	1.387842e+01	7.348458e+01
2.450000e-06	1.879747e-06	1.141468e-09	1.409517e+01	7.551239e+01
2.460000e-06	1.908448e-06	1.173533e-09	1.431038e+01	7.753681e+01
2.470000e-06	1.937052e-06	1.206532e-09	1.452487e+01	7.955741e+01
2.480000e-06	1.965467e-06	1.239044e-09	1.473793e+01	8.157377e+01
2.490000e-06	1.993707e-06	1.267752e-09	1.494969e+01	8.358544e+01
2.500000e-06	2.021830e-06	1.295268e-09	1.516057e+01	8.559193e+01
2.510000e-06	2.049852e-06	1.324802e-09	1.537069e+01	8.759270e+01
2.520000e-06	2.077819e-06	1.355223e-09	1.558040e+01	8.958716e+01
2.530000e-06	2.105740e-06	1.386263e-09	1.578976e+01	9.157468e+01
2.540000e-06	2.133660e-06	1.416184e-09	1.599912e+01	9.355454e+01
2.550000e-06	2.161568e-06	1.444580e-09	1.620839e+01	9.552599e+01
2.560000e-06	2.189426e-06	1.473343e-09	1.641728e+01	9.748818e+01
2.570000e-06	2.217181e-06	1.503551e-09	1.662540e+01	9.944023e+01
2.580000e-06	2.244792e-06	1.533603e-09	1.683244e+01	1.013812e+02
2.590000e-06	2.272313e-06	1.562994e-09	1.703880e+01	1.033101e+02
2.600000e-06	2.299661e-06	1.593362e-09	1.724387e+01	1.052259e+02
2.610000e-06	2.326728e-06	1.624345e-09	1.744683e+01	1.071276e+02
2.620000e-06	2.353437e-06	1.652882e-09	1.764711e+01	1.090140e+02
2.630000e-06	2.379783e-06	1.680614e-09	1.784466e+01	1.108842e+02
2.640000e-06	2.405854e-06	1.708624e-09	1.804015e+01	1.127372e+02
2.650000e-06	2.431655e-06	1.736554e-09	1.823362e+01	1.145718e+02
2.660000e-06	2.457157e-06	1.762777e-09	1.842484e+01	1.163873e+02
2.670000e-06	2.482332e-06	1.786243e-09	1.861362e+01	1.181827e+02
2.680000e-06	2.507275e-06	1.811340e-09	1.880065e+01	1.199572e+02
2.690000e-06	2.531902e-06	1.838557e-09	1.898532e+01	1.217102e+02
2.700000e-06	2.556288e-06	1.865579e-09	1.916817e+01	1.234411e+02
2.710000e-06	2.580606e-06	1.892972e-09	1.935052e+01	1.251495e+02
2.720000e-06	2.604803e-06	1.920488e-09	1.953196e+01	1.268350e+02
2.730000e-06	2.628801e-06	1.946466e-09	1.971191e+01	1.284974e+02
2.740000e-06	2.652643e-06	1.970812e-09	1.989068e+01	1.301367e+02
2.750000e-06	2.676425e-06	1.993918e-09	2.006901e+01	1.317529e+02
2.760000e-06	2.700043e-06	2.016138e-09	2.024611e+01	1.333461e+02
2.770000e-06	2.723505e-06	2.040137e-09	2.042204e+01	1.349167e+02
2.780000e-06	2.746828e-06	2.065496e-09	2.059693e+01	1.364649e+02
2.790000e-06	2.769818e-06	2.089088e-09	2.076931e+01	1.379912e+02
2.800000e-06	2.792512e-06	2.111885e-09	2.093949e+01	1.394961e+02
2.810000e-06	2.815074e-06	2.135800e-09	2.110867e+01	1.409802e+02
2.820000e-06	2.837451e-06	2.160062e-09	2.127646e+01	1.424439e+02
2.830000e-06	2.859604e-06	2.182751e-09	2.144257e+01	1.438878e+02
2.840000e-06	2.881636e-06	2.203800e-09	2.160777e+01	1.453124e+02
2.850000e-06	2.903528e-06	2.223914e-09	2.177193e+01	1.467183e+02
2.860000e-06	2.925276e-06	2.242806e-09	2.193501e+01	1.481058e+02
2.870000e-06	2.946897e-06	2.262064e-09	2.209713e+01	1.494753e+02
2.880000e-06	2.968269e-06	2.284031e-09	2.225739e+01	1.508270e+02
2.890000e-06	2.989372e-06	2.305723e-09	2.241563e+01	1.521613e+02
2.900000e-06	3.010209e-06	2.324542e-09	2.257187e+01	1.534780e+02
