# Temperatura_=_20.0
# Concentracion g/m^3_=_12600.0
# C_Vs_to_Am_M_A/Vsm_=_65563218390.804596
# pendiente_HvsI_1/m_=_3716.3
# ordenada_HvsI_A/m_=_1297.0
# frecuencia_Hz_=_135008.36666991442

Tiempo_(s)	Campo_(V.s)	Magnetizacion_(V.s)	Campo_(kA/m)	Magnetizacion_(A/m)
0.000000e+00	-3.897246e-06	-3.130547e-09	-2.915965e+01	-2.057779e+02
1.000000e-08	-3.897369e-06	-3.130490e-09	-2.916057e+01	-2.058310e+02
2.000000e-08	-3.897396e-06	-3.133042e-09	-2.916077e+01	-2.058649e+02
3.000000e-08	-3.897286e-06	-3.136057e-09	-2.915995e+01	-2.058779e+02
4.000000e-08	-3.896959e-06	-3.137416e-09	-2.915750e+01	-2.058685e+02
5.000000e-08	-3.896288e-06	-3.128440e-09	-2.915248e+01	-2.058354e+02
6.000000e-08	-3.895238e-06	-3.113606e-09	-2.914463e+01	-2.057774e+02
7.000000e-08	-3.893740e-06	-3.107343e-09	-2.913341e+01	-2.056938e+02
8.000000e-08	-3.891586e-06	-3.131462e-09	-2.911730e+01	-2.055839e+02
9.000000e-08	-3.888816e-06	-3.199508e-09	-2.909657e+01	-2.054476e+02
1.000000e-07	-3.885676e-06	-3.228438e-09	-2.907308e+01	-2.052850e+02
1.100000e-07	-3.882357e-06	-3.161277e-09	-2.904825e+01	-2.050966e+02
1.200000e-07	-3.878800e-06	-3.077702e-09	-2.902163e+01	-2.048832e+02
1.300000e-07	-3.875021e-06	-3.013758e-09	-2.899336e+01	-2.046461e+02
1.400000e-07	-3.871116e-06	-3.036962e-09	-2.896414e+01	-2.043867e+02
1.500000e-07	-3.867032e-06	-3.087590e-09	-2.893358e+01	-2.041068e+02
1.600000e-07	-3.862812e-06	-3.094622e-09	-2.890201e+01	-2.038085e+02
1.700000e-07	-3.858484e-06	-3.104484e-09	-2.886962e+01	-2.034939e+02
1.800000e-07	-3.853878e-06	-3.077905e-09	-2.883516e+01	-2.031655e+02
1.900000e-07	-3.848945e-06	-3.063378e-09	-2.879825e+01	-2.028258e+02
2.000000e-07	-3.843696e-06	-3.076138e-09	-2.875898e+01	-2.024773e+02
2.100000e-07	-3.838130e-06	-3.109424e-09	-2.871734e+01	-2.021225e+02
2.200000e-07	-3.832252e-06	-3.110781e-09	-2.867335e+01	-2.017640e+02
2.300000e-07	-3.826087e-06	-3.085270e-09	-2.862722e+01	-2.014040e+02
2.400000e-07	-3.819740e-06	-3.071414e-09	-2.857974e+01	-2.010448e+02
2.500000e-07	-3.813159e-06	-3.081603e-09	-2.853050e+01	-2.006881e+02
2.600000e-07	-3.806251e-06	-3.075785e-09	-2.847882e+01	-2.003358e+02
2.700000e-07	-3.798980e-06	-3.053641e-09	-2.842441e+01	-1.999892e+02
2.800000e-07	-3.791390e-06	-3.057467e-09	-2.836762e+01	-1.996492e+02
2.900000e-07	-3.783616e-06	-3.060419e-09	-2.830946e+01	-1.993166e+02
3.000000e-07	-3.775730e-06	-3.042248e-09	-2.825045e+01	-1.989915e+02
3.100000e-07	-3.767713e-06	-3.013335e-09	-2.819047e+01	-1.986740e+02
3.200000e-07	-3.759476e-06	-3.030581e-09	-2.812884e+01	-1.983636e+02
3.300000e-07	-3.751112e-06	-3.056164e-09	-2.806626e+01	-1.980596e+02
3.400000e-07	-3.742574e-06	-3.043901e-09	-2.800238e+01	-1.977607e+02
3.500000e-07	-3.733588e-06	-2.997142e-09	-2.793514e+01	-1.974658e+02
3.600000e-07	-3.724053e-06	-2.996599e-09	-2.786380e+01	-1.971731e+02
3.700000e-07	-3.713988e-06	-3.029603e-09	-2.778849e+01	-1.968809e+02
3.800000e-07	-3.703427e-06	-3.031071e-09	-2.770947e+01	-1.965871e+02
3.900000e-07	-3.692534e-06	-2.986146e-09	-2.762797e+01	-1.962899e+02
4.000000e-07	-3.681335e-06	-2.964416e-09	-2.754418e+01	-1.959870e+02
4.100000e-07	-3.669714e-06	-2.984788e-09	-2.745723e+01	-1.956765e+02
4.200000e-07	-3.657846e-06	-3.008347e-09	-2.736843e+01	-1.953563e+02
4.300000e-07	-3.645869e-06	-2.993396e-09	-2.727882e+01	-1.950246e+02
4.400000e-07	-3.633696e-06	-2.952837e-09	-2.718774e+01	-1.946797e+02
4.500000e-07	-3.621264e-06	-2.935658e-09	-2.709472e+01	-1.943202e+02
4.600000e-07	-3.608473e-06	-2.961856e-09	-2.699901e+01	-1.939447e+02
4.700000e-07	-3.595345e-06	-2.982278e-09	-2.690079e+01	-1.935523e+02
4.800000e-07	-3.581960e-06	-2.945075e-09	-2.680064e+01	-1.931424e+02
4.900000e-07	-3.568342e-06	-2.898625e-09	-2.669875e+01	-1.927144e+02
5.000000e-07	-3.554490e-06	-2.906574e-09	-2.659511e+01	-1.922684e+02
5.100000e-07	-3.540421e-06	-2.946416e-09	-2.648984e+01	-1.918045e+02
5.200000e-07	-3.526115e-06	-2.936673e-09	-2.638280e+01	-1.913232e+02
5.300000e-07	-3.511448e-06	-2.893782e-09	-2.627306e+01	-1.908252e+02
5.400000e-07	-3.496416e-06	-2.878609e-09	-2.616059e+01	-1.903114e+02
5.500000e-07	-3.480972e-06	-2.902863e-09	-2.604503e+01	-1.897830e+02
5.600000e-07	-3.465136e-06	-2.911293e-09	-2.592655e+01	-1.892412e+02
5.700000e-07	-3.448944e-06	-2.889128e-09	-2.580540e+01	-1.886874e+02
5.800000e-07	-3.432489e-06	-2.857866e-09	-2.568228e+01	-1.881230e+02
5.900000e-07	-3.415741e-06	-2.850759e-09	-2.555697e+01	-1.875494e+02
6.000000e-07	-3.398720e-06	-2.861495e-09	-2.542962e+01	-1.869680e+02
6.100000e-07	-3.381608e-06	-2.862920e-09	-2.530158e+01	-1.863802e+02
6.200000e-07	-3.364353e-06	-2.836861e-09	-2.517248e+01	-1.857871e+02
6.300000e-07	-3.346872e-06	-2.813254e-09	-2.504169e+01	-1.851898e+02
6.400000e-07	-3.329182e-06	-2.816193e-09	-2.490933e+01	-1.845891e+02
6.500000e-07	-3.311299e-06	-2.827492e-09	-2.477552e+01	-1.839857e+02
6.600000e-07	-3.293098e-06	-2.813584e-09	-2.463935e+01	-1.833799e+02
6.700000e-07	-3.274646e-06	-2.786388e-09	-2.450128e+01	-1.827720e+02
6.800000e-07	-3.255966e-06	-2.771919e-09	-2.436152e+01	-1.821619e+02
6.900000e-07	-3.236961e-06	-2.771366e-09	-2.421932e+01	-1.815492e+02
7.000000e-07	-3.217672e-06	-2.769198e-09	-2.407500e+01	-1.809335e+02
7.100000e-07	-3.198141e-06	-2.752000e-09	-2.392886e+01	-1.803139e+02
7.200000e-07	-3.178421e-06	-2.732696e-09	-2.378132e+01	-1.796897e+02
7.300000e-07	-3.158590e-06	-2.726655e-09	-2.363294e+01	-1.790597e+02
7.400000e-07	-3.138704e-06	-2.726127e-09	-2.348415e+01	-1.784228e+02
7.500000e-07	-3.118697e-06	-2.714923e-09	-2.333445e+01	-1.777777e+02
7.600000e-07	-3.098535e-06	-2.693148e-09	-2.318360e+01	-1.771230e+02
7.700000e-07	-3.078249e-06	-2.675411e-09	-2.303182e+01	-1.764576e+02
7.800000e-07	-3.057757e-06	-2.669143e-09	-2.287849e+01	-1.757801e+02
7.900000e-07	-3.037079e-06	-2.662594e-09	-2.272378e+01	-1.750893e+02
8.000000e-07	-3.016159e-06	-2.648680e-09	-2.256725e+01	-1.743841e+02
8.100000e-07	-2.994909e-06	-2.631286e-09	-2.240825e+01	-1.736637e+02
8.200000e-07	-2.973441e-06	-2.620611e-09	-2.224763e+01	-1.729272e+02
8.300000e-07	-2.951768e-06	-2.616150e-09	-2.208547e+01	-1.721741e+02
8.400000e-07	-2.929902e-06	-2.612481e-09	-2.192187e+01	-1.714039e+02
8.500000e-07	-2.907891e-06	-2.598290e-09	-2.175718e+01	-1.706166e+02
8.600000e-07	-2.885694e-06	-2.580687e-09	-2.159109e+01	-1.698122e+02
8.700000e-07	-2.863354e-06	-2.572086e-09	-2.142395e+01	-1.689908e+02
8.800000e-07	-2.840853e-06	-2.564974e-09	-2.125559e+01	-1.681531e+02
8.900000e-07	-2.818112e-06	-2.548270e-09	-2.108544e+01	-1.672996e+02
9.000000e-07	-2.795141e-06	-2.526590e-09	-2.091357e+01	-1.664311e+02
9.100000e-07	-2.771932e-06	-2.508837e-09	-2.073992e+01	-1.655487e+02
9.200000e-07	-2.748506e-06	-2.500201e-09	-2.056464e+01	-1.646532e+02
9.300000e-07	-2.724827e-06	-2.489631e-09	-2.038747e+01	-1.637460e+02
9.400000e-07	-2.700995e-06	-2.472927e-09	-2.020916e+01	-1.628280e+02
9.500000e-07	-2.677151e-06	-2.455672e-09	-2.003076e+01	-1.619006e+02
9.600000e-07	-2.653210e-06	-2.443797e-09	-1.985162e+01	-1.609648e+02
9.700000e-07	-2.629164e-06	-2.433489e-09	-1.967171e+01	-1.600218e+02
9.800000e-07	-2.605015e-06	-2.417441e-09	-1.949102e+01	-1.590726e+02
9.900000e-07	-2.580756e-06	-2.398642e-09	-1.930951e+01	-1.581180e+02
1.000000e-06	-2.556459e-06	-2.383775e-09	-1.912772e+01	-1.571587e+02
1.010000e-06	-2.531926e-06	-2.371572e-09	-1.894417e+01	-1.561954e+02
1.020000e-06	-2.507026e-06	-2.356204e-09	-1.875786e+01	-1.552285e+02
1.030000e-06	-2.481825e-06	-2.339012e-09	-1.856930e+01	-1.542582e+02
1.040000e-06	-2.456305e-06	-2.323865e-09	-1.837836e+01	-1.532845e+02
1.050000e-06	-2.430473e-06	-2.311276e-09	-1.818508e+01	-1.523074e+02
1.060000e-06	-2.404366e-06	-2.298451e-09	-1.798975e+01	-1.513265e+02
1.070000e-06	-2.377998e-06	-2.282449e-09	-1.779246e+01	-1.503414e+02
1.080000e-06	-2.351276e-06	-2.264329e-09	-1.759252e+01	-1.493515e+02
1.090000e-06	-2.324176e-06	-2.247268e-09	-1.738975e+01	-1.483561e+02
1.100000e-06	-2.296866e-06	-2.233371e-09	-1.718542e+01	-1.473544e+02
1.110000e-06	-2.269442e-06	-2.219804e-09	-1.698023e+01	-1.463456e+02
1.120000e-06	-2.241896e-06	-2.202335e-09	-1.677413e+01	-1.453287e+02
1.130000e-06	-2.214198e-06	-2.183560e-09	-1.656689e+01	-1.443029e+02
1.140000e-06	-2.186351e-06	-2.166726e-09	-1.635853e+01	-1.432673e+02
1.150000e-06	-2.158431e-06	-2.154410e-09	-1.614963e+01	-1.422210e+02
1.160000e-06	-2.130465e-06	-2.140779e-09	-1.594038e+01	-1.411633e+02
1.170000e-06	-2.102450e-06	-2.121137e-09	-1.573078e+01	-1.400935e+02
1.180000e-06	-2.074345e-06	-2.099592e-09	-1.552049e+01	-1.390110e+02
1.190000e-06	-2.046186e-06	-2.083785e-09	-1.530981e+01	-1.379154e+02
1.200000e-06	-2.017897e-06	-2.071076e-09	-1.509814e+01	-1.368063e+02
1.210000e-06	-1.989381e-06	-2.055852e-09	-1.488478e+01	-1.356835e+02
1.220000e-06	-1.960787e-06	-2.037773e-09	-1.467083e+01	-1.345471e+02
1.230000e-06	-1.932081e-06	-2.019815e-09	-1.445605e+01	-1.333970e+02
1.240000e-06	-1.903142e-06	-2.002671e-09	-1.423953e+01	-1.322334e+02
1.250000e-06	-1.874072e-06	-1.984883e-09	-1.402202e+01	-1.310567e+02
1.260000e-06	-1.844932e-06	-1.967362e-09	-1.380399e+01	-1.298673e+02
1.270000e-06	-1.815612e-06	-1.947257e-09	-1.358462e+01	-1.286655e+02
1.280000e-06	-1.786137e-06	-1.925824e-09	-1.336409e+01	-1.274519e+02
1.290000e-06	-1.756508e-06	-1.905519e-09	-1.314240e+01	-1.262271e+02
1.300000e-06	-1.726755e-06	-1.886870e-09	-1.291978e+01	-1.249916e+02
1.310000e-06	-1.696940e-06	-1.867620e-09	-1.269670e+01	-1.237460e+02
1.320000e-06	-1.667057e-06	-1.847803e-09	-1.247312e+01	-1.224907e+02
1.330000e-06	-1.637074e-06	-1.828992e-09	-1.224878e+01	-1.212262e+02
1.340000e-06	-1.606996e-06	-1.809618e-09	-1.202373e+01	-1.199528e+02
1.350000e-06	-1.576799e-06	-1.789374e-09	-1.179780e+01	-1.186710e+02
1.360000e-06	-1.546451e-06	-1.770329e-09	-1.157072e+01	-1.173808e+02
1.370000e-06	-1.516049e-06	-1.750468e-09	-1.134325e+01	-1.160825e+02
1.380000e-06	-1.485580e-06	-1.728529e-09	-1.111529e+01	-1.147759e+02
1.390000e-06	-1.454985e-06	-1.708379e-09	-1.088636e+01	-1.134610e+02
1.400000e-06	-1.424343e-06	-1.690317e-09	-1.065710e+01	-1.121377e+02
1.410000e-06	-1.393694e-06	-1.671771e-09	-1.042778e+01	-1.108055e+02
1.420000e-06	-1.362918e-06	-1.650569e-09	-1.019751e+01	-1.094643e+02
1.430000e-06	-1.331985e-06	-1.628474e-09	-9.966070e+00	-1.081135e+02
1.440000e-06	-1.300867e-06	-1.609228e-09	-9.733236e+00	-1.067527e+02
1.450000e-06	-1.269591e-06	-1.593207e-09	-9.499227e+00	-1.053815e+02
1.460000e-06	-1.238345e-06	-1.575003e-09	-9.265444e+00	-1.039993e+02
1.470000e-06	-1.207061e-06	-1.552462e-09	-9.031373e+00	-1.026057e+02
1.480000e-06	-1.175645e-06	-1.527717e-09	-8.796311e+00	-1.012002e+02
1.490000e-06	-1.144163e-06	-1.504802e-09	-8.560759e+00	-9.978242e+01
1.500000e-06	-1.112551e-06	-1.484811e-09	-8.324235e+00	-9.835208e+01
1.510000e-06	-1.080834e-06	-1.466524e-09	-8.086924e+00	-9.690893e+01
1.520000e-06	-1.049091e-06	-1.446527e-09	-7.849419e+00	-9.545280e+01
1.530000e-06	-1.017319e-06	-1.424813e-09	-7.611702e+00	-9.398366e+01
1.540000e-06	-9.855053e-07	-1.402800e-09	-7.373666e+00	-9.250154e+01
1.550000e-06	-9.536352e-07	-1.380883e-09	-7.135210e+00	-9.100661e+01
1.560000e-06	-9.217389e-07	-1.358559e-09	-6.896557e+00	-8.949913e+01
1.570000e-06	-8.898298e-07	-1.333512e-09	-6.657810e+00	-8.797943e+01
1.580000e-06	-8.578719e-07	-1.308114e-09	-6.418698e+00	-8.644795e+01
1.590000e-06	-8.258927e-07	-1.282687e-09	-6.179425e+00	-8.490519e+01
1.600000e-06	-7.939082e-07	-1.258750e-09	-5.940113e+00	-8.335171e+01
1.610000e-06	-7.619107e-07	-1.234362e-09	-5.700704e+00	-8.178808e+01
1.620000e-06	-7.299068e-07	-1.208529e-09	-5.461248e+00	-8.021491e+01
1.630000e-06	-6.978549e-07	-1.183759e-09	-5.221432e+00	-7.863281e+01
1.640000e-06	-6.657471e-07	-1.161385e-09	-4.981197e+00	-7.704235e+01
1.650000e-06	-6.335949e-07	-1.139271e-09	-4.740630e+00	-7.544407e+01
1.660000e-06	-6.014348e-07	-1.114743e-09	-4.500005e+00	-7.383844e+01
1.670000e-06	-5.693061e-07	-1.089379e-09	-4.259614e+00	-7.222586e+01
1.680000e-06	-5.371202e-07	-1.063219e-09	-4.018796e+00	-7.060663e+01
1.690000e-06	-5.048572e-07	-1.037497e-09	-3.777400e+00	-6.898097e+01
1.700000e-06	-4.725502e-07	-1.013091e-09	-3.535675e+00	-6.734898e+01
1.710000e-06	-4.402373e-07	-9.887318e-10	-3.293907e+00	-6.571064e+01
1.720000e-06	-4.079272e-07	-9.622798e-10	-3.052159e+00	-6.406584e+01
1.730000e-06	-3.756243e-07	-9.349642e-10	-2.810464e+00	-6.241436e+01
1.740000e-06	-3.433308e-07	-9.093323e-10	-2.568841e+00	-6.075588e+01
1.750000e-06	-3.109541e-07	-8.855535e-10	-2.326595e+00	-5.908999e+01
1.760000e-06	-2.785233e-07	-8.615623e-10	-2.083944e+00	-5.741623e+01
1.770000e-06	-2.460995e-07	-8.338974e-10	-1.841345e+00	-5.573405e+01
1.780000e-06	-2.136894e-07	-8.039220e-10	-1.598849e+00	-5.404291e+01
1.790000e-06	-1.812631e-07	-7.754568e-10	-1.356231e+00	-5.234223e+01
1.800000e-06	-1.487875e-07	-7.491587e-10	-1.113245e+00	-5.063145e+01
1.810000e-06	-1.163448e-07	-7.229614e-10	-8.705057e-01	-4.891003e+01
1.820000e-06	-8.397134e-08	-6.950492e-10	-6.282833e-01	-4.717750e+01
1.830000e-06	-5.151177e-08	-6.681043e-10	-3.854171e-01	-4.543343e+01
1.840000e-06	-1.900496e-08	-6.431491e-10	-1.421973e-01	-4.367752e+01
1.850000e-06	1.347684e-08	-6.174710e-10	1.008352e-01	-4.190953e+01
1.860000e-06	4.605628e-08	-5.920702e-10	3.445984e-01	-4.012938e+01
1.870000e-06	7.863913e-08	-5.665157e-10	5.883871e-01	-3.833707e+01
1.880000e-06	1.111417e-07	-5.382561e-10	8.315753e-01	-3.653276e+01
1.890000e-06	1.436183e-07	-5.080360e-10	1.074569e+00	-3.471671e+01
1.900000e-06	1.760415e-07	-4.773317e-10	1.317163e+00	-3.288931e+01
1.910000e-06	2.084401e-07	-4.468872e-10	1.559573e+00	-3.105109e+01
1.920000e-06	2.408183e-07	-4.167954e-10	1.801831e+00	-2.920264e+01
1.930000e-06	2.731719e-07	-3.864276e-10	2.043904e+00	-2.734466e+01
1.940000e-06	3.055912e-07	-3.574354e-10	2.286469e+00	-2.547791e+01
1.950000e-06	3.380234e-07	-3.313989e-10	2.529130e+00	-2.360321e+01
1.960000e-06	3.704017e-07	-3.048378e-10	2.771389e+00	-2.172137e+01
1.970000e-06	4.027791e-07	-2.757888e-10	3.013640e+00	-1.983324e+01
1.980000e-06	4.350794e-07	-2.466981e-10	3.255315e+00	-1.793962e+01
1.990000e-06	4.673411e-07	-2.179323e-10	3.496701e+00	-1.604126e+01
2.000000e-06	4.996185e-07	-1.907306e-10	3.738203e+00	-1.413886e+01
2.010000e-06	5.318401e-07	-1.623469e-10	3.979290e+00	-1.223299e+01
2.020000e-06	5.640652e-07	-1.333141e-10	4.220401e+00	-1.032414e+01
2.030000e-06	5.962696e-07	-1.031282e-10	4.461358e+00	-8.412674e+00
2.040000e-06	6.284618e-07	-7.384353e-11	4.702224e+00	-6.498806e+00
2.050000e-06	6.606376e-07	-4.474540e-11	4.942967e+00	-4.582615e+00
2.060000e-06	6.927289e-07	-1.551458e-11	5.183078e+00	-2.664033e+00
2.070000e-06	7.247856e-07	1.186488e-11	5.422930e+00	-7.428480e-01
2.080000e-06	7.568322e-07	3.941409e-11	5.662707e+00	1.181287e+00
2.090000e-06	7.888515e-07	6.928851e-11	5.902279e+00	3.108847e+00
2.100000e-06	8.208315e-07	1.011229e-10	6.141557e+00	5.040416e+00
2.110000e-06	8.527707e-07	1.314118e-10	6.380530e+00	6.976670e+00
2.120000e-06	8.847129e-07	1.604237e-10	6.619524e+00	8.918357e+00
2.130000e-06	9.166732e-07	1.888542e-10	6.858656e+00	1.086627e+01
2.140000e-06	9.485961e-07	2.178779e-10	7.097507e+00	1.282122e+01
2.150000e-06	9.804606e-07	2.477160e-10	7.335920e+00	1.478402e+01
2.160000e-06	1.012279e-06	2.764588e-10	7.573987e+00	1.675544e+01
2.170000e-06	1.044045e-06	3.036480e-10	7.811663e+00	1.873619e+01
2.180000e-06	1.075816e-06	3.334439e-10	8.049382e+00	2.072690e+01
2.190000e-06	1.107572e-06	3.641776e-10	8.286985e+00	2.272808e+01
2.200000e-06	1.139165e-06	3.958456e-10	8.523366e+00	2.474013e+01
2.210000e-06	1.170672e-06	4.278844e-10	8.759103e+00	2.676327e+01
2.220000e-06	1.202173e-06	4.620507e-10	8.994797e+00	2.879761e+01
2.230000e-06	1.233537e-06	4.953905e-10	9.229464e+00	3.084305e+01
2.240000e-06	1.264740e-06	5.272135e-10	9.462932e+00	3.289933e+01
2.250000e-06	1.295825e-06	5.597849e-10	9.695513e+00	3.496604e+01
2.260000e-06	1.326726e-06	5.921280e-10	9.926720e+00	3.704257e+01
2.270000e-06	1.357473e-06	6.212883e-10	1.015677e+01	3.912818e+01
2.280000e-06	1.388120e-06	6.496736e-10	1.038607e+01	4.122197e+01
2.290000e-06	1.418698e-06	6.804857e-10	1.061486e+01	4.332293e+01
2.300000e-06	1.449271e-06	7.125118e-10	1.084361e+01	4.542993e+01
2.310000e-06	1.479718e-06	7.438295e-10	1.107142e+01	4.754177e+01
2.320000e-06	1.510006e-06	7.750496e-10	1.129804e+01	4.965718e+01
2.330000e-06	1.540193e-06	8.079446e-10	1.152390e+01	5.177487e+01
2.340000e-06	1.570282e-06	8.399862e-10	1.174903e+01	5.389353e+01
2.350000e-06	1.600330e-06	8.717262e-10	1.197386e+01	5.601187e+01
2.360000e-06	1.630305e-06	9.017237e-10	1.219813e+01	5.812865e+01
2.370000e-06	1.660108e-06	9.333898e-10	1.242112e+01	6.024268e+01
2.380000e-06	1.689816e-06	9.675186e-10	1.264340e+01	6.235288e+01
2.390000e-06	1.719522e-06	1.002266e-09	1.286566e+01	6.445823e+01
2.400000e-06	1.749155e-06	1.035226e-09	1.308738e+01	6.655785e+01
2.410000e-06	1.778675e-06	1.066769e-09	1.330825e+01	6.865095e+01
2.420000e-06	1.808094e-06	1.098897e-09	1.352837e+01	7.073690e+01
2.430000e-06	1.837358e-06	1.132716e-09	1.374733e+01	7.281515e+01
2.440000e-06	1.866501e-06	1.165030e-09	1.396538e+01	7.488531e+01
2.450000e-06	1.895464e-06	1.194222e-09	1.418208e+01	7.694705e+01
2.460000e-06	1.924215e-06	1.223432e-09	1.439720e+01	7.900018e+01
2.470000e-06	1.952839e-06	1.256472e-09	1.461137e+01	8.104457e+01
2.480000e-06	1.981278e-06	1.290264e-09	1.482415e+01	8.308016e+01
2.490000e-06	2.009560e-06	1.320112e-09	1.503576e+01	8.510694e+01
2.500000e-06	2.037753e-06	1.349472e-09	1.524670e+01	8.712491e+01
2.510000e-06	2.065863e-06	1.381055e-09	1.545703e+01	8.913408e+01
2.520000e-06	2.093922e-06	1.414280e-09	1.566697e+01	9.113447e+01
2.530000e-06	2.121961e-06	1.445876e-09	1.587676e+01	9.312602e+01
2.540000e-06	2.149954e-06	1.476025e-09	1.608620e+01	9.510864e+01
2.550000e-06	2.177929e-06	1.504885e-09	1.629552e+01	9.708217e+01
2.560000e-06	2.205818e-06	1.533371e-09	1.650418e+01	9.904636e+01
2.570000e-06	2.233559e-06	1.561878e-09	1.671175e+01	1.010009e+02
2.580000e-06	2.261219e-06	1.591893e-09	1.691870e+01	1.029453e+02
2.590000e-06	2.288760e-06	1.622095e-09	1.712477e+01	1.048790e+02
2.600000e-06	2.316070e-06	1.652148e-09	1.732911e+01	1.068014e+02
2.610000e-06	2.343153e-06	1.682161e-09	1.753174e+01	1.087118e+02
2.620000e-06	2.369973e-06	1.711453e-09	1.773241e+01	1.106094e+02
2.630000e-06	2.396400e-06	1.741302e-09	1.793014e+01	1.124932e+02
2.640000e-06	2.422422e-06	1.769956e-09	1.812484e+01	1.143623e+02
2.650000e-06	2.448003e-06	1.796691e-09	1.831625e+01	1.162158e+02
2.660000e-06	2.473208e-06	1.822682e-09	1.850483e+01	1.180526e+02
2.670000e-06	2.498162e-06	1.848946e-09	1.869154e+01	1.198718e+02
2.680000e-06	2.522957e-06	1.876728e-09	1.887706e+01	1.216723e+02
2.690000e-06	2.547576e-06	1.904609e-09	1.906126e+01	1.234533e+02
2.700000e-06	2.571998e-06	1.931307e-09	1.924399e+01	1.252138e+02
2.710000e-06	2.596261e-06	1.959596e-09	1.942552e+01	1.269531e+02
2.720000e-06	2.620383e-06	1.989001e-09	1.960601e+01	1.286706e+02
2.730000e-06	2.644392e-06	2.016745e-09	1.978565e+01	1.303655e+02
2.740000e-06	2.668335e-06	2.041877e-09	1.996479e+01	1.320376e+02
2.750000e-06	2.692185e-06	2.065584e-09	2.014324e+01	1.336865e+02
2.760000e-06	2.715838e-06	2.089606e-09	2.032021e+01	1.353119e+02
2.770000e-06	2.739301e-06	2.114916e-09	2.049577e+01	1.369139e+02
2.780000e-06	2.762497e-06	2.140435e-09	2.066933e+01	1.384926e+02
2.790000e-06	2.785378e-06	2.163186e-09	2.084052e+01	1.400480e+02
2.800000e-06	2.808089e-06	2.185408e-09	2.101045e+01	1.415805e+02
2.810000e-06	2.830617e-06	2.210630e-09	2.117900e+01	1.430905e+02
2.820000e-06	2.852926e-06	2.236546e-09	2.134592e+01	1.445784e+02
2.830000e-06	2.875130e-06	2.260084e-09	2.151205e+01	1.460448e+02
2.840000e-06	2.897234e-06	2.279191e-09	2.167744e+01	1.474901e+02
2.850000e-06	2.919206e-06	2.296946e-09	2.184184e+01	1.489150e+02
2.860000e-06	2.940991e-06	2.317074e-09	2.200484e+01	1.503199e+02
2.870000e-06	2.962570e-06	2.339067e-09	2.216629e+01	1.517054e+02
2.880000e-06	2.983974e-06	2.359288e-09	2.232644e+01	1.530720e+02
2.890000e-06	3.005062e-06	2.376726e-09	2.248422e+01	1.544199e+02
2.900000e-06	3.025846e-06	2.394428e-09	2.263973e+01	1.557497e+02
