# Temperatura_=_20.0
# Concentracion g/m^3_=_12600.0
# C_Vs_to_Am_M_A/Vsm_=_65563218390.804596
# pendiente_HvsI_1/m_=_3716.3
# ordenada_HvsI_A/m_=_1297.0
# frecuencia_Hz_=_135009.71990126168

Tiempo_(s)	Campo_(V.s)	Magnetizacion_(V.s)	Campo_(kA/m)	Magnetizacion_(A/m)
0.000000e+00	-3.892727e-06	-2.948465e-09	-2.915500e+01	-1.941362e+02
1.000000e-08	-3.892900e-06	-2.949574e-09	-2.915630e+01	-1.941555e+02
2.000000e-08	-3.892914e-06	-2.952282e-09	-2.915640e+01	-1.941611e+02
3.000000e-08	-3.892683e-06	-2.953741e-09	-2.915467e+01	-1.941525e+02
4.000000e-08	-3.892110e-06	-2.950267e-09	-2.915038e+01	-1.941294e+02
5.000000e-08	-3.891137e-06	-2.935182e-09	-2.914309e+01	-1.940915e+02
6.000000e-08	-3.889658e-06	-2.943766e-09	-2.913201e+01	-1.940385e+02
7.000000e-08	-3.887644e-06	-2.972665e-09	-2.911693e+01	-1.939702e+02
8.000000e-08	-3.885076e-06	-2.978695e-09	-2.909770e+01	-1.938865e+02
9.000000e-08	-3.882174e-06	-2.952921e-09	-2.907596e+01	-1.937875e+02
1.000000e-07	-3.879074e-06	-2.968264e-09	-2.905275e+01	-1.936733e+02
1.100000e-07	-3.875671e-06	-2.933474e-09	-2.902726e+01	-1.935441e+02
1.200000e-07	-3.872018e-06	-2.877140e-09	-2.899989e+01	-1.934004e+02
1.300000e-07	-3.868218e-06	-2.979400e-09	-2.897144e+01	-1.932426e+02
1.400000e-07	-3.864356e-06	-2.978647e-09	-2.894251e+01	-1.930713e+02
1.500000e-07	-3.860313e-06	-2.866876e-09	-2.891223e+01	-1.928873e+02
1.600000e-07	-3.856001e-06	-2.839553e-09	-2.887994e+01	-1.926914e+02
1.700000e-07	-3.851437e-06	-2.909996e-09	-2.884575e+01	-1.924844e+02
1.800000e-07	-3.846556e-06	-2.958024e-09	-2.880919e+01	-1.922673e+02
1.900000e-07	-3.841398e-06	-2.926583e-09	-2.877056e+01	-1.920411e+02
2.000000e-07	-3.836015e-06	-2.894630e-09	-2.873025e+01	-1.918068e+02
2.100000e-07	-3.830346e-06	-2.881489e-09	-2.868779e+01	-1.915655e+02
2.200000e-07	-3.824405e-06	-2.900821e-09	-2.864329e+01	-1.913181e+02
2.300000e-07	-3.818244e-06	-2.941385e-09	-2.859715e+01	-1.910658e+02
2.400000e-07	-3.811806e-06	-2.970414e-09	-2.854893e+01	-1.908093e+02
2.500000e-07	-3.805006e-06	-2.891179e-09	-2.849800e+01	-1.905496e+02
2.600000e-07	-3.797854e-06	-2.815556e-09	-2.844444e+01	-1.902874e+02
2.700000e-07	-3.790483e-06	-2.883106e-09	-2.838924e+01	-1.900233e+02
2.800000e-07	-3.782960e-06	-2.981931e-09	-2.833289e+01	-1.897578e+02
2.900000e-07	-3.775234e-06	-2.918153e-09	-2.827502e+01	-1.894914e+02
3.000000e-07	-3.767367e-06	-2.794181e-09	-2.821610e+01	-1.892242e+02
3.100000e-07	-3.759377e-06	-2.813236e-09	-2.815626e+01	-1.889563e+02
3.200000e-07	-3.751170e-06	-2.923255e-09	-2.809479e+01	-1.886877e+02
3.300000e-07	-3.742673e-06	-2.932577e-09	-2.803116e+01	-1.884182e+02
3.400000e-07	-3.733819e-06	-2.837745e-09	-2.796484e+01	-1.881473e+02
3.500000e-07	-3.724556e-06	-2.798912e-09	-2.789546e+01	-1.878746e+02
3.600000e-07	-3.714885e-06	-2.841857e-09	-2.782303e+01	-1.875995e+02
3.700000e-07	-3.704814e-06	-2.877296e-09	-2.774761e+01	-1.873213e+02
3.800000e-07	-3.694384e-06	-2.871042e-09	-2.766949e+01	-1.870391e+02
3.900000e-07	-3.683506e-06	-2.843733e-09	-2.758801e+01	-1.867522e+02
4.000000e-07	-3.672149e-06	-2.792272e-09	-2.750295e+01	-1.864596e+02
4.100000e-07	-3.660521e-06	-2.785007e-09	-2.741587e+01	-1.861604e+02
4.200000e-07	-3.648716e-06	-2.854762e-09	-2.732745e+01	-1.858537e+02
4.300000e-07	-3.636709e-06	-2.884341e-09	-2.723752e+01	-1.855384e+02
4.400000e-07	-3.624444e-06	-2.791836e-09	-2.714567e+01	-1.852139e+02
4.500000e-07	-3.611821e-06	-2.729666e-09	-2.705112e+01	-1.848791e+02
4.600000e-07	-3.598812e-06	-2.801952e-09	-2.695369e+01	-1.845335e+02
4.700000e-07	-3.585523e-06	-2.870991e-09	-2.685417e+01	-1.841763e+02
4.800000e-07	-3.572033e-06	-2.813013e-09	-2.675313e+01	-1.838070e+02
4.900000e-07	-3.558358e-06	-2.735812e-09	-2.665071e+01	-1.834252e+02
5.000000e-07	-3.544466e-06	-2.747479e-09	-2.654666e+01	-1.830305e+02
5.100000e-07	-3.530335e-06	-2.796344e-09	-2.644083e+01	-1.826227e+02
5.200000e-07	-3.515886e-06	-2.808867e-09	-2.633261e+01	-1.822018e+02
5.300000e-07	-3.500975e-06	-2.780036e-09	-2.622093e+01	-1.817677e+02
5.400000e-07	-3.485677e-06	-2.733917e-09	-2.610636e+01	-1.813207e+02
5.500000e-07	-3.469973e-06	-2.717912e-09	-2.598874e+01	-1.808609e+02
5.600000e-07	-3.453995e-06	-2.759084e-09	-2.586907e+01	-1.803887e+02
5.700000e-07	-3.437708e-06	-2.786610e-09	-2.574708e+01	-1.799045e+02
5.800000e-07	-3.421014e-06	-2.738058e-09	-2.562205e+01	-1.794087e+02
5.900000e-07	-3.404180e-06	-2.681885e-09	-2.549598e+01	-1.789018e+02
6.000000e-07	-3.387140e-06	-2.697248e-09	-2.536835e+01	-1.783844e+02
6.100000e-07	-3.369875e-06	-2.733271e-09	-2.523904e+01	-1.778569e+02
6.200000e-07	-3.352503e-06	-2.720400e-09	-2.510893e+01	-1.773200e+02
6.300000e-07	-3.335001e-06	-2.675839e-09	-2.497785e+01	-1.767740e+02
6.400000e-07	-3.317245e-06	-2.655615e-09	-2.484487e+01	-1.762195e+02
6.500000e-07	-3.299192e-06	-2.666076e-09	-2.470965e+01	-1.756568e+02
6.600000e-07	-3.280898e-06	-2.679430e-09	-2.457264e+01	-1.750862e+02
6.700000e-07	-3.262334e-06	-2.669301e-09	-2.443360e+01	-1.745080e+02
6.800000e-07	-3.243447e-06	-2.642172e-09	-2.429214e+01	-1.739224e+02
6.900000e-07	-3.224299e-06	-2.620042e-09	-2.414874e+01	-1.733294e+02
7.000000e-07	-3.204953e-06	-2.616037e-09	-2.400384e+01	-1.727291e+02
7.100000e-07	-3.185425e-06	-2.620572e-09	-2.385758e+01	-1.721214e+02
7.200000e-07	-3.165789e-06	-2.616207e-09	-2.371052e+01	-1.715060e+02
7.300000e-07	-3.146046e-06	-2.590364e-09	-2.356265e+01	-1.708828e+02
7.400000e-07	-3.126205e-06	-2.561938e-09	-2.341405e+01	-1.702515e+02
7.500000e-07	-3.106275e-06	-2.559032e-09	-2.326478e+01	-1.696117e+02
7.600000e-07	-3.086159e-06	-2.571308e-09	-2.311412e+01	-1.689631e+02
7.700000e-07	-3.065862e-06	-2.564066e-09	-2.296210e+01	-1.683052e+02
7.800000e-07	-3.045353e-06	-2.534925e-09	-2.280850e+01	-1.676375e+02
7.900000e-07	-3.024547e-06	-2.513042e-09	-2.265267e+01	-1.669597e+02
8.000000e-07	-3.003501e-06	-2.513790e-09	-2.249505e+01	-1.662714e+02
8.100000e-07	-2.982259e-06	-2.520775e-09	-2.233595e+01	-1.655722e+02
8.200000e-07	-2.960777e-06	-2.510533e-09	-2.217506e+01	-1.648617e+02
8.300000e-07	-2.939114e-06	-2.483066e-09	-2.201281e+01	-1.641397e+02
8.400000e-07	-2.917285e-06	-2.461376e-09	-2.184932e+01	-1.634059e+02
8.500000e-07	-2.895321e-06	-2.462571e-09	-2.168482e+01	-1.626602e+02
8.600000e-07	-2.873225e-06	-2.470154e-09	-2.151933e+01	-1.619025e+02
8.700000e-07	-2.850904e-06	-2.459081e-09	-2.135216e+01	-1.611328e+02
8.800000e-07	-2.828470e-06	-2.427621e-09	-2.118413e+01	-1.603512e+02
8.900000e-07	-2.805791e-06	-2.404301e-09	-2.101428e+01	-1.595579e+02
9.000000e-07	-2.782740e-06	-2.403813e-09	-2.084163e+01	-1.587530e+02
9.100000e-07	-2.759472e-06	-2.407190e-09	-2.066736e+01	-1.579369e+02
9.200000e-07	-2.735953e-06	-2.390847e-09	-2.049122e+01	-1.571099e+02
9.300000e-07	-2.712269e-06	-2.360753e-09	-2.031383e+01	-1.562725e+02
9.400000e-07	-2.688551e-06	-2.344666e-09	-2.013620e+01	-1.554251e+02
9.500000e-07	-2.664693e-06	-2.352877e-09	-1.995751e+01	-1.545680e+02
9.600000e-07	-2.640709e-06	-2.355277e-09	-1.977787e+01	-1.537020e+02
9.700000e-07	-2.616587e-06	-2.332045e-09	-1.959721e+01	-1.528273e+02
9.800000e-07	-2.592297e-06	-2.299822e-09	-1.941529e+01	-1.519446e+02
9.900000e-07	-2.567869e-06	-2.286288e-09	-1.923234e+01	-1.510542e+02
1.000000e-06	-2.543297e-06	-2.285872e-09	-1.904830e+01	-1.501566e+02
1.010000e-06	-2.518522e-06	-2.272248e-09	-1.886274e+01	-1.492522e+02
1.020000e-06	-2.493438e-06	-2.243217e-09	-1.867487e+01	-1.483413e+02
1.030000e-06	-2.468105e-06	-2.218643e-09	-1.848514e+01	-1.474241e+02
1.040000e-06	-2.442471e-06	-2.213847e-09	-1.829315e+01	-1.465009e+02
1.050000e-06	-2.416485e-06	-2.216441e-09	-1.809852e+01	-1.455718e+02
1.060000e-06	-2.390145e-06	-2.206570e-09	-1.790125e+01	-1.446368e+02
1.070000e-06	-2.363561e-06	-2.182091e-09	-1.770214e+01	-1.436961e+02
1.080000e-06	-2.336760e-06	-2.158933e-09	-1.750142e+01	-1.427494e+02
1.090000e-06	-2.309643e-06	-2.150880e-09	-1.729832e+01	-1.417966e+02
1.100000e-06	-2.282306e-06	-2.146380e-09	-1.709358e+01	-1.408377e+02
1.110000e-06	-2.254766e-06	-2.129064e-09	-1.688731e+01	-1.398722e+02
1.120000e-06	-2.227118e-06	-2.102889e-09	-1.668024e+01	-1.388998e+02
1.130000e-06	-2.199421e-06	-2.083113e-09	-1.647280e+01	-1.379204e+02
1.140000e-06	-2.171624e-06	-2.076370e-09	-1.626462e+01	-1.369334e+02
1.150000e-06	-2.143776e-06	-2.071475e-09	-1.605604e+01	-1.359385e+02
1.160000e-06	-2.115881e-06	-2.055482e-09	-1.584712e+01	-1.349352e+02
1.170000e-06	-2.087867e-06	-2.029456e-09	-1.563731e+01	-1.339233e+02
1.180000e-06	-2.059776e-06	-2.007585e-09	-1.542691e+01	-1.329021e+02
1.190000e-06	-2.031611e-06	-1.998063e-09	-1.521597e+01	-1.318714e+02
1.200000e-06	-2.003324e-06	-1.988578e-09	-1.500411e+01	-1.308307e+02
1.210000e-06	-1.974892e-06	-1.966920e-09	-1.479117e+01	-1.297798e+02
1.220000e-06	-1.946260e-06	-1.941429e-09	-1.457672e+01	-1.287182e+02
1.230000e-06	-1.917444e-06	-1.925050e-09	-1.436090e+01	-1.276456e+02
1.240000e-06	-1.888508e-06	-1.916914e-09	-1.414419e+01	-1.265618e+02
1.250000e-06	-1.859384e-06	-1.905661e-09	-1.392606e+01	-1.254666e+02
1.260000e-06	-1.830079e-06	-1.884933e-09	-1.370658e+01	-1.243597e+02
1.270000e-06	-1.800730e-06	-1.860168e-09	-1.348676e+01	-1.232409e+02
1.280000e-06	-1.771274e-06	-1.842432e-09	-1.326615e+01	-1.221101e+02
1.290000e-06	-1.741695e-06	-1.830569e-09	-1.304462e+01	-1.209672e+02
1.300000e-06	-1.712035e-06	-1.813270e-09	-1.282247e+01	-1.198121e+02
1.310000e-06	-1.682314e-06	-1.787772e-09	-1.259987e+01	-1.186446e+02
1.320000e-06	-1.652536e-06	-1.764406e-09	-1.237685e+01	-1.174649e+02
1.330000e-06	-1.622633e-06	-1.747396e-09	-1.215289e+01	-1.162727e+02
1.340000e-06	-1.592650e-06	-1.734682e-09	-1.192832e+01	-1.150681e+02
1.350000e-06	-1.562596e-06	-1.719138e-09	-1.170323e+01	-1.138511e+02
1.360000e-06	-1.532409e-06	-1.697469e-09	-1.147714e+01	-1.126216e+02
1.370000e-06	-1.502124e-06	-1.675937e-09	-1.125032e+01	-1.113796e+02
1.380000e-06	-1.471655e-06	-1.660019e-09	-1.102212e+01	-1.101253e+02
1.390000e-06	-1.441022e-06	-1.647697e-09	-1.079269e+01	-1.088585e+02
1.400000e-06	-1.410397e-06	-1.631087e-09	-1.056332e+01	-1.075793e+02
1.410000e-06	-1.379708e-06	-1.607832e-09	-1.033347e+01	-1.062878e+02
1.420000e-06	-1.348892e-06	-1.583143e-09	-1.010268e+01	-1.049839e+02
1.430000e-06	-1.317990e-06	-1.563419e-09	-9.871231e+00	-1.036678e+02
1.440000e-06	-1.287035e-06	-1.547846e-09	-9.639390e+00	-1.023396e+02
1.450000e-06	-1.255997e-06	-1.529248e-09	-9.406922e+00	-1.009993e+02
1.460000e-06	-1.224819e-06	-1.503806e-09	-9.173415e+00	-9.964716e+01
1.470000e-06	-1.193487e-06	-1.477680e-09	-8.938747e+00	-9.828327e+01
1.480000e-06	-1.162106e-06	-1.458447e-09	-8.703717e+00	-9.690786e+01
1.490000e-06	-1.130656e-06	-1.443367e-09	-8.468168e+00	-9.552116e+01
1.500000e-06	-1.099023e-06	-1.424166e-09	-8.231249e+00	-9.412343e+01
1.510000e-06	-1.067344e-06	-1.401277e-09	-7.993990e+00	-9.271498e+01
1.520000e-06	-1.035701e-06	-1.381477e-09	-7.756992e+00	-9.129615e+01
1.530000e-06	-1.003983e-06	-1.363091e-09	-7.519441e+00	-8.986729e+01
1.540000e-06	-9.722026e-07	-1.341055e-09	-7.281417e+00	-8.842881e+01
1.550000e-06	-9.404087e-07	-1.318137e-09	-7.043293e+00	-8.698113e+01
1.560000e-06	-9.085507e-07	-1.294377e-09	-6.804688e+00	-8.552467e+01
1.570000e-06	-8.766246e-07	-1.271962e-09	-6.565575e+00	-8.405988e+01
1.580000e-06	-8.446614e-07	-1.251694e-09	-6.326183e+00	-8.258722e+01
1.590000e-06	-8.126944e-07	-1.229866e-09	-6.086762e+00	-8.110712e+01
1.600000e-06	-7.807324e-07	-1.205153e-09	-5.847380e+00	-7.962003e+01
1.610000e-06	-7.487784e-07	-1.179118e-09	-5.608057e+00	-7.812634e+01
1.620000e-06	-7.167566e-07	-1.154350e-09	-5.368226e+00	-7.662643e+01
1.630000e-06	-6.846505e-07	-1.133302e-09	-5.127764e+00	-7.512064e+01
1.640000e-06	-6.525759e-07	-1.114545e-09	-4.887538e+00	-7.360925e+01
1.650000e-06	-6.204990e-07	-1.092148e-09	-4.647295e+00	-7.209248e+01
1.660000e-06	-5.884178e-07	-1.069026e-09	-4.407018e+00	-7.057051e+01
1.670000e-06	-5.563190e-07	-1.048459e-09	-4.166611e+00	-6.904343e+01
1.680000e-06	-5.240973e-07	-1.028003e-09	-3.925284e+00	-6.751127e+01
1.690000e-06	-4.918247e-07	-1.005518e-09	-3.683574e+00	-6.597396e+01
1.700000e-06	-4.595522e-07	-9.812451e-10	-3.441866e+00	-6.443140e+01
1.710000e-06	-4.272589e-07	-9.571610e-10	-3.200002e+00	-6.288336e+01
1.720000e-06	-3.949860e-07	-9.333816e-10	-2.958290e+00	-6.132960e+01
1.730000e-06	-3.627071e-07	-9.075468e-10	-2.716534e+00	-5.976977e+01
1.740000e-06	-3.303763e-07	-8.810583e-10	-2.474389e+00	-5.820348e+01
1.750000e-06	-2.980437e-07	-8.589972e-10	-2.232230e+00	-5.663030e+01
1.760000e-06	-2.656817e-07	-8.402075e-10	-1.989852e+00	-5.504973e+01
1.770000e-06	-2.332674e-07	-8.182396e-10	-1.747082e+00	-5.346128e+01
1.780000e-06	-2.008750e-07	-7.915302e-10	-1.504475e+00	-5.186441e+01
1.790000e-06	-1.685060e-07	-7.625478e-10	-1.262044e+00	-5.025861e+01
1.800000e-06	-1.361646e-07	-7.352558e-10	-1.019820e+00	-4.864335e+01
1.810000e-06	-1.038180e-07	-7.103978e-10	-7.775561e-01	-4.701814e+01
1.820000e-06	-7.142728e-08	-6.850237e-10	-5.349623e-01	-4.538251e+01
1.830000e-06	-3.904089e-08	-6.593104e-10	-2.924010e-01	-4.373606e+01
1.840000e-06	-6.650575e-09	-6.321666e-10	-4.981020e-02	-4.207843e+01
1.850000e-06	2.570879e-08	-6.076996e-10	1.925488e-01	-4.040932e+01
1.860000e-06	5.811239e-08	-5.864218e-10	4.352390e-01	-3.872853e+01
1.870000e-06	9.055519e-08	-5.616767e-10	6.782229e-01	-3.703590e+01
1.880000e-06	1.230264e-07	-5.335053e-10	9.214195e-01	-3.533140e+01
1.890000e-06	1.555239e-07	-5.045448e-10	1.164813e+00	-3.361505e+01
1.900000e-06	1.878697e-07	-4.774963e-10	1.407070e+00	-3.188695e+01
1.910000e-06	2.201778e-07	-4.511422e-10	1.649045e+00	-3.014732e+01
1.920000e-06	2.525472e-07	-4.237422e-10	1.891480e+00	-2.839641e+01
1.930000e-06	2.848604e-07	-3.946776e-10	2.133492e+00	-2.663456e+01
1.940000e-06	3.171221e-07	-3.663242e-10	2.375120e+00	-2.486216e+01
1.950000e-06	3.494278e-07	-3.418895e-10	2.617077e+00	-2.307968e+01
1.960000e-06	3.817346e-07	-3.178800e-10	2.859043e+00	-2.128758e+01
1.970000e-06	4.140126e-07	-2.908573e-10	3.100792e+00	-1.948638e+01
1.980000e-06	4.462445e-07	-2.625192e-10	3.342197e+00	-1.767660e+01
1.990000e-06	4.784503e-07	-2.347934e-10	3.583405e+00	-1.585875e+01
2.000000e-06	5.106458e-07	-2.086016e-10	3.824537e+00	-1.403335e+01
2.010000e-06	5.428197e-07	-1.830143e-10	4.065507e+00	-1.220087e+01
2.020000e-06	5.749766e-07	-1.556455e-10	4.306349e+00	-1.036176e+01
2.030000e-06	6.070842e-07	-1.252873e-10	4.546823e+00	-8.516414e+00
2.040000e-06	6.391083e-07	-9.445785e-11	4.786670e+00	-6.665167e+00
2.050000e-06	6.710924e-07	-6.488582e-11	5.026219e+00	-4.808298e+00
2.060000e-06	7.030996e-07	-3.610149e-11	5.265940e+00	-2.946018e+00
2.070000e-06	7.351034e-07	-6.933265e-12	5.505637e+00	-1.078468e+00
2.080000e-06	7.670856e-07	2.310668e-11	5.745171e+00	7.942812e-01
2.090000e-06	7.990228e-07	5.154477e-11	5.984368e+00	2.672224e+00
2.100000e-06	8.309190e-07	7.829874e-11	6.223257e+00	4.555419e+00
2.110000e-06	8.627906e-07	1.059920e-10	6.461963e+00	6.443978e+00
2.120000e-06	8.946683e-07	1.364752e-10	6.700715e+00	8.338065e+00
2.130000e-06	9.265457e-07	1.677866e-10	6.939464e+00	1.023788e+01
2.140000e-06	9.583552e-07	1.971759e-10	7.177705e+00	1.214364e+01
2.150000e-06	9.901213e-07	2.235042e-10	7.415620e+00	1.405559e+01
2.160000e-06	1.021872e-06	2.492172e-10	7.653420e+00	1.597397e+01
2.170000e-06	1.053588e-06	2.772910e-10	7.890963e+00	1.789900e+01
2.180000e-06	1.085288e-06	3.062240e-10	8.128384e+00	1.983089e+01
2.190000e-06	1.116946e-06	3.336127e-10	8.365484e+00	2.176978e+01
2.200000e-06	1.148529e-06	3.614990e-10	8.602030e+00	2.371579e+01
2.210000e-06	1.180045e-06	3.925788e-10	8.838076e+00	2.566896e+01
2.220000e-06	1.211441e-06	4.246764e-10	9.073219e+00	2.762927e+01
2.230000e-06	1.242677e-06	4.540732e-10	9.307162e+00	2.959659e+01
2.240000e-06	1.273771e-06	4.824417e-10	9.540048e+00	3.157075e+01
2.250000e-06	1.304814e-06	5.132894e-10	9.772549e+00	3.355145e+01
2.260000e-06	1.335832e-06	5.460014e-10	1.000486e+01	3.553831e+01
2.270000e-06	1.366685e-06	5.751654e-10	1.023593e+01	3.753087e+01
2.280000e-06	1.397334e-06	6.016981e-10	1.046549e+01	3.952857e+01
2.290000e-06	1.427924e-06	6.293616e-10	1.069459e+01	4.153078e+01
2.300000e-06	1.458385e-06	6.595200e-10	1.092273e+01	4.353678e+01
2.310000e-06	1.488662e-06	6.893849e-10	1.114949e+01	4.554578e+01
2.320000e-06	1.518865e-06	7.181664e-10	1.137571e+01	4.755696e+01
2.330000e-06	1.548988e-06	7.482329e-10	1.160132e+01	4.956942e+01
2.340000e-06	1.579049e-06	7.788972e-10	1.182646e+01	5.158225e+01
2.350000e-06	1.609068e-06	8.103046e-10	1.205129e+01	5.359452e+01
2.360000e-06	1.639020e-06	8.422805e-10	1.227561e+01	5.560527e+01
2.370000e-06	1.668878e-06	8.734072e-10	1.249925e+01	5.761356e+01
2.380000e-06	1.698626e-06	9.025537e-10	1.272204e+01	5.961849e+01
2.390000e-06	1.728196e-06	9.311666e-10	1.294351e+01	6.161914e+01
2.400000e-06	1.757673e-06	9.603613e-10	1.316428e+01	6.361468e+01
2.410000e-06	1.787116e-06	9.899564e-10	1.338480e+01	6.560428e+01
2.420000e-06	1.816494e-06	1.019662e-09	1.360483e+01	6.758721e+01
2.430000e-06	1.845745e-06	1.050456e-09	1.382390e+01	6.956277e+01
2.440000e-06	1.874833e-06	1.081553e-09	1.404176e+01	7.153033e+01
2.450000e-06	1.903768e-06	1.113511e-09	1.425848e+01	7.348933e+01
2.460000e-06	1.932501e-06	1.144982e-09	1.447367e+01	7.543928e+01
2.470000e-06	1.961052e-06	1.174578e-09	1.468751e+01	7.737973e+01
2.480000e-06	1.989471e-06	1.201332e-09	1.490035e+01	7.931033e+01
2.490000e-06	2.017769e-06	1.228577e-09	1.511230e+01	8.123074e+01
2.500000e-06	2.045930e-06	1.259305e-09	1.532322e+01	8.314070e+01
2.510000e-06	2.073942e-06	1.290775e-09	1.553301e+01	8.503997e+01
2.520000e-06	2.101842e-06	1.319855e-09	1.574197e+01	8.692835e+01
2.530000e-06	2.129719e-06	1.347732e-09	1.595076e+01	8.880567e+01
2.540000e-06	2.157569e-06	1.377162e-09	1.615935e+01	9.067177e+01
2.550000e-06	2.185383e-06	1.407148e-09	1.636767e+01	9.252647e+01
2.560000e-06	2.213137e-06	1.436357e-09	1.657553e+01	9.436964e+01
2.570000e-06	2.240784e-06	1.464313e-09	1.678260e+01	9.620109e+01
2.580000e-06	2.268314e-06	1.493044e-09	1.698878e+01	9.802063e+01
2.590000e-06	2.295716e-06	1.524460e-09	1.719401e+01	9.982807e+01
2.600000e-06	2.322953e-06	1.553507e-09	1.739800e+01	1.016232e+02
2.610000e-06	2.349898e-06	1.577986e-09	1.759982e+01	1.034056e+02
2.620000e-06	2.376485e-06	1.603122e-09	1.779894e+01	1.051752e+02
2.630000e-06	2.402755e-06	1.631119e-09	1.799569e+01	1.069315e+02
2.640000e-06	2.428657e-06	1.659752e-09	1.818969e+01	1.086742e+02
2.650000e-06	2.454169e-06	1.685885e-09	1.838076e+01	1.104030e+02
2.660000e-06	2.479475e-06	1.710912e-09	1.857030e+01	1.121173e+02
2.670000e-06	2.504501e-06	1.736963e-09	1.875773e+01	1.138169e+02
2.680000e-06	2.529240e-06	1.763935e-09	1.894302e+01	1.155012e+02
2.690000e-06	2.553776e-06	1.790209e-09	1.912678e+01	1.171699e+02
2.700000e-06	2.578100e-06	1.816469e-09	1.930896e+01	1.188224e+02
2.710000e-06	2.602320e-06	1.841457e-09	1.949035e+01	1.204584e+02
2.720000e-06	2.626406e-06	1.866626e-09	1.967075e+01	1.220774e+02
2.730000e-06	2.650329e-06	1.893974e-09	1.984993e+01	1.236790e+02
2.740000e-06	2.674146e-06	1.920636e-09	2.002831e+01	1.252630e+02
2.750000e-06	2.697872e-06	1.944844e-09	2.020600e+01	1.268289e+02
2.760000e-06	2.721451e-06	1.967015e-09	2.038260e+01	1.283764e+02
2.770000e-06	2.744851e-06	1.990768e-09	2.055786e+01	1.299052e+02
2.780000e-06	2.768053e-06	2.016595e-09	2.073163e+01	1.314153e+02
2.790000e-06	2.791023e-06	2.039871e-09	2.090367e+01	1.329062e+02
2.800000e-06	2.813744e-06	2.059980e-09	2.107384e+01	1.343780e+02
2.810000e-06	2.836213e-06	2.080953e-09	2.124213e+01	1.358305e+02
2.820000e-06	2.858445e-06	2.104216e-09	2.140863e+01	1.372635e+02
2.830000e-06	2.880566e-06	2.126917e-09	2.157431e+01	1.386771e+02
2.840000e-06	2.902585e-06	2.146547e-09	2.173923e+01	1.400712e+02
2.850000e-06	2.924435e-06	2.165478e-09	2.190287e+01	1.414457e+02
2.860000e-06	2.946107e-06	2.185899e-09	2.206519e+01	1.428007e+02
2.870000e-06	2.967582e-06	2.207476e-09	2.222603e+01	1.441362e+02
2.880000e-06	2.988765e-06	2.227857e-09	2.238468e+01	1.454521e+02
2.890000e-06	3.009654e-06	2.244745e-09	2.254113e+01	1.467484e+02
2.900000e-06	3.030304e-06	2.258912e-09	2.269579e+01	1.480251e+02
