# Temperatura_=_20.0
# Concentracion g/m^3_=_12600.0
# C_Vs_to_Am_M_A/Vsm_=_65563218390.804596
# pendiente_HvsI_1/m_=_3716.3
# ordenada_HvsI_A/m_=_1297.0
# frecuencia_Hz_=_135009.25229148002

Tiempo_(s)	Campo_(V.s)	Magnetizacion_(V.s)	Campo_(kA/m)	Magnetizacion_(A/m)
0.000000e+00	-3.906867e-06	-2.874795e-09	-2.914555e+01	-1.893663e+02
1.000000e-08	-3.907010e-06	-2.878741e-09	-2.914662e+01	-1.894153e+02
2.000000e-08	-3.906962e-06	-2.881414e-09	-2.914626e+01	-1.894508e+02
3.000000e-08	-3.906660e-06	-2.881960e-09	-2.914401e+01	-1.894716e+02
4.000000e-08	-3.906025e-06	-2.883226e-09	-2.913927e+01	-1.894766e+02
5.000000e-08	-3.905018e-06	-2.881511e-09	-2.913176e+01	-1.894649e+02
6.000000e-08	-3.903559e-06	-2.889346e-09	-2.912088e+01	-1.894355e+02
7.000000e-08	-3.901453e-06	-2.885347e-09	-2.910516e+01	-1.893876e+02
8.000000e-08	-3.898822e-06	-2.872545e-09	-2.908554e+01	-1.893207e+02
9.000000e-08	-3.895909e-06	-2.854833e-09	-2.906381e+01	-1.892343e+02
1.000000e-07	-3.892661e-06	-2.851557e-09	-2.903957e+01	-1.891281e+02
1.100000e-07	-3.889109e-06	-2.842989e-09	-2.901307e+01	-1.890020e+02
1.200000e-07	-3.885471e-06	-2.833016e-09	-2.898594e+01	-1.888563e+02
1.300000e-07	-3.881734e-06	-2.906303e-09	-2.895806e+01	-1.886912e+02
1.400000e-07	-3.877815e-06	-2.844128e-09	-2.892882e+01	-1.885074e+02
1.500000e-07	-3.873679e-06	-2.769496e-09	-2.889797e+01	-1.883056e+02
1.600000e-07	-3.869333e-06	-2.805566e-09	-2.886554e+01	-1.880867e+02
1.700000e-07	-3.864738e-06	-2.881998e-09	-2.883127e+01	-1.878519e+02
1.800000e-07	-3.859779e-06	-2.868886e-09	-2.879427e+01	-1.876025e+02
1.900000e-07	-3.854564e-06	-2.811182e-09	-2.875537e+01	-1.873399e+02
2.000000e-07	-3.849106e-06	-2.813141e-09	-2.871465e+01	-1.870655e+02
2.100000e-07	-3.843382e-06	-2.824691e-09	-2.867195e+01	-1.867808e+02
2.200000e-07	-3.837378e-06	-2.857274e-09	-2.862716e+01	-1.864875e+02
2.300000e-07	-3.831131e-06	-2.850934e-09	-2.858055e+01	-1.861871e+02
2.400000e-07	-3.824656e-06	-2.839905e-09	-2.853225e+01	-1.858811e+02
2.500000e-07	-3.817821e-06	-2.766004e-09	-2.848126e+01	-1.855710e+02
2.600000e-07	-3.810632e-06	-2.779918e-09	-2.842763e+01	-1.852579e+02
2.700000e-07	-3.803135e-06	-2.854422e-09	-2.837171e+01	-1.849431e+02
2.800000e-07	-3.795465e-06	-2.875045e-09	-2.831448e+01	-1.846277e+02
2.900000e-07	-3.787732e-06	-2.755024e-09	-2.825679e+01	-1.843124e+02
3.000000e-07	-3.779833e-06	-2.707615e-09	-2.819787e+01	-1.839978e+02
3.100000e-07	-3.771706e-06	-2.798109e-09	-2.813724e+01	-1.836843e+02
3.200000e-07	-3.763378e-06	-2.879050e-09	-2.807511e+01	-1.833722e+02
3.300000e-07	-3.754693e-06	-2.804314e-09	-2.801032e+01	-1.830614e+02
3.400000e-07	-3.745553e-06	-2.703544e-09	-2.794213e+01	-1.827515e+02
3.500000e-07	-3.736048e-06	-2.730753e-09	-2.787123e+01	-1.824423e+02
3.600000e-07	-3.726154e-06	-2.809549e-09	-2.779742e+01	-1.821329e+02
3.700000e-07	-3.715680e-06	-2.815979e-09	-2.771928e+01	-1.818227e+02
3.800000e-07	-3.704740e-06	-2.752172e-09	-2.763767e+01	-1.815105e+02
3.900000e-07	-3.693612e-06	-2.722701e-09	-2.755466e+01	-1.811955e+02
4.000000e-07	-3.682245e-06	-2.723229e-09	-2.746985e+01	-1.808763e+02
4.100000e-07	-3.670603e-06	-2.768539e-09	-2.738301e+01	-1.805518e+02
4.200000e-07	-3.658720e-06	-2.788299e-09	-2.729435e+01	-1.802208e+02
4.300000e-07	-3.646624e-06	-2.743664e-09	-2.720412e+01	-1.798819e+02
4.400000e-07	-3.634293e-06	-2.661525e-09	-2.711213e+01	-1.795341e+02
4.500000e-07	-3.621582e-06	-2.696364e-09	-2.701730e+01	-1.791761e+02
4.600000e-07	-3.608507e-06	-2.780187e-09	-2.691976e+01	-1.788071e+02
4.700000e-07	-3.595205e-06	-2.767785e-09	-2.682053e+01	-1.784260e+02
4.800000e-07	-3.581670e-06	-2.659127e-09	-2.671956e+01	-1.780321e+02
4.900000e-07	-3.567833e-06	-2.645978e-09	-2.661633e+01	-1.776249e+02
5.000000e-07	-3.553733e-06	-2.719269e-09	-2.651114e+01	-1.772038e+02
5.100000e-07	-3.539373e-06	-2.748212e-09	-2.640402e+01	-1.767687e+02
5.200000e-07	-3.524676e-06	-2.686296e-09	-2.629438e+01	-1.763195e+02
5.300000e-07	-3.509603e-06	-2.641530e-09	-2.618193e+01	-1.758562e+02
5.400000e-07	-3.494193e-06	-2.650137e-09	-2.606697e+01	-1.753791e+02
5.500000e-07	-3.478492e-06	-2.684393e-09	-2.594984e+01	-1.748887e+02
5.600000e-07	-3.462383e-06	-2.692832e-09	-2.582966e+01	-1.743854e+02
5.700000e-07	-3.445963e-06	-2.656000e-09	-2.570717e+01	-1.738698e+02
5.800000e-07	-3.429350e-06	-2.611426e-09	-2.558324e+01	-1.733429e+02
5.900000e-07	-3.412500e-06	-2.618991e-09	-2.545753e+01	-1.728052e+02
6.000000e-07	-3.395421e-06	-2.653792e-09	-2.533012e+01	-1.722578e+02
6.100000e-07	-3.378105e-06	-2.639039e-09	-2.520094e+01	-1.717014e+02
6.200000e-07	-3.360657e-06	-2.591402e-09	-2.507078e+01	-1.711369e+02
6.300000e-07	-3.343098e-06	-2.575651e-09	-2.493979e+01	-1.705651e+02
6.400000e-07	-3.325259e-06	-2.598042e-09	-2.480671e+01	-1.699867e+02
6.500000e-07	-3.307145e-06	-2.598501e-09	-2.467158e+01	-1.694025e+02
6.600000e-07	-3.288781e-06	-2.572702e-09	-2.453458e+01	-1.688129e+02
6.700000e-07	-3.270062e-06	-2.549910e-09	-2.439493e+01	-1.682185e+02
6.800000e-07	-3.250986e-06	-2.552449e-09	-2.425263e+01	-1.676195e+02
6.900000e-07	-3.231692e-06	-2.554212e-09	-2.410869e+01	-1.670162e+02
7.000000e-07	-3.212224e-06	-2.542714e-09	-2.396346e+01	-1.664086e+02
7.100000e-07	-3.192566e-06	-2.522790e-09	-2.381680e+01	-1.657967e+02
7.200000e-07	-3.172827e-06	-2.516042e-09	-2.366955e+01	-1.651803e+02
7.300000e-07	-3.153018e-06	-2.507516e-09	-2.352177e+01	-1.645591e+02
7.400000e-07	-3.133116e-06	-2.494580e-09	-2.337330e+01	-1.639327e+02
7.500000e-07	-3.113090e-06	-2.480900e-09	-2.322391e+01	-1.633006e+02
7.600000e-07	-3.092891e-06	-2.476754e-09	-2.307322e+01	-1.626622e+02
7.700000e-07	-3.072442e-06	-2.466174e-09	-2.292067e+01	-1.620170e+02
7.800000e-07	-3.051708e-06	-2.450987e-09	-2.276599e+01	-1.613642e+02
7.900000e-07	-3.030780e-06	-2.438352e-09	-2.260987e+01	-1.607033e+02
8.000000e-07	-3.009631e-06	-2.432454e-09	-2.245210e+01	-1.600336e+02
8.100000e-07	-2.988271e-06	-2.426120e-09	-2.229275e+01	-1.593545e+02
8.200000e-07	-2.966709e-06	-2.412946e-09	-2.213190e+01	-1.586654e+02
8.300000e-07	-2.944972e-06	-2.392999e-09	-2.196974e+01	-1.579659e+02
8.400000e-07	-2.923105e-06	-2.379588e-09	-2.180661e+01	-1.572555e+02
8.500000e-07	-2.901013e-06	-2.375929e-09	-2.164180e+01	-1.565338e+02
8.600000e-07	-2.878761e-06	-2.372353e-09	-2.147580e+01	-1.558006e+02
8.700000e-07	-2.856319e-06	-2.358175e-09	-2.130838e+01	-1.550558e+02
8.800000e-07	-2.833554e-06	-2.335771e-09	-2.113855e+01	-1.542994e+02
8.900000e-07	-2.810485e-06	-2.320432e-09	-2.096645e+01	-1.535312e+02
9.000000e-07	-2.787230e-06	-2.313928e-09	-2.079297e+01	-1.527516e+02
9.100000e-07	-2.763846e-06	-2.304581e-09	-2.061852e+01	-1.519608e+02
9.200000e-07	-2.740322e-06	-2.285240e-09	-2.044303e+01	-1.511589e+02
9.300000e-07	-2.716639e-06	-2.264627e-09	-2.026635e+01	-1.503465e+02
9.400000e-07	-2.692795e-06	-2.253851e-09	-2.008847e+01	-1.495238e+02
9.500000e-07	-2.668872e-06	-2.254079e-09	-1.991001e+01	-1.486913e+02
9.600000e-07	-2.644830e-06	-2.248259e-09	-1.973065e+01	-1.478496e+02
9.700000e-07	-2.620650e-06	-2.229396e-09	-1.955027e+01	-1.469989e+02
9.800000e-07	-2.596324e-06	-2.207668e-09	-1.936879e+01	-1.461398e+02
9.900000e-07	-2.571892e-06	-2.196746e-09	-1.918653e+01	-1.452727e+02
1.000000e-06	-2.547252e-06	-2.189486e-09	-1.900271e+01	-1.443979e+02
1.010000e-06	-2.522283e-06	-2.175175e-09	-1.881644e+01	-1.435158e+02
1.020000e-06	-2.497089e-06	-2.152058e-09	-1.862849e+01	-1.426266e+02
1.030000e-06	-2.471552e-06	-2.133724e-09	-1.843798e+01	-1.417305e+02
1.040000e-06	-2.445676e-06	-2.124360e-09	-1.824495e+01	-1.408277e+02
1.050000e-06	-2.419544e-06	-2.117747e-09	-1.805000e+01	-1.399183e+02
1.060000e-06	-2.393075e-06	-2.104637e-09	-1.785254e+01	-1.390021e+02
1.070000e-06	-2.366292e-06	-2.085546e-09	-1.765274e+01	-1.380792e+02
1.080000e-06	-2.339212e-06	-2.068413e-09	-1.745071e+01	-1.371494e+02
1.090000e-06	-2.311879e-06	-2.060052e-09	-1.724681e+01	-1.362126e+02
1.100000e-06	-2.284433e-06	-2.050954e-09	-1.704206e+01	-1.352685e+02
1.110000e-06	-2.256847e-06	-2.031774e-09	-1.683626e+01	-1.343169e+02
1.120000e-06	-2.229116e-06	-2.006991e-09	-1.662939e+01	-1.333575e+02
1.130000e-06	-2.201349e-06	-1.989778e-09	-1.642225e+01	-1.323902e+02
1.140000e-06	-2.173530e-06	-1.982284e-09	-1.621472e+01	-1.314146e+02
1.150000e-06	-2.145640e-06	-1.972779e-09	-1.600665e+01	-1.304304e+02
1.160000e-06	-2.117656e-06	-1.953688e-09	-1.579789e+01	-1.294375e+02
1.170000e-06	-2.089586e-06	-1.931763e-09	-1.558848e+01	-1.284357e+02
1.180000e-06	-2.061475e-06	-1.917494e-09	-1.537877e+01	-1.274249e+02
1.190000e-06	-2.033313e-06	-1.909443e-09	-1.516868e+01	-1.264049e+02
1.200000e-06	-2.005024e-06	-1.897158e-09	-1.495765e+01	-1.253756e+02
1.210000e-06	-1.976477e-06	-1.877440e-09	-1.474469e+01	-1.243371e+02
1.220000e-06	-1.947674e-06	-1.857923e-09	-1.452981e+01	-1.232895e+02
1.230000e-06	-1.918696e-06	-1.841942e-09	-1.431363e+01	-1.222327e+02
1.240000e-06	-1.889554e-06	-1.828561e-09	-1.409623e+01	-1.211668e+02
1.250000e-06	-1.860276e-06	-1.813875e-09	-1.387781e+01	-1.200921e+02
1.260000e-06	-1.830868e-06	-1.796739e-09	-1.365843e+01	-1.190086e+02
1.270000e-06	-1.801332e-06	-1.777266e-09	-1.343808e+01	-1.179164e+02
1.280000e-06	-1.771710e-06	-1.758443e-09	-1.321711e+01	-1.168157e+02
1.290000e-06	-1.742054e-06	-1.743052e-09	-1.299587e+01	-1.157066e+02
1.300000e-06	-1.712331e-06	-1.726950e-09	-1.277413e+01	-1.145892e+02
1.310000e-06	-1.682484e-06	-1.706725e-09	-1.255147e+01	-1.134636e+02
1.320000e-06	-1.652573e-06	-1.685881e-09	-1.232833e+01	-1.123296e+02
1.330000e-06	-1.622584e-06	-1.668116e-09	-1.210461e+01	-1.111873e+02
1.340000e-06	-1.592467e-06	-1.653192e-09	-1.187994e+01	-1.100365e+02
1.350000e-06	-1.562231e-06	-1.637622e-09	-1.165437e+01	-1.088770e+02
1.360000e-06	-1.531894e-06	-1.618075e-09	-1.142805e+01	-1.077086e+02
1.370000e-06	-1.501492e-06	-1.597247e-09	-1.120125e+01	-1.065309e+02
1.380000e-06	-1.470970e-06	-1.578588e-09	-1.097356e+01	-1.053436e+02
1.390000e-06	-1.440328e-06	-1.562493e-09	-1.074497e+01	-1.041463e+02
1.400000e-06	-1.409493e-06	-1.546477e-09	-1.051494e+01	-1.029385e+02
1.410000e-06	-1.378551e-06	-1.527747e-09	-1.028410e+01	-1.017197e+02
1.420000e-06	-1.347670e-06	-1.507363e-09	-1.005373e+01	-1.004894e+02
1.430000e-06	-1.316634e-06	-1.489057e-09	-9.822199e+00	-9.924705e+01
1.440000e-06	-1.285398e-06	-1.472171e-09	-9.589175e+00	-9.799221e+01
1.450000e-06	-1.254068e-06	-1.452618e-09	-9.355453e+00	-9.672441e+01
1.460000e-06	-1.222660e-06	-1.431160e-09	-9.121144e+00	-9.544323e+01
1.470000e-06	-1.191208e-06	-1.410481e-09	-8.886510e+00	-9.414832e+01
1.480000e-06	-1.159652e-06	-1.393885e-09	-8.651101e+00	-9.283941e+01
1.490000e-06	-1.127994e-06	-1.378816e-09	-8.414931e+00	-9.151631e+01
1.500000e-06	-1.096274e-06	-1.362807e-09	-8.178293e+00	-9.017893e+01
1.510000e-06	-1.064525e-06	-1.345062e-09	-7.941448e+00	-8.882731e+01
1.520000e-06	-1.032775e-06	-1.325964e-09	-7.704584e+00	-8.746156e+01
1.530000e-06	-1.000974e-06	-1.302601e-09	-7.467353e+00	-8.608194e+01
1.540000e-06	-9.691273e-07	-1.276630e-09	-7.229770e+00	-8.468880e+01
1.550000e-06	-9.372584e-07	-1.252422e-09	-6.992026e+00	-8.328259e+01
1.560000e-06	-9.053806e-07	-1.230679e-09	-6.754214e+00	-8.186387e+01
1.570000e-06	-8.734557e-07	-1.208638e-09	-6.516052e+00	-8.043328e+01
1.580000e-06	-8.414952e-07	-1.183729e-09	-6.277624e+00	-7.899153e+01
1.590000e-06	-8.095705e-07	-1.159239e-09	-6.039463e+00	-7.753938e+01
1.600000e-06	-7.776408e-07	-1.138884e-09	-5.801265e+00	-7.607762e+01
1.610000e-06	-7.456510e-07	-1.118205e-09	-5.562618e+00	-7.460706e+01
1.620000e-06	-7.136264e-07	-1.095318e-09	-5.323712e+00	-7.312849e+01
1.630000e-06	-6.815715e-07	-1.073006e-09	-5.084580e+00	-7.164269e+01
1.640000e-06	-6.494994e-07	-1.050777e-09	-4.845319e+00	-7.015037e+01
1.650000e-06	-6.173992e-07	-1.027387e-09	-4.605850e+00	-6.865217e+01
1.660000e-06	-5.852181e-07	-1.004523e-09	-4.365776e+00	-6.714865e+01
1.670000e-06	-5.529771e-07	-9.844151e-10	-4.125255e+00	-6.564025e+01
1.680000e-06	-5.207423e-07	-9.633491e-10	-3.884781e+00	-6.412730e+01
1.690000e-06	-4.884367e-07	-9.408548e-10	-3.643778e+00	-6.260999e+01
1.700000e-06	-4.561081e-07	-9.191229e-10	-3.402604e+00	-6.108838e+01
1.710000e-06	-4.238011e-07	-8.973088e-10	-3.161591e+00	-5.956240e+01
1.720000e-06	-3.914480e-07	-8.734838e-10	-2.920234e+00	-5.803184e+01
1.730000e-06	-3.590918e-07	-8.480773e-10	-2.678855e+00	-5.649634e+01
1.740000e-06	-3.267014e-07	-8.230636e-10	-2.437220e+00	-5.495545e+01
1.750000e-06	-2.942037e-07	-8.008299e-10	-2.194784e+00	-5.340858e+01
1.760000e-06	-2.616166e-07	-7.793876e-10	-1.951681e+00	-5.185508e+01
1.770000e-06	-2.290463e-07	-7.555595e-10	-1.708704e+00	-5.029422e+01
1.780000e-06	-1.965351e-07	-7.293627e-10	-1.466168e+00	-4.872521e+01
1.790000e-06	-1.640753e-07	-7.045110e-10	-1.224016e+00	-4.714726e+01
1.800000e-06	-1.316061e-07	-6.806915e-10	-9.817925e-01	-4.555958e+01
1.810000e-06	-9.909005e-08	-6.577765e-10	-7.392200e-01	-4.396138e+01
1.820000e-06	-6.652232e-08	-6.342502e-10	-4.962621e-01	-4.235197e+01
1.830000e-06	-3.391676e-08	-6.094807e-10	-2.530219e-01	-4.073070e+01
1.840000e-06	-1.334790e-09	-5.850289e-10	-9.957647e-03	-3.909705e+01
1.850000e-06	3.125089e-08	-5.624833e-10	2.331342e-01	-3.745060e+01
1.860000e-06	6.379474e-08	-5.404398e-10	4.759140e-01	-3.579109e+01
1.870000e-06	9.632708e-08	-5.145924e-10	7.186080e-01	-3.411840e+01
1.880000e-06	1.289555e-07	-4.860137e-10	9.620188e-01	-3.243257e+01
1.890000e-06	1.615519e-07	-4.593018e-10	1.205190e+00	-3.073381e+01
1.900000e-06	1.941360e-07	-4.321533e-10	1.448271e+00	-2.902248e+01
1.910000e-06	2.266589e-07	-4.058332e-10	1.690894e+00	-2.729911e+01
1.920000e-06	2.591675e-07	-3.791375e-10	1.933411e+00	-2.556438e+01
1.930000e-06	2.916904e-07	-3.502911e-10	2.176035e+00	-2.381911e+01
1.940000e-06	3.241876e-07	-3.229092e-10	2.418467e+00	-2.206421e+01
1.950000e-06	3.567096e-07	-2.981162e-10	2.661083e+00	-2.030071e+01
1.960000e-06	3.891341e-07	-2.736827e-10	2.902972e+00	-1.852970e+01
1.970000e-06	4.214738e-07	-2.471787e-10	3.144229e+00	-1.675231e+01
1.980000e-06	4.537954e-07	-2.197259e-10	3.385351e+00	-1.496967e+01
1.990000e-06	4.861180e-07	-1.943337e-10	3.626481e+00	-1.318292e+01
2.000000e-06	5.183921e-07	-1.701453e-10	3.867248e+00	-1.139311e+01
2.010000e-06	5.506587e-07	-1.449355e-10	4.107960e+00	-9.601260e+00
2.020000e-06	5.829374e-07	-1.178303e-10	4.348761e+00	-7.808251e+00
2.030000e-06	6.151169e-07	-8.822247e-11	4.588823e+00	-6.014849e+00
2.040000e-06	6.472441e-07	-5.993905e-11	4.828495e+00	-4.221667e+00
2.050000e-06	6.793170e-07	-3.267352e-11	5.067761e+00	-2.429153e+00
2.060000e-06	7.112815e-07	-5.310294e-12	5.306219e+00	-6.375728e-01
2.070000e-06	7.432483e-07	2.326683e-11	5.544694e+00	1.152996e+00
2.080000e-06	7.752177e-07	5.093367e-11	5.783189e+00	2.942668e+00
2.090000e-06	8.071812e-07	7.948344e-11	6.021639e+00	4.731743e+00
2.100000e-06	8.391233e-07	1.071698e-10	6.259929e+00	6.520705e+00
2.110000e-06	8.710202e-07	1.349337e-10	6.497883e+00	8.310206e+00
2.120000e-06	9.028768e-07	1.644345e-10	6.735536e+00	1.010105e+01
2.130000e-06	9.347184e-07	1.942928e-10	6.973077e+00	1.189416e+01
2.140000e-06	9.665664e-07	2.225115e-10	7.210666e+00	1.369058e+01
2.150000e-06	9.984103e-07	2.484436e-10	7.448224e+00	1.549142e+01
2.160000e-06	1.030223e-06	2.750769e-10	7.685553e+00	1.729783e+01
2.170000e-06	1.061976e-06	3.028951e-10	7.922431e+00	1.911098e+01
2.180000e-06	1.093687e-06	3.306965e-10	8.158999e+00	2.093200e+01
2.190000e-06	1.125391e-06	3.578412e-10	8.395510e+00	2.276199e+01
2.200000e-06	1.157034e-06	3.857263e-10	8.631573e+00	2.460194e+01
2.210000e-06	1.188583e-06	4.146793e-10	8.866925e+00	2.645274e+01
2.220000e-06	1.220059e-06	4.433992e-10	9.101738e+00	2.831513e+01
2.230000e-06	1.251386e-06	4.746665e-10	9.335443e+00	3.018967e+01
2.240000e-06	1.282645e-06	5.057026e-10	9.568639e+00	3.207676e+01
2.250000e-06	1.313845e-06	5.341960e-10	9.801396e+00	3.397658e+01
2.260000e-06	1.344901e-06	5.606939e-10	1.003307e+01	3.588908e+01
2.270000e-06	1.375842e-06	5.876256e-10	1.026389e+01	3.781404e+01
2.280000e-06	1.406672e-06	6.152616e-10	1.049389e+01	3.975097e+01
2.290000e-06	1.437374e-06	6.421261e-10	1.072293e+01	4.169920e+01
2.300000e-06	1.467894e-06	6.689035e-10	1.095061e+01	4.365785e+01
2.310000e-06	1.498338e-06	6.962889e-10	1.117773e+01	4.562586e+01
2.320000e-06	1.528801e-06	7.260657e-10	1.140499e+01	4.760198e+01
2.330000e-06	1.559128e-06	7.577847e-10	1.163123e+01	4.958485e+01
2.340000e-06	1.589233e-06	7.897809e-10	1.185581e+01	5.157297e+01
2.350000e-06	1.619182e-06	8.206860e-10	1.207923e+01	5.356475e+01
2.360000e-06	1.649058e-06	8.515235e-10	1.230211e+01	5.555855e+01
2.370000e-06	1.678938e-06	8.819706e-10	1.252501e+01	5.755269e+01
2.380000e-06	1.708770e-06	9.115998e-10	1.274756e+01	5.954549e+01
2.390000e-06	1.738480e-06	9.418874e-10	1.296920e+01	6.153531e+01
2.400000e-06	1.768071e-06	9.715176e-10	1.318996e+01	6.352055e+01
2.410000e-06	1.797557e-06	9.986897e-10	1.340992e+01	6.549972e+01
2.420000e-06	1.826899e-06	1.028215e-09	1.362881e+01	6.747140e+01
2.430000e-06	1.856135e-06	1.061457e-09	1.384692e+01	6.943430e+01
2.440000e-06	1.885202e-06	1.095468e-09	1.406376e+01	7.138729e+01
2.450000e-06	1.914073e-06	1.125227e-09	1.427914e+01	7.332937e+01
2.460000e-06	1.942768e-06	1.151689e-09	1.449321e+01	7.525968e+01
2.470000e-06	1.971243e-06	1.179467e-09	1.470564e+01	7.717753e+01
2.480000e-06	1.999586e-06	1.206518e-09	1.491708e+01	7.908239e+01
2.490000e-06	2.027838e-06	1.232580e-09	1.512784e+01	8.097385e+01
2.500000e-06	2.056028e-06	1.259559e-09	1.533814e+01	8.285166e+01
2.510000e-06	2.084092e-06	1.286566e-09	1.554750e+01	8.471566e+01
2.520000e-06	2.112032e-06	1.313865e-09	1.575593e+01	8.656584e+01
2.530000e-06	2.139972e-06	1.343012e-09	1.596437e+01	8.840222e+01
2.540000e-06	2.167888e-06	1.371677e-09	1.617262e+01	9.022493e+01
2.550000e-06	2.195709e-06	1.397573e-09	1.638017e+01	9.203412e+01
2.560000e-06	2.223470e-06	1.422924e-09	1.658727e+01	9.382997e+01
2.570000e-06	2.251220e-06	1.449430e-09	1.679429e+01	9.561267e+01
2.580000e-06	2.278878e-06	1.477498e-09	1.700062e+01	9.738238e+01
2.590000e-06	2.306317e-06	1.503883e-09	1.720532e+01	9.913923e+01
2.600000e-06	2.333654e-06	1.528220e-09	1.740925e+01	1.008833e+02
2.610000e-06	2.360801e-06	1.553287e-09	1.761177e+01	1.026146e+02
2.620000e-06	2.387616e-06	1.582662e-09	1.781181e+01	1.043331e+02
2.630000e-06	2.414066e-06	1.613042e-09	1.800913e+01	1.060387e+02
2.640000e-06	2.440138e-06	1.640651e-09	1.820363e+01	1.077310e+02
2.650000e-06	2.465846e-06	1.663376e-09	1.839542e+01	1.094100e+02
2.660000e-06	2.491225e-06	1.685129e-09	1.858474e+01	1.110750e+02
2.670000e-06	2.516324e-06	1.709952e-09	1.877198e+01	1.127258e+02
2.680000e-06	2.541185e-06	1.736425e-09	1.895745e+01	1.143617e+02
2.690000e-06	2.565803e-06	1.760624e-09	1.914110e+01	1.159822e+02
2.700000e-06	2.590167e-06	1.784539e-09	1.932286e+01	1.175866e+02
2.710000e-06	2.614397e-06	1.811556e-09	1.950362e+01	1.191744e+02
2.720000e-06	2.638496e-06	1.841106e-09	1.968340e+01	1.207449e+02
2.730000e-06	2.662504e-06	1.869812e-09	1.986250e+01	1.222974e+02
2.740000e-06	2.686364e-06	1.893004e-09	2.004050e+01	1.238313e+02
2.750000e-06	2.710039e-06	1.913445e-09	2.021712e+01	1.253460e+02
2.760000e-06	2.733618e-06	1.935674e-09	2.039302e+01	1.268410e+02
2.770000e-06	2.757134e-06	1.960212e-09	2.056845e+01	1.283157e+02
2.780000e-06	2.780475e-06	1.982553e-09	2.074258e+01	1.297697e+02
2.790000e-06	2.803510e-06	2.003308e-09	2.091442e+01	1.312028e+02
2.800000e-06	2.826274e-06	2.024919e-09	2.108424e+01	1.326146e+02
2.810000e-06	2.848803e-06	2.047589e-09	2.125231e+01	1.340050e+02
2.820000e-06	2.871140e-06	2.069396e-09	2.141895e+01	1.353739e+02
2.830000e-06	2.893350e-06	2.090646e-09	2.158463e+01	1.367213e+02
2.840000e-06	2.915419e-06	2.109761e-09	2.174927e+01	1.380474e+02
2.850000e-06	2.937258e-06	2.127654e-09	2.191219e+01	1.393521e+02
2.860000e-06	2.958863e-06	2.145593e-09	2.207336e+01	1.406358e+02
2.870000e-06	2.980320e-06	2.163185e-09	2.223344e+01	1.418988e+02
2.880000e-06	3.001655e-06	2.179840e-09	2.239259e+01	1.431412e+02
2.890000e-06	3.022758e-06	2.195557e-09	2.255003e+01	1.443635e+02
2.900000e-06	3.043498e-06	2.212765e-09	2.270475e+01	1.455661e+02
