# Temperatura_=_20.0
# Concentracion g/m^3_=_12600.0
# C_Vs_to_Am_M_A/Vsm_=_65563218390.804596
# pendiente_HvsI_1/m_=_3716.3
# ordenada_HvsI_A/m_=_1297.0
# frecuencia_Hz_=_135009.98973969382

Tiempo_(s)	Campo_(V.s)	Magnetizacion_(V.s)	Campo_(kA/m)	Magnetizacion_(A/m)
0.000000e+00	-3.883395e-06	-2.825184e-09	-2.914396e+01	-1.865329e+02
1.000000e-08	-3.883619e-06	-2.827413e-09	-2.914565e+01	-1.865897e+02
2.000000e-08	-3.883664e-06	-2.830960e-09	-2.914599e+01	-1.866260e+02
3.000000e-08	-3.883530e-06	-2.835179e-09	-2.914498e+01	-1.866403e+02
4.000000e-08	-3.883195e-06	-2.840651e-09	-2.914246e+01	-1.866310e+02
5.000000e-08	-3.882586e-06	-2.852665e-09	-2.913789e+01	-1.865968e+02
6.000000e-08	-3.881537e-06	-2.855818e-09	-2.913002e+01	-1.865366e+02
7.000000e-08	-3.879969e-06	-2.857851e-09	-2.911825e+01	-1.864497e+02
8.000000e-08	-3.877908e-06	-2.831173e-09	-2.910278e+01	-1.863358e+02
9.000000e-08	-3.875224e-06	-2.810298e-09	-2.908264e+01	-1.861948e+02
1.000000e-07	-3.872046e-06	-2.823194e-09	-2.905880e+01	-1.860269e+02
1.100000e-07	-3.868704e-06	-2.846055e-09	-2.903371e+01	-1.858330e+02
1.200000e-07	-3.865234e-06	-2.875396e-09	-2.900767e+01	-1.856139e+02
1.300000e-07	-3.861655e-06	-2.849577e-09	-2.898081e+01	-1.853712e+02
1.400000e-07	-3.857896e-06	-2.773558e-09	-2.895260e+01	-1.851064e+02
1.500000e-07	-3.853904e-06	-2.747979e-09	-2.892264e+01	-1.848216e+02
1.600000e-07	-3.849746e-06	-2.742055e-09	-2.889144e+01	-1.845189e+02
1.700000e-07	-3.845385e-06	-2.783405e-09	-2.885871e+01	-1.842009e+02
1.800000e-07	-3.840793e-06	-2.818602e-09	-2.882424e+01	-1.838700e+02
1.900000e-07	-3.835897e-06	-2.780162e-09	-2.878750e+01	-1.835290e+02
2.000000e-07	-3.830666e-06	-2.742504e-09	-2.874825e+01	-1.831805e+02
2.100000e-07	-3.825229e-06	-2.751237e-09	-2.870744e+01	-1.828271e+02
2.200000e-07	-3.819587e-06	-2.810528e-09	-2.866510e+01	-1.824714e+02
2.300000e-07	-3.813693e-06	-2.819754e-09	-2.862087e+01	-1.821159e+02
2.400000e-07	-3.807487e-06	-2.783275e-09	-2.857429e+01	-1.817628e+02
2.500000e-07	-3.801018e-06	-2.733431e-09	-2.852574e+01	-1.814141e+02
2.600000e-07	-3.794243e-06	-2.752642e-09	-2.847490e+01	-1.810714e+02
2.700000e-07	-3.787100e-06	-2.788274e-09	-2.842129e+01	-1.807362e+02
2.800000e-07	-3.779764e-06	-2.800008e-09	-2.836624e+01	-1.804095e+02
2.900000e-07	-3.772204e-06	-2.753757e-09	-2.830950e+01	-1.800919e+02
3.000000e-07	-3.764431e-06	-2.718728e-09	-2.825117e+01	-1.797837e+02
3.100000e-07	-3.756497e-06	-2.720213e-09	-2.819162e+01	-1.794849e+02
3.200000e-07	-3.748372e-06	-2.750984e-09	-2.813065e+01	-1.791949e+02
3.300000e-07	-3.740015e-06	-2.759147e-09	-2.806793e+01	-1.789130e+02
3.400000e-07	-3.731389e-06	-2.731014e-09	-2.800320e+01	-1.786380e+02
3.500000e-07	-3.722545e-06	-2.699823e-09	-2.793682e+01	-1.783685e+02
3.600000e-07	-3.713258e-06	-2.697354e-09	-2.786713e+01	-1.781029e+02
3.700000e-07	-3.703450e-06	-2.730411e-09	-2.779352e+01	-1.778393e+02
3.800000e-07	-3.693160e-06	-2.739917e-09	-2.771630e+01	-1.775757e+02
3.900000e-07	-3.682341e-06	-2.710173e-09	-2.763510e+01	-1.773100e+02
4.000000e-07	-3.671134e-06	-2.666865e-09	-2.755099e+01	-1.770401e+02
4.100000e-07	-3.659693e-06	-2.679220e-09	-2.746513e+01	-1.767638e+02
4.200000e-07	-3.648040e-06	-2.708073e-09	-2.737768e+01	-1.764790e+02
4.300000e-07	-3.636121e-06	-2.712795e-09	-2.728823e+01	-1.761839e+02
4.400000e-07	-3.624004e-06	-2.668429e-09	-2.719729e+01	-1.758767e+02
4.500000e-07	-3.611678e-06	-2.639305e-09	-2.710479e+01	-1.755558e+02
4.600000e-07	-3.599060e-06	-2.651626e-09	-2.701010e+01	-1.752198e+02
4.700000e-07	-3.586111e-06	-2.691602e-09	-2.691292e+01	-1.748677e+02
4.800000e-07	-3.572886e-06	-2.681975e-09	-2.681367e+01	-1.744987e+02
4.900000e-07	-3.559391e-06	-2.628749e-09	-2.671239e+01	-1.741124e+02
5.000000e-07	-3.545610e-06	-2.595180e-09	-2.660897e+01	-1.737085e+02
5.100000e-07	-3.531627e-06	-2.627845e-09	-2.650403e+01	-1.732871e+02
5.200000e-07	-3.517430e-06	-2.657849e-09	-2.639748e+01	-1.728486e+02
5.300000e-07	-3.502936e-06	-2.634519e-09	-2.628871e+01	-1.723937e+02
5.400000e-07	-3.488027e-06	-2.586724e-09	-2.617682e+01	-1.719233e+02
5.500000e-07	-3.472797e-06	-2.577571e-09	-2.606253e+01	-1.714382e+02
5.600000e-07	-3.457090e-06	-2.602480e-09	-2.594464e+01	-1.709399e+02
5.700000e-07	-3.440915e-06	-2.616771e-09	-2.582326e+01	-1.704295e+02
5.800000e-07	-3.424611e-06	-2.593408e-09	-2.570090e+01	-1.699086e+02
5.900000e-07	-3.408056e-06	-2.556216e-09	-2.557666e+01	-1.693785e+02
6.000000e-07	-3.391246e-06	-2.548791e-09	-2.545050e+01	-1.688406e+02
6.100000e-07	-3.374233e-06	-2.570022e-09	-2.532283e+01	-1.682963e+02
6.200000e-07	-3.357038e-06	-2.576557e-09	-2.519378e+01	-1.677468e+02
6.300000e-07	-3.339642e-06	-2.542884e-09	-2.506322e+01	-1.671932e+02
6.400000e-07	-3.322050e-06	-2.514253e-09	-2.493121e+01	-1.666364e+02
6.500000e-07	-3.304215e-06	-2.519261e-09	-2.479736e+01	-1.660773e+02
6.600000e-07	-3.286144e-06	-2.534117e-09	-2.466174e+01	-1.655163e+02
6.700000e-07	-3.267914e-06	-2.522445e-09	-2.452492e+01	-1.649537e+02
6.800000e-07	-3.249311e-06	-2.495883e-09	-2.438531e+01	-1.643896e+02
6.900000e-07	-3.230311e-06	-2.476479e-09	-2.424272e+01	-1.638240e+02
7.000000e-07	-3.211042e-06	-2.479054e-09	-2.409812e+01	-1.632564e+02
7.100000e-07	-3.191633e-06	-2.482819e-09	-2.395245e+01	-1.626862e+02
7.200000e-07	-3.172111e-06	-2.471383e-09	-2.380595e+01	-1.621128e+02
7.300000e-07	-3.152407e-06	-2.447083e-09	-2.365807e+01	-1.615353e+02
7.400000e-07	-3.132611e-06	-2.434354e-09	-2.350951e+01	-1.609525e+02
7.500000e-07	-3.112718e-06	-2.432170e-09	-2.336021e+01	-1.603635e+02
7.600000e-07	-3.092677e-06	-2.427354e-09	-2.320981e+01	-1.597670e+02
7.700000e-07	-3.072551e-06	-2.411076e-09	-2.305877e+01	-1.591618e+02
7.800000e-07	-3.052304e-06	-2.393737e-09	-2.290682e+01	-1.585469e+02
7.900000e-07	-3.031834e-06	-2.383631e-09	-2.275320e+01	-1.579210e+02
8.000000e-07	-3.011096e-06	-2.378376e-09	-2.259757e+01	-1.572832e+02
8.100000e-07	-2.990075e-06	-2.372376e-09	-2.243981e+01	-1.566325e+02
8.200000e-07	-2.968831e-06	-2.364229e-09	-2.228038e+01	-1.559682e+02
8.300000e-07	-2.947308e-06	-2.353013e-09	-2.211885e+01	-1.552896e+02
8.400000e-07	-2.925529e-06	-2.342573e-09	-2.195541e+01	-1.545963e+02
8.500000e-07	-2.903624e-06	-2.331299e-09	-2.179102e+01	-1.538882e+02
8.600000e-07	-2.881571e-06	-2.321184e-09	-2.162551e+01	-1.531651e+02
8.700000e-07	-2.859324e-06	-2.313854e-09	-2.145855e+01	-1.524272e+02
8.800000e-07	-2.836883e-06	-2.302724e-09	-2.129014e+01	-1.516749e+02
8.900000e-07	-2.814213e-06	-2.284198e-09	-2.112001e+01	-1.509086e+02
9.000000e-07	-2.791215e-06	-2.266523e-09	-2.094741e+01	-1.501291e+02
9.100000e-07	-2.768083e-06	-2.258393e-09	-2.077381e+01	-1.493371e+02
9.200000e-07	-2.744774e-06	-2.252260e-09	-2.059888e+01	-1.485335e+02
9.300000e-07	-2.721229e-06	-2.239159e-09	-2.042218e+01	-1.477195e+02
9.400000e-07	-2.697572e-06	-2.221602e-09	-2.024465e+01	-1.468959e+02
9.500000e-07	-2.673805e-06	-2.209836e-09	-2.006627e+01	-1.460640e+02
9.600000e-07	-2.649945e-06	-2.205558e-09	-1.988721e+01	-1.452247e+02
9.700000e-07	-2.625962e-06	-2.196886e-09	-1.970723e+01	-1.443792e+02
9.800000e-07	-2.601877e-06	-2.175733e-09	-1.952647e+01	-1.435284e+02
9.900000e-07	-2.577664e-06	-2.154367e-09	-1.934476e+01	-1.426731e+02
1.000000e-06	-2.553273e-06	-2.145031e-09	-1.916171e+01	-1.418142e+02
1.010000e-06	-2.528684e-06	-2.141718e-09	-1.897717e+01	-1.409523e+02
1.020000e-06	-2.503920e-06	-2.127687e-09	-1.879133e+01	-1.400879e+02
1.030000e-06	-2.478971e-06	-2.103385e-09	-1.860409e+01	-1.392213e+02
1.040000e-06	-2.453816e-06	-2.085152e-09	-1.841531e+01	-1.383526e+02
1.050000e-06	-2.428236e-06	-2.080369e-09	-1.822334e+01	-1.374820e+02
1.060000e-06	-2.402168e-06	-2.074114e-09	-1.802770e+01	-1.366092e+02
1.070000e-06	-2.375807e-06	-2.056599e-09	-1.782987e+01	-1.357340e+02
1.080000e-06	-2.349178e-06	-2.034218e-09	-1.763003e+01	-1.348560e+02
1.090000e-06	-2.322304e-06	-2.019267e-09	-1.742835e+01	-1.339745e+02
1.100000e-06	-2.295157e-06	-2.014017e-09	-1.722461e+01	-1.330889e+02
1.110000e-06	-2.267825e-06	-2.006737e-09	-1.701949e+01	-1.321984e+02
1.120000e-06	-2.240329e-06	-1.987522e-09	-1.681314e+01	-1.313024e+02
1.130000e-06	-2.212660e-06	-1.964735e-09	-1.660549e+01	-1.303998e+02
1.140000e-06	-2.184935e-06	-1.950530e-09	-1.639742e+01	-1.294900e+02
1.150000e-06	-2.157152e-06	-1.943814e-09	-1.618892e+01	-1.285719e+02
1.160000e-06	-2.129296e-06	-1.930699e-09	-1.597986e+01	-1.276448e+02
1.170000e-06	-2.101386e-06	-1.909061e-09	-1.577040e+01	-1.267078e+02
1.180000e-06	-2.073421e-06	-1.888396e-09	-1.556053e+01	-1.257604e+02
1.190000e-06	-2.045366e-06	-1.876875e-09	-1.534999e+01	-1.248017e+02
1.200000e-06	-2.017176e-06	-1.868038e-09	-1.513843e+01	-1.238313e+02
1.210000e-06	-1.988875e-06	-1.852117e-09	-1.492604e+01	-1.228486e+02
1.220000e-06	-1.960478e-06	-1.832626e-09	-1.471293e+01	-1.218533e+02
1.230000e-06	-1.931925e-06	-1.815893e-09	-1.449864e+01	-1.208451e+02
1.240000e-06	-1.903197e-06	-1.802749e-09	-1.428304e+01	-1.198239e+02
1.250000e-06	-1.874312e-06	-1.788639e-09	-1.406627e+01	-1.187894e+02
1.260000e-06	-1.845284e-06	-1.770524e-09	-1.384842e+01	-1.177418e+02
1.270000e-06	-1.816070e-06	-1.751364e-09	-1.362918e+01	-1.166810e+02
1.280000e-06	-1.786704e-06	-1.734049e-09	-1.340879e+01	-1.156073e+02
1.290000e-06	-1.757254e-06	-1.717334e-09	-1.318778e+01	-1.145206e+02
1.300000e-06	-1.727675e-06	-1.699959e-09	-1.296579e+01	-1.134213e+02
1.310000e-06	-1.698001e-06	-1.682436e-09	-1.274309e+01	-1.123096e+02
1.320000e-06	-1.668297e-06	-1.664134e-09	-1.252017e+01	-1.111858e+02
1.330000e-06	-1.638516e-06	-1.645593e-09	-1.229668e+01	-1.100499e+02
1.340000e-06	-1.608625e-06	-1.629629e-09	-1.207235e+01	-1.089024e+02
1.350000e-06	-1.578596e-06	-1.613666e-09	-1.184699e+01	-1.077433e+02
1.360000e-06	-1.548398e-06	-1.595891e-09	-1.162036e+01	-1.065729e+02
1.370000e-06	-1.518071e-06	-1.575136e-09	-1.139277e+01	-1.053914e+02
1.380000e-06	-1.487701e-06	-1.556279e-09	-1.116484e+01	-1.041989e+02
1.390000e-06	-1.457293e-06	-1.540656e-09	-1.093664e+01	-1.029955e+02
1.400000e-06	-1.426786e-06	-1.526055e-09	-1.070769e+01	-1.017813e+02
1.410000e-06	-1.396202e-06	-1.508475e-09	-1.047817e+01	-1.005563e+02
1.420000e-06	-1.365518e-06	-1.488137e-09	-1.024789e+01	-9.932062e+01
1.430000e-06	-1.334705e-06	-1.469351e-09	-1.001664e+01	-9.807431e+01
1.440000e-06	-1.303808e-06	-1.454651e-09	-9.784770e+00	-9.681742e+01
1.450000e-06	-1.272834e-06	-1.439457e-09	-9.552319e+00	-9.555000e+01
1.460000e-06	-1.241784e-06	-1.418413e-09	-9.319295e+00	-9.427215e+01
1.470000e-06	-1.210654e-06	-1.395906e-09	-9.085671e+00	-9.298398e+01
1.480000e-06	-1.179460e-06	-1.376829e-09	-8.851571e+00	-9.168564e+01
1.490000e-06	-1.148100e-06	-1.360653e-09	-8.616217e+00	-9.037732e+01
1.500000e-06	-1.116550e-06	-1.343361e-09	-8.379448e+00	-8.905926e+01
1.510000e-06	-1.084912e-06	-1.324668e-09	-8.142009e+00	-8.773172e+01
1.520000e-06	-1.053233e-06	-1.307486e-09	-7.904268e+00	-8.639505e+01
1.530000e-06	-1.021514e-06	-1.291351e-09	-7.666221e+00	-8.504961e+01
1.540000e-06	-9.897582e-07	-1.272049e-09	-7.427902e+00	-8.369579e+01
1.550000e-06	-9.580351e-07	-1.248961e-09	-7.189828e+00	-8.233405e+01
1.560000e-06	-9.262924e-07	-1.224921e-09	-6.951606e+00	-8.096482e+01
1.570000e-06	-8.944830e-07	-1.202150e-09	-6.712884e+00	-7.958856e+01
1.580000e-06	-8.626481e-07	-1.181849e-09	-6.473971e+00	-7.820573e+01
1.590000e-06	-8.307741e-07	-1.161296e-09	-6.234764e+00	-7.681676e+01
1.600000e-06	-7.988657e-07	-1.138525e-09	-5.995299e+00	-7.542205e+01
1.610000e-06	-7.669418e-07	-1.116501e-09	-5.755717e+00	-7.402193e+01
1.620000e-06	-7.350170e-07	-1.096834e-09	-5.516130e+00	-7.261669e+01
1.630000e-06	-7.030563e-07	-1.077570e-09	-5.276272e+00	-7.120652e+01
1.640000e-06	-6.710540e-07	-1.058467e-09	-5.036102e+00	-6.979154e+01
1.650000e-06	-6.390450e-07	-1.038341e-09	-4.795882e+00	-6.837176e+01
1.660000e-06	-6.069817e-07	-1.014219e-09	-4.555254e+00	-6.694706e+01
1.670000e-06	-5.749232e-07	-9.911591e-10	-4.314663e+00	-6.551725e+01
1.680000e-06	-5.427844e-07	-9.715688e-10	-4.073469e+00	-6.408200e+01
1.690000e-06	-5.105775e-07	-9.517951e-10	-3.831764e+00	-6.264087e+01
1.700000e-06	-4.783922e-07	-9.291056e-10	-3.590221e+00	-6.119332e+01
1.710000e-06	-4.461983e-07	-9.055140e-10	-3.348613e+00	-5.973872e+01
1.720000e-06	-4.139854e-07	-8.843200e-10	-3.106863e+00	-5.827635e+01
1.730000e-06	-3.817622e-07	-8.622018e-10	-2.865035e+00	-5.680544e+01
1.740000e-06	-3.495699e-07	-8.356905e-10	-2.623440e+00	-5.532515e+01
1.750000e-06	-3.172278e-07	-8.092019e-10	-2.380720e+00	-5.383463e+01
1.760000e-06	-2.848175e-07	-7.857527e-10	-2.137488e+00	-5.233303e+01
1.770000e-06	-2.524264e-07	-7.641104e-10	-1.894401e+00	-5.081951e+01
1.780000e-06	-2.200180e-07	-7.405135e-10	-1.651183e+00	-4.929328e+01
1.790000e-06	-1.876501e-07	-7.131764e-10	-1.408270e+00	-4.775363e+01
1.800000e-06	-1.552839e-07	-6.866707e-10	-1.165369e+00	-4.619991e+01
1.810000e-06	-1.230152e-07	-6.662816e-10	-9.232001e-01	-4.463162e+01
1.820000e-06	-9.084250e-08	-6.461855e-10	-6.817515e-01	-4.304838e+01
1.830000e-06	-5.855430e-08	-6.216133e-10	-4.394362e-01	-4.144994e+01
1.840000e-06	-2.618611e-08	-5.956407e-10	-1.965205e-01	-3.983622e+01
1.850000e-06	6.148452e-09	-5.689263e-10	4.614269e-02	-3.820732e+01
1.860000e-06	3.849897e-08	-5.450758e-10	2.889257e-01	-3.656350e+01
1.870000e-06	7.095619e-08	-5.212689e-10	5.325095e-01	-3.490517e+01
1.880000e-06	1.034005e-07	-4.952906e-10	7.759962e-01	-3.323293e+01
1.890000e-06	1.357089e-07	-4.693112e-10	1.018463e+00	-3.154752e+01
1.900000e-06	1.680007e-07	-4.457414e-10	1.260805e+00	-2.984982e+01
1.910000e-06	2.003435e-07	-4.218536e-10	1.503531e+00	-2.814081e+01
1.920000e-06	2.326796e-07	-3.952624e-10	1.746205e+00	-2.642160e+01
1.930000e-06	2.649394e-07	-3.671112e-10	1.988308e+00	-2.469334e+01
1.940000e-06	2.971363e-07	-3.389669e-10	2.229938e+00	-2.295723e+01
1.950000e-06	3.293287e-07	-3.124269e-10	2.471535e+00	-2.121449e+01
1.960000e-06	3.615242e-07	-2.847958e-10	2.713154e+00	-1.946633e+01
1.970000e-06	3.937096e-07	-2.563348e-10	2.954697e+00	-1.771388e+01
1.980000e-06	4.259038e-07	-2.292127e-10	3.196308e+00	-1.595823e+01
1.990000e-06	4.579958e-07	-2.043049e-10	3.437150e+00	-1.420035e+01
2.000000e-06	4.900317e-07	-1.799606e-10	3.677572e+00	-1.244109e+01
2.010000e-06	5.221547e-07	-1.549911e-10	3.918648e+00	-1.068114e+01
2.020000e-06	5.542900e-07	-1.290743e-10	4.159816e+00	-8.921040e+00
2.030000e-06	5.863415e-07	-1.023110e-10	4.400355e+00	-7.161146e+00
2.040000e-06	6.183530e-07	-7.470879e-11	4.640594e+00	-5.401632e+00
2.050000e-06	6.503711e-07	-4.984716e-11	4.880882e+00	-3.642487e+00
2.060000e-06	6.823622e-07	-2.313228e-11	5.120968e+00	-1.883517e+00
2.070000e-06	7.143004e-07	5.923957e-12	5.360656e+00	-1.243535e-01
2.080000e-06	7.462234e-07	3.467974e-11	5.600231e+00	1.635531e+00
2.090000e-06	7.781069e-07	6.099017e-11	5.839509e+00	3.396806e+00
2.100000e-06	8.099388e-07	8.558854e-11	6.078400e+00	5.160260e+00
2.110000e-06	8.417763e-07	1.109935e-10	6.317333e+00	6.926776e+00
2.120000e-06	8.736271e-07	1.392046e-10	6.556365e+00	8.697298e+00
2.130000e-06	9.054840e-07	1.679023e-10	6.795444e+00	1.047280e+01
2.140000e-06	9.373304e-07	1.934347e-10	7.034444e+00	1.225428e+01
2.150000e-06	9.691458e-07	2.176626e-10	7.273211e+00	1.404266e+01
2.160000e-06	1.000932e-06	2.433465e-10	7.511759e+00	1.583884e+01
2.170000e-06	1.032692e-06	2.720307e-10	7.750112e+00	1.764362e+01
2.180000e-06	1.064409e-06	3.016852e-10	7.988138e+00	1.945765e+01
2.190000e-06	1.096043e-06	3.283718e-10	8.225548e+00	2.128147e+01
2.200000e-06	1.127629e-06	3.539196e-10	8.462593e+00	2.311544e+01
2.210000e-06	1.159118e-06	3.826398e-10	8.698906e+00	2.495974e+01
2.220000e-06	1.190454e-06	4.126325e-10	8.934079e+00	2.681435e+01
2.230000e-06	1.221672e-06	4.428000e-10	9.168360e+00	2.867908e+01
2.240000e-06	1.252742e-06	4.705866e-10	9.401534e+00	3.055352e+01
2.250000e-06	1.283694e-06	4.979689e-10	9.633823e+00	3.243707e+01
2.260000e-06	1.314565e-06	5.279093e-10	9.865499e+00	3.432895e+01
2.270000e-06	1.345294e-06	5.591838e-10	1.009612e+01	3.622823e+01
2.280000e-06	1.375962e-06	5.911710e-10	1.032627e+01	3.813383e+01
2.290000e-06	1.406615e-06	6.193814e-10	1.055632e+01	4.004454e+01
2.300000e-06	1.437168e-06	6.460476e-10	1.078561e+01	4.195906e+01
2.310000e-06	1.467507e-06	6.754547e-10	1.101330e+01	4.387603e+01
2.320000e-06	1.497717e-06	7.047004e-10	1.124001e+01	4.579406e+01
2.330000e-06	1.527880e-06	7.320897e-10	1.146638e+01	4.771176e+01
2.340000e-06	1.557934e-06	7.567823e-10	1.169192e+01	4.962776e+01
2.350000e-06	1.587884e-06	7.851480e-10	1.191669e+01	5.154076e+01
2.360000e-06	1.617692e-06	8.159848e-10	1.214039e+01	5.344953e+01
2.370000e-06	1.647470e-06	8.495341e-10	1.236387e+01	5.535297e+01
2.380000e-06	1.677297e-06	8.835247e-10	1.258772e+01	5.725010e+01
2.390000e-06	1.707088e-06	9.138338e-10	1.281129e+01	5.914010e+01
2.400000e-06	1.736721e-06	9.415390e-10	1.303368e+01	6.102231e+01
2.410000e-06	1.766207e-06	9.691228e-10	1.325496e+01	6.289621e+01
2.420000e-06	1.795575e-06	9.966601e-10	1.347536e+01	6.476149e+01
2.430000e-06	1.824771e-06	1.022985e-09	1.369447e+01	6.661797e+01
2.440000e-06	1.853794e-06	1.048779e-09	1.391229e+01	6.846565e+01
2.450000e-06	1.882671e-06	1.078136e-09	1.412900e+01	7.030465e+01
2.460000e-06	1.911387e-06	1.110085e-09	1.434451e+01	7.213523e+01
2.470000e-06	1.939962e-06	1.141943e-09	1.455895e+01	7.395775e+01
2.480000e-06	1.968384e-06	1.171137e-09	1.477226e+01	7.577264e+01
2.490000e-06	1.996647e-06	1.196195e-09	1.498437e+01	7.758040e+01
2.500000e-06	2.024791e-06	1.221609e-09	1.519558e+01	7.938153e+01
2.510000e-06	2.052831e-06	1.249442e-09	1.540602e+01	8.117654e+01
2.520000e-06	2.080812e-06	1.279085e-09	1.561600e+01	8.296590e+01
2.530000e-06	2.108726e-06	1.305923e-09	1.582549e+01	8.475002e+01
2.540000e-06	2.136564e-06	1.331113e-09	1.603441e+01	8.652922e+01
2.550000e-06	2.164391e-06	1.357321e-09	1.624325e+01	8.830371e+01
2.560000e-06	2.192166e-06	1.385542e-09	1.645169e+01	9.007358e+01
2.570000e-06	2.219789e-06	1.413227e-09	1.665899e+01	9.183877e+01
2.580000e-06	2.247332e-06	1.440774e-09	1.686570e+01	9.359906e+01
2.590000e-06	2.274789e-06	1.468872e-09	1.707175e+01	9.535409e+01
2.600000e-06	2.301942e-06	1.497225e-09	1.727553e+01	9.710331e+01
2.610000e-06	2.328759e-06	1.524549e-09	1.747679e+01	9.884603e+01
2.620000e-06	2.355383e-06	1.550785e-09	1.767659e+01	1.005814e+02
2.630000e-06	2.381757e-06	1.577136e-09	1.787453e+01	1.023085e+02
2.640000e-06	2.407785e-06	1.602824e-09	1.806986e+01	1.040262e+02
2.650000e-06	2.433446e-06	1.626786e-09	1.826244e+01	1.057333e+02
2.660000e-06	2.458795e-06	1.648762e-09	1.845267e+01	1.074285e+02
2.670000e-06	2.483864e-06	1.671975e-09	1.864082e+01	1.091105e+02
2.680000e-06	2.508616e-06	1.697299e-09	1.882657e+01	1.107780e+02
2.690000e-06	2.533159e-06	1.723293e-09	1.901076e+01	1.124297e+02
2.700000e-06	2.557526e-06	1.749191e-09	1.919363e+01	1.140641e+02
2.710000e-06	2.581767e-06	1.775657e-09	1.937555e+01	1.156801e+02
2.720000e-06	2.605906e-06	1.801119e-09	1.955671e+01	1.172766e+02
2.730000e-06	2.629885e-06	1.825279e-09	1.973667e+01	1.188523e+02
2.740000e-06	2.653740e-06	1.848585e-09	1.991570e+01	1.204065e+02
2.750000e-06	2.677461e-06	1.871987e-09	2.009372e+01	1.219381e+02
2.760000e-06	2.701016e-06	1.895220e-09	2.027049e+01	1.234467e+02
2.770000e-06	2.724483e-06	1.918117e-09	2.044660e+01	1.249315e+02
2.780000e-06	2.747776e-06	1.941875e-09	2.062141e+01	1.263924e+02
2.790000e-06	2.770789e-06	1.967429e-09	2.079412e+01	1.278290e+02
2.800000e-06	2.793561e-06	1.991715e-09	2.096502e+01	1.292412e+02
2.810000e-06	2.816008e-06	2.011986e-09	2.113348e+01	1.306292e+02
2.820000e-06	2.838277e-06	2.030572e-09	2.130060e+01	1.319931e+02
2.830000e-06	2.860457e-06	2.049827e-09	2.146706e+01	1.333332e+02
2.840000e-06	2.882478e-06	2.067234e-09	2.163232e+01	1.346499e+02
2.850000e-06	2.904322e-06	2.083546e-09	2.179625e+01	1.359437e+02
2.860000e-06	2.925974e-06	2.101258e-09	2.195874e+01	1.372151e+02
2.870000e-06	2.947437e-06	2.120915e-09	2.211982e+01	1.384645e+02
2.880000e-06	2.968729e-06	2.141608e-09	2.227961e+01	1.396926e+02
2.890000e-06	2.989812e-06	2.160246e-09	2.243784e+01	1.409000e+02
2.900000e-06	3.010608e-06	2.175902e-09	2.259390e+01	1.420870e+02
