# Temperatura_=_20.0
# Concentracion g/m^3_=_12600.0
# C_Vs_to_Am_M_A/Vsm_=_65563218390.804596
# pendiente_HvsI_1/m_=_3716.3
# ordenada_HvsI_A/m_=_1297.0
# frecuencia_Hz_=_135010.2768713367

Tiempo_(s)	Campo_(V.s)	Magnetizacion_(V.s)	Campo_(kA/m)	Magnetizacion_(A/m)
0.000000e+00	-3.897449e-06	-2.835154e-09	-2.914529e+01	-1.870934e+02
1.000000e-08	-3.897575e-06	-2.841155e-09	-2.914623e+01	-1.871449e+02
2.000000e-08	-3.897578e-06	-2.846670e-09	-2.914625e+01	-1.871815e+02
3.000000e-08	-3.897383e-06	-2.850371e-09	-2.914479e+01	-1.872013e+02
4.000000e-08	-3.896913e-06	-2.851351e-09	-2.914128e+01	-1.872027e+02
5.000000e-08	-3.896167e-06	-2.844348e-09	-2.913570e+01	-1.871841e+02
6.000000e-08	-3.894990e-06	-2.838068e-09	-2.912690e+01	-1.871441e+02
7.000000e-08	-3.893216e-06	-2.856867e-09	-2.911364e+01	-1.870814e+02
8.000000e-08	-3.890799e-06	-2.842036e-09	-2.909556e+01	-1.869951e+02
9.000000e-08	-3.887896e-06	-2.864435e-09	-2.907385e+01	-1.868844e+02
1.000000e-07	-3.884806e-06	-2.888386e-09	-2.905074e+01	-1.867490e+02
1.100000e-07	-3.881435e-06	-2.919740e-09	-2.902553e+01	-1.865886e+02
1.200000e-07	-3.877736e-06	-2.827501e-09	-2.899788e+01	-1.864034e+02
1.300000e-07	-3.873870e-06	-2.812494e-09	-2.896896e+01	-1.861942e+02
1.400000e-07	-3.869892e-06	-2.891234e-09	-2.893922e+01	-1.859616e+02
1.500000e-07	-3.865754e-06	-2.788992e-09	-2.890827e+01	-1.857070e+02
1.600000e-07	-3.861501e-06	-2.746032e-09	-2.887647e+01	-1.854318e+02
1.700000e-07	-3.857112e-06	-2.804602e-09	-2.884365e+01	-1.851378e+02
1.800000e-07	-3.852414e-06	-2.877198e-09	-2.880852e+01	-1.848270e+02
1.900000e-07	-3.847318e-06	-2.823471e-09	-2.877040e+01	-1.845015e+02
2.000000e-07	-3.841924e-06	-2.793632e-09	-2.873007e+01	-1.841637e+02
2.100000e-07	-3.836310e-06	-2.796152e-09	-2.868809e+01	-1.838161e+02
2.200000e-07	-3.830379e-06	-2.832636e-09	-2.864374e+01	-1.834610e+02
2.300000e-07	-3.824186e-06	-2.832401e-09	-2.859742e+01	-1.831011e+02
2.400000e-07	-3.817826e-06	-2.852715e-09	-2.854987e+01	-1.827386e+02
2.500000e-07	-3.811165e-06	-2.825702e-09	-2.850005e+01	-1.823758e+02
2.600000e-07	-3.804126e-06	-2.745676e-09	-2.844742e+01	-1.820150e+02
2.700000e-07	-3.796748e-06	-2.763483e-09	-2.839224e+01	-1.816578e+02
2.800000e-07	-3.789181e-06	-2.860048e-09	-2.833566e+01	-1.813060e+02
2.900000e-07	-3.781470e-06	-2.837603e-09	-2.827799e+01	-1.809610e+02
3.000000e-07	-3.773489e-06	-2.698474e-09	-2.821831e+01	-1.806237e+02
3.100000e-07	-3.765309e-06	-2.703116e-09	-2.815714e+01	-1.802948e+02
3.200000e-07	-3.757070e-06	-2.819896e-09	-2.809553e+01	-1.799747e+02
3.300000e-07	-3.748739e-06	-2.846713e-09	-2.803323e+01	-1.796634e+02
3.400000e-07	-3.740136e-06	-2.720146e-09	-2.796889e+01	-1.793604e+02
3.500000e-07	-3.731044e-06	-2.677966e-09	-2.790090e+01	-1.790651e+02
3.600000e-07	-3.721496e-06	-2.747647e-09	-2.782951e+01	-1.787765e+02
3.700000e-07	-3.711597e-06	-2.796356e-09	-2.775548e+01	-1.784932e+02
3.800000e-07	-3.701266e-06	-2.736392e-09	-2.767822e+01	-1.782138e+02
3.900000e-07	-3.690478e-06	-2.703550e-09	-2.759755e+01	-1.779364e+02
4.000000e-07	-3.679275e-06	-2.701656e-09	-2.751377e+01	-1.776593e+02
4.100000e-07	-3.667695e-06	-2.710132e-09	-2.742718e+01	-1.773803e+02
4.200000e-07	-3.655831e-06	-2.723232e-09	-2.733846e+01	-1.770975e+02
4.300000e-07	-3.643763e-06	-2.738277e-09	-2.724821e+01	-1.768087e+02
4.400000e-07	-3.631445e-06	-2.682991e-09	-2.715610e+01	-1.765120e+02
4.500000e-07	-3.618858e-06	-2.633318e-09	-2.706197e+01	-1.762054e+02
4.600000e-07	-3.605990e-06	-2.679213e-09	-2.696575e+01	-1.758871e+02
4.700000e-07	-3.592848e-06	-2.734012e-09	-2.686747e+01	-1.755555e+02
4.800000e-07	-3.579395e-06	-2.679573e-09	-2.676686e+01	-1.752092e+02
4.900000e-07	-3.565638e-06	-2.610852e-09	-2.666399e+01	-1.748471e+02
5.000000e-07	-3.551692e-06	-2.645173e-09	-2.655971e+01	-1.744683e+02
5.100000e-07	-3.537558e-06	-2.695500e-09	-2.645400e+01	-1.740721e+02
5.200000e-07	-3.523096e-06	-2.674467e-09	-2.634586e+01	-1.736582e+02
5.300000e-07	-3.508286e-06	-2.635012e-09	-2.623511e+01	-1.732265e+02
5.400000e-07	-3.493179e-06	-2.633149e-09	-2.612214e+01	-1.727773e+02
5.500000e-07	-3.477673e-06	-2.627774e-09	-2.600618e+01	-1.723111e+02
5.600000e-07	-3.461812e-06	-2.629803e-09	-2.588758e+01	-1.718285e+02
5.700000e-07	-3.445646e-06	-2.636673e-09	-2.576668e+01	-1.713304e+02
5.800000e-07	-3.429126e-06	-2.623460e-09	-2.564315e+01	-1.708179e+02
5.900000e-07	-3.412368e-06	-2.586514e-09	-2.551783e+01	-1.702922e+02
6.000000e-07	-3.395408e-06	-2.591195e-09	-2.539100e+01	-1.697545e+02
6.100000e-07	-3.378217e-06	-2.614771e-09	-2.526245e+01	-1.692063e+02
6.200000e-07	-3.360802e-06	-2.606245e-09	-2.513222e+01	-1.686488e+02
6.300000e-07	-3.343185e-06	-2.569243e-09	-2.500048e+01	-1.680834e+02
6.400000e-07	-3.325404e-06	-2.557395e-09	-2.486751e+01	-1.675113e+02
6.500000e-07	-3.307406e-06	-2.560234e-09	-2.473292e+01	-1.669335e+02
6.600000e-07	-3.289157e-06	-2.558416e-09	-2.459646e+01	-1.663512e+02
6.700000e-07	-3.270688e-06	-2.542975e-09	-2.445834e+01	-1.657652e+02
6.800000e-07	-3.252002e-06	-2.527594e-09	-2.431861e+01	-1.651760e+02
6.900000e-07	-3.233035e-06	-2.517105e-09	-2.417677e+01	-1.645841e+02
7.000000e-07	-3.213707e-06	-2.512431e-09	-2.403224e+01	-1.639898e+02
7.100000e-07	-3.194144e-06	-2.507480e-09	-2.388594e+01	-1.633931e+02
7.200000e-07	-3.174428e-06	-2.501388e-09	-2.373851e+01	-1.627938e+02
7.300000e-07	-3.154551e-06	-2.485349e-09	-2.358987e+01	-1.621915e+02
7.400000e-07	-3.134586e-06	-2.461104e-09	-2.344057e+01	-1.615857e+02
7.500000e-07	-3.114575e-06	-2.452103e-09	-2.329093e+01	-1.609757e+02
7.600000e-07	-3.094440e-06	-2.457946e-09	-2.314035e+01	-1.603607e+02
7.700000e-07	-3.074116e-06	-2.452311e-09	-2.298837e+01	-1.597397e+02
7.800000e-07	-3.053633e-06	-2.425094e-09	-2.283520e+01	-1.591117e+02
7.900000e-07	-3.032941e-06	-2.405957e-09	-2.268046e+01	-1.584757e+02
8.000000e-07	-3.012015e-06	-2.405953e-09	-2.252397e+01	-1.578306e+02
8.100000e-07	-2.990840e-06	-2.409237e-09	-2.236563e+01	-1.571755e+02
8.200000e-07	-2.969378e-06	-2.396472e-09	-2.220513e+01	-1.565094e+02
8.300000e-07	-2.947728e-06	-2.375739e-09	-2.204324e+01	-1.558315e+02
8.400000e-07	-2.925957e-06	-2.360273e-09	-2.188043e+01	-1.551410e+02
8.500000e-07	-2.904020e-06	-2.357225e-09	-2.171638e+01	-1.544373e+02
8.600000e-07	-2.881914e-06	-2.353573e-09	-2.155107e+01	-1.537200e+02
8.700000e-07	-2.859597e-06	-2.338811e-09	-2.138419e+01	-1.529887e+02
8.800000e-07	-2.837065e-06	-2.312070e-09	-2.121569e+01	-1.522434e+02
8.900000e-07	-2.814377e-06	-2.294376e-09	-2.104603e+01	-1.514840e+02
9.000000e-07	-2.791346e-06	-2.287954e-09	-2.087380e+01	-1.507109e+02
9.100000e-07	-2.767982e-06	-2.281112e-09	-2.069909e+01	-1.499244e+02
9.200000e-07	-2.744466e-06	-2.265063e-09	-2.052323e+01	-1.491250e+02
9.300000e-07	-2.720742e-06	-2.245302e-09	-2.034583e+01	-1.483133e+02
9.400000e-07	-2.696843e-06	-2.231556e-09	-2.016711e+01	-1.474901e+02
9.500000e-07	-2.672925e-06	-2.224751e-09	-1.998825e+01	-1.466561e+02
9.600000e-07	-2.648944e-06	-2.216494e-09	-1.980892e+01	-1.458123e+02
9.700000e-07	-2.624817e-06	-2.199440e-09	-1.962849e+01	-1.449594e+02
9.800000e-07	-2.600619e-06	-2.176617e-09	-1.944753e+01	-1.440985e+02
9.900000e-07	-2.576339e-06	-2.161953e-09	-1.926597e+01	-1.432302e+02
1.000000e-06	-2.551877e-06	-2.157334e-09	-1.908304e+01	-1.423555e+02
1.010000e-06	-2.527170e-06	-2.147361e-09	-1.889828e+01	-1.414749e+02
1.020000e-06	-2.502216e-06	-2.128658e-09	-1.871168e+01	-1.405892e+02
1.030000e-06	-2.477044e-06	-2.109469e-09	-1.852344e+01	-1.396986e+02
1.040000e-06	-2.451664e-06	-2.097733e-09	-1.833365e+01	-1.388037e+02
1.050000e-06	-2.425895e-06	-2.089419e-09	-1.814095e+01	-1.379046e+02
1.060000e-06	-2.399760e-06	-2.075994e-09	-1.794551e+01	-1.370013e+02
1.070000e-06	-2.373321e-06	-2.056850e-09	-1.774779e+01	-1.360938e+02
1.080000e-06	-2.346587e-06	-2.037858e-09	-1.754787e+01	-1.351819e+02
1.090000e-06	-2.319613e-06	-2.024437e-09	-1.734616e+01	-1.342652e+02
1.100000e-06	-2.292367e-06	-2.017164e-09	-1.714242e+01	-1.333433e+02
1.110000e-06	-2.264883e-06	-2.006104e-09	-1.693689e+01	-1.324155e+02
1.120000e-06	-2.237255e-06	-1.985763e-09	-1.673028e+01	-1.314813e+02
1.130000e-06	-2.209495e-06	-1.964926e-09	-1.652270e+01	-1.305400e+02
1.140000e-06	-2.181611e-06	-1.955310e-09	-1.631418e+01	-1.295909e+02
1.150000e-06	-2.153678e-06	-1.949893e-09	-1.610529e+01	-1.286332e+02
1.160000e-06	-2.125682e-06	-1.934437e-09	-1.589594e+01	-1.276662e+02
1.170000e-06	-2.097638e-06	-1.909853e-09	-1.568623e+01	-1.266892e+02
1.180000e-06	-2.069547e-06	-1.889802e-09	-1.547616e+01	-1.257016e+02
1.190000e-06	-2.041347e-06	-1.880976e-09	-1.526528e+01	-1.247029e+02
1.200000e-06	-2.012983e-06	-1.873803e-09	-1.505317e+01	-1.236925e+02
1.210000e-06	-1.984512e-06	-1.855854e-09	-1.484027e+01	-1.226702e+02
1.220000e-06	-1.955968e-06	-1.835213e-09	-1.462681e+01	-1.216357e+02
1.230000e-06	-1.927275e-06	-1.822964e-09	-1.441224e+01	-1.205888e+02
1.240000e-06	-1.898352e-06	-1.814450e-09	-1.419595e+01	-1.195296e+02
1.250000e-06	-1.869202e-06	-1.799443e-09	-1.397797e+01	-1.184580e+02
1.260000e-06	-1.839871e-06	-1.775071e-09	-1.375864e+01	-1.173744e+02
1.270000e-06	-1.810446e-06	-1.754241e-09	-1.353859e+01	-1.162790e+02
1.280000e-06	-1.780934e-06	-1.741150e-09	-1.331790e+01	-1.151722e+02
1.290000e-06	-1.751274e-06	-1.728799e-09	-1.309610e+01	-1.140545e+02
1.300000e-06	-1.721534e-06	-1.711489e-09	-1.287370e+01	-1.129263e+02
1.310000e-06	-1.691717e-06	-1.691556e-09	-1.265073e+01	-1.117882e+02
1.320000e-06	-1.661829e-06	-1.675707e-09	-1.242723e+01	-1.106407e+02
1.330000e-06	-1.631851e-06	-1.662295e-09	-1.220305e+01	-1.094844e+02
1.340000e-06	-1.601757e-06	-1.648127e-09	-1.197800e+01	-1.083198e+02
1.350000e-06	-1.571667e-06	-1.629791e-09	-1.175299e+01	-1.071473e+02
1.360000e-06	-1.541474e-06	-1.610352e-09	-1.152720e+01	-1.059674e+02
1.370000e-06	-1.511073e-06	-1.591073e-09	-1.129987e+01	-1.047804e+02
1.380000e-06	-1.480584e-06	-1.572397e-09	-1.107187e+01	-1.035865e+02
1.390000e-06	-1.450054e-06	-1.555872e-09	-1.084356e+01	-1.023859e+02
1.400000e-06	-1.419426e-06	-1.540557e-09	-1.061452e+01	-1.011787e+02
1.410000e-06	-1.388725e-06	-1.524263e-09	-1.038495e+01	-9.996491e+01
1.420000e-06	-1.357909e-06	-1.508297e-09	-1.015450e+01	-9.874431e+01
1.430000e-06	-1.326944e-06	-1.492173e-09	-9.922946e+00	-9.751673e+01
1.440000e-06	-1.295867e-06	-1.475380e-09	-9.690547e+00	-9.628189e+01
1.450000e-06	-1.264684e-06	-1.453990e-09	-9.457364e+00	-9.503943e+01
1.460000e-06	-1.233428e-06	-1.430376e-09	-9.223630e+00	-9.378895e+01
1.470000e-06	-1.202048e-06	-1.409211e-09	-8.988968e+00	-9.253000e+01
1.480000e-06	-1.170569e-06	-1.390980e-09	-8.753564e+00	-9.126210e+01
1.490000e-06	-1.139026e-06	-1.374461e-09	-8.517685e+00	-8.998478e+01
1.500000e-06	-1.107413e-06	-1.356789e-09	-8.281280e+00	-8.869757e+01
1.510000e-06	-1.075732e-06	-1.339281e-09	-8.044369e+00	-8.740004e+01
1.520000e-06	-1.044007e-06	-1.322622e-09	-7.807127e+00	-8.609179e+01
1.530000e-06	-1.012246e-06	-1.305795e-09	-7.569619e+00	-8.477247e+01
1.540000e-06	-9.804801e-07	-1.284324e-09	-7.332071e+00	-8.344183e+01
1.550000e-06	-9.487015e-07	-1.259778e-09	-7.094430e+00	-8.209965e+01
1.560000e-06	-9.168142e-07	-1.236465e-09	-6.855975e+00	-8.074582e+01
1.570000e-06	-8.848232e-07	-1.217451e-09	-6.616745e+00	-7.938031e+01
1.580000e-06	-8.528248e-07	-1.198633e-09	-6.377460e+00	-7.800318e+01
1.590000e-06	-8.208219e-07	-1.174580e-09	-6.138141e+00	-7.661455e+01
1.600000e-06	-7.887864e-07	-1.150795e-09	-5.898578e+00	-7.521463e+01
1.610000e-06	-7.567246e-07	-1.130916e-09	-5.658818e+00	-7.380370e+01
1.620000e-06	-7.246184e-07	-1.110551e-09	-5.418727e+00	-7.238210e+01
1.630000e-06	-6.925067e-07	-1.089017e-09	-5.178594e+00	-7.095019e+01
1.640000e-06	-6.604073e-07	-1.067413e-09	-4.938554e+00	-6.950837e+01
1.650000e-06	-6.282568e-07	-1.045379e-09	-4.698131e+00	-6.805706e+01
1.660000e-06	-5.960426e-07	-1.021711e-09	-4.457232e+00	-6.659666e+01
1.670000e-06	-5.638083e-07	-9.998025e-10	-4.216182e+00	-6.512758e+01
1.680000e-06	-5.316220e-07	-9.801530e-10	-3.975491e+00	-6.365017e+01
1.690000e-06	-4.994213e-07	-9.592269e-10	-3.734693e+00	-6.216474e+01
1.700000e-06	-4.671537e-07	-9.369611e-10	-3.493395e+00	-6.067155e+01
1.710000e-06	-4.348237e-07	-9.153017e-10	-3.251630e+00	-5.917079e+01
1.720000e-06	-4.024619e-07	-8.927561e-10	-3.009627e+00	-5.766257e+01
1.730000e-06	-3.700633e-07	-8.673458e-10	-2.767349e+00	-5.614693e+01
1.740000e-06	-3.376635e-07	-8.422344e-10	-2.525062e+00	-5.462385e+01
1.750000e-06	-3.053402e-07	-8.194659e-10	-2.283347e+00	-5.309319e+01
1.760000e-06	-2.729534e-07	-7.964397e-10	-2.041157e+00	-5.155479e+01
1.770000e-06	-2.404504e-07	-7.729036e-10	-1.798098e+00	-5.000839e+01
1.780000e-06	-2.079607e-07	-7.496675e-10	-1.555139e+00	-4.845371e+01
1.790000e-06	-1.754728e-07	-7.253894e-10	-1.312193e+00	-4.689041e+01
1.800000e-06	-1.429607e-07	-6.994173e-10	-1.069066e+00	-4.531814e+01
1.810000e-06	-1.104905e-07	-6.753529e-10	-8.262523e-01	-4.373655e+01
1.820000e-06	-7.810930e-08	-6.538252e-10	-5.841046e-01	-4.214528e+01
1.830000e-06	-4.574650e-08	-6.322219e-10	-3.420943e-01	-4.054402e+01
1.840000e-06	-1.327672e-08	-6.078979e-10	-9.928388e-02	-3.893250e+01
1.850000e-06	1.924830e-08	-5.828776e-10	1.439396e-01	-3.731051e+01
1.860000e-06	5.175802e-08	-5.590008e-10	3.870487e-01	-3.567792e+01
1.870000e-06	8.427371e-08	-5.337920e-10	6.302023e-01	-3.403467e+01
1.880000e-06	1.167830e-07	-5.074075e-10	8.733079e-01	-3.238081e+01
1.890000e-06	1.492742e-07	-4.809687e-10	1.116278e+00	-3.071650e+01
1.900000e-06	1.818156e-07	-4.548169e-10	1.359624e+00	-2.904198e+01
1.910000e-06	2.143319e-07	-4.277843e-10	1.602783e+00	-2.735763e+01
1.920000e-06	2.467431e-07	-4.020822e-10	1.845155e+00	-2.566389e+01
1.930000e-06	2.791226e-07	-3.761478e-10	2.087290e+00	-2.396133e+01
1.940000e-06	3.114796e-07	-3.493452e-10	2.329257e+00	-2.225058e+01
1.950000e-06	3.438403e-07	-3.234439e-10	2.571252e+00	-2.053233e+01
1.960000e-06	3.761921e-07	-2.989463e-10	2.813180e+00	-1.880735e+01
1.970000e-06	4.084565e-07	-2.727485e-10	3.054455e+00	-1.707640e+01
1.980000e-06	4.406933e-07	-2.459613e-10	3.295523e+00	-1.534030e+01
1.990000e-06	4.729831e-07	-2.195167e-10	3.536987e+00	-1.359981e+01
2.000000e-06	5.053103e-07	-1.936109e-10	3.778732e+00	-1.185570e+01
2.010000e-06	5.376172e-07	-1.700720e-10	4.020324e+00	-1.010864e+01
2.020000e-06	5.698603e-07	-1.452985e-10	4.261439e+00	-8.359268e+00
2.030000e-06	6.020336e-07	-1.182367e-10	4.502033e+00	-6.608095e+00
2.040000e-06	6.341923e-07	-9.134537e-11	4.742517e+00	-4.855532e+00
2.050000e-06	6.663543e-07	-6.458514e-11	4.983025e+00	-3.101863e+00
2.060000e-06	6.984556e-07	-3.665257e-11	5.223080e+00	-1.347233e+00
2.070000e-06	7.305007e-07	-7.836719e-12	5.462715e+00	4.083555e-01
2.080000e-06	7.625580e-07	2.200686e-11	5.702441e+00	2.165048e+00
2.090000e-06	7.946326e-07	5.140037e-11	5.942296e+00	3.923135e+00
2.100000e-06	8.267020e-07	7.914620e-11	6.182112e+00	5.683047e+00
2.110000e-06	8.587300e-07	1.054438e-10	6.421619e+00	7.445345e+00
2.120000e-06	8.907064e-07	1.324966e-10	6.660740e+00	9.210707e+00
2.130000e-06	9.227068e-07	1.608581e-10	6.900040e+00	1.097991e+01
2.140000e-06	9.546528e-07	1.892200e-10	7.138933e+00	1.275380e+01
2.150000e-06	9.865243e-07	2.154143e-10	7.377270e+00	1.453331e+01
2.160000e-06	1.018357e-06	2.424854e-10	7.615320e+00	1.631935e+01
2.170000e-06	1.050086e-06	2.730395e-10	7.852585e+00	1.811288e+01
2.180000e-06	1.081824e-06	3.037381e-10	8.089928e+00	1.991482e+01
2.190000e-06	1.113549e-06	3.310177e-10	8.327164e+00	2.172602e+01
2.200000e-06	1.145178e-06	3.564343e-10	8.563690e+00	2.354728e+01
2.210000e-06	1.176755e-06	3.852342e-10	8.799826e+00	2.537928e+01
2.220000e-06	1.208213e-06	4.166089e-10	9.035066e+00	2.722258e+01
2.230000e-06	1.239514e-06	4.459751e-10	9.269141e+00	2.907759e+01
2.240000e-06	1.270646e-06	4.736699e-10	9.501946e+00	3.094455e+01
2.250000e-06	1.301698e-06	5.020307e-10	9.734154e+00	3.282354e+01
2.260000e-06	1.332645e-06	5.324976e-10	9.965572e+00	3.471446e+01
2.270000e-06	1.363403e-06	5.623226e-10	1.019559e+01	3.661699e+01
2.280000e-06	1.394021e-06	5.903802e-10	1.042454e+01	3.853067e+01
2.290000e-06	1.424586e-06	6.183578e-10	1.065311e+01	4.045482e+01
2.300000e-06	1.455094e-06	6.476953e-10	1.088125e+01	4.238859e+01
2.310000e-06	1.485441e-06	6.769309e-10	1.110819e+01	4.433100e+01
2.320000e-06	1.515634e-06	7.053728e-10	1.133397e+01	4.628090e+01
2.330000e-06	1.545763e-06	7.333218e-10	1.155928e+01	4.823702e+01
2.340000e-06	1.575945e-06	7.611603e-10	1.178498e+01	5.019800e+01
2.350000e-06	1.606043e-06	7.923242e-10	1.201006e+01	5.216239e+01
2.360000e-06	1.636056e-06	8.248718e-10	1.223450e+01	5.412870e+01
2.370000e-06	1.666001e-06	8.576177e-10	1.245842e+01	5.609541e+01
2.380000e-06	1.695797e-06	8.898722e-10	1.268124e+01	5.806101e+01
2.390000e-06	1.725497e-06	9.198193e-10	1.290334e+01	6.002399e+01
2.400000e-06	1.755112e-06	9.478279e-10	1.312480e+01	6.198292e+01
2.410000e-06	1.784689e-06	9.764112e-10	1.334598e+01	6.393642e+01
2.420000e-06	1.814133e-06	1.005931e-09	1.356616e+01	6.588320e+01
2.430000e-06	1.843303e-06	1.035144e-09	1.378429e+01	6.782207e+01
2.440000e-06	1.872380e-06	1.063009e-09	1.400174e+01	6.975197e+01
2.450000e-06	1.901390e-06	1.092007e-09	1.421868e+01	7.167195e+01
2.460000e-06	1.930155e-06	1.124021e-09	1.443378e+01	7.358119e+01
2.470000e-06	1.958703e-06	1.157168e-09	1.464726e+01	7.547898e+01
2.480000e-06	1.987132e-06	1.185335e-09	1.485986e+01	7.736477e+01
2.490000e-06	2.015452e-06	1.210473e-09	1.507164e+01	7.923810e+01
2.500000e-06	2.043673e-06	1.238791e-09	1.528267e+01	8.109861e+01
2.510000e-06	2.071844e-06	1.268504e-09	1.549334e+01	8.294606e+01
2.520000e-06	2.099939e-06	1.296510e-09	1.570344e+01	8.478029e+01
2.530000e-06	2.127978e-06	1.322066e-09	1.591311e+01	8.660118e+01
2.540000e-06	2.155953e-06	1.347442e-09	1.612231e+01	8.840868e+01
2.550000e-06	2.183845e-06	1.373861e-09	1.633089e+01	9.020276e+01
2.560000e-06	2.211672e-06	1.402074e-09	1.653898e+01	9.198341e+01
2.570000e-06	2.239373e-06	1.429108e-09	1.674613e+01	9.375063e+01
2.580000e-06	2.266930e-06	1.455052e-09	1.695219e+01	9.550437e+01
2.590000e-06	2.294308e-06	1.484179e-09	1.715693e+01	9.724458e+01
2.600000e-06	2.321541e-06	1.514530e-09	1.736058e+01	9.897116e+01
2.610000e-06	2.348528e-06	1.539966e-09	1.756239e+01	1.006840e+02
2.620000e-06	2.375206e-06	1.563180e-09	1.776189e+01	1.023828e+02
2.630000e-06	2.401665e-06	1.588510e-09	1.795975e+01	1.040673e+02
2.640000e-06	2.427718e-06	1.614056e-09	1.815458e+01	1.057373e+02
2.650000e-06	2.453330e-06	1.637720e-09	1.834610e+01	1.073924e+02
2.660000e-06	2.478591e-06	1.660671e-09	1.853501e+01	1.090321e+02
2.670000e-06	2.503508e-06	1.683551e-09	1.872134e+01	1.106559e+02
2.680000e-06	2.528232e-06	1.708886e-09	1.890623e+01	1.122635e+02
2.690000e-06	2.552879e-06	1.736884e-09	1.909054e+01	1.138542e+02
2.700000e-06	2.577374e-06	1.764090e-09	1.927371e+01	1.154276e+02
2.710000e-06	2.601672e-06	1.788487e-09	1.945541e+01	1.169832e+02
2.720000e-06	2.625808e-06	1.811984e-09	1.963590e+01	1.185204e+02
2.730000e-06	2.649816e-06	1.836722e-09	1.981543e+01	1.200388e+02
2.740000e-06	2.673727e-06	1.860051e-09	1.999424e+01	1.215381e+02
2.750000e-06	2.697492e-06	1.880888e-09	2.017196e+01	1.230178e+02
2.760000e-06	2.721099e-06	1.901397e-09	2.034849e+01	1.244777e+02
2.770000e-06	2.744590e-06	1.923154e-09	2.052416e+01	1.259176e+02
2.780000e-06	2.767829e-06	1.945995e-09	2.069794e+01	1.273373e+02
2.790000e-06	2.790770e-06	1.967874e-09	2.086949e+01	1.287369e+02
2.800000e-06	2.813534e-06	1.989793e-09	2.103973e+01	1.301163e+02
2.810000e-06	2.836124e-06	2.012646e-09	2.120866e+01	1.314756e+02
2.820000e-06	2.858471e-06	2.033401e-09	2.137577e+01	1.328151e+02
2.830000e-06	2.880628e-06	2.051689e-09	2.154146e+01	1.341350e+02
2.840000e-06	2.902685e-06	2.068396e-09	2.170640e+01	1.354355e+02
2.850000e-06	2.924624e-06	2.086669e-09	2.187046e+01	1.367171e+02
2.860000e-06	2.946387e-06	2.105201e-09	2.203320e+01	1.379802e+02
2.870000e-06	2.967951e-06	2.123724e-09	2.219446e+01	1.392250e+02
2.880000e-06	2.989247e-06	2.143678e-09	2.235371e+01	1.404520e+02
2.890000e-06	3.010245e-06	2.163284e-09	2.251074e+01	1.416617e+02
2.900000e-06	3.030914e-06	2.181303e-09	2.266530e+01	1.428543e+02
