# Temperatura_=_20.0
# Concentracion g/m^3_=_12600.0
# C_Vs_to_Am_M_A/Vsm_=_65563218390.804596
# pendiente_HvsI_1/m_=_3716.3
# ordenada_HvsI_A/m_=_1297.0
# frecuencia_Hz_=_135008.77593130933

Tiempo_(s)	Campo_(V.s)	Magnetizacion_(V.s)	Campo_(kA/m)	Magnetizacion_(A/m)
0.000000e+00	-3.893495e-06	-2.772171e-09	-2.915249e+01	-1.842122e+02
1.000000e-08	-3.893572e-06	-2.773071e-09	-2.915307e+01	-1.842991e+02
2.000000e-08	-3.893458e-06	-2.779288e-09	-2.915222e+01	-1.843688e+02
3.000000e-08	-3.893158e-06	-2.783839e-09	-2.914997e+01	-1.844185e+02
4.000000e-08	-3.892644e-06	-2.784676e-09	-2.914612e+01	-1.844456e+02
5.000000e-08	-3.891869e-06	-2.784431e-09	-2.914032e+01	-1.844474e+02
6.000000e-08	-3.890686e-06	-2.768561e-09	-2.913146e+01	-1.844217e+02
7.000000e-08	-3.889031e-06	-2.775833e-09	-2.911907e+01	-1.843666e+02
8.000000e-08	-3.886884e-06	-2.760503e-09	-2.910299e+01	-1.842804e+02
9.000000e-08	-3.884177e-06	-2.793893e-09	-2.908272e+01	-1.841620e+02
1.000000e-07	-3.881085e-06	-2.864866e-09	-2.905957e+01	-1.840108e+02
1.100000e-07	-3.877775e-06	-2.888184e-09	-2.903479e+01	-1.838265e+02
1.200000e-07	-3.874194e-06	-2.826421e-09	-2.900798e+01	-1.836094e+02
1.300000e-07	-3.870348e-06	-2.746817e-09	-2.897918e+01	-1.833606e+02
1.400000e-07	-3.866335e-06	-2.740932e-09	-2.894914e+01	-1.830812e+02
1.500000e-07	-3.862210e-06	-2.751302e-09	-2.891825e+01	-1.827732e+02
1.600000e-07	-3.857960e-06	-2.756564e-09	-2.888643e+01	-1.824388e+02
1.700000e-07	-3.853517e-06	-2.771298e-09	-2.885316e+01	-1.820807e+02
1.800000e-07	-3.848767e-06	-2.774443e-09	-2.881759e+01	-1.817020e+02
1.900000e-07	-3.843691e-06	-2.751279e-09	-2.877959e+01	-1.813060e+02
2.000000e-07	-3.838248e-06	-2.753027e-09	-2.873883e+01	-1.808962e+02
2.100000e-07	-3.832466e-06	-2.758633e-09	-2.869554e+01	-1.804761e+02
2.200000e-07	-3.826507e-06	-2.786968e-09	-2.865092e+01	-1.800496e+02
2.300000e-07	-3.820384e-06	-2.768708e-09	-2.860508e+01	-1.796202e+02
2.400000e-07	-3.813999e-06	-2.743990e-09	-2.855727e+01	-1.791914e+02
2.500000e-07	-3.807324e-06	-2.737355e-09	-2.850729e+01	-1.787666e+02
2.600000e-07	-3.800377e-06	-2.751303e-09	-2.845528e+01	-1.783486e+02
2.700000e-07	-3.793167e-06	-2.737224e-09	-2.840129e+01	-1.779404e+02
2.800000e-07	-3.785606e-06	-2.733131e-09	-2.834468e+01	-1.775440e+02
2.900000e-07	-3.777763e-06	-2.727218e-09	-2.828595e+01	-1.771613e+02
3.000000e-07	-3.769834e-06	-2.721564e-09	-2.822658e+01	-1.767937e+02
3.100000e-07	-3.761819e-06	-2.713196e-09	-2.816658e+01	-1.764420e+02
3.200000e-07	-3.753615e-06	-2.721343e-09	-2.810515e+01	-1.761066e+02
3.300000e-07	-3.745197e-06	-2.732929e-09	-2.804212e+01	-1.757871e+02
3.400000e-07	-3.736499e-06	-2.711438e-09	-2.797699e+01	-1.754830e+02
3.500000e-07	-3.727372e-06	-2.677339e-09	-2.790865e+01	-1.751930e+02
3.600000e-07	-3.717763e-06	-2.674564e-09	-2.783670e+01	-1.749155e+02
3.700000e-07	-3.707746e-06	-2.715351e-09	-2.776170e+01	-1.746486e+02
3.800000e-07	-3.697376e-06	-2.716396e-09	-2.768406e+01	-1.743899e+02
3.900000e-07	-3.686515e-06	-2.675707e-09	-2.760274e+01	-1.741369e+02
4.000000e-07	-3.675216e-06	-2.641129e-09	-2.751814e+01	-1.738868e+02
4.100000e-07	-3.663661e-06	-2.668813e-09	-2.743162e+01	-1.736368e+02
4.200000e-07	-3.651831e-06	-2.697836e-09	-2.734304e+01	-1.733838e+02
4.300000e-07	-3.639781e-06	-2.686145e-09	-2.725281e+01	-1.731251e+02
4.400000e-07	-3.627550e-06	-2.629554e-09	-2.716124e+01	-1.728579e+02
4.500000e-07	-3.615077e-06	-2.613862e-09	-2.706784e+01	-1.725795e+02
4.600000e-07	-3.602271e-06	-2.647648e-09	-2.697196e+01	-1.722877e+02
4.700000e-07	-3.589106e-06	-2.679896e-09	-2.687338e+01	-1.719803e+02
4.800000e-07	-3.575636e-06	-2.642936e-09	-2.677253e+01	-1.716555e+02
4.900000e-07	-3.561870e-06	-2.593412e-09	-2.666946e+01	-1.713121e+02
5.000000e-07	-3.547828e-06	-2.598389e-09	-2.656432e+01	-1.709489e+02
5.100000e-07	-3.533582e-06	-2.647370e-09	-2.645765e+01	-1.705655e+02
5.200000e-07	-3.519146e-06	-2.648533e-09	-2.634956e+01	-1.701615e+02
5.300000e-07	-3.504388e-06	-2.600127e-09	-2.623906e+01	-1.697372e+02
5.400000e-07	-3.489155e-06	-2.570071e-09	-2.612500e+01	-1.692931e+02
5.500000e-07	-3.473430e-06	-2.592348e-09	-2.600726e+01	-1.688301e+02
5.600000e-07	-3.457411e-06	-2.616131e-09	-2.588732e+01	-1.683494e+02
5.700000e-07	-3.441178e-06	-2.600908e-09	-2.576577e+01	-1.678523e+02
5.800000e-07	-3.424612e-06	-2.563463e-09	-2.564174e+01	-1.673405e+02
5.900000e-07	-3.407816e-06	-2.549250e-09	-2.551598e+01	-1.668158e+02
6.000000e-07	-3.390842e-06	-2.568454e-09	-2.538889e+01	-1.662799e+02
6.100000e-07	-3.373682e-06	-2.579925e-09	-2.526040e+01	-1.657348e+02
6.200000e-07	-3.356337e-06	-2.556939e-09	-2.513053e+01	-1.651821e+02
6.300000e-07	-3.338762e-06	-2.523504e-09	-2.499894e+01	-1.646237e+02
6.400000e-07	-3.320990e-06	-2.518026e-09	-2.486587e+01	-1.640611e+02
6.500000e-07	-3.302992e-06	-2.526657e-09	-2.473111e+01	-1.634958e+02
6.600000e-07	-3.284738e-06	-2.525913e-09	-2.459443e+01	-1.629288e+02
6.700000e-07	-3.266178e-06	-2.508343e-09	-2.445547e+01	-1.623611e+02
6.800000e-07	-3.247319e-06	-2.491451e-09	-2.431426e+01	-1.617934e+02
6.900000e-07	-3.228218e-06	-2.483250e-09	-2.417124e+01	-1.612259e+02
7.000000e-07	-3.208877e-06	-2.487863e-09	-2.402643e+01	-1.606589e+02
7.100000e-07	-3.189325e-06	-2.485099e-09	-2.388003e+01	-1.600920e+02
7.200000e-07	-3.169561e-06	-2.469480e-09	-2.373204e+01	-1.595247e+02
7.300000e-07	-3.149664e-06	-2.448210e-09	-2.358307e+01	-1.589564e+02
7.400000e-07	-3.129704e-06	-2.439046e-09	-2.343362e+01	-1.583861e+02
7.500000e-07	-3.109590e-06	-2.437402e-09	-2.328302e+01	-1.578127e+02
7.600000e-07	-3.089384e-06	-2.434036e-09	-2.313173e+01	-1.572349e+02
7.700000e-07	-3.069147e-06	-2.417856e-09	-2.298020e+01	-1.566514e+02
7.800000e-07	-3.048710e-06	-2.396922e-09	-2.282718e+01	-1.560607e+02
7.900000e-07	-3.028005e-06	-2.385401e-09	-2.267215e+01	-1.554615e+02
8.000000e-07	-3.007021e-06	-2.389485e-09	-2.251503e+01	-1.548523e+02
8.100000e-07	-2.985759e-06	-2.387704e-09	-2.235583e+01	-1.542320e+02
8.200000e-07	-2.964252e-06	-2.369539e-09	-2.219480e+01	-1.535992e+02
8.300000e-07	-2.942561e-06	-2.349067e-09	-2.203239e+01	-1.529531e+02
8.400000e-07	-2.920768e-06	-2.343206e-09	-2.186921e+01	-1.522928e+02
8.500000e-07	-2.898789e-06	-2.343315e-09	-2.170465e+01	-1.516176e+02
8.600000e-07	-2.876646e-06	-2.334264e-09	-2.153885e+01	-1.509272e+02
8.700000e-07	-2.854366e-06	-2.314570e-09	-2.137203e+01	-1.502214e+02
8.800000e-07	-2.831861e-06	-2.295673e-09	-2.120353e+01	-1.495002e+02
8.900000e-07	-2.809165e-06	-2.288237e-09	-2.103359e+01	-1.487639e+02
9.000000e-07	-2.786199e-06	-2.284540e-09	-2.086163e+01	-1.480130e+02
9.100000e-07	-2.763020e-06	-2.271602e-09	-2.068807e+01	-1.472481e+02
9.200000e-07	-2.739652e-06	-2.251391e-09	-2.051311e+01	-1.464700e+02
9.300000e-07	-2.716068e-06	-2.237259e-09	-2.033653e+01	-1.456798e+02
9.400000e-07	-2.692341e-06	-2.231358e-09	-2.015887e+01	-1.448785e+02
9.500000e-07	-2.668478e-06	-2.224487e-09	-1.998020e+01	-1.440670e+02
9.600000e-07	-2.644546e-06	-2.210442e-09	-1.980101e+01	-1.432467e+02
9.700000e-07	-2.620515e-06	-2.195160e-09	-1.962107e+01	-1.424186e+02
9.800000e-07	-2.596385e-06	-2.181228e-09	-1.944040e+01	-1.415837e+02
9.900000e-07	-2.572102e-06	-2.170977e-09	-1.925858e+01	-1.407431e+02
1.000000e-06	-2.547626e-06	-2.160058e-09	-1.907531e+01	-1.398976e+02
1.010000e-06	-2.522888e-06	-2.144468e-09	-1.889009e+01	-1.390480e+02
1.020000e-06	-2.497940e-06	-2.123959e-09	-1.870330e+01	-1.381948e+02
1.030000e-06	-2.472783e-06	-2.108097e-09	-1.851493e+01	-1.373384e+02
1.040000e-06	-2.447374e-06	-2.098037e-09	-1.832468e+01	-1.364790e+02
1.050000e-06	-2.421764e-06	-2.087648e-09	-1.813293e+01	-1.356168e+02
1.060000e-06	-2.395652e-06	-2.073332e-09	-1.793741e+01	-1.347515e+02
1.070000e-06	-2.369034e-06	-2.057616e-09	-1.773811e+01	-1.338828e+02
1.080000e-06	-2.342261e-06	-2.042142e-09	-1.753765e+01	-1.330103e+02
1.090000e-06	-2.315227e-06	-2.030941e-09	-1.733523e+01	-1.321334e+02
1.100000e-06	-2.287874e-06	-2.021909e-09	-1.713043e+01	-1.312512e+02
1.110000e-06	-2.260353e-06	-2.007127e-09	-1.692436e+01	-1.303631e+02
1.120000e-06	-2.232654e-06	-1.984618e-09	-1.671697e+01	-1.294681e+02
1.130000e-06	-2.204894e-06	-1.965564e-09	-1.650911e+01	-1.285654e+02
1.140000e-06	-2.177063e-06	-1.956553e-09	-1.630073e+01	-1.276540e+02
1.150000e-06	-2.149111e-06	-1.948920e-09	-1.609144e+01	-1.267330e+02
1.160000e-06	-2.121109e-06	-1.932418e-09	-1.588177e+01	-1.258017e+02
1.170000e-06	-2.093079e-06	-1.910855e-09	-1.567191e+01	-1.248593e+02
1.180000e-06	-2.064968e-06	-1.894909e-09	-1.546142e+01	-1.239051e+02
1.190000e-06	-2.036712e-06	-1.885965e-09	-1.524985e+01	-1.229387e+02
1.200000e-06	-2.008352e-06	-1.877013e-09	-1.503751e+01	-1.219596e+02
1.210000e-06	-1.979923e-06	-1.859952e-09	-1.482465e+01	-1.209677e+02
1.220000e-06	-1.951415e-06	-1.839393e-09	-1.461120e+01	-1.199628e+02
1.230000e-06	-1.922771e-06	-1.821236e-09	-1.439672e+01	-1.189449e+02
1.240000e-06	-1.893960e-06	-1.806767e-09	-1.418100e+01	-1.179142e+02
1.250000e-06	-1.864928e-06	-1.790972e-09	-1.396362e+01	-1.168710e+02
1.260000e-06	-1.835721e-06	-1.772079e-09	-1.374494e+01	-1.158157e+02
1.270000e-06	-1.806385e-06	-1.755349e-09	-1.352529e+01	-1.147488e+02
1.280000e-06	-1.776854e-06	-1.743188e-09	-1.330417e+01	-1.136708e+02
1.290000e-06	-1.747205e-06	-1.732005e-09	-1.308218e+01	-1.125822e+02
1.300000e-06	-1.717528e-06	-1.715292e-09	-1.285997e+01	-1.114838e+02
1.310000e-06	-1.687787e-06	-1.694693e-09	-1.263728e+01	-1.103761e+02
1.320000e-06	-1.657939e-06	-1.677135e-09	-1.241380e+01	-1.092596e+02
1.330000e-06	-1.627936e-06	-1.662557e-09	-1.218915e+01	-1.081349e+02
1.340000e-06	-1.597765e-06	-1.647888e-09	-1.196325e+01	-1.070023e+02
1.350000e-06	-1.567506e-06	-1.629512e-09	-1.173668e+01	-1.058624e+02
1.360000e-06	-1.537272e-06	-1.608190e-09	-1.151031e+01	-1.047152e+02
1.370000e-06	-1.506991e-06	-1.589322e-09	-1.128357e+01	-1.035610e+02
1.380000e-06	-1.476571e-06	-1.573865e-09	-1.105581e+01	-1.023998e+02
1.390000e-06	-1.446028e-06	-1.560175e-09	-1.082712e+01	-1.012315e+02
1.400000e-06	-1.415362e-06	-1.543652e-09	-1.059751e+01	-1.000558e+02
1.410000e-06	-1.384656e-06	-1.522470e-09	-1.036760e+01	-9.887264e+01
1.420000e-06	-1.353903e-06	-1.501440e-09	-1.013733e+01	-9.768149e+01
1.430000e-06	-1.322966e-06	-1.484845e-09	-9.905695e+00	-9.648194e+01
1.440000e-06	-1.291925e-06	-1.468702e-09	-9.673276e+00	-9.527350e+01
1.450000e-06	-1.260856e-06	-1.447693e-09	-9.440646e+00	-9.405564e+01
1.460000e-06	-1.229740e-06	-1.424932e-09	-9.207663e+00	-9.282783e+01
1.470000e-06	-1.198554e-06	-1.404831e-09	-8.974157e+00	-9.158955e+01
1.480000e-06	-1.167124e-06	-1.389789e-09	-8.738826e+00	-9.034031e+01
1.490000e-06	-1.135617e-06	-1.376542e-09	-8.502917e+00	-8.907969e+01
1.500000e-06	-1.104040e-06	-1.360372e-09	-8.266487e+00	-8.780734e+01
1.510000e-06	-1.072315e-06	-1.341777e-09	-8.028947e+00	-8.652301e+01
1.520000e-06	-1.040570e-06	-1.326643e-09	-7.791257e+00	-8.522652e+01
1.530000e-06	-1.008807e-06	-1.308908e-09	-7.553432e+00	-8.391785e+01
1.540000e-06	-9.770195e-07	-1.283235e-09	-7.315421e+00	-8.259707e+01
1.550000e-06	-9.451651e-07	-1.255200e-09	-7.076912e+00	-8.126437e+01
1.560000e-06	-9.132782e-07	-1.232253e-09	-6.838159e+00	-7.992006e+01
1.570000e-06	-8.813597e-07	-1.213324e-09	-6.599170e+00	-7.856456e+01
1.580000e-06	-8.493772e-07	-1.193702e-09	-6.359701e+00	-7.719837e+01
1.590000e-06	-8.173807e-07	-1.170126e-09	-6.120128e+00	-7.582208e+01
1.600000e-06	-7.853761e-07	-1.146337e-09	-5.880493e+00	-7.443633e+01
1.610000e-06	-7.533525e-07	-1.125266e-09	-5.640717e+00	-7.304179e+01
1.620000e-06	-7.213245e-07	-1.105425e-09	-5.400908e+00	-7.163916e+01
1.630000e-06	-6.892694e-07	-1.084513e-09	-5.160896e+00	-7.022912e+01
1.640000e-06	-6.571744e-07	-1.061239e-09	-4.920585e+00	-6.881230e+01
1.650000e-06	-6.250279e-07	-1.037193e-09	-4.679888e+00	-6.738930e+01
1.660000e-06	-5.928559e-07	-1.014030e-09	-4.439001e+00	-6.596062e+01
1.670000e-06	-5.606553e-07	-9.942089e-10	-4.197899e+00	-6.452665e+01
1.680000e-06	-5.284627e-07	-9.752282e-10	-3.956858e+00	-6.308768e+01
1.690000e-06	-4.962697e-07	-9.545181e-10	-3.715813e+00	-6.164387e+01
1.700000e-06	-4.640392e-07	-9.341927e-10	-3.474487e+00	-6.019523e+01
1.710000e-06	-4.317923e-07	-9.163242e-10	-3.233039e+00	-5.874164e+01
1.720000e-06	-3.995599e-07	-8.943527e-10	-2.991700e+00	-5.728283e+01
1.730000e-06	-3.673369e-07	-8.680313e-10	-2.750431e+00	-5.581840e+01
1.740000e-06	-3.350653e-07	-8.407448e-10	-2.508797e+00	-5.434782e+01
1.750000e-06	-3.027679e-07	-8.171499e-10	-2.266971e+00	-5.287046e+01
1.760000e-06	-2.704672e-07	-7.967804e-10	-2.025120e+00	-5.138560e+01
1.770000e-06	-2.381001e-07	-7.765316e-10	-1.782772e+00	-4.989245e+01
1.780000e-06	-2.057021e-07	-7.524898e-10	-1.540192e+00	-4.839018e+01
1.790000e-06	-1.733330e-07	-7.256480e-10	-1.297829e+00	-4.687795e+01
1.800000e-06	-1.409302e-07	-7.010359e-10	-1.055213e+00	-4.535492e+01
1.810000e-06	-1.084644e-07	-6.806413e-10	-8.121261e-01	-4.382031e+01
1.820000e-06	-7.601557e-08	-6.597464e-10	-5.691656e-01	-4.227341e+01
1.830000e-06	-4.361708e-08	-6.373349e-10	-3.265823e-01	-4.071359e+01
1.840000e-06	-1.119271e-08	-6.138292e-10	-8.380524e-02	-3.914036e+01
1.850000e-06	2.123801e-08	-5.882774e-10	1.590193e-01	-3.755336e+01
1.860000e-06	5.367147e-08	-5.645806e-10	4.018644e-01	-3.595240e+01
1.870000e-06	8.608890e-08	-5.414621e-10	6.445896e-01	-3.433744e+01
1.880000e-06	1.185500e-07	-5.154530e-10	8.876420e-01	-3.270862e+01
1.890000e-06	1.510019e-07	-4.864530e-10	1.130625e+00	-3.106627e+01
1.900000e-06	1.833773e-07	-4.591124e-10	1.373035e+00	-2.941088e+01
1.910000e-06	2.157589e-07	-4.338006e-10	1.615492e+00	-2.774310e+01
1.920000e-06	2.481238e-07	-4.091060e-10	1.857824e+00	-2.606374e+01
1.930000e-06	2.804058e-07	-3.808923e-10	2.099535e+00	-2.437371e+01
1.940000e-06	3.126664e-07	-3.524314e-10	2.341086e+00	-2.267406e+01
1.950000e-06	3.449637e-07	-3.271821e-10	2.582912e+00	-2.096589e+01
1.960000e-06	3.772278e-07	-3.036840e-10	2.824489e+00	-1.925035e+01
1.970000e-06	4.095278e-07	-2.792347e-10	3.066334e+00	-1.752862e+01
1.980000e-06	4.418749e-07	-2.528268e-10	3.308533e+00	-1.580185e+01
1.990000e-06	4.741330e-07	-2.269976e-10	3.550065e+00	-1.407115e+01
2.000000e-06	5.062866e-07	-2.041813e-10	3.790815e+00	-1.233754e+01
2.010000e-06	5.384784e-07	-1.827907e-10	4.031851e+00	-1.060193e+01
2.020000e-06	5.707127e-07	-1.584841e-10	4.273204e+00	-8.865124e+00
2.030000e-06	6.028809e-07	-1.303328e-10	4.514063e+00	-7.127737e+00
2.040000e-06	6.349342e-07	-1.007216e-10	4.754062e+00	-5.390234e+00
2.050000e-06	6.669415e-07	-7.240212e-11	4.993716e+00	-3.652888e+00
2.060000e-06	6.989936e-07	-4.434186e-11	5.233706e+00	-1.915789e+00
2.070000e-06	7.310225e-07	-1.579242e-11	5.473522e+00	-1.788354e-01
2.080000e-06	7.629972e-07	1.196473e-11	5.712932e+00	1.558258e+00
2.090000e-06	7.949490e-07	3.921311e-11	5.952171e+00	3.295947e+00
2.100000e-06	8.268893e-07	6.552824e-11	6.191323e+00	5.034844e+00
2.110000e-06	8.588415e-07	9.116109e-11	6.430565e+00	6.775694e+00
2.120000e-06	8.907835e-07	1.173731e-10	6.669730e+00	8.519352e+00
2.130000e-06	9.226700e-07	1.442182e-10	6.908480e+00	1.026675e+01
2.140000e-06	9.545637e-07	1.736460e-10	7.147284e+00	1.201887e+01
2.150000e-06	9.864518e-07	2.012678e-10	7.386045e+00	1.377671e+01
2.160000e-06	1.018256e-06	2.250427e-10	7.624180e+00	1.554124e+01
2.170000e-06	1.050002e-06	2.509088e-10	7.861878e+00	1.731339e+01
2.180000e-06	1.081730e-06	2.801417e-10	8.099440e+00	1.909400e+01
2.190000e-06	1.113352e-06	3.073339e-10	8.336212e+00	2.088380e+01
2.200000e-06	1.144853e-06	3.326395e-10	8.572074e+00	2.268338e+01
2.210000e-06	1.176302e-06	3.595916e-10	8.807543e+00	2.449317e+01
2.220000e-06	1.207722e-06	3.883673e-10	9.042807e+00	2.631342e+01
2.230000e-06	1.239041e-06	4.185002e-10	9.277307e+00	2.814420e+01
2.240000e-06	1.270212e-06	4.481757e-10	9.510695e+00	2.998537e+01
2.250000e-06	1.301254e-06	4.758534e-10	9.743121e+00	3.183662e+01
2.260000e-06	1.332124e-06	5.042980e-10	9.974262e+00	3.369744e+01
2.270000e-06	1.362819e-06	5.337595e-10	1.020409e+01	3.556713e+01
2.280000e-06	1.393373e-06	5.622448e-10	1.043286e+01	3.744485e+01
2.290000e-06	1.423834e-06	5.895554e-10	1.066094e+01	3.932962e+01
2.300000e-06	1.454249e-06	6.175411e-10	1.088867e+01	4.122031e+01
2.310000e-06	1.484662e-06	6.465841e-10	1.111639e+01	4.311576e+01
2.320000e-06	1.514958e-06	6.764557e-10	1.134323e+01	4.501470e+01
2.330000e-06	1.545136e-06	7.075028e-10	1.156919e+01	4.691586e+01
2.340000e-06	1.575304e-06	7.377020e-10	1.179507e+01	4.881798e+01
2.350000e-06	1.605402e-06	7.666777e-10	1.202042e+01	5.071981e+01
2.360000e-06	1.635368e-06	7.967812e-10	1.224480e+01	5.262018e+01
2.370000e-06	1.665254e-06	8.292343e-10	1.246857e+01	5.451801e+01
2.380000e-06	1.695098e-06	8.600998e-10	1.269203e+01	5.641231e+01
2.390000e-06	1.724835e-06	8.867582e-10	1.291468e+01	5.830225e+01
2.400000e-06	1.754490e-06	9.119575e-10	1.313672e+01	6.018711e+01
2.410000e-06	1.783952e-06	9.377613e-10	1.335732e+01	6.206633e+01
2.420000e-06	1.813190e-06	9.650749e-10	1.357624e+01	6.393949e+01
2.430000e-06	1.842367e-06	9.949792e-10	1.379470e+01	6.580632e+01
2.440000e-06	1.871481e-06	1.023732e-09	1.401269e+01	6.766669e+01
2.450000e-06	1.900439e-06	1.052227e-09	1.422951e+01	6.952058e+01
2.460000e-06	1.929143e-06	1.081832e-09	1.444444e+01	7.136807e+01
2.470000e-06	1.957625e-06	1.113671e-09	1.465769e+01	7.320933e+01
2.480000e-06	1.985998e-06	1.142472e-09	1.487014e+01	7.504458e+01
2.490000e-06	2.014283e-06	1.166139e-09	1.508192e+01	7.687406e+01
2.500000e-06	2.042473e-06	1.190269e-09	1.529299e+01	7.869800e+01
2.510000e-06	2.070582e-06	1.218163e-09	1.550346e+01	8.051662e+01
2.520000e-06	2.098601e-06	1.248268e-09	1.571325e+01	8.233005e+01
2.530000e-06	2.126585e-06	1.276189e-09	1.592278e+01	8.413836e+01
2.540000e-06	2.154557e-06	1.302258e-09	1.613222e+01	8.594147e+01
2.550000e-06	2.182468e-06	1.327124e-09	1.634120e+01	8.773921e+01
2.560000e-06	2.210318e-06	1.355895e-09	1.654973e+01	8.953123e+01
2.570000e-06	2.238106e-06	1.385757e-09	1.675779e+01	9.131704e+01
2.580000e-06	2.265749e-06	1.413887e-09	1.696477e+01	9.309597e+01
2.590000e-06	2.293158e-06	1.441346e-09	1.716999e+01	9.486721e+01
2.600000e-06	2.320295e-06	1.468803e-09	1.737318e+01	9.662977e+01
2.610000e-06	2.347113e-06	1.496683e-09	1.757398e+01	9.838253e+01
2.620000e-06	2.373604e-06	1.523722e-09	1.777233e+01	1.001242e+02
2.630000e-06	2.399857e-06	1.548566e-09	1.796890e+01	1.018535e+02
2.640000e-06	2.425793e-06	1.573697e-09	1.816309e+01	1.035690e+02
2.650000e-06	2.451379e-06	1.599521e-09	1.835467e+01	1.052691e+02
2.660000e-06	2.476720e-06	1.624910e-09	1.854441e+01	1.069524e+02
2.670000e-06	2.501756e-06	1.650208e-09	1.873187e+01	1.086174e+02
2.680000e-06	2.526480e-06	1.674446e-09	1.891699e+01	1.102627e+02
2.690000e-06	2.550981e-06	1.698900e-09	1.910044e+01	1.118868e+02
2.700000e-06	2.575279e-06	1.724265e-09	1.928237e+01	1.134887e+02
2.710000e-06	2.599454e-06	1.749993e-09	1.946338e+01	1.150672e+02
2.720000e-06	2.623552e-06	1.776057e-09	1.964381e+01	1.166215e+02
2.730000e-06	2.647581e-06	1.801937e-09	1.982373e+01	1.181507e+02
2.740000e-06	2.671531e-06	1.824814e-09	2.000305e+01	1.196545e+02
2.750000e-06	2.695360e-06	1.845127e-09	2.018147e+01	1.211325e+02
2.760000e-06	2.719063e-06	1.865049e-09	2.035895e+01	1.225847e+02
2.770000e-06	2.742546e-06	1.886069e-09	2.053478e+01	1.240113e+02
2.780000e-06	2.765759e-06	1.907993e-09	2.070858e+01	1.254125e+02
2.790000e-06	2.788637e-06	1.928189e-09	2.087989e+01	1.267890e+02
2.800000e-06	2.811279e-06	1.948181e-09	2.104941e+01	1.281416e+02
2.810000e-06	2.833774e-06	1.968988e-09	2.121784e+01	1.294711e+02
2.820000e-06	2.856093e-06	1.989888e-09	2.138496e+01	1.307785e+02
2.830000e-06	2.878272e-06	2.010441e-09	2.155102e+01	1.320649e+02
2.840000e-06	2.900299e-06	2.030002e-09	2.171596e+01	1.333315e+02
2.850000e-06	2.922179e-06	2.049557e-09	2.187978e+01	1.345794e+02
2.860000e-06	2.943832e-06	2.069227e-09	2.204191e+01	1.358098e+02
2.870000e-06	2.965310e-06	2.089244e-09	2.220272e+01	1.370237e+02
2.880000e-06	2.986585e-06	2.107704e-09	2.236202e+01	1.382222e+02
2.890000e-06	3.007595e-06	2.124647e-09	2.251933e+01	1.394060e+02
2.900000e-06	3.028325e-06	2.141206e-09	2.267455e+01	1.405759e+02
