# Temperatura_=_20.0
# Concentracion g/m^3_=_9000.0
# C_Vs_to_Am_M_A/Vsm_=_65563218390.804596
# pendiente_HvsI_1/m_=_3716.3
# ordenada_HvsI_A/m_=_1297.0
# frecuencia_Hz_=_212875.04806389677

Tiempo_(s)	Campo_(V.s)	Magnetizacion_(V.s)	Campo_(kA/m)	Magnetizacion_(A/m)
0.000000e+00	-3.966968e-06	-3.564376e-09	-5.698011e+01	-2.359320e+02
1.000000e-08	-3.966962e-06	-3.567342e-09	-5.698002e+01	-2.359690e+02
2.000000e-08	-3.966106e-06	-3.566034e-09	-5.696773e+01	-2.359838e+02
3.000000e-08	-3.964243e-06	-3.562124e-09	-5.694096e+01	-2.359761e+02
4.000000e-08	-3.961590e-06	-3.561764e-09	-5.690286e+01	-2.359461e+02
5.000000e-08	-3.958338e-06	-3.561097e-09	-5.685615e+01	-2.358944e+02
6.000000e-08	-3.954525e-06	-3.552502e-09	-5.680138e+01	-2.358222e+02
7.000000e-08	-3.950133e-06	-3.553339e-09	-5.673829e+01	-2.357309e+02
8.000000e-08	-3.945045e-06	-3.602737e-09	-5.666521e+01	-2.356222e+02
9.000000e-08	-3.939116e-06	-3.624816e-09	-5.658005e+01	-2.354979e+02
1.000000e-07	-3.932381e-06	-3.527384e-09	-5.648331e+01	-2.353599e+02
1.100000e-07	-3.925143e-06	-3.444956e-09	-5.637935e+01	-2.352097e+02
1.200000e-07	-3.917495e-06	-3.579518e-09	-5.626950e+01	-2.350489e+02
1.300000e-07	-3.909114e-06	-3.675889e-09	-5.614911e+01	-2.348785e+02
1.400000e-07	-3.899797e-06	-3.509728e-09	-5.601528e+01	-2.346990e+02
1.500000e-07	-3.889728e-06	-3.489217e-09	-5.587066e+01	-2.345105e+02
1.600000e-07	-3.878847e-06	-3.568246e-09	-5.571436e+01	-2.343126e+02
1.700000e-07	-3.866903e-06	-3.584330e-09	-5.554281e+01	-2.341044e+02
1.800000e-07	-3.854253e-06	-3.575148e-09	-5.536110e+01	-2.338844e+02
1.900000e-07	-3.841191e-06	-3.638146e-09	-5.517350e+01	-2.336511e+02
2.000000e-07	-3.827145e-06	-3.497812e-09	-5.497174e+01	-2.334023e+02
2.100000e-07	-3.811815e-06	-3.455124e-09	-5.475154e+01	-2.331362e+02
2.200000e-07	-3.795811e-06	-3.751360e-09	-5.452167e+01	-2.328508e+02
2.300000e-07	-3.779293e-06	-3.643903e-09	-5.428441e+01	-2.325443e+02
2.400000e-07	-3.762088e-06	-3.363843e-09	-5.403728e+01	-2.322152e+02
2.500000e-07	-3.744339e-06	-3.496811e-09	-5.378234e+01	-2.318627e+02
2.600000e-07	-3.726004e-06	-3.779308e-09	-5.351899e+01	-2.314860e+02
2.700000e-07	-3.707070e-06	-3.567071e-09	-5.324703e+01	-2.310852e+02
2.800000e-07	-3.687677e-06	-3.420703e-09	-5.296848e+01	-2.306607e+02
2.900000e-07	-3.667704e-06	-3.567320e-09	-5.268159e+01	-2.302135e+02
3.000000e-07	-3.647043e-06	-3.572968e-09	-5.238482e+01	-2.297447e+02
3.100000e-07	-3.625778e-06	-3.518772e-09	-5.207938e+01	-2.292560e+02
3.200000e-07	-3.603892e-06	-3.509855e-09	-5.176501e+01	-2.287489e+02
3.300000e-07	-3.581282e-06	-3.521445e-09	-5.144025e+01	-2.282251e+02
3.400000e-07	-3.558068e-06	-3.462572e-09	-5.110682e+01	-2.276861e+02
3.500000e-07	-3.534410e-06	-3.454441e-09	-5.076699e+01	-2.271331e+02
3.600000e-07	-3.510254e-06	-3.574092e-09	-5.042003e+01	-2.265668e+02
3.700000e-07	-3.485400e-06	-3.520278e-09	-5.006304e+01	-2.259877e+02
3.800000e-07	-3.459482e-06	-3.308345e-09	-4.969076e+01	-2.253954e+02
3.900000e-07	-3.432636e-06	-3.452735e-09	-4.930515e+01	-2.247894e+02
4.000000e-07	-3.405355e-06	-3.627928e-09	-4.891330e+01	-2.241686e+02
4.100000e-07	-3.377641e-06	-3.390088e-09	-4.851522e+01	-2.235312e+02
4.200000e-07	-3.349291e-06	-3.273700e-09	-4.810801e+01	-2.228755e+02
4.300000e-07	-3.320359e-06	-3.502615e-09	-4.769245e+01	-2.221994e+02
4.400000e-07	-3.291000e-06	-3.497410e-09	-4.727075e+01	-2.215008e+02
4.500000e-07	-3.261103e-06	-3.305809e-09	-4.684132e+01	-2.207776e+02
4.600000e-07	-3.230549e-06	-3.350359e-09	-4.640244e+01	-2.200280e+02
4.700000e-07	-3.199510e-06	-3.404666e-09	-4.595662e+01	-2.192506e+02
4.800000e-07	-3.168150e-06	-3.346847e-09	-4.550617e+01	-2.184442e+02
4.900000e-07	-3.136432e-06	-3.331927e-09	-4.505059e+01	-2.176082e+02
5.000000e-07	-3.104113e-06	-3.328016e-09	-4.458636e+01	-2.167424e+02
5.100000e-07	-3.070969e-06	-3.294444e-09	-4.411030e+01	-2.158470e+02
5.200000e-07	-3.036925e-06	-3.286085e-09	-4.362130e+01	-2.149228e+02
5.300000e-07	-3.002135e-06	-3.312456e-09	-4.312159e+01	-2.139707e+02
5.400000e-07	-2.966898e-06	-3.290397e-09	-4.261546e+01	-2.129918e+02
5.500000e-07	-2.931337e-06	-3.222935e-09	-4.210468e+01	-2.119873e+02
5.600000e-07	-2.895392e-06	-3.213093e-09	-4.158838e+01	-2.109585e+02
5.700000e-07	-2.858933e-06	-3.251907e-09	-4.106469e+01	-2.099063e+02
5.800000e-07	-2.821924e-06	-3.241216e-09	-4.053310e+01	-2.088314e+02
5.900000e-07	-2.784430e-06	-3.151748e-09	-3.999455e+01	-2.077342e+02
6.000000e-07	-2.746467e-06	-3.133610e-09	-3.944927e+01	-2.066145e+02
6.100000e-07	-2.708038e-06	-3.198989e-09	-3.889729e+01	-2.054718e+02
6.200000e-07	-2.669142e-06	-3.162112e-09	-3.833861e+01	-2.043052e+02
6.300000e-07	-2.629869e-06	-3.081824e-09	-3.777450e+01	-2.031134e+02
6.400000e-07	-2.590312e-06	-3.086184e-09	-3.720632e+01	-2.018947e+02
6.500000e-07	-2.550419e-06	-3.104386e-09	-3.663331e+01	-2.006473e+02
6.600000e-07	-2.509969e-06	-3.065640e-09	-3.605230e+01	-1.993693e+02
6.700000e-07	-2.468708e-06	-3.026184e-09	-3.545964e+01	-1.980588e+02
6.800000e-07	-2.426730e-06	-3.018797e-09	-3.485668e+01	-1.967141e+02
6.900000e-07	-2.384191e-06	-2.988703e-09	-3.424566e+01	-1.953336e+02
7.000000e-07	-2.341158e-06	-2.966575e-09	-3.362755e+01	-1.939161e+02
7.100000e-07	-2.297798e-06	-2.968626e-09	-3.300475e+01	-1.924606e+02
7.200000e-07	-2.254237e-06	-2.930567e-09	-3.237905e+01	-1.909668e+02
7.300000e-07	-2.210368e-06	-2.886556e-09	-3.174893e+01	-1.894342e+02
7.400000e-07	-2.166010e-06	-2.878989e-09	-3.111179e+01	-1.878630e+02
7.500000e-07	-2.121250e-06	-2.875273e-09	-3.046887e+01	-1.862534e+02
7.600000e-07	-2.076191e-06	-2.832866e-09	-2.982167e+01	-1.846056e+02
7.700000e-07	-2.030759e-06	-2.783615e-09	-2.916910e+01	-1.829198e+02
7.800000e-07	-1.984969e-06	-2.776771e-09	-2.851138e+01	-1.811961e+02
7.900000e-07	-1.938835e-06	-2.765786e-09	-2.784872e+01	-1.794341e+02
8.000000e-07	-1.892331e-06	-2.722054e-09	-2.718077e+01	-1.776333e+02
8.100000e-07	-1.845473e-06	-2.680384e-09	-2.650771e+01	-1.757926e+02
8.200000e-07	-1.798360e-06	-2.661945e-09	-2.583100e+01	-1.739103e+02
8.300000e-07	-1.751072e-06	-2.643413e-09	-2.515177e+01	-1.719843e+02
8.400000e-07	-1.703570e-06	-2.600331e-09	-2.446947e+01	-1.700121e+02
8.500000e-07	-1.655834e-06	-2.563163e-09	-2.378380e+01	-1.679907e+02
8.600000e-07	-1.607814e-06	-2.540007e-09	-2.309407e+01	-1.659168e+02
8.700000e-07	-1.559359e-06	-2.508054e-09	-2.239807e+01	-1.637868e+02
8.800000e-07	-1.510359e-06	-2.474641e-09	-2.169426e+01	-1.615973e+02
8.900000e-07	-1.460962e-06	-2.440464e-09	-2.098473e+01	-1.593447e+02
9.000000e-07	-1.411247e-06	-2.403098e-09	-2.027064e+01	-1.570257e+02
9.100000e-07	-1.361115e-06	-2.365889e-09	-1.955057e+01	-1.546372e+02
9.200000e-07	-1.310562e-06	-2.334792e-09	-1.882445e+01	-1.521765e+02
9.300000e-07	-1.259671e-06	-2.299077e-09	-1.809346e+01	-1.496412e+02
9.400000e-07	-1.208540e-06	-2.244911e-09	-1.735904e+01	-1.470295e+02
9.500000e-07	-1.157229e-06	-2.202288e-09	-1.662203e+01	-1.443396e+02
9.600000e-07	-1.105725e-06	-2.170962e-09	-1.588223e+01	-1.415701e+02
9.700000e-07	-1.054030e-06	-2.125392e-09	-1.513971e+01	-1.387198e+02
9.800000e-07	-1.002221e-06	-2.069265e-09	-1.439554e+01	-1.357873e+02
9.900000e-07	-9.502440e-07	-2.020813e-09	-1.364896e+01	-1.327712e+02
1.000000e-06	-8.980308e-07	-1.985615e-09	-1.289899e+01	-1.296695e+02
1.010000e-06	-8.455230e-07	-1.938914e-09	-1.214479e+01	-1.264801e+02
1.020000e-06	-7.928134e-07	-1.880614e-09	-1.138769e+01	-1.231998e+02
1.030000e-06	-7.400024e-07	-1.828732e-09	-1.062913e+01	-1.198252e+02
1.040000e-06	-6.870351e-07	-1.780102e-09	-9.868326e+00	-1.163519e+02
1.050000e-06	-6.339644e-07	-1.726708e-09	-9.106038e+00	-1.127746e+02
1.060000e-06	-5.808385e-07	-1.664561e-09	-8.342956e+00	-1.090877e+02
1.070000e-06	-5.276425e-07	-1.603015e-09	-7.578869e+00	-1.052850e+02
1.080000e-06	-4.743471e-07	-1.542708e-09	-6.813352e+00	-1.013596e+02
1.090000e-06	-4.209886e-07	-1.478604e-09	-6.046929e+00	-9.730491e+01
1.100000e-06	-3.675752e-07	-1.416803e-09	-5.279718e+00	-9.311419e+01
1.110000e-06	-3.141005e-07	-1.350272e-09	-4.511628e+00	-8.878121e+01
1.120000e-06	-2.605783e-07	-1.278128e-09	-3.742853e+00	-8.430038e+01
1.130000e-06	-2.070531e-07	-1.207817e-09	-2.974037e+00	-7.966713e+01
1.140000e-06	-1.535298e-07	-1.138746e-09	-2.205247e+00	-7.487811e+01
1.150000e-06	-9.996047e-08	-1.063100e-09	-1.435796e+00	-6.993144e+01
1.160000e-06	-4.631552e-08	-9.768063e-10	-6.652595e-01	-6.482690e+01
1.170000e-06	7.318513e-09	-8.946542e-10	1.051205e-01	-5.956607e+01
1.180000e-06	6.088966e-08	-8.157554e-10	8.745973e-01	-5.415238e+01
1.190000e-06	1.144744e-07	-7.283215e-10	1.644269e+00	-4.859114e+01
1.200000e-06	1.680047e-07	-6.404609e-10	2.413160e+00	-4.288950e+01
1.210000e-06	2.214418e-07	-5.542969e-10	3.180711e+00	-3.705635e+01
1.220000e-06	2.748519e-07	-4.672095e-10	3.947874e+00	-3.110217e+01
1.230000e-06	3.282486e-07	-3.728502e-10	4.714845e+00	-2.503884e+01
1.240000e-06	3.815759e-07	-2.752445e-10	5.480820e+00	-1.887948e+01
1.250000e-06	4.348262e-07	-1.811293e-10	6.245688e+00	-1.263818e+01
1.260000e-06	4.879654e-07	-8.188502e-11	7.008959e+00	-6.329805e+00
1.270000e-06	5.409977e-07	1.639618e-11	7.770697e+00	3.023754e-02
1.280000e-06	5.939756e-07	1.133324e-10	8.531653e+00	6.426193e+00
1.290000e-06	6.468338e-07	2.116596e-10	9.290888e+00	1.284215e+01
1.300000e-06	6.995635e-07	3.102898e-10	1.004828e+01	1.926219e+01
1.310000e-06	7.522126e-07	4.092880e-10	1.080451e+01	2.567057e+01
1.320000e-06	8.047365e-07	5.061882e-10	1.155895e+01	3.205176e+01
1.330000e-06	8.570784e-07	6.074904e-10	1.231077e+01	3.839062e+01
1.340000e-06	9.092326e-07	7.062457e-10	1.305989e+01	4.467246e+01
1.350000e-06	9.611939e-07	8.010431e-10	1.380624e+01	5.088310e+01
1.360000e-06	1.012969e-06	8.954594e-10	1.454993e+01	5.700895e+01
1.370000e-06	1.064591e-06	9.878548e-10	1.529140e+01	6.303714e+01
1.380000e-06	1.116046e-06	1.076920e-09	1.603049e+01	6.895552e+01
1.390000e-06	1.167351e-06	1.162074e-09	1.676742e+01	7.475283e+01
1.400000e-06	1.218483e-06	1.247386e-09	1.750186e+01	8.041879e+01
1.410000e-06	1.269340e-06	1.332455e-09	1.823234e+01	8.594417e+01
1.420000e-06	1.319922e-06	1.413875e-09	1.895888e+01	9.132097e+01
1.430000e-06	1.370214e-06	1.493985e-09	1.968126e+01	9.654249e+01
1.440000e-06	1.420070e-06	1.572182e-09	2.039737e+01	1.016034e+02
1.450000e-06	1.469435e-06	1.647096e-09	2.110644e+01	1.065001e+02
1.460000e-06	1.518377e-06	1.718873e-09	2.180943e+01	1.112301e+02
1.470000e-06	1.566951e-06	1.787082e-09	2.250713e+01	1.157930e+02
1.480000e-06	1.615154e-06	1.854251e-09	2.319949e+01	1.201895e+02
1.490000e-06	1.662966e-06	1.916932e-09	2.388624e+01	1.244223e+02
1.500000e-06	1.710519e-06	1.978060e-09	2.456928e+01	1.284951e+02
1.510000e-06	1.757906e-06	2.037784e-09	2.524993e+01	1.324130e+02
1.520000e-06	1.805095e-06	2.094846e-09	2.592774e+01	1.361822e+02
1.530000e-06	1.851996e-06	2.149662e-09	2.660140e+01	1.398097e+02
1.540000e-06	1.898514e-06	2.201798e-09	2.726957e+01	1.433030e+02
1.550000e-06	1.944623e-06	2.252180e-09	2.793187e+01	1.466700e+02
1.560000e-06	1.990404e-06	2.299044e-09	2.858946e+01	1.499185e+02
1.570000e-06	2.035894e-06	2.343681e-09	2.924285e+01	1.530564e+02
1.580000e-06	2.081028e-06	2.388595e-09	2.989114e+01	1.560909e+02
1.590000e-06	2.125779e-06	2.430574e-09	3.053393e+01	1.590286e+02
1.600000e-06	2.170068e-06	2.471582e-09	3.117008e+01	1.618754e+02
1.610000e-06	2.213975e-06	2.514005e-09	3.180074e+01	1.646363e+02
1.620000e-06	2.257632e-06	2.554885e-09	3.242782e+01	1.673152e+02
1.630000e-06	2.301077e-06	2.594043e-09	3.305184e+01	1.699154e+02
1.640000e-06	2.344345e-06	2.631184e-09	3.367333e+01	1.724391e+02
1.650000e-06	2.387266e-06	2.666455e-09	3.428983e+01	1.748879e+02
1.660000e-06	2.429572e-06	2.700338e-09	3.489750e+01	1.772628e+02
1.670000e-06	2.471190e-06	2.732310e-09	3.549529e+01	1.795643e+02
1.680000e-06	2.512081e-06	2.763424e-09	3.608263e+01	1.817928e+02
1.690000e-06	2.552340e-06	2.794199e-09	3.666089e+01	1.839483e+02
1.700000e-06	2.592192e-06	2.825495e-09	3.723332e+01	1.860314e+02
1.710000e-06	2.631718e-06	2.855415e-09	3.780106e+01	1.880424e+02
1.720000e-06	2.670888e-06	2.883341e-09	3.836368e+01	1.899825e+02
1.730000e-06	2.709665e-06	2.911713e-09	3.892065e+01	1.918529e+02
1.740000e-06	2.748005e-06	2.939926e-09	3.947135e+01	1.936554e+02
1.750000e-06	2.785851e-06	2.967699e-09	4.001496e+01	1.953923e+02
1.760000e-06	2.823199e-06	2.991683e-09	4.055142e+01	1.970660e+02
1.770000e-06	2.860027e-06	3.013790e-09	4.108040e+01	1.986796e+02
1.780000e-06	2.896355e-06	3.036913e-09	4.160220e+01	2.002361e+02
1.790000e-06	2.932242e-06	3.059200e-09	4.211767e+01	2.017385e+02
1.800000e-06	2.967799e-06	3.081916e-09	4.262841e+01	2.031901e+02
1.810000e-06	3.003080e-06	3.103740e-09	4.313516e+01	2.045935e+02
1.820000e-06	3.037912e-06	3.125307e-09	4.363547e+01	2.059514e+02
1.830000e-06	3.072121e-06	3.146857e-09	4.412685e+01	2.072661e+02
1.840000e-06	3.105499e-06	3.166295e-09	4.460627e+01	2.085392e+02
1.850000e-06	3.137976e-06	3.185610e-09	4.507276e+01	2.097722e+02
1.860000e-06	3.169855e-06	3.204791e-09	4.553067e+01	2.109659e+02
1.870000e-06	3.201327e-06	3.223083e-09	4.598271e+01	2.121210e+02
1.880000e-06	3.232353e-06	3.240276e-09	4.642837e+01	2.132378e+02
1.890000e-06	3.262819e-06	3.256553e-09	4.686596e+01	2.143164e+02
1.900000e-06	3.292652e-06	3.273361e-09	4.729447e+01	2.153568e+02
1.910000e-06	3.321893e-06	3.290387e-09	4.771449e+01	2.163592e+02
1.920000e-06	3.350590e-06	3.306648e-09	4.812667e+01	2.173238e+02
1.930000e-06	3.378755e-06	3.321982e-09	4.853123e+01	2.182511e+02
1.940000e-06	3.406448e-06	3.337054e-09	4.892899e+01	2.191418e+02
1.950000e-06	3.433735e-06	3.350045e-09	4.932093e+01	2.199970e+02
1.960000e-06	3.460422e-06	3.362406e-09	4.970427e+01	2.208182e+02
1.970000e-06	3.486273e-06	3.374642e-09	5.007557e+01	2.216069e+02
1.980000e-06	3.511211e-06	3.385927e-09	5.043377e+01	2.223653e+02
1.990000e-06	3.535368e-06	3.398063e-09	5.078076e+01	2.230953e+02
2.000000e-06	3.558934e-06	3.411246e-09	5.111926e+01	2.237991e+02
2.010000e-06	3.581923e-06	3.423577e-09	5.144946e+01	2.244788e+02
2.020000e-06	3.604265e-06	3.433200e-09	5.177037e+01	2.251364e+02
2.030000e-06	3.626003e-06	3.443850e-09	5.208261e+01	2.257735e+02
2.040000e-06	3.647172e-06	3.455181e-09	5.238668e+01	2.263915e+02
2.050000e-06	3.667695e-06	3.464607e-09	5.268145e+01	2.269912e+02
2.060000e-06	3.687685e-06	3.473090e-09	5.296859e+01	2.275732e+02
2.070000e-06	3.707244e-06	3.481951e-09	5.324952e+01	2.281377e+02
2.080000e-06	3.726294e-06	3.492383e-09	5.352316e+01	2.286842e+02
2.090000e-06	3.744704e-06	3.503779e-09	5.378758e+01	2.292123e+02
2.100000e-06	3.762395e-06	3.513650e-09	5.404170e+01	2.297210e+02
2.110000e-06	3.779465e-06	3.521391e-09	5.428688e+01	2.302094e+02
2.120000e-06	3.795961e-06	3.529407e-09	5.452382e+01	2.306766e+02
2.130000e-06	3.811824e-06	3.537254e-09	5.475167e+01	2.311216e+02
2.140000e-06	3.826898e-06	3.544579e-09	5.496820e+01	2.315438e+02
2.150000e-06	3.841094e-06	3.551198e-09	5.517209e+01	2.319427e+02
2.160000e-06	3.854530e-06	3.557560e-09	5.536509e+01	2.323184e+02
2.170000e-06	3.867243e-06	3.567083e-09	5.554769e+01	2.326711e+02
2.180000e-06	3.879300e-06	3.576195e-09	5.572088e+01	2.330015e+02
2.190000e-06	3.890690e-06	3.582379e-09	5.588447e+01	2.333106e+02
2.200000e-06	3.901271e-06	3.586638e-09	5.603646e+01	2.335997e+02
2.210000e-06	3.910928e-06	3.591783e-09	5.617517e+01	2.338702e+02
2.220000e-06	3.919628e-06	3.596564e-09	5.630014e+01	2.341236e+02
2.230000e-06	3.927530e-06	3.600250e-09	5.641363e+01	2.343614e+02
2.240000e-06	3.934835e-06	3.604365e-09	5.651855e+01	2.345848e+02
2.250000e-06	3.941574e-06	3.608281e-09	5.661536e+01	2.347949e+02
2.260000e-06	3.947659e-06	3.612503e-09	5.670276e+01	2.349924e+02
2.270000e-06	3.953009e-06	3.615193e-09	5.677961e+01	2.351776e+02
2.280000e-06	3.957607e-06	3.617838e-09	5.684565e+01	2.353504e+02
2.290000e-06	3.961597e-06	3.620755e-09	5.690296e+01	2.355102e+02
2.300000e-06	3.965083e-06	3.624739e-09	5.695303e+01	2.356562e+02
2.310000e-06	3.967929e-06	3.629043e-09	5.699391e+01	2.357871e+02
2.320000e-06	3.969961e-06	3.632261e-09	5.702310e+01	2.359016e+02
2.330000e-06	3.971026e-06	3.633489e-09	5.703840e+01	2.359982e+02
2.340000e-06	3.971242e-06	3.634466e-09	5.704150e+01	2.360754e+02
2.350000e-06	3.970877e-06	3.635514e-09	5.703625e+01	2.361319e+02
2.360000e-06	3.969948e-06	3.634345e-09	5.702292e+01	2.361668e+02
2.370000e-06	3.968374e-06	3.635518e-09	5.700031e+01	2.361794e+02
2.380000e-06	3.966167e-06	3.635522e-09	5.696859e+01	2.361695e+02
2.390000e-06	3.963363e-06	3.634907e-09	5.692833e+01	2.361373e+02
2.400000e-06	3.959881e-06	3.642638e-09	5.687831e+01	2.360836e+02
2.410000e-06	3.955814e-06	3.654855e-09	5.681989e+01	2.360095e+02
2.420000e-06	3.951337e-06	3.611855e-09	5.675558e+01	2.359164e+02
2.430000e-06	3.946250e-06	3.552847e-09	5.668253e+01	2.358061e+02
2.440000e-06	3.940029e-06	3.636847e-09	5.659316e+01	2.356804e+02
2.450000e-06	3.932549e-06	3.751635e-09	5.648572e+01	2.355411e+02
2.460000e-06	3.924387e-06	3.632107e-09	5.636848e+01	2.353899e+02
2.470000e-06	3.915966e-06	3.515339e-09	5.624753e+01	2.352281e+02
2.480000e-06	3.906997e-06	3.616927e-09	5.611871e+01	2.350567e+02
2.490000e-06	3.897054e-06	3.662337e-09	5.597589e+01	2.348764e+02
2.500000e-06	3.886489e-06	3.554619e-09	5.582413e+01	2.346871e+02
2.510000e-06	3.875712e-06	3.563959e-09	5.566934e+01	2.344883e+02
2.520000e-06	3.864155e-06	3.590254e-09	5.550334e+01	2.342790e+02
2.530000e-06	3.851500e-06	3.438819e-09	5.532157e+01	2.340578e+02
2.540000e-06	3.838271e-06	3.609044e-09	5.513156e+01	2.338230e+02
2.550000e-06	3.824466e-06	3.754121e-09	5.493325e+01	2.335727e+02
2.560000e-06	3.809524e-06	3.446934e-09	5.471863e+01	2.333048e+02
2.570000e-06	3.793634e-06	3.420699e-09	5.449040e+01	2.330174e+02
2.580000e-06	3.777209e-06	3.763867e-09	5.425448e+01	2.327087e+02
2.590000e-06	3.760134e-06	3.577400e-09	5.400921e+01	2.323774e+02
2.600000e-06	3.742329e-06	3.201446e-09	5.375348e+01	2.320225e+02
2.610000e-06	3.723873e-06	3.527172e-09	5.348838e+01	2.316435e+02
2.620000e-06	3.704787e-06	3.664925e-09	5.321423e+01	2.312403e+02
2.630000e-06	3.685096e-06	3.372540e-09	5.293140e+01	2.308136e+02
2.640000e-06	3.664898e-06	3.455004e-09	5.264128e+01	2.303642e+02
2.650000e-06	3.644261e-06	3.586197e-09	5.234485e+01	2.298934e+02
2.660000e-06	3.623075e-06	3.426570e-09	5.204055e+01	2.294028e+02
2.670000e-06	3.600915e-06	3.400755e-09	5.172225e+01	2.288940e+02
2.680000e-06	3.577626e-06	3.528882e-09	5.138773e+01	2.283687e+02
2.690000e-06	3.553641e-06	3.484828e-09	5.104322e+01	2.278283e+02
2.700000e-06	3.529074e-06	3.355779e-09	5.069035e+01	2.272740e+02
2.710000e-06	3.503811e-06	3.364857e-09	5.032748e+01	2.267064e+02
2.720000e-06	3.478033e-06	3.542277e-09	4.995722e+01	2.261260e+02
2.730000e-06	3.451772e-06	3.482267e-09	4.958001e+01	2.255325e+02
2.740000e-06	3.424835e-06	3.213086e-09	4.919310e+01	2.249251e+02
2.750000e-06	3.397229e-06	3.408324e-09	4.879658e+01	2.243027e+02
2.760000e-06	3.369175e-06	3.578984e-09	4.839363e+01	2.236637e+02
2.770000e-06	3.340769e-06	3.276903e-09	4.798561e+01	2.230061e+02
2.780000e-06	3.311896e-06	3.262634e-09	4.757089e+01	2.223279e+02
2.790000e-06	3.282392e-06	3.457587e-09	4.714710e+01	2.216269e+02
2.800000e-06	3.252134e-06	3.376461e-09	4.671249e+01	2.209012e+02
2.810000e-06	3.221030e-06	3.282035e-09	4.626573e+01	2.201490e+02
2.820000e-06	3.189176e-06	3.303241e-09	4.580818e+01	2.193688e+02
2.830000e-06	3.156873e-06	3.353369e-09	4.534419e+01	2.185595e+02
2.840000e-06	3.124165e-06	3.309579e-09	4.487438e+01	2.177205e+02
2.850000e-06	3.090877e-06	3.244974e-09	4.439625e+01	2.168518e+02
2.860000e-06	3.057046e-06	3.297997e-09	4.391032e+01	2.159536e+02
2.870000e-06	3.022803e-06	3.273429e-09	4.341846e+01	2.150266e+02
2.880000e-06	2.988074e-06	3.201005e-09	4.291962e+01	2.140717e+02
2.890000e-06	2.952740e-06	3.238801e-09	4.241209e+01	2.130903e+02
2.900000e-06	2.916896e-06	3.264342e-09	4.189725e+01	2.120834e+02
2.910000e-06	2.880718e-06	3.181402e-09	4.137760e+01	2.110522e+02
2.920000e-06	2.844230e-06	3.130362e-09	4.085350e+01	2.099978e+02
2.930000e-06	2.807356e-06	3.204747e-09	4.032385e+01	2.089207e+02
2.940000e-06	2.769926e-06	3.197112e-09	3.978622e+01	2.078213e+02
2.950000e-06	2.731625e-06	3.081402e-09	3.923609e+01	2.066994e+02
