# Temperatura_=_20.0
# Concentracion g/m^3_=_9000.0
# C_Vs_to_Am_M_A/Vsm_=_65563218390.804596
# pendiente_HvsI_1/m_=_3716.3
# ordenada_HvsI_A/m_=_1297.0
# frecuencia_Hz_=_212876.37525791745

Tiempo_(s)	Campo_(V.s)	Magnetizacion_(V.s)	Campo_(kA/m)	Magnetizacion_(A/m)
0.000000e+00	-3.970489e-06	-3.546424e-09	-5.698027e+01	-2.355084e+02
1.000000e-08	-3.970404e-06	-3.546692e-09	-5.697905e+01	-2.355409e+02
2.000000e-08	-3.969422e-06	-3.546824e-09	-5.696497e+01	-2.355551e+02
3.000000e-08	-3.967468e-06	-3.546417e-09	-5.693692e+01	-2.355504e+02
4.000000e-08	-3.964655e-06	-3.543990e-09	-5.689655e+01	-2.355259e+02
5.000000e-08	-3.961199e-06	-3.538052e-09	-5.684696e+01	-2.354812e+02
6.000000e-08	-3.957285e-06	-3.525718e-09	-5.679078e+01	-2.354156e+02
7.000000e-08	-3.952791e-06	-3.523429e-09	-5.672629e+01	-2.353293e+02
8.000000e-08	-3.947605e-06	-3.567961e-09	-5.665187e+01	-2.352221e+02
9.000000e-08	-3.941583e-06	-3.617588e-09	-5.656544e+01	-2.350944e+02
1.000000e-07	-3.934675e-06	-3.563066e-09	-5.646631e+01	-2.349470e+02
1.100000e-07	-3.927236e-06	-3.462060e-09	-5.635955e+01	-2.347807e+02
1.200000e-07	-3.919386e-06	-3.468337e-09	-5.624690e+01	-2.345966e+02
1.300000e-07	-3.910798e-06	-3.557227e-09	-5.612364e+01	-2.343959e+02
1.400000e-07	-3.901285e-06	-3.560044e-09	-5.598712e+01	-2.341799e+02
1.500000e-07	-3.890984e-06	-3.562608e-09	-5.583930e+01	-2.339499e+02
1.600000e-07	-3.879839e-06	-3.518733e-09	-5.567936e+01	-2.337073e+02
1.700000e-07	-3.867675e-06	-3.481538e-09	-5.550479e+01	-2.334530e+02
1.800000e-07	-3.854850e-06	-3.543131e-09	-5.532075e+01	-2.331882e+02
1.900000e-07	-3.841690e-06	-3.626934e-09	-5.513188e+01	-2.329134e+02
2.000000e-07	-3.827612e-06	-3.524800e-09	-5.492985e+01	-2.326290e+02
2.100000e-07	-3.812103e-06	-3.465561e-09	-5.470729e+01	-2.323350e+02
2.200000e-07	-3.795740e-06	-3.633909e-09	-5.447245e+01	-2.320313e+02
2.300000e-07	-3.779062e-06	-3.662406e-09	-5.423311e+01	-2.317171e+02
2.400000e-07	-3.761782e-06	-3.585644e-09	-5.398513e+01	-2.313916e+02
2.500000e-07	-3.743823e-06	-3.557860e-09	-5.372740e+01	-2.310537e+02
2.600000e-07	-3.725313e-06	-3.617111e-09	-5.346176e+01	-2.307020e+02
2.700000e-07	-3.706211e-06	-3.588992e-09	-5.318763e+01	-2.303350e+02
2.800000e-07	-3.686611e-06	-3.582881e-09	-5.290636e+01	-2.299512e+02
2.900000e-07	-3.666499e-06	-3.556802e-09	-5.261773e+01	-2.295491e+02
3.000000e-07	-3.645716e-06	-3.493291e-09	-5.231947e+01	-2.291272e+02
3.100000e-07	-3.624266e-06	-3.503677e-09	-5.201164e+01	-2.286840e+02
3.200000e-07	-3.602136e-06	-3.541110e-09	-5.169405e+01	-2.282183e+02
3.300000e-07	-3.579383e-06	-3.557013e-09	-5.136753e+01	-2.277292e+02
3.400000e-07	-3.556117e-06	-3.479396e-09	-5.103364e+01	-2.272158e+02
3.500000e-07	-3.532288e-06	-3.430460e-09	-5.069168e+01	-2.266776e+02
3.600000e-07	-3.507879e-06	-3.517479e-09	-5.034138e+01	-2.261141e+02
3.700000e-07	-3.482748e-06	-3.550261e-09	-4.998073e+01	-2.255253e+02
3.800000e-07	-3.456569e-06	-3.425678e-09	-4.960503e+01	-2.249112e+02
3.900000e-07	-3.429470e-06	-3.418522e-09	-4.921614e+01	-2.242721e+02
4.000000e-07	-3.401968e-06	-3.493387e-09	-4.882147e+01	-2.236083e+02
4.100000e-07	-3.374112e-06	-3.446981e-09	-4.842169e+01	-2.229202e+02
4.200000e-07	-3.345612e-06	-3.397559e-09	-4.801270e+01	-2.222083e+02
4.300000e-07	-3.316501e-06	-3.428411e-09	-4.759493e+01	-2.214730e+02
4.400000e-07	-3.286939e-06	-3.404952e-09	-4.717068e+01	-2.207150e+02
4.500000e-07	-3.256833e-06	-3.372699e-09	-4.673864e+01	-2.199345e+02
4.600000e-07	-3.226125e-06	-3.400691e-09	-4.629795e+01	-2.191319e+02
4.700000e-07	-3.194961e-06	-3.382115e-09	-4.585071e+01	-2.183074e+02
4.800000e-07	-3.163479e-06	-3.336764e-09	-4.539892e+01	-2.174613e+02
4.900000e-07	-3.131601e-06	-3.331087e-09	-4.494144e+01	-2.165935e+02
5.000000e-07	-3.099175e-06	-3.342824e-09	-4.447609e+01	-2.157040e+02
5.100000e-07	-3.065998e-06	-3.321392e-09	-4.399997e+01	-2.147927e+02
5.200000e-07	-3.031835e-06	-3.280363e-09	-4.350970e+01	-2.138592e+02
5.300000e-07	-2.996882e-06	-3.274326e-09	-4.300809e+01	-2.129034e+02
5.400000e-07	-2.961542e-06	-3.285343e-09	-4.250093e+01	-2.119248e+02
5.500000e-07	-2.925887e-06	-3.263082e-09	-4.198925e+01	-2.109229e+02
5.600000e-07	-2.889788e-06	-3.222702e-09	-4.147119e+01	-2.098973e+02
5.700000e-07	-2.853203e-06	-3.214991e-09	-4.094617e+01	-2.088473e+02
5.800000e-07	-2.816107e-06	-3.218442e-09	-4.041379e+01	-2.077725e+02
5.900000e-07	-2.778496e-06	-3.183555e-09	-3.987404e+01	-2.066721e+02
6.000000e-07	-2.740373e-06	-3.157082e-09	-3.932695e+01	-2.055457e+02
6.100000e-07	-2.701690e-06	-3.154080e-09	-3.877181e+01	-2.043924e+02
6.200000e-07	-2.662567e-06	-3.130351e-09	-3.821035e+01	-2.032117e+02
6.300000e-07	-2.623175e-06	-3.105307e-09	-3.764505e+01	-2.020029e+02
6.400000e-07	-2.583489e-06	-3.093648e-09	-3.707551e+01	-2.007653e+02
6.500000e-07	-2.543377e-06	-3.074689e-09	-3.649987e+01	-1.994982e+02
6.600000e-07	-2.502602e-06	-3.044666e-09	-3.591471e+01	-1.982010e+02
6.700000e-07	-2.461086e-06	-3.028639e-09	-3.531892e+01	-1.968730e+02
6.800000e-07	-2.418956e-06	-3.017410e-09	-3.471431e+01	-1.955134e+02
6.900000e-07	-2.376240e-06	-2.979798e-09	-3.410129e+01	-1.941217e+02
7.000000e-07	-2.333048e-06	-2.949293e-09	-3.348145e+01	-1.926972e+02
7.100000e-07	-2.289556e-06	-2.942078e-09	-3.285729e+01	-1.912390e+02
7.200000e-07	-2.245860e-06	-2.923795e-09	-3.223021e+01	-1.897465e+02
7.300000e-07	-2.201817e-06	-2.887624e-09	-3.159815e+01	-1.882189e+02
7.400000e-07	-2.157291e-06	-2.857858e-09	-3.095917e+01	-1.866552e+02
7.500000e-07	-2.112344e-06	-2.845884e-09	-3.031414e+01	-1.850546e+02
7.600000e-07	-2.067068e-06	-2.825430e-09	-2.966438e+01	-1.834161e+02
7.700000e-07	-2.021475e-06	-2.790007e-09	-2.901008e+01	-1.817384e+02
7.800000e-07	-1.975609e-06	-2.759446e-09	-2.835186e+01	-1.800203e+02
7.900000e-07	-1.929442e-06	-2.735450e-09	-2.768932e+01	-1.782605e+02
8.000000e-07	-1.882810e-06	-2.710148e-09	-2.702011e+01	-1.764573e+02
8.100000e-07	-1.835792e-06	-2.679104e-09	-2.634535e+01	-1.746091e+02
8.200000e-07	-1.788573e-06	-2.646434e-09	-2.566771e+01	-1.727142e+02
8.300000e-07	-1.741191e-06	-2.612290e-09	-2.498774e+01	-1.707706e+02
8.400000e-07	-1.693578e-06	-2.579883e-09	-2.430444e+01	-1.687764e+02
8.500000e-07	-1.645727e-06	-2.556531e-09	-2.361774e+01	-1.667295e+02
8.600000e-07	-1.597627e-06	-2.525897e-09	-2.292746e+01	-1.646278e+02
8.700000e-07	-1.549046e-06	-2.483536e-09	-2.223027e+01	-1.624692e+02
8.800000e-07	-1.499934e-06	-2.447943e-09	-2.152547e+01	-1.602516e+02
8.900000e-07	-1.450461e-06	-2.421504e-09	-2.081549e+01	-1.579729e+02
9.000000e-07	-1.400679e-06	-2.390676e-09	-2.010107e+01	-1.556311e+02
9.100000e-07	-1.350485e-06	-2.347118e-09	-1.938074e+01	-1.532241e+02
9.200000e-07	-1.299876e-06	-2.304669e-09	-1.865445e+01	-1.507499e+02
9.300000e-07	-1.248910e-06	-2.269100e-09	-1.792304e+01	-1.482064e+02
9.400000e-07	-1.197701e-06	-2.230720e-09	-1.718814e+01	-1.455916e+02
9.500000e-07	-1.146344e-06	-2.187844e-09	-1.645113e+01	-1.429032e+02
9.600000e-07	-1.094815e-06	-2.141431e-09	-1.571164e+01	-1.401391e+02
9.700000e-07	-1.043105e-06	-2.096354e-09	-1.496955e+01	-1.372967e+02
9.800000e-07	-9.911637e-07	-2.053199e-09	-1.422414e+01	-1.343732e+02
9.900000e-07	-9.390413e-07	-2.009579e-09	-1.347613e+01	-1.313655e+02
1.000000e-06	-8.867132e-07	-1.965465e-09	-1.272517e+01	-1.282702e+02
1.010000e-06	-8.341380e-07	-1.914666e-09	-1.197067e+01	-1.250834e+02
1.020000e-06	-7.813964e-07	-1.861690e-09	-1.121378e+01	-1.218008e+02
1.030000e-06	-7.285715e-07	-1.813584e-09	-1.045569e+01	-1.184178e+02
1.040000e-06	-6.756507e-07	-1.763764e-09	-9.696226e+00	-1.149292e+02
1.050000e-06	-6.225969e-07	-1.706095e-09	-8.934854e+00	-1.113296e+02
1.060000e-06	-5.693961e-07	-1.643820e-09	-8.171373e+00	-1.076134e+02
1.070000e-06	-5.160366e-07	-1.585686e-09	-7.405614e+00	-1.037747e+02
1.080000e-06	-4.625472e-07	-1.525053e-09	-6.637990e+00	-9.980776e+01
1.090000e-06	-4.090665e-07	-1.459008e-09	-5.870492e+00	-9.570689e+01
1.100000e-06	-3.556012e-07	-1.393391e-09	-5.103214e+00	-9.146682e+01
1.110000e-06	-3.020886e-07	-1.326126e-09	-4.335257e+00	-8.708279e+01
1.120000e-06	-2.485263e-07	-1.258779e-09	-3.566587e+00	-8.255077e+01
1.130000e-06	-1.948991e-07	-1.189152e-09	-2.796986e+00	-7.786766e+01
1.140000e-06	-1.412876e-07	-1.115513e-09	-2.027610e+00	-7.303146e+01
1.150000e-06	-8.766219e-08	-1.037432e-09	-1.258035e+00	-6.804144e+01
1.160000e-06	-3.399034e-08	-9.549957e-10	-4.877935e-01	-6.289828e+01
1.170000e-06	1.962788e-08	-8.733689e-10	2.816787e-01	-5.760418e+01
1.180000e-06	7.318957e-08	-7.909223e-10	1.050340e+00	-5.216291e+01
1.190000e-06	1.267169e-07	-7.045218e-10	1.818507e+00	-4.657991e+01
1.200000e-06	1.802428e-07	-6.171312e-10	2.586655e+00	-4.086220e+01
1.210000e-06	2.337705e-07	-5.292958e-10	3.354828e+00	-3.501839e+01
1.220000e-06	2.872189e-07	-4.402886e-10	4.121863e+00	-2.905862e+01
1.230000e-06	3.406316e-07	-3.455789e-10	4.888386e+00	-2.299436e+01
1.240000e-06	3.940185e-07	-2.491926e-10	5.654538e+00	-1.683839e+01
1.250000e-06	4.473651e-07	-1.536766e-10	6.420112e+00	-1.060451e+01
1.260000e-06	5.006655e-07	-5.537705e-11	7.185024e+00	-4.307445e+00
1.270000e-06	5.538486e-07	4.192077e-11	7.948252e+00	2.037392e+00
1.280000e-06	6.068894e-07	1.389149e-10	8.709437e+00	8.414094e+00
1.290000e-06	6.598008e-07	2.365829e-10	9.468766e+00	1.480646e+01
1.300000e-06	7.125674e-07	3.358610e-10	1.022602e+01	2.119821e+01
1.310000e-06	7.651740e-07	4.341889e-10	1.098097e+01	2.757313e+01
1.320000e-06	8.176994e-07	5.296759e-10	1.173476e+01	3.391530e+01
1.330000e-06	8.700459e-07	6.291473e-10	1.248598e+01	4.020923e+01
1.340000e-06	9.221277e-07	7.274686e-10	1.323340e+01	4.644001e+01
1.350000e-06	9.740654e-07	8.244028e-10	1.397876e+01	5.259344e+01
1.360000e-06	1.025872e-06	9.194796e-10	1.472223e+01	5.865617e+01
1.370000e-06	1.077510e-06	1.011107e-09	1.546329e+01	6.461579e+01
1.380000e-06	1.128964e-06	1.099398e-09	1.620170e+01	7.046089e+01
1.390000e-06	1.180217e-06	1.184837e-09	1.693723e+01	7.618122e+01
1.400000e-06	1.231282e-06	1.271589e-09	1.767006e+01	8.176767e+01
1.410000e-06	1.282164e-06	1.354531e-09	1.840026e+01	8.721238e+01
1.420000e-06	1.332775e-06	1.432456e-09	1.912658e+01	9.250878e+01
1.430000e-06	1.382971e-06	1.509433e-09	1.984694e+01	9.765161e+01
1.440000e-06	1.432806e-06	1.587193e-09	2.056212e+01	1.026369e+02
1.450000e-06	1.482231e-06	1.661660e-09	2.127142e+01	1.074622e+02
1.460000e-06	1.531086e-06	1.729371e-09	2.197253e+01	1.121261e+02
1.470000e-06	1.579470e-06	1.795544e-09	2.266689e+01	1.166287e+02
1.480000e-06	1.627518e-06	1.863617e-09	2.335643e+01	1.209713e+02
1.490000e-06	1.675324e-06	1.929225e-09	2.404249e+01	1.251563e+02
1.500000e-06	1.722903e-06	1.990736e-09	2.472529e+01	1.291873e+02
1.510000e-06	1.770282e-06	2.048450e-09	2.540521e+01	1.330687e+02
1.520000e-06	1.817498e-06	2.105062e-09	2.608281e+01	1.368057e+02
1.530000e-06	1.864431e-06	2.158648e-09	2.675635e+01	1.404044e+02
1.540000e-06	1.910972e-06	2.209919e-09	2.742426e+01	1.438711e+02
1.550000e-06	1.957061e-06	2.259156e-09	2.808568e+01	1.472125e+02
1.560000e-06	2.002757e-06	2.305049e-09	2.874145e+01	1.504355e+02
1.570000e-06	2.048181e-06	2.350314e-09	2.939334e+01	1.535469e+02
1.580000e-06	2.093254e-06	2.396717e-09	3.004017e+01	1.565532e+02
1.590000e-06	2.137943e-06	2.440342e-09	3.068151e+01	1.594607e+02
1.600000e-06	2.182268e-06	2.479824e-09	3.131761e+01	1.622749e+02
1.610000e-06	2.226212e-06	2.519688e-09	3.194824e+01	1.650012e+02
1.620000e-06	2.269866e-06	2.560626e-09	3.257472e+01	1.676440e+02
1.630000e-06	2.313312e-06	2.600848e-09	3.319822e+01	1.702070e+02
1.640000e-06	2.356541e-06	2.636981e-09	3.381859e+01	1.726933e+02
1.650000e-06	2.399397e-06	2.669781e-09	3.443361e+01	1.751054e+02
1.660000e-06	2.441715e-06	2.703971e-09	3.504093e+01	1.774453e+02
1.670000e-06	2.483289e-06	2.738305e-09	3.563755e+01	1.797141e+02
1.680000e-06	2.524037e-06	2.769811e-09	3.622231e+01	1.819130e+02
1.690000e-06	2.564162e-06	2.799759e-09	3.679815e+01	1.840427e+02
1.700000e-06	2.603853e-06	2.830002e-09	3.736776e+01	1.861036e+02
1.710000e-06	2.643272e-06	2.859415e-09	3.793346e+01	1.880964e+02
1.720000e-06	2.682409e-06	2.887288e-09	3.849510e+01	1.900216e+02
1.730000e-06	2.721139e-06	2.913952e-09	3.905092e+01	1.918801e+02
1.740000e-06	2.759345e-06	2.940436e-09	3.959921e+01	1.936729e+02
1.750000e-06	2.797053e-06	2.968196e-09	4.014036e+01	1.954015e+02
1.760000e-06	2.834326e-06	2.993730e-09	4.067525e+01	1.970673e+02
1.770000e-06	2.871054e-06	3.016882e-09	4.120234e+01	1.986725e+02
1.780000e-06	2.907294e-06	3.039494e-09	4.172242e+01	2.002194e+02
1.790000e-06	2.943153e-06	3.060927e-09	4.223702e+01	2.017105e+02
1.800000e-06	2.978691e-06	3.082430e-09	4.274703e+01	2.031484e+02
1.810000e-06	3.013933e-06	3.103285e-09	4.325279e+01	2.045360e+02
1.820000e-06	3.048760e-06	3.123923e-09	4.375260e+01	2.058759e+02
1.830000e-06	3.082832e-06	3.146489e-09	4.424156e+01	2.071710e+02
1.840000e-06	3.115939e-06	3.168562e-09	4.471667e+01	2.084236e+02
1.850000e-06	3.148193e-06	3.188425e-09	4.517955e+01	2.096360e+02
1.860000e-06	3.179894e-06	3.206782e-09	4.563449e+01	2.108103e+02
1.870000e-06	3.211272e-06	3.225623e-09	4.608479e+01	2.119480e+02
1.880000e-06	3.242243e-06	3.244550e-09	4.652926e+01	2.130505e+02
1.890000e-06	3.272620e-06	3.262267e-09	4.696520e+01	2.141187e+02
1.900000e-06	3.302370e-06	3.277685e-09	4.739213e+01	2.151534e+02
1.910000e-06	3.331572e-06	3.294274e-09	4.781120e+01	2.161551e+02
1.920000e-06	3.360131e-06	3.312002e-09	4.822106e+01	2.171240e+02
1.930000e-06	3.388089e-06	3.327239e-09	4.862229e+01	2.180603e+02
1.940000e-06	3.415653e-06	3.341071e-09	4.901785e+01	2.189642e+02
1.950000e-06	3.442882e-06	3.354846e-09	4.940862e+01	2.198358e+02
1.960000e-06	3.469568e-06	3.370948e-09	4.979158e+01	2.206754e+02
1.970000e-06	3.495332e-06	3.386096e-09	5.016132e+01	2.214834e+02
1.980000e-06	3.520064e-06	3.397933e-09	5.051625e+01	2.222603e+02
1.990000e-06	3.544012e-06	3.409036e-09	5.085992e+01	2.230070e+02
2.000000e-06	3.567420e-06	3.422023e-09	5.119584e+01	2.237244e+02
2.010000e-06	3.590301e-06	3.434727e-09	5.152421e+01	2.244135e+02
2.020000e-06	3.612598e-06	3.445261e-09	5.184421e+01	2.250758e+02
2.030000e-06	3.634275e-06	3.456441e-09	5.215528e+01	2.257123e+02
2.040000e-06	3.655321e-06	3.468141e-09	5.245732e+01	2.263246e+02
2.050000e-06	3.675754e-06	3.479062e-09	5.275055e+01	2.269139e+02
2.060000e-06	3.695657e-06	3.489570e-09	5.303618e+01	2.274815e+02
2.070000e-06	3.715140e-06	3.499285e-09	5.331577e+01	2.280285e+02
2.080000e-06	3.734146e-06	3.508885e-09	5.358853e+01	2.285558e+02
2.090000e-06	3.752431e-06	3.518925e-09	5.385093e+01	2.290640e+02
2.100000e-06	3.769968e-06	3.527445e-09	5.410261e+01	2.295537e+02
2.110000e-06	3.786892e-06	3.533731e-09	5.434548e+01	2.300251e+02
2.120000e-06	3.803202e-06	3.539568e-09	5.457954e+01	2.304783e+02
2.130000e-06	3.818885e-06	3.547691e-09	5.480461e+01	2.309131e+02
2.140000e-06	3.833739e-06	3.556754e-09	5.501777e+01	2.313294e+02
2.150000e-06	3.847787e-06	3.562467e-09	5.521939e+01	2.317268e+02
2.160000e-06	3.861179e-06	3.567279e-09	5.541158e+01	2.321049e+02
2.170000e-06	3.873807e-06	3.575737e-09	5.559279e+01	2.324634e+02
2.180000e-06	3.885685e-06	3.584856e-09	5.576325e+01	2.328022e+02
2.190000e-06	3.896927e-06	3.589458e-09	5.592459e+01	2.331210e+02
2.200000e-06	3.907389e-06	3.591716e-09	5.607472e+01	2.334199e+02
2.210000e-06	3.916771e-06	3.597463e-09	5.620936e+01	2.336992e+02
2.220000e-06	3.925186e-06	3.604424e-09	5.633014e+01	2.339590e+02
2.230000e-06	3.932925e-06	3.608864e-09	5.644119e+01	2.342000e+02
2.240000e-06	3.940073e-06	3.612134e-09	5.654377e+01	2.344227e+02
2.250000e-06	3.946577e-06	3.616756e-09	5.663711e+01	2.346278e+02
2.260000e-06	3.952416e-06	3.621029e-09	5.672091e+01	2.348160e+02
2.270000e-06	3.957597e-06	3.623201e-09	5.679526e+01	2.349878e+02
2.280000e-06	3.962065e-06	3.627138e-09	5.685938e+01	2.351439e+02
2.290000e-06	3.965951e-06	3.632076e-09	5.691515e+01	2.352847e+02
2.300000e-06	3.969373e-06	3.635554e-09	5.696425e+01	2.354104e+02
2.310000e-06	3.972159e-06	3.637646e-09	5.700424e+01	2.355211e+02
2.320000e-06	3.973987e-06	3.638967e-09	5.703047e+01	2.356167e+02
2.330000e-06	3.974755e-06	3.640297e-09	5.704150e+01	2.356968e+02
2.340000e-06	3.974736e-06	3.641717e-09	5.704122e+01	2.357608e+02
2.350000e-06	3.974162e-06	3.642496e-09	5.703298e+01	2.358082e+02
2.360000e-06	3.972997e-06	3.641575e-09	5.701627e+01	2.358380e+02
2.370000e-06	3.971200e-06	3.641860e-09	5.699048e+01	2.358495e+02
2.380000e-06	3.968813e-06	3.641981e-09	5.695622e+01	2.358419e+02
2.390000e-06	3.965787e-06	3.643014e-09	5.691280e+01	2.358145e+02
2.400000e-06	3.962112e-06	3.652446e-09	5.686005e+01	2.357667e+02
2.410000e-06	3.957918e-06	3.667609e-09	5.679987e+01	2.356981e+02
2.420000e-06	3.953311e-06	3.625099e-09	5.673375e+01	2.356086e+02
2.430000e-06	3.948039e-06	3.551340e-09	5.665809e+01	2.354984e+02
2.440000e-06	3.941612e-06	3.586477e-09	5.656585e+01	2.353679e+02
2.450000e-06	3.933934e-06	3.686002e-09	5.645567e+01	2.352176e+02
2.460000e-06	3.925583e-06	3.695919e-09	5.633583e+01	2.350486e+02
2.470000e-06	3.917100e-06	3.612819e-09	5.621409e+01	2.348620e+02
2.480000e-06	3.908094e-06	3.574722e-09	5.608484e+01	2.346589e+02
2.490000e-06	3.898049e-06	3.563562e-09	5.594068e+01	2.344408e+02
2.500000e-06	3.887380e-06	3.581709e-09	5.578757e+01	2.342089e+02
2.510000e-06	3.876535e-06	3.637100e-09	5.563194e+01	2.339645e+02
2.520000e-06	3.864886e-06	3.597487e-09	5.546477e+01	2.337087e+02
2.530000e-06	3.851896e-06	3.476966e-09	5.527835e+01	2.334424e+02
2.540000e-06	3.838293e-06	3.576705e-09	5.508313e+01	2.331662e+02
2.550000e-06	3.824320e-06	3.675004e-09	5.488260e+01	2.328804e+02
2.560000e-06	3.809237e-06	3.501361e-09	5.466615e+01	2.325851e+02
2.570000e-06	3.793095e-06	3.413647e-09	5.443451e+01	2.322799e+02
2.580000e-06	3.776453e-06	3.526289e-09	5.419568e+01	2.319641e+02
2.590000e-06	3.759295e-06	3.496499e-09	5.394945e+01	2.316369e+02
2.600000e-06	3.741381e-06	3.380144e-09	5.369236e+01	2.312971e+02
2.610000e-06	3.722812e-06	3.480897e-09	5.342587e+01	2.309432e+02
2.620000e-06	3.703667e-06	3.478397e-09	5.315112e+01	2.305739e+02
2.630000e-06	3.683883e-06	3.401570e-09	5.286720e+01	2.301876e+02
2.640000e-06	3.663595e-06	3.493585e-09	5.257605e+01	2.297826e+02
2.650000e-06	3.642846e-06	3.514922e-09	5.227828e+01	2.293576e+02
2.660000e-06	3.621474e-06	3.414346e-09	5.197157e+01	2.289112e+02
2.670000e-06	3.599113e-06	3.410028e-09	5.165067e+01	2.284422e+02
2.680000e-06	3.575628e-06	3.472928e-09	5.131365e+01	2.279495e+02
2.690000e-06	3.551478e-06	3.486898e-09	5.096706e+01	2.274325e+02
2.700000e-06	3.526779e-06	3.417961e-09	5.061261e+01	2.268905e+02
2.710000e-06	3.501330e-06	3.348941e-09	5.024740e+01	2.263233e+02
2.720000e-06	3.475449e-06	3.442100e-09	4.987598e+01	2.257308e+02
2.730000e-06	3.449179e-06	3.464456e-09	4.949898e+01	2.251130e+02
2.740000e-06	3.422129e-06	3.337699e-09	4.911079e+01	2.244702e+02
2.750000e-06	3.394359e-06	3.376983e-09	4.871227e+01	2.238027e+02
2.760000e-06	3.366217e-06	3.405496e-09	4.830840e+01	2.231111e+02
2.770000e-06	3.337699e-06	3.322358e-09	4.789914e+01	2.223957e+02
2.780000e-06	3.308591e-06	3.349529e-09	4.748141e+01	2.216571e+02
2.790000e-06	3.278802e-06	3.362934e-09	4.705391e+01	2.208957e+02
2.800000e-06	3.248306e-06	3.309972e-09	4.661626e+01	2.201119e+02
2.810000e-06	3.217001e-06	3.296697e-09	4.616701e+01	2.193061e+02
2.820000e-06	3.184975e-06	3.301130e-09	4.570740e+01	2.184784e+02
2.830000e-06	3.152536e-06	3.314707e-09	4.524188e+01	2.176291e+02
2.840000e-06	3.119669e-06	3.272456e-09	4.477020e+01	2.167581e+02
2.850000e-06	3.086214e-06	3.231703e-09	4.429009e+01	2.158654e+02
2.860000e-06	3.052249e-06	3.261189e-09	4.380266e+01	2.149509e+02
2.870000e-06	3.017881e-06	3.244499e-09	4.330945e+01	2.140142e+02
2.880000e-06	2.982998e-06	3.200208e-09	4.280884e+01	2.130550e+02
2.890000e-06	2.947510e-06	3.197254e-09	4.229955e+01	2.120730e+02
2.900000e-06	2.911550e-06	3.203882e-09	4.178350e+01	2.110676e+02
2.910000e-06	2.875317e-06	3.173840e-09	4.126352e+01	2.100385e+02
2.920000e-06	2.838744e-06	3.138657e-09	4.073866e+01	2.089849e+02
2.930000e-06	2.801663e-06	3.149787e-09	4.020651e+01	2.079063e+02
2.940000e-06	2.763922e-06	3.138585e-09	3.966490e+01	2.068021e+02
2.950000e-06	2.725289e-06	3.091889e-09	3.911048e+01	2.056718e+02
