# Temperatura_=_20.0
# Concentracion g/m^3_=_9000.0
# C_Vs_to_Am_M_A/Vsm_=_65563218390.804596
# pendiente_HvsI_1/m_=_3716.3
# ordenada_HvsI_A/m_=_1297.0
# frecuencia_Hz_=_212875.9257435595

Tiempo_(s)	Campo_(V.s)	Magnetizacion_(V.s)	Campo_(kA/m)	Magnetizacion_(A/m)
0.000000e+00	-3.964703e-06	-3.519317e-09	-5.697989e+01	-2.342160e+02
1.000000e-08	-3.964801e-06	-3.521012e-09	-5.698129e+01	-2.343039e+02
2.000000e-08	-3.964185e-06	-3.522773e-09	-5.697244e+01	-2.343688e+02
3.000000e-08	-3.962662e-06	-3.525575e-09	-5.695056e+01	-2.344070e+02
4.000000e-08	-3.960152e-06	-3.526042e-09	-5.691448e+01	-2.344150e+02
5.000000e-08	-3.956884e-06	-3.523856e-09	-5.686752e+01	-2.343905e+02
6.000000e-08	-3.953158e-06	-3.515112e-09	-5.681396e+01	-2.343320e+02
7.000000e-08	-3.948884e-06	-3.505110e-09	-5.675254e+01	-2.342393e+02
8.000000e-08	-3.943831e-06	-3.528956e-09	-5.667993e+01	-2.341138e+02
9.000000e-08	-3.937973e-06	-3.574191e-09	-5.659573e+01	-2.339577e+02
1.000000e-07	-3.931361e-06	-3.575005e-09	-5.650071e+01	-2.337748e+02
1.100000e-07	-3.924149e-06	-3.493138e-09	-5.639705e+01	-2.335700e+02
1.200000e-07	-3.916507e-06	-3.446081e-09	-5.628723e+01	-2.333489e+02
1.300000e-07	-3.908304e-06	-3.477980e-09	-5.616933e+01	-2.331177e+02
1.400000e-07	-3.899272e-06	-3.516026e-09	-5.603953e+01	-2.328827e+02
1.500000e-07	-3.889429e-06	-3.577779e-09	-5.589807e+01	-2.326501e+02
1.600000e-07	-3.878810e-06	-3.510869e-09	-5.574545e+01	-2.324254e+02
1.700000e-07	-3.867154e-06	-3.486759e-09	-5.557793e+01	-2.322134e+02
1.800000e-07	-3.854523e-06	-3.487504e-09	-5.539641e+01	-2.320176e+02
1.900000e-07	-3.841388e-06	-3.580862e-09	-5.520763e+01	-2.318400e+02
2.000000e-07	-3.827623e-06	-3.562578e-09	-5.500980e+01	-2.316811e+02
2.100000e-07	-3.812656e-06	-3.484829e-09	-5.479470e+01	-2.315397e+02
2.200000e-07	-3.796642e-06	-3.564347e-09	-5.456456e+01	-2.314131e+02
2.300000e-07	-3.780156e-06	-3.582915e-09	-5.432762e+01	-2.312970e+02
2.400000e-07	-3.763222e-06	-3.630248e-09	-5.408425e+01	-2.311859e+02
2.500000e-07	-3.745629e-06	-3.584304e-09	-5.383141e+01	-2.310732e+02
2.600000e-07	-3.727385e-06	-3.589946e-09	-5.356921e+01	-2.309518e+02
2.700000e-07	-3.708562e-06	-3.575988e-09	-5.329868e+01	-2.308143e+02
2.800000e-07	-3.689200e-06	-3.630684e-09	-5.302041e+01	-2.306532e+02
2.900000e-07	-3.669350e-06	-3.618088e-09	-5.273514e+01	-2.304618e+02
3.000000e-07	-3.648911e-06	-3.507995e-09	-5.244139e+01	-2.302337e+02
3.100000e-07	-3.627758e-06	-3.512696e-09	-5.213739e+01	-2.299641e+02
3.200000e-07	-3.605953e-06	-3.545539e-09	-5.182401e+01	-2.296489e+02
3.300000e-07	-3.583522e-06	-3.578803e-09	-5.150164e+01	-2.292857e+02
3.400000e-07	-3.560479e-06	-3.529092e-09	-5.117046e+01	-2.288735e+02
3.500000e-07	-3.536872e-06	-3.471112e-09	-5.083119e+01	-2.284125e+02
3.600000e-07	-3.512769e-06	-3.502813e-09	-5.048479e+01	-2.279042e+02
3.700000e-07	-3.488144e-06	-3.537765e-09	-5.013087e+01	-2.273512e+02
3.800000e-07	-3.462636e-06	-3.496283e-09	-4.976429e+01	-2.267569e+02
3.900000e-07	-3.436057e-06	-3.474874e-09	-4.938230e+01	-2.261251e+02
4.000000e-07	-3.408732e-06	-3.459645e-09	-4.898959e+01	-2.254601e+02
4.100000e-07	-3.381026e-06	-3.464583e-09	-4.859141e+01	-2.247660e+02
4.200000e-07	-3.352840e-06	-3.478856e-09	-4.818632e+01	-2.240467e+02
4.300000e-07	-3.324002e-06	-3.454086e-09	-4.777186e+01	-2.233055e+02
4.400000e-07	-3.294636e-06	-3.408551e-09	-4.734983e+01	-2.225453e+02
4.500000e-07	-3.264783e-06	-3.409665e-09	-4.692078e+01	-2.217680e+02
4.600000e-07	-3.234331e-06	-3.441175e-09	-4.648314e+01	-2.209747e+02
4.700000e-07	-3.203340e-06	-3.399118e-09	-4.603773e+01	-2.201658e+02
4.800000e-07	-3.171974e-06	-3.360194e-09	-4.558696e+01	-2.193410e+02
4.900000e-07	-3.140276e-06	-3.358535e-09	-4.513140e+01	-2.184993e+02
5.000000e-07	-3.108171e-06	-3.361726e-09	-4.466999e+01	-2.176392e+02
5.100000e-07	-3.075363e-06	-3.357970e-09	-4.419848e+01	-2.167590e+02
5.200000e-07	-3.041676e-06	-3.316343e-09	-4.371433e+01	-2.158568e+02
5.300000e-07	-3.007120e-06	-3.293977e-09	-4.321770e+01	-2.149307e+02
5.400000e-07	-2.971919e-06	-3.306420e-09	-4.271180e+01	-2.139791e+02
5.500000e-07	-2.936384e-06	-3.297544e-09	-4.220111e+01	-2.130006e+02
5.600000e-07	-2.900519e-06	-3.265534e-09	-4.168565e+01	-2.119942e+02
5.700000e-07	-2.864199e-06	-3.231602e-09	-4.116368e+01	-2.109592e+02
5.800000e-07	-2.827359e-06	-3.227218e-09	-4.063422e+01	-2.098954e+02
5.900000e-07	-2.790016e-06	-3.220911e-09	-4.009753e+01	-2.088030e+02
6.000000e-07	-2.752170e-06	-3.201363e-09	-3.955361e+01	-2.076823e+02
6.100000e-07	-2.713811e-06	-3.178054e-09	-3.900233e+01	-2.065339e+02
6.200000e-07	-2.674986e-06	-3.142628e-09	-3.844435e+01	-2.053583e+02
6.300000e-07	-2.635784e-06	-3.141185e-09	-3.788094e+01	-2.041560e+02
6.400000e-07	-2.596289e-06	-3.138171e-09	-3.731333e+01	-2.029275e+02
6.500000e-07	-2.556479e-06	-3.102279e-09	-3.674118e+01	-2.016728e+02
6.600000e-07	-2.516177e-06	-3.068982e-09	-3.616198e+01	-2.003917e+02
6.700000e-07	-2.475163e-06	-3.055895e-09	-3.557253e+01	-1.990834e+02
6.800000e-07	-2.433386e-06	-3.055180e-09	-3.497211e+01	-1.977472e+02
6.900000e-07	-2.390978e-06	-3.025095e-09	-3.436264e+01	-1.963815e+02
7.000000e-07	-2.348019e-06	-2.987502e-09	-3.374524e+01	-1.949847e+02
7.100000e-07	-2.304661e-06	-2.970717e-09	-3.312210e+01	-1.935549e+02
7.200000e-07	-2.261060e-06	-2.957250e-09	-3.249548e+01	-1.920900e+02
7.300000e-07	-2.217193e-06	-2.940458e-09	-3.186503e+01	-1.905881e+02
7.400000e-07	-2.172912e-06	-2.904527e-09	-3.122864e+01	-1.890470e+02
7.500000e-07	-2.128168e-06	-2.872745e-09	-3.058558e+01	-1.874649e+02
7.600000e-07	-2.083068e-06	-2.855401e-09	-2.993741e+01	-1.858400e+02
7.700000e-07	-2.037651e-06	-2.832815e-09	-2.928470e+01	-1.841709e+02
7.800000e-07	-1.991943e-06	-2.804312e-09	-2.862779e+01	-1.824564e+02
7.900000e-07	-1.945937e-06	-2.765648e-09	-2.796660e+01	-1.806957e+02
8.000000e-07	-1.899540e-06	-2.736887e-09	-2.729980e+01	-1.788880e+02
8.100000e-07	-1.852722e-06	-2.718273e-09	-2.662694e+01	-1.770329e+02
8.200000e-07	-1.805652e-06	-2.689378e-09	-2.595045e+01	-1.751298e+02
8.300000e-07	-1.758389e-06	-2.652264e-09	-2.527120e+01	-1.731785e+02
8.400000e-07	-1.710921e-06	-2.614337e-09	-2.458900e+01	-1.711784e+02
8.500000e-07	-1.663246e-06	-2.592949e-09	-2.390383e+01	-1.691290e+02
8.600000e-07	-1.615330e-06	-2.570030e-09	-2.321519e+01	-1.670294e+02
8.700000e-07	-1.567102e-06	-2.528891e-09	-2.252206e+01	-1.648784e+02
8.800000e-07	-1.518431e-06	-2.491036e-09	-2.182257e+01	-1.626747e+02
8.900000e-07	-1.469270e-06	-2.458420e-09	-2.111604e+01	-1.604164e+02
9.000000e-07	-1.419703e-06	-2.428305e-09	-2.040368e+01	-1.581013e+02
9.100000e-07	-1.369757e-06	-2.390487e-09	-1.968586e+01	-1.557270e+02
9.200000e-07	-1.319350e-06	-2.347156e-09	-1.896142e+01	-1.532908e+02
9.300000e-07	-1.268603e-06	-2.308689e-09	-1.823209e+01	-1.507895e+02
9.400000e-07	-1.217590e-06	-2.269459e-09	-1.749895e+01	-1.482201e+02
9.500000e-07	-1.166365e-06	-2.233440e-09	-1.676276e+01	-1.455792e+02
9.600000e-07	-1.114954e-06	-2.188846e-09	-1.602388e+01	-1.428634e+02
9.700000e-07	-1.063282e-06	-2.138601e-09	-1.528127e+01	-1.400690e+02
9.800000e-07	-1.011444e-06	-2.095862e-09	-1.453626e+01	-1.371926e+02
9.900000e-07	-9.594674e-07	-2.053312e-09	-1.378927e+01	-1.342303e+02
1.000000e-06	-9.072744e-07	-2.009521e-09	-1.303916e+01	-1.311786e+02
1.010000e-06	-8.548074e-07	-1.958812e-09	-1.228512e+01	-1.280334e+02
1.020000e-06	-8.021112e-07	-1.907630e-09	-1.152778e+01	-1.247907e+02
1.030000e-06	-7.493440e-07	-1.859957e-09	-1.076942e+01	-1.214463e+02
1.040000e-06	-6.964922e-07	-1.808253e-09	-1.000984e+01	-1.179956e+02
1.050000e-06	-6.434858e-07	-1.753097e-09	-9.248044e+00	-1.144341e+02
1.060000e-06	-5.903156e-07	-1.692426e-09	-8.483893e+00	-1.107566e+02
1.070000e-06	-5.370138e-07	-1.633282e-09	-7.717850e+00	-1.069580e+02
1.080000e-06	-4.836419e-07	-1.573284e-09	-6.950800e+00	-1.030331e+02
1.090000e-06	-4.302456e-07	-1.507509e-09	-6.183400e+00	-9.897651e+01
1.100000e-06	-3.768525e-07	-1.442143e-09	-5.416046e+00	-9.478306e+01
1.110000e-06	-3.234362e-07	-1.374750e-09	-4.648358e+00	-9.044785e+01
1.120000e-06	-2.699758e-07	-1.307041e-09	-3.880036e+00	-8.596649e+01
1.130000e-06	-2.164652e-07	-1.238279e-09	-3.110993e+00	-8.133529e+01
1.140000e-06	-1.628796e-07	-1.164973e-09	-2.340872e+00	-7.655150e+01
1.150000e-06	-1.092439e-07	-1.089862e-09	-1.570031e+00	-7.161356e+01
1.160000e-06	-5.562457e-08	-1.010466e-09	-7.994247e-01	-6.652127e+01
1.170000e-06	-2.052928e-09	-9.288627e-10	-2.950426e-02	-6.127597e+01
1.180000e-06	5.151229e-08	-8.446899e-10	7.403239e-01	-5.588071e+01
1.190000e-06	1.050655e-07	-7.572947e-10	1.509980e+00	-5.034030e+01
1.200000e-06	1.585518e-07	-6.721960e-10	2.278674e+00	-4.466140e+01
1.210000e-06	2.120057e-07	-5.843824e-10	3.046902e+00	-3.885244e+01
1.220000e-06	2.654412e-07	-4.940664e-10	3.814865e+00	-3.292358e+01
1.230000e-06	3.188576e-07	-4.006492e-10	4.582555e+00	-2.688655e+01
1.240000e-06	3.722080e-07	-3.068774e-10	5.349296e+00	-2.075449e+01
1.250000e-06	4.254816e-07	-2.149024e-10	6.114933e+00	-1.454172e+01
1.260000e-06	4.787310e-07	-1.158449e-10	6.880223e+00	-8.263457e+00
1.270000e-06	5.319116e-07	-1.662335e-11	7.644524e+00	-1.935579e+00
1.280000e-06	5.849831e-07	8.071791e-11	8.407256e+00	4.425660e+00
1.290000e-06	6.379621e-07	1.767297e-10	9.168659e+00	1.080390e+01
1.300000e-06	6.907362e-07	2.737777e-10	9.927117e+00	1.718291e+01
1.310000e-06	7.433475e-07	3.744285e-10	1.068324e+01	2.354683e+01
1.320000e-06	7.958441e-07	4.713709e-10	1.143771e+01	2.988031e+01
1.330000e-06	8.481521e-07	5.695389e-10	1.218947e+01	3.616872e+01
1.340000e-06	9.003032e-07	6.668512e-10	1.293897e+01	4.239818e+01
1.350000e-06	9.522625e-07	7.625025e-10	1.368572e+01	4.855568e+01
1.360000e-06	1.004032e-06	8.575230e-10	1.442974e+01	5.462910e+01
1.370000e-06	1.055663e-06	9.480265e-10	1.517176e+01	6.060721e+01
1.380000e-06	1.107160e-06	1.036031e-09	1.591187e+01	6.647968e+01
1.390000e-06	1.158491e-06	1.122115e-09	1.664959e+01	7.223704e+01
1.400000e-06	1.209594e-06	1.208548e-09	1.738403e+01	7.787069e+01
1.410000e-06	1.260512e-06	1.294048e-09	1.811582e+01	8.337288e+01
1.420000e-06	1.311176e-06	1.374576e-09	1.884395e+01	8.873669e+01
1.430000e-06	1.361389e-06	1.454516e-09	1.956560e+01	9.395609e+01
1.440000e-06	1.411113e-06	1.533758e-09	2.028023e+01	9.902593e+01
1.450000e-06	1.460281e-06	1.609848e-09	2.098685e+01	1.039420e+02
1.460000e-06	1.509079e-06	1.680586e-09	2.168817e+01	1.087012e+02
1.470000e-06	1.557515e-06	1.747741e-09	2.238428e+01	1.133013e+02
1.480000e-06	1.605527e-06	1.815890e-09	2.307430e+01	1.177415e+02
1.490000e-06	1.653341e-06	1.881302e-09	2.376147e+01	1.220218e+02
1.500000e-06	1.700966e-06	1.943540e-09	2.444593e+01	1.261437e+02
1.510000e-06	1.748390e-06	2.002987e-09	2.512750e+01	1.301098e+02
1.520000e-06	1.795597e-06	2.061018e-09	2.580595e+01	1.339239e+02
1.530000e-06	1.842546e-06	2.117841e-09	2.648069e+01	1.375907e+02
1.540000e-06	1.889133e-06	2.170290e-09	2.715022e+01	1.411160e+02
1.550000e-06	1.935308e-06	2.219838e-09	2.781385e+01	1.445063e+02
1.560000e-06	1.981120e-06	2.267464e-09	2.847225e+01	1.477689e+02
1.570000e-06	2.026605e-06	2.313495e-09	2.912595e+01	1.509113e+02
1.580000e-06	2.071738e-06	2.358537e-09	2.977458e+01	1.539411e+02
1.590000e-06	2.116515e-06	2.400550e-09	3.041812e+01	1.568658e+02
1.600000e-06	2.160937e-06	2.442184e-09	3.105654e+01	1.596928e+02
1.610000e-06	2.204944e-06	2.484199e-09	3.168900e+01	1.624287e+02
1.620000e-06	2.248656e-06	2.523959e-09	3.231722e+01	1.650795e+02
1.630000e-06	2.292189e-06	2.562439e-09	3.294286e+01	1.676503e+02
1.640000e-06	2.335522e-06	2.599593e-09	3.356563e+01	1.701455e+02
1.650000e-06	2.378568e-06	2.634929e-09	3.418428e+01	1.725682e+02
1.660000e-06	2.421060e-06	2.668603e-09	3.479498e+01	1.749210e+02
1.670000e-06	2.462802e-06	2.699798e-09	3.539487e+01	1.772054e+02
1.680000e-06	2.503788e-06	2.731349e-09	3.598392e+01	1.794223e+02
1.690000e-06	2.544073e-06	2.762642e-09	3.656289e+01	1.815722e+02
1.700000e-06	2.583889e-06	2.792294e-09	3.713511e+01	1.836550e+02
1.710000e-06	2.623458e-06	2.819456e-09	3.770380e+01	1.856709e+02
1.720000e-06	2.662734e-06	2.846840e-09	3.826826e+01	1.876198e+02
1.730000e-06	2.701585e-06	2.875959e-09	3.882662e+01	1.895020e+02
1.740000e-06	2.739929e-06	2.903427e-09	3.937769e+01	1.913182e+02
1.750000e-06	2.777816e-06	2.930643e-09	3.992220e+01	1.930695e+02
1.760000e-06	2.815230e-06	2.956271e-09	4.045990e+01	1.947578e+02
1.770000e-06	2.852122e-06	2.980666e-09	4.099010e+01	1.963851e+02
1.780000e-06	2.888522e-06	3.004567e-09	4.151323e+01	1.979543e+02
1.790000e-06	2.924502e-06	3.025955e-09	4.203034e+01	1.994686e+02
1.800000e-06	2.960182e-06	3.046975e-09	4.254312e+01	2.009313e+02
1.810000e-06	2.995514e-06	3.069118e-09	4.305090e+01	2.023461e+02
1.820000e-06	3.030399e-06	3.092197e-09	4.355227e+01	2.037163e+02
1.830000e-06	3.064634e-06	3.114602e-09	4.404428e+01	2.050453e+02
1.840000e-06	3.097988e-06	3.136077e-09	4.452365e+01	2.063359e+02
1.850000e-06	3.130498e-06	3.157195e-09	4.499087e+01	2.075905e+02
1.860000e-06	3.162373e-06	3.176514e-09	4.544896e+01	2.088109e+02
1.870000e-06	3.193837e-06	3.194595e-09	4.590117e+01	2.099982e+02
1.880000e-06	3.224937e-06	3.212662e-09	4.634813e+01	2.111530e+02
1.890000e-06	3.255501e-06	3.231314e-09	4.678739e+01	2.122750e+02
1.900000e-06	3.285485e-06	3.249929e-09	4.721831e+01	2.133637e+02
1.910000e-06	3.314883e-06	3.267533e-09	4.764080e+01	2.144182e+02
1.920000e-06	3.343633e-06	3.284054e-09	4.805400e+01	2.154374e+02
1.930000e-06	3.371795e-06	3.300560e-09	4.845874e+01	2.164199e+02
1.940000e-06	3.399543e-06	3.316251e-09	4.885752e+01	2.173649e+02
1.950000e-06	3.426939e-06	3.329670e-09	4.925126e+01	2.182714e+02
1.960000e-06	3.453783e-06	3.342123e-09	4.963705e+01	2.191394e+02
1.970000e-06	3.479800e-06	3.356006e-09	5.001096e+01	2.199688e+02
1.980000e-06	3.504839e-06	3.370774e-09	5.037082e+01	2.207607e+02
1.990000e-06	3.529012e-06	3.384104e-09	5.071823e+01	2.215162e+02
2.000000e-06	3.552592e-06	3.396526e-09	5.105712e+01	2.222374e+02
2.010000e-06	3.575666e-06	3.408661e-09	5.138872e+01	2.229265e+02
2.020000e-06	3.598122e-06	3.420182e-09	5.171147e+01	2.235861e+02
2.030000e-06	3.619983e-06	3.431308e-09	5.202565e+01	2.242191e+02
2.040000e-06	3.641281e-06	3.442038e-09	5.233173e+01	2.248281e+02
2.050000e-06	3.661946e-06	3.452733e-09	5.262873e+01	2.254157e+02
2.060000e-06	3.682022e-06	3.462673e-09	5.291726e+01	2.259840e+02
2.070000e-06	3.701678e-06	3.472322e-09	5.319974e+01	2.265346e+02
2.080000e-06	3.720884e-06	3.483042e-09	5.347577e+01	2.270687e+02
2.090000e-06	3.739495e-06	3.492799e-09	5.374325e+01	2.275866e+02
2.100000e-06	3.757372e-06	3.500328e-09	5.400017e+01	2.280880e+02
2.110000e-06	3.774487e-06	3.507920e-09	5.424614e+01	2.285723e+02
2.120000e-06	3.791044e-06	3.515134e-09	5.448410e+01	2.290382e+02
2.130000e-06	3.807019e-06	3.521916e-09	5.471368e+01	2.294840e+02
2.140000e-06	3.822155e-06	3.530044e-09	5.493122e+01	2.299081e+02
2.150000e-06	3.836433e-06	3.538449e-09	5.513641e+01	2.303087e+02
2.160000e-06	3.850021e-06	3.544953e-09	5.533170e+01	2.306845e+02
2.170000e-06	3.862966e-06	3.551675e-09	5.551774e+01	2.310344e+02
2.180000e-06	3.875186e-06	3.559366e-09	5.569337e+01	2.313579e+02
2.190000e-06	3.886727e-06	3.565717e-09	5.585923e+01	2.316552e+02
2.200000e-06	3.897523e-06	3.570220e-09	5.601440e+01	2.319272e+02
2.210000e-06	3.907350e-06	3.574291e-09	5.615562e+01	2.321755e+02
2.220000e-06	3.916126e-06	3.579571e-09	5.628175e+01	2.324022e+02
2.230000e-06	3.924083e-06	3.584498e-09	5.639611e+01	2.326101e+02
2.240000e-06	3.931469e-06	3.587759e-09	5.650226e+01	2.328020e+02
2.250000e-06	3.938262e-06	3.591273e-09	5.659988e+01	2.329812e+02
2.260000e-06	3.944378e-06	3.595732e-09	5.668779e+01	2.331506e+02
2.270000e-06	3.949803e-06	3.599773e-09	5.676575e+01	2.333127e+02
2.280000e-06	3.954522e-06	3.603235e-09	5.683356e+01	2.334697e+02
2.290000e-06	3.958606e-06	3.607319e-09	5.689226e+01	2.336228e+02
2.300000e-06	3.962209e-06	3.611178e-09	5.694404e+01	2.337723e+02
2.310000e-06	3.965265e-06	3.614686e-09	5.698796e+01	2.339178e+02
2.320000e-06	3.967478e-06	3.618626e-09	5.701976e+01	2.340576e+02
2.330000e-06	3.968668e-06	3.621118e-09	5.703688e+01	2.341892e+02
2.340000e-06	3.968990e-06	3.622588e-09	5.704150e+01	2.343094e+02
2.350000e-06	3.968652e-06	3.623367e-09	5.703664e+01	2.344146e+02
2.360000e-06	3.967787e-06	3.624329e-09	5.702422e+01	2.345004e+02
2.370000e-06	3.966302e-06	3.625308e-09	5.700286e+01	2.345629e+02
2.380000e-06	3.964145e-06	3.624240e-09	5.697188e+01	2.345983e+02
2.390000e-06	3.961410e-06	3.625993e-09	5.693256e+01	2.346032e+02
2.400000e-06	3.958035e-06	3.634219e-09	5.688406e+01	2.345755e+02
2.410000e-06	3.954083e-06	3.651064e-09	5.682725e+01	2.345136e+02
2.420000e-06	3.949738e-06	3.636878e-09	5.676482e+01	2.344177e+02
2.430000e-06	3.944867e-06	3.577858e-09	5.669481e+01	2.342890e+02
2.440000e-06	3.939025e-06	3.554238e-09	5.661085e+01	2.341302e+02
2.450000e-06	3.931868e-06	3.623300e-09	5.650799e+01	2.339450e+02
2.460000e-06	3.923720e-06	3.675011e-09	5.639089e+01	2.337384e+02
2.470000e-06	3.915268e-06	3.667681e-09	5.626942e+01	2.335161e+02
2.480000e-06	3.906507e-06	3.609852e-09	5.614350e+01	2.332843e+02
2.490000e-06	3.896919e-06	3.536008e-09	5.600571e+01	2.330493e+02
2.500000e-06	3.886466e-06	3.554201e-09	5.585548e+01	2.328173e+02
2.510000e-06	3.875681e-06	3.604487e-09	5.570048e+01	2.325938e+02
2.520000e-06	3.864428e-06	3.617654e-09	5.553876e+01	2.323834e+02
2.530000e-06	3.851933e-06	3.489461e-09	5.535918e+01	2.321895e+02
2.540000e-06	3.838506e-06	3.510306e-09	5.516621e+01	2.320138e+02
2.550000e-06	3.824779e-06	3.590530e-09	5.496892e+01	2.318569e+02
2.560000e-06	3.810254e-06	3.547488e-09	5.476018e+01	2.317172e+02
2.570000e-06	3.794536e-06	3.493836e-09	5.453429e+01	2.315920e+02
2.580000e-06	3.778086e-06	3.460471e-09	5.429787e+01	2.314767e+02
2.590000e-06	3.761204e-06	3.447937e-09	5.405524e+01	2.313658e+02
2.600000e-06	3.743642e-06	3.420844e-09	5.380285e+01	2.312527e+02
2.610000e-06	3.725306e-06	3.474051e-09	5.353933e+01	2.311301e+02
2.620000e-06	3.706375e-06	3.424718e-09	5.326726e+01	2.309906e+02
2.630000e-06	3.686866e-06	3.432805e-09	5.298687e+01	2.308269e+02
2.640000e-06	3.666773e-06	3.515454e-09	5.269811e+01	2.306322e+02
2.650000e-06	3.646197e-06	3.497408e-09	5.240239e+01	2.304003e+02
2.660000e-06	3.625127e-06	3.464089e-09	5.209957e+01	2.301263e+02
2.670000e-06	3.603247e-06	3.438253e-09	5.178512e+01	2.298065e+02
2.680000e-06	3.580226e-06	3.460110e-09	5.145427e+01	2.294385e+02
2.690000e-06	3.556331e-06	3.484446e-09	5.111085e+01	2.290215e+02
2.700000e-06	3.531878e-06	3.460567e-09	5.075942e+01	2.285558e+02
2.710000e-06	3.506800e-06	3.410945e-09	5.039900e+01	2.280430e+02
2.720000e-06	3.481120e-06	3.417583e-09	5.002993e+01	2.274858e+02
2.730000e-06	3.455001e-06	3.449200e-09	4.965456e+01	2.268876e+02
2.740000e-06	3.428320e-06	3.411602e-09	4.927110e+01	2.262524e+02
2.750000e-06	3.400877e-06	3.409039e-09	4.887669e+01	2.255844e+02
2.760000e-06	3.372911e-06	3.384375e-09	4.847478e+01	2.248877e+02
2.770000e-06	3.344607e-06	3.352377e-09	4.806799e+01	2.241661e+02
2.780000e-06	3.315817e-06	3.404831e-09	4.765423e+01	2.234230e+02
2.790000e-06	3.286403e-06	3.373950e-09	4.723150e+01	2.226611e+02
2.800000e-06	3.256250e-06	3.316608e-09	4.679815e+01	2.218823e+02
2.810000e-06	3.225286e-06	3.337414e-09	4.635314e+01	2.210875e+02
2.820000e-06	3.193562e-06	3.332442e-09	4.589721e+01	2.202772e+02
2.830000e-06	3.161309e-06	3.328329e-09	4.543367e+01	2.194508e+02
2.840000e-06	3.128661e-06	3.292828e-09	4.496447e+01	2.186074e+02
2.850000e-06	3.095490e-06	3.262365e-09	4.448774e+01	2.177455e+02
2.860000e-06	3.061765e-06	3.287408e-09	4.400305e+01	2.168632e+02
2.870000e-06	3.027597e-06	3.267632e-09	4.351200e+01	2.159588e+02
2.880000e-06	2.993009e-06	3.240882e-09	4.301491e+01	2.150303e+02
2.890000e-06	2.957857e-06	3.225619e-09	4.250971e+01	2.140762e+02
2.900000e-06	2.922105e-06	3.219561e-09	4.199589e+01	2.130950e+02
2.910000e-06	2.885989e-06	3.212692e-09	4.147684e+01	2.120858e+02
2.920000e-06	2.849593e-06	3.185648e-09	4.095376e+01	2.110481e+02
2.930000e-06	2.812818e-06	3.175787e-09	4.042523e+01	2.099816e+02
2.940000e-06	2.775502e-06	3.153081e-09	3.988893e+01	2.088864e+02
2.950000e-06	2.737365e-06	3.137156e-09	3.934084e+01	2.077630e+02
