# Temperatura_=_20.0
# Concentracion g/m^3_=_9000.0
# C_Vs_to_Am_M_A/Vsm_=_65563218390.804596
# pendiente_HvsI_1/m_=_3716.3
# ordenada_HvsI_A/m_=_1297.0
# frecuencia_Hz_=_212875.22909171367

Tiempo_(s)	Campo_(V.s)	Magnetizacion_(V.s)	Campo_(kA/m)	Magnetizacion_(A/m)
0.000000e+00	-3.959067e-06	-3.612598e-09	-5.697988e+01	-2.377444e+02
1.000000e-08	-3.959075e-06	-3.615112e-09	-5.697999e+01	-2.377658e+02
2.000000e-08	-3.958241e-06	-3.615847e-09	-5.696800e+01	-2.377748e+02
3.000000e-08	-3.956470e-06	-3.613473e-09	-5.694251e+01	-2.377727e+02
4.000000e-08	-3.953827e-06	-3.612401e-09	-5.690446e+01	-2.377604e+02
5.000000e-08	-3.950548e-06	-3.609637e-09	-5.685727e+01	-2.377385e+02
6.000000e-08	-3.946773e-06	-3.598784e-09	-5.680294e+01	-2.377069e+02
7.000000e-08	-3.942421e-06	-3.592829e-09	-5.674031e+01	-2.376646e+02
8.000000e-08	-3.937383e-06	-3.640555e-09	-5.666779e+01	-2.376102e+02
9.000000e-08	-3.931467e-06	-3.683313e-09	-5.658265e+01	-2.375415e+02
1.000000e-07	-3.924730e-06	-3.612158e-09	-5.648569e+01	-2.374556e+02
1.100000e-07	-3.917486e-06	-3.487983e-09	-5.638143e+01	-2.373492e+02
1.200000e-07	-3.909868e-06	-3.591152e-09	-5.627179e+01	-2.372186e+02
1.300000e-07	-3.901511e-06	-3.698308e-09	-5.615152e+01	-2.370599e+02
1.400000e-07	-3.892171e-06	-3.601146e-09	-5.601710e+01	-2.368695e+02
1.500000e-07	-3.882135e-06	-3.562806e-09	-5.587265e+01	-2.366438e+02
1.600000e-07	-3.871305e-06	-3.609565e-09	-5.571679e+01	-2.363799e+02
1.700000e-07	-3.859365e-06	-3.633503e-09	-5.554495e+01	-2.360757e+02
1.800000e-07	-3.846731e-06	-3.591392e-09	-5.536311e+01	-2.357297e+02
1.900000e-07	-3.833784e-06	-3.708293e-09	-5.517677e+01	-2.353419e+02
2.000000e-07	-3.819800e-06	-3.543129e-09	-5.497552e+01	-2.349130e+02
2.100000e-07	-3.804422e-06	-3.466539e-09	-5.475419e+01	-2.344450e+02
2.200000e-07	-3.788438e-06	-3.718740e-09	-5.452415e+01	-2.339409e+02
2.300000e-07	-3.772035e-06	-3.664882e-09	-5.428807e+01	-2.334046e+02
2.400000e-07	-3.754920e-06	-3.421684e-09	-5.404174e+01	-2.328409e+02
2.500000e-07	-3.737122e-06	-3.453496e-09	-5.378559e+01	-2.322549e+02
2.600000e-07	-3.718758e-06	-3.709085e-09	-5.352129e+01	-2.316521e+02
2.700000e-07	-3.699849e-06	-3.542518e-09	-5.324915e+01	-2.310381e+02
2.800000e-07	-3.680431e-06	-3.446223e-09	-5.296969e+01	-2.304178e+02
2.900000e-07	-3.660457e-06	-3.507495e-09	-5.268221e+01	-2.297960e+02
3.000000e-07	-3.639790e-06	-3.506511e-09	-5.238477e+01	-2.291763e+02
3.100000e-07	-3.618477e-06	-3.525851e-09	-5.207803e+01	-2.285615e+02
3.200000e-07	-3.596509e-06	-3.501917e-09	-5.176185e+01	-2.279531e+02
3.300000e-07	-3.573896e-06	-3.482707e-09	-5.143640e+01	-2.273516e+02
3.400000e-07	-3.550756e-06	-3.447466e-09	-5.110336e+01	-2.267560e+02
3.500000e-07	-3.527111e-06	-3.442000e-09	-5.076307e+01	-2.261644e+02
3.600000e-07	-3.502973e-06	-3.520296e-09	-5.041565e+01	-2.255737e+02
3.700000e-07	-3.478175e-06	-3.513353e-09	-5.005876e+01	-2.249802e+02
3.800000e-07	-3.452331e-06	-3.331140e-09	-4.968681e+01	-2.243793e+02
3.900000e-07	-3.425473e-06	-3.386540e-09	-4.930026e+01	-2.237665e+02
4.000000e-07	-3.398107e-06	-3.564423e-09	-4.890640e+01	-2.231370e+02
4.100000e-07	-3.370375e-06	-3.424846e-09	-4.850727e+01	-2.224863e+02
4.200000e-07	-3.342041e-06	-3.256062e-09	-4.809949e+01	-2.218103e+02
4.300000e-07	-3.313092e-06	-3.420465e-09	-4.768284e+01	-2.211058e+02
4.400000e-07	-3.283655e-06	-3.467676e-09	-4.725918e+01	-2.203702e+02
4.500000e-07	-3.253721e-06	-3.316900e-09	-4.682836e+01	-2.196022e+02
4.600000e-07	-3.223181e-06	-3.326125e-09	-4.638882e+01	-2.188010e+02
4.700000e-07	-3.192115e-06	-3.356377e-09	-4.594171e+01	-2.179671e+02
4.800000e-07	-3.160699e-06	-3.323381e-09	-4.548957e+01	-2.171018e+02
4.900000e-07	-3.128954e-06	-3.313218e-09	-4.503269e+01	-2.162069e+02
5.000000e-07	-3.096734e-06	-3.308400e-09	-4.456896e+01	-2.152847e+02
5.100000e-07	-3.063724e-06	-3.266894e-09	-4.409387e+01	-2.143380e+02
5.200000e-07	-3.029704e-06	-3.241284e-09	-4.360425e+01	-2.133694e+02
5.300000e-07	-2.994860e-06	-3.276141e-09	-4.310277e+01	-2.123813e+02
5.400000e-07	-2.959585e-06	-3.269329e-09	-4.259509e+01	-2.113758e+02
5.500000e-07	-2.924048e-06	-3.208589e-09	-4.208363e+01	-2.103543e+02
5.600000e-07	-2.888146e-06	-3.178622e-09	-4.156691e+01	-2.093176e+02
5.700000e-07	-2.851718e-06	-3.197779e-09	-4.104263e+01	-2.082657e+02
5.800000e-07	-2.814753e-06	-3.216980e-09	-4.051063e+01	-2.071976e+02
5.900000e-07	-2.777308e-06	-3.141036e-09	-3.997171e+01	-2.061117e+02
6.000000e-07	-2.739367e-06	-3.096925e-09	-3.942565e+01	-2.050057e+02
6.100000e-07	-2.700871e-06	-3.144788e-09	-3.887161e+01	-2.038769e+02
6.200000e-07	-2.661924e-06	-3.127197e-09	-3.831107e+01	-2.027220e+02
6.300000e-07	-2.622675e-06	-3.065973e-09	-3.774619e+01	-2.015377e+02
6.400000e-07	-2.583190e-06	-3.051303e-09	-3.717792e+01	-2.003206e+02
6.500000e-07	-2.543465e-06	-3.060921e-09	-3.660617e+01	-1.990678e+02
6.600000e-07	-2.503183e-06	-3.027097e-09	-3.602643e+01	-1.977765e+02
6.700000e-07	-2.462144e-06	-2.993139e-09	-3.543579e+01	-1.964447e+02
6.800000e-07	-2.420379e-06	-2.992185e-09	-3.483469e+01	-1.950707e+02
6.900000e-07	-2.377933e-06	-2.952939e-09	-3.422380e+01	-1.936538e+02
7.000000e-07	-2.334910e-06	-2.923673e-09	-3.360461e+01	-1.921938e+02
7.100000e-07	-2.291534e-06	-2.923765e-09	-3.298033e+01	-1.906911e+02
7.200000e-07	-2.247985e-06	-2.891674e-09	-3.235356e+01	-1.891464e+02
7.300000e-07	-2.204168e-06	-2.850592e-09	-3.172294e+01	-1.875611e+02
7.400000e-07	-2.159928e-06	-2.831566e-09	-3.108622e+01	-1.859365e+02
7.500000e-07	-2.115279e-06	-2.827900e-09	-3.044362e+01	-1.842740e+02
7.600000e-07	-2.070255e-06	-2.791441e-09	-2.979563e+01	-1.825748e+02
7.700000e-07	-2.024865e-06	-2.745511e-09	-2.914236e+01	-1.808396e+02
7.800000e-07	-1.979147e-06	-2.735106e-09	-2.848437e+01	-1.790688e+02
7.900000e-07	-1.933143e-06	-2.717743e-09	-2.782228e+01	-1.772621e+02
8.000000e-07	-1.886739e-06	-2.678889e-09	-2.715441e+01	-1.754187e+02
8.100000e-07	-1.839920e-06	-2.636423e-09	-2.648059e+01	-1.735369e+02
8.200000e-07	-1.792863e-06	-2.615051e-09	-2.580332e+01	-1.716145e+02
8.300000e-07	-1.745581e-06	-2.597060e-09	-2.512284e+01	-1.696488e+02
8.400000e-07	-1.698113e-06	-2.552546e-09	-2.443967e+01	-1.676367e+02
8.500000e-07	-1.650499e-06	-2.515835e-09	-2.375440e+01	-1.655745e+02
8.600000e-07	-1.602619e-06	-2.489188e-09	-2.306530e+01	-1.634588e+02
8.700000e-07	-1.554401e-06	-2.458609e-09	-2.237133e+01	-1.612858e+02
8.800000e-07	-1.505729e-06	-2.426942e-09	-2.167082e+01	-1.590523e+02
8.900000e-07	-1.456535e-06	-2.390293e-09	-2.096282e+01	-1.567551e+02
9.000000e-07	-1.406921e-06	-2.353176e-09	-2.024875e+01	-1.543915e+02
9.100000e-07	-1.356884e-06	-2.313306e-09	-1.952861e+01	-1.519592e+02
9.200000e-07	-1.306507e-06	-2.282270e-09	-1.880357e+01	-1.494563e+02
9.300000e-07	-1.255808e-06	-2.246717e-09	-1.807391e+01	-1.468814e+02
9.400000e-07	-1.204818e-06	-2.189671e-09	-1.734004e+01	-1.442336e+02
9.500000e-07	-1.153644e-06	-2.145943e-09	-1.660354e+01	-1.415118e+02
9.600000e-07	-1.102222e-06	-2.113313e-09	-1.586345e+01	-1.387153e+02
9.700000e-07	-1.050601e-06	-2.072886e-09	-1.512051e+01	-1.358432e+02
9.800000e-07	-9.988624e-07	-2.019613e-09	-1.437588e+01	-1.328944e+02
9.900000e-07	-9.470139e-07	-1.966833e-09	-1.362966e+01	-1.298671e+02
1.000000e-06	-8.949831e-07	-1.932136e-09	-1.288082e+01	-1.267592e+02
1.010000e-06	-8.426427e-07	-1.888176e-09	-1.212752e+01	-1.235677e+02
1.020000e-06	-7.900582e-07	-1.832230e-09	-1.137071e+01	-1.202888e+02
1.030000e-06	-7.373579e-07	-1.777370e-09	-1.061224e+01	-1.169180e+02
1.040000e-06	-6.845268e-07	-1.726153e-09	-9.851881e+00	-1.134500e+02
1.050000e-06	-6.314658e-07	-1.675530e-09	-9.088213e+00	-1.098787e+02
1.060000e-06	-5.782676e-07	-1.615255e-09	-8.322572e+00	-1.061974e+02
1.070000e-06	-5.250416e-07	-1.555480e-09	-7.556529e+00	-1.023991e+02
1.080000e-06	-4.717725e-07	-1.493593e-09	-6.789868e+00	-9.847667e+01
1.090000e-06	-4.184351e-07	-1.429503e-09	-6.022222e+00	-9.442293e+01
1.100000e-06	-3.650484e-07	-1.369571e-09	-5.253867e+00	-9.023115e+01
1.110000e-06	-3.116660e-07	-1.301793e-09	-4.485574e+00	-8.589519e+01
1.120000e-06	-2.582787e-07	-1.229944e-09	-3.717212e+00	-8.140983e+01
1.130000e-06	-2.048632e-07	-1.158624e-09	-2.948442e+00	-7.677096e+01
1.140000e-06	-1.514294e-07	-1.089259e-09	-2.179410e+00	-7.197585e+01
1.150000e-06	-9.798068e-08	-1.015468e-09	-1.410162e+00	-6.702328e+01
1.160000e-06	-4.448735e-08	-9.309318e-10	-6.402730e-01	-6.191371e+01
1.170000e-06	9.032784e-09	-8.493686e-10	1.300021e-01	-5.664933e+01
1.180000e-06	6.251618e-08	-7.681080e-10	8.997484e-01	-5.123411e+01
1.190000e-06	1.159671e-07	-6.808948e-10	1.669027e+00	-4.567379e+01
1.200000e-06	1.693789e-07	-5.932849e-10	2.437744e+00	-3.997577e+01
1.210000e-06	2.227739e-07	-5.051862e-10	3.206218e+00	-3.414909e+01
1.220000e-06	2.761627e-07	-4.181822e-10	3.974603e+00	-2.820423e+01
1.230000e-06	3.294886e-07	-3.220070e-10	4.742081e+00	-2.215298e+01
1.240000e-06	3.827196e-07	-2.238875e-10	5.508196e+00	-1.600827e+01
1.250000e-06	4.358816e-07	-1.301747e-10	6.273316e+00	-9.783994e+00
1.260000e-06	4.889686e-07	-2.976907e-11	7.037358e+00	-3.494786e+00
1.270000e-06	5.419308e-07	6.750515e-11	7.799602e+00	2.844119e+00
1.280000e-06	5.947899e-07	1.654031e-10	8.560364e+00	9.217085e+00
1.290000e-06	6.475315e-07	2.622720e-10	9.319435e+00	1.560824e+01
1.300000e-06	7.001447e-07	3.610936e-10	1.007666e+01	2.200165e+01
1.310000e-06	7.526199e-07	4.588764e-10	1.083189e+01	2.838145e+01
1.320000e-06	8.049518e-07	5.536475e-10	1.158507e+01	3.473197e+01
1.330000e-06	8.571242e-07	6.552464e-10	1.233595e+01	4.103792e+01
1.340000e-06	9.091326e-07	7.516163e-10	1.308446e+01	4.728448e+01
1.350000e-06	9.609698e-07	8.446533e-10	1.383052e+01	5.345742e+01
1.360000e-06	1.012667e-06	9.378532e-10	1.457455e+01	5.954325e+01
1.370000e-06	1.064232e-06	1.031258e-09	1.531669e+01	6.552932e+01
1.380000e-06	1.115636e-06	1.121117e-09	1.605651e+01	7.140390e+01
1.390000e-06	1.166909e-06	1.205003e-09	1.679444e+01	7.715636e+01
1.400000e-06	1.217951e-06	1.289362e-09	1.752906e+01	8.277722e+01
1.410000e-06	1.268681e-06	1.373422e-09	1.825917e+01	8.825822e+01
1.420000e-06	1.319067e-06	1.454965e-09	1.898433e+01	9.359246e+01
1.430000e-06	1.369074e-06	1.535881e-09	1.970405e+01	9.877439e+01
1.440000e-06	1.418667e-06	1.611413e-09	2.041781e+01	1.037999e+02
1.450000e-06	1.467877e-06	1.684744e-09	2.112606e+01	1.086662e+02
1.460000e-06	1.516715e-06	1.756481e-09	2.182894e+01	1.133721e+02
1.470000e-06	1.565057e-06	1.825698e-09	2.252469e+01	1.179175e+02
1.480000e-06	1.612997e-06	1.892527e-09	2.321465e+01	1.223037e+02
1.490000e-06	1.660715e-06	1.953710e-09	2.390143e+01	1.265333e+02
1.500000e-06	1.708232e-06	2.015382e-09	2.458531e+01	1.306096e+02
1.510000e-06	1.755566e-06	2.076182e-09	2.526655e+01	1.345370e+02
1.520000e-06	1.802632e-06	2.133906e-09	2.594393e+01	1.383207e+02
1.530000e-06	1.849362e-06	2.187321e-09	2.661648e+01	1.419663e+02
1.540000e-06	1.895728e-06	2.237740e-09	2.728379e+01	1.454796e+02
1.550000e-06	1.941679e-06	2.288101e-09	2.794513e+01	1.488671e+02
1.560000e-06	1.987257e-06	2.334765e-09	2.860110e+01	1.521348e+02
1.570000e-06	2.032541e-06	2.379475e-09	2.925283e+01	1.552889e+02
1.580000e-06	2.077538e-06	2.424380e-09	2.990045e+01	1.583353e+02
1.590000e-06	2.122139e-06	2.465667e-09	3.054235e+01	1.612797e+02
1.600000e-06	2.166355e-06	2.506722e-09	3.117872e+01	1.641271e+02
1.610000e-06	2.210226e-06	2.548633e-09	3.181012e+01	1.668823e+02
1.620000e-06	2.253805e-06	2.589072e-09	3.243732e+01	1.695496e+02
1.630000e-06	2.297223e-06	2.626890e-09	3.306220e+01	1.721328e+02
1.640000e-06	2.340392e-06	2.662888e-09	3.368350e+01	1.746351e+02
1.650000e-06	2.383157e-06	2.698408e-09	3.429899e+01	1.770595e+02
1.660000e-06	2.425390e-06	2.731616e-09	3.490682e+01	1.794085e+02
1.670000e-06	2.466831e-06	2.763484e-09	3.550325e+01	1.816843e+02
1.680000e-06	2.507473e-06	2.795159e-09	3.608817e+01	1.838889e+02
1.690000e-06	2.547591e-06	2.825852e-09	3.666556e+01	1.860239e+02
1.700000e-06	2.587328e-06	2.855343e-09	3.723747e+01	1.880909e+02
1.710000e-06	2.626798e-06	2.883350e-09	3.780554e+01	1.900914e+02
1.720000e-06	2.665986e-06	2.911700e-09	3.836954e+01	1.920266e+02
1.730000e-06	2.704721e-06	2.940382e-09	3.892702e+01	1.938979e+02
1.740000e-06	2.743000e-06	2.967865e-09	3.947794e+01	1.957066e+02
1.750000e-06	2.780835e-06	2.995436e-09	4.002247e+01	1.974539e+02
1.760000e-06	2.818156e-06	3.020185e-09	4.055960e+01	1.991410e+02
1.770000e-06	2.854933e-06	3.042671e-09	4.108890e+01	2.007694e+02
1.780000e-06	2.891190e-06	3.064133e-09	4.161072e+01	2.023402e+02
1.790000e-06	2.927050e-06	3.085276e-09	4.212683e+01	2.038550e+02
1.800000e-06	2.962598e-06	3.108679e-09	4.263846e+01	2.053150e+02
1.810000e-06	2.997787e-06	3.129886e-09	4.314490e+01	2.067219e+02
1.820000e-06	3.032440e-06	3.149104e-09	4.364364e+01	2.080772e+02
1.830000e-06	3.066386e-06	3.170181e-09	4.413220e+01	2.093824e+02
1.840000e-06	3.099491e-06	3.191689e-09	4.460865e+01	2.106395e+02
1.850000e-06	3.131802e-06	3.211850e-09	4.507367e+01	2.118502e+02
1.860000e-06	3.163562e-06	3.229013e-09	4.553077e+01	2.130164e+02
1.870000e-06	3.194900e-06	3.244519e-09	4.598180e+01	2.141401e+02
1.880000e-06	3.225849e-06	3.260695e-09	4.642723e+01	2.152233e+02
1.890000e-06	3.256280e-06	3.277561e-09	4.686520e+01	2.162682e+02
1.900000e-06	3.286108e-06	3.292873e-09	4.729449e+01	2.172767e+02
1.910000e-06	3.315308e-06	3.308008e-09	4.771474e+01	2.182509e+02
1.920000e-06	3.343852e-06	3.324756e-09	4.812555e+01	2.191927e+02
1.930000e-06	3.371886e-06	3.341466e-09	4.852903e+01	2.201038e+02
1.940000e-06	3.399577e-06	3.356225e-09	4.892756e+01	2.209860e+02
1.950000e-06	3.426916e-06	3.368977e-09	4.932102e+01	2.218406e+02
1.960000e-06	3.453631e-06	3.382396e-09	4.970551e+01	2.226687e+02
1.970000e-06	3.479434e-06	3.395470e-09	5.007688e+01	2.234714e+02
1.980000e-06	3.504301e-06	3.407933e-09	5.043477e+01	2.242491e+02
1.990000e-06	3.528439e-06	3.419308e-09	5.078217e+01	2.250023e+02
2.000000e-06	3.551999e-06	3.430915e-09	5.112125e+01	2.257312e+02
2.010000e-06	3.574921e-06	3.443541e-09	5.145115e+01	2.264358e+02
2.020000e-06	3.597222e-06	3.454559e-09	5.177212e+01	2.271160e+02
2.030000e-06	3.618964e-06	3.465281e-09	5.208504e+01	2.277714e+02
2.040000e-06	3.640134e-06	3.475852e-09	5.238972e+01	2.284020e+02
2.050000e-06	3.660681e-06	3.485642e-09	5.268544e+01	2.290076e+02
2.060000e-06	3.680627e-06	3.494764e-09	5.297250e+01	2.295881e+02
2.070000e-06	3.700117e-06	3.504888e-09	5.325300e+01	2.301437e+02
2.080000e-06	3.719165e-06	3.514928e-09	5.352716e+01	2.306746e+02
2.090000e-06	3.737585e-06	3.523568e-09	5.379226e+01	2.311816e+02
2.100000e-06	3.755276e-06	3.532171e-09	5.404686e+01	2.316652e+02
2.110000e-06	3.772261e-06	3.539710e-09	5.429131e+01	2.321266e+02
2.120000e-06	3.788663e-06	3.545901e-09	5.452738e+01	2.325668e+02
2.130000e-06	3.804484e-06	3.552454e-09	5.475508e+01	2.329871e+02
2.140000e-06	3.819425e-06	3.559350e-09	5.497011e+01	2.333887e+02
2.150000e-06	3.833540e-06	3.565045e-09	5.517326e+01	2.337729e+02
2.160000e-06	3.846988e-06	3.570367e-09	5.536681e+01	2.341406e+02
2.170000e-06	3.859666e-06	3.577072e-09	5.554927e+01	2.344929e+02
2.180000e-06	3.871638e-06	3.584307e-09	5.572158e+01	2.348304e+02
2.190000e-06	3.883009e-06	3.589001e-09	5.588523e+01	2.351534e+02
2.200000e-06	3.893633e-06	3.592180e-09	5.603814e+01	2.354620e+02
2.210000e-06	3.903306e-06	3.597671e-09	5.617736e+01	2.357559e+02
2.220000e-06	3.911974e-06	3.603473e-09	5.630210e+01	2.360344e+02
2.230000e-06	3.919863e-06	3.607033e-09	5.641565e+01	2.362968e+02
2.240000e-06	3.927154e-06	3.610151e-09	5.652058e+01	2.365422e+02
2.250000e-06	3.933858e-06	3.614693e-09	5.661706e+01	2.367695e+02
2.260000e-06	3.939934e-06	3.618757e-09	5.670450e+01	2.369777e+02
2.270000e-06	3.945236e-06	3.620673e-09	5.678082e+01	2.371658e+02
2.280000e-06	3.949782e-06	3.624249e-09	5.684624e+01	2.373334e+02
2.290000e-06	3.953727e-06	3.629572e-09	5.690303e+01	2.374799e+02
2.300000e-06	3.957207e-06	3.633605e-09	5.695311e+01	2.376056e+02
2.310000e-06	3.960109e-06	3.636516e-09	5.699488e+01	2.377106e+02
2.320000e-06	3.962152e-06	3.639822e-09	5.702427e+01	2.377959e+02
2.330000e-06	3.963184e-06	3.641847e-09	5.703912e+01	2.378626e+02
2.340000e-06	3.963349e-06	3.642577e-09	5.704150e+01	2.379122e+02
2.350000e-06	3.962961e-06	3.643068e-09	5.703592e+01	2.379462e+02
2.360000e-06	3.962039e-06	3.642590e-09	5.702266e+01	2.379664e+02
2.370000e-06	3.960428e-06	3.644278e-09	5.699946e+01	2.379742e+02
2.380000e-06	3.958168e-06	3.644949e-09	5.696694e+01	2.379710e+02
2.390000e-06	3.955305e-06	3.645351e-09	5.692574e+01	2.379578e+02
2.400000e-06	3.951800e-06	3.653630e-09	5.687529e+01	2.379350e+02
2.410000e-06	3.947738e-06	3.670391e-09	5.681683e+01	2.379024e+02
2.420000e-06	3.943286e-06	3.634642e-09	5.675276e+01	2.378590e+02
2.430000e-06	3.938272e-06	3.553245e-09	5.668059e+01	2.378033e+02
2.440000e-06	3.932099e-06	3.607710e-09	5.659175e+01	2.377331e+02
2.450000e-06	3.924614e-06	3.754281e-09	5.648403e+01	2.376453e+02
2.460000e-06	3.916427e-06	3.665605e-09	5.636619e+01	2.375367e+02
2.470000e-06	3.908039e-06	3.560728e-09	5.624548e+01	2.374035e+02
2.480000e-06	3.899189e-06	3.592874e-09	5.611810e+01	2.372418e+02
2.490000e-06	3.889330e-06	3.663215e-09	5.597620e+01	2.370480e+02
2.500000e-06	3.878794e-06	3.572710e-09	5.582456e+01	2.368186e+02
2.510000e-06	3.868075e-06	3.591204e-09	5.567030e+01	2.365508e+02
2.520000e-06	3.856526e-06	3.637409e-09	5.550409e+01	2.362425e+02
2.530000e-06	3.843712e-06	3.457908e-09	5.531966e+01	2.358924e+02
2.540000e-06	3.830399e-06	3.629303e-09	5.512806e+01	2.355004e+02
2.550000e-06	3.816710e-06	3.762826e-09	5.493103e+01	2.350676e+02
2.560000e-06	3.801847e-06	3.503371e-09	5.471713e+01	2.345958e+02
2.570000e-06	3.785918e-06	3.391989e-09	5.448787e+01	2.340883e+02
2.580000e-06	3.769472e-06	3.717776e-09	5.425118e+01	2.335491e+02
2.590000e-06	3.752417e-06	3.639415e-09	5.400571e+01	2.329829e+02
2.600000e-06	3.734601e-06	3.300161e-09	5.374930e+01	2.323951e+02
2.610000e-06	3.716173e-06	3.545215e-09	5.348408e+01	2.317910e+02
2.620000e-06	3.697133e-06	3.646753e-09	5.321005e+01	2.311761e+02
2.630000e-06	3.677478e-06	3.417356e-09	5.292718e+01	2.305555e+02
2.640000e-06	3.657275e-06	3.461184e-09	5.263642e+01	2.299338e+02
2.650000e-06	3.636601e-06	3.555879e-09	5.233886e+01	2.293145e+02
2.660000e-06	3.615503e-06	3.416641e-09	5.203523e+01	2.287003e+02
2.670000e-06	3.593419e-06	3.423860e-09	5.171738e+01	2.280926e+02
2.680000e-06	3.570135e-06	3.544381e-09	5.138227e+01	2.274918e+02
2.690000e-06	3.546169e-06	3.457208e-09	5.103735e+01	2.268967e+02
2.700000e-06	3.521602e-06	3.384398e-09	5.068377e+01	2.263054e+02
2.710000e-06	3.496324e-06	3.373765e-09	5.031996e+01	2.257146e+02
2.720000e-06	3.470608e-06	3.492772e-09	4.994985e+01	2.251206e+02
2.730000e-06	3.444487e-06	3.508897e-09	4.957391e+01	2.245188e+02
2.740000e-06	3.417591e-06	3.246808e-09	4.918682e+01	2.239046e+02
2.750000e-06	3.389949e-06	3.354820e-09	4.878898e+01	2.232732e+02
2.760000e-06	3.361880e-06	3.544327e-09	4.838501e+01	2.226201e+02
2.770000e-06	3.333510e-06	3.318917e-09	4.797670e+01	2.219414e+02
2.780000e-06	3.304733e-06	3.268568e-09	4.756254e+01	2.212339e+02
2.790000e-06	3.275343e-06	3.399080e-09	4.713955e+01	2.204952e+02
2.800000e-06	3.245230e-06	3.353052e-09	4.670616e+01	2.197239e+02
2.810000e-06	3.214224e-06	3.297564e-09	4.625991e+01	2.189194e+02
2.820000e-06	3.182378e-06	3.293152e-09	4.580158e+01	2.180824e+02
2.830000e-06	3.150069e-06	3.317279e-09	4.533658e+01	2.172140e+02
2.840000e-06	3.117418e-06	3.281070e-09	4.486666e+01	2.163163e+02
2.850000e-06	3.084243e-06	3.242424e-09	4.438920e+01	2.153916e+02
2.860000e-06	3.050427e-06	3.284984e-09	4.390251e+01	2.144426e+02
2.870000e-06	3.016160e-06	3.256480e-09	4.340933e+01	2.134719e+02
2.880000e-06	2.981474e-06	3.193028e-09	4.291011e+01	2.124820e+02
2.890000e-06	2.946182e-06	3.209467e-09	4.240219e+01	2.114749e+02
2.900000e-06	2.910370e-06	3.245767e-09	4.188678e+01	2.104520e+02
2.910000e-06	2.874230e-06	3.184722e-09	4.136663e+01	2.094138e+02
2.920000e-06	2.837764e-06	3.118878e-09	4.084181e+01	2.083603e+02
2.930000e-06	2.800936e-06	3.167426e-09	4.031177e+01	2.072905e+02
2.940000e-06	2.763604e-06	3.172449e-09	3.977448e+01	2.062028e+02
2.950000e-06	2.725365e-06	3.087653e-09	3.922413e+01	2.050947e+02
