# Temperatura_=_20.0
# Concentracion g/m^3_=_9000.0
# C_Vs_to_Am_M_A/Vsm_=_65563218390.804596
# pendiente_HvsI_1/m_=_3716.3
# ordenada_HvsI_A/m_=_1297.0
# frecuencia_Hz_=_212874.6757013025

Tiempo_(s)	Campo_(V.s)	Magnetizacion_(V.s)	Campo_(kA/m)	Magnetizacion_(A/m)
0.000000e+00	-3.956899e-06	-3.598934e-09	-5.698677e+01	-2.376855e+02
1.000000e-08	-3.956957e-06	-3.600547e-09	-5.698761e+01	-2.376629e+02
2.000000e-08	-3.956336e-06	-3.600908e-09	-5.697866e+01	-2.376187e+02
3.000000e-08	-3.954785e-06	-3.601562e-09	-5.695633e+01	-2.375568e+02
4.000000e-08	-3.952277e-06	-3.600768e-09	-5.692021e+01	-2.374817e+02
5.000000e-08	-3.949002e-06	-3.598107e-09	-5.687303e+01	-2.373978e+02
6.000000e-08	-3.945172e-06	-3.589072e-09	-5.681788e+01	-2.373095e+02
7.000000e-08	-3.940840e-06	-3.582179e-09	-5.675549e+01	-2.372206e+02
8.000000e-08	-3.935844e-06	-3.612215e-09	-5.668355e+01	-2.371341e+02
9.000000e-08	-3.930044e-06	-3.645826e-09	-5.660000e+01	-2.370521e+02
1.000000e-07	-3.923406e-06	-3.624903e-09	-5.650441e+01	-2.369751e+02
1.100000e-07	-3.916118e-06	-3.572844e-09	-5.639945e+01	-2.369026e+02
1.200000e-07	-3.908435e-06	-3.544094e-09	-5.628880e+01	-2.368325e+02
1.300000e-07	-3.900214e-06	-3.575917e-09	-5.617041e+01	-2.367612e+02
1.400000e-07	-3.891140e-06	-3.559165e-09	-5.603972e+01	-2.366841e+02
1.500000e-07	-3.881220e-06	-3.655120e-09	-5.589685e+01	-2.365958e+02
1.600000e-07	-3.870487e-06	-3.564665e-09	-5.574228e+01	-2.364898e+02
1.700000e-07	-3.858854e-06	-3.537519e-09	-5.557474e+01	-2.363598e+02
1.800000e-07	-3.846398e-06	-3.582900e-09	-5.539535e+01	-2.361992e+02
1.900000e-07	-3.833401e-06	-3.596789e-09	-5.520817e+01	-2.360023e+02
2.000000e-07	-3.819629e-06	-3.585002e-09	-5.500983e+01	-2.357641e+02
2.100000e-07	-3.804584e-06	-3.555103e-09	-5.479315e+01	-2.354806e+02
2.200000e-07	-3.788618e-06	-3.672667e-09	-5.456321e+01	-2.351496e+02
2.300000e-07	-3.772205e-06	-3.586655e-09	-5.432683e+01	-2.347703e+02
2.400000e-07	-3.755194e-06	-3.620732e-09	-5.408184e+01	-2.343437e+02
2.500000e-07	-3.737492e-06	-3.614810e-09	-5.382690e+01	-2.338721e+02
2.600000e-07	-3.719226e-06	-3.580713e-09	-5.356383e+01	-2.333598e+02
2.700000e-07	-3.700377e-06	-3.543991e-09	-5.329237e+01	-2.328118e+02
2.800000e-07	-3.680968e-06	-3.599843e-09	-5.301285e+01	-2.322343e+02
2.900000e-07	-3.661067e-06	-3.599382e-09	-5.272624e+01	-2.316340e+02
3.000000e-07	-3.640601e-06	-3.490632e-09	-5.243149e+01	-2.310174e+02
3.100000e-07	-3.619460e-06	-3.526605e-09	-5.212702e+01	-2.303911e+02
3.200000e-07	-3.597610e-06	-3.532974e-09	-5.181233e+01	-2.297607e+02
3.300000e-07	-3.575075e-06	-3.530976e-09	-5.148778e+01	-2.291308e+02
3.400000e-07	-3.551968e-06	-3.500165e-09	-5.115501e+01	-2.285046e+02
3.500000e-07	-3.528374e-06	-3.472862e-09	-5.081520e+01	-2.278839e+02
3.600000e-07	-3.504268e-06	-3.501508e-09	-5.046804e+01	-2.272687e+02
3.700000e-07	-3.479524e-06	-3.490880e-09	-5.011168e+01	-2.266577e+02
3.800000e-07	-3.453815e-06	-3.444134e-09	-4.974142e+01	-2.260478e+02
3.900000e-07	-3.427082e-06	-3.487830e-09	-4.935642e+01	-2.254350e+02
4.000000e-07	-3.399751e-06	-3.459654e-09	-4.896280e+01	-2.248140e+02
4.100000e-07	-3.372089e-06	-3.407357e-09	-4.856440e+01	-2.241793e+02
4.200000e-07	-3.343892e-06	-3.457939e-09	-4.815833e+01	-2.235251e+02
4.300000e-07	-3.314976e-06	-3.446894e-09	-4.774188e+01	-2.228455e+02
4.400000e-07	-3.285526e-06	-3.379438e-09	-4.731774e+01	-2.221356e+02
4.500000e-07	-3.255665e-06	-3.385932e-09	-4.688768e+01	-2.213912e+02
4.600000e-07	-3.225187e-06	-3.422981e-09	-4.644874e+01	-2.206091e+02
4.700000e-07	-3.194172e-06	-3.362105e-09	-4.600208e+01	-2.197877e+02
4.800000e-07	-3.162840e-06	-3.330834e-09	-4.555083e+01	-2.189264e+02
4.900000e-07	-3.131190e-06	-3.361038e-09	-4.509501e+01	-2.180262e+02
5.000000e-07	-3.099094e-06	-3.332732e-09	-4.463277e+01	-2.170892e+02
5.100000e-07	-3.066268e-06	-3.301859e-09	-4.416002e+01	-2.161185e+02
5.200000e-07	-3.032537e-06	-3.293186e-09	-4.367422e+01	-2.151179e+02
5.300000e-07	-2.997904e-06	-3.285105e-09	-4.317544e+01	-2.140917e+02
5.400000e-07	-2.962731e-06	-3.275093e-09	-4.266889e+01	-2.130442e+02
5.500000e-07	-2.927299e-06	-3.249160e-09	-4.215859e+01	-2.119792e+02
5.600000e-07	-2.891494e-06	-3.236403e-09	-4.164293e+01	-2.109003e+02
5.700000e-07	-2.855222e-06	-3.219784e-09	-4.112056e+01	-2.098099e+02
5.800000e-07	-2.818408e-06	-3.201879e-09	-4.059036e+01	-2.087096e+02
5.900000e-07	-2.781103e-06	-3.189482e-09	-4.005310e+01	-2.075996e+02
6.000000e-07	-2.743334e-06	-3.171125e-09	-3.950916e+01	-2.064791e+02
6.100000e-07	-2.705007e-06	-3.154307e-09	-3.895718e+01	-2.053460e+02
6.200000e-07	-2.666142e-06	-3.123610e-09	-3.839745e+01	-2.041975e+02
6.300000e-07	-2.626879e-06	-3.119074e-09	-3.783198e+01	-2.030295e+02
6.400000e-07	-2.587377e-06	-3.110846e-09	-3.726308e+01	-2.018378e+02
6.500000e-07	-2.547581e-06	-3.069182e-09	-3.668995e+01	-2.006178e+02
6.600000e-07	-2.507328e-06	-3.049636e-09	-3.611023e+01	-1.993648e+02
6.700000e-07	-2.466405e-06	-3.042124e-09	-3.552086e+01	-1.980747e+02
6.800000e-07	-2.424705e-06	-3.022680e-09	-3.492030e+01	-1.967436e+02
6.900000e-07	-2.382348e-06	-2.987305e-09	-3.431028e+01	-1.953687e+02
7.000000e-07	-2.339432e-06	-2.961789e-09	-3.369221e+01	-1.939478e+02
7.100000e-07	-2.296120e-06	-2.951369e-09	-3.306844e+01	-1.924799e+02
7.200000e-07	-2.252564e-06	-2.922039e-09	-3.244116e+01	-1.909648e+02
7.300000e-07	-2.208779e-06	-2.898850e-09	-3.181056e+01	-1.894030e+02
7.400000e-07	-2.164653e-06	-2.876097e-09	-3.117507e+01	-1.877958e+02
7.500000e-07	-2.120058e-06	-2.846325e-09	-3.053281e+01	-1.861450e+02
7.600000e-07	-2.075075e-06	-2.825225e-09	-2.988497e+01	-1.844527e+02
7.700000e-07	-2.029785e-06	-2.800230e-09	-2.923271e+01	-1.827207e+02
7.800000e-07	-1.984164e-06	-2.773493e-09	-2.857569e+01	-1.809508e+02
7.900000e-07	-1.938220e-06	-2.738523e-09	-2.791400e+01	-1.791442e+02
8.000000e-07	-1.891851e-06	-2.709045e-09	-2.724620e+01	-1.773016e+02
8.100000e-07	-1.845089e-06	-2.688362e-09	-2.657275e+01	-1.754227e+02
8.200000e-07	-1.798067e-06	-2.655137e-09	-2.589555e+01	-1.735065e+02
8.300000e-07	-1.750863e-06	-2.620360e-09	-2.521572e+01	-1.715511e+02
8.400000e-07	-1.703472e-06	-2.588501e-09	-2.453319e+01	-1.695540e+02
8.500000e-07	-1.655830e-06	-2.561520e-09	-2.384707e+01	-1.675118e+02
8.600000e-07	-1.607968e-06	-2.531698e-09	-2.315776e+01	-1.654207e+02
8.700000e-07	-1.559789e-06	-2.492027e-09	-2.246388e+01	-1.632768e+02
8.800000e-07	-1.511132e-06	-2.460231e-09	-2.176314e+01	-1.610759e+02
8.900000e-07	-1.462089e-06	-2.427586e-09	-2.105683e+01	-1.588140e+02
9.000000e-07	-1.412739e-06	-2.392013e-09	-2.034610e+01	-1.564875e+02
9.100000e-07	-1.363011e-06	-2.358063e-09	-1.962991e+01	-1.540929e+02
9.200000e-07	-1.312844e-06	-2.319564e-09	-1.890742e+01	-1.516276e+02
9.300000e-07	-1.262236e-06	-2.281082e-09	-1.817856e+01	-1.490892e+02
9.400000e-07	-1.211318e-06	-2.239473e-09	-1.744525e+01	-1.464762e+02
9.500000e-07	-1.160173e-06	-2.199842e-09	-1.670867e+01	-1.437872e+02
9.600000e-07	-1.108794e-06	-2.158714e-09	-1.596872e+01	-1.410212e+02
9.700000e-07	-1.057203e-06	-2.110105e-09	-1.522571e+01	-1.381772e+02
9.800000e-07	-1.005448e-06	-2.065432e-09	-1.448034e+01	-1.352542e+02
9.900000e-07	-9.535614e-07	-2.019519e-09	-1.373307e+01	-1.322507e+02
1.000000e-06	-9.015019e-07	-1.974268e-09	-1.298332e+01	-1.291648e+02
1.010000e-06	-8.491707e-07	-1.926789e-09	-1.222965e+01	-1.259940e+02
1.020000e-06	-7.966427e-07	-1.874858e-09	-1.147315e+01	-1.227346e+02
1.030000e-06	-7.440186e-07	-1.825173e-09	-1.071526e+01	-1.193824e+02
1.040000e-06	-6.912596e-07	-1.770891e-09	-9.955436e+00	-1.159319e+02
1.050000e-06	-6.383675e-07	-1.717803e-09	-9.193690e+00	-1.123770e+02
1.060000e-06	-5.853611e-07	-1.661229e-09	-8.430299e+00	-1.087109e+02
1.070000e-06	-5.322517e-07	-1.600317e-09	-7.665424e+00	-1.049261e+02
1.080000e-06	-4.790697e-07	-1.539896e-09	-6.899504e+00	-1.010151e+02
1.090000e-06	-4.258016e-07	-1.475067e-09	-6.132342e+00	-9.697024e+01
1.100000e-06	-3.724637e-07	-1.411551e-09	-5.364176e+00	-9.278440e+01
1.110000e-06	-3.190879e-07	-1.343661e-09	-4.595465e+00	-8.845109e+01
1.120000e-06	-2.656426e-07	-1.272991e-09	-3.825752e+00	-8.396488e+01
1.130000e-06	-2.121883e-07	-1.203828e-09	-3.055909e+00	-7.932167e+01
1.140000e-06	-1.587553e-07	-1.128706e-09	-2.286374e+00	-7.451890e+01
1.150000e-06	-1.053077e-07	-1.050938e-09	-1.516628e+00	-6.955577e+01
1.160000e-06	-5.182244e-08	-9.702995e-10	-7.463404e-01	-6.443337e+01
1.170000e-06	1.684043e-09	-8.888299e-10	2.425338e-02	-5.915467e+01
1.180000e-06	5.517731e-08	-8.062975e-10	7.946568e-01	-5.372457e+01
1.190000e-06	1.086859e-07	-7.185037e-10	1.565281e+00	-4.814977e+01
1.200000e-06	1.621583e-07	-6.327180e-10	2.335383e+00	-4.243864e+01
1.210000e-06	2.155666e-07	-5.448376e-10	3.104563e+00	-3.660106e+01
1.220000e-06	2.689247e-07	-4.543260e-10	3.873021e+00	-3.064819e+01
1.230000e-06	3.222339e-07	-3.618054e-10	4.640773e+00	-2.459224e+01
1.240000e-06	3.755242e-07	-2.658748e-10	5.408254e+00	-1.844625e+01
1.250000e-06	4.286974e-07	-1.734150e-10	6.174047e+00	-1.222390e+01
1.260000e-06	4.817198e-07	-7.608893e-11	6.937670e+00	-5.939250e+00
1.270000e-06	5.346824e-07	2.305194e-11	7.700430e+00	3.933559e-01
1.280000e-06	5.876106e-07	1.201444e-10	8.462695e+00	6.759464e+00
1.290000e-06	6.404281e-07	2.189551e-10	9.223367e+00	1.314460e+01
1.300000e-06	6.930319e-07	3.156015e-10	9.980960e+00	1.953434e+01
1.310000e-06	7.454711e-07	4.165619e-10	1.073618e+01	2.591436e+01
1.320000e-06	7.977756e-07	5.147246e-10	1.148947e+01	3.227047e+01
1.330000e-06	8.499416e-07	6.140398e-10	1.224075e+01	3.858864e+01
1.340000e-06	9.019985e-07	7.115339e-10	1.299047e+01	4.485503e+01
1.350000e-06	9.538553e-07	8.065870e-10	1.373731e+01	5.105603e+01
1.360000e-06	1.005535e-06	9.028247e-10	1.448160e+01	5.717833e+01
1.370000e-06	1.057087e-06	9.938292e-10	1.522404e+01	6.320899e+01
1.380000e-06	1.108474e-06	1.083396e-09	1.596411e+01	6.913560e+01
1.390000e-06	1.159709e-06	1.169872e-09	1.670198e+01	7.494635e+01
1.400000e-06	1.210693e-06	1.255834e-09	1.743624e+01	8.063026e+01
1.410000e-06	1.261422e-06	1.342795e-09	1.816685e+01	8.617732e+01
1.420000e-06	1.311839e-06	1.424611e-09	1.889295e+01	9.157867e+01
1.430000e-06	1.361849e-06	1.504403e-09	1.961319e+01	9.682676e+01
1.440000e-06	1.411434e-06	1.583610e-09	2.032730e+01	1.019156e+02
1.450000e-06	1.460556e-06	1.658959e-09	2.103475e+01	1.068406e+02
1.460000e-06	1.509211e-06	1.730840e-09	2.173547e+01	1.115991e+02
1.470000e-06	1.557493e-06	1.798042e-09	2.243082e+01	1.161900e+02
1.480000e-06	1.605468e-06	1.865085e-09	2.312176e+01	1.206139e+02
1.490000e-06	1.653167e-06	1.928850e-09	2.380871e+01	1.248731e+02
1.500000e-06	1.700681e-06	1.991020e-09	2.449299e+01	1.289712e+02
1.510000e-06	1.748007e-06	2.052202e-09	2.517459e+01	1.329132e+02
1.520000e-06	1.795129e-06	2.110178e-09	2.585322e+01	1.367052e+02
1.530000e-06	1.841971e-06	2.166108e-09	2.652784e+01	1.403538e+02
1.540000e-06	1.888411e-06	2.218709e-09	2.719666e+01	1.438664e+02
1.550000e-06	1.934442e-06	2.268360e-09	2.785959e+01	1.472507e+02
1.560000e-06	1.980082e-06	2.314613e-09	2.851689e+01	1.505140e+02
1.570000e-06	2.025396e-06	2.358996e-09	2.916951e+01	1.536637e+02
1.580000e-06	2.070416e-06	2.402930e-09	2.981787e+01	1.567066e+02
1.590000e-06	2.115060e-06	2.442904e-09	3.046084e+01	1.596489e+02
1.600000e-06	2.159316e-06	2.482786e-09	3.109821e+01	1.624961e+02
1.610000e-06	2.203258e-06	2.525379e-09	3.173105e+01	1.652529e+02
1.620000e-06	2.246948e-06	2.566488e-09	3.236027e+01	1.679233e+02
1.630000e-06	2.290371e-06	2.605404e-09	3.298565e+01	1.705106e+02
1.640000e-06	2.333543e-06	2.642583e-09	3.360740e+01	1.730175e+02
1.650000e-06	2.376336e-06	2.677912e-09	3.422370e+01	1.754462e+02
1.660000e-06	2.418560e-06	2.711286e-09	3.483180e+01	1.777985e+02
1.670000e-06	2.460076e-06	2.741116e-09	3.542971e+01	1.800763e+02
1.680000e-06	2.500816e-06	2.770513e-09	3.601644e+01	1.822809e+02
1.690000e-06	2.540928e-06	2.801039e-09	3.659413e+01	1.844142e+02
1.700000e-06	2.580645e-06	2.831129e-09	3.716614e+01	1.864778e+02
1.710000e-06	2.620102e-06	2.859909e-09	3.773439e+01	1.884736e+02
1.720000e-06	2.659250e-06	2.888247e-09	3.829819e+01	1.904038e+02
1.730000e-06	2.698014e-06	2.917940e-09	3.885646e+01	1.922707e+02
1.740000e-06	2.736279e-06	2.945949e-09	3.940756e+01	1.940768e+02
1.750000e-06	2.774019e-06	2.973480e-09	3.995108e+01	1.958246e+02
1.760000e-06	2.811345e-06	2.998966e-09	4.048864e+01	1.975165e+02
1.770000e-06	2.848226e-06	3.021178e-09	4.101980e+01	1.991551e+02
1.780000e-06	2.884598e-06	3.043416e-09	4.154362e+01	2.007425e+02
1.790000e-06	2.920496e-06	3.065515e-09	4.206062e+01	2.022808e+02
1.800000e-06	2.956068e-06	3.087747e-09	4.257292e+01	2.037716e+02
1.810000e-06	2.991327e-06	3.108956e-09	4.308072e+01	2.052163e+02
1.820000e-06	3.026131e-06	3.130904e-09	4.358197e+01	2.066159e+02
1.830000e-06	3.060251e-06	3.153496e-09	4.407336e+01	2.079713e+02
1.840000e-06	3.093521e-06	3.173932e-09	4.455251e+01	2.092830e+02
1.850000e-06	3.125980e-06	3.193296e-09	4.501999e+01	2.105513e+02
1.860000e-06	3.157812e-06	3.212346e-09	4.547842e+01	2.117767e+02
1.870000e-06	3.189179e-06	3.230392e-09	4.593016e+01	2.129596e+02
1.880000e-06	3.220087e-06	3.246501e-09	4.637530e+01	2.141006e+02
1.890000e-06	3.250502e-06	3.262443e-09	4.681333e+01	2.152004e+02
1.900000e-06	3.280403e-06	3.279680e-09	4.724396e+01	2.162601e+02
1.910000e-06	3.309728e-06	3.297701e-09	4.766629e+01	2.172810e+02
1.920000e-06	3.338389e-06	3.314697e-09	4.807908e+01	2.182649e+02
1.930000e-06	3.366482e-06	3.330722e-09	4.848366e+01	2.192136e+02
1.940000e-06	3.394173e-06	3.346985e-09	4.888246e+01	2.201293e+02
1.950000e-06	3.421523e-06	3.361465e-09	4.927635e+01	2.210143e+02
1.960000e-06	3.448370e-06	3.373474e-09	4.966301e+01	2.218707e+02
1.970000e-06	3.474360e-06	3.385905e-09	5.003731e+01	2.227008e+02
1.980000e-06	3.499364e-06	3.399352e-09	5.039742e+01	2.235064e+02
1.990000e-06	3.523568e-06	3.413417e-09	5.074599e+01	2.242890e+02
2.000000e-06	3.547147e-06	3.427323e-09	5.108558e+01	2.250498e+02
2.010000e-06	3.570166e-06	3.438891e-09	5.141709e+01	2.257895e+02
2.020000e-06	3.592612e-06	3.449578e-09	5.174035e+01	2.265081e+02
2.030000e-06	3.614433e-06	3.461606e-09	5.205462e+01	2.272056e+02
2.040000e-06	3.635597e-06	3.472971e-09	5.235943e+01	2.278810e+02
2.050000e-06	3.656167e-06	3.482223e-09	5.265566e+01	2.285335e+02
2.060000e-06	3.676204e-06	3.491839e-09	5.294424e+01	2.291618e+02
2.070000e-06	3.695760e-06	3.502790e-09	5.322588e+01	2.297647e+02
2.080000e-06	3.714867e-06	3.513469e-09	5.350106e+01	2.303410e+02
2.090000e-06	3.733368e-06	3.522730e-09	5.376751e+01	2.308900e+02
2.100000e-06	3.751152e-06	3.531150e-09	5.402363e+01	2.314110e+02
2.110000e-06	3.768269e-06	3.539671e-09	5.427015e+01	2.319039e+02
2.120000e-06	3.784771e-06	3.547463e-09	5.450780e+01	2.323693e+02
2.130000e-06	3.800600e-06	3.553732e-09	5.473578e+01	2.328081e+02
2.140000e-06	3.815652e-06	3.560493e-09	5.495255e+01	2.332218e+02
2.150000e-06	3.829934e-06	3.568855e-09	5.515824e+01	2.336123e+02
2.160000e-06	3.843478e-06	3.576840e-09	5.535330e+01	2.339817e+02
2.170000e-06	3.856314e-06	3.583767e-09	5.553816e+01	2.343323e+02
2.180000e-06	3.868444e-06	3.590067e-09	5.571286e+01	2.346666e+02
2.190000e-06	3.879858e-06	3.596010e-09	5.587724e+01	2.349864e+02
2.200000e-06	3.890497e-06	3.601197e-09	5.603046e+01	2.352935e+02
2.210000e-06	3.900161e-06	3.605783e-09	5.616964e+01	2.355891e+02
2.220000e-06	3.908834e-06	3.610969e-09	5.629454e+01	2.358736e+02
2.230000e-06	3.916747e-06	3.615839e-09	5.640851e+01	2.361469e+02
2.240000e-06	3.924067e-06	3.620334e-09	5.651393e+01	2.364081e+02
2.250000e-06	3.930786e-06	3.624738e-09	5.661070e+01	2.366556e+02
2.260000e-06	3.936837e-06	3.628799e-09	5.669784e+01	2.368873e+02
2.270000e-06	3.942181e-06	3.632598e-09	5.677480e+01	2.371007e+02
2.280000e-06	3.946865e-06	3.637160e-09	5.684227e+01	2.372930e+02
2.290000e-06	3.950909e-06	3.641503e-09	5.690050e+01	2.374616e+02
2.300000e-06	3.954411e-06	3.644593e-09	5.695094e+01	2.376041e+02
2.310000e-06	3.957391e-06	3.647751e-09	5.699385e+01	2.377187e+02
2.320000e-06	3.959507e-06	3.649392e-09	5.702433e+01	2.378041e+02
2.330000e-06	3.960534e-06	3.649998e-09	5.703913e+01	2.378600e+02
2.340000e-06	3.960699e-06	3.650199e-09	5.704150e+01	2.378870e+02
2.350000e-06	3.960325e-06	3.650310e-09	5.703611e+01	2.378868e+02
2.360000e-06	3.959399e-06	3.649994e-09	5.702278e+01	2.378619e+02
2.370000e-06	3.957859e-06	3.651225e-09	5.700060e+01	2.378157e+02
2.380000e-06	3.955700e-06	3.649800e-09	5.696951e+01	2.377523e+02
2.390000e-06	3.952901e-06	3.649665e-09	5.692919e+01	2.376760e+02
2.400000e-06	3.949490e-06	3.655871e-09	5.688006e+01	2.375915e+02
2.410000e-06	3.945517e-06	3.670143e-09	5.682286e+01	2.375030e+02
2.420000e-06	3.941135e-06	3.645819e-09	5.675974e+01	2.374142e+02
2.430000e-06	3.936232e-06	3.601650e-09	5.668913e+01	2.373281e+02
2.440000e-06	3.930279e-06	3.603274e-09	5.660339e+01	2.372466e+02
2.450000e-06	3.923002e-06	3.649762e-09	5.649859e+01	2.371701e+02
2.460000e-06	3.914834e-06	3.684773e-09	5.638096e+01	2.370980e+02
2.470000e-06	3.906413e-06	3.669549e-09	5.625967e+01	2.370279e+02
2.480000e-06	3.897663e-06	3.667399e-09	5.613366e+01	2.369562e+02
2.490000e-06	3.888040e-06	3.562174e-09	5.599508e+01	2.368783e+02
2.500000e-06	3.877592e-06	3.598345e-09	5.584461e+01	2.367885e+02
2.510000e-06	3.866796e-06	3.643052e-09	5.568912e+01	2.366804e+02
2.520000e-06	3.855477e-06	3.633591e-09	5.552611e+01	2.365476e+02
2.530000e-06	3.843039e-06	3.553745e-09	5.534697e+01	2.363837e+02
2.540000e-06	3.829712e-06	3.606817e-09	5.515504e+01	2.361829e+02
2.550000e-06	3.815983e-06	3.668590e-09	5.495732e+01	2.359402e+02
2.560000e-06	3.801383e-06	3.591284e-09	5.474706e+01	2.356521e+02
2.570000e-06	3.785583e-06	3.668927e-09	5.451950e+01	2.353163e+02
2.580000e-06	3.769117e-06	3.622660e-09	5.428236e+01	2.349322e+02
2.590000e-06	3.752239e-06	3.506830e-09	5.403928e+01	2.345009e+02
2.600000e-06	3.734681e-06	3.484729e-09	5.378641e+01	2.340251e+02
2.610000e-06	3.716386e-06	3.575449e-09	5.352294e+01	2.335089e+02
2.620000e-06	3.697483e-06	3.446623e-09	5.325069e+01	2.329577e+02
2.630000e-06	3.678006e-06	3.448169e-09	5.297020e+01	2.323776e+02
2.640000e-06	3.657955e-06	3.588526e-09	5.268141e+01	2.317753e+02
2.650000e-06	3.637391e-06	3.481315e-09	5.238526e+01	2.311576e+02
2.660000e-06	3.616356e-06	3.465745e-09	5.208231e+01	2.305306e+02
2.670000e-06	3.594457e-06	3.511400e-09	5.176693e+01	2.299001e+02
2.680000e-06	3.571341e-06	3.475201e-09	5.143401e+01	2.292704e+02
2.690000e-06	3.547389e-06	3.471153e-09	5.108905e+01	2.286447e+02
2.700000e-06	3.522961e-06	3.458841e-09	5.073725e+01	2.280246e+02
2.710000e-06	3.497904e-06	3.444877e-09	5.037638e+01	2.274099e+02
2.720000e-06	3.472261e-06	3.452206e-09	5.000708e+01	2.267991e+02
2.730000e-06	3.446168e-06	3.423773e-09	4.963129e+01	2.261892e+02
2.740000e-06	3.419390e-06	3.405129e-09	4.924563e+01	2.255757e+02
2.750000e-06	3.391836e-06	3.449586e-09	4.884881e+01	2.249537e+02
2.760000e-06	3.363834e-06	3.392935e-09	4.844553e+01	2.243173e+02
2.770000e-06	3.335515e-06	3.346441e-09	4.803767e+01	2.236607e+02
2.780000e-06	3.306739e-06	3.421718e-09	4.762325e+01	2.229784e+02
2.790000e-06	3.277392e-06	3.374392e-09	4.720059e+01	2.222652e+02
2.800000e-06	3.247248e-06	3.311752e-09	4.676646e+01	2.215171e+02
2.810000e-06	3.216306e-06	3.361770e-09	4.632085e+01	2.207312e+02
2.820000e-06	3.184632e-06	3.345948e-09	4.586468e+01	2.199057e+02
2.830000e-06	3.152392e-06	3.316314e-09	4.540036e+01	2.190405e+02
2.840000e-06	3.119816e-06	3.299800e-09	4.493121e+01	2.181365e+02
2.850000e-06	3.086747e-06	3.289966e-09	4.445496e+01	2.171960e+02
2.860000e-06	3.053051e-06	3.299786e-09	4.396967e+01	2.162221e+02
2.870000e-06	3.018839e-06	3.247202e-09	4.347694e+01	2.152188e+02
2.880000e-06	2.984229e-06	3.239010e-09	4.297850e+01	2.141903e+02
2.890000e-06	2.949064e-06	3.245676e-09	4.247206e+01	2.131408e+02
2.900000e-06	2.913329e-06	3.213989e-09	4.195741e+01	2.120743e+02
2.910000e-06	2.877232e-06	3.200170e-09	4.143754e+01	2.109941e+02
2.920000e-06	2.840842e-06	3.179605e-09	4.091345e+01	2.099027e+02
2.930000e-06	2.804065e-06	3.174403e-09	4.038380e+01	2.088014e+02
2.940000e-06	2.766704e-06	3.147392e-09	3.984573e+01	2.076904e+02
2.950000e-06	2.728645e-06	3.125651e-09	3.929761e+01	2.065688e+02
