# Temperatura_=_20.0
# Concentracion g/m^3_=_12600.0
# C_Vs_to_Am_M_A/Vsm_=_65563218390.804596
# pendiente_HvsI_1/m_=_3716.3
# ordenada_HvsI_A/m_=_1297.0
# frecuencia_Hz_=_301862.0232850519

Tiempo_(s)	Campo_(V.s)	Magnetizacion_(V.s)	Campo_(kA/m)	Magnetizacion_(A/m)
0.000000e+00	-2.772467e-06	-1.949989e-09	-1.979061e+01	-1.288964e+02
1.000000e-08	-2.772263e-06	-1.944103e-09	-1.978915e+01	-1.288602e+02
2.000000e-08	-2.771012e-06	-1.940147e-09	-1.978023e+01	-1.287964e+02
3.000000e-08	-2.768575e-06	-1.944204e-09	-1.976283e+01	-1.287022e+02
4.000000e-08	-2.765178e-06	-1.949489e-09	-1.973858e+01	-1.285722e+02
5.000000e-08	-2.761017e-06	-1.945533e-09	-1.970887e+01	-1.284000e+02
6.000000e-08	-2.756038e-06	-1.930058e-09	-1.967334e+01	-1.281782e+02
7.000000e-08	-2.750113e-06	-1.905459e-09	-1.963104e+01	-1.279001e+02
8.000000e-08	-2.743281e-06	-1.905934e-09	-1.958228e+01	-1.275605e+02
9.000000e-08	-2.735459e-06	-1.955752e-09	-1.952644e+01	-1.271563e+02
1.000000e-07	-2.726341e-06	-2.005284e-09	-1.946135e+01	-1.266879e+02
1.100000e-07	-2.715890e-06	-1.911570e-09	-1.938675e+01	-1.261590e+02
1.200000e-07	-2.704396e-06	-1.785681e-09	-1.930470e+01	-1.255769e+02
1.300000e-07	-2.692098e-06	-1.813460e-09	-1.921691e+01	-1.249518e+02
1.400000e-07	-2.678915e-06	-1.970062e-09	-1.912281e+01	-1.242960e+02
1.500000e-07	-2.664755e-06	-1.938640e-09	-1.902173e+01	-1.236225e+02
1.600000e-07	-2.649554e-06	-1.859148e-09	-1.891322e+01	-1.229439e+02
1.700000e-07	-2.633126e-06	-1.846270e-09	-1.879596e+01	-1.222708e+02
1.800000e-07	-2.615542e-06	-1.754846e-09	-1.867044e+01	-1.216106e+02
1.900000e-07	-2.597217e-06	-1.838692e-09	-1.853963e+01	-1.209666e+02
2.000000e-07	-2.578253e-06	-1.984791e-09	-1.840426e+01	-1.203374e+02
2.100000e-07	-2.558339e-06	-1.860967e-09	-1.826211e+01	-1.197170e+02
2.200000e-07	-2.537479e-06	-1.662485e-09	-1.811320e+01	-1.190954e+02
2.300000e-07	-2.515893e-06	-1.788901e-09	-1.795911e+01	-1.184593e+02
2.400000e-07	-2.493500e-06	-1.950506e-09	-1.779927e+01	-1.177939e+02
2.500000e-07	-2.470218e-06	-1.823052e-09	-1.763308e+01	-1.170838e+02
2.600000e-07	-2.446101e-06	-1.666734e-09	-1.746092e+01	-1.163149e+02
2.700000e-07	-2.420954e-06	-1.732061e-09	-1.728142e+01	-1.154759e+02
2.800000e-07	-2.394648e-06	-1.782688e-09	-1.709364e+01	-1.145589e+02
2.900000e-07	-2.367425e-06	-1.751831e-09	-1.689931e+01	-1.135601e+02
3.000000e-07	-2.339377e-06	-1.702904e-09	-1.669910e+01	-1.124801e+02
3.100000e-07	-2.310520e-06	-1.675073e-09	-1.649311e+01	-1.113234e+02
3.200000e-07	-2.280928e-06	-1.673970e-09	-1.628188e+01	-1.100976e+02
3.300000e-07	-2.250567e-06	-1.643857e-09	-1.606515e+01	-1.088120e+02
3.400000e-07	-2.219492e-06	-1.656115e-09	-1.584333e+01	-1.074771e+02
3.500000e-07	-2.187802e-06	-1.651271e-09	-1.561711e+01	-1.061027e+02
3.600000e-07	-2.155356e-06	-1.591962e-09	-1.538551e+01	-1.046970e+02
3.700000e-07	-2.121896e-06	-1.552298e-09	-1.514666e+01	-1.032661e+02
3.800000e-07	-2.087398e-06	-1.559057e-09	-1.490041e+01	-1.018136e+02
3.900000e-07	-2.052107e-06	-1.535961e-09	-1.464849e+01	-1.003403e+02
4.000000e-07	-2.016250e-06	-1.531544e-09	-1.439253e+01	-9.884475e+01
4.100000e-07	-1.979823e-06	-1.508542e-09	-1.413251e+01	-9.732411e+01
4.200000e-07	-1.942714e-06	-1.420411e-09	-1.386761e+01	-9.577471e+01
4.300000e-07	-1.904839e-06	-1.395678e-09	-1.359725e+01	-9.419304e+01
4.400000e-07	-1.866242e-06	-1.437117e-09	-1.332174e+01	-9.257644e+01
4.500000e-07	-1.827076e-06	-1.437604e-09	-1.304215e+01	-9.092371e+01
4.600000e-07	-1.787494e-06	-1.356393e-09	-1.275961e+01	-8.923533e+01
4.700000e-07	-1.747420e-06	-1.277908e-09	-1.247355e+01	-8.751342e+01
4.800000e-07	-1.706620e-06	-1.275962e-09	-1.218231e+01	-8.576142e+01
4.900000e-07	-1.664900e-06	-1.329704e-09	-1.188450e+01	-8.398351e+01
5.000000e-07	-1.622251e-06	-1.303179e-09	-1.158006e+01	-8.218393e+01
5.100000e-07	-1.578913e-06	-1.195628e-09	-1.127070e+01	-8.036627e+01
5.200000e-07	-1.535141e-06	-1.144028e-09	-1.095825e+01	-7.853286e+01
5.300000e-07	-1.490999e-06	-1.175397e-09	-1.064315e+01	-7.668432e+01
5.400000e-07	-1.446353e-06	-1.203113e-09	-1.032445e+01	-7.481941e+01
5.500000e-07	-1.401124e-06	-1.145713e-09	-1.000159e+01	-7.293515e+01
5.600000e-07	-1.355321e-06	-1.052354e-09	-9.674644e+00	-7.102718e+01
5.700000e-07	-1.308989e-06	-1.014399e-09	-9.343911e+00	-6.909035e+01
5.800000e-07	-1.262172e-06	-1.047433e-09	-9.009723e+00	-6.711941e+01
5.900000e-07	-1.214969e-06	-1.045405e-09	-8.672775e+00	-6.510978e+01
6.000000e-07	-1.167464e-06	-9.702828e-10	-8.333666e+00	-6.305812e+01
6.100000e-07	-1.119633e-06	-8.975392e-10	-7.992239e+00	-6.096287e+01
6.200000e-07	-1.071391e-06	-8.807182e-10	-7.647874e+00	-5.882444e+01
6.300000e-07	-1.022562e-06	-8.909183e-10	-7.299319e+00	-5.664519e+01
6.400000e-07	-9.730549e-07	-8.699119e-10	-6.945926e+00	-5.442919e+01
6.500000e-07	-9.229678e-07	-8.151223e-10	-6.588390e+00	-5.218169e+01
6.600000e-07	-8.723895e-07	-7.528384e-10	-6.227349e+00	-4.990853e+01
6.700000e-07	-8.213857e-07	-7.191882e-10	-5.863271e+00	-4.761549e+01
6.800000e-07	-7.700818e-07	-7.136371e-10	-5.497050e+00	-4.530765e+01
6.900000e-07	-7.185358e-07	-7.004494e-10	-5.129101e+00	-4.298897e+01
7.000000e-07	-6.667536e-07	-6.420045e-10	-4.759465e+00	-4.066194e+01
7.100000e-07	-6.147661e-07	-5.645319e-10	-4.388365e+00	-3.832756e+01
7.200000e-07	-5.625607e-07	-5.338534e-10	-4.015709e+00	-3.598543e+01
7.300000e-07	-5.102148e-07	-5.443319e-10	-3.642049e+00	-3.363411e+01
7.400000e-07	-4.577403e-07	-5.303777e-10	-3.267473e+00	-3.127155e+01
7.500000e-07	-4.050054e-07	-4.591012e-10	-2.891037e+00	-2.889553e+01
7.600000e-07	-3.520261e-07	-3.821874e-10	-2.512856e+00	-2.650420e+01
7.700000e-07	-2.988996e-07	-3.574824e-10	-2.133625e+00	-2.409638e+01
7.800000e-07	-2.457214e-07	-3.727626e-10	-1.754025e+00	-2.167179e+01
7.900000e-07	-1.924973e-07	-3.498341e-10	-1.374097e+00	-1.923113e+01
8.000000e-07	-1.391725e-07	-2.596460e-10	-9.934502e-01	-1.677596e+01
8.100000e-07	-8.576998e-08	-1.807124e-10	-6.122491e-01	-1.430846e+01
8.200000e-07	-3.232285e-08	-1.793714e-10	-2.307292e-01	-1.183110e+01
8.300000e-07	2.115457e-08	-2.016186e-10	1.510070e-01	-9.346302e+00
8.400000e-07	7.462412e-08	-1.495597e-10	5.326869e-01	-6.856075e+00
8.500000e-07	1.280850e-07	-4.684785e-11	9.143050e-01	-4.361824e+00
8.600000e-07	1.815263e-07	3.245195e-12	1.295783e+00	-1.864203e+00
8.700000e-07	2.348972e-07	-1.876502e-11	1.676759e+00	6.368674e-01
8.800000e-07	2.881946e-07	-1.559642e-11	2.057210e+00	3.142053e+00
8.900000e-07	3.413988e-07	6.708391e-11	2.436996e+00	5.652368e+00
9.000000e-07	3.945051e-07	1.584076e-10	2.816083e+00	8.168873e+00
9.100000e-07	4.474870e-07	1.786596e-10	3.194282e+00	1.069237e+01
9.200000e-07	5.002542e-07	1.610232e-10	3.570948e+00	1.322311e+01
9.300000e-07	5.526987e-07	1.953538e-10	3.945311e+00	1.576066e+01
9.400000e-07	6.048860e-07	2.826676e-10	4.317838e+00	1.830373e+01
9.500000e-07	6.568797e-07	3.458422e-10	4.688983e+00	2.085030e+01
9.600000e-07	7.086256e-07	3.481507e-10	5.058359e+00	2.339771e+01
9.700000e-07	7.601418e-07	3.493656e-10	5.426095e+00	2.594285e+01
9.800000e-07	8.114291e-07	4.058360e-10	5.792198e+00	2.848251e+01
9.900000e-07	8.623982e-07	4.845666e-10	6.156029e+00	3.101357e+01
1.000000e-06	9.129383e-07	5.248810e-10	6.516797e+00	3.353327e+01
1.010000e-06	9.629255e-07	5.309088e-10	6.873619e+00	3.603937e+01
1.020000e-06	1.012171e-06	5.541802e-10	7.225145e+00	3.853024e+01
1.030000e-06	1.060678e-06	6.103528e-10	7.571401e+00	4.100487e+01
1.040000e-06	1.108669e-06	6.680773e-10	7.913972e+00	4.346279e+01
1.050000e-06	1.156357e-06	7.001793e-10	8.254387e+00	4.590390e+01
1.060000e-06	1.203790e-06	7.198986e-10	8.592975e+00	4.832840e+01
1.070000e-06	1.250884e-06	7.508256e-10	8.929147e+00	5.073654e+01
1.080000e-06	1.297528e-06	7.982012e-10	9.262103e+00	5.312855e+01
1.090000e-06	1.343701e-06	8.452387e-10	9.591697e+00	5.550451e+01
1.100000e-06	1.389388e-06	8.794218e-10	9.917820e+00	5.786432e+01
1.110000e-06	1.434532e-06	9.050243e-10	1.024008e+01	6.020770e+01
1.120000e-06	1.479175e-06	9.333415e-10	1.055875e+01	6.253418e+01
1.130000e-06	1.523334e-06	9.731649e-10	1.087396e+01	6.484318e+01
1.140000e-06	1.567117e-06	1.019822e-09	1.118650e+01	6.713400e+01
1.150000e-06	1.610602e-06	1.058997e-09	1.149691e+01	6.940581e+01
1.160000e-06	1.653653e-06	1.083726e-09	1.180422e+01	7.165763e+01
1.170000e-06	1.696035e-06	1.106832e-09	1.210675e+01	7.388823e+01
1.180000e-06	1.737471e-06	1.146073e-09	1.240253e+01	7.609606e+01
1.190000e-06	1.777948e-06	1.198282e-09	1.269147e+01	7.827917e+01
1.200000e-06	1.817776e-06	1.237276e-09	1.297577e+01	8.043510e+01
1.210000e-06	1.857150e-06	1.252690e-09	1.325683e+01	8.256090e+01
1.220000e-06	1.895957e-06	1.270363e-09	1.353385e+01	8.465316e+01
1.230000e-06	1.934136e-06	1.313613e-09	1.380638e+01	8.670812e+01
1.240000e-06	1.971605e-06	1.363571e-09	1.407384e+01	8.872192e+01
1.250000e-06	2.008325e-06	1.388534e-09	1.433596e+01	9.069080e+01
1.260000e-06	2.044438e-06	1.396010e-09	1.459374e+01	9.261140e+01
1.270000e-06	2.080031e-06	1.420876e-09	1.484782e+01	9.448101e+01
1.280000e-06	2.114990e-06	1.468397e-09	1.509736e+01	9.629783e+01
1.290000e-06	2.148953e-06	1.508977e-09	1.533980e+01	9.806106e+01
1.300000e-06	2.181843e-06	1.523341e-09	1.557458e+01	9.977094e+01
1.310000e-06	2.213904e-06	1.533414e-09	1.580344e+01	1.014287e+02
1.320000e-06	2.245270e-06	1.564282e-09	1.602734e+01	1.030363e+02
1.330000e-06	2.275960e-06	1.605970e-09	1.624641e+01	1.045961e+02
1.340000e-06	2.305882e-06	1.630650e-09	1.646000e+01	1.061107e+02
1.350000e-06	2.334951e-06	1.636728e-09	1.666750e+01	1.075824e+02
1.360000e-06	2.363267e-06	1.649878e-09	1.686963e+01	1.090130e+02
1.370000e-06	2.390932e-06	1.682516e-09	1.706711e+01	1.104036e+02
1.380000e-06	2.417767e-06	1.717106e-09	1.725866e+01	1.117543e+02
1.390000e-06	2.443525e-06	1.734716e-09	1.744253e+01	1.130645e+02
1.400000e-06	2.468206e-06	1.744639e-09	1.761871e+01	1.143328e+02
1.410000e-06	2.491958e-06	1.763388e-09	1.778826e+01	1.155575e+02
1.420000e-06	2.514886e-06	1.789145e-09	1.795193e+01	1.167366e+02
1.430000e-06	2.537028e-06	1.809869e-09	1.810998e+01	1.178681e+02
1.440000e-06	2.558331e-06	1.823161e-09	1.826205e+01	1.189504e+02
1.450000e-06	2.578787e-06	1.835767e-09	1.840807e+01	1.199824e+02
1.460000e-06	2.598493e-06	1.850629e-09	1.854874e+01	1.209633e+02
1.470000e-06	2.617451e-06	1.866066e-09	1.868406e+01	1.218930e+02
1.480000e-06	2.635499e-06	1.881666e-09	1.881289e+01	1.227715e+02
1.490000e-06	2.652563e-06	1.897925e-09	1.893470e+01	1.235989e+02
1.500000e-06	2.668640e-06	1.912074e-09	1.904946e+01	1.243749e+02
1.510000e-06	2.683649e-06	1.920978e-09	1.915660e+01	1.250992e+02
1.520000e-06	2.697619e-06	1.928264e-09	1.925633e+01	1.257706e+02
1.530000e-06	2.710632e-06	1.940320e-09	1.934922e+01	1.263876e+02
1.540000e-06	2.722602e-06	1.954140e-09	1.943466e+01	1.269486e+02
1.550000e-06	2.733442e-06	1.959814e-09	1.951204e+01	1.274516e+02
1.560000e-06	2.743082e-06	1.958124e-09	1.958085e+01	1.278952e+02
1.570000e-06	2.751499e-06	1.962670e-09	1.964093e+01	1.282785e+02
1.580000e-06	2.758915e-06	1.977250e-09	1.969387e+01	1.286019e+02
1.590000e-06	2.765464e-06	1.988300e-09	1.974062e+01	1.288669e+02
1.600000e-06	2.771042e-06	1.986598e-09	1.978044e+01	1.290767e+02
1.610000e-06	2.775698e-06	1.982611e-09	1.981367e+01	1.292356e+02
1.620000e-06	2.779543e-06	1.989642e-09	1.984112e+01	1.293487e+02
1.630000e-06	2.782453e-06	2.001570e-09	1.986189e+01	1.294218e+02
1.640000e-06	2.784206e-06	2.003602e-09	1.987440e+01	1.294603e+02
1.650000e-06	2.784780e-06	1.994311e-09	1.987850e+01	1.294684e+02
1.660000e-06	2.784389e-06	1.989071e-09	1.987571e+01	1.294492e+02
1.670000e-06	2.783158e-06	1.994381e-09	1.986692e+01	1.294033e+02
1.680000e-06	2.781068e-06	2.000399e-09	1.985201e+01	1.293291e+02
1.690000e-06	2.778131e-06	1.995673e-09	1.983104e+01	1.292227e+02
1.700000e-06	2.774396e-06	1.985325e-09	1.980438e+01	1.290783e+02
1.710000e-06	2.769883e-06	1.985044e-09	1.977216e+01	1.288891e+02
1.720000e-06	2.764474e-06	2.005092e-09	1.973355e+01	1.286479e+02
1.730000e-06	2.758001e-06	2.014975e-09	1.968735e+01	1.283482e+02
1.740000e-06	2.750411e-06	1.947667e-09	1.963317e+01	1.279856e+02
1.750000e-06	2.741603e-06	1.865256e-09	1.957029e+01	1.275582e+02
1.760000e-06	2.731405e-06	1.931258e-09	1.949750e+01	1.270675e+02
1.770000e-06	2.720123e-06	2.047390e-09	1.941697e+01	1.265186e+02
1.780000e-06	2.708463e-06	2.049626e-09	1.933373e+01	1.259197e+02
1.790000e-06	2.696331e-06	1.866917e-09	1.924713e+01	1.252821e+02
1.800000e-06	2.682776e-06	1.856988e-09	1.915037e+01	1.246183e+02
1.810000e-06	2.667597e-06	1.907353e-09	1.904202e+01	1.239416e+02
1.820000e-06	2.651557e-06	1.896772e-09	1.892752e+01	1.232638e+02
1.830000e-06	2.634866e-06	1.981139e-09	1.880837e+01	1.225946e+02
1.840000e-06	2.617084e-06	1.898208e-09	1.868144e+01	1.219399e+02
1.850000e-06	2.598323e-06	1.709672e-09	1.854752e+01	1.213015e+02
1.860000e-06	2.578983e-06	1.753018e-09	1.840947e+01	1.206763e+02
1.870000e-06	2.558949e-06	1.950189e-09	1.826646e+01	1.200567e+02
1.880000e-06	2.537929e-06	1.860739e-09	1.811641e+01	1.194315e+02
1.890000e-06	2.515729e-06	1.695097e-09	1.795795e+01	1.187866e+02
1.900000e-06	2.492375e-06	1.820009e-09	1.779124e+01	1.181069e+02
1.910000e-06	2.468158e-06	1.894613e-09	1.761837e+01	1.173772e+02
1.920000e-06	2.443151e-06	1.741231e-09	1.743986e+01	1.165844e+02
1.930000e-06	2.417224e-06	1.729657e-09	1.725479e+01	1.157181e+02
1.940000e-06	2.390435e-06	1.783003e-09	1.706356e+01	1.147720e+02
1.950000e-06	2.362879e-06	1.758073e-09	1.686686e+01	1.137439e+02
1.960000e-06	2.334563e-06	1.679953e-09	1.666474e+01	1.126357e+02
1.970000e-06	2.305474e-06	1.656469e-09	1.645709e+01	1.114532e+02
1.980000e-06	2.275426e-06	1.731419e-09	1.624260e+01	1.102048e+02
1.990000e-06	2.244239e-06	1.706552e-09	1.601998e+01	1.089004e+02
2.000000e-06	2.212158e-06	1.575981e-09	1.579098e+01	1.075502e+02
2.010000e-06	2.179429e-06	1.583363e-09	1.555735e+01	1.061636e+02
2.020000e-06	2.146007e-06	1.644214e-09	1.531877e+01	1.047483e+02
2.030000e-06	2.111826e-06	1.600146e-09	1.507478e+01	1.033094e+02
2.040000e-06	2.076867e-06	1.562224e-09	1.482523e+01	1.018494e+02
2.050000e-06	2.041238e-06	1.496893e-09	1.457090e+01	1.003683e+02
2.060000e-06	2.005138e-06	1.459274e-09	1.431321e+01	9.886411e+01
2.070000e-06	1.968413e-06	1.529121e-09	1.405106e+01	9.733355e+01
2.080000e-06	1.930694e-06	1.522016e-09	1.378181e+01	9.577292e+01
2.090000e-06	1.891954e-06	1.415778e-09	1.350527e+01	9.417893e+01
2.100000e-06	1.852399e-06	1.356706e-09	1.322292e+01	9.254940e+01
2.110000e-06	1.812331e-06	1.371447e-09	1.293690e+01	9.088371e+01
2.120000e-06	1.771852e-06	1.422369e-09	1.264795e+01	8.918295e+01
2.130000e-06	1.730824e-06	1.389459e-09	1.235508e+01	8.744976e+01
2.140000e-06	1.689148e-06	1.261559e-09	1.205759e+01	8.568792e+01
2.150000e-06	1.646846e-06	1.222919e-09	1.175563e+01	8.390172e+01
2.160000e-06	1.604003e-06	1.273670e-09	1.144980e+01	8.209525e+01
2.170000e-06	1.560590e-06	1.275225e-09	1.113991e+01	8.027170e+01
2.180000e-06	1.516655e-06	1.201195e-09	1.082629e+01	7.843282e+01
2.190000e-06	1.472393e-06	1.117324e-09	1.051033e+01	7.657859e+01
2.200000e-06	1.427794e-06	1.109845e-09	1.019197e+01	7.470711e+01
2.210000e-06	1.382619e-06	1.136321e-09	9.869504e+00	7.281485e+01
2.220000e-06	1.336775e-06	1.117065e-09	9.542259e+00	7.089710e+01
2.230000e-06	1.290338e-06	1.043063e-09	9.210775e+00	6.894859e+01
2.240000e-06	1.243528e-06	9.811841e-10	8.876633e+00	6.696423e+01
2.250000e-06	1.196430e-06	9.741229e-10	8.540439e+00	6.493980e+01
2.260000e-06	1.148950e-06	9.785615e-10	8.201510e+00	6.287257e+01
2.270000e-06	1.101036e-06	9.472275e-10	7.859489e+00	6.076166e+01
2.280000e-06	1.052560e-06	8.884040e-10	7.513457e+00	5.860820e+01
2.290000e-06	1.003471e-06	8.304063e-10	7.163042e+00	5.641521e+01
2.300000e-06	9.539665e-07	8.009022e-10	6.809668e+00	5.418723e+01
2.310000e-06	9.041655e-07	8.021648e-10	6.454175e+00	5.192980e+01
2.320000e-06	8.540627e-07	7.858957e-10	6.096528e+00	4.964881e+01
2.330000e-06	8.036986e-07	7.221990e-10	5.737015e+00	4.734987e+01
2.340000e-06	7.530342e-07	6.400011e-10	5.375359e+00	4.503769e+01
2.350000e-06	7.020382e-07	6.162082e-10	5.011336e+00	4.271574e+01
2.360000e-06	6.507285e-07	6.410335e-10	4.645074e+00	4.038597e+01
2.370000e-06	5.992049e-07	6.155339e-10	4.277285e+00	3.804884e+01
2.380000e-06	5.475348e-07	5.233592e-10	3.908450e+00	3.570356e+01
2.390000e-06	4.956969e-07	4.494998e-10	3.538417e+00	3.334839e+01
2.400000e-06	4.437005e-07	4.516384e-10	3.167252e+00	3.098119e+01
2.410000e-06	3.915681e-07	4.733038e-10	2.795117e+00	2.859981e+01
2.420000e-06	3.393490e-07	4.274373e-10	2.422364e+00	2.620259e+01
2.430000e-06	2.870450e-07	3.240683e-10	2.049004e+00	2.378867e+01
2.440000e-06	2.346152e-07	2.629088e-10	1.674746e+00	2.135813e+01
2.450000e-06	1.820613e-07	2.848917e-10	1.299602e+00	1.891199e+01
2.460000e-06	1.294165e-07	3.014672e-10	9.238094e-01	1.645206e+01
2.470000e-06	7.677213e-08	2.258974e-10	5.480199e-01	1.398067e+01
2.480000e-06	2.410850e-08	1.158095e-10	1.720929e-01	1.150031e+01
2.490000e-06	-2.857661e-08	8.927178e-11	-2.039875e-01	9.013286e+00
2.500000e-06	-8.119433e-08	1.274335e-10	-5.795868e-01	6.521416e+00
2.510000e-06	-1.337951e-07	1.083973e-10	-9.550650e-01	4.025843e+00
2.520000e-06	-1.863621e-07	4.578470e-12	-1.330302e+00	1.526950e+00
2.530000e-06	-2.389101e-07	-7.720571e-11	-1.705404e+00	-9.755720e-01
2.540000e-06	-2.914036e-07	-7.227528e-11	-2.080117e+00	-3.482547e+00
2.550000e-06	-3.437547e-07	-5.483440e-11	-2.453813e+00	-5.995041e+00
2.560000e-06	-3.959783e-07	-1.099236e-10	-2.826599e+00	-8.514057e+00
2.570000e-06	-4.480822e-07	-2.054713e-10	-3.198531e+00	-1.104023e+01
2.580000e-06	-5.000793e-07	-2.520117e-10	-3.569700e+00	-1.357358e+01
2.590000e-06	-5.519389e-07	-2.427905e-10	-3.939887e+00	-1.611337e+01
2.600000e-06	-6.036066e-07	-2.532645e-10	-4.308705e+00	-1.865804e+01
2.610000e-06	-6.549868e-07	-3.217557e-10	-4.675470e+00	-2.120533e+01
2.620000e-06	-7.059929e-07	-3.970501e-10	-5.039566e+00	-2.375238e+01
2.630000e-06	-7.566951e-07	-4.275250e-10	-5.401492e+00	-2.629602e+01
2.640000e-06	-8.071610e-07	-4.348488e-10	-5.761731e+00	-2.883303e+01
2.650000e-06	-8.573456e-07	-4.674887e-10	-6.119962e+00	-3.136041e+01
2.660000e-06	-9.072161e-07	-5.294996e-10	-6.475951e+00	-3.387556e+01
2.670000e-06	-9.567067e-07	-5.829252e-10	-6.829228e+00	-3.637646e+01
2.680000e-06	-1.005600e-06	-6.104982e-10	-7.178243e+00	-3.886170e+01
2.690000e-06	-1.053850e-06	-6.312546e-10	-7.522661e+00	-4.133048e+01
2.700000e-06	-1.101570e-06	-6.654581e-10	-7.863301e+00	-4.378246e+01
2.710000e-06	-1.148756e-06	-7.113165e-10	-8.200127e+00	-4.621770e+01
2.720000e-06	-1.195578e-06	-7.568532e-10	-8.534354e+00	-4.863641e+01
2.730000e-06	-1.242173e-06	-7.928784e-10	-8.866964e+00	-5.103885e+01
2.740000e-06	-1.288460e-06	-8.198553e-10	-9.197368e+00	-5.342521e+01
2.750000e-06	-1.334300e-06	-8.493334e-10	-9.524589e+00	-5.579551e+01
2.760000e-06	-1.379596e-06	-8.915081e-10	-9.847925e+00	-5.814957e+01
2.770000e-06	-1.424370e-06	-9.416799e-10	-1.016754e+01	-6.048706e+01
2.780000e-06	-1.468747e-06	-9.795326e-10	-1.048431e+01	-6.280746e+01
2.790000e-06	-1.512857e-06	-9.985871e-10	-1.079918e+01	-6.511013e+01
2.800000e-06	-1.556651e-06	-1.019227e-09	-1.111179e+01	-6.739435e+01
2.810000e-06	-1.599930e-06	-1.063477e-09	-1.142072e+01	-6.965923e+01
2.820000e-06	-1.642626e-06	-1.117742e-09	-1.172550e+01	-7.190370e+01
2.830000e-06	-1.684788e-06	-1.150637e-09	-1.202647e+01	-7.412645e+01
2.840000e-06	-1.726317e-06	-1.162893e-09	-1.232291e+01	-7.632579e+01
2.850000e-06	-1.767190e-06	-1.188918e-09	-1.261468e+01	-7.849959e+01
2.860000e-06	-1.807585e-06	-1.241996e-09	-1.290302e+01	-8.064520e+01
2.870000e-06	-1.847535e-06	-1.290134e-09	-1.318820e+01	-8.275952e+01
2.880000e-06	-1.886853e-06	-1.306804e-09	-1.346886e+01	-8.483898e+01
2.890000e-06	-1.925257e-06	-1.314040e-09	-1.374300e+01	-8.687977e+01
2.900000e-06	-1.962653e-06	-1.347855e-09	-1.400994e+01	-8.887803e+01
2.910000e-06	-1.999251e-06	-1.399737e-09	-1.427118e+01	-9.083010e+01
2.920000e-06	-2.035266e-06	-1.434160e-09	-1.452827e+01	-9.273284e+01
2.930000e-06	-2.070639e-06	-1.444108e-09	-1.478078e+01	-9.458384e+01
2.940000e-06	-2.105286e-06	-1.459924e-09	-1.502809e+01	-9.638164e+01
