# Temperatura_=_20.0
# Concentracion g/m^3_=_12600.0
# C_Vs_to_Am_M_A/Vsm_=_65563218390.804596
# pendiente_HvsI_1/m_=_3716.3
# ordenada_HvsI_A/m_=_1297.0
# frecuencia_Hz_=_301858.5002091355

Tiempo_(s)	Campo_(V.s)	Magnetizacion_(V.s)	Campo_(kA/m)	Magnetizacion_(A/m)
0.000000e+00	-2.771577e-06	-1.909171e-09	-1.979083e+01	-1.255329e+02
1.000000e-08	-2.771446e-06	-1.914967e-09	-1.978990e+01	-1.254606e+02
2.000000e-08	-2.770251e-06	-1.914142e-09	-1.978136e+01	-1.253513e+02
3.000000e-08	-2.767768e-06	-1.908411e-09	-1.976364e+01	-1.252035e+02
4.000000e-08	-2.764323e-06	-1.906515e-09	-1.973903e+01	-1.250150e+02
5.000000e-08	-2.760116e-06	-1.906601e-09	-1.970899e+01	-1.247834e+02
6.000000e-08	-2.755051e-06	-1.896456e-09	-1.967283e+01	-1.245064e+02
7.000000e-08	-2.749082e-06	-1.861260e-09	-1.963020e+01	-1.241824e+02
8.000000e-08	-2.742168e-06	-1.845218e-09	-1.958083e+01	-1.238109e+02
9.000000e-08	-2.734347e-06	-1.936369e-09	-1.952499e+01	-1.233928e+02
1.000000e-07	-2.725241e-06	-2.031536e-09	-1.945996e+01	-1.229307e+02
1.100000e-07	-2.714594e-06	-1.892292e-09	-1.938394e+01	-1.224294e+02
1.200000e-07	-2.702999e-06	-1.646814e-09	-1.930114e+01	-1.218955e+02
1.300000e-07	-2.690687e-06	-1.738069e-09	-1.921323e+01	-1.213369e+02
1.400000e-07	-2.677390e-06	-2.042278e-09	-1.911828e+01	-1.207628e+02
1.500000e-07	-2.663067e-06	-1.905540e-09	-1.901600e+01	-1.201825e+02
1.600000e-07	-2.647753e-06	-1.770453e-09	-1.890665e+01	-1.196047e+02
1.700000e-07	-2.631170e-06	-1.845959e-09	-1.878824e+01	-1.190364e+02
1.800000e-07	-2.613391e-06	-1.674199e-09	-1.866128e+01	-1.184820e+02
1.900000e-07	-2.595009e-06	-1.708053e-09	-1.853003e+01	-1.179429e+02
2.000000e-07	-2.576077e-06	-2.053850e-09	-1.839483e+01	-1.174165e+02
2.100000e-07	-2.556126e-06	-1.873759e-09	-1.825238e+01	-1.168968e+02
2.200000e-07	-2.535154e-06	-1.424816e-09	-1.810262e+01	-1.163738e+02
2.300000e-07	-2.513525e-06	-1.716950e-09	-1.794818e+01	-1.158350e+02
2.400000e-07	-2.491101e-06	-2.060279e-09	-1.778805e+01	-1.152655e+02
2.500000e-07	-2.467801e-06	-1.750480e-09	-1.762167e+01	-1.146499e+02
2.600000e-07	-2.443703e-06	-1.565015e-09	-1.744960e+01	-1.139732e+02
2.700000e-07	-2.418510e-06	-1.719256e-09	-1.726971e+01	-1.132223e+02
2.800000e-07	-2.392192e-06	-1.733901e-09	-1.708178e+01	-1.123869e+02
2.900000e-07	-2.365004e-06	-1.746501e-09	-1.688764e+01	-1.114605e+02
3.000000e-07	-2.336961e-06	-1.684709e-09	-1.668740e+01	-1.104409e+02
3.100000e-07	-2.308079e-06	-1.586521e-09	-1.648116e+01	-1.093301e+02
3.200000e-07	-2.278477e-06	-1.649730e-09	-1.626978e+01	-1.081344e+02
3.300000e-07	-2.248084e-06	-1.638977e-09	-1.605276e+01	-1.068631e+02
3.400000e-07	-2.216954e-06	-1.577894e-09	-1.583047e+01	-1.055278e+02
3.500000e-07	-2.185346e-06	-1.641341e-09	-1.560477e+01	-1.041413e+02
3.600000e-07	-2.153091e-06	-1.577225e-09	-1.537444e+01	-1.027162e+02
3.700000e-07	-2.119685e-06	-1.453601e-09	-1.513591e+01	-1.012640e+02
3.800000e-07	-2.085107e-06	-1.538709e-09	-1.488900e+01	-9.979396e+01
3.900000e-07	-2.049776e-06	-1.519765e-09	-1.463671e+01	-9.831280e+01
4.000000e-07	-2.013951e-06	-1.437894e-09	-1.438089e+01	-9.682422e+01
4.100000e-07	-1.977529e-06	-1.473491e-09	-1.412082e+01	-9.532907e+01
4.200000e-07	-1.940368e-06	-1.436770e-09	-1.385547e+01	-9.382573e+01
4.300000e-07	-1.902476e-06	-1.340057e-09	-1.358489e+01	-9.231072e+01
4.400000e-07	-1.863866e-06	-1.374943e-09	-1.330920e+01	-9.077941e+01
4.500000e-07	-1.824688e-06	-1.418931e-09	-1.302944e+01	-8.922682e+01
4.600000e-07	-1.785140e-06	-1.352699e-09	-1.274704e+01	-8.764823e+01
4.700000e-07	-1.745131e-06	-1.261088e-09	-1.246135e+01	-8.603976e+01
4.800000e-07	-1.704343e-06	-1.231312e-09	-1.217010e+01	-8.439861e+01
4.900000e-07	-1.662505e-06	-1.287677e-09	-1.187134e+01	-8.272318e+01
5.000000e-07	-1.619680e-06	-1.294129e-09	-1.156555e+01	-8.101292e+01
5.100000e-07	-1.576279e-06	-1.206079e-09	-1.125564e+01	-7.926806e+01
5.200000e-07	-1.532577e-06	-1.126855e-09	-1.094358e+01	-7.748919e+01
5.300000e-07	-1.488470e-06	-1.136842e-09	-1.062863e+01	-7.567691e+01
5.400000e-07	-1.443764e-06	-1.168574e-09	-1.030940e+01	-7.383149e+01
5.500000e-07	-1.398467e-06	-1.145725e-09	-9.985949e+00	-7.195265e+01
5.600000e-07	-1.352636e-06	-1.070164e-09	-9.658689e+00	-7.003951e+01
5.700000e-07	-1.306252e-06	-9.916187e-10	-9.327477e+00	-6.809069e+01
5.800000e-07	-1.259388e-06	-9.863084e-10	-8.992836e+00	-6.610459e+01
5.900000e-07	-1.212228e-06	-1.013517e-09	-8.656080e+00	-6.407968e+01
6.000000e-07	-1.164810e-06	-9.818681e-10	-8.317489e+00	-6.201492e+01
6.100000e-07	-1.117051e-06	-9.013908e-10	-7.976457e+00	-5.991009e+01
6.200000e-07	-1.068785e-06	-8.568588e-10	-7.631805e+00	-5.776609e+01
6.300000e-07	-1.019836e-06	-8.487386e-10	-7.282279e+00	-5.558497e+01
6.400000e-07	-9.701866e-07	-8.433397e-10	-6.927752e+00	-5.337000e+01
6.500000e-07	-9.199462e-07	-8.224482e-10	-6.569004e+00	-5.112536e+01
6.600000e-07	-8.692749e-07	-7.632000e-10	-6.207179e+00	-4.885589e+01
6.700000e-07	-8.182638e-07	-6.903593e-10	-5.842927e+00	-4.656661e+01
6.800000e-07	-7.669358e-07	-6.592508e-10	-5.476412e+00	-4.426229e+01
6.900000e-07	-7.153855e-07	-6.730138e-10	-5.108309e+00	-4.194705e+01
7.000000e-07	-6.636685e-07	-6.500610e-10	-4.739017e+00	-3.962401e+01
7.100000e-07	-6.116802e-07	-5.720744e-10	-4.367788e+00	-3.729515e+01
7.200000e-07	-5.594091e-07	-5.087851e-10	-3.994538e+00	-3.496128e+01
7.300000e-07	-5.069468e-07	-5.025853e-10	-3.619924e+00	-3.262216e+01
7.400000e-07	-4.543400e-07	-5.109995e-10	-3.244278e+00	-3.027678e+01
7.500000e-07	-4.015461e-07	-4.759744e-10	-2.867296e+00	-2.792374e+01
7.600000e-07	-3.485080e-07	-3.974657e-10	-2.488570e+00	-2.556159e+01
7.700000e-07	-2.953017e-07	-3.283467e-10	-2.108643e+00	-2.318921e+01
7.800000e-07	-2.420547e-07	-3.220435e-10	-1.728425e+00	-2.080605e+01
7.900000e-07	-1.887997e-07	-3.361791e-10	-1.348150e+00	-1.841228e+01
8.000000e-07	-1.354945e-07	-2.903627e-10	-9.675172e-01	-1.600880e+01
8.100000e-07	-8.210937e-08	-1.959153e-10	-5.863134e-01	-1.359710e+01
8.200000e-07	-2.866315e-08	-1.457029e-10	-2.046732e-01	-1.117898e+01
8.300000e-07	2.478199e-08	-1.615081e-10	1.769592e-01	-8.756335e+00
8.400000e-07	7.818695e-08	-1.590118e-10	5.583048e-01	-6.330745e+00
8.500000e-07	1.315477e-07	-8.892517e-11	9.393349e-01	-3.903269e+00
8.600000e-07	1.848814e-07	-6.121683e-12	1.320171e+00	-1.474256e+00
8.700000e-07	2.382222e-07	2.036704e-11	1.701058e+00	9.567041e-01
8.800000e-07	2.915123e-07	1.616191e-11	2.081584e+00	3.390689e+00
8.900000e-07	3.446503e-07	4.589613e-11	2.461023e+00	5.829228e+00
9.000000e-07	3.976666e-07	1.167001e-10	2.839594e+00	8.273991e+00
9.100000e-07	4.505877e-07	1.757006e-10	3.217484e+00	1.072643e+01
9.200000e-07	5.033706e-07	1.948111e-10	3.594388e+00	1.318743e+01
9.300000e-07	5.558807e-07	2.040464e-10	3.969344e+00	1.565701e+01
9.400000e-07	6.080658e-07	2.408943e-10	4.341978e+00	1.813418e+01
9.500000e-07	6.599800e-07	3.020274e-10	4.712679e+00	2.061684e+01
9.600000e-07	7.116722e-07	3.521565e-10	5.081795e+00	2.310194e+01
9.700000e-07	7.631482e-07	3.797318e-10	5.449366e+00	2.558572e+01
9.800000e-07	8.143071e-07	4.007316e-10	5.814673e+00	2.806403e+01
9.900000e-07	8.651044e-07	4.366823e-10	6.177399e+00	3.053277e+01
1.000000e-06	9.155078e-07	4.866589e-10	6.537311e+00	3.298826e+01
1.010000e-06	9.654160e-07	5.328578e-10	6.893687e+00	3.542763e+01
1.020000e-06	1.014714e-06	5.622093e-10	7.245709e+00	3.784902e+01
1.030000e-06	1.063292e-06	5.816733e-10	7.592583e+00	4.025174e+01
1.040000e-06	1.111261e-06	6.121363e-10	7.935110e+00	4.263617e+01
1.050000e-06	1.158891e-06	6.612642e-10	8.275224e+00	4.500362e+01
1.060000e-06	1.206283e-06	7.143081e-10	8.613635e+00	4.735600e+01
1.070000e-06	1.253375e-06	7.466737e-10	8.949897e+00	4.969547e+01
1.080000e-06	1.300023e-06	7.627328e-10	9.282994e+00	5.202402e+01
1.090000e-06	1.346142e-06	7.913945e-10	9.612311e+00	5.434316e+01
1.100000e-06	1.391727e-06	8.448921e-10	9.937823e+00	5.665361e+01
1.110000e-06	1.436793e-06	8.943265e-10	1.025962e+01	5.895510e+01
1.120000e-06	1.481359e-06	9.160915e-10	1.057785e+01	6.124640e+01
1.130000e-06	1.525463e-06	9.264303e-10	1.089278e+01	6.352533e+01
1.140000e-06	1.569184e-06	9.602330e-10	1.120498e+01	6.578898e+01
1.150000e-06	1.612615e-06	1.019867e-09	1.151510e+01	6.803395e+01
1.160000e-06	1.655694e-06	1.070174e-09	1.182271e+01	7.025662e+01
1.170000e-06	1.698100e-06	1.090800e-09	1.212552e+01	7.245344e+01
1.180000e-06	1.739480e-06	1.104233e-09	1.242100e+01	7.462112e+01
1.190000e-06	1.779865e-06	1.144829e-09	1.270937e+01	7.675680e+01
1.200000e-06	1.819597e-06	1.202055e-09	1.299308e+01	7.885808e+01
1.210000e-06	1.858878e-06	1.234833e-09	1.327358e+01	8.092304e+01
1.220000e-06	1.897637e-06	1.238461e-09	1.355034e+01	8.295011e+01
1.230000e-06	1.935784e-06	1.251282e-09	1.382273e+01	8.493799e+01
1.240000e-06	1.973216e-06	1.294623e-09	1.409003e+01	8.688548e+01
1.250000e-06	2.009870e-06	1.342041e-09	1.435176e+01	8.879140e+01
1.260000e-06	2.045838e-06	1.365961e-09	1.460859e+01	9.065456e+01
1.270000e-06	2.081362e-06	1.376756e-09	1.486226e+01	9.247369e+01
1.280000e-06	2.116362e-06	1.401796e-09	1.511218e+01	9.424757e+01
1.290000e-06	2.150342e-06	1.445162e-09	1.535481e+01	9.597506e+01
1.300000e-06	2.183111e-06	1.482690e-09	1.558881e+01	9.765531e+01
1.310000e-06	2.214986e-06	1.500204e-09	1.581642e+01	9.928782e+01
1.320000e-06	2.246257e-06	1.509297e-09	1.603971e+01	1.008726e+02
1.330000e-06	2.276829e-06	1.530958e-09	1.625801e+01	1.024100e+02
1.340000e-06	2.306616e-06	1.563225e-09	1.647071e+01	1.039011e+02
1.350000e-06	2.335629e-06	1.590096e-09	1.667789e+01	1.053471e+02
1.360000e-06	2.363876e-06	1.605781e-09	1.687959e+01	1.067496e+02
1.370000e-06	2.391510e-06	1.621575e-09	1.707691e+01	1.081100e+02
1.380000e-06	2.418484e-06	1.645806e-09	1.726952e+01	1.094294e+02
1.390000e-06	2.444342e-06	1.674238e-09	1.745416e+01	1.107086e+02
1.400000e-06	2.468944e-06	1.697739e-09	1.762984e+01	1.119477e+02
1.410000e-06	2.492649e-06	1.713108e-09	1.779911e+01	1.131459e+02
1.420000e-06	2.515530e-06	1.723486e-09	1.796249e+01	1.143017e+02
1.430000e-06	2.537529e-06	1.735913e-09	1.811958e+01	1.154132e+02
1.440000e-06	2.558680e-06	1.756622e-09	1.827061e+01	1.164775e+02
1.450000e-06	2.579016e-06	1.779990e-09	1.841582e+01	1.174917e+02
1.460000e-06	2.598695e-06	1.794271e-09	1.855634e+01	1.184528e+02
1.470000e-06	2.617661e-06	1.801435e-09	1.869177e+01	1.193582e+02
1.480000e-06	2.635641e-06	1.815288e-09	1.882016e+01	1.202052e+02
1.490000e-06	2.652612e-06	1.838019e-09	1.894135e+01	1.209923e+02
1.500000e-06	2.668660e-06	1.856860e-09	1.905593e+01	1.217183e+02
1.510000e-06	2.683651e-06	1.861456e-09	1.916298e+01	1.223829e+02
1.520000e-06	2.697539e-06	1.858814e-09	1.926215e+01	1.229865e+02
1.530000e-06	2.710433e-06	1.864158e-09	1.935422e+01	1.235300e+02
1.540000e-06	2.722376e-06	1.880941e-09	1.943951e+01	1.240150e+02
1.550000e-06	2.733263e-06	1.894133e-09	1.951724e+01	1.244434e+02
1.560000e-06	2.742838e-06	1.893904e-09	1.958562e+01	1.248173e+02
1.570000e-06	2.751121e-06	1.891383e-09	1.964476e+01	1.251391e+02
1.580000e-06	2.758479e-06	1.900640e-09	1.969731e+01	1.254112e+02
1.590000e-06	2.764972e-06	1.916849e-09	1.974367e+01	1.256361e+02
1.600000e-06	2.770470e-06	1.923950e-09	1.978292e+01	1.258163e+02
1.610000e-06	2.775042e-06	1.918374e-09	1.981557e+01	1.259540e+02
1.620000e-06	2.778846e-06	1.913463e-09	1.984274e+01	1.260516e+02
1.630000e-06	2.781776e-06	1.918177e-09	1.986366e+01	1.261108e+02
1.640000e-06	2.783441e-06	1.925252e-09	1.987555e+01	1.261331e+02
1.650000e-06	2.783854e-06	1.925366e-09	1.987850e+01	1.261195e+02
1.660000e-06	2.783398e-06	1.919775e-09	1.987524e+01	1.260701e+02
1.670000e-06	2.782132e-06	1.914471e-09	1.986620e+01	1.259845e+02
1.680000e-06	2.779951e-06	1.916640e-09	1.985063e+01	1.258615e+02
1.690000e-06	2.776842e-06	1.920781e-09	1.982843e+01	1.256992e+02
1.700000e-06	2.772954e-06	1.917077e-09	1.980066e+01	1.254954e+02
1.710000e-06	2.768458e-06	1.910791e-09	1.976856e+01	1.252476e+02
1.720000e-06	2.763044e-06	1.925559e-09	1.972990e+01	1.249537e+02
1.730000e-06	2.756359e-06	1.949659e-09	1.968216e+01	1.246126e+02
1.740000e-06	2.748560e-06	1.846495e-09	1.962647e+01	1.242240e+02
1.750000e-06	2.739686e-06	1.716601e-09	1.956311e+01	1.237896e+02
1.760000e-06	2.729385e-06	1.822768e-09	1.948956e+01	1.233126e+02
1.770000e-06	2.717928e-06	2.065619e-09	1.940774e+01	1.227986e+02
1.780000e-06	2.706263e-06	2.015641e-09	1.932445e+01	1.222546e+02
1.790000e-06	2.694248e-06	1.686222e-09	1.923865e+01	1.216893e+02
1.800000e-06	2.680594e-06	1.767107e-09	1.914116e+01	1.211117e+02
1.810000e-06	2.665192e-06	1.895876e-09	1.903118e+01	1.205312e+02
1.820000e-06	2.649116e-06	1.783114e-09	1.891638e+01	1.199558e+02
1.830000e-06	2.632442e-06	1.926322e-09	1.879732e+01	1.193919e+02
1.840000e-06	2.614588e-06	1.955900e-09	1.866983e+01	1.188428e+02
1.850000e-06	2.595797e-06	1.572125e-09	1.853565e+01	1.183085e+02
1.860000e-06	2.576511e-06	1.623737e-09	1.839794e+01	1.177852e+02
1.870000e-06	2.556510e-06	2.114559e-09	1.825512e+01	1.172654e+02
1.880000e-06	2.535523e-06	1.886873e-09	1.810525e+01	1.167382e+02
1.890000e-06	2.513338e-06	1.492231e-09	1.794684e+01	1.161899e+02
1.900000e-06	2.489863e-06	1.870541e-09	1.777921e+01	1.156055e+02
1.910000e-06	2.465583e-06	2.004995e-09	1.760584e+01	1.149695e+02
1.920000e-06	2.440629e-06	1.654396e-09	1.742765e+01	1.142675e+02
1.930000e-06	2.414623e-06	1.695172e-09	1.724195e+01	1.134872e+02
1.940000e-06	2.387747e-06	1.786554e-09	1.705004e+01	1.126196e+02
1.950000e-06	2.360226e-06	1.726814e-09	1.685353e+01	1.116597e+02
1.960000e-06	2.331942e-06	1.736940e-09	1.665156e+01	1.106069e+02
1.970000e-06	2.302970e-06	1.642002e-09	1.644468e+01	1.094647e+02
1.980000e-06	2.273038e-06	1.662229e-09	1.623094e+01	1.082406e+02
1.990000e-06	2.241791e-06	1.771230e-09	1.600782e+01	1.069448e+02
2.000000e-06	2.209626e-06	1.568069e-09	1.577814e+01	1.055895e+02
2.010000e-06	2.176824e-06	1.558743e-09	1.554392e+01	1.041876e+02
2.020000e-06	2.143266e-06	1.720785e-09	1.530429e+01	1.027514e+02
2.030000e-06	2.109009e-06	1.544399e-09	1.505967e+01	1.012916e+02
2.040000e-06	2.074007e-06	1.508304e-09	1.480974e+01	9.981681e+01
2.050000e-06	2.038288e-06	1.593482e-09	1.455468e+01	9.833252e+01
2.060000e-06	2.002124e-06	1.454670e-09	1.429645e+01	9.684142e+01
2.070000e-06	1.965431e-06	1.461246e-09	1.403443e+01	9.534343e+01
2.080000e-06	1.927786e-06	1.524929e-09	1.376562e+01	9.383619e+01
2.090000e-06	1.889086e-06	1.431027e-09	1.348928e+01	9.231571e+01
2.100000e-06	1.849532e-06	1.384481e-09	1.320684e+01	9.077716e+01
2.110000e-06	1.809418e-06	1.352667e-09	1.292040e+01	8.921558e+01
2.120000e-06	1.768885e-06	1.375584e-09	1.263097e+01	8.762650e+01
2.130000e-06	1.727770e-06	1.406428e-09	1.233738e+01	8.600640e+01
2.140000e-06	1.686003e-06	1.279993e-09	1.203914e+01	8.435292e+01
2.150000e-06	1.643640e-06	1.225561e-09	1.173664e+01	8.266486e+01
2.160000e-06	1.600754e-06	1.269323e-09	1.143041e+01	8.094198e+01
2.170000e-06	1.557349e-06	1.263401e-09	1.112047e+01	7.918468e+01
2.180000e-06	1.513447e-06	1.221111e-09	1.080698e+01	7.739361e+01
2.190000e-06	1.469212e-06	1.156847e-09	1.049112e+01	7.556928e+01
2.200000e-06	1.424638e-06	1.123699e-09	1.017283e+01	7.371178e+01
2.210000e-06	1.379454e-06	1.119922e-09	9.850183e+00	7.182060e+01
2.220000e-06	1.333602e-06	1.108396e-09	9.522774e+00	6.989469e+01
2.230000e-06	1.287190e-06	1.079800e-09	9.191362e+00	6.793253e+01
2.240000e-06	1.240357e-06	1.006916e-09	8.856941e+00	6.593251e+01
2.250000e-06	1.193239e-06	9.608034e-10	8.520488e+00	6.389324e+01
2.260000e-06	1.145826e-06	9.692108e-10	8.181930e+00	6.181393e+01
2.270000e-06	1.097970e-06	9.470573e-10	7.840204e+00	5.969474e+01
2.280000e-06	1.049503e-06	9.169620e-10	7.494121e+00	5.753697e+01
2.290000e-06	1.000426e-06	8.667945e-10	7.143681e+00	5.534312e+01
2.300000e-06	9.509017e-07	8.000293e-10	6.790046e+00	5.311682e+01
2.310000e-06	9.010882e-07	7.832049e-10	6.434346e+00	5.086252e+01
2.320000e-06	8.509988e-07	7.882193e-10	6.076676e+00	4.858519e+01
2.330000e-06	8.006196e-07	7.564740e-10	5.716936e+00	4.628981e+01
2.340000e-06	7.499772e-07	6.677411e-10	5.355316e+00	4.398095e+01
2.350000e-06	6.990850e-07	6.019610e-10	4.991914e+00	4.166241e+01
2.360000e-06	6.478368e-07	6.169421e-10	4.625969e+00	3.933692e+01
2.370000e-06	5.962942e-07	6.222206e-10	4.257921e+00	3.700603e+01
2.380000e-06	5.445813e-07	5.590190e-10	3.888658e+00	3.467014e+01
2.390000e-06	4.926886e-07	4.777766e-10	3.518112e+00	3.232872e+01
2.400000e-06	4.406744e-07	4.358102e-10	3.146697e+00	2.998056e+01
2.410000e-06	3.885455e-07	4.445078e-10	2.774463e+00	2.762421e+01
2.420000e-06	3.363067e-07	4.407292e-10	2.401445e+00	2.525830e+01
2.430000e-06	2.839823e-07	3.702636e-10	2.027815e+00	2.288189e+01
2.440000e-06	2.315796e-07	2.794823e-10	1.653626e+00	2.049467e+01
2.450000e-06	1.790927e-07	2.487577e-10	1.278837e+00	1.809708e+01
2.460000e-06	1.265167e-07	2.770579e-10	9.034101e-01	1.569026e+01
2.470000e-06	7.389508e-08	2.590067e-10	5.276581e-01	1.327583e+01
2.480000e-06	2.123464e-08	1.650718e-10	1.516289e-01	1.085568e+01
2.490000e-06	-3.145121e-08	9.552961e-11	-2.245818e-01	8.431612e+00
2.500000e-06	-8.416669e-08	9.882766e-11	-6.010040e-01	6.005050e+00
2.510000e-06	-1.368568e-07	1.062578e-10	-9.772453e-01	3.576813e+00
2.520000e-06	-1.894017e-07	5.042749e-11	-1.352449e+00	1.146978e+00
2.530000e-06	-2.418709e-07	-3.378806e-11	-1.727113e+00	-1.285121e+00
2.540000e-06	-2.943289e-07	-7.827824e-11	-2.101696e+00	-3.720754e+00
2.550000e-06	-3.467085e-07	-8.438798e-11	-2.475720e+00	-6.161539e+00
2.560000e-06	-3.989731e-07	-1.013898e-10	-2.848923e+00	-8.609111e+00
2.570000e-06	-4.511183e-07	-1.499816e-10	-3.221273e+00	-1.106476e+01
2.580000e-06	-5.031550e-07	-2.095302e-10	-3.592848e+00	-1.352908e+01
2.590000e-06	-5.550381e-07	-2.494755e-10	-3.963327e+00	-1.600176e+01
2.600000e-06	-6.067000e-07	-2.687350e-10	-4.332225e+00	-1.848139e+01
2.610000e-06	-6.580683e-07	-2.939265e-10	-4.699028e+00	-2.096553e+01
2.620000e-06	-7.090991e-07	-3.385404e-10	-5.063420e+00	-2.345083e+01
2.630000e-06	-7.598253e-07	-3.952932e-10	-5.425638e+00	-2.593335e+01
2.640000e-06	-8.102709e-07	-4.443610e-10	-5.785852e+00	-2.840891e+01
2.650000e-06	-8.604068e-07	-4.735434e-10	-6.143854e+00	-3.087352e+01
2.660000e-06	-9.100931e-07	-4.947122e-10	-6.498646e+00	-3.332374e+01
2.670000e-06	-9.592144e-07	-5.301771e-10	-6.849404e+00	-3.575705e+01
2.680000e-06	-1.007840e-06	-5.843496e-10	-7.196621e+00	-3.817201e+01
2.690000e-06	-1.055949e-06	-6.335270e-10	-7.540153e+00	-4.056832e+01
2.700000e-06	-1.103455e-06	-6.571986e-10	-7.879371e+00	-4.294671e+01
2.710000e-06	-1.150555e-06	-6.700848e-10	-8.215702e+00	-4.530874e+01
2.720000e-06	-1.197382e-06	-7.074872e-10	-8.550072e+00	-4.765647e+01
2.730000e-06	-1.243913e-06	-7.710881e-10	-8.882331e+00	-4.999204e+01
2.740000e-06	-1.290159e-06	-8.219205e-10	-9.212559e+00	-5.231731e+01
2.750000e-06	-1.336027e-06	-8.381831e-10	-9.540089e+00	-5.463353e+01
2.760000e-06	-1.381373e-06	-8.499133e-10	-9.863887e+00	-5.694107e+01
2.770000e-06	-1.426163e-06	-8.928487e-10	-1.018371e+01	-5.923933e+01
2.780000e-06	-1.470556e-06	-9.533608e-10	-1.050071e+01	-6.152671e+01
2.790000e-06	-1.514664e-06	-9.899840e-10	-1.081567e+01	-6.380076e+01
2.800000e-06	-1.558433e-06	-9.961963e-10	-1.112821e+01	-6.605836e+01
2.810000e-06	-1.601634e-06	-1.012985e-09	-1.143669e+01	-6.829599e+01
2.820000e-06	-1.644202e-06	-1.066056e-09	-1.174066e+01	-7.051004e+01
2.830000e-06	-1.686280e-06	-1.126961e-09	-1.204112e+01	-7.269702e+01
2.840000e-06	-1.727796e-06	-1.156354e-09	-1.233757e+01	-7.485379e+01
2.850000e-06	-1.768685e-06	-1.163647e-09	-1.262954e+01	-7.697764e+01
2.860000e-06	-1.809048e-06	-1.190573e-09	-1.291776e+01	-7.906637e+01
2.870000e-06	-1.848964e-06	-1.243751e-09	-1.320278e+01	-8.111817e+01
2.880000e-06	-1.888196e-06	-1.286354e-09	-1.348293e+01	-8.313160e+01
2.890000e-06	-1.926438e-06	-1.299409e-09	-1.375600e+01	-8.510539e+01
2.900000e-06	-1.963728e-06	-1.309816e-09	-1.402227e+01	-8.703839e+01
2.910000e-06	-2.000279e-06	-1.345264e-09	-1.428327e+01	-8.892939e+01
2.920000e-06	-2.036263e-06	-1.393736e-09	-1.454022e+01	-9.077718e+01
2.930000e-06	-2.071575e-06	-1.428270e-09	-1.479237e+01	-9.258050e+01
2.940000e-06	-2.106137e-06	-1.445655e-09	-1.503916e+01	-9.433814e+01
