# Temperatura_=_20.0
# Concentracion g/m^3_=_12600.0
# C_Vs_to_Am_M_A/Vsm_=_65563218390.804596
# pendiente_HvsI_1/m_=_3716.3
# ordenada_HvsI_A/m_=_1297.0
# frecuencia_Hz_=_301863.9937380174

Tiempo_(s)	Campo_(V.s)	Magnetizacion_(V.s)	Campo_(kA/m)	Magnetizacion_(A/m)
0.000000e+00	-2.771333e-06	-1.954306e-09	-1.978812e+01	-1.290055e+02
1.000000e-08	-2.771206e-06	-1.958555e-09	-1.978721e+01	-1.290039e+02
2.000000e-08	-2.770026e-06	-1.959437e-09	-1.977879e+01	-1.289650e+02
3.000000e-08	-2.767560e-06	-1.956396e-09	-1.976118e+01	-1.288844e+02
4.000000e-08	-2.764163e-06	-1.956108e-09	-1.973692e+01	-1.287569e+02
5.000000e-08	-2.759985e-06	-1.957544e-09	-1.970709e+01	-1.285773e+02
6.000000e-08	-2.754932e-06	-1.947807e-09	-1.967101e+01	-1.283409e+02
7.000000e-08	-2.748970e-06	-1.912274e-09	-1.962844e+01	-1.280446e+02
8.000000e-08	-2.742098e-06	-1.895150e-09	-1.957937e+01	-1.276869e+02
9.000000e-08	-2.734310e-06	-1.999491e-09	-1.952376e+01	-1.272691e+02
1.000000e-07	-2.725188e-06	-2.100735e-09	-1.945863e+01	-1.267948e+02
1.100000e-07	-2.714541e-06	-1.949050e-09	-1.938261e+01	-1.262703e+02
1.200000e-07	-2.702971e-06	-1.657037e-09	-1.929999e+01	-1.257037e+02
1.300000e-07	-2.690703e-06	-1.765102e-09	-1.921239e+01	-1.251047e+02
1.400000e-07	-2.677436e-06	-2.121707e-09	-1.911767e+01	-1.244835e+02
1.500000e-07	-2.663180e-06	-1.974876e-09	-1.901588e+01	-1.238495e+02
1.600000e-07	-2.648057e-06	-1.821125e-09	-1.890789e+01	-1.232109e+02
1.700000e-07	-2.631662e-06	-1.880047e-09	-1.879083e+01	-1.225731e+02
1.800000e-07	-2.614001e-06	-1.721642e-09	-1.866472e+01	-1.219389e+02
1.900000e-07	-2.595693e-06	-1.791585e-09	-1.853400e+01	-1.213072e+02
2.000000e-07	-2.576735e-06	-2.174131e-09	-1.839863e+01	-1.206738e+02
2.100000e-07	-2.556766e-06	-1.917210e-09	-1.825605e+01	-1.200314e+02
2.200000e-07	-2.535843e-06	-1.406477e-09	-1.810666e+01	-1.193702e+02
2.300000e-07	-2.514263e-06	-1.815371e-09	-1.795257e+01	-1.186790e+02
2.400000e-07	-2.491851e-06	-2.192845e-09	-1.779254e+01	-1.179464e+02
2.500000e-07	-2.468548e-06	-1.739570e-09	-1.762615e+01	-1.171614e+02
2.600000e-07	-2.444437e-06	-1.523992e-09	-1.745399e+01	-1.163149e+02
2.700000e-07	-2.419231e-06	-1.750497e-09	-1.727401e+01	-1.154001e+02
2.800000e-07	-2.392901e-06	-1.812024e-09	-1.708600e+01	-1.144131e+02
2.900000e-07	-2.365655e-06	-1.842819e-09	-1.689146e+01	-1.133533e+02
3.000000e-07	-2.337541e-06	-1.696040e-09	-1.669072e+01	-1.122226e+02
3.100000e-07	-2.308554e-06	-1.522604e-09	-1.648375e+01	-1.110255e+02
3.200000e-07	-2.278910e-06	-1.670494e-09	-1.627208e+01	-1.097682e+02
3.300000e-07	-2.248558e-06	-1.775644e-09	-1.605535e+01	-1.084578e+02
3.400000e-07	-2.217396e-06	-1.645408e-09	-1.583285e+01	-1.071015e+02
3.500000e-07	-2.185724e-06	-1.601989e-09	-1.560670e+01	-1.057056e+02
3.600000e-07	-2.153453e-06	-1.546304e-09	-1.537628e+01	-1.042755e+02
3.700000e-07	-2.120138e-06	-1.517447e-09	-1.513840e+01	-1.028149e+02
3.800000e-07	-2.085688e-06	-1.659859e-09	-1.489241e+01	-1.013261e+02
3.900000e-07	-2.050414e-06	-1.567321e-09	-1.464055e+01	-9.980987e+01
4.000000e-07	-2.014582e-06	-1.394006e-09	-1.438470e+01	-9.826591e+01
4.100000e-07	-1.978132e-06	-1.458076e-09	-1.412444e+01	-9.669347e+01
4.200000e-07	-1.941012e-06	-1.527814e-09	-1.385939e+01	-9.509175e+01
4.300000e-07	-1.903188e-06	-1.434348e-09	-1.358931e+01	-9.346039e+01
4.400000e-07	-1.864575e-06	-1.371701e-09	-1.331361e+01	-9.179978e+01
4.500000e-07	-1.825362e-06	-1.362419e-09	-1.303361e+01	-9.011128e+01
4.600000e-07	-1.785810e-06	-1.367713e-09	-1.275120e+01	-8.839711e+01
4.700000e-07	-1.745841e-06	-1.346955e-09	-1.246581e+01	-8.666015e+01
4.800000e-07	-1.705072e-06	-1.281194e-09	-1.217471e+01	-8.490356e+01
4.900000e-07	-1.663254e-06	-1.254266e-09	-1.187612e+01	-8.313026e+01
5.000000e-07	-1.620511e-06	-1.246013e-09	-1.157092e+01	-8.134248e+01
5.100000e-07	-1.577184e-06	-1.230284e-09	-1.126155e+01	-7.954133e+01
5.200000e-07	-1.533499e-06	-1.188096e-09	-1.094963e+01	-7.772647e+01
5.300000e-07	-1.489444e-06	-1.152835e-09	-1.063506e+01	-7.589604e+01
5.400000e-07	-1.444831e-06	-1.125227e-09	-1.031651e+01	-7.404673e+01
5.500000e-07	-1.399584e-06	-1.119701e-09	-9.993437e+00	-7.217406e+01
5.600000e-07	-1.353805e-06	-1.103910e-09	-9.666560e+00	-7.027287e+01
5.700000e-07	-1.307477e-06	-1.040751e-09	-9.335763e+00	-6.833785e+01
5.800000e-07	-1.260657e-06	-9.889622e-10	-9.001455e+00	-6.636416e+01
5.900000e-07	-1.213474e-06	-9.842511e-10	-8.664557e+00	-6.434798e+01
6.000000e-07	-1.166012e-06	-9.794255e-10	-8.325665e+00	-6.228699e+01
6.100000e-07	-1.118262e-06	-9.278917e-10	-7.984715e+00	-6.018061e+01
6.200000e-07	-1.069990e-06	-8.744112e-10	-7.640038e+00	-5.803012e+01
6.300000e-07	-1.020993e-06	-8.350203e-10	-7.290186e+00	-5.583854e+01
6.400000e-07	-9.713571e-07	-8.236570e-10	-6.935771e+00	-5.361035e+01
6.500000e-07	-9.211909e-07	-8.222901e-10	-6.577570e+00	-5.135099e+01
6.600000e-07	-8.705689e-07	-7.788158e-10	-6.216114e+00	-4.906641e+01
6.700000e-07	-8.195799e-07	-7.004699e-10	-5.852037e+00	-4.676250e+01
6.800000e-07	-7.682784e-07	-6.580888e-10	-5.485730e+00	-4.444457e+01
6.900000e-07	-7.167410e-07	-6.717474e-10	-5.117738e+00	-4.211699e+01
7.000000e-07	-6.649934e-07	-6.499889e-10	-4.748245e+00	-3.978296e+01
7.100000e-07	-6.130616e-07	-5.709005e-10	-4.377437e+00	-3.744437e+01
7.200000e-07	-5.609727e-07	-5.046226e-10	-4.005508e+00	-3.510189e+01
7.300000e-07	-5.086143e-07	-4.968570e-10	-3.631653e+00	-3.275513e+01
7.400000e-07	-4.559794e-07	-5.023076e-10	-3.255825e+00	-3.040297e+01
7.500000e-07	-4.031796e-07	-4.653315e-10	-2.878819e+00	-2.804382e+01
7.600000e-07	-3.501744e-07	-3.883881e-10	-2.500346e+00	-2.567600e+01
7.700000e-07	-2.969460e-07	-3.256375e-10	-2.120280e+00	-2.329793e+01
7.800000e-07	-2.436442e-07	-3.237413e-10	-1.739690e+00	-2.090841e+01
7.900000e-07	-1.903841e-07	-3.316388e-10	-1.359397e+00	-1.850664e+01
8.000000e-07	-1.371122e-07	-2.759747e-10	-9.790210e-01	-1.609231e+01
8.100000e-07	-8.377440e-08	-1.794543e-10	-5.981734e-01	-1.366542e+01
8.200000e-07	-3.038315e-08	-1.401413e-10	-2.169445e-01	-1.122626e+01
8.300000e-07	2.305110e-08	-1.615313e-10	1.645916e-01	-8.775195e+00
8.400000e-07	7.644776e-08	-1.486566e-10	5.458591e-01	-6.312569e+00
8.500000e-07	1.298293e-07	-6.444614e-11	9.270185e-01	-3.838592e+00
8.600000e-07	1.832415e-07	1.563791e-11	1.308398e+00	-1.353314e+00
8.700000e-07	2.366104e-07	2.518426e-11	1.689467e+00	1.143346e+00
8.800000e-07	2.899250e-07	1.533370e-11	2.070148e+00	3.651511e+00
8.900000e-07	3.431515e-07	6.030481e-11	2.450201e+00	6.171203e+00
9.000000e-07	3.962521e-07	1.490262e-10	2.829355e+00	8.702189e+00
9.100000e-07	4.492241e-07	2.036584e-10	3.207590e+00	1.124383e+01
9.200000e-07	5.020230e-07	2.047513e-10	3.584590e+00	1.379494e+01
9.300000e-07	5.545504e-07	2.116329e-10	3.959650e+00	1.635376e+01
9.400000e-07	6.067241e-07	2.716646e-10	4.332186e+00	1.891790e+01
9.500000e-07	6.586488e-07	3.510713e-10	4.702943e+00	2.148448e+01
9.600000e-07	7.104791e-07	3.858776e-10	5.073026e+00	2.405020e+01
9.700000e-07	7.620940e-07	3.857624e-10	5.441572e+00	2.661158e+01
9.800000e-07	8.133085e-07	4.091491e-10	5.807258e+00	2.916514e+01
9.900000e-07	8.641628e-07	4.772164e-10	6.170373e+00	3.170767e+01
1.000000e-06	9.145866e-07	5.435390e-10	6.530413e+00	3.423639e+01
1.010000e-06	9.644178e-07	5.685753e-10	6.886222e+00	3.674913e+01
1.020000e-06	1.013583e-06	5.746318e-10	7.237278e+00	3.924443e+01
1.030000e-06	1.062071e-06	6.100185e-10	7.583496e+00	4.172161e+01
1.040000e-06	1.110043e-06	6.753956e-10	7.926026e+00	4.418067e+01
1.050000e-06	1.157698e-06	7.264666e-10	8.266299e+00	4.662226e+01
1.060000e-06	1.205124e-06	7.438689e-10	8.604937e+00	4.904749e+01
1.070000e-06	1.252283e-06	7.572096e-10	8.941666e+00	5.145779e+01
1.080000e-06	1.298986e-06	8.010678e-10	9.275139e+00	5.385466e+01
1.090000e-06	1.345157e-06	8.624662e-10	9.604807e+00	5.623949e+01
1.100000e-06	1.390829e-06	9.060730e-10	9.930924e+00	5.861333e+01
1.110000e-06	1.435990e-06	9.217703e-10	1.025338e+01	6.097676e+01
1.120000e-06	1.480619e-06	9.409414e-10	1.057205e+01	6.332968e+01
1.130000e-06	1.524775e-06	9.872812e-10	1.088734e+01	6.567125e+01
1.140000e-06	1.568564e-06	1.043034e-09	1.120000e+01	6.799979e+01
1.150000e-06	1.612021e-06	1.077876e-09	1.151030e+01	7.031280e+01
1.160000e-06	1.655056e-06	1.096694e-09	1.181758e+01	7.260698e+01
1.170000e-06	1.697420e-06	1.126937e-09	1.212007e+01	7.487833e+01
1.180000e-06	1.738822e-06	1.175665e-09	1.241569e+01	7.712228e+01
1.190000e-06	1.779213e-06	1.225630e-09	1.270409e+01	7.933390e+01
1.200000e-06	1.818977e-06	1.256255e-09	1.298802e+01	8.150815e+01
1.210000e-06	1.858347e-06	1.272211e-09	1.326914e+01	8.364009e+01
1.220000e-06	1.897150e-06	1.297771e-09	1.354620e+01	8.572522e+01
1.230000e-06	1.935253e-06	1.340683e-09	1.381827e+01	8.775967e+01
1.240000e-06	1.972643e-06	1.379645e-09	1.408524e+01	8.974046e+01
1.250000e-06	2.009299e-06	1.397615e-09	1.434697e+01	9.166568e+01
1.260000e-06	2.045326e-06	1.411660e-09	1.460422e+01	9.353455e+01
1.270000e-06	2.080886e-06	1.443759e-09	1.485813e+01	9.534742e+01
1.280000e-06	2.115776e-06	1.487347e-09	1.510725e+01	9.710570e+01
1.290000e-06	2.149610e-06	1.519523e-09	1.534884e+01	9.881166e+01
1.300000e-06	2.182373e-06	1.535667e-09	1.558277e+01	1.004681e+02
1.310000e-06	2.214352e-06	1.553500e-09	1.581111e+01	1.020782e+02
1.320000e-06	2.245670e-06	1.584482e-09	1.603474e+01	1.036450e+02
1.330000e-06	2.276254e-06	1.618526e-09	1.625311e+01	1.051711e+02
1.340000e-06	2.306067e-06	1.638451e-09	1.646598e+01	1.066585e+02
1.350000e-06	2.335107e-06	1.647878e-09	1.667334e+01	1.081083e+02
1.360000e-06	2.363388e-06	1.663884e-09	1.687527e+01	1.095208e+02
1.370000e-06	2.391002e-06	1.694265e-09	1.707245e+01	1.108951e+02
1.380000e-06	2.417908e-06	1.723550e-09	1.726456e+01	1.122297e+02
1.390000e-06	2.443781e-06	1.741467e-09	1.744930e+01	1.135225e+02
1.400000e-06	2.468477e-06	1.755567e-09	1.762564e+01	1.147709e+02
1.410000e-06	2.492219e-06	1.775751e-09	1.779517e+01	1.159725e+02
1.420000e-06	2.515146e-06	1.799243e-09	1.795887e+01	1.171249e+02
1.430000e-06	2.537214e-06	1.816296e-09	1.811645e+01	1.182262e+02
1.440000e-06	2.558427e-06	1.827051e-09	1.826791e+01	1.192750e+02
1.450000e-06	2.578810e-06	1.839773e-09	1.841345e+01	1.202706e+02
1.460000e-06	2.598514e-06	1.856555e-09	1.855414e+01	1.212127e+02
1.470000e-06	2.617545e-06	1.872727e-09	1.869003e+01	1.221015e+02
1.480000e-06	2.635554e-06	1.885281e-09	1.881862e+01	1.229375e+02
1.490000e-06	2.652509e-06	1.896749e-09	1.893968e+01	1.237209e+02
1.500000e-06	2.668606e-06	1.910810e-09	1.905462e+01	1.244524e+02
1.510000e-06	2.683665e-06	1.924014e-09	1.916215e+01	1.251320e+02
1.520000e-06	2.697586e-06	1.932074e-09	1.926155e+01	1.257596e+02
1.530000e-06	2.710473e-06	1.937353e-09	1.935356e+01	1.263353e+02
1.540000e-06	2.722408e-06	1.945645e-09	1.943878e+01	1.268587e+02
1.550000e-06	2.733281e-06	1.955930e-09	1.951642e+01	1.273299e+02
1.560000e-06	2.742805e-06	1.962535e-09	1.958442e+01	1.277493e+02
1.570000e-06	2.751103e-06	1.966289e-09	1.964367e+01	1.281181e+02
1.580000e-06	2.758489e-06	1.972659e-09	1.969641e+01	1.284378e+02
1.590000e-06	2.764993e-06	1.981989e-09	1.974285e+01	1.287109e+02
1.600000e-06	2.770512e-06	1.988742e-09	1.978226e+01	1.289404e+02
1.610000e-06	2.775028e-06	1.989661e-09	1.981451e+01	1.291295e+02
1.620000e-06	2.778783e-06	1.989653e-09	1.984132e+01	1.292814e+02
1.630000e-06	2.781760e-06	1.995312e-09	1.986257e+01	1.293990e+02
1.640000e-06	2.783515e-06	2.001006e-09	1.987510e+01	1.294840e+02
1.650000e-06	2.783991e-06	2.000083e-09	1.987850e+01	1.295373e+02
1.660000e-06	2.783552e-06	1.995520e-09	1.987537e+01	1.295578e+02
1.670000e-06	2.782270e-06	1.989147e-09	1.986621e+01	1.295434e+02
1.680000e-06	2.780119e-06	1.989155e-09	1.985086e+01	1.294903e+02
1.690000e-06	2.777114e-06	1.993395e-09	1.982940e+01	1.293937e+02
1.700000e-06	2.773286e-06	1.991154e-09	1.980207e+01	1.292482e+02
1.710000e-06	2.768829e-06	1.988337e-09	1.977024e+01	1.290489e+02
1.720000e-06	2.763491e-06	2.007813e-09	1.973212e+01	1.287915e+02
1.730000e-06	2.756862e-06	2.038766e-09	1.968479e+01	1.284733e+02
1.740000e-06	2.749069e-06	1.924121e-09	1.962915e+01	1.280940e+02
1.750000e-06	2.740227e-06	1.779180e-09	1.956602e+01	1.276556e+02
1.760000e-06	2.729981e-06	1.888283e-09	1.949286e+01	1.271626e+02
1.770000e-06	2.718514e-06	2.179269e-09	1.941098e+01	1.266221e+02
1.780000e-06	2.706809e-06	2.113956e-09	1.932740e+01	1.260429e+02
1.790000e-06	2.694810e-06	1.737306e-09	1.924172e+01	1.254349e+02
1.800000e-06	2.681144e-06	1.821097e-09	1.914414e+01	1.248082e+02
1.810000e-06	2.665706e-06	1.964383e-09	1.903391e+01	1.241718e+02
1.820000e-06	2.649633e-06	1.860417e-09	1.891915e+01	1.235331e+02
1.830000e-06	2.632968e-06	1.996862e-09	1.880016e+01	1.228966e+02
1.840000e-06	2.615131e-06	2.000007e-09	1.867279e+01	1.222636e+02
1.850000e-06	2.596359e-06	1.550346e-09	1.853876e+01	1.216321e+02
1.860000e-06	2.577039e-06	1.654484e-09	1.840080e+01	1.209965e+02
1.870000e-06	2.556980e-06	2.215334e-09	1.825757e+01	1.203487e+02
1.880000e-06	2.535962e-06	1.877440e-09	1.810750e+01	1.196782e+02
1.890000e-06	2.513749e-06	1.431997e-09	1.794890e+01	1.189736e+02
1.900000e-06	2.490289e-06	1.943819e-09	1.778138e+01	1.182236e+02
1.910000e-06	2.466033e-06	2.086512e-09	1.760819e+01	1.174176e+02
1.920000e-06	2.441045e-06	1.637355e-09	1.742977e+01	1.165475e+02
1.930000e-06	2.415039e-06	1.659174e-09	1.724408e+01	1.156073e+02
1.940000e-06	2.388248e-06	1.759073e-09	1.705278e+01	1.145943e+02
1.950000e-06	2.360832e-06	1.735591e-09	1.685703e+01	1.135088e+02
1.960000e-06	2.332604e-06	1.831216e-09	1.665547e+01	1.123539e+02
1.970000e-06	2.303627e-06	1.671722e-09	1.644857e+01	1.111347e+02
1.980000e-06	2.273657e-06	1.554345e-09	1.623457e+01	1.098577e+02
1.990000e-06	2.242381e-06	1.722698e-09	1.601125e+01	1.085302e+02
2.000000e-06	2.210241e-06	1.626931e-09	1.578176e+01	1.071591e+02
2.010000e-06	2.177537e-06	1.615722e-09	1.554824e+01	1.057505e+02
2.020000e-06	2.144054e-06	1.694249e-09	1.530917e+01	1.043093e+02
2.030000e-06	2.109811e-06	1.456178e-09	1.506466e+01	1.028386e+02
2.040000e-06	2.074836e-06	1.483748e-09	1.481493e+01	1.013400e+02
2.050000e-06	2.039158e-06	1.658349e-09	1.456018e+01	9.981403e+01
2.060000e-06	2.003012e-06	1.482820e-09	1.430209e+01	9.826009e+01
2.070000e-06	1.966299e-06	1.400158e-09	1.403994e+01	9.667736e+01
2.080000e-06	1.928675e-06	1.446688e-09	1.377130e+01	9.506515e+01
2.090000e-06	1.890020e-06	1.435131e-09	1.349529e+01	9.342334e+01
2.100000e-06	1.850474e-06	1.450015e-09	1.321292e+01	9.175266e+01
2.110000e-06	1.810359e-06	1.345740e-09	1.292649e+01	9.005479e+01
2.120000e-06	1.769811e-06	1.298040e-09	1.263697e+01	8.833222e+01
2.130000e-06	1.728673e-06	1.362323e-09	1.234322e+01	8.658797e+01
2.140000e-06	1.686937e-06	1.299593e-09	1.204522e+01	8.482519e+01
2.150000e-06	1.644659e-06	1.257577e-09	1.174334e+01	8.304661e+01
2.160000e-06	1.601804e-06	1.235476e-09	1.143735e+01	8.125409e+01
2.170000e-06	1.558335e-06	1.188713e-09	1.112697e+01	7.944825e+01
2.180000e-06	1.514370e-06	1.185163e-09	1.081304e+01	7.762821e+01
2.190000e-06	1.470106e-06	1.164345e-09	1.049698e+01	7.579158e+01
2.200000e-06	1.425515e-06	1.124346e-09	1.017859e+01	7.393457e+01
2.210000e-06	1.380380e-06	1.079952e-09	9.856311e+00	7.205242e+01
2.220000e-06	1.334586e-06	1.051904e-09	9.529327e+00	7.013983e+01
2.230000e-06	1.288207e-06	1.063047e-09	9.198172e+00	6.819161e+01
2.240000e-06	1.241365e-06	1.014126e-09	8.863707e+00	6.620320e+01
2.250000e-06	1.194215e-06	9.456072e-10	8.527039e+00	6.417129e+01
2.260000e-06	1.146736e-06	9.328401e-10	8.188024e+00	6.209414e+01
2.270000e-06	1.098821e-06	9.106460e-10	7.845903e+00	5.997186e+01
2.280000e-06	1.050371e-06	8.994971e-10	7.499956e+00	5.780635e+01
2.290000e-06	1.001368e-06	8.519961e-10	7.150060e+00	5.560122e+01
2.300000e-06	9.519420e-07	7.744856e-10	6.797141e+00	5.336132e+01
2.310000e-06	9.021397e-07	7.555415e-10	6.441539e+00	5.109235e+01
2.320000e-06	8.520255e-07	7.653380e-10	6.083709e+00	4.880031e+01
2.330000e-06	8.016407e-07	7.371194e-10	5.723947e+00	4.649090e+01
2.340000e-06	7.510195e-07	6.465635e-10	5.362497e+00	4.416917e+01
2.350000e-06	7.001310e-07	5.817885e-10	4.999138e+00	4.183909e+01
2.360000e-06	6.489099e-07	6.008587e-10	4.633405e+00	3.950337e+01
2.370000e-06	5.974630e-07	6.034401e-10	4.266059e+00	3.716346e+01
2.380000e-06	5.458070e-07	5.353772e-10	3.897220e+00	3.481963e+01
2.390000e-06	4.939055e-07	4.553413e-10	3.526628e+00	3.247119e+01
2.400000e-06	4.418266e-07	4.179093e-10	3.154770e+00	3.011682e+01
2.410000e-06	3.896452e-07	4.330546e-10	2.782179e+00	2.775485e+01
2.420000e-06	3.374112e-07	4.272263e-10	2.409214e+00	2.538362e+01
2.430000e-06	2.851027e-07	3.486079e-10	2.035716e+00	2.300167e+01
2.440000e-06	2.327084e-07	2.575472e-10	1.661605e+00	2.060793e+01
2.450000e-06	1.802032e-07	2.360409e-10	1.286703e+00	1.820179e+01
2.460000e-06	1.276156e-07	2.719392e-10	9.112122e-01	1.578304e+01
2.470000e-06	7.502505e-08	2.447852e-10	5.357006e-01	1.335182e+01
2.480000e-06	2.240714e-08	1.368977e-10	1.599935e-01	1.090845e+01
2.490000e-06	-3.022461e-08	6.972715e-11	-2.158125e-01	8.453317e+00
2.500000e-06	-8.282408e-08	8.918969e-11	-5.913879e-01	5.986711e+00
2.510000e-06	-1.353741e-07	1.012866e-10	-9.666105e-01	3.508791e+00
2.520000e-06	-1.878818e-07	3.119380e-11	-1.341530e+00	1.019552e+00
2.530000e-06	-2.403569e-07	-6.333709e-11	-1.716218e+00	-1.481116e+00
2.540000e-06	-2.928031e-07	-9.804005e-11	-2.090699e+00	-3.993314e+00
2.550000e-06	-3.451935e-07	-8.671918e-11	-2.464782e+00	-6.516995e+00
2.560000e-06	-3.974595e-07	-1.065198e-10	-2.837976e+00	-9.051794e+00
2.570000e-06	-4.495831e-07	-1.798862e-10	-3.210153e+00	-1.159689e+01
2.580000e-06	-5.015876e-07	-2.548930e-10	-3.581481e+00	-1.415090e+01
2.590000e-06	-5.534532e-07	-2.771030e-10	-3.951816e+00	-1.671183e+01
2.600000e-06	-6.050600e-07	-2.714936e-10	-4.320304e+00	-1.927712e+01
2.610000e-06	-6.563554e-07	-3.049985e-10	-4.686567e+00	-2.184369e+01
2.620000e-06	-7.073340e-07	-3.810682e-10	-5.050570e+00	-2.440817e+01
2.630000e-06	-7.579814e-07	-4.435594e-10	-5.412207e+00	-2.696706e+01
2.640000e-06	-8.083708e-07	-4.598986e-10	-5.772001e+00	-2.951694e+01
2.650000e-06	-8.585140e-07	-4.685691e-10	-6.130038e+00	-3.205474e+01
2.660000e-06	-9.083302e-07	-5.154861e-10	-6.485741e+00	-3.457787e+01
2.670000e-06	-9.576611e-07	-5.872527e-10	-6.837978e+00	-3.708442e+01
2.680000e-06	-1.006376e-06	-6.350871e-10	-7.185819e+00	-3.957321e+01
2.690000e-06	-1.054515e-06	-6.474615e-10	-7.529541e+00	-4.204379e+01
2.700000e-06	-1.102158e-06	-6.626509e-10	-7.869729e+00	-4.449642e+01
2.710000e-06	-1.149374e-06	-7.100556e-10	-8.206864e+00	-4.693193e+01
2.720000e-06	-1.196242e-06	-7.716068e-10	-8.541517e+00	-4.935157e+01
2.730000e-06	-1.242849e-06	-8.096084e-10	-8.874304e+00	-5.175681e+01
2.740000e-06	-1.289181e-06	-8.240021e-10	-9.205128e+00	-5.414914e+01
2.750000e-06	-1.335106e-06	-8.493978e-10	-9.533042e+00	-5.652985e+01
2.760000e-06	-1.380455e-06	-9.039123e-10	-9.856852e+00	-5.889985e+01
2.770000e-06	-1.425238e-06	-9.603336e-10	-1.017661e+01	-6.125949e+01
2.780000e-06	-1.469650e-06	-9.897435e-10	-1.049372e+01	-6.360840e+01
2.790000e-06	-1.513810e-06	-1.002574e-09	-1.080904e+01	-6.594546e+01
2.800000e-06	-1.557617e-06	-1.030131e-09	-1.112184e+01	-6.826870e+01
2.810000e-06	-1.600861e-06	-1.079582e-09	-1.143061e+01	-7.057531e+01
2.820000e-06	-1.643504e-06	-1.126708e-09	-1.173509e+01	-7.286174e+01
2.830000e-06	-1.685638e-06	-1.154049e-09	-1.203594e+01	-7.512376e+01
2.840000e-06	-1.727212e-06	-1.173188e-09	-1.233280e+01	-7.735665e+01
2.850000e-06	-1.768126e-06	-1.208323e-09	-1.262493e+01	-7.955541e+01
2.860000e-06	-1.808533e-06	-1.258411e-09	-1.291345e+01	-8.171501e+01
2.870000e-06	-1.848528e-06	-1.297631e-09	-1.319902e+01	-8.383064e+01
2.880000e-06	-1.887794e-06	-1.313405e-09	-1.347939e+01	-8.589798e+01
2.890000e-06	-1.926039e-06	-1.327229e-09	-1.375248e+01	-8.791346e+01
2.900000e-06	-1.963268e-06	-1.363368e-09	-1.401830e+01	-8.987448e+01
2.910000e-06	-1.999763e-06	-1.409171e-09	-1.427888e+01	-9.177951e+01
2.920000e-06	-2.035750e-06	-1.438177e-09	-1.453584e+01	-9.362819e+01
2.930000e-06	-2.071088e-06	-1.452132e-09	-1.478817e+01	-9.542127e+01
2.940000e-06	-2.105663e-06	-1.475591e-09	-1.503505e+01	-9.716048e+01
