# Temperatura_=_20.0
# Concentracion g/m^3_=_12600.0
# C_Vs_to_Am_M_A/Vsm_=_65563218390.804596
# pendiente_HvsI_1/m_=_3716.3
# ordenada_HvsI_A/m_=_1297.0
# frecuencia_Hz_=_301865.72476426605

Tiempo_(s)	Campo_(V.s)	Magnetizacion_(V.s)	Campo_(kA/m)	Magnetizacion_(A/m)
0.000000e+00	-2.771860e-06	-1.978567e-09	-1.979439e+01	-1.308896e+02
1.000000e-08	-2.771482e-06	-1.981875e-09	-1.979170e+01	-1.308632e+02
2.000000e-08	-2.769906e-06	-1.981721e-09	-1.978044e+01	-1.308025e+02
3.000000e-08	-2.767192e-06	-1.977600e-09	-1.976106e+01	-1.306999e+02
4.000000e-08	-2.763634e-06	-1.974691e-09	-1.973565e+01	-1.305473e+02
5.000000e-08	-2.759290e-06	-1.971349e-09	-1.970463e+01	-1.303367e+02
6.000000e-08	-2.754095e-06	-1.957861e-09	-1.966753e+01	-1.300620e+02
7.000000e-08	-2.747984e-06	-1.926131e-09	-1.962389e+01	-1.297194e+02
8.000000e-08	-2.740960e-06	-1.943043e-09	-1.957374e+01	-1.293087e+02
9.000000e-08	-2.732899e-06	-2.042207e-09	-1.951617e+01	-1.288337e+02
1.000000e-07	-2.723477e-06	-2.083897e-09	-1.944888e+01	-1.283019e+02
1.100000e-07	-2.712712e-06	-1.877198e-09	-1.937201e+01	-1.277237e+02
1.200000e-07	-2.701028e-06	-1.716964e-09	-1.928857e+01	-1.271119e+02
1.300000e-07	-2.688516e-06	-1.893539e-09	-1.919922e+01	-1.264799e+02
1.400000e-07	-2.675049e-06	-2.088240e-09	-1.910305e+01	-1.258402e+02
1.500000e-07	-2.660647e-06	-1.928351e-09	-1.900020e+01	-1.252032e+02
1.600000e-07	-2.645182e-06	-1.865428e-09	-1.888976e+01	-1.245754e+02
1.700000e-07	-2.628395e-06	-1.881561e-09	-1.876989e+01	-1.239588e+02
1.800000e-07	-2.610461e-06	-1.726292e-09	-1.864182e+01	-1.233506e+02
1.900000e-07	-2.591945e-06	-1.914644e-09	-1.850959e+01	-1.227432e+02
2.000000e-07	-2.572819e-06	-2.110862e-09	-1.837300e+01	-1.221254e+02
2.100000e-07	-2.552673e-06	-1.753226e-09	-1.822913e+01	-1.214829e+02
2.200000e-07	-2.531645e-06	-1.551853e-09	-1.807897e+01	-1.208008e+02
2.300000e-07	-2.509918e-06	-1.960590e-09	-1.792382e+01	-1.200645e+02
2.400000e-07	-2.487357e-06	-2.057190e-09	-1.776270e+01	-1.192617e+02
2.500000e-07	-2.463943e-06	-1.704822e-09	-1.759550e+01	-1.183837e+02
2.600000e-07	-2.439613e-06	-1.611538e-09	-1.742176e+01	-1.174260e+02
2.700000e-07	-2.414177e-06	-1.776128e-09	-1.724011e+01	-1.163888e+02
2.800000e-07	-2.387681e-06	-1.850368e-09	-1.705090e+01	-1.152765e+02
2.900000e-07	-2.360315e-06	-1.827989e-09	-1.685547e+01	-1.140971e+02
3.000000e-07	-2.332098e-06	-1.656600e-09	-1.665397e+01	-1.128610e+02
3.100000e-07	-2.303087e-06	-1.578754e-09	-1.644680e+01	-1.115794e+02
3.200000e-07	-2.273366e-06	-1.716027e-09	-1.623455e+01	-1.102630e+02
3.300000e-07	-2.242842e-06	-1.734094e-09	-1.601657e+01	-1.089209e+02
3.400000e-07	-2.211633e-06	-1.666079e-09	-1.579370e+01	-1.075591e+02
3.500000e-07	-2.179882e-06	-1.598063e-09	-1.556696e+01	-1.061808e+02
3.600000e-07	-2.147336e-06	-1.526615e-09	-1.533455e+01	-1.047857e+02
3.700000e-07	-2.113715e-06	-1.589519e-09	-1.509446e+01	-1.033708e+02
3.800000e-07	-2.079067e-06	-1.673007e-09	-1.484703e+01	-1.019313e+02
3.900000e-07	-2.043703e-06	-1.520470e-09	-1.459448e+01	-1.004615e+02
4.000000e-07	-2.007767e-06	-1.417581e-09	-1.433786e+01	-9.895591e+01
4.100000e-07	-1.971198e-06	-1.502239e-09	-1.407671e+01	-9.741038e+01
4.200000e-07	-1.933937e-06	-1.524903e-09	-1.381062e+01	-9.582283e+01
4.300000e-07	-1.895986e-06	-1.449245e-09	-1.353961e+01	-9.419364e+01
4.400000e-07	-1.857289e-06	-1.375232e-09	-1.326327e+01	-9.252557e+01
4.500000e-07	-1.818022e-06	-1.356436e-09	-1.298285e+01	-9.082341e+01
4.600000e-07	-1.778416e-06	-1.377142e-09	-1.270002e+01	-8.909322e+01
4.700000e-07	-1.738285e-06	-1.372012e-09	-1.241343e+01	-8.734133e+01
4.800000e-07	-1.697308e-06	-1.302908e-09	-1.212081e+01	-8.557341e+01
4.900000e-07	-1.655305e-06	-1.249054e-09	-1.182085e+01	-8.379353e+01
5.000000e-07	-1.612466e-06	-1.240673e-09	-1.151493e+01	-8.200351e+01
5.100000e-07	-1.569128e-06	-1.248245e-09	-1.120545e+01	-8.020257e+01
5.200000e-07	-1.525374e-06	-1.226708e-09	-1.089299e+01	-7.838740e+01
5.300000e-07	-1.481138e-06	-1.160507e-09	-1.057710e+01	-7.655256e+01
5.400000e-07	-1.436345e-06	-1.113252e-09	-1.025722e+01	-7.469122e+01
5.500000e-07	-1.390983e-06	-1.119812e-09	-9.933280e+00	-7.279600e+01
5.600000e-07	-1.345095e-06	-1.124875e-09	-9.605588e+00	-7.086002e+01
5.700000e-07	-1.298728e-06	-1.062554e-09	-9.274473e+00	-6.887771e+01
5.800000e-07	-1.251893e-06	-9.931057e-10	-8.940015e+00	-6.684556e+01
5.900000e-07	-1.204685e-06	-9.714357e-10	-8.602894e+00	-6.476246e+01
6.000000e-07	-1.157149e-06	-9.767620e-10	-8.263429e+00	-6.262979e+01
6.100000e-07	-1.109220e-06	-9.587723e-10	-7.921154e+00	-6.045115e+01
6.200000e-07	-1.060750e-06	-8.946082e-10	-7.575021e+00	-5.823187e+01
6.300000e-07	-1.011625e-06	-8.252673e-10	-7.224215e+00	-5.597823e+01
6.400000e-07	-9.618147e-07	-8.100343e-10	-6.868507e+00	-5.369675e+01
6.500000e-07	-9.114346e-07	-8.305996e-10	-6.508733e+00	-5.139347e+01
6.600000e-07	-8.606994e-07	-7.937332e-10	-6.146423e+00	-4.907334e+01
6.700000e-07	-8.096495e-07	-7.004485e-10	-5.781865e+00	-4.673992e+01
6.800000e-07	-7.583165e-07	-6.449257e-10	-5.415287e+00	-4.439531e+01
6.900000e-07	-7.067437e-07	-6.580912e-10	-5.046995e+00	-4.204026e+01
7.000000e-07	-6.549738e-07	-6.526550e-10	-4.677296e+00	-3.967457e+01
7.100000e-07	-6.030151e-07	-5.815732e-10	-4.306249e+00	-3.729754e+01
7.200000e-07	-5.508024e-07	-5.052035e-10	-3.933388e+00	-3.490848e+01
7.300000e-07	-4.983523e-07	-4.823482e-10	-3.558832e+00	-3.250710e+01
7.400000e-07	-4.457055e-07	-4.950070e-10	-3.182870e+00	-3.009380e+01
7.500000e-07	-3.928715e-07	-4.705106e-10	-2.805572e+00	-2.766974e+01
7.600000e-07	-3.399005e-07	-3.906141e-10	-2.427296e+00	-2.523670e+01
7.700000e-07	-2.867933e-07	-3.183366e-10	-2.048047e+00	-2.279678e+01
7.800000e-07	-2.335761e-07	-3.129840e-10	-1.668012e+00	-2.035200e+01
7.900000e-07	-1.803393e-07	-3.239523e-10	-1.287838e+00	-1.790385e+01
8.000000e-07	-1.270901e-07	-2.695299e-10	-9.075754e-01	-1.545287e+01
8.100000e-07	-7.375635e-08	-1.758299e-10	-5.267085e-01	-1.299843e+01
8.200000e-07	-2.032419e-08	-1.329439e-10	-1.451390e-01	-1.053867e+01
8.300000e-07	3.312555e-08	-1.463143e-10	2.365561e-01	-8.070663e+00
8.400000e-07	8.652332e-08	-1.284619e-10	6.178800e-01	-5.590810e+00
8.500000e-07	1.398794e-07	-5.197814e-11	9.989063e-01	-3.095362e+00
8.600000e-07	1.932361e-07	1.932451e-11	1.379937e+00	-5.810533e-01
8.700000e-07	2.465864e-07	3.558652e-11	1.760922e+00	1.954288e+00
8.800000e-07	2.998432e-07	3.827494e-11	2.141239e+00	4.511238e+00
8.900000e-07	3.529815e-07	8.378834e-11	2.520710e+00	7.088467e+00
9.000000e-07	4.060068e-07	1.596548e-10	2.899374e+00	9.682679e+00
9.100000e-07	4.588942e-07	2.109604e-10	3.277054e+00	1.228881e+01
9.200000e-07	5.116383e-07	2.225582e-10	3.653710e+00	1.490051e+01
9.300000e-07	5.641371e-07	2.396152e-10	4.028614e+00	1.751073e+01
9.400000e-07	6.163058e-07	2.928487e-10	4.401160e+00	2.011251e+01
9.500000e-07	6.682258e-07	3.597173e-10	4.771931e+00	2.269970e+01
9.600000e-07	7.199507e-07	3.988665e-10	5.141309e+00	2.526761e+01
9.700000e-07	7.714342e-07	4.140940e-10	5.508963e+00	2.781341e+01
9.800000e-07	8.225890e-07	4.423184e-10	5.874269e+00	3.033637e+01
9.900000e-07	8.733855e-07	4.978862e-10	6.237017e+00	3.283771e+01
1.000000e-06	9.238017e-07	5.553935e-10	6.597049e+00	3.532030e+01
1.010000e-06	9.736030e-07	5.880975e-10	6.952690e+00	3.778808e+01
1.020000e-06	1.022685e-06	6.059768e-10	7.303195e+00	4.024541e+01
1.030000e-06	1.071160e-06	6.363561e-10	7.649364e+00	4.269636e+01
1.040000e-06	1.119097e-06	6.883071e-10	7.991692e+00	4.514409e+01
1.050000e-06	1.166694e-06	7.393891e-10	8.331594e+00	4.759043e+01
1.060000e-06	1.214085e-06	7.702323e-10	8.670020e+00	5.003562e+01
1.070000e-06	1.261154e-06	7.897125e-10	9.006151e+00	5.247834e+01
1.080000e-06	1.307750e-06	8.242138e-10	9.338900e+00	5.491592e+01
1.090000e-06	1.353796e-06	8.784362e-10	9.667724e+00	5.734473e+01
1.100000e-06	1.399344e-06	9.277385e-10	9.992986e+00	5.976071e+01
1.110000e-06	1.444360e-06	9.526320e-10	1.031446e+01	6.215988e+01
1.120000e-06	1.488846e-06	9.699560e-10	1.063214e+01	6.453874e+01
1.130000e-06	1.532904e-06	1.008205e-09	1.094677e+01	6.689458e+01
1.140000e-06	1.576574e-06	1.063789e-09	1.125862e+01	6.922561e+01
1.150000e-06	1.619908e-06	1.108252e-09	1.156808e+01	7.153083e+01
1.160000e-06	1.662836e-06	1.129327e-09	1.187464e+01	7.380981e+01
1.170000e-06	1.705041e-06	1.149177e-09	1.217603e+01	7.606234e+01
1.180000e-06	1.746197e-06	1.191319e-09	1.246993e+01	7.828796e+01
1.190000e-06	1.786414e-06	1.246123e-09	1.275713e+01	8.048566e+01
1.200000e-06	1.826079e-06	1.281657e-09	1.304039e+01	8.265359e+01
1.210000e-06	1.865328e-06	1.292627e-09	1.332067e+01	8.478895e+01
1.220000e-06	1.904003e-06	1.311785e-09	1.359686e+01	8.688816e+01
1.230000e-06	1.941978e-06	1.358068e-09	1.386805e+01	8.894706e+01
1.240000e-06	1.979222e-06	1.404867e-09	1.413401e+01	9.096136e+01
1.250000e-06	2.015739e-06	1.424698e-09	1.439478e+01	9.292716e+01
1.260000e-06	2.051628e-06	1.434407e-09	1.465108e+01	9.484139e+01
1.270000e-06	2.087049e-06	1.465461e-09	1.490403e+01	9.670222e+01
1.280000e-06	2.121872e-06	1.513205e-09	1.515271e+01	9.850932e+01
1.290000e-06	2.155565e-06	1.547595e-09	1.539331e+01	1.002639e+02
1.300000e-06	2.188098e-06	1.559466e-09	1.562563e+01	1.019684e+02
1.310000e-06	2.219898e-06	1.573475e-09	1.585273e+01	1.036264e+02
1.320000e-06	2.251061e-06	1.607624e-09	1.607527e+01	1.052418e+02
1.330000e-06	2.281506e-06	1.646898e-09	1.629268e+01	1.068185e+02
1.340000e-06	2.311173e-06	1.667461e-09	1.650454e+01	1.083594e+02
1.350000e-06	2.340049e-06	1.675429e-09	1.671075e+01	1.098665e+02
1.360000e-06	2.368165e-06	1.694715e-09	1.691153e+01	1.113403e+02
1.370000e-06	2.395653e-06	1.729172e-09	1.710783e+01	1.127795e+02
1.380000e-06	2.422373e-06	1.759508e-09	1.729864e+01	1.141817e+02
1.390000e-06	2.447954e-06	1.775611e-09	1.748132e+01	1.155431e+02
1.400000e-06	2.472430e-06	1.790097e-09	1.765611e+01	1.168594e+02
1.410000e-06	2.496031e-06	1.813112e-09	1.782465e+01	1.181261e+02
1.420000e-06	2.518800e-06	1.838394e-09	1.798724e+01	1.193393e+02
1.430000e-06	2.540749e-06	1.855857e-09	1.814398e+01	1.204955e+02
1.440000e-06	2.561850e-06	1.867880e-09	1.829467e+01	1.215926e+02
1.450000e-06	2.582148e-06	1.882830e-09	1.843962e+01	1.226293e+02
1.460000e-06	2.601762e-06	1.901496e-09	1.857969e+01	1.236056e+02
1.470000e-06	2.620566e-06	1.918511e-09	1.871397e+01	1.245220e+02
1.480000e-06	2.638330e-06	1.931331e-09	1.884083e+01	1.253791e+02
1.490000e-06	2.655101e-06	1.943679e-09	1.896060e+01	1.261779e+02
1.500000e-06	2.670950e-06	1.957022e-09	1.907378e+01	1.269188e+02
1.510000e-06	2.685707e-06	1.968251e-09	1.917916e+01	1.276016e+02
1.520000e-06	2.699397e-06	1.976555e-09	1.927692e+01	1.282258e+02
1.530000e-06	2.712121e-06	1.984254e-09	1.936779e+01	1.287903e+02
1.540000e-06	2.723879e-06	1.992486e-09	1.945175e+01	1.292945e+02
1.550000e-06	2.734526e-06	1.999406e-09	1.952779e+01	1.297376e+02
1.560000e-06	2.743871e-06	2.004909e-09	1.959452e+01	1.301202e+02
1.570000e-06	2.752033e-06	2.011619e-09	1.965281e+01	1.304439e+02
1.580000e-06	2.759259e-06	2.021295e-09	1.970441e+01	1.307118e+02
1.590000e-06	2.765599e-06	2.029152e-09	1.974969e+01	1.309284e+02
1.600000e-06	2.770960e-06	2.031605e-09	1.978797e+01	1.310992e+02
1.610000e-06	2.775362e-06	2.032247e-09	1.981940e+01	1.312303e+02
1.620000e-06	2.778981e-06	2.036202e-09	1.984525e+01	1.313276e+02
1.630000e-06	2.781753e-06	2.041466e-09	1.986504e+01	1.313963e+02
1.640000e-06	2.783300e-06	2.042842e-09	1.987609e+01	1.314394e+02
1.650000e-06	2.783637e-06	2.040740e-09	1.987850e+01	1.314581e+02
1.660000e-06	2.783076e-06	2.037908e-09	1.987449e+01	1.314506e+02
1.670000e-06	2.781646e-06	2.034581e-09	1.986428e+01	1.314126e+02
1.680000e-06	2.779336e-06	2.033816e-09	1.984778e+01	1.313379e+02
1.690000e-06	2.776171e-06	2.033263e-09	1.982518e+01	1.312183e+02
1.700000e-06	2.772234e-06	2.030908e-09	1.979706e+01	1.310459e+02
1.710000e-06	2.767561e-06	2.035109e-09	1.976369e+01	1.308130e+02
1.720000e-06	2.761983e-06	2.062050e-09	1.972387e+01	1.305142e+02
1.730000e-06	2.755276e-06	2.051503e-09	1.967597e+01	1.301471e+02
1.740000e-06	2.747407e-06	1.926312e-09	1.961977e+01	1.297128e+02
1.750000e-06	2.738284e-06	1.850412e-09	1.955462e+01	1.292164e+02
1.760000e-06	2.727738e-06	2.033371e-09	1.947931e+01	1.286666e+02
1.770000e-06	2.716305e-06	2.188281e-09	1.939766e+01	1.280749e+02
1.780000e-06	2.704702e-06	2.037343e-09	1.931481e+01	1.274543e+02
1.790000e-06	2.692405e-06	1.802049e-09	1.922699e+01	1.268182e+02
1.800000e-06	2.678427e-06	1.925072e-09	1.912717e+01	1.261785e+02
1.810000e-06	2.663000e-06	1.956990e-09	1.901701e+01	1.255442e+02
1.820000e-06	2.646873e-06	1.893457e-09	1.890184e+01	1.249203e+02
1.830000e-06	2.629962e-06	2.059405e-09	1.878107e+01	1.243073e+02
1.840000e-06	2.611926e-06	1.898679e-09	1.865228e+01	1.237004e+02
1.850000e-06	2.593090e-06	1.621657e-09	1.851776e+01	1.230908e+02
1.860000e-06	2.573704e-06	1.894512e-09	1.837933e+01	1.224658e+02
1.870000e-06	2.553528e-06	2.138844e-09	1.823524e+01	1.218109e+02
1.880000e-06	2.532348e-06	1.733108e-09	1.808400e+01	1.211109e+02
1.890000e-06	2.509926e-06	1.612207e-09	1.792387e+01	1.203521e+02
1.900000e-06	2.486345e-06	2.012831e-09	1.775548e+01	1.195233e+02
1.910000e-06	2.462019e-06	1.967666e-09	1.758176e+01	1.186171e+02
1.920000e-06	2.436845e-06	1.660853e-09	1.740199e+01	1.176307e+02
1.930000e-06	2.410688e-06	1.684039e-09	1.721519e+01	1.165659e+02
1.940000e-06	2.383766e-06	1.714139e-09	1.702294e+01	1.154285e+02
1.950000e-06	2.356157e-06	1.785507e-09	1.682578e+01	1.142276e+02
1.960000e-06	2.327812e-06	1.812189e-09	1.662336e+01	1.129739e+02
1.970000e-06	2.298696e-06	1.629081e-09	1.641544e+01	1.116787e+02
1.980000e-06	2.268511e-06	1.608409e-09	1.619988e+01	1.103522e+02
1.990000e-06	2.237123e-06	1.673983e-09	1.597573e+01	1.090025e+02
2.000000e-06	2.204932e-06	1.629661e-09	1.574585e+01	1.076346e+02
2.010000e-06	2.172077e-06	1.688729e-09	1.551123e+01	1.062504e+02
2.020000e-06	2.138420e-06	1.613086e-09	1.527088e+01	1.048487e+02
2.030000e-06	2.103982e-06	1.430442e-09	1.502495e+01	1.034256e+02
2.040000e-06	2.068814e-06	1.563326e-09	1.477380e+01	1.019759e+02
2.050000e-06	2.033011e-06	1.638558e-09	1.451813e+01	1.004939e+02
2.060000e-06	1.996771e-06	1.479453e-09	1.425933e+01	9.897436e+01
2.070000e-06	1.959915e-06	1.411927e-09	1.399614e+01	9.741392e+01
2.080000e-06	1.922036e-06	1.417752e-09	1.372564e+01	9.581130e+01
2.090000e-06	1.883139e-06	1.462911e-09	1.344787e+01	9.416775e+01
2.100000e-06	1.843487e-06	1.465353e-09	1.316470e+01	9.248684e+01
2.110000e-06	1.803303e-06	1.344933e-09	1.287774e+01	9.077391e+01
2.120000e-06	1.762608e-06	1.303096e-09	1.258713e+01	8.903523e+01
2.130000e-06	1.721311e-06	1.329622e-09	1.229222e+01	8.727700e+01
2.140000e-06	1.679435e-06	1.317433e-09	1.199318e+01	8.550442e+01
2.150000e-06	1.637005e-06	1.297277e-09	1.169017e+01	8.372081e+01
2.160000e-06	1.593942e-06	1.224569e-09	1.138266e+01	8.192708e+01
2.170000e-06	1.550297e-06	1.165806e-09	1.107098e+01	8.012153e+01
2.180000e-06	1.506279e-06	1.184824e-09	1.075663e+01	7.830003e+01
2.190000e-06	1.461982e-06	1.190920e-09	1.044030e+01	7.645653e+01
2.200000e-06	1.417319e-06	1.140560e-09	1.012135e+01	7.458390e+01
2.210000e-06	1.372051e-06	1.056101e-09	9.798084e+00	7.267483e+01
2.220000e-06	1.326039e-06	1.038720e-09	9.469504e+00	7.072282e+01
2.230000e-06	1.279483e-06	1.064005e-09	9.137036e+00	6.872297e+01
2.240000e-06	1.232576e-06	1.027059e-09	8.802068e+00	6.667259e+01
2.250000e-06	1.185342e-06	9.549299e-10	8.464760e+00	6.457147e+01
2.260000e-06	1.137694e-06	9.014323e-10	8.124493e+00	6.242183e+01
2.270000e-06	1.089628e-06	8.957744e-10	7.781250e+00	6.022798e+01
2.280000e-06	1.041088e-06	9.132593e-10	7.434613e+00	5.799564e+01
2.290000e-06	9.919255e-07	8.587611e-10	7.083534e+00	5.573129e+01
2.300000e-06	9.423065e-07	7.634047e-10	6.729196e+00	5.344135e+01
2.310000e-06	8.923862e-07	7.332442e-10	6.372705e+00	5.113152e+01
2.320000e-06	8.422179e-07	7.565259e-10	6.014443e+00	4.880628e+01
2.330000e-06	7.917883e-07	7.404076e-10	5.654315e+00	4.646868e+01
2.340000e-06	7.410933e-07	6.440258e-10	5.292293e+00	4.412028e+01
2.350000e-06	6.901535e-07	5.719982e-10	4.928521e+00	4.176146e+01
2.360000e-06	6.389923e-07	5.807224e-10	4.563169e+00	3.939178e+01
2.370000e-06	5.876275e-07	5.871071e-10	4.196363e+00	3.701049e+01
2.380000e-06	5.360017e-07	5.318883e-10	3.827693e+00	3.461700e+01
2.390000e-06	4.841575e-07	4.422890e-10	3.457464e+00	3.221125e+01
2.400000e-06	4.321243e-07	3.960200e-10	3.085884e+00	2.979391e+01
2.410000e-06	3.799535e-07	4.106609e-10	2.713322e+00	2.736638e+01
2.420000e-06	3.276924e-07	4.074659e-10	2.340116e+00	2.493060e+01
2.430000e-06	2.753536e-07	3.319238e-10	1.966354e+00	2.248871e+01
2.440000e-06	2.229839e-07	2.409600e-10	1.592372e+00	2.004257e+01
2.450000e-06	1.705410e-07	2.221888e-10	1.217867e+00	1.759337e+01
2.460000e-06	1.179853e-07	2.491603e-10	8.425563e-01	1.514126e+01
2.470000e-06	6.539813e-08	2.152594e-10	4.670209e-01	1.268516e+01
2.480000e-06	1.280435e-08	1.180748e-10	9.143840e-02	1.022281e+01
2.490000e-06	-3.982419e-08	5.899488e-11	-2.843924e-01	7.750980e+00
2.500000e-06	-9.246077e-08	6.578436e-11	-6.602805e-01	5.265947e+00
2.510000e-06	-1.450736e-07	6.470786e-11	-1.035999e+00	2.764064e+00
2.520000e-06	-1.976244e-07	2.384122e-12	-1.411274e+00	2.423894e-01
2.530000e-06	-2.501035e-07	-7.753211e-11	-1.786038e+00	-2.300728e+00
2.540000e-06	-3.025227e-07	-1.144650e-10	-2.160374e+00	-4.865206e+00
2.550000e-06	-3.548555e-07	-1.191346e-10	-2.534093e+00	-7.449007e+00
2.560000e-06	-4.071142e-07	-1.425636e-10	-2.907282e+00	-1.004817e+01
2.570000e-06	-4.592364e-07	-2.053122e-10	-3.279497e+00	-1.265710e+01
2.580000e-06	-5.111450e-07	-2.715954e-10	-3.650187e+00	-1.526911e+01
2.590000e-06	-5.629116e-07	-3.031311e-10	-4.019862e+00	-1.787712e+01
2.600000e-06	-6.145184e-07	-3.134079e-10	-4.388396e+00	-2.047436e+01
2.610000e-06	-6.658307e-07	-3.457137e-10	-4.754827e+00	-2.305515e+01
2.620000e-06	-7.167701e-07	-4.074874e-10	-5.118595e+00	-2.561541e+01
2.630000e-06	-7.673978e-07	-4.659572e-10	-5.480138e+00	-2.815306e+01
2.640000e-06	-8.177627e-07	-4.949935e-10	-5.839803e+00	-3.066809e+01
2.650000e-06	-8.678655e-07	-5.093279e-10	-6.197597e+00	-3.316236e+01
2.660000e-06	-9.176558e-07	-5.427645e-10	-6.553160e+00	-3.563921e+01
2.670000e-06	-9.669186e-07	-5.990863e-10	-6.904955e+00	-3.810279e+01
2.680000e-06	-1.015533e-06	-6.505276e-10	-7.252118e+00	-4.055743e+01
2.690000e-06	-1.063525e-06	-6.759393e-10	-7.594840e+00	-4.300696e+01
2.700000e-06	-1.111012e-06	-6.913650e-10	-7.933954e+00	-4.545409e+01
2.710000e-06	-1.158146e-06	-7.269381e-10	-8.270546e+00	-4.790011e+01
2.720000e-06	-1.204982e-06	-7.857474e-10	-8.605013e+00	-5.034468e+01
2.730000e-06	-1.251511e-06	-8.359221e-10	-8.937288e+00	-5.278595e+01
2.740000e-06	-1.297731e-06	-8.579904e-10	-9.267355e+00	-5.522088e+01
2.750000e-06	-1.343485e-06	-8.765032e-10	-9.594093e+00	-5.764561e+01
2.760000e-06	-1.388617e-06	-9.203830e-10	-9.916389e+00	-6.005606e+01
2.770000e-06	-1.433258e-06	-9.790850e-10	-1.023518e+01	-6.244837e+01
2.780000e-06	-1.477583e-06	-1.017768e-09	-1.055171e+01	-6.481930e+01
2.790000e-06	-1.521656e-06	-1.030317e-09	-1.086644e+01	-6.716647e+01
2.800000e-06	-1.565356e-06	-1.049614e-09	-1.117851e+01	-6.948839e+01
2.810000e-06	-1.608464e-06	-1.098197e-09	-1.148636e+01	-7.178430e+01
2.820000e-06	-1.651015e-06	-1.153739e-09	-1.179022e+01	-7.405389e+01
2.830000e-06	-1.693043e-06	-1.183929e-09	-1.209035e+01	-7.629691e+01
2.840000e-06	-1.734469e-06	-1.196609e-09	-1.238618e+01	-7.851275e+01
2.850000e-06	-1.775309e-06	-1.226596e-09	-1.267783e+01	-8.070011e+01
2.860000e-06	-1.815636e-06	-1.281245e-09	-1.296582e+01	-8.285680e+01
2.870000e-06	-1.855458e-06	-1.326210e-09	-1.325019e+01	-8.497973e+01
2.880000e-06	-1.894566e-06	-1.340521e-09	-1.352946e+01	-8.706506e+01
2.890000e-06	-1.932743e-06	-1.351980e-09	-1.380210e+01	-8.910854e+01
2.900000e-06	-1.969999e-06	-1.390195e-09	-1.406815e+01	-9.110597e+01
2.910000e-06	-2.006514e-06	-1.439884e-09	-1.432891e+01	-9.305367e+01
2.920000e-06	-2.042409e-06	-1.468962e-09	-1.458524e+01	-9.494900e+01
2.930000e-06	-2.077593e-06	-1.480024e-09	-1.483650e+01	-9.679062e+01
2.940000e-06	-2.112037e-06	-1.500927e-09	-1.508247e+01	-9.857877e+01
