# Temperatura_=_20.0
# Concentracion g/m^3_=_12600.0
# C_Vs_to_Am_M_A/Vsm_=_65563218390.804596
# pendiente_HvsI_1/m_=_3716.3
# ordenada_HvsI_A/m_=_1297.0
# frecuencia_Hz_=_301866.73733197345

Tiempo_(s)	Campo_(V.s)	Magnetizacion_(V.s)	Campo_(kA/m)	Magnetizacion_(A/m)
0.000000e+00	-2.765991e-06	-1.930182e-09	-1.978762e+01	-1.272305e+02
1.000000e-08	-2.765763e-06	-1.926142e-09	-1.978598e+01	-1.271724e+02
2.000000e-08	-2.764415e-06	-1.923761e-09	-1.977634e+01	-1.270888e+02
3.000000e-08	-2.761784e-06	-1.926029e-09	-1.975752e+01	-1.269787e+02
4.000000e-08	-2.758234e-06	-1.929448e-09	-1.973213e+01	-1.268385e+02
5.000000e-08	-2.753936e-06	-1.925897e-09	-1.970138e+01	-1.266625e+02
6.000000e-08	-2.748762e-06	-1.908881e-09	-1.966436e+01	-1.264436e+02
7.000000e-08	-2.742685e-06	-1.881827e-09	-1.962089e+01	-1.261741e+02
8.000000e-08	-2.735737e-06	-1.893215e-09	-1.957118e+01	-1.258471e+02
9.000000e-08	-2.727745e-06	-1.965489e-09	-1.951401e+01	-1.254572e+02
1.000000e-07	-2.718433e-06	-2.000381e-09	-1.944739e+01	-1.250024e+02
1.100000e-07	-2.707762e-06	-1.858771e-09	-1.937105e+01	-1.244842e+02
1.200000e-07	-2.696111e-06	-1.716393e-09	-1.928770e+01	-1.239081e+02
1.300000e-07	-2.683703e-06	-1.828422e-09	-1.919894e+01	-1.232839e+02
1.400000e-07	-2.670408e-06	-1.987072e-09	-1.910383e+01	-1.226242e+02
1.500000e-07	-2.656188e-06	-1.922895e-09	-1.900210e+01	-1.219442e+02
1.600000e-07	-2.640875e-06	-1.819908e-09	-1.889255e+01	-1.212593e+02
1.700000e-07	-2.624246e-06	-1.821125e-09	-1.877359e+01	-1.205837e+02
1.800000e-07	-2.606485e-06	-1.752141e-09	-1.864653e+01	-1.199289e+02
1.900000e-07	-2.588039e-06	-1.830550e-09	-1.851456e+01	-1.193017e+02
2.000000e-07	-2.568940e-06	-2.011218e-09	-1.837793e+01	-1.187036e+02
2.100000e-07	-2.548929e-06	-1.814295e-09	-1.823477e+01	-1.181300e+02
2.200000e-07	-2.528034e-06	-1.583786e-09	-1.808529e+01	-1.175708e+02
2.300000e-07	-2.506405e-06	-1.798626e-09	-1.793056e+01	-1.170106e+02
2.400000e-07	-2.483959e-06	-1.973915e-09	-1.776999e+01	-1.164308e+02
2.500000e-07	-2.460655e-06	-1.788898e-09	-1.760327e+01	-1.158110e+02
2.600000e-07	-2.436524e-06	-1.651549e-09	-1.743064e+01	-1.151312e+02
2.700000e-07	-2.411326e-06	-1.698201e-09	-1.725038e+01	-1.143736e+02
2.800000e-07	-2.384988e-06	-1.751226e-09	-1.706196e+01	-1.135249e+02
2.900000e-07	-2.357733e-06	-1.766431e-09	-1.686698e+01	-1.125767e+02
3.000000e-07	-2.329661e-06	-1.713772e-09	-1.666616e+01	-1.115268e+02
3.100000e-07	-2.300703e-06	-1.618547e-09	-1.645899e+01	-1.103789e+02
3.200000e-07	-2.270958e-06	-1.619791e-09	-1.624620e+01	-1.091418e+02
3.300000e-07	-2.240489e-06	-1.647303e-09	-1.602823e+01	-1.078282e+02
3.400000e-07	-2.209332e-06	-1.664977e-09	-1.580534e+01	-1.064532e+02
3.500000e-07	-2.177638e-06	-1.648044e-09	-1.557860e+01	-1.050324e+02
3.600000e-07	-2.145219e-06	-1.520100e-09	-1.534667e+01	-1.035801e+02
3.700000e-07	-2.111808e-06	-1.473382e-09	-1.510766e+01	-1.021079e+02
3.800000e-07	-2.077369e-06	-1.584431e-09	-1.486129e+01	-1.006240e+02
3.900000e-07	-2.042117e-06	-1.588922e-09	-1.460910e+01	-9.913206e+01
4.000000e-07	-2.006280e-06	-1.459414e-09	-1.435272e+01	-9.763214e+01
4.100000e-07	-1.969832e-06	-1.412052e-09	-1.409198e+01	-9.612078e+01
4.200000e-07	-1.932677e-06	-1.426378e-09	-1.382618e+01	-9.459224e+01
4.300000e-07	-1.894825e-06	-1.443170e-09	-1.355538e+01	-9.303968e+01
4.400000e-07	-1.856248e-06	-1.435227e-09	-1.327941e+01	-9.145652e+01
4.500000e-07	-1.817054e-06	-1.364911e-09	-1.299902e+01	-8.983745e+01
4.600000e-07	-1.777457e-06	-1.292783e-09	-1.271575e+01	-8.817931e+01
4.700000e-07	-1.737445e-06	-1.293470e-09	-1.242950e+01	-8.648149e+01
4.800000e-07	-1.696719e-06	-1.320671e-09	-1.213816e+01	-8.474583e+01
4.900000e-07	-1.654983e-06	-1.290058e-09	-1.183958e+01	-8.297620e+01
5.000000e-07	-1.612294e-06	-1.213992e-09	-1.153419e+01	-8.117772e+01
5.100000e-07	-1.568927e-06	-1.163510e-09	-1.122394e+01	-7.935580e+01
5.200000e-07	-1.525195e-06	-1.180541e-09	-1.091109e+01	-7.751512e+01
5.300000e-07	-1.481121e-06	-1.191308e-09	-1.059579e+01	-7.565888e+01
5.400000e-07	-1.436505e-06	-1.141840e-09	-1.027661e+01	-7.378814e+01
5.500000e-07	-1.391282e-06	-1.080861e-09	-9.953086e+00	-7.190161e+01
5.600000e-07	-1.345499e-06	-1.055507e-09	-9.625563e+00	-6.999586e+01
5.700000e-07	-1.299232e-06	-1.044726e-09	-9.294573e+00	-6.806576e+01
5.800000e-07	-1.252508e-06	-1.020046e-09	-8.960312e+00	-6.610530e+01
5.900000e-07	-1.205365e-06	-9.817674e-10	-8.623061e+00	-6.410850e+01
6.000000e-07	-1.157901e-06	-9.335410e-10	-8.283505e+00	-6.207031e+01
6.100000e-07	-1.110136e-06	-8.987697e-10	-7.941798e+00	-5.998742e+01
6.200000e-07	-1.061877e-06	-8.825460e-10	-7.596560e+00	-5.785875e+01
6.300000e-07	-1.013013e-06	-8.634279e-10	-7.246988e+00	-5.568572e+01
6.400000e-07	-9.635656e-07	-8.285965e-10	-6.893250e+00	-5.347205e+01
6.500000e-07	-9.134776e-07	-7.876767e-10	-6.534925e+00	-5.122332e+01
6.600000e-07	-8.628856e-07	-7.471255e-10	-6.172995e+00	-4.894627e+01
6.700000e-07	-8.119448e-07	-7.145041e-10	-5.808570e+00	-4.664797e+01
6.800000e-07	-7.606885e-07	-6.955188e-10	-5.441888e+00	-4.433497e+01
6.900000e-07	-7.091942e-07	-6.644312e-10	-5.073503e+00	-4.201256e+01
7.000000e-07	-6.574424e-07	-6.040440e-10	-4.703275e+00	-3.968433e+01
7.100000e-07	-6.054953e-07	-5.482306e-10	-4.331652e+00	-3.735191e+01
7.200000e-07	-5.534182e-07	-5.344490e-10	-3.959097e+00	-3.501508e+01
7.300000e-07	-5.011879e-07	-5.285035e-10	-3.585447e+00	-3.267212e+01
7.400000e-07	-4.487202e-07	-4.820698e-10	-3.210098e+00	-3.032041e+01
7.500000e-07	-3.959830e-07	-4.146006e-10	-2.832822e+00	-2.795703e+01
7.600000e-07	-3.430841e-07	-3.774116e-10	-2.454388e+00	-2.557950e+01
7.700000e-07	-2.901129e-07	-3.700865e-10	-2.075438e+00	-2.318625e+01
7.800000e-07	-2.370625e-07	-3.473284e-10	-1.695921e+00	-2.077701e+01
7.900000e-07	-1.838678e-07	-2.889273e-10	-1.315372e+00	-1.835289e+01
8.000000e-07	-1.305695e-07	-2.235319e-10	-9.340810e-01	-1.591617e+01
8.100000e-07	-7.723103e-08	-1.947102e-10	-5.525029e-01	-1.346999e+01
8.200000e-07	-2.388269e-08	-1.906026e-10	-1.708543e-01	-1.101775e+01
8.300000e-07	2.947582e-08	-1.605719e-10	2.108670e-01	-8.562575e+00
8.400000e-07	8.283177e-08	-9.372222e-11	5.925700e-01	-6.106719e+00
8.500000e-07	1.361388e-07	-3.948688e-11	9.739232e-01	-3.651215e+00
8.600000e-07	1.894089e-07	-2.797064e-11	1.355012e+00	-1.195671e+00
8.700000e-07	2.426757e-07	-1.609943e-11	1.736077e+00	1.261666e+00
8.800000e-07	2.958999e-07	3.774088e-11	2.116837e+00	3.723601e+00
8.900000e-07	3.489941e-07	1.078919e-10	2.496668e+00	6.193494e+00
9.000000e-07	4.019291e-07	1.449179e-10	2.875360e+00	8.674639e+00
9.100000e-07	4.546996e-07	1.553747e-10	3.252874e+00	1.116962e+01
9.200000e-07	5.072824e-07	1.846079e-10	3.629046e+00	1.367975e+01
9.300000e-07	5.596639e-07	2.427648e-10	4.003778e+00	1.620468e+01
9.400000e-07	6.117693e-07	2.943332e-10	4.376535e+00	1.874223e+01
9.500000e-07	6.636039e-07	3.190663e-10	4.747355e+00	2.128850e+01
9.600000e-07	7.152076e-07	3.403873e-10	5.116522e+00	2.383822e+01
9.700000e-07	7.665653e-07	3.831211e-10	5.483930e+00	2.638528e+01
9.800000e-07	8.176175e-07	4.379488e-10	5.849152e+00	2.892345e+01
9.900000e-07	8.682744e-07	4.809834e-10	6.211546e+00	3.144702e+01
1.000000e-06	9.184763e-07	5.103529e-10	6.570685e+00	3.395146e+01
1.010000e-06	9.680785e-07	5.420400e-10	6.925534e+00	3.643387e+01
1.020000e-06	1.016997e-06	5.831574e-10	7.275493e+00	3.889318e+01
1.030000e-06	1.065305e-06	6.251754e-10	7.621081e+00	4.133016e+01
1.040000e-06	1.113153e-06	6.608843e-10	7.963380e+00	4.374710e+01
1.050000e-06	1.160708e-06	6.941306e-10	8.303584e+00	4.614735e+01
1.060000e-06	1.208031e-06	7.290376e-10	8.642132e+00	4.853473e+01
1.070000e-06	1.255019e-06	7.645025e-10	8.978280e+00	5.091283e+01
1.080000e-06	1.301519e-06	8.014510e-10	9.310937e+00	5.328443e+01
1.090000e-06	1.347514e-06	8.419201e-10	9.639977e+00	5.565106e+01
1.100000e-06	1.393004e-06	8.812564e-10	9.965408e+00	5.801268e+01
1.110000e-06	1.437944e-06	9.138248e-10	1.028691e+01	6.036767e+01
1.120000e-06	1.482414e-06	9.439410e-10	1.060503e+01	6.271296e+01
1.130000e-06	1.526506e-06	9.800574e-10	1.092046e+01	6.504437e+01
1.140000e-06	1.570259e-06	1.021215e-09	1.123347e+01	6.735708e+01
1.150000e-06	1.613646e-06	1.056717e-09	1.154386e+01	6.964610e+01
1.160000e-06	1.656469e-06	1.086565e-09	1.185021e+01	7.190678e+01
1.170000e-06	1.698473e-06	1.119433e-09	1.215070e+01	7.413510e+01
1.180000e-06	1.739547e-06	1.160403e-09	1.244454e+01	7.632796e+01
1.190000e-06	1.779779e-06	1.203309e-09	1.273236e+01	7.848320e+01
1.200000e-06	1.819428e-06	1.237140e-09	1.301600e+01	8.059952e+01
1.210000e-06	1.858653e-06	1.261325e-09	1.329662e+01	8.267625e+01
1.220000e-06	1.897379e-06	1.288448e-09	1.357365e+01	8.471307e+01
1.230000e-06	1.935462e-06	1.324442e-09	1.384610e+01	8.670974e+01
1.240000e-06	1.972796e-06	1.358126e-09	1.411318e+01	8.866580e+01
1.250000e-06	2.009378e-06	1.381289e-09	1.437488e+01	9.058047e+01
1.260000e-06	2.045324e-06	1.401571e-09	1.463204e+01	9.245257e+01
1.270000e-06	2.080797e-06	1.431204e-09	1.488581e+01	9.428059e+01
1.280000e-06	2.115614e-06	1.467757e-09	1.513489e+01	9.606288e+01
1.290000e-06	2.149410e-06	1.500163e-09	1.537666e+01	9.779784e+01
1.300000e-06	2.182134e-06	1.524478e-09	1.561077e+01	9.948418e+01
1.310000e-06	2.213981e-06	1.546709e-09	1.583860e+01	1.011211e+02
1.320000e-06	2.245151e-06	1.572144e-09	1.606158e+01	1.027084e+02
1.330000e-06	2.275640e-06	1.598313e-09	1.627970e+01	1.042464e+02
1.340000e-06	2.305340e-06	1.620688e-09	1.649217e+01	1.057361e+02
1.350000e-06	2.334213e-06	1.638583e-09	1.669872e+01	1.071786e+02
1.360000e-06	2.362365e-06	1.655514e-09	1.690011e+01	1.085752e+02
1.370000e-06	2.389891e-06	1.678016e-09	1.709704e+01	1.099269e+02
1.380000e-06	2.416634e-06	1.704396e-09	1.728836e+01	1.112341e+02
1.390000e-06	2.442327e-06	1.728810e-09	1.747216e+01	1.124968e+02
1.400000e-06	2.466844e-06	1.748361e-09	1.764755e+01	1.137143e+02
1.410000e-06	2.490380e-06	1.764138e-09	1.781592e+01	1.148852e+02
1.420000e-06	2.513179e-06	1.780912e-09	1.797903e+01	1.160080e+02
1.430000e-06	2.535137e-06	1.798981e-09	1.813611e+01	1.170809e+02
1.440000e-06	2.556200e-06	1.815667e-09	1.828679e+01	1.181022e+02
1.450000e-06	2.576444e-06	1.828225e-09	1.843161e+01	1.190708e+02
1.460000e-06	2.595958e-06	1.838031e-09	1.857122e+01	1.199862e+02
1.470000e-06	2.614724e-06	1.851531e-09	1.870547e+01	1.208486e+02
1.480000e-06	2.632560e-06	1.870211e-09	1.883306e+01	1.216587e+02
1.490000e-06	2.649378e-06	1.888614e-09	1.895338e+01	1.224178e+02
1.500000e-06	2.665190e-06	1.900464e-09	1.906650e+01	1.231272e+02
1.510000e-06	2.679999e-06	1.907120e-09	1.917244e+01	1.237882e+02
1.520000e-06	2.693780e-06	1.916026e-09	1.927103e+01	1.244015e+02
1.530000e-06	2.706568e-06	1.928186e-09	1.936251e+01	1.249673e+02
1.540000e-06	2.718403e-06	1.936708e-09	1.944718e+01	1.254848e+02
1.550000e-06	2.729144e-06	1.938267e-09	1.952402e+01	1.259528e+02
1.560000e-06	2.738563e-06	1.938789e-09	1.959140e+01	1.263697e+02
1.570000e-06	2.746769e-06	1.946189e-09	1.965010e+01	1.267336e+02
1.580000e-06	2.754056e-06	1.958445e-09	1.970224e+01	1.270433e+02
1.590000e-06	2.760480e-06	1.966402e-09	1.974819e+01	1.272984e+02
1.600000e-06	2.765929e-06	1.967708e-09	1.978717e+01	1.274998e+02
1.610000e-06	2.770416e-06	1.968683e-09	1.981927e+01	1.276495e+02
1.620000e-06	2.774071e-06	1.974476e-09	1.984542e+01	1.277513e+02
1.630000e-06	2.776819e-06	1.980661e-09	1.986508e+01	1.278098e+02
1.640000e-06	2.778344e-06	1.980166e-09	1.987599e+01	1.278301e+02
1.650000e-06	2.778695e-06	1.974781e-09	1.987850e+01	1.278175e+02
1.660000e-06	2.778155e-06	1.971614e-09	1.987464e+01	1.277762e+02
1.670000e-06	2.776738e-06	1.971848e-09	1.986450e+01	1.277088e+02
1.680000e-06	2.774429e-06	1.973416e-09	1.984798e+01	1.276158e+02
1.690000e-06	2.771317e-06	1.973235e-09	1.982572e+01	1.274953e+02
1.700000e-06	2.767437e-06	1.969365e-09	1.979796e+01	1.273428e+02
1.710000e-06	2.762799e-06	1.970914e-09	1.976478e+01	1.271522e+02
1.720000e-06	2.757288e-06	1.992333e-09	1.972536e+01	1.269160e+02
1.730000e-06	2.750642e-06	1.986886e-09	1.967781e+01	1.266265e+02
1.740000e-06	2.742810e-06	1.894861e-09	1.962178e+01	1.262773e+02
1.750000e-06	2.733758e-06	1.813580e-09	1.955702e+01	1.258641e+02
1.760000e-06	2.723356e-06	1.932101e-09	1.948261e+01	1.253861e+02
1.770000e-06	2.711973e-06	2.083503e-09	1.940118e+01	1.248462e+02
1.780000e-06	2.700264e-06	1.992433e-09	1.931741e+01	1.242514e+02
1.790000e-06	2.687994e-06	1.804522e-09	1.922963e+01	1.236127e+02
1.800000e-06	2.674195e-06	1.829675e-09	1.913091e+01	1.229439e+02
1.810000e-06	2.658798e-06	1.910644e-09	1.902077e+01	1.222602e+02
1.820000e-06	2.642685e-06	1.878589e-09	1.890550e+01	1.215769e+02
1.830000e-06	2.625916e-06	1.954303e-09	1.878554e+01	1.209074e+02
1.840000e-06	2.608006e-06	1.881530e-09	1.865741e+01	1.202617e+02
1.850000e-06	2.589203e-06	1.624062e-09	1.852289e+01	1.196449e+02
1.860000e-06	2.569819e-06	1.738381e-09	1.838422e+01	1.190562e+02
1.870000e-06	2.549685e-06	1.991524e-09	1.824019e+01	1.184891e+02
1.880000e-06	2.528580e-06	1.789845e-09	1.808920e+01	1.179313e+02
1.890000e-06	2.506307e-06	1.594087e-09	1.792986e+01	1.173662e+02
1.900000e-06	2.482805e-06	1.804954e-09	1.776173e+01	1.167743e+02
1.910000e-06	2.458460e-06	1.888016e-09	1.758757e+01	1.161351e+02
1.920000e-06	2.433413e-06	1.740621e-09	1.740839e+01	1.154292e+02
1.930000e-06	2.407431e-06	1.733558e-09	1.722251e+01	1.146402e+02
1.940000e-06	2.380603e-06	1.724610e-09	1.703059e+01	1.137564e+02
1.950000e-06	2.353049e-06	1.673243e-09	1.683347e+01	1.127716e+02
1.960000e-06	2.324716e-06	1.721640e-09	1.663078e+01	1.116858e+02
1.970000e-06	2.295625e-06	1.716325e-09	1.642266e+01	1.105046e+02
1.980000e-06	2.265588e-06	1.670099e-09	1.620778e+01	1.092384e+02
1.990000e-06	2.234358e-06	1.607077e-09	1.598437e+01	1.079009e+02
2.000000e-06	2.202223e-06	1.542023e-09	1.575448e+01	1.065076e+02
2.010000e-06	2.169504e-06	1.646954e-09	1.552041e+01	1.050739e+02
2.020000e-06	2.136063e-06	1.699933e-09	1.528118e+01	1.036131e+02
2.030000e-06	2.101783e-06	1.500462e-09	1.503594e+01	1.021359e+02
2.040000e-06	2.066704e-06	1.432772e-09	1.478499e+01	1.006487e+02
2.050000e-06	2.030981e-06	1.542680e-09	1.452943e+01	9.915391e+01
2.060000e-06	1.994835e-06	1.544911e-09	1.427085e+01	9.765027e+01
2.070000e-06	1.958109e-06	1.482565e-09	1.400811e+01	9.613333e+01
2.080000e-06	1.920437e-06	1.407336e-09	1.373861e+01	9.459683e+01
2.090000e-06	1.881721e-06	1.364766e-09	1.346164e+01	9.303388e+01
2.100000e-06	1.842176e-06	1.410665e-09	1.317874e+01	9.143822e+01
2.110000e-06	1.802076e-06	1.421133e-09	1.289187e+01	8.980525e+01
2.120000e-06	1.761516e-06	1.361901e-09	1.260171e+01	8.813270e+01
2.130000e-06	1.720409e-06	1.294196e-09	1.230763e+01	8.642086e+01
2.140000e-06	1.678663e-06	1.253104e-09	1.200898e+01	8.467236e+01
2.150000e-06	1.636360e-06	1.276462e-09	1.170635e+01	8.289162e+01
2.160000e-06	1.593489e-06	1.281688e-09	1.139965e+01	8.108399e+01
2.170000e-06	1.550037e-06	1.200455e-09	1.108880e+01	7.925471e+01
2.180000e-06	1.506118e-06	1.135356e-09	1.077461e+01	7.740803e+01
2.190000e-06	1.461864e-06	1.136108e-09	1.045803e+01	7.554643e+01
2.200000e-06	1.417279e-06	1.146711e-09	1.013907e+01	7.367014e+01
2.210000e-06	1.372138e-06	1.112656e-09	9.816132e+00	7.177706e+01
2.220000e-06	1.326311e-06	1.055763e-09	9.488295e+00	6.986308e+01
2.230000e-06	1.279951e-06	1.018600e-09	9.156640e+00	6.792267e+01
2.240000e-06	1.233197e-06	9.919935e-10	8.822163e+00	6.594972e+01
2.250000e-06	1.186064e-06	9.760520e-10	8.484983e+00	6.393846e+01
2.260000e-06	1.138635e-06	9.541588e-10	8.145680e+00	6.188440e+01
2.270000e-06	1.090828e-06	9.063269e-10	7.803671e+00	5.978497e+01
2.280000e-06	1.042443e-06	8.568871e-10	7.457529e+00	5.763999e+01
2.290000e-06	9.935208e-07	8.251098e-10	7.107546e+00	5.545173e+01
2.300000e-06	9.441737e-07	8.075051e-10	6.754522e+00	5.322464e+01
2.310000e-06	8.944673e-07	7.922186e-10	6.398927e+00	5.096481e+01
2.320000e-06	8.444939e-07	7.492915e-10	6.041423e+00	4.867919e+01
2.330000e-06	7.942089e-07	6.837850e-10	5.681689e+00	4.637476e+01
2.340000e-06	7.435886e-07	6.388238e-10	5.319556e+00	4.405769e+01
2.350000e-06	6.927356e-07	6.330367e-10	4.955759e+00	4.173271e+01
2.360000e-06	6.416076e-07	6.246504e-10	4.589995e+00	3.940272e+01
2.370000e-06	5.901788e-07	5.615944e-10	4.222079e+00	3.706866e+01
2.380000e-06	5.385598e-07	4.881335e-10	3.852801e+00	3.472972e+01
2.390000e-06	4.867696e-07	4.693882e-10	3.482300e+00	3.238379e+01
2.400000e-06	4.347956e-07	4.757931e-10	3.110483e+00	3.002805e+01
2.410000e-06	3.826832e-07	4.426109e-10	2.737676e+00	2.765969e+01
2.420000e-06	3.304547e-07	3.678642e-10	2.364039e+00	2.527648e+01
2.430000e-06	2.781853e-07	3.089463e-10	1.990109e+00	2.287731e+01
2.440000e-06	2.258954e-07	2.948933e-10	1.616033e+00	2.046238e+01
2.450000e-06	1.735098e-07	2.887797e-10	1.241272e+00	1.803326e+01
2.460000e-06	1.210702e-07	2.450834e-10	8.661238e-01	1.559260e+01
2.470000e-06	6.859925e-08	1.735009e-10	4.907520e-01	1.314369e+01
2.480000e-06	1.605186e-08	1.269633e-10	1.148334e-01	1.068990e+01
2.490000e-06	-3.651218e-08	1.241842e-10	-2.612044e-01	8.234094e+00
2.500000e-06	-8.905499e-08	1.116770e-10	-6.370902e-01	5.778138e+00
2.510000e-06	-1.416019e-07	5.123900e-11	-1.013006e+00	3.322561e+00
2.520000e-06	-1.941180e-07	-1.592131e-11	-1.388701e+00	8.664616e-01
2.530000e-06	-2.465621e-07	-4.415610e-11	-1.763880e+00	-1.592333e+00
2.540000e-06	-2.989284e-07	-5.518198e-11	-2.138503e+00	-4.056893e+00
2.550000e-06	-3.512065e-07	-9.622676e-11	-2.512495e+00	-6.530630e+00
2.560000e-06	-4.033798e-07	-1.594195e-10	-2.885737e+00	-9.016654e+00
2.570000e-06	-4.554421e-07	-2.040328e-10	-3.258186e+00	-1.151715e+01
2.580000e-06	-5.073598e-07	-2.249917e-10	-3.629600e+00	-1.403288e+01
2.590000e-06	-5.590974e-07	-2.517019e-10	-3.999725e+00	-1.656284e+01
2.600000e-06	-6.105396e-07	-2.965065e-10	-4.367738e+00	-1.910422e+01
2.610000e-06	-6.616529e-07	-3.441644e-10	-4.733397e+00	-2.165256e+01
2.620000e-06	-7.125250e-07	-3.813409e-10	-5.097331e+00	-2.420223e+01
2.630000e-06	-7.631162e-07	-4.139236e-10	-5.459255e+00	-2.674700e+01
2.640000e-06	-8.134338e-07	-4.539859e-10	-5.819222e+00	-2.928074e+01
2.650000e-06	-8.634648e-07	-4.987634e-10	-6.177139e+00	-3.179810e+01
2.660000e-06	-9.131012e-07	-5.402488e-10	-6.532232e+00	-3.429509e+01
2.670000e-06	-9.621859e-07	-5.764865e-10	-6.883379e+00	-3.676945e+01
2.680000e-06	-1.010675e-06	-6.131709e-10	-7.230265e+00	-3.922079e+01
2.690000e-06	-1.058624e-06	-6.502971e-10	-7.573285e+00	-4.165046e+01
2.700000e-06	-1.106042e-06	-6.833137e-10	-7.912511e+00	-4.406120e+01
2.710000e-06	-1.153066e-06	-7.158127e-10	-8.248913e+00	-4.645660e+01
2.720000e-06	-1.199814e-06	-7.544524e-10	-8.583346e+00	-4.884046e+01
2.730000e-06	-1.246292e-06	-7.960670e-10	-8.915843e+00	-5.121615e+01
2.740000e-06	-1.292413e-06	-8.306644e-10	-9.245790e+00	-5.358606e+01
2.750000e-06	-1.338075e-06	-8.631567e-10	-9.572451e+00	-5.595116e+01
2.760000e-06	-1.383187e-06	-9.033547e-10	-9.895175e+00	-5.831087e+01
2.770000e-06	-1.427789e-06	-9.466666e-10	-1.021426e+01	-6.066299e+01
2.780000e-06	-1.472072e-06	-9.816852e-10	-1.053105e+01	-6.300402e+01
2.790000e-06	-1.516091e-06	-1.007794e-09	-1.084596e+01	-6.532951e+01
2.800000e-06	-1.559696e-06	-1.035509e-09	-1.115790e+01	-6.763450e+01
2.810000e-06	-1.602746e-06	-1.072524e-09	-1.146588e+01	-6.991409e+01
2.820000e-06	-1.645252e-06	-1.113240e-09	-1.176996e+01	-7.216380e+01
2.830000e-06	-1.687233e-06	-1.146842e-09	-1.207029e+01	-7.437994e+01
2.840000e-06	-1.728587e-06	-1.174538e-09	-1.236613e+01	-7.655975e+01
2.850000e-06	-1.769314e-06	-1.205913e-09	-1.265749e+01	-7.870138e+01
2.860000e-06	-1.809608e-06	-1.244416e-09	-1.294575e+01	-8.080379e+01
2.870000e-06	-1.849421e-06	-1.280506e-09	-1.323057e+01	-8.286647e+01
2.880000e-06	-1.888506e-06	-1.306241e-09	-1.351018e+01	-8.488917e+01
2.890000e-06	-1.926597e-06	-1.328164e-09	-1.378267e+01	-8.687158e+01
2.900000e-06	-1.963684e-06	-1.356590e-09	-1.404800e+01	-8.881315e+01
2.910000e-06	-2.000072e-06	-1.390520e-09	-1.430831e+01	-9.071295e+01
2.920000e-06	-2.035920e-06	-1.422179e-09	-1.456476e+01	-9.256967e+01
2.930000e-06	-2.071107e-06	-1.448039e-09	-1.481649e+01	-9.438173e+01
2.940000e-06	-2.105491e-06	-1.471603e-09	-1.506247e+01	-9.614747e+01
