# Temperatura_=_20.0
# Concentracion g/m^3_=_12600.0
# C_Vs_to_Am_M_A/Vsm_=_65563218390.804596
# pendiente_HvsI_1/m_=_3716.3
# ordenada_HvsI_A/m_=_1297.0
# frecuencia_Hz_=_301865.2975601732

Tiempo_(s)	Campo_(V.s)	Magnetizacion_(V.s)	Campo_(kA/m)	Magnetizacion_(A/m)
0.000000e+00	-2.771845e-06	-2.041534e-09	-1.978816e+01	-1.354140e+02
1.000000e-08	-2.770830e-06	-2.040374e-09	-1.978092e+01	-1.353138e+02
2.000000e-08	-2.768545e-06	-2.040318e-09	-1.976461e+01	-1.351780e+02
3.000000e-08	-2.765259e-06	-2.040009e-09	-1.974115e+01	-1.350060e+02
4.000000e-08	-2.761243e-06	-2.038102e-09	-1.971248e+01	-1.347959e+02
5.000000e-08	-2.756410e-06	-2.029112e-09	-1.967797e+01	-1.345454e+02
6.000000e-08	-2.750648e-06	-2.002420e-09	-1.963684e+01	-1.342514e+02
7.000000e-08	-2.743921e-06	-1.972504e-09	-1.958881e+01	-1.339112e+02
8.000000e-08	-2.736281e-06	-2.035772e-09	-1.953427e+01	-1.335226e+02
9.000000e-08	-2.727420e-06	-2.153057e-09	-1.947101e+01	-1.330846e+02
1.000000e-07	-2.716988e-06	-2.096713e-09	-1.939654e+01	-1.325975e+02
1.100000e-07	-2.705535e-06	-1.817992e-09	-1.931478e+01	-1.320629e+02
1.200000e-07	-2.693397e-06	-1.780812e-09	-1.922812e+01	-1.314842e+02
1.300000e-07	-2.680223e-06	-2.105008e-09	-1.913407e+01	-1.308658e+02
1.400000e-07	-2.665980e-06	-2.120683e-09	-1.903240e+01	-1.302129e+02
1.500000e-07	-2.650847e-06	-1.922225e-09	-1.892436e+01	-1.295311e+02
1.600000e-07	-2.634523e-06	-1.952115e-09	-1.880782e+01	-1.288255e+02
1.700000e-07	-2.616929e-06	-1.866238e-09	-1.868222e+01	-1.281001e+02
1.800000e-07	-2.598609e-06	-1.794149e-09	-1.855143e+01	-1.273575e+02
1.900000e-07	-2.579798e-06	-2.136438e-09	-1.841714e+01	-1.265986e+02
2.000000e-07	-2.560123e-06	-2.136313e-09	-1.827669e+01	-1.258221e+02
2.100000e-07	-2.539401e-06	-1.616609e-09	-1.812875e+01	-1.250247e+02
2.200000e-07	-2.517909e-06	-1.720568e-09	-1.797532e+01	-1.242016e+02
2.300000e-07	-2.495653e-06	-2.202941e-09	-1.781643e+01	-1.233469e+02
2.400000e-07	-2.472539e-06	-1.993133e-09	-1.765142e+01	-1.224539e+02
2.500000e-07	-2.448581e-06	-1.664146e-09	-1.748039e+01	-1.215161e+02
2.600000e-07	-2.423557e-06	-1.779930e-09	-1.730174e+01	-1.205277e+02
2.700000e-07	-2.397360e-06	-1.863645e-09	-1.711472e+01	-1.194840e+02
2.800000e-07	-2.370259e-06	-1.879263e-09	-1.692125e+01	-1.183819e+02
2.900000e-07	-2.342399e-06	-1.846427e-09	-1.672236e+01	-1.172203e+02
3.000000e-07	-2.313726e-06	-1.687107e-09	-1.651766e+01	-1.159995e+02
3.100000e-07	-2.284286e-06	-1.686786e-09	-1.630749e+01	-1.147217e+02
3.200000e-07	-2.254086e-06	-1.788043e-09	-1.609189e+01	-1.133902e+02
3.300000e-07	-2.223124e-06	-1.738257e-09	-1.587085e+01	-1.120092e+02
3.400000e-07	-2.191596e-06	-1.712835e-09	-1.564577e+01	-1.105831e+02
3.500000e-07	-2.159450e-06	-1.667728e-09	-1.541628e+01	-1.091163e+02
3.600000e-07	-2.126286e-06	-1.568876e-09	-1.517952e+01	-1.076128e+02
3.700000e-07	-2.091902e-06	-1.642355e-09	-1.493406e+01	-1.060759e+02
3.800000e-07	-2.056686e-06	-1.671877e-09	-1.468265e+01	-1.045080e+02
3.900000e-07	-2.021033e-06	-1.551398e-09	-1.442813e+01	-1.029109e+02
4.000000e-07	-1.984798e-06	-1.521341e-09	-1.416945e+01	-1.012857e+02
4.100000e-07	-1.947850e-06	-1.537288e-09	-1.390568e+01	-9.963295e+01
4.200000e-07	-1.910158e-06	-1.484810e-09	-1.363659e+01	-9.795314e+01
4.300000e-07	-1.871667e-06	-1.473398e-09	-1.336181e+01	-9.624658e+01
4.400000e-07	-1.832525e-06	-1.473819e-09	-1.308237e+01	-9.451370e+01
4.500000e-07	-1.793015e-06	-1.427168e-09	-1.280031e+01	-9.275505e+01
4.600000e-07	-1.753118e-06	-1.369428e-09	-1.251549e+01	-9.097130e+01
4.700000e-07	-1.712440e-06	-1.339314e-09	-1.222509e+01	-8.916314e+01
4.800000e-07	-1.670730e-06	-1.356464e-09	-1.192732e+01	-8.733110e+01
4.900000e-07	-1.628091e-06	-1.345818e-09	-1.162292e+01	-8.547540e+01
5.000000e-07	-1.584871e-06	-1.273618e-09	-1.131438e+01	-8.359577e+01
5.100000e-07	-1.541285e-06	-1.210473e-09	-1.100321e+01	-8.169139e+01
5.200000e-07	-1.497256e-06	-1.215121e-09	-1.068889e+01	-7.976086e+01
5.300000e-07	-1.452715e-06	-1.223309e-09	-1.037091e+01	-7.780227e+01
5.400000e-07	-1.407600e-06	-1.186237e-09	-1.004883e+01	-7.581333e+01
5.500000e-07	-1.361927e-06	-1.126061e-09	-9.722780e+00	-7.379167e+01
5.600000e-07	-1.315741e-06	-1.076914e-09	-9.393054e+00	-7.173503e+01
5.700000e-07	-1.269064e-06	-1.061130e-09	-9.059829e+00	-6.964160e+01
5.800000e-07	-1.221990e-06	-1.060029e-09	-8.723769e+00	-6.751020e+01
5.900000e-07	-1.174602e-06	-1.024856e-09	-8.385465e+00	-6.534048e+01
6.000000e-07	-1.126897e-06	-9.556911e-10	-8.044902e+00	-6.313298e+01
6.100000e-07	-1.078767e-06	-9.162410e-10	-7.701301e+00	-6.088908e+01
6.200000e-07	-1.029978e-06	-9.035011e-10	-7.352998e+00	-5.861089e+01
6.300000e-07	-9.804679e-07	-8.815636e-10	-6.999547e+00	-5.630106e+01
6.400000e-07	-9.303741e-07	-8.469968e-10	-6.641928e+00	-5.396248e+01
6.500000e-07	-8.798232e-07	-8.026462e-10	-6.281046e+00	-5.159810e+01
6.600000e-07	-8.289031e-07	-7.480267e-10	-5.917528e+00	-4.921062e+01
6.700000e-07	-7.776590e-07	-7.084204e-10	-5.551697e+00	-4.680239e+01
6.800000e-07	-7.261739e-07	-7.018054e-10	-5.184145e+00	-4.437533e+01
6.900000e-07	-6.744952e-07	-6.776828e-10	-4.815212e+00	-4.193088e+01
7.000000e-07	-6.225860e-07	-6.079387e-10	-4.444633e+00	-3.947016e+01
7.100000e-07	-5.704497e-07	-5.448619e-10	-4.072433e+00	-3.699406e+01
7.200000e-07	-5.181079e-07	-5.296464e-10	-3.698765e+00	-3.450345e+01
7.300000e-07	-4.655822e-07	-5.250733e-10	-3.323785e+00	-3.199932e+01
7.400000e-07	-4.128514e-07	-4.846823e-10	-2.947340e+00	-2.948292e+01
7.500000e-07	-3.599005e-07	-4.142951e-10	-2.569325e+00	-2.695579e+01
7.600000e-07	-3.068068e-07	-3.548607e-10	-2.190290e+00	-2.441972e+01
7.700000e-07	-2.536602e-07	-3.391174e-10	-1.810876e+00	-2.187666e+01
7.800000e-07	-2.004847e-07	-3.388374e-10	-1.431258e+00	-1.932850e+01
7.900000e-07	-1.472930e-07	-2.930470e-10	-1.051523e+00	-1.677685e+01
8.000000e-07	-9.405303e-08	-2.065171e-10	-6.714433e-01	-1.422279e+01
8.100000e-07	-4.069577e-08	-1.559427e-10	-2.905265e-01	-1.166672e+01
8.200000e-07	1.271003e-08	-1.621561e-10	9.073670e-02	-9.108159e+00
8.300000e-07	6.607615e-08	-1.501537e-10	4.717168e-01	-6.545812e+00
8.400000e-07	1.193939e-07	-7.501121e-11	8.523518e-01	-3.977603e+00
8.500000e-07	1.727030e-07	3.511998e-12	1.232924e+00	-1.400913e+00
8.600000e-07	2.260358e-07	2.352592e-11	1.613667e+00	1.187121e+00
8.700000e-07	2.793674e-07	2.090915e-11	1.994400e+00	3.789243e+00
8.800000e-07	3.325814e-07	6.174565e-11	2.374294e+00	6.407690e+00
8.900000e-07	3.856499e-07	1.405852e-10	2.753150e+00	9.043846e+00
9.000000e-07	4.385982e-07	1.973604e-10	3.131147e+00	1.169796e+01
9.100000e-07	4.913842e-07	2.135005e-10	3.507985e+00	1.436900e+01
9.200000e-07	5.439537e-07	2.287583e-10	3.883278e+00	1.705458e+01
9.300000e-07	5.962340e-07	2.790095e-10	4.256506e+00	1.975113e+01
9.400000e-07	6.482413e-07	3.464295e-10	4.627786e+00	2.245407e+01
9.500000e-07	7.000893e-07	3.910691e-10	4.997928e+00	2.515819e+01
9.600000e-07	7.517631e-07	4.119156e-10	5.366827e+00	2.785800e+01
9.700000e-07	8.030768e-07	4.411924e-10	5.733154e+00	3.054818e+01
9.800000e-07	8.540137e-07	4.943937e-10	6.096792e+00	3.322391e+01
9.900000e-07	9.046463e-07	5.520358e-10	6.458257e+00	3.588120e+01
1.000000e-06	9.548539e-07	5.928870e-10	6.816689e+00	3.851707e+01
1.010000e-06	1.004409e-06	6.180757e-10	7.170459e+00	4.112964e+01
1.020000e-06	1.053154e-06	6.461849e-10	7.518450e+00	4.371811e+01
1.030000e-06	1.101228e-06	6.902856e-10	7.861653e+00	4.628262e+01
1.040000e-06	1.148894e-06	7.438544e-10	8.201936e+00	4.882404e+01
1.050000e-06	1.196316e-06	7.870806e-10	8.540485e+00	5.134374e+01
1.060000e-06	1.243516e-06	8.134918e-10	8.877441e+00	5.384334e+01
1.070000e-06	1.290314e-06	8.404232e-10	9.211537e+00	5.632443e+01
1.080000e-06	1.336561e-06	8.847202e-10	9.541690e+00	5.878845e+01
1.090000e-06	1.382276e-06	9.399942e-10	9.868048e+00	6.123646e+01
1.100000e-06	1.427505e-06	9.793426e-10	1.019094e+01	6.366912e+01
1.110000e-06	1.472276e-06	9.977953e-10	1.051056e+01	6.608661e+01
1.120000e-06	1.516586e-06	1.022074e-09	1.082689e+01	6.848865e+01
1.130000e-06	1.560429e-06	1.072314e-09	1.113988e+01	7.087449e+01
1.140000e-06	1.603905e-06	1.128680e-09	1.145026e+01	7.324295e+01
1.150000e-06	1.647025e-06	1.162395e-09	1.175809e+01	7.559242e+01
1.160000e-06	1.689574e-06	1.179422e-09	1.206184e+01	7.792084e+01
1.170000e-06	1.731277e-06	1.210207e-09	1.235956e+01	8.022574e+01
1.180000e-06	1.771956e-06	1.264420e-09	1.264997e+01	8.250422e+01
1.190000e-06	1.811822e-06	1.314791e-09	1.293457e+01	8.475294e+01
1.200000e-06	1.851217e-06	1.336737e-09	1.321581e+01	8.696824e+01
1.210000e-06	1.890132e-06	1.347365e-09	1.349363e+01	8.914614e+01
1.220000e-06	1.928432e-06	1.381850e-09	1.376705e+01	9.128258e+01
1.230000e-06	1.966036e-06	1.435913e-09	1.403550e+01	9.337354e+01
1.240000e-06	2.002896e-06	1.470912e-09	1.429865e+01	9.541532e+01
1.250000e-06	2.039016e-06	1.481286e-09	1.455651e+01	9.740471e+01
1.260000e-06	2.074611e-06	1.500374e-09	1.481062e+01	9.933930e+01
1.270000e-06	2.109707e-06	1.543907e-09	1.506117e+01	1.012176e+02
1.280000e-06	2.143917e-06	1.588823e-09	1.530540e+01	1.030391e+02
1.290000e-06	2.177037e-06	1.611092e-09	1.554184e+01	1.048045e+02
1.300000e-06	2.209188e-06	1.623474e-09	1.577136e+01	1.065153e+02
1.310000e-06	2.240630e-06	1.648237e-09	1.599583e+01	1.081739e+02
1.320000e-06	2.271393e-06	1.684971e-09	1.621544e+01	1.097833e+02
1.330000e-06	2.301365e-06	1.713277e-09	1.642942e+01	1.113466e+02
1.340000e-06	2.330577e-06	1.726868e-09	1.663795e+01	1.128667e+02
1.350000e-06	2.358965e-06	1.740525e-09	1.684062e+01	1.143463e+02
1.360000e-06	2.386658e-06	1.768098e-09	1.703832e+01	1.157873e+02
1.370000e-06	2.413713e-06	1.799786e-09	1.723146e+01	1.171905e+02
1.380000e-06	2.439778e-06	1.822959e-09	1.741754e+01	1.185561e+02
1.390000e-06	2.464581e-06	1.841922e-09	1.759461e+01	1.198832e+02
1.400000e-06	2.488365e-06	1.863619e-09	1.776440e+01	1.211703e+02
1.410000e-06	2.511414e-06	1.885624e-09	1.792895e+01	1.224151e+02
1.420000e-06	2.533669e-06	1.903099e-09	1.808783e+01	1.236152e+02
1.430000e-06	2.555097e-06	1.919489e-09	1.824081e+01	1.247681e+02
1.440000e-06	2.575639e-06	1.938103e-09	1.838745e+01	1.258715e+02
1.450000e-06	2.595398e-06	1.955574e-09	1.852851e+01	1.269233e+02
1.460000e-06	2.614512e-06	1.968079e-09	1.866497e+01	1.279221e+02
1.470000e-06	2.632716e-06	1.981244e-09	1.879492e+01	1.288665e+02
1.480000e-06	2.649823e-06	2.000256e-09	1.891705e+01	1.297558e+02
1.490000e-06	2.666021e-06	2.018587e-09	1.903269e+01	1.305894e+02
1.500000e-06	2.681287e-06	2.027948e-09	1.914168e+01	1.313667e+02
1.510000e-06	2.695433e-06	2.032271e-09	1.924266e+01	1.320871e+02
1.520000e-06	2.708514e-06	2.042427e-09	1.933605e+01	1.327500e+02
1.530000e-06	2.720636e-06	2.057674e-09	1.942258e+01	1.333546e+02
1.540000e-06	2.731746e-06	2.066714e-09	1.950190e+01	1.338998e+02
1.550000e-06	2.741555e-06	2.068039e-09	1.957192e+01	1.343851e+02
1.560000e-06	2.750014e-06	2.072176e-09	1.963231e+01	1.348098e+02
1.570000e-06	2.757505e-06	2.086197e-09	1.968579e+01	1.351739e+02
1.580000e-06	2.764185e-06	2.099903e-09	1.973348e+01	1.354781e+02
1.590000e-06	2.769950e-06	2.101352e-09	1.977463e+01	1.357237e+02
1.600000e-06	2.774714e-06	2.097567e-09	1.980864e+01	1.359130e+02
1.610000e-06	2.778601e-06	2.100333e-09	1.983640e+01	1.360490e+02
1.620000e-06	2.781720e-06	2.109639e-09	1.985866e+01	1.361351e+02
1.630000e-06	2.783760e-06	2.113337e-09	1.987322e+01	1.361752e+02
1.640000e-06	2.784499e-06	2.107366e-09	1.987850e+01	1.361727e+02
1.650000e-06	2.784210e-06	2.102487e-09	1.987644e+01	1.361310e+02
1.660000e-06	2.783102e-06	2.102556e-09	1.986852e+01	1.360522e+02
1.670000e-06	2.781108e-06	2.104581e-09	1.985429e+01	1.359377e+02
1.680000e-06	2.778253e-06	2.105875e-09	1.983391e+01	1.357874e+02
1.690000e-06	2.774579e-06	2.101886e-09	1.980768e+01	1.356003e+02
1.700000e-06	2.770197e-06	2.097717e-09	1.977640e+01	1.353743e+02
1.710000e-06	2.765050e-06	2.110401e-09	1.973966e+01	1.351067e+02
1.720000e-06	2.758766e-06	2.148665e-09	1.969479e+01	1.347945e+02
1.730000e-06	2.751254e-06	2.082197e-09	1.964117e+01	1.344351e+02
1.740000e-06	2.742622e-06	1.926325e-09	1.957954e+01	1.340268e+02
1.750000e-06	2.732661e-06	1.944720e-09	1.950843e+01	1.335690e+02
1.760000e-06	2.721409e-06	2.213521e-09	1.942810e+01	1.330626e+02
1.770000e-06	2.709719e-06	2.277300e-09	1.934465e+01	1.325098e+02
1.780000e-06	2.697905e-06	1.950698e-09	1.926031e+01	1.319145e+02
1.790000e-06	2.684755e-06	1.878314e-09	1.916643e+01	1.312816e+02
1.800000e-06	2.669595e-06	2.056825e-09	1.905820e+01	1.306163e+02
1.810000e-06	2.653494e-06	1.993165e-09	1.894326e+01	1.299242e+02
1.820000e-06	2.636986e-06	2.038939e-09	1.882541e+01	1.292100e+02
1.830000e-06	2.619383e-06	2.162549e-09	1.869974e+01	1.284773e+02
1.840000e-06	2.600647e-06	1.804041e-09	1.856598e+01	1.277280e+02
1.850000e-06	2.581436e-06	1.654072e-09	1.842883e+01	1.269620e+02
1.860000e-06	2.561653e-06	2.150013e-09	1.828760e+01	1.261774e+02
1.870000e-06	2.540910e-06	2.117032e-09	1.813952e+01	1.253702e+02
1.880000e-06	2.518988e-06	1.579325e-09	1.798302e+01	1.245351e+02
1.890000e-06	2.495685e-06	1.806604e-09	1.781666e+01	1.236658e+02
1.900000e-06	2.471453e-06	2.139833e-09	1.764367e+01	1.227556e+02
1.910000e-06	2.446592e-06	1.818446e-09	1.746618e+01	1.217982e+02
1.920000e-06	2.420756e-06	1.711333e-09	1.728174e+01	1.207881e+02
1.930000e-06	2.394017e-06	1.852476e-09	1.709085e+01	1.197214e+02
1.940000e-06	2.366636e-06	1.782188e-09	1.689538e+01	1.185956e+02
1.950000e-06	2.338473e-06	1.801944e-09	1.669432e+01	1.174102e+02
1.960000e-06	2.309566e-06	1.788455e-09	1.648796e+01	1.161663e+02
1.970000e-06	2.279869e-06	1.693014e-09	1.627595e+01	1.148666e+02
1.980000e-06	2.248946e-06	1.765794e-09	1.605520e+01	1.135148e+02
1.990000e-06	2.216944e-06	1.681793e-09	1.582673e+01	1.121151e+02
2.000000e-06	2.184323e-06	1.617660e-09	1.559385e+01	1.106722e+02
2.010000e-06	2.150988e-06	1.760461e-09	1.535587e+01	1.091901e+02
2.020000e-06	2.116854e-06	1.641038e-09	1.511220e+01	1.076728e+02
2.030000e-06	2.082017e-06	1.522745e-09	1.486349e+01	1.061231e+02
2.040000e-06	2.046443e-06	1.627420e-09	1.460953e+01	1.045431e+02
2.050000e-06	2.010310e-06	1.563609e-09	1.435158e+01	1.029345e+02
2.060000e-06	1.973689e-06	1.510903e-09	1.409014e+01	1.012981e+02
2.070000e-06	1.936245e-06	1.543820e-09	1.382282e+01	9.963429e+01
2.080000e-06	1.897773e-06	1.466928e-09	1.354818e+01	9.794356e+01
2.090000e-06	1.858352e-06	1.443125e-09	1.326675e+01	9.622623e+01
2.100000e-06	1.818264e-06	1.427176e-09	1.298056e+01	9.448277e+01
2.110000e-06	1.777768e-06	1.401397e-09	1.269146e+01	9.271380e+01
2.120000e-06	1.736743e-06	1.424071e-09	1.239858e+01	9.092002e+01
2.130000e-06	1.695072e-06	1.336603e-09	1.210110e+01	8.910206e+01
2.140000e-06	1.652876e-06	1.272715e-09	1.179986e+01	8.726034e+01
2.150000e-06	1.610146e-06	1.305722e-09	1.149481e+01	8.539493e+01
2.160000e-06	1.566837e-06	1.292028e-09	1.118563e+01	8.350533e+01
2.170000e-06	1.522963e-06	1.238837e-09	1.087241e+01	8.159051e+01
2.180000e-06	1.478675e-06	1.180079e-09	1.055624e+01	7.964884e+01
2.190000e-06	1.434095e-06	1.155358e-09	1.023799e+01	7.767823e+01
2.200000e-06	1.389055e-06	1.157259e-09	9.916445e+00	7.567634e+01
2.210000e-06	1.343325e-06	1.122179e-09	9.589977e+00	7.364082e+01
2.220000e-06	1.296957e-06	1.085834e-09	9.258960e+00	7.156954e+01
2.230000e-06	1.250180e-06	1.037848e-09	8.925021e+00	6.946092e+01
2.240000e-06	1.203094e-06	9.903863e-10	8.588872e+00	6.731409e+01
2.250000e-06	1.155652e-06	9.876864e-10	8.250186e+00	6.512904e+01
2.260000e-06	1.107839e-06	9.600648e-10	7.908845e+00	6.290666e+01
2.270000e-06	1.059498e-06	9.175548e-10	7.563740e+00	6.064863e+01
2.280000e-06	1.010513e-06	8.755256e-10	7.214039e+00	5.835730e+01
2.290000e-06	9.610482e-07	8.208254e-10	6.860910e+00	5.603545e+01
2.300000e-06	9.113046e-07	7.974648e-10	6.505791e+00	5.368602e+01
2.310000e-06	8.613054e-07	7.925484e-10	6.148848e+00	5.131188e+01
2.320000e-06	8.109625e-07	7.595784e-10	5.789451e+00	4.891562e+01
2.330000e-06	7.603008e-07	6.843040e-10	5.427777e+00	4.649942e+01
2.340000e-06	7.093661e-07	6.185136e-10	5.064155e+00	4.406500e+01
2.350000e-06	6.582028e-07	6.221999e-10	4.698901e+00	4.161367e+01
2.360000e-06	6.068347e-07	6.243685e-10	4.332184e+00	3.914644e+01
2.370000e-06	5.552202e-07	5.574987e-10	3.963710e+00	3.666416e+01
2.380000e-06	5.033544e-07	4.776323e-10	3.593440e+00	3.416773e+01
2.390000e-06	4.513455e-07	4.399295e-10	3.222150e+00	3.165824e+01
2.400000e-06	3.991971e-07	4.429723e-10	2.849863e+00	2.913705e+01
2.410000e-06	3.469222e-07	4.299957e-10	2.476673e+00	2.660581e+01
2.420000e-06	2.945778e-07	3.603190e-10	2.102987e+00	2.406639e+01
2.430000e-06	2.421232e-07	2.774130e-10	1.728514e+00	2.152074e+01
2.440000e-06	1.896234e-07	2.445939e-10	1.353719e+00	1.897067e+01
2.450000e-06	1.371140e-07	2.599233e-10	9.788547e-01	1.641760e+01
2.460000e-06	8.453384e-08	2.377891e-10	6.034859e-01	1.386238e+01
2.470000e-06	3.187589e-08	1.459818e-10	2.275616e-01	1.130506e+01
2.480000e-06	-2.077369e-08	7.448753e-11	-1.483031e-01	8.744842e+00
2.490000e-06	-7.335084e-08	7.688261e-11	-5.236507e-01	6.180102e+00
2.500000e-06	-1.258916e-07	8.193105e-11	-8.987386e-01	3.608522e+00
2.510000e-06	-1.784535e-07	2.260125e-11	-1.273977e+00	1.027346e+00
2.520000e-06	-2.309677e-07	-6.109939e-11	-1.648876e+00	-1.566288e+00
2.530000e-06	-2.834190e-07	-1.015901e-10	-2.023324e+00	-4.174969e+00
2.540000e-06	-3.358499e-07	-1.071457e-10	-2.397628e+00	-6.800639e+00
2.550000e-06	-3.881949e-07	-1.329791e-10	-2.771318e+00	-9.444263e+00
2.560000e-06	-4.403910e-07	-1.926269e-10	-3.143945e+00	-1.210560e+01
2.570000e-06	-4.924381e-07	-2.558832e-10	-3.515509e+00	-1.478308e+01
2.580000e-06	-5.443084e-07	-2.937661e-10	-3.885810e+00	-1.747383e+01
2.590000e-06	-5.959945e-07	-3.120996e-10	-4.254797e+00	-2.017385e+01
2.600000e-06	-6.474333e-07	-3.420834e-10	-4.622018e+00	-2.287827e+01
2.610000e-06	-6.985053e-07	-3.951163e-10	-4.986620e+00	-2.558172e+01
2.620000e-06	-7.492631e-07	-4.533584e-10	-5.348979e+00	-2.827874e+01
2.630000e-06	-7.997628e-07	-4.953149e-10	-5.709496e+00	-3.096415e+01
2.640000e-06	-8.499591e-07	-5.218206e-10	-6.067846e+00	-3.363343e+01
2.650000e-06	-8.997746e-07	-5.520103e-10	-6.423479e+00	-3.628297e+01
2.660000e-06	-9.490899e-07	-6.007776e-10	-6.775540e+00	-3.891022e+01
2.670000e-06	-9.978779e-07	-6.588259e-10	-7.123837e+00	-4.151374e+01
2.680000e-06	-1.046181e-06	-7.006637e-10	-7.468671e+00	-4.409311e+01
2.690000e-06	-1.093878e-06	-7.202672e-10	-7.809178e+00	-4.664878e+01
2.700000e-06	-1.141074e-06	-7.431077e-10	-8.146115e+00	-4.918186e+01
2.710000e-06	-1.187975e-06	-7.921972e-10	-8.480935e+00	-5.169384e+01
2.720000e-06	-1.234636e-06	-8.519999e-10	-8.814052e+00	-5.418636e+01
2.730000e-06	-1.281002e-06	-8.889877e-10	-9.145059e+00	-5.666096e+01
2.740000e-06	-1.326955e-06	-9.048769e-10	-9.473111e+00	-5.911896e+01
2.750000e-06	-1.372389e-06	-9.351903e-10	-9.797468e+00	-6.156126e+01
2.760000e-06	-1.417241e-06	-9.918612e-10	-1.011766e+01	-6.398833e+01
2.770000e-06	-1.461700e-06	-1.044021e-09	-1.043505e+01	-6.640019e+01
2.780000e-06	-1.505907e-06	-1.066344e-09	-1.075065e+01	-6.879635e+01
2.790000e-06	-1.549781e-06	-1.078158e-09	-1.106387e+01	-7.117590e+01
2.800000e-06	-1.593126e-06	-1.114389e-09	-1.137330e+01	-7.353749e+01
2.810000e-06	-1.635903e-06	-1.172510e-09	-1.167869e+01	-7.587933e+01
2.820000e-06	-1.678164e-06	-1.217052e-09	-1.198039e+01	-7.819920e+01
2.830000e-06	-1.719808e-06	-1.234666e-09	-1.227768e+01	-8.049446e+01
2.840000e-06	-1.760821e-06	-1.254458e-09	-1.257047e+01	-8.276204e+01
2.850000e-06	-1.801327e-06	-1.301054e-09	-1.285965e+01	-8.499847e+01
2.860000e-06	-1.841450e-06	-1.354021e-09	-1.314609e+01	-8.719993e+01
2.870000e-06	-1.880964e-06	-1.380553e-09	-1.342818e+01	-8.936240e+01
2.880000e-06	-1.919432e-06	-1.388844e-09	-1.370280e+01	-9.148181e+01
2.890000e-06	-1.956844e-06	-1.414766e-09	-1.396988e+01	-9.355424e+01
2.900000e-06	-1.993524e-06	-1.462769e-09	-1.423174e+01	-9.557615e+01
2.910000e-06	-2.029693e-06	-1.503329e-09	-1.448995e+01	-9.754463e+01
2.920000e-06	-2.065196e-06	-1.521516e-09	-1.474341e+01	-9.945759e+01
2.930000e-06	-2.099886e-06	-1.539026e-09	-1.499106e+01	-1.013139e+02
2.940000e-06	-2.133870e-06	-1.573467e-09	-1.523367e+01	-1.031137e+02
