# Temperatura_=_20.0
# Concentracion g/m^3_=_12600.0
# C_Vs_to_Am_M_A/Vsm_=_65563218390.804596
# pendiente_HvsI_1/m_=_3716.3
# ordenada_HvsI_A/m_=_1297.0
# frecuencia_Hz_=_301866.9764105075

Tiempo_(s)	Campo_(V.s)	Magnetizacion_(V.s)	Campo_(kA/m)	Magnetizacion_(A/m)
0.000000e+00	-2.773754e-06	-1.884735e-11	-1.979333e+01	-8.161491e-01
1.000000e-08	-2.773656e-06	-2.182458e-11	-1.979263e+01	-8.166641e-01
2.000000e-08	-2.772539e-06	-1.990378e-11	-1.978466e+01	-8.334393e-01
3.000000e-08	-2.770141e-06	-1.701141e-11	-1.976755e+01	-8.669421e-01
4.000000e-08	-2.766724e-06	-1.978560e-11	-1.974316e+01	-9.159005e-01
5.000000e-08	-2.762600e-06	-2.644633e-11	-1.971373e+01	-9.772432e-01
6.000000e-08	-2.757649e-06	-2.522242e-11	-1.967840e+01	-1.046282e+00
7.000000e-08	-2.751715e-06	-3.081639e-12	-1.963606e+01	-1.117132e+00
8.000000e-08	-2.744809e-06	1.680674e-11	-1.958678e+01	-1.183341e+00
9.000000e-08	-2.737018e-06	-5.148285e-11	-1.953118e+01	-1.238647e+00
1.000000e-07	-2.728017e-06	-1.508978e-10	-1.946695e+01	-1.277789e+00
1.100000e-07	-2.717455e-06	-7.994089e-11	-1.939158e+01	-1.297256e+00
1.200000e-07	-2.705853e-06	1.536635e-10	-1.930879e+01	-1.295868e+00
1.300000e-07	-2.693574e-06	1.239236e-10	-1.922117e+01	-1.275117e+00
1.400000e-07	-2.680393e-06	-1.609210e-10	-1.912711e+01	-1.239187e+00
1.500000e-07	-2.666259e-06	-1.265058e-10	-1.902625e+01	-1.194658e+00
1.600000e-07	-2.651224e-06	4.785995e-11	-1.891896e+01	-1.149884e+00
1.700000e-07	-2.634933e-06	-2.975220e-11	-1.880271e+01	-1.114133e+00
1.800000e-07	-2.617285e-06	4.219894e-11	-1.867678e+01	-1.096568e+00
1.900000e-07	-2.598908e-06	1.154029e-10	-1.854564e+01	-1.105197e+00
2.000000e-07	-2.580004e-06	-2.139049e-10	-1.841074e+01	-1.145905e+00
2.100000e-07	-2.560157e-06	-1.922723e-10	-1.826912e+01	-1.221706e+00
2.200000e-07	-2.539310e-06	2.621870e-10	-1.812035e+01	-1.332288e+00
2.300000e-07	-2.517720e-06	1.171300e-10	-1.796629e+01	-1.473922e+00
2.400000e-07	-2.495337e-06	-3.037748e-10	-1.780656e+01	-1.639748e+00
2.500000e-07	-2.472049e-06	-1.167050e-10	-1.764038e+01	-1.820404e+00
2.600000e-07	-2.447947e-06	1.100855e-10	-1.746839e+01	-2.004925e+00
2.700000e-07	-2.422843e-06	3.250752e-12	-1.728925e+01	-2.181813e+00
2.800000e-07	-2.396594e-06	-4.436482e-11	-1.710194e+01	-2.340144e+00
2.900000e-07	-2.369400e-06	-7.707152e-11	-1.690788e+01	-2.470598e+00
3.000000e-07	-2.341389e-06	-9.679105e-11	-1.670800e+01	-2.566280e+00
3.100000e-07	-2.312569e-06	3.421672e-12	-1.650234e+01	-2.623270e+00
3.200000e-07	-2.282975e-06	8.764503e-12	-1.629116e+01	-2.640827e+00
3.300000e-07	-2.252611e-06	-2.783943e-11	-1.607448e+01	-2.621259e+00
3.400000e-07	-2.221511e-06	-2.063854e-11	-1.585256e+01	-2.569478e+00
3.500000e-07	-2.189884e-06	-1.178363e-10	-1.562687e+01	-2.492328e+00
3.600000e-07	-2.157633e-06	-7.054540e-11	-1.539673e+01	-2.397759e+00
3.700000e-07	-2.124342e-06	8.821508e-11	-1.515917e+01	-2.293978e+00
3.800000e-07	-2.089900e-06	-8.926750e-12	-1.491339e+01	-2.188656e+00
3.900000e-07	-2.054595e-06	-1.184154e-10	-1.466146e+01	-2.088295e+00
4.000000e-07	-2.018737e-06	-4.601258e-11	-1.440558e+01	-1.997814e+00
4.100000e-07	-1.982311e-06	-1.090100e-11	-1.414564e+01	-1.920365e+00
4.200000e-07	-1.945181e-06	5.201893e-12	-1.388068e+01	-1.857399e+00
4.300000e-07	-1.907355e-06	2.521238e-11	-1.361076e+01	-1.808913e+00
4.400000e-07	-1.868793e-06	-6.094198e-11	-1.333558e+01	-1.773843e+00
4.500000e-07	-1.829561e-06	-9.631731e-11	-1.305563e+01	-1.750509e+00
4.600000e-07	-1.789942e-06	-2.121504e-12	-1.277291e+01	-1.737045e+00
4.700000e-07	-1.749988e-06	6.045317e-11	-1.248780e+01	-1.731749e+00
4.800000e-07	-1.709358e-06	3.080724e-14	-1.219787e+01	-1.733307e+00
4.900000e-07	-1.667678e-06	-9.326513e-11	-1.190044e+01	-1.740860e+00
5.000000e-07	-1.624957e-06	-7.405438e-11	-1.159559e+01	-1.753942e+00
5.100000e-07	-1.581568e-06	3.059026e-11	-1.128597e+01	-1.772288e+00
5.200000e-07	-1.537804e-06	5.444121e-11	-1.097367e+01	-1.795591e+00
5.300000e-07	-1.493720e-06	-3.965641e-11	-1.065909e+01	-1.823234e+00
5.400000e-07	-1.449115e-06	-9.254793e-11	-1.034079e+01	-1.854084e+00
5.500000e-07	-1.403862e-06	-3.996224e-11	-1.001787e+01	-1.886361e+00
5.600000e-07	-1.358101e-06	2.419369e-11	-9.691320e+00	-1.917642e+00
5.700000e-07	-1.311842e-06	1.422653e-11	-9.361218e+00	-1.944981e+00
5.800000e-07	-1.265066e-06	-4.695152e-11	-9.027431e+00	-1.965158e+00
5.900000e-07	-1.217898e-06	-7.441077e-11	-8.690844e+00	-1.974992e+00
6.000000e-07	-1.170442e-06	-2.768884e-11	-8.352196e+00	-1.971703e+00
6.100000e-07	-1.122695e-06	2.068221e-11	-8.011479e+00	-1.953242e+00
6.200000e-07	-1.074511e-06	-6.387944e-12	-7.667642e+00	-1.918560e+00
6.300000e-07	-1.025661e-06	-4.835176e-11	-7.319049e+00	-1.867766e+00
6.400000e-07	-9.761900e-07	-4.181665e-11	-6.966028e+00	-1.802148e+00
6.500000e-07	-9.261259e-07	-1.781391e-11	-6.608774e+00	-1.724060e+00
6.600000e-07	-8.754537e-07	-1.355641e-11	-6.247180e+00	-1.636694e+00
6.700000e-07	-8.243944e-07	-1.689476e-11	-5.882825e+00	-1.543758e+00
6.800000e-07	-7.730626e-07	-2.125695e-11	-5.516524e+00	-1.449114e+00
6.900000e-07	-7.214895e-07	-3.219214e-11	-5.148502e+00	-1.356429e+00
7.000000e-07	-6.697125e-07	-2.887147e-11	-4.779024e+00	-1.268869e+00
7.100000e-07	-6.177397e-07	-3.927729e-12	-4.408150e+00	-1.188885e+00
7.200000e-07	-5.655773e-07	1.013291e-11	-4.035922e+00	-1.118115e+00
7.300000e-07	-5.132306e-07	-7.744093e-12	-3.662380e+00	-1.057378e+00
7.400000e-07	-4.606156e-07	-3.083347e-11	-3.286923e+00	-1.006788e+00
7.500000e-07	-4.077596e-07	-3.004394e-11	-2.909746e+00	-9.659164e-01
7.600000e-07	-3.547311e-07	-4.786467e-12	-2.531338e+00	-9.340015e-01
7.700000e-07	-3.015969e-07	1.471690e-11	-2.152176e+00	-9.101412e-01
7.800000e-07	-2.483773e-07	-4.725129e-12	-1.772404e+00	-8.934492e-01
7.900000e-07	-1.950658e-07	-4.221692e-11	-1.391977e+00	-8.831442e-01
8.000000e-07	-1.417155e-07	-3.572538e-11	-1.011273e+00	-8.785619e-01
8.100000e-07	-8.828585e-08	1.316523e-11	-6.300020e-01	-8.790965e-01
8.200000e-07	-3.475440e-08	2.637959e-11	-2.480051e-01	-8.840875e-01
8.300000e-07	1.879943e-08	-1.780455e-11	1.341515e-01	-8.926836e-01
8.400000e-07	7.227728e-08	-4.850616e-11	5.157659e-01	-9.037159e-01
8.500000e-07	1.257046e-07	-1.799051e-11	8.970196e-01	-9.156138e-01
8.600000e-07	1.791209e-07	2.152340e-11	1.278195e+00	-9.263910e-01
8.700000e-07	2.325026e-07	6.622533e-12	1.659123e+00	-9.337140e-01
8.800000e-07	2.858264e-07	-3.585587e-11	2.039639e+00	-9.350546e-01
8.900000e-07	3.390529e-07	-3.949217e-11	2.419460e+00	-9.279111e-01
9.000000e-07	3.921530e-07	-7.045527e-13	2.798378e+00	-9.100700e-01
9.100000e-07	4.451294e-07	2.214226e-11	3.176414e+00	-8.798731e-01
9.200000e-07	4.979370e-07	1.878518e-12	3.553246e+00	-8.364491e-01
9.300000e-07	5.505085e-07	-2.538623e-11	3.928393e+00	-7.798760e-01
9.400000e-07	6.028354e-07	-1.978116e-11	4.301794e+00	-7.112449e-01
9.500000e-07	6.549177e-07	6.860274e-12	4.673450e+00	-6.326125e-01
9.600000e-07	7.067529e-07	1.514394e-11	5.043343e+00	-5.468440e-01
9.700000e-07	7.583371e-07	-1.888627e-12	5.411444e+00	-4.573620e-01
9.800000e-07	8.095973e-07	-1.644321e-11	5.777233e+00	-3.678321e-01
9.900000e-07	8.605090e-07	-1.000077e-11	6.140536e+00	-2.818232e-01
1.000000e-06	9.110356e-07	6.003601e-12	6.501091e+00	-2.024832e-01
1.010000e-06	9.610353e-07	1.369515e-11	6.857885e+00	-1.322686e-01
1.020000e-06	1.010369e-06	7.372382e-12	7.209929e+00	-7.275768e-02
1.030000e-06	1.058987e-06	-4.729244e-12	7.556862e+00	-2.456462e-02
1.040000e-06	1.107056e-06	-7.970919e-12	7.899881e+00	1.264232e-02
1.050000e-06	1.154824e-06	3.927153e-12	8.240749e+00	4.002857e-02
1.060000e-06	1.202345e-06	1.831487e-11	8.579853e+00	5.940955e-02
1.070000e-06	1.249545e-06	1.517581e-11	8.916670e+00	7.302497e-02
1.080000e-06	1.296315e-06	-5.177977e-12	9.250417e+00	8.330300e-02
1.090000e-06	1.342524e-06	-1.530510e-11	9.580167e+00	9.264406e-02
1.100000e-06	1.388210e-06	1.951056e-12	9.906178e+00	1.032467e-01
1.110000e-06	1.433395e-06	2.211327e-11	1.022862e+01	1.169884e-01
1.120000e-06	1.478034e-06	1.445397e-11	1.054715e+01	1.353638e-01
1.130000e-06	1.522198e-06	-1.026978e-11	1.086230e+01	1.594715e-01
1.140000e-06	1.565967e-06	-1.428661e-11	1.117464e+01	1.900358e-01
1.150000e-06	1.609459e-06	1.034662e-11	1.148499e+01	2.274427e-01
1.160000e-06	1.652638e-06	2.898589e-11	1.179312e+01	2.717743e-01
1.170000e-06	1.695118e-06	1.426235e-11	1.209625e+01	3.228262e-01
1.180000e-06	1.736575e-06	-1.046739e-11	1.239209e+01	3.801043e-01
1.190000e-06	1.777027e-06	-3.017079e-12	1.268075e+01	4.428006e-01
1.200000e-06	1.816826e-06	2.961416e-11	1.296475e+01	5.097628e-01
1.210000e-06	1.856223e-06	4.034047e-11	1.324589e+01	5.794703e-01
1.220000e-06	1.895078e-06	1.399202e-11	1.352315e+01	6.500396e-01
1.230000e-06	1.933303e-06	-5.917813e-12	1.379592e+01	7.192722e-01
1.240000e-06	1.970814e-06	1.043209e-11	1.406360e+01	7.847590e-01
1.250000e-06	2.007510e-06	3.289569e-11	1.432546e+01	8.440391e-01
1.260000e-06	2.043559e-06	2.595762e-11	1.458270e+01	8.948070e-01
1.270000e-06	2.079145e-06	6.983578e-13	1.483665e+01	9.351437e-01
1.280000e-06	2.114170e-06	-5.042326e-12	1.508658e+01	9.637462e-01
1.290000e-06	2.148245e-06	1.521866e-11	1.532973e+01	9.801199e-01
1.300000e-06	2.181168e-06	3.166945e-11	1.556467e+01	9.847036e-01
1.310000e-06	2.213196e-06	2.361757e-11	1.579322e+01	9.788997e-01
1.320000e-06	2.244610e-06	7.510452e-12	1.601739e+01	9.649965e-01
1.330000e-06	2.275347e-06	8.277937e-12	1.623673e+01	9.459816e-01
1.340000e-06	2.305268e-06	2.235434e-11	1.645024e+01	9.252623e-01
1.350000e-06	2.334373e-06	2.625355e-11	1.665794e+01	9.063237e-01
1.360000e-06	2.362688e-06	1.353239e-11	1.685999e+01	8.923647e-01
1.370000e-06	2.390383e-06	2.497516e-12	1.705761e+01	8.859575e-01
1.380000e-06	2.417389e-06	5.689950e-12	1.725033e+01	8.887770e-01
1.390000e-06	2.443344e-06	1.569857e-11	1.743554e+01	9.014348e-01
1.400000e-06	2.468108e-06	2.025373e-11	1.761226e+01	9.234411e-01
1.410000e-06	2.491937e-06	1.757725e-11	1.778230e+01	9.533002e-01
1.420000e-06	2.514993e-06	1.293587e-11	1.794682e+01	9.887259e-01
1.430000e-06	2.537154e-06	1.310920e-11	1.810497e+01	1.026945e+00
1.440000e-06	2.558437e-06	1.921921e-11	1.825684e+01	1.065046e+00
1.450000e-06	2.578875e-06	2.484114e-11	1.840269e+01	1.100328e+00
1.460000e-06	2.598602e-06	2.201621e-11	1.854346e+01	1.130589e+00
1.470000e-06	2.617662e-06	1.352728e-11	1.867947e+01	1.154327e+00
1.480000e-06	2.635772e-06	1.172317e-11	1.880870e+01	1.170826e+00
1.490000e-06	2.652861e-06	2.220253e-11	1.893064e+01	1.180113e+00
1.500000e-06	2.669013e-06	3.275194e-11	1.904591e+01	1.182806e+00
1.510000e-06	2.684109e-06	2.945226e-11	1.915362e+01	1.179890e+00
1.520000e-06	2.698086e-06	1.808268e-11	1.925336e+01	1.172449e+00
1.530000e-06	2.711086e-06	1.533150e-11	1.934613e+01	1.161424e+00
1.540000e-06	2.723115e-06	2.453804e-11	1.943197e+01	1.147423e+00
1.550000e-06	2.734049e-06	2.965878e-11	1.951000e+01	1.130636e+00
1.560000e-06	2.743654e-06	1.970023e-11	1.957854e+01	1.110863e+00
1.570000e-06	2.751987e-06	7.245169e-12	1.963800e+01	1.087659e+00
1.580000e-06	2.759440e-06	1.007061e-11	1.969118e+01	1.060563e+00
1.590000e-06	2.766029e-06	2.341232e-11	1.973820e+01	1.029381e+00
1.600000e-06	2.771679e-06	2.873071e-11	1.977852e+01	9.944647e-01
1.610000e-06	2.776413e-06	2.139942e-11	1.981231e+01	9.569203e-01
1.620000e-06	2.780285e-06	1.513199e-11	1.983993e+01	9.187113e-01
1.630000e-06	2.783283e-06	2.076733e-11	1.986133e+01	8.826101e-01
1.640000e-06	2.785119e-06	2.845607e-11	1.987443e+01	8.519890e-01
1.650000e-06	2.785690e-06	2.593227e-11	1.987850e+01	8.304645e-01
1.660000e-06	2.785330e-06	1.733340e-11	1.987593e+01	8.214330e-01
1.670000e-06	2.784135e-06	1.123713e-11	1.986740e+01	8.275609e-01
1.680000e-06	2.782039e-06	1.302731e-11	1.985245e+01	8.503026e-01
1.690000e-06	2.779102e-06	2.015430e-11	1.983149e+01	8.895253e-01
1.700000e-06	2.775371e-06	2.262610e-11	1.980487e+01	9.433090e-01
1.710000e-06	2.770929e-06	2.327515e-11	1.977317e+01	1.007971e+00
1.720000e-06	2.765638e-06	4.089674e-11	1.973542e+01	1.078337e+00
1.730000e-06	2.759128e-06	7.650094e-11	1.968896e+01	1.148237e+00
1.740000e-06	2.751423e-06	1.870908e-11	1.963398e+01	1.211195e+00
1.750000e-06	2.742694e-06	-1.044713e-10	1.957168e+01	1.261216e+00
1.760000e-06	2.732590e-06	-5.548259e-11	1.949958e+01	1.293583e+00
1.770000e-06	2.721222e-06	1.779686e-10	1.941846e+01	1.305562e+00
1.780000e-06	2.709490e-06	1.827029e-10	1.933474e+01	1.296904e+00
1.790000e-06	2.697513e-06	-8.889653e-11	1.924928e+01	1.270077e+00
1.800000e-06	2.684126e-06	-9.163433e-11	1.915375e+01	1.230172e+00
1.810000e-06	2.668892e-06	9.531542e-11	1.904504e+01	1.184488e+00
1.820000e-06	2.652846e-06	7.653175e-12	1.893054e+01	1.141815e+00
1.830000e-06	2.636303e-06	6.219391e-11	1.881249e+01	1.111505e+00
1.840000e-06	2.618645e-06	2.055345e-10	1.868648e+01	1.102426e+00
1.850000e-06	2.599964e-06	-1.218256e-10	1.855318e+01	1.121931e+00
1.860000e-06	2.580677e-06	-2.152467e-10	1.841554e+01	1.174953e+00
1.870000e-06	2.560662e-06	2.398635e-10	1.827272e+01	1.263350e+00
1.880000e-06	2.539731e-06	1.647583e-10	1.812335e+01	1.385582e+00
1.890000e-06	2.517698e-06	-2.887931e-10	1.796613e+01	1.536749e+00
1.900000e-06	2.494363e-06	-3.303405e-11	1.779961e+01	1.709011e+00
1.910000e-06	2.470106e-06	2.445479e-10	1.762651e+01	1.892317e+00
1.920000e-06	2.445172e-06	-1.345617e-11	1.744858e+01	2.075385e+00
1.930000e-06	2.419239e-06	-3.087034e-11	1.726353e+01	2.246796e+00
1.940000e-06	2.392401e-06	8.850955e-11	1.707202e+01	2.396090e+00
1.950000e-06	2.364920e-06	-1.707955e-11	1.687591e+01	2.514729e+00
1.960000e-06	2.336669e-06	2.046289e-11	1.667432e+01	2.596838e+00
1.970000e-06	2.307624e-06	5.656924e-11	1.646705e+01	2.639625e+00
1.980000e-06	2.277691e-06	4.380160e-11	1.625346e+01	2.643471e+00
1.990000e-06	2.246535e-06	1.052284e-10	1.603113e+01	2.611677e+00
2.000000e-06	2.214453e-06	-5.579584e-11	1.580219e+01	2.549934e+00
2.010000e-06	2.181839e-06	-6.629637e-11	1.556946e+01	2.465578e+00
2.020000e-06	2.148472e-06	1.957080e-10	1.533135e+01	2.366749e+00
2.030000e-06	2.114303e-06	8.562781e-11	1.508753e+01	2.261545e+00
2.040000e-06	2.079372e-06	-8.530118e-11	1.483826e+01	2.157284e+00
2.050000e-06	2.043740e-06	2.424688e-11	1.458399e+01	2.059937e+00
2.060000e-06	2.007660e-06	3.358208e-11	1.432653e+01	1.973799e+00
2.070000e-06	1.971015e-06	5.563713e-11	1.406503e+01	1.901398e+00
2.080000e-06	1.933393e-06	9.030483e-11	1.379657e+01	1.843628e+00
2.090000e-06	1.894754e-06	-2.947207e-11	1.352084e+01	1.800057e+00
2.100000e-06	1.855290e-06	-3.684710e-11	1.323923e+01	1.769349e+00
2.110000e-06	1.815244e-06	4.597209e-11	1.295346e+01	1.749711e+00
2.120000e-06	1.774745e-06	8.795328e-11	1.266447e+01	1.739303e+00
2.130000e-06	1.733683e-06	7.787812e-11	1.237145e+01	1.736541e+00
2.140000e-06	1.691950e-06	-4.089761e-11	1.207365e+01	1.740275e+00
2.150000e-06	1.649655e-06	-4.476917e-11	1.177183e+01	1.749801e+00
2.160000e-06	1.606852e-06	8.275655e-11	1.146639e+01	1.764749e+00
2.170000e-06	1.563425e-06	9.120363e-11	1.115650e+01	1.784871e+00
2.180000e-06	1.519485e-06	7.034170e-12	1.084295e+01	1.809777e+00
2.190000e-06	1.475260e-06	-3.655565e-11	1.052736e+01	1.838687e+00
2.200000e-06	1.430702e-06	1.162611e-11	1.020939e+01	1.870245e+00
2.210000e-06	1.385595e-06	7.623774e-11	9.887517e+00	1.902435e+00
2.220000e-06	1.339787e-06	5.582200e-11	9.560635e+00	1.932626e+00
2.230000e-06	1.293320e-06	1.504760e-11	9.229049e+00	1.957742e+00
2.240000e-06	1.246452e-06	-1.857856e-12	8.894599e+00	1.974537e+00
2.250000e-06	1.199338e-06	2.038637e-11	8.558397e+00	1.979931e+00
2.260000e-06	1.151904e-06	6.256033e-11	8.219909e+00	1.971371e+00
2.270000e-06	1.104015e-06	4.137605e-11	7.878178e+00	1.947138e+00
2.280000e-06	1.055571e-06	1.291875e-11	7.532488e+00	1.906587e+00
2.290000e-06	1.006521e-06	1.801622e-11	7.182465e+00	1.850251e+00
2.300000e-06	9.570243e-07	1.712299e-11	6.829263e+00	1.779819e+00
2.310000e-06	9.072314e-07	2.502977e-11	6.473944e+00	1.697977e+00
2.320000e-06	8.571593e-07	3.835082e-11	6.116633e+00	1.608140e+00
2.330000e-06	8.068249e-07	3.572663e-11	5.757450e+00	1.514113e+00
2.340000e-06	7.561576e-07	7.427016e-12	5.395892e+00	1.419728e+00
2.350000e-06	7.052202e-07	-1.440480e-11	5.032405e+00	1.328502e+00
2.360000e-06	6.540202e-07	1.771871e-11	4.667046e+00	1.243367e+00
2.370000e-06	6.024815e-07	4.820303e-11	4.299269e+00	1.166489e+00
2.380000e-06	5.507385e-07	2.419251e-11	3.930034e+00	1.099207e+00
2.390000e-06	4.988555e-07	-1.160673e-11	3.559800e+00	1.042073e+00
2.400000e-06	4.468345e-07	-1.564442e-11	3.188582e+00	9.949842e-01
2.410000e-06	3.946791e-07	2.092134e-11	2.816404e+00	9.573699e-01
2.420000e-06	3.423892e-07	4.936393e-11	2.443267e+00	9.283965e-01
2.430000e-06	2.900387e-07	2.161155e-11	2.069697e+00	9.071533e-01
2.440000e-06	2.376096e-07	-2.666918e-11	1.695567e+00	8.927850e-01
2.450000e-06	1.850261e-07	-2.449548e-11	1.320334e+00	8.845546e-01
2.460000e-06	1.323141e-07	3.165882e-11	9.441845e-01	8.818289e-01
2.470000e-06	7.962039e-08	5.050761e-11	5.681659e-01	8.839973e-01
2.480000e-06	2.698375e-08	-2.160753e-12	1.925543e-01	8.903471e-01
2.490000e-06	-2.569726e-08	-3.622263e-11	-1.833740e-01	8.999267e-01
2.500000e-06	-7.838631e-08	4.031690e-12	-5.593596e-01	9.114300e-01
2.510000e-06	-1.310430e-07	5.126409e-11	-9.351145e-01	9.231355e-01
2.520000e-06	-1.836610e-07	3.585244e-11	-1.310593e+00	9.329206e-01
2.530000e-06	-2.362290e-07	-8.573159e-12	-1.685714e+00	9.383606e-01
2.540000e-06	-2.887420e-07	-1.204176e-11	-2.060444e+00	9.369087e-01
2.550000e-06	-3.411445e-07	2.128530e-11	-2.434385e+00	9.261349e-01
2.560000e-06	-3.934235e-07	3.622276e-11	-2.807444e+00	9.039945e-01
2.570000e-06	-4.455943e-07	1.725449e-11	-3.179732e+00	8.690864e-01
2.580000e-06	-4.976600e-07	-6.263504e-12	-3.551269e+00	8.208645e-01
2.590000e-06	-5.495747e-07	-5.304229e-12	-3.921729e+00	7.597669e-01
2.600000e-06	-6.013039e-07	1.407904e-11	-4.290866e+00	6.872409e-01
2.610000e-06	-6.527617e-07	2.324612e-11	-4.658065e+00	6.056554e-01
2.620000e-06	-7.038733e-07	1.405757e-11	-5.022794e+00	5.181075e-01
2.630000e-06	-7.546890e-07	2.382682e-13	-5.385412e+00	4.281448e-01
2.640000e-06	-8.052166e-07	-5.271926e-12	-5.745973e+00	3.394376e-01
2.650000e-06	-8.554306e-07	7.920112e-13	-6.104297e+00	2.554394e-01
2.660000e-06	-9.053503e-07	1.001081e-11	-6.460521e+00	1.790785e-01
2.670000e-06	-9.548206e-07	9.571191e-12	-6.813538e+00	1.125143e-01
2.680000e-06	-1.003688e-06	-4.640380e-12	-7.162250e+00	5.698500e-02
2.690000e-06	-1.052058e-06	-1.697041e-11	-7.507415e+00	1.275965e-02
2.700000e-06	-1.099815e-06	-8.434710e-12	-7.848208e+00	-2.080837e-02
2.710000e-06	-1.146971e-06	1.140973e-11	-8.184713e+00	-4.514061e-02
2.720000e-06	-1.193761e-06	1.343480e-11	-8.518601e+00	-6.223112e-02
2.730000e-06	-1.240285e-06	-9.638776e-12	-8.850591e+00	-7.441354e-02
2.740000e-06	-1.286572e-06	-2.638135e-11	-9.180893e+00	-8.412917e-02
2.750000e-06	-1.332478e-06	-1.122265e-11	-9.508473e+00	-9.372362e-02
2.760000e-06	-1.377910e-06	1.175342e-11	-9.832676e+00	-1.052914e-01
2.770000e-06	-1.422787e-06	5.876234e-12	-1.015292e+01	-1.205777e-01
2.780000e-06	-1.467191e-06	-2.144323e-11	-1.046978e+01	-1.409348e-01
2.790000e-06	-1.511299e-06	-2.822533e-11	-1.078453e+01	-1.673243e-01
2.800000e-06	-1.555099e-06	-1.462802e-12	-1.109708e+01	-2.003449e-01
2.810000e-06	-1.598475e-06	1.996879e-11	-1.140661e+01	-2.402710e-01
2.820000e-06	-1.641223e-06	4.116361e-12	-1.171166e+01	-2.870814e-01
2.830000e-06	-1.683387e-06	-2.553492e-11	-1.201254e+01	-3.404699e-01
2.840000e-06	-1.725013e-06	-2.520641e-11	-1.230958e+01	-3.998335e-01
2.850000e-06	-1.765939e-06	5.484732e-13	-1.260163e+01	-4.642450e-01
2.860000e-06	-1.806310e-06	6.954271e-12	-1.288971e+01	-5.324220e-01
2.870000e-06	-1.846294e-06	-1.894474e-11	-1.317504e+01	-6.027119e-01
2.880000e-06	-1.885733e-06	-3.789381e-11	-1.345647e+01	-6.731104e-01
2.890000e-06	-1.924250e-06	-2.279068e-11	-1.373132e+01	-7.413290e-01
2.900000e-06	-1.961721e-06	-8.313660e-13	-1.399871e+01	-8.049188e-01
2.910000e-06	-1.998384e-06	-5.737368e-12	-1.426034e+01	-8.614490e-01
2.920000e-06	-2.034441e-06	-2.720755e-11	-1.451764e+01	-9.087249e-01
2.930000e-06	-2.069877e-06	-3.379557e-11	-1.477051e+01	-9.450225e-01
2.940000e-06	-2.104526e-06	-2.112671e-11	-1.501776e+01	-9.693082e-01
