# Temperatura_=_20.0
# Concentracion g/m^3_=_12600.0
# C_Vs_to_Am_M_A/Vsm_=_65563218390.804596
# pendiente_HvsI_1/m_=_3716.3
# ordenada_HvsI_A/m_=_1297.0
# frecuencia_Hz_=_301865.9525787938

Tiempo_(s)	Campo_(V.s)	Magnetizacion_(V.s)	Campo_(kA/m)	Magnetizacion_(A/m)
0.000000e+00	-2.774172e-06	-1.393808e-11	-1.978994e+01	-6.195369e-01
1.000000e-08	-2.774049e-06	-1.343624e-11	-1.978906e+01	-6.080901e-01
2.000000e-08	-2.772882e-06	-1.411529e-11	-1.978074e+01	-6.119795e-01
3.000000e-08	-2.770444e-06	-1.664413e-11	-1.976335e+01	-6.302030e-01
4.000000e-08	-2.767023e-06	-2.124088e-11	-1.973894e+01	-6.599504e-01
5.000000e-08	-2.762867e-06	-2.257669e-11	-1.970929e+01	-6.967910e-01
6.000000e-08	-2.757867e-06	-1.368610e-11	-1.967363e+01	-7.350988e-01
7.000000e-08	-2.751994e-06	1.293594e-11	-1.963173e+01	-7.686820e-01
8.000000e-08	-2.745230e-06	2.364541e-11	-1.958347e+01	-7.915479e-01
9.000000e-08	-2.737487e-06	-6.643328e-11	-1.952824e+01	-7.987122e-01
1.000000e-07	-2.728481e-06	-1.645303e-10	-1.946399e+01	-7.869485e-01
1.100000e-07	-2.717934e-06	-4.740872e-11	-1.938876e+01	-7.553738e-01
1.200000e-07	-2.706307e-06	1.943541e-10	-1.930581e+01	-7.057841e-01
1.300000e-07	-2.693990e-06	1.075345e-10	-1.921795e+01	-6.426784e-01
1.400000e-07	-2.680781e-06	-2.168642e-10	-1.912372e+01	-5.729523e-01
1.500000e-07	-2.666670e-06	-9.799039e-11	-1.902305e+01	-5.052796e-01
1.600000e-07	-2.651698e-06	4.961545e-11	-1.891626e+01	-4.492449e-01
1.700000e-07	-2.635396e-06	-2.315570e-11	-1.879996e+01	-4.143238e-01
1.800000e-07	-2.617749e-06	1.091168e-10	-1.867407e+01	-4.088279e-01
1.900000e-07	-2.599446e-06	5.270747e-11	-1.854350e+01	-4.389422e-01
2.000000e-07	-2.580582e-06	-2.990887e-10	-1.840893e+01	-5.079708e-01
2.100000e-07	-2.560708e-06	-1.063937e-10	-1.826716e+01	-6.158853e-01
2.200000e-07	-2.539838e-06	3.446460e-10	-1.811829e+01	-7.592312e-01
2.300000e-07	-2.518279e-06	6.021501e-12	-1.796449e+01	-9.314054e-01
2.400000e-07	-2.495904e-06	-3.683951e-10	-1.780488e+01	-1.123271e+00
2.500000e-07	-2.472604e-06	-2.181307e-11	-1.763866e+01	-1.324033e+00
2.600000e-07	-2.448479e-06	1.877387e-10	-1.746656e+01	-1.522280e+00
2.700000e-07	-2.423337e-06	7.684406e-13	-1.728721e+01	-1.707046e+00
2.800000e-07	-2.397061e-06	-6.773462e-11	-1.709977e+01	-1.868794e+00
2.900000e-07	-2.369851e-06	-1.134897e-10	-1.690566e+01	-2.000200e+00
3.000000e-07	-2.341793e-06	-3.754522e-11	-1.670550e+01	-2.096652e+00
3.100000e-07	-2.312904e-06	8.738838e-11	-1.649942e+01	-2.156437e+00
3.200000e-07	-2.283322e-06	-4.607467e-12	-1.628839e+01	-2.180599e+00
3.300000e-07	-2.252999e-06	-8.133441e-11	-1.607208e+01	-2.172527e+00
3.400000e-07	-2.221919e-06	-4.980793e-11	-1.585037e+01	-2.137328e+00
3.500000e-07	-2.190262e-06	-7.238367e-11	-1.562454e+01	-2.081103e+00
3.600000e-07	-2.157923e-06	8.639767e-12	-1.539384e+01	-2.010206e+00
3.700000e-07	-2.124576e-06	6.665687e-11	-1.515595e+01	-1.930593e+00
3.800000e-07	-2.090102e-06	-1.010724e-10	-1.491003e+01	-1.847342e+00
3.900000e-07	-2.054826e-06	-9.406542e-11	-1.465838e+01	-1.764377e+00
4.000000e-07	-2.019044e-06	3.196690e-11	-1.440313e+01	-1.684411e+00
4.100000e-07	-1.982600e-06	1.352417e-11	-1.414315e+01	-1.609087e+00
4.200000e-07	-1.945445e-06	-2.260388e-11	-1.387810e+01	-1.539265e+00
4.300000e-07	-1.907611e-06	-1.504532e-11	-1.360821e+01	-1.475380e+00
4.400000e-07	-1.868979e-06	-4.554426e-11	-1.333262e+01	-1.417797e+00
4.500000e-07	-1.829740e-06	-2.612964e-11	-1.305270e+01	-1.367093e+00
4.600000e-07	-1.790171e-06	1.968251e-11	-1.277043e+01	-1.324212e+00
4.700000e-07	-1.750199e-06	1.104693e-11	-1.248528e+01	-1.290464e+00
4.800000e-07	-1.709497e-06	-2.369342e-11	-1.219493e+01	-1.267363e+00
4.900000e-07	-1.667734e-06	-5.838861e-11	-1.189701e+01	-1.256359e+00
5.000000e-07	-1.625037e-06	-2.338398e-11	-1.159243e+01	-1.258476e+00
5.100000e-07	-1.581731e-06	2.734668e-11	-1.128349e+01	-1.273967e+00
5.200000e-07	-1.538014e-06	9.552549e-12	-1.097163e+01	-1.302019e+00
5.300000e-07	-1.493920e-06	-5.274522e-11	-1.065708e+01	-1.340595e+00
5.400000e-07	-1.449302e-06	-5.337656e-11	-1.033879e+01	-1.386435e+00
5.500000e-07	-1.404053e-06	-9.351838e-12	-1.001601e+01	-1.435246e+00
5.600000e-07	-1.358241e-06	5.261436e-12	-9.689201e+00	-1.482054e+00
5.700000e-07	-1.311965e-06	-1.251189e-11	-9.359082e+00	-1.521687e+00
5.800000e-07	-1.265215e-06	-4.251711e-11	-9.025586e+00	-1.549326e+00
5.900000e-07	-1.218046e-06	-4.282485e-11	-8.689100e+00	-1.561035e+00
6.000000e-07	-1.170527e-06	-9.522630e-12	-8.350119e+00	-1.554221e+00
6.100000e-07	-1.122678e-06	1.004853e-11	-8.008776e+00	-1.527935e+00
6.200000e-07	-1.074444e-06	-2.044272e-11	-7.664692e+00	-1.482980e+00
6.300000e-07	-1.025598e-06	-3.995598e-11	-7.316242e+00	-1.421812e+00
6.400000e-07	-9.760524e-07	-2.497053e-11	-6.962804e+00	-1.348243e+00
6.500000e-07	-9.259194e-07	-1.357522e-11	-6.605174e+00	-1.266981e+00
6.600000e-07	-8.753387e-07	-1.501761e-11	-6.244349e+00	-1.183079e+00
6.700000e-07	-8.243270e-07	-1.648732e-11	-5.880450e+00	-1.101362e+00
6.800000e-07	-7.729527e-07	-1.941096e-11	-5.513964e+00	-1.025908e+00
6.900000e-07	-7.213825e-07	-3.062588e-11	-5.146082e+00	-9.596480e-01
7.000000e-07	-6.695981e-07	-1.698144e-11	-4.776670e+00	-9.041434e-01
7.100000e-07	-6.175913e-07	8.099504e-12	-4.405672e+00	-8.595482e-01
7.200000e-07	-5.654020e-07	2.000261e-12	-4.033373e+00	-8.247616e-01
7.300000e-07	-5.131211e-07	-2.831423e-11	-3.660420e+00	-7.977335e-01
7.400000e-07	-4.606106e-07	-3.604030e-11	-3.285829e+00	-7.758728e-01
7.500000e-07	-4.077498e-07	-1.419473e-11	-2.908739e+00	-7.564898e-01
7.600000e-07	-3.547228e-07	4.223286e-12	-2.530464e+00	-7.372091e-01
7.700000e-07	-3.016213e-07	-3.391810e-13	-2.151657e+00	-7.162891e-01
7.800000e-07	-2.484181e-07	-2.676303e-11	-1.772125e+00	-6.928091e-01
7.900000e-07	-1.951271e-07	-3.531572e-11	-1.391966e+00	-6.667007e-01
8.000000e-07	-1.417324e-07	-3.787496e-12	-1.011067e+00	-6.386304e-01
8.100000e-07	-8.825219e-08	2.682398e-11	-6.295592e-01	-6.097616e-01
8.200000e-07	-3.476642e-08	2.719606e-12	-2.480110e-01	-5.814410e-01
8.300000e-07	1.869223e-08	-4.149689e-11	1.333436e-01	-5.548682e-01
8.400000e-07	7.214101e-08	-3.262630e-11	5.146278e-01	-5.308048e-01
8.500000e-07	1.256210e-07	1.603710e-11	8.961349e-01	-5.093737e-01
8.600000e-07	1.791239e-07	2.621644e-11	1.277805e+00	-4.899809e-01
8.700000e-07	2.325746e-07	-1.976883e-11	1.659103e+00	-4.713745e-01
8.800000e-07	2.859216e-07	-4.458767e-11	2.039661e+00	-4.518280e-01
8.900000e-07	3.391694e-07	-8.534282e-12	2.419511e+00	-4.294199e-01
9.000000e-07	3.923086e-07	3.377898e-11	2.798587e+00	-4.023620e-01
9.100000e-07	4.453403e-07	1.857560e-11	3.176896e+00	-3.693227e-01
9.200000e-07	4.981837e-07	-2.506398e-11	3.553862e+00	-3.296924e-01
9.300000e-07	5.507952e-07	-2.945354e-11	3.929173e+00	-2.837476e-01
9.400000e-07	6.031589e-07	9.123648e-12	4.302717e+00	-2.326848e-01
9.500000e-07	6.552388e-07	3.188862e-11	4.674236e+00	-1.785181e-01
9.600000e-07	7.070816e-07	5.951445e-12	5.044064e+00	-1.238537e-01
9.700000e-07	7.586991e-07	-2.483904e-11	5.412284e+00	-7.157355e-02
9.800000e-07	8.100062e-07	-1.477903e-11	5.778291e+00	-2.447559e-02
9.900000e-07	8.609256e-07	1.904781e-11	6.141531e+00	1.507861e-02
1.000000e-06	9.113922e-07	2.584424e-11	6.501542e+00	4.545682e-02
1.010000e-06	9.613286e-07	-1.123073e-12	6.857770e+00	6.594988e-02
1.020000e-06	1.010646e-06	-2.049048e-11	7.209582e+00	7.684048e-02
1.030000e-06	1.059236e-06	-6.149188e-12	7.556208e+00	7.934109e-02
1.040000e-06	1.107288e-06	1.695614e-11	7.898990e+00	7.541440e-02
1.050000e-06	1.155067e-06	1.547007e-11	8.239833e+00	6.750642e-02
1.060000e-06	1.202612e-06	-4.806696e-12	8.578999e+00	5.823438e-02
1.070000e-06	1.249826e-06	-1.488643e-11	8.915808e+00	5.007575e-02
1.080000e-06	1.296565e-06	-2.211698e-12	9.249224e+00	4.510270e-02
1.090000e-06	1.342790e-06	1.335814e-11	9.578979e+00	4.479636e-02
1.100000e-06	1.388491e-06	1.252305e-11	9.904995e+00	4.996126e-02
1.110000e-06	1.433702e-06	-3.626663e-12	1.022751e+01	6.074304e-02
1.120000e-06	1.478439e-06	-1.370682e-11	1.054665e+01	7.673632e-02
1.130000e-06	1.522658e-06	-5.632490e-12	1.086209e+01	9.715559e-02
1.140000e-06	1.566463e-06	8.067514e-12	1.117458e+01	1.210338e-01
1.150000e-06	1.609993e-06	8.801662e-12	1.148511e+01	1.474112e-01
1.160000e-06	1.653158e-06	-2.372385e-12	1.179303e+01	1.754816e-01
1.170000e-06	1.695619e-06	-7.865320e-12	1.209593e+01	2.046723e-01
1.180000e-06	1.737107e-06	2.539052e-12	1.239189e+01	2.346498e-01
1.190000e-06	1.777582e-06	1.938370e-11	1.268062e+01	2.652550e-01
1.200000e-06	1.817383e-06	2.158259e-11	1.296456e+01	2.963887e-01
1.210000e-06	1.856809e-06	5.338612e-12	1.324580e+01	3.278753e-01
1.220000e-06	1.895706e-06	-6.511643e-12	1.352328e+01	3.593373e-01
1.230000e-06	1.933934e-06	3.580215e-12	1.379598e+01	3.901131e-01
1.240000e-06	1.971467e-06	1.884264e-11	1.406373e+01	4.192403e-01
1.250000e-06	2.008234e-06	1.175859e-11	1.432602e+01	4.455158e-01
1.260000e-06	2.044316e-06	-9.013562e-12	1.458341e+01	4.676296e-01
1.270000e-06	2.079936e-06	-1.216106e-11	1.483751e+01	4.843544e-01
1.280000e-06	2.115036e-06	6.474166e-12	1.508790e+01	4.947610e-01
1.290000e-06	2.149143e-06	1.953275e-11	1.533121e+01	4.984230e-01
1.300000e-06	2.182040e-06	9.627080e-12	1.556588e+01	4.955752e-01
1.310000e-06	2.214083e-06	-5.364761e-12	1.579447e+01	4.871926e-01
1.320000e-06	2.245468e-06	-2.513219e-12	1.601835e+01	4.749708e-01
1.330000e-06	2.276121e-06	1.407968e-11	1.623702e+01	4.612029e-01
1.340000e-06	2.306042e-06	1.807586e-11	1.645047e+01	4.485641e-01
1.350000e-06	2.335200e-06	2.457454e-12	1.665847e+01	4.398308e-01
1.360000e-06	2.363554e-06	-1.019291e-11	1.686074e+01	4.375717e-01
1.370000e-06	2.391268e-06	-6.721654e-13	1.705844e+01	4.438536e-01
1.380000e-06	2.418317e-06	1.593820e-11	1.725140e+01	4.600043e-01
1.390000e-06	2.444264e-06	1.632818e-11	1.743650e+01	4.864660e-01
1.400000e-06	2.469003e-06	4.393792e-12	1.761297e+01	5.227586e-01
1.410000e-06	2.492829e-06	1.753789e-12	1.778294e+01	5.675569e-01
1.420000e-06	2.515896e-06	1.220742e-11	1.794749e+01	6.188676e-01
1.430000e-06	2.538132e-06	1.911648e-11	1.810611e+01	6.742769e-01
1.440000e-06	2.559457e-06	1.437326e-11	1.825824e+01	7.312296e-01
1.450000e-06	2.579931e-06	7.082347e-12	1.840429e+01	7.872965e-01
1.460000e-06	2.599709e-06	7.266530e-12	1.854538e+01	8.403908e-01
1.470000e-06	2.618738e-06	1.535377e-11	1.868113e+01	8.889031e-01
1.480000e-06	2.636782e-06	2.131600e-11	1.880985e+01	9.317417e-01
1.490000e-06	2.653850e-06	2.056420e-11	1.893160e+01	9.682791e-01
1.500000e-06	2.669986e-06	1.952554e-11	1.904672e+01	9.982254e-01
1.510000e-06	2.685060e-06	2.088873e-11	1.915424e+01	1.021461e+00
1.520000e-06	2.699056e-06	2.232601e-11	1.925409e+01	1.037870e+00
1.530000e-06	2.712069e-06	2.171733e-11	1.934692e+01	1.047208e+00
1.540000e-06	2.724126e-06	1.951101e-11	1.943293e+01	1.049053e+00
1.550000e-06	2.735096e-06	1.631682e-11	1.951119e+01	1.042836e+00
1.560000e-06	2.744674e-06	1.396953e-11	1.957951e+01	1.027973e+00
1.570000e-06	2.753010e-06	1.627346e-11	1.963898e+01	1.004061e+00
1.580000e-06	2.760486e-06	2.207110e-11	1.969231e+01	9.711280e-01
1.590000e-06	2.767081e-06	2.464152e-11	1.973935e+01	9.298527e-01
1.600000e-06	2.772714e-06	2.228626e-11	1.977954e+01	8.817414e-01
1.610000e-06	2.777388e-06	1.942517e-11	1.981288e+01	8.291877e-01
1.620000e-06	2.781249e-06	2.052724e-11	1.984042e+01	7.753962e-01
1.630000e-06	2.784256e-06	2.454590e-11	1.986187e+01	7.241535e-01
1.640000e-06	2.786039e-06	2.363734e-11	1.987459e+01	6.794615e-01
1.650000e-06	2.786587e-06	1.772493e-11	1.987850e+01	6.450700e-01
1.660000e-06	2.786205e-06	1.553001e-11	1.987578e+01	6.239682e-01
1.670000e-06	2.784994e-06	1.613509e-11	1.986714e+01	6.179079e-01
1.680000e-06	2.782918e-06	1.916513e-11	1.985233e+01	6.270351e-01
1.690000e-06	2.779947e-06	2.113389e-11	1.983113e+01	6.496957e-01
1.700000e-06	2.776205e-06	1.767750e-11	1.980444e+01	6.824667e-01
1.710000e-06	2.771839e-06	1.882044e-11	1.977330e+01	7.204299e-01
1.720000e-06	2.766573e-06	4.388273e-11	1.973573e+01	7.576763e-01
1.730000e-06	2.760053e-06	8.185095e-11	1.968922e+01	7.879928e-01
1.740000e-06	2.752383e-06	-9.343923e-12	1.963450e+01	8.056549e-01
1.750000e-06	2.743666e-06	-1.355042e-10	1.957232e+01	8.062265e-01
1.760000e-06	2.733537e-06	-4.091681e-11	1.950006e+01	7.872621e-01
1.770000e-06	2.722180e-06	2.112405e-10	1.941905e+01	7.488124e-01
1.780000e-06	2.710551e-06	1.825431e-10	1.933609e+01	6.936530e-01
1.790000e-06	2.698664e-06	-1.455510e-10	1.925129e+01	6.271912e-01
1.800000e-06	2.685187e-06	-7.231849e-11	1.915515e+01	5.570432e-01
1.810000e-06	2.669872e-06	8.250679e-11	1.904590e+01	4.923179e-01
1.820000e-06	2.653912e-06	-4.730363e-12	1.893205e+01	4.426826e-01
1.830000e-06	2.637407e-06	1.221865e-10	1.881430e+01	4.173161e-01
1.840000e-06	2.619664e-06	1.352346e-10	1.868773e+01	4.238726e-01
1.850000e-06	2.600937e-06	-2.511093e-10	1.855414e+01	4.675807e-01
1.860000e-06	2.581671e-06	-1.737531e-10	1.841671e+01	5.505883e-01
1.870000e-06	2.561683e-06	3.298066e-10	1.827412e+01	6.716348e-01
1.880000e-06	2.540746e-06	7.022706e-11	1.812476e+01	8.260906e-01
1.890000e-06	2.518605e-06	-3.423237e-10	1.796682e+01	1.006361e+00
1.900000e-06	2.495218e-06	8.495128e-11	1.779998e+01	1.202607e+00
1.910000e-06	2.471033e-06	2.686714e-10	1.762746e+01	1.403689e+00
1.920000e-06	2.446155e-06	-7.077774e-11	1.744999e+01	1.598233e+00
1.930000e-06	2.420246e-06	-3.382321e-11	1.726516e+01	1.775680e+00
1.940000e-06	2.393449e-06	5.218195e-11	1.707400e+01	1.927207e+00
1.950000e-06	2.365978e-06	4.743369e-12	1.687803e+01	2.046418e+00
1.960000e-06	2.337694e-06	8.137318e-11	1.667626e+01	2.129731e+00
1.970000e-06	2.308653e-06	2.630378e-11	1.646909e+01	2.176448e+00
1.980000e-06	2.278634e-06	6.779593e-12	1.625495e+01	2.188513e+00
1.990000e-06	2.247358e-06	9.778734e-11	1.603184e+01	2.170007e+00
2.000000e-06	2.215274e-06	-5.120856e-11	1.580296e+01	2.126478e+00
2.010000e-06	2.182645e-06	1.567022e-11	1.557020e+01	2.064201e+00
2.020000e-06	2.149254e-06	1.939439e-10	1.533200e+01	1.989452e+00
2.030000e-06	2.115065e-06	-2.151461e-11	1.508811e+01	1.907921e+00
2.040000e-06	2.080075e-06	-5.670023e-11	1.483850e+01	1.824294e+00
2.050000e-06	2.044396e-06	9.931379e-11	1.458398e+01	1.742057e+00
2.060000e-06	2.008319e-06	2.942227e-11	1.432662e+01	1.663517e+00
2.070000e-06	1.971609e-06	3.815680e-11	1.406474e+01	1.589997e+00
2.080000e-06	1.933842e-06	5.326652e-11	1.379533e+01	1.522165e+00
2.090000e-06	1.895054e-06	-2.236257e-11	1.351863e+01	1.460391e+00
2.100000e-06	1.855514e-06	3.223505e-11	1.323656e+01	1.405089e+00
2.110000e-06	1.815446e-06	4.849295e-11	1.295073e+01	1.356959e+00
2.120000e-06	1.774939e-06	4.421381e-11	1.266177e+01	1.317082e+00
2.130000e-06	1.733825e-06	5.688678e-11	1.236848e+01	1.286867e+00
2.140000e-06	1.692022e-06	-2.975331e-11	1.207027e+01	1.267843e+00
2.150000e-06	1.649692e-06	-2.375327e-12	1.176830e+01	1.261348e+00
2.160000e-06	1.606836e-06	7.507721e-11	1.146258e+01	1.268171e+00
2.170000e-06	1.563388e-06	4.046407e-11	1.115264e+01	1.288211e+00
2.180000e-06	1.519465e-06	-7.094287e-12	1.083931e+01	1.320229e+00
2.190000e-06	1.475245e-06	-1.156679e-11	1.052386e+01	1.361741e+00
2.200000e-06	1.430638e-06	3.244794e-11	1.020566e+01	1.409088e+00
2.210000e-06	1.385428e-06	5.678921e-11	9.883141e+00	1.457685e+00
2.220000e-06	1.339530e-06	2.808486e-11	9.555724e+00	1.502426e+00
2.230000e-06	1.293015e-06	1.428363e-11	9.223899e+00	1.538202e+00
2.240000e-06	1.246122e-06	7.655994e-12	8.889384e+00	1.560450e+00
2.250000e-06	1.198969e-06	2.358961e-11	8.553012e+00	1.565669e+00
2.260000e-06	1.151476e-06	5.239758e-11	8.214214e+00	1.551828e+00
2.270000e-06	1.103480e-06	2.578904e-11	7.871825e+00	1.518600e+00
2.280000e-06	1.054859e-06	1.496663e-11	7.524983e+00	1.467402e+00
2.290000e-06	1.005661e-06	2.019443e-11	7.174024e+00	1.401218e+00
2.300000e-06	9.560670e-07	1.668302e-11	6.820236e+00	1.324239e+00
2.310000e-06	9.062316e-07	3.131901e-11	6.464728e+00	1.241362e+00
2.320000e-06	8.561484e-07	3.716444e-11	6.107453e+00	1.157624e+00
2.330000e-06	8.057934e-07	2.311583e-11	5.748239e+00	1.077637e+00
2.340000e-06	7.551266e-07	-7.449223e-12	5.386800e+00	1.005106e+00
2.350000e-06	7.041609e-07	-7.167359e-12	5.023229e+00	9.424906e-01
2.360000e-06	6.528771e-07	3.696593e-11	4.657389e+00	8.908429e-01
2.370000e-06	6.012976e-07	3.885325e-11	4.289440e+00	8.498425e-01
2.380000e-06	5.495283e-07	-5.068217e-12	3.920136e+00	8.180079e-01
2.390000e-06	4.976086e-07	-1.900195e-11	3.549760e+00	7.930455e-01
2.400000e-06	4.455908e-07	8.876235e-12	3.178683e+00	7.722785e-01
2.410000e-06	3.934760e-07	4.275153e-11	2.806915e+00	7.530857e-01
2.420000e-06	3.412364e-07	3.599206e-11	2.434257e+00	7.332875e-01
2.430000e-06	2.888789e-07	-7.255099e-12	2.060757e+00	7.114221e-01
2.440000e-06	2.364644e-07	-2.575558e-11	1.686851e+00	6.868774e-01
2.450000e-06	1.839715e-07	7.398249e-12	1.312386e+00	6.598682e-01
2.460000e-06	1.313927e-07	4.976954e-11	9.373078e-01	6.312708e-01
2.470000e-06	7.875573e-08	2.694916e-11	5.618148e-01	6.023521e-01
2.480000e-06	2.609105e-08	-3.124471e-11	1.861241e-01	5.744436e-01
2.490000e-06	-2.660821e-08	-2.446661e-11	-1.898133e-01	5.486178e-01
2.500000e-06	-7.934487e-08	3.659961e-11	-5.660176e-01	5.254256e-01
2.510000e-06	-1.320079e-07	5.340687e-11	-9.416967e-01	5.047357e-01
2.520000e-06	-1.846028e-07	9.621620e-13	-1.316890e+00	4.857054e-01
2.530000e-06	-2.371739e-07	-3.393232e-11	-1.691913e+00	4.668865e-01
2.540000e-06	-2.896203e-07	3.533261e-16	-2.066046e+00	4.464471e-01
2.550000e-06	-3.419137e-07	4.175248e-11	-2.439088e+00	4.224748e-01
2.560000e-06	-3.941420e-07	2.718217e-11	-2.811666e+00	3.933091e-01
2.570000e-06	-4.462816e-07	-1.578380e-11	-3.183611e+00	3.578503e-01
2.580000e-06	-4.982860e-07	-2.487904e-11	-3.554592e+00	3.157929e-01
2.590000e-06	-5.501515e-07	8.741248e-12	-3.924581e+00	2.677452e-01
2.600000e-06	-6.018214e-07	3.293329e-11	-4.293176e+00	2.152142e-01
2.610000e-06	-6.532300e-07	1.375567e-11	-4.659906e+00	1.604571e-01
2.620000e-06	-7.043544e-07	-1.603201e-11	-5.024609e+00	1.062182e-01
2.630000e-06	-7.551732e-07	-1.557168e-11	-5.387132e+00	5.539143e-02
2.640000e-06	-8.056373e-07	8.560302e-12	-5.747125e+00	1.065729e-02
2.650000e-06	-8.558083e-07	1.761101e-11	-6.105026e+00	-2.585389e-02
2.660000e-06	-9.057976e-07	-9.491952e-13	-6.461632e+00	-5.282347e-02
2.670000e-06	-9.554074e-07	-1.994442e-11	-6.815531e+00	-6.989549e-02
2.680000e-06	-1.004408e-06	-1.457782e-11	-7.165083e+00	-7.769839e-02
2.690000e-06	-1.052764e-06	5.001511e-12	-7.510034e+00	-7.773852e-02
2.700000e-06	-1.100470e-06	1.229641e-11	-7.850358e+00	-7.218515e-02
2.710000e-06	-1.147687e-06	1.000796e-12	-8.187187e+00	-6.358221e-02
2.720000e-06	-1.194589e-06	-1.167552e-11	-8.521766e+00	-5.453121e-02
2.730000e-06	-1.241201e-06	-9.779869e-12	-8.854276e+00	-4.739184e-02
2.740000e-06	-1.287466e-06	2.596180e-12	-9.184314e+00	-4.404157e-02
2.750000e-06	-1.333334e-06	7.397587e-12	-9.511525e+00	-4.572422e-02
2.760000e-06	-1.378704e-06	-4.348578e-12	-9.835176e+00	-5.300186e-02
2.770000e-06	-1.423495e-06	-1.813682e-11	-1.015470e+01	-6.580701e-02
2.780000e-06	-1.467873e-06	-1.531407e-11	-1.047128e+01	-8.357665e-02
2.790000e-06	-1.512000e-06	1.206577e-12	-1.078606e+01	-1.054374e-01
2.800000e-06	-1.555805e-06	9.457895e-12	-1.109855e+01	-1.304046e-01
2.810000e-06	-1.599093e-06	-1.999342e-12	-1.140735e+01	-1.575598e-01
2.820000e-06	-1.641793e-06	-1.664612e-11	-1.171195e+01	-1.861747e-01
2.830000e-06	-1.684004e-06	-1.405934e-11	-1.201307e+01	-2.157654e-01
2.840000e-06	-1.725726e-06	7.037234e-13	-1.231070e+01	-2.460712e-01
2.850000e-06	-1.766729e-06	2.762377e-12	-1.260321e+01	-2.769693e-01
2.860000e-06	-1.807107e-06	-1.561926e-11	-1.289125e+01	-3.083491e-01
2.870000e-06	-1.847134e-06	-2.977569e-11	-1.317679e+01	-3.399755e-01
2.880000e-06	-1.886568e-06	-1.906202e-11	-1.345809e+01	-3.713762e-01
2.890000e-06	-1.925066e-06	-1.415734e-13	-1.373273e+01	-4.017800e-01
2.900000e-06	-1.962540e-06	-3.408634e-12	-1.400005e+01	-4.301276e-01
2.910000e-06	-1.999159e-06	-2.325953e-11	-1.426128e+01	-4.551591e-01
2.920000e-06	-2.035178e-06	-2.871597e-11	-1.451823e+01	-4.755701e-01
2.930000e-06	-2.070555e-06	-1.426658e-11	-1.477059e+01	-4.902147e-01
2.940000e-06	-2.105169e-06	-5.269986e-12	-1.501751e+01	-4.983215e-01
