# Temperatura_=_20.0
# Concentracion g/m^3_=_12600.0
# C_Vs_to_Am_M_A/Vsm_=_65563218390.804596
# pendiente_HvsI_1/m_=_3716.3
# ordenada_HvsI_A/m_=_1297.0
# frecuencia_Hz_=_301867.9907775748

Tiempo_(s)	Campo_(V.s)	Magnetizacion_(V.s)	Campo_(kA/m)	Magnetizacion_(A/m)
0.000000e+00	-2.773069e-06	-2.013940e-09	-1.979437e+01	-1.328471e+02
1.000000e-08	-2.772908e-06	-2.013749e-09	-1.979322e+01	-1.328009e+02
2.000000e-08	-2.771593e-06	-2.008229e-09	-1.978384e+01	-1.327155e+02
3.000000e-08	-2.769051e-06	-2.004420e-09	-1.976569e+01	-1.325902e+02
4.000000e-08	-2.765647e-06	-2.008248e-09	-1.974139e+01	-1.324235e+02
5.000000e-08	-2.761534e-06	-2.012797e-09	-1.971203e+01	-1.322127e+02
6.000000e-08	-2.756539e-06	-2.002099e-09	-1.967638e+01	-1.319548e+02
7.000000e-08	-2.750585e-06	-1.968889e-09	-1.963388e+01	-1.316463e+02
8.000000e-08	-2.743752e-06	-1.947409e-09	-1.958510e+01	-1.312842e+02
9.000000e-08	-2.735980e-06	-2.028427e-09	-1.952963e+01	-1.308663e+02
1.000000e-07	-2.726871e-06	-2.127548e-09	-1.946461e+01	-1.303917e+02
1.100000e-07	-2.716235e-06	-2.027878e-09	-1.938869e+01	-1.298613e+02
1.200000e-07	-2.704601e-06	-1.755524e-09	-1.930565e+01	-1.292784e+02
1.300000e-07	-2.692280e-06	-1.793453e-09	-1.921769e+01	-1.286482e+02
1.400000e-07	-2.679018e-06	-2.110353e-09	-1.912303e+01	-1.279779e+02
1.500000e-07	-2.664757e-06	-2.058625e-09	-1.902123e+01	-1.272761e+02
1.600000e-07	-2.649580e-06	-1.878217e-09	-1.891290e+01	-1.265522e+02
1.700000e-07	-2.633144e-06	-1.915152e-09	-1.879558e+01	-1.258153e+02
1.800000e-07	-2.615437e-06	-1.814901e-09	-1.866919e+01	-1.250734e+02
1.900000e-07	-2.597073e-06	-1.793765e-09	-1.853810e+01	-1.243323e+02
2.000000e-07	-2.578143e-06	-2.138465e-09	-1.840298e+01	-1.235949e+02
2.100000e-07	-2.558240e-06	-2.041072e-09	-1.826091e+01	-1.228610e+02
2.200000e-07	-2.537386e-06	-1.547770e-09	-1.811205e+01	-1.221267e+02
2.300000e-07	-2.515879e-06	-1.757687e-09	-1.795854e+01	-1.213848e+02
2.400000e-07	-2.493536e-06	-2.171646e-09	-1.779905e+01	-1.206256e+02
2.500000e-07	-2.470257e-06	-1.881692e-09	-1.763288e+01	-1.198372e+02
2.600000e-07	-2.446146e-06	-1.635347e-09	-1.746077e+01	-1.190074e+02
2.700000e-07	-2.420944e-06	-1.790440e-09	-1.728088e+01	-1.181241e+02
2.800000e-07	-2.394554e-06	-1.829263e-09	-1.709251e+01	-1.171770e+02
2.900000e-07	-2.367323e-06	-1.820120e-09	-1.689813e+01	-1.161582e+02
3.000000e-07	-2.339363e-06	-1.785235e-09	-1.669855e+01	-1.150632e+02
3.100000e-07	-2.310582e-06	-1.671013e-09	-1.649311e+01	-1.138908e+02
3.200000e-07	-2.281055e-06	-1.692170e-09	-1.628234e+01	-1.126435e+02
3.300000e-07	-2.250781e-06	-1.739248e-09	-1.606624e+01	-1.113265e+02
3.400000e-07	-2.219740e-06	-1.669654e-09	-1.584467e+01	-1.099478e+02
3.500000e-07	-2.188145e-06	-1.692016e-09	-1.561914e+01	-1.085164e+02
3.600000e-07	-2.155868e-06	-1.661971e-09	-1.538874e+01	-1.070416e+02
3.700000e-07	-2.122488e-06	-1.548732e-09	-1.515048e+01	-1.055323e+02
3.800000e-07	-2.087977e-06	-1.591553e-09	-1.490414e+01	-1.039959e+02
3.900000e-07	-2.052693e-06	-1.605251e-09	-1.465228e+01	-1.024376e+02
4.000000e-07	-2.016892e-06	-1.540297e-09	-1.439673e+01	-1.008605e+02
4.100000e-07	-1.980441e-06	-1.534960e-09	-1.413654e+01	-9.926555e+01
4.200000e-07	-1.943272e-06	-1.488784e-09	-1.387122e+01	-9.765168e+01
4.300000e-07	-1.905404e-06	-1.406577e-09	-1.360092e+01	-9.601658e+01
4.400000e-07	-1.866815e-06	-1.450664e-09	-1.332547e+01	-9.435730e+01
4.500000e-07	-1.827661e-06	-1.494090e-09	-1.304598e+01	-9.267092e+01
4.600000e-07	-1.788148e-06	-1.420536e-09	-1.276394e+01	-9.095511e+01
4.700000e-07	-1.748127e-06	-1.306007e-09	-1.247826e+01	-8.920859e+01
4.800000e-07	-1.707229e-06	-1.278943e-09	-1.218633e+01	-8.743127e+01
4.900000e-07	-1.665343e-06	-1.356389e-09	-1.188735e+01	-8.562418e+01
5.000000e-07	-1.622663e-06	-1.363686e-09	-1.158269e+01	-8.378921e+01
5.100000e-07	-1.579423e-06	-1.242621e-09	-1.127404e+01	-8.192864e+01
5.200000e-07	-1.535779e-06	-1.142999e-09	-1.096250e+01	-8.004462e+01
5.300000e-07	-1.491662e-06	-1.181114e-09	-1.064760e+01	-7.813863e+01
5.400000e-07	-1.446982e-06	-1.239737e-09	-1.032866e+01	-7.621107e+01
5.500000e-07	-1.401767e-06	-1.196367e-09	-1.000592e+01	-7.426101e+01
5.600000e-07	-1.355994e-06	-1.083026e-09	-9.679187e+00	-7.228614e+01
5.700000e-07	-1.309687e-06	-1.018543e-09	-9.348642e+00	-7.028296e+01
5.800000e-07	-1.262916e-06	-1.047985e-09	-9.014787e+00	-6.824720e+01
5.900000e-07	-1.215760e-06	-1.078907e-09	-8.678189e+00	-6.617437e+01
6.000000e-07	-1.168256e-06	-1.014804e-09	-8.339096e+00	-6.406036e+01
6.100000e-07	-1.120386e-06	-9.053100e-10	-7.997397e+00	-6.190206e+01
6.200000e-07	-1.072062e-06	-8.744695e-10	-7.652458e+00	-5.969791e+01
6.300000e-07	-1.023056e-06	-9.011267e-10	-7.302653e+00	-5.744814e+01
6.400000e-07	-9.733925e-07	-8.949270e-10	-6.948149e+00	-5.515500e+01
6.500000e-07	-9.231827e-07	-8.336824e-10	-6.589747e+00	-5.282252e+01
6.600000e-07	-8.724994e-07	-7.624886e-10	-6.227967e+00	-5.045623e+01
6.700000e-07	-8.214784e-07	-7.183563e-10	-5.863774e+00	-4.806265e+01
6.800000e-07	-7.701808e-07	-7.090730e-10	-5.497608e+00	-4.564858e+01
6.900000e-07	-7.186813e-07	-7.061121e-10	-5.130001e+00	-4.322056e+01
7.000000e-07	-6.669553e-07	-6.536430e-10	-4.760777e+00	-4.078421e+01
7.100000e-07	-6.149899e-07	-5.685096e-10	-4.389844e+00	-3.834382e+01
7.200000e-07	-5.628148e-07	-5.214380e-10	-4.017414e+00	-3.590209e+01
7.300000e-07	-5.104302e-07	-5.288366e-10	-3.643489e+00	-3.346006e+01
7.400000e-07	-4.578051e-07	-5.251704e-10	-3.267847e+00	-3.101724e+01
7.500000e-07	-4.050004e-07	-4.694505e-10	-2.890923e+00	-2.857199e+01
7.600000e-07	-3.520640e-07	-3.886986e-10	-2.513059e+00	-2.612188e+01
7.700000e-07	-2.989670e-07	-3.382750e-10	-2.134049e+00	-2.366421e+01
7.800000e-07	-2.457733e-07	-3.423251e-10	-1.754349e+00	-2.119644e+01
7.900000e-07	-1.925471e-07	-3.450170e-10	-1.374416e+00	-1.871654e+01
8.000000e-07	-1.392726e-07	-2.790663e-10	-9.941386e-01	-1.622326e+01
8.100000e-07	-8.595747e-08	-1.761552e-10	-6.135709e-01	-1.371619e+01
8.200000e-07	-3.259477e-08	-1.377321e-10	-2.326639e-01	-1.119566e+01
8.300000e-07	2.079754e-08	-1.657998e-10	1.484544e-01	-8.662643e+00
8.400000e-07	7.417293e-08	-1.546538e-10	5.294519e-01	-6.118393e+00
8.500000e-07	1.275604e-07	-6.179715e-11	9.105359e-01	-3.564227e+00
8.600000e-07	1.809430e-07	2.337403e-11	1.291585e+00	-1.001235e+00
8.700000e-07	2.342953e-07	2.668561e-11	1.672417e+00	1.569882e+00
8.800000e-07	2.875313e-07	8.085879e-12	2.052420e+00	4.148894e+00
8.900000e-07	3.406311e-07	5.870669e-11	2.431450e+00	6.735983e+00
9.000000e-07	3.936681e-07	1.607898e-10	2.810032e+00	9.331590e+00
9.100000e-07	4.466257e-07	2.199511e-10	3.188048e+00	1.193617e+01
9.200000e-07	4.994610e-07	2.137624e-10	3.565190e+00	1.454991e+01
9.300000e-07	5.520042e-07	2.155928e-10	3.940247e+00	1.717245e+01
9.400000e-07	6.042079e-07	2.793374e-10	4.312881e+00	1.980270e+01
9.500000e-07	6.562167e-07	3.617592e-10	4.684124e+00	2.243865e+01
9.600000e-07	7.080165e-07	3.953150e-10	5.053875e+00	2.507745e+01
9.700000e-07	7.595401e-07	3.939044e-10	5.421654e+00	2.771546e+01
9.800000e-07	8.108130e-07	4.220200e-10	5.787644e+00	3.034851e+01
9.900000e-07	8.617813e-07	4.942982e-10	6.151459e+00	3.297221e+01
1.000000e-06	9.123456e-07	5.601411e-10	6.512392e+00	3.558231e+01
1.010000e-06	9.624404e-07	5.869746e-10	6.869972e+00	3.817498e+01
1.020000e-06	1.011877e-06	6.003545e-10	7.222852e+00	4.074716e+01
1.030000e-06	1.060528e-06	6.365366e-10	7.570128e+00	4.329674e+01
1.040000e-06	1.108569e-06	6.922399e-10	7.913050e+00	4.582259e+01
1.050000e-06	1.156249e-06	7.404422e-10	8.253391e+00	4.832459e+01
1.060000e-06	1.203681e-06	7.688587e-10	8.591967e+00	5.080344e+01
1.070000e-06	1.250848e-06	7.931392e-10	8.928644e+00	5.326046e+01
1.080000e-06	1.297619e-06	8.294896e-10	9.262500e+00	5.569730e+01
1.090000e-06	1.343843e-06	8.758390e-10	9.592453e+00	5.811564e+01
1.100000e-06	1.389497e-06	9.225941e-10	9.918335e+00	6.051696e+01
1.110000e-06	1.434687e-06	9.579781e-10	1.024090e+01	6.290229e+01
1.120000e-06	1.479395e-06	9.838091e-10	1.056003e+01	6.527210e+01
1.130000e-06	1.523606e-06	1.011548e-09	1.087561e+01	6.762626e+01
1.140000e-06	1.567398e-06	1.053488e-09	1.118821e+01	6.996400e+01
1.150000e-06	1.610833e-06	1.101790e-09	1.149825e+01	7.228399e+01
1.160000e-06	1.653865e-06	1.139345e-09	1.180542e+01	7.458446e+01
1.170000e-06	1.696283e-06	1.162141e-09	1.210820e+01	7.686326e+01
1.180000e-06	1.737774e-06	1.187367e-09	1.240436e+01	7.911799e+01
1.190000e-06	1.778209e-06	1.232549e-09	1.269299e+01	8.134601e+01
1.200000e-06	1.817888e-06	1.284868e-09	1.297622e+01	8.354453e+01
1.210000e-06	1.857173e-06	1.316382e-09	1.325664e+01	8.571060e+01
1.220000e-06	1.896064e-06	1.328532e-09	1.353424e+01	8.784112e+01
1.230000e-06	1.934297e-06	1.352600e-09	1.380716e+01	8.993287e+01
1.240000e-06	1.971801e-06	1.399227e-09	1.407486e+01	9.198254e+01
1.250000e-06	2.008567e-06	1.440203e-09	1.433730e+01	9.398686e+01
1.260000e-06	2.044589e-06	1.457358e-09	1.459443e+01	9.594267e+01
1.270000e-06	2.080102e-06	1.471620e-09	1.484792e+01	9.784714e+01
1.280000e-06	2.115120e-06	1.506713e-09	1.509788e+01	9.969795e+01
1.290000e-06	2.149255e-06	1.553749e-09	1.534154e+01	1.014935e+02
1.300000e-06	2.182189e-06	1.586161e-09	1.557663e+01	1.032330e+02
1.310000e-06	2.214140e-06	1.601507e-09	1.580470e+01	1.049166e+02
1.320000e-06	2.245493e-06	1.618728e-09	1.602849e+01	1.065455e+02
1.330000e-06	2.276158e-06	1.648796e-09	1.624739e+01	1.081217e+02
1.340000e-06	2.306023e-06	1.679792e-09	1.646056e+01	1.096479e+02
1.350000e-06	2.335160e-06	1.698618e-09	1.666855e+01	1.111271e+02
1.360000e-06	2.363513e-06	1.709715e-09	1.687094e+01	1.125626e+02
1.370000e-06	2.391134e-06	1.728620e-09	1.706809e+01	1.139572e+02
1.380000e-06	2.418073e-06	1.756073e-09	1.726039e+01	1.153131e+02
1.390000e-06	2.443984e-06	1.783882e-09	1.744534e+01	1.166317e+02
1.400000e-06	2.468671e-06	1.806900e-09	1.762156e+01	1.179132e+02
1.410000e-06	2.492395e-06	1.824699e-09	1.779090e+01	1.191568e+02
1.420000e-06	2.515339e-06	1.840946e-09	1.795468e+01	1.203606e+02
1.430000e-06	2.537438e-06	1.857488e-09	1.811243e+01	1.215217e+02
1.440000e-06	2.558682e-06	1.876049e-09	1.826407e+01	1.226370e+02
1.450000e-06	2.579102e-06	1.895447e-09	1.840982e+01	1.237029e+02
1.460000e-06	2.598803e-06	1.908960e-09	1.855045e+01	1.247161e+02
1.470000e-06	2.617815e-06	1.916822e-09	1.868616e+01	1.256735e+02
1.480000e-06	2.635840e-06	1.930096e-09	1.881482e+01	1.265730e+02
1.490000e-06	2.652817e-06	1.952747e-09	1.893601e+01	1.274132e+02
1.500000e-06	2.668891e-06	1.974037e-09	1.905074e+01	1.281934e+02
1.510000e-06	2.683882e-06	1.983240e-09	1.915775e+01	1.289140e+02
1.520000e-06	2.697765e-06	1.984738e-09	1.925685e+01	1.295757e+02
1.530000e-06	2.710714e-06	1.992715e-09	1.934928e+01	1.301799e+02
1.540000e-06	2.722708e-06	2.009110e-09	1.943489e+01	1.307280e+02
1.550000e-06	2.733630e-06	2.018848e-09	1.951286e+01	1.312216e+02
1.560000e-06	2.743224e-06	2.015051e-09	1.958134e+01	1.316620e+02
1.570000e-06	2.751535e-06	2.012165e-09	1.964067e+01	1.320506e+02
1.580000e-06	2.758919e-06	2.024568e-09	1.969337e+01	1.323884e+02
1.590000e-06	2.765492e-06	2.042600e-09	1.974029e+01	1.326767e+02
1.600000e-06	2.771115e-06	2.047926e-09	1.978042e+01	1.329165e+02
1.610000e-06	2.775705e-06	2.041268e-09	1.981319e+01	1.331090e+02
1.620000e-06	2.779472e-06	2.039653e-09	1.984008e+01	1.332557e+02
1.630000e-06	2.782467e-06	2.051471e-09	1.986146e+01	1.333581e+02
1.640000e-06	2.784326e-06	2.060977e-09	1.987473e+01	1.334179e+02
1.650000e-06	2.784854e-06	2.055447e-09	1.987850e+01	1.334366e+02
1.660000e-06	2.784397e-06	2.045532e-09	1.987523e+01	1.334155e+02
1.670000e-06	2.783148e-06	2.042353e-09	1.986632e+01	1.333552e+02
1.680000e-06	2.781036e-06	2.048088e-09	1.985124e+01	1.332556e+02
1.690000e-06	2.778031e-06	2.053481e-09	1.982980e+01	1.331157e+02
1.700000e-06	2.774163e-06	2.047584e-09	1.980219e+01	1.329335e+02
1.710000e-06	2.769645e-06	2.039613e-09	1.976993e+01	1.327061e+02
1.720000e-06	2.764346e-06	2.054027e-09	1.973211e+01	1.324304e+02
1.730000e-06	2.757825e-06	2.084405e-09	1.968556e+01	1.321031e+02
1.740000e-06	2.750065e-06	1.999617e-09	1.963017e+01	1.317212e+02
1.750000e-06	2.741230e-06	1.860045e-09	1.956711e+01	1.312829e+02
1.760000e-06	2.731064e-06	1.917570e-09	1.949454e+01	1.307881e+02
1.770000e-06	2.719663e-06	2.181515e-09	1.941316e+01	1.302384e+02
1.780000e-06	2.707942e-06	2.173114e-09	1.932949e+01	1.296377e+02
1.790000e-06	2.696032e-06	1.848523e-09	1.924448e+01	1.289922e+02
1.800000e-06	2.682637e-06	1.843458e-09	1.914887e+01	1.283095e+02
1.810000e-06	2.667318e-06	2.006206e-09	1.903952e+01	1.275986e+02
1.820000e-06	2.651185e-06	1.930867e-09	1.892436e+01	1.268690e+02
1.830000e-06	2.634581e-06	2.003618e-09	1.880584e+01	1.261294e+02
1.840000e-06	2.616813e-06	2.081491e-09	1.867901e+01	1.253872e+02
1.850000e-06	2.598041e-06	1.699251e-09	1.854502e+01	1.246471e+02
1.860000e-06	2.578807e-06	1.645307e-09	1.840772e+01	1.239111e+02
1.870000e-06	2.558834e-06	2.134759e-09	1.826515e+01	1.231776e+02
1.880000e-06	2.537910e-06	1.997376e-09	1.811579e+01	1.224415e+02
1.890000e-06	2.515903e-06	1.541552e-09	1.795871e+01	1.216946e+02
1.900000e-06	2.492555e-06	1.859234e-09	1.779205e+01	1.209262e+02
1.910000e-06	2.468244e-06	2.073728e-09	1.761851e+01	1.201244e+02
1.920000e-06	2.443252e-06	1.723735e-09	1.744012e+01	1.192767e+02
1.930000e-06	2.417313e-06	1.720941e-09	1.725496e+01	1.183716e+02
1.940000e-06	2.390558e-06	1.875284e-09	1.706398e+01	1.173996e+02
1.950000e-06	2.363125e-06	1.769914e-09	1.686816e+01	1.163538e+02
1.960000e-06	2.334895e-06	1.752791e-09	1.666665e+01	1.152310e+02
1.970000e-06	2.305934e-06	1.718594e-09	1.645993e+01	1.140313e+02
1.980000e-06	2.275993e-06	1.695970e-09	1.624621e+01	1.127582e+02
1.990000e-06	2.244752e-06	1.798167e-09	1.602321e+01	1.114182e+02
2.000000e-06	2.212577e-06	1.642300e-09	1.579354e+01	1.100195e+02
2.010000e-06	2.179866e-06	1.567536e-09	1.556005e+01	1.085714e+02
2.020000e-06	2.146435e-06	1.737219e-09	1.532141e+01	1.070832e+02
2.030000e-06	2.112215e-06	1.644945e-09	1.507715e+01	1.055634e+02
2.040000e-06	2.077223e-06	1.548010e-09	1.482737e+01	1.040186e+02
2.050000e-06	2.041479e-06	1.585147e-09	1.457223e+01	1.024533e+02
2.060000e-06	2.005287e-06	1.483170e-09	1.431389e+01	1.008697e+02
2.070000e-06	1.968614e-06	1.510539e-09	1.405212e+01	9.926811e+01
2.080000e-06	1.931144e-06	1.582081e-09	1.378465e+01	9.764688e+01
2.090000e-06	1.892717e-06	1.456734e-09	1.351036e+01	9.600341e+01
2.100000e-06	1.853295e-06	1.381988e-09	1.322896e+01	9.433468e+01
2.110000e-06	1.813177e-06	1.380046e-09	1.294259e+01	9.263791e+01
2.120000e-06	1.772606e-06	1.429278e-09	1.265299e+01	9.091114e+01
2.130000e-06	1.731418e-06	1.457340e-09	1.235899e+01	8.915347e+01
2.140000e-06	1.689559e-06	1.297955e-09	1.206020e+01	8.736525e+01
2.150000e-06	1.647175e-06	1.211571e-09	1.175766e+01	8.554787e+01
2.160000e-06	1.604340e-06	1.287842e-09	1.145190e+01	8.370340e+01
2.170000e-06	1.560972e-06	1.315397e-09	1.114233e+01	8.183414e+01
2.180000e-06	1.517041e-06	1.240893e-09	1.082875e+01	7.994206e+01
2.190000e-06	1.472725e-06	1.132371e-09	1.051242e+01	7.802829e+01
2.200000e-06	1.428095e-06	1.111294e-09	1.019385e+01	7.609279e+01
2.210000e-06	1.382919e-06	1.160575e-09	9.871378e+00	7.413411e+01
2.220000e-06	1.337038e-06	1.145568e-09	9.543881e+00	7.214949e+01
2.230000e-06	1.290561e-06	1.075383e-09	9.212120e+00	7.013510e+01
2.240000e-06	1.243659e-06	9.921578e-10	8.877330e+00	6.808652e+01
2.250000e-06	1.196487e-06	9.663848e-10	8.540612e+00	6.599932e+01
2.260000e-06	1.148993e-06	1.000483e-09	8.201599e+00	6.386969e+01
2.270000e-06	1.101061e-06	9.686908e-10	7.859456e+00	6.169501e+01
2.280000e-06	1.052594e-06	8.970927e-10	7.513492e+00	5.947434e+01
2.290000e-06	1.003568e-06	8.411035e-10	7.163541e+00	5.720864e+01
2.300000e-06	9.541214e-07	8.085881e-10	6.810590e+00	5.490081e+01
2.310000e-06	9.043432e-07	8.089517e-10	6.455270e+00	5.255546e+01
2.320000e-06	8.542759e-07	7.953707e-10	6.097885e+00	5.017856e+01
2.330000e-06	8.039193e-07	7.396057e-10	5.738437e+00	4.777679e+01
2.340000e-06	7.532778e-07	6.578957e-10	5.376954e+00	4.535693e+01
2.350000e-06	7.023757e-07	6.097933e-10	5.013611e+00	4.292526e+01
2.360000e-06	6.511705e-07	6.271314e-10	4.648104e+00	4.048697e+01
2.370000e-06	5.997713e-07	6.191551e-10	4.281212e+00	3.804579e+01
2.380000e-06	5.481881e-07	5.381935e-10	3.913008e+00	3.560382e+01
2.390000e-06	4.963453e-07	4.585228e-10	3.542950e+00	3.316154e+01
2.400000e-06	4.443169e-07	4.348478e-10	3.171567e+00	3.071800e+01
2.410000e-06	3.921164e-07	4.530548e-10	2.798956e+00	2.827123e+01
2.420000e-06	3.398073e-07	4.368486e-10	2.425570e+00	2.581864e+01
2.430000e-06	2.874671e-07	3.496643e-10	2.051962e+00	2.335754e+01
2.440000e-06	2.350533e-07	2.605182e-10	1.677828e+00	2.088554e+01
2.450000e-06	1.825482e-07	2.454270e-10	1.303043e+00	1.840088e+01
2.460000e-06	1.299702e-07	2.801763e-10	9.277369e-01	1.590259e+01
2.470000e-06	7.736376e-08	2.475499e-10	5.522283e-01	1.339054e+01
2.480000e-06	2.474079e-08	1.330472e-10	1.766016e-01	1.086533e+01
2.490000e-06	-2.791980e-08	6.347553e-11	-1.992936e-01	8.328054e+00
2.500000e-06	-8.054267e-08	9.037471e-11	-5.749197e-01	5.780027e+00
2.510000e-06	-1.331476e-07	1.070166e-10	-9.504173e-01	3.222510e+00
2.520000e-06	-1.857246e-07	2.933609e-11	-1.325716e+00	6.564694e-01
2.530000e-06	-2.382707e-07	-7.425011e-11	-1.700794e+00	-1.917561e+00
2.540000e-06	-2.907764e-07	-1.054956e-10	-2.075584e+00	-4.499510e+00
2.550000e-06	-3.431594e-07	-8.772459e-11	-2.449497e+00	-7.089675e+00
2.560000e-06	-3.954417e-07	-1.114601e-10	-2.822693e+00	-9.688533e+00
2.570000e-06	-4.476445e-07	-1.922830e-10	-3.195320e+00	-1.229648e+01
2.580000e-06	-4.997260e-07	-2.661142e-10	-3.567081e+00	-1.491353e+01
2.590000e-06	-5.516389e-07	-2.843435e-10	-3.937640e+00	-1.753909e+01
2.600000e-06	-6.033412e-07	-2.819935e-10	-4.306695e+00	-2.017174e+01
2.610000e-06	-6.547050e-07	-3.199956e-10	-4.673333e+00	-2.280917e+01
2.620000e-06	-7.057343e-07	-3.924598e-10	-5.037584e+00	-2.544823e+01
2.630000e-06	-7.564966e-07	-4.488882e-10	-5.399929e+00	-2.808505e+01
2.640000e-06	-8.069654e-07	-4.719380e-10	-5.760180e+00	-3.071536e+01
2.650000e-06	-8.571539e-07	-4.937784e-10	-6.118429e+00	-3.333477e+01
2.660000e-06	-9.069677e-07	-5.389116e-10	-6.474004e+00	-3.593913e+01
2.670000e-06	-9.562722e-07	-5.956863e-10	-6.825943e+00	-3.852489e+01
2.680000e-06	-1.004944e-06	-6.423557e-10	-7.173365e+00	-4.108928e+01
2.690000e-06	-1.052966e-06	-6.734761e-10	-7.516151e+00	-4.363055e+01
2.700000e-06	-1.100513e-06	-6.976434e-10	-7.855542e+00	-4.614794e+01
2.710000e-06	-1.147712e-06	-7.286680e-10	-8.192455e+00	-4.864164e+01
2.720000e-06	-1.194606e-06	-7.733228e-10	-8.527186e+00	-5.111261e+01
2.730000e-06	-1.241211e-06	-8.220052e-10	-8.859861e+00	-5.356232e+01
2.740000e-06	-1.287535e-06	-8.602904e-10	-9.190525e+00	-5.599246e+01
2.750000e-06	-1.333456e-06	-8.864556e-10	-9.518310e+00	-5.840466e+01
2.760000e-06	-1.378813e-06	-9.180591e-10	-9.842073e+00	-6.080026e+01
2.770000e-06	-1.423626e-06	-9.662344e-10	-1.016195e+01	-6.318012e+01
2.780000e-06	-1.468103e-06	-1.017446e-09	-1.047943e+01	-6.554449e+01
2.790000e-06	-1.512339e-06	-1.048563e-09	-1.079519e+01	-6.789299e+01
2.800000e-06	-1.556196e-06	-1.062778e-09	-1.110825e+01	-7.022466e+01
2.810000e-06	-1.599445e-06	-1.088627e-09	-1.141696e+01	-7.253799e+01
2.820000e-06	-1.642046e-06	-1.138936e-09	-1.172105e+01	-7.483108e+01
2.830000e-06	-1.684190e-06	-1.189892e-09	-1.202187e+01	-7.710166e+01
2.840000e-06	-1.725796e-06	-1.215709e-09	-1.231886e+01	-7.934725e+01
2.850000e-06	-1.766749e-06	-1.230803e-09	-1.261119e+01	-8.156516e+01
2.860000e-06	-1.807210e-06	-1.265997e-09	-1.290000e+01	-8.375253e+01
2.870000e-06	-1.847223e-06	-1.319767e-09	-1.318562e+01	-8.590636e+01
2.880000e-06	-1.886595e-06	-1.359827e-09	-1.346666e+01	-8.802349e+01
2.890000e-06	-1.924991e-06	-1.374288e-09	-1.374073e+01	-9.010069e+01
2.900000e-06	-1.962284e-06	-1.390463e-09	-1.400693e+01	-9.213463e+01
2.910000e-06	-1.998813e-06	-1.428545e-09	-1.426767e+01	-9.412206e+01
2.920000e-06	-2.034855e-06	-1.472190e-09	-1.452495e+01	-9.605992e+01
2.930000e-06	-2.070271e-06	-1.499160e-09	-1.477775e+01	-9.794556e+01
2.940000e-06	-2.104898e-06	-1.515291e-09	-1.502492e+01	-9.977687e+01
