# Temperatura_=_20.0
# Concentracion g/m^3_=_12600.0
# C_Vs_to_Am_M_A/Vsm_=_65563218390.804596
# pendiente_HvsI_1/m_=_3716.3
# ordenada_HvsI_A/m_=_1297.0
# frecuencia_Hz_=_301862.76853503444

Tiempo_(s)	Campo_(V.s)	Magnetizacion_(V.s)	Campo_(kA/m)	Magnetizacion_(A/m)
0.000000e+00	-2.777468e-06	-2.710283e-10	-1.978827e+01	-1.611883e+01
1.000000e-08	-2.777198e-06	-2.754489e-10	-1.978634e+01	-1.611609e+01
2.000000e-08	-2.775843e-06	-2.706198e-10	-1.977669e+01	-1.609868e+01
3.000000e-08	-2.773302e-06	-2.647539e-10	-1.975858e+01	-1.607094e+01
4.000000e-08	-2.769885e-06	-2.678102e-10	-1.973424e+01	-1.603826e+01
5.000000e-08	-2.765655e-06	-2.739144e-10	-1.970410e+01	-1.600644e+01
6.000000e-08	-2.760537e-06	-2.684679e-10	-1.966764e+01	-1.598106e+01
7.000000e-08	-2.754555e-06	-2.400277e-10	-1.962502e+01	-1.596692e+01
8.000000e-08	-2.747637e-06	-2.442090e-10	-1.957573e+01	-1.596756e+01
9.000000e-08	-2.739717e-06	-3.293311e-10	-1.951930e+01	-1.598500e+01
1.000000e-07	-2.730390e-06	-3.688589e-10	-1.945286e+01	-1.601968e+01
1.100000e-07	-2.719603e-06	-2.029855e-10	-1.937600e+01	-1.607061e+01
1.200000e-07	-2.707957e-06	-8.145024e-11	-1.929303e+01	-1.613569e+01
1.300000e-07	-2.695506e-06	-2.706394e-10	-1.920432e+01	-1.621219e+01
1.400000e-07	-2.682073e-06	-4.498593e-10	-1.910861e+01	-1.629720e+01
1.500000e-07	-2.667806e-06	-2.196115e-10	-1.900697e+01	-1.638806e+01
1.600000e-07	-2.652531e-06	-1.974710e-10	-1.889814e+01	-1.648272e+01
1.700000e-07	-2.635867e-06	-2.731313e-10	-1.877942e+01	-1.657989e+01
1.800000e-07	-2.618033e-06	-6.882146e-11	-1.865236e+01	-1.667898e+01
1.900000e-07	-2.599610e-06	-2.452573e-10	-1.852110e+01	-1.677991e+01
2.000000e-07	-2.580565e-06	-5.010075e-10	-1.838541e+01	-1.688274e+01
2.100000e-07	-2.560485e-06	-1.319166e-10	-1.824235e+01	-1.698723e+01
2.200000e-07	-2.539498e-06	8.596266e-11	-1.809283e+01	-1.709242e+01
2.300000e-07	-2.517856e-06	-4.042534e-10	-1.793864e+01	-1.719622e+01
2.400000e-07	-2.495333e-06	-5.102329e-10	-1.777817e+01	-1.729524e+01
2.500000e-07	-2.471918e-06	-1.250665e-10	-1.761135e+01	-1.738475e+01
2.600000e-07	-2.447699e-06	-1.232993e-10	-1.743880e+01	-1.745893e+01
2.700000e-07	-2.422410e-06	-3.345346e-10	-1.725863e+01	-1.751128e+01
2.800000e-07	-2.396019e-06	-3.276751e-10	-1.707060e+01	-1.753522e+01
2.900000e-07	-2.368702e-06	-2.980068e-10	-1.687598e+01	-1.752475e+01
3.000000e-07	-2.340483e-06	-1.887578e-10	-1.667494e+01	-1.747520e+01
3.100000e-07	-2.311451e-06	-1.894354e-10	-1.646810e+01	-1.738376e+01
3.200000e-07	-2.281738e-06	-3.241018e-10	-1.625640e+01	-1.724998e+01
3.300000e-07	-2.251257e-06	-2.560759e-10	-1.603924e+01	-1.707590e+01
3.400000e-07	-2.220020e-06	-2.146456e-10	-1.581669e+01	-1.686599e+01
3.500000e-07	-2.188224e-06	-2.854923e-10	-1.559015e+01	-1.662680e+01
3.600000e-07	-2.155691e-06	-2.143227e-10	-1.535837e+01	-1.636637e+01
3.700000e-07	-2.122077e-06	-1.999868e-10	-1.511889e+01	-1.609348e+01
3.800000e-07	-2.087436e-06	-3.008919e-10	-1.487208e+01	-1.581685e+01
3.900000e-07	-2.052075e-06	-1.995211e-10	-1.462015e+01	-1.554433e+01
4.000000e-07	-2.016151e-06	-1.784914e-10	-1.436421e+01	-1.528224e+01
4.100000e-07	-1.979556e-06	-2.799300e-10	-1.410348e+01	-1.503490e+01
4.200000e-07	-1.942258e-06	-2.196540e-10	-1.383775e+01	-1.480440e+01
4.300000e-07	-1.904233e-06	-1.447306e-10	-1.356684e+01	-1.459064e+01
4.400000e-07	-1.865435e-06	-2.107751e-10	-1.329042e+01	-1.439165e+01
4.500000e-07	-1.826087e-06	-2.579631e-10	-1.301009e+01	-1.420400e+01
4.600000e-07	-1.786441e-06	-2.170301e-10	-1.272763e+01	-1.402350e+01
4.700000e-07	-1.746332e-06	-1.627153e-10	-1.244186e+01	-1.384575e+01
4.800000e-07	-1.705399e-06	-1.591730e-10	-1.215023e+01	-1.366677e+01
4.900000e-07	-1.663485e-06	-2.237238e-10	-1.185161e+01	-1.348345e+01
5.000000e-07	-1.620647e-06	-2.310848e-10	-1.154641e+01	-1.329381e+01
5.100000e-07	-1.577169e-06	-1.755740e-10	-1.123665e+01	-1.309710e+01
5.200000e-07	-1.533317e-06	-1.437532e-10	-1.092422e+01	-1.289364e+01
5.300000e-07	-1.489066e-06	-1.695293e-10	-1.060896e+01	-1.268455e+01
5.400000e-07	-1.444263e-06	-2.054337e-10	-1.028975e+01	-1.247135e+01
5.500000e-07	-1.398867e-06	-2.050213e-10	-9.966323e+00	-1.225549e+01
5.600000e-07	-1.352970e-06	-1.638616e-10	-9.639330e+00	-1.203802e+01
5.700000e-07	-1.306579e-06	-1.273050e-10	-9.308815e+00	-1.181921e+01
5.800000e-07	-1.259731e-06	-1.593938e-10	-8.975041e+00	-1.159844e+01
5.900000e-07	-1.212482e-06	-1.945422e-10	-8.638414e+00	-1.137419e+01
6.000000e-07	-1.164897e-06	-1.707585e-10	-8.299389e+00	-1.114419e+01
6.100000e-07	-1.117014e-06	-1.320671e-10	-7.958245e+00	-1.090576e+01
6.200000e-07	-1.068657e-06	-1.286645e-10	-7.613724e+00	-1.065617e+01
6.300000e-07	-1.019640e-06	-1.381288e-10	-7.264493e+00	-1.039301e+01
6.400000e-07	-9.699608e-07	-1.539674e-10	-6.910553e+00	-1.011465e+01
6.500000e-07	-9.197351e-07	-1.675477e-10	-6.552717e+00	-9.820419e+00
6.600000e-07	-8.689846e-07	-1.410688e-10	-6.191141e+00	-9.510809e+00
6.700000e-07	-8.177643e-07	-1.002215e-10	-5.826219e+00	-9.187457e+00
6.800000e-07	-7.662700e-07	-1.040000e-10	-5.459344e+00	-8.852996e+00
6.900000e-07	-7.146000e-07	-1.472650e-10	-5.091217e+00	-8.510778e+00
7.000000e-07	-6.627170e-07	-1.463056e-10	-4.721573e+00	-8.164528e+00
7.100000e-07	-6.106315e-07	-9.346394e-11	-4.350487e+00	-7.817955e+00
7.200000e-07	-5.583255e-07	-6.099063e-11	-3.977829e+00	-7.474389e+00
7.300000e-07	-5.057834e-07	-8.806035e-11	-3.603489e+00	-7.136488e+00
7.400000e-07	-4.530496e-07	-1.324378e-10	-3.227783e+00	-6.806038e+00
7.500000e-07	-4.001290e-07	-1.252982e-10	-2.850747e+00	-6.483877e+00
7.600000e-07	-3.469915e-07	-6.662783e-11	-2.472165e+00	-6.169930e+00
7.700000e-07	-2.936998e-07	-3.193617e-11	-2.092485e+00	-5.863343e+00
7.800000e-07	-2.403725e-07	-7.699994e-11	-1.712550e+00	-5.562686e+00
7.900000e-07	-1.870247e-07	-1.260518e-10	-1.332471e+00	-5.266182e+00
8.000000e-07	-1.336230e-07	-8.901606e-11	-9.520062e-01	-4.971931e+00
8.100000e-07	-8.013431e-08	-1.235630e-11	-5.709225e-01	-4.678094e+00
8.200000e-07	-2.657068e-08	-1.083091e-11	-1.893047e-01	-4.383017e+00
8.300000e-07	2.701338e-08	-7.924122e-11	1.924587e-01	-4.085285e+00
8.400000e-07	8.055052e-08	-1.013562e-10	5.738878e-01	-3.783713e+00
8.500000e-07	1.340461e-07	-4.109439e-11	9.550206e-01	-3.477298e+00
8.600000e-07	1.875280e-07	9.252877e-12	1.336056e+00	-3.165140e+00
8.700000e-07	2.409500e-07	-2.386745e-11	1.716665e+00	-2.846380e+00
8.800000e-07	2.942933e-07	-7.568147e-11	2.096713e+00	-2.520159e+00
8.900000e-07	3.476003e-07	-5.942759e-11	2.476502e+00	-2.185634e+00
9.000000e-07	4.008292e-07	3.741188e-12	2.855735e+00	-1.842037e+00
9.100000e-07	4.538787e-07	2.519924e-11	3.233690e+00	-1.488785e+00
9.200000e-07	5.066763e-07	-1.235729e-11	3.609851e+00	-1.125611e+00
9.300000e-07	5.592219e-07	-3.869865e-11	3.984215e+00	-7.527086e-01
9.400000e-07	6.115682e-07	-9.648545e-12	4.357160e+00	-3.708401e-01
9.500000e-07	6.637202e-07	3.430955e-11	4.728721e+00	1.860251e-02
9.600000e-07	7.156081e-07	3.377081e-11	5.098400e+00	4.136090e-01
9.700000e-07	7.671966e-07	4.095433e-12	5.465945e+00	8.116426e-01
9.800000e-07	8.184833e-07	-1.441816e-12	5.831341e+00	1.209808e+00
9.900000e-07	8.694114e-07	2.887473e-11	6.194182e+00	1.605077e+00
1.000000e-06	9.199226e-07	5.408600e-11	6.554053e+00	1.994551e+00
1.010000e-06	9.698837e-07	5.002191e-11	6.910004e+00	2.375715e+00
1.020000e-06	1.019178e-06	3.648270e-11	7.261204e+00	2.746666e+00
1.030000e-06	1.067861e-06	3.806813e-11	7.608051e+00	3.106266e+00
1.040000e-06	1.116073e-06	5.462558e-11	7.951542e+00	3.454218e+00
1.050000e-06	1.163915e-06	6.869531e-11	8.292392e+00	3.791038e+00
1.060000e-06	1.211460e-06	7.162297e-11	8.631131e+00	4.117950e+00
1.070000e-06	1.258650e-06	6.473491e-11	8.967337e+00	4.436694e+00
1.080000e-06	1.305331e-06	6.127745e-11	9.299922e+00	4.749301e+00
1.090000e-06	1.351497e-06	7.116195e-11	9.628836e+00	5.057854e+00
1.100000e-06	1.397206e-06	9.014547e-11	9.954489e+00	5.364264e+00
1.110000e-06	1.442415e-06	9.846172e-11	1.027658e+01	5.670105e+00
1.120000e-06	1.487059e-06	9.077559e-11	1.059466e+01	5.976507e+00
1.130000e-06	1.531294e-06	8.298974e-11	1.090981e+01	6.284125e+00
1.140000e-06	1.575192e-06	9.300009e-11	1.122257e+01	6.593176e+00
1.150000e-06	1.618745e-06	1.144092e-10	1.153286e+01	6.903524e+00
1.160000e-06	1.661857e-06	1.224505e-10	1.184001e+01	7.214787e+00
1.170000e-06	1.704187e-06	1.093806e-10	1.214160e+01	7.526449e+00
1.180000e-06	1.745509e-06	1.006764e-10	1.243600e+01	7.837936e+00
1.190000e-06	1.785921e-06	1.201882e-10	1.272392e+01	8.148666e+00
1.200000e-06	1.825755e-06	1.469356e-10	1.300772e+01	8.458031e+00
1.210000e-06	1.865139e-06	1.475353e-10	1.328831e+01	8.765354e+00
1.220000e-06	1.903935e-06	1.289156e-10	1.356472e+01	9.069810e+00
1.230000e-06	1.942069e-06	1.279123e-10	1.383640e+01	9.370349e+00
1.240000e-06	1.979518e-06	1.503488e-10	1.410321e+01	9.665649e+00
1.250000e-06	2.016222e-06	1.636415e-10	1.436471e+01	9.954111e+00
1.260000e-06	2.052312e-06	1.539088e-10	1.462184e+01	1.023393e+01
1.270000e-06	2.087954e-06	1.426144e-10	1.487577e+01	1.050325e+01
1.280000e-06	2.122899e-06	1.495097e-10	1.512474e+01	1.076032e+01
1.290000e-06	2.156810e-06	1.685613e-10	1.536634e+01	1.100382e+01
1.300000e-06	2.189697e-06	1.774441e-10	1.560065e+01	1.123301e+01
1.310000e-06	2.221763e-06	1.716892e-10	1.582910e+01	1.144803e+01
1.320000e-06	2.253121e-06	1.667847e-10	1.605252e+01	1.164996e+01
1.330000e-06	2.283692e-06	1.750055e-10	1.627032e+01	1.184088e+01
1.340000e-06	2.313495e-06	1.854805e-10	1.648266e+01	1.202375e+01
1.350000e-06	2.342523e-06	1.853337e-10	1.668947e+01	1.220215e+01
1.360000e-06	2.370810e-06	1.793160e-10	1.689100e+01	1.237993e+01
1.370000e-06	2.398513e-06	1.797324e-10	1.708837e+01	1.256078e+01
1.380000e-06	2.425375e-06	1.857265e-10	1.727975e+01	1.274775e+01
1.390000e-06	2.451025e-06	1.921592e-10	1.746250e+01	1.294287e+01
1.400000e-06	2.475597e-06	1.980210e-10	1.763757e+01	1.314680e+01
1.410000e-06	2.499361e-06	2.014095e-10	1.780687e+01	1.335870e+01
1.420000e-06	2.522281e-06	2.004822e-10	1.797016e+01	1.357620e+01
1.430000e-06	2.544351e-06	1.987166e-10	1.812740e+01	1.379568e+01
1.440000e-06	2.565610e-06	2.042622e-10	1.827887e+01	1.401257e+01
1.450000e-06	2.586041e-06	2.145031e-10	1.842443e+01	1.422196e+01
1.460000e-06	2.605758e-06	2.165009e-10	1.856490e+01	1.441911e+01
1.470000e-06	2.624696e-06	2.095957e-10	1.869983e+01	1.460005e+01
1.480000e-06	2.642608e-06	2.078665e-10	1.882745e+01	1.476207e+01
1.490000e-06	2.659552e-06	2.184844e-10	1.894816e+01	1.490404e+01
1.500000e-06	2.675565e-06	2.311720e-10	1.906225e+01	1.502657e+01
1.510000e-06	2.690465e-06	2.302037e-10	1.916841e+01	1.513185e+01
1.520000e-06	2.704324e-06	2.186573e-10	1.926714e+01	1.522339e+01
1.530000e-06	2.717235e-06	2.159875e-10	1.935913e+01	1.530552e+01
1.540000e-06	2.729121e-06	2.283737e-10	1.944381e+01	1.538275e+01
1.550000e-06	2.739860e-06	2.358966e-10	1.952033e+01	1.545921e+01
1.560000e-06	2.749314e-06	2.264238e-10	1.958768e+01	1.553801e+01
1.570000e-06	2.757623e-06	2.159129e-10	1.964688e+01	1.562083e+01
1.580000e-06	2.765006e-06	2.221601e-10	1.969948e+01	1.570769e+01
1.590000e-06	2.771450e-06	2.370772e-10	1.974539e+01	1.579698e+01
1.600000e-06	2.776900e-06	2.410205e-10	1.978422e+01	1.588562e+01
1.610000e-06	2.781433e-06	2.324503e-10	1.981651e+01	1.596958e+01
1.620000e-06	2.785175e-06	2.279555e-10	1.984317e+01	1.604446e+01
1.630000e-06	2.788024e-06	2.352823e-10	1.986347e+01	1.610610e+01
1.640000e-06	2.789665e-06	2.433587e-10	1.987516e+01	1.615124e+01
1.650000e-06	2.790133e-06	2.413950e-10	1.987850e+01	1.617803e+01
1.660000e-06	2.789723e-06	2.317671e-10	1.987558e+01	1.618638e+01
1.670000e-06	2.788442e-06	2.257385e-10	1.986645e+01	1.617803e+01
1.680000e-06	2.786229e-06	2.325972e-10	1.985068e+01	1.615639e+01
1.690000e-06	2.783111e-06	2.414183e-10	1.982847e+01	1.612628e+01
1.700000e-06	2.779246e-06	2.406473e-10	1.980093e+01	1.609327e+01
1.710000e-06	2.774714e-06	2.404866e-10	1.976864e+01	1.606317e+01
1.720000e-06	2.769197e-06	2.644417e-10	1.972933e+01	1.604135e+01
1.730000e-06	2.762428e-06	2.781566e-10	1.968111e+01	1.603219e+01
1.740000e-06	2.754591e-06	1.800574e-10	1.962527e+01	1.603872e+01
1.750000e-06	2.745636e-06	1.231151e-10	1.956147e+01	1.606238e+01
1.760000e-06	2.735215e-06	2.786482e-10	1.948723e+01	1.610307e+01
1.770000e-06	2.723804e-06	4.053984e-10	1.940593e+01	1.615937e+01
1.780000e-06	2.712240e-06	2.610726e-10	1.932354e+01	1.622890e+01
1.790000e-06	2.700059e-06	5.758223e-11	1.923676e+01	1.630880e+01
1.800000e-06	2.686135e-06	2.776726e-10	1.913756e+01	1.639621e+01
1.810000e-06	2.670729e-06	3.270383e-10	1.902779e+01	1.648867e+01
1.820000e-06	2.654754e-06	2.311653e-10	1.891398e+01	1.658437e+01
1.830000e-06	2.637980e-06	4.506149e-10	1.879447e+01	1.668229e+01
1.840000e-06	2.619957e-06	3.271437e-10	1.866606e+01	1.678207e+01
1.850000e-06	2.601115e-06	9.964981e-12	1.853183e+01	1.688371e+01
1.860000e-06	2.581731e-06	3.180801e-10	1.839372e+01	1.698722e+01
1.870000e-06	2.561547e-06	6.155870e-10	1.824992e+01	1.709217e+01
1.880000e-06	2.540424e-06	1.288232e-10	1.809943e+01	1.719720e+01
1.890000e-06	2.518088e-06	-9.462650e-12	1.794029e+01	1.729978e+01
1.900000e-06	2.494545e-06	4.905281e-10	1.777256e+01	1.739604e+01
1.910000e-06	2.470221e-06	3.932960e-10	1.759926e+01	1.748083e+01
1.920000e-06	2.445026e-06	5.768653e-11	1.741976e+01	1.754802e+01
1.930000e-06	2.418793e-06	2.368612e-10	1.723286e+01	1.759099e+01
1.940000e-06	2.391836e-06	3.250265e-10	1.704080e+01	1.760331e+01
1.950000e-06	2.364209e-06	3.159099e-10	1.684397e+01	1.757937e+01
1.960000e-06	2.335773e-06	2.957257e-10	1.664137e+01	1.751510e+01
1.970000e-06	2.306540e-06	1.513733e-10	1.643311e+01	1.740850e+01
1.980000e-06	2.276249e-06	2.663719e-10	1.621729e+01	1.726000e+01
1.990000e-06	2.244797e-06	3.610834e-10	1.599321e+01	1.707252e+01
2.000000e-06	2.212630e-06	1.681960e-10	1.576404e+01	1.685135e+01
2.010000e-06	2.179800e-06	2.635969e-10	1.553014e+01	1.660363e+01
2.020000e-06	2.146163e-06	3.328994e-10	1.529048e+01	1.633776e+01
2.030000e-06	2.111803e-06	1.547586e-10	1.504569e+01	1.606260e+01
2.040000e-06	2.076662e-06	2.777455e-10	1.479532e+01	1.578663e+01
2.050000e-06	2.040887e-06	3.123215e-10	1.454044e+01	1.551725e+01
2.060000e-06	2.004697e-06	1.430922e-10	1.428261e+01	1.526008e+01
2.070000e-06	1.967827e-06	2.327461e-10	1.401992e+01	1.501866e+01
2.080000e-06	1.929909e-06	2.874481e-10	1.374977e+01	1.479429e+01
2.090000e-06	1.890985e-06	2.194987e-10	1.347245e+01	1.458616e+01
2.100000e-06	1.851335e-06	2.078186e-10	1.318997e+01	1.439170e+01
2.110000e-06	1.811237e-06	1.760032e-10	1.290429e+01	1.420715e+01
2.120000e-06	1.770622e-06	2.432953e-10	1.261492e+01	1.402816e+01
2.130000e-06	1.729338e-06	2.773152e-10	1.232079e+01	1.385042e+01
2.140000e-06	1.687469e-06	1.744577e-10	1.202249e+01	1.367023e+01
2.150000e-06	1.645043e-06	1.838925e-10	1.172022e+01	1.348485e+01
2.160000e-06	1.602004e-06	2.186226e-10	1.141359e+01	1.329274e+01
2.170000e-06	1.558400e-06	2.111110e-10	1.110293e+01	1.309357e+01
2.180000e-06	1.514405e-06	2.099033e-10	1.078948e+01	1.288798e+01
2.190000e-06	1.470111e-06	1.799402e-10	1.047391e+01	1.267727e+01
2.200000e-06	1.425402e-06	1.769327e-10	1.015537e+01	1.246300e+01
2.210000e-06	1.380082e-06	1.899925e-10	9.832491e+00	1.224652e+01
2.220000e-06	1.334085e-06	2.043373e-10	9.504785e+00	1.202862e+01
2.230000e-06	1.287533e-06	2.028102e-10	9.173118e+00	1.180927e+01
2.240000e-06	1.240621e-06	1.620933e-10	8.838889e+00	1.158750e+01
2.250000e-06	1.193425e-06	1.608772e-10	8.502641e+00	1.136152e+01
2.260000e-06	1.145777e-06	1.816390e-10	8.163169e+00	1.112887e+01
2.270000e-06	1.097646e-06	1.759805e-10	7.820253e+00	1.088679e+01
2.280000e-06	1.048992e-06	1.874367e-10	7.473619e+00	1.063263e+01
2.290000e-06	9.997740e-07	1.595956e-10	7.122960e+00	1.036422e+01
2.300000e-06	9.501520e-07	1.177724e-10	6.769424e+00	1.008025e+01
2.310000e-06	9.002203e-07	1.417015e-10	6.413682e+00	9.780438e+00
2.320000e-06	8.500730e-07	1.860068e-10	6.056404e+00	9.465711e+00
2.330000e-06	7.996585e-07	1.815994e-10	5.697223e+00	9.138080e+00
2.340000e-06	7.488669e-07	1.096844e-10	5.335354e+00	8.800471e+00
2.350000e-06	6.977309e-07	8.031967e-11	4.971033e+00	8.456413e+00
2.360000e-06	6.463564e-07	1.401975e-10	4.605011e+00	8.109669e+00
2.370000e-06	5.947824e-07	1.740151e-10	4.237568e+00	7.763852e+00
2.380000e-06	5.430246e-07	1.308894e-10	3.868817e+00	7.422081e+00
2.390000e-06	4.911476e-07	6.563252e-11	3.499216e+00	7.086720e+00
2.400000e-06	4.391219e-07	6.130651e-11	3.128555e+00	6.759218e+00
2.410000e-06	3.869231e-07	1.283775e-10	2.756661e+00	6.440078e+00
2.420000e-06	3.345873e-07	1.577710e-10	2.383790e+00	6.128927e+00
2.430000e-06	2.821605e-07	9.211711e-11	2.010272e+00	5.824680e+00
2.440000e-06	2.296769e-07	2.260748e-11	1.636349e+00	5.525755e+00
2.450000e-06	1.770182e-07	5.275734e-11	1.261179e+00	5.230309e+00
2.460000e-06	1.242476e-07	1.358875e-10	8.852109e-01	4.936444e+00
2.470000e-06	7.151915e-08	1.271545e-10	5.095432e-01	4.642377e+00
2.480000e-06	1.875726e-08	3.474104e-11	1.336374e-01	4.346537e+00
2.490000e-06	-3.409741e-08	4.320113e-12	-2.429294e-01	4.047593e+00
2.500000e-06	-8.695425e-08	6.944444e-11	-6.195116e-01	3.744435e+00
2.510000e-06	-1.397210e-07	1.175701e-10	-9.954521e-01	3.436103e+00
2.520000e-06	-1.923973e-07	7.208024e-11	-1.370748e+00	3.121720e+00
2.530000e-06	-2.450008e-07	5.649353e-12	-1.745525e+00	2.800428e+00
2.540000e-06	-2.975391e-07	1.022512e-11	-2.119838e+00	2.471371e+00
2.550000e-06	-3.499916e-07	6.014945e-11	-2.493539e+00	2.133723e+00
2.560000e-06	-4.023521e-07	7.222833e-11	-2.866585e+00	1.786766e+00
2.570000e-06	-4.545810e-07	2.821264e-11	-3.238694e+00	1.430014e+00
2.580000e-06	-5.066401e-07	-1.266338e-11	-3.609593e+00	1.063351e+00
2.590000e-06	-5.585529e-07	-2.639522e-12	-3.979449e+00	6.871614e-01
2.600000e-06	-6.102899e-07	2.870826e-11	-4.348052e+00	3.024296e-01
2.610000e-06	-6.617500e-07	2.647830e-11	-4.714684e+00	-8.922624e-02
2.620000e-06	-7.128753e-07	-6.648013e-12	-5.078930e+00	-4.855932e-01
2.630000e-06	-7.637005e-07	-2.930502e-11	-5.441037e+00	-8.839836e-01
2.640000e-06	-8.142338e-07	-2.331629e-11	-5.801065e+00	-1.281426e+00
2.650000e-06	-8.644479e-07	-1.118903e-11	-6.158819e+00	-1.674909e+00
2.660000e-06	-9.143382e-07	-1.743559e-11	-6.514266e+00	-2.061641e+00
2.670000e-06	-9.637842e-07	-3.783089e-11	-6.866547e+00	-2.439305e+00
2.680000e-06	-1.012726e-06	-5.468776e-11	-7.215239e+00	-2.806255e+00
2.690000e-06	-1.061068e-06	-5.785503e-11	-7.559655e+00	-3.161650e+00
2.700000e-06	-1.108785e-06	-4.941046e-11	-7.899612e+00	-3.505492e+00
2.710000e-06	-1.156015e-06	-4.413484e-11	-8.236106e+00	-3.838568e+00
2.720000e-06	-1.202850e-06	-5.817224e-11	-8.569791e+00	-4.162308e+00
2.730000e-06	-1.249448e-06	-8.172226e-11	-8.901778e+00	-4.478584e+00
2.740000e-06	-1.295766e-06	-8.847377e-11	-9.231772e+00	-4.789474e+00
2.750000e-06	-1.341619e-06	-7.637806e-11	-9.558460e+00	-5.097022e+00
2.760000e-06	-1.386971e-06	-7.223676e-11	-9.881573e+00	-5.403035e+00
2.770000e-06	-1.431815e-06	-9.067052e-11	-1.020107e+01	-5.708937e+00
2.780000e-06	-1.476233e-06	-1.133127e-10	-1.051753e+01	-6.015687e+00
2.790000e-06	-1.520339e-06	-1.133828e-10	-1.083176e+01	-6.323777e+00
2.800000e-06	-1.564087e-06	-9.564656e-11	-1.114345e+01	-6.633288e+00
2.810000e-06	-1.607307e-06	-9.215942e-11	-1.145137e+01	-6.943981e+00
2.820000e-06	-1.649946e-06	-1.150295e-10	-1.175515e+01	-7.255415e+00
2.830000e-06	-1.692102e-06	-1.379629e-10	-1.205549e+01	-7.567047e+00
2.840000e-06	-1.733629e-06	-1.338540e-10	-1.235136e+01	-7.878297e+00
2.850000e-06	-1.774510e-06	-1.196779e-10	-1.264262e+01	-8.188576e+00
2.860000e-06	-1.814961e-06	-1.278051e-10	-1.293082e+01	-8.497261e+00
2.870000e-06	-1.855011e-06	-1.528702e-10	-1.321616e+01	-8.803630e+00
2.880000e-06	-1.894430e-06	-1.623389e-10	-1.349700e+01	-9.106786e+00
2.890000e-06	-1.932900e-06	-1.508509e-10	-1.377108e+01	-9.405586e+00
2.900000e-06	-1.970347e-06	-1.460121e-10	-1.403787e+01	-9.698605e+00
2.910000e-06	-2.006978e-06	-1.593547e-10	-1.429885e+01	-9.984161e+00
2.920000e-06	-2.043008e-06	-1.745788e-10	-1.455555e+01	-1.026041e+01
2.930000e-06	-2.078339e-06	-1.779324e-10	-1.480727e+01	-1.052550e+01
2.940000e-06	-2.112886e-06	-1.749270e-10	-1.505340e+01	-1.077782e+01
