# Temperatura_=_20.0
# Concentracion g/m^3_=_12600.0
# C_Vs_to_Am_M_A/Vsm_=_65563218390.804596
# pendiente_HvsI_1/m_=_3716.3
# ordenada_HvsI_A/m_=_1297.0
# frecuencia_Hz_=_301864.4619063593

Tiempo_(s)	Campo_(V.s)	Magnetizacion_(V.s)	Campo_(kA/m)	Magnetizacion_(A/m)
0.000000e+00	-2.773886e-06	-1.981516e-09	-1.978949e+01	-1.309762e+02
1.000000e-08	-2.773747e-06	-1.983200e-09	-1.978850e+01	-1.309092e+02
2.000000e-08	-2.772470e-06	-1.981027e-09	-1.977939e+01	-1.308149e+02
3.000000e-08	-2.769925e-06	-1.978186e-09	-1.976124e+01	-1.306938e+02
4.000000e-08	-2.766447e-06	-1.980230e-09	-1.973642e+01	-1.305433e+02
5.000000e-08	-2.762230e-06	-1.983201e-09	-1.970634e+01	-1.303590e+02
6.000000e-08	-2.757184e-06	-1.974475e-09	-1.967033e+01	-1.301346e+02
7.000000e-08	-2.751265e-06	-1.941713e-09	-1.962811e+01	-1.298630e+02
8.000000e-08	-2.744458e-06	-1.928570e-09	-1.957955e+01	-1.295371e+02
9.000000e-08	-2.736667e-06	-2.008489e-09	-1.952396e+01	-1.291516e+02
1.000000e-07	-2.727556e-06	-2.090371e-09	-1.945896e+01	-1.287035e+02
1.100000e-07	-2.717026e-06	-1.964756e-09	-1.938384e+01	-1.281932e+02
1.200000e-07	-2.705497e-06	-1.748987e-09	-1.930159e+01	-1.276247e+02
1.300000e-07	-2.693124e-06	-1.817213e-09	-1.921332e+01	-1.270059e+02
1.400000e-07	-2.679798e-06	-2.079496e-09	-1.911825e+01	-1.263477e+02
1.500000e-07	-2.665582e-06	-1.983387e-09	-1.901683e+01	-1.256634e+02
1.600000e-07	-2.650430e-06	-1.864706e-09	-1.890873e+01	-1.249667e+02
1.700000e-07	-2.633966e-06	-1.907730e-09	-1.879127e+01	-1.242707e+02
1.800000e-07	-2.616267e-06	-1.766606e-09	-1.866501e+01	-1.235862e+02
1.900000e-07	-2.597885e-06	-1.818092e-09	-1.853386e+01	-1.229201e+02
2.000000e-07	-2.578866e-06	-2.101070e-09	-1.839818e+01	-1.222747e+02
2.100000e-07	-2.558878e-06	-1.935562e-09	-1.825558e+01	-1.216469e+02
2.200000e-07	-2.537963e-06	-1.570510e-09	-1.810636e+01	-1.210286e+02
2.300000e-07	-2.516382e-06	-1.813675e-09	-1.795240e+01	-1.204072e+02
2.400000e-07	-2.494021e-06	-2.084918e-09	-1.779288e+01	-1.197668e+02
2.500000e-07	-2.470747e-06	-1.826200e-09	-1.762683e+01	-1.190898e+02
2.600000e-07	-2.446552e-06	-1.665656e-09	-1.745422e+01	-1.183586e+02
2.700000e-07	-2.421311e-06	-1.785524e-09	-1.727415e+01	-1.175574e+02
2.800000e-07	-2.395003e-06	-1.794608e-09	-1.708646e+01	-1.166738e+02
2.900000e-07	-2.367770e-06	-1.804955e-09	-1.689217e+01	-1.156994e+02
3.000000e-07	-2.339684e-06	-1.749429e-09	-1.669181e+01	-1.146311e+02
3.100000e-07	-2.310813e-06	-1.651866e-09	-1.648583e+01	-1.134706e+02
3.200000e-07	-2.281237e-06	-1.707905e-09	-1.627483e+01	-1.122240e+02
3.300000e-07	-2.250854e-06	-1.711959e-09	-1.605807e+01	-1.109009e+02
3.400000e-07	-2.219699e-06	-1.644273e-09	-1.583581e+01	-1.095128e+02
3.500000e-07	-2.188015e-06	-1.678720e-09	-1.560977e+01	-1.080723e+02
3.600000e-07	-2.155631e-06	-1.646748e-09	-1.537873e+01	-1.065909e+02
3.700000e-07	-2.122158e-06	-1.542092e-09	-1.513993e+01	-1.050786e+02
3.800000e-07	-2.087597e-06	-1.585852e-09	-1.489336e+01	-1.035424e+02
3.900000e-07	-2.052287e-06	-1.577148e-09	-1.464145e+01	-1.019865e+02
4.000000e-07	-2.016422e-06	-1.514052e-09	-1.438558e+01	-1.004120e+02
4.100000e-07	-1.979922e-06	-1.524129e-09	-1.412518e+01	-9.881755e+01
4.200000e-07	-1.942718e-06	-1.481275e-09	-1.385976e+01	-9.720010e+01
4.300000e-07	-1.904774e-06	-1.394508e-09	-1.358906e+01	-9.555569e+01
4.400000e-07	-1.866099e-06	-1.421715e-09	-1.331315e+01	-9.388051e+01
4.500000e-07	-1.826848e-06	-1.471747e-09	-1.303312e+01	-9.217169e+01
4.600000e-07	-1.787261e-06	-1.407158e-09	-1.275070e+01	-9.042786e+01
4.700000e-07	-1.747255e-06	-1.302732e-09	-1.246529e+01	-8.864943e+01
4.800000e-07	-1.706422e-06	-1.271714e-09	-1.217398e+01	-8.683853e+01
4.900000e-07	-1.664586e-06	-1.331410e-09	-1.187551e+01	-8.499862e+01
5.000000e-07	-1.621858e-06	-1.337823e-09	-1.157068e+01	-8.313395e+01
5.100000e-07	-1.578511e-06	-1.238355e-09	-1.126143e+01	-8.124878e+01
5.200000e-07	-1.534783e-06	-1.145529e-09	-1.094947e+01	-7.934674e+01
5.300000e-07	-1.490641e-06	-1.160096e-09	-1.063455e+01	-7.743021e+01
5.400000e-07	-1.445981e-06	-1.207822e-09	-1.031594e+01	-7.549988e+01
5.500000e-07	-1.400793e-06	-1.177430e-09	-9.993551e+00	-7.355468e+01
5.600000e-07	-1.355020e-06	-1.084484e-09	-9.667002e+00	-7.159184e+01
5.700000e-07	-1.308656e-06	-1.012451e-09	-9.336226e+00	-6.960733e+01
5.800000e-07	-1.261820e-06	-1.024271e-09	-9.002091e+00	-6.759635e+01
5.900000e-07	-1.214607e-06	-1.052646e-09	-8.665263e+00	-6.555405e+01
6.000000e-07	-1.167094e-06	-1.004453e-09	-8.326296e+00	-6.347613e+01
6.100000e-07	-1.119268e-06	-9.083494e-10	-7.985099e+00	-6.135940e+01
6.200000e-07	-1.070974e-06	-8.673336e-10	-7.640557e+00	-5.920216e+01
6.300000e-07	-1.022007e-06	-8.794505e-10	-7.291214e+00	-5.700439e+01
6.400000e-07	-9.722863e-07	-8.766657e-10	-6.936497e+00	-5.476766e+01
6.500000e-07	-9.219958e-07	-8.335055e-10	-6.577714e+00	-5.249492e+01
6.600000e-07	-8.713249e-07	-7.638315e-10	-6.216217e+00	-5.019007e+01
6.700000e-07	-8.202773e-07	-7.102838e-10	-5.852033e+00	-4.785752e+01
6.800000e-07	-7.689369e-07	-6.970349e-10	-5.485759e+00	-4.550172e+01
6.900000e-07	-7.173954e-07	-6.980328e-10	-5.118051e+00	-4.312677e+01
7.000000e-07	-6.656181e-07	-6.520404e-10	-4.748661e+00	-4.073616e+01
7.100000e-07	-6.136463e-07	-5.719889e-10	-4.377883e+00	-3.833263e+01
7.200000e-07	-5.614537e-07	-5.234140e-10	-4.005530e+00	-3.591823e+01
7.300000e-07	-5.090064e-07	-5.224333e-10	-3.631359e+00	-3.349445e+01
7.400000e-07	-4.563494e-07	-5.194388e-10	-3.255694e+00	-3.106244e+01
7.500000e-07	-4.035329e-07	-4.700434e-10	-2.878889e+00	-2.862324e+01
7.600000e-07	-3.505608e-07	-3.931603e-10	-2.500976e+00	-2.617795e+01
7.700000e-07	-2.974124e-07	-3.389834e-10	-2.121803e+00	-2.372784e+01
7.800000e-07	-2.441835e-07	-3.356617e-10	-1.742057e+00	-2.127431e+01
7.900000e-07	-1.909222e-07	-3.347939e-10	-1.362080e+00	-1.881877e+01
8.000000e-07	-1.376252e-07	-2.754528e-10	-9.818477e-01	-1.636241e+01
8.100000e-07	-8.427553e-08	-1.846635e-10	-6.012395e-01	-1.390591e+01
8.200000e-07	-3.082692e-08	-1.460997e-10	-2.199258e-01	-1.144917e+01
8.300000e-07	2.265264e-08	-1.629819e-10	1.616088e-01	-8.991167e+00
8.400000e-07	7.608065e-08	-1.496772e-10	5.427755e-01	-6.529844e+00
8.500000e-07	1.294614e-07	-7.290933e-11	9.236050e-01	-4.062210e+00
8.600000e-07	1.828467e-07	1.975472e-12	1.304467e+00	-1.584596e+00
8.700000e-07	2.362094e-07	1.576291e-11	1.685168e+00	9.069596e-01
8.800000e-07	2.894701e-07	1.079387e-11	2.065141e+00	3.416214e+00
8.900000e-07	3.426645e-07	5.421576e-11	2.444641e+00	5.946195e+00
9.000000e-07	3.957830e-07	1.367281e-10	2.823600e+00	8.498719e+00
9.100000e-07	4.487356e-07	1.933210e-10	3.201375e+00	1.107401e+01
9.200000e-07	5.015100e-07	2.034639e-10	3.577879e+00	1.367050e+01
9.300000e-07	5.540185e-07	2.151585e-10	3.952486e+00	1.628484e+01
9.400000e-07	6.062478e-07	2.663773e-10	4.325100e+00	1.891208e+01
9.500000e-07	6.583054e-07	3.347385e-10	4.696491e+00	2.154611e+01
9.600000e-07	7.101541e-07	3.752184e-10	5.066390e+00	2.418021e+01
9.700000e-07	7.617657e-07	3.905591e-10	5.434598e+00	2.680762e+01
9.800000e-07	8.131038e-07	4.178442e-10	5.800855e+00	2.942220e+01
9.900000e-07	8.640575e-07	4.724950e-10	6.164370e+00	3.201890e+01
1.000000e-06	9.145769e-07	5.306291e-10	6.524786e+00	3.459417e+01
1.010000e-06	9.645856e-07	5.676616e-10	6.881558e+00	3.714610e+01
1.020000e-06	1.013964e-06	5.905836e-10	7.233833e+00	3.967437e+01
1.030000e-06	1.062616e-06	6.210799e-10	7.580930e+00	4.218008e+01
1.040000e-06	1.110651e-06	6.659036e-10	7.923619e+00	4.466532e+01
1.050000e-06	1.158349e-06	7.125947e-10	8.263905e+00	4.713270e+01
1.060000e-06	1.205778e-06	7.499739e-10	8.602275e+00	4.958493e+01
1.070000e-06	1.252886e-06	7.777266e-10	8.938356e+00	5.202431e+01
1.080000e-06	1.299601e-06	8.068023e-10	9.271632e+00	5.445247e+01
1.090000e-06	1.345810e-06	8.475759e-10	9.601294e+00	5.687013e+01
1.100000e-06	1.391474e-06	8.973590e-10	9.927072e+00	5.927713e+01
1.110000e-06	1.436615e-06	9.390490e-10	1.024911e+01	6.167246e+01
1.120000e-06	1.481262e-06	9.654521e-10	1.056764e+01	6.405452e+01
1.130000e-06	1.525426e-06	9.902430e-10	1.088272e+01	6.642133e+01
1.140000e-06	1.569185e-06	1.029805e-09	1.119490e+01	6.877077e+01
1.150000e-06	1.612622e-06	1.079024e-09	1.150479e+01	7.110080e+01
1.160000e-06	1.655646e-06	1.118095e-09	1.181173e+01	7.340947e+01
1.170000e-06	1.698067e-06	1.141053e-09	1.211437e+01	7.569499e+01
1.180000e-06	1.739570e-06	1.165961e-09	1.241046e+01	7.795554e+01
1.190000e-06	1.780050e-06	1.210256e-09	1.269925e+01	8.018915e+01
1.200000e-06	1.819835e-06	1.261580e-09	1.298309e+01	8.239347e+01
1.210000e-06	1.859191e-06	1.294454e-09	1.326387e+01	8.456561e+01
1.220000e-06	1.898027e-06	1.309420e-09	1.354093e+01	8.670209e+01
1.230000e-06	1.936185e-06	1.332777e-09	1.381316e+01	8.879881e+01
1.240000e-06	1.973656e-06	1.374910e-09	1.408048e+01	9.085131e+01
1.250000e-06	2.010378e-06	1.413495e-09	1.434246e+01	9.285501e+01
1.260000e-06	2.046398e-06	1.434788e-09	1.459944e+01	9.480564e+01
1.270000e-06	2.081937e-06	1.451853e-09	1.485298e+01	9.669966e+01
1.280000e-06	2.116959e-06	1.481795e-09	1.510284e+01	9.853464e+01
1.290000e-06	2.151022e-06	1.523128e-09	1.534585e+01	1.003096e+02
1.300000e-06	2.183871e-06	1.558155e-09	1.558020e+01	1.020252e+02
1.310000e-06	2.215794e-06	1.580241e-09	1.580794e+01	1.036835e+02
1.320000e-06	2.247097e-06	1.598002e-09	1.603127e+01	1.052881e+02
1.330000e-06	2.277771e-06	1.622396e-09	1.625010e+01	1.068433e+02
1.340000e-06	2.307687e-06	1.651092e-09	1.646353e+01	1.083537e+02
1.350000e-06	2.336769e-06	1.675436e-09	1.667101e+01	1.098238e+02
1.360000e-06	2.365040e-06	1.692720e-09	1.687270e+01	1.112570e+02
1.370000e-06	2.392707e-06	1.710600e-09	1.707008e+01	1.126556e+02
1.380000e-06	2.419708e-06	1.732998e-09	1.726271e+01	1.140199e+02
1.390000e-06	2.445564e-06	1.759983e-09	1.744717e+01	1.153487e+02
1.400000e-06	2.470183e-06	1.786145e-09	1.762281e+01	1.166392e+02
1.410000e-06	2.493919e-06	1.804853e-09	1.779215e+01	1.178872e+02
1.420000e-06	2.516879e-06	1.818012e-09	1.795595e+01	1.190882e+02
1.430000e-06	2.539003e-06	1.832434e-09	1.811379e+01	1.202372e+02
1.440000e-06	2.560257e-06	1.853752e-09	1.826542e+01	1.213302e+02
1.450000e-06	2.580626e-06	1.875720e-09	1.841073e+01	1.223639e+02
1.460000e-06	2.600314e-06	1.887626e-09	1.855119e+01	1.233367e+02
1.470000e-06	2.619332e-06	1.893132e-09	1.868687e+01	1.242484e+02
1.480000e-06	2.637361e-06	1.906029e-09	1.881550e+01	1.251002e+02
1.490000e-06	2.654386e-06	1.929113e-09	1.893695e+01	1.258943e+02
1.500000e-06	2.670475e-06	1.949791e-09	1.905174e+01	1.266337e+02
1.510000e-06	2.685495e-06	1.957475e-09	1.915889e+01	1.273210e+02
1.520000e-06	2.699480e-06	1.958030e-09	1.925866e+01	1.279586e+02
1.530000e-06	2.712484e-06	1.965464e-09	1.935144e+01	1.285480e+02
1.540000e-06	2.724505e-06	1.982225e-09	1.943720e+01	1.290892e+02
1.550000e-06	2.735446e-06	1.994177e-09	1.951525e+01	1.295815e+02
1.560000e-06	2.745061e-06	1.992887e-09	1.958385e+01	1.300231e+02
1.570000e-06	2.753433e-06	1.990758e-09	1.964357e+01	1.304116e+02
1.580000e-06	2.760832e-06	2.000565e-09	1.969636e+01	1.307449e+02
1.590000e-06	2.767330e-06	2.016142e-09	1.974272e+01	1.310217e+02
1.600000e-06	2.772905e-06	2.023574e-09	1.978249e+01	1.312416e+02
1.610000e-06	2.777534e-06	2.019833e-09	1.981552e+01	1.314061e+02
1.620000e-06	2.781338e-06	2.016384e-09	1.984265e+01	1.315180e+02
1.630000e-06	2.784274e-06	2.021357e-09	1.986360e+01	1.315818e+02
1.640000e-06	2.785958e-06	2.027662e-09	1.987562e+01	1.316027e+02
1.650000e-06	2.786362e-06	2.025801e-09	1.987850e+01	1.315863e+02
1.660000e-06	2.785875e-06	2.019017e-09	1.987502e+01	1.315378e+02
1.670000e-06	2.784594e-06	2.012826e-09	1.986588e+01	1.314606e+02
1.680000e-06	2.782406e-06	2.013887e-09	1.985027e+01	1.313567e+02
1.690000e-06	2.779324e-06	2.019142e-09	1.982828e+01	1.312252e+02
1.700000e-06	2.775470e-06	2.017815e-09	1.980079e+01	1.310631e+02
1.710000e-06	2.770924e-06	2.013647e-09	1.976836e+01	1.308651e+02
1.720000e-06	2.765542e-06	2.028038e-09	1.972996e+01	1.306244e+02
1.730000e-06	2.759019e-06	2.047846e-09	1.968343e+01	1.303339e+02
1.740000e-06	2.751322e-06	1.958173e-09	1.962851e+01	1.299871e+02
1.750000e-06	2.742492e-06	1.844235e-09	1.956552e+01	1.295792e+02
1.760000e-06	2.732228e-06	1.934210e-09	1.949230e+01	1.291084e+02
1.770000e-06	2.720802e-06	2.136223e-09	1.941078e+01	1.285764e+02
1.780000e-06	2.709135e-06	2.099952e-09	1.932754e+01	1.279887e+02
1.790000e-06	2.697124e-06	1.817666e-09	1.924185e+01	1.273542e+02
1.800000e-06	2.683531e-06	1.867711e-09	1.914488e+01	1.266849e+02
1.810000e-06	2.668197e-06	1.968710e-09	1.903548e+01	1.259944e+02
1.820000e-06	2.652107e-06	1.888489e-09	1.892069e+01	1.252963e+02
1.830000e-06	2.635427e-06	2.010405e-09	1.880169e+01	1.246031e+02
1.840000e-06	2.617641e-06	2.002178e-09	1.867480e+01	1.239244e+02
1.850000e-06	2.598870e-06	1.672059e-09	1.854089e+01	1.232656e+02
1.860000e-06	2.579555e-06	1.711104e-09	1.840309e+01	1.226268e+02
1.870000e-06	2.559590e-06	2.088849e-09	1.826066e+01	1.220034e+02
1.880000e-06	2.538652e-06	1.891759e-09	1.811128e+01	1.213855e+02
1.890000e-06	2.516429e-06	1.586525e-09	1.795274e+01	1.207590e+02
1.900000e-06	2.492932e-06	1.896208e-09	1.778511e+01	1.201074e+02
1.910000e-06	2.468651e-06	1.993274e-09	1.761188e+01	1.194127e+02
1.920000e-06	2.443684e-06	1.710617e-09	1.743376e+01	1.186580e+02
1.930000e-06	2.417712e-06	1.764217e-09	1.724847e+01	1.178284e+02
1.940000e-06	2.390873e-06	1.834786e-09	1.705699e+01	1.169128e+02
1.950000e-06	2.363342e-06	1.770656e-09	1.686058e+01	1.159048e+02
1.960000e-06	2.335035e-06	1.774791e-09	1.665864e+01	1.148030e+02
1.970000e-06	2.305991e-06	1.687406e-09	1.645143e+01	1.136106e+02
1.980000e-06	2.276001e-06	1.693358e-09	1.623747e+01	1.123352e+02
1.990000e-06	2.244776e-06	1.797286e-09	1.601471e+01	1.109873e+02
2.000000e-06	2.212649e-06	1.631128e-09	1.578551e+01	1.095789e+02
2.010000e-06	2.179927e-06	1.581720e-09	1.555206e+01	1.081223e+02
2.020000e-06	2.146415e-06	1.718436e-09	1.531298e+01	1.066286e+02
2.030000e-06	2.112159e-06	1.613471e-09	1.506859e+01	1.051069e+02
2.040000e-06	2.077183e-06	1.561259e-09	1.481906e+01	1.035631e+02
2.050000e-06	2.041488e-06	1.591958e-09	1.456441e+01	1.020003e+02
2.060000e-06	2.005332e-06	1.482789e-09	1.430646e+01	1.004188e+02
2.070000e-06	1.968598e-06	1.496964e-09	1.404440e+01	9.881635e+01
2.080000e-06	1.930852e-06	1.557124e-09	1.377511e+01	9.718953e+01
2.090000e-06	1.892030e-06	1.470333e-09	1.349815e+01	9.553432e+01
2.100000e-06	1.852423e-06	1.394191e-09	1.321558e+01	9.384718e+01
2.110000e-06	1.812304e-06	1.368627e-09	1.292936e+01	9.212571e+01
2.120000e-06	1.771758e-06	1.415180e-09	1.264010e+01	9.036917e+01
2.130000e-06	1.730583e-06	1.437263e-09	1.234635e+01	8.857861e+01
2.140000e-06	1.688761e-06	1.302835e-09	1.204798e+01	8.675669e+01
2.150000e-06	1.646426e-06	1.227245e-09	1.174595e+01	8.490722e+01
2.160000e-06	1.603549e-06	1.270923e-09	1.144006e+01	8.303454e+01
2.170000e-06	1.560062e-06	1.287415e-09	1.112981e+01	8.114277e+01
2.180000e-06	1.516069e-06	1.231072e-09	1.081596e+01	7.923516e+01
2.190000e-06	1.471798e-06	1.142958e-09	1.050012e+01	7.731350e+01
2.200000e-06	1.427224e-06	1.115762e-09	1.018212e+01	7.537787e+01
2.210000e-06	1.382107e-06	1.133341e-09	9.860246e+00	7.342655e+01
2.220000e-06	1.336251e-06	1.128873e-09	9.533096e+00	7.145628e+01
2.230000e-06	1.289715e-06	1.081146e-09	9.201103e+00	6.946267e+01
2.240000e-06	1.242756e-06	9.985635e-10	8.866084e+00	6.744083e+01
2.250000e-06	1.195520e-06	9.632286e-10	8.529093e+00	6.538605e+01
2.260000e-06	1.147963e-06	9.832402e-10	8.189811e+00	6.329435e+01
2.270000e-06	1.099988e-06	9.596215e-10	7.847545e+00	6.116305e+01
2.280000e-06	1.051492e-06	9.054582e-10	7.501568e+00	5.899104e+01
2.290000e-06	1.002438e-06	8.465025e-10	7.151602e+00	5.677889e+01
2.300000e-06	9.529585e-07	8.042780e-10	6.798608e+00	5.452869e+01
2.310000e-06	9.031308e-07	8.045557e-10	6.443127e+00	5.224378e+01
2.320000e-06	8.530003e-07	7.952557e-10	6.085485e+00	4.992831e+01
2.330000e-06	8.026147e-07	7.417619e-10	5.726023e+00	4.758675e+01
2.340000e-06	7.519153e-07	6.591967e-10	5.364323e+00	4.522346e+01
2.350000e-06	7.009137e-07	6.146825e-10	5.000467e+00	4.284234e+01
2.360000e-06	6.496589e-07	6.273618e-10	4.634805e+00	4.044662e+01
2.370000e-06	5.981592e-07	6.136032e-10	4.267395e+00	3.803880e+01
2.380000e-06	5.464628e-07	5.409631e-10	3.898582e+00	3.562069e+01
2.390000e-06	4.945820e-07	4.675895e-10	3.528453e+00	3.319364e+01
2.400000e-06	4.425287e-07	4.421271e-10	3.157094e+00	3.075873e+01
2.410000e-06	3.903469e-07	4.522087e-10	2.784818e+00	2.831701e+01
2.420000e-06	3.380581e-07	4.327662e-10	2.411778e+00	2.586963e+01
2.430000e-06	2.857155e-07	3.537720e-10	2.038355e+00	2.341792e+01
2.440000e-06	2.333061e-07	2.728231e-10	1.664455e+00	2.096331e+01
2.450000e-06	1.807881e-07	2.544128e-10	1.289781e+00	1.850716e+01
2.460000e-06	1.281727e-07	2.745408e-10	9.144110e-01	1.605049e+01
2.470000e-06	7.550907e-08	2.393858e-10	5.386977e-01	1.359374e+01
2.480000e-06	2.281844e-08	1.435378e-10	1.627916e-01	1.113652e+01
2.490000e-06	-2.989542e-08	8.577287e-11	-2.132803e-01	8.677404e+00
2.500000e-06	-8.254895e-08	9.727910e-11	-5.889217e-01	6.214001e+00
2.510000e-06	-1.351546e-07	1.002140e-10	-9.642219e-01	3.743038e+00
2.520000e-06	-1.877798e-07	3.611204e-11	-1.339661e+00	1.260689e+00
2.530000e-06	-2.403528e-07	-4.798345e-11	-1.714728e+00	-1.236994e+00
2.540000e-06	-2.928383e-07	-8.360637e-11	-2.089170e+00	-3.753568e+00
2.550000e-06	-3.452337e-07	-8.438681e-11	-2.462970e+00	-6.291679e+00
2.560000e-06	-3.975154e-07	-1.110893e-10	-2.835959e+00	-8.852610e+00
2.570000e-06	-4.496902e-07	-1.775242e-10	-3.208186e+00	-1.143596e+01
2.580000e-06	-5.017369e-07	-2.425036e-10	-3.579497e+00	-1.403951e+01
2.590000e-06	-5.535983e-07	-2.722628e-10	-3.949488e+00	-1.665930e+01
2.600000e-06	-6.052394e-07	-2.837388e-10	-4.317906e+00	-1.928992e+01
2.610000e-06	-6.566439e-07	-3.176872e-10	-4.684637e+00	-2.192498e+01
2.620000e-06	-7.077185e-07	-3.757760e-10	-5.049014e+00	-2.455766e+01
2.630000e-06	-7.584616e-07	-4.298271e-10	-5.411026e+00	-2.718135e+01
2.640000e-06	-8.089389e-07	-4.635385e-10	-5.771142e+00	-2.979026e+01
2.650000e-06	-8.591086e-07	-4.890166e-10	-6.129063e+00	-3.237985e+01
2.660000e-06	-9.089771e-07	-5.264421e-10	-6.484835e+00	-3.494713e+01
2.670000e-06	-9.584073e-07	-5.764276e-10	-6.837481e+00	-3.749077e+01
2.680000e-06	-1.007227e-06	-6.256603e-10	-7.185769e+00	-4.001101e+01
2.690000e-06	-1.055415e-06	-6.622893e-10	-7.529552e+00	-4.250935e+01
2.700000e-06	-1.103094e-06	-6.881807e-10	-7.869706e+00	-4.498810e+01
2.710000e-06	-1.150385e-06	-7.169909e-10	-8.207093e+00	-4.744999e+01
2.720000e-06	-1.197285e-06	-7.606452e-10	-8.541687e+00	-4.989760e+01
2.730000e-06	-1.243852e-06	-8.115148e-10	-8.873902e+00	-5.233304e+01
2.740000e-06	-1.290098e-06	-8.517869e-10	-9.203832e+00	-5.475763e+01
2.750000e-06	-1.335951e-06	-8.773399e-10	-9.530961e+00	-5.717176e+01
2.760000e-06	-1.381275e-06	-9.051894e-10	-9.854311e+00	-5.957495e+01
2.770000e-06	-1.426040e-06	-9.498555e-10	-1.017367e+01	-6.196596e+01
2.780000e-06	-1.470453e-06	-9.994482e-10	-1.049052e+01	-6.434302e+01
2.790000e-06	-1.514608e-06	-1.032019e-09	-1.080553e+01	-6.670409e+01
2.800000e-06	-1.558381e-06	-1.048776e-09	-1.111782e+01	-6.904704e+01
2.810000e-06	-1.601646e-06	-1.075000e-09	-1.142648e+01	-7.136986e+01
2.820000e-06	-1.644363e-06	-1.123449e-09	-1.173124e+01	-7.367068e+01
2.830000e-06	-1.686521e-06	-1.173869e-09	-1.203200e+01	-7.594770e+01
2.840000e-06	-1.728107e-06	-1.203890e-09	-1.232868e+01	-7.819909e+01
2.850000e-06	-1.769084e-06	-1.223720e-09	-1.262102e+01	-8.042274e+01
2.860000e-06	-1.809522e-06	-1.258919e-09	-1.290952e+01	-8.261614e+01
2.870000e-06	-1.849509e-06	-1.308647e-09	-1.319479e+01	-8.477619e+01
2.880000e-06	-1.888820e-06	-1.346748e-09	-1.347524e+01	-8.689917e+01
2.890000e-06	-1.927150e-06	-1.364030e-09	-1.374870e+01	-8.898084e+01
2.900000e-06	-1.964527e-06	-1.381428e-09	-1.401535e+01	-9.101664e+01
2.910000e-06	-2.001159e-06	-1.415721e-09	-1.427670e+01	-9.300206e+01
2.920000e-06	-2.037174e-06	-1.457273e-09	-1.453363e+01	-9.493304e+01
2.930000e-06	-2.072501e-06	-1.488097e-09	-1.478566e+01	-9.680639e+01
2.940000e-06	-2.107100e-06	-1.507792e-09	-1.503250e+01	-9.862018e+01
