# Temperatura_=_20.0
# Concentracion g/m^3_=_9000.0
# C_Vs_to_Am_M_A/Vsm_=_65563218390.804596
# pendiente_HvsI_1/m_=_3716.3
# ordenada_HvsI_A/m_=_1297.0
# frecuencia_Hz_=_301266.721321163

Tiempo_(s)	Campo_(V.s)	Magnetizacion_(V.s)	Campo_(kA/m)	Magnetizacion_(A/m)
0.000000e+00	-8.079597e-06	-6.405916e-09	-5.698492e+01	-4.214637e+02
1.000000e-08	-8.076829e-06	-6.410057e-09	-5.696539e+01	-4.213543e+02
2.000000e-08	-8.071396e-06	-6.410846e-09	-5.692707e+01	-4.212499e+02
3.000000e-08	-8.063329e-06	-6.408032e-09	-5.687018e+01	-4.211494e+02
4.000000e-08	-8.052442e-06	-6.402463e-09	-5.679340e+01	-4.210454e+02
5.000000e-08	-8.038650e-06	-6.397226e-09	-5.669612e+01	-4.209257e+02
6.000000e-08	-8.021991e-06	-6.393705e-09	-5.657863e+01	-4.207753e+02
7.000000e-08	-8.002877e-06	-6.389271e-09	-5.644381e+01	-4.205785e+02
8.000000e-08	-7.981447e-06	-6.387029e-09	-5.629267e+01	-4.203213e+02
9.000000e-08	-7.957172e-06	-6.436979e-09	-5.612146e+01	-4.199939e+02
1.000000e-07	-7.929681e-06	-6.451774e-09	-5.592757e+01	-4.195912e+02
1.100000e-07	-7.899176e-06	-6.400207e-09	-5.571242e+01	-4.191138e+02
1.200000e-07	-7.865782e-06	-6.357148e-09	-5.547689e+01	-4.185672e+02
1.300000e-07	-7.829624e-06	-6.347570e-09	-5.522187e+01	-4.179609e+02
1.400000e-07	-7.791175e-06	-6.358661e-09	-5.495069e+01	-4.173059e+02
1.500000e-07	-7.750460e-06	-6.329820e-09	-5.466354e+01	-4.166128e+02
1.600000e-07	-7.707104e-06	-6.343354e-09	-5.435775e+01	-4.158904e+02
1.700000e-07	-7.660984e-06	-6.327243e-09	-5.403247e+01	-4.151433e+02
1.800000e-07	-7.612119e-06	-6.268459e-09	-5.368782e+01	-4.143720e+02
1.900000e-07	-7.560237e-06	-6.352651e-09	-5.332190e+01	-4.135722e+02
2.000000e-07	-7.505318e-06	-6.315890e-09	-5.293456e+01	-4.127366e+02
2.100000e-07	-7.447675e-06	-6.236696e-09	-5.252801e+01	-4.118557e+02
2.200000e-07	-7.387476e-06	-6.257630e-09	-5.210343e+01	-4.109202e+02
2.300000e-07	-7.324700e-06	-6.263605e-09	-5.166067e+01	-4.099223e+02
2.400000e-07	-7.259172e-06	-6.264241e-09	-5.119851e+01	-4.088577e+02
2.500000e-07	-7.190941e-06	-6.197042e-09	-5.071728e+01	-4.077266e+02
2.600000e-07	-7.120103e-06	-6.208479e-09	-5.021767e+01	-4.065329e+02
2.700000e-07	-7.046453e-06	-6.192922e-09	-4.969821e+01	-4.052844e+02
2.800000e-07	-6.970055e-06	-6.163990e-09	-4.915938e+01	-4.039907e+02
2.900000e-07	-6.891028e-06	-6.155150e-09	-4.860201e+01	-4.026615e+02
3.000000e-07	-6.809437e-06	-6.132372e-09	-4.802656e+01	-4.013046e+02
3.100000e-07	-6.725482e-06	-6.112342e-09	-4.743442e+01	-3.999242e+02
3.200000e-07	-6.639249e-06	-6.069553e-09	-4.682623e+01	-3.985194e+02
3.300000e-07	-6.550682e-06	-6.084695e-09	-4.620157e+01	-3.970842e+02
3.400000e-07	-6.459719e-06	-6.053374e-09	-4.556002e+01	-3.956080e+02
3.500000e-07	-6.366447e-06	-5.994991e-09	-4.490217e+01	-3.940767e+02
3.600000e-07	-6.270936e-06	-5.980662e-09	-4.422854e+01	-3.924752e+02
3.700000e-07	-6.173218e-06	-5.984586e-09	-4.353934e+01	-3.907893e+02
3.800000e-07	-6.073252e-06	-5.944934e-09	-4.283429e+01	-3.890082e+02
3.900000e-07	-5.971051e-06	-5.892749e-09	-4.211347e+01	-3.871257e+02
4.000000e-07	-5.866738e-06	-5.888535e-09	-4.137775e+01	-3.851416e+02
4.100000e-07	-5.760351e-06	-5.863756e-09	-4.062741e+01	-3.830611e+02
4.200000e-07	-5.651889e-06	-5.816364e-09	-3.986244e+01	-3.808939e+02
4.300000e-07	-5.541436e-06	-5.782462e-09	-3.908342e+01	-3.786521e+02
4.400000e-07	-5.428926e-06	-5.765168e-09	-3.828989e+01	-3.763477e+02
4.500000e-07	-5.314211e-06	-5.718980e-09	-3.748082e+01	-3.739900e+02
4.600000e-07	-5.197363e-06	-5.673748e-09	-3.665669e+01	-3.715834e+02
4.700000e-07	-5.078574e-06	-5.646566e-09	-3.581888e+01	-3.691257e+02
4.800000e-07	-4.957978e-06	-5.608894e-09	-3.496833e+01	-3.666078e+02
4.900000e-07	-4.835620e-06	-5.557190e-09	-3.410534e+01	-3.640147e+02
5.000000e-07	-4.711488e-06	-5.519408e-09	-3.322985e+01	-3.613266e+02
5.100000e-07	-4.585703e-06	-5.485775e-09	-3.234269e+01	-3.585222e+02
5.200000e-07	-4.458233e-06	-5.430058e-09	-3.144366e+01	-3.555810e+02
5.300000e-07	-4.329161e-06	-5.376488e-09	-3.053332e+01	-3.524867e+02
5.400000e-07	-4.198545e-06	-5.334720e-09	-2.961209e+01	-3.492289e+02
5.500000e-07	-4.066329e-06	-5.286124e-09	-2.867958e+01	-3.458043e+02
5.600000e-07	-3.932762e-06	-5.218938e-09	-2.773754e+01	-3.422163e+02
5.700000e-07	-3.797828e-06	-5.165008e-09	-2.678585e+01	-3.384736e+02
5.800000e-07	-3.661433e-06	-5.116694e-09	-2.582387e+01	-3.345871e+02
5.900000e-07	-3.523729e-06	-5.055091e-09	-2.485265e+01	-3.305666e+02
6.000000e-07	-3.384702e-06	-4.984059e-09	-2.387210e+01	-3.264166e+02
6.100000e-07	-3.244200e-06	-4.920511e-09	-2.288115e+01	-3.221339e+02
6.200000e-07	-3.102353e-06	-4.856135e-09	-2.188071e+01	-3.177044e+02
6.300000e-07	-2.959365e-06	-4.778649e-09	-2.087223e+01	-3.131031e+02
6.400000e-07	-2.815243e-06	-4.699105e-09	-1.985574e+01	-3.082948e+02
6.500000e-07	-2.669978e-06	-4.616293e-09	-1.883120e+01	-3.032365e+02
6.600000e-07	-2.523805e-06	-4.530587e-09	-1.780025e+01	-2.978810e+02
6.700000e-07	-2.376868e-06	-4.440010e-09	-1.676391e+01	-2.921813e+02
6.800000e-07	-2.229077e-06	-4.351487e-09	-1.572155e+01	-2.860946e+02
6.900000e-07	-2.080511e-06	-4.253834e-09	-1.467372e+01	-2.795845e+02
7.000000e-07	-1.931332e-06	-4.144793e-09	-1.362157e+01	-2.726226e+02
7.100000e-07	-1.781538e-06	-4.032356e-09	-1.256508e+01	-2.651869e+02
7.200000e-07	-1.631081e-06	-3.918509e-09	-1.150392e+01	-2.572580e+02
7.300000e-07	-1.479984e-06	-3.794685e-09	-1.043824e+01	-2.488136e+02
7.400000e-07	-1.328330e-06	-3.654673e-09	-9.368632e+00	-2.398212e+02
7.500000e-07	-1.176206e-06	-3.510431e-09	-8.295714e+00	-2.302303e+02
7.600000e-07	-1.023651e-06	-3.354359e-09	-7.219748e+00	-2.199669e+02
7.700000e-07	-8.707193e-07	-3.179904e-09	-6.141132e+00	-2.089287e+02
7.800000e-07	-7.175074e-07	-2.988382e-09	-5.060537e+00	-1.969852e+02
7.900000e-07	-5.640898e-07	-2.786027e-09	-3.978492e+00	-1.839814e+02
8.000000e-07	-4.104884e-07	-2.567597e-09	-2.895150e+00	-1.697469e+02
8.100000e-07	-2.567558e-07	-2.326651e-09	-1.810884e+00	-1.541093e+02
8.200000e-07	-1.029685e-07	-2.064915e-09	-7.262309e-01	-1.369109e+02
8.300000e-07	5.081044e-08	-1.777786e-09	3.583630e-01	-1.180277e+02
8.400000e-07	2.046123e-07	-1.462917e-09	1.443119e+00	-9.738903e+01
8.500000e-07	3.583890e-07	-1.122690e-09	2.527696e+00	-7.499427e+01
8.600000e-07	5.120000e-07	-7.601791e-10	3.611106e+00	-5.092618e+01
8.700000e-07	6.654539e-07	-3.728313e-10	4.693407e+00	-2.535789e+01
8.800000e-07	8.187092e-07	3.620933e-11	5.774308e+00	1.447340e+00
8.900000e-07	9.716890e-07	4.588068e-10	6.853265e+00	2.914422e+01
9.000000e-07	1.124375e-06	8.885623e-10	7.930149e+00	5.732116e+01
9.100000e-07	1.276638e-06	1.321055e-09	9.004054e+00	8.552248e+01
9.200000e-07	1.428400e-06	1.747318e-09	1.007442e+01	1.132753e+02
9.300000e-07	1.579567e-06	2.157294e-09	1.114059e+01	1.401189e+02
9.400000e-07	1.730134e-06	2.547314e-09	1.220253e+01	1.656330e+02
9.500000e-07	1.880072e-06	2.912120e-09	1.326004e+01	1.894637e+02
9.600000e-07	2.029315e-06	3.245533e-09	1.431264e+01	2.113436e+02
9.700000e-07	2.177881e-06	3.541905e-09	1.536046e+01	2.311042e+02
9.800000e-07	2.325602e-06	3.801715e-09	1.640233e+01	2.486805e+02
9.900000e-07	2.472413e-06	4.027593e-09	1.743778e+01	2.641068e+02
1.000000e-06	2.618384e-06	4.223328e-09	1.846731e+01	2.775050e+02
1.010000e-06	2.763522e-06	4.396370e-09	1.949096e+01	2.890664e+02
1.020000e-06	2.907653e-06	4.550594e-09	2.050750e+01	2.990297e+02
1.030000e-06	3.050675e-06	4.684666e-09	2.151623e+01	3.076568e+02
1.040000e-06	3.192603e-06	4.801933e-09	2.251724e+01	3.152102e+02
1.050000e-06	3.333380e-06	4.909156e-09	2.351013e+01	3.219327e+02
1.060000e-06	3.472853e-06	5.005698e-09	2.449383e+01	3.280321e+02
1.070000e-06	3.610903e-06	5.092734e-09	2.546749e+01	3.336719e+02
1.080000e-06	3.747635e-06	5.172600e-09	2.643184e+01	3.389676e+02
1.090000e-06	3.882964e-06	5.249028e-09	2.738631e+01	3.439891e+02
1.100000e-06	4.016864e-06	5.321583e-09	2.833071e+01	3.487678e+02
1.110000e-06	4.149388e-06	5.387050e-09	2.926538e+01	3.533062e+02
1.120000e-06	4.280371e-06	5.447540e-09	3.018920e+01	3.575902e+02
1.130000e-06	4.409814e-06	5.503642e-09	3.110216e+01	3.615996e+02
1.140000e-06	4.537739e-06	5.556232e-09	3.200440e+01	3.653184e+02
1.150000e-06	4.664078e-06	5.605798e-09	3.289547e+01	3.687411e+02
1.160000e-06	4.788836e-06	5.652481e-09	3.377538e+01	3.718767e+02
1.170000e-06	4.911872e-06	5.696111e-09	3.464314e+01	3.747487e+02
1.180000e-06	5.033092e-06	5.736592e-09	3.549810e+01	3.773923e+02
1.190000e-06	5.152521e-06	5.774728e-09	3.634042e+01	3.798498e+02
1.200000e-06	5.270033e-06	5.811089e-09	3.716923e+01	3.821649e+02
1.210000e-06	5.385494e-06	5.845668e-09	3.798357e+01	3.843770e+02
1.220000e-06	5.498851e-06	5.877492e-09	3.878307e+01	3.865163e+02
1.230000e-06	5.610147e-06	5.907881e-09	3.956804e+01	3.886013e+02
1.240000e-06	5.719495e-06	5.937875e-09	4.033926e+01	3.906377e+02
1.250000e-06	5.826859e-06	5.966318e-09	4.109649e+01	3.926199e+02
1.260000e-06	5.932078e-06	5.992591e-09	4.183860e+01	3.945339e+02
1.270000e-06	6.035107e-06	6.018649e-09	4.256525e+01	3.963612e+02
1.280000e-06	6.135993e-06	6.044208e-09	4.327680e+01	3.980839e+02
1.290000e-06	6.234702e-06	6.067398e-09	4.397298e+01	3.996880e+02
1.300000e-06	6.331166e-06	6.090155e-09	4.465334e+01	4.011671e+02
1.310000e-06	6.425370e-06	6.111679e-09	4.531775e+01	4.025236e+02
1.320000e-06	6.517295e-06	6.132321e-09	4.596609e+01	4.037686e+02
1.330000e-06	6.606904e-06	6.151402e-09	4.659810e+01	4.049199e+02
1.340000e-06	6.694174e-06	6.169316e-09	4.721361e+01	4.060001e+02
1.350000e-06	6.779186e-06	6.187500e-09	4.781320e+01	4.070319e+02
1.360000e-06	6.861895e-06	6.204202e-09	4.839654e+01	4.080354e+02
1.370000e-06	6.942103e-06	6.220439e-09	4.896224e+01	4.090252e+02
1.380000e-06	7.019744e-06	6.237012e-09	4.950984e+01	4.100080e+02
1.390000e-06	7.094758e-06	6.252858e-09	5.003890e+01	4.109826e+02
1.400000e-06	7.167082e-06	6.268668e-09	5.054900e+01	4.119407e+02
1.410000e-06	7.236871e-06	6.284252e-09	5.104122e+01	4.128686e+02
1.420000e-06	7.304150e-06	6.297823e-09	5.151574e+01	4.137504e+02
1.430000e-06	7.368771e-06	6.309282e-09	5.197150e+01	4.145712e+02
1.440000e-06	7.430770e-06	6.319581e-09	5.240878e+01	4.153194e+02
1.450000e-06	7.490259e-06	6.329935e-09	5.282835e+01	4.159894e+02
1.460000e-06	7.547116e-06	6.340687e-09	5.322936e+01	4.165828e+02
1.470000e-06	7.601229e-06	6.351871e-09	5.361102e+01	4.171073e+02
1.480000e-06	7.652294e-06	6.362404e-09	5.397118e+01	4.175766e+02
1.490000e-06	7.700196e-06	6.372405e-09	5.430903e+01	4.180072e+02
1.500000e-06	7.745337e-06	6.382170e-09	5.462740e+01	4.184161e+02
1.510000e-06	7.787814e-06	6.390884e-09	5.492699e+01	4.188177e+02
1.520000e-06	7.827486e-06	6.398694e-09	5.520679e+01	4.192219e+02
1.530000e-06	7.864426e-06	6.406545e-09	5.546733e+01	4.196319e+02
1.540000e-06	7.898621e-06	6.413812e-09	5.570850e+01	4.200444e+02
1.550000e-06	7.929997e-06	6.419502e-09	5.592980e+01	4.204496e+02
1.560000e-06	7.958703e-06	6.426070e-09	5.613226e+01	4.208336e+02
1.570000e-06	7.984694e-06	6.431559e-09	5.631557e+01	4.211803e+02
1.580000e-06	8.007757e-06	6.437371e-09	5.647824e+01	4.214744e+02
1.590000e-06	8.027953e-06	6.443097e-09	5.662067e+01	4.217036e+02
1.600000e-06	8.045366e-06	6.446542e-09	5.674349e+01	4.218612e+02
1.610000e-06	8.059866e-06	6.450749e-09	5.684576e+01	4.219466e+02
1.620000e-06	8.071296e-06	6.453818e-09	5.692637e+01	4.219659e+02
1.630000e-06	8.079601e-06	6.456077e-09	5.698495e+01	4.219304e+02
1.640000e-06	8.085010e-06	6.456960e-09	5.702309e+01	4.218548e+02
1.650000e-06	8.087620e-06	6.459349e-09	5.704150e+01	4.217550e+02
1.660000e-06	8.087375e-06	6.462519e-09	5.703978e+01	4.216452e+02
1.670000e-06	8.084509e-06	6.455515e-09	5.701956e+01	4.215358e+02
1.680000e-06	8.079022e-06	6.451630e-09	5.698086e+01	4.214315e+02
1.690000e-06	8.070800e-06	6.451176e-09	5.692288e+01	4.213310e+02
1.700000e-06	8.059912e-06	6.450326e-09	5.684608e+01	4.212266e+02
1.710000e-06	8.046139e-06	6.448853e-09	5.674894e+01	4.211061e+02
1.720000e-06	8.029635e-06	6.448814e-09	5.663254e+01	4.209542e+02
1.730000e-06	8.010800e-06	6.452838e-09	5.649969e+01	4.207554e+02
1.740000e-06	7.989453e-06	6.402577e-09	5.634914e+01	4.204959e+02
1.750000e-06	7.964893e-06	6.338080e-09	5.617592e+01	4.201658e+02
1.760000e-06	7.936589e-06	6.371788e-09	5.597629e+01	4.197603e+02
1.770000e-06	7.904853e-06	6.411017e-09	5.575246e+01	4.192802e+02
1.780000e-06	7.870599e-06	6.415290e-09	5.551087e+01	4.187314e+02
1.790000e-06	7.834141e-06	6.418694e-09	5.525373e+01	4.181230e+02
1.800000e-06	7.795307e-06	6.437496e-09	5.497984e+01	4.174664e+02
1.810000e-06	7.754384e-06	6.326662e-09	5.469121e+01	4.167722e+02
1.820000e-06	7.711062e-06	6.341732e-09	5.438566e+01	4.160487e+02
1.830000e-06	7.664914e-06	6.404301e-09	5.406018e+01	4.153008e+02
1.840000e-06	7.616052e-06	6.276750e-09	5.371556e+01	4.145284e+02
1.850000e-06	7.564135e-06	6.328615e-09	5.334940e+01	4.137275e+02
1.860000e-06	7.509194e-06	6.306064e-09	5.296190e+01	4.128904e+02
1.870000e-06	7.451545e-06	6.294023e-09	5.255530e+01	4.120077e+02
1.880000e-06	7.391265e-06	6.276235e-09	5.213015e+01	4.110699e+02
1.890000e-06	7.328361e-06	6.225191e-09	5.168650e+01	4.100697e+02
1.900000e-06	7.262661e-06	6.283666e-09	5.122312e+01	4.090027e+02
1.910000e-06	7.194203e-06	6.169796e-09	5.074028e+01	4.078692e+02
1.920000e-06	7.123020e-06	6.187981e-09	5.023824e+01	4.066733e+02
1.930000e-06	7.049237e-06	6.218555e-09	4.971785e+01	4.054230e+02
1.940000e-06	6.972697e-06	6.163464e-09	4.917802e+01	4.041278e+02
1.950000e-06	6.893310e-06	6.124867e-09	4.861810e+01	4.027974e+02
1.960000e-06	6.811567e-06	6.097024e-09	4.804158e+01	4.014397e+02
1.970000e-06	6.727423e-06	6.141396e-09	4.744811e+01	4.000584e+02
1.980000e-06	6.640734e-06	6.051533e-09	4.683670e+01	3.986526e+02
1.990000e-06	6.551693e-06	6.046065e-09	4.620870e+01	3.972161e+02
2.000000e-06	6.460445e-06	6.050922e-09	4.556513e+01	3.957380e+02
2.010000e-06	6.366898e-06	6.003995e-09	4.490535e+01	3.942045e+02
2.020000e-06	6.270954e-06	5.968045e-09	4.422867e+01	3.926001e+02
2.030000e-06	6.172878e-06	5.957845e-09	4.353694e+01	3.909110e+02
2.040000e-06	6.072696e-06	5.953772e-09	4.283037e+01	3.891262e+02
2.050000e-06	5.970246e-06	5.871548e-09	4.210779e+01	3.872401e+02
2.060000e-06	5.865583e-06	5.855009e-09	4.136961e+01	3.852524e+02
2.070000e-06	5.758946e-06	5.846897e-09	4.061751e+01	3.831685e+02
2.080000e-06	5.650291e-06	5.809415e-09	3.985116e+01	3.809984e+02
2.090000e-06	5.539495e-06	5.747280e-09	3.906973e+01	3.787542e+02
2.100000e-06	5.426667e-06	5.732381e-09	3.827396e+01	3.764477e+02
2.110000e-06	5.311775e-06	5.712277e-09	3.746363e+01	3.740881e+02
2.120000e-06	5.194805e-06	5.659262e-09	3.663865e+01	3.716797e+02
2.130000e-06	5.075802e-06	5.625027e-09	3.579933e+01	3.692200e+02
2.140000e-06	4.954880e-06	5.596309e-09	3.494648e+01	3.666997e+02
2.150000e-06	4.832186e-06	5.550986e-09	3.408112e+01	3.641035e+02
2.160000e-06	4.707771e-06	5.494095e-09	3.320363e+01	3.614116e+02
2.170000e-06	4.581685e-06	5.462317e-09	3.231435e+01	3.586025e+02
2.180000e-06	4.453947e-06	5.416117e-09	3.141342e+01	3.556561e+02
2.190000e-06	4.324645e-06	5.356656e-09	3.050146e+01	3.525561e+02
2.200000e-06	4.193887e-06	5.304535e-09	2.957924e+01	3.492923e+02
2.210000e-06	4.061553e-06	5.270546e-09	2.864589e+01	3.458617e+02
2.220000e-06	3.927749e-06	5.217811e-09	2.770218e+01	3.422679e+02
2.230000e-06	3.792592e-06	5.155561e-09	2.674893e+01	3.385199e+02
2.240000e-06	3.656009e-06	5.104225e-09	2.578562e+01	3.346284e+02
2.250000e-06	3.518060e-06	5.051409e-09	2.481267e+01	3.306031e+02
2.260000e-06	3.378752e-06	4.982954e-09	2.383014e+01	3.264485e+02
2.270000e-06	3.238181e-06	4.913466e-09	2.283869e+01	3.221607e+02
2.280000e-06	3.096416e-06	4.850572e-09	2.183883e+01	3.177256e+02
2.290000e-06	2.953454e-06	4.777847e-09	2.083053e+01	3.131175e+02
2.300000e-06	2.809308e-06	4.699513e-09	1.981388e+01	3.083010e+02
2.310000e-06	2.664147e-06	4.625790e-09	1.879007e+01	3.032328e+02
2.320000e-06	2.518156e-06	4.550075e-09	1.776041e+01	2.978658e+02
2.330000e-06	2.371368e-06	4.457631e-09	1.672512e+01	2.921530e+02
2.340000e-06	2.223704e-06	4.362508e-09	1.568365e+01	2.860517e+02
2.350000e-06	2.075135e-06	4.271675e-09	1.463580e+01	2.795258e+02
2.360000e-06	1.925827e-06	4.170832e-09	1.358275e+01	2.725473e+02
2.370000e-06	1.775942e-06	4.053680e-09	1.252561e+01	2.650943e+02
2.380000e-06	1.625567e-06	3.932060e-09	1.146503e+01	2.571474e+02
2.390000e-06	1.474692e-06	3.807938e-09	1.040091e+01	2.486840e+02
2.400000e-06	1.323209e-06	3.670556e-09	9.332513e+00	2.396711e+02
2.410000e-06	1.171128e-06	3.522861e-09	8.259895e+00	2.300577e+02
2.420000e-06	1.018547e-06	3.369940e-09	7.183750e+00	2.197685e+02
2.430000e-06	8.655302e-07	3.202571e-09	6.104533e+00	2.087003e+02
2.440000e-06	7.122040e-07	3.015583e-09	5.023132e+00	1.967216e+02
2.450000e-06	5.586515e-07	2.813959e-09	3.940136e+00	1.836768e+02
2.460000e-06	4.049358e-07	2.595958e-09	2.855988e+00	1.693951e+02
2.470000e-06	2.511282e-07	2.355080e-09	1.771193e+00	1.537043e+02
2.480000e-06	9.727443e-08	2.092053e-09	6.860708e-01	1.364475e+02
2.490000e-06	-5.656816e-08	1.808276e-09	-3.989719e-01	1.175025e+02
2.500000e-06	-2.103560e-07	1.497139e-09	-1.483628e+00	9.680056e+01
2.510000e-06	-3.640786e-07	1.156818e-09	-2.567825e+00	7.434404e+01
2.520000e-06	-5.177131e-07	7.935157e-10	-3.651400e+00	5.021880e+01
2.530000e-06	-6.712035e-07	4.093109e-10	-4.733959e+00	2.460123e+01
2.540000e-06	-8.244894e-07	3.271489e-12	-5.815075e+00	-2.242286e+00
2.550000e-06	-9.774570e-07	-4.207789e-10	-6.893946e+00	-2.996378e+01
2.560000e-06	-1.129950e-06	-8.509347e-10	-7.969472e+00	-5.814967e+01
2.570000e-06	-1.281942e-06	-1.284130e-09	-9.041459e+00	-8.634318e+01
2.580000e-06	-1.433363e-06	-1.715876e-09	-1.010943e+01	-1.140714e+02
2.590000e-06	-1.584169e-06	-2.132531e-09	-1.117305e+01	-1.408744e+02
2.600000e-06	-1.734460e-06	-2.527785e-09	-1.223304e+01	-1.663341e+02
2.610000e-06	-1.884253e-06	-2.896578e-09	-1.328952e+01	-1.900993e+02
2.620000e-06	-2.033479e-06	-3.232701e-09	-1.434201e+01	-2.119058e+02
2.630000e-06	-2.181977e-06	-3.529244e-09	-1.538936e+01	-2.315889e+02
2.640000e-06	-2.329590e-06	-3.788675e-09	-1.643046e+01	-2.490873e+02
2.650000e-06	-2.476351e-06	-4.018101e-09	-1.746556e+01	-2.644386e+02
2.660000e-06	-2.622289e-06	-4.219567e-09	-1.849485e+01	-2.777676e+02
2.670000e-06	-2.767313e-06	-4.395115e-09	-1.951769e+01	-2.892677e+02
2.680000e-06	-2.911277e-06	-4.548348e-09	-2.053306e+01	-2.991787e+02
2.690000e-06	-3.054063e-06	-4.685182e-09	-2.154012e+01	-3.077631e+02
2.700000e-06	-3.195718e-06	-4.805519e-09	-2.253921e+01	-3.152829e+02
2.710000e-06	-3.336188e-06	-4.911617e-09	-2.352994e+01	-3.219798e+02
2.720000e-06	-3.475350e-06	-5.007888e-09	-2.451144e+01	-3.280604e+02
2.730000e-06	-3.613275e-06	-5.095727e-09	-2.548421e+01	-3.336862e+02
2.740000e-06	-3.749905e-06	-5.175820e-09	-2.644786e+01	-3.389712e+02
2.750000e-06	-3.885055e-06	-5.251307e-09	-2.740106e+01	-3.439838e+02
2.760000e-06	-4.018806e-06	-5.324318e-09	-2.834440e+01	-3.487540e+02
2.770000e-06	-4.151176e-06	-5.392944e-09	-2.927800e+01	-3.532837e+02
2.780000e-06	-4.282061e-06	-5.457252e-09	-3.020112e+01	-3.575582e+02
2.790000e-06	-4.411543e-06	-5.518434e-09	-3.111435e+01	-3.615576e+02
2.800000e-06	-4.539489e-06	-5.574656e-09	-3.201675e+01	-3.652658e+02
2.810000e-06	-4.665816e-06	-5.625847e-09	-3.290773e+01	-3.686781e+02
2.820000e-06	-4.790546e-06	-5.675645e-09	-3.378744e+01	-3.718038e+02
2.830000e-06	-4.913537e-06	-5.723437e-09	-3.465488e+01	-3.746670e+02
2.840000e-06	-5.034708e-06	-5.767367e-09	-3.550950e+01	-3.773033e+02
2.850000e-06	-5.154015e-06	-5.807464e-09	-3.635096e+01	-3.797550e+02
2.860000e-06	-5.271330e-06	-5.846101e-09	-3.717837e+01	-3.820659e+02
2.870000e-06	-5.386512e-06	-5.885267e-09	-3.799075e+01	-3.842749e+02
2.880000e-06	-5.499539e-06	-5.922432e-09	-3.878792e+01	-3.864121e+02
2.890000e-06	-5.610457e-06	-5.955720e-09	-3.957022e+01	-3.884954e+02
2.900000e-06	-5.719400e-06	-5.986901e-09	-4.033859e+01	-3.905301e+02
2.910000e-06	-5.826450e-06	-6.015715e-09	-4.109360e+01	-3.925102e+02
2.920000e-06	-5.931495e-06	-6.042427e-09	-4.183448e+01	-3.944214e+02
2.930000e-06	-6.034405e-06	-6.066654e-09	-4.256030e+01	-3.962454e+02
2.940000e-06	-6.135112e-06	-6.089658e-09	-4.327058e+01	-3.979640e+02
