# Temperatura_=_20.0
# Concentracion g/m^3_=_9000.0
# C_Vs_to_Am_M_A/Vsm_=_65563218390.804596
# pendiente_HvsI_1/m_=_3716.3
# ordenada_HvsI_A/m_=_1297.0
# frecuencia_Hz_=_301269.00210892526

Tiempo_(s)	Campo_(V.s)	Magnetizacion_(V.s)	Campo_(kA/m)	Magnetizacion_(A/m)
0.000000e+00	-8.113757e-06	-6.296550e-09	-5.698569e+01	-4.137369e+02
1.000000e-08	-8.110956e-06	-6.300819e-09	-5.696601e+01	-4.136396e+02
2.000000e-08	-8.105428e-06	-6.300908e-09	-5.692719e+01	-4.135277e+02
3.000000e-08	-8.097351e-06	-6.297146e-09	-5.687046e+01	-4.133992e+02
4.000000e-08	-8.086468e-06	-6.292037e-09	-5.679403e+01	-4.132496e+02
5.000000e-08	-8.072590e-06	-6.289317e-09	-5.669656e+01	-4.130725e+02
6.000000e-08	-8.055877e-06	-6.288150e-09	-5.657918e+01	-4.128611e+02
7.000000e-08	-8.036718e-06	-6.287332e-09	-5.644462e+01	-4.126097e+02
8.000000e-08	-8.015175e-06	-6.290714e-09	-5.629331e+01	-4.123144e+02
9.000000e-08	-7.990712e-06	-6.333720e-09	-5.612150e+01	-4.119748e+02
1.000000e-07	-7.963046e-06	-6.334652e-09	-5.592720e+01	-4.115930e+02
1.100000e-07	-7.932307e-06	-6.284780e-09	-5.571130e+01	-4.111744e+02
1.200000e-07	-7.898615e-06	-6.247523e-09	-5.547467e+01	-4.107256e+02
1.300000e-07	-7.862216e-06	-6.243924e-09	-5.521903e+01	-4.102539e+02
1.400000e-07	-7.823495e-06	-6.261303e-09	-5.494708e+01	-4.097651e+02
1.500000e-07	-7.782534e-06	-6.223717e-09	-5.465939e+01	-4.092622e+02
1.600000e-07	-7.738981e-06	-6.223125e-09	-5.435351e+01	-4.087446e+02
1.700000e-07	-7.692572e-06	-6.196884e-09	-5.402756e+01	-4.082075e+02
1.800000e-07	-7.643393e-06	-6.176735e-09	-5.368216e+01	-4.076423e+02
1.900000e-07	-7.591260e-06	-6.252401e-09	-5.331601e+01	-4.070372e+02
2.000000e-07	-7.536109e-06	-6.186037e-09	-5.292867e+01	-4.063792e+02
2.100000e-07	-7.478218e-06	-6.128775e-09	-5.252208e+01	-4.056558e+02
2.200000e-07	-7.417714e-06	-6.161924e-09	-5.209714e+01	-4.048568e+02
2.300000e-07	-7.354621e-06	-6.170283e-09	-5.165402e+01	-4.039763e+02
2.400000e-07	-7.288784e-06	-6.158008e-09	-5.119162e+01	-4.030130e+02
2.500000e-07	-7.220209e-06	-6.098245e-09	-5.070999e+01	-4.019710e+02
2.600000e-07	-7.148961e-06	-6.106697e-09	-5.020960e+01	-4.008592e+02
2.700000e-07	-7.074971e-06	-6.099416e-09	-4.968994e+01	-3.996895e+02
2.800000e-07	-6.998226e-06	-6.085099e-09	-4.915093e+01	-3.984751e+02
2.900000e-07	-6.918780e-06	-6.063229e-09	-4.859295e+01	-3.972284e+02
3.000000e-07	-6.836732e-06	-6.029878e-09	-4.801671e+01	-3.959584e+02
3.100000e-07	-6.752369e-06	-6.018906e-09	-4.742419e+01	-3.946695e+02
3.200000e-07	-6.665777e-06	-5.994635e-09	-4.681603e+01	-3.933602e+02
3.300000e-07	-6.576856e-06	-6.004640e-09	-4.619151e+01	-3.920231e+02
3.400000e-07	-6.485547e-06	-5.960503e-09	-4.555021e+01	-3.906456e+02
3.500000e-07	-6.391880e-06	-5.914284e-09	-4.489236e+01	-3.892120e+02
3.600000e-07	-6.295993e-06	-5.913166e-09	-4.421891e+01	-3.877054e+02
3.700000e-07	-6.197837e-06	-5.910408e-09	-4.352952e+01	-3.861103e+02
3.800000e-07	-6.097378e-06	-5.862830e-09	-4.282397e+01	-3.844147e+02
3.900000e-07	-5.994684e-06	-5.817559e-09	-4.210271e+01	-3.826122e+02
4.000000e-07	-5.889922e-06	-5.818095e-09	-4.136694e+01	-3.807023e+02
4.100000e-07	-5.783080e-06	-5.791181e-09	-4.061655e+01	-3.786907e+02
4.200000e-07	-5.674125e-06	-5.748987e-09	-3.985132e+01	-3.765878e+02
4.300000e-07	-5.563070e-06	-5.712898e-09	-3.907134e+01	-3.744069e+02
4.400000e-07	-5.449954e-06	-5.690353e-09	-3.827689e+01	-3.721612e+02
4.500000e-07	-5.334740e-06	-5.648940e-09	-3.746770e+01	-3.698618e+02
4.600000e-07	-5.217378e-06	-5.612143e-09	-3.664343e+01	-3.675151e+02
4.700000e-07	-5.098041e-06	-5.580542e-09	-3.580529e+01	-3.651207e+02
4.800000e-07	-4.976944e-06	-5.539302e-09	-3.495478e+01	-3.626719e+02
4.900000e-07	-4.854080e-06	-5.498937e-09	-3.409186e+01	-3.601550e+02
5.000000e-07	-4.729483e-06	-5.465759e-09	-3.321677e+01	-3.575518e+02
5.100000e-07	-4.603220e-06	-5.427114e-09	-3.232999e+01	-3.548415e+02
5.200000e-07	-4.475246e-06	-5.372060e-09	-3.143118e+01	-3.520033e+02
5.300000e-07	-4.345673e-06	-5.327557e-09	-3.052114e+01	-3.490195e+02
5.400000e-07	-4.214494e-06	-5.285609e-09	-2.959983e+01	-3.458773e+02
5.500000e-07	-4.081802e-06	-5.233467e-09	-2.866789e+01	-3.425702e+02
5.600000e-07	-3.947627e-06	-5.171475e-09	-2.772553e+01	-3.390979e+02
5.700000e-07	-3.811960e-06	-5.122540e-09	-2.677270e+01	-3.354652e+02
5.800000e-07	-3.674944e-06	-5.073857e-09	-2.581039e+01	-3.316795e+02
5.900000e-07	-3.536593e-06	-5.010769e-09	-2.483870e+01	-3.277481e+02
6.000000e-07	-3.396753e-06	-4.942365e-09	-2.385656e+01	-3.236748e+02
6.100000e-07	-3.255506e-06	-4.879199e-09	-2.286453e+01	-3.194568e+02
6.200000e-07	-3.113079e-06	-4.817384e-09	-2.186422e+01	-3.150831e+02
6.300000e-07	-2.969514e-06	-4.742421e-09	-2.085591e+01	-3.105329e+02
6.400000e-07	-2.824810e-06	-4.663294e-09	-1.983960e+01	-3.057768e+02
6.500000e-07	-2.679022e-06	-4.581839e-09	-1.881569e+01	-3.007780e+02
6.600000e-07	-2.532286e-06	-4.500520e-09	-1.778511e+01	-2.954958e+02
6.700000e-07	-2.384691e-06	-4.414857e-09	-1.674850e+01	-2.898883e+02
6.800000e-07	-2.236331e-06	-4.324383e-09	-1.570652e+01	-2.839161e+02
6.900000e-07	-2.087310e-06	-4.225299e-09	-1.465989e+01	-2.775442e+02
7.000000e-07	-1.937609e-06	-4.119833e-09	-1.360849e+01	-2.707433e+02
7.100000e-07	-1.787138e-06	-4.012929e-09	-1.255168e+01	-2.634882e+02
7.200000e-07	-1.635950e-06	-3.898316e-09	-1.148983e+01	-2.557554e+02
7.300000e-07	-1.484186e-06	-3.772322e-09	-1.042395e+01	-2.475177e+02
7.400000e-07	-1.331960e-06	-3.633197e-09	-9.354810e+00	-2.387390e+02
7.500000e-07	-1.179321e-06	-3.492042e-09	-8.282775e+00	-2.293678e+02
7.600000e-07	-1.026293e-06	-3.341668e-09	-7.208005e+00	-2.193320e+02
7.700000e-07	-8.728894e-07	-3.172509e-09	-6.130601e+00	-2.085358e+02
7.800000e-07	-7.191786e-07	-2.986970e-09	-5.051037e+00	-1.968598e+02
7.900000e-07	-5.652383e-07	-2.791706e-09	-3.969862e+00	-1.841641e+02
8.000000e-07	-4.110911e-07	-2.582662e-09	-2.887233e+00	-1.702962e+02
8.100000e-07	-2.566898e-07	-2.349581e-09	-1.802820e+00	-1.551027e+02
8.200000e-07	-1.021206e-07	-2.094160e-09	-7.172279e-01	-1.384436e+02
8.300000e-07	5.243076e-08	-1.815070e-09	3.682391e-01	-1.202088e+02
8.400000e-07	2.069117e-07	-1.512769e-09	1.453212e+00	-1.003353e+02
8.500000e-07	3.612745e-07	-1.186020e-09	2.537354e+00	-7.882147e+01
8.600000e-07	5.154702e-07	-8.350497e-10	3.620324e+00	-5.573920e+01
8.700000e-07	6.694204e-07	-4.608618e-10	4.701568e+00	-3.124025e+01
8.800000e-07	8.231420e-07	-6.991660e-11	5.781207e+00	-5.556613e+00
8.900000e-07	9.766015e-07	3.327118e-10	6.859006e+00	2.100589e+01
9.000000e-07	1.129710e-06	7.462152e-10	7.934341e+00	4.808067e+01
9.100000e-07	1.282486e-06	1.161657e-09	9.007339e+00	7.525911e+01
9.200000e-07	1.434807e-06	1.572609e-09	1.007714e+01	1.021136e+02
9.300000e-07	1.586589e-06	1.971613e-09	1.114316e+01	1.282226e+02
9.400000e-07	1.737828e-06	2.354726e-09	1.220536e+01	1.531962e+02
9.500000e-07	1.888443e-06	2.716590e-09	1.326318e+01	1.766984e+02
9.600000e-07	2.038369e-06	3.049266e-09	1.431616e+01	1.984662e+02
9.700000e-07	2.187524e-06	3.348185e-09	1.536373e+01	2.183213e+02
9.800000e-07	2.335880e-06	3.613520e-09	1.640568e+01	2.361761e+02
9.900000e-07	2.483420e-06	3.848930e-09	1.744191e+01	2.520313e+02
1.000000e-06	2.630087e-06	4.055838e-09	1.847200e+01	2.659678e+02
1.010000e-06	2.775794e-06	4.237791e-09	1.949535e+01	2.781322e+02
1.020000e-06	2.920499e-06	4.397875e-09	2.051166e+01	2.887185e+02
1.030000e-06	3.064143e-06	4.538583e-09	2.152052e+01	2.979486e+02
1.040000e-06	3.206612e-06	4.664697e-09	2.252113e+01	3.060520e+02
1.050000e-06	3.347894e-06	4.780588e-09	2.351341e+01	3.132483e+02
1.060000e-06	3.487943e-06	4.883602e-09	2.449702e+01	3.197325e+02
1.070000e-06	3.626595e-06	4.974613e-09	2.547082e+01	3.256658e+02
1.080000e-06	3.763860e-06	5.056130e-09	2.643487e+01	3.311707e+02
1.090000e-06	3.899794e-06	5.132972e-09	2.738959e+01	3.363312e+02
1.100000e-06	4.034241e-06	5.206468e-09	2.833386e+01	3.411971e+02
1.110000e-06	4.167242e-06	5.272954e-09	2.926796e+01	3.457909e+02
1.120000e-06	4.298775e-06	5.335152e-09	3.019177e+01	3.501169e+02
1.130000e-06	4.428691e-06	5.393842e-09	3.110421e+01	3.541701e+02
1.140000e-06	4.557103e-06	5.448886e-09	3.200609e+01	3.579445e+02
1.150000e-06	4.683931e-06	5.498412e-09	3.289685e+01	3.614392e+02
1.160000e-06	4.809107e-06	5.544423e-09	3.377600e+01	3.646621e+02
1.170000e-06	4.932606e-06	5.588905e-09	3.464338e+01	3.676311e+02
1.180000e-06	5.054325e-06	5.630317e-09	3.549825e+01	3.703731e+02
1.190000e-06	5.174260e-06	5.669438e-09	3.634059e+01	3.729210e+02
1.200000e-06	5.292313e-06	5.706612e-09	3.716973e+01	3.753093e+02
1.210000e-06	5.408328e-06	5.742361e-09	3.798454e+01	3.775707e+02
1.220000e-06	5.522231e-06	5.774843e-09	3.878452e+01	3.797319e+02
1.230000e-06	5.633990e-06	5.805028e-09	3.956943e+01	3.818113e+02
1.240000e-06	5.743724e-06	5.834318e-09	4.034014e+01	3.838183e+02
1.250000e-06	5.851535e-06	5.861550e-09	4.109733e+01	3.857533e+02
1.260000e-06	5.957322e-06	5.888143e-09	4.184030e+01	3.876101e+02
1.270000e-06	6.060896e-06	5.913838e-09	4.256774e+01	3.893787e+02
1.280000e-06	6.162219e-06	5.937906e-09	4.327937e+01	3.910481e+02
1.290000e-06	6.261354e-06	5.959509e-09	4.397563e+01	3.926097e+02
1.300000e-06	6.358190e-06	5.980754e-09	4.465574e+01	3.940596e+02
1.310000e-06	6.452714e-06	6.001912e-09	4.531962e+01	3.953998e+02
1.320000e-06	6.545035e-06	6.022129e-09	4.596802e+01	3.966384e+02
1.330000e-06	6.635102e-06	6.041681e-09	4.660059e+01	3.977888e+02
1.340000e-06	6.722735e-06	6.061253e-09	4.721607e+01	3.988675e+02
1.350000e-06	6.808059e-06	6.080587e-09	4.781532e+01	3.998919e+02
1.360000e-06	6.891113e-06	6.097089e-09	4.839864e+01	4.008780e+02
1.370000e-06	6.971639e-06	6.112341e-09	4.896420e+01	4.018379e+02
1.380000e-06	7.049606e-06	6.127566e-09	4.951179e+01	4.027784e+02
1.390000e-06	7.124987e-06	6.142256e-09	5.004122e+01	4.037008e+02
1.400000e-06	7.197625e-06	6.155614e-09	5.055138e+01	4.046010e+02
1.410000e-06	7.267646e-06	6.167970e-09	5.104316e+01	4.054709e+02
1.420000e-06	7.335214e-06	6.181318e-09	5.151771e+01	4.063003e+02
1.430000e-06	7.400159e-06	6.195068e-09	5.197384e+01	4.070790e+02
1.440000e-06	7.462408e-06	6.207650e-09	5.241104e+01	4.077989e+02
1.450000e-06	7.522073e-06	6.218786e-09	5.283009e+01	4.084556e+02
1.460000e-06	7.579086e-06	6.229424e-09	5.323051e+01	4.090488e+02
1.470000e-06	7.633390e-06	6.239396e-09	5.361190e+01	4.095829e+02
1.480000e-06	7.684716e-06	6.248861e-09	5.397239e+01	4.100661e+02
1.490000e-06	7.732861e-06	6.258471e-09	5.431053e+01	4.105088e+02
1.500000e-06	7.778195e-06	6.266008e-09	5.462892e+01	4.109218e+02
1.510000e-06	7.820854e-06	6.271784e-09	5.492853e+01	4.113150e+02
1.520000e-06	7.860613e-06	6.278648e-09	5.520777e+01	4.116951e+02
1.530000e-06	7.897656e-06	6.286885e-09	5.546794e+01	4.120653e+02
1.540000e-06	7.932055e-06	6.294179e-09	5.570954e+01	4.124243e+02
1.550000e-06	7.963596e-06	6.298463e-09	5.593106e+01	4.127672e+02
1.560000e-06	7.992350e-06	6.304667e-09	5.613301e+01	4.130863e+02
1.570000e-06	8.018297e-06	6.311379e-09	5.631524e+01	4.133725e+02
1.580000e-06	8.041348e-06	6.317825e-09	5.647714e+01	4.136172e+02
1.590000e-06	8.061658e-06	6.321857e-09	5.661978e+01	4.138136e+02
1.600000e-06	8.079172e-06	6.323444e-09	5.674279e+01	4.139579e+02
1.610000e-06	8.093733e-06	6.325422e-09	5.684505e+01	4.140499e+02
1.620000e-06	8.105222e-06	6.326852e-09	5.692575e+01	4.140929e+02
1.630000e-06	8.113583e-06	6.329506e-09	5.698446e+01	4.140932e+02
1.640000e-06	8.119047e-06	6.328835e-09	5.702284e+01	4.140584e+02
1.650000e-06	8.121704e-06	6.328948e-09	5.704150e+01	4.139967e+02
1.660000e-06	8.121494e-06	6.330347e-09	5.704002e+01	4.139147e+02
1.670000e-06	8.118613e-06	6.324493e-09	5.701980e+01	4.138169e+02
1.680000e-06	8.113082e-06	6.322919e-09	5.698095e+01	4.137044e+02
1.690000e-06	8.104803e-06	6.322786e-09	5.692280e+01	4.135752e+02
1.700000e-06	8.093833e-06	6.321087e-09	5.684575e+01	4.134247e+02
1.710000e-06	8.079994e-06	6.318653e-09	5.674856e+01	4.132464e+02
1.720000e-06	8.063379e-06	6.315139e-09	5.663187e+01	4.130337e+02
1.730000e-06	8.044370e-06	6.310709e-09	5.649836e+01	4.127807e+02
1.740000e-06	8.022886e-06	6.256659e-09	5.634747e+01	4.124838e+02
1.750000e-06	7.998174e-06	6.210074e-09	5.617391e+01	4.121425e+02
1.760000e-06	7.969689e-06	6.242956e-09	5.597385e+01	4.117593e+02
1.770000e-06	7.937830e-06	6.275058e-09	5.575009e+01	4.113395e+02
1.780000e-06	7.903393e-06	6.275214e-09	5.550823e+01	4.108897e+02
1.790000e-06	7.866661e-06	6.268812e-09	5.525025e+01	4.104173e+02
1.800000e-06	7.827588e-06	6.284228e-09	5.497582e+01	4.099279e+02
1.810000e-06	7.786469e-06	6.202966e-09	5.468703e+01	4.094244e+02
1.820000e-06	7.742931e-06	6.258907e-09	5.438125e+01	4.089062e+02
1.830000e-06	7.696482e-06	6.299347e-09	5.405502e+01	4.083683e+02
1.840000e-06	7.647281e-06	6.188328e-09	5.370947e+01	4.078018e+02
1.850000e-06	7.595152e-06	6.249538e-09	5.334335e+01	4.071950e+02
1.860000e-06	7.540090e-06	6.210874e-09	5.295663e+01	4.065348e+02
1.870000e-06	7.482216e-06	6.200968e-09	5.255016e+01	4.058088e+02
1.880000e-06	7.421672e-06	6.188052e-09	5.212494e+01	4.050071e+02
1.890000e-06	7.358534e-06	6.152055e-09	5.168150e+01	4.041235e+02
1.900000e-06	7.292546e-06	6.184399e-09	5.121804e+01	4.031572e+02
1.910000e-06	7.223751e-06	6.093582e-09	5.073487e+01	4.021126e+02
1.920000e-06	7.152215e-06	6.119992e-09	5.023245e+01	4.009984e+02
1.930000e-06	7.078060e-06	6.116879e-09	4.971163e+01	3.998269e+02
1.940000e-06	7.001176e-06	6.073767e-09	4.917166e+01	3.986111e+02
1.950000e-06	6.921449e-06	6.051833e-09	4.861170e+01	3.973633e+02
1.960000e-06	6.839354e-06	6.036676e-09	4.803512e+01	3.960926e+02
1.970000e-06	6.754912e-06	6.060543e-09	4.744206e+01	3.948031e+02
1.980000e-06	6.667970e-06	5.977214e-09	4.683143e+01	3.934929e+02
1.990000e-06	6.578628e-06	5.980117e-09	4.620395e+01	3.921545e+02
2.000000e-06	6.486992e-06	5.969584e-09	4.556036e+01	3.907753e+02
2.010000e-06	6.393063e-06	5.929799e-09	4.490067e+01	3.893394e+02
2.020000e-06	6.296803e-06	5.903647e-09	4.422460e+01	3.878298e+02
2.030000e-06	6.198347e-06	5.893666e-09	4.353311e+01	3.862312e+02
2.040000e-06	6.097740e-06	5.874552e-09	4.282651e+01	3.845318e+02
2.050000e-06	5.994840e-06	5.809507e-09	4.210381e+01	3.827254e+02
2.060000e-06	5.889706e-06	5.798790e-09	4.136542e+01	3.808117e+02
2.070000e-06	5.782547e-06	5.780210e-09	4.061280e+01	3.787967e+02
2.080000e-06	5.673379e-06	5.744949e-09	3.984608e+01	3.766907e+02
2.090000e-06	5.562137e-06	5.692156e-09	3.906479e+01	3.745072e+02
2.100000e-06	5.448805e-06	5.673948e-09	3.826882e+01	3.722594e+02
2.110000e-06	5.333391e-06	5.647722e-09	3.745823e+01	3.699583e+02
2.120000e-06	5.215917e-06	5.604179e-09	3.663317e+01	3.676098e+02
2.130000e-06	5.096371e-06	5.568679e-09	3.579355e+01	3.652136e+02
2.140000e-06	4.974945e-06	5.532508e-09	3.494074e+01	3.627626e+02
2.150000e-06	4.851676e-06	5.487279e-09	3.407498e+01	3.602429e+02
2.160000e-06	4.726634e-06	5.439466e-09	3.319676e+01	3.576362e+02
2.170000e-06	4.600020e-06	5.407666e-09	3.230751e+01	3.549216e+02
2.180000e-06	4.471754e-06	5.360279e-09	3.140666e+01	3.520785e+02
2.190000e-06	4.341898e-06	5.306093e-09	3.049463e+01	3.490892e+02
2.200000e-06	4.210509e-06	5.259384e-09	2.957185e+01	3.459411e+02
2.210000e-06	4.077636e-06	5.223140e-09	2.863863e+01	3.426281e+02
2.220000e-06	3.943409e-06	5.169066e-09	2.769591e+01	3.391499e+02
2.230000e-06	3.807699e-06	5.110400e-09	2.674277e+01	3.355116e+02
2.240000e-06	3.670442e-06	5.059361e-09	2.577877e+01	3.317205e+02
2.250000e-06	3.531751e-06	5.005067e-09	2.480469e+01	3.277840e+02
2.260000e-06	3.391761e-06	4.940184e-09	2.382150e+01	3.237055e+02
2.270000e-06	3.250659e-06	4.875140e-09	2.283049e+01	3.194822e+02
2.280000e-06	3.108327e-06	4.811703e-09	2.183084e+01	3.151026e+02
2.290000e-06	2.964708e-06	4.738027e-09	2.082216e+01	3.105456e+02
2.300000e-06	2.819921e-06	4.660176e-09	1.980527e+01	3.057814e+02
2.310000e-06	2.674178e-06	4.585932e-09	1.878167e+01	3.007732e+02
2.320000e-06	2.527499e-06	4.509753e-09	1.775149e+01	2.954800e+02
2.330000e-06	2.379896e-06	4.420040e-09	1.671482e+01	2.898601e+02
2.340000e-06	2.231546e-06	4.328842e-09	1.567291e+01	2.838742e+02
2.350000e-06	2.082446e-06	4.238752e-09	1.462573e+01	2.774874e+02
2.360000e-06	1.932614e-06	4.138015e-09	1.357341e+01	2.706707e+02
2.370000e-06	1.782165e-06	4.026088e-09	1.251675e+01	2.633989e+02
2.380000e-06	1.631121e-06	3.911081e-09	1.145592e+01	2.556485e+02
2.390000e-06	1.479455e-06	3.789526e-09	1.039072e+01	2.473922e+02
2.400000e-06	1.327183e-06	3.654013e-09	9.321259e+00	2.385933e+02
2.410000e-06	1.174393e-06	3.510154e-09	8.248165e+00	2.291997e+02
2.420000e-06	1.021220e-06	3.359920e-09	7.172374e+00	2.191384e+02
2.430000e-06	8.677764e-07	3.195276e-09	6.094690e+00	2.083131e+02
2.440000e-06	7.140382e-07	3.012389e-09	5.014934e+00	1.966031e+02
2.450000e-06	5.599691e-07	2.816251e-09	3.932854e+00	1.838682e+02
2.460000e-06	4.056829e-07	2.603353e-09	2.849249e+00	1.699555e+02
2.470000e-06	2.512181e-07	2.369447e-09	1.764391e+00	1.547119e+02
2.480000e-06	9.662265e-08	2.115481e-09	6.786139e-01	1.379981e+02
2.490000e-06	-5.799590e-08	1.839261e-09	-4.073250e-01	1.197056e+02
2.500000e-06	-2.125273e-07	1.537659e-09	-1.492652e+00	9.977302e+01
2.510000e-06	-3.669070e-07	1.211286e-09	-2.576913e+00	7.820144e+01
2.520000e-06	-5.211031e-07	8.635694e-10	-3.659885e+00	5.506544e+01
2.530000e-06	-6.750599e-07	4.945636e-10	-4.741177e+00	3.051968e+01
2.540000e-06	-8.287427e-07	1.055660e-10	-5.820543e+00	4.798954e+00
2.550000e-06	-9.821231e-07	-3.000730e-10	-6.897786e+00	-2.178851e+01
2.560000e-06	-1.135204e-06	-7.135554e-10	-7.972923e+00	-4.887425e+01
2.570000e-06	-1.287941e-06	-1.130407e-09	-9.045649e+00	-7.604855e+01
2.580000e-06	-1.440185e-06	-1.545617e-09	-1.011491e+01	-1.028836e+02
2.590000e-06	-1.591810e-06	-1.947646e-09	-1.117983e+01	-1.289585e+02
2.600000e-06	-1.742785e-06	-2.332032e-09	-1.224017e+01	-1.538850e+02
2.610000e-06	-1.893098e-06	-2.695016e-09	-1.329587e+01	-1.773294e+02
2.620000e-06	-2.042749e-06	-3.029008e-09	-1.434693e+01	-1.990314e+02
2.630000e-06	-2.191796e-06	-3.329586e-09	-1.539373e+01	-2.188161e+02
2.640000e-06	-2.340184e-06	-3.597251e-09	-1.643591e+01	-2.365990e+02
2.650000e-06	-2.487734e-06	-3.833736e-09	-1.747221e+01	-2.523839e+02
2.660000e-06	-2.634292e-06	-4.042438e-09	-1.850153e+01	-2.662543e+02
2.670000e-06	-2.779896e-06	-4.225292e-09	-1.952416e+01	-2.783587e+02
2.680000e-06	-2.924556e-06	-4.385736e-09	-2.054016e+01	-2.888927e+02
2.690000e-06	-3.068047e-06	-4.530047e-09	-2.154795e+01	-2.980787e+02
2.700000e-06	-3.210279e-06	-4.657538e-09	-2.254688e+01	-3.061461e+02
2.710000e-06	-3.351377e-06	-4.770886e-09	-2.353787e+01	-3.133138e+02
2.720000e-06	-3.491323e-06	-4.874565e-09	-2.452075e+01	-3.197758e+02
2.730000e-06	-3.629906e-06	-4.967899e-09	-2.549407e+01	-3.256919e+02
2.740000e-06	-3.767120e-06	-5.051870e-09	-2.645777e+01	-3.311834e+02
2.750000e-06	-3.902934e-06	-5.129189e-09	-2.741164e+01	-3.363327e+02
2.760000e-06	-4.037264e-06	-5.202894e-09	-2.835508e+01	-3.411887e+02
2.770000e-06	-4.170196e-06	-5.271389e-09	-2.928871e+01	-3.457729e+02
2.780000e-06	-4.301626e-06	-5.336391e-09	-3.021179e+01	-3.500893e+02
2.790000e-06	-4.431557e-06	-5.398746e-09	-3.112434e+01	-3.541327e+02
2.800000e-06	-4.560028e-06	-5.456132e-09	-3.202664e+01	-3.578972e+02
2.810000e-06	-4.686851e-06	-5.509222e-09	-3.291735e+01	-3.613820e+02
2.820000e-06	-4.812015e-06	-5.560948e-09	-3.379642e+01	-3.645955e+02
2.830000e-06	-4.935468e-06	-5.610464e-09	-3.466348e+01	-3.675559e+02
2.840000e-06	-5.057158e-06	-5.656188e-09	-3.551815e+01	-3.702904e+02
2.850000e-06	-5.177048e-06	-5.698661e-09	-3.636018e+01	-3.728320e+02
2.860000e-06	-5.294981e-06	-5.736452e-09	-3.718846e+01	-3.752153e+02
2.870000e-06	-5.410739e-06	-5.772845e-09	-3.800147e+01	-3.774728e+02
2.880000e-06	-5.524261e-06	-5.808678e-09	-3.879877e+01	-3.796308e+02
2.890000e-06	-5.635630e-06	-5.841991e-09	-3.958095e+01	-3.817076e+02
2.900000e-06	-5.744972e-06	-5.872857e-09	-4.034890e+01	-3.837120e+02
2.910000e-06	-5.852387e-06	-5.902012e-09	-4.110332e+01	-3.856444e+02
2.920000e-06	-5.957754e-06	-5.930616e-09	-4.184334e+01	-3.874983e+02
2.930000e-06	-6.060994e-06	-5.957234e-09	-4.256843e+01	-3.892636e+02
2.940000e-06	-6.162062e-06	-5.981746e-09	-4.327827e+01	-3.909293e+02
