# Temperatura_=_20.0
# Concentracion g/m^3_=_9000.0
# C_Vs_to_Am_M_A/Vsm_=_65563218390.804596
# pendiente_HvsI_1/m_=_3716.3
# ordenada_HvsI_A/m_=_1297.0
# frecuencia_Hz_=_301269.314234347

Tiempo_(s)	Campo_(V.s)	Magnetizacion_(V.s)	Campo_(kA/m)	Magnetizacion_(A/m)
0.000000e+00	-8.046909e-06	-6.358864e-09	-5.698765e+01	-4.180499e+02
1.000000e-08	-8.044284e-06	-6.362858e-09	-5.696906e+01	-4.179579e+02
2.000000e-08	-8.039045e-06	-6.362910e-09	-5.693196e+01	-4.178605e+02
3.000000e-08	-8.031190e-06	-6.360136e-09	-5.687633e+01	-4.177569e+02
4.000000e-08	-8.020463e-06	-6.357425e-09	-5.680036e+01	-4.176419e+02
5.000000e-08	-8.006829e-06	-6.356225e-09	-5.670380e+01	-4.175066e+02
6.000000e-08	-7.990355e-06	-6.354357e-09	-5.658714e+01	-4.173403e+02
7.000000e-08	-7.971370e-06	-6.349994e-09	-5.645269e+01	-4.171320e+02
8.000000e-08	-7.950093e-06	-6.345497e-09	-5.630201e+01	-4.168726e+02
9.000000e-08	-7.926037e-06	-6.388207e-09	-5.613164e+01	-4.165562e+02
1.000000e-07	-7.898783e-06	-6.408331e-09	-5.593863e+01	-4.161810e+02
1.100000e-07	-7.868470e-06	-6.359317e-09	-5.572395e+01	-4.157492e+02
1.200000e-07	-7.835248e-06	-6.313467e-09	-5.548868e+01	-4.152669e+02
1.300000e-07	-7.799254e-06	-6.300080e-09	-5.523378e+01	-4.147421e+02
1.400000e-07	-7.760946e-06	-6.311697e-09	-5.496248e+01	-4.141835e+02
1.500000e-07	-7.720481e-06	-6.295120e-09	-5.467591e+01	-4.135984e+02
1.600000e-07	-7.677461e-06	-6.301330e-09	-5.437124e+01	-4.129912e+02
1.700000e-07	-7.631646e-06	-6.286153e-09	-5.404678e+01	-4.123623e+02
1.800000e-07	-7.583088e-06	-6.221655e-09	-5.370290e+01	-4.117076e+02
1.900000e-07	-7.531523e-06	-6.296849e-09	-5.333772e+01	-4.110192e+02
2.000000e-07	-7.476898e-06	-6.273270e-09	-5.295087e+01	-4.102863e+02
2.100000e-07	-7.419538e-06	-6.204759e-09	-5.254465e+01	-4.094971e+02
2.200000e-07	-7.359620e-06	-6.221521e-09	-5.212031e+01	-4.086406e+02
2.300000e-07	-7.297182e-06	-6.211601e-09	-5.167814e+01	-4.077088e+02
2.400000e-07	-7.231995e-06	-6.224807e-09	-5.121649e+01	-4.066978e+02
2.500000e-07	-7.164080e-06	-6.167175e-09	-5.073552e+01	-4.056086e+02
2.600000e-07	-7.093626e-06	-6.163774e-09	-5.023656e+01	-4.044475e+02
2.700000e-07	-7.020463e-06	-6.153149e-09	-4.971843e+01	-4.032244e+02
2.800000e-07	-6.944512e-06	-6.128217e-09	-4.918055e+01	-4.019516e+02
2.900000e-07	-6.865881e-06	-6.115293e-09	-4.862369e+01	-4.006417e+02
3.000000e-07	-6.784687e-06	-6.095642e-09	-4.804868e+01	-3.993051e+02
3.100000e-07	-6.701144e-06	-6.078058e-09	-4.745703e+01	-3.979480e+02
3.200000e-07	-6.615398e-06	-6.028623e-09	-4.684979e+01	-3.965714e+02
3.300000e-07	-6.527365e-06	-6.041243e-09	-4.622634e+01	-3.951702e+02
3.400000e-07	-6.436870e-06	-6.025803e-09	-4.558547e+01	-3.937337e+02
3.500000e-07	-6.344028e-06	-5.964752e-09	-4.492797e+01	-3.922472e+02
3.600000e-07	-6.249057e-06	-5.943080e-09	-4.425538e+01	-3.906936e+02
3.700000e-07	-6.151835e-06	-5.949161e-09	-4.356687e+01	-3.890565e+02
3.800000e-07	-6.052305e-06	-5.916077e-09	-4.286200e+01	-3.873221e+02
3.900000e-07	-5.950583e-06	-5.862511e-09	-4.214162e+01	-3.854814e+02
4.000000e-07	-5.846760e-06	-5.854005e-09	-4.140635e+01	-3.835316e+02
4.100000e-07	-5.740785e-06	-5.834735e-09	-4.065584e+01	-3.814760e+02
4.200000e-07	-5.632756e-06	-5.786071e-09	-3.989079e+01	-3.793235e+02
4.300000e-07	-5.522789e-06	-5.750913e-09	-3.911201e+01	-3.770868e+02
4.400000e-07	-5.410806e-06	-5.733717e-09	-3.831895e+01	-3.747800e+02
4.500000e-07	-5.296678e-06	-5.688832e-09	-3.751071e+01	-3.724158e+02
4.600000e-07	-5.180382e-06	-5.638037e-09	-3.668710e+01	-3.700029e+02
4.700000e-07	-5.062173e-06	-5.612861e-09	-3.584995e+01	-3.675443e+02
4.800000e-07	-4.942219e-06	-5.582006e-09	-3.500045e+01	-3.650364e+02
4.900000e-07	-4.820436e-06	-5.527889e-09	-3.413799e+01	-3.624685e+02
5.000000e-07	-4.696897e-06	-5.489451e-09	-3.326310e+01	-3.598245e+02
5.100000e-07	-4.571642e-06	-5.461893e-09	-3.237605e+01	-3.570850e+02
5.200000e-07	-4.444709e-06	-5.410908e-09	-3.147712e+01	-3.542294e+02
5.300000e-07	-4.316268e-06	-5.352903e-09	-3.056751e+01	-3.512391e+02
5.400000e-07	-4.186231e-06	-5.312001e-09	-2.964660e+01	-3.480999e+02
5.500000e-07	-4.054559e-06	-5.267330e-09	-2.871411e+01	-3.448029e+02
5.600000e-07	-3.921417e-06	-5.202546e-09	-2.777120e+01	-3.413456e+02
5.700000e-07	-3.786954e-06	-5.150530e-09	-2.681894e+01	-3.377304e+02
5.800000e-07	-3.651230e-06	-5.105554e-09	-2.585776e+01	-3.339631e+02
5.900000e-07	-3.514203e-06	-5.045810e-09	-2.488734e+01	-3.300497e+02
6.000000e-07	-3.375757e-06	-4.973384e-09	-2.390687e+01	-3.259933e+02
6.100000e-07	-3.235856e-06	-4.913342e-09	-2.291611e+01	-3.217913e+02
6.200000e-07	-3.094622e-06	-4.851180e-09	-2.191590e+01	-3.174327e+02
6.300000e-07	-2.952221e-06	-4.772284e-09	-2.090742e+01	-3.128973e+02
6.400000e-07	-2.808687e-06	-4.694049e-09	-1.989093e+01	-3.081555e+02
6.500000e-07	-2.664093e-06	-4.619246e-09	-1.886692e+01	-3.031705e+02
6.600000e-07	-2.518531e-06	-4.537115e-09	-1.783606e+01	-2.979006e+02
6.700000e-07	-2.372104e-06	-4.443838e-09	-1.679907e+01	-2.923028e+02
6.800000e-07	-2.224914e-06	-4.357340e-09	-1.575669e+01	-2.863360e+02
6.900000e-07	-2.076967e-06	-4.264307e-09	-1.470894e+01	-2.799636e+02
7.000000e-07	-1.928351e-06	-4.157304e-09	-1.365645e+01	-2.731549e+02
7.100000e-07	-1.779154e-06	-4.045768e-09	-1.259984e+01	-2.658839e+02
7.200000e-07	-1.629313e-06	-3.932733e-09	-1.153868e+01	-2.581271e+02
7.300000e-07	-1.478893e-06	-3.808152e-09	-1.047342e+01	-2.498583e+02
7.400000e-07	-1.327989e-06	-3.668278e-09	-9.404725e+00	-2.410432e+02
7.500000e-07	-1.176673e-06	-3.525358e-09	-8.333117e+00	-2.316327e+02
7.600000e-07	-1.024986e-06	-3.373938e-09	-7.258879e+00	-2.215572e+02
7.700000e-07	-8.728714e-07	-3.205274e-09	-6.181615e+00	-2.107233e+02
7.800000e-07	-7.204029e-07	-3.019549e-09	-5.101843e+00	-1.990124e+02
7.900000e-07	-5.676473e-07	-2.824222e-09	-4.020039e+00	-1.862843e+02
8.000000e-07	-4.146752e-07	-2.612004e-09	-2.936701e+00	-1.723840e+02
8.100000e-07	-2.615784e-07	-2.376248e-09	-1.852480e+00	-1.571533e+02
8.200000e-07	-1.083478e-07	-2.119616e-09	-7.673118e-01	-1.404457e+02
8.300000e-07	4.494378e-08	-1.839915e-09	3.182887e-01	-1.221427e+02
8.400000e-07	1.981948e-07	-1.534847e-09	1.403602e+00	-1.021721e+02
8.500000e-07	3.513416e-07	-1.205416e-09	2.488177e+00	-8.052331e+01
8.600000e-07	5.042795e-07	-8.558005e-10	3.571272e+00	-5.726032e+01
8.700000e-07	6.569989e-07	-4.824811e-10	4.652820e+00	-3.252942e+01
8.800000e-07	8.094846e-07	-8.699714e-11	5.732714e+00	-6.560350e+00
8.900000e-07	9.616455e-07	3.224064e-10	6.810306e+00	2.033944e+01
9.000000e-07	1.113391e-06	7.413792e-10	7.884954e+00	4.779755e+01
9.100000e-07	1.264704e-06	1.165430e-09	8.956543e+00	7.539554e+01
9.200000e-07	1.415619e-06	1.585333e-09	1.002531e+01	1.026926e+02
9.300000e-07	1.566096e-06	1.991236e-09	1.109098e+01	1.292516e+02
9.400000e-07	1.716045e-06	2.379698e-09	1.215291e+01	1.546659e+02
9.500000e-07	1.865381e-06	2.745920e-09	1.321050e+01	1.785833e+02
9.600000e-07	2.014116e-06	3.082692e-09	1.426383e+01	2.007261e+02
9.700000e-07	2.162229e-06	3.385694e-09	1.531276e+01	2.209044e+02
9.800000e-07	2.309578e-06	3.655670e-09	1.635627e+01	2.390230e+02
9.900000e-07	2.455999e-06	3.893820e-09	1.739321e+01	2.550794e+02
1.000000e-06	2.601462e-06	4.102352e-09	1.842337e+01	2.691557e+02
1.010000e-06	2.745985e-06	4.285708e-09	1.944688e+01	2.814037e+02
1.020000e-06	2.889515e-06	4.449122e-09	2.046334e+01	2.920261e+02
1.030000e-06	3.031981e-06	4.590395e-09	2.147228e+01	3.012554e+02
1.040000e-06	3.173334e-06	4.713826e-09	2.247333e+01	3.093326e+02
1.050000e-06	3.313517e-06	4.826909e-09	2.346610e+01	3.164886e+02
1.060000e-06	3.452335e-06	4.928006e-09	2.444920e+01	3.229284e+02
1.070000e-06	3.589745e-06	5.017569e-09	2.542233e+01	3.288208e+02
1.080000e-06	3.725832e-06	5.099235e-09	2.638608e+01	3.342937e+02
1.090000e-06	3.860565e-06	5.177922e-09	2.734025e+01	3.394335e+02
1.100000e-06	3.993991e-06	5.252036e-09	2.828516e+01	3.442901e+02
1.110000e-06	4.126099e-06	5.320285e-09	2.922075e+01	3.488846e+02
1.120000e-06	4.256671e-06	5.384179e-09	3.014545e+01	3.532185e+02
1.130000e-06	4.385560e-06	5.443253e-09	3.105823e+01	3.572837e+02
1.140000e-06	4.512921e-06	5.496655e-09	3.196020e+01	3.610715e+02
1.150000e-06	4.638833e-06	5.544652e-09	3.285189e+01	3.645791e+02
1.160000e-06	4.763143e-06	5.590787e-09	3.373225e+01	3.678135e+02
1.170000e-06	4.885749e-06	5.634585e-09	3.460053e+01	3.707933e+02
1.180000e-06	5.006599e-06	5.675084e-09	3.545638e+01	3.735464e+02
1.190000e-06	5.125654e-06	5.714304e-09	3.629952e+01	3.761075e+02
1.200000e-06	5.242810e-06	5.752517e-09	3.712922e+01	3.785132e+02
1.210000e-06	5.357886e-06	5.789361e-09	3.794417e+01	3.807975e+02
1.220000e-06	5.470814e-06	5.824116e-09	3.874392e+01	3.829878e+02
1.230000e-06	5.581727e-06	5.857064e-09	3.952940e+01	3.851022e+02
1.240000e-06	5.690789e-06	5.887135e-09	4.030177e+01	3.871482e+02
1.250000e-06	5.797870e-06	5.914368e-09	4.106011e+01	3.891243e+02
1.260000e-06	5.902762e-06	5.939175e-09	4.180295e+01	3.910212e+02
1.270000e-06	6.005519e-06	5.963062e-09	4.253067e+01	3.928257e+02
1.280000e-06	6.106181e-06	5.985691e-09	4.324355e+01	3.945245e+02
1.290000e-06	6.204558e-06	6.007197e-09	4.394025e+01	3.961072e+02
1.300000e-06	6.300651e-06	6.029762e-09	4.462078e+01	3.975695e+02
1.310000e-06	6.394588e-06	6.052257e-09	4.528603e+01	3.989141e+02
1.320000e-06	6.486309e-06	6.073414e-09	4.593559e+01	4.001515e+02
1.330000e-06	6.575719e-06	6.093325e-09	4.656879e+01	4.012979e+02
1.340000e-06	6.662754e-06	6.113064e-09	4.718516e+01	4.023736e+02
1.350000e-06	6.747482e-06	6.130834e-09	4.778520e+01	4.033997e+02
1.360000e-06	6.829852e-06	6.147216e-09	4.836854e+01	4.043950e+02
1.370000e-06	6.909750e-06	6.162369e-09	4.893437e+01	4.053735e+02
1.380000e-06	6.987185e-06	6.176993e-09	4.948276e+01	4.063430e+02
1.390000e-06	7.062037e-06	6.191749e-09	5.001285e+01	4.073038e+02
1.400000e-06	7.134234e-06	6.206411e-09	5.052415e+01	4.082496e+02
1.410000e-06	7.203890e-06	6.221004e-09	5.101745e+01	4.091693e+02
1.420000e-06	7.271006e-06	6.233860e-09	5.149276e+01	4.100491e+02
1.430000e-06	7.335486e-06	6.245846e-09	5.194940e+01	4.108751e+02
1.440000e-06	7.397445e-06	6.257480e-09	5.238819e+01	4.116364e+02
1.450000e-06	7.456931e-06	6.268855e-09	5.280947e+01	4.123263e+02
1.460000e-06	7.513722e-06	6.278774e-09	5.321166e+01	4.129442e+02
1.470000e-06	7.567727e-06	6.288156e-09	5.359412e+01	4.134953e+02
1.480000e-06	7.618741e-06	6.298312e-09	5.395539e+01	4.139899e+02
1.490000e-06	7.666645e-06	6.308586e-09	5.429464e+01	4.144412e+02
1.500000e-06	7.711757e-06	6.317955e-09	5.461412e+01	4.148638e+02
1.510000e-06	7.754173e-06	6.324898e-09	5.491452e+01	4.152705e+02
1.520000e-06	7.793752e-06	6.330671e-09	5.519481e+01	4.156708e+02
1.530000e-06	7.830607e-06	6.338808e-09	5.545581e+01	4.160693e+02
1.540000e-06	7.864831e-06	6.347428e-09	5.569819e+01	4.164647e+02
1.550000e-06	7.896278e-06	6.353848e-09	5.592089e+01	4.168507e+02
1.560000e-06	7.924958e-06	6.358566e-09	5.612401e+01	4.172170e+02
1.570000e-06	7.950844e-06	6.362697e-09	5.630732e+01	4.175512e+02
1.580000e-06	7.973853e-06	6.367365e-09	5.647027e+01	4.178409e+02
1.590000e-06	7.994116e-06	6.372502e-09	5.661377e+01	4.180759e+02
1.600000e-06	8.011577e-06	6.377700e-09	5.673743e+01	4.182499e+02
1.610000e-06	8.026120e-06	6.381123e-09	5.684042e+01	4.183615e+02
1.620000e-06	8.037636e-06	6.383706e-09	5.692198e+01	4.184144e+02
1.630000e-06	8.046099e-06	6.385046e-09	5.698192e+01	4.184164e+02
1.640000e-06	8.051709e-06	6.384189e-09	5.702164e+01	4.183785e+02
1.650000e-06	8.054513e-06	6.386281e-09	5.704150e+01	4.183127e+02
1.660000e-06	8.054470e-06	6.388631e-09	5.704120e+01	4.182296e+02
1.670000e-06	8.051746e-06	6.383120e-09	5.702191e+01	4.181374e+02
1.680000e-06	8.046354e-06	6.380462e-09	5.698372e+01	4.180398e+02
1.690000e-06	8.038249e-06	6.380457e-09	5.692632e+01	4.179359e+02
1.700000e-06	8.027542e-06	6.379927e-09	5.685049e+01	4.178203e+02
1.710000e-06	8.013996e-06	6.379149e-09	5.675457e+01	4.176840e+02
1.720000e-06	7.997666e-06	6.379104e-09	5.663891e+01	4.175163e+02
1.730000e-06	7.978983e-06	6.378543e-09	5.650660e+01	4.173063e+02
1.740000e-06	7.957864e-06	6.339726e-09	5.635704e+01	4.170449e+02
1.750000e-06	7.933592e-06	6.270136e-09	5.618515e+01	4.167264e+02
1.760000e-06	7.905585e-06	6.296096e-09	5.598680e+01	4.163491e+02
1.770000e-06	7.874112e-06	6.335752e-09	5.576391e+01	4.159154e+02
1.780000e-06	7.840030e-06	6.342832e-09	5.552255e+01	4.154314e+02
1.790000e-06	7.803791e-06	6.343642e-09	5.526590e+01	4.149052e+02
1.800000e-06	7.765220e-06	6.360357e-09	5.499275e+01	4.143455e+02
1.810000e-06	7.724535e-06	6.270027e-09	5.470462e+01	4.137595e+02
1.820000e-06	7.681503e-06	6.280376e-09	5.439987e+01	4.131515e+02
1.830000e-06	7.635616e-06	6.373363e-09	5.407490e+01	4.125217e+02
1.840000e-06	7.587026e-06	6.258414e-09	5.373079e+01	4.118660e+02
1.850000e-06	7.535583e-06	6.290652e-09	5.336648e+01	4.111761e+02
1.860000e-06	7.481140e-06	6.265205e-09	5.298091e+01	4.104414e+02
1.870000e-06	7.423891e-06	6.248659e-09	5.257548e+01	4.096499e+02
1.880000e-06	7.364041e-06	6.263682e-09	5.215163e+01	4.087908e+02
1.890000e-06	7.301630e-06	6.196332e-09	5.170963e+01	4.078562e+02
1.900000e-06	7.236398e-06	6.245317e-09	5.124767e+01	4.068422e+02
1.910000e-06	7.168340e-06	6.152394e-09	5.076569e+01	4.057504e+02
1.920000e-06	7.097560e-06	6.151009e-09	5.026443e+01	4.045868e+02
1.930000e-06	7.024167e-06	6.187933e-09	4.974466e+01	4.033616e+02
1.940000e-06	6.948067e-06	6.133247e-09	4.920573e+01	4.020873e+02
1.950000e-06	6.869144e-06	6.104825e-09	4.864680e+01	4.007762e+02
1.960000e-06	6.787859e-06	6.067164e-09	4.807115e+01	3.994388e+02
1.970000e-06	6.704206e-06	6.118306e-09	4.747872e+01	3.980810e+02
1.980000e-06	6.618011e-06	6.043425e-09	4.686830e+01	3.967036e+02
1.990000e-06	6.529412e-06	6.013693e-09	4.624084e+01	3.953013e+02
2.000000e-06	6.438597e-06	6.022656e-09	4.559770e+01	3.938633e+02
2.010000e-06	6.345612e-06	5.977901e-09	4.493919e+01	3.923746e+02
2.020000e-06	6.250276e-06	5.954975e-09	4.426402e+01	3.908183e+02
2.030000e-06	6.152743e-06	5.933739e-09	4.357330e+01	3.891779e+02
2.040000e-06	6.053116e-06	5.932236e-09	4.286775e+01	3.874398e+02
2.050000e-06	5.951205e-06	5.855689e-09	4.214602e+01	3.855952e+02
2.060000e-06	5.847053e-06	5.832654e-09	4.140843e+01	3.836414e+02
2.070000e-06	5.740899e-06	5.827601e-09	4.065665e+01	3.815821e+02
2.080000e-06	5.632774e-06	5.791832e-09	3.989091e+01	3.794264e+02
2.090000e-06	5.522589e-06	5.731069e-09	3.911059e+01	3.771870e+02
2.100000e-06	5.410328e-06	5.707619e-09	3.831556e+01	3.748779e+02
2.110000e-06	5.296060e-06	5.698250e-09	3.750633e+01	3.725117e+02
2.120000e-06	5.179729e-06	5.645744e-09	3.668248e+01	3.700971e+02
2.130000e-06	5.061224e-06	5.606114e-09	3.584324e+01	3.676369e+02
2.140000e-06	4.940798e-06	5.574160e-09	3.499039e+01	3.651270e+02
2.150000e-06	4.818678e-06	5.532139e-09	3.412555e+01	3.625566e+02
2.160000e-06	4.694888e-06	5.473659e-09	3.324887e+01	3.599096e+02
2.170000e-06	4.569434e-06	5.442430e-09	3.236042e+01	3.571662e+02
2.180000e-06	4.442244e-06	5.402392e-09	3.145966e+01	3.543060e+02
2.190000e-06	4.313422e-06	5.343179e-09	3.054735e+01	3.513107e+02
2.200000e-06	4.183113e-06	5.290843e-09	2.962452e+01	3.481659e+02
2.210000e-06	4.051372e-06	5.258710e-09	2.869153e+01	3.448631e+02
2.220000e-06	3.918265e-06	5.209936e-09	2.774888e+01	3.414001e+02
2.230000e-06	3.783754e-06	5.144399e-09	2.679628e+01	3.377793e+02
2.240000e-06	3.647793e-06	5.091886e-09	2.583341e+01	3.340066e+02
2.250000e-06	3.510461e-06	5.042474e-09	2.486084e+01	3.300881e+02
2.260000e-06	3.371868e-06	4.978158e-09	2.387933e+01	3.260266e+02
2.270000e-06	3.232055e-06	4.909047e-09	2.288919e+01	3.218192e+02
2.280000e-06	3.091018e-06	4.847872e-09	2.189038e+01	3.174546e+02
2.290000e-06	2.948700e-06	4.777480e-09	2.088249e+01	3.129123e+02
2.300000e-06	2.805136e-06	4.698391e-09	1.986578e+01	3.081625e+02
2.310000e-06	2.660569e-06	4.623869e-09	1.884197e+01	3.031680e+02
2.320000e-06	2.515062e-06	4.550252e-09	1.781149e+01	2.978871e+02
2.330000e-06	2.368693e-06	4.458922e-09	1.677492e+01	2.922768e+02
2.340000e-06	2.221596e-06	4.363962e-09	1.573319e+01	2.862961e+02
2.350000e-06	2.073755e-06	4.275702e-09	1.468619e+01	2.799086e+02
2.360000e-06	1.925214e-06	4.177711e-09	1.363423e+01	2.730837e+02
2.370000e-06	1.776078e-06	4.062391e-09	1.257806e+01	2.657958e+02
2.380000e-06	1.626326e-06	3.945383e-09	1.151753e+01	2.580211e+02
2.390000e-06	1.475967e-06	3.827026e-09	1.045269e+01	2.497334e+02
2.400000e-06	1.325083e-06	3.693636e-09	9.384148e+00	2.408980e+02
2.410000e-06	1.173697e-06	3.548622e-09	8.312043e+00	2.314650e+02
2.420000e-06	1.021767e-06	3.398604e-09	7.236083e+00	2.213641e+02
2.430000e-06	8.693778e-07	3.234457e-09	6.156873e+00	2.105010e+02
2.440000e-06	7.166913e-07	3.049434e-09	5.075558e+00	1.987563e+02
2.450000e-06	5.637200e-07	2.852012e-09	3.992226e+00	1.859890e+02
2.460000e-06	4.105426e-07	2.640850e-09	2.907434e+00	1.720439e+02
2.470000e-06	2.572510e-07	2.407155e-09	1.821834e+00	1.567629e+02
2.480000e-06	1.038963e-07	2.150554e-09	7.357864e-01	1.400000e+02
2.490000e-06	-4.950090e-08	1.875065e-09	-3.505619e-01	1.216384e+02
2.500000e-06	-2.028862e-07	1.574409e-09	-1.436826e+00	1.016076e+02
2.510000e-06	-3.561671e-07	1.245214e-09	-2.522350e+00	7.989951e+01
2.520000e-06	-5.093051e-07	8.944605e-10	-3.606864e+00	5.658104e+01
2.530000e-06	-6.622514e-07	5.223227e-10	-4.690018e+00	3.180144e+01
2.540000e-06	-8.149309e-07	1.273287e-10	-5.771284e+00	5.793367e+00
2.550000e-06	-9.673824e-07	-2.850032e-10	-6.850935e+00	-2.113315e+01
2.560000e-06	-1.119436e-06	-7.033220e-10	-7.927768e+00	-4.860370e+01
2.570000e-06	-1.270891e-06	-1.126034e-09	-9.000358e+00	-7.619862e+01
2.580000e-06	-1.421803e-06	-1.549023e-09	-1.006911e+01	-1.034767e+02
2.590000e-06	-1.572157e-06	-1.957136e-09	-1.113390e+01	-1.300017e+02
2.600000e-06	-1.721943e-06	-2.347053e-09	-1.219468e+01	-1.553682e+02
2.610000e-06	-1.871147e-06	-2.718638e-09	-1.325133e+01	-1.792266e+02
2.620000e-06	-2.019674e-06	-3.061327e-09	-1.430319e+01	-2.013019e+02
2.630000e-06	-2.167516e-06	-3.368051e-09	-1.535020e+01	-2.214078e+02
2.640000e-06	-2.314650e-06	-3.639947e-09	-1.639219e+01	-2.394523e+02
2.650000e-06	-2.460984e-06	-3.879276e-09	-1.742852e+01	-2.554361e+02
2.660000e-06	-2.606491e-06	-4.089879e-09	-1.845899e+01	-2.694442e+02
2.670000e-06	-2.751146e-06	-4.273437e-09	-1.948343e+01	-2.816305e+02
2.680000e-06	-2.894750e-06	-4.433823e-09	-2.050042e+01	-2.921990e+02
2.690000e-06	-3.037119e-06	-4.577568e-09	-2.150867e+01	-3.013831e+02
2.700000e-06	-3.178218e-06	-4.705393e-09	-2.250792e+01	-3.094236e+02
2.710000e-06	-3.318054e-06	-4.819153e-09	-2.349823e+01	-3.165507e+02
2.720000e-06	-3.456671e-06	-4.921699e-09	-2.447990e+01	-3.229683e+02
2.730000e-06	-3.594117e-06	-5.014128e-09	-2.545329e+01	-3.288438e+02
2.740000e-06	-3.730277e-06	-5.098336e-09	-2.641756e+01	-3.343036e+02
2.750000e-06	-3.864956e-06	-5.177040e-09	-2.737135e+01	-3.394326e+02
2.760000e-06	-3.998164e-06	-5.250979e-09	-2.831472e+01	-3.442797e+02
2.770000e-06	-4.130034e-06	-5.319069e-09	-2.924861e+01	-3.488650e+02
2.780000e-06	-4.260542e-06	-5.382630e-09	-3.017286e+01	-3.531895e+02
2.790000e-06	-4.389588e-06	-5.444028e-09	-3.108676e+01	-3.572450e+02
2.800000e-06	-4.517070e-06	-5.502005e-09	-3.198958e+01	-3.610228e+02
2.810000e-06	-4.642873e-06	-5.553768e-09	-3.288050e+01	-3.645205e+02
2.820000e-06	-4.767078e-06	-5.603840e-09	-3.376011e+01	-3.677455e+02
2.830000e-06	-4.889654e-06	-5.653767e-09	-3.462819e+01	-3.707166e+02
2.840000e-06	-5.010472e-06	-5.702498e-09	-3.548382e+01	-3.734623e+02
2.850000e-06	-5.129366e-06	-5.747265e-09	-3.632582e+01	-3.760172e+02
2.860000e-06	-5.246169e-06	-5.785480e-09	-3.715301e+01	-3.784181e+02
2.870000e-06	-5.360911e-06	-5.822959e-09	-3.796560e+01	-3.806987e+02
2.880000e-06	-5.473509e-06	-5.858031e-09	-3.876301e+01	-3.828861e+02
2.890000e-06	-5.584027e-06	-5.890576e-09	-3.954569e+01	-3.849979e+02
2.900000e-06	-5.692639e-06	-5.921211e-09	-4.031487e+01	-3.870416e+02
2.910000e-06	-5.799314e-06	-5.949179e-09	-4.107034e+01	-3.890151e+02
2.920000e-06	-5.903973e-06	-5.976262e-09	-4.181153e+01	-3.909089e+02
2.930000e-06	-6.006463e-06	-6.003505e-09	-4.253735e+01	-3.927099e+02
2.940000e-06	-6.106762e-06	-6.031841e-09	-4.324766e+01	-3.944048e+02
