# Temperatura_=_20.0
# Concentracion g/m^3_=_9000.0
# C_Vs_to_Am_M_A/Vsm_=_65563218390.804596
# pendiente_HvsI_1/m_=_3716.3
# ordenada_HvsI_A/m_=_1297.0
# frecuencia_Hz_=_301274.29622512206

Tiempo_(s)	Campo_(V.s)	Magnetizacion_(V.s)	Campo_(kA/m)	Magnetizacion_(A/m)
0.000000e+00	-8.113951e-06	-1.274001e-10	-5.698133e+01	-9.677297e+00
1.000000e-08	-8.111729e-06	-1.337537e-10	-5.696573e+01	-9.710322e+00
2.000000e-08	-8.106772e-06	-1.376424e-10	-5.693091e+01	-9.739872e+00
3.000000e-08	-8.099286e-06	-1.386035e-10	-5.687834e+01	-9.767499e+00
4.000000e-08	-8.089028e-06	-1.388730e-10	-5.680631e+01	-9.794770e+00
5.000000e-08	-8.075832e-06	-1.338681e-10	-5.671364e+01	-9.822849e+00
6.000000e-08	-8.059708e-06	-1.282941e-10	-5.660040e+01	-9.852105e+00
7.000000e-08	-8.040990e-06	-1.292280e-10	-5.646895e+01	-9.881806e+00
8.000000e-08	-8.019952e-06	-1.209906e-10	-5.632121e+01	-9.909960e+00
9.000000e-08	-7.996152e-06	-1.746692e-10	-5.615407e+01	-9.933342e+00
1.000000e-07	-7.969146e-06	-2.088412e-10	-5.596442e+01	-9.947728e+00
1.100000e-07	-7.939085e-06	-1.594549e-10	-5.575331e+01	-9.948310e+00
1.200000e-07	-7.906174e-06	-1.320938e-10	-5.552219e+01	-9.930254e+00
1.300000e-07	-7.870462e-06	-1.102843e-10	-5.527140e+01	-9.889339e+00
1.400000e-07	-7.832261e-06	-1.048458e-10	-5.500313e+01	-9.822572e+00
1.500000e-07	-7.791757e-06	-1.116925e-10	-5.471868e+01	-9.728714e+00
1.600000e-07	-7.748729e-06	-1.843643e-10	-5.441651e+01	-9.608628e+00
1.700000e-07	-7.702908e-06	-2.195763e-10	-5.409473e+01	-9.465380e+00
1.800000e-07	-7.654316e-06	-4.944186e-11	-5.375349e+01	-9.304081e+00
1.900000e-07	-7.602780e-06	-1.659064e-10	-5.339156e+01	-9.131467e+00
2.000000e-07	-7.548228e-06	-2.047048e-10	-5.300846e+01	-8.955252e+00
2.100000e-07	-7.490922e-06	-1.020443e-10	-5.260602e+01	-8.783346e+00
2.200000e-07	-7.430983e-06	-1.325764e-10	-5.218510e+01	-8.623008e+00
2.300000e-07	-7.368496e-06	-8.059535e-11	-5.174627e+01	-8.480058e+00
2.400000e-07	-7.303260e-06	-1.304728e-10	-5.128814e+01	-8.358239e+00
2.500000e-07	-7.235248e-06	-1.221596e-10	-5.081052e+01	-8.258811e+00
2.600000e-07	-7.164621e-06	-1.552070e-10	-5.031453e+01	-8.180426e+00
2.700000e-07	-7.091224e-06	-1.256371e-10	-4.979909e+01	-8.119312e+00
2.800000e-07	-7.015063e-06	-1.040354e-10	-4.926424e+01	-8.069727e+00
2.900000e-07	-6.936210e-06	-1.539033e-10	-4.871049e+01	-8.024635e+00
3.000000e-07	-6.854737e-06	-1.715704e-10	-4.813833e+01	-7.976510e+00
3.100000e-07	-6.770917e-06	-1.711772e-10	-4.754969e+01	-7.918174e+00
3.200000e-07	-6.684845e-06	-9.601250e-11	-4.694524e+01	-7.843555e+00
3.300000e-07	-6.596487e-06	-1.223342e-10	-4.632474e+01	-7.748277e+00
3.400000e-07	-6.505729e-06	-1.736992e-10	-4.568737e+01	-7.630024e+00
3.500000e-07	-6.412582e-06	-1.320905e-10	-4.503324e+01	-7.488619e+00
3.600000e-07	-6.317216e-06	-9.704670e-11	-4.436351e+01	-7.325855e+00
3.700000e-07	-6.219561e-06	-1.163462e-10	-4.367772e+01	-7.145084e+00
3.800000e-07	-6.119565e-06	-1.263085e-10	-4.297548e+01	-6.950661e+00
3.900000e-07	-6.017398e-06	-1.010533e-10	-4.225800e+01	-6.747302e+00
4.000000e-07	-5.913182e-06	-1.086935e-10	-4.152613e+01	-6.539471e+00
4.100000e-07	-5.806807e-06	-1.144767e-10	-4.077910e+01	-6.330868e+00
4.200000e-07	-5.698331e-06	-9.274497e-11	-4.001731e+01	-6.124089e+00
4.300000e-07	-5.587845e-06	-9.916002e-11	-3.924140e+01	-5.920491e+00
4.400000e-07	-5.475224e-06	-1.217687e-10	-3.845051e+01	-5.720264e+00
4.500000e-07	-5.360391e-06	-1.099458e-10	-3.764408e+01	-5.522694e+00
4.600000e-07	-5.243433e-06	-8.740949e-11	-3.682272e+01	-5.326543e+00
4.700000e-07	-5.124582e-06	-1.017584e-10	-3.598808e+01	-5.130498e+00
4.800000e-07	-5.003917e-06	-1.161789e-10	-3.514069e+01	-4.933583e+00
4.900000e-07	-4.881456e-06	-8.816687e-11	-3.428069e+01	-4.735495e+00
5.000000e-07	-4.757255e-06	-7.511780e-11	-3.340847e+01	-4.536779e+00
5.100000e-07	-4.631358e-06	-8.706423e-11	-3.252435e+01	-4.338839e+00
5.200000e-07	-4.503781e-06	-8.076765e-11	-3.162842e+01	-4.143769e+00
5.300000e-07	-4.374542e-06	-5.128027e-11	-3.072082e+01	-3.954049e+00
5.400000e-07	-4.243700e-06	-4.836996e-11	-2.980196e+01	-3.772141e+00
5.500000e-07	-4.111332e-06	-6.182850e-11	-2.887239e+01	-3.600072e+00
5.600000e-07	-3.977527e-06	-5.251953e-11	-2.793273e+01	-3.439060e+00
5.700000e-07	-3.842332e-06	-5.109471e-11	-2.698330e+01	-3.289255e+00
5.800000e-07	-3.705626e-06	-6.215453e-11	-2.602326e+01	-3.149638e+00
5.900000e-07	-3.567464e-06	-6.920138e-11	-2.505300e+01	-3.018098e+00
6.000000e-07	-3.427913e-06	-6.044443e-11	-2.407299e+01	-2.891685e+00
6.100000e-07	-3.286951e-06	-6.474017e-11	-2.308307e+01	-2.766985e+00
6.200000e-07	-3.144662e-06	-6.471375e-11	-2.208382e+01	-2.640594e+00
6.300000e-07	-3.001161e-06	-4.977605e-11	-2.107606e+01	-2.509585e+00
6.400000e-07	-2.856594e-06	-4.004569e-11	-2.006082e+01	-2.371921e+00
6.500000e-07	-2.710979e-06	-3.877302e-11	-1.903822e+01	-2.226742e+00
6.600000e-07	-2.564466e-06	-3.364899e-11	-1.800931e+01	-2.074482e+00
6.700000e-07	-2.417145e-06	-1.913287e-11	-1.697473e+01	-1.916800e+00
6.800000e-07	-2.268990e-06	-2.149608e-11	-1.593429e+01	-1.756327e+00
6.900000e-07	-2.120084e-06	-2.716976e-11	-1.488858e+01	-1.596280e+00
7.000000e-07	-1.970503e-06	-2.627474e-11	-1.383812e+01	-1.439981e+00
7.100000e-07	-1.820304e-06	-2.097205e-11	-1.278333e+01	-1.290365e+00
7.200000e-07	-1.669478e-06	-2.443801e-11	-1.172414e+01	-1.149543e+00
7.300000e-07	-1.518024e-06	-2.959136e-11	-1.066053e+01	-1.018480e+00
7.400000e-07	-1.366011e-06	-2.593156e-11	-9.592999e+00	-8.968427e-01
7.500000e-07	-1.213450e-06	-2.223644e-11	-8.521618e+00	-7.830202e-01
7.600000e-07	-1.060245e-06	-1.921576e-11	-7.445717e+00	-6.743298e-01
7.700000e-07	-9.065421e-07	-1.735475e-11	-6.366316e+00	-5.673587e-01
7.800000e-07	-7.525758e-07	-1.266710e-11	-5.285066e+00	-4.583978e-01
7.900000e-07	-5.983866e-07	-1.336551e-11	-4.202252e+00	-3.438990e-01
8.000000e-07	-4.439593e-07	-1.220467e-11	-3.117765e+00	-2.208907e-01
8.100000e-07	-2.893560e-07	-1.013997e-11	-2.032042e+00	-8.729143e-02
8.200000e-07	-1.347509e-07	-8.429157e-12	-9.463067e-01	5.791840e-02
8.300000e-07	1.983310e-08	-7.074598e-12	1.392807e-01	2.146853e-01
8.400000e-07	1.744685e-07	-3.156958e-12	1.225229e+00	3.820256e-01
8.500000e-07	3.290662e-07	2.972225e-12	2.310912e+00	5.582922e-01
8.600000e-07	4.834978e-07	2.247269e-12	3.395430e+00	7.415160e-01
8.700000e-07	6.377761e-07	1.583278e-12	4.478870e+00	9.297643e-01
8.800000e-07	7.918677e-07	3.470939e-12	5.561000e+00	1.121457e+00
8.900000e-07	9.456469e-07	8.460979e-12	6.640935e+00	1.315590e+00
9.000000e-07	1.099107e-06	9.145263e-12	7.718631e+00	1.511835e+00
9.100000e-07	1.252195e-06	8.654955e-12	8.793711e+00	1.710495e+00
9.200000e-07	1.404728e-06	1.158980e-11	9.864896e+00	1.912348e+00
9.300000e-07	1.556568e-06	1.727096e-11	1.093121e+01	2.118380e+00
9.400000e-07	1.707726e-06	2.275155e-11	1.199274e+01	2.329489e+00
9.500000e-07	1.858274e-06	2.670090e-11	1.304998e+01	2.546190e+00
9.600000e-07	2.008207e-06	3.136178e-11	1.410291e+01	2.768390e+00
9.700000e-07	2.157495e-06	3.411748e-11	1.515130e+01	2.995264e+00
9.800000e-07	2.305945e-06	3.889028e-11	1.619381e+01	3.225269e+00
9.900000e-07	2.453559e-06	4.389870e-11	1.723045e+01	3.456284e+00
1.000000e-06	2.600430e-06	4.879846e-11	1.826187e+01	3.685877e+00
1.010000e-06	2.746487e-06	4.977587e-11	1.928758e+01	3.911630e+00
1.020000e-06	2.891572e-06	5.265760e-11	2.030646e+01	4.131502e+00
1.030000e-06	3.035537e-06	5.713848e-11	2.131747e+01	4.344143e+00
1.040000e-06	3.178336e-06	5.829291e-11	2.232030e+01	4.549124e+00
1.050000e-06	3.319865e-06	5.805508e-11	2.331421e+01	4.747029e+00
1.060000e-06	3.460092e-06	5.881073e-11	2.429897e+01	4.939403e+00
1.070000e-06	3.599083e-06	6.260306e-11	2.527505e+01	5.128541e+00
1.080000e-06	3.736743e-06	6.471786e-11	2.624179e+01	5.317153e+00
1.090000e-06	3.872904e-06	6.905148e-11	2.719800e+01	5.507954e+00
1.100000e-06	4.007595e-06	7.509021e-11	2.814388e+01	5.703225e+00
1.110000e-06	4.140875e-06	8.056456e-11	2.907987e+01	5.904423e+00
1.120000e-06	4.272716e-06	8.477393e-11	3.000573e+01	6.111888e+00
1.130000e-06	4.403066e-06	8.914432e-11	3.092113e+01	6.324695e+00
1.140000e-06	4.531804e-06	9.392883e-11	3.182521e+01	6.540674e+00
1.150000e-06	4.658845e-06	9.630073e-11	3.271738e+01	6.756602e+00
1.160000e-06	4.784290e-06	9.807283e-11	3.359833e+01	6.968534e+00
1.170000e-06	4.908111e-06	1.009983e-10	3.446788e+01	7.172232e+00
1.180000e-06	5.030246e-06	1.051982e-10	3.532559e+01	7.363646e+00
1.190000e-06	5.150581e-06	1.091053e-10	3.617066e+01	7.539352e+00
1.200000e-06	5.269004e-06	1.114044e-10	3.700230e+01	7.696926e+00
1.210000e-06	5.385485e-06	1.136151e-10	3.782031e+01	7.835173e+00
1.220000e-06	5.499897e-06	1.160678e-10	3.862378e+01	7.954205e+00
1.230000e-06	5.612110e-06	1.194029e-10	3.941181e+01	8.055355e+00
1.240000e-06	5.722219e-06	1.224303e-10	4.018507e+01	8.140946e+00
1.250000e-06	5.830361e-06	1.240700e-10	4.094451e+01	8.213951e+00
1.260000e-06	5.936548e-06	1.246264e-10	4.169022e+01	8.277607e+00
1.270000e-06	6.040534e-06	1.265216e-10	4.242048e+01	8.335015e+00
1.280000e-06	6.142227e-06	1.297436e-10	4.313463e+01	8.388813e+00
1.290000e-06	6.241840e-06	1.307829e-10	4.383418e+01	8.440934e+00
1.300000e-06	6.339183e-06	1.319706e-10	4.451778e+01	8.492495e+00
1.310000e-06	6.434146e-06	1.340255e-10	4.518467e+01	8.543812e+00
1.320000e-06	6.526880e-06	1.352546e-10	4.583591e+01	8.594528e+00
1.330000e-06	6.617403e-06	1.367563e-10	4.647162e+01	8.643836e+00
1.340000e-06	6.705576e-06	1.381982e-10	4.709083e+01	8.690725e+00
1.350000e-06	6.791433e-06	1.394453e-10	4.769377e+01	8.734245e+00
1.360000e-06	6.874986e-06	1.391061e-10	4.828053e+01	8.773709e+00
1.370000e-06	6.956019e-06	1.388073e-10	4.884960e+01	8.808830e+00
1.380000e-06	7.034497e-06	1.399965e-10	4.940072e+01	8.839760e+00
1.390000e-06	7.110419e-06	1.417993e-10	4.993389e+01	8.867046e+00
1.400000e-06	7.183652e-06	1.432077e-10	5.044818e+01	8.891502e+00
1.410000e-06	7.254248e-06	1.430039e-10	5.094395e+01	8.914045e+00
1.420000e-06	7.322313e-06	1.431642e-10	5.142195e+01	8.935520e+00
1.430000e-06	7.387776e-06	1.438705e-10	5.188167e+01	8.956553e+00
1.440000e-06	7.450593e-06	1.448292e-10	5.232281e+01	8.977460e+00
1.450000e-06	7.510860e-06	1.442925e-10	5.274604e+01	8.998234e+00
1.460000e-06	7.568541e-06	1.437910e-10	5.315111e+01	9.018605e+00
1.470000e-06	7.623480e-06	1.447211e-10	5.353693e+01	9.038168e+00
1.480000e-06	7.675429e-06	1.454759e-10	5.390175e+01	9.056548e+00
1.490000e-06	7.724189e-06	1.457413e-10	5.424417e+01	9.073571e+00
1.500000e-06	7.770049e-06	1.458932e-10	5.456623e+01	9.089405e+00
1.510000e-06	7.813263e-06	1.471717e-10	5.486971e+01	9.104632e+00
1.520000e-06	7.853650e-06	1.484832e-10	5.515334e+01	9.120252e+00
1.530000e-06	7.891240e-06	1.495686e-10	5.541732e+01	9.137580e+00
1.540000e-06	7.926170e-06	1.509928e-10	5.566262e+01	9.158082e+00
1.550000e-06	7.958303e-06	1.508000e-10	5.588827e+01	9.183148e+00
1.560000e-06	7.987662e-06	1.502892e-10	5.609445e+01	9.213859e+00
1.570000e-06	8.014235e-06	1.510613e-10	5.628106e+01	9.250773e+00
1.580000e-06	8.037859e-06	1.529325e-10	5.644697e+01	9.293787e+00
1.590000e-06	8.058701e-06	1.552593e-10	5.659333e+01	9.342087e+00
1.600000e-06	8.076800e-06	1.561812e-10	5.672044e+01	9.394217e+00
1.610000e-06	8.091959e-06	1.566536e-10	5.682689e+01	9.448251e+00
1.620000e-06	8.104083e-06	1.579844e-10	5.691203e+01	9.502054e+00
1.630000e-06	8.113059e-06	1.596171e-10	5.697507e+01	9.553584e+00
1.640000e-06	8.119027e-06	1.583712e-10	5.701698e+01	9.601193e+00
1.650000e-06	8.122209e-06	1.574014e-10	5.703933e+01	9.643870e+00
1.660000e-06	8.122519e-06	1.610579e-10	5.704150e+01	9.681381e+00
1.670000e-06	8.120081e-06	1.553927e-10	5.702438e+01	9.714275e+00
1.680000e-06	8.115041e-06	1.538433e-10	5.698899e+01	9.743743e+00
1.690000e-06	8.107251e-06	1.566681e-10	5.693428e+01	9.771348e+00
1.700000e-06	8.096775e-06	1.578336e-10	5.686071e+01	9.798648e+00
1.710000e-06	8.083504e-06	1.619858e-10	5.676751e+01	9.826784e+00
1.720000e-06	8.067403e-06	1.712923e-10	5.665444e+01	9.856093e+00
1.730000e-06	8.048890e-06	1.847691e-10	5.652443e+01	9.885797e+00
1.740000e-06	8.028038e-06	1.595330e-10	5.637800e+01	9.913858e+00
1.750000e-06	8.004193e-06	7.406778e-11	5.621054e+01	9.937013e+00
1.760000e-06	7.976614e-06	1.216456e-10	5.601687e+01	9.951007e+00
1.770000e-06	7.945416e-06	1.540364e-10	5.579777e+01	9.951020e+00
1.780000e-06	7.911445e-06	1.554940e-10	5.555921e+01	9.932232e+00
1.790000e-06	7.875234e-06	1.946077e-10	5.530491e+01	9.890452e+00
1.800000e-06	7.836650e-06	2.625146e-10	5.503395e+01	9.822742e+00
1.810000e-06	7.795933e-06	9.262336e-11	5.474800e+01	9.727936e+00
1.820000e-06	7.752973e-06	3.079141e-11	5.444632e+01	9.606973e+00
1.830000e-06	7.707141e-06	2.423648e-10	5.412446e+01	9.462997e+00
1.840000e-06	7.658527e-06	7.958398e-11	5.378305e+01	9.301187e+00
1.850000e-06	7.607039e-06	1.656528e-10	5.342148e+01	9.128323e+00
1.860000e-06	7.552511e-06	1.670238e-10	5.303854e+01	8.952144e+00
1.870000e-06	7.495173e-06	8.638104e-11	5.263588e+01	8.780548e+00
1.880000e-06	7.435205e-06	1.827153e-10	5.221475e+01	8.620758e+00
1.890000e-06	7.372620e-06	1.230615e-10	5.177523e+01	8.478528e+00
1.900000e-06	7.307225e-06	2.280827e-10	5.131599e+01	8.357519e+00
1.910000e-06	7.239032e-06	9.221759e-11	5.083709e+01	8.258897e+00
1.920000e-06	7.168104e-06	6.382955e-11	5.033899e+01	8.181223e+00
1.930000e-06	7.094524e-06	1.707687e-10	4.982227e+01	8.120646e+00
1.940000e-06	7.018213e-06	1.262382e-10	4.928636e+01	8.071364e+00
1.950000e-06	6.938988e-06	1.205007e-10	4.872999e+01	8.026309e+00
1.960000e-06	6.857332e-06	4.402429e-11	4.815655e+01	7.977955e+00
1.970000e-06	6.773325e-06	1.513491e-10	4.756660e+01	7.919150e+00
1.980000e-06	6.686723e-06	1.110085e-10	4.695843e+01	7.843872e+00
1.990000e-06	6.597754e-06	9.308272e-11	4.633363e+01	7.747818e+00
2.000000e-06	6.506660e-06	1.480357e-10	4.569391e+01	7.628744e+00
2.010000e-06	6.413349e-06	9.654632e-11	4.503862e+01	7.486551e+00
2.020000e-06	6.317568e-06	9.884343e-11	4.436598e+01	7.323094e+00
2.030000e-06	6.219540e-06	1.088182e-10	4.367757e+01	7.141773e+00
2.040000e-06	6.119427e-06	1.610740e-10	4.297452e+01	6.946966e+00
2.050000e-06	6.016980e-06	8.339314e-11	4.225506e+01	6.743389e+00
2.060000e-06	5.912202e-06	7.551227e-11	4.151925e+01	6.535488e+00
2.070000e-06	5.805473e-06	1.127723e-10	4.076973e+01	6.326929e+00
2.080000e-06	5.696778e-06	1.149666e-10	4.000640e+01	6.120265e+00
2.090000e-06	5.585899e-06	7.582557e-11	3.922774e+01	5.916806e+00
2.100000e-06	5.472997e-06	6.308464e-11	3.843487e+01	5.716707e+00
2.110000e-06	5.358086e-06	8.877485e-11	3.762789e+01	5.519226e+00
2.120000e-06	5.240972e-06	6.857504e-11	3.680544e+01	5.323117e+00
2.130000e-06	5.121745e-06	6.843443e-11	3.596815e+01	5.127070e+00
2.140000e-06	5.000692e-06	6.902118e-11	3.511805e+01	4.930130e+00
2.150000e-06	4.877871e-06	6.798591e-11	3.425552e+01	4.732021e+00
2.160000e-06	4.753339e-06	4.909466e-11	3.338098e+01	4.533320e+00
2.170000e-06	4.627098e-06	7.001291e-11	3.249443e+01	4.335459e+00
2.180000e-06	4.499115e-06	8.275055e-11	3.159565e+01	4.140553e+00
2.190000e-06	4.369538e-06	6.517746e-11	3.068568e+01	3.951087e+00
2.200000e-06	4.238461e-06	4.980319e-11	2.976517e+01	3.769515e+00
2.210000e-06	4.105895e-06	6.462297e-11	2.883421e+01	3.597842e+00
2.220000e-06	3.971827e-06	6.781466e-11	2.789270e+01	3.437251e+00
2.230000e-06	3.836346e-06	4.727428e-11	2.694126e+01	3.287850e+00
2.240000e-06	3.699473e-06	4.046000e-11	2.598006e+01	3.148579e+00
2.250000e-06	3.561245e-06	4.110359e-11	2.500933e+01	3.017294e+00
2.260000e-06	3.421668e-06	3.723356e-11	2.402913e+01	2.891018e+00
2.270000e-06	3.280740e-06	3.309106e-11	2.303945e+01	2.766331e+00
2.280000e-06	3.138528e-06	3.780098e-11	2.204074e+01	2.639837e+00
2.290000e-06	2.995088e-06	3.451774e-11	2.103342e+01	2.508636e+00
2.300000e-06	2.850529e-06	2.902442e-11	2.001823e+01	2.370727e+00
2.310000e-06	2.705075e-06	3.439536e-11	1.899676e+01	2.225296e+00
2.320000e-06	2.558755e-06	4.675359e-11	1.796920e+01	2.072823e+00
2.330000e-06	2.411476e-06	4.209715e-11	1.693492e+01	1.915007e+00
2.340000e-06	2.263341e-06	3.124533e-11	1.589462e+01	1.754507e+00
2.350000e-06	2.114409e-06	3.047180e-11	1.484873e+01	1.594554e+00
2.360000e-06	1.964596e-06	3.254910e-11	1.379665e+01	1.438463e+00
2.370000e-06	1.813968e-06	2.509394e-11	1.273884e+01	1.289147e+00
2.380000e-06	1.662848e-06	1.661039e-11	1.167758e+01	1.148681e+00
2.390000e-06	1.511250e-06	1.348116e-11	1.061296e+01	1.017985e+00
2.400000e-06	1.359027e-06	1.050197e-11	9.543956e+00	8.966769e-01
2.410000e-06	1.206265e-06	8.559436e-12	8.471159e+00	7.831055e-01
2.420000e-06	1.053162e-06	1.102515e-11	7.395977e+00	6.745544e-01
2.430000e-06	8.997040e-07	1.226088e-11	6.318294e+00	5.675926e-01
2.440000e-06	7.458101e-07	4.650733e-12	5.237553e+00	4.585087e-01
2.450000e-06	5.916776e-07	1.054988e-12	4.155137e+00	3.437688e-01
2.460000e-06	4.374763e-07	4.473603e-12	3.072237e+00	2.204282e-01
2.470000e-06	2.831293e-07	3.943082e-12	1.988314e+00	8.644138e-02
2.480000e-06	1.285373e-07	-2.355810e-12	9.026711e-01	-5.917214e-02
2.490000e-06	-2.606359e-08	-5.525803e-12	-1.830352e-01	-2.163223e-01
2.500000e-06	-1.805096e-07	-5.841959e-12	-1.267653e+00	-3.839967e-01
2.510000e-06	-3.349524e-07	-8.131552e-12	-2.352249e+00	-5.605304e-01
2.520000e-06	-4.893452e-07	-8.083602e-12	-3.436493e+00	-7.439496e-01
2.530000e-06	-6.434634e-07	-7.648749e-12	-4.518810e+00	-9.323291e-01
2.540000e-06	-7.972657e-07	-1.131303e-11	-5.598907e+00	-1.124106e+00
2.550000e-06	-9.508106e-07	-1.878355e-11	-6.677198e+00	-1.318301e+00
2.560000e-06	-1.103935e-06	-2.237176e-11	-7.752537e+00	-1.514606e+00
2.570000e-06	-1.256548e-06	-2.532319e-11	-8.824278e+00	-1.713350e+00
2.580000e-06	-1.408790e-06	-3.244609e-11	-9.893422e+00	-1.915318e+00
2.590000e-06	-1.560572e-06	-3.661242e-11	-1.095933e+01	-2.121501e+00
2.600000e-06	-1.711828e-06	-3.646901e-11	-1.202155e+01	-2.332788e+00
2.610000e-06	-1.862555e-06	-3.728895e-11	-1.308005e+01	-2.549675e+00
2.620000e-06	-2.012590e-06	-4.053272e-11	-1.413369e+01	-2.772045e+00
2.630000e-06	-2.161818e-06	-4.107060e-11	-1.518167e+01	-2.999045e+00
2.640000e-06	-2.310140e-06	-3.999333e-11	-1.622327e+01	-3.229109e+00
2.650000e-06	-2.457616e-06	-4.308065e-11	-1.725894e+01	-3.460100e+00
2.660000e-06	-2.604295e-06	-4.994714e-11	-1.828902e+01	-3.689580e+00
2.670000e-06	-2.750070e-06	-5.518478e-11	-1.931274e+01	-3.915139e+00
2.680000e-06	-2.894916e-06	-5.954773e-11	-2.032995e+01	-4.134755e+00
2.690000e-06	-3.038790e-06	-6.531255e-11	-2.134032e+01	-4.347108e+00
2.700000e-06	-3.181588e-06	-6.888075e-11	-2.234314e+01	-4.551803e+00
2.710000e-06	-3.323133e-06	-7.151707e-11	-2.333716e+01	-4.749463e+00
2.720000e-06	-3.463300e-06	-7.483247e-11	-2.432150e+01	-4.941662e+00
2.730000e-06	-3.602124e-06	-7.810096e-11	-2.529641e+01	-5.130717e+00
2.740000e-06	-3.739588e-06	-7.914072e-11	-2.626177e+01	-5.319346e+00
2.750000e-06	-3.875678e-06	-8.064597e-11	-2.721748e+01	-5.510255e+00
2.760000e-06	-4.010435e-06	-8.642306e-11	-2.816383e+01	-5.705703e+00
2.770000e-06	-4.143684e-06	-9.145636e-11	-2.909959e+01	-5.907110e+00
2.780000e-06	-4.275351e-06	-9.416796e-11	-3.002424e+01	-6.114773e+00
2.790000e-06	-4.405569e-06	-9.621530e-11	-3.093871e+01	-6.327721e+00
2.800000e-06	-4.534305e-06	-9.967587e-11	-3.184278e+01	-6.543744e+00
2.810000e-06	-4.661525e-06	-1.019911e-10	-3.273620e+01	-6.759585e+00
2.820000e-06	-4.787090e-06	-1.027956e-10	-3.361800e+01	-6.971279e+00
2.830000e-06	-4.910861e-06	-1.049162e-10	-3.448719e+01	-7.174590e+00
2.840000e-06	-5.032925e-06	-1.079461e-10	-3.534441e+01	-7.365480e+00
2.850000e-06	-5.153225e-06	-1.106980e-10	-3.618923e+01	-7.540558e+00
2.860000e-06	-5.271555e-06	-1.121013e-10	-3.702022e+01	-7.697439e+00
2.870000e-06	-5.387678e-06	-1.145273e-10	-3.783571e+01	-7.834973e+00
2.880000e-06	-5.501594e-06	-1.176336e-10	-3.863570e+01	-7.953321e+00
2.890000e-06	-5.613448e-06	-1.194638e-10	-3.942121e+01	-8.053854e+00
2.900000e-06	-5.723190e-06	-1.212728e-10	-4.019188e+01	-8.138925e+00
2.910000e-06	-5.830921e-06	-1.231742e-10	-4.094844e+01	-8.211525e+00
2.920000e-06	-5.936742e-06	-1.234639e-10	-4.169158e+01	-8.274890e+00
2.930000e-06	-6.040511e-06	-1.226088e-10	-4.242031e+01	-8.332111e+00
2.940000e-06	-6.141969e-06	-1.212409e-10	-4.313282e+01	-8.385805e+00
