# Temperatura_=_20.0
# Concentracion g/m^3_=_9000.0
# C_Vs_to_Am_M_A/Vsm_=_65563218390.804596
# pendiente_HvsI_1/m_=_3716.3
# ordenada_HvsI_A/m_=_1297.0
# frecuencia_Hz_=_301272.55331260967

Tiempo_(s)	Campo_(V.s)	Magnetizacion_(V.s)	Campo_(kA/m)	Magnetizacion_(A/m)
0.000000e+00	-8.135467e-06	-6.297438e-09	-5.698447e+01	-4.142565e+02
1.000000e-08	-8.133069e-06	-6.301407e-09	-5.696767e+01	-4.141438e+02
2.000000e-08	-8.127953e-06	-6.301463e-09	-5.693184e+01	-4.140204e+02
3.000000e-08	-8.120262e-06	-6.296629e-09	-5.687797e+01	-4.138858e+02
4.000000e-08	-8.109703e-06	-6.291388e-09	-5.680401e+01	-4.137357e+02
5.000000e-08	-8.096172e-06	-6.286743e-09	-5.670923e+01	-4.135632e+02
6.000000e-08	-8.079779e-06	-6.283677e-09	-5.659441e+01	-4.133606e+02
7.000000e-08	-8.060830e-06	-6.282727e-09	-5.646168e+01	-4.131208e+02
8.000000e-08	-8.039535e-06	-6.277102e-09	-5.631252e+01	-4.128389e+02
9.000000e-08	-8.015474e-06	-6.329049e-09	-5.614398e+01	-4.125134e+02
1.000000e-07	-7.988199e-06	-6.356329e-09	-5.595294e+01	-4.121466e+02
1.100000e-07	-7.957838e-06	-6.294180e-09	-5.574028e+01	-4.117439e+02
1.200000e-07	-7.924565e-06	-6.243033e-09	-5.550722e+01	-4.113137e+02
1.300000e-07	-7.888506e-06	-6.235901e-09	-5.525465e+01	-4.108646e+02
1.400000e-07	-7.850060e-06	-6.260892e-09	-5.498535e+01	-4.104045e+02
1.500000e-07	-7.809357e-06	-6.233428e-09	-5.470025e+01	-4.099383e+02
1.600000e-07	-7.766082e-06	-6.220039e-09	-5.439714e+01	-4.094666e+02
1.700000e-07	-7.719971e-06	-6.229597e-09	-5.407415e+01	-4.089849e+02
1.800000e-07	-7.671038e-06	-6.143442e-09	-5.373140e+01	-4.084837e+02
1.900000e-07	-7.619131e-06	-6.252394e-09	-5.336782e+01	-4.079496e+02
2.000000e-07	-7.564190e-06	-6.234161e-09	-5.298299e+01	-4.073664e+02
2.100000e-07	-7.506445e-06	-6.122938e-09	-5.257852e+01	-4.067181e+02
2.200000e-07	-7.446115e-06	-6.165762e-09	-5.215594e+01	-4.059905e+02
2.300000e-07	-7.383237e-06	-6.167223e-09	-5.171552e+01	-4.051737e+02
2.400000e-07	-7.317533e-06	-6.194437e-09	-5.125529e+01	-4.042633e+02
2.500000e-07	-7.249124e-06	-6.103851e-09	-5.077613e+01	-4.032615e+02
2.600000e-07	-7.178175e-06	-6.102443e-09	-5.027917e+01	-4.021763e+02
2.700000e-07	-7.104393e-06	-6.112310e-09	-4.976237e+01	-4.010202e+02
2.800000e-07	-7.027821e-06	-6.091137e-09	-4.922602e+01	-3.998086e+02
2.900000e-07	-6.948533e-06	-6.072236e-09	-4.867065e+01	-3.985571e+02
3.000000e-07	-6.866677e-06	-6.042062e-09	-4.809730e+01	-3.972784e+02
3.100000e-07	-6.782536e-06	-6.036434e-09	-4.750793e+01	-3.959811e+02
3.200000e-07	-6.696065e-06	-5.985982e-09	-4.690226e+01	-3.946672e+02
3.300000e-07	-6.607202e-06	-6.008335e-09	-4.627982e+01	-3.933322e+02
3.400000e-07	-6.515940e-06	-5.998504e-09	-4.564058e+01	-3.919657e+02
3.500000e-07	-6.422359e-06	-5.922919e-09	-4.498509e+01	-3.905524e+02
3.600000e-07	-6.326534e-06	-5.904841e-09	-4.431389e+01	-3.890748e+02
3.700000e-07	-6.228403e-06	-5.928382e-09	-4.362654e+01	-3.875159e+02
3.800000e-07	-6.127989e-06	-5.893153e-09	-4.292319e+01	-3.858614e+02
3.900000e-07	-6.025380e-06	-5.824867e-09	-4.220447e+01	-3.841020e+02
4.000000e-07	-5.920646e-06	-5.823331e-09	-4.147087e+01	-3.822348e+02
4.100000e-07	-5.813757e-06	-5.819248e-09	-4.072217e+01	-3.802631e+02
4.200000e-07	-5.704815e-06	-5.765163e-09	-3.995909e+01	-3.781957e+02
4.300000e-07	-5.593847e-06	-5.725586e-09	-3.918182e+01	-3.760450e+02
4.400000e-07	-5.480713e-06	-5.715509e-09	-3.838938e+01	-3.738243e+02
4.500000e-07	-5.365390e-06	-5.675682e-09	-3.758161e+01	-3.715451e+02
4.600000e-07	-5.248003e-06	-5.622607e-09	-3.675937e+01	-3.692148e+02
4.700000e-07	-5.128687e-06	-5.597401e-09	-3.592363e+01	-3.668345e+02
4.800000e-07	-5.007488e-06	-5.569845e-09	-3.507470e+01	-3.643986e+02
4.900000e-07	-4.884462e-06	-5.512343e-09	-3.421297e+01	-3.618947e+02
5.000000e-07	-4.759759e-06	-5.475460e-09	-3.333949e+01	-3.593055e+02
5.100000e-07	-4.633460e-06	-5.449620e-09	-3.245484e+01	-3.566107e+02
5.200000e-07	-4.505434e-06	-5.399427e-09	-3.155809e+01	-3.537903e+02
5.300000e-07	-4.375759e-06	-5.342151e-09	-3.064978e+01	-3.508270e+02
5.400000e-07	-4.244459e-06	-5.304815e-09	-2.973010e+01	-3.477087e+02
5.500000e-07	-4.111595e-06	-5.263148e-09	-2.879946e+01	-3.444297e+02
5.600000e-07	-3.977422e-06	-5.193993e-09	-2.785965e+01	-3.409907e+02
5.700000e-07	-3.841786e-06	-5.142652e-09	-2.690960e+01	-3.373978e+02
5.800000e-07	-3.704585e-06	-5.100522e-09	-2.594858e+01	-3.336596e+02
5.900000e-07	-3.566002e-06	-5.041609e-09	-2.497788e+01	-3.297842e+02
6.000000e-07	-3.426011e-06	-4.965041e-09	-2.399732e+01	-3.257757e+02
6.100000e-07	-3.284516e-06	-4.906955e-09	-2.300623e+01	-3.216311e+02
6.200000e-07	-3.141651e-06	-4.850814e-09	-2.200554e+01	-3.173377e+02
6.300000e-07	-2.997647e-06	-4.774883e-09	-2.099687e+01	-3.128723e+02
6.400000e-07	-2.852533e-06	-4.695579e-09	-1.998042e+01	-3.082021e+02
6.500000e-07	-2.706432e-06	-4.617886e-09	-1.895707e+01	-3.032867e+02
6.600000e-07	-2.559520e-06	-4.539025e-09	-1.792803e+01	-2.980811e+02
6.700000e-07	-2.411779e-06	-4.448198e-09	-1.689319e+01	-2.925403e+02
6.800000e-07	-2.263197e-06	-4.360442e-09	-1.585245e+01	-2.866224e+02
6.900000e-07	-2.113891e-06	-4.263960e-09	-1.480664e+01	-2.802918e+02
7.000000e-07	-1.963948e-06	-4.157837e-09	-1.375638e+01	-2.735202e+02
7.100000e-07	-1.813360e-06	-4.049697e-09	-1.270159e+01	-2.662858e+02
7.200000e-07	-1.662008e-06	-3.940439e-09	-1.164145e+01	-2.585694e+02
7.300000e-07	-1.509861e-06	-3.817775e-09	-1.057575e+01	-2.503497e+02
7.400000e-07	-1.357070e-06	-3.677580e-09	-9.505531e+00	-2.415962e+02
7.500000e-07	-1.203828e-06	-3.537392e-09	-8.432150e+00	-2.322621e+02
7.600000e-07	-1.050259e-06	-3.389499e-09	-7.356489e+00	-2.222780e+02
7.700000e-07	-8.963559e-07	-3.222805e-09	-6.278480e+00	-2.115475e+02
7.800000e-07	-7.421518e-07	-3.035736e-09	-5.198365e+00	-1.999465e+02
7.900000e-07	-5.877162e-07	-2.842281e-09	-4.116628e+00	-1.873262e+02
8.000000e-07	-4.330490e-07	-2.633702e-09	-3.033270e+00	-1.735215e+02
8.100000e-07	-2.781814e-07	-2.400303e-09	-1.948508e+00	-1.583628e+02
8.200000e-07	-1.232415e-07	-2.143181e-09	-8.632386e-01	-1.416919e+02
8.300000e-07	3.167584e-08	-1.864237e-09	2.218718e-01	-1.233807e+02
8.400000e-07	1.865844e-07	-1.560015e-09	1.306921e+00	-1.033492e+02
8.500000e-07	3.414383e-07	-1.227518e-09	2.391587e+00	-8.158306e+01
8.600000e-07	4.961147e-07	-8.740350e-10	3.475011e+00	-5.814698e+01
8.700000e-07	6.506080e-07	-4.961233e-10	4.557151e+00	-3.319241e+01
8.800000e-07	8.049016e-07	-9.783357e-11	5.637893e+00	-6.958802e+00
8.900000e-07	9.589717e-07	3.151946e-10	6.717069e+00	2.023281e+01
9.000000e-07	1.112783e-06	7.367885e-10	7.794430e+00	4.799361e+01
9.100000e-07	1.266210e-06	1.164262e-09	8.869105e+00	7.588732e+01
9.200000e-07	1.419148e-06	1.588856e-09	9.940351e+00	1.034553e+02
9.300000e-07	1.571567e-06	1.997918e-09	1.100796e+01	1.302443e+02
9.400000e-07	1.723353e-06	2.388860e-09	1.207114e+01	1.558343e+02
9.500000e-07	1.874399e-06	2.757780e-09	1.312913e+01	1.798641e+02
9.600000e-07	2.024706e-06	3.097621e-09	1.418195e+01	2.020512e+02
9.700000e-07	2.174301e-06	3.400247e-09	1.522978e+01	2.222064e+02
9.800000e-07	2.323160e-06	3.668012e-09	1.627246e+01	2.402394e+02
9.900000e-07	2.471207e-06	3.902033e-09	1.730945e+01	2.561567e+02
1.000000e-06	2.618358e-06	4.105426e-09	1.834016e+01	2.700522e+02
1.010000e-06	2.764613e-06	4.284119e-09	1.936459e+01	2.820914e+02
1.020000e-06	2.909922e-06	4.443970e-09	2.038240e+01	2.924906e+02
1.030000e-06	3.054122e-06	4.583484e-09	2.139245e+01	3.014954e+02
1.040000e-06	3.197129e-06	4.705114e-09	2.239413e+01	3.093578e+02
1.050000e-06	3.338943e-06	4.814609e-09	2.338746e+01	3.163168e+02
1.060000e-06	3.479558e-06	4.912815e-09	2.437239e+01	3.225826e+02
1.070000e-06	3.618852e-06	5.001741e-09	2.534807e+01	3.283261e+02
1.080000e-06	3.756807e-06	5.081583e-09	2.631436e+01	3.336742e+02
1.090000e-06	3.893377e-06	5.157340e-09	2.727097e+01	3.387102e+02
1.100000e-06	4.028396e-06	5.229371e-09	2.821670e+01	3.434792e+02
1.110000e-06	4.161911e-06	5.295008e-09	2.915190e+01	3.479967e+02
1.120000e-06	4.293947e-06	5.356126e-09	3.007674e+01	3.522588e+02
1.130000e-06	4.424483e-06	5.413898e-09	3.099107e+01	3.562525e+02
1.140000e-06	4.553474e-06	5.467497e-09	3.189458e+01	3.599655e+02
1.150000e-06	4.680765e-06	5.514998e-09	3.278618e+01	3.633926e+02
1.160000e-06	4.806439e-06	5.559172e-09	3.366646e+01	3.665402e+02
1.170000e-06	4.930511e-06	5.602355e-09	3.453552e+01	3.694273e+02
1.180000e-06	5.052836e-06	5.642757e-09	3.539234e+01	3.720838e+02
1.190000e-06	5.173312e-06	5.680760e-09	3.623621e+01	3.745465e+02
1.200000e-06	5.291863e-06	5.716986e-09	3.706659e+01	3.768548e+02
1.210000e-06	5.408468e-06	5.752941e-09	3.788335e+01	3.790451e+02
1.220000e-06	5.523033e-06	5.786716e-09	3.868581e+01	3.811470e+02
1.230000e-06	5.635419e-06	5.818629e-09	3.947301e+01	3.831801e+02
1.240000e-06	5.745704e-06	5.846977e-09	4.024550e+01	3.851529e+02
1.250000e-06	5.854006e-06	5.873206e-09	4.100409e+01	3.870637e+02
1.260000e-06	5.960268e-06	5.897571e-09	4.174840e+01	3.889029e+02
1.270000e-06	6.064354e-06	5.921789e-09	4.247746e+01	3.906564e+02
1.280000e-06	6.166248e-06	5.944332e-09	4.319117e+01	3.923096e+02
1.290000e-06	6.265973e-06	5.964924e-09	4.388969e+01	3.938509e+02
1.300000e-06	6.363384e-06	5.987981e-09	4.457201e+01	3.952747e+02
1.310000e-06	6.458446e-06	6.010393e-09	4.523786e+01	3.965826e+02
1.320000e-06	6.551263e-06	6.032309e-09	4.588800e+01	3.977841e+02
1.330000e-06	6.641850e-06	6.052759e-09	4.652251e+01	3.988947e+02
1.340000e-06	6.730054e-06	6.072497e-09	4.714032e+01	3.999342e+02
1.350000e-06	6.815865e-06	6.090351e-09	4.774139e+01	4.009231e+02
1.360000e-06	6.899304e-06	6.105345e-09	4.832583e+01	4.018799e+02
1.370000e-06	6.980312e-06	6.119838e-09	4.889325e+01	4.028184e+02
1.380000e-06	7.058810e-06	6.133258e-09	4.944308e+01	4.037458e+02
1.390000e-06	7.134714e-06	6.146039e-09	4.997475e+01	4.046622e+02
1.400000e-06	7.207907e-06	6.159833e-09	5.048743e+01	4.055613e+02
1.410000e-06	7.278431e-06	6.174694e-09	5.098141e+01	4.064316e+02
1.420000e-06	7.346454e-06	6.189032e-09	5.145787e+01	4.072593e+02
1.430000e-06	7.411872e-06	6.201880e-09	5.191609e+01	4.080307e+02
1.440000e-06	7.474620e-06	6.214219e-09	5.235560e+01	4.087348e+02
1.450000e-06	7.534830e-06	6.225899e-09	5.277734e+01	4.093656e+02
1.460000e-06	7.592462e-06	6.234537e-09	5.318102e+01	4.099228e+02
1.470000e-06	7.647308e-06	6.242030e-09	5.356518e+01	4.104121e+02
1.480000e-06	7.699117e-06	6.250497e-09	5.392808e+01	4.108444e+02
1.490000e-06	7.747786e-06	6.258670e-09	5.426898e+01	4.112337e+02
1.500000e-06	7.793628e-06	6.265935e-09	5.459008e+01	4.115950e+02
1.510000e-06	7.836828e-06	6.273589e-09	5.489267e+01	4.119419e+02
1.520000e-06	7.877160e-06	6.282593e-09	5.517517e+01	4.122844e+02
1.530000e-06	7.914669e-06	6.291855e-09	5.543790e+01	4.126277e+02
1.540000e-06	7.949491e-06	6.299629e-09	5.568181e+01	4.129711e+02
1.550000e-06	7.981451e-06	6.305360e-09	5.590567e+01	4.133092e+02
1.560000e-06	8.010640e-06	6.310115e-09	5.611013e+01	4.136320e+02
1.570000e-06	8.037108e-06	6.314090e-09	5.629552e+01	4.139276e+02
1.580000e-06	8.060579e-06	6.317943e-09	5.645992e+01	4.141841e+02
1.590000e-06	8.081159e-06	6.321873e-09	5.660407e+01	4.143913e+02
1.600000e-06	8.098995e-06	6.325440e-09	5.672901e+01	4.145426e+02
1.610000e-06	8.113926e-06	6.328679e-09	5.683359e+01	4.146361e+02
1.620000e-06	8.125840e-06	6.332554e-09	5.691704e+01	4.146742e+02
1.630000e-06	8.134639e-06	6.336455e-09	5.697867e+01	4.146637e+02
1.640000e-06	8.140440e-06	6.337070e-09	5.701931e+01	4.146137e+02
1.650000e-06	8.143443e-06	6.337933e-09	5.704034e+01	4.145343e+02
1.660000e-06	8.143609e-06	6.341484e-09	5.704150e+01	4.144346e+02
1.670000e-06	8.141049e-06	6.334006e-09	5.702357e+01	4.143214e+02
1.680000e-06	8.135865e-06	6.327314e-09	5.698726e+01	4.141976e+02
1.690000e-06	8.127946e-06	6.325282e-09	5.693179e+01	4.140625e+02
1.700000e-06	8.117329e-06	6.324555e-09	5.685743e+01	4.139116e+02
1.710000e-06	8.103841e-06	6.322652e-09	5.676295e+01	4.137382e+02
1.720000e-06	8.087496e-06	6.321721e-09	5.664846e+01	4.135343e+02
1.730000e-06	8.068738e-06	6.321195e-09	5.651707e+01	4.132930e+02
1.740000e-06	8.047608e-06	6.284480e-09	5.636907e+01	4.130096e+02
1.750000e-06	8.023406e-06	6.197826e-09	5.619954e+01	4.126825e+02
1.760000e-06	7.995401e-06	6.238701e-09	5.600339e+01	4.123142e+02
1.770000e-06	7.963846e-06	6.289188e-09	5.578236e+01	4.119104e+02
1.780000e-06	7.929632e-06	6.289021e-09	5.554271e+01	4.114793e+02
1.790000e-06	7.893190e-06	6.275158e-09	5.528746e+01	4.110296e+02
1.800000e-06	7.854375e-06	6.314726e-09	5.501558e+01	4.105692e+02
1.810000e-06	7.813441e-06	6.221067e-09	5.472885e+01	4.101028e+02
1.820000e-06	7.770199e-06	6.208790e-09	5.442597e+01	4.096308e+02
1.830000e-06	7.724010e-06	6.362423e-09	5.410245e+01	4.091485e+02
1.840000e-06	7.675060e-06	6.195904e-09	5.375958e+01	4.086464e+02
1.850000e-06	7.623219e-06	6.248640e-09	5.339645e+01	4.081107e+02
1.860000e-06	7.568324e-06	6.255822e-09	5.301195e+01	4.075255e+02
1.870000e-06	7.510667e-06	6.205974e-09	5.260809e+01	4.068745e+02
1.880000e-06	7.450353e-06	6.235647e-09	5.218562e+01	4.061438e+02
1.890000e-06	7.387338e-06	6.144079e-09	5.174424e+01	4.053237e+02
1.900000e-06	7.321462e-06	6.235445e-09	5.128282e+01	4.044100e+02
1.910000e-06	7.252766e-06	6.129400e-09	5.080163e+01	4.034050e+02
1.920000e-06	7.181319e-06	6.111545e-09	5.030119e+01	4.023169e+02
1.930000e-06	7.107262e-06	6.174095e-09	4.978246e+01	4.011585e+02
1.940000e-06	7.030496e-06	6.103511e-09	4.924476e+01	3.999452e+02
1.950000e-06	6.950878e-06	6.088507e-09	4.868708e+01	3.986924e+02
1.960000e-06	6.868853e-06	6.040323e-09	4.811254e+01	3.974130e+02
1.970000e-06	6.784484e-06	6.111634e-09	4.752158e+01	3.961150e+02
1.980000e-06	6.697512e-06	6.020447e-09	4.691239e+01	3.948004e+02
1.990000e-06	6.608156e-06	5.980744e-09	4.628650e+01	3.934645e+02
2.000000e-06	6.516652e-06	6.016493e-09	4.564556e+01	3.920965e+02
2.010000e-06	6.422817e-06	5.961880e-09	4.498830e+01	3.906812e+02
2.020000e-06	6.326567e-06	5.934591e-09	4.431413e+01	3.892010e+02
2.030000e-06	6.228134e-06	5.907311e-09	4.362465e+01	3.876388e+02
2.040000e-06	6.127537e-06	5.923454e-09	4.292003e+01	3.859806e+02
2.050000e-06	6.024593e-06	5.837939e-09	4.219896e+01	3.842174e+02
2.060000e-06	5.919400e-06	5.814440e-09	4.146214e+01	3.823463e+02
2.070000e-06	5.812297e-06	5.817157e-09	4.071195e+01	3.803710e+02
2.080000e-06	5.703158e-06	5.782732e-09	3.994749e+01	3.783003e+02
2.090000e-06	5.591770e-06	5.717955e-09	3.916727e+01	3.761468e+02
2.100000e-06	5.478324e-06	5.692952e-09	3.837265e+01	3.739238e+02
2.110000e-06	5.362846e-06	5.693840e-09	3.756378e+01	3.716426e+02
2.120000e-06	5.245226e-06	5.639116e-09	3.673992e+01	3.693105e+02
2.130000e-06	5.125523e-06	5.599302e-09	3.590147e+01	3.669284e+02
2.140000e-06	5.003971e-06	5.567553e-09	3.505006e+01	3.644903e+02
2.150000e-06	4.880717e-06	5.531109e-09	3.418674e+01	3.619836e+02
2.160000e-06	4.755721e-06	5.472168e-09	3.331121e+01	3.593909e+02
2.170000e-06	4.628995e-06	5.440725e-09	3.242357e+01	3.566920e+02
2.180000e-06	4.500517e-06	5.400863e-09	3.152365e+01	3.538667e+02
2.190000e-06	4.370475e-06	5.341135e-09	3.061277e+01	3.508980e+02
2.200000e-06	4.238997e-06	5.287169e-09	2.969185e+01	3.477739e+02
2.210000e-06	4.105948e-06	5.257183e-09	2.875991e+01	3.444891e+02
2.220000e-06	3.971438e-06	5.208815e-09	2.781774e+01	3.410445e+02
2.230000e-06	3.835456e-06	5.139732e-09	2.686526e+01	3.374462e+02
2.240000e-06	3.698047e-06	5.087080e-09	2.590279e+01	3.337029e+02
2.250000e-06	3.559328e-06	5.042744e-09	2.493114e+01	3.298226e+02
2.260000e-06	3.419121e-06	4.982079e-09	2.394907e+01	3.258094e+02
2.270000e-06	3.277624e-06	4.910915e-09	2.295795e+01	3.216597e+02
2.280000e-06	3.134993e-06	4.848786e-09	2.195890e+01	3.173605e+02
2.290000e-06	2.991101e-06	4.778963e-09	2.095102e+01	3.128884e+02
2.300000e-06	2.846036e-06	4.701579e-09	1.993492e+01	3.082102e+02
2.310000e-06	2.700119e-06	4.626931e-09	1.891285e+01	3.032851e+02
2.320000e-06	2.553442e-06	4.554130e-09	1.788546e+01	2.980683e+02
2.330000e-06	2.405856e-06	4.463068e-09	1.685170e+01	2.925146e+02
2.340000e-06	2.257276e-06	4.368168e-09	1.581098e+01	2.865825e+02
2.350000e-06	2.107761e-06	4.281341e-09	1.476371e+01	2.802366e+02
2.360000e-06	1.957517e-06	4.185994e-09	1.371133e+01	2.734488e+02
2.370000e-06	1.806674e-06	4.070244e-09	1.265476e+01	2.661974e+02
2.380000e-06	1.655239e-06	3.950437e-09	1.159404e+01	2.584634e+02
2.390000e-06	1.503192e-06	3.832711e-09	1.052903e+01	2.502252e+02
2.400000e-06	1.350561e-06	3.701720e-09	9.459940e+00	2.414519e+02
2.410000e-06	1.197392e-06	3.556392e-09	8.387074e+00	2.320959e+02
2.420000e-06	1.043814e-06	3.404336e-09	7.311342e+00	2.220869e+02
2.430000e-06	8.898975e-07	3.240821e-09	6.233242e+00	2.113275e+02
2.440000e-06	7.357265e-07	3.058009e-09	5.153359e+00	1.996927e+02
2.450000e-06	5.813657e-07	2.862193e-09	4.072147e+00	1.870331e+02
2.460000e-06	4.268137e-07	2.651081e-09	2.989596e+00	1.731829e+02
2.470000e-06	2.721546e-07	2.417133e-09	1.906294e+00	1.579727e+02
2.480000e-06	1.174095e-07	2.160618e-09	8.223893e-01	1.412452e+02
2.490000e-06	-3.737175e-08	1.885666e-09	-2.617686e-01	1.228735e+02
2.500000e-06	-1.921375e-07	1.585650e-09	-1.345817e+00	1.027798e+02
2.510000e-06	-3.468233e-07	1.254326e-09	-2.429307e+00	8.095237e+01
2.520000e-06	-5.013403e-07	8.993068e-10	-3.511613e+00	5.745889e+01
2.530000e-06	-6.556927e-07	5.239614e-10	-4.592767e+00	3.245396e+01
2.540000e-06	-8.098828e-07	1.271105e-10	-5.672783e+00	6.180108e+00
2.550000e-06	-9.638714e-07	-2.889655e-10	-6.751389e+00	-2.103892e+01
2.560000e-06	-1.117537e-06	-7.138918e-10	-7.827730e+00	-4.881224e+01
2.570000e-06	-1.270768e-06	-1.143159e-09	-8.901029e+00	-7.670230e+01
2.580000e-06	-1.423444e-06	-1.570454e-09	-9.970444e+00	-1.042502e+02
2.590000e-06	-1.575492e-06	-1.982638e-09	-1.103545e+01	-1.310034e+02
2.600000e-06	-1.726941e-06	-2.375588e-09	-1.209627e+01	-1.565435e+02
2.610000e-06	-1.877825e-06	-2.748393e-09	-1.315313e+01	-1.805118e+02
2.620000e-06	-2.028161e-06	-3.091562e-09	-1.420615e+01	-2.026291e+02
2.630000e-06	-2.177863e-06	-3.395263e-09	-1.525473e+01	-2.227096e+02
2.640000e-06	-2.326718e-06	-3.662480e-09	-1.629738e+01	-2.406663e+02
2.650000e-06	-2.474619e-06	-3.900143e-09	-1.733334e+01	-2.565094e+02
2.660000e-06	-2.621600e-06	-4.109554e-09	-1.836286e+01	-2.703355e+02
2.670000e-06	-2.767690e-06	-4.289841e-09	-1.938615e+01	-2.823121e+02
2.680000e-06	-2.912866e-06	-4.447018e-09	-2.040302e+01	-2.926573e+02
2.690000e-06	-3.057003e-06	-4.588540e-09	-2.141263e+01	-3.016170e+02
2.700000e-06	-3.199940e-06	-4.713297e-09	-2.241382e+01	-3.094432e+02
2.710000e-06	-3.341651e-06	-4.822721e-09	-2.340643e+01	-3.163740e+02
2.720000e-06	-3.482033e-06	-4.922233e-09	-2.438972e+01	-3.226185e+02
2.730000e-06	-3.621021e-06	-5.012906e-09	-2.536326e+01	-3.283461e+02
2.740000e-06	-3.758747e-06	-5.094087e-09	-2.632795e+01	-3.336818e+02
2.750000e-06	-3.895087e-06	-5.169386e-09	-2.728294e+01	-3.387078e+02
2.760000e-06	-4.029998e-06	-5.242306e-09	-2.822792e+01	-3.434677e+02
2.770000e-06	-4.163529e-06	-5.310713e-09	-2.916323e+01	-3.479763e+02
2.780000e-06	-4.295521e-06	-5.373832e-09	-3.008777e+01	-3.522291e+02
2.790000e-06	-4.425957e-06	-5.434589e-09	-3.100139e+01	-3.562130e+02
2.800000e-06	-4.554873e-06	-5.492861e-09	-3.190438e+01	-3.599158e+02
2.810000e-06	-4.682235e-06	-5.546115e-09	-3.279648e+01	-3.633328e+02
2.820000e-06	-4.807989e-06	-5.595826e-09	-3.367732e+01	-3.664708e+02
2.830000e-06	-4.932032e-06	-5.642809e-09	-3.454617e+01	-3.693492e+02
2.840000e-06	-5.054315e-06	-5.686588e-09	-3.540270e+01	-3.719981e+02
2.850000e-06	-5.174779e-06	-5.725904e-09	-3.624648e+01	-3.744547e+02
2.860000e-06	-5.293287e-06	-5.761813e-09	-3.707656e+01	-3.767582e+02
2.870000e-06	-5.409698e-06	-5.797206e-09	-3.789196e+01	-3.789449e+02
2.880000e-06	-5.523895e-06	-5.832982e-09	-3.869185e+01	-3.810441e+02
2.890000e-06	-5.635900e-06	-5.869269e-09	-3.947638e+01	-3.830750e+02
2.900000e-06	-5.745826e-06	-5.902475e-09	-4.024635e+01	-3.850457e+02
2.910000e-06	-5.853773e-06	-5.931444e-09	-4.100246e+01	-3.869542e+02
2.920000e-06	-5.959793e-06	-5.957971e-09	-4.174507e+01	-3.887906e+02
2.930000e-06	-6.063718e-06	-5.982536e-09	-4.247301e+01	-3.905409e+02
2.940000e-06	-6.165353e-06	-6.004508e-09	-4.318491e+01	-3.921903e+02
