# Temperatura_=_20.0
# Concentracion g/m^3_=_9000.0
# C_Vs_to_Am_M_A/Vsm_=_65563218390.804596
# pendiente_HvsI_1/m_=_3716.3
# ordenada_HvsI_A/m_=_1297.0
# frecuencia_Hz_=_301270.22944220784

Tiempo_(s)	Campo_(V.s)	Magnetizacion_(V.s)	Campo_(kA/m)	Magnetizacion_(A/m)
0.000000e+00	-8.154302e-06	-6.357780e-09	-5.698295e+01	-4.184322e+02
1.000000e-08	-8.151566e-06	-6.364928e-09	-5.696383e+01	-4.183476e+02
2.000000e-08	-8.146167e-06	-6.367208e-09	-5.692610e+01	-4.182463e+02
3.000000e-08	-8.138208e-06	-6.363231e-09	-5.687048e+01	-4.181254e+02
4.000000e-08	-8.127393e-06	-6.357764e-09	-5.679491e+01	-4.179788e+02
5.000000e-08	-8.113575e-06	-6.352108e-09	-5.669835e+01	-4.177981e+02
6.000000e-08	-8.096851e-06	-6.348049e-09	-5.658148e+01	-4.175744e+02
7.000000e-08	-8.077620e-06	-6.346736e-09	-5.644709e+01	-4.172998e+02
8.000000e-08	-8.056088e-06	-6.348129e-09	-5.629662e+01	-4.169695e+02
9.000000e-08	-8.031715e-06	-6.399418e-09	-5.612630e+01	-4.165818e+02
1.000000e-07	-8.004064e-06	-6.410220e-09	-5.593307e+01	-4.161396e+02
1.100000e-07	-7.973343e-06	-6.351860e-09	-5.571840e+01	-4.156492e+02
1.200000e-07	-7.939704e-06	-6.311625e-09	-5.548332e+01	-4.151197e+02
1.300000e-07	-7.903280e-06	-6.306626e-09	-5.522879e+01	-4.145610e+02
1.400000e-07	-7.864540e-06	-6.321418e-09	-5.495807e+01	-4.139823e+02
1.500000e-07	-7.823536e-06	-6.279815e-09	-5.467153e+01	-4.133902e+02
1.600000e-07	-7.779903e-06	-6.278809e-09	-5.436662e+01	-4.127872e+02
1.700000e-07	-7.733347e-06	-6.282650e-09	-5.404128e+01	-4.121714e+02
1.800000e-07	-7.683963e-06	-6.209293e-09	-5.369618e+01	-4.115360e+02
1.900000e-07	-7.631695e-06	-6.303362e-09	-5.333093e+01	-4.108707e+02
2.000000e-07	-7.576413e-06	-6.266264e-09	-5.294461e+01	-4.101630e+02
2.100000e-07	-7.518351e-06	-6.174963e-09	-5.253887e+01	-4.094001e+02
2.200000e-07	-7.457672e-06	-6.217433e-09	-5.211484e+01	-4.085713e+02
2.300000e-07	-7.394386e-06	-6.217048e-09	-5.167259e+01	-4.076693e+02
2.400000e-07	-7.328346e-06	-6.226027e-09	-5.121110e+01	-4.066916e+02
2.500000e-07	-7.259565e-06	-6.149952e-09	-5.073045e+01	-4.056409e+02
2.600000e-07	-7.188157e-06	-6.155604e-09	-5.023145e+01	-4.045244e+02
2.700000e-07	-7.113959e-06	-6.151495e-09	-4.971295e+01	-4.033526e+02
2.800000e-07	-7.036904e-06	-6.136828e-09	-4.917448e+01	-4.021373e+02
2.900000e-07	-6.957120e-06	-6.118317e-09	-4.861694e+01	-4.008894e+02
3.000000e-07	-6.874848e-06	-6.086320e-09	-4.804202e+01	-3.996166e+02
3.100000e-07	-6.790270e-06	-6.085826e-09	-4.745098e+01	-3.983218e+02
3.200000e-07	-6.703361e-06	-6.038718e-09	-4.684365e+01	-3.970022e+02
3.300000e-07	-6.614098e-06	-6.046323e-09	-4.621987e+01	-3.956492e+02
3.400000e-07	-6.522448e-06	-6.028690e-09	-4.557942e+01	-3.942499e+02
3.500000e-07	-6.428459e-06	-5.970333e-09	-4.492261e+01	-3.927881e+02
3.600000e-07	-6.332206e-06	-5.946171e-09	-4.424999e+01	-3.912475e+02
3.700000e-07	-6.233690e-06	-5.956351e-09	-4.356155e+01	-3.896136e+02
3.800000e-07	-6.132872e-06	-5.923053e-09	-4.285703e+01	-3.878765e+02
3.900000e-07	-6.029785e-06	-5.861338e-09	-4.213664e+01	-3.860319e+02
4.000000e-07	-5.924502e-06	-5.854674e-09	-4.140092e+01	-3.840822e+02
4.100000e-07	-5.817148e-06	-5.843184e-09	-4.065072e+01	-3.820356e+02
4.200000e-07	-5.707792e-06	-5.796912e-09	-3.988653e+01	-3.799048e+02
4.300000e-07	-5.596330e-06	-5.755498e-09	-3.910762e+01	-3.777046e+02
4.400000e-07	-5.482738e-06	-5.741944e-09	-3.831384e+01	-3.754490e+02
4.500000e-07	-5.367017e-06	-5.705402e-09	-3.750517e+01	-3.731485e+02
4.600000e-07	-5.249227e-06	-5.655465e-09	-3.668204e+01	-3.708077e+02
4.700000e-07	-5.129476e-06	-5.622658e-09	-3.584521e+01	-3.684241e+02
4.800000e-07	-5.007864e-06	-5.594645e-09	-3.499537e+01	-3.659874e+02
4.900000e-07	-4.884473e-06	-5.544736e-09	-3.413311e+01	-3.634811e+02
5.000000e-07	-4.759369e-06	-5.502586e-09	-3.325887e+01	-3.608839e+02
5.100000e-07	-4.632573e-06	-5.473015e-09	-3.237281e+01	-3.581731e+02
5.200000e-07	-4.504018e-06	-5.425795e-09	-3.147446e+01	-3.553273e+02
5.300000e-07	-4.373843e-06	-5.369408e-09	-3.056478e+01	-3.523296e+02
5.400000e-07	-4.242093e-06	-5.327171e-09	-2.964410e+01	-3.491696e+02
5.500000e-07	-4.108817e-06	-5.287182e-09	-2.871276e+01	-3.458440e+02
5.600000e-07	-3.974141e-06	-5.222228e-09	-2.777163e+01	-3.423566e+02
5.700000e-07	-3.837948e-06	-5.167295e-09	-2.681991e+01	-3.387162e+02
5.800000e-07	-3.700212e-06	-5.121962e-09	-2.585739e+01	-3.349334e+02
5.900000e-07	-3.561123e-06	-5.066529e-09	-2.488543e+01	-3.310175e+02
6.000000e-07	-3.420651e-06	-4.994153e-09	-2.390380e+01	-3.269719e+02
6.100000e-07	-3.278709e-06	-4.932389e-09	-2.291189e+01	-3.227917e+02
6.200000e-07	-3.135462e-06	-4.875378e-09	-2.191087e+01	-3.184612e+02
6.300000e-07	-2.991038e-06	-4.800525e-09	-2.090163e+01	-3.139537e+02
6.400000e-07	-2.845609e-06	-4.718857e-09	-1.988536e+01	-3.092325e+02
6.500000e-07	-2.699206e-06	-4.638739e-09	-1.886228e+01	-3.042538e+02
6.600000e-07	-2.551837e-06	-4.557985e-09	-1.783246e+01	-2.989707e+02
6.700000e-07	-2.403668e-06	-4.464618e-09	-1.679703e+01	-2.933373e+02
6.800000e-07	-2.254683e-06	-4.374451e-09	-1.575591e+01	-2.873127e+02
6.900000e-07	-2.104959e-06	-4.278916e-09	-1.470963e+01	-2.808636e+02
7.000000e-07	-1.954518e-06	-4.173108e-09	-1.365833e+01	-2.739649e+02
7.100000e-07	-1.803304e-06	-4.062492e-09	-1.260164e+01	-2.665981e+02
7.200000e-07	-1.651351e-06	-3.949574e-09	-1.153978e+01	-2.587471e+02
7.300000e-07	-1.498794e-06	-3.826974e-09	-1.047370e+01	-2.503920e+02
7.400000e-07	-1.345790e-06	-3.686961e-09	-9.404496e+00	-2.415013e+02
7.500000e-07	-1.192319e-06	-3.542320e-09	-8.332026e+00	-2.320249e+02
7.600000e-07	-1.038407e-06	-3.388305e-09	-7.256477e+00	-2.218868e+02
7.700000e-07	-8.840890e-07	-3.217563e-09	-6.178089e+00	-2.109820e+02
7.800000e-07	-7.294197e-07	-3.027749e-09	-5.097246e+00	-1.991759e+02
7.900000e-07	-5.745364e-07	-2.828919e-09	-4.014909e+00	-1.863087e+02
8.000000e-07	-4.195122e-07	-2.613982e-09	-2.931587e+00	-1.722051e+02
8.100000e-07	-2.643458e-07	-2.373749e-09	-1.847270e+00	-1.566876e+02
8.200000e-07	-1.090337e-07	-2.110913e-09	-7.619365e-01	-1.395943e+02
8.300000e-07	4.634562e-08	-1.825405e-09	3.238671e-01	-1.207983e+02
8.400000e-07	2.016859e-07	-1.514583e-09	1.409398e+00	-1.002265e+02
8.500000e-07	3.569221e-07	-1.174226e-09	2.494202e+00	-7.787776e+01
8.600000e-07	5.120734e-07	-8.115146e-10	3.578412e+00	-5.383520e+01
8.700000e-07	6.670902e-07	-4.257927e-10	4.661683e+00	-2.827332e+01
8.800000e-07	8.218540e-07	-1.838212e-11	5.743185e+00	-1.457485e+00
8.900000e-07	9.763356e-07	4.057104e-10	6.822715e+00	2.626457e+01
9.000000e-07	1.130464e-06	8.379258e-10	7.899776e+00	5.447869e+01
9.100000e-07	1.284097e-06	1.271110e-09	8.973378e+00	8.272678e+01
9.200000e-07	1.437200e-06	1.697658e-09	1.004328e+01	1.105338e+02
9.300000e-07	1.589818e-06	2.107879e-09	1.110978e+01	1.374371e+02
9.400000e-07	1.741935e-06	2.498936e-09	1.217279e+01	1.630149e+02
9.500000e-07	1.893459e-06	2.865561e-09	1.323165e+01	1.869115e+02
9.600000e-07	2.044236e-06	3.200983e-09	1.428529e+01	2.088580e+02
9.700000e-07	2.194145e-06	3.498077e-09	1.533287e+01	2.286839e+02
9.800000e-07	2.343179e-06	3.758836e-09	1.637433e+01	2.463222e+02
9.900000e-07	2.491388e-06	3.987275e-09	1.741003e+01	2.618045e+02
1.000000e-06	2.638775e-06	4.185494e-09	1.843998e+01	2.752503e+02
1.010000e-06	2.785260e-06	4.357390e-09	1.946363e+01	2.868481e+02
1.020000e-06	2.930715e-06	4.510213e-09	2.048008e+01	2.968342e+02
1.030000e-06	3.075121e-06	4.643660e-09	2.148921e+01	3.054687e+02
1.040000e-06	3.218473e-06	4.760455e-09	2.249096e+01	3.130133e+02
1.050000e-06	3.360597e-06	4.866995e-09	2.348413e+01	3.197108e+02
1.060000e-06	3.501381e-06	4.962337e-09	2.446795e+01	3.257705e+02
1.070000e-06	3.640800e-06	5.048903e-09	2.544222e+01	3.313581e+02
1.080000e-06	3.778814e-06	5.128168e-09	2.640667e+01	3.365926e+02
1.090000e-06	3.915424e-06	5.204878e-09	2.736132e+01	3.415479e+02
1.100000e-06	4.050540e-06	5.277893e-09	2.830552e+01	3.462595e+02
1.110000e-06	4.184221e-06	5.342779e-09	2.923969e+01	3.507341e+02
1.120000e-06	4.316469e-06	5.401767e-09	3.016385e+01	3.549605e+02
1.130000e-06	4.447151e-06	5.458128e-09	3.107707e+01	3.589208e+02
1.140000e-06	4.576228e-06	5.511072e-09	3.197907e+01	3.625997e+02
1.150000e-06	4.703618e-06	5.557312e-09	3.286928e+01	3.659914e+02
1.160000e-06	4.829369e-06	5.599955e-09	3.374804e+01	3.691031e+02
1.170000e-06	4.953517e-06	5.641944e-09	3.461560e+01	3.719555e+02
1.180000e-06	5.075957e-06	5.683586e-09	3.547122e+01	3.745805e+02
1.190000e-06	5.196582e-06	5.723776e-09	3.631416e+01	3.770171e+02
1.200000e-06	5.315267e-06	5.761137e-09	3.714353e+01	3.793061e+02
1.210000e-06	5.431917e-06	5.795983e-09	3.795870e+01	3.814844e+02
1.220000e-06	5.546498e-06	5.827644e-09	3.875940e+01	3.835814e+02
1.230000e-06	5.658933e-06	5.857994e-09	3.954510e+01	3.856156e+02
1.240000e-06	5.769247e-06	5.886538e-09	4.031599e+01	3.875942e+02
1.250000e-06	5.877586e-06	5.912819e-09	4.107307e+01	3.895137e+02
1.260000e-06	5.983908e-06	5.937369e-09	4.181605e+01	3.913633e+02
1.270000e-06	6.088053e-06	5.961744e-09	4.254383e+01	3.931279e+02
1.280000e-06	6.190008e-06	5.985710e-09	4.325630e+01	3.947925e+02
1.290000e-06	6.289713e-06	6.008308e-09	4.395304e+01	3.963460e+02
1.300000e-06	6.387098e-06	6.031855e-09	4.463358e+01	3.977838e+02
1.310000e-06	6.482138e-06	6.054636e-09	4.529772e+01	3.991091e+02
1.320000e-06	6.574889e-06	6.075668e-09	4.594588e+01	4.003331e+02
1.330000e-06	6.665406e-06	6.095857e-09	4.657842e+01	4.014731e+02
1.340000e-06	6.753546e-06	6.114520e-09	4.719435e+01	4.025499e+02
1.350000e-06	6.839322e-06	6.131482e-09	4.779376e+01	4.035851e+02
1.360000e-06	6.922766e-06	6.147357e-09	4.837687e+01	4.045971e+02
1.370000e-06	7.003740e-06	6.163668e-09	4.894273e+01	4.055991e+02
1.380000e-06	7.082200e-06	6.180497e-09	4.949101e+01	4.065973e+02
1.390000e-06	7.158062e-06	6.196693e-09	5.002114e+01	4.075901e+02
1.400000e-06	7.231222e-06	6.212168e-09	5.053239e+01	4.085692e+02
1.410000e-06	7.301768e-06	6.226973e-09	5.102537e+01	4.095210e+02
1.420000e-06	7.369825e-06	6.241541e-09	5.150096e+01	4.104299e+02
1.430000e-06	7.435231e-06	6.255592e-09	5.195802e+01	4.112806e+02
1.440000e-06	7.497883e-06	6.268740e-09	5.239584e+01	4.120607e+02
1.450000e-06	7.557991e-06	6.280318e-09	5.281588e+01	4.127634e+02
1.460000e-06	7.615467e-06	6.290457e-09	5.321753e+01	4.133877e+02
1.470000e-06	7.670193e-06	6.300929e-09	5.359996e+01	4.139392e+02
1.480000e-06	7.721924e-06	6.312379e-09	5.396145e+01	4.144285e+02
1.490000e-06	7.770427e-06	6.323232e-09	5.430040e+01	4.148699e+02
1.500000e-06	7.816079e-06	6.332355e-09	5.461942e+01	4.152785e+02
1.510000e-06	7.859061e-06	6.340970e-09	5.491978e+01	4.156680e+02
1.520000e-06	7.899184e-06	6.350201e-09	5.520017e+01	4.160488e+02
1.530000e-06	7.936500e-06	6.358881e-09	5.546093e+01	4.164264e+02
1.540000e-06	7.971112e-06	6.365882e-09	5.570281e+01	4.168007e+02
1.550000e-06	8.002918e-06	6.370621e-09	5.592507e+01	4.171666e+02
1.560000e-06	8.031963e-06	6.375927e-09	5.612803e+01	4.175151e+02
1.570000e-06	8.058174e-06	6.382259e-09	5.631120e+01	4.178353e+02
1.580000e-06	8.081440e-06	6.388280e-09	5.647378e+01	4.181161e+02
1.590000e-06	8.101961e-06	6.393778e-09	5.661719e+01	4.183484e+02
1.600000e-06	8.119639e-06	6.398595e-09	5.674072e+01	4.185264e+02
1.610000e-06	8.134310e-06	6.403195e-09	5.684324e+01	4.186487e+02
1.620000e-06	8.145920e-06	6.407202e-09	5.692438e+01	4.187181e+02
1.630000e-06	8.154377e-06	6.410242e-09	5.698347e+01	4.187407e+02
1.640000e-06	8.159923e-06	6.410840e-09	5.702223e+01	4.187250e+02
1.650000e-06	8.162681e-06	6.411078e-09	5.704150e+01	4.186796e+02
1.660000e-06	8.162556e-06	6.412127e-09	5.704063e+01	4.186120e+02
1.670000e-06	8.159724e-06	6.405139e-09	5.702084e+01	4.185268e+02
1.680000e-06	8.154222e-06	6.401789e-09	5.698239e+01	4.184248e+02
1.690000e-06	8.145978e-06	6.401164e-09	5.692478e+01	4.183031e+02
1.700000e-06	8.135056e-06	6.400129e-09	5.684846e+01	4.181554e+02
1.710000e-06	8.121291e-06	6.398123e-09	5.675227e+01	4.179733e+02
1.720000e-06	8.104739e-06	6.395998e-09	5.663660e+01	4.177478e+02
1.730000e-06	8.085767e-06	6.391186e-09	5.650402e+01	4.174713e+02
1.740000e-06	8.064348e-06	6.340343e-09	5.635435e+01	4.171389e+02
1.750000e-06	8.039712e-06	6.271471e-09	5.618219e+01	4.167492e+02
1.760000e-06	8.011236e-06	6.311660e-09	5.598319e+01	4.163051e+02
1.770000e-06	7.979339e-06	6.351476e-09	5.576029e+01	4.158131e+02
1.780000e-06	7.944899e-06	6.348042e-09	5.551963e+01	4.152823e+02
1.790000e-06	7.908178e-06	6.339826e-09	5.526302e+01	4.147227e+02
1.800000e-06	7.869073e-06	6.379289e-09	5.498975e+01	4.141435e+02
1.810000e-06	7.827852e-06	6.274543e-09	5.470169e+01	4.135509e+02
1.820000e-06	7.784187e-06	6.280590e-09	5.439655e+01	4.129476e+02
1.830000e-06	7.737636e-06	6.392104e-09	5.407126e+01	4.123311e+02
1.840000e-06	7.688334e-06	6.244012e-09	5.372672e+01	4.116948e+02
1.850000e-06	7.636020e-06	6.310529e-09	5.336115e+01	4.110282e+02
1.860000e-06	7.580748e-06	6.296414e-09	5.297491e+01	4.103187e+02
1.870000e-06	7.522747e-06	6.253547e-09	5.256959e+01	4.095536e+02
1.880000e-06	7.461990e-06	6.256871e-09	5.214501e+01	4.087223e+02
1.890000e-06	7.398591e-06	6.192948e-09	5.170198e+01	4.078176e+02
1.900000e-06	7.332451e-06	6.270980e-09	5.123978e+01	4.068371e+02
1.910000e-06	7.263457e-06	6.164140e-09	5.075765e+01	4.057839e+02
1.920000e-06	7.191662e-06	6.158530e-09	5.025594e+01	4.046652e+02
1.930000e-06	7.117240e-06	6.191398e-09	4.973587e+01	4.034916e+02
1.940000e-06	7.040009e-06	6.145397e-09	4.919617e+01	4.022750e+02
1.950000e-06	6.959984e-06	6.120072e-09	4.863696e+01	4.010260e+02
1.960000e-06	6.877625e-06	6.072948e-09	4.806143e+01	3.997524e+02
1.970000e-06	6.792738e-06	6.131610e-09	4.746823e+01	3.984567e+02
1.980000e-06	6.705205e-06	6.048459e-09	4.685654e+01	3.971361e+02
1.990000e-06	6.615333e-06	6.026092e-09	4.622851e+01	3.957817e+02
2.000000e-06	6.523320e-06	6.044311e-09	4.558551e+01	3.943804e+02
2.010000e-06	6.429020e-06	6.001108e-09	4.492653e+01	3.929160e+02
2.020000e-06	6.332328e-06	5.963000e-09	4.425084e+01	3.913723e+02
2.030000e-06	6.233503e-06	5.943629e-09	4.356024e+01	3.897349e+02
2.040000e-06	6.132446e-06	5.953731e-09	4.285405e+01	3.879939e+02
2.050000e-06	6.029045e-06	5.876460e-09	4.213147e+01	3.861455e+02
2.060000e-06	5.923530e-06	5.847113e-09	4.139413e+01	3.841921e+02
2.070000e-06	5.816003e-06	5.839638e-09	4.064272e+01	3.821422e+02
2.080000e-06	5.706341e-06	5.811687e-09	3.987639e+01	3.800086e+02
2.090000e-06	5.594550e-06	5.747978e-09	3.909519e+01	3.778061e+02
2.100000e-06	5.480672e-06	5.722089e-09	3.829940e+01	3.755488e+02
2.110000e-06	5.364599e-06	5.712795e-09	3.748827e+01	3.732468e+02
2.120000e-06	5.246423e-06	5.663598e-09	3.666245e+01	3.709045e+02
2.130000e-06	5.126306e-06	5.620253e-09	3.582306e+01	3.685192e+02
2.140000e-06	5.004373e-06	5.592611e-09	3.497098e+01	3.660803e+02
2.150000e-06	4.880642e-06	5.558452e-09	3.410634e+01	3.635711e+02
2.160000e-06	4.755074e-06	5.499569e-09	3.322886e+01	3.609702e+02
2.170000e-06	4.627778e-06	5.463278e-09	3.233930e+01	3.582549e+02
2.180000e-06	4.498915e-06	5.424574e-09	3.143880e+01	3.554039e+02
2.190000e-06	4.368516e-06	5.367223e-09	3.052756e+01	3.524006e+02
2.200000e-06	4.236538e-06	5.310315e-09	2.960529e+01	3.492346e+02
2.210000e-06	4.103004e-06	5.277528e-09	2.867214e+01	3.459031e+02
2.220000e-06	3.967984e-06	5.228808e-09	2.772861e+01	3.424100e+02
2.230000e-06	3.831542e-06	5.162104e-09	2.677514e+01	3.387643e+02
2.240000e-06	3.693695e-06	5.107721e-09	2.581185e+01	3.349767e+02
2.250000e-06	3.554415e-06	5.060845e-09	2.483855e+01	3.310560e+02
2.260000e-06	3.413742e-06	4.997652e-09	2.385552e+01	3.270057e+02
2.270000e-06	3.271788e-06	4.925595e-09	2.286353e+01	3.228205e+02
2.280000e-06	3.128614e-06	4.863018e-09	2.186302e+01	3.184842e+02
2.290000e-06	2.984257e-06	4.793577e-09	2.085424e+01	3.139697e+02
2.300000e-06	2.838836e-06	4.714072e-09	1.983802e+01	3.092400e+02
2.310000e-06	2.692503e-06	4.637462e-09	1.881544e+01	3.042513e+02
2.320000e-06	2.545195e-06	4.565314e-09	1.778604e+01	2.989564e+02
2.330000e-06	2.396904e-06	4.475983e-09	1.674977e+01	2.933097e+02
2.340000e-06	2.247783e-06	4.379342e-09	1.570769e+01	2.872704e+02
2.350000e-06	2.097898e-06	4.289506e-09	1.466029e+01	2.808056e+02
2.360000e-06	1.947249e-06	4.192340e-09	1.360754e+01	2.738904e+02
2.370000e-06	1.795907e-06	4.075473e-09	1.254995e+01	2.665066e+02
2.380000e-06	1.644012e-06	3.952674e-09	1.148850e+01	2.586380e+02
2.390000e-06	1.491617e-06	3.829882e-09	1.042354e+01	2.502643e+02
2.400000e-06	1.338716e-06	3.695565e-09	9.355060e+00	2.413537e+02
2.410000e-06	1.185316e-06	3.550254e-09	8.283090e+00	2.318550e+02
2.420000e-06	1.031503e-06	3.398282e-09	7.208232e+00	2.216916e+02
2.430000e-06	8.773492e-07	3.233384e-09	6.130990e+00	2.107570e+02
2.440000e-06	7.229209e-07	3.047668e-09	5.051832e+00	1.989158e+02
2.450000e-06	5.682191e-07	2.847445e-09	3.970763e+00	1.860076e+02
2.460000e-06	4.132590e-07	2.631050e-09	2.887889e+00	1.718564e+02
2.470000e-06	2.581263e-07	2.392237e-09	1.803808e+00	1.562853e+02
2.480000e-06	1.028724e-07	2.129968e-09	7.188807e-01	1.391331e+02
2.490000e-06	-5.238569e-08	1.845271e-09	-3.660757e-01	1.202744e+02
2.500000e-06	-2.075897e-07	1.534925e-09	-1.450654e+00	9.963875e+01
2.510000e-06	-3.627105e-07	1.195287e-09	-2.534652e+00	7.722753e+01
2.520000e-06	-5.176277e-07	8.319515e-10	-3.617226e+00	5.312712e+01
2.530000e-06	-6.723391e-07	4.481579e-10	-4.698363e+00	2.751534e+01
2.540000e-06	-8.268131e-07	4.219866e-11	-5.777840e+00	6.606656e-01
2.550000e-06	-9.810175e-07	-3.825292e-10	-6.855433e+00	-2.708646e+01
2.560000e-06	-1.134876e-06	-8.143649e-10	-7.930610e+00	-5.530989e+01
2.570000e-06	-1.288289e-06	-1.248784e-09	-9.002675e+00	-8.355046e+01
2.580000e-06	-1.441283e-06	-1.680901e-09	-1.007181e+01	-1.113331e+02
2.590000e-06	-1.593760e-06	-2.097331e-09	-1.113733e+01	-1.381960e+02
2.600000e-06	-1.745644e-06	-2.491968e-09	-1.219871e+01	-1.637194e+02
2.610000e-06	-1.896900e-06	-2.862624e-09	-1.325570e+01	-1.875505e+02
2.620000e-06	-2.047433e-06	-3.200424e-09	-1.430764e+01	-2.094236e+02
2.630000e-06	-2.197232e-06	-3.498442e-09	-1.535444e+01	-2.291720e+02
2.640000e-06	-2.346343e-06	-3.758181e-09	-1.639645e+01	-2.467321e+02
2.650000e-06	-2.494647e-06	-3.986241e-09	-1.743280e+01	-2.621393e+02
2.660000e-06	-2.641970e-06	-4.188278e-09	-1.846231e+01	-2.755155e+02
2.670000e-06	-2.788329e-06	-4.362606e-09	-1.948508e+01	-2.870514e+02
2.680000e-06	-2.933667e-06	-4.515800e-09	-2.050071e+01	-2.969847e+02
2.690000e-06	-3.077905e-06	-4.654619e-09	-2.150866e+01	-3.055759e+02
2.700000e-06	-3.221024e-06	-4.776968e-09	-2.250879e+01	-3.130862e+02
2.710000e-06	-3.362966e-06	-4.883252e-09	-2.350069e+01	-3.197577e+02
2.720000e-06	-3.503673e-06	-4.977237e-09	-2.448396e+01	-3.257979e+02
2.730000e-06	-3.642956e-06	-5.063033e-09	-2.545728e+01	-3.313712e+02
2.740000e-06	-3.780828e-06	-5.140617e-09	-2.642075e+01	-3.365947e+02
2.750000e-06	-3.917280e-06	-5.213948e-09	-2.737428e+01	-3.415409e+02
2.760000e-06	-4.052239e-06	-5.285204e-09	-2.831739e+01	-3.462442e+02
2.770000e-06	-4.185821e-06	-5.352807e-09	-2.925087e+01	-3.507101e+02
2.780000e-06	-4.317944e-06	-5.417041e-09	-3.017416e+01	-3.549273e+02
2.790000e-06	-4.448531e-06	-5.478036e-09	-3.108671e+01	-3.588779e+02
2.800000e-06	-4.577560e-06	-5.534964e-09	-3.198837e+01	-3.625466e+02
2.810000e-06	-4.704998e-06	-5.586604e-09	-3.287892e+01	-3.659282e+02
2.820000e-06	-4.830871e-06	-5.635674e-09	-3.375854e+01	-3.690302e+02
2.830000e-06	-4.955007e-06	-5.682752e-09	-3.462600e+01	-3.718738e+02
2.840000e-06	-5.077302e-06	-5.725727e-09	-3.548061e+01	-3.744915e+02
2.850000e-06	-5.197846e-06	-5.767020e-09	-3.632298e+01	-3.769222e+02
2.860000e-06	-5.316463e-06	-5.806013e-09	-3.715189e+01	-3.792066e+02
2.870000e-06	-5.432942e-06	-5.842168e-09	-3.796585e+01	-3.813816e+02
2.880000e-06	-5.547197e-06	-5.876864e-09	-3.876428e+01	-3.834761e+02
2.890000e-06	-5.659250e-06	-5.910399e-09	-3.954731e+01	-3.855083e+02
2.900000e-06	-5.769238e-06	-5.941604e-09	-4.031592e+01	-3.874849e+02
2.910000e-06	-5.877226e-06	-5.968315e-09	-4.107055e+01	-3.894022e+02
2.920000e-06	-5.983247e-06	-5.992644e-09	-4.181143e+01	-3.912491e+02
2.930000e-06	-6.087177e-06	-6.016425e-09	-4.253771e+01	-3.930103e+02
2.940000e-06	-6.188887e-06	-6.039748e-09	-4.324846e+01	-3.946711e+02
