# Temperatura_=_20.0
# Concentracion g/m^3_=_9000.0
# C_Vs_to_Am_M_A/Vsm_=_65563218390.804596
# pendiente_HvsI_1/m_=_3716.3
# ordenada_HvsI_A/m_=_1297.0
# frecuencia_Hz_=_301269.30263193004

Tiempo_(s)	Campo_(V.s)	Magnetizacion_(V.s)	Campo_(kA/m)	Magnetizacion_(A/m)
0.000000e+00	-8.111973e-06	-6.307958e-09	-5.698619e+01	-4.151141e+02
1.000000e-08	-8.108904e-06	-6.310972e-09	-5.696463e+01	-4.149872e+02
2.000000e-08	-8.103162e-06	-6.311655e-09	-5.692429e+01	-4.148605e+02
3.000000e-08	-8.094729e-06	-6.309784e-09	-5.686506e+01	-4.147336e+02
4.000000e-08	-8.083424e-06	-6.305390e-09	-5.678564e+01	-4.146005e+02
5.000000e-08	-8.069169e-06	-6.301537e-09	-5.668550e+01	-4.144514e+02
6.000000e-08	-8.052079e-06	-6.299213e-09	-5.656544e+01	-4.142736e+02
7.000000e-08	-8.032580e-06	-6.296266e-09	-5.642847e+01	-4.140541e+02
8.000000e-08	-8.010715e-06	-6.316459e-09	-5.627486e+01	-4.137812e+02
9.000000e-08	-7.985944e-06	-6.336938e-09	-5.610085e+01	-4.134465e+02
1.000000e-07	-7.957907e-06	-6.316206e-09	-5.590389e+01	-4.130458e+02
1.100000e-07	-7.926813e-06	-6.287814e-09	-5.568546e+01	-4.125795e+02
1.200000e-07	-7.892831e-06	-6.266447e-09	-5.544673e+01	-4.120524e+02
1.300000e-07	-7.856136e-06	-6.265012e-09	-5.518895e+01	-4.114722e+02
1.400000e-07	-7.817160e-06	-6.266261e-09	-5.491515e+01	-4.108481e+02
1.500000e-07	-7.775966e-06	-6.245165e-09	-5.462576e+01	-4.101890e+02
1.600000e-07	-7.732111e-06	-6.235359e-09	-5.431768e+01	-4.095020e+02
1.700000e-07	-7.685349e-06	-6.200092e-09	-5.398918e+01	-4.087910e+02
1.800000e-07	-7.635784e-06	-6.223391e-09	-5.364099e+01	-4.080563e+02
1.900000e-07	-7.583233e-06	-6.226729e-09	-5.327182e+01	-4.072947e+02
2.000000e-07	-7.527654e-06	-6.176947e-09	-5.288139e+01	-4.065002e+02
2.100000e-07	-7.469390e-06	-6.171890e-09	-5.247208e+01	-4.056655e+02
2.200000e-07	-7.408578e-06	-6.166027e-09	-5.204488e+01	-4.047835e+02
2.300000e-07	-7.345155e-06	-6.178124e-09	-5.159934e+01	-4.038487e+02
2.400000e-07	-7.279037e-06	-6.145582e-09	-5.113486e+01	-4.028584e+02
2.500000e-07	-7.210215e-06	-6.123674e-09	-5.065139e+01	-4.018132e+02
2.600000e-07	-7.138638e-06	-6.115972e-09	-5.014857e+01	-4.007168e+02
2.700000e-07	-7.064292e-06	-6.100159e-09	-4.962629e+01	-3.995754e+02
2.800000e-07	-6.987249e-06	-6.087958e-09	-4.908507e+01	-3.983961e+02
2.900000e-07	-6.907537e-06	-6.064289e-09	-4.852509e+01	-3.971852e+02
3.000000e-07	-6.825313e-06	-6.045726e-09	-4.794747e+01	-3.959469e+02
3.100000e-07	-6.740753e-06	-6.013399e-09	-4.735344e+01	-3.946815e+02
3.200000e-07	-6.653876e-06	-6.006957e-09	-4.674314e+01	-3.933849e+02
3.300000e-07	-6.564689e-06	-6.004518e-09	-4.611660e+01	-3.920487e+02
3.400000e-07	-6.473140e-06	-5.963920e-09	-4.547347e+01	-3.906608e+02
3.500000e-07	-6.379253e-06	-5.930140e-09	-4.481393e+01	-3.892070e+02
3.600000e-07	-6.283108e-06	-5.918923e-09	-4.413851e+01	-3.876732e+02
3.700000e-07	-6.184686e-06	-5.900388e-09	-4.344710e+01	-3.860472e+02
3.800000e-07	-6.083972e-06	-5.860669e-09	-4.273959e+01	-3.843206e+02
3.900000e-07	-5.981026e-06	-5.832762e-09	-4.201640e+01	-3.824905e+02
4.000000e-07	-5.875991e-06	-5.816151e-09	-4.127854e+01	-3.805594e+02
4.100000e-07	-5.768890e-06	-5.784234e-09	-4.052616e+01	-3.785349e+02
4.200000e-07	-5.659738e-06	-5.750484e-09	-3.975937e+01	-3.764288e+02
4.300000e-07	-5.548528e-06	-5.726665e-09	-3.897812e+01	-3.742539e+02
4.400000e-07	-5.435172e-06	-5.697071e-09	-3.818180e+01	-3.720227e+02
4.500000e-07	-5.319625e-06	-5.650725e-09	-3.737009e+01	-3.697441e+02
4.600000e-07	-5.202028e-06	-5.611151e-09	-3.654398e+01	-3.674215e+02
4.700000e-07	-5.082557e-06	-5.581651e-09	-3.570470e+01	-3.650518e+02
4.800000e-07	-4.961271e-06	-5.539265e-09	-3.485267e+01	-3.626251e+02
4.900000e-07	-4.838190e-06	-5.494303e-09	-3.398803e+01	-3.601255e+02
5.000000e-07	-4.713390e-06	-5.461486e-09	-3.311133e+01	-3.575332e+02
5.100000e-07	-4.586894e-06	-5.426962e-09	-3.222269e+01	-3.548270e+02
5.200000e-07	-4.458733e-06	-5.377787e-09	-3.132237e+01	-3.519871e+02
5.300000e-07	-4.328961e-06	-5.331243e-09	-3.041073e+01	-3.489979e+02
5.400000e-07	-4.197605e-06	-5.288262e-09	-2.948796e+01	-3.458496e+02
5.500000e-07	-4.064768e-06	-5.231987e-09	-2.855478e+01	-3.425391e+02
5.600000e-07	-3.930487e-06	-5.174520e-09	-2.761147e+01	-3.390699e+02
5.700000e-07	-3.794726e-06	-5.126418e-09	-2.665776e+01	-3.354495e+02
5.800000e-07	-3.657528e-06	-5.076203e-09	-2.569395e+01	-3.316874e+02
5.900000e-07	-3.518932e-06	-5.009953e-09	-2.472032e+01	-3.277912e+02
6.000000e-07	-3.378873e-06	-4.944853e-09	-2.373641e+01	-3.237633e+02
6.100000e-07	-3.237476e-06	-4.886517e-09	-2.274311e+01	-3.195979e+02
6.200000e-07	-3.094827e-06	-4.822330e-09	-2.174100e+01	-3.152791e+02
6.300000e-07	-2.951014e-06	-4.747137e-09	-2.073072e+01	-3.107806e+02
6.400000e-07	-2.806141e-06	-4.669813e-09	-1.971300e+01	-3.060668e+02
6.500000e-07	-2.660232e-06	-4.594829e-09	-1.868800e+01	-3.010955e+02
6.600000e-07	-2.513415e-06	-4.510655e-09	-1.765661e+01	-2.958212e+02
6.700000e-07	-2.365796e-06	-4.422195e-09	-1.661959e+01	-2.901993e+02
6.800000e-07	-2.217423e-06	-4.330637e-09	-1.557729e+01	-2.841896e+02
6.900000e-07	-2.068316e-06	-4.232016e-09	-1.452981e+01	-2.777587e+02
7.000000e-07	-1.918417e-06	-4.126124e-09	-1.347678e+01	-2.708804e+02
7.100000e-07	-1.767809e-06	-4.017572e-09	-1.241877e+01	-2.635337e+02
7.200000e-07	-1.616662e-06	-3.901697e-09	-1.135697e+01	-2.556995e+02
7.300000e-07	-1.464998e-06	-3.772854e-09	-1.029154e+01	-2.473540e+02
7.400000e-07	-1.312783e-06	-3.636224e-09	-9.222236e+00	-2.384620e+02
7.500000e-07	-1.160060e-06	-3.493248e-09	-8.149365e+00	-2.289696e+02
7.600000e-07	-1.006903e-06	-3.336972e-09	-7.073439e+00	-2.187988e+02
7.700000e-07	-8.533627e-07	-3.161430e-09	-5.994829e+00	-2.078436e+02
7.800000e-07	-6.995659e-07	-2.974656e-09	-4.914414e+00	-1.959707e+02
7.900000e-07	-5.455584e-07	-2.776386e-09	-3.832520e+00	-1.830238e+02
8.000000e-07	-3.913018e-07	-2.559093e-09	-2.748875e+00	-1.688334e+02
8.100000e-07	-2.368918e-07	-2.318744e-09	-1.664153e+00	-1.532297e+02
8.200000e-07	-8.237975e-08	-2.055418e-09	-5.787135e-01	-1.360602e+02
8.300000e-07	7.217098e-08	-1.767525e-09	5.069974e-01	-1.172079e+02
8.400000e-07	2.266710e-07	-1.452718e-09	1.592352e+00	-9.661009e+01
8.500000e-07	3.810498e-07	-1.113847e-09	2.676856e+00	-7.427462e+01
8.600000e-07	5.352262e-07	-7.509699e-10	3.759937e+00	-5.029206e+01
8.700000e-07	6.892160e-07	-3.645902e-10	4.841707e+00	-2.484182e+01
8.800000e-07	8.430251e-07	4.215448e-11	5.922208e+00	1.808900e+00
8.900000e-07	9.966118e-07	4.613660e-10	7.001147e+00	2.931382e+01
9.000000e-07	1.149830e-06	8.890873e-10	8.077494e+00	5.726357e+01
9.100000e-07	1.302616e-06	1.316778e-09	9.150808e+00	8.520781e+01
9.200000e-07	1.454857e-06	1.736026e-09	1.022029e+01	1.126817e+02
9.300000e-07	1.606413e-06	2.142759e-09	1.128497e+01	1.392345e+02
9.400000e-07	1.757404e-06	2.529361e-09	1.234567e+01	1.644569e+02
9.500000e-07	1.907889e-06	2.890473e-09	1.340283e+01	1.880058e+02
9.600000e-07	2.057692e-06	3.218128e-09	1.445518e+01	2.096235e+02
9.700000e-07	2.206675e-06	3.512105e-09	1.550178e+01	2.291490e+02
9.800000e-07	2.354854e-06	3.770265e-09	1.654273e+01	2.465223e+02
9.900000e-07	2.502187e-06	3.994219e-09	1.757774e+01	2.617794e+02
1.000000e-06	2.648689e-06	4.190478e-09	1.860690e+01	2.750410e+02
1.010000e-06	2.794271e-06	4.363721e-09	1.962961e+01	2.864944e+02
1.020000e-06	2.938808e-06	4.515750e-09	2.064498e+01	2.963721e+02
1.030000e-06	3.082269e-06	4.646297e-09	2.165278e+01	3.049289e+02
1.040000e-06	3.224609e-06	4.761579e-09	2.265271e+01	3.124197e+02
1.050000e-06	3.365762e-06	4.867644e-09	2.364430e+01	3.190803e+02
1.060000e-06	3.505617e-06	4.963424e-09	2.462678e+01	3.251129e+02
1.070000e-06	3.644116e-06	5.050453e-09	2.559973e+01	3.306772e+02
1.080000e-06	3.781221e-06	5.129685e-09	2.656289e+01	3.358871e+02
1.090000e-06	3.916868e-06	5.204629e-09	2.751579e+01	3.408130e+02
1.100000e-06	4.051060e-06	5.274950e-09	2.845849e+01	3.454883e+02
1.110000e-06	4.183842e-06	5.338975e-09	2.939128e+01	3.499193e+02
1.120000e-06	4.315087e-06	5.399217e-09	3.031326e+01	3.540955e+02
1.130000e-06	4.444752e-06	5.454663e-09	3.122416e+01	3.580010e+02
1.140000e-06	4.572900e-06	5.505034e-09	3.212439e+01	3.616229e+02
1.150000e-06	4.699442e-06	5.551185e-09	3.301334e+01	3.649580e+02
1.160000e-06	4.824369e-06	5.595735e-09	3.389094e+01	3.680161e+02
1.170000e-06	4.947644e-06	5.638042e-09	3.475694e+01	3.708199e+02
1.180000e-06	5.069137e-06	5.677542e-09	3.561043e+01	3.734028e+02
1.190000e-06	5.188767e-06	5.714826e-09	3.645082e+01	3.758044e+02
1.200000e-06	5.306495e-06	5.751157e-09	3.727785e+01	3.780649e+02
1.210000e-06	5.422246e-06	5.784621e-09	3.809100e+01	3.802206e+02
1.220000e-06	5.535854e-06	5.816994e-09	3.888909e+01	3.822988e+02
1.230000e-06	5.647293e-06	5.846964e-09	3.967194e+01	3.843161e+02
1.240000e-06	5.756747e-06	5.874836e-09	4.044085e+01	3.862774e+02
1.250000e-06	5.864270e-06	5.901277e-09	4.119619e+01	3.881772e+02
1.260000e-06	5.969672e-06	5.926142e-09	4.193664e+01	3.900027e+02
1.270000e-06	6.072864e-06	5.949857e-09	4.266156e+01	3.917376e+02
1.280000e-06	6.173911e-06	5.971164e-09	4.337141e+01	3.933663e+02
1.290000e-06	6.272769e-06	5.992453e-09	4.406588e+01	3.948778e+02
1.300000e-06	6.369263e-06	6.014401e-09	4.474375e+01	3.962678e+02
1.310000e-06	6.463470e-06	6.036358e-09	4.540555e+01	3.975409e+02
1.320000e-06	6.555443e-06	6.056979e-09	4.605165e+01	3.987093e+02
1.330000e-06	6.645069e-06	6.076641e-09	4.668127e+01	3.997919e+02
1.340000e-06	6.732361e-06	6.095171e-09	4.729449e+01	4.008107e+02
1.350000e-06	6.817396e-06	6.111344e-09	4.789186e+01	4.017881e+02
1.360000e-06	6.900112e-06	6.126207e-09	4.847293e+01	4.027434e+02
1.370000e-06	6.980253e-06	6.142277e-09	4.903592e+01	4.036897e+02
1.380000e-06	7.057860e-06	6.158241e-09	4.958110e+01	4.046327e+02
1.390000e-06	7.132891e-06	6.173139e-09	5.010819e+01	4.055701e+02
1.400000e-06	7.205178e-06	6.188560e-09	5.061601e+01	4.064927e+02
1.410000e-06	7.274918e-06	6.203073e-09	5.110592e+01	4.073862e+02
1.420000e-06	7.342079e-06	6.215634e-09	5.157773e+01	4.082340e+02
1.430000e-06	7.406543e-06	6.225891e-09	5.203058e+01	4.090207e+02
1.440000e-06	7.468466e-06	6.236481e-09	5.246559e+01	4.097343e+02
1.450000e-06	7.527897e-06	6.246886e-09	5.288309e+01	4.103687e+02
1.460000e-06	7.584605e-06	6.257248e-09	5.328146e+01	4.109247e+02
1.470000e-06	7.638541e-06	6.267642e-09	5.366035e+01	4.114095e+02
1.480000e-06	7.689419e-06	6.278199e-09	5.401777e+01	4.118361e+02
1.490000e-06	7.737101e-06	6.288105e-09	5.435273e+01	4.122206e+02
1.500000e-06	7.782062e-06	6.296190e-09	5.466859e+01	4.125799e+02
1.510000e-06	7.824361e-06	6.304812e-09	5.496573e+01	4.129289e+02
1.520000e-06	7.863789e-06	6.311371e-09	5.524271e+01	4.132779e+02
1.530000e-06	7.900460e-06	6.316631e-09	5.550032e+01	4.136316e+02
1.540000e-06	7.934425e-06	6.321536e-09	5.573892e+01	4.139881e+02
1.550000e-06	7.965595e-06	6.326371e-09	5.595790e+01	4.143398e+02
1.560000e-06	7.994068e-06	6.332443e-09	5.615792e+01	4.146744e+02
1.570000e-06	8.019711e-06	6.338686e-09	5.633806e+01	4.149776e+02
1.580000e-06	8.042375e-06	6.344445e-09	5.649727e+01	4.152351e+02
1.590000e-06	8.062282e-06	6.349532e-09	5.663712e+01	4.154354e+02
1.600000e-06	8.079378e-06	6.353571e-09	5.675722e+01	4.155715e+02
1.610000e-06	8.093495e-06	6.356494e-09	5.685639e+01	4.156419e+02
1.620000e-06	8.104533e-06	6.358587e-09	5.693393e+01	4.156509e+02
1.630000e-06	8.112437e-06	6.359187e-09	5.698946e+01	4.156076e+02
1.640000e-06	8.117518e-06	6.357888e-09	5.702515e+01	4.155246e+02
1.650000e-06	8.119846e-06	6.358139e-09	5.704150e+01	4.154154e+02
1.660000e-06	8.119322e-06	6.356938e-09	5.703782e+01	4.152927e+02
1.670000e-06	8.116104e-06	6.353652e-09	5.701522e+01	4.151657e+02
1.680000e-06	8.110141e-06	6.352118e-09	5.697332e+01	4.150390e+02
1.690000e-06	8.101433e-06	6.351986e-09	5.691215e+01	4.149119e+02
1.700000e-06	8.090080e-06	6.351018e-09	5.683240e+01	4.147784e+02
1.710000e-06	8.075856e-06	6.348298e-09	5.673247e+01	4.146284e+02
1.720000e-06	8.058916e-06	6.342110e-09	5.661347e+01	4.144494e+02
1.730000e-06	8.039701e-06	6.325478e-09	5.647848e+01	4.142281e+02
1.740000e-06	8.017986e-06	6.271054e-09	5.632594e+01	4.139530e+02
1.750000e-06	7.992931e-06	6.264902e-09	5.614993e+01	4.136159e+02
1.760000e-06	7.964040e-06	6.281483e-09	5.594697e+01	4.132128e+02
1.770000e-06	7.931803e-06	6.297576e-09	5.572051e+01	4.127442e+02
1.780000e-06	7.897127e-06	6.302814e-09	5.547691e+01	4.122150e+02
1.790000e-06	7.860136e-06	6.302375e-09	5.521705e+01	4.116330e+02
1.800000e-06	7.820786e-06	6.277317e-09	5.494062e+01	4.110074e+02
1.810000e-06	7.779395e-06	6.252707e-09	5.464985e+01	4.103472e+02
1.820000e-06	7.735483e-06	6.297996e-09	5.434137e+01	4.096593e+02
1.830000e-06	7.688709e-06	6.241968e-09	5.401278e+01	4.089474e+02
1.840000e-06	7.639180e-06	6.233312e-09	5.366485e+01	4.082118e+02
1.850000e-06	7.586695e-06	6.223239e-09	5.329614e+01	4.074490e+02
1.860000e-06	7.531318e-06	6.187596e-09	5.290712e+01	4.066531e+02
1.870000e-06	7.473143e-06	6.202873e-09	5.249845e+01	4.058168e+02
1.880000e-06	7.412325e-06	6.152459e-09	5.207120e+01	4.049330e+02
1.890000e-06	7.348887e-06	6.174926e-09	5.162555e+01	4.039962e+02
1.900000e-06	7.282595e-06	6.145779e-09	5.115986e+01	4.030038e+02
1.910000e-06	7.213535e-06	6.101247e-09	5.067471e+01	4.019566e+02
1.920000e-06	7.141753e-06	6.116091e-09	5.017045e+01	4.008585e+02
1.930000e-06	7.067281e-06	6.091824e-09	4.964729e+01	3.997156e+02
1.940000e-06	6.990019e-06	6.079728e-09	4.910453e+01	3.985350e+02
1.950000e-06	6.910042e-06	6.035344e-09	4.854269e+01	3.973230e+02
1.960000e-06	6.827710e-06	6.054391e-09	4.796431e+01	3.960837e+02
1.970000e-06	6.742912e-06	6.026247e-09	4.736861e+01	3.948172e+02
1.980000e-06	6.655556e-06	5.983282e-09	4.675494e+01	3.935194e+02
1.990000e-06	6.565874e-06	5.986099e-09	4.612493e+01	3.921815e+02
2.000000e-06	6.473981e-06	5.952432e-09	4.547938e+01	3.907914e+02
2.010000e-06	6.379780e-06	5.926899e-09	4.481763e+01	3.893349e+02
2.020000e-06	6.283272e-06	5.893173e-09	4.413967e+01	3.877980e+02
2.030000e-06	6.184573e-06	5.897663e-09	4.344631e+01	3.861684e+02
2.040000e-06	6.083639e-06	5.852475e-09	4.273725e+01	3.844381e+02
2.050000e-06	5.980425e-06	5.809150e-09	4.201218e+01	3.826043e+02
2.060000e-06	5.875082e-06	5.791651e-09	4.127215e+01	3.806696e+02
2.070000e-06	5.767786e-06	5.773169e-09	4.051840e+01	3.786420e+02
2.080000e-06	5.658415e-06	5.731936e-09	3.975007e+01	3.765330e+02
2.090000e-06	5.546867e-06	5.686963e-09	3.896646e+01	3.743559e+02
2.100000e-06	5.433252e-06	5.674895e-09	3.816832e+01	3.721229e+02
2.110000e-06	5.317588e-06	5.641045e-09	3.735578e+01	3.698426e+02
2.120000e-06	5.199777e-06	5.603556e-09	3.652817e+01	3.675183e+02
2.130000e-06	5.079940e-06	5.566651e-09	3.568632e+01	3.651468e+02
2.140000e-06	4.958337e-06	5.532867e-09	3.483206e+01	3.627177e+02
2.150000e-06	4.834932e-06	5.480583e-09	3.396515e+01	3.602151e+02
2.160000e-06	4.709805e-06	5.440798e-09	3.308614e+01	3.576190e+02
2.170000e-06	4.583051e-06	5.407238e-09	3.219570e+01	3.549083e+02
2.180000e-06	4.454651e-06	5.356169e-09	3.129369e+01	3.520633e+02
2.190000e-06	4.324656e-06	5.299872e-09	3.038049e+01	3.490685e+02
2.200000e-06	4.193128e-06	5.260785e-09	2.945651e+01	3.459143e+02
2.210000e-06	4.060110e-06	5.222658e-09	2.852206e+01	3.425981e+02
2.220000e-06	3.925614e-06	5.163605e-09	2.757723e+01	3.391232e+02
2.230000e-06	3.789692e-06	5.106299e-09	2.662239e+01	3.354976e+02
2.240000e-06	3.652379e-06	5.058284e-09	2.565777e+01	3.317305e+02
2.250000e-06	3.513650e-06	5.004245e-09	2.468321e+01	3.278296e+02
2.260000e-06	3.373616e-06	4.938784e-09	2.369948e+01	3.237968e+02
2.270000e-06	3.232371e-06	4.875701e-09	2.270724e+01	3.196262e+02
2.280000e-06	3.089826e-06	4.809694e-09	2.170587e+01	3.153015e+02
2.290000e-06	2.946053e-06	4.735743e-09	2.069587e+01	3.107959e+02
2.300000e-06	2.801226e-06	4.660584e-09	1.967847e+01	3.060737e+02
2.310000e-06	2.655439e-06	4.588933e-09	1.865432e+01	3.010923e+02
2.320000e-06	2.508674e-06	4.507387e-09	1.762330e+01	2.958062e+02
2.330000e-06	2.361078e-06	4.415820e-09	1.658645e+01	2.901711e+02
2.340000e-06	2.212735e-06	4.327891e-09	1.554435e+01	2.841468e+02
2.350000e-06	2.063607e-06	4.239056e-09	1.449673e+01	2.777003e+02
2.360000e-06	1.913774e-06	4.134581e-09	1.344416e+01	2.708055e+02
2.370000e-06	1.763261e-06	4.019580e-09	1.238682e+01	2.634418e+02
2.380000e-06	1.612072e-06	3.904346e-09	1.132472e+01	2.555897e+02
2.390000e-06	1.460282e-06	3.782846e-09	1.025841e+01	2.472253e+02
2.400000e-06	1.307969e-06	3.646197e-09	9.188415e+00	2.383128e+02
2.410000e-06	1.155166e-06	3.501567e-09	8.114981e+00	2.287977e+02
2.420000e-06	1.002013e-06	3.350420e-09	7.039087e+00	2.186008e+02
2.430000e-06	8.485801e-07	3.181375e-09	5.961231e+00	2.076153e+02
2.440000e-06	6.947693e-07	2.995046e-09	4.880719e+00	1.957067e+02
2.450000e-06	5.406859e-07	2.796108e-09	3.798291e+00	1.827183e+02
2.460000e-06	3.863975e-07	2.577991e-09	2.714423e+00	1.684802e+02
2.470000e-06	2.318984e-07	2.335759e-09	1.629075e+00	1.528230e+02
2.480000e-06	7.731849e-08	2.073544e-09	5.431584e-01	1.355951e+02
2.490000e-06	-7.726183e-08	1.790934e-09	-5.427604e-01	1.166812e+02
2.500000e-06	-2.317723e-07	1.480516e-09	-1.628189e+00	9.602064e+01
2.510000e-06	-3.861595e-07	1.142812e-09	-2.712750e+00	7.362421e+01
2.520000e-06	-5.403648e-07	7.830884e-10	-3.796035e+00	4.958555e+01
2.530000e-06	-6.943695e-07	4.005376e-10	-4.877910e+00	2.408728e+01
2.540000e-06	-8.480855e-07	-5.141461e-12	-5.957757e+00	-2.600392e+00
2.550000e-06	-1.001469e-06	-4.261598e-10	-7.035271e+00	-3.012862e+01
2.560000e-06	-1.154469e-06	-8.531943e-10	-8.110083e+00	-5.808614e+01
2.570000e-06	-1.307019e-06	-1.283460e-09	-9.181741e+00	-8.602165e+01
2.580000e-06	-1.459097e-06	-1.709895e-09	-1.025008e+01	-1.134703e+02
2.590000e-06	-1.610598e-06	-2.120577e-09	-1.131436e+01	-1.399823e+02
2.600000e-06	-1.761540e-06	-2.510511e-09	-1.237473e+01	-1.651504e+02
2.610000e-06	-1.911883e-06	-2.874270e-09	-1.343088e+01	-1.886343e+02
2.620000e-06	-2.061528e-06	-3.203968e-09	-1.448213e+01	-2.101795e+02
2.630000e-06	-2.210427e-06	-3.496889e-09	-1.552813e+01	-2.296287e+02
2.640000e-06	-2.358526e-06	-3.755876e-09	-1.656853e+01	-2.469252e+02
2.650000e-06	-2.505833e-06	-3.982802e-09	-1.760335e+01	-2.621086e+02
2.660000e-06	-2.652313e-06	-4.180421e-09	-1.863236e+01	-2.753022e+02
2.670000e-06	-2.797849e-06	-4.353687e-09	-1.965474e+01	-2.866951e+02
2.680000e-06	-2.942348e-06	-4.505866e-09	-2.066984e+01	-2.965213e+02
2.690000e-06	-3.085721e-06	-4.640307e-09	-2.167703e+01	-3.050357e+02
2.700000e-06	-3.227881e-06	-4.758282e-09	-2.267570e+01	-3.124930e+02
2.710000e-06	-3.368746e-06	-4.863364e-09	-2.366527e+01	-3.191280e+02
2.720000e-06	-3.508322e-06	-4.958241e-09	-2.464578e+01	-3.251415e+02
2.730000e-06	-3.646605e-06	-5.044334e-09	-2.561721e+01	-3.306915e+02
2.740000e-06	-3.783575e-06	-5.125203e-09	-2.657942e+01	-3.358903e+02
2.750000e-06	-3.919141e-06	-5.200444e-09	-2.753176e+01	-3.408069e+02
2.760000e-06	-4.053273e-06	-5.270877e-09	-2.847404e+01	-3.454736e+02
2.770000e-06	-4.185972e-06	-5.336084e-09	-2.940624e+01	-3.498957e+02
2.780000e-06	-4.317140e-06	-5.398155e-09	-3.032769e+01	-3.540627e+02
2.790000e-06	-4.446856e-06	-5.457488e-09	-3.123893e+01	-3.579583e+02
2.800000e-06	-4.575048e-06	-5.511526e-09	-3.213948e+01	-3.615700e+02
2.810000e-06	-4.701631e-06	-5.562010e-09	-3.302872e+01	-3.648950e+02
2.820000e-06	-4.826586e-06	-5.611205e-09	-3.390652e+01	-3.679436e+02
2.830000e-06	-4.949812e-06	-5.658354e-09	-3.477217e+01	-3.707389e+02
2.840000e-06	-5.071289e-06	-5.702222e-09	-3.562554e+01	-3.733147e+02
2.850000e-06	-5.190868e-06	-5.744006e-09	-3.646558e+01	-3.757106e+02
2.860000e-06	-5.308404e-06	-5.782429e-09	-3.729127e+01	-3.779669e+02
2.870000e-06	-5.423829e-06	-5.818253e-09	-3.810212e+01	-3.801194e+02
2.880000e-06	-5.537077e-06	-5.850832e-09	-3.889768e+01	-3.821953e+02
2.890000e-06	-5.648165e-06	-5.882015e-09	-3.967807e+01	-3.842106e+02
2.900000e-06	-5.757248e-06	-5.912519e-09	-4.044437e+01	-3.861699e+02
2.910000e-06	-5.864412e-06	-5.940029e-09	-4.119719e+01	-3.880673e+02
2.920000e-06	-5.969565e-06	-5.964883e-09	-4.193589e+01	-3.898899e+02
2.930000e-06	-6.072576e-06	-5.990130e-09	-4.265954e+01	-3.916214e+02
2.940000e-06	-6.173336e-06	-6.016623e-09	-4.336737e+01	-3.932461e+02
