# Temperatura_=_20.0
# Concentracion g/m^3_=_9000.0
# C_Vs_to_Am_M_A/Vsm_=_65563218390.804596
# pendiente_HvsI_1/m_=_3716.3
# ordenada_HvsI_A/m_=_1297.0
# frecuencia_Hz_=_301267.0891874196

Tiempo_(s)	Campo_(V.s)	Magnetizacion_(V.s)	Campo_(kA/m)	Magnetizacion_(A/m)
0.000000e+00	-8.055370e-06	-6.421331e-09	-5.698948e+01	-4.221211e+02
1.000000e-08	-8.052794e-06	-6.426986e-09	-5.697125e+01	-4.220061e+02
2.000000e-08	-8.047605e-06	-6.425630e-09	-5.693454e+01	-4.218860e+02
3.000000e-08	-8.039903e-06	-6.419825e-09	-5.688005e+01	-4.217575e+02
4.000000e-08	-8.029351e-06	-6.414626e-09	-5.680540e+01	-4.216128e+02
5.000000e-08	-8.015826e-06	-6.409635e-09	-5.670972e+01	-4.214409e+02
6.000000e-08	-7.999422e-06	-6.403820e-09	-5.659366e+01	-4.212292e+02
7.000000e-08	-7.980518e-06	-6.397990e-09	-5.645992e+01	-4.209661e+02
8.000000e-08	-7.959308e-06	-6.386223e-09	-5.630987e+01	-4.206430e+02
9.000000e-08	-7.935344e-06	-6.445410e-09	-5.614033e+01	-4.202556e+02
1.000000e-07	-7.908181e-06	-6.480133e-09	-5.594815e+01	-4.198050e+02
1.100000e-07	-7.877961e-06	-6.416345e-09	-5.573436e+01	-4.192972e+02
1.200000e-07	-7.844907e-06	-6.358588e-09	-5.550051e+01	-4.187422e+02
1.300000e-07	-7.809025e-06	-6.343478e-09	-5.524666e+01	-4.181522e+02
1.400000e-07	-7.770795e-06	-6.358155e-09	-5.497619e+01	-4.175392e+02
1.500000e-07	-7.730448e-06	-6.327332e-09	-5.469075e+01	-4.169130e+02
1.600000e-07	-7.687531e-06	-6.351568e-09	-5.438712e+01	-4.162791e+02
1.700000e-07	-7.641772e-06	-6.341337e-09	-5.406339e+01	-4.156376e+02
1.800000e-07	-7.593272e-06	-6.234498e-09	-5.372027e+01	-4.149829e+02
1.900000e-07	-7.541843e-06	-6.358846e-09	-5.335642e+01	-4.143043e+02
2.000000e-07	-7.487367e-06	-6.329010e-09	-5.297102e+01	-4.135878e+02
2.100000e-07	-7.430093e-06	-6.227167e-09	-5.256582e+01	-4.128178e+02
2.200000e-07	-7.370211e-06	-6.265306e-09	-5.214217e+01	-4.119801e+02
2.300000e-07	-7.307844e-06	-6.253440e-09	-5.170094e+01	-4.110638e+02
2.400000e-07	-7.242861e-06	-6.279327e-09	-5.124120e+01	-4.100631e+02
2.500000e-07	-7.175082e-06	-6.192699e-09	-5.076169e+01	-4.089781e+02
2.600000e-07	-7.104657e-06	-6.199893e-09	-5.026345e+01	-4.078151e+02
2.700000e-07	-7.031530e-06	-6.202701e-09	-4.974610e+01	-4.065849e+02
2.800000e-07	-6.955649e-06	-6.169372e-09	-4.920926e+01	-4.053012e+02
2.900000e-07	-6.877093e-06	-6.153795e-09	-4.865350e+01	-4.039777e+02
3.000000e-07	-6.795892e-06	-6.137822e-09	-4.807903e+01	-4.026262e+02
3.100000e-07	-6.712340e-06	-6.132880e-09	-4.748792e+01	-4.012538e+02
3.200000e-07	-6.626586e-06	-6.060078e-09	-4.688123e+01	-3.998614e+02
3.300000e-07	-6.538572e-06	-6.085570e-09	-4.625856e+01	-3.984437e+02
3.400000e-07	-6.448166e-06	-6.080873e-09	-4.561896e+01	-3.969890e+02
3.500000e-07	-6.355436e-06	-5.997040e-09	-4.496292e+01	-3.954816e+02
3.600000e-07	-6.260496e-06	-5.974667e-09	-4.429125e+01	-3.939035e+02
3.700000e-07	-6.163262e-06	-5.999803e-09	-4.360335e+01	-3.922373e+02
3.800000e-07	-6.063707e-06	-5.962544e-09	-4.289902e+01	-3.904693e+02
3.900000e-07	-5.961936e-06	-5.889233e-09	-4.217902e+01	-3.885909e+02
4.000000e-07	-5.858076e-06	-5.893466e-09	-4.144424e+01	-3.866002e+02
4.100000e-07	-5.752081e-06	-5.884062e-09	-4.069436e+01	-3.845021e+02
4.200000e-07	-5.644040e-06	-5.822935e-09	-3.993000e+01	-3.823071e+02
4.300000e-07	-5.534101e-06	-5.781558e-09	-3.915221e+01	-3.800292e+02
4.400000e-07	-5.422179e-06	-5.777195e-09	-3.836039e+01	-3.776831e+02
4.500000e-07	-5.308103e-06	-5.734656e-09	-3.755334e+01	-3.752814e+02
4.600000e-07	-5.191869e-06	-5.675125e-09	-3.673102e+01	-3.728316e+02
4.700000e-07	-5.073637e-06	-5.652022e-09	-3.589456e+01	-3.703346e+02
4.800000e-07	-4.953547e-06	-5.626115e-09	-3.504495e+01	-3.677836e+02
4.900000e-07	-4.831708e-06	-5.563416e-09	-3.418298e+01	-3.651647e+02
5.000000e-07	-4.708153e-06	-5.520342e-09	-3.330886e+01	-3.624584e+02
5.100000e-07	-4.582903e-06	-5.498216e-09	-3.242275e+01	-3.596423e+02
5.200000e-07	-4.455943e-06	-5.443712e-09	-3.152455e+01	-3.566944e+02
5.300000e-07	-4.327396e-06	-5.377572e-09	-3.061511e+01	-3.535958e+02
5.400000e-07	-4.197312e-06	-5.337849e-09	-2.969480e+01	-3.503336e+02
5.500000e-07	-4.065660e-06	-5.299486e-09	-2.876340e+01	-3.469021e+02
5.600000e-07	-3.932622e-06	-5.228032e-09	-2.782220e+01	-3.433028e+02
5.700000e-07	-3.798240e-06	-5.170531e-09	-2.687148e+01	-3.395432e+02
5.800000e-07	-3.662440e-06	-5.127445e-09	-2.591073e+01	-3.356341e+02
5.900000e-07	-3.525316e-06	-5.067191e-09	-2.494062e+01	-3.315860e+02
6.000000e-07	-3.386861e-06	-4.988805e-09	-2.396109e+01	-3.274054e+02
6.100000e-07	-3.246983e-06	-4.927010e-09	-2.297149e+01	-3.230910e+02
6.200000e-07	-3.105746e-06	-4.867714e-09	-2.197228e+01	-3.186315e+02
6.300000e-07	-2.963287e-06	-4.786274e-09	-2.096442e+01	-3.140046e+02
6.400000e-07	-2.819648e-06	-4.703013e-09	-1.994822e+01	-3.091772e+02
6.500000e-07	-2.674904e-06	-4.625593e-09	-1.892419e+01	-3.041079e+02
6.600000e-07	-2.529250e-06	-4.543762e-09	-1.789373e+01	-2.987507e+02
6.700000e-07	-2.382807e-06	-4.447751e-09	-1.685769e+01	-2.930588e+02
6.800000e-07	-2.235578e-06	-4.358822e-09	-1.581608e+01	-2.869889e+02
6.900000e-07	-2.087572e-06	-4.264044e-09	-1.476899e+01	-2.805041e+02
7.000000e-07	-1.938902e-06	-4.154397e-09	-1.371718e+01	-2.735754e+02
7.100000e-07	-1.789662e-06	-4.041179e-09	-1.266136e+01	-2.661803e+02
7.200000e-07	-1.639794e-06	-3.929713e-09	-1.160108e+01	-2.582999e+02
7.300000e-07	-1.489315e-06	-3.806158e-09	-1.053649e+01	-2.499132e+02
7.400000e-07	-1.338341e-06	-3.663346e-09	-9.468385e+00	-2.409898e+02
7.500000e-07	-1.186899e-06	-3.519864e-09	-8.396975e+00	-2.314828e+02
7.600000e-07	-1.035012e-06	-3.368278e-09	-7.322422e+00	-2.213220e+02
7.700000e-07	-8.826998e-07	-3.196798e-09	-6.244853e+00	-2.104093e+02
7.800000e-07	-7.300209e-07	-3.005515e-09	-5.164692e+00	-1.986183e+02
7.900000e-07	-5.770521e-07	-2.809148e-09	-4.082481e+00	-1.857972e+02
8.000000e-07	-4.238056e-07	-2.597615e-09	-2.998305e+00	-1.717774e+02
8.100000e-07	-2.703746e-07	-2.359048e-09	-1.912824e+00	-1.563860e+02
8.200000e-07	-1.168545e-07	-2.099073e-09	-8.267127e-01	-1.394624e+02
8.300000e-07	3.666764e-08	-1.817272e-09	2.594133e-01	-1.208773e+02
8.400000e-07	1.901041e-07	-1.507853e-09	1.344933e+00	-1.005518e+02
8.500000e-07	3.435171e-07	-1.169371e-09	2.430287e+00	-7.847483e+01
8.600000e-07	4.968311e-07	-8.125535e-10	3.514941e+00	-5.471683e+01
8.700000e-07	6.499127e-07	-4.316933e-10	4.597950e+00	-2.943760e+01
8.800000e-07	8.027778e-07	-2.767088e-11	5.679427e+00	-2.886929e+00
8.900000e-07	9.552825e-07	3.910922e-10	6.758355e+00	2.460248e+01
9.000000e-07	1.107287e-06	8.177196e-10	7.833744e+00	5.262979e+01
9.100000e-07	1.258840e-06	1.248089e-09	8.905941e+00	8.074740e+01
9.200000e-07	1.409953e-06	1.674163e-09	9.975021e+00	1.084872e+02
9.300000e-07	1.560611e-06	2.084444e-09	1.104088e+01	1.353891e+02
9.400000e-07	1.710747e-06	2.477214e-09	1.210305e+01	1.610301e+02
9.500000e-07	1.860267e-06	2.846609e-09	1.316087e+01	1.850495e+02
9.600000e-07	2.009096e-06	3.185155e-09	1.421379e+01	2.071699e+02
9.700000e-07	2.157245e-06	3.484664e-09	1.526190e+01	2.272105e+02
9.800000e-07	2.304667e-06	3.748661e-09	1.630487e+01	2.450921e+02
9.900000e-07	2.451283e-06	3.980277e-09	1.734214e+01	2.608349e+02
1.000000e-06	2.597035e-06	4.180123e-09	1.837329e+01	2.745467e+02
1.010000e-06	2.741785e-06	4.355163e-09	1.939736e+01	2.864065e+02
1.020000e-06	2.885522e-06	4.512677e-09	2.041425e+01	2.966428e+02
1.030000e-06	3.028221e-06	4.649617e-09	2.142381e+01	3.055105e+02
1.040000e-06	3.169778e-06	4.768493e-09	2.242529e+01	3.132680e+02
1.050000e-06	3.310159e-06	4.877643e-09	2.341845e+01	3.201576e+02
1.060000e-06	3.449214e-06	4.976849e-09	2.440222e+01	3.263893e+02
1.070000e-06	3.586877e-06	5.066060e-09	2.537615e+01	3.321314e+02
1.080000e-06	3.723167e-06	5.147204e-09	2.634036e+01	3.375061e+02
1.090000e-06	3.858089e-06	5.223425e-09	2.729490e+01	3.425910e+02
1.100000e-06	3.991673e-06	5.295225e-09	2.823997e+01	3.474253e+02
1.110000e-06	4.123923e-06	5.361562e-09	2.917559e+01	3.520193e+02
1.120000e-06	4.254751e-06	5.423118e-09	3.010116e+01	3.563650e+02
1.130000e-06	4.383950e-06	5.481249e-09	3.101521e+01	3.604468e+02
1.140000e-06	4.511531e-06	5.535280e-09	3.191781e+01	3.642514e+02
1.150000e-06	4.637557e-06	5.585273e-09	3.280941e+01	3.677741e+02
1.160000e-06	4.762060e-06	5.633504e-09	3.369023e+01	3.710226e+02
1.170000e-06	4.884955e-06	5.678369e-09	3.455968e+01	3.740177e+02
1.180000e-06	5.005955e-06	5.719700e-09	3.541572e+01	3.767907e+02
1.190000e-06	5.125091e-06	5.759023e-09	3.625858e+01	3.793794e+02
1.200000e-06	5.242443e-06	5.795873e-09	3.708881e+01	3.818231e+02
1.210000e-06	5.357760e-06	5.832260e-09	3.790465e+01	3.841568e+02
1.220000e-06	5.470872e-06	5.867015e-09	3.870488e+01	3.864078e+02
1.230000e-06	5.581888e-06	5.900804e-09	3.949029e+01	3.885922e+02
1.240000e-06	5.691016e-06	5.932169e-09	4.026234e+01	3.907149e+02
1.250000e-06	5.798264e-06	5.961631e-09	4.102109e+01	3.927708e+02
1.260000e-06	5.903429e-06	5.989322e-09	4.176510e+01	3.947473e+02
1.270000e-06	6.006385e-06	6.015174e-09	4.249348e+01	3.966285e+02
1.280000e-06	6.107229e-06	6.039155e-09	4.320693e+01	3.983992e+02
1.290000e-06	6.205893e-06	6.062004e-09	4.390495e+01	4.000486e+02
1.300000e-06	6.302208e-06	6.084846e-09	4.458635e+01	4.015734e+02
1.310000e-06	6.396243e-06	6.106704e-09	4.525162e+01	4.029781e+02
1.320000e-06	6.488124e-06	6.129067e-09	4.590165e+01	4.042757e+02
1.330000e-06	6.577702e-06	6.149892e-09	4.653540e+01	4.054852e+02
1.340000e-06	6.664891e-06	6.169943e-09	4.715223e+01	4.066288e+02
1.350000e-06	6.749863e-06	6.189976e-09	4.775338e+01	4.077288e+02
1.360000e-06	6.832483e-06	6.208230e-09	4.833789e+01	4.088039e+02
1.370000e-06	6.912609e-06	6.224288e-09	4.890476e+01	4.098665e+02
1.380000e-06	6.990259e-06	6.239542e-09	4.945412e+01	4.109213e+02
1.390000e-06	7.065316e-06	6.256000e-09	4.998512e+01	4.119648e+02
1.400000e-06	7.137716e-06	6.273021e-09	5.049733e+01	4.129864e+02
1.410000e-06	7.207602e-06	6.287573e-09	5.099176e+01	4.139706e+02
1.420000e-06	7.274955e-06	6.299130e-09	5.146826e+01	4.148999e+02
1.430000e-06	7.339634e-06	6.311663e-09	5.192585e+01	4.157580e+02
1.440000e-06	7.401683e-06	6.324899e-09	5.236483e+01	4.165325e+02
1.450000e-06	7.461224e-06	6.336381e-09	5.278606e+01	4.172174e+02
1.460000e-06	7.518187e-06	6.347243e-09	5.318906e+01	4.178138e+02
1.470000e-06	7.572396e-06	6.357883e-09	5.357257e+01	4.183300e+02
1.480000e-06	7.623592e-06	6.368127e-09	5.393477e+01	4.187799e+02
1.490000e-06	7.671671e-06	6.378202e-09	5.427492e+01	4.191806e+02
1.500000e-06	7.716969e-06	6.386535e-09	5.459539e+01	4.195504e+02
1.510000e-06	7.759615e-06	6.393829e-09	5.489709e+01	4.199049e+02
1.520000e-06	7.799435e-06	6.400575e-09	5.517881e+01	4.202557e+02
1.530000e-06	7.836501e-06	6.408421e-09	5.544104e+01	4.206083e+02
1.540000e-06	7.870850e-06	6.415934e-09	5.568405e+01	4.209614e+02
1.550000e-06	7.902414e-06	6.419402e-09	5.590736e+01	4.213080e+02
1.560000e-06	7.931348e-06	6.422414e-09	5.611206e+01	4.216368e+02
1.570000e-06	7.957541e-06	6.427514e-09	5.629736e+01	4.219340e+02
1.580000e-06	7.980770e-06	6.434240e-09	5.646170e+01	4.221864e+02
1.590000e-06	8.001222e-06	6.439635e-09	5.660640e+01	4.223834e+02
1.600000e-06	8.018871e-06	6.442760e-09	5.673125e+01	4.225188e+02
1.610000e-06	8.033544e-06	6.445459e-09	5.683507e+01	4.225919e+02
1.620000e-06	8.045227e-06	6.448331e-09	5.691772e+01	4.226074e+02
1.630000e-06	8.053860e-06	6.450340e-09	5.697880e+01	4.225745e+02
1.640000e-06	8.059620e-06	6.449454e-09	5.701955e+01	4.225048e+02
1.650000e-06	8.062613e-06	6.448911e-09	5.704072e+01	4.224107e+02
1.660000e-06	8.062723e-06	6.452100e-09	5.704150e+01	4.223027e+02
1.670000e-06	8.060115e-06	6.446396e-09	5.702304e+01	4.221874e+02
1.680000e-06	8.054832e-06	6.443978e-09	5.698567e+01	4.220670e+02
1.690000e-06	8.046853e-06	6.443956e-09	5.692922e+01	4.219381e+02
1.700000e-06	8.036282e-06	6.441869e-09	5.685444e+01	4.217926e+02
1.710000e-06	8.022834e-06	6.440301e-09	5.675929e+01	4.216194e+02
1.720000e-06	8.006568e-06	6.442461e-09	5.664422e+01	4.214060e+02
1.730000e-06	7.987926e-06	6.449397e-09	5.651233e+01	4.211409e+02
1.740000e-06	7.966886e-06	6.403656e-09	5.636348e+01	4.208154e+02
1.750000e-06	7.942750e-06	6.302743e-09	5.619273e+01	4.204257e+02
1.760000e-06	7.914886e-06	6.341493e-09	5.599560e+01	4.199729e+02
1.770000e-06	7.883562e-06	6.394638e-09	5.577398e+01	4.194632e+02
1.780000e-06	7.849618e-06	6.400743e-09	5.553384e+01	4.189067e+02
1.790000e-06	7.813481e-06	6.407854e-09	5.527818e+01	4.183156e+02
1.800000e-06	7.775012e-06	6.445092e-09	5.500603e+01	4.177019e+02
1.810000e-06	7.734440e-06	6.296972e-09	5.471899e+01	4.170753e+02
1.820000e-06	7.691525e-06	6.304893e-09	5.441538e+01	4.164411e+02
1.830000e-06	7.645758e-06	6.452983e-09	5.409159e+01	4.157993e+02
1.840000e-06	7.597263e-06	6.274270e-09	5.374850e+01	4.151439e+02
1.850000e-06	7.545841e-06	6.356599e-09	5.338470e+01	4.144642e+02
1.860000e-06	7.491455e-06	6.327012e-09	5.299994e+01	4.137460e+02
1.870000e-06	7.434318e-06	6.291435e-09	5.259571e+01	4.129738e+02
1.880000e-06	7.374566e-06	6.330608e-09	5.217298e+01	4.121334e+02
1.890000e-06	7.312272e-06	6.228732e-09	5.173227e+01	4.112140e+02
1.900000e-06	7.247126e-06	6.326026e-09	5.127138e+01	4.102102e+02
1.910000e-06	7.179120e-06	6.200329e-09	5.079026e+01	4.091223e+02
1.920000e-06	7.108329e-06	6.189000e-09	5.028943e+01	4.079566e+02
1.930000e-06	7.034937e-06	6.253057e-09	4.977020e+01	4.067242e+02
1.940000e-06	6.958918e-06	6.183432e-09	4.923239e+01	4.054388e+02
1.950000e-06	6.880044e-06	6.158244e-09	4.867438e+01	4.041141e+02
1.960000e-06	6.798738e-06	6.100574e-09	4.809916e+01	4.027617e+02
1.970000e-06	6.715097e-06	6.193600e-09	4.750743e+01	4.013885e+02
1.980000e-06	6.628925e-06	6.091250e-09	4.689778e+01	3.999953e+02
1.990000e-06	6.540275e-06	6.053742e-09	4.627061e+01	3.985765e+02
2.000000e-06	6.449449e-06	6.092104e-09	4.562804e+01	3.971202e+02
2.010000e-06	6.356477e-06	6.032505e-09	4.497029e+01	3.956105e+02
2.020000e-06	6.261146e-06	6.001794e-09	4.429585e+01	3.940294e+02
2.030000e-06	6.163610e-06	5.970042e-09	4.360581e+01	3.923598e+02
2.040000e-06	6.063945e-06	5.993088e-09	4.290071e+01	3.905879e+02
2.050000e-06	5.962036e-06	5.899444e-09	4.217973e+01	3.887054e+02
2.060000e-06	5.857881e-06	5.872245e-09	4.144286e+01	3.867108e+02
2.070000e-06	5.751723e-06	5.876680e-09	4.069182e+01	3.846090e+02
2.080000e-06	5.643605e-06	5.845120e-09	3.992692e+01	3.824107e+02
2.090000e-06	5.533370e-06	5.774419e-09	3.914704e+01	3.801301e+02
2.100000e-06	5.421054e-06	5.746524e-09	3.835243e+01	3.777818e+02
2.110000e-06	5.306760e-06	5.749916e-09	3.754384e+01	3.753781e+02
2.120000e-06	5.190390e-06	5.686028e-09	3.672055e+01	3.729267e+02
2.130000e-06	5.071892e-06	5.642588e-09	3.588221e+01	3.704279e+02
2.140000e-06	4.951488e-06	5.615889e-09	3.503039e+01	3.678747e+02
2.150000e-06	4.829300e-06	5.580607e-09	3.416594e+01	3.652530e+02
2.160000e-06	4.705407e-06	5.511901e-09	3.328943e+01	3.625431e+02
2.170000e-06	4.579876e-06	5.481158e-09	3.240134e+01	3.597226e+02
2.180000e-06	4.452632e-06	5.447006e-09	3.150112e+01	3.567696e+02
2.190000e-06	4.323752e-06	5.384124e-09	3.058933e+01	3.536653e+02
2.200000e-06	4.193468e-06	5.324474e-09	2.966761e+01	3.503971e+02
2.210000e-06	4.061759e-06	5.293481e-09	2.873580e+01	3.469594e+02
2.220000e-06	3.928571e-06	5.244540e-09	2.779354e+01	3.433541e+02
2.230000e-06	3.793888e-06	5.171213e-09	2.684069e+01	3.395890e+02
2.240000e-06	3.657797e-06	5.116849e-09	2.587788e+01	3.356747e+02
2.250000e-06	3.520440e-06	5.069914e-09	2.490612e+01	3.316218e+02
2.260000e-06	3.381808e-06	5.004315e-09	2.392534e+01	3.274364e+02
2.270000e-06	3.242001e-06	4.930031e-09	2.293625e+01	3.231170e+02
2.280000e-06	3.100879e-06	4.871641e-09	2.193785e+01	3.186520e+02
2.290000e-06	2.958413e-06	4.802913e-09	2.092994e+01	3.140185e+02
2.300000e-06	2.814759e-06	4.719306e-09	1.991363e+01	3.091831e+02
2.310000e-06	2.670059e-06	4.640493e-09	1.888992e+01	3.041044e+02
2.320000e-06	2.524493e-06	4.568796e-09	1.786008e+01	2.987360e+02
2.330000e-06	2.378139e-06	4.475693e-09	1.682467e+01	2.930312e+02
2.340000e-06	2.231020e-06	4.375276e-09	1.578384e+01	2.869470e+02
2.350000e-06	2.083090e-06	4.285742e-09	1.473728e+01	2.804468e+02
2.360000e-06	1.934407e-06	4.188682e-09	1.368539e+01	2.735017e+02
2.370000e-06	1.785079e-06	4.069766e-09	1.262893e+01	2.660895e+02
2.380000e-06	1.635125e-06	3.949460e-09	1.156805e+01	2.581914e+02
2.390000e-06	1.484565e-06	3.830889e-09	1.050288e+01	2.497861e+02
2.400000e-06	1.333512e-06	3.696032e-09	9.434221e+00	2.408428e+02
2.410000e-06	1.181921e-06	3.547231e-09	8.361758e+00	2.313137e+02
2.420000e-06	1.029821e-06	3.394668e-09	7.285696e+00	2.211278e+02
2.430000e-06	8.773249e-07	3.230389e-09	6.206827e+00	2.101861e+02
2.440000e-06	7.245269e-07	3.042378e-09	5.125824e+00	1.983610e+02
2.450000e-06	5.715258e-07	2.842267e-09	4.043384e+00	1.855000e+02
2.460000e-06	4.183604e-07	2.629985e-09	2.959783e+00	1.714341e+02
2.470000e-06	2.650596e-07	2.394135e-09	1.875222e+00	1.559906e+02
2.480000e-06	1.116585e-07	2.132158e-09	7.899528e-01	1.390096e+02
2.490000e-06	-4.176194e-08	1.851035e-09	-2.954540e-01	1.203633e+02
2.500000e-06	-1.951395e-07	1.546228e-09	-1.380557e+00	9.997497e+01
2.510000e-06	-3.483983e-07	1.209370e-09	-2.464820e+00	7.783618e+01
2.520000e-06	-5.015381e-07	8.496462e-10	-3.548241e+00	5.402050e+01
2.530000e-06	-6.545361e-07	4.721058e-10	-4.630659e+00	2.869099e+01
2.540000e-06	-8.072961e-07	7.191168e-11	-5.711393e+00	2.100562e+00
2.550000e-06	-9.597906e-07	-3.502118e-10	-6.790248e+00	-2.541535e+01
2.560000e-06	-1.111901e-06	-7.790340e-10	-7.866390e+00	-5.345384e+01
2.570000e-06	-1.263572e-06	-1.209761e-09	-8.939414e+00	-8.156610e+01
2.580000e-06	-1.414766e-06	-1.641541e-09	-1.000907e+01	-1.092838e+02
2.590000e-06	-1.565443e-06	-2.059291e-09	-1.107507e+01	-1.361477e+02
2.600000e-06	-1.715556e-06	-2.454371e-09	-1.213708e+01	-1.617366e+02
2.610000e-06	-1.864926e-06	-2.827163e-09	-1.319382e+01	-1.856925e+02
2.620000e-06	-2.013547e-06	-3.170335e-09	-1.424528e+01	-2.077412e+02
2.630000e-06	-2.161465e-06	-3.473216e-09	-1.529176e+01	-2.277054e+02
2.640000e-06	-2.308694e-06	-3.736893e-09	-1.633336e+01	-2.455098e+02
2.650000e-06	-2.455139e-06	-3.969265e-09	-1.736942e+01	-2.611778e+02
2.660000e-06	-2.600726e-06	-4.174126e-09	-1.839940e+01	-2.748201e+02
2.670000e-06	-2.745483e-06	-4.351126e-09	-1.942352e+01	-2.866177e+02
2.680000e-06	-2.889282e-06	-4.507308e-09	-2.044086e+01	-2.968007e+02
2.690000e-06	-3.031941e-06	-4.649354e-09	-2.145013e+01	-3.056244e+02
2.700000e-06	-3.173300e-06	-4.775266e-09	-2.245020e+01	-3.133470e+02
2.710000e-06	-3.313366e-06	-4.884873e-09	-2.344113e+01	-3.202097e+02
2.720000e-06	-3.452225e-06	-4.983245e-09	-2.442352e+01	-3.264214e+02
2.730000e-06	-3.589856e-06	-5.072674e-09	-2.539722e+01	-3.321486e+02
2.740000e-06	-3.726193e-06	-5.153362e-09	-2.636177e+01	-3.375119e+02
2.750000e-06	-3.861126e-06	-5.228691e-09	-2.731638e+01	-3.425874e+02
2.760000e-06	-3.994551e-06	-5.301722e-09	-2.826032e+01	-3.474132e+02
2.770000e-06	-4.126569e-06	-5.371456e-09	-2.919432e+01	-3.519986e+02
2.780000e-06	-4.257221e-06	-5.435738e-09	-3.011864e+01	-3.563351e+02
2.790000e-06	-4.386446e-06	-5.497775e-09	-3.103287e+01	-3.604072e+02
2.800000e-06	-4.514182e-06	-5.556145e-09	-3.193657e+01	-3.642018e+02
2.810000e-06	-4.640255e-06	-5.609397e-09	-3.282850e+01	-3.677146e+02
2.820000e-06	-4.764676e-06	-5.660635e-09	-3.370874e+01	-3.709537e+02
2.830000e-06	-4.887469e-06	-5.710727e-09	-3.457747e+01	-3.739403e+02
2.840000e-06	-5.008562e-06	-5.757813e-09	-3.543417e+01	-3.767060e+02
2.850000e-06	-5.127757e-06	-5.799246e-09	-3.627744e+01	-3.792890e+02
2.860000e-06	-5.244860e-06	-5.839738e-09	-3.710591e+01	-3.817282e+02
2.870000e-06	-5.359856e-06	-5.879017e-09	-3.791947e+01	-3.840586e+02
2.880000e-06	-5.472708e-06	-5.914441e-09	-3.871787e+01	-3.863070e+02
2.890000e-06	-5.583441e-06	-5.947715e-09	-3.950128e+01	-3.884892e+02
2.900000e-06	-5.692208e-06	-5.981200e-09	-4.027077e+01	-3.906098e+02
2.910000e-06	-5.799070e-06	-6.014642e-09	-4.102679e+01	-3.926632e+02
2.920000e-06	-5.903960e-06	-6.044443e-09	-4.176886e+01	-3.946366e+02
2.930000e-06	-6.006694e-06	-6.069581e-09	-4.249567e+01	-3.965141e+02
2.940000e-06	-6.107200e-06	-6.093831e-09	-4.320672e+01	-3.982807e+02
