# Temperatura_=_20.0
# Concentracion g/m^3_=_9000.0
# C_Vs_to_Am_M_A/Vsm_=_65563218390.804596
# pendiente_HvsI_1/m_=_3716.3
# ordenada_HvsI_A/m_=_1297.0
# frecuencia_Hz_=_212865.55088813047

Tiempo_(s)	Campo_(V.s)	Magnetizacion_(V.s)	Campo_(kA/m)	Magnetizacion_(A/m)
0.000000e+00	-3.967071e-06	-3.375554e-09	-2.914202e+01	-2.281202e+02
1.000000e-08	-3.966892e-06	-3.375422e-09	-2.914071e+01	-2.280934e+02
2.000000e-08	-3.965941e-06	-3.375609e-09	-2.913371e+01	-2.280365e+02
3.000000e-08	-3.964105e-06	-3.373665e-09	-2.912023e+01	-2.279525e+02
4.000000e-08	-3.961400e-06	-3.371329e-09	-2.910035e+01	-2.278452e+02
5.000000e-08	-3.958021e-06	-3.369986e-09	-2.907553e+01	-2.277194e+02
6.000000e-08	-3.954154e-06	-3.373890e-09	-2.904713e+01	-2.275807e+02
7.000000e-08	-3.949658e-06	-3.388245e-09	-2.901410e+01	-2.274353e+02
8.000000e-08	-3.944385e-06	-3.384684e-09	-2.897537e+01	-2.272893e+02
9.000000e-08	-3.938250e-06	-3.343562e-09	-2.893030e+01	-2.271484e+02
1.000000e-07	-3.931299e-06	-3.300410e-09	-2.887923e+01	-2.270179e+02
1.100000e-07	-3.923859e-06	-3.360569e-09	-2.882458e+01	-2.269019e+02
1.200000e-07	-3.916044e-06	-3.427456e-09	-2.876718e+01	-2.268034e+02
1.300000e-07	-3.907485e-06	-3.378315e-09	-2.870430e+01	-2.267235e+02
1.400000e-07	-3.898062e-06	-3.311800e-09	-2.863508e+01	-2.266620e+02
1.500000e-07	-3.887931e-06	-3.326174e-09	-2.856066e+01	-2.266167e+02
1.600000e-07	-3.876957e-06	-3.406166e-09	-2.848004e+01	-2.265838e+02
1.700000e-07	-3.864941e-06	-3.400427e-09	-2.839177e+01	-2.265581e+02
1.800000e-07	-3.852201e-06	-3.429889e-09	-2.829818e+01	-2.265331e+02
1.900000e-07	-3.838980e-06	-3.368147e-09	-2.820106e+01	-2.265011e+02
2.000000e-07	-3.824659e-06	-3.336214e-09	-2.809586e+01	-2.264544e+02
2.100000e-07	-3.809079e-06	-3.461909e-09	-2.798141e+01	-2.263846e+02
2.200000e-07	-3.792884e-06	-3.525851e-09	-2.786244e+01	-2.262842e+02
2.300000e-07	-3.776159e-06	-3.434280e-09	-2.773959e+01	-2.261460e+02
2.400000e-07	-3.758735e-06	-3.363733e-09	-2.761159e+01	-2.259641e+02
2.500000e-07	-3.740742e-06	-3.538894e-09	-2.747941e+01	-2.257340e+02
2.600000e-07	-3.722204e-06	-3.577111e-09	-2.734323e+01	-2.254530e+02
2.700000e-07	-3.703074e-06	-3.487837e-09	-2.720270e+01	-2.251197e+02
2.800000e-07	-3.683488e-06	-3.458250e-09	-2.705882e+01	-2.247349e+02
2.900000e-07	-3.663404e-06	-3.543321e-09	-2.691128e+01	-2.243009e+02
3.000000e-07	-3.642663e-06	-3.572013e-09	-2.675892e+01	-2.238214e+02
3.100000e-07	-3.621254e-06	-3.504989e-09	-2.660166e+01	-2.233015e+02
3.200000e-07	-3.599139e-06	-3.498707e-09	-2.643920e+01	-2.227469e+02
3.300000e-07	-3.576385e-06	-3.486280e-09	-2.627205e+01	-2.221641e+02
3.400000e-07	-3.553106e-06	-3.474164e-09	-2.610104e+01	-2.215594e+02
3.500000e-07	-3.529349e-06	-3.505463e-09	-2.592652e+01	-2.209389e+02
3.600000e-07	-3.505057e-06	-3.513728e-09	-2.574807e+01	-2.203081e+02
3.700000e-07	-3.480070e-06	-3.425546e-09	-2.556452e+01	-2.196715e+02
3.800000e-07	-3.454021e-06	-3.399561e-09	-2.537316e+01	-2.190324e+02
3.900000e-07	-3.427000e-06	-3.483184e-09	-2.517467e+01	-2.183929e+02
4.000000e-07	-3.399504e-06	-3.487836e-09	-2.497268e+01	-2.177535e+02
4.100000e-07	-3.371588e-06	-3.367068e-09	-2.476761e+01	-2.171136e+02
4.200000e-07	-3.343073e-06	-3.368155e-09	-2.455814e+01	-2.164711e+02
4.300000e-07	-3.313964e-06	-3.458801e-09	-2.434431e+01	-2.158232e+02
4.400000e-07	-3.284424e-06	-3.420763e-09	-2.412731e+01	-2.151661e+02
4.500000e-07	-3.254412e-06	-3.339154e-09	-2.390684e+01	-2.144955e+02
4.600000e-07	-3.223761e-06	-3.350119e-09	-2.368168e+01	-2.138070e+02
4.700000e-07	-3.192578e-06	-3.387360e-09	-2.345261e+01	-2.130963e+02
4.800000e-07	-3.161088e-06	-3.347120e-09	-2.322128e+01	-2.123594e+02
4.900000e-07	-3.129242e-06	-3.312491e-09	-2.298734e+01	-2.115930e+02
5.000000e-07	-3.096818e-06	-3.319647e-09	-2.274916e+01	-2.107943e+02
5.100000e-07	-3.063552e-06	-3.302228e-09	-2.250479e+01	-2.099618e+02
5.200000e-07	-3.029381e-06	-3.284764e-09	-2.225377e+01	-2.090944e+02
5.300000e-07	-2.994507e-06	-3.282263e-09	-2.199758e+01	-2.081923e+02
5.400000e-07	-2.959194e-06	-3.263637e-09	-2.173817e+01	-2.072562e+02
5.500000e-07	-2.923549e-06	-3.231092e-09	-2.147633e+01	-2.062875e+02
5.600000e-07	-2.887507e-06	-3.223883e-09	-2.121156e+01	-2.052880e+02
5.700000e-07	-2.850979e-06	-3.235206e-09	-2.094323e+01	-2.042598e+02
5.800000e-07	-2.813930e-06	-3.195678e-09	-2.067107e+01	-2.032049e+02
5.900000e-07	-2.776348e-06	-3.155824e-09	-2.039499e+01	-2.021252e+02
6.000000e-07	-2.738224e-06	-3.166550e-09	-2.011493e+01	-2.010222e+02
6.100000e-07	-2.699552e-06	-3.162266e-09	-1.983085e+01	-1.998969e+02
6.200000e-07	-2.660437e-06	-3.119726e-09	-1.954351e+01	-1.987497e+02
6.300000e-07	-2.621054e-06	-3.088247e-09	-1.925420e+01	-1.975803e+02
6.400000e-07	-2.581392e-06	-3.094866e-09	-1.896285e+01	-1.963880e+02
6.500000e-07	-2.541377e-06	-3.082622e-09	-1.866890e+01	-1.951714e+02
6.600000e-07	-2.500791e-06	-3.041248e-09	-1.837075e+01	-1.939284e+02
6.700000e-07	-2.459506e-06	-3.019217e-09	-1.806748e+01	-1.926570e+02
6.800000e-07	-2.417527e-06	-3.007291e-09	-1.775910e+01	-1.913548e+02
6.900000e-07	-2.374866e-06	-2.987959e-09	-1.744572e+01	-1.900192e+02
7.000000e-07	-2.331694e-06	-2.957995e-09	-1.712857e+01	-1.886481e+02
7.100000e-07	-2.288208e-06	-2.929774e-09	-1.680913e+01	-1.872393e+02
7.200000e-07	-2.244490e-06	-2.911257e-09	-1.648798e+01	-1.857911e+02
7.300000e-07	-2.200439e-06	-2.888890e-09	-1.616438e+01	-1.843022e+02
7.400000e-07	-2.155986e-06	-2.869319e-09	-1.583782e+01	-1.827717e+02
7.500000e-07	-2.111114e-06	-2.841674e-09	-1.550820e+01	-1.811991e+02
7.600000e-07	-2.065898e-06	-2.805136e-09	-1.517604e+01	-1.795844e+02
7.700000e-07	-2.020361e-06	-2.781587e-09	-1.484153e+01	-1.779276e+02
7.800000e-07	-1.974499e-06	-2.764630e-09	-1.450463e+01	-1.762292e+02
7.900000e-07	-1.928298e-06	-2.734984e-09	-1.416523e+01	-1.744895e+02
8.000000e-07	-1.881710e-06	-2.689395e-09	-1.382300e+01	-1.727088e+02
8.100000e-07	-1.834812e-06	-2.660324e-09	-1.347849e+01	-1.708875e+02
8.200000e-07	-1.787655e-06	-2.648630e-09	-1.313207e+01	-1.690253e+02
8.300000e-07	-1.740249e-06	-2.616456e-09	-1.278383e+01	-1.671217e+02
8.400000e-07	-1.692655e-06	-2.572964e-09	-1.243421e+01	-1.651760e+02
8.500000e-07	-1.644878e-06	-2.540369e-09	-1.208324e+01	-1.631868e+02
8.600000e-07	-1.596813e-06	-2.516848e-09	-1.173016e+01	-1.611524e+02
8.700000e-07	-1.548380e-06	-2.486764e-09	-1.137436e+01	-1.590707e+02
8.800000e-07	-1.499495e-06	-2.445821e-09	-1.101526e+01	-1.569394e+02
8.900000e-07	-1.450155e-06	-2.408025e-09	-1.065280e+01	-1.547557e+02
9.000000e-07	-1.400403e-06	-2.370832e-09	-1.028733e+01	-1.525167e+02
9.100000e-07	-1.350289e-06	-2.334984e-09	-9.919193e+00	-1.502194e+02
9.200000e-07	-1.299794e-06	-2.299527e-09	-9.548258e+00	-1.478607e+02
9.300000e-07	-1.248891e-06	-2.257207e-09	-9.174327e+00	-1.454375e+02
9.400000e-07	-1.197722e-06	-2.213484e-09	-8.798441e+00	-1.429466e+02
9.500000e-07	-1.146374e-06	-2.171258e-09	-8.421242e+00	-1.403848e+02
9.600000e-07	-1.094829e-06	-2.135307e-09	-8.042591e+00	-1.377489e+02
9.700000e-07	-1.043111e-06	-2.093487e-09	-7.662673e+00	-1.350355e+02
9.800000e-07	-9.912561e-07	-2.042778e-09	-7.281746e+00	-1.322411e+02
9.900000e-07	-9.392886e-07	-1.997931e-09	-6.899994e+00	-1.293620e+02
1.000000e-06	-8.870853e-07	-1.954414e-09	-6.516509e+00	-1.263941e+02
1.010000e-06	-8.345602e-07	-1.907362e-09	-6.130661e+00	-1.233331e+02
1.020000e-06	-7.818890e-07	-1.854118e-09	-5.743740e+00	-1.201741e+02
1.030000e-06	-7.291029e-07	-1.800561e-09	-5.355974e+00	-1.169122e+02
1.040000e-06	-6.761266e-07	-1.748952e-09	-4.966812e+00	-1.135419e+02
1.050000e-06	-6.229981e-07	-1.693736e-09	-4.576531e+00	-1.100574e+02
1.060000e-06	-5.697444e-07	-1.639262e-09	-4.185330e+00	-1.064530e+02
1.070000e-06	-5.164293e-07	-1.582321e-09	-3.793679e+00	-1.027226e+02
1.080000e-06	-4.630850e-07	-1.520488e-09	-3.401812e+00	-9.886060e+01
1.090000e-06	-4.096661e-07	-1.457325e-09	-3.009398e+00	-9.486157e+01
1.100000e-06	-3.561678e-07	-1.391105e-09	-2.616401e+00	-9.072068e+01
1.110000e-06	-3.026304e-07	-1.323317e-09	-2.223117e+00	-8.643386e+01
1.120000e-06	-2.490769e-07	-1.250516e-09	-1.829714e+00	-8.199800e+01
1.130000e-06	-1.955063e-07	-1.177442e-09	-1.436185e+00	-7.741116e+01
1.140000e-06	-1.418872e-07	-1.106630e-09	-1.042300e+00	-7.267266e+01
1.150000e-06	-8.821226e-08	-1.030872e-09	-6.480053e-01	-6.778326e+01
1.160000e-06	-3.454039e-08	-9.541607e-10	-2.537329e-01	-6.274519e+01
1.170000e-06	1.908652e-08	-8.768755e-10	1.402091e-01	-5.756219e+01
1.180000e-06	7.269640e-08	-7.967813e-10	5.340262e-01	-5.223947e+01
1.190000e-06	1.262743e-07	-7.119622e-10	9.276085e-01	-4.678370e+01
1.200000e-06	1.797998e-07	-6.241221e-10	1.320806e+00	-4.120285e+01
1.210000e-06	2.333123e-07	-5.371474e-10	1.713907e+00	-3.550609e+01
1.220000e-06	2.867646e-07	-4.468375e-10	2.106567e+00	-2.970365e+01
1.230000e-06	3.401457e-07	-3.555950e-10	2.498703e+00	-2.380668e+01
1.240000e-06	3.935418e-07	-2.657728e-10	2.890950e+00	-1.782703e+01
1.250000e-06	4.468744e-07	-1.750187e-10	3.282729e+00	-1.177718e+01
1.260000e-06	5.000835e-07	-8.485292e-11	3.673603e+00	-5.670058e+00
1.270000e-06	5.531904e-07	8.075909e-12	4.063724e+00	4.810733e-01
1.280000e-06	6.061300e-07	1.025168e-10	4.452618e+00	6.662688e+00
1.290000e-06	6.588523e-07	1.994840e-10	4.839915e+00	1.286109e+01
1.300000e-06	7.114627e-07	2.962274e-10	5.226389e+00	1.906245e+01
1.310000e-06	7.640092e-07	3.915036e-10	5.612395e+00	2.525290e+01
1.320000e-06	8.164132e-07	4.895598e-10	5.997354e+00	3.141850e+01
1.330000e-06	8.687113e-07	5.849093e-10	6.381535e+00	3.754535e+01
1.340000e-06	9.208551e-07	6.771772e-10	6.764582e+00	4.361961e+01
1.350000e-06	9.727842e-07	7.678469e-10	7.146052e+00	4.962759e+01
1.360000e-06	1.024553e-06	8.609656e-10	7.526342e+00	5.555582e+01
1.370000e-06	1.076182e-06	9.527487e-10	7.905611e+00	6.139120e+01
1.380000e-06	1.127683e-06	1.039336e-09	8.283933e+00	6.712114e+01
1.390000e-06	1.178987e-06	1.124858e-09	8.660812e+00	7.273373e+01
1.400000e-06	1.230003e-06	1.210872e-09	9.035572e+00	7.821792e+01
1.410000e-06	1.280720e-06	1.296488e-09	9.408142e+00	8.356372e+01
1.420000e-06	1.331113e-06	1.378162e-09	9.778329e+00	8.876242e+01
1.430000e-06	1.381106e-06	1.454209e-09	1.014557e+01	9.380675e+01
1.440000e-06	1.430622e-06	1.529605e-09	1.050932e+01	9.869104e+01
1.450000e-06	1.479639e-06	1.603665e-09	1.086940e+01	1.034114e+02
1.460000e-06	1.528237e-06	1.672886e-09	1.122640e+01	1.079656e+02
1.470000e-06	1.576520e-06	1.738824e-09	1.158108e+01	1.123535e+02
1.480000e-06	1.624497e-06	1.802507e-09	1.193352e+01	1.165765e+02
1.490000e-06	1.672251e-06	1.865222e-09	1.228432e+01	1.206378e+02
1.500000e-06	1.719858e-06	1.924873e-09	1.263404e+01	1.245420e+02
1.510000e-06	1.767304e-06	1.981365e-09	1.298258e+01	1.282951e+02
1.520000e-06	1.814483e-06	2.036344e-09	1.332916e+01	1.319041e+02
1.530000e-06	1.861306e-06	2.090960e-09	1.367311e+01	1.353768e+02
1.540000e-06	1.907758e-06	2.145147e-09	1.401435e+01	1.387211e+02
1.550000e-06	1.953787e-06	2.194285e-09	1.435248e+01	1.419455e+02
1.560000e-06	1.999460e-06	2.238428e-09	1.468799e+01	1.450577e+02
1.570000e-06	2.044875e-06	2.283397e-09	1.502161e+01	1.480655e+02
1.580000e-06	2.089931e-06	2.328849e-09	1.535259e+01	1.509756e+02
1.590000e-06	2.134537e-06	2.372088e-09	1.568026e+01	1.537940e+02
1.600000e-06	2.178725e-06	2.411778e-09	1.600486e+01	1.565258e+02
1.610000e-06	2.222606e-06	2.451277e-09	1.632721e+01	1.591751e+02
1.620000e-06	2.266263e-06	2.492012e-09	1.664792e+01	1.617451e+02
1.630000e-06	2.309698e-06	2.530962e-09	1.696699e+01	1.642379e+02
1.640000e-06	2.352856e-06	2.566144e-09	1.728403e+01	1.666553e+02
1.650000e-06	2.395554e-06	2.598840e-09	1.759769e+01	1.689983e+02
1.660000e-06	2.437613e-06	2.632756e-09	1.790665e+01	1.712676e+02
1.670000e-06	2.478902e-06	2.665764e-09	1.820996e+01	1.734639e+02
1.680000e-06	2.519510e-06	2.695449e-09	1.850826e+01	1.755880e+02
1.690000e-06	2.559649e-06	2.725012e-09	1.880313e+01	1.776407e+02
1.700000e-06	2.599429e-06	2.754748e-09	1.909535e+01	1.796235e+02
1.710000e-06	2.638907e-06	2.782419e-09	1.938535e+01	1.815382e+02
1.720000e-06	2.678036e-06	2.809373e-09	1.967280e+01	1.833870e+02
1.730000e-06	2.716714e-06	2.837546e-09	1.995692e+01	1.851728e+02
1.740000e-06	2.754936e-06	2.866438e-09	2.023770e+01	1.868988e+02
1.750000e-06	2.792752e-06	2.894009e-09	2.051549e+01	1.885683e+02
1.760000e-06	2.830116e-06	2.920196e-09	2.078997e+01	1.901849e+02
1.770000e-06	2.866932e-06	2.945369e-09	2.106042e+01	1.917523e+02
1.780000e-06	2.903240e-06	2.969008e-09	2.132714e+01	1.932736e+02
1.790000e-06	2.939168e-06	2.990398e-09	2.159107e+01	1.947518e+02
1.800000e-06	2.974732e-06	3.011575e-09	2.185231e+01	1.961893e+02
1.810000e-06	3.009933e-06	3.033798e-09	2.211091e+01	1.975880e+02
1.820000e-06	3.044595e-06	3.056264e-09	2.236553e+01	1.989490e+02
1.830000e-06	3.078390e-06	3.078153e-09	2.261379e+01	2.002728e+02
1.840000e-06	3.111345e-06	3.098265e-09	2.285587e+01	2.015591e+02
1.850000e-06	3.143629e-06	3.118027e-09	2.309303e+01	2.028074e+02
1.860000e-06	3.175412e-06	3.138198e-09	2.332651e+01	2.040166e+02
1.870000e-06	3.206821e-06	3.156348e-09	2.355724e+01	2.051852e+02
1.880000e-06	3.237737e-06	3.172939e-09	2.378434e+01	2.063119e+02
1.890000e-06	3.268067e-06	3.190202e-09	2.400715e+01	2.073956e+02
1.900000e-06	3.297870e-06	3.207114e-09	2.422608e+01	2.084352e+02
1.910000e-06	3.327097e-06	3.224586e-09	2.444078e+01	2.094303e+02
1.920000e-06	3.355676e-06	3.241288e-09	2.465073e+01	2.103810e+02
1.930000e-06	3.383771e-06	3.256537e-09	2.485711e+01	2.112880e+02
1.940000e-06	3.411524e-06	3.270434e-09	2.506098e+01	2.121528e+02
1.950000e-06	3.438820e-06	3.283255e-09	2.526149e+01	2.129774e+02
1.960000e-06	3.465406e-06	3.296218e-09	2.545680e+01	2.137644e+02
1.970000e-06	3.491045e-06	3.308760e-09	2.564514e+01	2.145166e+02
1.980000e-06	3.515702e-06	3.321259e-09	2.582627e+01	2.152374e+02
1.990000e-06	3.539616e-06	3.334155e-09	2.600195e+01	2.159300e+02
2.000000e-06	3.563022e-06	3.346523e-09	2.617389e+01	2.165975e+02
2.010000e-06	3.585893e-06	3.357353e-09	2.634190e+01	2.172429e+02
2.020000e-06	3.608204e-06	3.368608e-09	2.650579e+01	2.178685e+02
2.030000e-06	3.629976e-06	3.381034e-09	2.666572e+01	2.184762e+02
2.040000e-06	3.651065e-06	3.391769e-09	2.682064e+01	2.190672e+02
2.050000e-06	3.671525e-06	3.400178e-09	2.697094e+01	2.196420e+02
2.060000e-06	3.691496e-06	3.409031e-09	2.711765e+01	2.202007e+02
2.070000e-06	3.711053e-06	3.419478e-09	2.726131e+01	2.207426e+02
2.080000e-06	3.730132e-06	3.430037e-09	2.740147e+01	2.212666e+02
2.090000e-06	3.748526e-06	3.438018e-09	2.753659e+01	2.217715e+02
2.100000e-06	3.766193e-06	3.444835e-09	2.766637e+01	2.222560e+02
2.110000e-06	3.783188e-06	3.454178e-09	2.779122e+01	2.227186e+02
2.120000e-06	3.799583e-06	3.463845e-09	2.791165e+01	2.231585e+02
2.130000e-06	3.815276e-06	3.471086e-09	2.802694e+01	2.235749e+02
2.140000e-06	3.830081e-06	3.478106e-09	2.813569e+01	2.239678e+02
2.150000e-06	3.844114e-06	3.486292e-09	2.823878e+01	2.243374e+02
2.160000e-06	3.857482e-06	3.494235e-09	2.833698e+01	2.246848e+02
2.170000e-06	3.870116e-06	3.501926e-09	2.842979e+01	2.250113e+02
2.180000e-06	3.882060e-06	3.508615e-09	2.851753e+01	2.253187e+02
2.190000e-06	3.893331e-06	3.512779e-09	2.860032e+01	2.256092e+02
2.200000e-06	3.903696e-06	3.516760e-09	2.867647e+01	2.258849e+02
2.210000e-06	3.912975e-06	3.523324e-09	2.874463e+01	2.261476e+02
2.220000e-06	3.921319e-06	3.531693e-09	2.880593e+01	2.263991e+02
2.230000e-06	3.929059e-06	3.538155e-09	2.886278e+01	2.266405e+02
2.240000e-06	3.936281e-06	3.542468e-09	2.891583e+01	2.268723e+02
2.250000e-06	3.942860e-06	3.548396e-09	2.896417e+01	2.270944e+02
2.260000e-06	3.948743e-06	3.554031e-09	2.900738e+01	2.273056e+02
2.270000e-06	3.953888e-06	3.556848e-09	2.904518e+01	2.275043e+02
2.280000e-06	3.958354e-06	3.558266e-09	2.907798e+01	2.276880e+02
2.290000e-06	3.962284e-06	3.560379e-09	2.910685e+01	2.278540e+02
2.300000e-06	3.965656e-06	3.563678e-09	2.913162e+01	2.279991e+02
2.310000e-06	3.968262e-06	3.566967e-09	2.915077e+01	2.281200e+02
2.320000e-06	3.969954e-06	3.569851e-09	2.916320e+01	2.282139e+02
2.330000e-06	3.970733e-06	3.573550e-09	2.916892e+01	2.282783e+02
2.340000e-06	3.970778e-06	3.576239e-09	2.916925e+01	2.283116e+02
2.350000e-06	3.970288e-06	3.576595e-09	2.916565e+01	2.283130e+02
2.360000e-06	3.969226e-06	3.578483e-09	2.915784e+01	2.282831e+02
2.370000e-06	3.967523e-06	3.580103e-09	2.914534e+01	2.282234e+02
2.380000e-06	3.965168e-06	3.578395e-09	2.912804e+01	2.281368e+02
2.390000e-06	3.962088e-06	3.575559e-09	2.910541e+01	2.280274e+02
2.400000e-06	3.958425e-06	3.573695e-09	2.907850e+01	2.279001e+02
2.410000e-06	3.954349e-06	3.560752e-09	2.904856e+01	2.277605e+02
2.420000e-06	3.949810e-06	3.547836e-09	2.901522e+01	2.276148e+02
2.430000e-06	3.944482e-06	3.579441e-09	2.897608e+01	2.274690e+02
2.440000e-06	3.937950e-06	3.632923e-09	2.892809e+01	2.273289e+02
2.450000e-06	3.930350e-06	3.584675e-09	2.887226e+01	2.271997e+02
2.460000e-06	3.922206e-06	3.516142e-09	2.881244e+01	2.270854e+02
2.470000e-06	3.913765e-06	3.528285e-09	2.875043e+01	2.269886e+02
2.480000e-06	3.904650e-06	3.600091e-09	2.868347e+01	2.269107e+02
2.490000e-06	3.894582e-06	3.575955e-09	2.860951e+01	2.268509e+02
2.500000e-06	3.884047e-06	3.516424e-09	2.853212e+01	2.268070e+02
2.510000e-06	3.873184e-06	3.502478e-09	2.845232e+01	2.267751e+02
2.520000e-06	3.861326e-06	3.444078e-09	2.836522e+01	2.267498e+02
2.530000e-06	3.848356e-06	3.494959e-09	2.826994e+01	2.267244e+02
2.540000e-06	3.835002e-06	3.546080e-09	2.817184e+01	2.266914e+02
2.550000e-06	3.821133e-06	3.461825e-09	2.806996e+01	2.266427e+02
2.560000e-06	3.806054e-06	3.356366e-09	2.795919e+01	2.265702e+02
2.570000e-06	3.790101e-06	3.482188e-09	2.784200e+01	2.264663e+02
2.580000e-06	3.773673e-06	3.563196e-09	2.772132e+01	2.263240e+02
2.590000e-06	3.756506e-06	3.376389e-09	2.759521e+01	2.261374e+02
2.600000e-06	3.738574e-06	3.305961e-09	2.746348e+01	2.259024e+02
2.610000e-06	3.720052e-06	3.379519e-09	2.732742e+01	2.256161e+02
2.620000e-06	3.700933e-06	3.362127e-09	2.718697e+01	2.252776e+02
2.630000e-06	3.681224e-06	3.250605e-09	2.704219e+01	2.248878e+02
2.640000e-06	3.660955e-06	3.270551e-09	2.689330e+01	2.244490e+02
2.650000e-06	3.640162e-06	3.312666e-09	2.674055e+01	2.239653e+02
2.660000e-06	3.618759e-06	3.262568e-09	2.658333e+01	2.234416e+02
2.670000e-06	3.596355e-06	3.266825e-09	2.641875e+01	2.228840e+02
2.680000e-06	3.572918e-06	3.282185e-09	2.624658e+01	2.222986e+02
2.690000e-06	3.548895e-06	3.243809e-09	2.607011e+01	2.216921e+02
2.700000e-06	3.524281e-06	3.191406e-09	2.588929e+01	2.210703e+02
2.710000e-06	3.498950e-06	3.246256e-09	2.570321e+01	2.204387e+02
2.720000e-06	3.473129e-06	3.298044e-09	2.551353e+01	2.198018e+02
2.730000e-06	3.446781e-06	3.186458e-09	2.531998e+01	2.191626e+02
2.740000e-06	3.419706e-06	3.144422e-09	2.512109e+01	2.185231e+02
2.750000e-06	3.392023e-06	3.248171e-09	2.491772e+01	2.178837e+02
2.760000e-06	3.363988e-06	3.253644e-09	2.471178e+01	2.172436e+02
2.770000e-06	3.335533e-06	3.144932e-09	2.450275e+01	2.166008e+02
2.780000e-06	3.306426e-06	3.141728e-09	2.428893e+01	2.159521e+02
2.790000e-06	3.276569e-06	3.221272e-09	2.406961e+01	2.152938e+02
2.800000e-06	3.245915e-06	3.179971e-09	2.384442e+01	2.146217e+02
2.810000e-06	3.214530e-06	3.109377e-09	2.361387e+01	2.139312e+02
2.820000e-06	3.182611e-06	3.152505e-09	2.337939e+01	2.132180e+02
2.830000e-06	3.150265e-06	3.159192e-09	2.314178e+01	2.124783e+02
2.840000e-06	3.117363e-06	3.107915e-09	2.290008e+01	2.117087e+02
2.850000e-06	3.083879e-06	3.095383e-09	2.265411e+01	2.109068e+02
2.860000e-06	3.049944e-06	3.110112e-09	2.240482e+01	2.100708e+02
2.870000e-06	3.015580e-06	3.099564e-09	2.215239e+01	2.091999e+02
2.880000e-06	2.980696e-06	3.057950e-09	2.189613e+01	2.082944e+02
2.890000e-06	2.945222e-06	3.064047e-09	2.163554e+01	2.073549e+02
2.900000e-06	2.909323e-06	3.066255e-09	2.137182e+01	2.063830e+02
2.910000e-06	2.873136e-06	3.022199e-09	2.110600e+01	2.053806e+02
2.920000e-06	2.836527e-06	3.016492e-09	2.083707e+01	2.043496e+02
2.930000e-06	2.799335e-06	3.025851e-09	2.056386e+01	2.032921e+02
2.940000e-06	2.761419e-06	2.994013e-09	2.028532e+01	2.022101e+02
2.950000e-06	2.722716e-06	2.959240e-09	2.000102e+01	2.011048e+02
