# Temperatura_=_20.0
# Concentracion g/m^3_=_9000.0
# C_Vs_to_Am_M_A/Vsm_=_65563218390.804596
# pendiente_HvsI_1/m_=_3716.3
# ordenada_HvsI_A/m_=_1297.0
# frecuencia_Hz_=_212867.1497008751

Tiempo_(s)	Campo_(V.s)	Magnetizacion_(V.s)	Campo_(kA/m)	Magnetizacion_(A/m)
0.000000e+00	-3.966093e-06	-3.399998e-09	-2.913963e+01	-2.274615e+02
1.000000e-08	-3.966260e-06	-3.399008e-09	-2.914085e+01	-2.274552e+02
2.000000e-08	-3.965963e-06	-3.398699e-09	-2.913867e+01	-2.274286e+02
3.000000e-08	-3.964836e-06	-3.399143e-09	-2.913039e+01	-2.273838e+02
4.000000e-08	-3.962611e-06	-3.396581e-09	-2.911405e+01	-2.273236e+02
5.000000e-08	-3.959454e-06	-3.394343e-09	-2.909085e+01	-2.272512e+02
6.000000e-08	-3.955757e-06	-3.392315e-09	-2.906369e+01	-2.271700e+02
7.000000e-08	-3.951628e-06	-3.384046e-09	-2.903335e+01	-2.270831e+02
8.000000e-08	-3.946809e-06	-3.367798e-09	-2.899794e+01	-2.269935e+02
9.000000e-08	-3.941173e-06	-3.390783e-09	-2.895653e+01	-2.269039e+02
1.000000e-07	-3.934643e-06	-3.454681e-09	-2.890856e+01	-2.268159e+02
1.100000e-07	-3.927341e-06	-3.450251e-09	-2.885491e+01	-2.267306e+02
1.200000e-07	-3.919667e-06	-3.293598e-09	-2.879852e+01	-2.266478e+02
1.300000e-07	-3.911682e-06	-3.274084e-09	-2.873986e+01	-2.265665e+02
1.400000e-07	-3.902885e-06	-3.418950e-09	-2.867523e+01	-2.264846e+02
1.500000e-07	-3.893066e-06	-3.485170e-09	-2.860308e+01	-2.263988e+02
1.600000e-07	-3.882594e-06	-3.378904e-09	-2.852614e+01	-2.263053e+02
1.700000e-07	-3.871214e-06	-3.345641e-09	-2.844253e+01	-2.261996e+02
1.800000e-07	-3.858688e-06	-3.381277e-09	-2.835050e+01	-2.260766e+02
1.900000e-07	-3.845775e-06	-3.364995e-09	-2.825563e+01	-2.259314e+02
2.000000e-07	-3.832513e-06	-3.508588e-09	-2.815819e+01	-2.257591e+02
2.100000e-07	-3.817718e-06	-3.442903e-09	-2.804949e+01	-2.255553e+02
2.200000e-07	-3.801616e-06	-3.289331e-09	-2.793118e+01	-2.253166e+02
2.300000e-07	-3.785373e-06	-3.423148e-09	-2.781184e+01	-2.250402e+02
2.400000e-07	-3.768569e-06	-3.651994e-09	-2.768838e+01	-2.247246e+02
2.500000e-07	-3.750892e-06	-3.512751e-09	-2.755850e+01	-2.243696e+02
2.600000e-07	-3.732737e-06	-3.316718e-09	-2.742512e+01	-2.239762e+02
2.700000e-07	-3.714013e-06	-3.501348e-09	-2.728754e+01	-2.235464e+02
2.800000e-07	-3.694622e-06	-3.578731e-09	-2.714508e+01	-2.230836e+02
2.900000e-07	-3.674790e-06	-3.493741e-09	-2.699937e+01	-2.225916e+02
3.000000e-07	-3.654515e-06	-3.443648e-09	-2.685040e+01	-2.220752e+02
3.100000e-07	-3.633472e-06	-3.434670e-09	-2.669580e+01	-2.215392e+02
3.200000e-07	-3.611731e-06	-3.427096e-09	-2.653606e+01	-2.209887e+02
3.300000e-07	-3.589414e-06	-3.476209e-09	-2.637209e+01	-2.204282e+02
3.400000e-07	-3.566493e-06	-3.508239e-09	-2.620369e+01	-2.198617e+02
3.500000e-07	-3.543025e-06	-3.419596e-09	-2.603127e+01	-2.192925e+02
3.600000e-07	-3.518977e-06	-3.322185e-09	-2.585458e+01	-2.187225e+02
3.700000e-07	-3.494464e-06	-3.399444e-09	-2.567448e+01	-2.181530e+02
3.800000e-07	-3.469186e-06	-3.548339e-09	-2.548876e+01	-2.175837e+02
3.900000e-07	-3.442599e-06	-3.391940e-09	-2.529342e+01	-2.170133e+02
4.000000e-07	-3.415160e-06	-3.215003e-09	-2.509182e+01	-2.164395e+02
4.100000e-07	-3.387499e-06	-3.401477e-09	-2.488859e+01	-2.158590e+02
4.200000e-07	-3.359494e-06	-3.502870e-09	-2.468283e+01	-2.152680e+02
4.300000e-07	-3.330738e-06	-3.287644e-09	-2.447155e+01	-2.146623e+02
4.400000e-07	-3.301351e-06	-3.269462e-09	-2.425564e+01	-2.140375e+02
4.500000e-07	-3.271591e-06	-3.387255e-09	-2.403699e+01	-2.133894e+02
4.600000e-07	-3.241237e-06	-3.323268e-09	-2.381397e+01	-2.127143e+02
4.700000e-07	-3.210265e-06	-3.280543e-09	-2.358642e+01	-2.120090e+02
4.800000e-07	-3.178858e-06	-3.313400e-09	-2.335566e+01	-2.112711e+02
4.900000e-07	-3.147134e-06	-3.264448e-09	-2.312258e+01	-2.104992e+02
5.000000e-07	-3.115092e-06	-3.221385e-09	-2.288716e+01	-2.096928e+02
5.100000e-07	-3.082545e-06	-3.286475e-09	-2.264803e+01	-2.088520e+02
5.200000e-07	-3.049173e-06	-3.283526e-09	-2.240285e+01	-2.079782e+02
5.300000e-07	-3.014717e-06	-3.180018e-09	-2.214969e+01	-2.070730e+02
5.400000e-07	-2.979499e-06	-3.175176e-09	-2.189094e+01	-2.061386e+02
5.500000e-07	-2.943989e-06	-3.233677e-09	-2.163004e+01	-2.051775e+02
5.600000e-07	-2.908182e-06	-3.209979e-09	-2.136696e+01	-2.041921e+02
5.700000e-07	-2.871905e-06	-3.131709e-09	-2.110042e+01	-2.031846e+02
5.800000e-07	-2.835106e-06	-3.106675e-09	-2.083006e+01	-2.021567e+02
5.900000e-07	-2.797838e-06	-3.152206e-09	-2.055624e+01	-2.011098e+02
6.000000e-07	-2.760109e-06	-3.142907e-09	-2.027903e+01	-2.000443e+02
6.100000e-07	-2.721831e-06	-3.076118e-09	-1.999780e+01	-1.989600e+02
6.200000e-07	-2.683002e-06	-3.052601e-09	-1.971252e+01	-1.978560e+02
6.300000e-07	-2.643721e-06	-3.067626e-09	-1.942391e+01	-1.967305e+02
6.400000e-07	-2.604159e-06	-3.051878e-09	-1.913324e+01	-1.955814e+02
6.500000e-07	-2.564388e-06	-3.009934e-09	-1.884104e+01	-1.944059e+02
6.600000e-07	-2.524250e-06	-2.994607e-09	-1.854614e+01	-1.932012e+02
6.700000e-07	-2.483501e-06	-2.973121e-09	-1.824674e+01	-1.919642e+02
6.800000e-07	-2.441948e-06	-2.947116e-09	-1.794145e+01	-1.906920e+02
6.900000e-07	-2.399662e-06	-2.951244e-09	-1.763076e+01	-1.893820e+02
7.000000e-07	-2.356767e-06	-2.928003e-09	-1.731561e+01	-1.880320e+02
7.100000e-07	-2.313364e-06	-2.872967e-09	-1.699672e+01	-1.866403e+02
7.200000e-07	-2.269685e-06	-2.857515e-09	-1.667580e+01	-1.852059e+02
7.300000e-07	-2.225822e-06	-2.870014e-09	-1.635353e+01	-1.837281e+02
7.400000e-07	-2.181629e-06	-2.835817e-09	-1.602884e+01	-1.822071e+02
7.500000e-07	-2.136966e-06	-2.775688e-09	-1.570069e+01	-1.806434e+02
7.600000e-07	-2.091866e-06	-2.766227e-09	-1.536933e+01	-1.790378e+02
7.700000e-07	-2.046514e-06	-2.764387e-09	-1.503612e+01	-1.773914e+02
7.800000e-07	-2.000848e-06	-2.721433e-09	-1.470060e+01	-1.757053e+02
7.900000e-07	-1.954833e-06	-2.678988e-09	-1.436252e+01	-1.739805e+02
8.000000e-07	-1.908501e-06	-2.659874e-09	-1.402212e+01	-1.722176e+02
8.100000e-07	-1.861761e-06	-2.642603e-09	-1.367870e+01	-1.704170e+02
8.200000e-07	-1.814691e-06	-2.609331e-09	-1.333288e+01	-1.685784e+02
8.300000e-07	-1.767415e-06	-2.576410e-09	-1.298553e+01	-1.667010e+02
8.400000e-07	-1.719916e-06	-2.547966e-09	-1.263654e+01	-1.647836e+02
8.500000e-07	-1.672226e-06	-2.516723e-09	-1.228615e+01	-1.628241e+02
8.600000e-07	-1.624361e-06	-2.490957e-09	-1.193449e+01	-1.608203e+02
8.700000e-07	-1.576181e-06	-2.459235e-09	-1.158049e+01	-1.587692e+02
8.800000e-07	-1.527606e-06	-2.417632e-09	-1.122361e+01	-1.566677e+02
8.900000e-07	-1.478606e-06	-2.379997e-09	-1.086360e+01	-1.545127e+02
9.000000e-07	-1.429234e-06	-2.353691e-09	-1.050085e+01	-1.523007e+02
9.100000e-07	-1.379459e-06	-2.325427e-09	-1.013515e+01	-1.500285e+02
9.200000e-07	-1.329214e-06	-2.275961e-09	-9.765981e+00	-1.476930e+02
9.300000e-07	-1.278591e-06	-2.231351e-09	-9.394048e+00	-1.452913e+02
9.400000e-07	-1.227629e-06	-2.205497e-09	-9.019619e+00	-1.428206e+02
9.500000e-07	-1.176446e-06	-2.169341e-09	-8.643568e+00	-1.402785e+02
9.600000e-07	-1.125096e-06	-2.116787e-09	-8.266289e+00	-1.376626e+02
9.700000e-07	-1.073474e-06	-2.066900e-09	-7.887012e+00	-1.349707e+02
9.800000e-07	-1.021648e-06	-2.033233e-09	-7.506236e+00	-1.322005e+02
9.900000e-07	-9.697379e-07	-1.995090e-09	-7.124846e+00	-1.293495e+02
1.000000e-06	-9.176945e-07	-1.942541e-09	-6.742473e+00	-1.264149e+02
1.010000e-06	-8.654145e-07	-1.891887e-09	-6.358362e+00	-1.233936e+02
1.020000e-06	-8.128611e-07	-1.845583e-09	-5.972242e+00	-1.202820e+02
1.030000e-06	-7.601276e-07	-1.800756e-09	-5.584799e+00	-1.170759e+02
1.040000e-06	-7.073554e-07	-1.750353e-09	-5.197072e+00	-1.137704e+02
1.050000e-06	-6.544388e-07	-1.693987e-09	-4.808284e+00	-1.103602e+02
1.060000e-06	-6.012952e-07	-1.634720e-09	-4.417828e+00	-1.068395e+02
1.070000e-06	-5.480159e-07	-1.577901e-09	-4.026375e+00	-1.032022e+02
1.080000e-06	-4.946650e-07	-1.527895e-09	-3.634396e+00	-9.944199e+01
1.090000e-06	-4.412666e-07	-1.467278e-09	-3.242068e+00	-9.555247e+01
1.100000e-06	-3.878351e-07	-1.394229e-09	-2.849497e+00	-9.152768e+01
1.110000e-06	-3.343647e-07	-1.325900e-09	-2.456640e+00	-8.736211e+01
1.120000e-06	-2.808004e-07	-1.265312e-09	-2.063093e+00	-8.305106e+01
1.130000e-06	-2.271973e-07	-1.200504e-09	-1.669261e+00	-7.859084e+01
1.140000e-06	-1.735947e-07	-1.122089e-09	-1.275433e+00	-7.397900e+01
1.150000e-06	-1.199983e-07	-1.045417e-09	-8.816500e-01	-6.921452e+01
1.160000e-06	-6.644111e-08	-9.780685e-10	-4.881553e-01	-6.429796e+01
1.170000e-06	-1.286349e-08	-9.063295e-10	-9.451046e-02	-5.923153e+01
1.180000e-06	4.071520e-08	-8.247994e-10	2.991422e-01	-5.401911e+01
1.190000e-06	9.427513e-08	-7.377017e-10	6.926570e-01	-4.866628e+01
1.200000e-06	1.478488e-07	-6.520136e-10	1.086272e+00	-4.318022e+01
1.210000e-06	2.013737e-07	-5.684074e-10	1.479530e+00	-3.756960e+01
1.220000e-06	2.548184e-07	-4.822363e-10	1.872199e+00	-3.184444e+01
1.230000e-06	3.082643e-07	-3.921171e-10	2.264875e+00	-2.601594e+01
1.240000e-06	3.616846e-07	-2.969884e-10	2.657364e+00	-2.009629e+01
1.250000e-06	4.150395e-07	-2.044186e-10	3.049373e+00	-1.409849e+01
1.260000e-06	4.682894e-07	-1.158136e-10	3.440610e+00	-8.036147e+00
1.270000e-06	5.213941e-07	-2.219784e-11	3.830780e+00	-1.923296e+00
1.280000e-06	5.744271e-07	7.390857e-11	4.220423e+00	4.225733e+00
1.290000e-06	6.273919e-07	1.698852e-10	4.609566e+00	1.039647e+01
1.300000e-06	6.802056e-07	2.617622e-10	4.997598e+00	1.657443e+01
1.310000e-06	7.328269e-07	3.571748e-10	5.384216e+00	2.274517e+01
1.320000e-06	7.853496e-07	4.546636e-10	5.770110e+00	2.889443e+01
1.330000e-06	8.377156e-07	5.478454e-10	6.154853e+00	3.500815e+01
1.340000e-06	8.898921e-07	6.401242e-10	6.538204e+00	4.107257e+01
1.350000e-06	9.419100e-07	7.303903e-10	6.920389e+00	4.707427e+01
1.360000e-06	9.937612e-07	8.220088e-10	7.301349e+00	5.300026e+01
1.370000e-06	1.045519e-06	9.112212e-10	7.681624e+00	5.883807e+01
1.380000e-06	1.097119e-06	9.992886e-10	8.060741e+00	6.457585e+01
1.390000e-06	1.148522e-06	1.086515e-09	8.438408e+00	7.020245e+01
1.400000e-06	1.199754e-06	1.171252e-09	8.814816e+00	7.570758e+01
1.410000e-06	1.250705e-06	1.254261e-09	9.189161e+00	8.108195e+01
1.420000e-06	1.301353e-06	1.334514e-09	9.561282e+00	8.631737e+01
1.430000e-06	1.351656e-06	1.412996e-09	9.930871e+00	9.140690e+01
1.440000e-06	1.401465e-06	1.488751e-09	1.029682e+01	9.634497e+01
1.450000e-06	1.450767e-06	1.561184e-09	1.065906e+01	1.011275e+02
1.460000e-06	1.499658e-06	1.631059e-09	1.101827e+01	1.057518e+02
1.470000e-06	1.548151e-06	1.697491e-09	1.137455e+01	1.102168e+02
1.480000e-06	1.596254e-06	1.764478e-09	1.172798e+01	1.145231e+02
1.490000e-06	1.644129e-06	1.829947e-09	1.207972e+01	1.186725e+02
1.500000e-06	1.691843e-06	1.889905e-09	1.243029e+01	1.226682e+02
1.510000e-06	1.739382e-06	1.948524e-09	1.277956e+01	1.265146e+02
1.520000e-06	1.786737e-06	2.005555e-09	1.312749e+01	1.302172e+02
1.530000e-06	1.833822e-06	2.061339e-09	1.347343e+01	1.337820e+02
1.540000e-06	1.880464e-06	2.115196e-09	1.381612e+01	1.372158e+02
1.550000e-06	1.926706e-06	2.164662e-09	1.415587e+01	1.405253e+02
1.560000e-06	1.972625e-06	2.211750e-09	1.449325e+01	1.437177e+02
1.570000e-06	2.018190e-06	2.256903e-09	1.482802e+01	1.467995e+02
1.580000e-06	2.063359e-06	2.300864e-09	1.515989e+01	1.497772e+02
1.590000e-06	2.108162e-06	2.343251e-09	1.548906e+01	1.526564e+02
1.600000e-06	2.152647e-06	2.382903e-09	1.581590e+01	1.554425e+02
1.610000e-06	2.196770e-06	2.422059e-09	1.614008e+01	1.581396e+02
1.620000e-06	2.240587e-06	2.461803e-09	1.646201e+01	1.607517e+02
1.630000e-06	2.284201e-06	2.502248e-09	1.678245e+01	1.632815e+02
1.640000e-06	2.327607e-06	2.540271e-09	1.710137e+01	1.657317e+02
1.650000e-06	2.370709e-06	2.573820e-09	1.741804e+01	1.681039e+02
1.660000e-06	2.413293e-06	2.607821e-09	1.773091e+01	1.703998e+02
1.670000e-06	2.455118e-06	2.642254e-09	1.803821e+01	1.726207e+02
1.680000e-06	2.496140e-06	2.673180e-09	1.833961e+01	1.747678e+02
1.690000e-06	2.536441e-06	2.701672e-09	1.863571e+01	1.768424e+02
1.700000e-06	2.576311e-06	2.732105e-09	1.892864e+01	1.788459e+02
1.710000e-06	2.615985e-06	2.763425e-09	1.922013e+01	1.807802e+02
1.720000e-06	2.655408e-06	2.791445e-09	1.950978e+01	1.826472e+02
1.730000e-06	2.694451e-06	2.818625e-09	1.979664e+01	1.844492e+02
1.740000e-06	2.732955e-06	2.846578e-09	2.007953e+01	1.861888e+02
1.750000e-06	2.770917e-06	2.873743e-09	2.035845e+01	1.878688e+02
1.760000e-06	2.808456e-06	2.899812e-09	2.063425e+01	1.894922e+02
1.770000e-06	2.845575e-06	2.923392e-09	2.090697e+01	1.910619e+02
1.780000e-06	2.882182e-06	2.945094e-09	2.117593e+01	1.925808e+02
1.790000e-06	2.918290e-06	2.967949e-09	2.144122e+01	1.940515e+02
1.800000e-06	2.954059e-06	2.991395e-09	2.170402e+01	1.954766e+02
1.810000e-06	2.989557e-06	3.013507e-09	2.196484e+01	1.968581e+02
1.820000e-06	3.024595e-06	3.033843e-09	2.222227e+01	1.981977e+02
1.830000e-06	3.058949e-06	3.053969e-09	2.247467e+01	1.994966e+02
1.840000e-06	3.092501e-06	3.075130e-09	2.272119e+01	2.007556e+02
1.850000e-06	3.125150e-06	3.095838e-09	2.296106e+01	2.019753e+02
1.860000e-06	3.157108e-06	3.114617e-09	2.319586e+01	2.031559e+02
1.870000e-06	3.188729e-06	3.132085e-09	2.342819e+01	2.042973e+02
1.880000e-06	3.219962e-06	3.150268e-09	2.365766e+01	2.053994e+02
1.890000e-06	3.250633e-06	3.168134e-09	2.388301e+01	2.064624e+02
1.900000e-06	3.280720e-06	3.185508e-09	2.410406e+01	2.074861e+02
1.910000e-06	3.310222e-06	3.201993e-09	2.432082e+01	2.084711e+02
1.920000e-06	3.339064e-06	3.218451e-09	2.453273e+01	2.094178e+02
1.930000e-06	3.367291e-06	3.233613e-09	2.474012e+01	2.103272e+02
1.940000e-06	3.395129e-06	3.246521e-09	2.494464e+01	2.112005e+02
1.950000e-06	3.422696e-06	3.259929e-09	2.514719e+01	2.120395e+02
1.960000e-06	3.449799e-06	3.273749e-09	2.534632e+01	2.128459e+02
1.970000e-06	3.476011e-06	3.286785e-09	2.553890e+01	2.136219e+02
1.980000e-06	3.501169e-06	3.298212e-09	2.572374e+01	2.143694e+02
1.990000e-06	3.525437e-06	3.310032e-09	2.590205e+01	2.150908e+02
2.000000e-06	3.549102e-06	3.322936e-09	2.607592e+01	2.157880e+02
2.010000e-06	3.572314e-06	3.335893e-09	2.624646e+01	2.164627e+02
2.020000e-06	3.594915e-06	3.346237e-09	2.641251e+01	2.171165e+02
2.030000e-06	3.616872e-06	3.355492e-09	2.657383e+01	2.177503e+02
2.040000e-06	3.638309e-06	3.367497e-09	2.673133e+01	2.183649e+02
2.050000e-06	3.659125e-06	3.379313e-09	2.688427e+01	2.189606e+02
2.060000e-06	3.679282e-06	3.388484e-09	2.703237e+01	2.195371e+02
2.070000e-06	3.699043e-06	3.396571e-09	2.717756e+01	2.200942e+02
2.080000e-06	3.718415e-06	3.405512e-09	2.731989e+01	2.206310e+02
2.090000e-06	3.737116e-06	3.414541e-09	2.745729e+01	2.211469e+02
2.100000e-06	3.755069e-06	3.422934e-09	2.758920e+01	2.216410e+02
2.110000e-06	3.772391e-06	3.430370e-09	2.771646e+01	2.221126e+02
2.120000e-06	3.789153e-06	3.437568e-09	2.783962e+01	2.225611e+02
2.130000e-06	3.805267e-06	3.445812e-09	2.795801e+01	2.229864e+02
2.140000e-06	3.820553e-06	3.453588e-09	2.807032e+01	2.233885e+02
2.150000e-06	3.834964e-06	3.461041e-09	2.817620e+01	2.237679e+02
2.160000e-06	3.848659e-06	3.466939e-09	2.827682e+01	2.241252e+02
2.170000e-06	3.861662e-06	3.472494e-09	2.837235e+01	2.244616e+02
2.180000e-06	3.873911e-06	3.479453e-09	2.846235e+01	2.247783e+02
2.190000e-06	3.885542e-06	3.485708e-09	2.854781e+01	2.250767e+02
2.200000e-06	3.896517e-06	3.490126e-09	2.862844e+01	2.253581e+02
2.210000e-06	3.906569e-06	3.494211e-09	2.870229e+01	2.256239e+02
2.220000e-06	3.915470e-06	3.499865e-09	2.876769e+01	2.258751e+02
2.230000e-06	3.923481e-06	3.505378e-09	2.882655e+01	2.261124e+02
2.240000e-06	3.931000e-06	3.509145e-09	2.888179e+01	2.263360e+02
2.250000e-06	3.937932e-06	3.511473e-09	2.893272e+01	2.265459e+02
2.260000e-06	3.944160e-06	3.515028e-09	2.897848e+01	2.267414e+02
2.270000e-06	3.949686e-06	3.518560e-09	2.901908e+01	2.269217e+02
2.280000e-06	3.954522e-06	3.520035e-09	2.905461e+01	2.270853e+02
2.290000e-06	3.958730e-06	3.522515e-09	2.908553e+01	2.272309e+02
2.300000e-06	3.962480e-06	3.526915e-09	2.911308e+01	2.273569e+02
2.310000e-06	3.965784e-06	3.530011e-09	2.913735e+01	2.274619e+02
2.320000e-06	3.968270e-06	3.531559e-09	2.915562e+01	2.275446e+02
2.330000e-06	3.969676e-06	3.535550e-09	2.916595e+01	2.276043e+02
2.340000e-06	3.970125e-06	3.538771e-09	2.916925e+01	2.276407e+02
2.350000e-06	3.969934e-06	3.540776e-09	2.916785e+01	2.276542e+02
2.360000e-06	3.969229e-06	3.543411e-09	2.916267e+01	2.276458e+02
2.370000e-06	3.967855e-06	3.545166e-09	2.915257e+01	2.276172e+02
2.380000e-06	3.965838e-06	3.543378e-09	2.913776e+01	2.275708e+02
2.390000e-06	3.963249e-06	3.541501e-09	2.911873e+01	2.275092e+02
2.400000e-06	3.959967e-06	3.541663e-09	2.909461e+01	2.274358e+02
2.410000e-06	3.956059e-06	3.545795e-09	2.906590e+01	2.273539e+02
2.420000e-06	3.951795e-06	3.563350e-09	2.903458e+01	2.272666e+02
2.430000e-06	3.947128e-06	3.560294e-09	2.900029e+01	2.271770e+02
2.440000e-06	3.941587e-06	3.475470e-09	2.895957e+01	2.270874e+02
2.450000e-06	3.934608e-06	3.445363e-09	2.890830e+01	2.269997e+02
2.460000e-06	3.926446e-06	3.606679e-09	2.884833e+01	2.269147e+02
2.470000e-06	3.918044e-06	3.651717e-09	2.878660e+01	2.268321e+02
2.480000e-06	3.909614e-06	3.536854e-09	2.872467e+01	2.267509e+02
2.490000e-06	3.900362e-06	3.415899e-09	2.865669e+01	2.266687e+02
2.500000e-06	3.889878e-06	3.518717e-09	2.857966e+01	2.265824e+02
2.510000e-06	3.879130e-06	3.526325e-09	2.850069e+01	2.264879e+02
2.520000e-06	3.868292e-06	3.510575e-09	2.842106e+01	2.263807e+02
2.530000e-06	3.856003e-06	3.551534e-09	2.833077e+01	2.262557e+02
2.540000e-06	3.842323e-06	3.404327e-09	2.823026e+01	2.261080e+02
2.550000e-06	3.828739e-06	3.405415e-09	2.813046e+01	2.259327e+02
2.560000e-06	3.814621e-06	3.600014e-09	2.802674e+01	2.257257e+02
2.570000e-06	3.798988e-06	3.574219e-09	2.791187e+01	2.254833e+02
2.580000e-06	3.782665e-06	3.228528e-09	2.779195e+01	2.252030e+02
2.590000e-06	3.766048e-06	3.362090e-09	2.766986e+01	2.248835e+02
2.600000e-06	3.748664e-06	3.574400e-09	2.754213e+01	2.245246e+02
2.610000e-06	3.730436e-06	3.290165e-09	2.740821e+01	2.241274e+02
2.620000e-06	3.711691e-06	3.181104e-09	2.727049e+01	2.236942e+02
2.630000e-06	3.692301e-06	3.390564e-09	2.712802e+01	2.232283e+02
2.640000e-06	3.672302e-06	3.320244e-09	2.698109e+01	2.227336e+02
2.650000e-06	3.651867e-06	3.204975e-09	2.683095e+01	2.222151e+02
2.660000e-06	3.630972e-06	3.385500e-09	2.667743e+01	2.216775e+02
2.670000e-06	3.609356e-06	3.320198e-09	2.651861e+01	2.211257e+02
2.680000e-06	3.586439e-06	3.152376e-09	2.635024e+01	2.205645e+02
2.690000e-06	3.562538e-06	3.278129e-09	2.617464e+01	2.199976e+02
2.700000e-06	3.538343e-06	3.372706e-09	2.599687e+01	2.194282e+02
2.710000e-06	3.513503e-06	3.283387e-09	2.581436e+01	2.188583e+02
2.720000e-06	3.487842e-06	3.115504e-09	2.562583e+01	2.182888e+02
2.730000e-06	3.461855e-06	3.206360e-09	2.543490e+01	2.177195e+02
2.740000e-06	3.435414e-06	3.411760e-09	2.524063e+01	2.171489e+02
2.750000e-06	3.408050e-06	3.202700e-09	2.503958e+01	2.165746e+02
2.760000e-06	3.380112e-06	3.056553e-09	2.483431e+01	2.159932e+02
2.770000e-06	3.351941e-06	3.282069e-09	2.462734e+01	2.154010e+02
2.780000e-06	3.323284e-06	3.271151e-09	2.441679e+01	2.147936e+02
2.790000e-06	3.293930e-06	3.118299e-09	2.420112e+01	2.141666e+02
2.800000e-06	3.263774e-06	3.185654e-09	2.397956e+01	2.135160e+02
2.810000e-06	3.232858e-06	3.207359e-09	2.375241e+01	2.128380e+02
2.820000e-06	3.201226e-06	3.142865e-09	2.352001e+01	2.121296e+02
2.830000e-06	3.169077e-06	3.144169e-09	2.328380e+01	2.113884e+02
2.840000e-06	3.136642e-06	3.178327e-09	2.304549e+01	2.106130e+02
2.850000e-06	3.103604e-06	3.141751e-09	2.280276e+01	2.098031e+02
2.860000e-06	3.069866e-06	3.069105e-09	2.255488e+01	2.089590e+02
2.870000e-06	3.035732e-06	3.105588e-09	2.230409e+01	2.080820e+02
2.880000e-06	3.001244e-06	3.155234e-09	2.205070e+01	2.071738e+02
2.890000e-06	2.966167e-06	3.066035e-09	2.179299e+01	2.062366e+02
2.900000e-06	2.930435e-06	3.008039e-09	2.153046e+01	2.052730e+02
2.910000e-06	2.894375e-06	3.075332e-09	2.126552e+01	2.042853e+02
2.920000e-06	2.858113e-06	3.084177e-09	2.099909e+01	2.032757e+02
2.930000e-06	2.821445e-06	3.002459e-09	2.072968e+01	2.022459e+02
2.940000e-06	2.784188e-06	2.973905e-09	2.045595e+01	2.011971e+02
2.950000e-06	2.746193e-06	3.018707e-09	2.017679e+01	2.001298e+02
