# Temperatura_=_20.0
# Concentracion g/m^3_=_9000.0
# C_Vs_to_Am_M_A/Vsm_=_65563218390.804596
# pendiente_HvsI_1/m_=_3716.3
# ordenada_HvsI_A/m_=_1297.0
# frecuencia_Hz_=_212863.40011368602

Tiempo_(s)	Campo_(V.s)	Magnetizacion_(V.s)	Campo_(kA/m)	Magnetizacion_(A/m)
0.000000e+00	-3.996934e-06	-3.389827e-09	-2.914397e+01	-2.291641e+02
1.000000e-08	-3.996712e-06	-3.389801e-09	-2.914235e+01	-2.291721e+02
2.000000e-08	-3.995766e-06	-3.390772e-09	-2.913545e+01	-2.291497e+02
3.000000e-08	-3.993923e-06	-3.391812e-09	-2.912201e+01	-2.290965e+02
4.000000e-08	-3.991200e-06	-3.391120e-09	-2.910216e+01	-2.290132e+02
5.000000e-08	-3.987793e-06	-3.389687e-09	-2.907731e+01	-2.289022e+02
6.000000e-08	-3.983898e-06	-3.392855e-09	-2.904891e+01	-2.287667e+02
7.000000e-08	-3.979429e-06	-3.401471e-09	-2.901633e+01	-2.286115e+02
8.000000e-08	-3.974196e-06	-3.383253e-09	-2.897817e+01	-2.284420e+02
9.000000e-08	-3.968125e-06	-3.351483e-09	-2.893390e+01	-2.282644e+02
1.000000e-07	-3.961234e-06	-3.371846e-09	-2.888366e+01	-2.280850e+02
1.100000e-07	-3.953734e-06	-3.437511e-09	-2.882897e+01	-2.279102e+02
1.200000e-07	-3.945797e-06	-3.405682e-09	-2.877110e+01	-2.277459e+02
1.300000e-07	-3.937252e-06	-3.290948e-09	-2.870879e+01	-2.275969e+02
1.400000e-07	-3.927856e-06	-3.353555e-09	-2.864028e+01	-2.274670e+02
1.500000e-07	-3.917657e-06	-3.420541e-09	-2.856591e+01	-2.273584e+02
1.600000e-07	-3.906712e-06	-3.417631e-09	-2.848611e+01	-2.272715e+02
1.700000e-07	-3.894774e-06	-3.386145e-09	-2.839906e+01	-2.272051e+02
1.800000e-07	-3.881954e-06	-3.400244e-09	-2.830558e+01	-2.271561e+02
1.900000e-07	-3.868623e-06	-3.387246e-09	-2.820838e+01	-2.271197e+02
2.000000e-07	-3.854449e-06	-3.426009e-09	-2.810503e+01	-2.270896e+02
2.100000e-07	-3.838981e-06	-3.550902e-09	-2.799224e+01	-2.270586e+02
2.200000e-07	-3.822642e-06	-3.456256e-09	-2.787311e+01	-2.270185e+02
2.300000e-07	-3.805917e-06	-3.443243e-09	-2.775116e+01	-2.269607e+02
2.400000e-07	-3.788584e-06	-3.600747e-09	-2.762477e+01	-2.268770e+02
2.500000e-07	-3.770554e-06	-3.671585e-09	-2.749330e+01	-2.267594e+02
2.600000e-07	-3.751982e-06	-3.519820e-09	-2.735788e+01	-2.266012e+02
2.700000e-07	-3.732840e-06	-3.510291e-09	-2.721831e+01	-2.263966e+02
2.800000e-07	-3.713177e-06	-3.623616e-09	-2.707493e+01	-2.261417e+02
2.900000e-07	-3.692980e-06	-3.603259e-09	-2.692767e+01	-2.258341e+02
3.000000e-07	-3.672110e-06	-3.566763e-09	-2.677549e+01	-2.254732e+02
3.100000e-07	-3.650561e-06	-3.524538e-09	-2.661836e+01	-2.250604e+02
3.200000e-07	-3.628378e-06	-3.520780e-09	-2.645661e+01	-2.245983e+02
3.300000e-07	-3.605581e-06	-3.542271e-09	-2.629039e+01	-2.240912e+02
3.400000e-07	-3.582229e-06	-3.553904e-09	-2.612011e+01	-2.235442e+02
3.500000e-07	-3.558359e-06	-3.537622e-09	-2.594606e+01	-2.229633e+02
3.600000e-07	-3.533841e-06	-3.473085e-09	-2.576728e+01	-2.223548e+02
3.700000e-07	-3.508547e-06	-3.446675e-09	-2.558286e+01	-2.217247e+02
3.800000e-07	-3.482306e-06	-3.539348e-09	-2.539152e+01	-2.210788e+02
3.900000e-07	-3.455168e-06	-3.531730e-09	-2.519363e+01	-2.204219e+02
4.000000e-07	-3.427575e-06	-3.400010e-09	-2.499244e+01	-2.197580e+02
4.100000e-07	-3.399648e-06	-3.408937e-09	-2.478881e+01	-2.190897e+02
4.200000e-07	-3.371113e-06	-3.510131e-09	-2.458074e+01	-2.184183e+02
4.300000e-07	-3.341918e-06	-3.469696e-09	-2.436787e+01	-2.177439e+02
4.400000e-07	-3.312213e-06	-3.374596e-09	-2.415127e+01	-2.170653e+02
4.500000e-07	-3.281934e-06	-3.401848e-09	-2.393049e+01	-2.163803e+02
4.600000e-07	-3.251039e-06	-3.424742e-09	-2.370521e+01	-2.156856e+02
4.700000e-07	-3.219677e-06	-3.396398e-09	-2.347653e+01	-2.149776e+02
4.800000e-07	-3.188011e-06	-3.376470e-09	-2.324564e+01	-2.142522e+02
4.900000e-07	-3.156030e-06	-3.350597e-09	-2.301245e+01	-2.135053e+02
5.000000e-07	-3.123459e-06	-3.342242e-09	-2.277495e+01	-2.127330e+02
5.100000e-07	-3.089974e-06	-3.347945e-09	-2.253080e+01	-2.119320e+02
5.200000e-07	-3.055521e-06	-3.337371e-09	-2.227958e+01	-2.110993e+02
5.300000e-07	-3.020369e-06	-3.304761e-09	-2.202326e+01	-2.102330e+02
5.400000e-07	-2.984851e-06	-3.280252e-09	-2.176428e+01	-2.093318e+02
5.500000e-07	-2.949046e-06	-3.289916e-09	-2.150321e+01	-2.083953e+02
5.600000e-07	-2.912795e-06	-3.289675e-09	-2.123888e+01	-2.074237e+02
5.700000e-07	-2.876024e-06	-3.257316e-09	-2.097076e+01	-2.064178e+02
5.800000e-07	-2.838742e-06	-3.215670e-09	-2.069892e+01	-2.053790e+02
5.900000e-07	-2.800948e-06	-3.215519e-09	-2.042334e+01	-2.043086e+02
6.000000e-07	-2.762632e-06	-3.233539e-09	-2.014395e+01	-2.032084e+02
6.100000e-07	-2.723835e-06	-3.185691e-09	-1.986106e+01	-2.020796e+02
6.200000e-07	-2.684669e-06	-3.140625e-09	-1.957548e+01	-2.009235e+02
6.300000e-07	-2.645200e-06	-3.151061e-09	-1.928769e+01	-1.997407e+02
6.400000e-07	-2.605403e-06	-3.149502e-09	-1.899751e+01	-1.985315e+02
6.500000e-07	-2.565132e-06	-3.110057e-09	-1.870387e+01	-1.972955e+02
6.600000e-07	-2.524220e-06	-3.076301e-09	-1.840555e+01	-1.960318e+02
6.700000e-07	-2.482610e-06	-3.072148e-09	-1.810215e+01	-1.947392e+02
6.800000e-07	-2.440282e-06	-3.057282e-09	-1.779352e+01	-1.934159e+02
6.900000e-07	-2.397344e-06	-3.033793e-09	-1.748043e+01	-1.920600e+02
7.000000e-07	-2.354007e-06	-3.010356e-09	-1.716443e+01	-1.906695e+02
7.100000e-07	-2.310386e-06	-2.973806e-09	-1.684637e+01	-1.892424e+02
7.200000e-07	-2.266518e-06	-2.956552e-09	-1.652650e+01	-1.877768e+02
7.300000e-07	-2.222285e-06	-2.948937e-09	-1.620397e+01	-1.862713e+02
7.400000e-07	-2.177558e-06	-2.918471e-09	-1.587784e+01	-1.847247e+02
7.500000e-07	-2.132412e-06	-2.875298e-09	-1.554865e+01	-1.831363e+02
7.600000e-07	-2.086934e-06	-2.851215e-09	-1.521705e+01	-1.815058e+02
7.700000e-07	-2.041080e-06	-2.846518e-09	-1.488270e+01	-1.798332e+02
7.800000e-07	-1.994852e-06	-2.815780e-09	-1.454562e+01	-1.781191e+02
7.900000e-07	-1.948314e-06	-2.766735e-09	-1.420629e+01	-1.763639e+02
8.000000e-07	-1.901492e-06	-2.736737e-09	-1.386488e+01	-1.745685e+02
8.100000e-07	-1.854364e-06	-2.724959e-09	-1.352125e+01	-1.727335e+02
8.200000e-07	-1.806998e-06	-2.704027e-09	-1.317587e+01	-1.708594e+02
8.300000e-07	-1.759430e-06	-2.657029e-09	-1.282903e+01	-1.689462e+02
8.400000e-07	-1.711585e-06	-2.617016e-09	-1.248016e+01	-1.669938e+02
8.500000e-07	-1.663462e-06	-2.597873e-09	-1.212927e+01	-1.650013e+02
8.600000e-07	-1.614994e-06	-2.574080e-09	-1.177586e+01	-1.629673e+02
8.700000e-07	-1.566067e-06	-2.536315e-09	-1.141910e+01	-1.608899e+02
8.800000e-07	-1.516600e-06	-2.490104e-09	-1.105841e+01	-1.587664e+02
8.900000e-07	-1.466683e-06	-2.454188e-09	-1.069444e+01	-1.565940e+02
9.000000e-07	-1.416484e-06	-2.427136e-09	-1.032841e+01	-1.543691e+02
9.100000e-07	-1.365932e-06	-2.392378e-09	-9.959805e+00	-1.520878e+02
9.200000e-07	-1.314937e-06	-2.346685e-09	-9.587969e+00	-1.497461e+02
9.300000e-07	-1.263640e-06	-2.297949e-09	-9.213933e+00	-1.473399e+02
9.400000e-07	-1.212154e-06	-2.265077e-09	-8.838520e+00	-1.448648e+02
9.500000e-07	-1.160521e-06	-2.232788e-09	-8.462032e+00	-1.423167e+02
9.600000e-07	-1.108696e-06	-2.184598e-09	-8.084146e+00	-1.396914e+02
9.700000e-07	-1.056606e-06	-2.134151e-09	-7.704331e+00	-1.369849e+02
9.800000e-07	-1.004317e-06	-2.091248e-09	-7.323056e+00	-1.341933e+02
9.900000e-07	-9.518520e-07	-2.054523e-09	-6.940506e+00	-1.313127e+02
1.000000e-06	-8.992047e-07	-2.007551e-09	-6.556624e+00	-1.283392e+02
1.010000e-06	-8.463515e-07	-1.952204e-09	-6.171241e+00	-1.252690e+02
1.020000e-06	-7.932873e-07	-1.900069e-09	-5.784319e+00	-1.220980e+02
1.030000e-06	-7.400715e-07	-1.849233e-09	-5.396292e+00	-1.188223e+02
1.040000e-06	-6.867508e-07	-1.798380e-09	-5.007499e+00	-1.154372e+02
1.050000e-06	-6.333390e-07	-1.741615e-09	-4.618043e+00	-1.119384e+02
1.060000e-06	-5.798291e-07	-1.682172e-09	-4.227871e+00	-1.083208e+02
1.070000e-06	-5.262367e-07	-1.623922e-09	-3.837097e+00	-1.045795e+02
1.080000e-06	-4.725728e-07	-1.565143e-09	-3.445803e+00	-1.007093e+02
1.090000e-06	-4.188797e-07	-1.504541e-09	-3.054296e+00	-9.670522e+01
1.100000e-06	-3.651528e-07	-1.435076e-09	-2.662541e+00	-9.256221e+01
1.110000e-06	-3.113626e-07	-1.363675e-09	-2.270325e+00	-8.827572e+01
1.120000e-06	-2.574830e-07	-1.294992e-09	-1.877458e+00	-8.384176e+01
1.130000e-06	-2.035499e-07	-1.223494e-09	-1.484201e+00	-7.925710e+01
1.140000e-06	-1.496502e-07	-1.149095e-09	-1.091186e+00	-7.451950e+01
1.150000e-06	-9.571808e-08	-1.072411e-09	-6.979361e-01	-6.962792e+01
1.160000e-06	-4.176180e-08	-9.978270e-10	-3.045096e-01	-6.458269e+01
1.170000e-06	1.217610e-08	-9.210881e-10	8.878305e-02	-5.938561e+01
1.180000e-06	6.610694e-08	-8.378157e-10	4.820241e-01	-5.404011e+01
1.190000e-06	1.199865e-07	-7.538759e-10	8.748911e-01	-4.855125e+01
1.200000e-06	1.738420e-07	-6.659416e-10	1.267583e+00	-4.292572e+01
1.210000e-06	2.277154e-07	-5.743755e-10	1.660406e+00	-3.717183e+01
1.220000e-06	2.815210e-07	-4.821548e-10	2.052733e+00	-3.129939e+01
1.230000e-06	3.352387e-07	-3.900504e-10	2.444420e+00	-2.531956e+01
1.240000e-06	3.888996e-07	-2.981912e-10	2.835693e+00	-1.924474e+01
1.250000e-06	4.425214e-07	-2.032564e-10	3.226680e+00	-1.308834e+01
1.260000e-06	4.960813e-07	-1.109072e-10	3.617217e+00	-6.864627e+00
1.270000e-06	5.495240e-07	-1.801633e-11	4.006899e+00	-5.884921e-01
1.280000e-06	6.028634e-07	7.844933e-11	4.395827e+00	5.724714e+00
1.290000e-06	6.560952e-07	1.764332e-10	4.783972e+00	1.205937e+01
1.300000e-06	7.092195e-07	2.742315e-10	5.171332e+00	1.839973e+01
1.310000e-06	7.622440e-07	3.704589e-10	5.557964e+00	2.473009e+01
1.320000e-06	8.151231e-07	4.696315e-10	5.943536e+00	3.103490e+01
1.330000e-06	8.678338e-07	5.670294e-10	6.327880e+00	3.729887e+01
1.340000e-06	9.204023e-07	6.616689e-10	6.711188e+00	4.350706e+01
1.350000e-06	9.727845e-07	7.568015e-10	7.093137e+00	4.964498e+01
1.360000e-06	1.024945e-06	8.516314e-10	7.473468e+00	5.569867e+01
1.370000e-06	1.076886e-06	9.425702e-10	7.852199e+00	6.165479e+01
1.380000e-06	1.128678e-06	1.031134e-09	8.229844e+00	6.750074e+01
1.390000e-06	1.180342e-06	1.120222e-09	8.606558e+00	7.322473e+01
1.400000e-06	1.231770e-06	1.208476e-09	8.981550e+00	7.881590e+01
1.410000e-06	1.282988e-06	1.293142e-09	9.355014e+00	8.426448e+01
1.420000e-06	1.334042e-06	1.374742e-09	9.727275e+00	8.956192e+01
1.430000e-06	1.384834e-06	1.453306e-09	1.009763e+01	9.470098e+01
1.440000e-06	1.435227e-06	1.529567e-09	1.046507e+01	9.967589e+01
1.450000e-06	1.485121e-06	1.604248e-09	1.082888e+01	1.044824e+02
1.460000e-06	1.534492e-06	1.674312e-09	1.118887e+01	1.091181e+02
1.470000e-06	1.583412e-06	1.740840e-09	1.154558e+01	1.135820e+02
1.480000e-06	1.631917e-06	1.805486e-09	1.189925e+01	1.178749e+02
1.490000e-06	1.679994e-06	1.870594e-09	1.224982e+01	1.219993e+02
1.500000e-06	1.727764e-06	1.933483e-09	1.259813e+01	1.259591e+02
1.510000e-06	1.775365e-06	1.991633e-09	1.294522e+01	1.297599e+02
1.520000e-06	1.822811e-06	2.047281e-09	1.329118e+01	1.334080e+02
1.530000e-06	1.870014e-06	2.103064e-09	1.363536e+01	1.369111e+02
1.540000e-06	1.916880e-06	2.158004e-09	1.397709e+01	1.402772e+02
1.550000e-06	1.963355e-06	2.206902e-09	1.431596e+01	1.435149e+02
1.560000e-06	2.009408e-06	2.251163e-09	1.465176e+01	1.466329e+02
1.570000e-06	2.055090e-06	2.296791e-09	1.498486e+01	1.496394e+02
1.580000e-06	2.100460e-06	2.341378e-09	1.531567e+01	1.525424e+02
1.590000e-06	2.145482e-06	2.383207e-09	1.564396e+01	1.553490e+02
1.600000e-06	2.190165e-06	2.422869e-09	1.596977e+01	1.580657e+02
1.610000e-06	2.234451e-06	2.462321e-09	1.629268e+01	1.606977e+02
1.620000e-06	2.278347e-06	2.504811e-09	1.661275e+01	1.632494e+02
1.630000e-06	2.322008e-06	2.546419e-09	1.693111e+01	1.657240e+02
1.640000e-06	2.365470e-06	2.582575e-09	1.724801e+01	1.681239e+02
1.650000e-06	2.408589e-06	2.615495e-09	1.756242e+01	1.704507e+02
1.660000e-06	2.451179e-06	2.649881e-09	1.787297e+01	1.727053e+02
1.670000e-06	2.493146e-06	2.683389e-09	1.817898e+01	1.748881e+02
1.680000e-06	2.534425e-06	2.712544e-09	1.847997e+01	1.769996e+02
1.690000e-06	2.575001e-06	2.740764e-09	1.877583e+01	1.790400e+02
1.700000e-06	2.615027e-06	2.769477e-09	1.906768e+01	1.810099e+02
1.710000e-06	2.654692e-06	2.798212e-09	1.935691e+01	1.829100e+02
1.720000e-06	2.694028e-06	2.827237e-09	1.964372e+01	1.847420e+02
1.730000e-06	2.733015e-06	2.855232e-09	1.992800e+01	1.865076e+02
1.740000e-06	2.771601e-06	2.883197e-09	2.020935e+01	1.882095e+02
1.750000e-06	2.809661e-06	2.911621e-09	2.048687e+01	1.898507e+02
1.760000e-06	2.847192e-06	2.938978e-09	2.076053e+01	1.914347e+02
1.770000e-06	2.884280e-06	2.962078e-09	2.103096e+01	1.929652e+02
1.780000e-06	2.920908e-06	2.981994e-09	2.129804e+01	1.944462e+02
1.790000e-06	2.957074e-06	3.004453e-09	2.156175e+01	1.958814e+02
1.800000e-06	2.992871e-06	3.027699e-09	2.182276e+01	1.972746e+02
1.810000e-06	3.028319e-06	3.048701e-09	2.208123e+01	1.986288e+02
1.820000e-06	3.063326e-06	3.069140e-09	2.233649e+01	1.999466e+02
1.830000e-06	3.097685e-06	3.091336e-09	2.258702e+01	2.012301e+02
1.840000e-06	3.131194e-06	3.114397e-09	2.283135e+01	2.024803e+02
1.850000e-06	3.163875e-06	3.134984e-09	2.306965e+01	2.036980e+02
1.860000e-06	3.195912e-06	3.154156e-09	2.330325e+01	2.048828e+02
1.870000e-06	3.227476e-06	3.173554e-09	2.353340e+01	2.060340e+02
1.880000e-06	3.258647e-06	3.191911e-09	2.376069e+01	2.071507e+02
1.890000e-06	3.289357e-06	3.208781e-09	2.398461e+01	2.082313e+02
1.900000e-06	3.319442e-06	3.224839e-09	2.420398e+01	2.092745e+02
1.910000e-06	3.348879e-06	3.239668e-09	2.441862e+01	2.102791e+02
1.920000e-06	3.377712e-06	3.254570e-09	2.462886e+01	2.112441e+02
1.930000e-06	3.406003e-06	3.270633e-09	2.483514e+01	2.121690e+02
1.940000e-06	3.433846e-06	3.286303e-09	2.503816e+01	2.130541e+02
1.950000e-06	3.461235e-06	3.301274e-09	2.523787e+01	2.139002e+02
1.960000e-06	3.488116e-06	3.316413e-09	2.543388e+01	2.147087e+02
1.970000e-06	3.514227e-06	3.329838e-09	2.562427e+01	2.154816e+02
1.980000e-06	3.539353e-06	3.342293e-09	2.580748e+01	2.162217e+02
1.990000e-06	3.563641e-06	3.355564e-09	2.598458e+01	2.169317e+02
2.000000e-06	3.587300e-06	3.367802e-09	2.615709e+01	2.176150e+02
2.010000e-06	3.610409e-06	3.378133e-09	2.632559e+01	2.182745e+02
2.020000e-06	3.632876e-06	3.388707e-09	2.648941e+01	2.189133e+02
2.030000e-06	3.654726e-06	3.401228e-09	2.664873e+01	2.195337e+02
2.040000e-06	3.676032e-06	3.413314e-09	2.680408e+01	2.201378e+02
2.050000e-06	3.696714e-06	3.423351e-09	2.695489e+01	2.207269e+02
2.060000e-06	3.716816e-06	3.432263e-09	2.710146e+01	2.213016e+02
2.070000e-06	3.736407e-06	3.441988e-09	2.724431e+01	2.218615e+02
2.080000e-06	3.755493e-06	3.452540e-09	2.738348e+01	2.224059e+02
2.090000e-06	3.774005e-06	3.461981e-09	2.751847e+01	2.229333e+02
2.100000e-06	3.791915e-06	3.469606e-09	2.764905e+01	2.234419e+02
2.110000e-06	3.809203e-06	3.477503e-09	2.777511e+01	2.239294e+02
2.120000e-06	3.825820e-06	3.487004e-09	2.789627e+01	2.243937e+02
2.130000e-06	3.841726e-06	3.495765e-09	2.801226e+01	2.248329e+02
2.140000e-06	3.856830e-06	3.503160e-09	2.812239e+01	2.252453e+02
2.150000e-06	3.871109e-06	3.511465e-09	2.822650e+01	2.256298e+02
2.160000e-06	3.884616e-06	3.519777e-09	2.832499e+01	2.259861e+02
2.170000e-06	3.897449e-06	3.526779e-09	2.841856e+01	2.263145e+02
2.180000e-06	3.909617e-06	3.534277e-09	2.850729e+01	2.266160e+02
2.190000e-06	3.921016e-06	3.540880e-09	2.859041e+01	2.268924e+02
2.200000e-06	3.931545e-06	3.546966e-09	2.866718e+01	2.271460e+02
2.210000e-06	3.941043e-06	3.553497e-09	2.873644e+01	2.273796e+02
2.220000e-06	3.949585e-06	3.560048e-09	2.879872e+01	2.275961e+02
2.230000e-06	3.957481e-06	3.566631e-09	2.885629e+01	2.277982e+02
2.240000e-06	3.964806e-06	3.572094e-09	2.890970e+01	2.279887e+02
2.250000e-06	3.971474e-06	3.577557e-09	2.895832e+01	2.281695e+02
2.260000e-06	3.977468e-06	3.581887e-09	2.900203e+01	2.283422e+02
2.270000e-06	3.982774e-06	3.583947e-09	2.904072e+01	2.285072e+02
2.280000e-06	3.987342e-06	3.585618e-09	2.907403e+01	2.286643e+02
2.290000e-06	3.991324e-06	3.589057e-09	2.910306e+01	2.288122e+02
2.300000e-06	3.994807e-06	3.592396e-09	2.912846e+01	2.289489e+02
2.310000e-06	3.997571e-06	3.594635e-09	2.914862e+01	2.290717e+02
2.320000e-06	3.999388e-06	3.597477e-09	2.916186e+01	2.291773e+02
2.330000e-06	4.000265e-06	3.601961e-09	2.916826e+01	2.292624e+02
2.340000e-06	4.000401e-06	3.605996e-09	2.916925e+01	2.293236e+02
2.350000e-06	3.999949e-06	3.607218e-09	2.916595e+01	2.293579e+02
2.360000e-06	3.998917e-06	3.609206e-09	2.915843e+01	2.293630e+02
2.370000e-06	3.997245e-06	3.609443e-09	2.914623e+01	2.293375e+02
2.380000e-06	3.994941e-06	3.607760e-09	2.912944e+01	2.292812e+02
2.390000e-06	3.991990e-06	3.606108e-09	2.910792e+01	2.291951e+02
2.400000e-06	3.988439e-06	3.603956e-09	2.908202e+01	2.290815e+02
2.410000e-06	3.984390e-06	3.591913e-09	2.905251e+01	2.289439e+02
2.420000e-06	3.979876e-06	3.598063e-09	2.901959e+01	2.287870e+02
2.430000e-06	3.974671e-06	3.635083e-09	2.898164e+01	2.286164e+02
2.440000e-06	3.968349e-06	3.625930e-09	2.893554e+01	2.284383e+02
2.450000e-06	3.960843e-06	3.541419e-09	2.888081e+01	2.282592e+02
2.460000e-06	3.952630e-06	3.560600e-09	2.882092e+01	2.280852e+02
2.470000e-06	3.944142e-06	3.667777e-09	2.875903e+01	2.279222e+02
2.480000e-06	3.935174e-06	3.631556e-09	2.869364e+01	2.277751e+02
2.490000e-06	3.925253e-06	3.539229e-09	2.862130e+01	2.276472e+02
2.500000e-06	3.914578e-06	3.532658e-09	2.854347e+01	2.275408e+02
2.510000e-06	3.903623e-06	3.559563e-09	2.846359e+01	2.274561e+02
2.520000e-06	3.891958e-06	3.508590e-09	2.837853e+01	2.273916e+02
2.530000e-06	3.879085e-06	3.563464e-09	2.828466e+01	2.273442e+02
2.540000e-06	3.865459e-06	3.537887e-09	2.818531e+01	2.273087e+02
2.550000e-06	3.851449e-06	3.385154e-09	2.808315e+01	2.272789e+02
2.560000e-06	3.836552e-06	3.476972e-09	2.797453e+01	2.272474e+02
2.570000e-06	3.820603e-06	3.588328e-09	2.785824e+01	2.272059e+02
2.580000e-06	3.804052e-06	3.413569e-09	2.773755e+01	2.271460e+02
2.590000e-06	3.786915e-06	3.295329e-09	2.761259e+01	2.270592e+02
2.600000e-06	3.769063e-06	3.474542e-09	2.748243e+01	2.269380e+02
2.610000e-06	3.750514e-06	3.420346e-09	2.734718e+01	2.267753e+02
2.620000e-06	3.731294e-06	3.268711e-09	2.720703e+01	2.265659e+02
2.630000e-06	3.711496e-06	3.353502e-09	2.706268e+01	2.263058e+02
2.640000e-06	3.691164e-06	3.372308e-09	2.691442e+01	2.259929e+02
2.650000e-06	3.670276e-06	3.316304e-09	2.676212e+01	2.256268e+02
2.660000e-06	3.648705e-06	3.352621e-09	2.660483e+01	2.252089e+02
2.670000e-06	3.626161e-06	3.366569e-09	2.644044e+01	2.247421e+02
2.680000e-06	3.602637e-06	3.282620e-09	2.626892e+01	2.242308e+02
2.690000e-06	3.578492e-06	3.272252e-09	2.609286e+01	2.236802e+02
2.700000e-06	3.553865e-06	3.341799e-09	2.591329e+01	2.230963e+02
2.710000e-06	3.528530e-06	3.344738e-09	2.572857e+01	2.224854e+02
2.720000e-06	3.502547e-06	3.254036e-09	2.553910e+01	2.218535e+02
2.730000e-06	3.476111e-06	3.210432e-09	2.534635e+01	2.212063e+02
2.740000e-06	3.449023e-06	3.320721e-09	2.514883e+01	2.205486e+02
2.750000e-06	3.421273e-06	3.320840e-09	2.494649e+01	2.198842e+02
2.760000e-06	3.393088e-06	3.186536e-09	2.474098e+01	2.192155e+02
2.770000e-06	3.364493e-06	3.215131e-09	2.453247e+01	2.185439e+02
2.780000e-06	3.335285e-06	3.281136e-09	2.431950e+01	2.178692e+02
2.790000e-06	3.305334e-06	3.233787e-09	2.410111e+01	2.171901e+02
2.800000e-06	3.274569e-06	3.196458e-09	2.387678e+01	2.165043e+02
2.810000e-06	3.242993e-06	3.197148e-09	2.364655e+01	2.158085e+02
2.820000e-06	3.210915e-06	3.213244e-09	2.341264e+01	2.150990e+02
2.830000e-06	3.178495e-06	3.192575e-09	2.317626e+01	2.143716e+02
2.840000e-06	3.145541e-06	3.167142e-09	2.293597e+01	2.136224e+02
2.850000e-06	3.111980e-06	3.174387e-09	2.269126e+01	2.128474e+02
2.860000e-06	3.077932e-06	3.146190e-09	2.244299e+01	2.120433e+02
2.870000e-06	3.043454e-06	3.134463e-09	2.219159e+01	2.112074e+02
2.880000e-06	3.008418e-06	3.141805e-09	2.193613e+01	2.103377e+02
2.890000e-06	2.972792e-06	3.122390e-09	2.167635e+01	2.094330e+02
2.900000e-06	2.936760e-06	3.089871e-09	2.141363e+01	2.084930e+02
2.910000e-06	2.900407e-06	3.079880e-09	2.114855e+01	2.075179e+02
2.920000e-06	2.863624e-06	3.101613e-09	2.088035e+01	2.065087e+02
2.930000e-06	2.826207e-06	3.066514e-09	2.060752e+01	2.054667e+02
2.940000e-06	2.788066e-06	3.016604e-09	2.032941e+01	2.043933e+02
2.950000e-06	2.749158e-06	3.036258e-09	2.004571e+01	2.032902e+02
