# Temperatura_=_20.0
# Concentracion g/m^3_=_9000.0
# C_Vs_to_Am_M_A/Vsm_=_65563218390.804596
# pendiente_HvsI_1/m_=_3716.3
# ordenada_HvsI_A/m_=_1297.0
# frecuencia_Hz_=_301075.4754649437

Tiempo_(s)	Campo_(V.s)	Magnetizacion_(V.s)	Campo_(kA/m)	Magnetizacion_(A/m)
0.000000e+00	-2.648774e-06	-3.025329e-09	-1.976809e+01	-2.008873e+02
1.000000e-08	-2.648639e-06	-3.027133e-09	-1.976709e+01	-2.010033e+02
2.000000e-08	-2.647488e-06	-3.026977e-09	-1.975849e+01	-2.010763e+02
3.000000e-08	-2.645139e-06	-3.027613e-09	-1.974097e+01	-2.011049e+02
4.000000e-08	-2.641838e-06	-3.029503e-09	-1.971633e+01	-2.010889e+02
5.000000e-08	-2.637824e-06	-3.029137e-09	-1.968637e+01	-2.010302e+02
6.000000e-08	-2.633020e-06	-3.024933e-09	-1.965052e+01	-2.009317e+02
7.000000e-08	-2.627340e-06	-3.020982e-09	-1.960813e+01	-2.007976e+02
8.000000e-08	-2.620805e-06	-3.030871e-09	-1.955936e+01	-2.006323e+02
9.000000e-08	-2.613311e-06	-3.041453e-09	-1.950343e+01	-2.004395e+02
1.000000e-07	-2.604662e-06	-3.026477e-09	-1.943888e+01	-2.002212e+02
1.100000e-07	-2.594724e-06	-2.987630e-09	-1.936472e+01	-1.999772e+02
1.200000e-07	-2.583728e-06	-2.991752e-09	-1.928265e+01	-1.997040e+02
1.300000e-07	-2.571942e-06	-3.012988e-09	-1.919469e+01	-1.993948e+02
1.400000e-07	-2.559248e-06	-2.996680e-09	-1.909995e+01	-1.990400e+02
1.500000e-07	-2.545741e-06	-2.983981e-09	-1.899915e+01	-1.986274e+02
1.600000e-07	-2.531306e-06	-2.996039e-09	-1.889141e+01	-1.981439e+02
1.700000e-07	-2.515369e-06	-2.975219e-09	-1.877248e+01	-1.975765e+02
1.800000e-07	-2.498258e-06	-2.962091e-09	-1.864478e+01	-1.969141e+02
1.900000e-07	-2.480706e-06	-2.990395e-09	-1.851378e+01	-1.961490e+02
2.000000e-07	-2.462530e-06	-2.946602e-09	-1.837813e+01	-1.952780e+02
2.100000e-07	-2.443367e-06	-2.910493e-09	-1.823512e+01	-1.943036e+02
2.200000e-07	-2.423479e-06	-2.952530e-09	-1.808669e+01	-1.932337e+02
2.300000e-07	-2.403040e-06	-2.957714e-09	-1.793415e+01	-1.920819e+02
2.400000e-07	-2.381645e-06	-2.916994e-09	-1.777448e+01	-1.908659e+02
2.500000e-07	-2.359121e-06	-2.939443e-09	-1.760638e+01	-1.896065e+02
2.600000e-07	-2.335878e-06	-2.936860e-09	-1.743292e+01	-1.883253e+02
2.700000e-07	-2.312113e-06	-2.890866e-09	-1.725555e+01	-1.870433e+02
2.800000e-07	-2.287542e-06	-2.903420e-09	-1.707218e+01	-1.857783e+02
2.900000e-07	-2.261806e-06	-2.905569e-09	-1.688011e+01	-1.845435e+02
3.000000e-07	-2.234942e-06	-2.858535e-09	-1.667962e+01	-1.833469e+02
3.100000e-07	-2.207324e-06	-2.825436e-09	-1.647351e+01	-1.821897e+02
3.200000e-07	-2.179094e-06	-2.825129e-09	-1.626282e+01	-1.810674e+02
3.300000e-07	-2.150173e-06	-2.827108e-09	-1.604698e+01	-1.799701e+02
3.400000e-07	-2.120521e-06	-2.817823e-09	-1.582568e+01	-1.788836e+02
3.500000e-07	-2.090059e-06	-2.744129e-09	-1.559834e+01	-1.777916e+02
3.600000e-07	-2.058871e-06	-2.729232e-09	-1.536558e+01	-1.766768e+02
3.700000e-07	-2.027294e-06	-2.781105e-09	-1.512992e+01	-1.755231e+02
3.800000e-07	-1.995133e-06	-2.728205e-09	-1.488989e+01	-1.743166e+02
3.900000e-07	-1.961761e-06	-2.658265e-09	-1.464084e+01	-1.730473e+02
4.000000e-07	-1.927232e-06	-2.674827e-09	-1.438314e+01	-1.717089e+02
4.100000e-07	-1.892050e-06	-2.654069e-09	-1.412058e+01	-1.702990e+02
4.200000e-07	-1.856347e-06	-2.595803e-09	-1.385412e+01	-1.688188e+02
4.300000e-07	-1.820091e-06	-2.610149e-09	-1.358354e+01	-1.672723e+02
4.400000e-07	-1.783296e-06	-2.580226e-09	-1.330893e+01	-1.656645e+02
4.500000e-07	-1.745851e-06	-2.513940e-09	-1.302948e+01	-1.640011e+02
4.600000e-07	-1.707717e-06	-2.516577e-09	-1.274488e+01	-1.622867e+02
4.700000e-07	-1.668957e-06	-2.527746e-09	-1.245561e+01	-1.605247e+02
4.800000e-07	-1.629696e-06	-2.463295e-09	-1.216260e+01	-1.587162e+02
4.900000e-07	-1.590111e-06	-2.403126e-09	-1.186718e+01	-1.568602e+02
5.000000e-07	-1.550167e-06	-2.402389e-09	-1.156907e+01	-1.549536e+02
5.100000e-07	-1.509653e-06	-2.387421e-09	-1.126671e+01	-1.529922e+02
5.200000e-07	-1.468218e-06	-2.335037e-09	-1.095748e+01	-1.509708e+02
5.300000e-07	-1.425718e-06	-2.282859e-09	-1.064029e+01	-1.488842e+02
5.400000e-07	-1.382536e-06	-2.266984e-09	-1.031802e+01	-1.467280e+02
5.500000e-07	-1.339082e-06	-2.243878e-09	-9.993717e+00	-1.444989e+02
5.600000e-07	-1.295337e-06	-2.203267e-09	-9.667243e+00	-1.421949e+02
5.700000e-07	-1.251141e-06	-2.164320e-09	-9.337400e+00	-1.398152e+02
5.800000e-07	-1.206549e-06	-2.130051e-09	-9.004608e+00	-1.373603e+02
5.900000e-07	-1.161603e-06	-2.090167e-09	-8.669168e+00	-1.348312e+02
6.000000e-07	-1.116220e-06	-2.053319e-09	-8.330476e+00	-1.322286e+02
6.100000e-07	-1.070405e-06	-2.018187e-09	-7.988552e+00	-1.295531e+02
6.200000e-07	-1.024183e-06	-1.961467e-09	-7.643588e+00	-1.268040e+02
6.300000e-07	-9.775733e-07	-1.911132e-09	-7.295737e+00	-1.239795e+02
6.400000e-07	-9.306349e-07	-1.877175e-09	-6.945431e+00	-1.210762e+02
6.500000e-07	-8.834481e-07	-1.836375e-09	-6.593271e+00	-1.180897e+02
6.600000e-07	-8.360525e-07	-1.776128e-09	-6.239552e+00	-1.150145e+02
6.700000e-07	-7.884386e-07	-1.725788e-09	-5.884205e+00	-1.118450e+02
6.800000e-07	-7.406416e-07	-1.687163e-09	-5.527490e+00	-1.085753e+02
6.900000e-07	-6.925786e-07	-1.634463e-09	-5.168791e+00	-1.052003e+02
7.000000e-07	-6.440911e-07	-1.571406e-09	-4.806923e+00	-1.017154e+02
7.100000e-07	-5.951880e-07	-1.515084e-09	-4.441954e+00	-9.811742e+01
7.200000e-07	-5.459137e-07	-1.466678e-09	-4.074215e+00	-9.440378e+01
7.300000e-07	-4.962436e-07	-1.406350e-09	-3.703521e+00	-9.057291e+01
7.400000e-07	-4.462373e-07	-1.339888e-09	-3.330318e+00	-8.662363e+01
7.500000e-07	-3.959433e-07	-1.277338e-09	-2.954969e+00	-8.255491e+01
7.600000e-07	-3.453558e-07	-1.217854e-09	-2.577429e+00	-7.836549e+01
7.700000e-07	-2.946018e-07	-1.153829e-09	-2.198645e+00	-7.405366e+01
7.800000e-07	-2.437570e-07	-1.084165e-09	-1.819185e+00	-6.961726e+01
7.900000e-07	-1.927810e-07	-1.010808e-09	-1.438746e+00	-6.505377e+01
8.000000e-07	-1.417185e-07	-9.355155e-10	-1.057661e+00	-6.036073e+01
8.100000e-07	-9.060845e-08	-8.642595e-10	-6.762209e-01	-5.553620e+01
8.200000e-07	-3.948500e-08	-7.894287e-10	-2.946809e-01	-5.057941e+01
8.300000e-07	1.165584e-08	-7.075471e-10	8.698880e-02	-4.549135e+01
8.400000e-07	6.281099e-08	-6.226901e-10	4.687654e-01	-4.027534e+01
8.500000e-07	1.138531e-07	-5.459608e-10	8.496982e-01	-3.493734e+01
8.600000e-07	1.647222e-07	-4.711977e-10	1.229340e+00	-2.948610e+01
8.700000e-07	2.155391e-07	-3.840440e-10	1.608592e+00	-2.393301e+01
8.800000e-07	2.663930e-07	-2.912023e-10	1.988121e+00	-1.829171e+01
8.900000e-07	3.171225e-07	-2.047230e-10	2.366720e+00	-1.257745e+01
9.000000e-07	3.676570e-07	-1.224160e-10	2.743865e+00	-6.806389e+00
9.100000e-07	4.179854e-07	-3.111751e-11	3.119471e+00	-9.947989e-01
9.200000e-07	4.679680e-07	6.612440e-11	3.492497e+00	4.841654e+00
9.300000e-07	5.175477e-07	1.592103e-10	3.862516e+00	1.068845e+01
9.400000e-07	5.667326e-07	2.456339e-10	4.229588e+00	1.653256e+01
9.500000e-07	6.155957e-07	3.311866e-10	4.594258e+00	2.236249e+01
9.600000e-07	6.641220e-07	4.208715e-10	4.956416e+00	2.816817e+01
9.700000e-07	7.122859e-07	5.140074e-10	5.315869e+00	3.394051e+01
9.800000e-07	7.601880e-07	6.049695e-10	5.673367e+00	3.967097e+01
9.900000e-07	8.078878e-07	6.905203e-10	6.029356e+00	4.535098e+01
1.000000e-06	8.554248e-07	7.758016e-10	6.384130e+00	5.097153e+01
1.010000e-06	9.028170e-07	8.633534e-10	6.737823e+00	5.652285e+01
1.020000e-06	9.499661e-07	9.509194e-10	7.089702e+00	6.199433e+01
1.030000e-06	9.967432e-07	1.033328e-09	7.438805e+00	6.737470e+01
1.040000e-06	1.043114e-06	1.112527e-09	7.784875e+00	7.265241e+01
1.050000e-06	1.089062e-06	1.191884e-09	8.127792e+00	7.781626e+01
1.060000e-06	1.134600e-06	1.271571e-09	8.467644e+00	8.285599e+01
1.070000e-06	1.179753e-06	1.347197e-09	8.804630e+00	8.776305e+01
1.080000e-06	1.224483e-06	1.416714e-09	9.138454e+00	9.253111e+01
1.090000e-06	1.268782e-06	1.485754e-09	9.469063e+00	9.715646e+01
1.100000e-06	1.312722e-06	1.556030e-09	9.796992e+00	1.016382e+02
1.110000e-06	1.356355e-06	1.625478e-09	1.012263e+01	1.059779e+02
1.120000e-06	1.399734e-06	1.689936e-09	1.044637e+01	1.101794e+02
1.130000e-06	1.442695e-06	1.751496e-09	1.076699e+01	1.142482e+02
1.140000e-06	1.484966e-06	1.813016e-09	1.108247e+01	1.181905e+02
1.150000e-06	1.526393e-06	1.873164e-09	1.139164e+01	1.220126e+02
1.160000e-06	1.566949e-06	1.931572e-09	1.169431e+01	1.257200e+02
1.170000e-06	1.606841e-06	1.987357e-09	1.199203e+01	1.293171e+02
1.180000e-06	1.646300e-06	2.040712e-09	1.228652e+01	1.328067e+02
1.190000e-06	1.685368e-06	2.092069e-09	1.257808e+01	1.361899e+02
1.200000e-06	1.723897e-06	2.142820e-09	1.286563e+01	1.394666e+02
1.210000e-06	1.761818e-06	2.192112e-09	1.314864e+01	1.426355e+02
1.220000e-06	1.799136e-06	2.239342e-09	1.342715e+01	1.456948e+02
1.230000e-06	1.835770e-06	2.284693e-09	1.370055e+01	1.486429e+02
1.240000e-06	1.871765e-06	2.326922e-09	1.396919e+01	1.514787e+02
1.250000e-06	1.907338e-06	2.366316e-09	1.423467e+01	1.542020e+02
1.260000e-06	1.942493e-06	2.405972e-09	1.449704e+01	1.568141e+02
1.270000e-06	1.976917e-06	2.444517e-09	1.475395e+01	1.593174e+02
1.280000e-06	2.010303e-06	2.479911e-09	1.500311e+01	1.617153e+02
1.290000e-06	2.042658e-06	2.514196e-09	1.524458e+01	1.640121e+02
1.300000e-06	2.074301e-06	2.548203e-09	1.548074e+01	1.662124e+02
1.310000e-06	2.105373e-06	2.581314e-09	1.571263e+01	1.683207e+02
1.320000e-06	2.135789e-06	2.613211e-09	1.593963e+01	1.703412e+02
1.330000e-06	2.165484e-06	2.643527e-09	1.616125e+01	1.722772e+02
1.340000e-06	2.194377e-06	2.670293e-09	1.637687e+01	1.741315e+02
1.350000e-06	2.222561e-06	2.697715e-09	1.658721e+01	1.759061e+02
1.360000e-06	2.250225e-06	2.726924e-09	1.679368e+01	1.776025e+02
1.370000e-06	2.277250e-06	2.753324e-09	1.699537e+01	1.792221e+02
1.380000e-06	2.303242e-06	2.775569e-09	1.718935e+01	1.807665e+02
1.390000e-06	2.328067e-06	2.797557e-09	1.737462e+01	1.822377e+02
1.400000e-06	2.351927e-06	2.820860e-09	1.755269e+01	1.836383e+02
1.410000e-06	2.374974e-06	2.843522e-09	1.772470e+01	1.849719e+02
1.420000e-06	2.397231e-06	2.863716e-09	1.789080e+01	1.862424e+02
1.430000e-06	2.418666e-06	2.881463e-09	1.805077e+01	1.874541e+02
1.440000e-06	2.439254e-06	2.900018e-09	1.820442e+01	1.886114e+02
1.450000e-06	2.459133e-06	2.918875e-09	1.835278e+01	1.897178e+02
1.460000e-06	2.478437e-06	2.935742e-09	1.849685e+01	1.907765e+02
1.470000e-06	2.496939e-06	2.950179e-09	1.863493e+01	1.917890e+02
1.480000e-06	2.514450e-06	2.963720e-09	1.876562e+01	1.927559e+02
1.490000e-06	2.531094e-06	2.978547e-09	1.888983e+01	1.936763e+02
1.500000e-06	2.546845e-06	2.993582e-09	1.900739e+01	1.945484e+02
1.510000e-06	2.561578e-06	3.006625e-09	1.911734e+01	1.953699e+02
1.520000e-06	2.575327e-06	3.018180e-09	1.921995e+01	1.961383e+02
1.530000e-06	2.588131e-06	3.029320e-09	1.931551e+01	1.968517e+02
1.540000e-06	2.599926e-06	3.040640e-09	1.940353e+01	1.975091e+02
1.550000e-06	2.610652e-06	3.051588e-09	1.948359e+01	1.981105e+02
1.560000e-06	2.620178e-06	3.061719e-09	1.955467e+01	1.986577e+02
1.570000e-06	2.628502e-06	3.070650e-09	1.961680e+01	1.991535e+02
1.580000e-06	2.635880e-06	3.078025e-09	1.967186e+01	1.996017e+02
1.590000e-06	2.642463e-06	3.085408e-09	1.972099e+01	2.000066e+02
1.600000e-06	2.648180e-06	3.092944e-09	1.976366e+01	2.003725e+02
1.610000e-06	2.652999e-06	3.099314e-09	1.979962e+01	2.007027e+02
1.620000e-06	2.657022e-06	3.104072e-09	1.982965e+01	2.009998e+02
1.630000e-06	2.660307e-06	3.108686e-09	1.985417e+01	2.012646e+02
1.640000e-06	2.662575e-06	3.114661e-09	1.987109e+01	2.014966e+02
1.650000e-06	2.663568e-06	3.120307e-09	1.987850e+01	2.016939e+02
1.660000e-06	2.663535e-06	3.122301e-09	1.987826e+01	2.018540e+02
1.670000e-06	2.662715e-06	3.121325e-09	1.987213e+01	2.019737e+02
1.680000e-06	2.661048e-06	3.122784e-09	1.985970e+01	2.020505e+02
1.690000e-06	2.658541e-06	3.125985e-09	1.984099e+01	2.020830e+02
1.700000e-06	2.655227e-06	3.127107e-09	1.981625e+01	2.020709e+02
1.710000e-06	2.651171e-06	3.126691e-09	1.978598e+01	2.020159e+02
1.720000e-06	2.646456e-06	3.128370e-09	1.975079e+01	2.019208e+02
1.730000e-06	2.640851e-06	3.125416e-09	1.970896e+01	2.017898e+02
1.740000e-06	2.634084e-06	3.104097e-09	1.965846e+01	2.016273e+02
1.750000e-06	2.626087e-06	3.096240e-09	1.959878e+01	2.014371e+02
1.760000e-06	2.616815e-06	3.124964e-09	1.952958e+01	2.012214e+02
1.770000e-06	2.606408e-06	3.130846e-09	1.945191e+01	2.009800e+02
1.780000e-06	2.595536e-06	3.113352e-09	1.937077e+01	2.007098e+02
1.790000e-06	2.584484e-06	3.085450e-09	1.928829e+01	2.004042e+02
1.800000e-06	2.572264e-06	3.106887e-09	1.919709e+01	2.000537e+02
1.810000e-06	2.558217e-06	3.075152e-09	1.909226e+01	1.996464e+02
1.820000e-06	2.543232e-06	3.061720e-09	1.898042e+01	1.991692e+02
1.830000e-06	2.527839e-06	3.084040e-09	1.886554e+01	1.986089e+02
1.840000e-06	2.511324e-06	3.041489e-09	1.874229e+01	1.979543e+02
1.850000e-06	2.493593e-06	3.020416e-09	1.860996e+01	1.971974e+02
1.860000e-06	2.475311e-06	3.048050e-09	1.847352e+01	1.963347e+02
1.870000e-06	2.456388e-06	3.014045e-09	1.833230e+01	1.953681e+02
1.880000e-06	2.436552e-06	2.921079e-09	1.818426e+01	1.943054e+02
1.890000e-06	2.416043e-06	2.945375e-09	1.803120e+01	1.931596e+02
1.900000e-06	2.394757e-06	2.943486e-09	1.787233e+01	1.919483e+02
1.910000e-06	2.372147e-06	2.853026e-09	1.770359e+01	1.906920e+02
1.920000e-06	2.348288e-06	2.837239e-09	1.752553e+01	1.894124e+02
1.930000e-06	2.323708e-06	2.839457e-09	1.734209e+01	1.881305e+02
1.940000e-06	2.298523e-06	2.736547e-09	1.715413e+01	1.868645e+02
1.950000e-06	2.272548e-06	2.737009e-09	1.696027e+01	1.856280e+02
1.960000e-06	2.245618e-06	2.797645e-09	1.675929e+01	1.844292e+02
1.970000e-06	2.217882e-06	2.741636e-09	1.655230e+01	1.832700e+02
1.980000e-06	2.189554e-06	2.698783e-09	1.634088e+01	1.821462e+02
1.990000e-06	2.160437e-06	2.697813e-09	1.612358e+01	1.810483e+02
2.000000e-06	2.130459e-06	2.688366e-09	1.589985e+01	1.799623e+02
2.010000e-06	2.099775e-06	2.709633e-09	1.567085e+01	1.788720e+02
2.020000e-06	2.068220e-06	2.650100e-09	1.543535e+01	1.777601e+02
2.030000e-06	2.035817e-06	2.587303e-09	1.519353e+01	1.766103e+02
2.040000e-06	2.002832e-06	2.649558e-09	1.494735e+01	1.754088e+02
2.050000e-06	1.969170e-06	2.620067e-09	1.469614e+01	1.741449e+02
2.060000e-06	1.934683e-06	2.554003e-09	1.443875e+01	1.728122e+02
2.070000e-06	1.899561e-06	2.589595e-09	1.417664e+01	1.714082e+02
2.080000e-06	1.863925e-06	2.556009e-09	1.391068e+01	1.699337e+02
2.090000e-06	1.827756e-06	2.488340e-09	1.364075e+01	1.683924e+02
2.100000e-06	1.790997e-06	2.518629e-09	1.336641e+01	1.667895e+02
2.110000e-06	1.753581e-06	2.505206e-09	1.308717e+01	1.651306e+02
2.120000e-06	1.715373e-06	2.431234e-09	1.280202e+01	1.634205e+02
2.130000e-06	1.676200e-06	2.405067e-09	1.250966e+01	1.616626e+02
2.140000e-06	1.636253e-06	2.413532e-09	1.221154e+01	1.598582e+02
2.150000e-06	1.595867e-06	2.404056e-09	1.191013e+01	1.580063e+02
2.160000e-06	1.555046e-06	2.336900e-09	1.160548e+01	1.561042e+02
2.170000e-06	1.513646e-06	2.295368e-09	1.129651e+01	1.541476e+02
2.180000e-06	1.471732e-06	2.302359e-09	1.098370e+01	1.521313e+02
2.190000e-06	1.429376e-06	2.267852e-09	1.066759e+01	1.500503e+02
2.200000e-06	1.386493e-06	2.211493e-09	1.034755e+01	1.478999e+02
2.210000e-06	1.343061e-06	2.185995e-09	1.002341e+01	1.456768e+02
2.220000e-06	1.299207e-06	2.159638e-09	9.696127e+00	1.433789e+02
2.230000e-06	1.255052e-06	2.114271e-09	9.366595e+00	1.410054e+02
2.240000e-06	1.210658e-06	2.082010e-09	9.035273e+00	1.385566e+02
2.250000e-06	1.166059e-06	2.053936e-09	8.702428e+00	1.360334e+02
2.260000e-06	1.121116e-06	2.006318e-09	8.367011e+00	1.334368e+02
2.270000e-06	1.075610e-06	1.959136e-09	8.027398e+00	1.307672e+02
2.280000e-06	1.029543e-06	1.935854e-09	7.683594e+00	1.280242e+02
2.290000e-06	9.830994e-07	1.895041e-09	7.336980e+00	1.252058e+02
2.300000e-06	9.363816e-07	1.836325e-09	6.988320e+00	1.223090e+02
2.310000e-06	8.894034e-07	1.796686e-09	6.637716e+00	1.193293e+02
2.320000e-06	8.422123e-07	1.758524e-09	6.285524e+00	1.162614e+02
2.330000e-06	7.948516e-07	1.704760e-09	5.932065e+00	1.130996e+02
2.340000e-06	7.472545e-07	1.647434e-09	5.576843e+00	1.098380e+02
2.350000e-06	6.992953e-07	1.606768e-09	5.218918e+00	1.064713e+02
2.360000e-06	6.510328e-07	1.562031e-09	4.858730e+00	1.029951e+02
2.370000e-06	6.024821e-07	1.495799e-09	4.496390e+00	9.940602e+01
2.380000e-06	5.535280e-07	1.433204e-09	4.131040e+00	9.570143e+01
2.390000e-06	5.042322e-07	1.384603e-09	3.763141e+00	9.187969e+01
2.400000e-06	4.547372e-07	1.329742e-09	3.393754e+00	8.793963e+01
2.410000e-06	4.050571e-07	1.263365e-09	3.022986e+00	8.388020e+01
2.420000e-06	3.552340e-07	1.198471e-09	2.651151e+00	7.970017e+01
2.430000e-06	3.053470e-07	1.138206e-09	2.278839e+00	7.539787e+01
2.440000e-06	2.553480e-07	1.075840e-09	1.905690e+00	7.097117e+01
2.450000e-06	2.052415e-07	1.007301e-09	1.531740e+00	6.641757e+01
2.460000e-06	1.550899e-07	9.343814e-10	1.157453e+00	6.173458e+01
2.470000e-06	1.049282e-07	8.544957e-10	7.830908e-01	5.692021e+01
2.480000e-06	5.474590e-08	7.780443e-10	4.085747e-01	5.197357e+01
2.490000e-06	4.490772e-09	7.083381e-10	3.351513e-02	4.689553e+01
2.500000e-06	-4.575496e-08	6.306644e-10	-3.414743e-01	4.168922e+01
2.510000e-06	-9.591675e-08	5.435148e-10	-7.158373e-01	3.636040e+01
2.520000e-06	-1.460827e-07	4.575867e-10	-1.090231e+00	3.091762e+01
2.530000e-06	-1.962528e-07	3.804944e-10	-1.464656e+00	2.537210e+01
2.540000e-06	-2.463046e-07	3.007740e-10	-1.838198e+00	1.973733e+01
2.550000e-06	-2.962817e-07	2.115349e-10	-2.211183e+00	1.402847e+01
2.560000e-06	-3.462026e-07	1.210325e-10	-2.583748e+00	8.261651e+00
2.570000e-06	-3.958868e-07	3.524248e-11	-2.954547e+00	2.453148e+00
2.580000e-06	-4.453353e-07	-5.024596e-11	-3.323586e+00	-3.381305e+00
2.590000e-06	-4.945817e-07	-1.397822e-10	-3.691118e+00	-9.227091e+00
2.600000e-06	-5.434761e-07	-2.304998e-10	-4.056022e+00	-1.507106e+01
2.610000e-06	-5.919545e-07	-3.192958e-10	-4.417822e+00	-2.090164e+01
2.620000e-06	-6.400941e-07	-4.046834e-10	-4.777093e+00	-2.670864e+01
2.630000e-06	-6.879695e-07	-4.908518e-10	-5.134393e+00	-3.248292e+01
2.640000e-06	-7.354717e-07	-5.767051e-10	-5.488906e+00	-3.821593e+01
2.650000e-06	-7.826095e-07	-6.623169e-10	-5.840701e+00	-4.389912e+01
2.660000e-06	-8.295936e-07	-7.464320e-10	-6.191349e+00	-4.952351e+01
2.670000e-06	-8.764473e-07	-8.285206e-10	-6.541023e+00	-5.507939e+01
2.680000e-06	-9.230543e-07	-9.107263e-10	-6.888857e+00	-6.055622e+01
2.690000e-06	-9.694379e-07	-9.933941e-10	-7.235022e+00	-6.594276e+01
2.700000e-06	-1.015603e-06	-1.073789e-09	-7.579555e+00	-7.122746e+01
2.710000e-06	-1.061392e-06	-1.151019e-09	-7.921283e+00	-7.639907e+01
2.720000e-06	-1.106692e-06	-1.228287e-09	-8.259363e+00	-8.144726e+01
2.730000e-06	-1.151557e-06	-1.303431e-09	-8.594199e+00	-8.636331e+01
2.740000e-06	-1.196087e-06	-1.375315e-09	-8.926528e+00	-9.114073e+01
2.750000e-06	-1.240375e-06	-1.445277e-09	-9.257057e+00	-9.577562e+01
2.760000e-06	-1.284447e-06	-1.514670e-09	-9.585971e+00	-1.002668e+02
2.770000e-06	-1.328166e-06	-1.581343e-09	-9.912248e+00	-1.046158e+02
2.780000e-06	-1.371374e-06	-1.644654e-09	-1.023472e+01	-1.088264e+02
2.790000e-06	-1.414041e-06	-1.705746e-09	-1.055315e+01	-1.129038e+02
2.800000e-06	-1.456274e-06	-1.765111e-09	-1.086833e+01	-1.168542e+02
2.810000e-06	-1.498030e-06	-1.823702e-09	-1.117997e+01	-1.206839e+02
2.820000e-06	-1.539210e-06	-1.879499e-09	-1.148729e+01	-1.243986e+02
2.830000e-06	-1.579835e-06	-1.933387e-09	-1.179049e+01	-1.280027e+02
2.840000e-06	-1.620027e-06	-1.985924e-09	-1.209044e+01	-1.314992e+02
2.850000e-06	-1.659844e-06	-2.036096e-09	-1.238760e+01	-1.348893e+02
2.860000e-06	-1.699025e-06	-2.085195e-09	-1.268001e+01	-1.381729e+02
2.870000e-06	-1.737319e-06	-2.133291e-09	-1.296580e+01	-1.413489e+02
2.880000e-06	-1.774691e-06	-2.178850e-09	-1.324472e+01	-1.444154e+02
2.890000e-06	-1.811350e-06	-2.223705e-09	-1.351831e+01	-1.473707e+02
2.900000e-06	-1.847536e-06	-2.269517e-09	-1.378837e+01	-1.502138e+02
2.910000e-06	-1.883159e-06	-2.312364e-09	-1.405422e+01	-1.529444e+02
2.920000e-06	-1.918109e-06	-2.350963e-09	-1.431506e+01	-1.555637e+02
2.930000e-06	-1.952406e-06	-2.389151e-09	-1.457102e+01	-1.580739e+02
2.940000e-06	-1.986044e-06	-2.429213e-09	-1.482207e+01	-1.604785e+02
