# Temperatura_=_20.0
# Concentracion g/m^3_=_9000.0
# C_Vs_to_Am_M_A/Vsm_=_65563218390.804596
# pendiente_HvsI_1/m_=_3716.3
# ordenada_HvsI_A/m_=_1297.0
# frecuencia_Hz_=_301080.5926926858

Tiempo_(s)	Campo_(V.s)	Magnetizacion_(V.s)	Campo_(kA/m)	Magnetizacion_(A/m)
0.000000e+00	-2.649376e-06	-2.930665e-10	-1.977576e+01	-2.271073e+01
1.000000e-08	-2.649200e-06	-2.927282e-10	-1.977444e+01	-2.271870e+01
2.000000e-08	-2.648029e-06	-2.933548e-10	-1.976570e+01	-2.265448e+01
3.000000e-08	-2.645608e-06	-2.915574e-10	-1.974763e+01	-2.252810e+01
4.000000e-08	-2.642194e-06	-2.893817e-10	-1.972215e+01	-2.236128e+01
5.000000e-08	-2.638030e-06	-2.887632e-10	-1.969107e+01	-2.218520e+01
6.000000e-08	-2.633068e-06	-2.862024e-10	-1.965403e+01	-2.203650e+01
7.000000e-08	-2.627289e-06	-2.777637e-10	-1.961090e+01	-2.195196e+01
8.000000e-08	-2.620627e-06	-2.765922e-10	-1.956117e+01	-2.196254e+01
9.000000e-08	-2.613028e-06	-3.019341e-10	-1.950444e+01	-2.208768e+01
1.000000e-07	-2.604276e-06	-3.104122e-10	-1.943912e+01	-2.233052e+01
1.100000e-07	-2.594186e-06	-2.628029e-10	-1.936380e+01	-2.267507e+01
1.200000e-07	-2.583068e-06	-2.241675e-10	-1.928082e+01	-2.308556e+01
1.300000e-07	-2.571136e-06	-2.880187e-10	-1.919175e+01	-2.350856e+01
1.400000e-07	-2.558301e-06	-3.302357e-10	-1.909595e+01	-2.387750e+01
1.500000e-07	-2.544672e-06	-2.490493e-10	-1.899421e+01	-2.411937e+01
1.600000e-07	-2.530078e-06	-2.232440e-10	-1.888528e+01	-2.416271e+01
1.700000e-07	-2.514015e-06	-2.508364e-10	-1.876539e+01	-2.394603e+01
1.800000e-07	-2.496861e-06	-2.360562e-10	-1.863734e+01	-2.342555e+01
1.900000e-07	-2.479226e-06	-2.422631e-10	-1.850571e+01	-2.258139e+01
2.000000e-07	-2.460869e-06	-2.847917e-10	-1.836869e+01	-2.142118e+01
2.100000e-07	-2.441513e-06	-1.923895e-10	-1.822421e+01	-1.998073e+01
2.200000e-07	-2.421533e-06	-1.253802e-10	-1.807507e+01	-1.832154e+01
2.300000e-07	-2.401015e-06	-2.506862e-10	-1.792192e+01	-1.652538e+01
2.400000e-07	-2.379469e-06	-2.973036e-10	-1.776109e+01	-1.468653e+01
2.500000e-07	-2.356810e-06	-1.848212e-10	-1.759195e+01	-1.290261e+01
2.600000e-07	-2.333451e-06	-1.708392e-10	-1.741760e+01	-1.126511e+01
2.700000e-07	-2.309593e-06	-2.818535e-10	-1.723951e+01	-9.850555e+00
2.800000e-07	-2.284897e-06	-2.832383e-10	-1.705518e+01	-8.713651e+00
2.900000e-07	-2.259001e-06	-2.179849e-10	-1.686188e+01	-7.882845e+00
3.000000e-07	-2.231984e-06	-1.978524e-10	-1.666022e+01	-7.358992e+00
3.100000e-07	-2.204258e-06	-2.339466e-10	-1.645326e+01	-7.117099e+00
3.200000e-07	-2.175923e-06	-2.273548e-10	-1.624176e+01	-7.110836e+00
3.300000e-07	-2.146858e-06	-2.261543e-10	-1.602481e+01	-7.279166e+00
3.400000e-07	-2.117090e-06	-2.534916e-10	-1.580261e+01	-7.554201e+00
3.500000e-07	-2.086526e-06	-2.082244e-10	-1.557447e+01	-7.869249e+00
3.600000e-07	-2.055224e-06	-1.530347e-10	-1.534082e+01	-8.166075e+00
3.700000e-07	-2.023503e-06	-2.447102e-10	-1.510405e+01	-8.400510e+00
3.800000e-07	-1.991157e-06	-2.970383e-10	-1.486261e+01	-8.545822e+00
3.900000e-07	-1.957612e-06	-1.601620e-10	-1.461222e+01	-8.593576e+00
4.000000e-07	-1.922916e-06	-1.417932e-10	-1.435324e+01	-8.552060e+00
4.100000e-07	-1.887603e-06	-2.501488e-10	-1.408965e+01	-8.442667e+00
4.200000e-07	-1.851844e-06	-2.370543e-10	-1.382274e+01	-8.294892e+00
4.300000e-07	-1.815503e-06	-1.459854e-10	-1.355147e+01	-8.140711e+00
4.400000e-07	-1.778583e-06	-1.731214e-10	-1.327589e+01	-8.009201e+00
4.500000e-07	-1.741078e-06	-2.164061e-10	-1.299594e+01	-7.922114e+00
4.600000e-07	-1.702874e-06	-2.009904e-10	-1.271077e+01	-7.890977e+00
4.700000e-07	-1.664017e-06	-1.835971e-10	-1.242074e+01	-7.916007e+00
4.800000e-07	-1.624712e-06	-1.842785e-10	-1.212735e+01	-7.986875e+00
4.900000e-07	-1.585091e-06	-1.823705e-10	-1.183161e+01	-8.085047e+00
5.000000e-07	-1.545091e-06	-1.702012e-10	-1.153304e+01	-8.187257e+00
5.100000e-07	-1.504473e-06	-1.835737e-10	-1.122985e+01	-8.269476e+00
5.200000e-07	-1.463004e-06	-1.813182e-10	-1.092031e+01	-8.310757e+00
5.300000e-07	-1.420581e-06	-1.622870e-10	-1.060366e+01	-8.296357e+00
5.400000e-07	-1.377452e-06	-1.493810e-10	-1.028173e+01	-8.219684e+00
5.500000e-07	-1.333951e-06	-1.782284e-10	-9.957025e+00	-8.082848e+00
5.600000e-07	-1.290156e-06	-1.865813e-10	-9.630121e+00	-7.895795e+00
5.700000e-07	-1.245999e-06	-1.492063e-10	-9.300521e+00	-7.674240e+00
5.800000e-07	-1.201431e-06	-1.427701e-10	-8.967854e+00	-7.436789e+00
5.900000e-07	-1.156448e-06	-1.737674e-10	-8.632081e+00	-7.201748e+00
6.000000e-07	-1.111024e-06	-1.718516e-10	-8.293024e+00	-6.984136e+00
6.100000e-07	-1.065170e-06	-1.336819e-10	-7.950759e+00	-6.793387e+00
6.200000e-07	-1.018901e-06	-1.406129e-10	-7.605394e+00	-6.632056e+00
6.300000e-07	-9.721675e-07	-1.552755e-10	-7.256558e+00	-6.495711e+00
6.400000e-07	-9.250493e-07	-1.386795e-10	-6.904853e+00	-6.373966e+00
6.500000e-07	-8.777399e-07	-1.226922e-10	-6.551722e+00	-6.252452e+00
6.600000e-07	-8.302767e-07	-1.308752e-10	-6.197441e+00	-6.115352e+00
6.700000e-07	-7.825953e-07	-1.294918e-10	-5.841533e+00	-5.948083e+00
6.800000e-07	-7.347115e-07	-1.132100e-10	-5.484113e+00	-5.739666e+00
6.900000e-07	-6.865561e-07	-1.133738e-10	-5.124666e+00	-5.484414e+00
7.000000e-07	-6.379867e-07	-1.122060e-10	-4.762130e+00	-5.182681e+00
7.100000e-07	-5.889791e-07	-1.013816e-10	-4.396322e+00	-4.840566e+00
7.200000e-07	-5.396044e-07	-9.394219e-11	-4.027773e+00	-4.468676e+00
7.300000e-07	-4.899361e-07	-9.869008e-11	-3.657034e+00	-4.080143e+00
7.400000e-07	-4.399164e-07	-8.892061e-11	-3.283672e+00	-3.688274e+00
7.500000e-07	-3.895589e-07	-7.241437e-11	-2.907788e+00	-3.304210e+00
7.600000e-07	-3.389579e-07	-7.360796e-11	-2.530086e+00	-2.934995e+00
7.700000e-07	-2.881594e-07	-7.525348e-11	-2.150910e+00	-2.582365e+00
7.800000e-07	-2.372752e-07	-5.726159e-11	-1.771095e+00	-2.242446e+00
7.900000e-07	-1.863120e-07	-3.956062e-11	-1.390690e+00	-1.906402e+00
8.000000e-07	-1.352887e-07	-4.565134e-11	-1.009836e+00	-1.561914e+00
8.100000e-07	-8.420590e-08	-4.462728e-11	-6.285388e-01	-1.195243e+00
8.200000e-07	-3.306591e-08	-2.527423e-11	-2.468141e-01	-7.935289e-01
8.300000e-07	1.807347e-08	-9.973242e-12	1.349059e-01	-3.469604e-01
8.400000e-07	6.923099e-08	-1.142058e-11	5.167615e-01	1.495479e-01
8.500000e-07	1.203213e-07	-9.205320e-12	8.981151e-01	6.954234e-01
8.600000e-07	1.713057e-07	4.492798e-12	1.278679e+00	1.284397e+00
8.700000e-07	2.222490e-07	1.581255e-11	1.658935e+00	1.905353e+00
8.800000e-07	2.731138e-07	2.429020e-11	2.038606e+00	2.543922e+00
8.900000e-07	3.238377e-07	3.194661e-11	2.417225e+00	3.184549e+00
9.000000e-07	3.744021e-07	4.027227e-11	2.794653e+00	3.812712e+00
9.100000e-07	4.247128e-07	4.999337e-11	3.170187e+00	4.416927e+00
9.200000e-07	4.746825e-07	6.711715e-11	3.543176e+00	4.990232e+00
9.300000e-07	5.243521e-07	8.005689e-11	3.913926e+00	5.530926e+00
9.400000e-07	5.736764e-07	8.345753e-11	4.282098e+00	6.042462e+00
9.500000e-07	6.225382e-07	8.927827e-11	4.646817e+00	6.532531e+00
9.600000e-07	6.709992e-07	1.041885e-10	5.008545e+00	7.011497e+00
9.700000e-07	7.191498e-07	1.169071e-10	5.367956e+00	7.490468e+00
9.800000e-07	7.670240e-07	1.195225e-10	5.725304e+00	7.979297e+00
9.900000e-07	8.147050e-07	1.257484e-10	6.081209e+00	8.484865e+00
1.000000e-06	8.622424e-07	1.386460e-10	6.436043e+00	9.009890e+00
1.010000e-06	9.096183e-07	1.504175e-10	6.789672e+00	9.552468e+00
1.020000e-06	9.566903e-07	1.560311e-10	7.141031e+00	1.010638e+01
1.030000e-06	1.003331e-06	1.634131e-10	7.489170e+00	1.066211e+01
1.040000e-06	1.049560e-06	1.734684e-10	7.834242e+00	1.120837e+01
1.050000e-06	1.095412e-06	1.831636e-10	8.176491e+00	1.173392e+01
1.060000e-06	1.140907e-06	1.932937e-10	8.516082e+00	1.222927e+01
1.070000e-06	1.185975e-06	2.011011e-10	8.852485e+00	1.268810e+01
1.080000e-06	1.230596e-06	2.064129e-10	9.185548e+00	1.310811e+01
1.090000e-06	1.274808e-06	2.124871e-10	9.515564e+00	1.349116e+01
1.100000e-06	1.318650e-06	2.246992e-10	9.842808e+00	1.384273e+01
1.110000e-06	1.362209e-06	2.330728e-10	1.016795e+01	1.417078e+01
1.120000e-06	1.405515e-06	2.346482e-10	1.049120e+01	1.448428e+01
1.130000e-06	1.448410e-06	2.381329e-10	1.081138e+01	1.479154e+01
1.140000e-06	1.490495e-06	2.475873e-10	1.112551e+01	1.509880e+01
1.150000e-06	1.531607e-06	2.552460e-10	1.143239e+01	1.540922e+01
1.160000e-06	1.571938e-06	2.576327e-10	1.173343e+01	1.572245e+01
1.170000e-06	1.611733e-06	2.624687e-10	1.203047e+01	1.603487e+01
1.180000e-06	1.651135e-06	2.675749e-10	1.232458e+01	1.634048e+01
1.190000e-06	1.690108e-06	2.723734e-10	1.261549e+01	1.663217e+01
1.200000e-06	1.728563e-06	2.762141e-10	1.290253e+01	1.690328e+01
1.210000e-06	1.766405e-06	2.800264e-10	1.318500e+01	1.714905e+01
1.220000e-06	1.803607e-06	2.826261e-10	1.346268e+01	1.736774e+01
1.230000e-06	1.840116e-06	2.858949e-10	1.373519e+01	1.756125e+01
1.240000e-06	1.876020e-06	2.898044e-10	1.400319e+01	1.773498e+01
1.250000e-06	1.911522e-06	2.926967e-10	1.426819e+01	1.789708e+01
1.260000e-06	1.946539e-06	2.954306e-10	1.452956e+01	1.805719e+01
1.270000e-06	1.980752e-06	2.972897e-10	1.478494e+01	1.822472e+01
1.280000e-06	2.013850e-06	3.006219e-10	1.503200e+01	1.840720e+01
1.290000e-06	2.045973e-06	3.041502e-10	1.527177e+01	1.860883e+01
1.300000e-06	2.077461e-06	3.071359e-10	1.550681e+01	1.882950e+01
1.310000e-06	2.108405e-06	3.108143e-10	1.573779e+01	1.906462e+01
1.320000e-06	2.138744e-06	3.157843e-10	1.596424e+01	1.930559e+01
1.330000e-06	2.168349e-06	3.190433e-10	1.618523e+01	1.954113e+01
1.340000e-06	2.197152e-06	3.220851e-10	1.640022e+01	1.975896e+01
1.350000e-06	2.225254e-06	3.268940e-10	1.660998e+01	1.994792e+01
1.360000e-06	2.252805e-06	3.305713e-10	1.681563e+01	2.009984e+01
1.370000e-06	2.279680e-06	3.317291e-10	1.701623e+01	2.021109e+01
1.380000e-06	2.305496e-06	3.335086e-10	1.720894e+01	2.028342e+01
1.390000e-06	2.330198e-06	3.367368e-10	1.739331e+01	2.032394e+01
1.400000e-06	2.353994e-06	3.385254e-10	1.757093e+01	2.034418e+01
1.410000e-06	2.376966e-06	3.396977e-10	1.774240e+01	2.035849e+01
1.420000e-06	2.399152e-06	3.421705e-10	1.790801e+01	2.038179e+01
1.430000e-06	2.420587e-06	3.448300e-10	1.806801e+01	2.042726e+01
1.440000e-06	2.441203e-06	3.475988e-10	1.822189e+01	2.050421e+01
1.450000e-06	2.461069e-06	3.492965e-10	1.837018e+01	2.061646e+01
1.460000e-06	2.480313e-06	3.495563e-10	1.851382e+01	2.076167e+01
1.470000e-06	2.498675e-06	3.506537e-10	1.865088e+01	2.093165e+01
1.480000e-06	2.516015e-06	3.520009e-10	1.878031e+01	2.111354e+01
1.490000e-06	2.532504e-06	3.533967e-10	1.890339e+01	2.129201e+01
1.500000e-06	2.548072e-06	3.549805e-10	1.901960e+01	2.145172e+01
1.510000e-06	2.562581e-06	3.570704e-10	1.912790e+01	2.158001e+01
1.520000e-06	2.576135e-06	3.597426e-10	1.922906e+01	2.166915e+01
1.530000e-06	2.588787e-06	3.616952e-10	1.932350e+01	2.171786e+01
1.540000e-06	2.600521e-06	3.626419e-10	1.941109e+01	2.173174e+01
1.550000e-06	2.611175e-06	3.643356e-10	1.949062e+01	2.172260e+01
1.560000e-06	2.620507e-06	3.677579e-10	1.956027e+01	2.170659e+01
1.570000e-06	2.628704e-06	3.703596e-10	1.962146e+01	2.170156e+01
1.580000e-06	2.636096e-06	3.713213e-10	1.967664e+01	2.172397e+01
1.590000e-06	2.642661e-06	3.729583e-10	1.972564e+01	2.178579e+01
1.600000e-06	2.648299e-06	3.756900e-10	1.976772e+01	2.189210e+01
1.610000e-06	2.653022e-06	3.773504e-10	1.980298e+01	2.203964e+01
1.620000e-06	2.656917e-06	3.774999e-10	1.983205e+01	2.221674e+01
1.630000e-06	2.660077e-06	3.793258e-10	1.985564e+01	2.240466e+01
1.640000e-06	2.662245e-06	3.832022e-10	1.987182e+01	2.258031e+01
1.650000e-06	2.663140e-06	3.861638e-10	1.987850e+01	2.271988e+01
1.660000e-06	2.663018e-06	3.870480e-10	1.987759e+01	2.280295e+01
1.670000e-06	2.662150e-06	3.872678e-10	1.987111e+01	2.281639e+01
1.680000e-06	2.660438e-06	3.873529e-10	1.985833e+01	2.275739e+01
1.690000e-06	2.657898e-06	3.896535e-10	1.983937e+01	2.263512e+01
1.700000e-06	2.654576e-06	3.922862e-10	1.981457e+01	2.247051e+01
1.710000e-06	2.650493e-06	3.939233e-10	1.978410e+01	2.229418e+01
1.720000e-06	2.645738e-06	4.006539e-10	1.974860e+01	2.214253e+01
1.730000e-06	2.640094e-06	4.133163e-10	1.970648e+01	2.205253e+01
1.740000e-06	2.633190e-06	4.083742e-10	1.965494e+01	2.205577e+01
1.750000e-06	2.624986e-06	3.804114e-10	1.959371e+01	2.217266e+01
1.760000e-06	2.615549e-06	3.967135e-10	1.952326e+01	2.240765e+01
1.770000e-06	2.605074e-06	4.509071e-10	1.944507e+01	2.274615e+01
1.780000e-06	2.594245e-06	4.249658e-10	1.936424e+01	2.315377e+01
1.790000e-06	2.583161e-06	3.754206e-10	1.928151e+01	2.357822e+01
1.800000e-06	2.570764e-06	4.006469e-10	1.918897e+01	2.395368e+01
1.810000e-06	2.556520e-06	4.904735e-10	1.908265e+01	2.420732e+01
1.820000e-06	2.541426e-06	4.564311e-10	1.896999e+01	2.426731e+01
1.830000e-06	2.525957e-06	4.588960e-10	1.885452e+01	2.407115e+01
1.840000e-06	2.509307e-06	5.125071e-10	1.873024e+01	2.357361e+01
1.850000e-06	2.491501e-06	4.401554e-10	1.859733e+01	2.275291e+01
1.860000e-06	2.473234e-06	4.179248e-10	1.846098e+01	2.161468e+01
1.870000e-06	2.454278e-06	4.860409e-10	1.831949e+01	2.019274e+01
1.880000e-06	2.434358e-06	3.857792e-10	1.817080e+01	1.854693e+01
1.890000e-06	2.413740e-06	1.552502e-10	1.801690e+01	1.675778e+01
1.900000e-06	2.392252e-06	1.935718e-10	1.785650e+01	1.491898e+01
1.910000e-06	2.369458e-06	2.503621e-10	1.768637e+01	1.312824e+01
1.920000e-06	2.345557e-06	5.904663e-11	1.750796e+01	1.147777e+01
1.930000e-06	2.320889e-06	-5.274206e-11	1.732383e+01	1.004545e+01
1.940000e-06	2.295571e-06	4.155050e-11	1.713485e+01	8.887708e+00
1.950000e-06	2.269508e-06	4.041588e-11	1.694031e+01	8.034944e+00
1.960000e-06	2.242456e-06	-7.087544e-12	1.673839e+01	7.489968e+00
1.970000e-06	2.214678e-06	2.701180e-11	1.653104e+01	7.229512e+00
1.980000e-06	2.186388e-06	3.590345e-11	1.631987e+01	7.208570e+00
1.990000e-06	2.157210e-06	-1.486831e-11	1.610208e+01	7.366906e+00
2.000000e-06	2.127005e-06	-7.502984e-12	1.587662e+01	7.636848e+00
2.010000e-06	2.096141e-06	8.492568e-11	1.564624e+01	7.951366e+00
2.020000e-06	2.064508e-06	6.291687e-11	1.541013e+01	8.251409e+00
2.030000e-06	2.032048e-06	-5.828915e-11	1.516783e+01	8.491664e+00
2.040000e-06	1.999089e-06	8.664000e-12	1.492181e+01	8.644095e+00
2.050000e-06	1.965460e-06	1.361529e-10	1.467080e+01	8.698983e+00
2.060000e-06	1.930922e-06	3.758970e-11	1.441299e+01	8.663522e+00
2.070000e-06	1.895719e-06	-1.729761e-11	1.415023e+01	8.558323e+00
2.080000e-06	1.860051e-06	7.586131e-11	1.388399e+01	8.412486e+00
2.090000e-06	1.823847e-06	9.572840e-11	1.361376e+01	8.257995e+00
2.100000e-06	1.787021e-06	5.043757e-11	1.333887e+01	8.124296e+00
2.110000e-06	1.749449e-06	4.207938e-11	1.305842e+01	8.033781e+00
2.120000e-06	1.711039e-06	6.719295e-11	1.277173e+01	7.998765e+00
2.130000e-06	1.671735e-06	7.461157e-11	1.247834e+01	8.020271e+00
2.140000e-06	1.631743e-06	5.834481e-11	1.217983e+01	8.088659e+00
2.150000e-06	1.591386e-06	7.101279e-11	1.187860e+01	8.185878e+00
2.160000e-06	1.550641e-06	9.649213e-11	1.157446e+01	8.288870e+00
2.170000e-06	1.509234e-06	6.233848e-11	1.126539e+01	8.373527e+00
2.180000e-06	1.467250e-06	5.298963e-11	1.095201e+01	8.418568e+00
2.190000e-06	1.424878e-06	9.775115e-11	1.063573e+01	8.408726e+00
2.200000e-06	1.381965e-06	9.473094e-11	1.031541e+01	8.336792e+00
2.210000e-06	1.338463e-06	5.159178e-11	9.990701e+00	8.204266e+00
2.220000e-06	1.294589e-06	5.730961e-11	9.663211e+00	8.020592e+00
2.230000e-06	1.250502e-06	1.003737e-10	9.334134e+00	7.801160e+00
2.240000e-06	1.206180e-06	7.842844e-11	9.003301e+00	7.564475e+00
2.250000e-06	1.161599e-06	4.800273e-11	8.670533e+00	7.328969e+00
2.260000e-06	1.116592e-06	7.727379e-11	8.334588e+00	7.109982e+00
2.270000e-06	1.070958e-06	8.752561e-11	7.993963e+00	6.917404e+00
2.280000e-06	1.024800e-06	5.583682e-11	7.649425e+00	6.754299e+00
2.290000e-06	9.783292e-07	5.579533e-11	7.302551e+00	6.616711e+00
2.300000e-06	9.316074e-07	7.801521e-11	6.953805e+00	6.494626e+00
2.310000e-06	8.845938e-07	6.529169e-11	6.602881e+00	6.373877e+00
2.320000e-06	8.373602e-07	4.788390e-11	6.250315e+00	6.238663e+00
2.330000e-06	7.899372e-07	5.846503e-11	5.896335e+00	6.074226e+00
2.340000e-06	7.421846e-07	6.796187e-11	5.539895e+00	5.869266e+00
2.350000e-06	6.940894e-07	5.169447e-11	5.180898e+00	5.617680e+00
2.360000e-06	6.457838e-07	4.835286e-11	4.820330e+00	5.319386e+00
2.370000e-06	5.971609e-07	5.524341e-11	4.457393e+00	4.980107e+00
2.380000e-06	5.481226e-07	4.315318e-11	4.091356e+00	4.610185e+00
2.390000e-06	4.988710e-07	3.309485e-11	3.723727e+00	4.222647e+00
2.400000e-06	4.494392e-07	3.874150e-11	3.354753e+00	3.830868e+00
2.410000e-06	3.997767e-07	3.851271e-11	2.984057e+00	3.446214e+00
2.420000e-06	3.499468e-07	2.074604e-11	2.612111e+00	3.076073e+00
2.430000e-06	3.000289e-07	1.859140e-11	2.239508e+00	2.722582e+00
2.440000e-06	2.500267e-07	3.114097e-11	1.866277e+00	2.382255e+00
2.450000e-06	1.998829e-07	2.433233e-11	1.491987e+00	2.046572e+00
2.460000e-06	1.496278e-07	2.427933e-12	1.116868e+00	1.703398e+00
2.470000e-06	9.932925e-08	-8.885396e-13	7.414242e-01	1.339020e+00
2.480000e-06	4.907206e-08	6.977351e-12	3.662890e-01	9.404416e-01
2.490000e-06	-1.148226e-09	-4.427905e-12	-8.570716e-03	4.975683e-01
2.500000e-06	-5.135315e-08	-2.319832e-11	-3.833157e-01	4.936804e-03
2.510000e-06	-1.015445e-07	-2.808754e-11	-7.579594e-01	-5.372965e-01
2.520000e-06	-1.517465e-07	-2.795185e-11	-1.132683e+00	-1.123251e+00
2.530000e-06	-2.018876e-07	-3.803696e-11	-1.506951e+00	-1.742113e+00
2.540000e-06	-2.519000e-07	-4.638353e-11	-1.880260e+00	-2.379679e+00
2.550000e-06	-3.018328e-07	-5.210095e-11	-2.252973e+00	-3.020405e+00
2.560000e-06	-3.516717e-07	-6.276440e-11	-2.624986e+00	-3.649626e+00
2.570000e-06	-4.013551e-07	-6.950452e-11	-2.995839e+00	-4.255583e+00
2.580000e-06	-4.508307e-07	-7.182271e-11	-3.365140e+00	-4.830956e+00
2.590000e-06	-5.000239e-07	-8.267614e-11	-3.732333e+00	-5.373664e+00
2.600000e-06	-5.489378e-07	-1.003158e-10	-4.097441e+00	-5.886811e+00
2.610000e-06	-5.975144e-07	-1.053616e-10	-4.460032e+00	-6.377831e+00
2.620000e-06	-6.456492e-07	-1.038493e-10	-4.819325e+00	-6.856960e+00
2.630000e-06	-6.934075e-07	-1.132225e-10	-5.175808e+00	-7.335318e+00
2.640000e-06	-7.408990e-07	-1.278228e-10	-5.530299e+00	-7.822913e+00
2.650000e-06	-7.881349e-07	-1.320647e-10	-5.882882e+00	-8.326881e+00
2.660000e-06	-8.351520e-07	-1.313491e-10	-6.233833e+00	-8.850266e+00
2.670000e-06	-8.819476e-07	-1.383787e-10	-6.583129e+00	-9.391490e+00
2.680000e-06	-9.285040e-07	-1.486239e-10	-6.930640e+00	-9.944617e+00
2.690000e-06	-9.748396e-07	-1.556023e-10	-7.276504e+00	-1.050032e+01
2.700000e-06	-1.020915e-06	-1.606764e-10	-7.620421e+00	-1.104738e+01
2.710000e-06	-1.066649e-06	-1.665002e-10	-7.961794e+00	-1.157450e+01
2.720000e-06	-1.111946e-06	-1.717510e-10	-8.299911e+00	-1.207199e+01
2.730000e-06	-1.156772e-06	-1.789870e-10	-8.634504e+00	-1.253330e+01
2.740000e-06	-1.201229e-06	-1.863697e-10	-8.966347e+00	-1.295581e+01
2.750000e-06	-1.245442e-06	-1.901862e-10	-9.296362e+00	-1.334110e+01
2.760000e-06	-1.289429e-06	-1.913871e-10	-9.624692e+00	-1.369441e+01
2.770000e-06	-1.333078e-06	-1.963892e-10	-9.950508e+00	-1.402360e+01
2.780000e-06	-1.376279e-06	-2.050628e-10	-1.027297e+01	-1.433758e+01
2.790000e-06	-1.418966e-06	-2.078420e-10	-1.059160e+01	-1.464478e+01
2.800000e-06	-1.461109e-06	-2.087443e-10	-1.090617e+01	-1.495164e+01
2.810000e-06	-1.502745e-06	-2.130461e-10	-1.121695e+01	-1.526154e+01
2.820000e-06	-1.543830e-06	-2.176142e-10	-1.152362e+01	-1.557440e+01
2.830000e-06	-1.584385e-06	-2.194416e-10	-1.182634e+01	-1.588680e+01
2.840000e-06	-1.624569e-06	-2.214562e-10	-1.212629e+01	-1.619287e+01
2.850000e-06	-1.664370e-06	-2.239009e-10	-1.242337e+01	-1.648553e+01
2.860000e-06	-1.703621e-06	-2.253651e-10	-1.271635e+01	-1.675804e+01
2.870000e-06	-1.742030e-06	-2.279818e-10	-1.300305e+01	-1.700545e+01
2.880000e-06	-1.779429e-06	-2.325968e-10	-1.328221e+01	-1.722581e+01
2.890000e-06	-1.816064e-06	-2.379452e-10	-1.355566e+01	-1.742071e+01
2.900000e-06	-1.852227e-06	-2.412464e-10	-1.382560e+01	-1.759535e+01
2.910000e-06	-1.887812e-06	-2.434942e-10	-1.409121e+01	-1.775771e+01
2.920000e-06	-1.922678e-06	-2.474028e-10	-1.435147e+01	-1.791738e+01
2.930000e-06	-1.956894e-06	-2.518535e-10	-1.460686e+01	-1.808383e+01
2.940000e-06	-1.990460e-06	-2.539607e-10	-1.485740e+01	-1.826481e+01
