# Temperatura_=_20.0
# Concentracion g/m^3_=_9000.0
# C_Vs_to_Am_M_A/Vsm_=_65563218390.804596
# pendiente_HvsI_1/m_=_3716.3
# ordenada_HvsI_A/m_=_1297.0
# frecuencia_Hz_=_301084.452878261

Tiempo_(s)	Campo_(V.s)	Magnetizacion_(V.s)	Campo_(kA/m)	Magnetizacion_(A/m)
0.000000e+00	-2.629787e-06	-2.963708e-09	-1.977050e+01	-1.951529e+02
1.000000e-08	-2.629630e-06	-2.967985e-09	-1.976932e+01	-1.952492e+02
2.000000e-08	-2.628490e-06	-2.968249e-09	-1.976075e+01	-1.953201e+02
3.000000e-08	-2.626158e-06	-2.968564e-09	-1.974322e+01	-1.953678e+02
4.000000e-08	-2.622842e-06	-2.970038e-09	-1.971829e+01	-1.953916e+02
5.000000e-08	-2.618729e-06	-2.968607e-09	-1.968736e+01	-1.953889e+02
6.000000e-08	-2.613821e-06	-2.961843e-09	-1.965047e+01	-1.953543e+02
7.000000e-08	-2.608064e-06	-2.949873e-09	-1.960719e+01	-1.952810e+02
8.000000e-08	-2.601315e-06	-2.975566e-09	-1.955645e+01	-1.951613e+02
9.000000e-08	-2.593606e-06	-3.032307e-09	-1.949849e+01	-1.949878e+02
1.000000e-07	-2.584778e-06	-3.023523e-09	-1.943212e+01	-1.947545e+02
1.100000e-07	-2.574700e-06	-2.874549e-09	-1.935636e+01	-1.944578e+02
1.200000e-07	-2.563678e-06	-2.859952e-09	-1.927350e+01	-1.940969e+02
1.300000e-07	-2.551817e-06	-2.999085e-09	-1.918433e+01	-1.936749e+02
1.400000e-07	-2.539050e-06	-3.046459e-09	-1.908835e+01	-1.931979e+02
1.500000e-07	-2.525581e-06	-2.908885e-09	-1.898709e+01	-1.926750e+02
1.600000e-07	-2.511114e-06	-2.909852e-09	-1.887833e+01	-1.921171e+02
1.700000e-07	-2.495105e-06	-2.934591e-09	-1.875797e+01	-1.915361e+02
1.800000e-07	-2.478037e-06	-2.899676e-09	-1.862966e+01	-1.909431e+02
1.900000e-07	-2.460531e-06	-3.027390e-09	-1.849804e+01	-1.903473e+02
2.000000e-07	-2.442238e-06	-2.951686e-09	-1.836052e+01	-1.897550e+02
2.100000e-07	-2.422913e-06	-2.736561e-09	-1.821524e+01	-1.891685e+02
2.200000e-07	-2.403044e-06	-2.845378e-09	-1.806587e+01	-1.885860e+02
2.300000e-07	-2.382615e-06	-3.083152e-09	-1.791228e+01	-1.880016e+02
2.400000e-07	-2.361068e-06	-2.871346e-09	-1.775029e+01	-1.874061e+02
2.500000e-07	-2.338480e-06	-2.716200e-09	-1.758048e+01	-1.867877e+02
2.600000e-07	-2.315293e-06	-2.892688e-09	-1.740616e+01	-1.861335e+02
2.700000e-07	-2.291581e-06	-2.958833e-09	-1.722789e+01	-1.854309e+02
2.800000e-07	-2.267126e-06	-2.811249e-09	-1.704405e+01	-1.846688e+02
2.900000e-07	-2.241529e-06	-2.776832e-09	-1.685161e+01	-1.838386e+02
3.000000e-07	-2.214728e-06	-2.819661e-09	-1.665012e+01	-1.829354e+02
3.100000e-07	-2.187140e-06	-2.786266e-09	-1.644272e+01	-1.819579e+02
3.200000e-07	-2.158956e-06	-2.775288e-09	-1.623083e+01	-1.809084e+02
3.300000e-07	-2.130093e-06	-2.769562e-09	-1.601385e+01	-1.797924e+02
3.400000e-07	-2.100496e-06	-2.769461e-09	-1.579133e+01	-1.786174e+02
3.500000e-07	-2.070025e-06	-2.662824e-09	-1.556226e+01	-1.773921e+02
3.600000e-07	-2.038834e-06	-2.679716e-09	-1.532777e+01	-1.761250e+02
3.700000e-07	-2.007267e-06	-2.785632e-09	-1.509045e+01	-1.748233e+02
3.800000e-07	-1.975094e-06	-2.663914e-09	-1.484857e+01	-1.734924e+02
3.900000e-07	-1.941852e-06	-2.514670e-09	-1.459867e+01	-1.721348e+02
4.000000e-07	-1.907618e-06	-2.673445e-09	-1.434130e+01	-1.707503e+02
4.100000e-07	-1.872707e-06	-2.711468e-09	-1.407884e+01	-1.693360e+02
4.200000e-07	-1.837186e-06	-2.491972e-09	-1.381180e+01	-1.678870e+02
4.300000e-07	-1.801093e-06	-2.515396e-09	-1.354045e+01	-1.663970e+02
4.400000e-07	-1.764481e-06	-2.611224e-09	-1.326521e+01	-1.648591e+02
4.500000e-07	-1.727218e-06	-2.522938e-09	-1.298507e+01	-1.632667e+02
4.600000e-07	-1.689262e-06	-2.428975e-09	-1.269971e+01	-1.616144e+02
4.700000e-07	-1.650674e-06	-2.471195e-09	-1.240962e+01	-1.598981e+02
4.800000e-07	-1.611557e-06	-2.444301e-09	-1.211554e+01	-1.581158e+02
4.900000e-07	-1.572097e-06	-2.384647e-09	-1.181888e+01	-1.562668e+02
5.000000e-07	-1.532358e-06	-2.373644e-09	-1.152013e+01	-1.543523e+02
5.100000e-07	-1.492134e-06	-2.347185e-09	-1.121773e+01	-1.523741e+02
5.200000e-07	-1.451059e-06	-2.292507e-09	-1.090893e+01	-1.503346e+02
5.300000e-07	-1.409001e-06	-2.259084e-09	-1.059274e+01	-1.482357e+02
5.400000e-07	-1.366171e-06	-2.273429e-09	-1.027075e+01	-1.460786e+02
5.500000e-07	-1.322882e-06	-2.219398e-09	-9.945307e+00	-1.438633e+02
5.600000e-07	-1.279200e-06	-2.148781e-09	-9.616912e+00	-1.415886e+02
5.700000e-07	-1.235178e-06	-2.127424e-09	-9.285959e+00	-1.392516e+02
5.800000e-07	-1.190836e-06	-2.137378e-09	-8.952599e+00	-1.368486e+02
5.900000e-07	-1.146090e-06	-2.075166e-09	-8.616200e+00	-1.343752e+02
6.000000e-07	-1.100899e-06	-1.995353e-09	-8.276457e+00	-1.318264e+02
6.100000e-07	-1.055313e-06	-1.983693e-09	-7.933745e+00	-1.291976e+02
6.200000e-07	-1.009332e-06	-1.966799e-09	-7.588063e+00	-1.264849e+02
6.300000e-07	-9.629186e-07	-1.904339e-09	-7.239134e+00	-1.236849e+02
6.400000e-07	-9.161292e-07	-1.838206e-09	-6.887376e+00	-1.207953e+02
6.500000e-07	-8.690931e-07	-1.814497e-09	-6.533763e+00	-1.178146e+02
6.600000e-07	-8.219017e-07	-1.770649e-09	-6.178982e+00	-1.147418e+02
6.700000e-07	-7.744993e-07	-1.715120e-09	-5.822615e+00	-1.115765e+02
6.800000e-07	-7.268906e-07	-1.669239e-09	-5.464697e+00	-1.083179e+02
6.900000e-07	-6.790730e-07	-1.617884e-09	-5.105209e+00	-1.049649e+02
7.000000e-07	-6.310179e-07	-1.553408e-09	-4.743935e+00	-1.015156e+02
7.100000e-07	-5.826274e-07	-1.503799e-09	-4.380140e+00	-9.796710e+01
7.200000e-07	-5.338527e-07	-1.466173e-09	-4.013456e+00	-9.431573e+01
7.300000e-07	-4.847251e-07	-1.392482e-09	-3.644119e+00	-9.055686e+01
7.400000e-07	-4.352715e-07	-1.320593e-09	-3.272332e+00	-8.668533e+01
7.500000e-07	-3.855422e-07	-1.273341e-09	-2.898471e+00	-8.269578e+01
7.600000e-07	-3.355289e-07	-1.223746e-09	-2.522475e+00	-7.858311e+01
7.700000e-07	-2.853461e-07	-1.142606e-09	-2.145206e+00	-7.434288e+01
7.800000e-07	-2.351191e-07	-1.068681e-09	-1.767604e+00	-6.997171e+01
7.900000e-07	-1.847712e-07	-1.013180e-09	-1.389093e+00	-6.546763e+01
8.000000e-07	-1.342534e-07	-9.433930e-10	-1.009304e+00	-6.083027e+01
8.100000e-07	-8.366366e-08	-8.623740e-10	-6.289758e-01	-5.606096e+01
8.200000e-07	-3.296246e-08	-7.840974e-10	-2.478088e-01	-5.116276e+01
8.300000e-07	1.781254e-08	-7.145877e-10	1.339130e-01	-4.614036e+01
8.400000e-07	6.849964e-08	-6.359209e-10	5.149741e-01	-4.099998e+01
8.500000e-07	1.190449e-07	-5.568248e-10	8.949688e-01	-3.574918e+01
8.600000e-07	1.694418e-07	-4.761536e-10	1.273848e+00	-3.039677e+01
8.700000e-07	2.197430e-07	-3.911402e-10	1.652008e+00	-2.495260e+01
8.800000e-07	2.700638e-07	-3.042367e-10	2.030315e+00	-1.942755e+01
8.900000e-07	3.203317e-07	-2.204324e-10	2.408225e+00	-1.383338e+01
9.000000e-07	3.702534e-07	-1.360138e-10	2.783531e+00	-8.182701e+00
9.100000e-07	4.197589e-07	-4.150859e-11	3.155709e+00	-2.488855e+00
9.200000e-07	4.689229e-07	4.740763e-11	3.525319e+00	3.234157e+00
9.300000e-07	5.178943e-07	1.308833e-10	3.893482e+00	8.971852e+00
9.400000e-07	5.666561e-07	2.162156e-10	4.260069e+00	1.470946e+01
9.500000e-07	6.150026e-07	3.081168e-10	4.623534e+00	2.043220e+01
9.600000e-07	6.630115e-07	3.939863e-10	4.984460e+00	2.612556e+01
9.700000e-07	7.108086e-07	4.762577e-10	5.343794e+00	3.177559e+01
9.800000e-07	7.584474e-07	5.643491e-10	5.701939e+00	3.736924e+01
9.900000e-07	8.059804e-07	6.541416e-10	6.059287e+00	4.289459e+01
1.000000e-06	8.533772e-07	7.382855e-10	6.415612e+00	4.834104e+01
1.010000e-06	9.005182e-07	8.177136e-10	6.770013e+00	5.369943e+01
1.020000e-06	9.473188e-07	9.025318e-10	7.121857e+00	5.896208e+01
1.030000e-06	9.937197e-07	9.828262e-10	7.470694e+00	6.412269e+01
1.040000e-06	1.039676e-06	1.059203e-09	7.816192e+00	6.917628e+01
1.050000e-06	1.085295e-06	1.135406e-09	8.159145e+00	7.411897e+01
1.060000e-06	1.130576e-06	1.211630e-09	8.499566e+00	7.894784e+01
1.070000e-06	1.175408e-06	1.282731e-09	8.836613e+00	8.366077e+01
1.080000e-06	1.219768e-06	1.350141e-09	9.170102e+00	8.825628e+01
1.090000e-06	1.263747e-06	1.418989e-09	9.500734e+00	9.273349e+01
1.100000e-06	1.307480e-06	1.485567e-09	9.829515e+00	9.709204e+01
1.110000e-06	1.351004e-06	1.552240e-09	1.015673e+01	1.013321e+02
1.120000e-06	1.394209e-06	1.616367e-09	1.048153e+01	1.054542e+02
1.130000e-06	1.436843e-06	1.677898e-09	1.080206e+01	1.094597e+02
1.140000e-06	1.478557e-06	1.735701e-09	1.111566e+01	1.133500e+02
1.150000e-06	1.519285e-06	1.793899e-09	1.142184e+01	1.171272e+02
1.160000e-06	1.559312e-06	1.852584e-09	1.172276e+01	1.207932e+02
1.170000e-06	1.598955e-06	1.906450e-09	1.202080e+01	1.243503e+02
1.180000e-06	1.638264e-06	1.956778e-09	1.231632e+01	1.278001e+02
1.190000e-06	1.677074e-06	2.006514e-09	1.260809e+01	1.311440e+02
1.200000e-06	1.715306e-06	2.058259e-09	1.289551e+01	1.343827e+02
1.210000e-06	1.752938e-06	2.105024e-09	1.317843e+01	1.375161e+02
1.220000e-06	1.789903e-06	2.150031e-09	1.345633e+01	1.405433e+02
1.230000e-06	1.826176e-06	2.195502e-09	1.372903e+01	1.434631e+02
1.240000e-06	1.861983e-06	2.238442e-09	1.399822e+01	1.462736e+02
1.250000e-06	1.897454e-06	2.276809e-09	1.426489e+01	1.489731e+02
1.260000e-06	1.932304e-06	2.315237e-09	1.452688e+01	1.515604e+02
1.270000e-06	1.966183e-06	2.352702e-09	1.478158e+01	1.540349e+02
1.280000e-06	1.999005e-06	2.385529e-09	1.502834e+01	1.563976e+02
1.290000e-06	2.031008e-06	2.418551e-09	1.526893e+01	1.586508e+02
1.300000e-06	2.062479e-06	2.451968e-09	1.550553e+01	1.607984e+02
1.310000e-06	2.093330e-06	2.484212e-09	1.573746e+01	1.628457e+02
1.320000e-06	2.123457e-06	2.514363e-09	1.596395e+01	1.647995e+02
1.330000e-06	2.152917e-06	2.545023e-09	1.618544e+01	1.666670e+02
1.340000e-06	2.181585e-06	2.573505e-09	1.640095e+01	1.684558e+02
1.350000e-06	2.209572e-06	2.599953e-09	1.661136e+01	1.701732e+02
1.360000e-06	2.237096e-06	2.625832e-09	1.681828e+01	1.718253e+02
1.370000e-06	2.263863e-06	2.651632e-09	1.701951e+01	1.734168e+02
1.380000e-06	2.289404e-06	2.674676e-09	1.721153e+01	1.749510e+02
1.390000e-06	2.313797e-06	2.695492e-09	1.739491e+01	1.764290e+02
1.400000e-06	2.337406e-06	2.717369e-09	1.757241e+01	1.778506e+02
1.410000e-06	2.360261e-06	2.738629e-09	1.774422e+01	1.792142e+02
1.420000e-06	2.382315e-06	2.757969e-09	1.791003e+01	1.805176e+02
1.430000e-06	2.403583e-06	2.776266e-09	1.806991e+01	1.817584e+02
1.440000e-06	2.424038e-06	2.795942e-09	1.822370e+01	1.829348e+02
1.450000e-06	2.443813e-06	2.814192e-09	1.837236e+01	1.840462e+02
1.460000e-06	2.462968e-06	2.830029e-09	1.851637e+01	1.850930e+02
1.470000e-06	2.481242e-06	2.844557e-09	1.865375e+01	1.860775e+02
1.480000e-06	2.498527e-06	2.858840e-09	1.878370e+01	1.870031e+02
1.490000e-06	2.514940e-06	2.872703e-09	1.890709e+01	1.878743e+02
1.500000e-06	2.530351e-06	2.886062e-09	1.902295e+01	1.886964e+02
1.510000e-06	2.544672e-06	2.900258e-09	1.913061e+01	1.894741e+02
1.520000e-06	2.558081e-06	2.912771e-09	1.923142e+01	1.902116e+02
1.530000e-06	2.570610e-06	2.923345e-09	1.932561e+01	1.909120e+02
1.540000e-06	2.582262e-06	2.932743e-09	1.941321e+01	1.915765e+02
1.550000e-06	2.592909e-06	2.941432e-09	1.949325e+01	1.922048e+02
1.560000e-06	2.602192e-06	2.950139e-09	1.956304e+01	1.927949e+02
1.570000e-06	2.610309e-06	2.959333e-09	1.962407e+01	1.933437e+02
1.580000e-06	2.617597e-06	2.967782e-09	1.967886e+01	1.938476e+02
1.590000e-06	2.624025e-06	2.973753e-09	1.972718e+01	1.943030e+02
1.600000e-06	2.629566e-06	2.979884e-09	1.976884e+01	1.947071e+02
1.610000e-06	2.634220e-06	2.987050e-09	1.980383e+01	1.950588e+02
1.620000e-06	2.638143e-06	2.993065e-09	1.983332e+01	1.953583e+02
1.630000e-06	2.641338e-06	2.997652e-09	1.985734e+01	1.956081e+02
1.640000e-06	2.643384e-06	3.002133e-09	1.987272e+01	1.958121e+02
1.650000e-06	2.644153e-06	3.007381e-09	1.987850e+01	1.959755e+02
1.660000e-06	2.644018e-06	3.010616e-09	1.987749e+01	1.961040e+02
1.670000e-06	2.643100e-06	3.008949e-09	1.987059e+01	1.962028e+02
1.680000e-06	2.641362e-06	3.008438e-09	1.985752e+01	1.962761e+02
1.690000e-06	2.638836e-06	3.011726e-09	1.983853e+01	1.963259e+02
1.700000e-06	2.635489e-06	3.013016e-09	1.981336e+01	1.963521e+02
1.710000e-06	2.631454e-06	3.011797e-09	1.978303e+01	1.963520e+02
1.720000e-06	2.626819e-06	3.018271e-09	1.974819e+01	1.963205e+02
1.730000e-06	2.621217e-06	3.028264e-09	1.970607e+01	1.962507e+02
1.740000e-06	2.614359e-06	2.968821e-09	1.965451e+01	1.961352e+02
1.750000e-06	2.606276e-06	2.913951e-09	1.959374e+01	1.959663e+02
1.760000e-06	2.596848e-06	2.996936e-09	1.952287e+01	1.957381e+02
1.770000e-06	2.586356e-06	3.096276e-09	1.944399e+01	1.954465e+02
1.780000e-06	2.575639e-06	3.030394e-09	1.936342e+01	1.950908e+02
1.790000e-06	2.564665e-06	2.879717e-09	1.928092e+01	1.946735e+02
1.800000e-06	2.552175e-06	2.952522e-09	1.918702e+01	1.942007e+02
1.810000e-06	2.537905e-06	2.976546e-09	1.907974e+01	1.936813e+02
1.820000e-06	2.523052e-06	2.931840e-09	1.896807e+01	1.931261e+02
1.830000e-06	2.507677e-06	2.964828e-09	1.885249e+01	1.925470e+02
1.840000e-06	2.490937e-06	2.919539e-09	1.872664e+01	1.919551e+02
1.850000e-06	2.473179e-06	2.791557e-09	1.859314e+01	1.913598e+02
1.860000e-06	2.455051e-06	2.942607e-09	1.845685e+01	1.907677e+02
1.870000e-06	2.436183e-06	3.073163e-09	1.831500e+01	1.901814e+02
1.880000e-06	2.416371e-06	2.744150e-09	1.816606e+01	1.895993e+02
1.890000e-06	2.395998e-06	2.707740e-09	1.801290e+01	1.890159e+02
1.900000e-06	2.374749e-06	3.016359e-09	1.785314e+01	1.884221e+02
1.910000e-06	2.352073e-06	2.898761e-09	1.768267e+01	1.878064e+02
1.920000e-06	2.328268e-06	2.658512e-09	1.750371e+01	1.871558e+02
1.930000e-06	2.303804e-06	2.884083e-09	1.731979e+01	1.864576e+02
1.940000e-06	2.278763e-06	2.934438e-09	1.713154e+01	1.857006e+02
1.950000e-06	2.252882e-06	2.723970e-09	1.693696e+01	1.848761e+02
1.960000e-06	2.225945e-06	2.789550e-09	1.673445e+01	1.839787e+02
1.970000e-06	2.198319e-06	2.849368e-09	1.652676e+01	1.830071e+02
1.980000e-06	2.170152e-06	2.730578e-09	1.631501e+01	1.819632e+02
1.990000e-06	2.141098e-06	2.715538e-09	1.609658e+01	1.808522e+02
2.000000e-06	2.111319e-06	2.749996e-09	1.587270e+01	1.796818e+02
2.010000e-06	2.080855e-06	2.776387e-09	1.564368e+01	1.784603e+02
2.020000e-06	2.049386e-06	2.654126e-09	1.540710e+01	1.771965e+02
2.030000e-06	2.017124e-06	2.573641e-09	1.516455e+01	1.758977e+02
2.040000e-06	1.984335e-06	2.761683e-09	1.491805e+01	1.745693e+02
2.050000e-06	1.950804e-06	2.701595e-09	1.466597e+01	1.732142e+02
2.060000e-06	1.916484e-06	2.463582e-09	1.440795e+01	1.718322e+02
2.070000e-06	1.881630e-06	2.597772e-09	1.414592e+01	1.704208e+02
2.080000e-06	1.846211e-06	2.688993e-09	1.387964e+01	1.689751e+02
2.090000e-06	1.810216e-06	2.476780e-09	1.360904e+01	1.674888e+02
2.100000e-06	1.773701e-06	2.465042e-09	1.333452e+01	1.659551e+02
2.110000e-06	1.736602e-06	2.540859e-09	1.305562e+01	1.643674e+02
2.120000e-06	1.698629e-06	2.482881e-09	1.277014e+01	1.627201e+02
2.130000e-06	1.659605e-06	2.414612e-09	1.247676e+01	1.610091e+02
2.140000e-06	1.619852e-06	2.396870e-09	1.217790e+01	1.592320e+02
2.150000e-06	1.579693e-06	2.422628e-09	1.187599e+01	1.573884e+02
2.160000e-06	1.539099e-06	2.360658e-09	1.157080e+01	1.554791e+02
2.170000e-06	1.497898e-06	2.300650e-09	1.126106e+01	1.535059e+02
2.180000e-06	1.456181e-06	2.326850e-09	1.094744e+01	1.514713e+02
2.190000e-06	1.414067e-06	2.287362e-09	1.063083e+01	1.493772e+02
2.200000e-06	1.371452e-06	2.199369e-09	1.031045e+01	1.472248e+02
2.210000e-06	1.328355e-06	2.207694e-09	9.986450e+00	1.450143e+02
2.220000e-06	1.284862e-06	2.204637e-09	9.659472e+00	1.427444e+02
2.230000e-06	1.240999e-06	2.114503e-09	9.329720e+00	1.404126e+02
2.240000e-06	1.196876e-06	2.064286e-09	8.998004e+00	1.380151e+02
2.250000e-06	1.152558e-06	2.079080e-09	8.664823e+00	1.355474e+02
2.260000e-06	1.107892e-06	2.050113e-09	8.329031e+00	1.330047e+02
2.270000e-06	1.062682e-06	1.950167e-09	7.989147e+00	1.303824e+02
2.280000e-06	1.016907e-06	1.925261e-09	7.645015e+00	1.276764e+02
2.290000e-06	9.707047e-07	1.923934e-09	7.297669e+00	1.248833e+02
2.300000e-06	9.241975e-07	1.857676e-09	6.948032e+00	1.220007e+02
2.310000e-06	8.774055e-07	1.794411e-09	6.596255e+00	1.190271e+02
2.320000e-06	8.304091e-07	1.762756e-09	6.242940e+00	1.159615e+02
2.330000e-06	7.832255e-07	1.722266e-09	5.888218e+00	1.128034e+02
2.340000e-06	7.357532e-07	1.655750e-09	5.531326e+00	1.095521e+02
2.350000e-06	6.880547e-07	1.615442e-09	5.172732e+00	1.062064e+02
2.360000e-06	6.401968e-07	1.578023e-09	4.812941e+00	1.027646e+02
2.370000e-06	5.919561e-07	1.504197e-09	4.450272e+00	9.922393e+01
2.380000e-06	5.433621e-07	1.440449e-09	4.084947e+00	9.558064e+01
2.390000e-06	4.946247e-07	1.410764e-09	3.718543e+00	9.183019e+01
2.400000e-06	4.457112e-07	1.352208e-09	3.350816e+00	8.796746e+01
2.410000e-06	3.964625e-07	1.268000e-09	2.980569e+00	8.398709e+01
2.420000e-06	3.469375e-07	1.209384e-09	2.608244e+00	7.988395e+01
2.430000e-06	2.973847e-07	1.163583e-09	2.235711e+00	7.565353e+01
2.440000e-06	2.477379e-07	1.094938e-09	1.862471e+00	7.129238e+01
2.450000e-06	1.979914e-07	1.009051e-09	1.488481e+00	6.679840e+01
2.460000e-06	1.482141e-07	9.466980e-10	1.114260e+00	6.217111e+01
2.470000e-06	9.834978e-08	8.828852e-10	7.393847e-01	5.741173e+01
2.480000e-06	4.841289e-08	8.017497e-10	3.639637e-01	5.252317e+01
2.490000e-06	-1.527765e-09	7.234518e-10	-1.148560e-02	4.751003e+01
2.500000e-06	-5.144159e-08	6.508865e-10	-3.867332e-01	4.237842e+01
2.510000e-06	-1.013831e-07	5.713223e-10	-7.621890e-01	3.713581e+01
2.520000e-06	-1.512799e-07	4.840809e-10	-1.137308e+00	3.179091e+01
2.530000e-06	-2.010412e-07	4.059795e-10	-1.511409e+00	2.635353e+01
2.540000e-06	-2.507268e-07	3.262919e-10	-1.884941e+00	2.083445e+01
2.550000e-06	-3.003928e-07	2.361675e-10	-2.258326e+00	1.524539e+01
2.560000e-06	-3.498803e-07	1.486841e-10	-2.630368e+00	9.598887e+00
2.570000e-06	-3.990608e-07	7.033584e-11	-3.000102e+00	3.908244e+00
2.580000e-06	-4.480587e-07	-1.881307e-11	-3.368465e+00	-1.812584e+00
2.590000e-06	-4.968535e-07	-1.128186e-10	-3.735299e+00	-7.549140e+00
2.600000e-06	-5.452998e-07	-1.963933e-10	-4.099514e+00	-1.328667e+01
2.610000e-06	-5.933504e-07	-2.802452e-10	-4.460755e+00	-1.901039e+01
2.620000e-06	-6.410400e-07	-3.707182e-10	-4.819280e+00	-2.470573e+01
2.630000e-06	-6.884550e-07	-4.591606e-10	-5.175742e+00	-3.035873e+01
2.640000e-06	-7.356110e-07	-5.370090e-10	-5.530256e+00	-3.595624e+01
2.650000e-06	-7.825421e-07	-6.189595e-10	-5.883080e+00	-4.148626e+01
2.660000e-06	-8.293298e-07	-7.046333e-10	-6.234826e+00	-4.693809e+01
2.670000e-06	-8.759152e-07	-7.840694e-10	-6.585050e+00	-5.230246e+01
2.680000e-06	-9.222246e-07	-8.588067e-10	-6.933200e+00	-5.757160e+01
2.690000e-06	-9.683173e-07	-9.384908e-10	-7.279721e+00	-6.273910e+01
2.700000e-06	-1.014139e-06	-1.019139e-09	-7.624203e+00	-6.779990e+01
2.710000e-06	-1.059498e-06	-1.093089e-09	-7.965211e+00	-7.275004e+01
2.720000e-06	-1.104366e-06	-1.167647e-09	-8.302523e+00	-7.758654e+01
2.730000e-06	-1.148886e-06	-1.240795e-09	-8.637221e+00	-8.230723e+01
2.740000e-06	-1.193157e-06	-1.310008e-09	-8.970046e+00	-8.691059e+01
2.750000e-06	-1.237194e-06	-1.377111e-09	-9.301109e+00	-9.139569e+01
2.760000e-06	-1.280975e-06	-1.445952e-09	-9.630255e+00	-9.576214e+01
2.770000e-06	-1.324341e-06	-1.510274e-09	-9.956272e+00	-1.000100e+02
2.780000e-06	-1.367163e-06	-1.569266e-09	-1.027821e+01	-1.041400e+02
2.790000e-06	-1.409498e-06	-1.629708e-09	-1.059648e+01	-1.081532e+02
2.800000e-06	-1.451404e-06	-1.691360e-09	-1.091152e+01	-1.120511e+02
2.810000e-06	-1.492815e-06	-1.749474e-09	-1.122284e+01	-1.158357e+02
2.820000e-06	-1.533707e-06	-1.802134e-09	-1.153027e+01	-1.195090e+02
2.830000e-06	-1.574142e-06	-1.857030e-09	-1.183425e+01	-1.230732e+02
2.840000e-06	-1.614155e-06	-1.913526e-09	-1.213507e+01	-1.265300e+02
2.850000e-06	-1.653692e-06	-1.964872e-09	-1.243230e+01	-1.298809e+02
2.860000e-06	-1.692427e-06	-2.012369e-09	-1.272351e+01	-1.331265e+02
2.870000e-06	-1.730135e-06	-2.061411e-09	-1.300700e+01	-1.362669e+02
2.880000e-06	-1.766999e-06	-2.108887e-09	-1.328414e+01	-1.393012e+02
2.890000e-06	-1.803295e-06	-2.154841e-09	-1.355700e+01	-1.422282e+02
2.900000e-06	-1.839140e-06	-2.201622e-09	-1.382649e+01	-1.450459e+02
2.910000e-06	-1.874410e-06	-2.243601e-09	-1.409164e+01	-1.477529e+02
2.920000e-06	-1.908994e-06	-2.280937e-09	-1.435164e+01	-1.503476e+02
2.930000e-06	-1.942948e-06	-2.318852e-09	-1.460691e+01	-1.528296e+02
2.940000e-06	-1.976252e-06	-2.358350e-09	-1.485728e+01	-1.551996e+02
