# Temperatura_=_20.0
# Concentracion g/m^3_=_9000.0
# C_Vs_to_Am_M_A/Vsm_=_65563218390.804596
# pendiente_HvsI_1/m_=_3716.3
# ordenada_HvsI_A/m_=_1297.0
# frecuencia_Hz_=_301080.4662177392

Tiempo_(s)	Campo_(V.s)	Magnetizacion_(V.s)	Campo_(kA/m)	Magnetizacion_(A/m)
0.000000e+00	-2.634348e-06	-2.963437e-09	-1.977453e+01	-1.956359e+02
1.000000e-08	-2.633351e-06	-2.965896e-09	-1.976704e+01	-1.957514e+02
2.000000e-08	-2.631099e-06	-2.967562e-09	-1.975014e+01	-1.958352e+02
3.000000e-08	-2.627925e-06	-2.969444e-09	-1.972631e+01	-1.958823e+02
4.000000e-08	-2.624082e-06	-2.969725e-09	-1.969746e+01	-1.958870e+02
5.000000e-08	-2.619451e-06	-2.966692e-09	-1.966270e+01	-1.958436e+02
6.000000e-08	-2.613945e-06	-2.960791e-09	-1.962137e+01	-1.957474e+02
7.000000e-08	-2.607565e-06	-2.966842e-09	-1.957348e+01	-1.955953e+02
8.000000e-08	-2.600259e-06	-2.991526e-09	-1.951864e+01	-1.953864e+02
9.000000e-08	-2.591798e-06	-2.996025e-09	-1.945512e+01	-1.951224e+02
1.000000e-07	-2.581961e-06	-2.926674e-09	-1.938129e+01	-1.948078e+02
1.100000e-07	-2.571082e-06	-2.906181e-09	-1.929962e+01	-1.944493e+02
1.200000e-07	-2.559476e-06	-2.951483e-09	-1.921250e+01	-1.940548e+02
1.300000e-07	-2.546983e-06	-2.994404e-09	-1.911872e+01	-1.936335e+02
1.400000e-07	-2.533681e-06	-2.926278e-09	-1.901888e+01	-1.931936e+02
1.500000e-07	-2.519529e-06	-2.938959e-09	-1.891264e+01	-1.927423e+02
1.600000e-07	-2.503893e-06	-2.946015e-09	-1.879527e+01	-1.922842e+02
1.700000e-07	-2.486913e-06	-2.923880e-09	-1.866781e+01	-1.918213e+02
1.800000e-07	-2.469454e-06	-2.991812e-09	-1.853676e+01	-1.913521e+02
1.900000e-07	-2.451466e-06	-2.952391e-09	-1.840173e+01	-1.908721e+02
2.000000e-07	-2.432435e-06	-2.837447e-09	-1.825888e+01	-1.903740e+02
2.100000e-07	-2.412665e-06	-2.867268e-09	-1.811048e+01	-1.898487e+02
2.200000e-07	-2.392442e-06	-2.999855e-09	-1.795867e+01	-1.892862e+02
2.300000e-07	-2.371278e-06	-2.888073e-09	-1.779981e+01	-1.886766e+02
2.400000e-07	-2.348970e-06	-2.807378e-09	-1.763235e+01	-1.880114e+02
2.500000e-07	-2.325894e-06	-2.886517e-09	-1.745914e+01	-1.872840e+02
2.600000e-07	-2.302291e-06	-2.925010e-09	-1.728196e+01	-1.864908e+02
2.700000e-07	-2.277975e-06	-2.839668e-09	-1.709944e+01	-1.856309e+02
2.800000e-07	-2.252600e-06	-2.827986e-09	-1.690896e+01	-1.847066e+02
2.900000e-07	-2.226038e-06	-2.825390e-09	-1.670958e+01	-1.837224e+02
3.000000e-07	-2.198601e-06	-2.790257e-09	-1.650362e+01	-1.826847e+02
3.100000e-07	-2.170531e-06	-2.799936e-09	-1.629292e+01	-1.816009e+02
3.200000e-07	-2.141774e-06	-2.793690e-09	-1.607706e+01	-1.804779e+02
3.300000e-07	-2.112346e-06	-2.765999e-09	-1.585615e+01	-1.793222e+02
3.400000e-07	-2.082133e-06	-2.693571e-09	-1.562937e+01	-1.781381e+02
3.500000e-07	-2.051129e-06	-2.714541e-09	-1.539663e+01	-1.769281e+02
3.600000e-07	-2.019682e-06	-2.763629e-09	-1.516058e+01	-1.756923e+02
3.700000e-07	-1.987769e-06	-2.691451e-09	-1.492103e+01	-1.744286e+02
3.800000e-07	-1.954740e-06	-2.579708e-09	-1.467310e+01	-1.731328e+02
3.900000e-07	-1.920531e-06	-2.662380e-09	-1.441631e+01	-1.717998e+02
4.000000e-07	-1.885664e-06	-2.686419e-09	-1.415459e+01	-1.704237e+02
4.100000e-07	-1.850261e-06	-2.561183e-09	-1.388884e+01	-1.689986e+02
4.200000e-07	-1.814278e-06	-2.550600e-09	-1.361873e+01	-1.675194e+02
4.300000e-07	-1.777741e-06	-2.589050e-09	-1.334447e+01	-1.659819e+02
4.400000e-07	-1.740608e-06	-2.533580e-09	-1.306573e+01	-1.643833e+02
4.500000e-07	-1.702788e-06	-2.479139e-09	-1.278184e+01	-1.627224e+02
4.600000e-07	-1.664306e-06	-2.504323e-09	-1.249298e+01	-1.609988e+02
4.700000e-07	-1.625265e-06	-2.454115e-09	-1.219993e+01	-1.592133e+02
4.800000e-07	-1.585824e-06	-2.400295e-09	-1.190386e+01	-1.573672e+02
4.900000e-07	-1.546090e-06	-2.396130e-09	-1.160560e+01	-1.554617e+02
5.000000e-07	-1.505927e-06	-2.382136e-09	-1.130412e+01	-1.534979e+02
5.100000e-07	-1.464920e-06	-2.314334e-09	-1.099631e+01	-1.514761e+02
5.200000e-07	-1.422855e-06	-2.272212e-09	-1.068055e+01	-1.493959e+02
5.300000e-07	-1.380042e-06	-2.277400e-09	-1.035917e+01	-1.472563e+02
5.400000e-07	-1.336849e-06	-2.239085e-09	-1.003495e+01	-1.450551e+02
5.500000e-07	-1.293350e-06	-2.185189e-09	-9.708431e+00	-1.427901e+02
5.600000e-07	-1.249448e-06	-2.148319e-09	-9.378880e+00	-1.404584e+02
5.700000e-07	-1.205171e-06	-2.135172e-09	-9.046522e+00	-1.380573e+02
5.800000e-07	-1.160512e-06	-2.082707e-09	-8.711288e+00	-1.355840e+02
5.900000e-07	-1.115381e-06	-2.031470e-09	-8.372518e+00	-1.330362e+02
6.000000e-07	-1.069819e-06	-2.003090e-09	-8.030513e+00	-1.304117e+02
6.100000e-07	-1.023854e-06	-1.966670e-09	-7.685479e+00	-1.277087e+02
6.200000e-07	-9.775192e-07	-1.909385e-09	-7.337669e+00	-1.249254e+02
6.300000e-07	-9.307974e-07	-1.859709e-09	-6.986956e+00	-1.220600e+02
6.400000e-07	-8.837471e-07	-1.834366e-09	-6.633777e+00	-1.191105e+02
6.500000e-07	-8.365658e-07	-1.784751e-09	-6.279614e+00	-1.160744e+02
6.600000e-07	-7.892274e-07	-1.729195e-09	-5.924272e+00	-1.129485e+02
6.700000e-07	-7.416674e-07	-1.680700e-09	-5.567267e+00	-1.097294e+02
6.800000e-07	-6.938508e-07	-1.635578e-09	-5.208335e+00	-1.064126e+02
6.900000e-07	-6.456848e-07	-1.576191e-09	-4.846782e+00	-1.029936e+02
7.000000e-07	-5.972138e-07	-1.524147e-09	-4.482938e+00	-9.946724e+01
7.100000e-07	-5.484799e-07	-1.475398e-09	-4.117120e+00	-9.582853e+01
7.200000e-07	-4.993946e-07	-1.406552e-09	-3.748666e+00	-9.207253e+01
7.300000e-07	-4.499231e-07	-1.342539e-09	-3.377312e+00	-8.819470e+01
7.400000e-07	-4.001071e-07	-1.292114e-09	-3.003372e+00	-8.419105e+01
7.500000e-07	-3.500409e-07	-1.236623e-09	-2.627554e+00	-8.005833e+01
7.600000e-07	-2.997921e-07	-1.155423e-09	-2.250366e+00	-7.579414e+01
7.700000e-07	-2.493548e-07	-1.084521e-09	-1.871762e+00	-7.139699e+01
7.800000e-07	-1.987447e-07	-1.027467e-09	-1.491861e+00	-6.686638e+01
7.900000e-07	-1.479952e-07	-9.590871e-10	-1.110914e+00	-6.220290e+01
8.000000e-07	-9.716752e-08	-8.759197e-10	-7.293802e-01	-5.740825e+01
8.100000e-07	-4.629247e-08	-7.968829e-10	-3.474907e-01	-5.248536e+01
8.200000e-07	4.599935e-09	-7.249485e-10	3.452904e-02	-4.743851e+01
8.300000e-07	5.547483e-08	-6.452039e-10	4.164173e-01	-4.227340e+01
8.400000e-07	1.063038e-07	-5.659119e-10	7.979612e-01	-3.699727e+01
8.500000e-07	1.570369e-07	-4.823238e-10	1.178785e+00	-3.161893e+01
8.600000e-07	2.076434e-07	-3.952593e-10	1.558659e+00	-2.614873e+01
8.700000e-07	2.581516e-07	-3.093935e-10	1.937794e+00	-2.059850e+01
8.800000e-07	3.085603e-07	-2.312558e-10	2.316183e+00	-1.498129e+01
8.900000e-07	3.587125e-07	-1.473354e-10	2.692646e+00	-9.311141e+00
9.000000e-07	4.085357e-07	-5.159848e-11	3.066641e+00	-3.602656e+00
9.100000e-07	4.581128e-07	4.030545e-11	3.438787e+00	2.129372e+00
9.200000e-07	5.074349e-07	1.238151e-10	3.809020e+00	7.870395e+00
9.300000e-07	5.563902e-07	2.081351e-10	4.176499e+00	1.360650e+01
9.400000e-07	6.049163e-07	3.008106e-10	4.540756e+00	1.932469e+01
9.500000e-07	6.531362e-07	3.896028e-10	4.902715e+00	2.501314e+01
9.600000e-07	7.011068e-07	4.746973e-10	5.262802e+00	3.066118e+01
9.700000e-07	7.488305e-07	5.584008e-10	5.621037e+00	3.625930e+01
9.800000e-07	7.963855e-07	6.446301e-10	5.978004e+00	4.179893e+01
9.900000e-07	8.437613e-07	7.309878e-10	6.333627e+00	4.727223e+01
1.000000e-06	8.909595e-07	8.158398e-10	6.687916e+00	5.267175e+01
1.010000e-06	9.379170e-07	8.994535e-10	7.040399e+00	5.799022e+01
1.020000e-06	9.844965e-07	9.771960e-10	7.390044e+00	6.322034e+01
1.030000e-06	1.030617e-06	1.055335e-09	7.736245e+00	6.835468e+01
1.040000e-06	1.076340e-06	1.135026e-09	8.079463e+00	7.338576e+01
1.050000e-06	1.121747e-06	1.212497e-09	8.420301e+00	7.830623e+01
1.060000e-06	1.166783e-06	1.281915e-09	8.758367e+00	8.310917e+01
1.070000e-06	1.211389e-06	1.350418e-09	9.093192e+00	8.778843e+01
1.080000e-06	1.255523e-06	1.421844e-09	9.424485e+00	9.233909e+01
1.090000e-06	1.299237e-06	1.491845e-09	9.752618e+00	9.675771e+01
1.100000e-06	1.342688e-06	1.557808e-09	1.007878e+01	1.010427e+02
1.110000e-06	1.385945e-06	1.619184e-09	1.040349e+01	1.051941e+02
1.120000e-06	1.428885e-06	1.680256e-09	1.072581e+01	1.092141e+02
1.130000e-06	1.471128e-06	1.739953e-09	1.104290e+01	1.131062e+02
1.140000e-06	1.512390e-06	1.798397e-09	1.135264e+01	1.168749e+02
1.150000e-06	1.552740e-06	1.853703e-09	1.165552e+01	1.205256e+02
1.160000e-06	1.592454e-06	1.907385e-09	1.195363e+01	1.240634e+02
1.170000e-06	1.631790e-06	1.959783e-09	1.224890e+01	1.274931e+02
1.180000e-06	1.670692e-06	2.011034e-09	1.254092e+01	1.308186e+02
1.190000e-06	1.709024e-06	2.061772e-09	1.282866e+01	1.340425e+02
1.200000e-06	1.746795e-06	2.108192e-09	1.311217e+01	1.371659e+02
1.210000e-06	1.783946e-06	2.152842e-09	1.339105e+01	1.401890e+02
1.220000e-06	1.820390e-06	2.197569e-09	1.366461e+01	1.431109e+02
1.230000e-06	1.856275e-06	2.240159e-09	1.393398e+01	1.459301e+02
1.240000e-06	1.891755e-06	2.278067e-09	1.420031e+01	1.486451e+02
1.250000e-06	1.926773e-06	2.316047e-09	1.446317e+01	1.512548e+02
1.260000e-06	1.961037e-06	2.354588e-09	1.472036e+01	1.537590e+02
1.270000e-06	1.994236e-06	2.391569e-09	1.496957e+01	1.561584e+02
1.280000e-06	2.026435e-06	2.426451e-09	1.521127e+01	1.584553e+02
1.290000e-06	2.058002e-06	2.459585e-09	1.544823e+01	1.606528e+02
1.300000e-06	2.089052e-06	2.492487e-09	1.568130e+01	1.627552e+02
1.310000e-06	2.119399e-06	2.524046e-09	1.590910e+01	1.647671e+02
1.320000e-06	2.149006e-06	2.554312e-09	1.613134e+01	1.666935e+02
1.330000e-06	2.177862e-06	2.581515e-09	1.634795e+01	1.685390e+02
1.340000e-06	2.205969e-06	2.608839e-09	1.655893e+01	1.703075e+02
1.350000e-06	2.233528e-06	2.636435e-09	1.676580e+01	1.720023e+02
1.360000e-06	2.260532e-06	2.662300e-09	1.696850e+01	1.736255e+02
1.370000e-06	2.286527e-06	2.685321e-09	1.716364e+01	1.751784e+02
1.380000e-06	2.311252e-06	2.706883e-09	1.734923e+01	1.766618e+02
1.390000e-06	2.335041e-06	2.728198e-09	1.752780e+01	1.780762e+02
1.400000e-06	2.358152e-06	2.748382e-09	1.770128e+01	1.794221e+02
1.410000e-06	2.380450e-06	2.768867e-09	1.786866e+01	1.807005e+02
1.420000e-06	2.401919e-06	2.787483e-09	1.802981e+01	1.819135e+02
1.430000e-06	2.422576e-06	2.805831e-09	1.818487e+01	1.830635e+02
1.440000e-06	2.442494e-06	2.823323e-09	1.833438e+01	1.841543e+02
1.450000e-06	2.461807e-06	2.839011e-09	1.847936e+01	1.851898e+02
1.460000e-06	2.480352e-06	2.853736e-09	1.861856e+01	1.861746e+02
1.470000e-06	2.497887e-06	2.867068e-09	1.875019e+01	1.871129e+02
1.480000e-06	2.514498e-06	2.880572e-09	1.887488e+01	1.880083e+02
1.490000e-06	2.530230e-06	2.895031e-09	1.899297e+01	1.888634e+02
1.500000e-06	2.544932e-06	2.909392e-09	1.910333e+01	1.896794e+02
1.510000e-06	2.558655e-06	2.921522e-09	1.920634e+01	1.904563e+02
1.520000e-06	2.571435e-06	2.931905e-09	1.930227e+01	1.911925e+02
1.530000e-06	2.583301e-06	2.941489e-09	1.939134e+01	1.918858e+02
1.540000e-06	2.594202e-06	2.950692e-09	1.947317e+01	1.925330e+02
1.550000e-06	2.603834e-06	2.959229e-09	1.954548e+01	1.931313e+02
1.560000e-06	2.612232e-06	2.968025e-09	1.960851e+01	1.936784e+02
1.570000e-06	2.619754e-06	2.976285e-09	1.966497e+01	1.941730e+02
1.580000e-06	2.626448e-06	2.983403e-09	1.971522e+01	1.946153e+02
1.590000e-06	2.632225e-06	2.990872e-09	1.975859e+01	1.950072e+02
1.600000e-06	2.637100e-06	2.997773e-09	1.979518e+01	1.953517e+02
1.610000e-06	2.641183e-06	3.003220e-09	1.982583e+01	1.956532e+02
1.620000e-06	2.644558e-06	3.008201e-09	1.985116e+01	1.959164e+02
1.630000e-06	2.646953e-06	3.012761e-09	1.986914e+01	1.961460e+02
1.640000e-06	2.648115e-06	3.017019e-09	1.987786e+01	1.963459e+02
1.650000e-06	2.648200e-06	3.019939e-09	1.987850e+01	1.965183e+02
1.660000e-06	2.647445e-06	3.020839e-09	1.987284e+01	1.966640e+02
1.670000e-06	2.645916e-06	3.021420e-09	1.986136e+01	1.967813e+02
1.680000e-06	2.643583e-06	3.024546e-09	1.984384e+01	1.968670e+02
1.690000e-06	2.640398e-06	3.027103e-09	1.981994e+01	1.969162e+02
1.700000e-06	2.636475e-06	3.026503e-09	1.979049e+01	1.969233e+02
1.710000e-06	2.631970e-06	3.025673e-09	1.975667e+01	1.968825e+02
1.720000e-06	2.626716e-06	3.031153e-09	1.971724e+01	1.967890e+02
1.730000e-06	2.620273e-06	3.009128e-09	1.966887e+01	1.966396e+02
1.740000e-06	2.612503e-06	2.976517e-09	1.961055e+01	1.964334e+02
1.750000e-06	2.603434e-06	2.990917e-09	1.954247e+01	1.961721e+02
1.760000e-06	2.593157e-06	3.048172e-09	1.946533e+01	1.958600e+02
1.770000e-06	2.582407e-06	3.026379e-09	1.938463e+01	1.955036e+02
1.780000e-06	2.571627e-06	2.959494e-09	1.930371e+01	1.951110e+02
1.790000e-06	2.559787e-06	2.965450e-09	1.921484e+01	1.946912e+02
1.800000e-06	2.545929e-06	2.972779e-09	1.911081e+01	1.942526e+02
1.810000e-06	2.531110e-06	2.950032e-09	1.899958e+01	1.938023e+02
1.820000e-06	2.516071e-06	2.944272e-09	1.888668e+01	1.933452e+02
1.830000e-06	2.499821e-06	2.929191e-09	1.876470e+01	1.928832e+02
1.840000e-06	2.482195e-06	2.860650e-09	1.863240e+01	1.924150e+02
1.850000e-06	2.464077e-06	2.945473e-09	1.849640e+01	1.919362e+02
1.860000e-06	2.445396e-06	3.012218e-09	1.835617e+01	1.914396e+02
1.870000e-06	2.425675e-06	2.853727e-09	1.820813e+01	1.909162e+02
1.880000e-06	2.405255e-06	2.813328e-09	1.805486e+01	1.903559e+02
1.890000e-06	2.384193e-06	2.957786e-09	1.789675e+01	1.897489e+02
1.900000e-06	2.361845e-06	2.904553e-09	1.772900e+01	1.890865e+02
1.910000e-06	2.338200e-06	2.766106e-09	1.755151e+01	1.883622e+02
1.920000e-06	2.313810e-06	2.846607e-09	1.736843e+01	1.875721e+02
1.930000e-06	2.288838e-06	2.866948e-09	1.718098e+01	1.867153e+02
1.940000e-06	2.263087e-06	2.762525e-09	1.698768e+01	1.857940e+02
1.950000e-06	2.236347e-06	2.804082e-09	1.678696e+01	1.848125e+02
1.960000e-06	2.208853e-06	2.815032e-09	1.658058e+01	1.837774e+02
1.970000e-06	2.180879e-06	2.715623e-09	1.637060e+01	1.826958e+02
1.980000e-06	2.152129e-06	2.724294e-09	1.615479e+01	1.815749e+02
1.990000e-06	2.122525e-06	2.757932e-09	1.593256e+01	1.804210e+02
2.000000e-06	2.092331e-06	2.746800e-09	1.570591e+01	1.792386e+02
2.010000e-06	2.061208e-06	2.658162e-09	1.547229e+01	1.780303e+02
2.020000e-06	2.029071e-06	2.610804e-09	1.523106e+01	1.767961e+02
2.030000e-06	1.996421e-06	2.705444e-09	1.498597e+01	1.755341e+02
2.040000e-06	1.963157e-06	2.686654e-09	1.473628e+01	1.742404e+02
2.050000e-06	1.929009e-06	2.538302e-09	1.447995e+01	1.729095e+02
2.060000e-06	1.894191e-06	2.580266e-09	1.421859e+01	1.715358e+02
2.070000e-06	1.858890e-06	2.628213e-09	1.395361e+01	1.701133e+02
2.080000e-06	1.822991e-06	2.508532e-09	1.368414e+01	1.686368e+02
2.090000e-06	1.786436e-06	2.504123e-09	1.340974e+01	1.671022e+02
2.100000e-06	1.749365e-06	2.528466e-09	1.313147e+01	1.655066e+02
2.110000e-06	1.711615e-06	2.459567e-09	1.284810e+01	1.638486e+02
2.120000e-06	1.672818e-06	2.415973e-09	1.255687e+01	1.621280e+02
2.130000e-06	1.633100e-06	2.423861e-09	1.225873e+01	1.603454e+02
2.140000e-06	1.592904e-06	2.417708e-09	1.195700e+01	1.585022e+02
2.150000e-06	1.552354e-06	2.350161e-09	1.165262e+01	1.565996e+02
2.160000e-06	1.511275e-06	2.304898e-09	1.134427e+01	1.546385e+02
2.170000e-06	1.469588e-06	2.318500e-09	1.103135e+01	1.526195e+02
2.180000e-06	1.427457e-06	2.291215e-09	1.071509e+01	1.505422e+02
2.190000e-06	1.384910e-06	2.216907e-09	1.039572e+01	1.484054e+02
2.200000e-06	1.341830e-06	2.202875e-09	1.007234e+01	1.462072e+02
2.210000e-06	1.298303e-06	2.185549e-09	9.745610e+00	1.439453e+02
2.220000e-06	1.254387e-06	2.126356e-09	9.415957e+00	1.416168e+02
2.230000e-06	1.210168e-06	2.089541e-09	9.084031e+00	1.392189e+02
2.240000e-06	1.165757e-06	2.077962e-09	8.750661e+00	1.367490e+02
2.250000e-06	1.121095e-06	2.035598e-09	8.415409e+00	1.342046e+02
2.260000e-06	1.075929e-06	1.960277e-09	8.076375e+00	1.315836e+02
2.270000e-06	1.030202e-06	1.941492e-09	7.733132e+00	1.288842e+02
2.280000e-06	9.840562e-07	1.925994e-09	7.386739e+00	1.261045e+02
2.290000e-06	9.375818e-07	1.861379e-09	7.037883e+00	1.232428e+02
2.300000e-06	8.908384e-07	1.800521e-09	6.687007e+00	1.202971e+02
2.310000e-06	8.438401e-07	1.771719e-09	6.334218e+00	1.172648e+02
2.320000e-06	7.966315e-07	1.732825e-09	5.979851e+00	1.141430e+02
2.330000e-06	7.491606e-07	1.672604e-09	5.623514e+00	1.109280e+02
2.340000e-06	7.014585e-07	1.626106e-09	5.265442e+00	1.076155e+02
2.350000e-06	6.535899e-07	1.580802e-09	4.906120e+00	1.042009e+02
2.360000e-06	6.054743e-07	1.517921e-09	4.544945e+00	1.006793e+02
2.370000e-06	5.570415e-07	1.459770e-09	4.181387e+00	9.704539e+01
2.380000e-06	5.084388e-07	1.420968e-09	3.816555e+00	9.329440e+01
2.390000e-06	4.596661e-07	1.356411e-09	3.450447e+00	8.942172e+01
2.400000e-06	4.104578e-07	1.277675e-09	3.081069e+00	8.542336e+01
2.410000e-06	3.609316e-07	1.223260e-09	2.709304e+00	8.129604e+01
2.420000e-06	3.113063e-07	1.177485e-09	2.336796e+00	7.703731e+01
2.430000e-06	2.615780e-07	1.107285e-09	1.963514e+00	7.264565e+01
2.440000e-06	2.117151e-07	1.023245e-09	1.589223e+00	6.812055e+01
2.450000e-06	1.617498e-07	9.589567e-10	1.214162e+00	6.346252e+01
2.460000e-06	1.117622e-07	8.942051e-10	8.389342e-01	5.867324e+01
2.470000e-06	6.174419e-08	8.166609e-10	4.634778e-01	5.375561e+01
2.480000e-06	1.169520e-08	7.366590e-10	8.778909e-02	4.871383e+01
2.490000e-06	-3.831662e-08	6.578996e-10	-2.876206e-01	4.355356e+01
2.500000e-06	-8.831086e-08	5.750261e-10	-6.628984e-01	3.828199e+01
2.510000e-06	-1.382928e-07	4.951746e-10	-1.038084e+00	3.290786e+01
2.520000e-06	-1.881750e-07	4.192762e-10	-1.412520e+00	2.744149e+01
2.530000e-06	-2.379327e-07	3.334226e-10	-1.786023e+00	2.189463e+01
2.540000e-06	-2.876067e-07	2.416618e-10	-2.158897e+00	1.628031e+01
2.550000e-06	-3.371424e-07	1.564466e-10	-2.530732e+00	1.061254e+01
2.560000e-06	-3.864269e-07	7.851606e-11	-2.900683e+00	4.905901e+00
2.570000e-06	-4.355137e-07	-1.182485e-11	-3.269149e+00	-8.248041e-01
2.580000e-06	-4.844490e-07	-1.067510e-10	-3.636477e+00	-6.565016e+00
2.590000e-06	-5.330076e-07	-1.912664e-10	-4.000979e+00	-1.230079e+01
2.600000e-06	-5.810917e-07	-2.721746e-10	-4.361918e+00	-1.801910e+01
2.610000e-06	-6.289915e-07	-3.588223e-10	-4.721474e+00	-2.370806e+01
2.620000e-06	-6.766905e-07	-4.481757e-10	-5.079523e+00	-2.935698e+01
2.630000e-06	-7.240204e-07	-5.308131e-10	-5.434801e+00	-3.495630e+01
2.640000e-06	-7.710737e-07	-6.130710e-10	-5.788003e+00	-4.049743e+01
2.650000e-06	-8.179436e-07	-6.948524e-10	-6.139828e+00	-4.597249e+01
2.660000e-06	-8.646489e-07	-7.746579e-10	-6.490418e+00	-5.137403e+01
2.670000e-06	-9.111275e-07	-8.541033e-10	-6.839306e+00	-5.669479e+01
2.680000e-06	-9.573364e-07	-9.356112e-10	-7.186169e+00	-6.192746e+01
2.690000e-06	-1.003257e-06	-1.013741e-09	-7.530871e+00	-6.706461e+01
2.700000e-06	-1.048753e-06	-1.087643e-09	-7.872378e+00	-7.209878e+01
2.710000e-06	-1.093775e-06	-1.162845e-09	-8.210337e+00	-7.702259e+01
2.720000e-06	-1.138445e-06	-1.238064e-09	-8.545649e+00	-8.182910e+01
2.730000e-06	-1.182875e-06	-1.308820e-09	-8.879154e+00	-8.651214e+01
2.740000e-06	-1.227104e-06	-1.375612e-09	-9.211157e+00	-9.106672e+01
2.750000e-06	-1.271025e-06	-1.443258e-09	-9.540846e+00	-9.548936e+01
2.760000e-06	-1.314518e-06	-1.508955e-09	-9.867325e+00	-9.977835e+01
2.770000e-06	-1.357530e-06	-1.572754e-09	-1.019019e+01	-1.039338e+02
2.780000e-06	-1.400091e-06	-1.632863e-09	-1.050967e+01	-1.079578e+02
2.790000e-06	-1.442207e-06	-1.691250e-09	-1.082581e+01	-1.118536e+02
2.800000e-06	-1.483794e-06	-1.749107e-09	-1.113798e+01	-1.156259e+02
2.810000e-06	-1.524789e-06	-1.804762e-09	-1.144571e+01	-1.192799e+02
2.820000e-06	-1.565301e-06	-1.860110e-09	-1.174981e+01	-1.228210e+02
2.830000e-06	-1.605493e-06	-1.913681e-09	-1.205150e+01	-1.262538e+02
2.840000e-06	-1.645239e-06	-1.963455e-09	-1.234985e+01	-1.295822e+02
2.850000e-06	-1.684246e-06	-2.011597e-09	-1.264266e+01	-1.328089e+02
2.860000e-06	-1.722380e-06	-2.060436e-09	-1.292891e+01	-1.359352e+02
2.870000e-06	-1.759613e-06	-2.106211e-09	-1.320839e+01	-1.389611e+02
2.880000e-06	-1.796152e-06	-2.149743e-09	-1.348267e+01	-1.418859e+02
2.890000e-06	-1.832262e-06	-2.194719e-09	-1.375373e+01	-1.447081e+02
2.900000e-06	-1.867830e-06	-2.237897e-09	-1.402071e+01	-1.474261e+02
2.910000e-06	-1.902711e-06	-2.276714e-09	-1.428255e+01	-1.500388e+02
2.920000e-06	-1.936957e-06	-2.314365e-09	-1.453961e+01	-1.525460e+02
2.930000e-06	-1.970535e-06	-2.353134e-09	-1.479166e+01	-1.549485e+02
2.940000e-06	-2.003403e-06	-2.388914e-09	-1.503838e+01	-1.572482e+02
