# Temperatura_=_20.0
# Concentracion g/m^3_=_9000.0
# C_Vs_to_Am_M_A/Vsm_=_65563218390.804596
# pendiente_HvsI_1/m_=_3716.3
# ordenada_HvsI_A/m_=_1297.0
# frecuencia_Hz_=_301078.4320569337

Tiempo_(s)	Campo_(V.s)	Magnetizacion_(V.s)	Campo_(kA/m)	Magnetizacion_(A/m)
0.000000e+00	-2.637559e-06	-2.960114e-09	-1.977760e+01	-1.953545e+02
1.000000e-08	-2.636647e-06	-2.961082e-09	-1.977076e+01	-1.954694e+02
2.000000e-08	-2.634491e-06	-2.962601e-09	-1.975459e+01	-1.955555e+02
3.000000e-08	-2.631343e-06	-2.965531e-09	-1.973099e+01	-1.956095e+02
4.000000e-08	-2.627463e-06	-2.965722e-09	-1.970190e+01	-1.956258e+02
5.000000e-08	-2.622810e-06	-2.964114e-09	-1.966700e+01	-1.955974e+02
6.000000e-08	-2.617296e-06	-2.962913e-09	-1.962566e+01	-1.955165e+02
7.000000e-08	-2.610840e-06	-2.972786e-09	-1.957725e+01	-1.953757e+02
8.000000e-08	-2.603469e-06	-2.982033e-09	-1.952198e+01	-1.951693e+02
9.000000e-08	-2.595051e-06	-2.968898e-09	-1.945886e+01	-1.948946e+02
1.000000e-07	-2.585249e-06	-2.919509e-09	-1.938536e+01	-1.945519e+02
1.100000e-07	-2.574305e-06	-2.942981e-09	-1.930330e+01	-1.941461e+02
1.200000e-07	-2.562626e-06	-2.966823e-09	-1.921572e+01	-1.936854e+02
1.300000e-07	-2.550106e-06	-2.953498e-09	-1.912184e+01	-1.931815e+02
1.400000e-07	-2.536752e-06	-2.910620e-09	-1.902171e+01	-1.926482e+02
1.500000e-07	-2.522496e-06	-2.955078e-09	-1.891481e+01	-1.921000e+02
1.600000e-07	-2.506796e-06	-2.946467e-09	-1.879708e+01	-1.915504e+02
1.700000e-07	-2.489837e-06	-2.921276e-09	-1.866991e+01	-1.910105e+02
1.800000e-07	-2.472434e-06	-2.982599e-09	-1.853942e+01	-1.904875e+02
1.900000e-07	-2.454458e-06	-2.904314e-09	-1.840463e+01	-1.899835e+02
2.000000e-07	-2.435445e-06	-2.853709e-09	-1.826206e+01	-1.894958e+02
2.100000e-07	-2.415702e-06	-2.938241e-09	-1.811401e+01	-1.890163e+02
2.200000e-07	-2.395450e-06	-2.966840e-09	-1.796216e+01	-1.885328e+02
2.300000e-07	-2.374259e-06	-2.830082e-09	-1.780326e+01	-1.880298e+02
2.400000e-07	-2.351925e-06	-2.863953e-09	-1.763579e+01	-1.874908e+02
2.500000e-07	-2.328810e-06	-2.941519e-09	-1.746247e+01	-1.868994e+02
2.600000e-07	-2.305181e-06	-2.890300e-09	-1.728528e+01	-1.862417e+02
2.700000e-07	-2.280780e-06	-2.832127e-09	-1.710231e+01	-1.855071e+02
2.800000e-07	-2.255233e-06	-2.857044e-09	-1.691075e+01	-1.846894e+02
2.900000e-07	-2.228571e-06	-2.846732e-09	-1.671083e+01	-1.837875e+02
3.000000e-07	-2.201143e-06	-2.803667e-09	-1.650516e+01	-1.828051e+02
3.100000e-07	-2.173098e-06	-2.804100e-09	-1.629487e+01	-1.817496e+02
3.200000e-07	-2.144373e-06	-2.786337e-09	-1.607947e+01	-1.806315e+02
3.300000e-07	-2.114953e-06	-2.780960e-09	-1.585887e+01	-1.794623e+02
3.400000e-07	-2.084734e-06	-2.719232e-09	-1.563227e+01	-1.782534e+02
3.500000e-07	-2.053741e-06	-2.731585e-09	-1.539987e+01	-1.770143e+02
3.600000e-07	-2.022281e-06	-2.755066e-09	-1.516397e+01	-1.757517e+02
3.700000e-07	-1.990308e-06	-2.674395e-09	-1.492422e+01	-1.744690e+02
3.800000e-07	-1.957288e-06	-2.620801e-09	-1.467662e+01	-1.731654e+02
3.900000e-07	-1.923095e-06	-2.697319e-09	-1.442023e+01	-1.718370e+02
4.000000e-07	-1.888185e-06	-2.657180e-09	-1.415846e+01	-1.704771e+02
4.100000e-07	-1.852775e-06	-2.548762e-09	-1.389294e+01	-1.690772e+02
4.200000e-07	-1.816793e-06	-2.600398e-09	-1.362313e+01	-1.676285e+02
4.300000e-07	-1.780273e-06	-2.602915e-09	-1.334929e+01	-1.661229e+02
4.400000e-07	-1.743138e-06	-2.517212e-09	-1.307083e+01	-1.645540e+02
4.500000e-07	-1.705271e-06	-2.490662e-09	-1.278689e+01	-1.629175e+02
4.600000e-07	-1.666766e-06	-2.524345e-09	-1.249816e+01	-1.612121e+02
4.700000e-07	-1.627772e-06	-2.460330e-09	-1.220577e+01	-1.594385e+02
4.800000e-07	-1.588400e-06	-2.406341e-09	-1.191054e+01	-1.575997e+02
4.900000e-07	-1.548684e-06	-2.405673e-09	-1.161273e+01	-1.556996e+02
5.000000e-07	-1.508451e-06	-2.383960e-09	-1.131105e+01	-1.537424e+02
5.100000e-07	-1.467390e-06	-2.330816e-09	-1.100315e+01	-1.517315e+02
5.200000e-07	-1.425331e-06	-2.291107e-09	-1.068777e+01	-1.496690e+02
5.300000e-07	-1.382498e-06	-2.285841e-09	-1.036659e+01	-1.475547e+02
5.400000e-07	-1.339277e-06	-2.241754e-09	-1.004250e+01	-1.453863e+02
5.500000e-07	-1.295734e-06	-2.200124e-09	-9.715996e+00	-1.431595e+02
5.600000e-07	-1.251821e-06	-2.170359e-09	-9.386717e+00	-1.408681e+02
5.700000e-07	-1.207527e-06	-2.146657e-09	-9.054579e+00	-1.385052e+02
5.800000e-07	-1.162808e-06	-2.087819e-09	-8.719259e+00	-1.360635e+02
5.900000e-07	-1.117633e-06	-2.044858e-09	-8.380513e+00	-1.335365e+02
6.000000e-07	-1.072041e-06	-2.028065e-09	-8.038641e+00	-1.309189e+02
6.100000e-07	-1.026015e-06	-1.978764e-09	-7.693520e+00	-1.282071e+02
6.200000e-07	-9.795997e-07	-1.916662e-09	-7.345478e+00	-1.253997e+02
6.300000e-07	-9.328694e-07	-1.876806e-09	-6.995073e+00	-1.224966e+02
6.400000e-07	-8.858435e-07	-1.853621e-09	-6.642452e+00	-1.194998e+02
6.500000e-07	-8.385966e-07	-1.792682e-09	-6.288174e+00	-1.164115e+02
6.600000e-07	-7.911578e-07	-1.736079e-09	-5.932456e+00	-1.132344e+02
6.700000e-07	-7.435262e-07	-1.694623e-09	-5.575293e+00	-1.099704e+02
6.800000e-07	-6.956101e-07	-1.644435e-09	-5.215997e+00	-1.066202e+02
6.900000e-07	-6.472960e-07	-1.582548e-09	-4.853716e+00	-1.031828e+02
7.000000e-07	-5.987312e-07	-1.533446e-09	-4.489555e+00	-9.965530e+01
7.100000e-07	-5.499691e-07	-1.487494e-09	-4.123915e+00	-9.603303e+01
7.200000e-07	-5.008161e-07	-1.418613e-09	-3.755344e+00	-9.230968e+01
7.300000e-07	-4.512131e-07	-1.360064e-09	-3.383398e+00	-8.847794e+01
7.400000e-07	-4.011997e-07	-1.309125e-09	-3.008376e+00	-8.453011e+01
7.500000e-07	-3.509124e-07	-1.247804e-09	-2.631299e+00	-8.045875e+01
7.600000e-07	-3.004753e-07	-1.169599e-09	-2.253099e+00	-7.625734e+01
7.700000e-07	-2.498528e-07	-1.104639e-09	-1.873509e+00	-7.192085e+01
7.800000e-07	-1.991150e-07	-1.044329e-09	-1.493053e+00	-6.744606e+01
7.900000e-07	-1.483258e-07	-9.703561e-10	-1.112213e+00	-6.283186e+01
8.000000e-07	-9.746906e-08	-8.947957e-10	-7.308668e-01	-5.807925e+01
8.100000e-07	-4.656292e-08	-8.227467e-10	-3.491497e-01	-5.319129e+01
8.200000e-07	4.379153e-09	-7.496995e-10	3.283686e-02	-4.817293e+01
8.300000e-07	5.526708e-08	-6.661435e-10	4.144173e-01	-4.303075e+01
8.400000e-07	1.061175e-07	-5.885809e-10	7.957169e-01	-3.777279e+01
8.500000e-07	1.568841e-07	-5.078657e-10	1.176387e+00	-3.240832e+01
8.600000e-07	2.075600e-07	-4.191625e-10	1.556378e+00	-2.694773e+01
8.700000e-07	2.582173e-07	-3.300384e-10	1.936229e+00	-2.140243e+01
8.800000e-07	3.087485e-07	-2.484592e-10	2.315135e+00	-1.578478e+01
8.900000e-07	3.589701e-07	-1.652074e-10	2.691719e+00	-1.010807e+01
9.000000e-07	4.088522e-07	-7.080855e-11	3.065757e+00	-4.386372e+00
9.100000e-07	4.584682e-07	2.120792e-11	3.437801e+00	1.365542e+00
9.200000e-07	5.078300e-07	1.080031e-10	3.807938e+00	7.132470e+00
9.300000e-07	5.568385e-07	1.935335e-10	4.175425e+00	1.289906e+01
9.400000e-07	6.054491e-07	2.838482e-10	4.539929e+00	1.865018e+01
9.500000e-07	6.537133e-07	3.715999e-10	4.901836e+00	2.437132e+01
9.600000e-07	7.016291e-07	4.597474e-10	5.261130e+00	3.004895e+01
9.700000e-07	7.493219e-07	5.483301e-10	5.618752e+00	3.567086e+01
9.800000e-07	7.968514e-07	6.333873e-10	5.975149e+00	4.122637e+01
9.900000e-07	8.442049e-07	7.166636e-10	6.330227e+00	4.670645e+01
1.000000e-06	8.914170e-07	8.010707e-10	6.684245e+00	5.210361e+01
1.010000e-06	9.383983e-07	8.861781e-10	7.036532e+00	5.741175e+01
1.020000e-06	9.849736e-07	9.638706e-10	7.385774e+00	6.262587e+01
1.030000e-06	1.031125e-06	1.041053e-09	7.731837e+00	6.774168e+01
1.040000e-06	1.076896e-06	1.119435e-09	8.075046e+00	7.275533e+01
1.050000e-06	1.122277e-06	1.197565e-09	8.415333e+00	7.766304e+01
1.060000e-06	1.167250e-06	1.271555e-09	8.752562e+00	8.246099e+01
1.070000e-06	1.211786e-06	1.342509e-09	9.086514e+00	8.714519e+01
1.080000e-06	1.255900e-06	1.412760e-09	9.417304e+00	9.171165e+01
1.090000e-06	1.299655e-06	1.481334e-09	9.745396e+00	9.615656e+01
1.100000e-06	1.343149e-06	1.549849e-09	1.007153e+01	1.004766e+02
1.110000e-06	1.386428e-06	1.613383e-09	1.039606e+01	1.046692e+02
1.120000e-06	1.429346e-06	1.674233e-09	1.071787e+01	1.087330e+02
1.130000e-06	1.471585e-06	1.733534e-09	1.103460e+01	1.126679e+02
1.140000e-06	1.512897e-06	1.792798e-09	1.134438e+01	1.164752e+02
1.150000e-06	1.553317e-06	1.850404e-09	1.164747e+01	1.201575e+02
1.160000e-06	1.593113e-06	1.904844e-09	1.194588e+01	1.237182e+02
1.170000e-06	1.632510e-06	1.955565e-09	1.224129e+01	1.271614e+02
1.180000e-06	1.671512e-06	2.005073e-09	1.253375e+01	1.304916e+02
1.190000e-06	1.709974e-06	2.056468e-09	1.282215e+01	1.337124e+02
1.200000e-06	1.747803e-06	2.104376e-09	1.310581e+01	1.368272e+02
1.210000e-06	1.785025e-06	2.149999e-09	1.338492e+01	1.398378e+02
1.220000e-06	1.821621e-06	2.193641e-09	1.365933e+01	1.427452e+02
1.230000e-06	1.857596e-06	2.235495e-09	1.392909e+01	1.455493e+02
1.240000e-06	1.893111e-06	2.274695e-09	1.419540e+01	1.482490e+02
1.250000e-06	1.928201e-06	2.313946e-09	1.445852e+01	1.508430e+02
1.260000e-06	1.962559e-06	2.351831e-09	1.471615e+01	1.533305e+02
1.270000e-06	1.995901e-06	2.386390e-09	1.496616e+01	1.557110e+02
1.280000e-06	2.028221e-06	2.420118e-09	1.520851e+01	1.579856e+02
1.290000e-06	2.059802e-06	2.453039e-09	1.544532e+01	1.601567e+02
1.300000e-06	2.090834e-06	2.485599e-09	1.567801e+01	1.622284e+02
1.310000e-06	2.121195e-06	2.516082e-09	1.590567e+01	1.642064e+02
1.320000e-06	2.150820e-06	2.544909e-09	1.612781e+01	1.660971e+02
1.330000e-06	2.179713e-06	2.571643e-09	1.634447e+01	1.679080e+02
1.340000e-06	2.207871e-06	2.599404e-09	1.655561e+01	1.696460e+02
1.350000e-06	2.235454e-06	2.627101e-09	1.676244e+01	1.713174e+02
1.360000e-06	2.262458e-06	2.651799e-09	1.696492e+01	1.729275e+02
1.370000e-06	2.288529e-06	2.673543e-09	1.716042e+01	1.744794e+02
1.380000e-06	2.313420e-06	2.695878e-09	1.734706e+01	1.759747e+02
1.390000e-06	2.337306e-06	2.720196e-09	1.752617e+01	1.774132e+02
1.400000e-06	2.360431e-06	2.741763e-09	1.769957e+01	1.787934e+02
1.410000e-06	2.382746e-06	2.760353e-09	1.786690e+01	1.801128e+02
1.420000e-06	2.404212e-06	2.776987e-09	1.802786e+01	1.813689e+02
1.430000e-06	2.424834e-06	2.794125e-09	1.818249e+01	1.825598e+02
1.440000e-06	2.444734e-06	2.811014e-09	1.833172e+01	1.836844e+02
1.450000e-06	2.464051e-06	2.826535e-09	1.847656e+01	1.847432e+02
1.460000e-06	2.482643e-06	2.841719e-09	1.861597e+01	1.857385e+02
1.470000e-06	2.500253e-06	2.856933e-09	1.874802e+01	1.866738e+02
1.480000e-06	2.516961e-06	2.872320e-09	1.887330e+01	1.875539e+02
1.490000e-06	2.532784e-06	2.887152e-09	1.899195e+01	1.883842e+02
1.500000e-06	2.547521e-06	2.900637e-09	1.910246e+01	1.891701e+02
1.510000e-06	2.561254e-06	2.911661e-09	1.920543e+01	1.899160e+02
1.520000e-06	2.574050e-06	2.920605e-09	1.930138e+01	1.906252e+02
1.530000e-06	2.585909e-06	2.929178e-09	1.939031e+01	1.912993e+02
1.540000e-06	2.596792e-06	2.938718e-09	1.947191e+01	1.919384e+02
1.550000e-06	2.606467e-06	2.948215e-09	1.954446e+01	1.925407e+02
1.560000e-06	2.614901e-06	2.957178e-09	1.960770e+01	1.931037e+02
1.570000e-06	2.622402e-06	2.966520e-09	1.966394e+01	1.936241e+02
1.580000e-06	2.629118e-06	2.975405e-09	1.971430e+01	1.940991e+02
1.590000e-06	2.634938e-06	2.982752e-09	1.975795e+01	1.945263e+02
1.600000e-06	2.639860e-06	2.989327e-09	1.979485e+01	1.949053e+02
1.610000e-06	2.643990e-06	2.995137e-09	1.982582e+01	1.952367e+02
1.620000e-06	2.647354e-06	3.000327e-09	1.985105e+01	1.955231e+02
1.630000e-06	2.649741e-06	3.005084e-09	1.986895e+01	1.957681e+02
1.640000e-06	2.650918e-06	3.009945e-09	1.987777e+01	1.959762e+02
1.650000e-06	2.651015e-06	3.012906e-09	1.987850e+01	1.961514e+02
1.660000e-06	2.650261e-06	3.014496e-09	1.987285e+01	1.962971e+02
1.670000e-06	2.648717e-06	3.017492e-09	1.986127e+01	1.964147e+02
1.680000e-06	2.646376e-06	3.021132e-09	1.984371e+01	1.965036e+02
1.690000e-06	2.643223e-06	3.022764e-09	1.982008e+01	1.965607e+02
1.700000e-06	2.639297e-06	3.022304e-09	1.979063e+01	1.965806e+02
1.710000e-06	2.634739e-06	3.021535e-09	1.975645e+01	1.965563e+02
1.720000e-06	2.629430e-06	3.019597e-09	1.971665e+01	1.964801e+02
1.730000e-06	2.622940e-06	2.993632e-09	1.966798e+01	1.963444e+02
1.740000e-06	2.615156e-06	2.984517e-09	1.960962e+01	1.961436e+02
1.750000e-06	2.606100e-06	3.010551e-09	1.954171e+01	1.958744e+02
1.760000e-06	2.595880e-06	3.024077e-09	1.946507e+01	1.955372e+02
1.770000e-06	2.585131e-06	2.989977e-09	1.938447e+01	1.951363e+02
1.780000e-06	2.574242e-06	2.956415e-09	1.930282e+01	1.946798e+02
1.790000e-06	2.562266e-06	2.996892e-09	1.921302e+01	1.941793e+02
1.800000e-06	2.548386e-06	2.953762e-09	1.910894e+01	1.936483e+02
1.810000e-06	2.533540e-06	2.932562e-09	1.899762e+01	1.931013e+02
1.820000e-06	2.518415e-06	2.941770e-09	1.888420e+01	1.925521e+02
1.830000e-06	2.502158e-06	2.898271e-09	1.876230e+01	1.920119e+02
1.840000e-06	2.484579e-06	2.862812e-09	1.863049e+01	1.914882e+02
1.850000e-06	2.466481e-06	2.946272e-09	1.849478e+01	1.909836e+02
1.860000e-06	2.447828e-06	2.932903e-09	1.835491e+01	1.904957e+02
1.870000e-06	2.428202e-06	2.778449e-09	1.820775e+01	1.900166e+02
1.880000e-06	2.407836e-06	2.850815e-09	1.805504e+01	1.895345e+02
1.890000e-06	2.386755e-06	2.935278e-09	1.789696e+01	1.890341e+02
1.900000e-06	2.364453e-06	2.808941e-09	1.772973e+01	1.884989e+02
1.910000e-06	2.340863e-06	2.784139e-09	1.755284e+01	1.879125e+02
1.920000e-06	2.316461e-06	2.908277e-09	1.736986e+01	1.872606e+02
1.930000e-06	2.291494e-06	2.821093e-09	1.718265e+01	1.865324e+02
1.940000e-06	2.265763e-06	2.743235e-09	1.698970e+01	1.857214e+02
1.950000e-06	2.239067e-06	2.836238e-09	1.678953e+01	1.848261e+02
1.960000e-06	2.211603e-06	2.799154e-09	1.658359e+01	1.838499e+02
1.970000e-06	2.183608e-06	2.713218e-09	1.637367e+01	1.828001e+02
1.980000e-06	2.154830e-06	2.749859e-09	1.615788e+01	1.816867e+02
1.990000e-06	2.125226e-06	2.750506e-09	1.593589e+01	1.805215e+02
2.000000e-06	2.094944e-06	2.725737e-09	1.570883e+01	1.793157e+02
2.010000e-06	2.063720e-06	2.661518e-09	1.547470e+01	1.780791e+02
2.020000e-06	2.031575e-06	2.647749e-09	1.523366e+01	1.768188e+02
2.030000e-06	1.998867e-06	2.714671e-09	1.498840e+01	1.755381e+02
2.040000e-06	1.965521e-06	2.637253e-09	1.473836e+01	1.742368e+02
2.050000e-06	1.931361e-06	2.556088e-09	1.448221e+01	1.729111e+02
2.060000e-06	1.896565e-06	2.634201e-09	1.422129e+01	1.715543e+02
2.070000e-06	1.861208e-06	2.605602e-09	1.395617e+01	1.701582e+02
2.080000e-06	1.825243e-06	2.493279e-09	1.368649e+01	1.687140e+02
2.090000e-06	1.788725e-06	2.537635e-09	1.341266e+01	1.672134e+02
2.100000e-06	1.751714e-06	2.537935e-09	1.313514e+01	1.656498e+02
2.110000e-06	1.713975e-06	2.457425e-09	1.285216e+01	1.640190e+02
2.120000e-06	1.675188e-06	2.427992e-09	1.256131e+01	1.623191e+02
2.130000e-06	1.635473e-06	2.436476e-09	1.226351e+01	1.605510e+02
2.140000e-06	1.595234e-06	2.428154e-09	1.196178e+01	1.587174e+02
2.150000e-06	1.554639e-06	2.355557e-09	1.165738e+01	1.568222e+02
2.160000e-06	1.513518e-06	2.324238e-09	1.134904e+01	1.548696e+02
2.170000e-06	1.471840e-06	2.333970e-09	1.103652e+01	1.528632e+02
2.180000e-06	1.429743e-06	2.291718e-09	1.072085e+01	1.508050e+02
2.190000e-06	1.387188e-06	2.235424e-09	1.040176e+01	1.486951e+02
2.200000e-06	1.344091e-06	2.226642e-09	1.007860e+01	1.465314e+02
2.210000e-06	1.300531e-06	2.193982e-09	9.751964e+00	1.443096e+02
2.220000e-06	1.256583e-06	2.135335e-09	9.422425e+00	1.420237e+02
2.230000e-06	1.212351e-06	2.114295e-09	9.090750e+00	1.396669e+02
2.240000e-06	1.167909e-06	2.097864e-09	8.757507e+00	1.372317e+02
2.250000e-06	1.123185e-06	2.042345e-09	8.422147e+00	1.347117e+02
2.260000e-06	1.077999e-06	1.977634e-09	8.083322e+00	1.321014e+02
2.270000e-06	1.032264e-06	1.970918e-09	7.740382e+00	1.293971e+02
2.280000e-06	9.861288e-07	1.941583e-09	7.394436e+00	1.265971e+02
2.290000e-06	9.396914e-07	1.870121e-09	7.046228e+00	1.237016e+02
2.300000e-06	8.928951e-07	1.821880e-09	6.695328e+00	1.207120e+02
2.310000e-06	8.458219e-07	1.792011e-09	6.342352e+00	1.176308e+02
2.320000e-06	7.986338e-07	1.742670e-09	5.988515e+00	1.144606e+02
2.330000e-06	7.511866e-07	1.680655e-09	5.632734e+00	1.112035e+02
2.340000e-06	7.034276e-07	1.640839e-09	5.274615e+00	1.078601e+02
2.350000e-06	6.555139e-07	1.592559e-09	4.915338e+00	1.044297e+02
2.360000e-06	6.073300e-07	1.526829e-09	4.554033e+00	1.009095e+02
2.370000e-06	5.587569e-07	1.473115e-09	4.189810e+00	9.729485e+01
2.380000e-06	5.099708e-07	1.430883e-09	3.823990e+00	9.357963e+01
2.390000e-06	4.609878e-07	1.365340e-09	3.456693e+00	8.975656e+01
2.400000e-06	4.117008e-07	1.293603e-09	3.087117e+00	8.581795e+01
2.410000e-06	3.621937e-07	1.239986e-09	2.715891e+00	8.175632e+01
2.420000e-06	3.125524e-07	1.184884e-09	2.343658e+00	7.756507e+01
2.430000e-06	2.628028e-07	1.115007e-09	1.970614e+00	7.323903e+01
2.440000e-06	2.129596e-07	1.041815e-09	1.596867e+00	6.877485e+01
2.450000e-06	1.630492e-07	9.793708e-10	1.222616e+00	6.417128e+01
2.460000e-06	1.130999e-07	9.061548e-10	8.480739e-01	5.942915e+01
2.470000e-06	6.307832e-08	8.281844e-10	4.729895e-01	5.455140e+01
2.480000e-06	1.295823e-08	7.568788e-10	9.716659e-02	4.954282e+01
2.490000e-06	-3.712677e-08	6.803457e-10	-2.783932e-01	4.440992e+01
2.500000e-06	-8.714637e-08	5.928298e-10	-6.534626e-01	3.916060e+01
2.510000e-06	-1.371886e-07	5.084399e-10	-1.028701e+00	3.380409e+01
2.520000e-06	-1.871941e-07	4.359020e-10	-1.403665e+00	2.835067e+01
2.530000e-06	-2.370825e-07	3.545558e-10	-1.777751e+00	2.281169e+01
2.540000e-06	-2.868489e-07	2.635095e-10	-2.150922e+00	1.719946e+01
2.550000e-06	-3.364672e-07	1.766281e-10	-2.522982e+00	1.152718e+01
2.560000e-06	-3.858598e-07	9.756796e-11	-2.893350e+00	5.808893e+00
2.570000e-06	-4.349670e-07	1.129816e-11	-3.261578e+00	5.931237e-02
2.580000e-06	-4.839123e-07	-7.997587e-11	-3.628591e+00	-5.706377e+00
2.590000e-06	-5.325733e-07	-1.678684e-10	-3.993473e+00	-1.147282e+01
2.600000e-06	-5.808577e-07	-2.549944e-10	-4.355532e+00	-1.722487e+01
2.610000e-06	-6.289362e-07	-3.409161e-10	-4.716046e+00	-2.294793e+01
2.620000e-06	-6.766877e-07	-4.264150e-10	-5.074108e+00	-2.862841e+01
2.630000e-06	-7.240202e-07	-5.091794e-10	-5.429028e+00	-3.425400e+01
2.640000e-06	-7.711040e-07	-5.952611e-10	-5.782084e+00	-3.981390e+01
2.650000e-06	-8.180885e-07	-6.787548e-10	-6.134395e+00	-4.529896e+01
2.660000e-06	-8.649127e-07	-7.562921e-10	-6.485503e+00	-5.070159e+01
2.670000e-06	-9.114428e-07	-8.344909e-10	-6.834407e+00	-5.601559e+01
2.680000e-06	-9.577129e-07	-9.167471e-10	-7.181361e+00	-6.123589e+01
2.690000e-06	-1.003734e-06	-9.968954e-10	-7.526451e+00	-6.635818e+01
2.700000e-06	-1.049322e-06	-1.072037e-09	-7.868284e+00	-7.137858e+01
2.710000e-06	-1.094396e-06	-1.146554e-09	-8.206276e+00	-7.629331e+01
2.720000e-06	-1.139102e-06	-1.218840e-09	-8.541500e+00	-8.109855e+01
2.730000e-06	-1.183562e-06	-1.289826e-09	-8.874881e+00	-8.579033e+01
2.740000e-06	-1.227816e-06	-1.360810e-09	-9.206717e+00	-9.036466e+01
2.750000e-06	-1.271810e-06	-1.429849e-09	-9.536600e+00	-9.481769e+01
2.760000e-06	-1.315437e-06	-1.491629e-09	-9.863736e+00	-9.914605e+01
2.770000e-06	-1.358551e-06	-1.552221e-09	-1.018703e+01	-1.033472e+02
2.780000e-06	-1.401124e-06	-1.615607e-09	-1.050625e+01	-1.074195e+02
2.790000e-06	-1.443264e-06	-1.677760e-09	-1.082224e+01	-1.113630e+02
2.800000e-06	-1.484922e-06	-1.735289e-09	-1.113461e+01	-1.151786e+02
2.810000e-06	-1.525988e-06	-1.789141e-09	-1.144254e+01	-1.188690e+02
2.820000e-06	-1.566541e-06	-1.845105e-09	-1.174663e+01	-1.224376e+02
2.830000e-06	-1.606748e-06	-1.900781e-09	-1.204812e+01	-1.258884e+02
2.840000e-06	-1.646510e-06	-1.951222e-09	-1.234627e+01	-1.292258e+02
2.850000e-06	-1.685538e-06	-1.998132e-09	-1.263892e+01	-1.324537e+02
2.860000e-06	-1.723676e-06	-2.045932e-09	-1.292489e+01	-1.355753e+02
2.870000e-06	-1.760912e-06	-2.092440e-09	-1.320411e+01	-1.385926e+02
2.880000e-06	-1.797469e-06	-2.137538e-09	-1.347823e+01	-1.415067e+02
2.890000e-06	-1.833588e-06	-2.182885e-09	-1.374907e+01	-1.443175e+02
2.900000e-06	-1.869157e-06	-2.224451e-09	-1.401577e+01	-1.470240e+02
2.910000e-06	-1.904098e-06	-2.262074e-09	-1.427778e+01	-1.496250e+02
2.920000e-06	-1.938440e-06	-2.299837e-09	-1.453530e+01	-1.521194e+02
2.930000e-06	-1.972003e-06	-2.339206e-09	-1.478697e+01	-1.545069e+02
2.940000e-06	-2.004815e-06	-2.374326e-09	-1.503300e+01	-1.567883e+02
