# Temperatura_=_20.0
# Concentracion g/m^3_=_9000.0
# C_Vs_to_Am_M_A/Vsm_=_65563218390.804596
# pendiente_HvsI_1/m_=_3716.3
# ordenada_HvsI_A/m_=_1297.0
# frecuencia_Hz_=_301079.0444191338

Tiempo_(s)	Campo_(V.s)	Magnetizacion_(V.s)	Campo_(kA/m)	Magnetizacion_(A/m)
0.000000e+00	-2.642374e-06	-3.014092e-09	-1.977073e+01	-2.013822e+02
1.000000e-08	-2.641503e-06	-3.013001e-09	-1.976422e+01	-2.014862e+02
2.000000e-08	-2.639416e-06	-3.012267e-09	-1.974860e+01	-2.015368e+02
3.000000e-08	-2.636346e-06	-3.014256e-09	-1.972563e+01	-2.015349e+02
4.000000e-08	-2.632523e-06	-3.015553e-09	-1.969703e+01	-2.014843e+02
5.000000e-08	-2.627880e-06	-3.013772e-09	-1.966229e+01	-2.013919e+02
6.000000e-08	-2.622348e-06	-3.010934e-09	-1.962089e+01	-2.012660e+02
7.000000e-08	-2.615929e-06	-3.014720e-09	-1.957287e+01	-2.011159e+02
8.000000e-08	-2.608621e-06	-3.025955e-09	-1.951819e+01	-2.009494e+02
9.000000e-08	-2.600148e-06	-3.023554e-09	-1.945479e+01	-2.007717e+02
1.000000e-07	-2.590231e-06	-2.991485e-09	-1.938059e+01	-2.005837e+02
1.100000e-07	-2.579261e-06	-2.984537e-09	-1.929851e+01	-2.003810e+02
1.200000e-07	-2.567575e-06	-2.992018e-09	-1.921107e+01	-2.001540e+02
1.300000e-07	-2.555056e-06	-3.005359e-09	-1.911740e+01	-1.998874e+02
1.400000e-07	-2.541778e-06	-2.977509e-09	-1.901806e+01	-1.995624e+02
1.500000e-07	-2.527643e-06	-3.001003e-09	-1.891229e+01	-1.991575e+02
1.600000e-07	-2.512061e-06	-2.985119e-09	-1.879571e+01	-1.986516e+02
1.700000e-07	-2.495167e-06	-2.952607e-09	-1.866930e+01	-1.980260e+02
1.800000e-07	-2.477778e-06	-2.979793e-09	-1.853919e+01	-1.972672e+02
1.900000e-07	-2.459821e-06	-2.962464e-09	-1.840484e+01	-1.963683e+02
2.000000e-07	-2.440834e-06	-2.938727e-09	-1.826278e+01	-1.953310e+02
2.100000e-07	-2.421082e-06	-2.949601e-09	-1.811499e+01	-1.941654e+02
2.200000e-07	-2.400799e-06	-2.972582e-09	-1.796323e+01	-1.928899e+02
2.300000e-07	-2.379598e-06	-2.927664e-09	-1.780459e+01	-1.915297e+02
2.400000e-07	-2.357294e-06	-2.941490e-09	-1.763771e+01	-1.901142e+02
2.500000e-07	-2.334216e-06	-2.942940e-09	-1.746504e+01	-1.886745e+02
2.600000e-07	-2.310604e-06	-2.906443e-09	-1.728837e+01	-1.872404e+02
2.700000e-07	-2.286238e-06	-2.891681e-09	-1.710606e+01	-1.858375e+02
2.800000e-07	-2.260717e-06	-2.919641e-09	-1.691511e+01	-1.844847e+02
2.900000e-07	-2.234054e-06	-2.880255e-09	-1.671561e+01	-1.831927e+02
3.000000e-07	-2.206622e-06	-2.831648e-09	-1.651035e+01	-1.819632e+02
3.100000e-07	-2.178567e-06	-2.835265e-09	-1.630044e+01	-1.807893e+02
3.200000e-07	-2.149804e-06	-2.830622e-09	-1.608523e+01	-1.796568e+02
3.300000e-07	-2.120308e-06	-2.828123e-09	-1.586454e+01	-1.785457e+02
3.400000e-07	-2.090038e-06	-2.774899e-09	-1.563806e+01	-1.774334e+02
3.500000e-07	-2.059061e-06	-2.743168e-09	-1.540628e+01	-1.762968e+02
3.600000e-07	-2.027662e-06	-2.755086e-09	-1.517134e+01	-1.751150e+02
3.700000e-07	-1.995724e-06	-2.743435e-09	-1.493238e+01	-1.738714e+02
3.800000e-07	-1.962660e-06	-2.675334e-09	-1.468499e+01	-1.725548e+02
3.900000e-07	-1.928375e-06	-2.668471e-09	-1.442846e+01	-1.711605e+02
4.000000e-07	-1.893368e-06	-2.650998e-09	-1.416653e+01	-1.696892e+02
4.100000e-07	-1.857897e-06	-2.613436e-09	-1.390113e+01	-1.681466e+02
4.200000e-07	-1.821872e-06	-2.614298e-09	-1.363158e+01	-1.665418e+02
4.300000e-07	-1.785273e-06	-2.580957e-09	-1.335774e+01	-1.648849e+02
4.400000e-07	-1.748101e-06	-2.526792e-09	-1.307962e+01	-1.631857e+02
4.500000e-07	-1.710223e-06	-2.515238e-09	-1.279621e+01	-1.614518e+02
4.600000e-07	-1.671678e-06	-2.522864e-09	-1.250781e+01	-1.596872e+02
4.700000e-07	-1.632672e-06	-2.460925e-09	-1.221595e+01	-1.578921e+02
4.800000e-07	-1.593316e-06	-2.416137e-09	-1.192149e+01	-1.560626e+02
4.900000e-07	-1.553610e-06	-2.399950e-09	-1.162440e+01	-1.541913e+02
5.000000e-07	-1.513352e-06	-2.381642e-09	-1.132318e+01	-1.522686e+02
5.100000e-07	-1.472236e-06	-2.339104e-09	-1.101555e+01	-1.502841e+02
5.200000e-07	-1.430106e-06	-2.293589e-09	-1.070032e+01	-1.482277e+02
5.300000e-07	-1.387217e-06	-2.263325e-09	-1.037942e+01	-1.460912e+02
5.400000e-07	-1.343934e-06	-2.236269e-09	-1.005557e+01	-1.438690e+02
5.500000e-07	-1.300318e-06	-2.214664e-09	-9.729224e+00	-1.415585e+02
5.600000e-07	-1.256305e-06	-2.164121e-09	-9.399905e+00	-1.391606e+02
5.700000e-07	-1.211912e-06	-2.118892e-09	-9.067753e+00	-1.366783e+02
5.800000e-07	-1.167108e-06	-2.086171e-09	-8.732517e+00	-1.341166e+02
5.900000e-07	-1.121840e-06	-2.062017e-09	-8.393818e+00	-1.314810e+02
6.000000e-07	-1.076134e-06	-2.014456e-09	-8.051835e+00	-1.287762e+02
6.100000e-07	-1.030058e-06	-1.955597e-09	-7.707082e+00	-1.260058e+02
6.200000e-07	-9.836240e-07	-1.912190e-09	-7.359658e+00	-1.231706e+02
6.300000e-07	-9.368261e-07	-1.875933e-09	-7.009507e+00	-1.202690e+02
6.400000e-07	-8.897791e-07	-1.833571e-09	-6.657492e+00	-1.172967e+02
6.500000e-07	-8.425256e-07	-1.772852e-09	-6.303933e+00	-1.142474e+02
6.600000e-07	-7.950260e-07	-1.722303e-09	-5.948532e+00	-1.111132e+02
6.700000e-07	-7.473087e-07	-1.678119e-09	-5.591503e+00	-1.078856e+02
6.800000e-07	-6.993671e-07	-1.633209e-09	-5.232795e+00	-1.045566e+02
6.900000e-07	-6.510815e-07	-1.575192e-09	-4.871513e+00	-1.011192e+02
7.000000e-07	-6.023574e-07	-1.515334e-09	-4.506950e+00	-9.756790e+01
7.100000e-07	-5.532185e-07	-1.461183e-09	-4.139284e+00	-9.389923e+01
7.200000e-07	-5.037545e-07	-1.406720e-09	-3.769184e+00	-9.011131e+01
7.300000e-07	-4.539471e-07	-1.348683e-09	-3.396516e+00	-8.620360e+01
7.400000e-07	-4.037451e-07	-1.280338e-09	-3.020896e+00	-8.217637e+01
7.500000e-07	-3.532961e-07	-1.216602e-09	-2.643427e+00	-7.803001e+01
7.600000e-07	-3.027148e-07	-1.155486e-09	-2.264968e+00	-7.376451e+01
7.700000e-07	-2.520170e-07	-1.092432e-09	-1.885638e+00	-6.937903e+01
7.800000e-07	-2.012324e-07	-1.017426e-09	-1.505658e+00	-6.487182e+01
7.900000e-07	-1.503521e-07	-9.418766e-10	-1.124962e+00	-6.024037e+01
8.000000e-07	-9.942394e-08	-8.724689e-10	-7.439084e-01	-5.548184e+01
8.100000e-07	-4.844792e-08	-7.991153e-10	-3.624963e-01	-5.059378e+01
8.200000e-07	2.585434e-09	-7.195288e-10	1.934470e-02	-4.557492e+01
8.300000e-07	5.360436e-08	-6.366613e-10	4.010778e-01	-4.042592e+01
8.400000e-07	1.045470e-07	-5.575654e-10	7.822398e-01	-3.515010e+01
8.500000e-07	1.553779e-07	-4.757464e-10	1.162566e+00	-2.975382e+01
8.600000e-07	2.061268e-07	-3.916072e-10	1.542279e+00	-2.424662e+01
8.700000e-07	2.568788e-07	-3.031023e-10	1.922015e+00	-1.864103e+01
8.800000e-07	3.075521e-07	-2.155508e-10	2.301162e+00	-1.295202e+01
8.900000e-07	3.579276e-07	-1.313950e-10	2.678081e+00	-7.196287e+00
9.000000e-07	4.080231e-07	-4.428986e-11	3.052905e+00	-1.391322e+00
9.100000e-07	4.579245e-07	4.985010e-11	3.426276e+00	4.445459e+00
9.200000e-07	5.074956e-07	1.452896e-10	3.797176e+00	1.029751e+01
9.300000e-07	5.567169e-07	2.333470e-10	4.165459e+00	1.614976e+01
9.400000e-07	6.056078e-07	3.209059e-10	4.531270e+00	2.198889e+01
9.500000e-07	6.540491e-07	4.122810e-10	4.893717e+00	2.780338e+01
9.600000e-07	7.021625e-07	5.070907e-10	5.253710e+00	3.358326e+01
9.700000e-07	7.500211e-07	5.963328e-10	5.611797e+00	3.931966e+01
9.800000e-07	7.975975e-07	6.818423e-10	5.967773e+00	4.500430e+01
9.900000e-07	8.450076e-07	7.684360e-10	6.322504e+00	5.062891e+01
1.000000e-06	8.922573e-07	8.568310e-10	6.676035e+00	5.618489e+01
1.010000e-06	9.392700e-07	9.446565e-10	7.027793e+00	6.166302e+01
1.020000e-06	9.860161e-07	1.026641e-09	7.377556e+00	6.705354e+01
1.030000e-06	1.032363e-06	1.107607e-09	7.724335e+00	7.234638e+01
1.040000e-06	1.078251e-06	1.188613e-09	8.067675e+00	7.753165e+01
1.050000e-06	1.123714e-06	1.269478e-09	8.407835e+00	8.260019e+01
1.060000e-06	1.168811e-06	1.345347e-09	8.745259e+00	8.754423e+01
1.070000e-06	1.213516e-06	1.416806e-09	9.079752e+00	9.235788e+01
1.080000e-06	1.257786e-06	1.487509e-09	9.410988e+00	9.703750e+01
1.090000e-06	1.301662e-06	1.559422e-09	9.739275e+00	1.015818e+02
1.100000e-06	1.345215e-06	1.631231e-09	1.006515e+01	1.059918e+02
1.110000e-06	1.388536e-06	1.695852e-09	1.038928e+01	1.102701e+02
1.120000e-06	1.431531e-06	1.757486e-09	1.071098e+01	1.144206e+02
1.130000e-06	1.473954e-06	1.821105e-09	1.102840e+01	1.184478e+02
1.140000e-06	1.515468e-06	1.884810e-09	1.133901e+01	1.223557e+02
1.150000e-06	1.555994e-06	1.942044e-09	1.164224e+01	1.261476e+02
1.160000e-06	1.595820e-06	1.998288e-09	1.194022e+01	1.298253e+02
1.170000e-06	1.635240e-06	2.054106e-09	1.223517e+01	1.333891e+02
1.180000e-06	1.674312e-06	2.106347e-09	1.252751e+01	1.368381e+02
1.190000e-06	1.712820e-06	2.157520e-09	1.281564e+01	1.401702e+02
1.200000e-06	1.750696e-06	2.207077e-09	1.309903e+01	1.433826e+02
1.210000e-06	1.787986e-06	2.255182e-09	1.337804e+01	1.464730e+02
1.220000e-06	1.824638e-06	2.301021e-09	1.365228e+01	1.494394e+02
1.230000e-06	1.860659e-06	2.345827e-09	1.392180e+01	1.522814e+02
1.240000e-06	1.896202e-06	2.386697e-09	1.418774e+01	1.550001e+02
1.250000e-06	1.931343e-06	2.425728e-09	1.445067e+01	1.575985e+02
1.260000e-06	1.965831e-06	2.463072e-09	1.470871e+01	1.600808e+02
1.270000e-06	1.999316e-06	2.499150e-09	1.495926e+01	1.624529e+02
1.280000e-06	2.031714e-06	2.533717e-09	1.520166e+01	1.647211e+02
1.290000e-06	2.063355e-06	2.567022e-09	1.543840e+01	1.668920e+02
1.300000e-06	2.094443e-06	2.600217e-09	1.567101e+01	1.689716e+02
1.310000e-06	2.124880e-06	2.632938e-09	1.589875e+01	1.709651e+02
1.320000e-06	2.154642e-06	2.663634e-09	1.612143e+01	1.728765e+02
1.330000e-06	2.183663e-06	2.690344e-09	1.633857e+01	1.747088e+02
1.340000e-06	2.211893e-06	2.717894e-09	1.654980e+01	1.764638e+02
1.350000e-06	2.239510e-06	2.746239e-09	1.675643e+01	1.781426e+02
1.360000e-06	2.266589e-06	2.771686e-09	1.695904e+01	1.797462e+02
1.370000e-06	2.292781e-06	2.793621e-09	1.715502e+01	1.812758e+02
1.380000e-06	2.317740e-06	2.815662e-09	1.734176e+01	1.827329e+02
1.390000e-06	2.341671e-06	2.839215e-09	1.752082e+01	1.841202e+02
1.400000e-06	2.364864e-06	2.861839e-09	1.769435e+01	1.854410e+02
1.410000e-06	2.387262e-06	2.881400e-09	1.786194e+01	1.866992e+02
1.420000e-06	2.408819e-06	2.899579e-09	1.802323e+01	1.878992e+02
1.430000e-06	2.429574e-06	2.919705e-09	1.817852e+01	1.890449e+02
1.440000e-06	2.449590e-06	2.938353e-09	1.832829e+01	1.901397e+02
1.450000e-06	2.468973e-06	2.953261e-09	1.847332e+01	1.911860e+02
1.460000e-06	2.487626e-06	2.967836e-09	1.861288e+01	1.921846e+02
1.470000e-06	2.505292e-06	2.982829e-09	1.874506e+01	1.931351e+02
1.480000e-06	2.521967e-06	2.996442e-09	1.886983e+01	1.940357e+02
1.490000e-06	2.537761e-06	3.009885e-09	1.898800e+01	1.948841e+02
1.500000e-06	2.552545e-06	3.023748e-09	1.909862e+01	1.956777e+02
1.510000e-06	2.566306e-06	3.035988e-09	1.920158e+01	1.964144e+02
1.520000e-06	2.579171e-06	3.046852e-09	1.929783e+01	1.970932e+02
1.530000e-06	2.591129e-06	3.057212e-09	1.938731e+01	1.977148e+02
1.540000e-06	2.602088e-06	3.066683e-09	1.946931e+01	1.982819e+02
1.550000e-06	2.611823e-06	3.075065e-09	1.954215e+01	1.987985e+02
1.560000e-06	2.620307e-06	3.083572e-09	1.960562e+01	1.992706e+02
1.570000e-06	2.627831e-06	3.091507e-09	1.966192e+01	1.997043e+02
1.580000e-06	2.634563e-06	3.097769e-09	1.971229e+01	2.001060e+02
1.590000e-06	2.640425e-06	3.104760e-09	1.975615e+01	2.004809e+02
1.600000e-06	2.645354e-06	3.112448e-09	1.979303e+01	2.008324e+02
1.610000e-06	2.649442e-06	3.118000e-09	1.982362e+01	2.011617e+02
1.620000e-06	2.652830e-06	3.122565e-09	1.984897e+01	2.014673e+02
1.630000e-06	2.655353e-06	3.128029e-09	1.986785e+01	2.017452e+02
1.640000e-06	2.656645e-06	3.133807e-09	1.987751e+01	2.019900e+02
1.650000e-06	2.656777e-06	3.136957e-09	1.987850e+01	2.021951e+02
1.660000e-06	2.656074e-06	3.138622e-09	1.987324e+01	2.023543e+02
1.670000e-06	2.654577e-06	3.141406e-09	1.986204e+01	2.024628e+02
1.680000e-06	2.652254e-06	3.144895e-09	1.984466e+01	2.025179e+02
1.690000e-06	2.649087e-06	3.147316e-09	1.982096e+01	2.025204e+02
1.700000e-06	2.645158e-06	3.147435e-09	1.979156e+01	2.024738e+02
1.710000e-06	2.640587e-06	3.147521e-09	1.975736e+01	2.023847e+02
1.720000e-06	2.635230e-06	3.148887e-09	1.971728e+01	2.022617e+02
1.730000e-06	2.628773e-06	3.136853e-09	1.966897e+01	2.021137e+02
1.740000e-06	2.621064e-06	3.126076e-09	1.961129e+01	2.019488e+02
1.750000e-06	2.612032e-06	3.133541e-09	1.954371e+01	2.017725e+02
1.760000e-06	2.601752e-06	3.156869e-09	1.946679e+01	2.015860e+02
1.770000e-06	2.590953e-06	3.141192e-09	1.938599e+01	2.013853e+02
1.780000e-06	2.580035e-06	3.118575e-09	1.930430e+01	2.011612e+02
1.790000e-06	2.568112e-06	3.116335e-09	1.921509e+01	2.008987e+02
1.800000e-06	2.554347e-06	3.091987e-09	1.911210e+01	2.005792e+02
1.810000e-06	2.539551e-06	3.075962e-09	1.900139e+01	2.001815e+02
1.820000e-06	2.524501e-06	3.088368e-09	1.888878e+01	1.996841e+02
1.830000e-06	2.508351e-06	3.097297e-09	1.876795e+01	1.990684e+02
1.840000e-06	2.490798e-06	3.043972e-09	1.863661e+01	1.983200e+02
1.850000e-06	2.472672e-06	3.051509e-09	1.850099e+01	1.974319e+02
1.860000e-06	2.453989e-06	3.053103e-09	1.836120e+01	1.964049e+02
1.870000e-06	2.434282e-06	2.978696e-09	1.821375e+01	1.952486e+02
1.880000e-06	2.413842e-06	2.954179e-09	1.806082e+01	1.939809e+02
1.890000e-06	2.392752e-06	2.942249e-09	1.790302e+01	1.926265e+02
1.900000e-06	2.370425e-06	2.862576e-09	1.773596e+01	1.912146e+02
1.910000e-06	2.346814e-06	2.818715e-09	1.755930e+01	1.897763e+02
1.920000e-06	2.322423e-06	2.826321e-09	1.737680e+01	1.883416e+02
1.930000e-06	2.297395e-06	2.753205e-09	1.718953e+01	1.869365e+02
1.940000e-06	2.271585e-06	2.710267e-09	1.699642e+01	1.855803e+02
1.950000e-06	2.244792e-06	2.767856e-09	1.679595e+01	1.842845e+02
1.960000e-06	2.217141e-06	2.746501e-09	1.658906e+01	1.830514e+02
1.970000e-06	2.189044e-06	2.688600e-09	1.637883e+01	1.818746e+02
1.980000e-06	2.160258e-06	2.690237e-09	1.616345e+01	1.807404e+02
1.990000e-06	2.130558e-06	2.667152e-09	1.594123e+01	1.796292e+02
2.000000e-06	2.100253e-06	2.671434e-09	1.571449e+01	1.785185e+02
2.010000e-06	2.069065e-06	2.645129e-09	1.548113e+01	1.773850e+02
2.020000e-06	2.036803e-06	2.584656e-09	1.523974e+01	1.762077e+02
2.030000e-06	2.003983e-06	2.601335e-09	1.499417e+01	1.749697e+02
2.040000e-06	1.970627e-06	2.604481e-09	1.474460e+01	1.736593e+02
2.050000e-06	1.936444e-06	2.546197e-09	1.448883e+01	1.722712e+02
2.060000e-06	1.901572e-06	2.547885e-09	1.422791e+01	1.708060e+02
2.070000e-06	1.866147e-06	2.532481e-09	1.396286e+01	1.692690e+02
2.080000e-06	1.830129e-06	2.474996e-09	1.369337e+01	1.676689e+02
2.090000e-06	1.793551e-06	2.487957e-09	1.341968e+01	1.660161e+02
2.100000e-06	1.756425e-06	2.461626e-09	1.314190e+01	1.643203e+02
2.110000e-06	1.718590e-06	2.404173e-09	1.285881e+01	1.625894e+02
2.120000e-06	1.679748e-06	2.389053e-09	1.256819e+01	1.608276e+02
2.130000e-06	1.639949e-06	2.384024e-09	1.227040e+01	1.590355e+02
2.140000e-06	1.599648e-06	2.365642e-09	1.196887e+01	1.572093e+02
2.150000e-06	1.559035e-06	2.319087e-09	1.166499e+01	1.553420e+02
2.160000e-06	1.517877e-06	2.279534e-09	1.135703e+01	1.534240e+02
2.170000e-06	1.476152e-06	2.267585e-09	1.104484e+01	1.514450e+02
2.180000e-06	1.434035e-06	2.249226e-09	1.072972e+01	1.493947e+02
2.190000e-06	1.391414e-06	2.201187e-09	1.041082e+01	1.472649e+02
2.200000e-06	1.348228e-06	2.156489e-09	1.008770e+01	1.450495e+02
2.210000e-06	1.304557e-06	2.121361e-09	9.760935e+00	1.427461e+02
2.220000e-06	1.260504e-06	2.102560e-09	9.431327e+00	1.403550e+02
2.230000e-06	1.216213e-06	2.069302e-09	9.099931e+00	1.378793e+02
2.240000e-06	1.171687e-06	2.015899e-09	8.766783e+00	1.353238e+02
2.250000e-06	1.126846e-06	1.977310e-09	8.431270e+00	1.326940e+02
2.260000e-06	1.081527e-06	1.942849e-09	8.092188e+00	1.299948e+02
2.270000e-06	1.035707e-06	1.914946e-09	7.749354e+00	1.272296e+02
2.280000e-06	9.894615e-07	1.867584e-09	7.403335e+00	1.243998e+02
2.290000e-06	9.428185e-07	1.813010e-09	7.054343e+00	1.215037e+02
2.300000e-06	8.958853e-07	1.770194e-09	6.703181e+00	1.185374e+02
2.310000e-06	8.487283e-07	1.730408e-09	6.350343e+00	1.154945e+02
2.320000e-06	8.014313e-07	1.683641e-09	5.996458e+00	1.123673e+02
2.330000e-06	7.539129e-07	1.630053e-09	5.640916e+00	1.091474e+02
2.340000e-06	7.060917e-07	1.579967e-09	5.283110e+00	1.058266e+02
2.350000e-06	6.580597e-07	1.532963e-09	4.923725e+00	1.023978e+02
2.360000e-06	6.097622e-07	1.482706e-09	4.562354e+00	9.885545e+01
2.370000e-06	5.611067e-07	1.422831e-09	4.198305e+00	9.519594e+01
2.380000e-06	5.121754e-07	1.365705e-09	3.832192e+00	9.141725e+01
2.390000e-06	4.630274e-07	1.309036e-09	3.464457e+00	8.751879e+01
2.400000e-06	4.136363e-07	1.251306e-09	3.094903e+00	8.350078e+01
2.410000e-06	3.640466e-07	1.185267e-09	2.723864e+00	7.936361e+01
2.420000e-06	3.143225e-07	1.118530e-09	2.351819e+00	7.510733e+01
2.430000e-06	2.644591e-07	1.058629e-09	1.978732e+00	7.073116e+01
2.440000e-06	2.144602e-07	9.926054e-10	1.604631e+00	6.623342e+01
2.450000e-06	1.643678e-07	9.204333e-10	1.229830e+00	6.161162e+01
2.460000e-06	1.142157e-07	8.450626e-10	8.545831e-01	5.686295e+01
2.470000e-06	6.401953e-08	7.749919e-10	4.790060e-01	5.198490e+01
2.480000e-06	1.379947e-08	7.018870e-10	1.032502e-01	4.697608e+01
2.490000e-06	-3.635913e-08	6.207912e-10	-2.720458e-01	4.183700e+01
2.500000e-06	-8.646492e-08	5.375310e-10	-6.469466e-01	3.657075e+01
2.510000e-06	-1.365972e-07	4.558441e-10	-1.022046e+00	3.118348e+01
2.520000e-06	-1.866858e-07	3.753583e-10	-1.396818e+00	2.568452e+01
2.530000e-06	-2.365936e-07	2.935174e-10	-1.770237e+00	2.008618e+01
2.540000e-06	-2.863884e-07	2.085805e-10	-2.142811e+00	1.440328e+01
2.550000e-06	-3.361413e-07	1.196106e-10	-2.515071e+00	8.652431e+00
2.560000e-06	-3.857072e-07	3.549453e-11	-2.885933e+00	2.851091e+00
2.570000e-06	-4.350603e-07	-4.884891e-11	-3.255202e+00	-2.983288e+00
2.580000e-06	-4.841510e-07	-1.388768e-10	-3.622508e+00	-8.834079e+00
2.590000e-06	-5.328720e-07	-2.323310e-10	-3.987048e+00	-1.468608e+01
2.600000e-06	-5.812882e-07	-3.217123e-10	-4.349306e+00	-2.052586e+01
2.610000e-06	-6.293819e-07	-4.058698e-10	-4.709152e+00	-2.634176e+01
2.620000e-06	-6.771385e-07	-4.922895e-10	-5.066476e+00	-3.212373e+01
2.630000e-06	-7.245694e-07	-5.796029e-10	-5.421363e+00	-3.786282e+01
2.640000e-06	-7.717857e-07	-6.654605e-10	-5.774644e+00	-4.355074e+01
2.650000e-06	-8.188929e-07	-7.462240e-10	-6.127109e+00	-4.917922e+01
2.660000e-06	-8.657879e-07	-8.257673e-10	-6.477986e+00	-5.473971e+01
2.670000e-06	-9.123554e-07	-9.076840e-10	-6.826412e+00	-6.022302e+01
2.680000e-06	-9.586621e-07	-9.911251e-10	-7.172888e+00	-6.561944e+01
2.690000e-06	-1.004767e-06	-1.071328e-09	-7.517852e+00	-7.091890e+01
2.700000e-06	-1.050554e-06	-1.148523e-09	-7.860437e+00	-7.611148e+01
2.710000e-06	-1.095847e-06	-1.225391e-09	-8.199334e+00	-8.118795e+01
2.720000e-06	-1.140647e-06	-1.300504e-09	-8.534530e+00	-8.614041e+01
2.730000e-06	-1.185159e-06	-1.374269e-09	-8.867580e+00	-9.096283e+01
2.740000e-06	-1.229452e-06	-1.444881e-09	-9.198988e+00	-9.565140e+01
2.750000e-06	-1.273514e-06	-1.512511e-09	-9.528665e+00	-1.002047e+02
2.760000e-06	-1.317256e-06	-1.578117e-09	-9.855956e+00	-1.046235e+02
2.770000e-06	-1.360521e-06	-1.644691e-09	-1.017967e+01	-1.089104e+02
2.780000e-06	-1.403235e-06	-1.708601e-09	-1.049926e+01	-1.130692e+02
2.790000e-06	-1.445453e-06	-1.768209e-09	-1.081515e+01	-1.171044e+02
2.800000e-06	-1.487178e-06	-1.826867e-09	-1.112734e+01	-1.210200e+02
2.810000e-06	-1.528341e-06	-1.884395e-09	-1.143533e+01	-1.248194e+02
2.820000e-06	-1.569006e-06	-1.940225e-09	-1.173959e+01	-1.285045e+02
2.830000e-06	-1.609309e-06	-1.994066e-09	-1.204115e+01	-1.320758e+02
2.840000e-06	-1.649230e-06	-2.045111e-09	-1.233985e+01	-1.355324e+02
2.850000e-06	-1.688466e-06	-2.093340e-09	-1.263341e+01	-1.388722e+02
2.860000e-06	-1.726720e-06	-2.142102e-09	-1.291964e+01	-1.420926e+02
2.870000e-06	-1.763999e-06	-2.189461e-09	-1.319857e+01	-1.451910e+02
2.880000e-06	-1.800610e-06	-2.234234e-09	-1.347250e+01	-1.481656e+02
2.890000e-06	-1.836781e-06	-2.278520e-09	-1.374314e+01	-1.510158e+02
2.900000e-06	-1.872403e-06	-2.321385e-09	-1.400966e+01	-1.537426e+02
2.910000e-06	-1.907371e-06	-2.361180e-09	-1.427131e+01	-1.563487e+02
2.920000e-06	-1.941687e-06	-2.398525e-09	-1.452806e+01	-1.588385e+02
2.930000e-06	-1.975381e-06	-2.435606e-09	-1.478017e+01	-1.612175e+02
2.940000e-06	-2.008409e-06	-2.470762e-09	-1.502729e+01	-1.634923e+02
