# Temperatura_=_20.0
# Concentracion g/m^3_=_9000.0
# C_Vs_to_Am_M_A/Vsm_=_65563218390.804596
# pendiente_HvsI_1/m_=_3716.3
# ordenada_HvsI_A/m_=_1297.0
# frecuencia_Hz_=_301078.562189478

Tiempo_(s)	Campo_(V.s)	Magnetizacion_(V.s)	Campo_(kA/m)	Magnetizacion_(A/m)
0.000000e+00	-2.640886e-06	-2.992820e-09	-1.977224e+01	-2.000844e+02
1.000000e-08	-2.639981e-06	-2.993839e-09	-1.976547e+01	-2.001853e+02
2.000000e-08	-2.637846e-06	-2.995297e-09	-1.974948e+01	-2.002556e+02
3.000000e-08	-2.634698e-06	-2.999016e-09	-1.972591e+01	-2.002934e+02
4.000000e-08	-2.630857e-06	-2.999037e-09	-1.969716e+01	-2.002962e+02
5.000000e-08	-2.626262e-06	-2.995695e-09	-1.966275e+01	-2.002615e+02
6.000000e-08	-2.620751e-06	-2.991858e-09	-1.962149e+01	-2.001868e+02
7.000000e-08	-2.614261e-06	-2.996615e-09	-1.957290e+01	-2.000696e+02
8.000000e-08	-2.606852e-06	-3.017682e-09	-1.951743e+01	-1.999082e+02
9.000000e-08	-2.598360e-06	-3.017196e-09	-1.945385e+01	-1.997011e+02
1.000000e-07	-2.588535e-06	-2.957542e-09	-1.938029e+01	-1.994473e+02
1.100000e-07	-2.577671e-06	-2.944804e-09	-1.929895e+01	-1.991461e+02
1.200000e-07	-2.566039e-06	-2.986846e-09	-1.921186e+01	-1.987966e+02
1.300000e-07	-2.553486e-06	-3.018683e-09	-1.911788e+01	-1.983981e+02
1.400000e-07	-2.540140e-06	-2.937035e-09	-1.901796e+01	-1.979494e+02
1.500000e-07	-2.526021e-06	-2.971927e-09	-1.891225e+01	-1.974488e+02
1.600000e-07	-2.510469e-06	-2.975579e-09	-1.879581e+01	-1.968946e+02
1.700000e-07	-2.493572e-06	-2.932271e-09	-1.866931e+01	-1.962845e+02
1.800000e-07	-2.476185e-06	-2.982068e-09	-1.853913e+01	-1.956169e+02
1.900000e-07	-2.458193e-06	-2.971667e-09	-1.840442e+01	-1.948902e+02
2.000000e-07	-2.439178e-06	-2.893853e-09	-1.826206e+01	-1.941040e+02
2.100000e-07	-2.419447e-06	-2.916315e-09	-1.811433e+01	-1.932590e+02
2.200000e-07	-2.399210e-06	-3.038137e-09	-1.796282e+01	-1.923574e+02
2.300000e-07	-2.378022e-06	-2.951939e-09	-1.780419e+01	-1.914031e+02
2.400000e-07	-2.355716e-06	-2.913197e-09	-1.763718e+01	-1.904013e+02
2.500000e-07	-2.332671e-06	-2.979686e-09	-1.746464e+01	-1.893586e+02
2.600000e-07	-2.309084e-06	-2.984936e-09	-1.728805e+01	-1.882822e+02
2.700000e-07	-2.284801e-06	-2.891351e-09	-1.710624e+01	-1.871792e+02
2.800000e-07	-2.259434e-06	-2.918103e-09	-1.691632e+01	-1.860565e+02
2.900000e-07	-2.232833e-06	-2.919522e-09	-1.671716e+01	-1.849194e+02
3.000000e-07	-2.205362e-06	-2.862645e-09	-1.651148e+01	-1.837716e+02
3.100000e-07	-2.177289e-06	-2.842356e-09	-1.630130e+01	-1.826143e+02
3.200000e-07	-2.148548e-06	-2.850317e-09	-1.608612e+01	-1.814465e+02
3.300000e-07	-2.119114e-06	-2.863555e-09	-1.586575e+01	-1.802646e+02
3.400000e-07	-2.088860e-06	-2.778240e-09	-1.563924e+01	-1.790631e+02
3.500000e-07	-2.057758e-06	-2.752471e-09	-1.540638e+01	-1.778349e+02
3.600000e-07	-2.026197e-06	-2.810620e-09	-1.517008e+01	-1.765723e+02
3.700000e-07	-1.994242e-06	-2.778836e-09	-1.493083e+01	-1.752672e+02
3.800000e-07	-1.961325e-06	-2.649021e-09	-1.468439e+01	-1.739124e+02
3.900000e-07	-1.927247e-06	-2.712938e-09	-1.442925e+01	-1.725019e+02
4.000000e-07	-1.892333e-06	-2.724358e-09	-1.416784e+01	-1.710316e+02
4.100000e-07	-1.856838e-06	-2.608477e-09	-1.390209e+01	-1.694992e+02
4.200000e-07	-1.820831e-06	-2.615150e-09	-1.363251e+01	-1.679046e+02
4.300000e-07	-1.784265e-06	-2.650802e-09	-1.335874e+01	-1.662491e+02
4.400000e-07	-1.747050e-06	-2.559728e-09	-1.308011e+01	-1.645355e+02
4.500000e-07	-1.709136e-06	-2.506088e-09	-1.279625e+01	-1.627671e+02
4.600000e-07	-1.670592e-06	-2.560667e-09	-1.250767e+01	-1.609474e+02
4.700000e-07	-1.631523e-06	-2.504403e-09	-1.221517e+01	-1.590793e+02
4.800000e-07	-1.592041e-06	-2.427951e-09	-1.191957e+01	-1.571646e+02
4.900000e-07	-1.552259e-06	-2.411018e-09	-1.162172e+01	-1.552039e+02
5.000000e-07	-1.512078e-06	-2.419420e-09	-1.132089e+01	-1.531960e+02
5.100000e-07	-1.471121e-06	-2.358157e-09	-1.101424e+01	-1.511387e+02
5.200000e-07	-1.429103e-06	-2.301585e-09	-1.069965e+01	-1.490282e+02
5.300000e-07	-1.386249e-06	-2.294579e-09	-1.037881e+01	-1.468602e+02
5.400000e-07	-1.342943e-06	-2.268942e-09	-1.005458e+01	-1.446298e+02
5.500000e-07	-1.299311e-06	-2.220720e-09	-9.727904e+00	-1.423322e+02
5.600000e-07	-1.255341e-06	-2.175795e-09	-9.398707e+00	-1.399629e+02
5.700000e-07	-1.210994e-06	-2.160679e-09	-9.066678e+00	-1.375183e+02
5.800000e-07	-1.166210e-06	-2.105264e-09	-8.731382e+00	-1.349956e+02
5.900000e-07	-1.120959e-06	-2.060613e-09	-8.392589e+00	-1.323926e+02
6.000000e-07	-1.075317e-06	-2.033232e-09	-8.050867e+00	-1.297082e+02
6.100000e-07	-1.029267e-06	-1.989568e-09	-7.706094e+00	-1.269417e+02
6.200000e-07	-9.828291e-07	-1.923479e-09	-7.358414e+00	-1.240928e+02
6.300000e-07	-9.360402e-07	-1.882671e-09	-7.008108e+00	-1.211611e+02
6.400000e-07	-8.889489e-07	-1.857655e-09	-6.655536e+00	-1.181461e+02
6.500000e-07	-8.416623e-07	-1.792743e-09	-6.301502e+00	-1.150468e+02
6.600000e-07	-7.942090e-07	-1.733984e-09	-5.946221e+00	-1.118618e+02
6.700000e-07	-7.465884e-07	-1.694131e-09	-5.589687e+00	-1.085890e+02
6.800000e-07	-6.986970e-07	-1.652159e-09	-5.231125e+00	-1.052259e+02
6.900000e-07	-6.504445e-07	-1.580591e-09	-4.869860e+00	-1.017695e+02
7.000000e-07	-6.018799e-07	-1.522825e-09	-4.506258e+00	-9.821627e+01
7.100000e-07	-5.529986e-07	-1.479217e-09	-4.140285e+00	-9.456257e+01
7.200000e-07	-5.037733e-07	-1.420009e-09	-3.771737e+00	-9.080444e+01
7.300000e-07	-4.542078e-07	-1.353961e-09	-3.400642e+00	-8.693779e+01
7.400000e-07	-4.042748e-07	-1.294806e-09	-3.026794e+00	-8.295842e+01
7.500000e-07	-3.540365e-07	-1.238692e-09	-2.650661e+00	-7.886202e+01
7.600000e-07	-3.035833e-07	-1.165587e-09	-2.272920e+00	-7.464432e+01
7.700000e-07	-2.530030e-07	-1.099649e-09	-1.894226e+00	-7.030111e+01
7.800000e-07	-2.022941e-07	-1.033733e-09	-1.514571e+00	-6.582850e+01
7.900000e-07	-1.514571e-07	-9.599606e-10	-1.133955e+00	-6.122315e+01
8.000000e-07	-1.005690e-07	-8.821688e-10	-7.529574e-01	-5.648259e+01
8.100000e-07	-4.964407e-08	-8.110559e-10	-3.716838e-01	-5.160567e+01
8.200000e-07	1.327583e-09	-7.361905e-10	9.939576e-03	-4.659287e+01
8.300000e-07	5.233851e-08	-6.489965e-10	3.918570e-01	-4.144680e+01
8.400000e-07	1.033195e-07	-5.687906e-10	7.735503e-01	-3.617243e+01
8.500000e-07	1.541436e-07	-4.916864e-10	1.154069e+00	-3.077729e+01
8.600000e-07	2.047726e-07	-4.079348e-10	1.533127e+00	-2.527152e+01
8.700000e-07	2.553561e-07	-3.132415e-10	1.911844e+00	-1.966771e+01
8.800000e-07	3.058956e-07	-2.267635e-10	2.290232e+00	-1.398052e+01
8.900000e-07	3.561871e-07	-1.435899e-10	2.666763e+00	-8.226195e+00
9.000000e-07	4.061366e-07	-5.282981e-11	3.040734e+00	-2.421964e+00
9.100000e-07	4.557933e-07	4.258883e-11	3.412512e+00	3.414676e+00
9.200000e-07	5.051817e-07	1.339779e-10	3.782282e+00	9.266609e+00
9.300000e-07	5.542550e-07	2.211098e-10	4.149692e+00	1.511770e+01
9.400000e-07	6.029895e-07	3.117104e-10	4.514566e+00	2.095322e+01
9.500000e-07	6.513857e-07	3.999985e-10	4.876907e+00	2.676015e+01
9.600000e-07	6.995397e-07	4.906629e-10	5.237435e+00	3.252719e+01
9.700000e-07	7.474664e-07	5.794943e-10	5.596260e+00	3.824468e+01
9.800000e-07	7.951547e-07	6.675404e-10	5.953301e+00	4.390428e+01
9.900000e-07	8.426513e-07	7.527695e-10	6.308907e+00	4.949860e+01
1.000000e-06	8.899569e-07	8.398139e-10	6.663083e+00	5.502078e+01
1.010000e-06	9.370164e-07	9.294539e-10	7.015416e+00	6.046407e+01
1.020000e-06	9.837465e-07	1.012114e-09	7.365283e+00	6.582160e+01
1.030000e-06	1.030066e-06	1.091403e-09	7.712078e+00	7.108618e+01
1.040000e-06	1.075941e-06	1.171008e-09	8.055537e+00	7.625038e+01
1.050000e-06	1.121445e-06	1.252503e-09	8.396225e+00	8.130668e+01
1.060000e-06	1.166577e-06	1.327439e-09	8.734133e+00	8.624785e+01
1.070000e-06	1.211266e-06	1.399392e-09	9.068712e+00	9.106732e+01
1.080000e-06	1.255507e-06	1.471164e-09	9.399944e+00	9.575961e+01
1.090000e-06	1.299373e-06	1.542582e-09	9.728370e+00	1.003207e+02
1.100000e-06	1.342996e-06	1.612680e-09	1.005498e+01	1.047483e+02
1.110000e-06	1.386382e-06	1.678244e-09	1.037980e+01	1.090420e+02
1.120000e-06	1.429375e-06	1.742931e-09	1.070169e+01	1.132030e+02
1.130000e-06	1.471704e-06	1.805139e-09	1.101860e+01	1.172339e+02
1.140000e-06	1.513156e-06	1.866899e-09	1.132895e+01	1.211383e+02
1.150000e-06	1.553713e-06	1.924796e-09	1.163261e+01	1.249205e+02
1.160000e-06	1.593584e-06	1.982087e-09	1.193112e+01	1.285843e+02
1.170000e-06	1.633039e-06	2.036846e-09	1.222652e+01	1.321331e+02
1.180000e-06	1.672090e-06	2.089545e-09	1.251889e+01	1.355694e+02
1.190000e-06	1.710649e-06	2.141447e-09	1.280758e+01	1.388944e+02
1.200000e-06	1.748653e-06	2.189784e-09	1.309211e+01	1.421079e+02
1.210000e-06	1.785991e-06	2.238168e-09	1.337166e+01	1.452090e+02
1.220000e-06	1.822614e-06	2.285830e-09	1.364586e+01	1.481958e+02
1.230000e-06	1.858657e-06	2.331209e-09	1.391571e+01	1.510665e+02
1.240000e-06	1.894274e-06	2.370571e-09	1.418238e+01	1.538194e+02
1.250000e-06	1.929424e-06	2.410390e-09	1.444554e+01	1.564537e+02
1.260000e-06	1.963885e-06	2.449337e-09	1.470355e+01	1.589699e+02
1.270000e-06	1.997322e-06	2.484985e-09	1.495390e+01	1.613698e+02
1.280000e-06	2.029714e-06	2.517534e-09	1.519641e+01	1.636572e+02
1.290000e-06	2.061426e-06	2.550518e-09	1.543384e+01	1.658367e+02
1.300000e-06	2.092559e-06	2.585501e-09	1.566693e+01	1.679146e+02
1.310000e-06	2.122989e-06	2.619384e-09	1.589476e+01	1.698974e+02
1.320000e-06	2.152722e-06	2.650678e-09	1.611737e+01	1.717920e+02
1.330000e-06	2.181704e-06	2.678293e-09	1.633436e+01	1.736050e+02
1.340000e-06	2.209951e-06	2.706782e-09	1.654584e+01	1.753421e+02
1.350000e-06	2.237635e-06	2.735069e-09	1.675311e+01	1.770078e+02
1.360000e-06	2.264707e-06	2.760605e-09	1.695580e+01	1.786057e+02
1.370000e-06	2.290820e-06	2.782247e-09	1.715131e+01	1.801377e+02
1.380000e-06	2.315750e-06	2.803650e-09	1.733796e+01	1.816050e+02
1.390000e-06	2.339704e-06	2.826026e-09	1.751730e+01	1.830080e+02
1.400000e-06	2.362887e-06	2.847324e-09	1.769087e+01	1.843468e+02
1.410000e-06	2.385281e-06	2.867313e-09	1.785853e+01	1.856214e+02
1.420000e-06	2.406871e-06	2.886159e-09	1.802018e+01	1.868321e+02
1.430000e-06	2.427596e-06	2.906037e-09	1.817534e+01	1.879801e+02
1.440000e-06	2.447616e-06	2.924542e-09	1.832523e+01	1.890671e+02
1.450000e-06	2.467090e-06	2.939799e-09	1.847103e+01	1.900954e+02
1.460000e-06	2.485773e-06	2.953099e-09	1.861091e+01	1.910677e+02
1.470000e-06	2.503440e-06	2.966512e-09	1.874319e+01	1.919873e+02
1.480000e-06	2.520159e-06	2.979531e-09	1.886836e+01	1.928571e+02
1.490000e-06	2.535957e-06	2.992588e-09	1.898664e+01	1.936796e+02
1.500000e-06	2.550719e-06	3.005439e-09	1.909717e+01	1.944568e+02
1.510000e-06	2.564484e-06	3.017206e-09	1.920022e+01	1.951900e+02
1.520000e-06	2.577310e-06	3.028017e-09	1.929625e+01	1.958797e+02
1.530000e-06	2.589259e-06	3.037788e-09	1.938571e+01	1.965256e+02
1.540000e-06	2.600190e-06	3.048073e-09	1.946755e+01	1.971273e+02
1.550000e-06	2.609856e-06	3.057373e-09	1.953992e+01	1.976840e+02
1.560000e-06	2.618353e-06	3.065553e-09	1.960354e+01	1.981951e+02
1.570000e-06	2.625946e-06	3.073817e-09	1.966039e+01	1.986606e+02
1.580000e-06	2.632694e-06	3.081223e-09	1.971091e+01	1.990810e+02
1.590000e-06	2.638567e-06	3.088325e-09	1.975488e+01	1.994575e+02
1.600000e-06	2.643532e-06	3.095620e-09	1.979205e+01	1.997921e+02
1.610000e-06	2.647674e-06	3.101443e-09	1.982306e+01	2.000871e+02
1.620000e-06	2.651160e-06	3.106576e-09	1.984916e+01	2.003455e+02
1.630000e-06	2.653713e-06	3.111395e-09	1.986827e+01	2.005698e+02
1.640000e-06	2.654957e-06	3.115843e-09	1.987759e+01	2.007623e+02
1.650000e-06	2.655079e-06	3.118582e-09	1.987850e+01	2.009248e+02
1.660000e-06	2.654390e-06	3.120126e-09	1.987335e+01	2.010579e+02
1.670000e-06	2.652906e-06	3.121834e-09	1.986224e+01	2.011616e+02
1.680000e-06	2.650608e-06	3.124680e-09	1.984503e+01	2.012347e+02
1.690000e-06	2.647485e-06	3.125661e-09	1.982165e+01	2.012755e+02
1.700000e-06	2.643636e-06	3.125448e-09	1.979283e+01	2.012815e+02
1.710000e-06	2.639157e-06	3.125880e-09	1.975929e+01	2.012502e+02
1.720000e-06	2.633835e-06	3.130011e-09	1.971945e+01	2.011790e+02
1.730000e-06	2.627394e-06	3.109155e-09	1.967123e+01	2.010655e+02
1.740000e-06	2.619735e-06	3.083178e-09	1.961388e+01	2.009079e+02
1.750000e-06	2.610736e-06	3.105592e-09	1.954651e+01	2.007047e+02
1.760000e-06	2.600493e-06	3.164038e-09	1.946982e+01	2.004549e+02
1.770000e-06	2.589784e-06	3.119844e-09	1.938964e+01	2.001577e+02
1.780000e-06	2.579034e-06	3.067924e-09	1.930916e+01	1.998124e+02
1.790000e-06	2.567241e-06	3.080332e-09	1.922086e+01	1.994180e+02
1.800000e-06	2.553445e-06	3.090928e-09	1.911757e+01	1.989735e+02
1.810000e-06	2.538614e-06	3.035969e-09	1.900653e+01	1.984773e+02
1.820000e-06	2.523466e-06	3.044827e-09	1.889312e+01	1.979276e+02
1.830000e-06	2.507124e-06	3.069345e-09	1.877077e+01	1.973222e+02
1.840000e-06	2.489497e-06	2.968054e-09	1.863879e+01	1.966593e+02
1.850000e-06	2.471396e-06	3.019347e-09	1.850328e+01	1.959375e+02
1.860000e-06	2.452727e-06	3.061699e-09	1.836350e+01	1.951561e+02
1.870000e-06	2.433052e-06	2.906046e-09	1.821619e+01	1.943159e+02
1.880000e-06	2.412693e-06	2.847904e-09	1.806376e+01	1.934188e+02
1.890000e-06	2.391657e-06	2.980238e-09	1.790627e+01	1.924688e+02
1.900000e-06	2.369334e-06	2.909685e-09	1.773914e+01	1.914708e+02
1.910000e-06	2.345742e-06	2.770433e-09	1.756250e+01	1.904314e+02
1.920000e-06	2.321392e-06	2.853761e-09	1.738020e+01	1.893577e+02
1.930000e-06	2.296435e-06	2.845919e-09	1.719335e+01	1.882570e+02
1.940000e-06	2.270699e-06	2.702407e-09	1.700066e+01	1.871361e+02
1.950000e-06	2.243943e-06	2.766730e-09	1.680034e+01	1.860005e+02
1.960000e-06	2.216394e-06	2.809217e-09	1.659408e+01	1.848540e+02
1.970000e-06	2.188352e-06	2.708008e-09	1.638413e+01	1.836980e+02
1.980000e-06	2.159478e-06	2.693622e-09	1.616795e+01	1.825316e+02
1.990000e-06	2.129759e-06	2.703690e-09	1.594544e+01	1.813515e+02
2.000000e-06	2.099529e-06	2.725124e-09	1.571912e+01	1.801522e+02
2.010000e-06	2.068372e-06	2.661052e-09	1.548584e+01	1.789268e+02
2.020000e-06	2.036206e-06	2.576992e-09	1.524502e+01	1.776675e+02
2.030000e-06	2.003515e-06	2.658134e-09	1.500026e+01	1.763663e+02
2.040000e-06	1.970177e-06	2.665243e-09	1.475066e+01	1.750159e+02
2.050000e-06	1.935970e-06	2.508821e-09	1.449455e+01	1.736102e+02
2.060000e-06	1.901110e-06	2.563445e-09	1.423356e+01	1.721448e+02
2.070000e-06	1.865734e-06	2.608554e-09	1.396870e+01	1.706175e+02
2.080000e-06	1.829783e-06	2.456674e-09	1.369953e+01	1.690279e+02
2.090000e-06	1.793303e-06	2.471157e-09	1.342641e+01	1.673773e+02
2.100000e-06	1.756252e-06	2.518224e-09	1.314901e+01	1.656683e+02
2.110000e-06	1.718418e-06	2.431135e-09	1.286575e+01	1.639044e+02
2.120000e-06	1.679513e-06	2.370520e-09	1.257447e+01	1.620889e+02
2.130000e-06	1.639711e-06	2.389543e-09	1.227647e+01	1.602248e+02
2.140000e-06	1.599526e-06	2.396789e-09	1.197560e+01	1.583140e+02
2.150000e-06	1.558971e-06	2.327493e-09	1.167197e+01	1.563571e+02
2.160000e-06	1.517813e-06	2.265546e-09	1.136382e+01	1.543533e+02
2.170000e-06	1.476127e-06	2.286076e-09	1.105172e+01	1.523002e+02
2.180000e-06	1.434026e-06	2.268978e-09	1.073651e+01	1.501943e+02
2.190000e-06	1.391453e-06	2.182315e-09	1.041777e+01	1.480312e+02
2.200000e-06	1.348332e-06	2.168520e-09	1.009492e+01	1.458060e+02
2.210000e-06	1.304747e-06	2.154314e-09	9.768603e+00	1.435139e+02
2.220000e-06	1.260837e-06	2.096651e-09	9.439853e+00	1.411505e+02
2.230000e-06	1.216655e-06	2.055655e-09	9.109060e+00	1.387121e+02
2.240000e-06	1.172264e-06	2.042697e-09	8.776706e+00	1.361955e+02
2.250000e-06	1.127517e-06	2.003569e-09	8.441686e+00	1.335990e+02
2.260000e-06	1.082186e-06	1.932565e-09	8.102299e+00	1.309210e+02
2.270000e-06	1.036300e-06	1.915024e-09	7.758750e+00	1.281611e+02
2.280000e-06	9.900062e-07	1.891069e-09	7.412149e+00	1.253186e+02
2.290000e-06	9.433986e-07	1.823309e-09	7.063199e+00	1.223935e+02
2.300000e-06	8.965242e-07	1.770551e-09	6.712252e+00	1.193850e+02
2.310000e-06	8.494454e-07	1.747261e-09	6.359774e+00	1.162924e+02
2.320000e-06	8.021732e-07	1.698082e-09	6.005849e+00	1.131142e+02
2.330000e-06	7.546308e-07	1.632740e-09	5.649900e+00	1.098484e+02
2.340000e-06	7.069125e-07	1.591559e-09	5.292634e+00	1.064924e+02
2.350000e-06	6.589764e-07	1.555597e-09	4.933738e+00	1.030434e+02
2.360000e-06	6.106024e-07	1.491090e-09	4.571564e+00	9.949782e+01
2.370000e-06	5.618236e-07	1.420584e-09	4.206358e+00	9.585203e+01
2.380000e-06	5.128646e-07	1.380546e-09	3.839803e+00	9.210210e+01
2.390000e-06	4.637155e-07	1.325772e-09	3.471825e+00	8.824395e+01
2.400000e-06	4.142388e-07	1.254822e-09	3.101395e+00	8.427338e+01
2.410000e-06	3.645701e-07	1.192500e-09	2.729526e+00	8.018610e+01
2.420000e-06	3.148639e-07	1.139236e-09	2.357378e+00	7.597781e+01
2.430000e-06	2.650693e-07	1.075757e-09	1.984567e+00	7.164430e+01
2.440000e-06	2.151288e-07	1.002348e-09	1.610664e+00	6.718167e+01
2.450000e-06	1.651378e-07	9.392321e-10	1.236382e+00	6.258650e+01
2.460000e-06	1.151199e-07	8.675302e-10	8.618992e-01	5.785627e+01
2.470000e-06	6.501658e-08	7.875975e-10	4.867773e-01	5.298969e+01
2.480000e-06	1.486756e-08	7.148733e-10	1.113130e-01	4.798715e+01
2.490000e-06	-3.525663e-08	6.453216e-10	-2.639654e-01	4.285108e+01
2.500000e-06	-8.533422e-08	5.603822e-10	-6.388949e-01	3.758625e+01
2.510000e-06	-1.354108e-07	4.721123e-10	-1.013817e+00	3.220004e+01
2.520000e-06	-1.854730e-07	3.957862e-10	-1.388631e+00	2.670240e+01
2.530000e-06	-2.354311e-07	3.192992e-10	-1.762666e+00	2.110574e+01
2.540000e-06	-2.853130e-07	2.310242e-10	-2.136131e+00	1.542458e+01
2.550000e-06	-3.350776e-07	1.394442e-10	-2.508717e+00	9.675103e+00
2.560000e-06	-3.845863e-07	5.739681e-11	-2.879387e+00	3.874464e+00
2.570000e-06	-4.339061e-07	-2.888720e-11	-3.248643e+00	-1.959827e+00
2.580000e-06	-4.830975e-07	-1.190014e-10	-3.616937e+00	-7.810609e+00
2.590000e-06	-5.319676e-07	-2.079593e-10	-3.982827e+00	-1.366166e+01
2.600000e-06	-5.804374e-07	-2.959988e-10	-4.345719e+00	-1.949813e+01
2.610000e-06	-6.286242e-07	-3.844911e-10	-4.706492e+00	-2.530689e+01
2.620000e-06	-6.765228e-07	-4.706321e-10	-5.065107e+00	-3.107651e+01
2.630000e-06	-7.240140e-07	-5.527830e-10	-5.420673e+00	-3.679722e+01
2.640000e-06	-7.711652e-07	-6.384597e-10	-5.773692e+00	-4.246060e+01
2.650000e-06	-8.181870e-07	-7.245512e-10	-6.125743e+00	-4.805921e+01
2.660000e-06	-8.650397e-07	-8.066871e-10	-6.476529e+00	-5.358616e+01
2.670000e-06	-9.115880e-07	-8.846130e-10	-6.825034e+00	-5.903470e+01
2.680000e-06	-9.578866e-07	-9.667654e-10	-7.171670e+00	-6.439798e+01
2.690000e-06	-1.003960e-06	-1.048893e-09	-7.516618e+00	-6.966883e+01
2.700000e-06	-1.049658e-06	-1.125162e-09	-7.858759e+00	-7.483984e+01
2.710000e-06	-1.094848e-06	-1.199356e-09	-8.197101e+00	-7.990349e+01
2.720000e-06	-1.139594e-06	-1.274636e-09	-8.532108e+00	-8.485251e+01
2.730000e-06	-1.184047e-06	-1.347635e-09	-8.864930e+00	-8.968025e+01
2.740000e-06	-1.228290e-06	-1.417058e-09	-9.196170e+00	-9.438117e+01
2.750000e-06	-1.272264e-06	-1.487662e-09	-9.525409e+00	-9.895112e+01
2.760000e-06	-1.315913e-06	-1.555597e-09	-9.852203e+00	-1.033877e+02
2.770000e-06	-1.359104e-06	-1.619917e-09	-1.017557e+01	-1.076903e+02
2.780000e-06	-1.401735e-06	-1.680337e-09	-1.049475e+01	-1.118601e+02
2.790000e-06	-1.443923e-06	-1.740764e-09	-1.081061e+01	-1.158996e+02
2.800000e-06	-1.485644e-06	-1.800907e-09	-1.112298e+01	-1.198123e+02
2.810000e-06	-1.526772e-06	-1.857763e-09	-1.143090e+01	-1.236024e+02
2.820000e-06	-1.567391e-06	-1.912638e-09	-1.173501e+01	-1.272740e+02
2.830000e-06	-1.607638e-06	-1.966396e-09	-1.203634e+01	-1.308303e+02
2.840000e-06	-1.647449e-06	-2.018326e-09	-1.233441e+01	-1.342740e+02
2.850000e-06	-1.686593e-06	-2.067700e-09	-1.262748e+01	-1.376063e+02
2.860000e-06	-1.724851e-06	-2.118184e-09	-1.291391e+01	-1.408272e+02
2.870000e-06	-1.762182e-06	-2.165034e-09	-1.319341e+01	-1.439357e+02
2.880000e-06	-1.798794e-06	-2.208642e-09	-1.346752e+01	-1.469302e+02
2.890000e-06	-1.834926e-06	-2.253946e-09	-1.373804e+01	-1.498086e+02
2.900000e-06	-1.870537e-06	-2.297823e-09	-1.400466e+01	-1.525693e+02
2.910000e-06	-1.905522e-06	-2.336926e-09	-1.426659e+01	-1.552115e+02
2.920000e-06	-1.939909e-06	-2.372963e-09	-1.452405e+01	-1.577355e+02
2.930000e-06	-1.973624e-06	-2.410830e-09	-1.477647e+01	-1.601430e+02
2.940000e-06	-2.006606e-06	-2.447734e-09	-1.502341e+01	-1.624377e+02
