# Temperatura_=_20.0
# Concentracion g/m^3_=_9000.0
# C_Vs_to_Am_M_A/Vsm_=_65563218390.804596
# pendiente_HvsI_1/m_=_3716.3
# ordenada_HvsI_A/m_=_1297.0
# frecuencia_Hz_=_301075.5701562709

Tiempo_(s)	Campo_(V.s)	Magnetizacion_(V.s)	Campo_(kA/m)	Magnetizacion_(A/m)
0.000000e+00	-2.650172e-06	-3.007692e-09	-1.977392e+01	-1.997746e+02
1.000000e-08	-2.650136e-06	-3.008683e-09	-1.977365e+01	-1.998859e+02
2.000000e-08	-2.649083e-06	-3.008392e-09	-1.976579e+01	-1.999509e+02
3.000000e-08	-2.646783e-06	-3.008990e-09	-1.974863e+01	-1.999698e+02
4.000000e-08	-2.643554e-06	-3.010431e-09	-1.972454e+01	-1.999450e+02
5.000000e-08	-2.639646e-06	-3.008764e-09	-1.969538e+01	-1.998802e+02
6.000000e-08	-2.634941e-06	-3.004998e-09	-1.966028e+01	-1.997804e+02
7.000000e-08	-2.629362e-06	-2.999921e-09	-1.961865e+01	-1.996510e+02
8.000000e-08	-2.622875e-06	-3.010418e-09	-1.957024e+01	-1.994967e+02
9.000000e-08	-2.615503e-06	-3.037499e-09	-1.951524e+01	-1.993207e+02
1.000000e-07	-2.606932e-06	-3.031197e-09	-1.945129e+01	-1.991238e+02
1.100000e-07	-2.596942e-06	-2.950494e-09	-1.937675e+01	-1.989033e+02
1.200000e-07	-2.585953e-06	-2.954435e-09	-1.929476e+01	-1.986529e+02
1.300000e-07	-2.574223e-06	-3.016335e-09	-1.920723e+01	-1.983629e+02
1.400000e-07	-2.561578e-06	-3.034695e-09	-1.911289e+01	-1.980206e+02
1.500000e-07	-2.548178e-06	-2.928820e-09	-1.901290e+01	-1.976113e+02
1.600000e-07	-2.533894e-06	-2.973937e-09	-1.890633e+01	-1.971199e+02
1.700000e-07	-2.518067e-06	-2.976852e-09	-1.878823e+01	-1.965325e+02
1.800000e-07	-2.501000e-06	-2.924831e-09	-1.866089e+01	-1.958382e+02
1.900000e-07	-2.483516e-06	-3.004953e-09	-1.853044e+01	-1.950304e+02
2.000000e-07	-2.465385e-06	-2.961359e-09	-1.839515e+01	-1.941083e+02
2.100000e-07	-2.446166e-06	-2.855796e-09	-1.825176e+01	-1.930772e+02
2.200000e-07	-2.426304e-06	-2.917559e-09	-1.810356e+01	-1.919483e+02
2.300000e-07	-2.405968e-06	-3.046555e-09	-1.795182e+01	-1.907386e+02
2.400000e-07	-2.384621e-06	-2.895011e-09	-1.779254e+01	-1.894690e+02
2.500000e-07	-2.362168e-06	-2.856118e-09	-1.762501e+01	-1.881628e+02
2.600000e-07	-2.339013e-06	-2.946883e-09	-1.745225e+01	-1.868433e+02
2.700000e-07	-2.315313e-06	-2.940608e-09	-1.727541e+01	-1.855321e+02
2.800000e-07	-2.290780e-06	-2.859158e-09	-1.709236e+01	-1.842470e+02
2.900000e-07	-2.265038e-06	-2.885840e-09	-1.690029e+01	-1.830000e+02
3.000000e-07	-2.238170e-06	-2.857694e-09	-1.669982e+01	-1.817973e+02
3.100000e-07	-2.210585e-06	-2.812454e-09	-1.649399e+01	-1.806381e+02
3.200000e-07	-2.182378e-06	-2.832090e-09	-1.628353e+01	-1.795154e+02
3.300000e-07	-2.153450e-06	-2.811365e-09	-1.606769e+01	-1.784171e+02
3.400000e-07	-2.123845e-06	-2.809511e-09	-1.584680e+01	-1.773275e+02
3.500000e-07	-2.093423e-06	-2.731438e-09	-1.561980e+01	-1.762290e+02
3.600000e-07	-2.062248e-06	-2.716194e-09	-1.538720e+01	-1.751040e+02
3.700000e-07	-2.030712e-06	-2.782724e-09	-1.515190e+01	-1.739367e+02
3.800000e-07	-1.998625e-06	-2.738117e-09	-1.491249e+01	-1.727141e+02
3.900000e-07	-1.965294e-06	-2.592773e-09	-1.466379e+01	-1.714277e+02
4.000000e-07	-1.930765e-06	-2.672951e-09	-1.440615e+01	-1.700727e+02
4.100000e-07	-1.895627e-06	-2.698467e-09	-1.414398e+01	-1.686486e+02
4.200000e-07	-1.859995e-06	-2.557367e-09	-1.387811e+01	-1.671583e+02
4.300000e-07	-1.823738e-06	-2.558916e-09	-1.360759e+01	-1.656067e+02
4.400000e-07	-1.786855e-06	-2.599549e-09	-1.333239e+01	-1.639999e+02
4.500000e-07	-1.749395e-06	-2.519487e-09	-1.305289e+01	-1.623439e+02
4.600000e-07	-1.711261e-06	-2.462923e-09	-1.276836e+01	-1.606433e+02
4.700000e-07	-1.672495e-06	-2.512495e-09	-1.247911e+01	-1.589008e+02
4.800000e-07	-1.633309e-06	-2.451152e-09	-1.218673e+01	-1.571169e+02
4.900000e-07	-1.593828e-06	-2.382357e-09	-1.189214e+01	-1.552897e+02
5.000000e-07	-1.553927e-06	-2.375021e-09	-1.159442e+01	-1.534155e+02
5.100000e-07	-1.513365e-06	-2.375402e-09	-1.129178e+01	-1.514893e+02
5.200000e-07	-1.471916e-06	-2.314100e-09	-1.098251e+01	-1.495056e+02
5.300000e-07	-1.429471e-06	-2.258501e-09	-1.066582e+01	-1.474589e+02
5.400000e-07	-1.386361e-06	-2.254349e-09	-1.034416e+01	-1.453447e+02
5.500000e-07	-1.342982e-06	-2.227963e-09	-1.002049e+01	-1.431600e+02
5.600000e-07	-1.299314e-06	-2.184733e-09	-9.694663e+00	-1.409027e+02
5.700000e-07	-1.255221e-06	-2.131847e-09	-9.365671e+00	-1.385723e+02
5.800000e-07	-1.210686e-06	-2.118324e-09	-9.033378e+00	-1.361690e+02
5.900000e-07	-1.165758e-06	-2.076930e-09	-8.698150e+00	-1.336934e+02
6.000000e-07	-1.120401e-06	-2.028761e-09	-8.359728e+00	-1.311457e+02
6.100000e-07	-1.074604e-06	-1.994341e-09	-8.018017e+00	-1.285256e+02
6.200000e-07	-1.028409e-06	-1.957583e-09	-7.673341e+00	-1.258313e+02
6.300000e-07	-9.817743e-07	-1.900367e-09	-7.325383e+00	-1.230598e+02
6.400000e-07	-9.348042e-07	-1.850225e-09	-6.974921e+00	-1.202069e+02
6.500000e-07	-8.876295e-07	-1.826084e-09	-6.622933e+00	-1.172671e+02
6.600000e-07	-8.402624e-07	-1.768402e-09	-6.269510e+00	-1.142346e+02
6.700000e-07	-7.927080e-07	-1.709135e-09	-5.914689e+00	-1.111033e+02
6.800000e-07	-7.449025e-07	-1.666159e-09	-5.557995e+00	-1.078677e+02
6.900000e-07	-6.967662e-07	-1.628370e-09	-5.198831e+00	-1.045232e+02
7.000000e-07	-6.482364e-07	-1.560775e-09	-4.836733e+00	-1.010664e+02
7.100000e-07	-5.992805e-07	-1.498932e-09	-4.471455e+00	-9.749500e+01
7.200000e-07	-5.499819e-07	-1.456209e-09	-4.103620e+00	-9.380787e+01
7.300000e-07	-5.003166e-07	-1.397454e-09	-3.733048e+00	-9.000454e+01
7.400000e-07	-4.501971e-07	-1.329893e-09	-3.359088e+00	-8.608480e+01
7.500000e-07	-3.997706e-07	-1.267453e-09	-2.982837e+00	-8.204824e+01
7.600000e-07	-3.491523e-07	-1.213470e-09	-2.605155e+00	-7.789382e+01
7.700000e-07	-2.983799e-07	-1.140272e-09	-2.226324e+00	-7.361964e+01
7.800000e-07	-2.475413e-07	-1.069546e-09	-1.846998e+00	-6.922293e+01
7.900000e-07	-1.965962e-07	-1.004001e-09	-1.466878e+00	-6.470023e+01
8.000000e-07	-1.455322e-07	-9.337489e-10	-1.085870e+00	-6.004793e+01
8.100000e-07	-9.442840e-08	-8.557181e-10	-7.045654e-01	-5.526286e+01
8.200000e-07	-4.332710e-08	-7.799584e-10	-3.232796e-01	-5.034303e+01
8.300000e-07	7.807357e-09	-7.072320e-10	5.825359e-02	-4.528843e+01
8.400000e-07	5.898256e-08	-6.221158e-10	4.400908e-01	-4.010161e+01
8.500000e-07	1.101244e-07	-5.406545e-10	8.216787e-01	-3.478810e+01
8.600000e-07	1.611417e-07	-4.604419e-10	1.202338e+00	-2.935659e+01
8.700000e-07	2.120168e-07	-3.763011e-10	1.581936e+00	-2.381871e+01
8.800000e-07	2.628371e-07	-2.825747e-10	1.961125e+00	-1.818864e+01
8.900000e-07	3.135784e-07	-1.957822e-10	2.339725e+00	-1.248238e+01
9.000000e-07	3.640892e-07	-1.142778e-10	2.716605e+00	-6.716949e+00
9.100000e-07	4.143440e-07	-2.246365e-11	3.091575e+00	-9.094907e-01
9.200000e-07	4.644014e-07	7.364674e-11	3.465071e+00	4.923474e+00
9.300000e-07	5.142014e-07	1.643909e-10	3.836648e+00	1.076668e+01
9.400000e-07	5.636225e-07	2.493649e-10	4.205397e+00	1.660647e+01
9.500000e-07	6.125865e-07	3.411397e-10	4.570735e+00	2.243088e+01
9.600000e-07	6.611581e-07	4.315267e-10	4.933146e+00	2.822942e+01
9.700000e-07	7.094161e-07	5.217453e-10	5.293217e+00	3.399273e+01
9.800000e-07	7.573548e-07	6.112933e-10	5.650906e+00	3.971199e+01
9.900000e-07	8.050153e-07	7.016374e-10	6.006519e+00	4.537835e+01
1.000000e-06	8.524838e-07	7.892229e-10	6.360698e+00	5.098252e+01
1.010000e-06	8.997936e-07	8.751438e-10	6.713694e+00	5.651438e+01
1.020000e-06	9.468599e-07	9.631000e-10	7.064873e+00	6.196297e+01
1.030000e-06	9.936154e-07	1.044642e-09	7.413734e+00	6.731668e+01
1.040000e-06	1.039999e-06	1.123846e-09	7.759816e+00	7.256367e+01
1.050000e-06	1.085946e-06	1.202600e-09	8.102648e+00	7.769253e+01
1.060000e-06	1.131518e-06	1.282807e-09	8.442674e+00	8.269299e+01
1.070000e-06	1.176726e-06	1.356939e-09	8.779990e+00	8.755666e+01
1.080000e-06	1.221518e-06	1.426799e-09	9.114198e+00	9.227763e+01
1.090000e-06	1.265829e-06	1.497174e-09	9.444819e+00	9.685285e+01
1.100000e-06	1.309717e-06	1.567214e-09	9.772282e+00	1.012823e+02
1.110000e-06	1.353349e-06	1.634725e-09	1.009784e+01	1.055686e+02
1.120000e-06	1.396725e-06	1.696062e-09	1.042149e+01	1.097167e+02
1.130000e-06	1.439717e-06	1.758789e-09	1.074227e+01	1.137334e+02
1.140000e-06	1.482168e-06	1.819380e-09	1.105900e+01	1.176259e+02
1.150000e-06	1.523825e-06	1.876925e-09	1.136982e+01	1.214013e+02
1.160000e-06	1.564517e-06	1.931995e-09	1.167345e+01	1.250659e+02
1.170000e-06	1.604437e-06	1.988640e-09	1.197130e+01	1.286244e+02
1.180000e-06	1.643917e-06	2.041827e-09	1.226588e+01	1.320793e+02
1.190000e-06	1.683035e-06	2.091303e-09	1.255775e+01	1.354315e+02
1.200000e-06	1.721618e-06	2.142457e-09	1.284563e+01	1.386799e+02
1.210000e-06	1.759605e-06	2.190066e-09	1.312906e+01	1.418221e+02
1.220000e-06	1.796964e-06	2.235298e-09	1.340782e+01	1.448550e+02
1.230000e-06	1.833647e-06	2.278894e-09	1.368152e+01	1.477755e+02
1.240000e-06	1.869724e-06	2.321829e-09	1.395070e+01	1.505810e+02
1.250000e-06	1.905302e-06	2.360190e-09	1.421617e+01	1.532704e+02
1.260000e-06	1.940458e-06	2.399996e-09	1.447848e+01	1.558439e+02
1.270000e-06	1.974937e-06	2.439005e-09	1.473574e+01	1.583035e+02
1.280000e-06	2.008374e-06	2.473649e-09	1.498523e+01	1.606528e+02
1.290000e-06	2.040784e-06	2.506479e-09	1.522705e+01	1.628966e+02
1.300000e-06	2.072450e-06	2.539071e-09	1.546332e+01	1.650406e+02
1.310000e-06	2.103556e-06	2.571462e-09	1.569541e+01	1.670912e+02
1.320000e-06	2.134025e-06	2.602389e-09	1.592275e+01	1.690545e+02
1.330000e-06	2.163757e-06	2.632294e-09	1.614460e+01	1.709360e+02
1.340000e-06	2.192729e-06	2.659895e-09	1.636077e+01	1.727408e+02
1.350000e-06	2.220959e-06	2.688024e-09	1.657140e+01	1.744731e+02
1.360000e-06	2.248631e-06	2.715149e-09	1.677787e+01	1.761361e+02
1.370000e-06	2.275692e-06	2.740026e-09	1.697978e+01	1.777325e+02
1.380000e-06	2.301792e-06	2.762596e-09	1.717452e+01	1.792646e+02
1.390000e-06	2.326698e-06	2.783947e-09	1.736036e+01	1.807343e+02
1.400000e-06	2.350606e-06	2.806330e-09	1.753874e+01	1.821436e+02
1.410000e-06	2.373748e-06	2.828994e-09	1.771142e+01	1.834943e+02
1.420000e-06	2.396057e-06	2.849389e-09	1.787787e+01	1.847886e+02
1.430000e-06	2.417562e-06	2.866064e-09	1.803833e+01	1.860282e+02
1.440000e-06	2.438259e-06	2.884172e-09	1.819276e+01	1.872151e+02
1.450000e-06	2.458203e-06	2.903945e-09	1.834156e+01	1.883505e+02
1.460000e-06	2.477546e-06	2.921223e-09	1.848589e+01	1.894354e+02
1.470000e-06	2.496102e-06	2.935662e-09	1.862434e+01	1.904697e+02
1.480000e-06	2.513701e-06	2.950329e-09	1.875566e+01	1.914532e+02
1.490000e-06	2.530414e-06	2.965693e-09	1.888036e+01	1.923848e+02
1.500000e-06	2.546222e-06	2.980086e-09	1.899831e+01	1.932632e+02
1.510000e-06	2.560971e-06	2.992665e-09	1.910836e+01	1.940873e+02
1.520000e-06	2.574691e-06	3.004063e-09	1.921073e+01	1.948561e+02
1.530000e-06	2.587484e-06	3.015509e-09	1.930618e+01	1.955695e+02
1.540000e-06	2.599343e-06	3.026510e-09	1.939467e+01	1.962282e+02
1.550000e-06	2.610180e-06	3.036710e-09	1.947553e+01	1.968340e+02
1.560000e-06	2.619808e-06	3.045090e-09	1.954736e+01	1.973896e+02
1.570000e-06	2.628267e-06	3.053182e-09	1.961048e+01	1.978982e+02
1.580000e-06	2.635803e-06	3.062010e-09	1.966670e+01	1.983633e+02
1.590000e-06	2.642515e-06	3.070407e-09	1.971679e+01	1.987885e+02
1.600000e-06	2.648290e-06	3.077506e-09	1.975987e+01	1.991765e+02
1.610000e-06	2.653109e-06	3.082944e-09	1.979583e+01	1.995290e+02
1.620000e-06	2.657146e-06	3.087133e-09	1.982595e+01	1.998465e+02
1.630000e-06	2.660505e-06	3.093673e-09	1.985102e+01	2.001282e+02
1.640000e-06	2.662921e-06	3.101293e-09	1.986904e+01	2.003722e+02
1.650000e-06	2.664108e-06	3.106090e-09	1.987790e+01	2.005759e+02
1.660000e-06	2.664188e-06	3.107573e-09	1.987850e+01	2.007366e+02
1.670000e-06	2.663394e-06	3.107926e-09	1.987257e+01	2.008519e+02
1.680000e-06	2.661799e-06	3.110090e-09	1.986067e+01	2.009209e+02
1.690000e-06	2.659403e-06	3.113764e-09	1.984279e+01	2.009438e+02
1.700000e-06	2.656166e-06	3.115193e-09	1.981864e+01	2.009227e+02
1.710000e-06	2.652186e-06	3.115481e-09	1.978895e+01	2.008613e+02
1.720000e-06	2.647604e-06	3.117360e-09	1.975476e+01	2.007646e+02
1.730000e-06	2.642181e-06	3.122873e-09	1.971429e+01	2.006378e+02
1.740000e-06	2.635569e-06	3.091321e-09	1.966496e+01	2.004858e+02
1.750000e-06	2.627710e-06	3.064854e-09	1.960632e+01	2.003121e+02
1.760000e-06	2.618484e-06	3.104617e-09	1.953748e+01	2.001174e+02
1.770000e-06	2.608009e-06	3.164198e-09	1.945932e+01	1.998994e+02
1.780000e-06	2.597148e-06	3.105026e-09	1.937829e+01	1.996522e+02
1.790000e-06	2.586209e-06	3.035878e-09	1.929667e+01	1.993662e+02
1.800000e-06	2.574084e-06	3.081609e-09	1.920620e+01	1.990288e+02
1.810000e-06	2.560029e-06	3.091074e-09	1.910132e+01	1.986254e+02
1.820000e-06	2.545135e-06	3.040997e-09	1.899019e+01	1.981411e+02
1.830000e-06	2.529983e-06	3.060048e-09	1.887714e+01	1.975616e+02
1.840000e-06	2.513583e-06	3.066450e-09	1.875477e+01	1.968760e+02
1.850000e-06	2.495895e-06	2.950849e-09	1.862280e+01	1.960771e+02
1.860000e-06	2.477720e-06	3.035510e-09	1.848719e+01	1.951638e+02
1.870000e-06	2.458884e-06	3.090079e-09	1.834665e+01	1.941409e+02
1.880000e-06	2.439068e-06	2.872046e-09	1.819880e+01	1.930192e+02
1.890000e-06	2.418631e-06	2.837798e-09	1.804630e+01	1.918154e+02
1.900000e-06	2.397386e-06	2.991234e-09	1.788779e+01	1.905500e+02
1.910000e-06	2.374760e-06	2.861151e-09	1.771897e+01	1.892463e+02
1.920000e-06	2.350922e-06	2.703858e-09	1.754110e+01	1.879277e+02
1.930000e-06	2.326355e-06	2.821751e-09	1.735780e+01	1.866160e+02
1.940000e-06	2.301238e-06	2.775867e-09	1.717039e+01	1.853292e+02
1.950000e-06	2.275339e-06	2.637127e-09	1.697715e+01	1.840800e+02
1.960000e-06	2.248387e-06	2.750252e-09	1.677605e+01	1.828748e+02
1.970000e-06	2.220674e-06	2.748366e-09	1.656927e+01	1.817133e+02
1.980000e-06	2.192504e-06	2.623431e-09	1.635908e+01	1.805890e+02
1.990000e-06	2.163469e-06	2.658176e-09	1.614245e+01	1.794902e+02
2.000000e-06	2.133553e-06	2.664920e-09	1.591923e+01	1.784013e+02
2.010000e-06	2.103078e-06	2.672128e-09	1.569184e+01	1.773048e+02
2.020000e-06	2.071638e-06	2.607514e-09	1.545726e+01	1.761829e+02
2.030000e-06	2.039244e-06	2.518378e-09	1.521556e+01	1.750197e+02
2.040000e-06	2.006420e-06	2.624811e-09	1.497064e+01	1.738022e+02
2.050000e-06	1.972926e-06	2.630108e-09	1.472074e+01	1.725212e+02
2.060000e-06	1.938501e-06	2.454703e-09	1.446387e+01	1.711719e+02
2.070000e-06	1.903454e-06	2.523732e-09	1.420238e+01	1.697534e+02
2.080000e-06	1.867897e-06	2.583762e-09	1.393707e+01	1.682684e+02
2.090000e-06	1.831772e-06	2.434221e-09	1.366753e+01	1.667217e+02
2.100000e-06	1.795044e-06	2.449497e-09	1.339349e+01	1.651194e+02
2.110000e-06	1.757674e-06	2.480667e-09	1.311466e+01	1.634674e+02
2.120000e-06	1.719567e-06	2.405954e-09	1.283033e+01	1.617705e+02
2.130000e-06	1.680467e-06	2.361590e-09	1.253859e+01	1.600317e+02
2.140000e-06	1.640528e-06	2.365916e-09	1.224059e+01	1.582515e+02
2.150000e-06	1.600205e-06	2.377897e-09	1.193972e+01	1.564283e+02
2.160000e-06	1.559482e-06	2.314165e-09	1.163587e+01	1.545583e+02
2.170000e-06	1.518109e-06	2.249297e-09	1.132718e+01	1.526367e+02
2.180000e-06	1.476175e-06	2.271649e-09	1.101429e+01	1.506580e+02
2.190000e-06	1.433848e-06	2.261890e-09	1.069847e+01	1.486166e+02
2.200000e-06	1.391000e-06	2.174054e-09	1.037877e+01	1.465082e+02
2.210000e-06	1.347573e-06	2.148974e-09	1.005474e+01	1.443292e+02
2.220000e-06	1.303734e-06	2.143416e-09	9.727641e+00	1.420779e+02
2.230000e-06	1.259623e-06	2.099811e-09	9.398517e+00	1.397534e+02
2.240000e-06	1.215303e-06	2.046384e-09	9.067825e+00	1.373560e+02
2.250000e-06	1.170738e-06	2.025890e-09	8.735310e+00	1.348862e+02
2.260000e-06	1.125808e-06	2.002662e-09	8.400072e+00	1.323444e+02
2.270000e-06	1.080333e-06	1.928264e-09	8.060765e+00	1.297302e+02
2.280000e-06	1.034271e-06	1.905040e-09	7.717082e+00	1.270420e+02
2.290000e-06	9.878222e-07	1.888836e-09	7.370509e+00	1.242769e+02
2.300000e-06	9.410325e-07	1.823910e-09	7.021393e+00	1.214307e+02
2.310000e-06	8.939831e-07	1.764421e-09	6.670340e+00	1.184980e+02
2.320000e-06	8.468053e-07	1.739433e-09	6.318329e+00	1.154730e+02
2.330000e-06	7.994288e-07	1.700703e-09	5.964836e+00	1.123497e+02
2.340000e-06	7.517556e-07	1.632258e-09	5.609128e+00	1.091224e+02
2.350000e-06	7.037937e-07	1.583018e-09	5.251267e+00	1.057865e+02
2.360000e-06	6.555667e-07	1.550317e-09	4.891427e+00	1.023385e+02
2.370000e-06	6.069423e-07	1.491579e-09	4.528622e+00	9.877611e+01
2.380000e-06	5.579436e-07	1.420020e-09	4.163024e+00	9.509798e+01
2.390000e-06	5.087863e-07	1.378278e-09	3.796244e+00	9.130367e+01
2.400000e-06	4.594613e-07	1.324174e-09	3.428211e+00	8.739297e+01
2.410000e-06	4.098444e-07	1.251035e-09	3.058001e+00	8.336549e+01
2.420000e-06	3.600170e-07	1.185592e-09	2.686220e+00	7.922025e+01
2.430000e-06	3.101013e-07	1.133292e-09	2.313781e+00	7.495542e+01
2.440000e-06	2.600398e-07	1.070586e-09	1.940253e+00	7.056827e+01
2.450000e-06	2.098225e-07	9.896893e-10	1.565564e+00	6.605541e+01
2.460000e-06	1.595556e-07	9.231579e-10	1.190504e+00	6.141320e+01
2.470000e-06	1.092724e-07	8.565305e-10	8.153219e-01	5.663840e+01
2.480000e-06	5.895800e-08	7.790470e-10	4.399075e-01	5.172894e+01
2.490000e-06	8.641086e-09	6.989997e-10	6.447435e-02	4.668462e+01
2.500000e-06	-4.163056e-08	6.240110e-10	-3.106211e-01	4.150781e+01
2.510000e-06	-9.186555e-08	5.432997e-10	-6.854430e-01	3.620381e+01
2.520000e-06	-1.421010e-07	4.559699e-10	-1.060269e+00	3.078109e+01
2.530000e-06	-1.922663e-07	3.762675e-10	-1.434570e+00	2.525108e+01
2.540000e-06	-2.423331e-07	2.975462e-10	-1.808137e+00	1.962779e+01
2.550000e-06	-2.923558e-07	2.079613e-10	-2.181375e+00	1.392713e+01
2.560000e-06	-3.422489e-07	1.157497e-10	-2.553646e+00	8.166055e+00
2.570000e-06	-3.918876e-07	3.610603e-11	-2.924019e+00	2.361750e+00
2.580000e-06	-4.413670e-07	-4.951036e-11	-3.293203e+00	-3.469205e+00
2.590000e-06	-4.906758e-07	-1.435957e-10	-3.661114e+00	-9.311442e+00
2.600000e-06	-5.395808e-07	-2.338839e-10	-4.026013e+00	-1.515118e+01
2.610000e-06	-5.880303e-07	-3.173161e-10	-4.387512e+00	-2.097634e+01
2.620000e-06	-6.361730e-07	-4.036737e-10	-4.746723e+00	-2.677634e+01
2.630000e-06	-6.840773e-07	-4.945817e-10	-5.104155e+00	-3.254176e+01
2.640000e-06	-7.316293e-07	-5.781557e-10	-5.458958e+00	-3.826373e+01
2.650000e-06	-7.788828e-07	-6.607089e-10	-5.811534e+00	-4.393347e+01
2.660000e-06	-8.260005e-07	-7.456078e-10	-6.163097e+00	-4.954169e+01
2.670000e-06	-8.729194e-07	-8.287652e-10	-6.513176e+00	-5.507835e+01
2.680000e-06	-9.195693e-07	-9.064217e-10	-6.861248e+00	-6.053256e+01
2.690000e-06	-9.659985e-07	-9.876900e-10	-7.207674e+00	-6.589273e+01
2.700000e-06	-1.012180e-06	-1.069585e-09	-7.552253e+00	-7.114702e+01
2.710000e-06	-1.057963e-06	-1.145621e-09	-7.893856e+00	-7.628397e+01
2.720000e-06	-1.103270e-06	-1.220820e-09	-8.231909e+00	-8.129319e+01
2.730000e-06	-1.148180e-06	-1.297196e-09	-8.566999e+00	-8.616615e+01
2.740000e-06	-1.192770e-06	-1.370896e-09	-8.899697e+00	-9.089674e+01
2.750000e-06	-1.237107e-06	-1.438191e-09	-9.230513e+00	-9.548170e+01
2.760000e-06	-1.281193e-06	-1.504803e-09	-9.559458e+00	-9.992075e+01
2.770000e-06	-1.324977e-06	-1.570591e-09	-9.886143e+00	-1.042164e+02
2.780000e-06	-1.368269e-06	-1.634237e-09	-1.020916e+01	-1.083736e+02
2.790000e-06	-1.410982e-06	-1.693994e-09	-1.052786e+01	-1.123987e+02
2.800000e-06	-1.453260e-06	-1.753511e-09	-1.084331e+01	-1.162991e+02
2.810000e-06	-1.495053e-06	-1.812192e-09	-1.115514e+01	-1.200819e+02
2.820000e-06	-1.536264e-06	-1.865991e-09	-1.146264e+01	-1.237536e+02
2.830000e-06	-1.576980e-06	-1.918824e-09	-1.176643e+01	-1.273187e+02
2.840000e-06	-1.617338e-06	-1.972391e-09	-1.206756e+01	-1.307803e+02
2.850000e-06	-1.657276e-06	-2.024107e-09	-1.236555e+01	-1.341392e+02
2.860000e-06	-1.696531e-06	-2.071062e-09	-1.265845e+01	-1.373944e+02
2.870000e-06	-1.734872e-06	-2.118592e-09	-1.294452e+01	-1.405435e+02
2.880000e-06	-1.772275e-06	-2.166524e-09	-1.322360e+01	-1.435836e+02
2.890000e-06	-1.809005e-06	-2.211933e-09	-1.349766e+01	-1.465115e+02
2.900000e-06	-1.845245e-06	-2.256184e-09	-1.376806e+01	-1.493246e+02
2.910000e-06	-1.880943e-06	-2.298009e-09	-1.403441e+01	-1.520216e+02
2.920000e-06	-1.916005e-06	-2.336378e-09	-1.429603e+01	-1.546026e+02
2.930000e-06	-1.950419e-06	-2.373123e-09	-1.455280e+01	-1.570695e+02
2.940000e-06	-1.984129e-06	-2.410608e-09	-1.480432e+01	-1.594258e+02
