# Temperatura_=_20.0
# Concentracion g/m^3_=_9000.0
# C_Vs_to_Am_M_A/Vsm_=_65563218390.804596
# pendiente_HvsI_1/m_=_3716.3
# ordenada_HvsI_A/m_=_1297.0
# frecuencia_Hz_=_301080.0543114315

Tiempo_(s)	Campo_(V.s)	Magnetizacion_(V.s)	Campo_(kA/m)	Magnetizacion_(A/m)
0.000000e+00	-2.637873e-06	-2.977282e-09	-1.977506e+01	-1.970357e+02
1.000000e-08	-2.637687e-06	-2.981423e-09	-1.977366e+01	-1.971625e+02
2.000000e-08	-2.636456e-06	-2.985068e-09	-1.976444e+01	-1.972581e+02
3.000000e-08	-2.634014e-06	-2.985541e-09	-1.974613e+01	-1.973205e+02
4.000000e-08	-2.630633e-06	-2.986442e-09	-1.972078e+01	-1.973465e+02
5.000000e-08	-2.626551e-06	-2.986352e-09	-1.969018e+01	-1.973327e+02
6.000000e-08	-2.621717e-06	-2.981360e-09	-1.965394e+01	-1.972758e+02
7.000000e-08	-2.616038e-06	-2.971601e-09	-1.961137e+01	-1.971727e+02
8.000000e-08	-2.609448e-06	-2.986842e-09	-1.956197e+01	-1.970216e+02
9.000000e-08	-2.601865e-06	-3.031676e-09	-1.950512e+01	-1.968217e+02
1.000000e-07	-2.593034e-06	-3.026511e-09	-1.943892e+01	-1.965737e+02
1.100000e-07	-2.582917e-06	-2.920559e-09	-1.936307e+01	-1.962798e+02
1.200000e-07	-2.571818e-06	-2.893638e-09	-1.927987e+01	-1.959433e+02
1.300000e-07	-2.559872e-06	-2.987924e-09	-1.919031e+01	-1.955683e+02
1.400000e-07	-2.547055e-06	-3.031153e-09	-1.909423e+01	-1.951589e+02
1.500000e-07	-2.533491e-06	-2.926429e-09	-1.899255e+01	-1.947193e+02
1.600000e-07	-2.518930e-06	-2.940863e-09	-1.888339e+01	-1.942525e+02
1.700000e-07	-2.502849e-06	-2.947489e-09	-1.876284e+01	-1.937602e+02
1.800000e-07	-2.485738e-06	-2.921240e-09	-1.863456e+01	-1.932426e+02
1.900000e-07	-2.468255e-06	-3.003935e-09	-1.850350e+01	-1.926981e+02
2.000000e-07	-2.450056e-06	-2.966827e-09	-1.836707e+01	-1.921236e+02
2.100000e-07	-2.430833e-06	-2.816471e-09	-1.822296e+01	-1.915150e+02
2.200000e-07	-2.410957e-06	-2.870743e-09	-1.807396e+01	-1.908673e+02
2.300000e-07	-2.390519e-06	-3.045652e-09	-1.792075e+01	-1.901755e+02
2.400000e-07	-2.369026e-06	-2.907292e-09	-1.775962e+01	-1.894354e+02
2.500000e-07	-2.346451e-06	-2.795323e-09	-1.759038e+01	-1.886436e+02
2.600000e-07	-2.323208e-06	-2.900068e-09	-1.741614e+01	-1.877983e+02
2.700000e-07	-2.299396e-06	-2.949280e-09	-1.723764e+01	-1.868996e+02
2.800000e-07	-2.274800e-06	-2.842159e-09	-1.705324e+01	-1.859491e+02
2.900000e-07	-2.249077e-06	-2.822223e-09	-1.686041e+01	-1.849497e+02
3.000000e-07	-2.222214e-06	-2.830602e-09	-1.665903e+01	-1.839057e+02
3.100000e-07	-2.194574e-06	-2.811987e-09	-1.645182e+01	-1.828215e+02
3.200000e-07	-2.166345e-06	-2.792806e-09	-1.624020e+01	-1.817013e+02
3.300000e-07	-2.137479e-06	-2.777084e-09	-1.602380e+01	-1.805489e+02
3.400000e-07	-2.107860e-06	-2.789107e-09	-1.580177e+01	-1.793664e+02
3.500000e-07	-2.077362e-06	-2.711873e-09	-1.557313e+01	-1.781546e+02
3.600000e-07	-2.046158e-06	-2.689355e-09	-1.533921e+01	-1.769128e+02
3.700000e-07	-2.014572e-06	-2.771011e-09	-1.510242e+01	-1.756384e+02
3.800000e-07	-1.982404e-06	-2.715113e-09	-1.486127e+01	-1.743278e+02
3.900000e-07	-1.949084e-06	-2.562605e-09	-1.461148e+01	-1.729768e+02
4.000000e-07	-1.914695e-06	-2.662669e-09	-1.435368e+01	-1.715806e+02
4.100000e-07	-1.879669e-06	-2.708739e-09	-1.409111e+01	-1.701349e+02
4.200000e-07	-1.844048e-06	-2.545663e-09	-1.382408e+01	-1.686364e+02
4.300000e-07	-1.807831e-06	-2.531468e-09	-1.355257e+01	-1.670826e+02
4.400000e-07	-1.771083e-06	-2.611655e-09	-1.327709e+01	-1.654725e+02
4.500000e-07	-1.733754e-06	-2.537606e-09	-1.299725e+01	-1.638062e+02
4.600000e-07	-1.695723e-06	-2.454551e-09	-1.271214e+01	-1.620851e+02
4.700000e-07	-1.657043e-06	-2.489090e-09	-1.242217e+01	-1.603112e+02
4.800000e-07	-1.617876e-06	-2.457534e-09	-1.212856e+01	-1.584867e+02
4.900000e-07	-1.578355e-06	-2.398057e-09	-1.183228e+01	-1.566136e+02
5.000000e-07	-1.538521e-06	-2.376296e-09	-1.153366e+01	-1.546932e+02
5.100000e-07	-1.498224e-06	-2.362998e-09	-1.123157e+01	-1.527257e+02
5.200000e-07	-1.457003e-06	-2.307788e-09	-1.092256e+01	-1.507100e+02
5.300000e-07	-1.414706e-06	-2.270855e-09	-1.060547e+01	-1.486437e+02
5.400000e-07	-1.371733e-06	-2.269092e-09	-1.028332e+01	-1.465231e+02
5.500000e-07	-1.328378e-06	-2.233641e-09	-9.958306e+00	-1.443436e+02
5.600000e-07	-1.284687e-06	-2.175089e-09	-9.630770e+00	-1.420998e+02
5.700000e-07	-1.240628e-06	-2.138315e-09	-9.300481e+00	-1.397861e+02
5.800000e-07	-1.196246e-06	-2.136939e-09	-8.967770e+00	-1.373974e+02
5.900000e-07	-1.151482e-06	-2.084165e-09	-8.632190e+00	-1.349287e+02
6.000000e-07	-1.106204e-06	-2.018584e-09	-8.292757e+00	-1.323762e+02
6.100000e-07	-1.060435e-06	-1.992358e-09	-7.949646e+00	-1.297369e+02
6.200000e-07	-1.014334e-06	-1.971168e-09	-7.604046e+00	-1.270089e+02
6.300000e-07	-9.678742e-07	-1.910277e-09	-7.255758e+00	-1.241910e+02
6.400000e-07	-9.210219e-07	-1.851636e-09	-6.904524e+00	-1.212828e+02
6.500000e-07	-8.739299e-07	-1.823710e-09	-6.551495e+00	-1.182845e+02
6.600000e-07	-8.266185e-07	-1.777590e-09	-6.196821e+00	-1.151959e+02
6.700000e-07	-7.790746e-07	-1.722002e-09	-5.840403e+00	-1.120170e+02
6.800000e-07	-7.313622e-07	-1.671838e-09	-5.482723e+00	-1.087470e+02
6.900000e-07	-6.834559e-07	-1.624257e-09	-5.123589e+00	-1.053846e+02
7.000000e-07	-6.351737e-07	-1.561052e-09	-4.761638e+00	-1.019276e+02
7.100000e-07	-5.864952e-07	-1.509840e-09	-4.396715e+00	-9.837298e+01
7.200000e-07	-5.375562e-07	-1.466755e-09	-4.029839e+00	-9.471705e+01
7.300000e-07	-4.883363e-07	-1.402800e-09	-3.660858e+00	-9.095539e+01
7.400000e-07	-4.387395e-07	-1.334090e-09	-3.289050e+00	-8.708317e+01
7.500000e-07	-3.887489e-07	-1.281569e-09	-2.914291e+00	-8.309533e+01
7.600000e-07	-3.384488e-07	-1.231549e-09	-2.537212e+00	-7.898684e+01
7.700000e-07	-2.880198e-07	-1.154354e-09	-2.159167e+00	-7.475297e+01
7.800000e-07	-2.374925e-07	-1.078979e-09	-1.780384e+00	-7.038950e+01
7.900000e-07	-1.868332e-07	-1.017170e-09	-1.400612e+00	-6.589302e+01
8.000000e-07	-1.360913e-07	-9.517300e-10	-1.020221e+00	-6.126119e+01
8.100000e-07	-8.528496e-08	-8.733037e-10	-6.393465e-01	-5.649297e+01
8.200000e-07	-3.443246e-08	-7.953199e-10	-2.581261e-01	-5.158885e+01
8.300000e-07	1.645393e-08	-7.226083e-10	1.233484e-01	-4.655109e+01
8.400000e-07	6.734229e-08	-6.449829e-10	5.048376e-01	-4.138385e+01
8.500000e-07	1.181616e-07	-5.651820e-10	8.858093e-01	-3.609336e+01
8.600000e-07	1.688814e-07	-4.813296e-10	1.266034e+00	-3.068789e+01
8.700000e-07	2.195543e-07	-3.955335e-10	1.645909e+00	-2.517777e+01
8.800000e-07	2.701398e-07	-3.073848e-10	2.025128e+00	-1.957520e+01
8.900000e-07	3.205013e-07	-2.234606e-10	2.402667e+00	-1.389404e+01
9.000000e-07	3.705746e-07	-1.370908e-10	2.778046e+00	-8.149430e+00
9.100000e-07	4.203972e-07	-4.321467e-11	3.151546e+00	-2.357397e+00
9.200000e-07	4.699461e-07	5.046600e-11	3.522994e+00	3.465599e+00
9.300000e-07	5.191424e-07	1.376754e-10	3.891799e+00	9.303134e+00
9.400000e-07	5.680193e-07	2.224491e-10	4.258208e+00	1.513926e+01
9.500000e-07	6.165430e-07	3.133043e-10	4.621971e+00	2.095887e+01
9.600000e-07	6.647283e-07	4.026540e-10	4.983196e+00	2.674798e+01
9.700000e-07	7.126781e-07	4.905238e-10	5.342656e+00	3.249388e+01
9.800000e-07	7.604287e-07	5.786543e-10	5.700623e+00	3.818516e+01
9.900000e-07	8.080183e-07	6.693027e-10	6.057383e+00	4.381169e+01
1.000000e-06	8.554595e-07	7.564570e-10	6.413030e+00	4.936444e+01
1.010000e-06	9.026957e-07	8.408831e-10	6.767140e+00	5.483526e+01
1.020000e-06	9.496117e-07	9.264439e-10	7.118851e+00	6.021674e+01
1.030000e-06	9.961375e-07	1.007245e-09	7.467636e+00	6.550196e+01
1.040000e-06	1.042243e-06	1.084101e-09	7.813270e+00	7.068442e+01
1.050000e-06	1.087947e-06	1.160522e-09	8.155892e+00	7.575799e+01
1.060000e-06	1.133330e-06	1.238694e-09	8.496111e+00	8.071698e+01
1.070000e-06	1.178303e-06	1.311835e-09	8.833255e+00	8.555624e+01
1.080000e-06	1.222800e-06	1.382480e-09	9.166833e+00	9.027139e+01
1.090000e-06	1.266898e-06	1.454448e-09	9.497416e+00	9.485898e+01
1.100000e-06	1.310676e-06	1.526965e-09	9.825602e+00	9.931668e+01
1.110000e-06	1.354185e-06	1.595067e-09	1.015177e+01	1.036434e+02
1.120000e-06	1.397444e-06	1.657097e-09	1.047606e+01	1.078393e+02
1.130000e-06	1.440284e-06	1.718518e-09	1.079722e+01	1.119058e+02
1.140000e-06	1.482271e-06	1.778097e-09	1.111198e+01	1.158451e+02
1.150000e-06	1.523201e-06	1.836333e-09	1.141882e+01	1.196602e+02
1.160000e-06	1.563365e-06	1.893373e-09	1.171991e+01	1.233543e+02
1.170000e-06	1.603110e-06	1.950020e-09	1.201786e+01	1.269305e+02
1.180000e-06	1.642485e-06	2.001640e-09	1.231304e+01	1.303915e+02
1.190000e-06	1.681389e-06	2.052184e-09	1.260468e+01	1.337393e+02
1.200000e-06	1.719708e-06	2.104725e-09	1.289195e+01	1.369748e+02
1.210000e-06	1.757417e-06	2.153420e-09	1.317464e+01	1.400982e+02
1.220000e-06	1.794509e-06	2.198123e-09	1.345270e+01	1.431090e+02
1.230000e-06	1.830925e-06	2.241650e-09	1.372569e+01	1.460062e+02
1.240000e-06	1.866818e-06	2.284241e-09	1.399477e+01	1.487886e+02
1.250000e-06	1.902360e-06	2.323622e-09	1.426122e+01	1.514554e+02
1.260000e-06	1.937340e-06	2.362449e-09	1.452344e+01	1.540066e+02
1.270000e-06	1.971406e-06	2.397935e-09	1.477882e+01	1.564433e+02
1.280000e-06	2.004392e-06	2.431238e-09	1.502611e+01	1.587679e+02
1.290000e-06	2.036482e-06	2.465181e-09	1.526667e+01	1.609842e+02
1.300000e-06	2.067973e-06	2.499861e-09	1.550275e+01	1.630972e+02
1.310000e-06	2.098876e-06	2.532089e-09	1.573442e+01	1.651130e+02
1.320000e-06	2.129120e-06	2.560947e-09	1.596114e+01	1.670385e+02
1.330000e-06	2.158673e-06	2.590026e-09	1.618269e+01	1.688806e+02
1.340000e-06	2.187416e-06	2.618502e-09	1.639816e+01	1.706461e+02
1.350000e-06	2.215425e-06	2.645762e-09	1.660813e+01	1.723412e+02
1.360000e-06	2.242920e-06	2.670775e-09	1.681425e+01	1.739708e+02
1.370000e-06	2.269678e-06	2.694845e-09	1.701485e+01	1.755388e+02
1.380000e-06	2.295325e-06	2.718472e-09	1.720712e+01	1.770478e+02
1.390000e-06	2.319872e-06	2.741660e-09	1.739113e+01	1.784992e+02
1.400000e-06	2.343546e-06	2.763795e-09	1.756861e+01	1.798934e+02
1.410000e-06	2.366426e-06	2.784198e-09	1.774013e+01	1.812304e+02
1.420000e-06	2.388511e-06	2.803302e-09	1.790569e+01	1.825096e+02
1.430000e-06	2.409835e-06	2.821357e-09	1.806555e+01	1.837308e+02
1.440000e-06	2.430340e-06	2.840522e-09	1.821927e+01	1.848938e+02
1.450000e-06	2.450135e-06	2.858459e-09	1.836766e+01	1.859993e+02
1.460000e-06	2.469335e-06	2.873675e-09	1.851160e+01	1.870483e+02
1.470000e-06	2.487751e-06	2.889163e-09	1.864965e+01	1.880423e+02
1.480000e-06	2.505165e-06	2.905229e-09	1.878019e+01	1.889831e+02
1.490000e-06	2.521563e-06	2.918612e-09	1.890313e+01	1.898727e+02
1.500000e-06	2.537006e-06	2.930478e-09	1.901889e+01	1.907130e+02
1.510000e-06	2.551451e-06	2.943899e-09	1.912718e+01	1.915052e+02
1.520000e-06	2.564924e-06	2.957305e-09	1.922819e+01	1.922505e+02
1.530000e-06	2.577505e-06	2.968010e-09	1.932250e+01	1.929493e+02
1.540000e-06	2.589204e-06	2.976284e-09	1.941021e+01	1.936015e+02
1.550000e-06	2.599849e-06	2.986036e-09	1.949001e+01	1.942068e+02
1.560000e-06	2.609174e-06	2.996899e-09	1.955991e+01	1.947649e+02
1.570000e-06	2.617345e-06	3.005563e-09	1.962116e+01	1.952757e+02
1.580000e-06	2.624702e-06	3.011836e-09	1.967632e+01	1.957395e+02
1.590000e-06	2.631218e-06	3.018035e-09	1.972516e+01	1.961572e+02
1.600000e-06	2.636785e-06	3.024916e-09	1.976690e+01	1.965306e+02
1.610000e-06	2.641452e-06	3.030749e-09	1.980189e+01	1.968617e+02
1.620000e-06	2.645369e-06	3.035510e-09	1.983125e+01	1.971536e+02
1.630000e-06	2.648609e-06	3.041059e-09	1.985554e+01	1.974089e+02
1.640000e-06	2.650789e-06	3.047064e-09	1.987188e+01	1.976305e+02
1.650000e-06	2.651672e-06	3.052650e-09	1.987850e+01	1.978206e+02
1.660000e-06	2.651584e-06	3.055705e-09	1.987784e+01	1.979803e+02
1.670000e-06	2.650683e-06	3.055105e-09	1.987109e+01	1.981100e+02
1.680000e-06	2.648964e-06	3.054792e-09	1.985820e+01	1.982087e+02
1.690000e-06	2.646462e-06	3.057470e-09	1.983944e+01	1.982742e+02
1.700000e-06	2.643137e-06	3.058129e-09	1.981452e+01	1.983037e+02
1.710000e-06	2.639084e-06	3.056721e-09	1.978414e+01	1.982936e+02
1.720000e-06	2.634371e-06	3.062125e-09	1.974881e+01	1.982406e+02
1.730000e-06	2.628775e-06	3.069706e-09	1.970685e+01	1.981417e+02
1.740000e-06	2.621957e-06	3.028668e-09	1.965574e+01	1.979948e+02
1.750000e-06	2.613867e-06	2.982738e-09	1.959509e+01	1.977991e+02
1.760000e-06	2.604455e-06	3.036481e-09	1.952453e+01	1.975552e+02
1.770000e-06	2.593966e-06	3.119736e-09	1.944590e+01	1.972653e+02
1.780000e-06	2.583154e-06	3.064058e-09	1.936485e+01	1.969324e+02
1.790000e-06	2.572103e-06	2.969257e-09	1.928201e+01	1.965607e+02
1.800000e-06	2.559701e-06	2.997632e-09	1.918903e+01	1.961545e+02
1.810000e-06	2.545490e-06	3.024431e-09	1.908250e+01	1.957177e+02
1.820000e-06	2.530602e-06	2.979454e-09	1.897089e+01	1.952534e+02
1.830000e-06	2.515222e-06	3.010996e-09	1.885559e+01	1.947637e+02
1.840000e-06	2.498540e-06	2.999731e-09	1.873053e+01	1.942486e+02
1.850000e-06	2.480819e-06	2.876290e-09	1.859769e+01	1.937069e+02
1.860000e-06	2.462634e-06	2.980589e-09	1.846136e+01	1.931355e+02
1.870000e-06	2.443721e-06	3.067030e-09	1.831958e+01	1.925302e+02
1.880000e-06	2.423848e-06	2.838248e-09	1.817060e+01	1.918862e+02
1.890000e-06	2.403353e-06	2.786027e-09	1.801696e+01	1.911984e+02
1.900000e-06	2.382035e-06	3.007171e-09	1.785714e+01	1.904626e+02
1.910000e-06	2.359352e-06	2.924629e-09	1.768710e+01	1.896753e+02
1.920000e-06	2.335529e-06	2.735836e-09	1.750851e+01	1.888347e+02
1.930000e-06	2.311092e-06	2.868806e-09	1.732531e+01	1.879405e+02
1.940000e-06	2.286051e-06	2.898593e-09	1.713759e+01	1.869943e+02
1.950000e-06	2.260092e-06	2.738223e-09	1.694298e+01	1.859990e+02
1.960000e-06	2.233099e-06	2.784972e-09	1.674063e+01	1.849588e+02
1.970000e-06	2.205407e-06	2.821565e-09	1.653304e+01	1.838780e+02
1.980000e-06	2.177192e-06	2.734554e-09	1.632152e+01	1.827611e+02
1.990000e-06	2.148060e-06	2.724533e-09	1.610313e+01	1.816116e+02
2.000000e-06	2.118073e-06	2.728754e-09	1.587833e+01	1.804319e+02
2.010000e-06	2.087474e-06	2.752278e-09	1.564894e+01	1.792230e+02
2.020000e-06	2.055943e-06	2.680088e-09	1.541256e+01	1.779841e+02
2.030000e-06	2.023601e-06	2.587863e-09	1.517011e+01	1.767129e+02
2.040000e-06	1.990831e-06	2.702569e-09	1.492444e+01	1.754058e+02
2.050000e-06	1.957345e-06	2.699017e-09	1.467342e+01	1.740585e+02
2.060000e-06	1.922970e-06	2.499868e-09	1.441572e+01	1.726665e+02
2.070000e-06	1.888001e-06	2.567808e-09	1.415357e+01	1.712252e+02
2.080000e-06	1.852483e-06	2.650738e-09	1.388731e+01	1.697313e+02
2.090000e-06	1.816408e-06	2.491171e-09	1.361687e+01	1.681823e+02
2.100000e-06	1.779792e-06	2.465200e-09	1.334238e+01	1.665769e+02
2.110000e-06	1.742565e-06	2.517007e-09	1.306330e+01	1.649154e+02
2.120000e-06	1.704521e-06	2.467419e-09	1.277810e+01	1.631989e+02
2.130000e-06	1.665412e-06	2.406493e-09	1.248491e+01	1.614294e+02
2.140000e-06	1.625521e-06	2.391929e-09	1.218587e+01	1.596092e+02
2.150000e-06	1.585251e-06	2.403992e-09	1.188398e+01	1.577403e+02
2.160000e-06	1.544562e-06	2.358869e-09	1.157895e+01	1.558239e+02
2.170000e-06	1.503294e-06	2.292349e-09	1.126958e+01	1.538606e+02
2.180000e-06	1.461512e-06	2.300212e-09	1.095636e+01	1.518491e+02
2.190000e-06	1.419306e-06	2.284152e-09	1.063996e+01	1.497873e+02
2.200000e-06	1.376626e-06	2.202904e-09	1.032000e+01	1.476715e+02
2.210000e-06	1.333406e-06	2.186157e-09	9.995999e+00	1.454970e+02
2.220000e-06	1.289778e-06	2.180194e-09	9.668938e+00	1.432588e+02
2.230000e-06	1.245855e-06	2.118608e-09	9.339666e+00	1.409511e+02
2.240000e-06	1.201670e-06	2.065924e-09	9.008426e+00	1.385686e+02
2.250000e-06	1.157296e-06	2.064006e-09	8.675773e+00	1.361065e+02
2.260000e-06	1.112513e-06	2.037528e-09	8.340057e+00	1.335609e+02
2.270000e-06	1.067104e-06	1.955608e-09	7.999646e+00	1.309286e+02
2.280000e-06	1.021191e-06	1.926737e-09	7.655455e+00	1.282076e+02
2.290000e-06	9.749243e-07	1.916084e-09	7.308609e+00	1.253969e+02
2.300000e-06	9.283216e-07	1.855656e-09	6.959247e+00	1.224960e+02
2.310000e-06	8.814188e-07	1.791066e-09	6.607636e+00	1.195048e+02
2.320000e-06	8.343363e-07	1.757829e-09	6.254678e+00	1.164234e+02
2.330000e-06	7.870678e-07	1.716357e-09	5.900325e+00	1.132517e+02
2.340000e-06	7.395022e-07	1.655001e-09	5.543746e+00	1.099890e+02
2.350000e-06	6.917571e-07	1.607582e-09	5.185820e+00	1.066340e+02
2.360000e-06	6.437643e-07	1.567058e-09	4.826038e+00	1.031846e+02
2.370000e-06	5.953483e-07	1.502326e-09	4.463083e+00	9.963783e+01
2.380000e-06	5.466749e-07	1.436660e-09	4.098198e+00	9.599002e+01
2.390000e-06	4.978946e-07	1.398107e-09	3.732512e+00	9.223681e+01
2.400000e-06	4.487886e-07	1.339687e-09	3.364384e+00	8.837340e+01
2.410000e-06	3.992661e-07	1.261714e-09	2.993135e+00	8.439473e+01
2.420000e-06	3.495961e-07	1.199445e-09	2.620779e+00	8.029577e+01
2.430000e-06	2.998632e-07	1.151261e-09	2.247952e+00	7.607174e+01
2.440000e-06	2.499740e-07	1.087811e-09	1.873953e+00	7.171839e+01
2.450000e-06	1.999838e-07	1.007696e-09	1.499197e+00	6.723225e+01
2.460000e-06	1.499863e-07	9.398549e-10	1.124386e+00	6.261088e+01
2.470000e-06	9.997230e-08	8.744549e-10	7.494515e-01	5.785315e+01
2.480000e-06	4.992039e-08	7.984514e-10	3.742328e-01	5.295943e+01
2.490000e-06	-1.493537e-10	7.170109e-10	-1.119644e-03	4.793184e+01
2.500000e-06	-5.014952e-08	6.379590e-10	-3.759504e-01	4.277442e+01
2.510000e-06	-1.001606e-07	5.563497e-10	-7.508634e-01	3.749322e+01
2.520000e-06	-1.501655e-07	4.728007e-10	-1.125730e+00	3.209639e+01
2.530000e-06	-2.000935e-07	3.945378e-10	-1.500019e+00	2.659410e+01
2.540000e-06	-2.499585e-07	3.149796e-10	-1.873837e+00	2.099845e+01
2.550000e-06	-2.997231e-07	2.267727e-10	-2.246902e+00	1.532315e+01
2.560000e-06	-3.492953e-07	1.380668e-10	-2.618524e+00	9.583294e+00
2.570000e-06	-3.985908e-07	5.688691e-11	-2.988072e+00	3.794848e+00
2.580000e-06	-4.477220e-07	-3.303651e-11	-3.356388e+00	-2.025739e+00
2.590000e-06	-4.966170e-07	-1.302757e-10	-3.722934e+00	-7.862029e+00
2.600000e-06	-5.451458e-07	-2.203361e-10	-4.086735e+00	-1.369803e+01
2.610000e-06	-5.933100e-07	-3.036412e-10	-4.447803e+00	-1.951855e+01
2.620000e-06	-6.411682e-07	-3.894215e-10	-4.806576e+00	-2.530953e+01
2.630000e-06	-6.887688e-07	-4.776519e-10	-5.163418e+00	-3.105816e+01
2.640000e-06	-7.360548e-07	-5.607249e-10	-5.517902e+00	-3.675296e+01
2.650000e-06	-7.831107e-07	-6.428756e-10	-5.870661e+00	-4.238368e+01
2.660000e-06	-8.300064e-07	-7.267963e-10	-6.222219e+00	-4.794123e+01
2.670000e-06	-8.766584e-07	-8.106918e-10	-6.571950e+00	-5.341742e+01
2.680000e-06	-9.230703e-07	-8.919023e-10	-6.919881e+00	-5.880477e+01
2.690000e-06	-9.692994e-07	-9.748162e-10	-7.266441e+00	-6.409634e+01
2.700000e-06	-1.015280e-06	-1.056199e-09	-7.611136e+00	-6.928560e+01
2.710000e-06	-1.060837e-06	-1.132579e-09	-7.952661e+00	-7.436640e+01
2.720000e-06	-1.105866e-06	-1.206487e-09	-8.290226e+00	-7.933301e+01
2.730000e-06	-1.150504e-06	-1.279358e-09	-8.624860e+00	-8.418024e+01
2.740000e-06	-1.194876e-06	-1.351186e-09	-8.957497e+00	-8.890364e+01
2.750000e-06	-1.239017e-06	-1.420229e-09	-9.288404e+00	-9.349968e+01
2.760000e-06	-1.282892e-06	-1.488249e-09	-9.617315e+00	-9.796597e+01
2.770000e-06	-1.326410e-06	-1.554370e-09	-9.943550e+00	-1.023013e+02
2.780000e-06	-1.369462e-06	-1.619255e-09	-1.026630e+01	-1.065058e+02
2.790000e-06	-1.411986e-06	-1.681400e-09	-1.058508e+01	-1.105807e+02
2.800000e-06	-1.454049e-06	-1.741954e-09	-1.090041e+01	-1.145283e+02
2.810000e-06	-1.495601e-06	-1.799794e-09	-1.121191e+01	-1.183514e+02
2.820000e-06	-1.536542e-06	-1.853258e-09	-1.151883e+01	-1.220533e+02
2.830000e-06	-1.576983e-06	-1.906984e-09	-1.182200e+01	-1.256371e+02
2.840000e-06	-1.617106e-06	-1.961190e-09	-1.212278e+01	-1.291055e+02
2.850000e-06	-1.656756e-06	-2.012022e-09	-1.242002e+01	-1.324605e+02
2.860000e-06	-1.695628e-06	-2.059294e-09	-1.271143e+01	-1.357033e+02
2.870000e-06	-1.733592e-06	-2.106731e-09	-1.299603e+01	-1.388340e+02
2.880000e-06	-1.770711e-06	-2.153303e-09	-1.327429e+01	-1.418522e+02
2.890000e-06	-1.807178e-06	-2.199017e-09	-1.354768e+01	-1.447567e+02
2.900000e-06	-1.843156e-06	-2.243298e-09	-1.381739e+01	-1.475466e+02
2.910000e-06	-1.878584e-06	-2.283750e-09	-1.408297e+01	-1.502209e+02
2.920000e-06	-1.913321e-06	-2.321050e-09	-1.434339e+01	-1.527797e+02
2.930000e-06	-1.947389e-06	-2.358334e-09	-1.459878e+01	-1.552238e+02
2.940000e-06	-1.980779e-06	-2.395998e-09	-1.484909e+01	-1.575555e+02
