# Temperatura_=_20.0
# Concentracion g/m^3_=_9000.0
# C_Vs_to_Am_M_A/Vsm_=_65563218390.804596
# pendiente_HvsI_1/m_=_3716.3
# ordenada_HvsI_A/m_=_1297.0
# frecuencia_Hz_=_301080.78927699703

Tiempo_(s)	Campo_(V.s)	Magnetizacion_(V.s)	Campo_(kA/m)	Magnetizacion_(A/m)
0.000000e+00	-2.639431e-06	-2.973015e-09	-1.977288e+01	-1.970161e+02
1.000000e-08	-2.639275e-06	-2.975717e-09	-1.977172e+01	-1.971277e+02
2.000000e-08	-2.638039e-06	-2.976491e-09	-1.976246e+01	-1.972127e+02
3.000000e-08	-2.635628e-06	-2.975973e-09	-1.974439e+01	-1.972677e+02
4.000000e-08	-2.632317e-06	-2.977950e-09	-1.971959e+01	-1.972881e+02
5.000000e-08	-2.628280e-06	-2.978417e-09	-1.968935e+01	-1.972684e+02
6.000000e-08	-2.623429e-06	-2.973440e-09	-1.965301e+01	-1.972036e+02
7.000000e-08	-2.617669e-06	-2.966892e-09	-1.960986e+01	-1.970896e+02
8.000000e-08	-2.611025e-06	-2.980323e-09	-1.956008e+01	-1.969239e+02
9.000000e-08	-2.603468e-06	-3.009212e-09	-1.950347e+01	-1.967063e+02
1.000000e-07	-2.594773e-06	-2.998979e-09	-1.943834e+01	-1.964388e+02
1.100000e-07	-2.584768e-06	-2.922814e-09	-1.936339e+01	-1.961258e+02
1.200000e-07	-2.573735e-06	-2.910861e-09	-1.928073e+01	-1.957733e+02
1.300000e-07	-2.561876e-06	-2.972190e-09	-1.919189e+01	-1.953883e+02
1.400000e-07	-2.549186e-06	-2.995135e-09	-1.909683e+01	-1.949781e+02
1.500000e-07	-2.535755e-06	-2.927147e-09	-1.899622e+01	-1.945488e+02
1.600000e-07	-2.521287e-06	-2.936246e-09	-1.888782e+01	-1.941050e+02
1.700000e-07	-2.505340e-06	-2.932619e-09	-1.876837e+01	-1.936488e+02
1.800000e-07	-2.488279e-06	-2.909446e-09	-1.864056e+01	-1.931795e+02
1.900000e-07	-2.470742e-06	-2.977305e-09	-1.850918e+01	-1.926934e+02
2.000000e-07	-2.452523e-06	-2.936474e-09	-1.837269e+01	-1.921846e+02
2.100000e-07	-2.433343e-06	-2.830233e-09	-1.822901e+01	-1.916451e+02
2.200000e-07	-2.413500e-06	-2.890707e-09	-1.808036e+01	-1.910660e+02
2.300000e-07	-2.393065e-06	-3.007619e-09	-1.792727e+01	-1.904386e+02
2.400000e-07	-2.371664e-06	-2.891780e-09	-1.776695e+01	-1.897552e+02
2.500000e-07	-2.349163e-06	-2.828141e-09	-1.759839e+01	-1.890102e+02
2.600000e-07	-2.325929e-06	-2.919153e-09	-1.742433e+01	-1.882006e+02
2.700000e-07	-2.302147e-06	-2.921839e-09	-1.724617e+01	-1.873261e+02
2.800000e-07	-2.277613e-06	-2.836634e-09	-1.706238e+01	-1.863896e+02
2.900000e-07	-2.251963e-06	-2.859554e-09	-1.687023e+01	-1.853963e+02
3.000000e-07	-2.225158e-06	-2.856476e-09	-1.666943e+01	-1.843528e+02
3.100000e-07	-2.197583e-06	-2.786393e-09	-1.646285e+01	-1.832669e+02
3.200000e-07	-2.169404e-06	-2.803943e-09	-1.625175e+01	-1.821459e+02
3.300000e-07	-2.140564e-06	-2.823615e-09	-1.603570e+01	-1.809962e+02
3.400000e-07	-2.111015e-06	-2.772465e-09	-1.581434e+01	-1.798221e+02
3.500000e-07	-2.080656e-06	-2.703569e-09	-1.558691e+01	-1.786256e+02
3.600000e-07	-2.049540e-06	-2.740191e-09	-1.535381e+01	-1.774061e+02
3.700000e-07	-2.017973e-06	-2.758851e-09	-1.511733e+01	-1.761608e+02
3.800000e-07	-1.985832e-06	-2.676286e-09	-1.487655e+01	-1.748846e+02
3.900000e-07	-1.952628e-06	-2.620190e-09	-1.462781e+01	-1.735712e+02
4.000000e-07	-1.918312e-06	-2.677073e-09	-1.437074e+01	-1.722140e+02
4.100000e-07	-1.883270e-06	-2.660401e-09	-1.410822e+01	-1.708062e+02
4.200000e-07	-1.847679e-06	-2.581519e-09	-1.384160e+01	-1.693424e+02
4.300000e-07	-1.811463e-06	-2.591006e-09	-1.357029e+01	-1.678182e+02
4.400000e-07	-1.774703e-06	-2.584260e-09	-1.329491e+01	-1.662311e+02
4.500000e-07	-1.737355e-06	-2.528231e-09	-1.301512e+01	-1.645804e+02
4.600000e-07	-1.699294e-06	-2.501208e-09	-1.272999e+01	-1.628668e+02
4.700000e-07	-1.660634e-06	-2.507616e-09	-1.244038e+01	-1.610919e+02
4.800000e-07	-1.621516e-06	-2.454741e-09	-1.214734e+01	-1.592579e+02
4.900000e-07	-1.582029e-06	-2.412626e-09	-1.185153e+01	-1.573671e+02
5.000000e-07	-1.542207e-06	-2.404648e-09	-1.155320e+01	-1.554211e+02
5.100000e-07	-1.501903e-06	-2.378782e-09	-1.125127e+01	-1.534206e+02
5.200000e-07	-1.460770e-06	-2.325708e-09	-1.094313e+01	-1.513650e+02
5.300000e-07	-1.418574e-06	-2.292463e-09	-1.062702e+01	-1.492528e+02
5.400000e-07	-1.375605e-06	-2.279619e-09	-1.030513e+01	-1.470814e+02
5.500000e-07	-1.332258e-06	-2.235783e-09	-9.980402e+00	-1.448473e+02
5.600000e-07	-1.288627e-06	-2.194805e-09	-9.653548e+00	-1.425470e+02
5.700000e-07	-1.244596e-06	-2.160414e-09	-9.323697e+00	-1.401770e+02
5.800000e-07	-1.200144e-06	-2.130657e-09	-8.990692e+00	-1.377341e+02
5.900000e-07	-1.155316e-06	-2.086135e-09	-8.654868e+00	-1.352162e+02
6.000000e-07	-1.110031e-06	-2.046134e-09	-8.315625e+00	-1.326215e+02
6.100000e-07	-1.064321e-06	-2.009997e-09	-7.973196e+00	-1.299492e+02
6.200000e-07	-1.018246e-06	-1.964589e-09	-7.628029e+00	-1.271990e+02
6.300000e-07	-9.717261e-07	-1.915428e-09	-7.279534e+00	-1.243708e+02
6.400000e-07	-9.248136e-07	-1.869937e-09	-6.928096e+00	-1.214642e+02
6.500000e-07	-8.776795e-07	-1.833111e-09	-6.574999e+00	-1.184784e+02
6.600000e-07	-8.303767e-07	-1.781453e-09	-6.220637e+00	-1.154117e+02
6.700000e-07	-7.828883e-07	-1.730917e-09	-5.864885e+00	-1.122614e+02
6.800000e-07	-7.351897e-07	-1.684389e-09	-5.507559e+00	-1.090236e+02
6.900000e-07	-6.872149e-07	-1.635308e-09	-5.148163e+00	-1.056935e+02
7.000000e-07	-6.388567e-07	-1.578530e-09	-4.785895e+00	-1.022654e+02
7.100000e-07	-5.901428e-07	-1.526711e-09	-4.420963e+00	-9.873297e+01
7.200000e-07	-5.412031e-07	-1.474998e-09	-4.054339e+00	-9.508986e+01
7.300000e-07	-4.920162e-07	-1.409856e-09	-3.685863e+00	-9.132987e+01
7.400000e-07	-4.424338e-07	-1.349658e-09	-3.314424e+00	-8.744739e+01
7.500000e-07	-3.924439e-07	-1.294063e-09	-2.939932e+00	-8.343762e+01
7.600000e-07	-3.421340e-07	-1.233081e-09	-2.563044e+00	-7.929685e+01
7.700000e-07	-2.915986e-07	-1.159456e-09	-2.184466e+00	-7.502253e+01
7.800000e-07	-2.409390e-07	-1.090853e-09	-1.804957e+00	-7.061330e+01
7.900000e-07	-1.902203e-07	-1.027203e-09	-1.425006e+00	-6.606904e+01
8.000000e-07	-1.394089e-07	-9.576110e-10	-1.044360e+00	-6.139077e+01
8.100000e-07	-8.850637e-08	-8.813354e-10	-6.630316e-01	-5.658064e+01
8.200000e-07	-3.756532e-08	-8.031099e-10	-2.814148e-01	-5.164194e+01
8.300000e-07	1.338872e-08	-7.271511e-10	1.002995e-01	-4.657906e+01
8.400000e-07	6.434962e-08	-6.476425e-10	4.820651e-01	-4.139763e+01
8.500000e-07	1.153000e-07	-5.680390e-10	8.637521e-01	-3.610451e+01
8.600000e-07	1.661109e-07	-4.832485e-10	1.244394e+00	-3.070793e+01
8.700000e-07	2.167702e-07	-3.960965e-10	1.623900e+00	-2.521747e+01
8.800000e-07	2.673756e-07	-3.106196e-10	2.003002e+00	-1.964407e+01
8.900000e-07	3.178700e-07	-2.293376e-10	2.381273e+00	-1.399991e+01
9.000000e-07	3.680625e-07	-1.447618e-10	2.757282e+00	-8.298223e+00
9.100000e-07	4.179327e-07	-5.146455e-11	3.130877e+00	-2.553022e+00
9.200000e-07	4.675517e-07	4.044868e-11	3.502591e+00	3.221260e+00
9.300000e-07	5.168744e-07	1.285413e-10	3.872083e+00	9.010135e+00
9.400000e-07	5.658080e-07	2.144244e-10	4.238662e+00	1.479944e+01
9.500000e-07	6.143545e-07	3.042718e-10	4.602341e+00	2.057566e+01
9.600000e-07	6.625851e-07	3.945924e-10	4.963653e+00	2.632617e+01
9.700000e-07	7.105372e-07	4.833665e-10	5.322878e+00	3.203938e+01
9.800000e-07	7.582622e-07	5.685095e-10	5.680402e+00	3.770475e+01
9.900000e-07	8.058047e-07	6.528018e-10	6.036560e+00	4.331272e+01
1.000000e-06	8.531783e-07	7.392360e-10	6.391452e+00	4.885451e+01
1.010000e-06	9.003879e-07	8.256172e-10	6.745115e+00	5.432195e+01
1.020000e-06	9.473626e-07	9.098376e-10	7.097019e+00	5.970727e+01
1.030000e-06	9.939473e-07	9.889438e-10	7.446001e+00	6.500289e+01
1.040000e-06	1.040085e-06	1.069135e-09	7.791633e+00	7.020142e+01
1.050000e-06	1.085855e-06	1.149867e-09	8.134516e+00	7.529560e+01
1.060000e-06	1.131274e-06	1.227678e-09	8.474762e+00	8.027850e+01
1.070000e-06	1.176264e-06	1.299666e-09	8.811794e+00	8.514372e+01
1.080000e-06	1.220822e-06	1.369339e-09	9.145600e+00	8.988570e+01
1.090000e-06	1.264970e-06	1.439758e-09	9.476324e+00	9.449997e+01
1.100000e-06	1.308767e-06	1.510008e-09	9.804425e+00	9.898346e+01
1.110000e-06	1.352315e-06	1.578570e-09	1.013065e+01	1.033347e+02
1.120000e-06	1.395617e-06	1.641035e-09	1.045505e+01	1.075537e+02
1.130000e-06	1.438460e-06	1.701248e-09	1.077600e+01	1.116420e+02
1.140000e-06	1.480525e-06	1.762622e-09	1.109112e+01	1.156025e+02
1.150000e-06	1.521644e-06	1.824820e-09	1.139916e+01	1.194388e+02
1.160000e-06	1.561909e-06	1.883149e-09	1.170079e+01	1.231549e+02
1.170000e-06	1.601604e-06	1.938406e-09	1.199817e+01	1.267548e+02
1.180000e-06	1.640938e-06	1.990816e-09	1.229283e+01	1.302420e+02
1.190000e-06	1.679906e-06	2.042413e-09	1.258475e+01	1.336190e+02
1.200000e-06	1.718312e-06	2.093877e-09	1.287246e+01	1.368874e+02
1.210000e-06	1.756088e-06	2.141156e-09	1.315546e+01	1.400477e+02
1.220000e-06	1.793249e-06	2.186827e-09	1.343384e+01	1.430993e+02
1.230000e-06	1.829738e-06	2.230747e-09	1.370720e+01	1.460414e+02
1.240000e-06	1.865644e-06	2.273456e-09	1.397618e+01	1.488726e+02
1.250000e-06	1.901152e-06	2.315092e-09	1.424218e+01	1.515919e+02
1.260000e-06	1.936197e-06	2.355725e-09	1.450472e+01	1.541991e+02
1.270000e-06	1.970385e-06	2.392294e-09	1.476083e+01	1.566948e+02
1.280000e-06	2.003524e-06	2.426789e-09	1.500909e+01	1.590808e+02
1.290000e-06	2.035747e-06	2.462413e-09	1.525048e+01	1.613603e+02
1.300000e-06	2.067303e-06	2.497619e-09	1.548688e+01	1.635374e+02
1.310000e-06	2.098287e-06	2.530991e-09	1.571899e+01	1.656169e+02
1.320000e-06	2.128593e-06	2.561872e-09	1.594602e+01	1.676041e+02
1.330000e-06	2.158192e-06	2.591678e-09	1.616776e+01	1.695042e+02
1.340000e-06	2.187052e-06	2.619823e-09	1.638396e+01	1.713217e+02
1.350000e-06	2.215165e-06	2.647140e-09	1.659456e+01	1.730606e+02
1.360000e-06	2.242713e-06	2.672743e-09	1.680093e+01	1.747238e+02
1.370000e-06	2.269595e-06	2.696318e-09	1.700232e+01	1.763133e+02
1.380000e-06	2.295377e-06	2.719681e-09	1.719546e+01	1.778301e+02
1.390000e-06	2.319964e-06	2.742918e-09	1.737965e+01	1.792750e+02
1.400000e-06	2.343649e-06	2.764390e-09	1.755708e+01	1.806484e+02
1.410000e-06	2.366629e-06	2.783947e-09	1.772923e+01	1.819513e+02
1.420000e-06	2.388812e-06	2.802975e-09	1.789541e+01	1.831850e+02
1.430000e-06	2.410144e-06	2.821067e-09	1.805522e+01	1.843519e+02
1.440000e-06	2.430675e-06	2.839046e-09	1.820902e+01	1.854553e+02
1.450000e-06	2.450533e-06	2.855534e-09	1.835778e+01	1.864991e+02
1.460000e-06	2.469734e-06	2.869939e-09	1.850163e+01	1.874881e+02
1.470000e-06	2.488047e-06	2.884756e-09	1.863882e+01	1.884271e+02
1.480000e-06	2.505422e-06	2.899831e-09	1.876898e+01	1.893204e+02
1.490000e-06	2.521931e-06	2.913673e-09	1.889265e+01	1.901717e+02
1.500000e-06	2.537536e-06	2.926891e-09	1.900956e+01	1.909835e+02
1.510000e-06	2.552144e-06	2.940307e-09	1.911899e+01	1.917567e+02
1.520000e-06	2.565741e-06	2.952099e-09	1.922084e+01	1.924909e+02
1.530000e-06	2.578409e-06	2.961743e-09	1.931575e+01	1.931844e+02
1.540000e-06	2.590162e-06	2.970793e-09	1.940380e+01	1.938343e+02
1.550000e-06	2.600855e-06	2.980702e-09	1.948390e+01	1.944377e+02
1.560000e-06	2.610324e-06	2.989246e-09	1.955483e+01	1.949916e+02
1.570000e-06	2.618620e-06	2.997413e-09	1.961698e+01	1.954937e+02
1.580000e-06	2.625999e-06	3.006373e-09	1.967226e+01	1.959433e+02
1.590000e-06	2.632591e-06	3.013659e-09	1.972164e+01	1.963409e+02
1.600000e-06	2.638289e-06	3.019917e-09	1.976433e+01	1.966887e+02
1.610000e-06	2.643053e-06	3.025901e-09	1.980002e+01	1.969904e+02
1.620000e-06	2.647025e-06	3.031026e-09	1.982978e+01	1.972505e+02
1.630000e-06	2.650262e-06	3.035496e-09	1.985403e+01	1.974742e+02
1.640000e-06	2.652510e-06	3.039132e-09	1.987086e+01	1.976664e+02
1.650000e-06	2.653529e-06	3.042938e-09	1.987850e+01	1.978307e+02
1.660000e-06	2.653481e-06	3.046753e-09	1.987814e+01	1.979697e+02
1.670000e-06	2.652601e-06	3.047554e-09	1.987155e+01	1.980838e+02
1.680000e-06	2.650904e-06	3.047092e-09	1.985883e+01	1.981714e+02
1.690000e-06	2.648427e-06	3.049336e-09	1.984028e+01	1.982294e+02
1.700000e-06	2.645137e-06	3.051927e-09	1.981563e+01	1.982530e+02
1.710000e-06	2.641091e-06	3.052012e-09	1.978532e+01	1.982371e+02
1.720000e-06	2.636402e-06	3.054121e-09	1.975019e+01	1.981763e+02
1.730000e-06	2.630856e-06	3.054157e-09	1.970865e+01	1.980665e+02
1.740000e-06	2.624136e-06	3.022741e-09	1.965830e+01	1.979052e+02
1.750000e-06	2.616142e-06	2.995602e-09	1.959842e+01	1.976919e+02
1.760000e-06	2.606832e-06	3.034411e-09	1.952867e+01	1.974285e+02
1.770000e-06	2.596413e-06	3.088395e-09	1.945062e+01	1.971192e+02
1.780000e-06	2.585608e-06	3.048939e-09	1.936968e+01	1.967699e+02
1.790000e-06	2.574633e-06	2.980603e-09	1.928746e+01	1.963877e+02
1.800000e-06	2.562444e-06	3.001243e-09	1.919615e+01	1.959797e+02
1.810000e-06	2.548383e-06	3.001012e-09	1.909082e+01	1.955523e+02
1.820000e-06	2.533434e-06	2.976659e-09	1.897883e+01	1.951101e+02
1.830000e-06	2.518070e-06	2.989473e-09	1.886373e+01	1.946554e+02
1.840000e-06	2.501476e-06	2.967034e-09	1.873942e+01	1.941877e+02
1.850000e-06	2.483720e-06	2.891583e-09	1.860640e+01	1.937037e+02
1.860000e-06	2.465509e-06	2.966409e-09	1.846997e+01	1.931974e+02
1.870000e-06	2.446617e-06	3.010156e-09	1.832845e+01	1.926610e+02
1.880000e-06	2.426779e-06	2.841821e-09	1.817984e+01	1.920857e+02
1.890000e-06	2.406282e-06	2.830823e-09	1.802629e+01	1.914627e+02
1.900000e-06	2.384937e-06	2.967091e-09	1.786638e+01	1.907842e+02
1.910000e-06	2.362296e-06	2.886452e-09	1.769677e+01	1.900443e+02
1.920000e-06	2.338522e-06	2.777317e-09	1.751867e+01	1.892400e+02
1.930000e-06	2.314029e-06	2.893278e-09	1.733519e+01	1.883708e+02
1.940000e-06	2.288913e-06	2.882496e-09	1.714703e+01	1.874392e+02
1.950000e-06	2.262954e-06	2.754200e-09	1.695257e+01	1.864504e+02
1.960000e-06	2.235997e-06	2.822354e-09	1.675062e+01	1.854109e+02
1.970000e-06	2.208305e-06	2.851660e-09	1.654317e+01	1.843284e+02
1.980000e-06	2.180068e-06	2.730579e-09	1.633164e+01	1.832104e+02
1.990000e-06	2.151071e-06	2.726208e-09	1.611442e+01	1.820632e+02
2.000000e-06	2.121261e-06	2.785559e-09	1.589110e+01	1.808913e+02
2.010000e-06	2.090724e-06	2.759543e-09	1.566233e+01	1.796971e+02
2.020000e-06	2.059275e-06	2.658162e-09	1.542674e+01	1.784800e+02
2.030000e-06	2.026972e-06	2.650382e-09	1.518474e+01	1.772373e+02
2.040000e-06	1.994169e-06	2.727768e-09	1.493900e+01	1.759641e+02
2.050000e-06	1.960718e-06	2.664276e-09	1.468841e+01	1.746543e+02
2.060000e-06	1.926419e-06	2.566611e-09	1.443147e+01	1.733011e+02
2.070000e-06	1.891463e-06	2.620110e-09	1.416960e+01	1.718978e+02
2.080000e-06	1.855991e-06	2.611015e-09	1.390387e+01	1.704387e+02
2.090000e-06	1.819987e-06	2.515209e-09	1.363415e+01	1.689196e+02
2.100000e-06	1.783400e-06	2.535664e-09	1.336006e+01	1.673377e+02
2.110000e-06	1.746179e-06	2.532516e-09	1.308123e+01	1.656923e+02
2.120000e-06	1.708109e-06	2.463116e-09	1.279603e+01	1.639837e+02
2.130000e-06	1.669034e-06	2.434975e-09	1.250331e+01	1.622137e+02
2.140000e-06	1.629193e-06	2.440050e-09	1.220485e+01	1.603846e+02
2.150000e-06	1.588927e-06	2.423209e-09	1.190320e+01	1.584984e+02
2.160000e-06	1.548274e-06	2.355434e-09	1.159865e+01	1.565570e+02
2.170000e-06	1.507018e-06	2.321678e-09	1.128959e+01	1.545610e+02
2.180000e-06	1.465189e-06	2.326152e-09	1.097623e+01	1.525101e+02
2.190000e-06	1.422937e-06	2.284580e-09	1.065971e+01	1.504026e+02
2.200000e-06	1.380227e-06	2.229272e-09	1.033975e+01	1.482361e+02
2.210000e-06	1.336992e-06	2.212889e-09	1.001587e+01	1.460073e+02
2.220000e-06	1.293312e-06	2.177864e-09	9.688643e+00	1.437125e+02
2.230000e-06	1.249307e-06	2.130435e-09	9.358988e+00	1.413482e+02
2.240000e-06	1.205051e-06	2.103471e-09	9.027452e+00	1.389113e+02
2.250000e-06	1.160583e-06	2.074602e-09	8.694325e+00	1.363995e+02
2.260000e-06	1.115752e-06	2.024970e-09	8.358481e+00	1.338109e+02
2.270000e-06	1.070353e-06	1.969343e-09	8.018383e+00	1.311449e+02
2.280000e-06	1.024388e-06	1.949732e-09	7.674040e+00	1.284009e+02
2.290000e-06	9.780714e-07	1.916282e-09	7.327069e+00	1.255789e+02
2.300000e-06	9.315008e-07	1.852188e-09	6.978193e+00	1.226786e+02
2.310000e-06	8.846191e-07	1.801478e-09	6.626986e+00	1.196991e+02
2.320000e-06	8.375251e-07	1.767412e-09	6.274188e+00	1.166389e+02
2.330000e-06	7.903019e-07	1.721222e-09	5.920423e+00	1.134953e+02
2.340000e-06	7.428304e-07	1.664679e-09	5.564798e+00	1.102646e+02
2.350000e-06	6.950820e-07	1.620214e-09	5.207098e+00	1.069420e+02
2.360000e-06	6.470645e-07	1.570969e-09	4.847382e+00	1.035217e+02
2.370000e-06	5.986561e-07	1.509736e-09	4.484739e+00	9.999758e+01
2.380000e-06	5.498930e-07	1.455584e-09	4.119438e+00	9.636324e+01
2.390000e-06	5.009722e-07	1.407268e-09	3.752955e+00	9.261245e+01
2.400000e-06	4.518969e-07	1.340372e-09	3.385315e+00	8.873954e+01
2.410000e-06	4.025628e-07	1.272368e-09	3.015736e+00	8.473965e+01
2.420000e-06	3.530021e-07	1.218331e-09	2.644460e+00	8.060899e+01
2.430000e-06	3.032861e-07	1.161924e-09	2.272020e+00	7.634491e+01
2.440000e-06	2.534526e-07	1.091460e-09	1.898700e+00	7.194599e+01
2.450000e-06	2.035169e-07	1.015335e-09	1.524615e+00	6.741201e+01
2.460000e-06	1.534749e-07	9.481868e-10	1.149733e+00	6.274390e+01
2.470000e-06	1.033983e-07	8.775320e-10	7.745919e-01	5.794374e+01
2.480000e-06	5.332120e-08	8.022567e-10	3.994474e-01	5.301474e+01
2.490000e-06	3.229533e-09	7.260739e-10	2.419354e-02	4.796121e+01
2.500000e-06	-4.687546e-08	6.467458e-10	-3.511602e-01	4.278868e+01
2.510000e-06	-9.697956e-08	5.647341e-10	-7.265072e-01	3.750394e+01
2.520000e-06	-1.470609e-07	4.839893e-10	-1.101684e+00	3.211510e+01
2.530000e-06	-1.970664e-07	4.067495e-10	-1.476292e+00	2.663165e+01
2.540000e-06	-2.469384e-07	3.225782e-10	-1.849900e+00	2.106443e+01
2.550000e-06	-2.967519e-07	2.316231e-10	-2.223070e+00	1.542554e+01
2.560000e-06	-3.464598e-07	1.453403e-10	-2.595449e+00	9.728161e+00
2.570000e-06	-3.958140e-07	6.525643e-11	-2.965179e+00	3.986243e+00
2.580000e-06	-4.448757e-07	-2.238502e-11	-3.332717e+00	-1.785793e+00
2.590000e-06	-4.938170e-07	-1.155269e-10	-3.699353e+00	-7.573451e+00
2.600000e-06	-5.424464e-07	-2.040650e-10	-4.063652e+00	-1.336253e+01
2.610000e-06	-5.906233e-07	-2.883357e-10	-4.424562e+00	-1.913947e+01
2.620000e-06	-6.385797e-07	-3.724584e-10	-4.783820e+00	-2.489156e+01
2.630000e-06	-6.863299e-07	-4.597849e-10	-5.141533e+00	-3.060715e+01
2.640000e-06	-7.337424e-07	-5.474172e-10	-5.496717e+00	-3.627561e+01
2.650000e-06	-7.808594e-07	-6.339864e-10	-5.849686e+00	-4.188733e+01
2.660000e-06	-8.277759e-07	-7.148949e-10	-6.201154e+00	-4.743347e+01
2.670000e-06	-8.745256e-07	-7.934918e-10	-6.551372e+00	-5.290584e+01
2.680000e-06	-9.210144e-07	-8.768596e-10	-6.899635e+00	-5.829662e+01
2.690000e-06	-9.672460e-07	-9.623008e-10	-7.245972e+00	-6.359825e+01
2.700000e-06	-1.013202e-06	-1.041030e-09	-7.590247e+00	-6.880330e+01
2.710000e-06	-1.058793e-06	-1.114358e-09	-7.931783e+00	-7.390452e+01
2.720000e-06	-1.103943e-06	-1.189965e-09	-8.270018e+00	-7.889494e+01
2.730000e-06	-1.148680e-06	-1.266509e-09	-8.605156e+00	-8.376811e+01
2.740000e-06	-1.193105e-06	-1.339555e-09	-8.937960e+00	-8.851840e+01
2.750000e-06	-1.237298e-06	-1.407789e-09	-9.269024e+00	-9.314127e+01
2.760000e-06	-1.281243e-06	-1.475581e-09	-9.598228e+00	-9.763352e+01
2.770000e-06	-1.324839e-06	-1.543185e-09	-9.924824e+00	-1.019935e+02
2.780000e-06	-1.367961e-06	-1.609042e-09	-1.024786e+01	-1.062213e+02
2.790000e-06	-1.410531e-06	-1.671069e-09	-1.056677e+01	-1.103182e+02
2.800000e-06	-1.452581e-06	-1.729396e-09	-1.088178e+01	-1.142871e+02
2.810000e-06	-1.494152e-06	-1.785784e-09	-1.119321e+01	-1.181314e+02
2.820000e-06	-1.535188e-06	-1.841164e-09	-1.150062e+01	-1.218554e+02
2.830000e-06	-1.575692e-06	-1.897098e-09	-1.180405e+01	-1.254628e+02
2.840000e-06	-1.615822e-06	-1.951671e-09	-1.210468e+01	-1.289573e+02
2.850000e-06	-1.655526e-06	-2.003357e-09	-1.240212e+01	-1.323415e+02
2.860000e-06	-1.694567e-06	-2.052997e-09	-1.269458e+01	-1.356170e+02
2.870000e-06	-1.732696e-06	-2.102851e-09	-1.298022e+01	-1.387843e+02
2.880000e-06	-1.769883e-06	-2.150360e-09	-1.325880e+01	-1.418431e+02
2.890000e-06	-1.806397e-06	-2.194472e-09	-1.353234e+01	-1.447924e+02
2.900000e-06	-1.842410e-06	-2.237601e-09	-1.380213e+01	-1.476309e+02
2.910000e-06	-1.877877e-06	-2.278030e-09	-1.406782e+01	-1.503576e+02
2.920000e-06	-1.912677e-06	-2.315938e-09	-1.432852e+01	-1.529721e+02
2.930000e-06	-1.946791e-06	-2.354120e-09	-1.458408e+01	-1.554750e+02
2.940000e-06	-1.980228e-06	-2.392902e-09	-1.483457e+01	-1.578682e+02
