# Temperatura_=_20.0
# Concentracion g/m^3_=_9000.0
# C_Vs_to_Am_M_A/Vsm_=_65563218390.804596
# pendiente_HvsI_1/m_=_3716.3
# ordenada_HvsI_A/m_=_1297.0
# frecuencia_Hz_=_301075.88883582683

Tiempo_(s)	Campo_(V.s)	Magnetizacion_(V.s)	Campo_(kA/m)	Magnetizacion_(A/m)
0.000000e+00	-2.643331e-06	-3.032117e-09	-1.977011e+01	-2.020175e+02
1.000000e-08	-2.643160e-06	-3.033530e-09	-1.976883e+01	-2.020955e+02
2.000000e-08	-2.641902e-06	-3.031268e-09	-1.975942e+01	-2.021040e+02
3.000000e-08	-2.639433e-06	-3.029460e-09	-1.974095e+01	-2.020488e+02
4.000000e-08	-2.636088e-06	-3.030093e-09	-1.971594e+01	-2.019403e+02
5.000000e-08	-2.632014e-06	-3.028031e-09	-1.968546e+01	-2.017925e+02
6.000000e-08	-2.627144e-06	-3.020507e-09	-1.964904e+01	-2.016216e+02
7.000000e-08	-2.621415e-06	-3.009886e-09	-1.960619e+01	-2.014432e+02
8.000000e-08	-2.614765e-06	-3.027903e-09	-1.955646e+01	-2.012704e+02
9.000000e-08	-2.607146e-06	-3.062468e-09	-1.949947e+01	-2.011108e+02
1.000000e-07	-2.598324e-06	-3.050767e-09	-1.943349e+01	-2.009652e+02
1.100000e-07	-2.588194e-06	-2.953666e-09	-1.935773e+01	-2.008261e+02
1.200000e-07	-2.577076e-06	-2.946306e-09	-1.927457e+01	-2.006779e+02
1.300000e-07	-2.565144e-06	-3.026795e-09	-1.918533e+01	-2.004973e+02
1.400000e-07	-2.552366e-06	-3.036499e-09	-1.908976e+01	-2.002559e+02
1.500000e-07	-2.538806e-06	-2.963280e-09	-1.898834e+01	-1.999226e+02
1.600000e-07	-2.524216e-06	-2.976418e-09	-1.887922e+01	-1.994673e+02
1.700000e-07	-2.508162e-06	-2.982960e-09	-1.875915e+01	-1.988640e+02
1.800000e-07	-2.491029e-06	-2.944440e-09	-1.863100e+01	-1.980945e+02
1.900000e-07	-2.473490e-06	-3.011748e-09	-1.849983e+01	-1.971506e+02
2.000000e-07	-2.455238e-06	-2.964916e-09	-1.836331e+01	-1.960357e+02
2.100000e-07	-2.435921e-06	-2.843957e-09	-1.821884e+01	-1.947649e+02
2.200000e-07	-2.415983e-06	-2.897367e-09	-1.806972e+01	-1.933643e+02
2.300000e-07	-2.395447e-06	-3.012129e-09	-1.791612e+01	-1.918680e+02
2.400000e-07	-2.373841e-06	-2.910259e-09	-1.775453e+01	-1.903156e+02
2.500000e-07	-2.351221e-06	-2.846173e-09	-1.758535e+01	-1.887479e+02
2.600000e-07	-2.327948e-06	-2.924840e-09	-1.741128e+01	-1.872031e+02
2.700000e-07	-2.304090e-06	-2.947555e-09	-1.723284e+01	-1.857132e+02
2.800000e-07	-2.279415e-06	-2.886108e-09	-1.704829e+01	-1.843011e+02
2.900000e-07	-2.253592e-06	-2.849522e-09	-1.685515e+01	-1.829787e+02
3.000000e-07	-2.226674e-06	-2.854561e-09	-1.665383e+01	-1.817464e+02
3.100000e-07	-2.199045e-06	-2.827483e-09	-1.644719e+01	-1.805941e+02
3.200000e-07	-2.170781e-06	-2.802766e-09	-1.623579e+01	-1.795024e+02
3.300000e-07	-2.141831e-06	-2.805724e-09	-1.601927e+01	-1.784460e+02
3.400000e-07	-2.112128e-06	-2.813300e-09	-1.579711e+01	-1.773967e+02
3.500000e-07	-2.081582e-06	-2.703785e-09	-1.556865e+01	-1.763264e+02
3.600000e-07	-2.050375e-06	-2.702290e-09	-1.533525e+01	-1.752106e+02
3.700000e-07	-2.018778e-06	-2.799344e-09	-1.509892e+01	-1.740304e+02
3.800000e-07	-1.986497e-06	-2.699474e-09	-1.485748e+01	-1.727737e+02
3.900000e-07	-1.953051e-06	-2.582548e-09	-1.460734e+01	-1.714359e+02
4.000000e-07	-1.918563e-06	-2.676703e-09	-1.434939e+01	-1.700192e+02
4.100000e-07	-1.883410e-06	-2.682064e-09	-1.408647e+01	-1.685307e+02
4.200000e-07	-1.847713e-06	-2.541396e-09	-1.381949e+01	-1.669811e+02
4.300000e-07	-1.811415e-06	-2.565077e-09	-1.354801e+01	-1.653817e+02
4.400000e-07	-1.774547e-06	-2.588241e-09	-1.327226e+01	-1.637427e+02
4.500000e-07	-1.737120e-06	-2.512328e-09	-1.299234e+01	-1.620714e+02
4.600000e-07	-1.699033e-06	-2.480380e-09	-1.270747e+01	-1.603707e+02
4.700000e-07	-1.660299e-06	-2.502744e-09	-1.241777e+01	-1.586393e+02
4.800000e-07	-1.621089e-06	-2.446470e-09	-1.212451e+01	-1.568714e+02
4.900000e-07	-1.581537e-06	-2.387659e-09	-1.182869e+01	-1.550582e+02
5.000000e-07	-1.541605e-06	-2.390004e-09	-1.153004e+01	-1.531891e+02
5.100000e-07	-1.501115e-06	-2.366127e-09	-1.122720e+01	-1.512535e+02
5.200000e-07	-1.459754e-06	-2.307543e-09	-1.091785e+01	-1.492420e+02
5.300000e-07	-1.417427e-06	-2.263819e-09	-1.060127e+01	-1.471478e+02
5.400000e-07	-1.374441e-06	-2.266032e-09	-1.027978e+01	-1.449677e+02
5.500000e-07	-1.331063e-06	-2.230005e-09	-9.955338e+00	-1.427018e+02
5.600000e-07	-1.287343e-06	-2.175348e-09	-9.628344e+00	-1.403535e+02
5.700000e-07	-1.243230e-06	-2.140763e-09	-9.298418e+00	-1.379281e+02
5.800000e-07	-1.198714e-06	-2.123168e-09	-8.965468e+00	-1.354319e+02
5.900000e-07	-1.153773e-06	-2.079483e-09	-8.629346e+00	-1.328711e+02
6.000000e-07	-1.108405e-06	-2.025931e-09	-8.290026e+00	-1.302497e+02
6.100000e-07	-1.062628e-06	-1.993603e-09	-7.947650e+00	-1.275696e+02
6.200000e-07	-1.016478e-06	-1.948080e-09	-7.602479e+00	-1.248292e+02
6.300000e-07	-9.699485e-07	-1.897347e-09	-7.254478e+00	-1.220239e+02
6.400000e-07	-9.230231e-07	-1.850975e-09	-6.903511e+00	-1.191464e+02
6.500000e-07	-8.758647e-07	-1.813996e-09	-6.550802e+00	-1.161876e+02
6.600000e-07	-8.285447e-07	-1.759292e-09	-6.196885e+00	-1.131376e+02
6.700000e-07	-7.810073e-07	-1.707246e-09	-5.841341e+00	-1.099868e+02
6.800000e-07	-7.332156e-07	-1.666607e-09	-5.483896e+00	-1.067270e+02
6.900000e-07	-6.851067e-07	-1.615309e-09	-5.124077e+00	-1.033521e+02
7.000000e-07	-6.366496e-07	-1.551587e-09	-4.761655e+00	-9.985835e+01
7.100000e-07	-5.877527e-07	-1.495347e-09	-4.395943e+00	-9.624427e+01
7.200000e-07	-5.384174e-07	-1.451792e-09	-4.026953e+00	-9.251022e+01
7.300000e-07	-4.887824e-07	-1.387562e-09	-3.655721e+00	-8.865762e+01
7.400000e-07	-4.388826e-07	-1.318410e-09	-3.282508e+00	-8.468805e+01
7.500000e-07	-3.887466e-07	-1.258857e-09	-2.907529e+00	-8.060243e+01
7.600000e-07	-3.383654e-07	-1.201522e-09	-2.530716e+00	-7.640035e+01
7.700000e-07	-2.878070e-07	-1.129597e-09	-2.152578e+00	-7.207978e+01
7.800000e-07	-2.371118e-07	-1.055601e-09	-1.773416e+00	-6.763705e+01
7.900000e-07	-1.862552e-07	-9.876708e-10	-1.393047e+00	-6.306743e+01
8.000000e-07	-1.353100e-07	-9.147185e-10	-1.012016e+00	-5.836582e+01
8.100000e-07	-8.432617e-08	-8.407941e-10	-6.306957e-01	-5.352784e+01
8.200000e-07	-3.329255e-08	-7.630076e-10	-2.490030e-01	-4.855090e+01
8.300000e-07	1.774934e-08	-6.835164e-10	1.327516e-01	-4.343514e+01
8.400000e-07	6.873718e-08	-5.992079e-10	5.141019e-01	-3.818423e+01
8.500000e-07	1.196877e-07	-5.193191e-10	8.951732e-01	-3.280564e+01
8.600000e-07	1.705509e-07	-4.381076e-10	1.275591e+00	-2.731064e+01
8.700000e-07	2.213044e-07	-3.483655e-10	1.655188e+00	-2.171377e+01
8.800000e-07	2.720122e-07	-2.568428e-10	2.034445e+00	-1.603200e+01
8.900000e-07	3.225805e-07	-1.716876e-10	2.412657e+00	-1.028366e+01
9.000000e-07	3.728971e-07	-8.888671e-11	2.788987e+00	-4.487274e+00
9.100000e-07	4.229434e-07	5.914618e-12	3.163295e+00	1.339472e+00
9.200000e-07	4.727198e-07	1.018575e-10	3.535584e+00	7.180603e+00
9.300000e-07	5.221770e-07	1.920941e-10	3.905487e+00	1.302234e+01
9.400000e-07	5.712640e-07	2.786260e-10	4.272621e+00	1.885322e+01
9.500000e-07	6.199811e-07	3.700477e-10	4.636987e+00	2.466386e+01
9.600000e-07	6.682788e-07	4.631534e-10	4.998218e+00	3.044638e+01
9.700000e-07	7.162421e-07	5.523733e-10	5.356946e+00	3.619368e+01
9.800000e-07	7.639836e-07	6.401412e-10	5.714016e+00	4.189867e+01
9.900000e-07	8.115395e-07	7.273245e-10	6.069698e+00	4.755354e+01
1.000000e-06	8.589530e-07	8.142753e-10	6.424315e+00	5.314931e+01
1.010000e-06	9.061892e-07	8.997395e-10	6.777607e+00	5.867570e+01
1.020000e-06	9.531205e-07	9.864691e-10	7.128616e+00	6.412125e+01
1.030000e-06	9.997059e-07	1.068516e-09	7.477040e+00	6.947381e+01
1.040000e-06	1.045926e-06	1.148155e-09	7.822731e+00	7.472128e+01
1.050000e-06	1.091724e-06	1.228120e-09	8.165267e+00	7.985238e+01
1.060000e-06	1.137114e-06	1.307542e-09	8.504751e+00	8.485750e+01
1.070000e-06	1.182152e-06	1.382550e-09	8.841600e+00	8.972935e+01
1.080000e-06	1.226813e-06	1.452441e-09	9.175627e+00	9.446332e+01
1.090000e-06	1.270997e-06	1.522624e-09	9.506089e+00	9.905764e+01
1.100000e-06	1.314775e-06	1.591483e-09	9.833518e+00	1.035131e+02
1.110000e-06	1.358326e-06	1.659155e-09	1.015924e+01	1.078324e+02
1.120000e-06	1.401642e-06	1.723723e-09	1.048322e+01	1.120196e+02
1.130000e-06	1.444458e-06	1.785793e-09	1.080345e+01	1.160795e+02
1.140000e-06	1.486494e-06	1.846005e-09	1.111785e+01	1.200162e+02
1.150000e-06	1.527601e-06	1.904870e-09	1.142529e+01	1.238331e+02
1.160000e-06	1.567889e-06	1.963410e-09	1.172662e+01	1.275323e+02
1.170000e-06	1.607668e-06	2.018477e-09	1.202413e+01	1.311147e+02
1.180000e-06	1.647082e-06	2.070220e-09	1.231892e+01	1.345799e+02
1.190000e-06	1.686093e-06	2.120450e-09	1.261070e+01	1.379269e+02
1.200000e-06	1.724523e-06	2.170926e-09	1.289812e+01	1.411545e+02
1.210000e-06	1.762316e-06	2.217548e-09	1.318079e+01	1.442622e+02
1.220000e-06	1.799499e-06	2.262519e-09	1.345888e+01	1.472504e+02
1.230000e-06	1.835995e-06	2.306823e-09	1.373184e+01	1.501210e+02
1.240000e-06	1.871916e-06	2.347873e-09	1.400051e+01	1.528773e+02
1.250000e-06	1.907434e-06	2.386893e-09	1.426616e+01	1.555237e+02
1.260000e-06	1.942465e-06	2.425686e-09	1.452816e+01	1.580660e+02
1.270000e-06	1.976669e-06	2.463832e-09	1.478398e+01	1.605097e+02
1.280000e-06	2.009773e-06	2.498024e-09	1.503157e+01	1.628604e+02
1.290000e-06	2.041907e-06	2.531294e-09	1.527191e+01	1.651225e+02
1.300000e-06	2.073408e-06	2.565438e-09	1.550752e+01	1.672993e+02
1.310000e-06	2.104377e-06	2.599221e-09	1.573914e+01	1.693925e+02
1.320000e-06	2.134618e-06	2.630171e-09	1.596532e+01	1.714024e+02
1.330000e-06	2.164091e-06	2.659379e-09	1.618576e+01	1.733281e+02
1.340000e-06	2.192844e-06	2.687670e-09	1.640081e+01	1.751686e+02
1.350000e-06	2.220891e-06	2.715970e-09	1.661058e+01	1.769229e+02
1.360000e-06	2.248405e-06	2.742975e-09	1.681636e+01	1.785911e+02
1.370000e-06	2.275223e-06	2.766903e-09	1.701694e+01	1.801745e+02
1.380000e-06	2.300930e-06	2.789088e-09	1.720921e+01	1.816766e+02
1.390000e-06	2.325506e-06	2.811491e-09	1.739302e+01	1.831024e+02
1.400000e-06	2.349193e-06	2.834793e-09	1.757017e+01	1.844584e+02
1.410000e-06	2.372127e-06	2.855584e-09	1.774171e+01	1.857520e+02
1.420000e-06	2.394297e-06	2.873745e-09	1.790752e+01	1.869907e+02
1.430000e-06	2.415671e-06	2.891831e-09	1.806738e+01	1.881811e+02
1.440000e-06	2.436219e-06	2.911651e-09	1.822107e+01	1.893282e+02
1.450000e-06	2.456035e-06	2.930430e-09	1.836928e+01	1.904349e+02
1.460000e-06	2.475216e-06	2.946430e-09	1.851274e+01	1.915019e+02
1.470000e-06	2.493539e-06	2.962100e-09	1.864977e+01	1.925272e+02
1.480000e-06	2.510870e-06	2.977242e-09	1.877940e+01	1.935073e+02
1.490000e-06	2.527325e-06	2.991477e-09	1.890247e+01	1.944378e+02
1.500000e-06	2.542937e-06	3.005509e-09	1.901923e+01	1.953141e+02
1.510000e-06	2.557532e-06	3.019147e-09	1.912840e+01	1.961325e+02
1.520000e-06	2.571066e-06	3.030970e-09	1.922962e+01	1.968914e+02
1.530000e-06	2.583669e-06	3.042211e-09	1.932388e+01	1.975914e+02
1.540000e-06	2.595368e-06	3.054794e-09	1.941138e+01	1.982353e+02
1.550000e-06	2.606024e-06	3.066690e-09	1.949108e+01	1.988285e+02
1.560000e-06	2.615373e-06	3.075919e-09	1.956100e+01	1.993776e+02
1.570000e-06	2.623534e-06	3.084973e-09	1.962204e+01	1.998894e+02
1.580000e-06	2.630835e-06	3.094728e-09	1.967664e+01	2.003701e+02
1.590000e-06	2.637330e-06	3.102862e-09	1.972522e+01	2.008240e+02
1.600000e-06	2.642943e-06	3.109795e-09	1.976720e+01	2.012524e+02
1.610000e-06	2.647647e-06	3.116549e-09	1.980239e+01	2.016532e+02
1.620000e-06	2.651567e-06	3.123214e-09	1.983171e+01	2.020214e+02
1.630000e-06	2.654749e-06	3.129679e-09	1.985550e+01	2.023493e+02
1.640000e-06	2.656909e-06	3.134950e-09	1.987166e+01	2.026275e+02
1.650000e-06	2.657824e-06	3.139991e-09	1.987850e+01	2.028471e+02
1.660000e-06	2.657721e-06	3.144260e-09	1.987773e+01	2.030008e+02
1.670000e-06	2.656807e-06	3.145378e-09	1.987090e+01	2.030844e+02
1.680000e-06	2.655078e-06	3.146268e-09	1.985796e+01	2.030984e+02
1.690000e-06	2.652493e-06	3.148618e-09	1.983863e+01	2.030481e+02
1.700000e-06	2.649057e-06	3.149963e-09	1.981293e+01	2.029435e+02
1.710000e-06	2.644949e-06	3.149082e-09	1.978221e+01	2.027987e+02
1.720000e-06	2.640209e-06	3.153853e-09	1.974675e+01	2.026295e+02
1.730000e-06	2.634578e-06	3.157792e-09	1.970464e+01	2.024518e+02
1.740000e-06	2.627737e-06	3.117012e-09	1.965347e+01	2.022788e+02
1.750000e-06	2.619605e-06	3.089176e-09	1.959266e+01	2.021187e+02
1.760000e-06	2.610186e-06	3.148311e-09	1.952220e+01	2.019729e+02
1.770000e-06	2.599701e-06	3.194567e-09	1.944379e+01	2.018344e+02
1.780000e-06	2.588890e-06	3.152370e-09	1.936293e+01	2.016881e+02
1.790000e-06	2.577819e-06	3.067390e-09	1.928012e+01	2.015114e+02
1.800000e-06	2.565308e-06	3.129049e-09	1.918655e+01	2.012759e+02
1.810000e-06	2.551006e-06	3.117918e-09	1.907958e+01	2.009509e+02
1.820000e-06	2.536063e-06	3.086397e-09	1.896782e+01	2.005058e+02
1.830000e-06	2.520647e-06	3.130652e-09	1.885252e+01	1.999144e+02
1.840000e-06	2.503923e-06	3.104096e-09	1.872744e+01	1.991578e+02
1.850000e-06	2.486130e-06	3.032185e-09	1.859436e+01	1.982270e+02
1.860000e-06	2.467873e-06	3.092508e-09	1.845781e+01	1.971245e+02
1.870000e-06	2.448893e-06	3.116285e-09	1.831586e+01	1.958648e+02
1.880000e-06	2.428989e-06	2.884710e-09	1.816699e+01	1.944730e+02
1.890000e-06	2.408455e-06	2.854360e-09	1.801341e+01	1.929828e+02
1.900000e-06	2.387064e-06	2.978472e-09	1.785342e+01	1.914337e+02
1.910000e-06	2.364291e-06	2.864418e-09	1.768310e+01	1.898664e+02
1.920000e-06	2.340326e-06	2.716782e-09	1.750386e+01	1.883194e+02
1.930000e-06	2.315700e-06	2.801872e-09	1.731968e+01	1.868253e+02
1.940000e-06	2.290447e-06	2.787575e-09	1.713080e+01	1.854077e+02
1.950000e-06	2.264336e-06	2.700468e-09	1.693551e+01	1.840794e+02
1.960000e-06	2.237314e-06	2.733447e-09	1.673341e+01	1.828415e+02
1.970000e-06	2.209617e-06	2.739437e-09	1.652626e+01	1.816846e+02
1.980000e-06	2.181343e-06	2.689972e-09	1.631478e+01	1.805900e+02
1.990000e-06	2.152205e-06	2.654154e-09	1.609686e+01	1.795326e+02
2.000000e-06	2.122259e-06	2.658661e-09	1.587288e+01	1.784844e+02
2.010000e-06	2.091606e-06	2.710699e-09	1.564362e+01	1.774171e+02
2.020000e-06	2.060006e-06	2.599652e-09	1.540728e+01	1.763059e+02
2.030000e-06	2.027596e-06	2.520698e-09	1.516488e+01	1.751313e+02
2.040000e-06	1.994652e-06	2.677047e-09	1.491848e+01	1.738810e+02
2.050000e-06	1.960987e-06	2.623057e-09	1.466669e+01	1.725496e+02
2.060000e-06	1.926547e-06	2.460911e-09	1.440911e+01	1.711389e+02
2.070000e-06	1.891521e-06	2.553353e-09	1.414714e+01	1.696558e+02
2.080000e-06	1.855910e-06	2.576801e-09	1.388079e+01	1.681108e+02
2.090000e-06	1.819716e-06	2.442102e-09	1.361009e+01	1.665152e+02
2.100000e-06	1.782992e-06	2.454643e-09	1.333542e+01	1.648794e+02
2.110000e-06	1.745686e-06	2.471329e-09	1.305641e+01	1.632108e+02
2.120000e-06	1.707499e-06	2.404120e-09	1.277080e+01	1.615129e+02
2.130000e-06	1.668263e-06	2.365982e-09	1.247734e+01	1.597844e+02
2.140000e-06	1.628299e-06	2.366746e-09	1.217844e+01	1.580199e+02
2.150000e-06	1.587981e-06	2.374994e-09	1.187689e+01	1.562110e+02
2.160000e-06	1.547248e-06	2.299089e-09	1.157224e+01	1.543469e+02
2.170000e-06	1.505905e-06	2.250315e-09	1.126303e+01	1.524170e+02
2.180000e-06	1.464017e-06	2.277070e-09	1.094974e+01	1.504117e+02
2.190000e-06	1.421680e-06	2.236564e-09	1.063309e+01	1.483242e+02
2.200000e-06	1.378825e-06	2.159446e-09	1.031257e+01	1.461509e+02
2.210000e-06	1.335428e-06	2.146377e-09	9.987986e+00	1.438917e+02
2.220000e-06	1.291633e-06	2.133533e-09	9.660429e+00	1.415497e+02
2.230000e-06	1.247558e-06	2.074099e-09	9.330784e+00	1.391302e+02
2.240000e-06	1.203281e-06	2.033527e-09	8.999628e+00	1.366395e+02
2.250000e-06	1.158766e-06	2.016703e-09	8.666691e+00	1.340837e+02
2.260000e-06	1.113840e-06	1.975435e-09	8.330675e+00	1.314672e+02
2.270000e-06	1.068395e-06	1.911541e-09	7.990786e+00	1.287919e+02
2.280000e-06	1.022441e-06	1.889878e-09	7.647079e+00	1.260565e+02
2.290000e-06	9.760740e-07	1.860543e-09	7.300292e+00	1.232567e+02
2.300000e-06	9.293677e-07	1.796524e-09	6.950964e+00	1.203852e+02
2.310000e-06	8.824227e-07	1.750972e-09	6.599851e+00	1.174332e+02
2.320000e-06	8.352759e-07	1.717637e-09	6.247229e+00	1.143906e+02
2.330000e-06	7.879139e-07	1.671035e-09	5.892997e+00	1.112479e+02
2.340000e-06	7.403117e-07	1.610171e-09	5.536969e+00	1.079968e+02
2.350000e-06	6.924164e-07	1.570168e-09	5.178748e+00	1.046309e+02
2.360000e-06	6.442663e-07	1.528543e-09	4.818622e+00	1.011463e+02
2.370000e-06	5.957648e-07	1.459509e-09	4.455868e+00	9.754142e+01
2.380000e-06	5.469336e-07	1.396409e-09	4.090648e+00	9.381651e+01
2.390000e-06	4.979376e-07	1.352809e-09	3.724195e+00	8.997293e+01
2.400000e-06	4.487639e-07	1.294583e-09	3.356413e+00	8.601228e+01
2.410000e-06	3.992787e-07	1.220084e-09	2.986301e+00	8.193556e+01
2.420000e-06	3.495264e-07	1.157776e-09	2.614192e+00	7.774246e+01
2.430000e-06	2.996744e-07	1.103815e-09	2.241337e+00	7.343107e+01
2.440000e-06	2.497210e-07	1.039806e-09	1.867723e+00	6.899783e+01
2.450000e-06	1.996758e-07	9.643594e-10	1.493423e+00	6.443805e+01
2.460000e-06	1.495939e-07	8.958880e-10	1.118849e+00	5.974664e+01
2.470000e-06	9.947283e-08	8.249014e-10	7.439811e-01	5.491913e+01
2.480000e-06	4.927201e-08	7.483143e-10	3.685172e-01	4.995275e+01
2.490000e-06	-9.721803e-10	6.733197e-10	-7.271170e-03	4.484745e+01
2.500000e-06	-5.117939e-08	5.928579e-10	-3.827830e-01	3.960660e+01
2.510000e-06	-1.013508e-07	5.058483e-10	-7.580267e-01	3.423741e+01
2.520000e-06	-1.515048e-07	4.201899e-10	-1.133141e+00	2.875089e+01
2.530000e-06	-2.015855e-07	3.444023e-10	-1.507707e+00	2.316137e+01
2.540000e-06	-2.515789e-07	2.639622e-10	-1.881619e+00	1.748568e+01
2.550000e-06	-3.014591e-07	1.723464e-10	-2.254685e+00	1.174208e+01
2.560000e-06	-3.511353e-07	8.175275e-11	-2.626225e+00	5.949142e+00
2.570000e-06	-4.006072e-07	-2.154673e-14	-2.996237e+00	1.246223e-01
2.580000e-06	-4.498790e-07	-8.550390e-11	-3.364753e+00	-5.715354e+00
2.590000e-06	-4.988482e-07	-1.790990e-10	-3.731005e+00	-1.155684e+01
2.600000e-06	-5.474769e-07	-2.685030e-10	-4.094711e+00	-1.738822e+01
2.610000e-06	-5.958646e-07	-3.538749e-10	-4.456614e+00	-2.319996e+01
2.620000e-06	-6.439797e-07	-4.398284e-10	-4.816479e+00	-2.898412e+01
2.630000e-06	-6.917282e-07	-5.272526e-10	-5.173601e+00	-3.473356e+01
2.640000e-06	-7.391363e-07	-6.116622e-10	-5.528178e+00	-4.044121e+01
2.650000e-06	-7.862630e-07	-6.979799e-10	-5.880650e+00	-4.609932e+01
2.660000e-06	-8.332309e-07	-7.838618e-10	-6.231934e+00	-5.169904e+01
2.670000e-06	-8.800002e-07	-8.627720e-10	-6.581733e+00	-5.723014e+01
2.680000e-06	-9.264763e-07	-9.408260e-10	-6.929339e+00	-6.268125e+01
2.690000e-06	-9.727552e-07	-1.024651e-09	-7.275469e+00	-6.804024e+01
2.700000e-06	-1.018774e-06	-1.107753e-09	-7.619656e+00	-7.329499e+01
2.710000e-06	-1.064385e-06	-1.182858e-09	-7.960794e+00	-7.843413e+01
2.720000e-06	-1.109527e-06	-1.256524e-09	-8.298418e+00	-8.344792e+01
2.730000e-06	-1.154246e-06	-1.331245e-09	-8.632880e+00	-8.832886e+01
2.740000e-06	-1.198666e-06	-1.404602e-09	-8.965112e+00	-9.307216e+01
2.750000e-06	-1.242840e-06	-1.474492e-09	-9.295498e+00	-9.767584e+01
2.760000e-06	-1.286743e-06	-1.542112e-09	-9.623862e+00	-1.021405e+02
2.770000e-06	-1.330296e-06	-1.606756e-09	-9.949605e+00	-1.064688e+02
2.780000e-06	-1.373434e-06	-1.668798e-09	-1.027224e+01	-1.106647e+02
2.790000e-06	-1.416127e-06	-1.731288e-09	-1.059155e+01	-1.147329e+02
2.800000e-06	-1.458317e-06	-1.793619e-09	-1.090710e+01	-1.186777e+02
2.810000e-06	-1.499990e-06	-1.851781e-09	-1.121879e+01	-1.225024e+02
2.820000e-06	-1.541113e-06	-1.904431e-09	-1.152635e+01	-1.262094e+02
2.830000e-06	-1.581681e-06	-1.958801e-09	-1.182978e+01	-1.297996e+02
2.840000e-06	-1.621822e-06	-2.014003e-09	-1.212999e+01	-1.332725e+02
2.850000e-06	-1.661532e-06	-2.063584e-09	-1.242700e+01	-1.366274e+02
2.860000e-06	-1.700519e-06	-2.109334e-09	-1.271859e+01	-1.398630e+02
2.870000e-06	-1.738573e-06	-2.155840e-09	-1.300320e+01	-1.429786e+02
2.880000e-06	-1.775717e-06	-2.201694e-09	-1.328101e+01	-1.459747e+02
2.890000e-06	-1.812180e-06	-2.246572e-09	-1.355373e+01	-1.488530e+02
2.900000e-06	-1.848167e-06	-2.291844e-09	-1.382289e+01	-1.516166e+02
2.910000e-06	-1.883618e-06	-2.333693e-09	-1.408803e+01	-1.542702e+02
2.920000e-06	-1.918440e-06	-2.370674e-09	-1.434847e+01	-1.568190e+02
2.930000e-06	-1.952588e-06	-2.407675e-09	-1.460387e+01	-1.592690e+02
2.940000e-06	-1.986037e-06	-2.447394e-09	-1.485404e+01	-1.616255e+02
