# Temperatura_=_20.0
# Concentracion g/m^3_=_9000.0
# C_Vs_to_Am_M_A/Vsm_=_65563218390.804596
# pendiente_HvsI_1/m_=_3716.3
# ordenada_HvsI_A/m_=_1297.0
# frecuencia_Hz_=_212891.62679265457

Tiempo_(s)	Campo_(V.s)	Magnetizacion_(V.s)	Campo_(kA/m)	Magnetizacion_(A/m)
0.000000e+00	-5.261879e-06	-3.971061e-09	-3.841023e+01	-2.605727e+02
1.000000e-08	-5.261285e-06	-3.971519e-09	-3.840589e+01	-2.605795e+02
2.000000e-08	-5.259437e-06	-3.970337e-09	-3.839240e+01	-2.605808e+02
3.000000e-08	-5.256367e-06	-3.967794e-09	-3.836999e+01	-2.605771e+02
4.000000e-08	-5.252603e-06	-3.965865e-09	-3.834252e+01	-2.605683e+02
5.000000e-08	-5.248227e-06	-3.964219e-09	-3.831057e+01	-2.605537e+02
6.000000e-08	-5.242988e-06	-3.959783e-09	-3.827234e+01	-2.605317e+02
7.000000e-08	-5.236760e-06	-3.944892e-09	-3.822687e+01	-2.605001e+02
8.000000e-08	-5.229623e-06	-3.936257e-09	-3.817477e+01	-2.604561e+02
9.000000e-08	-5.221778e-06	-3.984909e-09	-3.811751e+01	-2.603964e+02
1.000000e-07	-5.212642e-06	-4.042614e-09	-3.805081e+01	-2.603172e+02
1.100000e-07	-5.201889e-06	-4.021363e-09	-3.797232e+01	-2.602147e+02
1.200000e-07	-5.190247e-06	-3.856355e-09	-3.788734e+01	-2.600851e+02
1.300000e-07	-5.177947e-06	-3.793530e-09	-3.779755e+01	-2.599246e+02
1.400000e-07	-5.164680e-06	-4.004997e-09	-3.770070e+01	-2.597300e+02
1.500000e-07	-5.150616e-06	-4.056581e-09	-3.759805e+01	-2.594987e+02
1.600000e-07	-5.135772e-06	-3.895768e-09	-3.748969e+01	-2.592286e+02
1.700000e-07	-5.119512e-06	-3.870979e-09	-3.737099e+01	-2.589188e+02
1.800000e-07	-5.101983e-06	-3.869267e-09	-3.724304e+01	-2.585689e+02
1.900000e-07	-5.084016e-06	-3.897546e-09	-3.711188e+01	-2.581797e+02
2.000000e-07	-5.065533e-06	-4.062220e-09	-3.697696e+01	-2.577527e+02
2.100000e-07	-5.045955e-06	-3.936961e-09	-3.683404e+01	-2.572904e+02
2.200000e-07	-5.025446e-06	-3.697045e-09	-3.668434e+01	-2.567959e+02
2.300000e-07	-5.004340e-06	-3.899959e-09	-3.653027e+01	-2.562730e+02
2.400000e-07	-4.982397e-06	-4.095670e-09	-3.637010e+01	-2.557255e+02
2.500000e-07	-4.959515e-06	-3.909443e-09	-3.620306e+01	-2.551579e+02
2.600000e-07	-4.935895e-06	-3.778112e-09	-3.603064e+01	-2.545743e+02
2.700000e-07	-4.911531e-06	-3.861698e-09	-3.585279e+01	-2.539789e+02
2.800000e-07	-4.886176e-06	-3.968130e-09	-3.566771e+01	-2.533752e+02
2.900000e-07	-4.859590e-06	-3.965047e-09	-3.547363e+01	-2.527665e+02
3.000000e-07	-4.832011e-06	-3.819878e-09	-3.527232e+01	-2.521553e+02
3.100000e-07	-4.803764e-06	-3.785321e-09	-3.506612e+01	-2.515434e+02
3.200000e-07	-4.774630e-06	-3.866225e-09	-3.485345e+01	-2.509320e+02
3.300000e-07	-4.744513e-06	-3.880480e-09	-3.463360e+01	-2.503212e+02
3.400000e-07	-4.713631e-06	-3.887986e-09	-3.440817e+01	-2.497107e+02
3.500000e-07	-4.682092e-06	-3.800558e-09	-3.417795e+01	-2.490993e+02
3.600000e-07	-4.649870e-06	-3.694664e-09	-3.394274e+01	-2.484855e+02
3.700000e-07	-4.616905e-06	-3.837087e-09	-3.370210e+01	-2.478672e+02
3.800000e-07	-4.582848e-06	-3.932658e-09	-3.345349e+01	-2.472418e+02
3.900000e-07	-4.547548e-06	-3.727049e-09	-3.319582e+01	-2.466067e+02
4.000000e-07	-4.511469e-06	-3.643168e-09	-3.293245e+01	-2.459594e+02
4.100000e-07	-4.474865e-06	-3.812153e-09	-3.266525e+01	-2.452972e+02
4.200000e-07	-4.437444e-06	-3.844713e-09	-3.239209e+01	-2.446176e+02
4.300000e-07	-4.399001e-06	-3.706373e-09	-3.211147e+01	-2.439184e+02
4.400000e-07	-4.359853e-06	-3.670318e-09	-3.182570e+01	-2.431979e+02
4.500000e-07	-4.320326e-06	-3.720465e-09	-3.153716e+01	-2.424544e+02
4.600000e-07	-4.280257e-06	-3.734527e-09	-3.124467e+01	-2.416868e+02
4.700000e-07	-4.239169e-06	-3.718852e-09	-3.094474e+01	-2.408945e+02
4.800000e-07	-4.196878e-06	-3.662726e-09	-3.063603e+01	-2.400768e+02
4.900000e-07	-4.153690e-06	-3.617641e-09	-3.032077e+01	-2.392338e+02
5.000000e-07	-4.109958e-06	-3.650567e-09	-3.000154e+01	-2.383655e+02
5.100000e-07	-4.065656e-06	-3.681652e-09	-2.967814e+01	-2.374722e+02
5.200000e-07	-4.020618e-06	-3.628731e-09	-2.934937e+01	-2.365542e+02
5.300000e-07	-3.974803e-06	-3.555674e-09	-2.901494e+01	-2.356120e+02
5.400000e-07	-3.928250e-06	-3.563396e-09	-2.867511e+01	-2.346459e+02
5.500000e-07	-3.881125e-06	-3.612584e-09	-2.833111e+01	-2.336562e+02
5.600000e-07	-3.833510e-06	-3.590917e-09	-2.798354e+01	-2.326429e+02
5.700000e-07	-3.785255e-06	-3.508703e-09	-2.763129e+01	-2.316062e+02
5.800000e-07	-3.736047e-06	-3.480520e-09	-2.727209e+01	-2.305456e+02
5.900000e-07	-3.685802e-06	-3.523112e-09	-2.690531e+01	-2.294608e+02
6.000000e-07	-3.634679e-06	-3.520327e-09	-2.653213e+01	-2.283511e+02
6.100000e-07	-3.582768e-06	-3.453550e-09	-2.615320e+01	-2.272156e+02
6.200000e-07	-3.530112e-06	-3.423167e-09	-2.576882e+01	-2.260532e+02
6.300000e-07	-3.476841e-06	-3.436397e-09	-2.537996e+01	-2.248629e+02
6.400000e-07	-3.423006e-06	-3.429562e-09	-2.498698e+01	-2.236431e+02
6.500000e-07	-3.368569e-06	-3.399453e-09	-2.458961e+01	-2.223927e+02
6.600000e-07	-3.313559e-06	-3.364365e-09	-2.418804e+01	-2.211101e+02
6.700000e-07	-3.258092e-06	-3.334645e-09	-2.378315e+01	-2.197940e+02
6.800000e-07	-3.202223e-06	-3.326689e-09	-2.337533e+01	-2.184431e+02
6.900000e-07	-3.145716e-06	-3.321828e-09	-2.296284e+01	-2.170560e+02
7.000000e-07	-3.088249e-06	-3.283608e-09	-2.254335e+01	-2.156316e+02
7.100000e-07	-3.029859e-06	-3.239295e-09	-2.211712e+01	-2.141687e+02
7.200000e-07	-2.970860e-06	-3.232701e-09	-2.168644e+01	-2.126666e+02
7.300000e-07	-2.911478e-06	-3.229256e-09	-2.125297e+01	-2.111242e+02
7.400000e-07	-2.851725e-06	-3.191562e-09	-2.081679e+01	-2.095409e+02
7.500000e-07	-2.791446e-06	-3.149262e-09	-2.037677e+01	-2.079159e+02
7.600000e-07	-2.730625e-06	-3.130184e-09	-1.993279e+01	-2.062487e+02
7.700000e-07	-2.669425e-06	-3.112600e-09	-1.948605e+01	-2.045386e+02
7.800000e-07	-2.607842e-06	-3.075314e-09	-1.903651e+01	-2.027847e+02
7.900000e-07	-2.545752e-06	-3.038228e-09	-1.858327e+01	-2.009864e+02
8.000000e-07	-2.483231e-06	-3.017791e-09	-1.812688e+01	-1.991425e+02
8.100000e-07	-2.420331e-06	-2.999063e-09	-1.766773e+01	-1.972519e+02
8.200000e-07	-2.357098e-06	-2.967063e-09	-1.720615e+01	-1.953131e+02
8.300000e-07	-2.293587e-06	-2.926633e-09	-1.674254e+01	-1.933241e+02
8.400000e-07	-2.229805e-06	-2.893670e-09	-1.627695e+01	-1.912830e+02
8.500000e-07	-2.165740e-06	-2.866347e-09	-1.580929e+01	-1.891872e+02
8.600000e-07	-2.101425e-06	-2.831610e-09	-1.533981e+01	-1.870338e+02
8.700000e-07	-2.036718e-06	-2.789220e-09	-1.486747e+01	-1.848197e+02
8.800000e-07	-1.971294e-06	-2.746717e-09	-1.438989e+01	-1.825413e+02
8.900000e-07	-1.905272e-06	-2.714958e-09	-1.390795e+01	-1.801949e+02
9.000000e-07	-1.838899e-06	-2.689094e-09	-1.342344e+01	-1.777764e+02
9.100000e-07	-1.772164e-06	-2.647846e-09	-1.293629e+01	-1.752817e+02
9.200000e-07	-1.705079e-06	-2.595439e-09	-1.244660e+01	-1.727062e+02
9.300000e-07	-1.637712e-06	-2.555451e-09	-1.195484e+01	-1.700457e+02
9.400000e-07	-1.570159e-06	-2.525764e-09	-1.146172e+01	-1.672954e+02
9.500000e-07	-1.502496e-06	-2.479665e-09	-1.096779e+01	-1.644508e+02
9.600000e-07	-1.434699e-06	-2.416226e-09	-1.047290e+01	-1.615071e+02
9.700000e-07	-1.366713e-06	-2.364874e-09	-9.976620e+00	-1.584595e+02
9.800000e-07	-1.298542e-06	-2.329486e-09	-9.478990e+00	-1.553029e+02
9.900000e-07	-1.230150e-06	-2.287747e-09	-8.979749e+00	-1.520320e+02
1.000000e-06	-1.161511e-06	-2.230561e-09	-8.478704e+00	-1.486413e+02
1.010000e-06	-1.092559e-06	-2.168630e-09	-7.975371e+00	-1.451244e+02
1.020000e-06	-1.023273e-06	-2.115721e-09	-7.469606e+00	-1.414747e+02
1.030000e-06	-9.538169e-07	-2.067380e-09	-6.962594e+00	-1.376847e+02
1.040000e-06	-8.842642e-07	-2.008508e-09	-6.454879e+00	-1.337461e+02
1.050000e-06	-8.145946e-07	-1.936272e-09	-5.946311e+00	-1.296498e+02
1.060000e-06	-7.447758e-07	-1.863712e-09	-5.436653e+00	-1.253856e+02
1.070000e-06	-6.747782e-07	-1.799279e-09	-4.925691e+00	-1.209426e+02
1.080000e-06	-6.046239e-07	-1.734264e-09	-4.413584e+00	-1.163092e+02
1.090000e-06	-5.344005e-07	-1.655088e-09	-3.900973e+00	-1.114730e+02
1.100000e-06	-4.640735e-07	-1.566766e-09	-3.387605e+00	-1.064215e+02
1.110000e-06	-3.935976e-07	-1.485397e-09	-2.873151e+00	-1.011419e+02
1.120000e-06	-3.230730e-07	-1.409222e-09	-2.358342e+00	-9.562204e+01
1.130000e-06	-2.525073e-07	-1.322747e-09	-1.843232e+00	-8.985062e+01
1.140000e-06	-1.819130e-07	-1.222143e-09	-1.327914e+00	-8.381768e+01
1.150000e-06	-1.113057e-07	-1.120682e-09	-8.125004e-01	-7.751526e+01
1.160000e-06	-4.064905e-08	-1.025522e-09	-2.967266e-01	-7.093794e+01
1.170000e-06	3.002029e-08	-9.273419e-10	2.191396e-01	-6.408343e+01
1.180000e-06	1.006547e-07	-8.167926e-10	7.347511e-01	-5.695303e+01
1.190000e-06	1.712683e-07	-7.000882e-10	1.250210e+00	-4.955214e+01
1.200000e-06	2.418350e-07	-5.856311e-10	1.765327e+00	-4.189060e+01
1.210000e-06	3.123772e-07	-4.710173e-10	2.280265e+00	-3.398290e+01
1.220000e-06	3.828303e-07	-3.483105e-10	2.794553e+00	-2.584831e+01
1.230000e-06	4.531080e-07	-2.175928e-10	3.307561e+00	-1.751081e+01
1.240000e-06	5.232961e-07	-8.552696e-11	3.819914e+00	-8.998875e+00
1.250000e-06	5.933947e-07	4.586455e-11	4.331614e+00	-3.451026e-01
1.260000e-06	6.633693e-07	1.768895e-10	4.842408e+00	8.414339e+00
1.270000e-06	7.332198e-07	3.124163e-10	5.352298e+00	1.724038e+01
1.280000e-06	8.028959e-07	4.508869e-10	5.860914e+00	2.609185e+01
1.290000e-06	8.723662e-07	5.877493e-10	6.368027e+00	3.492638e+01
1.300000e-06	9.417070e-07	7.219918e-10	6.874196e+00	4.370134e+01
1.310000e-06	1.010849e-06	8.557101e-10	7.378915e+00	5.237484e+01
1.320000e-06	1.079746e-06	9.905921e-10	7.881840e+00	6.090668e+01
1.330000e-06	1.148448e-06	1.120490e-09	8.383348e+00	6.925928e+01
1.340000e-06	1.216957e-06	1.246439e-09	8.883443e+00	7.739851e+01
1.350000e-06	1.285294e-06	1.367283e-09	9.382287e+00	8.529436e+01
1.360000e-06	1.353457e-06	1.481518e-09	9.879856e+00	9.292157e+01
1.370000e-06	1.421439e-06	1.590416e-09	1.037610e+01	1.002600e+02
1.380000e-06	1.489204e-06	1.695666e-09	1.087077e+01	1.072947e+02
1.390000e-06	1.556791e-06	1.795432e-09	1.136414e+01	1.140163e+02
1.400000e-06	1.624276e-06	1.888655e-09	1.185675e+01	1.204205e+02
1.410000e-06	1.691633e-06	1.980233e-09	1.234844e+01	1.265079e+02
1.420000e-06	1.758739e-06	2.070595e-09	1.283830e+01	1.322836e+02
1.430000e-06	1.825483e-06	2.154817e-09	1.332551e+01	1.377567e+02
1.440000e-06	1.891887e-06	2.233941e-09	1.381024e+01	1.429393e+02
1.450000e-06	1.957792e-06	2.308491e-09	1.429133e+01	1.478460e+02
1.460000e-06	2.023034e-06	2.377850e-09	1.476758e+01	1.524935e+02
1.470000e-06	2.087734e-06	2.444641e-09	1.523987e+01	1.568991e+02
1.480000e-06	2.152006e-06	2.507291e-09	1.570903e+01	1.610809e+02
1.490000e-06	2.215904e-06	2.568654e-09	1.617547e+01	1.650563e+02
1.500000e-06	2.279553e-06	2.627335e-09	1.664010e+01	1.688424e+02
1.510000e-06	2.342969e-06	2.684001e-09	1.710301e+01	1.724548e+02
1.520000e-06	2.406045e-06	2.739463e-09	1.756345e+01	1.759078e+02
1.530000e-06	2.468691e-06	2.791818e-09	1.802075e+01	1.792142e+02
1.540000e-06	2.530859e-06	2.840094e-09	1.847456e+01	1.823848e+02
1.550000e-06	2.592569e-06	2.881392e-09	1.892502e+01	1.854291e+02
1.560000e-06	2.653866e-06	2.922288e-09	1.937247e+01	1.883548e+02
1.570000e-06	2.714736e-06	2.963447e-09	1.981680e+01	1.911685e+02
1.580000e-06	2.775092e-06	3.001515e-09	2.025739e+01	1.938755e+02
1.590000e-06	2.834987e-06	3.039110e-09	2.069460e+01	1.964805e+02
1.600000e-06	2.894570e-06	3.077283e-09	2.112955e+01	1.989875e+02
1.610000e-06	2.953851e-06	3.116108e-09	2.156228e+01	2.013999e+02
1.620000e-06	3.012538e-06	3.152374e-09	2.199068e+01	2.037215e+02
1.630000e-06	3.070357e-06	3.184593e-09	2.241274e+01	2.059556e+02
1.640000e-06	3.127301e-06	3.215272e-09	2.282842e+01	2.081058e+02
1.650000e-06	3.183497e-06	3.244398e-09	2.323863e+01	2.101760e+02
1.660000e-06	3.239188e-06	3.273801e-09	2.364516e+01	2.121702e+02
1.670000e-06	3.294522e-06	3.301318e-09	2.404908e+01	2.140923e+02
1.680000e-06	3.349434e-06	3.327140e-09	2.444993e+01	2.159466e+02
1.690000e-06	3.403738e-06	3.354634e-09	2.484633e+01	2.177370e+02
1.700000e-06	3.457420e-06	3.381800e-09	2.523819e+01	2.194675e+02
1.710000e-06	3.510549e-06	3.408564e-09	2.562602e+01	2.211415e+02
1.720000e-06	3.563025e-06	3.432516e-09	2.600908e+01	2.227622e+02
1.730000e-06	3.614848e-06	3.454006e-09	2.638737e+01	2.243324e+02
1.740000e-06	3.666007e-06	3.475729e-09	2.676082e+01	2.258540e+02
1.750000e-06	3.716305e-06	3.498077e-09	2.712798e+01	2.273287e+02
1.760000e-06	3.765569e-06	3.519482e-09	2.748759e+01	2.287576e+02
1.770000e-06	3.813921e-06	3.539521e-09	2.784054e+01	2.301412e+02
1.780000e-06	3.861662e-06	3.559701e-09	2.818904e+01	2.314799e+02
1.790000e-06	3.908847e-06	3.578862e-09	2.853348e+01	2.327737e+02
1.800000e-06	3.955381e-06	3.597474e-09	2.887316e+01	2.340224e+02
1.810000e-06	4.001270e-06	3.616117e-09	2.920814e+01	2.352259e+02
1.820000e-06	4.046457e-06	3.634079e-09	2.953800e+01	2.363844e+02
1.830000e-06	4.090874e-06	3.651865e-09	2.986223e+01	2.374980e+02
1.840000e-06	4.134682e-06	3.669247e-09	3.018201e+01	2.385674e+02
1.850000e-06	4.178058e-06	3.685617e-09	3.049864e+01	2.395937e+02
1.860000e-06	4.220787e-06	3.700764e-09	3.081055e+01	2.405780e+02
1.870000e-06	4.262411e-06	3.716661e-09	3.111439e+01	2.415223e+02
1.880000e-06	4.302890e-06	3.734782e-09	3.140989e+01	2.424287e+02
1.890000e-06	4.342629e-06	3.750709e-09	3.169997e+01	2.432993e+02
1.900000e-06	4.381758e-06	3.762196e-09	3.198560e+01	2.441367e+02
1.910000e-06	4.420143e-06	3.774051e-09	3.226580e+01	2.449435e+02
1.920000e-06	4.457815e-06	3.787201e-09	3.254079e+01	2.457220e+02
1.930000e-06	4.494728e-06	3.799346e-09	3.281025e+01	2.464745e+02
1.940000e-06	4.530860e-06	3.811236e-09	3.307400e+01	2.472030e+02
1.950000e-06	4.566412e-06	3.822119e-09	3.333352e+01	2.479091e+02
1.960000e-06	4.601295e-06	3.833351e-09	3.358816e+01	2.485941e+02
1.970000e-06	4.635134e-06	3.844884e-09	3.383517e+01	2.492588e+02
1.980000e-06	4.667779e-06	3.855755e-09	3.407347e+01	2.499037e+02
1.990000e-06	4.699521e-06	3.866006e-09	3.430518e+01	2.505289e+02
2.000000e-06	4.730610e-06	3.873457e-09	3.453212e+01	2.511342e+02
2.010000e-06	4.760960e-06	3.880709e-09	3.475367e+01	2.517194e+02
2.020000e-06	4.790538e-06	3.889963e-09	3.496957e+01	2.522839e+02
2.030000e-06	4.819258e-06	3.900198e-09	3.517923e+01	2.528274e+02
2.040000e-06	4.847197e-06	3.909801e-09	3.538317e+01	2.533495e+02
2.050000e-06	4.874590e-06	3.918462e-09	3.558313e+01	2.538500e+02
2.060000e-06	4.901184e-06	3.928324e-09	3.577726e+01	2.543291e+02
2.070000e-06	4.926498e-06	3.939322e-09	3.596205e+01	2.547871e+02
2.080000e-06	4.950646e-06	3.948682e-09	3.613832e+01	2.552244e+02
2.090000e-06	4.974039e-06	3.956378e-09	3.630908e+01	2.556420e+02
2.100000e-06	4.996618e-06	3.963817e-09	3.647390e+01	2.560408e+02
2.110000e-06	5.018333e-06	3.969063e-09	3.663241e+01	2.564220e+02
2.120000e-06	5.039211e-06	3.972312e-09	3.678482e+01	2.567867e+02
2.130000e-06	5.059304e-06	3.978876e-09	3.693149e+01	2.571360e+02
2.140000e-06	5.078816e-06	3.986477e-09	3.707392e+01	2.574709e+02
2.150000e-06	5.097611e-06	3.991886e-09	3.721112e+01	2.577920e+02
2.160000e-06	5.115400e-06	3.996892e-09	3.734098e+01	2.580998e+02
2.170000e-06	5.132247e-06	4.002840e-09	3.746395e+01	2.583945e+02
2.180000e-06	5.148282e-06	4.009951e-09	3.758101e+01	2.586759e+02
2.190000e-06	5.163247e-06	4.014338e-09	3.769025e+01	2.589434e+02
2.200000e-06	5.177102e-06	4.015523e-09	3.779138e+01	2.591964e+02
2.210000e-06	5.190042e-06	4.019504e-09	3.788584e+01	2.594338e+02
2.220000e-06	5.202057e-06	4.026171e-09	3.797355e+01	2.596546e+02
2.230000e-06	5.213107e-06	4.030797e-09	3.805421e+01	2.598577e+02
2.240000e-06	5.222943e-06	4.032580e-09	3.812601e+01	2.600423e+02
2.250000e-06	5.231495e-06	4.035136e-09	3.818844e+01	2.602076e+02
2.260000e-06	5.239135e-06	4.039429e-09	3.824421e+01	2.603532e+02
2.270000e-06	5.245975e-06	4.044475e-09	3.829414e+01	2.604791e+02
2.280000e-06	5.251909e-06	4.046477e-09	3.833745e+01	2.605858e+02
2.290000e-06	5.256921e-06	4.045799e-09	3.837404e+01	2.606740e+02
2.300000e-06	5.261051e-06	4.047237e-09	3.840419e+01	2.607451e+02
2.310000e-06	5.264518e-06	4.050916e-09	3.842950e+01	2.608006e+02
2.320000e-06	5.267172e-06	4.054577e-09	3.844887e+01	2.608424e+02
2.330000e-06	5.268538e-06	4.056767e-09	3.845884e+01	2.608725e+02
2.340000e-06	5.268697e-06	4.058260e-09	3.846000e+01	2.608928e+02
2.350000e-06	5.268045e-06	4.060527e-09	3.845524e+01	2.609052e+02
2.360000e-06	5.266604e-06	4.061688e-09	3.844472e+01	2.609111e+02
2.370000e-06	5.264302e-06	4.057440e-09	3.842792e+01	2.609116e+02
2.380000e-06	5.261129e-06	4.054105e-09	3.840476e+01	2.609072e+02
2.390000e-06	5.257211e-06	4.056279e-09	3.837615e+01	2.608976e+02
2.400000e-06	5.252708e-06	4.060082e-09	3.834328e+01	2.608820e+02
2.410000e-06	5.247412e-06	4.066729e-09	3.830462e+01	2.608588e+02
2.420000e-06	5.240902e-06	4.087453e-09	3.825710e+01	2.608255e+02
2.430000e-06	5.233201e-06	4.061221e-09	3.820089e+01	2.607794e+02
2.440000e-06	5.224643e-06	3.981103e-09	3.813842e+01	2.607170e+02
2.450000e-06	5.214883e-06	3.954016e-09	3.806717e+01	2.606346e+02
2.460000e-06	5.203713e-06	4.081918e-09	3.798564e+01	2.605283e+02
2.470000e-06	5.191937e-06	4.219778e-09	3.789968e+01	2.603943e+02
2.480000e-06	5.180161e-06	4.077572e-09	3.781371e+01	2.602289e+02
2.490000e-06	5.167339e-06	3.935712e-09	3.772011e+01	2.600290e+02
2.500000e-06	5.152483e-06	4.089204e-09	3.761167e+01	2.597919e+02
2.510000e-06	5.136700e-06	4.108429e-09	3.749646e+01	2.595160e+02
2.520000e-06	5.120726e-06	4.079702e-09	3.737985e+01	2.592001e+02
2.530000e-06	5.103632e-06	4.155384e-09	3.725507e+01	2.588443e+02
2.540000e-06	5.085405e-06	3.966981e-09	3.712202e+01	2.584493e+02
2.550000e-06	5.066787e-06	3.878952e-09	3.698611e+01	2.580169e+02
2.560000e-06	5.047458e-06	4.101826e-09	3.684502e+01	2.575496e+02
2.570000e-06	5.027200e-06	3.991774e-09	3.669714e+01	2.570506e+02
2.580000e-06	5.006119e-06	3.695379e-09	3.654326e+01	2.565237e+02
2.590000e-06	4.983823e-06	3.866237e-09	3.638050e+01	2.559730e+02
2.600000e-06	4.960310e-06	3.976594e-09	3.620886e+01	2.554027e+02
2.610000e-06	4.935832e-06	3.775617e-09	3.603018e+01	2.548171e+02
2.620000e-06	4.910444e-06	3.743357e-09	3.584486e+01	2.542202e+02
2.630000e-06	4.884436e-06	3.745516e-09	3.565500e+01	2.536156e+02
2.640000e-06	4.857679e-06	3.761670e-09	3.545969e+01	2.530064e+02
2.650000e-06	4.829918e-06	3.823496e-09	3.525704e+01	2.523950e+02
2.660000e-06	4.801577e-06	3.745156e-09	3.505016e+01	2.517832e+02
2.670000e-06	4.772429e-06	3.710107e-09	3.483739e+01	2.511718e+02
2.680000e-06	4.741754e-06	3.680032e-09	3.461347e+01	2.505612e+02
2.690000e-06	4.709991e-06	3.686960e-09	3.438160e+01	2.499506e+02
2.700000e-06	4.677706e-06	3.834717e-09	3.414594e+01	2.493391e+02
2.710000e-06	4.644600e-06	3.702379e-09	3.390427e+01	2.487247e+02
2.720000e-06	4.610579e-06	3.525896e-09	3.365592e+01	2.481055e+02
2.730000e-06	4.575919e-06	3.706531e-09	3.340292e+01	2.474788e+02
2.740000e-06	4.540644e-06	3.795772e-09	3.314542e+01	2.468421e+02
2.750000e-06	4.504628e-06	3.650150e-09	3.288251e+01	2.461928e+02
2.760000e-06	4.467914e-06	3.555450e-09	3.261451e+01	2.455281e+02
2.770000e-06	4.430407e-06	3.630787e-09	3.234072e+01	2.448457e+02
2.780000e-06	4.391720e-06	3.706367e-09	3.205832e+01	2.441435e+02
2.790000e-06	4.351928e-06	3.621373e-09	3.176784e+01	2.434196e+02
2.800000e-06	4.311522e-06	3.573836e-09	3.147290e+01	2.426725e+02
2.810000e-06	4.270607e-06	3.580433e-09	3.117423e+01	2.419013e+02
2.820000e-06	4.228937e-06	3.574875e-09	3.087005e+01	2.411052e+02
2.830000e-06	4.186458e-06	3.601548e-09	3.055996e+01	2.402838e+02
2.840000e-06	4.143349e-06	3.575733e-09	3.024528e+01	2.394370e+02
2.850000e-06	4.099640e-06	3.527511e-09	2.992621e+01	2.385649e+02
2.860000e-06	4.055410e-06	3.504946e-09	2.960335e+01	2.376679e+02
2.870000e-06	4.010741e-06	3.533372e-09	2.927728e+01	2.367463e+02
2.880000e-06	3.965374e-06	3.560431e-09	2.894611e+01	2.358005e+02
2.890000e-06	3.919022e-06	3.478237e-09	2.860775e+01	2.348308e+02
2.900000e-06	3.871858e-06	3.432214e-09	2.826347e+01	2.338376e+02
2.910000e-06	3.824369e-06	3.478114e-09	2.791681e+01	2.328208e+02
2.920000e-06	3.776247e-06	3.492813e-09	2.756554e+01	2.317806e+02
2.930000e-06	3.727039e-06	3.436430e-09	2.720634e+01	2.307164e+02
2.940000e-06	3.677103e-06	3.388609e-09	2.684182e+01	2.296280e+02
2.950000e-06	3.626618e-06	3.410576e-09	2.647328e+01	2.285144e+02
