# Temperatura_=_20.0
# Concentracion g/m^3_=_9000.0
# C_Vs_to_Am_M_A/Vsm_=_65563218390.804596
# pendiente_HvsI_1/m_=_3716.3
# ordenada_HvsI_A/m_=_1297.0
# frecuencia_Hz_=_212888.51427932316

Tiempo_(s)	Campo_(V.s)	Magnetizacion_(V.s)	Campo_(kA/m)	Magnetizacion_(A/m)
0.000000e+00	-5.282469e-06	-3.971721e-09	-3.841311e+01	-2.623365e+02
1.000000e-08	-5.282370e-06	-3.972814e-09	-3.841239e+01	-2.623302e+02
2.000000e-08	-5.281308e-06	-3.974816e-09	-3.840467e+01	-2.623074e+02
3.000000e-08	-5.279008e-06	-3.975538e-09	-3.838794e+01	-2.622689e+02
4.000000e-08	-5.275694e-06	-3.975268e-09	-3.836384e+01	-2.622159e+02
5.000000e-08	-5.271614e-06	-3.975459e-09	-3.833417e+01	-2.621498e+02
6.000000e-08	-5.266775e-06	-3.974886e-09	-3.829899e+01	-2.620722e+02
7.000000e-08	-5.261118e-06	-3.971079e-09	-3.825785e+01	-2.619847e+02
8.000000e-08	-5.254525e-06	-3.959468e-09	-3.820991e+01	-2.618890e+02
9.000000e-08	-5.247081e-06	-3.975811e-09	-3.815578e+01	-2.617864e+02
1.000000e-07	-5.238714e-06	-4.018007e-09	-3.809493e+01	-2.616783e+02
1.100000e-07	-5.228988e-06	-4.034340e-09	-3.802421e+01	-2.615657e+02
1.200000e-07	-5.217998e-06	-3.961360e-09	-3.794429e+01	-2.614489e+02
1.300000e-07	-5.206154e-06	-3.860788e-09	-3.785817e+01	-2.613278e+02
1.400000e-07	-5.193458e-06	-3.938824e-09	-3.776584e+01	-2.612018e+02
1.500000e-07	-5.179903e-06	-4.059608e-09	-3.766727e+01	-2.610695e+02
1.600000e-07	-5.165584e-06	-3.956910e-09	-3.756315e+01	-2.609290e+02
1.700000e-07	-5.150155e-06	-3.923028e-09	-3.745095e+01	-2.607776e+02
1.800000e-07	-5.133345e-06	-3.918555e-09	-3.732871e+01	-2.606123e+02
1.900000e-07	-5.115632e-06	-3.880271e-09	-3.719990e+01	-2.604295e+02
2.000000e-07	-5.097400e-06	-4.004448e-09	-3.706733e+01	-2.602255e+02
2.100000e-07	-5.078409e-06	-4.022916e-09	-3.692922e+01	-2.599964e+02
2.200000e-07	-5.058474e-06	-3.855638e-09	-3.678426e+01	-2.597386e+02
2.300000e-07	-5.037816e-06	-3.886506e-09	-3.663404e+01	-2.594486e+02
2.400000e-07	-5.016406e-06	-4.094786e-09	-3.647835e+01	-2.591234e+02
2.500000e-07	-4.993975e-06	-4.031478e-09	-3.631524e+01	-2.587608e+02
2.600000e-07	-4.970671e-06	-3.912963e-09	-3.614577e+01	-2.583593e+02
2.700000e-07	-4.946620e-06	-3.923277e-09	-3.597088e+01	-2.579184e+02
2.800000e-07	-4.921715e-06	-3.973190e-09	-3.578978e+01	-2.574385e+02
2.900000e-07	-4.895711e-06	-4.008254e-09	-3.560068e+01	-2.569210e+02
3.000000e-07	-4.868562e-06	-3.938739e-09	-3.540326e+01	-2.563681e+02
3.100000e-07	-4.840557e-06	-3.892234e-09	-3.519961e+01	-2.557828e+02
3.200000e-07	-4.811790e-06	-3.912448e-09	-3.499042e+01	-2.551691e+02
3.300000e-07	-4.782135e-06	-3.913711e-09	-3.477478e+01	-2.545310e+02
3.400000e-07	-4.751661e-06	-3.940853e-09	-3.455318e+01	-2.538729e+02
3.500000e-07	-4.720491e-06	-3.932559e-09	-3.432652e+01	-2.531994e+02
3.600000e-07	-4.688582e-06	-3.818066e-09	-3.409448e+01	-2.525145e+02
3.700000e-07	-4.655950e-06	-3.837910e-09	-3.385719e+01	-2.518218e+02
3.800000e-07	-4.622444e-06	-3.949594e-09	-3.361353e+01	-2.511246e+02
3.900000e-07	-4.587720e-06	-3.879308e-09	-3.336103e+01	-2.504247e+02
4.000000e-07	-4.551974e-06	-3.764848e-09	-3.310109e+01	-2.497235e+02
4.100000e-07	-4.515587e-06	-3.825256e-09	-3.283649e+01	-2.490212e+02
4.200000e-07	-4.478500e-06	-3.886061e-09	-3.256680e+01	-2.483168e+02
4.300000e-07	-4.440489e-06	-3.818141e-09	-3.229039e+01	-2.476086e+02
4.400000e-07	-4.401580e-06	-3.777806e-09	-3.200746e+01	-2.468941e+02
4.500000e-07	-4.362144e-06	-3.790201e-09	-3.172068e+01	-2.461700e+02
4.600000e-07	-4.322293e-06	-3.788178e-09	-3.143089e+01	-2.454325e+02
4.700000e-07	-4.281648e-06	-3.775380e-09	-3.113533e+01	-2.446779e+02
4.800000e-07	-4.239939e-06	-3.754388e-09	-3.083203e+01	-2.439023e+02
4.900000e-07	-4.197195e-06	-3.727429e-09	-3.052120e+01	-2.431019e+02
5.000000e-07	-4.153663e-06	-3.714775e-09	-3.020465e+01	-2.422738e+02
5.100000e-07	-4.109620e-06	-3.720813e-09	-2.988437e+01	-2.414153e+02
5.200000e-07	-4.064954e-06	-3.709425e-09	-2.955957e+01	-2.405246e+02
5.300000e-07	-4.019503e-06	-3.673012e-09	-2.922906e+01	-2.396007e+02
5.400000e-07	-3.973289e-06	-3.647942e-09	-2.889300e+01	-2.386434e+02
5.500000e-07	-3.926428e-06	-3.651757e-09	-2.855224e+01	-2.376533e+02
5.600000e-07	-3.879018e-06	-3.653982e-09	-2.820748e+01	-2.366314e+02
5.700000e-07	-3.831014e-06	-3.613564e-09	-2.785841e+01	-2.355794e+02
5.800000e-07	-3.782139e-06	-3.574010e-09	-2.750299e+01	-2.344992e+02
5.900000e-07	-3.732151e-06	-3.583928e-09	-2.713949e+01	-2.333927e+02
6.000000e-07	-3.681201e-06	-3.584221e-09	-2.676899e+01	-2.322617e+02
6.100000e-07	-3.629461e-06	-3.542185e-09	-2.639275e+01	-2.311077e+02
6.200000e-07	-3.576996e-06	-3.513090e-09	-2.601123e+01	-2.299314e+02
6.300000e-07	-3.523877e-06	-3.516734e-09	-2.562497e+01	-2.287333e+02
6.400000e-07	-3.470177e-06	-3.504520e-09	-2.523447e+01	-2.275127e+02
6.500000e-07	-3.415886e-06	-3.472192e-09	-2.483967e+01	-2.262684e+02
6.600000e-07	-3.360932e-06	-3.449928e-09	-2.444006e+01	-2.249984e+02
6.700000e-07	-3.305459e-06	-3.428600e-09	-2.403667e+01	-2.237000e+02
6.800000e-07	-3.249626e-06	-3.409211e-09	-2.363066e+01	-2.223701e+02
6.900000e-07	-3.193340e-06	-3.394582e-09	-2.322137e+01	-2.210050e+02
7.000000e-07	-3.136341e-06	-3.366776e-09	-2.280688e+01	-2.196012e+02
7.100000e-07	-3.078354e-06	-3.332274e-09	-2.238520e+01	-2.181552e+02
7.200000e-07	-3.019526e-06	-3.311511e-09	-2.195742e+01	-2.166635e+02
7.300000e-07	-2.960189e-06	-3.300754e-09	-2.152593e+01	-2.151235e+02
7.400000e-07	-2.900484e-06	-3.274047e-09	-2.109177e+01	-2.135330e+02
7.500000e-07	-2.840384e-06	-3.234726e-09	-2.065473e+01	-2.118904e+02
7.600000e-07	-2.779748e-06	-3.209694e-09	-2.021380e+01	-2.101952e+02
7.700000e-07	-2.718616e-06	-3.193028e-09	-1.976926e+01	-2.084471e+02
7.800000e-07	-2.657128e-06	-3.164701e-09	-1.932213e+01	-2.066470e+02
7.900000e-07	-2.595224e-06	-3.123644e-09	-1.887198e+01	-2.047961e+02
8.000000e-07	-2.532773e-06	-3.093344e-09	-1.841784e+01	-2.028956e+02
8.100000e-07	-2.469827e-06	-3.077443e-09	-1.796011e+01	-2.009474e+02
8.200000e-07	-2.406544e-06	-3.050525e-09	-1.749993e+01	-1.989528e+02
8.300000e-07	-2.342991e-06	-3.011543e-09	-1.703778e+01	-1.969129e+02
8.400000e-07	-2.279131e-06	-2.974937e-09	-1.657341e+01	-1.948282e+02
8.500000e-07	-2.214933e-06	-2.944136e-09	-1.610657e+01	-1.926985e+02
8.600000e-07	-2.150438e-06	-2.911964e-09	-1.563758e+01	-1.905224e+02
8.700000e-07	-2.085628e-06	-2.873687e-09	-1.516629e+01	-1.882977e+02
8.800000e-07	-2.020225e-06	-2.833228e-09	-1.469070e+01	-1.860213e+02
8.900000e-07	-1.954183e-06	-2.792948e-09	-1.421045e+01	-1.836887e+02
9.000000e-07	-1.887732e-06	-2.760151e-09	-1.372723e+01	-1.812947e+02
9.100000e-07	-1.820927e-06	-2.727418e-09	-1.324144e+01	-1.788334e+02
9.200000e-07	-1.753799e-06	-2.681762e-09	-1.275330e+01	-1.762983e+02
9.300000e-07	-1.686422e-06	-2.635208e-09	-1.226334e+01	-1.736824e+02
9.400000e-07	-1.618847e-06	-2.596563e-09	-1.177195e+01	-1.709786e+02
9.500000e-07	-1.551129e-06	-2.556152e-09	-1.127951e+01	-1.681799e+02
9.600000e-07	-1.483231e-06	-2.502962e-09	-1.078578e+01	-1.652794e+02
9.700000e-07	-1.415132e-06	-2.447590e-09	-1.029057e+01	-1.622705e+02
9.800000e-07	-1.346834e-06	-2.402900e-09	-9.793925e+00	-1.591473e+02
9.900000e-07	-1.278279e-06	-2.358736e-09	-9.295400e+00	-1.559037e+02
1.000000e-06	-1.209494e-06	-2.307400e-09	-8.795210e+00	-1.525345e+02
1.010000e-06	-1.140434e-06	-2.251735e-09	-8.293016e+00	-1.490343e+02
1.020000e-06	-1.071012e-06	-2.196037e-09	-7.788197e+00	-1.453977e+02
1.030000e-06	-1.001452e-06	-2.141318e-09	-7.282372e+00	-1.416193e+02
1.040000e-06	-9.318198e-07	-2.083251e-09	-6.776017e+00	-1.376931e+02
1.050000e-06	-8.619500e-07	-2.019575e-09	-6.267936e+00	-1.336123e+02
1.060000e-06	-7.919106e-07	-1.950346e-09	-5.758623e+00	-1.293694e+02
1.070000e-06	-7.217672e-07	-1.880058e-09	-5.248554e+00	-1.249557e+02
1.080000e-06	-6.514402e-07	-1.811536e-09	-4.737149e+00	-1.203614e+02
1.090000e-06	-5.808880e-07	-1.739008e-09	-4.224107e+00	-1.155757e+02
1.100000e-06	-5.102015e-07	-1.659135e-09	-3.710089e+00	-1.105868e+02
1.110000e-06	-4.394609e-07	-1.576422e-09	-3.195676e+00	-1.053822e+02
1.120000e-06	-3.686822e-07	-1.495232e-09	-2.680987e+00	-9.994920e+01
1.130000e-06	-2.979000e-07	-1.411547e-09	-2.166272e+00	-9.427509e+01
1.140000e-06	-2.270614e-07	-1.318896e-09	-1.651148e+00	-8.834804e+01
1.150000e-06	-1.561527e-07	-1.220504e-09	-1.135513e+00	-8.215759e+01
1.160000e-06	-8.523017e-08	-1.121154e-09	-6.197776e-01	-7.569533e+01
1.170000e-06	-1.432685e-08	-1.020067e-09	-1.041821e-01	-6.895567e+01
1.180000e-06	5.658245e-08	-9.152935e-10	4.114568e-01	-6.193644e+01
1.190000e-06	1.274732e-07	-8.043802e-10	9.269607e-01	-5.463953e+01
1.200000e-06	1.982885e-07	-6.895571e-10	1.441916e+00	-4.707136e+01
1.210000e-06	2.690721e-07	-5.707868e-10	1.956641e+00	-3.924328e+01
1.220000e-06	3.397959e-07	-4.482270e-10	2.470932e+00	-3.117175e+01
1.230000e-06	4.103842e-07	-3.229636e-10	2.984236e+00	-2.287838e+01
1.240000e-06	4.808954e-07	-1.933499e-10	3.496980e+00	-1.438977e+01
1.250000e-06	5.512951e-07	-6.207168e-11	4.008914e+00	-5.737163e+00
1.260000e-06	6.215610e-07	7.015634e-11	4.519873e+00	3.044113e+00
1.270000e-06	6.917275e-07	2.032549e-10	5.030111e+00	1.191532e+01
1.280000e-06	7.617790e-07	3.386894e-10	5.539512e+00	2.083515e+01
1.290000e-06	8.317040e-07	4.779452e-10	6.047993e+00	2.976070e+01
1.300000e-06	9.014164e-07	6.157198e-10	6.554929e+00	3.864844e+01
1.310000e-06	9.709401e-07	7.516214e-10	7.060492e+00	4.745529e+01
1.320000e-06	1.040301e-06	8.843865e-10	7.564873e+00	5.613964e+01
1.330000e-06	1.109472e-06	1.016284e-09	8.067872e+00	6.466232e+01
1.340000e-06	1.178431e-06	1.145904e-09	8.569329e+00	7.298743e+01
1.350000e-06	1.247211e-06	1.269816e-09	9.069480e+00	8.108316e+01
1.360000e-06	1.315821e-06	1.387512e-09	9.568403e+00	8.892230e+01
1.370000e-06	1.384196e-06	1.499554e-09	1.006561e+01	9.648271e+01
1.380000e-06	1.452384e-06	1.608757e-09	1.056146e+01	1.037475e+02
1.390000e-06	1.520424e-06	1.711451e-09	1.105624e+01	1.107051e+02
1.400000e-06	1.588277e-06	1.807862e-09	1.154965e+01	1.173492e+02
1.410000e-06	1.655890e-06	1.900887e-09	1.204132e+01	1.236783e+02
1.420000e-06	1.723282e-06	1.991344e-09	1.253138e+01	1.296952e+02
1.430000e-06	1.790473e-06	2.077635e-09	1.301998e+01	1.354070e+02
1.440000e-06	1.857334e-06	2.160272e-09	1.350618e+01	1.408237e+02
1.450000e-06	1.923688e-06	2.239592e-09	1.398869e+01	1.459580e+02
1.460000e-06	1.989529e-06	2.314446e-09	1.446748e+01	1.508246e+02
1.470000e-06	2.054884e-06	2.384928e-09	1.494273e+01	1.554394e+02
1.480000e-06	2.119797e-06	2.452011e-09	1.541476e+01	1.598189e+02
1.490000e-06	2.184287e-06	2.515189e-09	1.588372e+01	1.639796e+02
1.500000e-06	2.248318e-06	2.574978e-09	1.634934e+01	1.679377e+02
1.510000e-06	2.312048e-06	2.631996e-09	1.681277e+01	1.717085e+02
1.520000e-06	2.375479e-06	2.686855e-09	1.727403e+01	1.753061e+02
1.530000e-06	2.438509e-06	2.740568e-09	1.773238e+01	1.787436e+02
1.540000e-06	2.501150e-06	2.792030e-09	1.818789e+01	1.820324e+02
1.550000e-06	2.563415e-06	2.838757e-09	1.864066e+01	1.851830e+02
1.560000e-06	2.625268e-06	2.881196e-09	1.909045e+01	1.882042e+02
1.570000e-06	2.686616e-06	2.922291e-09	1.953656e+01	1.911039e+02
1.580000e-06	2.747455e-06	2.962857e-09	1.997897e+01	1.938888e+02
1.590000e-06	2.807843e-06	3.002217e-09	2.041810e+01	1.965649e+02
1.600000e-06	2.867862e-06	3.039413e-09	2.085455e+01	1.991375e+02
1.610000e-06	2.927550e-06	3.074849e-09	2.128859e+01	2.016115e+02
1.620000e-06	2.986761e-06	3.110795e-09	2.171916e+01	2.039914e+02
1.630000e-06	3.045320e-06	3.146199e-09	2.214499e+01	2.062814e+02
1.640000e-06	3.103085e-06	3.177620e-09	2.256504e+01	2.084859e+02
1.650000e-06	3.160021e-06	3.207445e-09	2.297908e+01	2.106089e+02
1.660000e-06	3.216286e-06	3.238204e-09	2.338822e+01	2.126545e+02
1.670000e-06	3.272072e-06	3.267678e-09	2.379388e+01	2.146268e+02
1.680000e-06	3.327388e-06	3.294083e-09	2.419613e+01	2.165295e+02
1.690000e-06	3.382147e-06	3.319264e-09	2.459433e+01	2.183665e+02
1.700000e-06	3.436364e-06	3.344904e-09	2.498859e+01	2.201413e+02
1.710000e-06	3.490010e-06	3.370182e-09	2.537869e+01	2.218572e+02
1.720000e-06	3.543086e-06	3.393891e-09	2.576465e+01	2.235172e+02
1.730000e-06	3.595594e-06	3.416229e-09	2.614648e+01	2.251238e+02
1.740000e-06	3.647433e-06	3.439511e-09	2.652344e+01	2.266793e+02
1.750000e-06	3.698454e-06	3.463618e-09	2.689446e+01	2.281854e+02
1.760000e-06	3.748563e-06	3.485555e-09	2.725884e+01	2.296438e+02
1.770000e-06	3.797755e-06	3.505370e-09	2.761656e+01	2.310554e+02
1.780000e-06	3.846134e-06	3.525654e-09	2.796836e+01	2.324213e+02
1.790000e-06	3.893870e-06	3.545521e-09	2.831548e+01	2.337419e+02
1.800000e-06	3.940964e-06	3.563463e-09	2.865795e+01	2.350178e+02
1.810000e-06	3.987411e-06	3.580387e-09	2.899569e+01	2.362495e+02
1.820000e-06	4.033195e-06	3.597120e-09	2.932863e+01	2.374372e+02
1.830000e-06	4.078256e-06	3.615569e-09	2.965630e+01	2.385815e+02
1.840000e-06	4.122629e-06	3.634866e-09	2.997897e+01	2.396830e+02
1.850000e-06	4.166446e-06	3.651605e-09	3.029761e+01	2.407423e+02
1.860000e-06	4.209754e-06	3.666190e-09	3.061253e+01	2.417604e+02
1.870000e-06	4.252246e-06	3.681409e-09	3.092153e+01	2.427384e+02
1.880000e-06	4.293661e-06	3.697059e-09	3.122268e+01	2.436776e+02
1.890000e-06	4.334114e-06	3.710628e-09	3.151686e+01	2.445794e+02
1.900000e-06	4.373793e-06	3.722426e-09	3.180539e+01	2.454454e+02
1.910000e-06	4.412790e-06	3.733893e-09	3.208897e+01	2.462773e+02
1.920000e-06	4.451107e-06	3.747243e-09	3.236760e+01	2.470769e+02
1.930000e-06	4.488616e-06	3.761477e-09	3.264036e+01	2.478460e+02
1.940000e-06	4.525349e-06	3.773848e-09	3.290748e+01	2.485863e+02
1.950000e-06	4.561452e-06	3.784689e-09	3.317001e+01	2.492995e+02
1.960000e-06	4.596859e-06	3.796324e-09	3.342748e+01	2.499873e+02
1.970000e-06	4.631434e-06	3.808290e-09	3.367891e+01	2.506510e+02
1.980000e-06	4.664988e-06	3.817378e-09	3.392291e+01	2.512921e+02
1.990000e-06	4.697525e-06	3.826148e-09	3.415951e+01	2.519116e+02
2.000000e-06	4.729242e-06	3.834950e-09	3.439015e+01	2.525105e+02
2.010000e-06	4.760163e-06	3.842721e-09	3.461500e+01	2.530896e+02
2.020000e-06	4.790305e-06	3.851391e-09	3.483419e+01	2.536496e+02
2.030000e-06	4.819638e-06	3.861096e-09	3.504749e+01	2.541909e+02
2.040000e-06	4.848168e-06	3.871029e-09	3.525496e+01	2.547139e+02
2.050000e-06	4.876032e-06	3.880524e-09	3.545758e+01	2.552188e+02
2.060000e-06	4.903172e-06	3.889551e-09	3.565494e+01	2.557056e+02
2.070000e-06	4.929250e-06	3.897997e-09	3.584457e+01	2.561746e+02
2.080000e-06	4.954145e-06	3.906915e-09	3.602560e+01	2.566258e+02
2.090000e-06	4.978089e-06	3.914744e-09	3.619972e+01	2.570590e+02
2.100000e-06	5.001199e-06	3.921628e-09	3.636777e+01	2.574745e+02
2.110000e-06	5.023505e-06	3.928920e-09	3.652998e+01	2.578722e+02
2.120000e-06	5.045038e-06	3.935968e-09	3.668656e+01	2.582522e+02
2.130000e-06	5.065721e-06	3.942345e-09	3.683696e+01	2.586147e+02
2.140000e-06	5.085673e-06	3.949000e-09	3.698205e+01	2.589598e+02
2.150000e-06	5.104998e-06	3.955754e-09	3.712257e+01	2.592878e+02
2.160000e-06	5.123451e-06	3.960339e-09	3.725677e+01	2.595990e+02
2.170000e-06	5.140952e-06	3.964739e-09	3.738403e+01	2.598938e+02
2.180000e-06	5.157620e-06	3.970486e-09	3.750523e+01	2.601725e+02
2.190000e-06	5.173355e-06	3.976628e-09	3.761966e+01	2.604354e+02
2.200000e-06	5.187982e-06	3.980350e-09	3.772602e+01	2.606830e+02
2.210000e-06	5.201562e-06	3.986251e-09	3.782477e+01	2.609155e+02
2.220000e-06	5.214218e-06	3.993358e-09	3.791681e+01	2.611332e+02
2.230000e-06	5.225964e-06	3.997926e-09	3.800222e+01	2.613363e+02
2.240000e-06	5.236673e-06	4.001214e-09	3.808010e+01	2.615248e+02
2.250000e-06	5.246116e-06	4.003870e-09	3.814876e+01	2.616986e+02
2.260000e-06	5.254391e-06	4.008210e-09	3.820894e+01	2.618576e+02
2.270000e-06	5.261780e-06	4.011908e-09	3.826266e+01	2.620014e+02
2.280000e-06	5.268346e-06	4.015752e-09	3.831041e+01	2.621298e+02
2.290000e-06	5.274020e-06	4.017365e-09	3.835167e+01	2.622422e+02
2.300000e-06	5.278798e-06	4.019270e-09	3.838642e+01	2.623381e+02
2.310000e-06	5.282814e-06	4.021506e-09	3.841562e+01	2.624172e+02
2.320000e-06	5.285999e-06	4.022183e-09	3.843878e+01	2.624790e+02
2.330000e-06	5.288062e-06	4.025065e-09	3.845379e+01	2.625233e+02
2.340000e-06	5.288917e-06	4.026474e-09	3.846000e+01	2.625500e+02
2.350000e-06	5.288831e-06	4.029978e-09	3.845938e+01	2.625591e+02
2.360000e-06	5.287940e-06	4.032722e-09	3.845290e+01	2.625511e+02
2.370000e-06	5.286202e-06	4.030642e-09	3.844026e+01	2.625267e+02
2.380000e-06	5.283575e-06	4.028830e-09	3.842116e+01	2.624867e+02
2.390000e-06	5.280106e-06	4.028703e-09	3.839593e+01	2.624323e+02
2.400000e-06	5.276003e-06	4.030337e-09	3.836610e+01	2.623651e+02
2.410000e-06	5.271228e-06	4.030039e-09	3.833137e+01	2.622864e+02
2.420000e-06	5.265406e-06	4.037707e-09	3.828903e+01	2.621980e+02
2.430000e-06	5.258369e-06	4.039248e-09	3.823786e+01	2.621015e+02
2.440000e-06	5.250386e-06	3.982219e-09	3.817981e+01	2.619984e+02
2.450000e-06	5.241426e-06	3.948498e-09	3.811466e+01	2.618898e+02
2.460000e-06	5.231145e-06	3.981644e-09	3.803989e+01	2.617767e+02
2.470000e-06	5.219755e-06	4.106678e-09	3.795707e+01	2.616595e+02
2.480000e-06	5.208029e-06	4.080563e-09	3.787180e+01	2.615380e+02
2.490000e-06	5.195872e-06	3.914859e-09	3.778340e+01	2.614114e+02
2.500000e-06	5.182158e-06	3.985557e-09	3.768367e+01	2.612784e+02
2.510000e-06	5.166908e-06	4.024888e-09	3.757277e+01	2.611370e+02
2.520000e-06	5.151089e-06	3.999366e-09	3.745774e+01	2.609843e+02
2.530000e-06	5.134551e-06	4.076531e-09	3.733748e+01	2.608174e+02
2.540000e-06	5.116785e-06	3.997692e-09	3.720829e+01	2.606327e+02
2.550000e-06	5.098332e-06	3.851486e-09	3.707410e+01	2.604264e+02
2.560000e-06	5.079455e-06	4.008568e-09	3.693684e+01	2.601946e+02
2.570000e-06	5.059785e-06	4.081831e-09	3.679380e+01	2.599337e+02
2.580000e-06	5.039193e-06	3.863787e-09	3.664406e+01	2.596403e+02
2.590000e-06	5.017409e-06	3.903264e-09	3.648565e+01	2.593115e+02
2.600000e-06	4.994365e-06	4.031140e-09	3.631807e+01	2.589451e+02
2.610000e-06	4.970375e-06	3.918808e-09	3.614362e+01	2.585397e+02
2.620000e-06	4.945475e-06	3.871045e-09	3.596255e+01	2.580949e+02
2.630000e-06	4.919785e-06	3.890409e-09	3.577574e+01	2.576111e+02
2.640000e-06	4.893510e-06	3.856341e-09	3.558467e+01	2.570899e+02
2.650000e-06	4.866367e-06	3.891975e-09	3.538730e+01	2.565336e+02
2.660000e-06	4.838429e-06	3.877895e-09	3.518414e+01	2.559454e+02
2.670000e-06	4.809878e-06	3.860451e-09	3.497652e+01	2.553290e+02
2.680000e-06	4.780070e-06	3.848428e-09	3.475976e+01	2.546887e+02
2.690000e-06	4.748830e-06	3.770367e-09	3.453259e+01	2.540289e+02
2.700000e-06	4.716834e-06	3.877071e-09	3.429992e+01	2.533541e+02
2.710000e-06	4.684190e-06	3.901378e-09	3.406254e+01	2.526682e+02
2.720000e-06	4.650616e-06	3.719690e-09	3.381840e+01	2.519750e+02
2.730000e-06	4.616231e-06	3.756720e-09	3.356835e+01	2.512774e+02
2.740000e-06	4.581219e-06	3.856256e-09	3.331375e+01	2.505774e+02
2.750000e-06	4.545540e-06	3.804298e-09	3.305430e+01	2.498761e+02
2.760000e-06	4.509167e-06	3.723029e-09	3.278981e+01	2.491736e+02
2.770000e-06	4.472055e-06	3.725092e-09	3.251994e+01	2.484690e+02
2.780000e-06	4.433858e-06	3.790869e-09	3.224217e+01	2.477603e+02
2.790000e-06	4.394481e-06	3.742857e-09	3.195583e+01	2.470450e+02
2.800000e-06	4.354339e-06	3.694892e-09	3.166393e+01	2.463197e+02
2.810000e-06	4.313661e-06	3.722640e-09	3.136813e+01	2.455807e+02
2.820000e-06	4.272288e-06	3.699401e-09	3.106727e+01	2.448242e+02
2.830000e-06	4.230176e-06	3.687798e-09	3.076104e+01	2.440462e+02
2.840000e-06	4.187382e-06	3.679777e-09	3.044985e+01	2.432433e+02
2.850000e-06	4.143976e-06	3.672158e-09	3.013421e+01	2.424122e+02
2.860000e-06	4.100050e-06	3.652134e-09	2.981479e+01	2.415505e+02
2.870000e-06	4.055574e-06	3.619579e-09	2.949137e+01	2.406565e+02
2.880000e-06	4.010477e-06	3.652969e-09	2.916342e+01	2.397293e+02
2.890000e-06	3.964614e-06	3.628662e-09	2.882992e+01	2.387687e+02
2.900000e-06	3.917867e-06	3.572431e-09	2.848999e+01	2.377754e+02
2.910000e-06	3.870524e-06	3.581925e-09	2.814572e+01	2.367504e+02
2.920000e-06	3.822663e-06	3.592099e-09	2.779768e+01	2.356955e+02
2.930000e-06	3.773915e-06	3.565611e-09	2.744320e+01	2.346126e+02
2.940000e-06	3.724295e-06	3.517321e-09	2.708237e+01	2.335036e+02
2.950000e-06	3.674048e-06	3.525642e-09	2.671698e+01	2.323702e+02
