# Temperatura_=_20.0
# Concentracion g/m^3_=_9000.0
# C_Vs_to_Am_M_A/Vsm_=_65563218390.804596
# pendiente_HvsI_1/m_=_3716.3
# ordenada_HvsI_A/m_=_1297.0
# frecuencia_Hz_=_212890.53600744123

Tiempo_(s)	Campo_(V.s)	Magnetizacion_(V.s)	Campo_(kA/m)	Magnetizacion_(A/m)
0.000000e+00	-5.299955e-06	-4.023909e-09	-3.841249e+01	-2.631236e+02
1.000000e-08	-5.299150e-06	-4.022950e-09	-3.840666e+01	-2.631320e+02
2.000000e-08	-5.297087e-06	-4.020800e-09	-3.839170e+01	-2.631365e+02
3.000000e-08	-5.293999e-06	-4.018660e-09	-3.836932e+01	-2.631359e+02
4.000000e-08	-5.290177e-06	-4.018180e-09	-3.834162e+01	-2.631284e+02
5.000000e-08	-5.285618e-06	-4.017747e-09	-3.830858e+01	-2.631115e+02
6.000000e-08	-5.280177e-06	-4.016280e-09	-3.826914e+01	-2.630822e+02
7.000000e-08	-5.273831e-06	-4.011436e-09	-3.822315e+01	-2.630371e+02
8.000000e-08	-5.266640e-06	-4.012986e-09	-3.817103e+01	-2.629724e+02
9.000000e-08	-5.258516e-06	-4.031522e-09	-3.811215e+01	-2.628845e+02
1.000000e-07	-5.249102e-06	-4.069119e-09	-3.804392e+01	-2.627698e+02
1.100000e-07	-5.238295e-06	-4.050524e-09	-3.796559e+01	-2.626251e+02
1.200000e-07	-5.226510e-06	-3.975820e-09	-3.788018e+01	-2.624477e+02
1.300000e-07	-5.213922e-06	-3.906130e-09	-3.778895e+01	-2.622354e+02
1.400000e-07	-5.200394e-06	-3.974232e-09	-3.769090e+01	-2.619870e+02
1.500000e-07	-5.185946e-06	-4.074349e-09	-3.758618e+01	-2.617018e+02
1.600000e-07	-5.170623e-06	-3.987849e-09	-3.747513e+01	-2.613802e+02
1.700000e-07	-5.154124e-06	-3.924146e-09	-3.735555e+01	-2.610231e+02
1.800000e-07	-5.136506e-06	-3.929054e-09	-3.722786e+01	-2.606324e+02
1.900000e-07	-5.118370e-06	-3.964830e-09	-3.709641e+01	-2.602104e+02
2.000000e-07	-5.099678e-06	-4.019162e-09	-3.696094e+01	-2.597600e+02
2.100000e-07	-5.079950e-06	-3.998178e-09	-3.681796e+01	-2.592844e+02
2.200000e-07	-5.059299e-06	-3.858760e-09	-3.666829e+01	-2.587871e+02
2.300000e-07	-5.037972e-06	-3.864696e-09	-3.651371e+01	-2.582715e+02
2.400000e-07	-5.015806e-06	-4.011029e-09	-3.635306e+01	-2.577408e+02
2.500000e-07	-4.992721e-06	-3.937228e-09	-3.618575e+01	-2.571982e+02
2.600000e-07	-4.968742e-06	-3.831322e-09	-3.601196e+01	-2.566462e+02
2.700000e-07	-4.943822e-06	-3.857909e-09	-3.583134e+01	-2.560870e+02
2.800000e-07	-4.917936e-06	-3.916105e-09	-3.564373e+01	-2.555223e+02
2.900000e-07	-4.890972e-06	-3.932471e-09	-3.544830e+01	-2.549531e+02
3.000000e-07	-4.863060e-06	-3.882688e-09	-3.524601e+01	-2.543800e+02
3.100000e-07	-4.834440e-06	-3.797108e-09	-3.503857e+01	-2.538031e+02
3.200000e-07	-4.804960e-06	-3.826088e-09	-3.482491e+01	-2.532220e+02
3.300000e-07	-4.774578e-06	-3.911121e-09	-3.460471e+01	-2.526357e+02
3.400000e-07	-4.743460e-06	-3.868823e-09	-3.437918e+01	-2.520432e+02
3.500000e-07	-4.711632e-06	-3.794470e-09	-3.414850e+01	-2.514431e+02
3.600000e-07	-4.679055e-06	-3.780189e-09	-3.391239e+01	-2.508339e+02
3.700000e-07	-4.645574e-06	-3.814937e-09	-3.366973e+01	-2.502141e+02
3.800000e-07	-4.611002e-06	-3.848985e-09	-3.341917e+01	-2.495820e+02
3.900000e-07	-4.575434e-06	-3.801531e-09	-3.316138e+01	-2.489361e+02
4.000000e-07	-4.539081e-06	-3.722044e-09	-3.289790e+01	-2.482750e+02
4.100000e-07	-4.502039e-06	-3.756473e-09	-3.262943e+01	-2.475975e+02
4.200000e-07	-4.464198e-06	-3.817468e-09	-3.235517e+01	-2.469023e+02
4.300000e-07	-4.425488e-06	-3.773287e-09	-3.207462e+01	-2.461884e+02
4.400000e-07	-4.386118e-06	-3.698631e-09	-3.178927e+01	-2.454549e+02
4.500000e-07	-4.346220e-06	-3.704030e-09	-3.150010e+01	-2.447012e+02
4.600000e-07	-4.305595e-06	-3.743776e-09	-3.120566e+01	-2.439265e+02
4.700000e-07	-4.263984e-06	-3.729025e-09	-3.090408e+01	-2.431304e+02
4.800000e-07	-4.221341e-06	-3.681991e-09	-3.059501e+01	-2.423123e+02
4.900000e-07	-4.177873e-06	-3.649050e-09	-3.027997e+01	-2.414719e+02
5.000000e-07	-4.133810e-06	-3.662431e-09	-2.996062e+01	-2.406088e+02
5.100000e-07	-4.089187e-06	-3.678575e-09	-2.963720e+01	-2.397227e+02
5.200000e-07	-4.043825e-06	-3.640196e-09	-2.930844e+01	-2.388134e+02
5.300000e-07	-3.997702e-06	-3.597966e-09	-2.897415e+01	-2.378804e+02
5.400000e-07	-3.950938e-06	-3.591218e-09	-2.863522e+01	-2.369236e+02
5.500000e-07	-3.903579e-06	-3.599483e-09	-2.829198e+01	-2.359426e+02
5.600000e-07	-3.855589e-06	-3.589918e-09	-2.794416e+01	-2.349370e+02
5.700000e-07	-3.806619e-06	-3.549213e-09	-2.758924e+01	-2.339063e+02
5.800000e-07	-3.756574e-06	-3.517862e-09	-2.722652e+01	-2.328499e+02
5.900000e-07	-3.705685e-06	-3.521741e-09	-2.685770e+01	-2.317672e+02
6.000000e-07	-3.654019e-06	-3.527042e-09	-2.648324e+01	-2.306573e+02
6.100000e-07	-3.601644e-06	-3.491158e-09	-2.610364e+01	-2.295192e+02
6.200000e-07	-3.548606e-06	-3.450585e-09	-2.571924e+01	-2.283519e+02
6.300000e-07	-3.494919e-06	-3.452029e-09	-2.533013e+01	-2.271539e+02
6.400000e-07	-3.440638e-06	-3.446859e-09	-2.493671e+01	-2.259238e+02
6.500000e-07	-3.385756e-06	-3.414341e-09	-2.453894e+01	-2.246599e+02
6.600000e-07	-3.330362e-06	-3.383751e-09	-2.413747e+01	-2.233605e+02
6.700000e-07	-3.274545e-06	-3.364467e-09	-2.373292e+01	-2.220239e+02
6.800000e-07	-3.218176e-06	-3.354085e-09	-2.332438e+01	-2.206483e+02
6.900000e-07	-3.160999e-06	-3.331334e-09	-2.290998e+01	-2.192319e+02
7.000000e-07	-3.102879e-06	-3.299035e-09	-2.248874e+01	-2.177732e+02
7.100000e-07	-3.044015e-06	-3.271729e-09	-2.206211e+01	-2.162706e+02
7.200000e-07	-2.984710e-06	-3.253215e-09	-2.163228e+01	-2.147232e+02
7.300000e-07	-2.925006e-06	-3.235908e-09	-2.119957e+01	-2.131298e+02
7.400000e-07	-2.864809e-06	-3.203841e-09	-2.076328e+01	-2.114899e+02
7.500000e-07	-2.804115e-06	-3.171676e-09	-2.032338e+01	-2.098033e+02
7.600000e-07	-2.742957e-06	-3.149727e-09	-1.988013e+01	-2.080697e+02
7.700000e-07	-2.681347e-06	-3.127354e-09	-1.943360e+01	-2.062895e+02
7.800000e-07	-2.619346e-06	-3.095446e-09	-1.898423e+01	-2.044628e+02
7.900000e-07	-2.556922e-06	-3.057739e-09	-1.853180e+01	-2.025902e+02
8.000000e-07	-2.494020e-06	-3.032039e-09	-1.807591e+01	-2.006718e+02
8.100000e-07	-2.430788e-06	-3.011620e-09	-1.761762e+01	-1.987080e+02
8.200000e-07	-2.367253e-06	-2.978984e-09	-1.715714e+01	-1.966985e+02
8.300000e-07	-2.303290e-06	-2.935586e-09	-1.669355e+01	-1.946429e+02
8.400000e-07	-2.238981e-06	-2.897678e-09	-1.622747e+01	-1.925400e+02
8.500000e-07	-2.174354e-06	-2.873110e-09	-1.575907e+01	-1.903884e+02
8.600000e-07	-2.109235e-06	-2.842093e-09	-1.528710e+01	-1.881856e+02
8.700000e-07	-2.043606e-06	-2.798343e-09	-1.481145e+01	-1.859289e+02
8.800000e-07	-1.977394e-06	-2.756024e-09	-1.433156e+01	-1.836145e+02
8.900000e-07	-1.910670e-06	-2.722046e-09	-1.384797e+01	-1.812382e+02
9.000000e-07	-1.843719e-06	-2.694480e-09	-1.336272e+01	-1.787953e+02
9.100000e-07	-1.776589e-06	-2.655110e-09	-1.287618e+01	-1.762806e+02
9.200000e-07	-1.709199e-06	-2.603572e-09	-1.238776e+01	-1.736882e+02
9.300000e-07	-1.641528e-06	-2.560827e-09	-1.189730e+01	-1.710125e+02
9.400000e-07	-1.573662e-06	-2.526273e-09	-1.140543e+01	-1.682474e+02
9.500000e-07	-1.505646e-06	-2.485542e-09	-1.091247e+01	-1.653868e+02
9.600000e-07	-1.437420e-06	-2.429016e-09	-1.041799e+01	-1.624246e+02
9.700000e-07	-1.368884e-06	-2.373261e-09	-9.921263e+00	-1.593548e+02
9.800000e-07	-1.300072e-06	-2.328908e-09	-9.422531e+00	-1.561714e+02
9.900000e-07	-1.231088e-06	-2.284039e-09	-8.922555e+00	-1.528684e+02
1.000000e-06	-1.161945e-06	-2.228651e-09	-8.421432e+00	-1.494398e+02
1.010000e-06	-1.092548e-06	-2.164992e-09	-7.918461e+00	-1.458791e+02
1.020000e-06	-1.022813e-06	-2.107683e-09	-7.413040e+00	-1.421798e+02
1.030000e-06	-9.529070e-07	-2.057654e-09	-6.906385e+00	-1.383346e+02
1.040000e-06	-8.828999e-07	-2.002221e-09	-6.398995e+00	-1.343358e+02
1.050000e-06	-8.127147e-07	-1.934779e-09	-5.890313e+00	-1.301747e+02
1.060000e-06	-7.423424e-07	-1.860849e-09	-5.380276e+00	-1.258420e+02
1.070000e-06	-6.717763e-07	-1.790443e-09	-4.868833e+00	-1.213273e+02
1.080000e-06	-6.010598e-07	-1.722194e-09	-4.356302e+00	-1.166194e+02
1.090000e-06	-5.302418e-07	-1.644277e-09	-3.843034e+00	-1.117065e+02
1.100000e-06	-4.593867e-07	-1.558470e-09	-3.329498e+00	-1.065763e+02
1.110000e-06	-3.885184e-07	-1.472970e-09	-2.815865e+00	-1.012162e+02
1.120000e-06	-3.175915e-07	-1.391276e-09	-2.301808e+00	-9.561409e+01
1.130000e-06	-2.465801e-07	-1.306683e-09	-1.787139e+00	-8.975856e+01
1.140000e-06	-1.755417e-07	-1.210585e-09	-1.272274e+00	-8.363952e+01
1.150000e-06	-1.044750e-07	-1.108908e-09	-7.572035e-01	-7.724885e+01
1.160000e-06	-3.338935e-08	-1.007364e-09	-2.419960e-01	-7.058099e+01
1.170000e-06	3.766085e-08	-9.061765e-10	2.729546e-01	-6.363358e+01
1.180000e-06	1.087141e-07	-7.978274e-10	7.879270e-01	-5.640804e+01
1.190000e-06	1.797533e-07	-6.816769e-10	1.302798e+00	-4.891001e+01
1.200000e-06	2.507471e-07	-5.631319e-10	1.817340e+00	-4.114976e+01
1.210000e-06	3.216495e-07	-4.413052e-10	2.331219e+00	-3.314244e+01
1.220000e-06	3.924319e-07	-3.188060e-10	2.844229e+00	-2.490815e+01
1.230000e-06	4.631947e-07	-1.940053e-10	3.357097e+00	-1.647186e+01
1.240000e-06	5.338740e-07	-6.356965e-11	3.869359e+00	-7.863136e+00
1.250000e-06	6.043547e-07	6.947144e-11	4.380182e+00	8.842920e-01
1.260000e-06	6.747298e-07	2.057265e-10	4.890239e+00	9.733140e+00
1.270000e-06	7.449908e-07	3.404457e-10	5.399470e+00	1.864333e+01
1.280000e-06	8.151144e-07	4.771540e-10	5.907705e+00	2.757285e+01
1.290000e-06	8.851257e-07	6.150228e-10	6.415126e+00	3.647873e+01
1.300000e-06	9.549520e-07	7.507885e-10	6.921206e+00	4.531805e+01
1.310000e-06	1.024616e-06	8.858235e-10	7.426108e+00	5.404892e+01
1.320000e-06	1.094128e-06	1.015925e-09	7.929911e+00	6.263149e+01
1.330000e-06	1.163438e-06	1.146170e-09	8.432248e+00	7.102887e+01
1.340000e-06	1.232557e-06	1.273031e-09	8.933206e+00	7.920786e+01
1.350000e-06	1.301464e-06	1.393113e-09	9.432624e+00	8.713967e+01
1.360000e-06	1.370113e-06	1.506433e-09	9.930172e+00	9.480035e+01
1.370000e-06	1.438515e-06	1.613757e-09	1.042592e+01	1.021711e+02
1.380000e-06	1.506672e-06	1.717184e-09	1.091991e+01	1.092386e+02
1.390000e-06	1.574577e-06	1.815848e-09	1.141206e+01	1.159944e+02
1.400000e-06	1.642277e-06	1.910859e-09	1.190274e+01	1.224353e+02
1.410000e-06	1.709796e-06	2.002533e-09	1.239209e+01	1.285627e+02
1.420000e-06	1.777135e-06	2.090652e-09	1.288015e+01	1.343821e+02
1.430000e-06	1.844272e-06	2.175447e-09	1.336673e+01	1.399024e+02
1.440000e-06	1.911115e-06	2.254856e-09	1.385119e+01	1.451353e+02
1.450000e-06	1.977571e-06	2.329652e-09	1.433284e+01	1.500949e+02
1.460000e-06	2.043594e-06	2.401307e-09	1.481136e+01	1.547963e+02
1.470000e-06	2.109072e-06	2.469285e-09	1.528592e+01	1.592558e+02
1.480000e-06	2.173987e-06	2.534357e-09	1.575641e+01	1.634896e+02
1.490000e-06	2.238365e-06	2.595802e-09	1.622300e+01	1.675138e+02
1.500000e-06	2.302263e-06	2.653268e-09	1.668612e+01	1.713436e+02
1.510000e-06	2.365867e-06	2.708504e-09	1.714709e+01	1.749934e+02
1.520000e-06	2.429221e-06	2.761072e-09	1.760627e+01	1.784762e+02
1.530000e-06	2.492266e-06	2.812474e-09	1.806320e+01	1.818039e+02
1.540000e-06	2.554868e-06	2.860508e-09	1.851692e+01	1.849869e+02
1.550000e-06	2.616953e-06	2.903368e-09	1.896689e+01	1.880345e+02
1.560000e-06	2.678580e-06	2.942898e-09	1.941355e+01	1.909549e+02
1.570000e-06	2.739786e-06	2.981778e-09	1.985715e+01	1.937554e+02
1.580000e-06	2.800486e-06	3.023387e-09	2.029709e+01	1.964425e+02
1.590000e-06	2.860691e-06	3.063764e-09	2.073344e+01	1.990221e+02
1.600000e-06	2.920529e-06	3.100163e-09	2.116712e+01	2.015000e+02
1.610000e-06	2.980005e-06	3.135039e-09	2.159819e+01	2.038813e+02
1.620000e-06	3.039038e-06	3.170898e-09	2.202604e+01	2.061713e+02
1.630000e-06	3.097475e-06	3.205575e-09	2.244957e+01	2.083750e+02
1.640000e-06	3.155104e-06	3.236106e-09	2.286725e+01	2.104974e+02
1.650000e-06	3.211810e-06	3.262942e-09	2.327824e+01	2.125435e+02
1.660000e-06	3.267777e-06	3.289660e-09	2.368387e+01	2.145179e+02
1.670000e-06	3.323271e-06	3.318845e-09	2.408607e+01	2.164251e+02
1.680000e-06	3.378345e-06	3.348053e-09	2.448523e+01	2.182694e+02
1.690000e-06	3.432899e-06	3.373243e-09	2.488062e+01	2.200545e+02
1.700000e-06	3.486824e-06	3.396980e-09	2.527146e+01	2.217837e+02
1.710000e-06	3.540175e-06	3.422768e-09	2.565813e+01	2.234598e+02
1.720000e-06	3.592978e-06	3.448919e-09	2.604083e+01	2.250852e+02
1.730000e-06	3.645163e-06	3.472709e-09	2.641905e+01	2.266614e+02
1.740000e-06	3.696633e-06	3.493380e-09	2.679209e+01	2.281898e+02
1.750000e-06	3.747290e-06	3.515522e-09	2.715924e+01	2.296712e+02
1.760000e-06	3.797056e-06	3.538714e-09	2.751993e+01	2.311060e+02
1.770000e-06	3.845859e-06	3.559988e-09	2.787363e+01	2.324944e+02
1.780000e-06	3.893808e-06	3.579410e-09	2.822115e+01	2.338367e+02
1.790000e-06	3.941148e-06	3.598378e-09	2.856426e+01	2.351328e+02
1.800000e-06	3.987924e-06	3.618539e-09	2.890328e+01	2.363832e+02
1.810000e-06	4.034034e-06	3.637478e-09	2.923747e+01	2.375882e+02
1.820000e-06	4.079444e-06	3.654838e-09	2.956659e+01	2.387486e+02
1.830000e-06	4.124139e-06	3.672131e-09	2.989053e+01	2.398653e+02
1.840000e-06	4.168163e-06	3.689875e-09	3.020960e+01	2.409398e+02
1.850000e-06	4.211647e-06	3.707532e-09	3.052476e+01	2.419737e+02
1.860000e-06	4.254589e-06	3.723723e-09	3.083599e+01	2.429688e+02
1.870000e-06	4.296602e-06	3.738795e-09	3.114049e+01	2.439273e+02
1.880000e-06	4.337464e-06	3.752865e-09	3.143664e+01	2.448512e+02
1.890000e-06	4.377416e-06	3.766935e-09	3.172620e+01	2.457428e+02
1.900000e-06	4.416742e-06	3.780507e-09	3.201123e+01	2.466040e+02
1.910000e-06	4.455422e-06	3.793253e-09	3.229157e+01	2.474368e+02
1.920000e-06	4.493304e-06	3.806398e-09	3.256612e+01	2.482427e+02
1.930000e-06	4.530338e-06	3.820261e-09	3.283454e+01	2.490231e+02
1.940000e-06	4.566566e-06	3.833289e-09	3.309711e+01	2.497791e+02
1.950000e-06	4.602214e-06	3.844786e-09	3.335547e+01	2.505112e+02
1.960000e-06	4.637314e-06	3.856044e-09	3.360987e+01	2.512201e+02
1.970000e-06	4.671466e-06	3.866491e-09	3.385739e+01	2.519059e+02
1.980000e-06	4.704328e-06	3.875789e-09	3.409556e+01	2.525686e+02
1.990000e-06	4.736176e-06	3.884304e-09	3.432639e+01	2.532082e+02
2.000000e-06	4.767352e-06	3.892851e-09	3.455234e+01	2.538248e+02
2.010000e-06	4.797811e-06	3.901975e-09	3.477310e+01	2.544184e+02
2.020000e-06	4.827456e-06	3.912344e-09	3.498795e+01	2.549892e+02
2.030000e-06	4.856258e-06	3.923389e-09	3.519671e+01	2.555375e+02
2.040000e-06	4.884344e-06	3.933665e-09	3.540027e+01	2.560639e+02
2.050000e-06	4.911793e-06	3.942667e-09	3.559921e+01	2.565691e+02
2.060000e-06	4.938419e-06	3.951515e-09	3.579218e+01	2.570541e+02
2.070000e-06	4.963873e-06	3.960374e-09	3.597667e+01	2.575199e+02
2.080000e-06	4.988151e-06	3.966465e-09	3.615262e+01	2.579675e+02
2.090000e-06	5.011571e-06	3.971941e-09	3.632237e+01	2.583981e+02
2.100000e-06	5.034201e-06	3.979417e-09	3.648638e+01	2.588124e+02
2.110000e-06	5.055957e-06	3.986757e-09	3.664407e+01	2.592114e+02
2.120000e-06	5.076863e-06	3.993798e-09	3.679559e+01	2.595953e+02
2.130000e-06	5.097008e-06	4.001273e-09	3.694159e+01	2.599644e+02
2.140000e-06	5.116533e-06	4.008416e-09	3.708310e+01	2.603186e+02
2.150000e-06	5.135343e-06	4.014561e-09	3.721943e+01	2.606572e+02
2.160000e-06	5.153186e-06	4.019922e-09	3.734875e+01	2.609796e+02
2.170000e-06	5.170056e-06	4.025789e-09	3.747102e+01	2.612845e+02
2.180000e-06	5.185950e-06	4.033343e-09	3.758622e+01	2.615709e+02
2.190000e-06	5.200873e-06	4.039362e-09	3.769437e+01	2.618375e+02
2.200000e-06	5.214860e-06	4.043299e-09	3.779575e+01	2.620831e+02
2.210000e-06	5.227904e-06	4.048044e-09	3.789028e+01	2.623066e+02
2.220000e-06	5.240005e-06	4.053972e-09	3.797799e+01	2.625074e+02
2.230000e-06	5.251103e-06	4.059466e-09	3.805842e+01	2.626850e+02
2.240000e-06	5.260962e-06	4.061554e-09	3.812988e+01	2.628397e+02
2.250000e-06	5.269515e-06	4.063837e-09	3.819187e+01	2.629720e+02
2.260000e-06	5.277151e-06	4.067120e-09	3.824721e+01	2.630831e+02
2.270000e-06	5.283981e-06	4.070142e-09	3.829672e+01	2.631744e+02
2.280000e-06	5.289933e-06	4.071910e-09	3.833985e+01	2.632481e+02
2.290000e-06	5.295022e-06	4.071916e-09	3.837673e+01	2.633063e+02
2.300000e-06	5.299230e-06	4.073273e-09	3.840723e+01	2.633515e+02
2.310000e-06	5.302614e-06	4.076338e-09	3.843176e+01	2.633862e+02
2.320000e-06	5.305076e-06	4.080974e-09	3.844960e+01	2.634126e+02
2.330000e-06	5.306341e-06	4.083946e-09	3.845878e+01	2.634327e+02
2.340000e-06	5.306510e-06	4.087882e-09	3.846000e+01	2.634480e+02
2.350000e-06	5.305863e-06	4.091559e-09	3.845530e+01	2.634595e+02
2.360000e-06	5.304373e-06	4.091930e-09	3.844451e+01	2.634673e+02
2.370000e-06	5.301993e-06	4.087179e-09	3.842726e+01	2.634712e+02
2.380000e-06	5.298780e-06	4.082689e-09	3.840398e+01	2.634697e+02
2.390000e-06	5.294805e-06	4.084214e-09	3.837517e+01	2.634610e+02
2.400000e-06	5.290191e-06	4.086352e-09	3.834172e+01	2.634425e+02
2.410000e-06	5.284716e-06	4.091525e-09	3.830204e+01	2.634111e+02
2.420000e-06	5.278055e-06	4.093500e-09	3.825377e+01	2.633632e+02
2.430000e-06	5.270324e-06	4.082800e-09	3.819774e+01	2.632953e+02
2.440000e-06	5.261610e-06	4.034172e-09	3.813458e+01	2.632036e+02
2.450000e-06	5.251681e-06	4.017265e-09	3.806262e+01	2.630846e+02
2.460000e-06	5.240517e-06	4.067502e-09	3.798170e+01	2.629352e+02
2.470000e-06	5.228708e-06	4.162037e-09	3.789611e+01	2.627527e+02
2.480000e-06	5.216567e-06	4.129494e-09	3.780812e+01	2.625351e+02
2.490000e-06	5.203329e-06	4.023884e-09	3.771217e+01	2.622812e+02
2.500000e-06	5.188364e-06	4.044382e-09	3.760371e+01	2.619905e+02
2.510000e-06	5.172494e-06	4.130943e-09	3.748869e+01	2.616635e+02
2.520000e-06	5.156226e-06	4.114455e-09	3.737078e+01	2.613013e+02
2.530000e-06	5.138899e-06	4.081055e-09	3.724521e+01	2.609057e+02
2.540000e-06	5.120547e-06	4.047698e-09	3.711219e+01	2.604792e+02
2.550000e-06	5.101705e-06	3.944509e-09	3.697563e+01	2.600249e+02
2.560000e-06	5.082234e-06	3.998287e-09	3.683451e+01	2.595458e+02
2.570000e-06	5.061793e-06	4.000786e-09	3.668636e+01	2.590456e+02
2.580000e-06	5.040236e-06	3.845527e-09	3.653013e+01	2.585275e+02
2.590000e-06	5.017510e-06	3.849640e-09	3.636541e+01	2.579949e+02
2.600000e-06	4.993752e-06	3.982554e-09	3.619322e+01	2.574507e+02
2.610000e-06	4.969065e-06	3.894726e-09	3.601430e+01	2.568975e+02
2.620000e-06	4.943502e-06	3.784482e-09	3.582902e+01	2.563374e+02
2.630000e-06	4.917319e-06	3.833873e-09	3.563925e+01	2.557720e+02
2.640000e-06	4.890391e-06	3.804368e-09	3.544409e+01	2.552022e+02
2.650000e-06	4.862535e-06	3.840773e-09	3.524220e+01	2.546286e+02
2.660000e-06	4.834021e-06	3.865170e-09	3.503554e+01	2.540511e+02
2.670000e-06	4.804516e-06	3.739619e-09	3.482170e+01	2.534692e+02
2.680000e-06	4.773541e-06	3.738047e-09	3.459720e+01	2.528821e+02
2.690000e-06	4.741553e-06	3.786831e-09	3.436536e+01	2.522886e+02
2.700000e-06	4.708987e-06	3.792253e-09	3.412933e+01	2.516872e+02
2.710000e-06	4.675556e-06	3.764074e-09	3.388703e+01	2.510766e+02
2.720000e-06	4.641215e-06	3.677636e-09	3.363814e+01	2.504550e+02
2.730000e-06	4.606258e-06	3.708397e-09	3.338478e+01	2.498209e+02
2.740000e-06	4.570641e-06	3.778379e-09	3.312664e+01	2.491729e+02
2.750000e-06	4.534266e-06	3.732897e-09	3.286300e+01	2.485095e+02
2.760000e-06	4.497089e-06	3.664437e-09	3.259355e+01	2.478294e+02
2.770000e-06	4.458984e-06	3.652752e-09	3.231738e+01	2.471314e+02
2.780000e-06	4.419777e-06	3.706461e-09	3.203322e+01	2.464147e+02
2.790000e-06	4.379642e-06	3.703383e-09	3.174233e+01	2.456782e+02
2.800000e-06	4.338947e-06	3.638832e-09	3.144739e+01	2.449214e+02
2.810000e-06	4.297706e-06	3.623932e-09	3.114849e+01	2.441436e+02
2.820000e-06	4.255709e-06	3.627675e-09	3.084411e+01	2.433441e+02
2.830000e-06	4.212889e-06	3.645162e-09	3.053376e+01	2.425227e+02
2.840000e-06	4.169463e-06	3.623398e-09	3.021902e+01	2.416790e+02
2.850000e-06	4.125514e-06	3.577619e-09	2.990049e+01	2.408125e+02
2.860000e-06	4.080977e-06	3.579444e-09	2.957770e+01	2.399229e+02
2.870000e-06	4.035795e-06	3.576774e-09	2.925024e+01	2.390101e+02
2.880000e-06	3.989964e-06	3.572104e-09	2.891807e+01	2.380736e+02
2.890000e-06	3.943382e-06	3.547754e-09	2.858046e+01	2.371132e+02
2.900000e-06	3.896082e-06	3.511593e-09	2.823764e+01	2.361286e+02
2.910000e-06	3.848230e-06	3.514474e-09	2.789082e+01	2.351192e+02
2.920000e-06	3.799588e-06	3.518151e-09	2.753828e+01	2.340847e+02
2.930000e-06	3.750014e-06	3.500032e-09	2.717898e+01	2.330244e+02
2.940000e-06	3.699708e-06	3.462755e-09	2.681438e+01	2.319377e+02
2.950000e-06	3.648740e-06	3.452747e-09	2.644498e+01	2.308237e+02
