# Temperatura_=_20.0
# Concentracion g/m^3_=_9000.0
# C_Vs_to_Am_M_A/Vsm_=_65563218390.804596
# pendiente_HvsI_1/m_=_3716.3
# ordenada_HvsI_A/m_=_1297.0
# frecuencia_Hz_=_212991.82172781532

Tiempo_(s)	Campo_(V.s)	Magnetizacion_(V.s)	Campo_(kA/m)	Magnetizacion_(A/m)
0.000000e+00	-8.018207e-06	-4.672442e-09	-5.691321e+01	-3.076872e+02
1.000000e-08	-8.017419e-06	-4.669040e-09	-5.690762e+01	-3.076594e+02
2.000000e-08	-8.015011e-06	-4.669227e-09	-5.689053e+01	-3.076240e+02
3.000000e-08	-8.011241e-06	-4.667863e-09	-5.686377e+01	-3.075802e+02
4.000000e-08	-8.006343e-06	-4.665911e-09	-5.682900e+01	-3.075272e+02
5.000000e-08	-8.000062e-06	-4.663296e-09	-5.678442e+01	-3.074647e+02
6.000000e-08	-7.992563e-06	-4.660081e-09	-5.673119e+01	-3.073930e+02
7.000000e-08	-7.983843e-06	-4.658100e-09	-5.666930e+01	-3.073128e+02
8.000000e-08	-7.973468e-06	-4.653670e-09	-5.659565e+01	-3.072257e+02
9.000000e-08	-7.961358e-06	-4.665896e-09	-5.650970e+01	-3.071338e+02
1.000000e-07	-7.947459e-06	-4.688927e-09	-5.641104e+01	-3.070393e+02
1.100000e-07	-7.931507e-06	-4.691589e-09	-5.629782e+01	-3.069450e+02
1.200000e-07	-7.913921e-06	-4.679331e-09	-5.617299e+01	-3.068532e+02
1.300000e-07	-7.895191e-06	-4.634300e-09	-5.604004e+01	-3.067659e+02
1.400000e-07	-7.875475e-06	-4.592108e-09	-5.590010e+01	-3.066845e+02
1.500000e-07	-7.854897e-06	-4.653595e-09	-5.575404e+01	-3.066091e+02
1.600000e-07	-7.833139e-06	-4.677650e-09	-5.559960e+01	-3.065389e+02
1.700000e-07	-7.810147e-06	-4.642623e-09	-5.543640e+01	-3.064716e+02
1.800000e-07	-7.785850e-06	-4.646360e-09	-5.526394e+01	-3.064035e+02
1.900000e-07	-7.759823e-06	-4.608747e-09	-5.507920e+01	-3.063295e+02
2.000000e-07	-7.732424e-06	-4.630437e-09	-5.488473e+01	-3.062435e+02
2.100000e-07	-7.703996e-06	-4.699182e-09	-5.468295e+01	-3.061386e+02
2.200000e-07	-7.674222e-06	-4.644677e-09	-5.447161e+01	-3.060074e+02
2.300000e-07	-7.643094e-06	-4.615347e-09	-5.425066e+01	-3.058424e+02
2.400000e-07	-7.610760e-06	-4.661158e-09	-5.402115e+01	-3.056365e+02
2.500000e-07	-7.576992e-06	-4.680094e-09	-5.378147e+01	-3.053839e+02
2.600000e-07	-7.541727e-06	-4.671852e-09	-5.353116e+01	-3.050796e+02
2.700000e-07	-7.505074e-06	-4.620687e-09	-5.327099e+01	-3.047207e+02
2.800000e-07	-7.467057e-06	-4.611170e-09	-5.300115e+01	-3.043060e+02
2.900000e-07	-7.427828e-06	-4.623765e-09	-5.272270e+01	-3.038365e+02
3.000000e-07	-7.387313e-06	-4.631170e-09	-5.243513e+01	-3.033150e+02
3.100000e-07	-7.345245e-06	-4.624253e-09	-5.213653e+01	-3.027464e+02
3.200000e-07	-7.301637e-06	-4.575417e-09	-5.182700e+01	-3.021369e+02
3.300000e-07	-7.256670e-06	-4.568208e-09	-5.150782e+01	-3.014940e+02
3.400000e-07	-7.210426e-06	-4.593441e-09	-5.117958e+01	-3.008256e+02
3.500000e-07	-7.162844e-06	-4.596061e-09	-5.084185e+01	-3.001399e+02
3.600000e-07	-7.113686e-06	-4.559383e-09	-5.049292e+01	-2.994444e+02
3.700000e-07	-7.062733e-06	-4.526683e-09	-5.013126e+01	-2.987455e+02
3.800000e-07	-7.010279e-06	-4.544396e-09	-4.975894e+01	-2.980482e+02
3.900000e-07	-6.956649e-06	-4.554064e-09	-4.937828e+01	-2.973556e+02
4.000000e-07	-6.901783e-06	-4.529192e-09	-4.898884e+01	-2.966687e+02
4.100000e-07	-6.845790e-06	-4.498322e-09	-4.859140e+01	-2.959862e+02
4.200000e-07	-6.788635e-06	-4.492477e-09	-4.818572e+01	-2.953051e+02
4.300000e-07	-6.730099e-06	-4.503176e-09	-4.777022e+01	-2.946202e+02
4.400000e-07	-6.670268e-06	-4.486805e-09	-4.734555e+01	-2.939253e+02
4.500000e-07	-6.609279e-06	-4.466709e-09	-4.691265e+01	-2.932130e+02
4.600000e-07	-6.547155e-06	-4.451064e-09	-4.647169e+01	-2.924757e+02
4.700000e-07	-6.483975e-06	-4.440842e-09	-4.602324e+01	-2.917060e+02
4.800000e-07	-6.419796e-06	-4.440649e-09	-4.556770e+01	-2.908975e+02
4.900000e-07	-6.354489e-06	-4.423500e-09	-4.510415e+01	-2.900448e+02
5.000000e-07	-6.287827e-06	-4.391317e-09	-4.463098e+01	-2.891446e+02
5.100000e-07	-6.220034e-06	-4.376488e-09	-4.414979e+01	-2.881951e+02
5.200000e-07	-6.151379e-06	-4.384251e-09	-4.366247e+01	-2.871969e+02
5.300000e-07	-6.081727e-06	-4.367936e-09	-4.316808e+01	-2.861524e+02
5.400000e-07	-6.010984e-06	-4.331856e-09	-4.266595e+01	-2.850657e+02
5.500000e-07	-5.939219e-06	-4.318084e-09	-4.215656e+01	-2.839425e+02
5.600000e-07	-5.866571e-06	-4.317565e-09	-4.164091e+01	-2.827888e+02
5.700000e-07	-5.792765e-06	-4.302873e-09	-4.111703e+01	-2.816114e+02
5.800000e-07	-5.717550e-06	-4.273412e-09	-4.058316e+01	-2.804165e+02
5.900000e-07	-5.641155e-06	-4.246987e-09	-4.004090e+01	-2.792094e+02
6.000000e-07	-5.563701e-06	-4.234230e-09	-3.949114e+01	-2.779941e+02
6.100000e-07	-5.485259e-06	-4.227696e-09	-3.893435e+01	-2.767728e+02
6.200000e-07	-5.405520e-06	-4.208860e-09	-3.836837e+01	-2.755454e+02
6.300000e-07	-5.324492e-06	-4.173275e-09	-3.779323e+01	-2.743102e+02
6.400000e-07	-5.242634e-06	-4.145055e-09	-3.721221e+01	-2.730630e+02
6.500000e-07	-5.159970e-06	-4.135420e-09	-3.662545e+01	-2.717981e+02
6.600000e-07	-5.076520e-06	-4.119759e-09	-3.603313e+01	-2.705084e+02
6.700000e-07	-4.992302e-06	-4.089061e-09	-3.543534e+01	-2.691862e+02
6.800000e-07	-4.907310e-06	-4.057240e-09	-3.483207e+01	-2.678234e+02
6.900000e-07	-4.821529e-06	-4.042331e-09	-3.422320e+01	-2.664123e+02
7.000000e-07	-4.734902e-06	-4.033234e-09	-3.360832e+01	-2.649464e+02
7.100000e-07	-4.647374e-06	-4.005414e-09	-3.298705e+01	-2.634205e+02
7.200000e-07	-4.558982e-06	-3.970080e-09	-3.235964e+01	-2.618313e+02
7.300000e-07	-4.469835e-06	-3.944716e-09	-3.172688e+01	-2.601777e+02
7.400000e-07	-4.379848e-06	-3.929482e-09	-3.108815e+01	-2.584605e+02
7.500000e-07	-4.288900e-06	-3.905123e-09	-3.044260e+01	-2.566824e+02
7.600000e-07	-4.197032e-06	-3.869100e-09	-2.979052e+01	-2.548476e+02
7.700000e-07	-4.104397e-06	-3.835030e-09	-2.913300e+01	-2.529614e+02
7.800000e-07	-4.011141e-06	-3.808311e-09	-2.847107e+01	-2.510292e+02
7.900000e-07	-3.917319e-06	-3.786215e-09	-2.780512e+01	-2.490564e+02
8.000000e-07	-3.822810e-06	-3.756066e-09	-2.713430e+01	-2.470469e+02
8.100000e-07	-3.727513e-06	-3.719704e-09	-2.645788e+01	-2.450033e+02
8.200000e-07	-3.631527e-06	-3.687008e-09	-2.577657e+01	-2.429256e+02
8.300000e-07	-3.535103e-06	-3.659510e-09	-2.509215e+01	-2.408114e+02
8.400000e-07	-3.438208e-06	-3.628447e-09	-2.440439e+01	-2.386554e+02
8.500000e-07	-3.340430e-06	-3.585726e-09	-2.371036e+01	-2.364497e+02
8.600000e-07	-3.241876e-06	-3.543803e-09	-2.301083e+01	-2.341840e+02
8.700000e-07	-3.142831e-06	-3.510867e-09	-2.230781e+01	-2.318457e+02
8.800000e-07	-3.043304e-06	-3.475623e-09	-2.160136e+01	-2.294216e+02
8.900000e-07	-2.943301e-06	-3.432114e-09	-2.089154e+01	-2.268974e+02
9.000000e-07	-2.842858e-06	-3.384383e-09	-2.017860e+01	-2.242596e+02
9.100000e-07	-2.742048e-06	-3.342402e-09	-1.946305e+01	-2.214959e+02
9.200000e-07	-2.640881e-06	-3.302308e-09	-1.874497e+01	-2.185959e+02
9.300000e-07	-2.539299e-06	-3.254016e-09	-1.802393e+01	-2.155517e+02
9.400000e-07	-2.437222e-06	-3.201205e-09	-1.729940e+01	-2.123582e+02
9.500000e-07	-2.334649e-06	-3.151058e-09	-1.657133e+01	-2.090134e+02
9.600000e-07	-2.231666e-06	-3.103646e-09	-1.584036e+01	-2.055174e+02
9.700000e-07	-2.128294e-06	-3.051464e-09	-1.510662e+01	-2.018727e+02
9.800000e-07	-2.024510e-06	-2.991620e-09	-1.436997e+01	-1.980824e+02
9.900000e-07	-1.920366e-06	-2.929547e-09	-1.363075e+01	-1.941495e+02
1.000000e-06	-1.815920e-06	-2.869309e-09	-1.288940e+01	-1.900756e+02
1.010000e-06	-1.711194e-06	-2.807020e-09	-1.214605e+01	-1.858589e+02
1.020000e-06	-1.606117e-06	-2.739803e-09	-1.140021e+01	-1.814935e+02
1.030000e-06	-1.500675e-06	-2.669308e-09	-1.065178e+01	-1.769674e+02
1.040000e-06	-1.394893e-06	-2.598935e-09	-9.900950e+00	-1.722622e+02
1.050000e-06	-1.288708e-06	-2.527295e-09	-9.147249e+00	-1.673517e+02
1.060000e-06	-1.182126e-06	-2.448904e-09	-8.390730e+00	-1.622023e+02
1.070000e-06	-1.075264e-06	-2.360252e-09	-7.632218e+00	-1.567729e+02
1.080000e-06	-9.681462e-07	-2.266118e-09	-6.871899e+00	-1.510160e+02
1.090000e-06	-8.607639e-07	-2.172574e-09	-6.109700e+00	-1.448791e+02
1.100000e-06	-7.531984e-07	-2.070139e-09	-5.346200e+00	-1.383066e+02
1.110000e-06	-6.455137e-07	-1.958325e-09	-4.581855e+00	-1.312422e+02
1.120000e-06	-5.376636e-07	-1.842065e-09	-3.816334e+00	-1.236318e+02
1.130000e-06	-4.297606e-07	-1.719530e-09	-3.050439e+00	-1.154264e+02
1.140000e-06	-3.218526e-07	-1.586964e-09	-2.284509e+00	-1.065850e+02
1.150000e-06	-2.138385e-07	-1.442421e-09	-1.517825e+00	-9.707778e+01
1.160000e-06	-1.057934e-07	-1.289238e-09	-7.509215e-01	-8.688845e+01
1.170000e-06	2.247717e-09	-1.124809e-09	1.595429e-02	-7.601661e+01
1.180000e-06	1.103106e-07	-9.514326e-10	7.829842e-01	-6.447931e+01
1.190000e-06	2.183633e-07	-7.703635e-10	1.549942e+00	-5.231189e+01
1.200000e-06	3.264129e-07	-5.789366e-10	2.316878e+00	-3.956816e+01
1.210000e-06	4.343763e-07	-3.776691e-10	3.083202e+00	-2.631963e+01
1.220000e-06	5.421391e-07	-1.711009e-10	3.848102e+00	-1.265400e+01
1.230000e-06	6.497617e-07	3.760427e-11	4.612007e+00	1.327094e+00
1.240000e-06	7.572623e-07	2.521340e-10	5.375046e+00	1.551111e+01
1.250000e-06	8.645882e-07	4.699315e-10	6.136845e+00	2.977801e+01
1.260000e-06	9.716347e-07	6.922818e-10	6.896660e+00	4.400418e+01
1.270000e-06	1.078317e-06	9.113477e-10	7.653893e+00	5.806642e+01
1.280000e-06	1.184705e-06	1.122661e-09	8.409035e+00	7.184599e+01
1.290000e-06	1.290765e-06	1.327561e-09	9.161844e+00	8.523243e+01
1.300000e-06	1.396471e-06	1.526813e-09	9.912147e+00	9.812698e+01
1.310000e-06	1.501865e-06	1.714934e-09	1.066024e+01	1.104454e+02
1.320000e-06	1.606852e-06	1.887911e-09	1.140543e+01	1.221203e+02
1.330000e-06	1.711527e-06	2.052161e-09	1.214841e+01	1.331025e+02
1.340000e-06	1.816035e-06	2.206757e-09	1.289021e+01	1.433613e+02
1.350000e-06	1.920318e-06	2.350200e-09	1.363041e+01	1.528849e+02
1.360000e-06	2.024366e-06	2.478145e-09	1.436895e+01	1.616789e+02
1.370000e-06	2.128112e-06	2.594854e-09	1.510533e+01	1.697648e+02
1.380000e-06	2.231498e-06	2.702965e-09	1.583917e+01	1.771776e+02
1.390000e-06	2.334492e-06	2.803030e-09	1.657022e+01	1.839633e+02
1.400000e-06	2.437078e-06	2.895214e-09	1.729838e+01	1.901758e+02
1.410000e-06	2.539256e-06	2.979728e-09	1.802363e+01	1.958738e+02
1.420000e-06	2.641019e-06	3.060760e-09	1.874595e+01	2.011180e+02
1.430000e-06	2.742385e-06	3.137955e-09	1.946544e+01	2.059680e+02
1.440000e-06	2.843296e-06	3.210880e-09	2.018171e+01	2.104802e+02
1.450000e-06	2.943773e-06	3.279586e-09	2.089489e+01	2.147059e+02
1.460000e-06	3.043848e-06	3.343228e-09	2.160523e+01	2.186892e+02
1.470000e-06	3.143505e-06	3.402564e-09	2.231259e+01	2.224670e+02
1.480000e-06	3.242615e-06	3.456149e-09	2.301607e+01	2.260681e+02
1.490000e-06	3.340876e-06	3.505521e-09	2.371353e+01	2.295138e+02
1.500000e-06	3.438339e-06	3.551480e-09	2.440532e+01	2.328180e+02
1.510000e-06	3.535105e-06	3.595779e-09	2.509217e+01	2.359889e+02
1.520000e-06	3.631226e-06	3.639001e-09	2.577443e+01	2.390296e+02
1.530000e-06	3.726768e-06	3.679058e-09	2.645259e+01	2.419402e+02
1.540000e-06	3.821599e-06	3.715705e-09	2.712570e+01	2.447187e+02
1.550000e-06	3.915702e-06	3.750313e-09	2.779364e+01	2.473626e+02
1.560000e-06	4.009071e-06	3.786827e-09	2.845637e+01	2.498701e+02
1.570000e-06	4.101769e-06	3.821457e-09	2.911434e+01	2.522410e+02
1.580000e-06	4.193879e-06	3.851767e-09	2.976815e+01	2.544775e+02
1.590000e-06	4.285312e-06	3.881363e-09	3.041714e+01	2.565841e+02
1.600000e-06	4.375820e-06	3.909813e-09	3.105956e+01	2.585685e+02
1.610000e-06	4.465301e-06	3.938288e-09	3.169469e+01	2.604404e+02
1.620000e-06	4.553898e-06	3.968246e-09	3.232356e+01	2.622117e+02
1.630000e-06	4.641823e-06	3.995025e-09	3.294765e+01	2.638955e+02
1.640000e-06	4.728896e-06	4.018546e-09	3.356569e+01	2.655053e+02
1.650000e-06	4.815043e-06	4.043690e-09	3.417716e+01	2.670546e+02
1.660000e-06	4.900424e-06	4.069447e-09	3.478320e+01	2.685555e+02
1.670000e-06	4.985037e-06	4.092793e-09	3.538378e+01	2.700186e+02
1.680000e-06	5.068990e-06	4.113137e-09	3.597967e+01	2.714521e+02
1.690000e-06	5.152200e-06	4.132483e-09	3.657030e+01	2.728618e+02
1.700000e-06	5.234453e-06	4.152665e-09	3.715413e+01	2.742507e+02
1.710000e-06	5.315746e-06	4.173984e-09	3.773115e+01	2.756193e+02
1.720000e-06	5.396177e-06	4.193361e-09	3.830205e+01	2.769657e+02
1.730000e-06	5.475635e-06	4.211177e-09	3.886604e+01	2.782862e+02
1.740000e-06	5.553980e-06	4.230223e-09	3.942214e+01	2.795758e+02
1.750000e-06	5.631325e-06	4.248536e-09	3.997113e+01	2.808289e+02
1.760000e-06	5.707750e-06	4.264259e-09	4.051360e+01	2.820398e+02
1.770000e-06	5.783230e-06	4.281808e-09	4.104935e+01	2.832035e+02
1.780000e-06	5.857495e-06	4.300337e-09	4.157648e+01	2.843160e+02
1.790000e-06	5.930461e-06	4.316390e-09	4.209439e+01	2.853748e+02
1.800000e-06	6.002375e-06	4.332144e-09	4.260484e+01	2.863791e+02
1.810000e-06	6.073280e-06	4.347714e-09	4.310813e+01	2.873301e+02
1.820000e-06	6.143104e-06	4.362639e-09	4.360374e+01	2.882306e+02
1.830000e-06	6.211896e-06	4.376854e-09	4.409202e+01	2.890848e+02
1.840000e-06	6.279756e-06	4.392112e-09	4.457369e+01	2.898983e+02
1.850000e-06	6.346514e-06	4.405755e-09	4.504754e+01	2.906772e+02
1.860000e-06	6.411927e-06	4.417847e-09	4.551184e+01	2.914280e+02
1.870000e-06	6.476064e-06	4.430596e-09	4.596708e+01	2.921570e+02
1.880000e-06	6.539136e-06	4.443766e-09	4.641477e+01	2.928697e+02
1.890000e-06	6.601158e-06	4.457832e-09	4.685500e+01	2.935706e+02
1.900000e-06	6.662123e-06	4.470207e-09	4.728773e+01	2.942630e+02
1.910000e-06	6.722100e-06	4.480439e-09	4.771345e+01	2.949488e+02
1.920000e-06	6.780894e-06	4.491386e-09	4.813076e+01	2.956283e+02
1.930000e-06	6.838244e-06	4.505551e-09	4.853784e+01	2.963004e+02
1.940000e-06	6.894221e-06	4.516606e-09	4.893517e+01	2.969632e+02
1.950000e-06	6.948968e-06	4.523607e-09	4.932376e+01	2.976135e+02
1.960000e-06	7.002545e-06	4.534056e-09	4.970404e+01	2.982481e+02
1.970000e-06	7.054841e-06	4.546306e-09	5.007525e+01	2.988632e+02
1.980000e-06	7.105609e-06	4.557393e-09	5.043559e+01	2.994557e+02
1.990000e-06	7.154699e-06	4.566196e-09	5.078403e+01	3.000228e+02
2.000000e-06	7.202392e-06	4.574147e-09	5.112256e+01	3.005627e+02
2.010000e-06	7.248863e-06	4.583802e-09	5.145241e+01	3.010744e+02
2.020000e-06	7.294098e-06	4.594086e-09	5.177349e+01	3.015582e+02
2.030000e-06	7.338188e-06	4.602771e-09	5.208644e+01	3.020152e+02
2.040000e-06	7.380953e-06	4.610985e-09	5.238999e+01	3.024477e+02
2.050000e-06	7.422233e-06	4.622438e-09	5.268299e+01	3.028585e+02
2.060000e-06	7.462191e-06	4.633810e-09	5.296661e+01	3.032507e+02
2.070000e-06	7.500974e-06	4.640111e-09	5.324189e+01	3.036277e+02
2.080000e-06	7.538458e-06	4.645128e-09	5.350796e+01	3.039926e+02
2.090000e-06	7.574703e-06	4.653458e-09	5.376522e+01	3.043482e+02
2.100000e-06	7.609774e-06	4.661734e-09	5.401415e+01	3.046963e+02
2.110000e-06	7.643374e-06	4.666895e-09	5.425265e+01	3.050379e+02
2.120000e-06	7.675521e-06	4.671539e-09	5.448083e+01	3.053733e+02
2.130000e-06	7.706450e-06	4.677323e-09	5.470037e+01	3.057014e+02
2.140000e-06	7.736140e-06	4.684153e-09	5.491110e+01	3.060206e+02
2.150000e-06	7.764564e-06	4.690674e-09	5.511285e+01	3.063285e+02
2.160000e-06	7.791743e-06	4.695518e-09	5.530577e+01	3.066222e+02
2.170000e-06	7.817386e-06	4.699348e-09	5.548779e+01	3.068985e+02
2.180000e-06	7.841448e-06	4.703359e-09	5.565858e+01	3.071545e+02
2.190000e-06	7.864171e-06	4.707634e-09	5.581987e+01	3.073876e+02
2.200000e-06	7.885577e-06	4.710317e-09	5.597180e+01	3.075956e+02
2.210000e-06	7.905777e-06	4.713442e-09	5.611518e+01	3.077773e+02
2.220000e-06	7.924817e-06	4.717864e-09	5.625033e+01	3.079323e+02
2.230000e-06	7.942476e-06	4.722253e-09	5.637568e+01	3.080609e+02
2.240000e-06	7.958588e-06	4.727197e-09	5.649004e+01	3.081645e+02
2.250000e-06	7.973127e-06	4.731291e-09	5.659323e+01	3.082451e+02
2.260000e-06	7.986140e-06	4.733543e-09	5.668560e+01	3.083054e+02
2.270000e-06	7.997704e-06	4.733447e-09	5.676768e+01	3.083481e+02
2.280000e-06	8.007601e-06	4.733077e-09	5.683793e+01	3.083763e+02
2.290000e-06	8.015803e-06	4.734341e-09	5.689615e+01	3.083927e+02
2.300000e-06	8.022594e-06	4.736638e-09	5.694435e+01	3.083999e+02
2.310000e-06	8.028086e-06	4.738438e-09	5.698333e+01	3.083998e+02
2.320000e-06	8.032253e-06	4.741165e-09	5.701291e+01	3.083935e+02
2.330000e-06	8.035067e-06	4.743428e-09	5.703289e+01	3.083819e+02
2.340000e-06	8.036281e-06	4.744243e-09	5.704150e+01	3.083649e+02
2.350000e-06	8.035919e-06	4.746949e-09	5.703893e+01	3.083419e+02
2.360000e-06	8.034280e-06	4.746432e-09	5.702729e+01	3.083123e+02
2.370000e-06	8.031432e-06	4.742906e-09	5.700708e+01	3.082748e+02
2.380000e-06	8.027446e-06	4.741427e-09	5.697879e+01	3.082287e+02
2.390000e-06	8.022138e-06	4.741184e-09	5.694112e+01	3.081733e+02
2.400000e-06	8.015234e-06	4.740589e-09	5.689211e+01	3.081084e+02
2.410000e-06	8.006942e-06	4.740755e-09	5.683325e+01	3.080344e+02
2.420000e-06	7.997533e-06	4.745181e-09	5.676647e+01	3.079523e+02
2.430000e-06	7.986886e-06	4.731058e-09	5.669090e+01	3.078638e+02
2.440000e-06	7.974594e-06	4.691878e-09	5.660365e+01	3.077709e+02
2.450000e-06	7.960165e-06	4.680803e-09	5.650123e+01	3.076762e+02
2.460000e-06	7.943661e-06	4.680765e-09	5.638409e+01	3.075822e+02
2.470000e-06	7.925609e-06	4.736551e-09	5.625595e+01	3.074913e+02
2.480000e-06	7.906650e-06	4.779283e-09	5.612138e+01	3.074054e+02
2.490000e-06	7.887072e-06	4.698105e-09	5.598241e+01	3.073254e+02
2.500000e-06	7.866149e-06	4.714664e-09	5.583390e+01	3.072515e+02
2.510000e-06	7.843360e-06	4.729465e-09	5.567215e+01	3.071822e+02
2.520000e-06	7.819333e-06	4.726535e-09	5.550160e+01	3.071150e+02
2.530000e-06	7.794267e-06	4.819225e-09	5.532368e+01	3.070459e+02
2.540000e-06	7.767707e-06	4.749615e-09	5.513517e+01	3.069695e+02
2.550000e-06	7.739910e-06	4.686120e-09	5.493786e+01	3.068794e+02
2.560000e-06	7.711035e-06	4.755462e-09	5.473291e+01	3.067686e+02
2.570000e-06	7.680665e-06	4.689122e-09	5.451734e+01	3.066296e+02
2.580000e-06	7.648696e-06	4.635190e-09	5.429043e+01	3.064549e+02
2.590000e-06	7.615304e-06	4.647514e-09	5.405341e+01	3.062379e+02
2.600000e-06	7.580754e-06	4.625076e-09	5.380817e+01	3.059726e+02
2.610000e-06	7.545057e-06	4.679105e-09	5.355479e+01	3.056549e+02
2.620000e-06	7.507859e-06	4.653432e-09	5.329076e+01	3.052820e+02
2.630000e-06	7.469059e-06	4.622651e-09	5.301536e+01	3.048534e+02
2.640000e-06	7.428821e-06	4.621076e-09	5.272975e+01	3.043705e+02
2.650000e-06	7.387312e-06	4.577250e-09	5.243512e+01	3.038366e+02
2.660000e-06	7.344555e-06	4.638709e-09	5.213163e+01	3.032571e+02
2.670000e-06	7.300576e-06	4.612450e-09	5.181947e+01	3.026385e+02
2.680000e-06	7.255341e-06	4.562157e-09	5.149839e+01	3.019884e+02
2.690000e-06	7.208673e-06	4.574673e-09	5.116714e+01	3.013149e+02
2.700000e-06	7.160828e-06	4.578266e-09	5.082754e+01	3.006260e+02
2.710000e-06	7.111729e-06	4.601627e-09	5.047903e+01	2.999290e+02
2.720000e-06	7.061102e-06	4.532020e-09	5.011969e+01	2.992301e+02
2.730000e-06	7.009044e-06	4.529219e-09	4.975018e+01	2.985337e+02
2.740000e-06	6.955543e-06	4.553429e-09	4.937043e+01	2.978425e+02
2.750000e-06	6.900614e-06	4.525211e-09	4.898054e+01	2.971568e+02
2.760000e-06	6.844275e-06	4.514999e-09	4.858064e+01	2.964750e+02
2.770000e-06	6.786713e-06	4.479788e-09	4.817207e+01	2.957935e+02
2.780000e-06	6.728095e-06	4.490386e-09	4.775600e+01	2.951067e+02
2.790000e-06	6.668364e-06	4.479137e-09	4.733203e+01	2.944081e+02
2.800000e-06	6.607423e-06	4.476800e-09	4.689947e+01	2.936902e+02
2.810000e-06	6.545172e-06	4.463919e-09	4.645762e+01	2.929454e+02
2.820000e-06	6.481685e-06	4.416507e-09	4.600698e+01	2.921665e+02
2.830000e-06	6.417087e-06	4.426385e-09	4.554847e+01	2.913474e+02
2.840000e-06	6.351440e-06	4.430796e-09	4.508250e+01	2.904830e+02
2.850000e-06	6.284773e-06	4.411825e-09	4.460930e+01	2.895704e+02
2.860000e-06	6.217013e-06	4.362693e-09	4.412834e+01	2.886086e+02
2.870000e-06	6.148172e-06	4.354560e-09	4.363971e+01	2.875985e+02
2.880000e-06	6.078251e-06	4.366521e-09	4.314341e+01	2.865429e+02
2.890000e-06	6.007112e-06	4.341940e-09	4.263847e+01	2.854465e+02
2.900000e-06	5.934818e-06	4.312098e-09	4.212532e+01	2.843150e+02
2.910000e-06	5.861544e-06	4.292130e-09	4.160522e+01	2.831548e+02
2.920000e-06	5.787277e-06	4.294805e-09	4.107808e+01	2.819724e+02
2.930000e-06	5.711942e-06	4.278845e-09	4.054335e+01	2.807739e+02
2.940000e-06	5.635467e-06	4.258091e-09	4.000053e+01	2.795645e+02
2.950000e-06	5.557861e-06	4.231670e-09	3.944968e+01	2.783475e+02
