# Temperatura_=_20.0
# Concentracion g/m^3_=_9000.0
# C_Vs_to_Am_M_A/Vsm_=_65563218390.804596
# pendiente_HvsI_1/m_=_3716.3
# ordenada_HvsI_A/m_=_1297.0
# frecuencia_Hz_=_212991.27384141547

Tiempo_(s)	Campo_(V.s)	Magnetizacion_(V.s)	Campo_(kA/m)	Magnetizacion_(A/m)
0.000000e+00	-8.142489e-06	-4.735925e-09	-5.692038e+01	-3.117570e+02
1.000000e-08	-8.141557e-06	-4.733808e-09	-5.691386e+01	-3.117385e+02
2.000000e-08	-8.138997e-06	-4.734401e-09	-5.689597e+01	-3.117073e+02
3.000000e-08	-8.135031e-06	-4.732702e-09	-5.686824e+01	-3.116586e+02
4.000000e-08	-8.129865e-06	-4.732536e-09	-5.683213e+01	-3.115878e+02
5.000000e-08	-8.123401e-06	-4.728148e-09	-5.678694e+01	-3.114912e+02
6.000000e-08	-8.115763e-06	-4.723248e-09	-5.673355e+01	-3.113659e+02
7.000000e-08	-8.106702e-06	-4.719494e-09	-5.667021e+01	-3.112105e+02
8.000000e-08	-8.095826e-06	-4.704131e-09	-5.659418e+01	-3.110251e+02
9.000000e-08	-8.083272e-06	-4.741310e-09	-5.650642e+01	-3.108115e+02
1.000000e-07	-8.068861e-06	-4.798841e-09	-5.640568e+01	-3.105730e+02
1.100000e-07	-8.052453e-06	-4.777902e-09	-5.629098e+01	-3.103141e+02
1.200000e-07	-8.034516e-06	-4.740889e-09	-5.616559e+01	-3.100405e+02
1.300000e-07	-8.015396e-06	-4.669547e-09	-5.603193e+01	-3.097583e+02
1.400000e-07	-7.995328e-06	-4.596376e-09	-5.589165e+01	-3.094736e+02
1.500000e-07	-7.974297e-06	-4.764371e-09	-5.574463e+01	-3.091923e+02
1.600000e-07	-7.951951e-06	-4.798353e-09	-5.558842e+01	-3.089191e+02
1.700000e-07	-7.928491e-06	-4.643743e-09	-5.542442e+01	-3.086575e+02
1.800000e-07	-7.903766e-06	-4.684593e-09	-5.525158e+01	-3.084092e+02
1.900000e-07	-7.877243e-06	-4.645720e-09	-5.506617e+01	-3.081742e+02
2.000000e-07	-7.849425e-06	-4.686471e-09	-5.487170e+01	-3.079503e+02
2.100000e-07	-7.820524e-06	-4.823568e-09	-5.466967e+01	-3.077335e+02
2.200000e-07	-7.790127e-06	-4.642569e-09	-5.445718e+01	-3.075184e+02
2.300000e-07	-7.758463e-06	-4.577046e-09	-5.423583e+01	-3.072980e+02
2.400000e-07	-7.725464e-06	-4.719562e-09	-5.400515e+01	-3.070649e+02
2.500000e-07	-7.690873e-06	-4.729637e-09	-5.376334e+01	-3.068112e+02
2.600000e-07	-7.654928e-06	-4.703343e-09	-5.351206e+01	-3.065293e+02
2.700000e-07	-7.617602e-06	-4.600712e-09	-5.325113e+01	-3.062125e+02
2.800000e-07	-7.578858e-06	-4.586222e-09	-5.298029e+01	-3.058555e+02
2.900000e-07	-7.538957e-06	-4.669769e-09	-5.270136e+01	-3.054543e+02
3.000000e-07	-7.497596e-06	-4.678684e-09	-5.241223e+01	-3.050071e+02
3.100000e-07	-7.454505e-06	-4.614493e-09	-5.211100e+01	-3.045139e+02
3.200000e-07	-7.410023e-06	-4.547237e-09	-5.180005e+01	-3.039766e+02
3.300000e-07	-7.364216e-06	-4.596182e-09	-5.147983e+01	-3.033987e+02
3.400000e-07	-7.317161e-06	-4.625507e-09	-5.115089e+01	-3.027850e+02
3.500000e-07	-7.268772e-06	-4.612859e-09	-5.081263e+01	-3.021412e+02
3.600000e-07	-7.218478e-06	-4.565798e-09	-5.046104e+01	-3.014731e+02
3.700000e-07	-7.166333e-06	-4.502712e-09	-5.009652e+01	-3.007867e+02
3.800000e-07	-7.112907e-06	-4.568021e-09	-4.972305e+01	-3.000870e+02
3.900000e-07	-7.058327e-06	-4.598947e-09	-4.934150e+01	-2.993778e+02
4.000000e-07	-7.002604e-06	-4.525399e-09	-4.895197e+01	-2.986617e+02
4.100000e-07	-6.945488e-06	-4.478628e-09	-4.855270e+01	-2.979392e+02
4.200000e-07	-6.886883e-06	-4.507416e-09	-4.814301e+01	-2.972096e+02
4.300000e-07	-6.827213e-06	-4.537349e-09	-4.772589e+01	-2.964702e+02
4.400000e-07	-6.766421e-06	-4.491693e-09	-4.730092e+01	-2.957170e+02
4.500000e-07	-6.704382e-06	-4.466135e-09	-4.686724e+01	-2.949451e+02
4.600000e-07	-6.641349e-06	-4.454531e-09	-4.642660e+01	-2.941488e+02
4.700000e-07	-6.577409e-06	-4.453490e-09	-4.597962e+01	-2.933225e+02
4.800000e-07	-6.512138e-06	-4.458798e-09	-4.552335e+01	-2.924612e+02
4.900000e-07	-6.445346e-06	-4.427400e-09	-4.505643e+01	-2.915606e+02
5.000000e-07	-6.377455e-06	-4.392186e-09	-4.458184e+01	-2.906177e+02
5.100000e-07	-6.308651e-06	-4.380760e-09	-4.410086e+01	-2.896312e+02
5.200000e-07	-6.238788e-06	-4.392755e-09	-4.361248e+01	-2.886015e+02
5.300000e-07	-6.167905e-06	-4.369118e-09	-4.311697e+01	-2.875307e+02
5.400000e-07	-6.096139e-06	-4.333206e-09	-4.261529e+01	-2.864222e+02
5.500000e-07	-6.023243e-06	-4.321941e-09	-4.210571e+01	-2.852809e+02
5.600000e-07	-5.948969e-06	-4.323342e-09	-4.158650e+01	-2.841123e+02
5.700000e-07	-5.873496e-06	-4.312412e-09	-4.105889e+01	-2.829220e+02
5.800000e-07	-5.796907e-06	-4.274767e-09	-4.052350e+01	-2.817153e+02
5.900000e-07	-5.719153e-06	-4.252611e-09	-3.997996e+01	-2.804970e+02
6.000000e-07	-5.640132e-06	-4.248496e-09	-3.942756e+01	-2.792701e+02
6.100000e-07	-5.559881e-06	-4.233812e-09	-3.886656e+01	-2.780360e+02
6.200000e-07	-5.478610e-06	-4.201534e-09	-3.829843e+01	-2.767945e+02
6.300000e-07	-5.396362e-06	-4.174124e-09	-3.772347e+01	-2.755429e+02
6.400000e-07	-5.313272e-06	-4.158782e-09	-3.714263e+01	-2.742768e+02
6.500000e-07	-5.229515e-06	-4.140710e-09	-3.655712e+01	-2.729904e+02
6.600000e-07	-5.144977e-06	-4.116598e-09	-3.596616e+01	-2.716762e+02
6.700000e-07	-5.059461e-06	-4.091571e-09	-3.536835e+01	-2.703264e+02
6.800000e-07	-4.973006e-06	-4.070281e-09	-3.476398e+01	-2.689329e+02
6.900000e-07	-4.885840e-06	-4.056348e-09	-3.415465e+01	-2.674881e+02
7.000000e-07	-4.798011e-06	-4.040065e-09	-3.354068e+01	-2.659857e+02
7.100000e-07	-4.709137e-06	-4.008086e-09	-3.291940e+01	-2.644208e+02
7.200000e-07	-4.618954e-06	-3.975253e-09	-3.228898e+01	-2.627905e+02
7.300000e-07	-4.527839e-06	-3.955438e-09	-3.165203e+01	-2.610941e+02
7.400000e-07	-4.436104e-06	-3.937050e-09	-3.101075e+01	-2.593329e+02
7.500000e-07	-4.343619e-06	-3.900535e-09	-3.036423e+01	-2.575102e+02
7.600000e-07	-4.250315e-06	-3.861145e-09	-2.971199e+01	-2.556309e+02
7.700000e-07	-4.156211e-06	-3.836567e-09	-2.905415e+01	-2.537006e+02
7.800000e-07	-4.061474e-06	-3.817088e-09	-2.839189e+01	-2.517254e+02
7.900000e-07	-3.966226e-06	-3.789501e-09	-2.772605e+01	-2.497109e+02
8.000000e-07	-3.870404e-06	-3.751242e-09	-2.705620e+01	-2.476615e+02
8.100000e-07	-3.773754e-06	-3.718759e-09	-2.638057e+01	-2.455795e+02
8.200000e-07	-3.676099e-06	-3.695193e-09	-2.569791e+01	-2.434651e+02
8.300000e-07	-3.577644e-06	-3.666745e-09	-2.500965e+01	-2.413154e+02
8.400000e-07	-3.478662e-06	-3.626522e-09	-2.431772e+01	-2.391247e+02
8.500000e-07	-3.379110e-06	-3.580653e-09	-2.362180e+01	-2.368842e+02
8.600000e-07	-3.279031e-06	-3.544753e-09	-2.292219e+01	-2.345829e+02
8.700000e-07	-3.178580e-06	-3.517152e-09	-2.221998e+01	-2.322075e+02
8.800000e-07	-3.077668e-06	-3.480058e-09	-2.151455e+01	-2.297434e+02
8.900000e-07	-2.976179e-06	-3.429419e-09	-2.080509e+01	-2.271759e+02
9.000000e-07	-2.874180e-06	-3.379070e-09	-2.009206e+01	-2.244905e+02
9.100000e-07	-2.771799e-06	-3.340734e-09	-1.937636e+01	-2.216744e+02
9.200000e-07	-2.669016e-06	-3.301631e-09	-1.865786e+01	-2.187168e+02
9.300000e-07	-2.565824e-06	-3.248045e-09	-1.793649e+01	-2.156098e+02
9.400000e-07	-2.462234e-06	-3.188819e-09	-1.721234e+01	-2.123485e+02
9.500000e-07	-2.358217e-06	-3.139517e-09	-1.648520e+01	-2.089311e+02
9.600000e-07	-2.253791e-06	-3.095636e-09	-1.575521e+01	-2.053587e+02
9.700000e-07	-2.148898e-06	-3.042463e-09	-1.502195e+01	-2.016344e+02
9.800000e-07	-2.043465e-06	-2.979646e-09	-1.428492e+01	-1.977622e+02
9.900000e-07	-1.937543e-06	-2.915831e-09	-1.354447e+01	-1.937460e+02
1.000000e-06	-1.831098e-06	-2.854246e-09	-1.280036e+01	-1.895879e+02
1.010000e-06	-1.724270e-06	-2.789647e-09	-1.205357e+01	-1.852867e+02
1.020000e-06	-1.617090e-06	-2.718973e-09	-1.130433e+01	-1.808363e+02
1.030000e-06	-1.509542e-06	-2.643550e-09	-1.055251e+01	-1.762245e+02
1.040000e-06	-1.401768e-06	-2.568754e-09	-9.799115e+00	-1.714317e+02
1.050000e-06	-1.293783e-06	-2.496133e-09	-9.044238e+00	-1.664305e+02
1.060000e-06	-1.185617e-06	-2.417897e-09	-8.288099e+00	-1.611850e+02
1.070000e-06	-1.077220e-06	-2.328530e-09	-7.530345e+00	-1.556519e+02
1.080000e-06	-9.686090e-07	-2.232648e-09	-6.771098e+00	-1.497809e+02
1.090000e-06	-8.598728e-07	-2.137335e-09	-6.010974e+00	-1.435166e+02
1.100000e-06	-7.509607e-07	-2.035969e-09	-5.249619e+00	-1.368005e+02
1.110000e-06	-6.418725e-07	-1.924870e-09	-4.487034e+00	-1.295735e+02
1.120000e-06	-5.326457e-07	-1.805859e-09	-3.723480e+00	-1.217795e+02
1.130000e-06	-4.233911e-07	-1.678049e-09	-2.959731e+00	-1.133678e+02
1.140000e-06	-3.141340e-07	-1.540372e-09	-2.195966e+00	-1.042967e+02
1.150000e-06	-2.048213e-07	-1.392840e-09	-1.431811e+00	-9.453670e+01
1.160000e-06	-9.547629e-08	-1.237056e-09	-6.674306e-01	-8.407290e+01
1.170000e-06	1.383325e-08	-1.067340e-09	9.670188e-02	-7.290753e+01
1.180000e-06	1.231082e-07	-8.878388e-10	8.605927e-01	-6.106143e+01
1.190000e-06	2.323912e-07	-7.009827e-10	1.624539e+00	-4.857484e+01
1.200000e-06	3.416357e-07	-5.032541e-10	2.388218e+00	-3.550739e+01
1.210000e-06	4.507521e-07	-2.969888e-10	3.151000e+00	-2.193712e+01
1.220000e-06	5.597205e-07	-8.406310e-11	3.912748e+00	-7.958767e+00
1.230000e-06	6.685761e-07	1.310714e-10	4.673707e+00	6.318924e+00
1.240000e-06	7.772646e-07	3.491307e-10	5.433498e+00	2.077644e+01
1.250000e-06	8.858087e-07	5.702669e-10	6.192279e+00	3.528733e+01
1.260000e-06	9.942082e-07	7.925013e-10	6.950051e+00	4.972241e+01
1.270000e-06	1.102473e-06	1.012580e-09	7.706878e+00	6.395407e+01
1.280000e-06	1.210612e-06	1.227603e-09	8.462832e+00	7.786053e+01
1.290000e-06	1.318578e-06	1.435853e-09	9.217571e+00	9.132982e+01
1.300000e-06	1.426333e-06	1.634720e-09	9.970838e+00	1.042633e+02
1.310000e-06	1.533786e-06	1.824020e-09	1.072199e+01	1.165786e+02
1.320000e-06	1.640903e-06	1.999385e-09	1.147079e+01	1.282114e+02
1.330000e-06	1.747698e-06	2.161288e-09	1.221735e+01	1.391173e+02
1.340000e-06	1.854214e-06	2.311637e-09	1.296195e+01	1.492715e+02
1.350000e-06	1.960373e-06	2.448660e-09	1.370406e+01	1.586686e+02
1.360000e-06	2.066125e-06	2.572697e-09	1.444333e+01	1.673214e+02
1.370000e-06	2.171504e-06	2.689293e-09	1.517998e+01	1.752583e+02
1.380000e-06	2.276479e-06	2.797167e-09	1.591381e+01	1.825215e+02
1.390000e-06	2.381027e-06	2.894329e-09	1.664466e+01	1.891631e+02
1.400000e-06	2.485038e-06	2.984998e-09	1.737175e+01	1.952425e+02
1.410000e-06	2.588553e-06	3.071613e-09	1.809538e+01	2.008225e+02
1.420000e-06	2.691685e-06	3.153985e-09	1.881633e+01	2.059668e+02
1.430000e-06	2.794419e-06	3.230031e-09	1.953450e+01	2.107367e+02
1.440000e-06	2.896738e-06	3.300595e-09	2.024976e+01	2.151888e+02
1.450000e-06	2.998594e-06	3.366226e-09	2.096179e+01	2.193732e+02
1.460000e-06	3.099951e-06	3.429111e-09	2.167032e+01	2.233321e+02
1.470000e-06	3.200793e-06	3.486971e-09	2.237526e+01	2.270994e+02
1.480000e-06	3.301125e-06	3.538399e-09	2.307664e+01	2.307003e+02
1.490000e-06	3.400899e-06	3.588122e-09	2.377412e+01	2.341521e+02
1.500000e-06	3.500046e-06	3.634894e-09	2.446721e+01	2.374652e+02
1.510000e-06	3.598557e-06	3.680260e-09	2.515585e+01	2.406439e+02
1.520000e-06	3.696387e-06	3.725520e-09	2.583974e+01	2.436886e+02
1.530000e-06	3.793445e-06	3.766257e-09	2.651822e+01	2.465969e+02
1.540000e-06	3.889625e-06	3.801527e-09	2.719057e+01	2.493655e+02
1.550000e-06	3.984975e-06	3.834838e-09	2.785712e+01	2.519915e+02
1.560000e-06	4.079694e-06	3.870640e-09	2.851925e+01	2.544734e+02
1.570000e-06	4.173768e-06	3.904369e-09	2.917688e+01	2.568123e+02
1.580000e-06	4.267098e-06	3.933755e-09	2.982931e+01	2.590123e+02
1.590000e-06	4.359705e-06	3.962966e-09	3.047668e+01	2.610806e+02
1.600000e-06	4.451566e-06	3.993073e-09	3.111884e+01	2.630273e+02
1.610000e-06	4.542622e-06	4.023829e-09	3.175537e+01	2.648648e+02
1.620000e-06	4.632848e-06	4.052861e-09	3.238610e+01	2.666077e+02
1.630000e-06	4.722115e-06	4.078167e-09	3.301013e+01	2.682710e+02
1.640000e-06	4.810304e-06	4.102330e-09	3.362662e+01	2.698699e+02
1.650000e-06	4.897592e-06	4.127969e-09	3.423680e+01	2.714183e+02
1.660000e-06	4.984146e-06	4.152234e-09	3.484186e+01	2.729286e+02
1.670000e-06	5.069893e-06	4.174184e-09	3.544128e+01	2.744104e+02
1.680000e-06	5.154810e-06	4.195407e-09	3.603490e+01	2.758706e+02
1.690000e-06	5.238900e-06	4.217742e-09	3.662273e+01	2.773126e+02
1.700000e-06	5.322228e-06	4.240360e-09	3.720524e+01	2.787371e+02
1.710000e-06	5.404780e-06	4.261907e-09	3.778232e+01	2.801417e+02
1.720000e-06	5.486424e-06	4.281080e-09	3.835306e+01	2.815217e+02
1.730000e-06	5.567009e-06	4.299135e-09	3.891638e+01	2.828710e+02
1.740000e-06	5.646539e-06	4.317154e-09	3.947235e+01	2.841824e+02
1.750000e-06	5.725147e-06	4.334646e-09	4.002185e+01	2.854487e+02
1.760000e-06	5.802730e-06	4.350531e-09	4.056421e+01	2.866634e+02
1.770000e-06	5.879320e-06	4.366017e-09	4.109961e+01	2.878213e+02
1.780000e-06	5.954891e-06	4.383266e-09	4.162789e+01	2.889191e+02
1.790000e-06	6.029194e-06	4.400699e-09	4.214731e+01	2.899557e+02
1.800000e-06	6.102181e-06	4.417459e-09	4.265753e+01	2.909324e+02
1.810000e-06	6.173983e-06	4.433122e-09	4.315946e+01	2.918526e+02
1.820000e-06	6.244703e-06	4.449154e-09	4.365383e+01	2.927220e+02
1.830000e-06	6.314339e-06	4.465561e-09	4.414063e+01	2.935476e+02
1.840000e-06	6.382940e-06	4.479794e-09	4.462018e+01	2.943374e+02
1.850000e-06	6.450553e-06	4.492127e-09	4.509284e+01	2.950998e+02
1.860000e-06	6.517020e-06	4.505021e-09	4.555748e+01	2.958429e+02
1.870000e-06	6.582177e-06	4.518677e-09	4.601296e+01	2.965740e+02
1.880000e-06	6.646111e-06	4.532838e-09	4.645989e+01	2.972988e+02
1.890000e-06	6.708938e-06	4.547126e-09	4.689909e+01	2.980214e+02
1.900000e-06	6.770672e-06	4.561291e-09	4.733064e+01	2.987436e+02
1.910000e-06	6.831273e-06	4.574179e-09	4.775427e+01	2.994653e+02
1.920000e-06	6.890723e-06	4.585226e-09	4.816986e+01	3.001844e+02
1.930000e-06	6.948946e-06	4.595723e-09	4.857687e+01	3.008970e+02
1.940000e-06	7.005696e-06	4.606732e-09	4.897358e+01	3.015982e+02
1.950000e-06	7.061073e-06	4.618273e-09	4.936070e+01	3.022821e+02
1.960000e-06	7.115278e-06	4.629457e-09	4.973962e+01	3.029427e+02
1.970000e-06	7.168241e-06	4.639837e-09	5.010986e+01	3.035744e+02
1.980000e-06	7.219793e-06	4.649871e-09	5.047024e+01	3.041724e+02
1.990000e-06	7.269777e-06	4.660856e-09	5.081965e+01	3.047333e+02
2.000000e-06	7.318111e-06	4.671391e-09	5.115753e+01	3.052553e+02
2.010000e-06	7.365060e-06	4.679192e-09	5.148573e+01	3.057383e+02
2.020000e-06	7.410803e-06	4.687191e-09	5.180550e+01	3.061840e+02
2.030000e-06	7.455318e-06	4.696691e-09	5.211668e+01	3.065956e+02
2.040000e-06	7.498664e-06	4.705448e-09	5.241970e+01	3.069779e+02
2.050000e-06	7.540664e-06	4.712912e-09	5.271330e+01	3.073363e+02
2.060000e-06	7.581122e-06	4.720692e-09	5.299612e+01	3.076767e+02
2.070000e-06	7.620222e-06	4.727932e-09	5.326945e+01	3.080050e+02
2.080000e-06	7.658133e-06	4.735200e-09	5.353447e+01	3.083265e+02
2.090000e-06	7.694811e-06	4.743857e-09	5.379087e+01	3.086456e+02
2.100000e-06	7.730300e-06	4.752381e-09	5.403896e+01	3.089653e+02
2.110000e-06	7.764369e-06	4.760152e-09	5.427712e+01	3.092869e+02
2.120000e-06	7.796894e-06	4.767190e-09	5.450448e+01	3.096103e+02
2.130000e-06	7.828120e-06	4.774029e-09	5.472277e+01	3.099336e+02
2.140000e-06	7.858098e-06	4.779510e-09	5.493233e+01	3.102538e+02
2.150000e-06	7.886746e-06	4.783488e-09	5.513260e+01	3.105664e+02
2.160000e-06	7.914171e-06	4.785987e-09	5.532431e+01	3.108667e+02
2.170000e-06	7.940156e-06	4.790200e-09	5.550596e+01	3.111494e+02
2.180000e-06	7.964492e-06	4.793840e-09	5.567609e+01	3.114095e+02
2.190000e-06	7.987450e-06	4.798245e-09	5.583657e+01	3.116429e+02
2.200000e-06	8.009106e-06	4.804362e-09	5.598796e+01	3.118463e+02
2.210000e-06	8.029476e-06	4.810561e-09	5.613036e+01	3.120178e+02
2.220000e-06	8.048652e-06	4.818058e-09	5.626440e+01	3.121570e+02
2.230000e-06	8.066393e-06	4.821851e-09	5.638842e+01	3.122650e+02
2.240000e-06	8.082554e-06	4.825853e-09	5.650140e+01	3.123442e+02
2.250000e-06	8.097178e-06	4.827300e-09	5.660363e+01	3.123982e+02
2.260000e-06	8.110314e-06	4.824642e-09	5.669546e+01	3.124315e+02
2.270000e-06	8.121920e-06	4.823250e-09	5.677659e+01	3.124489e+02
2.280000e-06	8.131720e-06	4.824176e-09	5.684510e+01	3.124553e+02
2.290000e-06	8.139862e-06	4.829112e-09	5.690201e+01	3.124550e+02
2.300000e-06	8.146621e-06	4.833101e-09	5.694926e+01	3.124515e+02
2.310000e-06	8.152041e-06	4.835051e-09	5.698715e+01	3.124472e+02
2.320000e-06	8.156180e-06	4.837420e-09	5.701609e+01	3.124431e+02
2.330000e-06	8.158850e-06	4.838969e-09	5.703475e+01	3.124387e+02
2.340000e-06	8.159815e-06	4.841112e-09	5.704150e+01	3.124321e+02
2.350000e-06	8.159338e-06	4.842087e-09	5.703816e+01	3.124202e+02
2.360000e-06	8.157637e-06	4.837074e-09	5.702627e+01	3.123989e+02
2.370000e-06	8.154633e-06	4.830959e-09	5.700527e+01	3.123637e+02
2.380000e-06	8.150394e-06	4.829285e-09	5.697564e+01	3.123099e+02
2.390000e-06	8.144698e-06	4.830349e-09	5.693582e+01	3.122329e+02
2.400000e-06	8.137423e-06	4.830524e-09	5.688496e+01	3.121293e+02
2.410000e-06	8.128906e-06	4.832913e-09	5.682543e+01	3.119966e+02
2.420000e-06	8.119176e-06	4.852087e-09	5.675741e+01	3.118336e+02
2.430000e-06	8.108143e-06	4.809269e-09	5.668028e+01	3.116409e+02
2.440000e-06	8.095508e-06	4.719183e-09	5.659195e+01	3.114207e+02
2.450000e-06	8.080643e-06	4.730204e-09	5.648804e+01	3.111766e+02
2.460000e-06	8.063639e-06	4.747526e-09	5.636918e+01	3.109134e+02
2.470000e-06	8.045184e-06	4.867488e-09	5.624017e+01	3.106370e+02
2.480000e-06	8.025836e-06	4.949679e-09	5.610491e+01	3.103536e+02
2.490000e-06	8.005824e-06	4.715863e-09	5.596502e+01	3.100692e+02
2.500000e-06	7.984510e-06	4.755232e-09	5.581602e+01	3.097895e+02
2.510000e-06	7.961372e-06	4.825493e-09	5.565427e+01	3.095189e+02
2.520000e-06	7.937082e-06	4.743838e-09	5.548448e+01	3.092606e+02
2.530000e-06	7.911593e-06	4.913474e-09	5.530629e+01	3.090157e+02
2.540000e-06	7.884457e-06	4.756167e-09	5.511660e+01	3.087837e+02
2.550000e-06	7.856231e-06	4.607051e-09	5.491928e+01	3.085619e+02
2.560000e-06	7.826797e-06	4.864742e-09	5.471352e+01	3.083461e+02
2.570000e-06	7.795694e-06	4.744210e-09	5.449609e+01	3.081304e+02
2.580000e-06	7.763042e-06	4.593757e-09	5.426784e+01	3.079075e+02
2.590000e-06	7.729017e-06	4.642995e-09	5.402999e+01	3.076700e+02
2.600000e-06	7.693769e-06	4.593423e-09	5.378359e+01	3.074099e+02
2.610000e-06	7.657369e-06	4.755235e-09	5.352913e+01	3.071198e+02
2.620000e-06	7.619386e-06	4.676799e-09	5.326360e+01	3.067934e+02
2.630000e-06	7.579761e-06	4.570846e-09	5.298661e+01	3.064256e+02
2.640000e-06	7.538829e-06	4.643950e-09	5.270047e+01	3.060130e+02
2.650000e-06	7.496550e-06	4.585638e-09	5.240492e+01	3.055542e+02
2.660000e-06	7.453049e-06	4.707723e-09	5.210082e+01	3.050497e+02
2.670000e-06	7.408545e-06	4.640218e-09	5.178971e+01	3.045018e+02
2.680000e-06	7.362688e-06	4.536513e-09	5.146915e+01	3.039145e+02
2.690000e-06	7.315241e-06	4.573640e-09	5.113747e+01	3.032926e+02
2.700000e-06	7.266628e-06	4.599000e-09	5.079764e+01	3.026422e+02
2.710000e-06	7.216553e-06	4.688986e-09	5.044759e+01	3.019690e+02
2.720000e-06	7.164826e-06	4.510475e-09	5.008599e+01	3.012788e+02
2.730000e-06	7.111625e-06	4.506378e-09	4.971409e+01	3.005764e+02
2.740000e-06	7.056818e-06	4.605477e-09	4.933095e+01	2.998653e+02
2.750000e-06	7.000679e-06	4.555309e-09	4.893851e+01	2.991475e+02
2.760000e-06	6.943336e-06	4.541097e-09	4.853765e+01	2.984234e+02
2.770000e-06	6.884795e-06	4.465741e-09	4.812842e+01	2.976917e+02
2.780000e-06	6.825271e-06	4.514185e-09	4.771232e+01	2.969492e+02
2.790000e-06	6.764701e-06	4.490929e-09	4.728890e+01	2.961918e+02
2.800000e-06	6.702654e-06	4.487079e-09	4.685516e+01	2.954142e+02
2.810000e-06	6.639113e-06	4.493108e-09	4.641097e+01	2.946110e+02
2.820000e-06	6.574541e-06	4.420612e-09	4.595958e+01	2.937764e+02
2.830000e-06	6.508926e-06	4.439086e-09	4.550089e+01	2.929056e+02
2.840000e-06	6.442149e-06	4.433892e-09	4.503409e+01	2.919945e+02
2.850000e-06	6.374402e-06	4.439903e-09	4.456050e+01	2.910408e+02
2.860000e-06	6.305646e-06	4.373998e-09	4.407986e+01	2.900434e+02
2.870000e-06	6.235454e-06	4.356142e-09	4.358918e+01	2.890031e+02
2.880000e-06	6.163911e-06	4.375813e-09	4.308906e+01	2.879225e+02
2.890000e-06	6.091408e-06	4.348246e-09	4.258222e+01	2.868053e+02
2.900000e-06	6.017872e-06	4.321538e-09	4.206816e+01	2.856566e+02
2.910000e-06	5.943393e-06	4.299534e-09	4.154751e+01	2.844820e+02
2.920000e-06	5.867915e-06	4.317160e-09	4.101988e+01	2.832871e+02
2.930000e-06	5.791284e-06	4.278018e-09	4.048419e+01	2.820772e+02
2.940000e-06	5.713321e-06	4.256826e-09	3.993919e+01	2.808564e+02
2.950000e-06	5.633998e-06	4.249041e-09	3.938467e+01	2.796276e+02
