# Temperatura_=_20.0
# Concentracion g/m^3_=_9000.0
# C_Vs_to_Am_M_A/Vsm_=_65563218390.804596
# pendiente_HvsI_1/m_=_3716.3
# ordenada_HvsI_A/m_=_1297.0
# frecuencia_Hz_=_212992.37749739538

Tiempo_(s)	Campo_(V.s)	Magnetizacion_(V.s)	Campo_(kA/m)	Magnetizacion_(A/m)
0.000000e+00	-8.023319e-06	-4.776966e-09	-5.692427e+01	-3.137843e+02
1.000000e-08	-8.022845e-06	-4.771997e-09	-5.692090e+01	-3.137734e+02
2.000000e-08	-8.020766e-06	-4.771165e-09	-5.690615e+01	-3.137534e+02
3.000000e-08	-8.017300e-06	-4.770855e-09	-5.688156e+01	-3.137208e+02
4.000000e-08	-8.012703e-06	-4.770003e-09	-5.684895e+01	-3.136725e+02
5.000000e-08	-8.006801e-06	-4.769562e-09	-5.680708e+01	-3.136053e+02
6.000000e-08	-7.999587e-06	-4.767349e-09	-5.675589e+01	-3.135171e+02
7.000000e-08	-7.991072e-06	-4.765045e-09	-5.669548e+01	-3.134065e+02
8.000000e-08	-7.980922e-06	-4.762243e-09	-5.662347e+01	-3.132732e+02
9.000000e-08	-7.969075e-06	-4.754811e-09	-5.653941e+01	-3.131182e+02
1.000000e-07	-7.955558e-06	-4.774854e-09	-5.644351e+01	-3.129437e+02
1.100000e-07	-7.939989e-06	-4.794885e-09	-5.633305e+01	-3.127528e+02
1.200000e-07	-7.922610e-06	-4.779044e-09	-5.620975e+01	-3.125494e+02
1.300000e-07	-7.904085e-06	-4.754930e-09	-5.607832e+01	-3.123378e+02
1.400000e-07	-7.884631e-06	-4.708503e-09	-5.594030e+01	-3.121222e+02
1.500000e-07	-7.864325e-06	-4.698958e-09	-5.579622e+01	-3.119066e+02
1.600000e-07	-7.842856e-06	-4.793969e-09	-5.564390e+01	-3.116941e+02
1.700000e-07	-7.820099e-06	-4.766789e-09	-5.548245e+01	-3.114867e+02
1.800000e-07	-7.796145e-06	-4.701063e-09	-5.531250e+01	-3.112848e+02
1.900000e-07	-7.770540e-06	-4.726429e-09	-5.513084e+01	-3.110874e+02
2.000000e-07	-7.743407e-06	-4.702485e-09	-5.493833e+01	-3.108919e+02
2.100000e-07	-7.715264e-06	-4.747160e-09	-5.473866e+01	-3.106940e+02
2.200000e-07	-7.685862e-06	-4.777372e-09	-5.453006e+01	-3.104884e+02
2.300000e-07	-7.655022e-06	-4.683544e-09	-5.431126e+01	-3.102687e+02
2.400000e-07	-7.622959e-06	-4.678006e-09	-5.408377e+01	-3.100278e+02
2.500000e-07	-7.589466e-06	-4.749485e-09	-5.384614e+01	-3.097589e+02
2.600000e-07	-7.554492e-06	-4.741896e-09	-5.359801e+01	-3.094553e+02
2.700000e-07	-7.518151e-06	-4.702908e-09	-5.334017e+01	-3.091116e+02
2.800000e-07	-7.480324e-06	-4.658671e-09	-5.307180e+01	-3.087235e+02
2.900000e-07	-7.441232e-06	-4.671432e-09	-5.279444e+01	-3.082883e+02
3.000000e-07	-7.400983e-06	-4.707889e-09	-5.250888e+01	-3.078053e+02
3.100000e-07	-7.359204e-06	-4.684001e-09	-5.221247e+01	-3.072756e+02
3.200000e-07	-7.315901e-06	-4.635275e-09	-5.190524e+01	-3.067023e+02
3.300000e-07	-7.271297e-06	-4.621298e-09	-5.158878e+01	-3.060898e+02
3.400000e-07	-7.225346e-06	-4.654105e-09	-5.126277e+01	-3.054438e+02
3.500000e-07	-7.178028e-06	-4.653396e-09	-5.092705e+01	-3.047708e+02
3.600000e-07	-7.129168e-06	-4.624097e-09	-5.058040e+01	-3.040775e+02
3.700000e-07	-7.078574e-06	-4.591919e-09	-5.022144e+01	-3.033702e+02
3.800000e-07	-7.026349e-06	-4.582174e-09	-4.985091e+01	-3.026546e+02
3.900000e-07	-6.972904e-06	-4.615184e-09	-4.947173e+01	-3.019349e+02
4.000000e-07	-6.918269e-06	-4.597950e-09	-4.908410e+01	-3.012138e+02
4.100000e-07	-6.862425e-06	-4.542357e-09	-4.868789e+01	-3.004921e+02
4.200000e-07	-6.805456e-06	-4.534633e-09	-4.828371e+01	-2.997689e+02
4.300000e-07	-6.747132e-06	-4.559939e-09	-4.786991e+01	-2.990411e+02
4.400000e-07	-6.687456e-06	-4.551505e-09	-4.744651e+01	-2.983043e+02
4.500000e-07	-6.626624e-06	-4.508944e-09	-4.701492e+01	-2.975529e+02
4.600000e-07	-6.564741e-06	-4.491652e-09	-4.657587e+01	-2.967803e+02
4.700000e-07	-6.501857e-06	-4.495099e-09	-4.612971e+01	-2.959800e+02
4.800000e-07	-6.437933e-06	-4.494892e-09	-4.567619e+01	-2.951455e+02
4.900000e-07	-6.372803e-06	-4.472091e-09	-4.521410e+01	-2.942713e+02
5.000000e-07	-6.306307e-06	-4.435096e-09	-4.474232e+01	-2.933532e+02
5.100000e-07	-6.238668e-06	-4.425320e-09	-4.426243e+01	-2.923884e+02
5.200000e-07	-6.170167e-06	-4.434053e-09	-4.377643e+01	-2.913761e+02
5.300000e-07	-6.100715e-06	-4.421028e-09	-4.328367e+01	-2.903174e+02
5.400000e-07	-6.030194e-06	-4.384794e-09	-4.278334e+01	-2.892149e+02
5.500000e-07	-5.958671e-06	-4.363750e-09	-4.227589e+01	-2.880729e+02
5.600000e-07	-5.886228e-06	-4.361440e-09	-4.176192e+01	-2.868967e+02
5.700000e-07	-5.812609e-06	-4.355345e-09	-4.123961e+01	-2.856923e+02
5.800000e-07	-5.737571e-06	-4.328134e-09	-4.070722e+01	-2.844655e+02
5.900000e-07	-5.661254e-06	-4.289501e-09	-4.016576e+01	-2.832219e+02
6.000000e-07	-5.583907e-06	-4.274499e-09	-3.961700e+01	-2.819657e+02
6.100000e-07	-5.505555e-06	-4.273643e-09	-3.906110e+01	-2.806998e+02
6.200000e-07	-5.425881e-06	-4.256022e-09	-3.849583e+01	-2.794254e+02
6.300000e-07	-5.345058e-06	-4.218144e-09	-3.792240e+01	-2.781416e+02
6.400000e-07	-5.263432e-06	-4.190198e-09	-3.734328e+01	-2.768455e+02
6.500000e-07	-5.180916e-06	-4.179932e-09	-3.675784e+01	-2.755323e+02
6.600000e-07	-5.097556e-06	-4.163937e-09	-3.616641e+01	-2.741960e+02
6.700000e-07	-5.013416e-06	-4.136849e-09	-3.556945e+01	-2.728293e+02
6.800000e-07	-4.928496e-06	-4.104103e-09	-3.496695e+01	-2.714244e+02
6.900000e-07	-4.842808e-06	-4.083826e-09	-3.435901e+01	-2.699736e+02
7.000000e-07	-4.756262e-06	-4.072956e-09	-3.374498e+01	-2.684701e+02
7.100000e-07	-4.668861e-06	-4.050163e-09	-3.312488e+01	-2.669079e+02
7.200000e-07	-4.580674e-06	-4.017653e-09	-3.249921e+01	-2.652829e+02
7.300000e-07	-4.491639e-06	-3.987629e-09	-3.186752e+01	-2.635928e+02
7.400000e-07	-4.401641e-06	-3.968906e-09	-3.122900e+01	-2.618374e+02
7.500000e-07	-4.310745e-06	-3.946034e-09	-3.058410e+01	-2.600182e+02
7.600000e-07	-4.219081e-06	-3.913336e-09	-2.993376e+01	-2.581386e+02
7.700000e-07	-4.126644e-06	-3.880244e-09	-2.927793e+01	-2.562029e+02
7.800000e-07	-4.033553e-06	-3.850920e-09	-2.861746e+01	-2.542164e+02
7.900000e-07	-3.939857e-06	-3.827529e-09	-2.795270e+01	-2.521841e+02
8.000000e-07	-3.845384e-06	-3.797039e-09	-2.728243e+01	-2.501103e+02
8.100000e-07	-3.750178e-06	-3.762782e-09	-2.660696e+01	-2.479981e+02
8.200000e-07	-3.654448e-06	-3.730699e-09	-2.592777e+01	-2.458486e+02
8.300000e-07	-3.558206e-06	-3.698811e-09	-2.524495e+01	-2.436602e+02
8.400000e-07	-3.461314e-06	-3.664080e-09	-2.455751e+01	-2.414291e+02
8.500000e-07	-3.363582e-06	-3.623083e-09	-2.386412e+01	-2.391484e+02
8.600000e-07	-3.265064e-06	-3.584352e-09	-2.316514e+01	-2.368091e+02
8.700000e-07	-3.165985e-06	-3.549163e-09	-2.246220e+01	-2.343998e+02
8.800000e-07	-3.066464e-06	-3.510840e-09	-2.175611e+01	-2.319077e+02
8.900000e-07	-2.966529e-06	-3.466871e-09	-2.104709e+01	-2.293195e+02
9.000000e-07	-2.866185e-06	-3.420109e-09	-2.033516e+01	-2.266215e+02
9.100000e-07	-2.765467e-06	-3.377289e-09	-1.962058e+01	-2.238013e+02
9.200000e-07	-2.664324e-06	-3.333246e-09	-1.890299e+01	-2.208480e+02
9.300000e-07	-2.562674e-06	-3.281466e-09	-1.818180e+01	-2.177531e+02
9.400000e-07	-2.460557e-06	-3.226967e-09	-1.745729e+01	-2.145107e+02
9.500000e-07	-2.358027e-06	-3.176436e-09	-1.672985e+01	-2.111175e+02
9.600000e-07	-2.255061e-06	-3.129195e-09	-1.599932e+01	-2.075732e+02
9.700000e-07	-2.151699e-06	-3.077697e-09	-1.526599e+01	-2.038792e+02
9.800000e-07	-2.048042e-06	-3.019402e-09	-1.453055e+01	-2.000383e+02
9.900000e-07	-1.944109e-06	-2.957571e-09	-1.379317e+01	-1.960534e+02
1.000000e-06	-1.839762e-06	-2.895832e-09	-1.305284e+01	-1.919263e+02
1.010000e-06	-1.735032e-06	-2.830875e-09	-1.230979e+01	-1.876560e+02
1.020000e-06	-1.629995e-06	-2.759918e-09	-1.156457e+01	-1.832375e+02
1.030000e-06	-1.524502e-06	-2.686480e-09	-1.081612e+01	-1.786604e+02
1.040000e-06	-1.418564e-06	-2.613111e-09	-1.006450e+01	-1.739079e+02
1.050000e-06	-1.312218e-06	-2.540535e-09	-9.309993e+00	-1.689557e+02
1.060000e-06	-1.205575e-06	-2.464362e-09	-8.553378e+00	-1.637720e+02
1.070000e-06	-1.098698e-06	-2.379903e-09	-7.795101e+00	-1.583173e+02
1.080000e-06	-9.915679e-07	-2.288749e-09	-7.035028e+00	-1.525457e+02
1.090000e-06	-8.842692e-07	-2.194874e-09	-6.273760e+00	-1.464054e+02
1.100000e-06	-7.767845e-07	-2.094877e-09	-5.511172e+00	-1.398414e+02
1.110000e-06	-6.691293e-07	-1.986552e-09	-4.747374e+00	-1.327973e+02
1.120000e-06	-5.614035e-07	-1.869562e-09	-3.983075e+00	-1.252178e+02
1.130000e-06	-4.536182e-07	-1.744661e-09	-3.218355e+00	-1.170525e+02
1.140000e-06	-3.457466e-07	-1.611129e-09	-2.453021e+00	-1.082581e+02
1.150000e-06	-2.377828e-07	-1.468710e-09	-1.687034e+00	-9.880182e+01
1.160000e-06	-1.297605e-07	-1.317848e-09	-9.206320e-01	-8.866425e+01
1.170000e-06	-2.180153e-08	-1.153264e-09	-1.546787e-01	-7.784135e+01
1.180000e-06	8.606711e-08	-9.801026e-10	6.106335e-01	-6.634644e+01
1.190000e-06	1.939227e-07	-8.000822e-10	1.375853e+00	-5.421125e+01
1.200000e-06	3.017575e-07	-6.092480e-10	2.140925e+00	-4.148619e+01
1.210000e-06	4.095125e-07	-4.087309e-10	2.905431e+00	-2.823982e+01
1.220000e-06	5.171718e-07	-2.000560e-10	3.669258e+00	-1.455744e+01
1.230000e-06	6.247310e-07	1.274775e-11	4.432374e+00	-5.389985e-01
1.240000e-06	7.321612e-07	2.288463e-10	5.194576e+00	1.370388e+01
1.250000e-06	8.394253e-07	4.488847e-10	5.955599e+00	2.805128e+01
1.260000e-06	9.465087e-07	6.706003e-10	6.715340e+00	4.237893e+01
1.270000e-06	1.053421e-06	8.884177e-10	7.473864e+00	5.656223e+01
1.280000e-06	1.160161e-06	1.101051e-09	8.231172e+00	7.048042e+01
1.290000e-06	1.266629e-06	1.309782e-09	8.986548e+00	8.402054e+01
1.300000e-06	1.372724e-06	1.512645e-09	9.739271e+00	9.708095e+01
1.310000e-06	1.478367e-06	1.703162e-09	1.048880e+01	1.095744e+02
1.320000e-06	1.583636e-06	1.881548e-09	1.123566e+01	1.214305e+02
1.330000e-06	1.688582e-06	2.048407e-09	1.198024e+01	1.325969e+02
1.340000e-06	1.793170e-06	2.204762e-09	1.272228e+01	1.430406e+02
1.350000e-06	1.897489e-06	2.346747e-09	1.346241e+01	1.527473e+02
1.360000e-06	2.001520e-06	2.476092e-09	1.420049e+01	1.617209e+02
1.370000e-06	2.105232e-06	2.596451e-09	1.493631e+01	1.699814e+02
1.380000e-06	2.208671e-06	2.704813e-09	1.567020e+01	1.775632e+02
1.390000e-06	2.311767e-06	2.806409e-09	1.640165e+01	1.845118e+02
1.400000e-06	2.414456e-06	2.899505e-09	1.713021e+01	1.908810e+02
1.410000e-06	2.516733e-06	2.986783e-09	1.785585e+01	1.967299e+02
1.420000e-06	2.618559e-06	3.071496e-09	1.857829e+01	2.021196e+02
1.430000e-06	2.719961e-06	3.152204e-09	1.929772e+01	2.071104e+02
1.440000e-06	2.820935e-06	3.228014e-09	2.001412e+01	2.117591e+02
1.450000e-06	2.921489e-06	3.298863e-09	2.072753e+01	2.161176e+02
1.460000e-06	3.021645e-06	3.365395e-09	2.143813e+01	2.202304e+02
1.470000e-06	3.121330e-06	3.425314e-09	2.214538e+01	2.241346e+02
1.480000e-06	3.220568e-06	3.478140e-09	2.284946e+01	2.278589e+02
1.490000e-06	3.319321e-06	3.528405e-09	2.355009e+01	2.314245e+02
1.500000e-06	3.417298e-06	3.577201e-09	2.424522e+01	2.348450e+02
1.510000e-06	3.514360e-06	3.625423e-09	2.493387e+01	2.381281e+02
1.520000e-06	3.610644e-06	3.671112e-09	2.561698e+01	2.412767e+02
1.530000e-06	3.706300e-06	3.713381e-09	2.629565e+01	2.442904e+02
1.540000e-06	3.801326e-06	3.753079e-09	2.696985e+01	2.471670e+02
1.550000e-06	3.895575e-06	3.790460e-09	2.763853e+01	2.499040e+02
1.560000e-06	3.989123e-06	3.827402e-09	2.830224e+01	2.524998e+02
1.570000e-06	4.082017e-06	3.860472e-09	2.896131e+01	2.549547e+02
1.580000e-06	4.174254e-06	3.890204e-09	2.961572e+01	2.572715e+02
1.590000e-06	4.265883e-06	3.920620e-09	3.026581e+01	2.594559e+02
1.600000e-06	4.356829e-06	3.949741e-09	3.091106e+01	2.615165e+02
1.610000e-06	4.446859e-06	3.977986e-09	3.154981e+01	2.634643e+02
1.620000e-06	4.535757e-06	4.007424e-09	3.218053e+01	2.653123e+02
1.630000e-06	4.623679e-06	4.036397e-09	3.280432e+01	2.670748e+02
1.640000e-06	4.710868e-06	4.063918e-09	3.342292e+01	2.687662e+02
1.650000e-06	4.797264e-06	4.091536e-09	3.403588e+01	2.704006e+02
1.660000e-06	4.882850e-06	4.116395e-09	3.464310e+01	2.719905e+02
1.670000e-06	4.967676e-06	4.140079e-09	3.524493e+01	2.735464e+02
1.680000e-06	5.051758e-06	4.163781e-09	3.584148e+01	2.750760e+02
1.690000e-06	5.135177e-06	4.184840e-09	3.643332e+01	2.765844e+02
1.700000e-06	5.217831e-06	4.203708e-09	3.701974e+01	2.780732e+02
1.710000e-06	5.299397e-06	4.223333e-09	3.759844e+01	2.795416e+02
1.720000e-06	5.379934e-06	4.245347e-09	3.816984e+01	2.809861e+02
1.730000e-06	5.459663e-06	4.265673e-09	3.873550e+01	2.824014e+02
1.740000e-06	5.538399e-06	4.285402e-09	3.929413e+01	2.837809e+02
1.750000e-06	5.616086e-06	4.304464e-09	3.984531e+01	2.851177e+02
1.760000e-06	5.692800e-06	4.322064e-09	4.038958e+01	2.864049e+02
1.770000e-06	5.768614e-06	4.339881e-09	4.092746e+01	2.876368e+02
1.780000e-06	5.843306e-06	4.356073e-09	4.145740e+01	2.888093e+02
1.790000e-06	5.916604e-06	4.372203e-09	4.197744e+01	2.899202e+02
1.800000e-06	5.988666e-06	4.388008e-09	4.248870e+01	2.909694e+02
1.810000e-06	6.059764e-06	4.403733e-09	4.299314e+01	2.919593e+02
1.820000e-06	6.129906e-06	4.419672e-09	4.349078e+01	2.928940e+02
1.830000e-06	6.198947e-06	4.435576e-09	4.398062e+01	2.937797e+02
1.840000e-06	6.266976e-06	4.452714e-09	4.446327e+01	2.946239e+02
1.850000e-06	6.334107e-06	4.467189e-09	4.493956e+01	2.954344e+02
1.860000e-06	6.400026e-06	4.480597e-09	4.540724e+01	2.962197e+02
1.870000e-06	6.464505e-06	4.493781e-09	4.586471e+01	2.969872e+02
1.880000e-06	6.527818e-06	4.506342e-09	4.631391e+01	2.977438e+02
1.890000e-06	6.590140e-06	4.520789e-09	4.675607e+01	2.984944e+02
1.900000e-06	6.651368e-06	4.533920e-09	4.719048e+01	2.992425e+02
1.910000e-06	6.711480e-06	4.545837e-09	4.761696e+01	2.999893e+02
1.920000e-06	6.770617e-06	4.558372e-09	4.803653e+01	3.007344e+02
1.930000e-06	6.828426e-06	4.572785e-09	4.844668e+01	3.014752e+02
1.940000e-06	6.884654e-06	4.584917e-09	4.884561e+01	3.022081e+02
1.950000e-06	6.939672e-06	4.594443e-09	4.923595e+01	3.029280e+02
1.960000e-06	6.993580e-06	4.606345e-09	4.961842e+01	3.036296e+02
1.970000e-06	7.046251e-06	4.618360e-09	4.999212e+01	3.043073e+02
1.980000e-06	7.097466e-06	4.629212e-09	5.035548e+01	3.049563e+02
1.990000e-06	7.146992e-06	4.639086e-09	5.070686e+01	3.055723e+02
2.000000e-06	7.194992e-06	4.648809e-09	5.104741e+01	3.061528e+02
2.010000e-06	7.241718e-06	4.658914e-09	5.137892e+01	3.066963e+02
2.020000e-06	7.287159e-06	4.669552e-09	5.170132e+01	3.072033e+02
2.030000e-06	7.331422e-06	4.679668e-09	5.201536e+01	3.076757e+02
2.040000e-06	7.374614e-06	4.689180e-09	5.232180e+01	3.081166e+02
2.050000e-06	7.416349e-06	4.699046e-09	5.261790e+01	3.085305e+02
2.060000e-06	7.456555e-06	4.708389e-09	5.290316e+01	3.089223e+02
2.070000e-06	7.495526e-06	4.715628e-09	5.317965e+01	3.092973e+02
2.080000e-06	7.533231e-06	4.722717e-09	5.344716e+01	3.096606e+02
2.090000e-06	7.569710e-06	4.731897e-09	5.370597e+01	3.100166e+02
2.100000e-06	7.605128e-06	4.741555e-09	5.395726e+01	3.103686e+02
2.110000e-06	7.639157e-06	4.749216e-09	5.419870e+01	3.107189e+02
2.120000e-06	7.671590e-06	4.755173e-09	5.442880e+01	3.110683e+02
2.130000e-06	7.702708e-06	4.760086e-09	5.464958e+01	3.114159e+02
2.140000e-06	7.732625e-06	4.766299e-09	5.486184e+01	3.117598e+02
2.150000e-06	7.761346e-06	4.772979e-09	5.506561e+01	3.120969e+02
2.160000e-06	7.788900e-06	4.778665e-09	5.526110e+01	3.124230e+02
2.170000e-06	7.815026e-06	4.784054e-09	5.544646e+01	3.127337e+02
2.180000e-06	7.839499e-06	4.789969e-09	5.562009e+01	3.130246e+02
2.190000e-06	7.862552e-06	4.794712e-09	5.578365e+01	3.132914e+02
2.200000e-06	7.884282e-06	4.798705e-09	5.593782e+01	3.135307e+02
2.210000e-06	7.904684e-06	4.804404e-09	5.608257e+01	3.137400e+02
2.220000e-06	7.923989e-06	4.808713e-09	5.621953e+01	3.139181e+02
2.230000e-06	7.941988e-06	4.811798e-09	5.634724e+01	3.140652e+02
2.240000e-06	7.958480e-06	4.814914e-09	5.646424e+01	3.141825e+02
2.250000e-06	7.973514e-06	4.820371e-09	5.657091e+01	3.142726e+02
2.260000e-06	7.986999e-06	4.825860e-09	5.666658e+01	3.143389e+02
2.270000e-06	7.998983e-06	4.827406e-09	5.675161e+01	3.143854e+02
2.280000e-06	8.009308e-06	4.829024e-09	5.682486e+01	3.144163e+02
2.290000e-06	8.017874e-06	4.832154e-09	5.688564e+01	3.144359e+02
2.300000e-06	8.024967e-06	4.834216e-09	5.693596e+01	3.144476e+02
2.310000e-06	8.030739e-06	4.833593e-09	5.697691e+01	3.144545e+02
2.320000e-06	8.035159e-06	4.833166e-09	5.700827e+01	3.144582e+02
2.330000e-06	8.038291e-06	4.834897e-09	5.703049e+01	3.144596e+02
2.340000e-06	8.039843e-06	4.835875e-09	5.704150e+01	3.144580e+02
2.350000e-06	8.039808e-06	4.837174e-09	5.704126e+01	3.144520e+02
2.360000e-06	8.038492e-06	4.836509e-09	5.703192e+01	3.144391e+02
2.370000e-06	8.035890e-06	4.832491e-09	5.701346e+01	3.144162e+02
2.380000e-06	8.032095e-06	4.829328e-09	5.698653e+01	3.143800e+02
2.390000e-06	8.027084e-06	4.824941e-09	5.695098e+01	3.143272e+02
2.400000e-06	8.020507e-06	4.822698e-09	5.690431e+01	3.142550e+02
2.410000e-06	8.012444e-06	4.822207e-09	5.684711e+01	3.141613e+02
2.420000e-06	8.003295e-06	4.820647e-09	5.678220e+01	3.140449e+02
2.430000e-06	7.992934e-06	4.829680e-09	5.670869e+01	3.139061e+02
2.440000e-06	7.981175e-06	4.793783e-09	5.662526e+01	3.137460e+02
2.450000e-06	7.967446e-06	4.758446e-09	5.652786e+01	3.135670e+02
2.460000e-06	7.951338e-06	4.769773e-09	5.641357e+01	3.133726e+02
2.470000e-06	7.933494e-06	4.787184e-09	5.628697e+01	3.131667e+02
2.480000e-06	7.914740e-06	4.867598e-09	5.615392e+01	3.129537e+02
2.490000e-06	7.895419e-06	4.852764e-09	5.601683e+01	3.127377e+02
2.500000e-06	7.874987e-06	4.746657e-09	5.587187e+01	3.125227e+02
2.510000e-06	7.852643e-06	4.815409e-09	5.571335e+01	3.123113e+02
2.520000e-06	7.828829e-06	4.814723e-09	5.554439e+01	3.121052e+02
2.530000e-06	7.803990e-06	4.786063e-09	5.536816e+01	3.119046e+02
2.540000e-06	7.777647e-06	4.854378e-09	5.518126e+01	3.117080e+02
2.550000e-06	7.749981e-06	4.755414e-09	5.498497e+01	3.115123e+02
2.560000e-06	7.721368e-06	4.729239e-09	5.478197e+01	3.113131e+02
2.570000e-06	7.691383e-06	4.822469e-09	5.456923e+01	3.111046e+02
2.580000e-06	7.659685e-06	4.737209e-09	5.434434e+01	3.108802e+02
2.590000e-06	7.626515e-06	4.686426e-09	5.410900e+01	3.106329e+02
2.600000e-06	7.592228e-06	4.710984e-09	5.386574e+01	3.103559e+02
2.610000e-06	7.556867e-06	4.715859e-09	5.361485e+01	3.100428e+02
2.620000e-06	7.520156e-06	4.770004e-09	5.335440e+01	3.096883e+02
2.630000e-06	7.481903e-06	4.697256e-09	5.308300e+01	3.092885e+02
2.640000e-06	7.442082e-06	4.659941e-09	5.280048e+01	3.088414e+02
2.650000e-06	7.400846e-06	4.707834e-09	5.250791e+01	3.083465e+02
2.660000e-06	7.358351e-06	4.705432e-09	5.220642e+01	3.078056e+02
2.670000e-06	7.314639e-06	4.705718e-09	5.189629e+01	3.072220e+02
2.680000e-06	7.269746e-06	4.650545e-09	5.157778e+01	3.066005e+02
2.690000e-06	7.223388e-06	4.642749e-09	5.124888e+01	3.059471e+02
2.700000e-06	7.175691e-06	4.664643e-09	5.091047e+01	3.052684e+02
2.710000e-06	7.126890e-06	4.668118e-09	5.056424e+01	3.045710e+02
2.720000e-06	7.076569e-06	4.656590e-09	5.020722e+01	3.038612e+02
2.730000e-06	7.024701e-06	4.579510e-09	4.983922e+01	3.031442e+02
2.740000e-06	6.971533e-06	4.610520e-09	4.946200e+01	3.024240e+02
2.750000e-06	6.916921e-06	4.646084e-09	4.907453e+01	3.017027e+02
2.760000e-06	6.860766e-06	4.599771e-09	4.867612e+01	3.009808e+02
2.770000e-06	6.803370e-06	4.559842e-09	4.826891e+01	3.002567e+02
2.780000e-06	6.744924e-06	4.541582e-09	4.785424e+01	2.995271e+02
2.790000e-06	6.685369e-06	4.579242e-09	4.743171e+01	2.987873e+02
2.800000e-06	6.624737e-06	4.566004e-09	4.700153e+01	2.980312e+02
2.810000e-06	6.562932e-06	4.526431e-09	4.656303e+01	2.972523e+02
2.820000e-06	6.499763e-06	4.497073e-09	4.611486e+01	2.964440e+02
2.830000e-06	6.435338e-06	4.493634e-09	4.565778e+01	2.956001e+02
2.840000e-06	6.369825e-06	4.513966e-09	4.519297e+01	2.947152e+02
2.850000e-06	6.303296e-06	4.487634e-09	4.472096e+01	2.937856e+02
2.860000e-06	6.235680e-06	4.452485e-09	4.424123e+01	2.928089e+02
2.870000e-06	6.166996e-06	4.426936e-09	4.375393e+01	2.917848e+02
2.880000e-06	6.097290e-06	4.432729e-09	4.325938e+01	2.907148e+02
2.890000e-06	6.026374e-06	4.430996e-09	4.275624e+01	2.896020e+02
2.900000e-06	5.954250e-06	4.394428e-09	4.224452e+01	2.884509e+02
2.910000e-06	5.881118e-06	4.360274e-09	4.172566e+01	2.872671e+02
2.920000e-06	5.807113e-06	4.353524e-09	4.120061e+01	2.860565e+02
2.930000e-06	5.732102e-06	4.360178e-09	4.066842e+01	2.848251e+02
2.940000e-06	5.655960e-06	4.331048e-09	4.012820e+01	2.835779e+02
2.950000e-06	5.578660e-06	4.296667e-09	3.957977e+01	2.823191e+02
