# Temperatura_=_20.0
# Concentracion g/m^3_=_9000.0
# C_Vs_to_Am_M_A/Vsm_=_65563218390.804596
# pendiente_HvsI_1/m_=_3716.3
# ordenada_HvsI_A/m_=_1297.0
# frecuencia_Hz_=_212991.83576235187

Tiempo_(s)	Campo_(V.s)	Magnetizacion_(V.s)	Campo_(kA/m)	Magnetizacion_(A/m)
0.000000e+00	-7.982056e-06	-4.833398e-09	-5.691486e+01	-3.167439e+02
1.000000e-08	-7.981216e-06	-4.830262e-09	-5.690887e+01	-3.167086e+02
2.000000e-08	-7.978738e-06	-4.831880e-09	-5.689121e+01	-3.166650e+02
3.000000e-08	-7.974886e-06	-4.831759e-09	-5.686374e+01	-3.166119e+02
4.000000e-08	-7.969872e-06	-4.832771e-09	-5.682799e+01	-3.165477e+02
5.000000e-08	-7.963505e-06	-4.831332e-09	-5.678259e+01	-3.164714e+02
6.000000e-08	-7.955916e-06	-4.827230e-09	-5.672847e+01	-3.163824e+02
7.000000e-08	-7.946988e-06	-4.823099e-09	-5.666481e+01	-3.162807e+02
8.000000e-08	-7.936379e-06	-4.805704e-09	-5.658917e+01	-3.161670e+02
9.000000e-08	-7.924149e-06	-4.828201e-09	-5.650196e+01	-3.160429e+02
1.000000e-07	-7.910131e-06	-4.885993e-09	-5.640201e+01	-3.159104e+02
1.100000e-07	-7.894040e-06	-4.875456e-09	-5.628728e+01	-3.157722e+02
1.200000e-07	-7.876318e-06	-4.838567e-09	-5.616091e+01	-3.156310e+02
1.300000e-07	-7.857461e-06	-4.767231e-09	-5.602646e+01	-3.154897e+02
1.400000e-07	-7.837695e-06	-4.695594e-09	-5.588552e+01	-3.153506e+02
1.500000e-07	-7.817058e-06	-4.870818e-09	-5.573837e+01	-3.152155e+02
1.600000e-07	-7.795231e-06	-4.910313e-09	-5.558274e+01	-3.150850e+02
1.700000e-07	-7.772240e-06	-4.740624e-09	-5.541880e+01	-3.149588e+02
1.800000e-07	-7.747910e-06	-4.778037e-09	-5.524532e+01	-3.148351e+02
1.900000e-07	-7.721766e-06	-4.738972e-09	-5.505890e+01	-3.147106e+02
2.000000e-07	-7.694332e-06	-4.767743e-09	-5.486329e+01	-3.145812e+02
2.100000e-07	-7.665981e-06	-4.930929e-09	-5.466114e+01	-3.144412e+02
2.200000e-07	-7.636204e-06	-4.751650e-09	-5.444881e+01	-3.142844e+02
2.300000e-07	-7.605032e-06	-4.672243e-09	-5.422655e+01	-3.141040e+02
2.400000e-07	-7.572685e-06	-4.840012e-09	-5.399590e+01	-3.138935e+02
2.500000e-07	-7.538893e-06	-4.851749e-09	-5.375495e+01	-3.136463e+02
2.600000e-07	-7.503654e-06	-4.815388e-09	-5.350368e+01	-3.133570e+02
2.700000e-07	-7.467053e-06	-4.715439e-09	-5.324271e+01	-3.130214e+02
2.800000e-07	-7.429002e-06	-4.704804e-09	-5.297139e+01	-3.126366e+02
2.900000e-07	-7.389777e-06	-4.802573e-09	-5.269170e+01	-3.122016e+02
3.000000e-07	-7.349286e-06	-4.797254e-09	-5.240299e+01	-3.117173e+02
3.100000e-07	-7.307123e-06	-4.716615e-09	-5.210236e+01	-3.111859e+02
3.200000e-07	-7.263485e-06	-4.664190e-09	-5.179120e+01	-3.106115e+02
3.300000e-07	-7.218537e-06	-4.711847e-09	-5.147071e+01	-3.099992e+02
3.400000e-07	-7.172322e-06	-4.738146e-09	-5.114117e+01	-3.093551e+02
3.500000e-07	-7.124924e-06	-4.728321e-09	-5.080321e+01	-3.086855e+02
3.600000e-07	-7.075937e-06	-4.675996e-09	-5.045392e+01	-3.079965e+02
3.700000e-07	-7.024999e-06	-4.607908e-09	-5.009071e+01	-3.072938e+02
3.800000e-07	-6.972579e-06	-4.681227e-09	-4.971694e+01	-3.065819e+02
3.900000e-07	-6.918936e-06	-4.718133e-09	-4.933444e+01	-3.058636e+02
4.000000e-07	-6.864069e-06	-4.620212e-09	-4.894322e+01	-3.051405e+02
4.100000e-07	-6.808204e-06	-4.576047e-09	-4.854488e+01	-3.044120e+02
4.200000e-07	-6.751170e-06	-4.620152e-09	-4.813821e+01	-3.036761e+02
4.300000e-07	-6.692700e-06	-4.645941e-09	-4.772130e+01	-3.029290e+02
4.400000e-07	-6.632903e-06	-4.590636e-09	-4.729493e+01	-3.021658e+02
4.500000e-07	-6.572058e-06	-4.556655e-09	-4.686108e+01	-3.013806e+02
4.600000e-07	-6.510178e-06	-4.554508e-09	-4.641986e+01	-3.005673e+02
4.700000e-07	-6.447280e-06	-4.554975e-09	-4.597137e+01	-2.997197e+02
4.800000e-07	-6.383408e-06	-4.552995e-09	-4.551594e+01	-2.988326e+02
4.900000e-07	-6.318297e-06	-4.512971e-09	-4.505167e+01	-2.979016e+02
5.000000e-07	-6.251728e-06	-4.483956e-09	-4.457702e+01	-2.969238e+02
5.100000e-07	-6.184033e-06	-4.484710e-09	-4.409433e+01	-2.958981e+02
5.200000e-07	-6.115475e-06	-4.490149e-09	-4.360548e+01	-2.948251e+02
5.300000e-07	-6.045918e-06	-4.460479e-09	-4.310952e+01	-2.937071e+02
5.400000e-07	-5.975301e-06	-4.420882e-09	-4.260599e+01	-2.925479e+02
5.500000e-07	-5.903763e-06	-4.411159e-09	-4.209591e+01	-2.913525e+02
5.600000e-07	-5.831386e-06	-4.414448e-09	-4.157983e+01	-2.901266e+02
5.700000e-07	-5.757831e-06	-4.400213e-09	-4.105536e+01	-2.888761e+02
5.800000e-07	-5.682878e-06	-4.354532e-09	-4.052091e+01	-2.876066e+02
5.900000e-07	-5.606778e-06	-4.328467e-09	-3.997830e+01	-2.863227e+02
6.000000e-07	-5.529634e-06	-4.331920e-09	-3.942823e+01	-2.850278e+02
6.100000e-07	-5.451350e-06	-4.317344e-09	-3.887004e+01	-2.837235e+02
6.200000e-07	-5.371800e-06	-4.280346e-09	-3.830282e+01	-2.824095e+02
6.300000e-07	-5.290998e-06	-4.251758e-09	-3.772667e+01	-2.810836e+02
6.400000e-07	-5.209312e-06	-4.238784e-09	-3.714422e+01	-2.797415e+02
6.500000e-07	-5.126897e-06	-4.222270e-09	-3.655658e+01	-2.783776e+02
6.600000e-07	-5.043617e-06	-4.195065e-09	-3.596276e+01	-2.769849e+02
6.700000e-07	-4.959505e-06	-4.166426e-09	-3.536301e+01	-2.755555e+02
6.800000e-07	-4.874628e-06	-4.143159e-09	-3.475781e+01	-2.740817e+02
6.900000e-07	-4.788990e-06	-4.128027e-09	-3.414718e+01	-2.725561e+02
7.000000e-07	-4.702577e-06	-4.109305e-09	-3.353102e+01	-2.709724e+02
7.100000e-07	-4.615258e-06	-4.074671e-09	-3.290841e+01	-2.693256e+02
7.200000e-07	-4.527159e-06	-4.041473e-09	-3.228024e+01	-2.676128e+02
7.300000e-07	-4.438477e-06	-4.022422e-09	-3.164790e+01	-2.658331e+02
7.400000e-07	-4.348968e-06	-4.003347e-09	-3.100967e+01	-2.639875e+02
7.500000e-07	-4.258336e-06	-3.968465e-09	-3.036343e+01	-2.620791e+02
7.600000e-07	-4.166725e-06	-3.931130e-09	-2.971021e+01	-2.601123e+02
7.700000e-07	-4.074444e-06	-3.905564e-09	-2.905222e+01	-2.580925e+02
7.800000e-07	-3.981559e-06	-3.882922e-09	-2.838991e+01	-2.560258e+02
7.900000e-07	-3.888074e-06	-3.849586e-09	-2.772333e+01	-2.539175e+02
8.000000e-07	-3.793970e-06	-3.809360e-09	-2.705233e+01	-2.517722e+02
8.100000e-07	-3.699090e-06	-3.779678e-09	-2.637581e+01	-2.495925e+02
8.200000e-07	-3.603516e-06	-3.753808e-09	-2.569434e+01	-2.473792e+02
8.300000e-07	-3.507477e-06	-3.716698e-09	-2.500954e+01	-2.451300e+02
8.400000e-07	-3.410952e-06	-3.673698e-09	-2.432129e+01	-2.428401e+02
8.500000e-07	-3.313661e-06	-3.634515e-09	-2.362757e+01	-2.405020e+02
8.600000e-07	-3.215614e-06	-3.600432e-09	-2.292845e+01	-2.381056e+02
8.700000e-07	-3.116972e-06	-3.566844e-09	-2.222511e+01	-2.356387e+02
8.800000e-07	-3.017707e-06	-3.524344e-09	-2.151731e+01	-2.330880e+02
8.900000e-07	-2.917909e-06	-3.474718e-09	-2.080572e+01	-2.304395e+02
9.000000e-07	-2.817706e-06	-3.429477e-09	-2.009123e+01	-2.276795e+02
9.100000e-07	-2.717233e-06	-3.389577e-09	-1.937483e+01	-2.247954e+02
9.200000e-07	-2.616454e-06	-3.343018e-09	-1.865624e+01	-2.217765e+02
9.300000e-07	-2.515253e-06	-3.286289e-09	-1.793464e+01	-2.186143e+02
9.400000e-07	-2.413595e-06	-3.231121e-09	-1.720978e+01	-2.153033e+02
9.500000e-07	-2.311430e-06	-3.183221e-09	-1.648131e+01	-2.118405e+02
9.600000e-07	-2.208814e-06	-3.136200e-09	-1.574962e+01	-2.082254e+02
9.700000e-07	-2.105821e-06	-3.078927e-09	-1.501524e+01	-2.044595e+02
9.800000e-07	-2.002422e-06	-3.013159e-09	-1.427797e+01	-2.005450e+02
9.900000e-07	-1.898664e-06	-2.950793e-09	-1.353814e+01	-1.964843e+02
1.000000e-06	-1.794599e-06	-2.890320e-09	-1.279612e+01	-1.922779e+02
1.010000e-06	-1.690268e-06	-2.823615e-09	-1.205220e+01	-1.879235e+02
1.020000e-06	-1.585737e-06	-2.750252e-09	-1.130686e+01	-1.834144e+02
1.030000e-06	-1.480963e-06	-2.675960e-09	-1.055979e+01	-1.787385e+02
1.040000e-06	-1.375796e-06	-2.602770e-09	-9.809906e+00	-1.738768e+02
1.050000e-06	-1.270239e-06	-2.527797e-09	-9.057247e+00	-1.688033e+02
1.060000e-06	-1.164389e-06	-2.445389e-09	-8.302500e+00	-1.634843e+02
1.070000e-06	-1.058264e-06	-2.355380e-09	-7.545792e+00	-1.578791e+02
1.080000e-06	-9.518556e-07	-2.261480e-09	-6.787065e+00	-1.519408e+02
1.090000e-06	-8.451462e-07	-2.167168e-09	-6.026189e+00	-1.456176e+02
1.100000e-06	-7.382153e-07	-2.065246e-09	-5.263734e+00	-1.388548e+02
1.110000e-06	-6.310345e-07	-1.949774e-09	-4.499497e+00	-1.315972e+02
1.120000e-06	-5.236052e-07	-1.828653e-09	-3.733489e+00	-1.237919e+02
1.130000e-06	-4.160883e-07	-1.701245e-09	-2.966856e+00	-1.153913e+02
1.140000e-06	-3.085439e-07	-1.563211e-09	-2.200027e+00	-1.063560e+02
1.150000e-06	-2.009656e-07	-1.414884e-09	-1.432955e+00	-9.665755e+01
1.160000e-06	-9.331263e-08	-1.257467e-09	-6.653518e-01	-8.628129e+01
1.170000e-06	1.435725e-08	-1.092566e-09	1.023723e-01	-7.522841e+01
1.180000e-06	1.219524e-07	-9.212060e-10	8.695632e-01	-6.351748e+01
1.190000e-06	2.295369e-07	-7.397941e-10	1.636678e+00	-5.118533e+01
1.200000e-06	3.370682e-07	-5.441426e-10	2.403415e+00	-3.828709e+01
1.210000e-06	4.444454e-07	-3.388367e-10	3.169052e+00	-2.489544e+01
1.220000e-06	5.516477e-07	-1.295424e-10	3.933442e+00	-1.109906e+01
1.230000e-06	6.586632e-07	8.385437e-11	4.696500e+00	2.999730e+00
1.240000e-06	7.655296e-07	3.024076e-10	5.458495e+00	1.728793e+01
1.250000e-06	8.720940e-07	5.229431e-10	6.218337e+00	3.164541e+01
1.260000e-06	9.782577e-07	7.414565e-10	6.975321e+00	4.594877e+01
1.270000e-06	1.084117e-06	9.536478e-10	7.730135e+00	6.007540e+01
1.280000e-06	1.189699e-06	1.164764e-09	8.482970e+00	7.390748e+01
1.290000e-06	1.295016e-06	1.373463e-09	9.233919e+00	8.733584e+01
1.300000e-06	1.400084e-06	1.572780e-09	9.983088e+00	1.002633e+02
1.310000e-06	1.504903e-06	1.762564e-09	1.073048e+01	1.126075e+02
1.320000e-06	1.609530e-06	1.940123e-09	1.147652e+01	1.243031e+02
1.330000e-06	1.713974e-06	2.106755e-09	1.222124e+01	1.353031e+02
1.340000e-06	1.818154e-06	2.259663e-09	1.296408e+01	1.455793e+02
1.350000e-06	1.922021e-06	2.398455e-09	1.370469e+01	1.551220e+02
1.360000e-06	2.025615e-06	2.524734e-09	1.444335e+01	1.639392e+02
1.370000e-06	2.128885e-06	2.639514e-09	1.517969e+01	1.720543e+02
1.380000e-06	2.231748e-06	2.746604e-09	1.591315e+01	1.795043e+02
1.390000e-06	2.334247e-06	2.846071e-09	1.664400e+01	1.863364e+02
1.400000e-06	2.436368e-06	2.938385e-09	1.737216e+01	1.926058e+02
1.410000e-06	2.538009e-06	3.027022e-09	1.809690e+01	1.983718e+02
1.420000e-06	2.639175e-06	3.112491e-09	1.881824e+01	2.036952e+02
1.430000e-06	2.739938e-06	3.192265e-09	1.953672e+01	2.086356e+02
1.440000e-06	2.840341e-06	3.266690e-09	2.025263e+01	2.132485e+02
1.450000e-06	2.940469e-06	3.337544e-09	2.096658e+01	2.175843e+02
1.460000e-06	3.040204e-06	3.401474e-09	2.167772e+01	2.216857e+02
1.470000e-06	3.139278e-06	3.459401e-09	2.238416e+01	2.255881e+02
1.480000e-06	3.237484e-06	3.512807e-09	2.308440e+01	2.293185e+02
1.490000e-06	3.334904e-06	3.562630e-09	2.377904e+01	2.328964e+02
1.500000e-06	3.431737e-06	3.612556e-09	2.446949e+01	2.363340e+02
1.510000e-06	3.528034e-06	3.661792e-09	2.515612e+01	2.396378e+02
1.520000e-06	3.623775e-06	3.708486e-09	2.583879e+01	2.428096e+02
1.530000e-06	3.718775e-06	3.752905e-09	2.651617e+01	2.458484e+02
1.540000e-06	3.813083e-06	3.793887e-09	2.718862e+01	2.487512e+02
1.550000e-06	3.906794e-06	3.831438e-09	2.785681e+01	2.515152e+02
1.560000e-06	3.999776e-06	3.867624e-09	2.851980e+01	2.541384e+02
1.570000e-06	4.092149e-06	3.900794e-09	2.917846e+01	2.566208e+02
1.580000e-06	4.183973e-06	3.931645e-09	2.983319e+01	2.589651e+02
1.590000e-06	4.274964e-06	3.963530e-09	3.048200e+01	2.611766e+02
1.600000e-06	4.364924e-06	3.994635e-09	3.112344e+01	2.632637e+02
1.610000e-06	4.453941e-06	4.025471e-09	3.175816e+01	2.652371e+02
1.620000e-06	4.542178e-06	4.058667e-09	3.238733e+01	2.671095e+02
1.630000e-06	4.629645e-06	4.091169e-09	3.301100e+01	2.688949e+02
1.640000e-06	4.716261e-06	4.119367e-09	3.362860e+01	2.706073e+02
1.650000e-06	4.802029e-06	4.144742e-09	3.424015e+01	2.722607e+02
1.660000e-06	4.886996e-06	4.169974e-09	3.484599e+01	2.738672e+02
1.670000e-06	4.971281e-06	4.194607e-09	3.544698e+01	2.754373e+02
1.680000e-06	5.054902e-06	4.215169e-09	3.604323e+01	2.769788e+02
1.690000e-06	5.137601e-06	4.233877e-09	3.663290e+01	2.784969e+02
1.700000e-06	5.219317e-06	4.254961e-09	3.721556e+01	2.799935e+02
1.710000e-06	5.300222e-06	4.278197e-09	3.779244e+01	2.814683e+02
1.720000e-06	5.380223e-06	4.300977e-09	3.836288e+01	2.829182e+02
1.730000e-06	5.459200e-06	4.321810e-09	3.892601e+01	2.843387e+02
1.740000e-06	5.537186e-06	4.341563e-09	3.948208e+01	2.857237e+02
1.750000e-06	5.614176e-06	4.361156e-09	4.003105e+01	2.870669e+02
1.760000e-06	5.690207e-06	4.378556e-09	4.057317e+01	2.883623e+02
1.770000e-06	5.765148e-06	4.395384e-09	4.110753e+01	2.896045e+02
1.780000e-06	5.838856e-06	4.412378e-09	4.163309e+01	2.907897e+02
1.790000e-06	5.911348e-06	4.428086e-09	4.214999e+01	2.919160e+02
1.800000e-06	5.982740e-06	4.444707e-09	4.265903e+01	2.929833e+02
1.810000e-06	6.053130e-06	4.462738e-09	4.316094e+01	2.939937e+02
1.820000e-06	6.122472e-06	4.480533e-09	4.365538e+01	2.949514e+02
1.830000e-06	6.190858e-06	4.496931e-09	4.414299e+01	2.958618e+02
1.840000e-06	6.258253e-06	4.513590e-09	4.462354e+01	2.967318e+02
1.850000e-06	6.324463e-06	4.527847e-09	4.509564e+01	2.975689e+02
1.860000e-06	6.389437e-06	4.539592e-09	4.555893e+01	2.983807e+02
1.870000e-06	6.453293e-06	4.552141e-09	4.601425e+01	2.991743e+02
1.880000e-06	6.516048e-06	4.565032e-09	4.646171e+01	2.999559e+02
1.890000e-06	6.577691e-06	4.577897e-09	4.690124e+01	3.007302e+02
1.900000e-06	6.638337e-06	4.589969e-09	4.733367e+01	3.015004e+02
1.910000e-06	6.697951e-06	4.604037e-09	4.775874e+01	3.022678e+02
1.920000e-06	6.756269e-06	4.618458e-09	4.817457e+01	3.030318e+02
1.930000e-06	6.813155e-06	4.631196e-09	4.858019e+01	3.037906e+02
1.940000e-06	6.868800e-06	4.642498e-09	4.897695e+01	3.045405e+02
1.950000e-06	6.923213e-06	4.653850e-09	4.936494e+01	3.052773e+02
1.960000e-06	6.976402e-06	4.664295e-09	4.974419e+01	3.059960e+02
1.970000e-06	7.028218e-06	4.673160e-09	5.011366e+01	3.066916e+02
1.980000e-06	7.078412e-06	4.683311e-09	5.047156e+01	3.073598e+02
1.990000e-06	7.127027e-06	4.693240e-09	5.081820e+01	3.079967e+02
2.000000e-06	7.174254e-06	4.703410e-09	5.115495e+01	3.085999e+02
2.010000e-06	7.220301e-06	4.714731e-09	5.148328e+01	3.091682e+02
2.020000e-06	7.265183e-06	4.726265e-09	5.180330e+01	3.097020e+02
2.030000e-06	7.308873e-06	4.735326e-09	5.211483e+01	3.102028e+02
2.040000e-06	7.351282e-06	4.744640e-09	5.241722e+01	3.106735e+02
2.050000e-06	7.392282e-06	4.754172e-09	5.270957e+01	3.111181e+02
2.060000e-06	7.431980e-06	4.762846e-09	5.299263e+01	3.115411e+02
2.070000e-06	7.470464e-06	4.769766e-09	5.326703e+01	3.119471e+02
2.080000e-06	7.507678e-06	4.777388e-09	5.353238e+01	3.123406e+02
2.090000e-06	7.543725e-06	4.788092e-09	5.378940e+01	3.127257e+02
2.100000e-06	7.578568e-06	4.795903e-09	5.403785e+01	3.131054e+02
2.110000e-06	7.611918e-06	4.801925e-09	5.427565e+01	3.134816e+02
2.120000e-06	7.643846e-06	4.807756e-09	5.450331e+01	3.138550e+02
2.130000e-06	7.674521e-06	4.814185e-09	5.472203e+01	3.142251e+02
2.140000e-06	7.703936e-06	4.821765e-09	5.493177e+01	3.145900e+02
2.150000e-06	7.732152e-06	4.827102e-09	5.513296e+01	3.149468e+02
2.160000e-06	7.759027e-06	4.832367e-09	5.532459e+01	3.152918e+02
2.170000e-06	7.784317e-06	4.838591e-09	5.550492e+01	3.156210e+02
2.180000e-06	7.808094e-06	4.844926e-09	5.567445e+01	3.159302e+02
2.190000e-06	7.830572e-06	4.850316e-09	5.583473e+01	3.162155e+02
2.200000e-06	7.851824e-06	4.854616e-09	5.598626e+01	3.164735e+02
2.210000e-06	7.871867e-06	4.859877e-09	5.612918e+01	3.167017e+02
2.220000e-06	7.890659e-06	4.864817e-09	5.626317e+01	3.168986e+02
2.230000e-06	7.908024e-06	4.869121e-09	5.638699e+01	3.170640e+02
2.240000e-06	7.923879e-06	4.874232e-09	5.650004e+01	3.171985e+02
2.250000e-06	7.938251e-06	4.878050e-09	5.660252e+01	3.173040e+02
2.260000e-06	7.951141e-06	4.879753e-09	5.669443e+01	3.173830e+02
2.270000e-06	7.962454e-06	4.880158e-09	5.677510e+01	3.174389e+02
2.280000e-06	7.972026e-06	4.880275e-09	5.684334e+01	3.174751e+02
2.290000e-06	7.980034e-06	4.883371e-09	5.690045e+01	3.174952e+02
2.300000e-06	7.986676e-06	4.885822e-09	5.694780e+01	3.175024e+02
2.310000e-06	7.991962e-06	4.885592e-09	5.698550e+01	3.174996e+02
2.320000e-06	7.996027e-06	4.885932e-09	5.701448e+01	3.174889e+02
2.330000e-06	7.998773e-06	4.887828e-09	5.703406e+01	3.174715e+02
2.340000e-06	7.999816e-06	4.890156e-09	5.704150e+01	3.174479e+02
2.350000e-06	7.999308e-06	4.893126e-09	5.703787e+01	3.174179e+02
2.360000e-06	7.997552e-06	4.891510e-09	5.702536e+01	3.173805e+02
2.370000e-06	7.994562e-06	4.887520e-09	5.700404e+01	3.173347e+02
2.380000e-06	7.990419e-06	4.889175e-09	5.697449e+01	3.172788e+02
2.390000e-06	7.984855e-06	4.890909e-09	5.693482e+01	3.172116e+02
2.400000e-06	7.977704e-06	4.890768e-09	5.688383e+01	3.171322e+02
2.410000e-06	7.969330e-06	4.892893e-09	5.682412e+01	3.170399e+02
2.420000e-06	7.959843e-06	4.910911e-09	5.675648e+01	3.169350e+02
2.430000e-06	7.949097e-06	4.889995e-09	5.667985e+01	3.168185e+02
2.440000e-06	7.936812e-06	4.798613e-09	5.659225e+01	3.166920e+02
2.450000e-06	7.922351e-06	4.798280e-09	5.648914e+01	3.165577e+02
2.460000e-06	7.905697e-06	4.819068e-09	5.637040e+01	3.164184e+02
2.470000e-06	7.887574e-06	4.925574e-09	5.624117e+01	3.162769e+02
2.480000e-06	7.868658e-06	5.005635e-09	5.610630e+01	3.161359e+02
2.490000e-06	7.849087e-06	4.770372e-09	5.596674e+01	3.159976e+02
2.500000e-06	7.828152e-06	4.828390e-09	5.581747e+01	3.158636e+02
2.510000e-06	7.805334e-06	4.948633e-09	5.565477e+01	3.157342e+02
2.520000e-06	7.781320e-06	4.860607e-09	5.548354e+01	3.156088e+02
2.530000e-06	7.756208e-06	5.032492e-09	5.530449e+01	3.154851e+02
2.540000e-06	7.729486e-06	4.915715e-09	5.511395e+01	3.153598e+02
2.550000e-06	7.701637e-06	4.719164e-09	5.491537e+01	3.152282e+02
2.560000e-06	7.672751e-06	4.955787e-09	5.470941e+01	3.150846e+02
2.570000e-06	7.642243e-06	4.870252e-09	5.449188e+01	3.149225e+02
2.580000e-06	7.610135e-06	4.688800e-09	5.426293e+01	3.147351e+02
2.590000e-06	7.576627e-06	4.764175e-09	5.402401e+01	3.145159e+02
2.600000e-06	7.542004e-06	4.723700e-09	5.377714e+01	3.142586e+02
2.610000e-06	7.506311e-06	4.851327e-09	5.352263e+01	3.139580e+02
2.620000e-06	7.469218e-06	4.792598e-09	5.325815e+01	3.136102e+02
2.630000e-06	7.430607e-06	4.652122e-09	5.298284e+01	3.132129e+02
2.640000e-06	7.390463e-06	4.757945e-09	5.269660e+01	3.127654e+02
2.650000e-06	7.348958e-06	4.703363e-09	5.240065e+01	3.122689e+02
2.660000e-06	7.306147e-06	4.776329e-09	5.209539e+01	3.117262e+02
2.670000e-06	7.262247e-06	4.756784e-09	5.178237e+01	3.111418e+02
2.680000e-06	7.217226e-06	4.638961e-09	5.146136e+01	3.105209e+02
2.690000e-06	7.170699e-06	4.680797e-09	5.112960e+01	3.098698e+02
2.700000e-06	7.122956e-06	4.706242e-09	5.078918e+01	3.091947e+02
2.710000e-06	7.073935e-06	4.778149e-09	5.043964e+01	3.085018e+02
2.720000e-06	7.023403e-06	4.620536e-09	5.007933e+01	3.077963e+02
2.730000e-06	6.971513e-06	4.587618e-09	4.970934e+01	3.070825e+02
2.740000e-06	6.918214e-06	4.718158e-09	4.932929e+01	3.063629e+02
2.750000e-06	6.863394e-06	4.657788e-09	4.893841e+01	3.056385e+02
2.760000e-06	6.807128e-06	4.630751e-09	4.853721e+01	3.049084e+02
2.770000e-06	6.749694e-06	4.571864e-09	4.812769e+01	3.041700e+02
2.780000e-06	6.691135e-06	4.616236e-09	4.771015e+01	3.034193e+02
2.790000e-06	6.631494e-06	4.621733e-09	4.728488e+01	3.026511e+02
2.800000e-06	6.570776e-06	4.579893e-09	4.685194e+01	3.018594e+02
2.810000e-06	6.508814e-06	4.587772e-09	4.641013e+01	3.010380e+02
2.820000e-06	6.445513e-06	4.527435e-09	4.595877e+01	3.001809e+02
2.830000e-06	6.381045e-06	4.545346e-09	4.549909e+01	2.992831e+02
2.840000e-06	6.315600e-06	4.539361e-09	4.503244e+01	2.983406e+02
2.850000e-06	6.249092e-06	4.529701e-09	4.455822e+01	2.973508e+02
2.860000e-06	6.181476e-06	4.480221e-09	4.407610e+01	2.963131e+02
2.870000e-06	6.112872e-06	4.451684e-09	4.358692e+01	2.952285e+02
2.880000e-06	6.043208e-06	4.483824e-09	4.309019e+01	2.940997e+02
2.890000e-06	5.972282e-06	4.455485e-09	4.258447e+01	2.929309e+02
2.900000e-06	5.900194e-06	4.419434e-09	4.207046e+01	2.917272e+02
2.910000e-06	5.827215e-06	4.391539e-09	4.155009e+01	2.904946e+02
2.920000e-06	5.753285e-06	4.410825e-09	4.102294e+01	2.892388e+02
2.930000e-06	5.678268e-06	4.382565e-09	4.048805e+01	2.879652e+02
2.940000e-06	5.602179e-06	4.345969e-09	3.994550e+01	2.866783e+02
2.950000e-06	5.524950e-06	4.339918e-09	3.939484e+01	2.853809e+02
