# Temperatura_=_20.0
# Concentracion g/m^3_=_9000.0
# C_Vs_to_Am_M_A/Vsm_=_65563218390.804596
# pendiente_HvsI_1/m_=_3716.3
# ordenada_HvsI_A/m_=_1297.0
# frecuencia_Hz_=_212991.90788896626

Tiempo_(s)	Campo_(V.s)	Magnetizacion_(V.s)	Campo_(kA/m)	Magnetizacion_(A/m)
0.000000e+00	-8.066939e-06	-2.978491e-09	-5.691919e+01	-1.908538e+02
1.000000e-08	-8.066526e-06	-2.974210e-09	-5.691627e+01	-1.907419e+02
2.000000e-08	-8.064444e-06	-2.973185e-09	-5.690158e+01	-1.906323e+02
3.000000e-08	-8.060827e-06	-2.974334e-09	-5.687606e+01	-1.905247e+02
4.000000e-08	-8.056087e-06	-2.971090e-09	-5.684262e+01	-1.904180e+02
5.000000e-08	-8.050049e-06	-2.965760e-09	-5.680001e+01	-1.903101e+02
6.000000e-08	-8.042775e-06	-2.957914e-09	-5.674869e+01	-1.901981e+02
7.000000e-08	-8.034304e-06	-2.951369e-09	-5.668892e+01	-1.900785e+02
8.000000e-08	-8.024126e-06	-2.936715e-09	-5.661710e+01	-1.899475e+02
9.000000e-08	-8.012237e-06	-2.907254e-09	-5.653321e+01	-1.898009e+02
1.000000e-07	-7.998762e-06	-2.932897e-09	-5.643814e+01	-1.896347e+02
1.100000e-07	-7.983111e-06	-2.945975e-09	-5.632771e+01	-1.894451e+02
1.200000e-07	-7.965649e-06	-2.936482e-09	-5.620450e+01	-1.892286e+02
1.300000e-07	-7.946958e-06	-2.947994e-09	-5.607262e+01	-1.889825e+02
1.400000e-07	-7.927301e-06	-2.880945e-09	-5.593392e+01	-1.887047e+02
1.500000e-07	-7.906820e-06	-2.875916e-09	-5.578941e+01	-1.883939e+02
1.600000e-07	-7.885085e-06	-3.000411e-09	-5.563605e+01	-1.880496e+02
1.700000e-07	-7.862149e-06	-2.885810e-09	-5.547421e+01	-1.876723e+02
1.800000e-07	-7.838132e-06	-2.823195e-09	-5.530476e+01	-1.872630e+02
1.900000e-07	-7.812339e-06	-2.877859e-09	-5.512277e+01	-1.868238e+02
2.000000e-07	-7.784973e-06	-2.804321e-09	-5.492967e+01	-1.863569e+02
2.100000e-07	-7.756704e-06	-2.897925e-09	-5.473022e+01	-1.858655e+02
2.200000e-07	-7.727071e-06	-2.879447e-09	-5.452113e+01	-1.853528e+02
2.300000e-07	-7.695990e-06	-2.749055e-09	-5.430182e+01	-1.848224e+02
2.400000e-07	-7.663796e-06	-2.789158e-09	-5.407466e+01	-1.842777e+02
2.500000e-07	-7.630047e-06	-2.852879e-09	-5.383654e+01	-1.837222e+02
2.600000e-07	-7.594766e-06	-2.857928e-09	-5.358760e+01	-1.831593e+02
2.700000e-07	-7.558179e-06	-2.765767e-09	-5.332945e+01	-1.825918e+02
2.800000e-07	-7.520145e-06	-2.693873e-09	-5.306109e+01	-1.820224e+02
2.900000e-07	-7.480976e-06	-2.791001e-09	-5.278472e+01	-1.814531e+02
3.000000e-07	-7.440551e-06	-2.820297e-09	-5.249948e+01	-1.808854e+02
3.100000e-07	-7.398413e-06	-2.733152e-09	-5.220216e+01	-1.803203e+02
3.200000e-07	-7.354762e-06	-2.705633e-09	-5.189417e+01	-1.797581e+02
3.300000e-07	-7.309776e-06	-2.736686e-09	-5.157675e+01	-1.791986e+02
3.400000e-07	-7.263440e-06	-2.743135e-09	-5.124981e+01	-1.786408e+02
3.500000e-07	-7.215883e-06	-2.721136e-09	-5.091425e+01	-1.780832e+02
3.600000e-07	-7.166769e-06	-2.715359e-09	-5.056772e+01	-1.775240e+02
3.700000e-07	-7.115752e-06	-2.652613e-09	-5.020775e+01	-1.769605e+02
3.800000e-07	-7.063249e-06	-2.646911e-09	-4.983729e+01	-1.763900e+02
3.900000e-07	-7.009541e-06	-2.716445e-09	-4.945833e+01	-1.758093e+02
4.000000e-07	-6.954526e-06	-2.665977e-09	-4.907016e+01	-1.752150e+02
4.100000e-07	-6.898481e-06	-2.593426e-09	-4.867471e+01	-1.746039e+02
4.200000e-07	-6.841232e-06	-2.611198e-09	-4.827077e+01	-1.739727e+02
4.300000e-07	-6.782499e-06	-2.663352e-09	-4.785636e+01	-1.733182e+02
4.400000e-07	-6.722514e-06	-2.630475e-09	-4.743312e+01	-1.726379e+02
4.500000e-07	-6.661360e-06	-2.566573e-09	-4.700162e+01	-1.719295e+02
4.600000e-07	-6.599100e-06	-2.572525e-09	-4.656232e+01	-1.711914e+02
4.700000e-07	-6.535918e-06	-2.595182e-09	-4.611651e+01	-1.704228e+02
4.800000e-07	-6.471800e-06	-2.582233e-09	-4.566411e+01	-1.696233e+02
4.900000e-07	-6.406277e-06	-2.527678e-09	-4.520179e+01	-1.687935e+02
5.000000e-07	-6.339280e-06	-2.506799e-09	-4.472907e+01	-1.679347e+02
5.100000e-07	-6.271315e-06	-2.519332e-09	-4.424952e+01	-1.670487e+02
5.200000e-07	-6.202498e-06	-2.516794e-09	-4.376395e+01	-1.661379e+02
5.300000e-07	-6.132658e-06	-2.489917e-09	-4.327117e+01	-1.652052e+02
5.400000e-07	-6.061769e-06	-2.461749e-09	-4.277099e+01	-1.642535e+02
5.500000e-07	-5.989995e-06	-2.455327e-09	-4.226457e+01	-1.632859e+02
5.600000e-07	-5.917166e-06	-2.453637e-09	-4.175069e+01	-1.623050e+02
5.700000e-07	-5.842982e-06	-2.445840e-09	-4.122726e+01	-1.613135e+02
5.800000e-07	-5.767434e-06	-2.409607e-09	-4.069420e+01	-1.603132e+02
5.900000e-07	-5.690755e-06	-2.372616e-09	-4.015316e+01	-1.593053e+02
6.000000e-07	-5.613086e-06	-2.377330e-09	-3.960515e+01	-1.582902e+02
6.100000e-07	-5.534293e-06	-2.382549e-09	-3.904919e+01	-1.572674e+02
6.200000e-07	-5.454223e-06	-2.350475e-09	-3.848423e+01	-1.562357e+02
6.300000e-07	-5.372974e-06	-2.312594e-09	-3.791095e+01	-1.551930e+02
6.400000e-07	-5.290766e-06	-2.309293e-09	-3.733090e+01	-1.541368e+02
6.500000e-07	-5.207787e-06	-2.308563e-09	-3.674541e+01	-1.530638e+02
6.600000e-07	-5.124120e-06	-2.275908e-09	-3.615507e+01	-1.519707e+02
6.700000e-07	-5.039632e-06	-2.241095e-09	-3.555893e+01	-1.508541e+02
6.800000e-07	-4.954297e-06	-2.225345e-09	-3.495682e+01	-1.497107e+02
6.900000e-07	-4.868108e-06	-2.221548e-09	-3.434868e+01	-1.485378e+02
7.000000e-07	-4.781126e-06	-2.207128e-09	-3.373495e+01	-1.473332e+02
7.100000e-07	-4.693306e-06	-2.177235e-09	-3.311531e+01	-1.460956e+02
7.200000e-07	-4.604496e-06	-2.152914e-09	-3.248867e+01	-1.448243e+02
7.300000e-07	-4.514713e-06	-2.138281e-09	-3.185518e+01	-1.435198e+02
7.400000e-07	-4.424070e-06	-2.127358e-09	-3.121562e+01	-1.421830e+02
7.500000e-07	-4.332680e-06	-2.102614e-09	-3.057078e+01	-1.408158e+02
7.600000e-07	-4.240452e-06	-2.068909e-09	-2.992003e+01	-1.394203e+02
7.700000e-07	-4.147454e-06	-2.045968e-09	-2.926385e+01	-1.379992e+02
7.800000e-07	-4.053853e-06	-2.031721e-09	-2.860342e+01	-1.365548e+02
7.900000e-07	-3.959619e-06	-2.012975e-09	-2.793852e+01	-1.350893e+02
8.000000e-07	-3.864742e-06	-1.978776e-09	-2.726908e+01	-1.336041e+02
8.100000e-07	-3.769200e-06	-1.951519e-09	-2.659494e+01	-1.320998e+02
8.200000e-07	-3.673005e-06	-1.940928e-09	-2.591621e+01	-1.305762e+02
8.300000e-07	-3.576066e-06	-1.922366e-09	-2.523222e+01	-1.290316e+02
8.400000e-07	-3.478329e-06	-1.890453e-09	-2.454260e+01	-1.274633e+02
8.500000e-07	-3.379873e-06	-1.858488e-09	-2.384791e+01	-1.258674e+02
8.600000e-07	-3.280839e-06	-1.836758e-09	-2.314914e+01	-1.242391e+02
8.700000e-07	-3.181367e-06	-1.815663e-09	-2.244728e+01	-1.225727e+02
8.800000e-07	-3.081474e-06	-1.785695e-09	-2.174245e+01	-1.208622e+02
8.900000e-07	-2.981044e-06	-1.754212e-09	-2.103383e+01	-1.191014e+02
9.000000e-07	-2.880068e-06	-1.724139e-09	-2.032135e+01	-1.172843e+02
9.100000e-07	-2.778687e-06	-1.698691e-09	-1.960602e+01	-1.154055e+02
9.200000e-07	-2.676871e-06	-1.672009e-09	-1.888763e+01	-1.134605e+02
9.300000e-07	-2.574604e-06	-1.637611e-09	-1.816604e+01	-1.114459e+02
9.400000e-07	-2.471922e-06	-1.600993e-09	-1.744154e+01	-1.093593e+02
9.500000e-07	-2.368951e-06	-1.567984e-09	-1.671499e+01	-1.071997e+02
9.600000e-07	-2.265707e-06	-1.540411e-09	-1.598651e+01	-1.049669e+02
9.700000e-07	-2.162046e-06	-1.507895e-09	-1.525509e+01	-1.026616e+02
9.800000e-07	-2.057936e-06	-1.466547e-09	-1.452051e+01	-1.002848e+02
9.900000e-07	-1.953276e-06	-1.428120e-09	-1.378204e+01	-9.783713e+01
1.000000e-06	-1.848073e-06	-1.393639e-09	-1.303975e+01	-9.531876e+01
1.010000e-06	-1.742495e-06	-1.353280e-09	-1.229480e+01	-9.272829e+01
1.020000e-06	-1.636584e-06	-1.308550e-09	-1.154750e+01	-9.006238e+01
1.030000e-06	-1.530284e-06	-1.267514e-09	-1.079747e+01	-8.731516e+01
1.040000e-06	-1.423584e-06	-1.228277e-09	-1.004461e+01	-8.447776e+01
1.050000e-06	-1.316610e-06	-1.184733e-09	-9.289814e+00	-8.153809e+01
1.060000e-06	-1.209489e-06	-1.138028e-09	-8.533985e+00	-7.848068e+01
1.070000e-06	-1.102169e-06	-1.089048e-09	-7.776751e+00	-7.528685e+01
1.080000e-06	-9.945451e-07	-1.035808e-09	-7.017370e+00	-7.193508e+01
1.090000e-06	-8.867041e-07	-9.809686e-10	-6.256460e+00	-6.840161e+01
1.100000e-06	-7.787066e-07	-9.218372e-10	-5.494444e+00	-6.466131e+01
1.110000e-06	-6.705620e-07	-8.594558e-10	-4.731391e+00	-6.068871e+01
1.120000e-06	-5.622706e-07	-7.935523e-10	-3.967302e+00	-5.645919e+01
1.130000e-06	-4.538582e-07	-7.245198e-10	-3.202360e+00	-5.195034e+01
1.140000e-06	-3.454458e-07	-6.523025e-10	-2.437417e+00	-4.714325e+01
1.150000e-06	-2.369676e-07	-5.750645e-10	-1.672010e+00	-4.202386e+01
1.160000e-06	-1.284343e-07	-4.966825e-10	-9.062144e-01	-3.658414e+01
1.170000e-06	-1.989433e-08	-4.126350e-10	-1.403716e-01	-3.082312e+01
1.180000e-06	8.866062e-08	-3.225486e-10	6.255768e-01	-2.474767e+01
1.190000e-06	1.971237e-07	-2.265788e-10	1.390877e+00	-1.837296e+01
1.200000e-06	3.054691e-07	-1.262099e-10	2.155347e+00	-1.172261e+01
1.210000e-06	4.137220e-07	-2.311353e-11	2.919164e+00	-4.828460e+00
1.220000e-06	5.218795e-07	8.428589e-11	3.682309e+00	2.270046e+00
1.230000e-06	6.299328e-07	1.941705e-10	4.444717e+00	9.526775e+00
1.240000e-06	7.378290e-07	3.066542e-10	5.206017e+00	1.689018e+01
1.250000e-06	8.455939e-07	4.187661e-10	5.966392e+00	2.430482e+01
1.260000e-06	9.531944e-07	5.310741e-10	6.725605e+00	3.171306e+01
1.270000e-06	1.060587e-06	6.430176e-10	7.483352e+00	3.905690e+01
1.280000e-06	1.167758e-06	7.553679e-10	8.239535e+00	4.627982e+01
1.290000e-06	1.274695e-06	8.628160e-10	8.994066e+00	5.332858e+01
1.300000e-06	1.381445e-06	9.651545e-10	9.747283e+00	6.015485e+01
1.310000e-06	1.488001e-06	1.063797e-09	1.049912e+01	6.671661e+01
1.320000e-06	1.594277e-06	1.158502e-09	1.124899e+01	7.297931e+01
1.330000e-06	1.700223e-06	1.247534e-09	1.199653e+01	7.891665e+01
1.340000e-06	1.805790e-06	1.329692e-09	1.274140e+01	8.451098e+01
1.350000e-06	1.910955e-06	1.406410e-09	1.348343e+01	8.975338e+01
1.360000e-06	2.015677e-06	1.476961e-09	1.422233e+01	9.464331e+01
1.370000e-06	2.119890e-06	1.545053e-09	1.495765e+01	9.918800e+01
1.380000e-06	2.223693e-06	1.607097e-09	1.569007e+01	1.034014e+02
1.390000e-06	2.327128e-06	1.663097e-09	1.641989e+01	1.073032e+02
1.400000e-06	2.430268e-06	1.715666e-09	1.714763e+01	1.109172e+02
1.410000e-06	2.533055e-06	1.766590e-09	1.787288e+01	1.142702e+02
1.420000e-06	2.635395e-06	1.816509e-09	1.859498e+01	1.173904e+02
1.430000e-06	2.737388e-06	1.861739e-09	1.931462e+01	1.203060e+02
1.440000e-06	2.838970e-06	1.904078e-09	2.003137e+01	1.230442e+02
1.450000e-06	2.940075e-06	1.946083e-09	2.074475e+01	1.256300e+02
1.460000e-06	3.040738e-06	1.985634e-09	2.145502e+01	1.280855e+02
1.470000e-06	3.140910e-06	2.022320e-09	2.216182e+01	1.304294e+02
1.480000e-06	3.240498e-06	2.053400e-09	2.286450e+01	1.326767e+02
1.490000e-06	3.339546e-06	2.083117e-09	2.356336e+01	1.348384e+02
1.500000e-06	3.438089e-06	2.111756e-09	2.425867e+01	1.369225e+02
1.510000e-06	3.535870e-06	2.139615e-09	2.494860e+01	1.389335e+02
1.520000e-06	3.632773e-06	2.167515e-09	2.563233e+01	1.408737e+02
1.530000e-06	3.728862e-06	2.194692e-09	2.631033e+01	1.427434e+02
1.540000e-06	3.824250e-06	2.220814e-09	2.698337e+01	1.445418e+02
1.550000e-06	3.918985e-06	2.243048e-09	2.765180e+01	1.462678e+02
1.560000e-06	4.012992e-06	2.265217e-09	2.831511e+01	1.479203e+02
1.570000e-06	4.106322e-06	2.287352e-09	2.897363e+01	1.494992e+02
1.580000e-06	4.199051e-06	2.307270e-09	2.962791e+01	1.510051e+02
1.590000e-06	4.291116e-06	2.326449e-09	3.027751e+01	1.524403e+02
1.600000e-06	4.382433e-06	2.344184e-09	3.092183e+01	1.538084e+02
1.610000e-06	4.473036e-06	2.362800e-09	3.156112e+01	1.551144e+02
1.620000e-06	4.562756e-06	2.383492e-09	3.219417e+01	1.563643e+02
1.630000e-06	4.651350e-06	2.402690e-09	3.281927e+01	1.575651e+02
1.640000e-06	4.738956e-06	2.419531e-09	3.343741e+01	1.587242e+02
1.650000e-06	4.825840e-06	2.435998e-09	3.405045e+01	1.598489e+02
1.660000e-06	4.911957e-06	2.452746e-09	3.465808e+01	1.609463e+02
1.670000e-06	4.997246e-06	2.469284e-09	3.525987e+01	1.620224e+02
1.680000e-06	5.081738e-06	2.484975e-09	3.585603e+01	1.630823e+02
1.690000e-06	5.165435e-06	2.498559e-09	3.644658e+01	1.641295e+02
1.700000e-06	5.248360e-06	2.512027e-09	3.703169e+01	1.651662e+02
1.710000e-06	5.330440e-06	2.528755e-09	3.761084e+01	1.661930e+02
1.720000e-06	5.411489e-06	2.544560e-09	3.818270e+01	1.672091e+02
1.730000e-06	5.491501e-06	2.557713e-09	3.874726e+01	1.682123e+02
1.740000e-06	5.570624e-06	2.570704e-09	3.930554e+01	1.691996e+02
1.750000e-06	5.648745e-06	2.583777e-09	3.985675e+01	1.701676e+02
1.760000e-06	5.725853e-06	2.595272e-09	4.040081e+01	1.711122e+02
1.770000e-06	5.802025e-06	2.607119e-09	4.093827e+01	1.720297e+02
1.780000e-06	5.877145e-06	2.619599e-09	4.146830e+01	1.729170e+02
1.790000e-06	5.951034e-06	2.630860e-09	4.198966e+01	1.737714e+02
1.800000e-06	6.023514e-06	2.642263e-09	4.250107e+01	1.745914e+02
1.810000e-06	6.094829e-06	2.653684e-09	4.300426e+01	1.753765e+02
1.820000e-06	6.165217e-06	2.664798e-09	4.350090e+01	1.761273e+02
1.830000e-06	6.234589e-06	2.675378e-09	4.399038e+01	1.768453e+02
1.840000e-06	6.302959e-06	2.686830e-09	4.447279e+01	1.775332e+02
1.850000e-06	6.370369e-06	2.696629e-09	4.494843e+01	1.781941e+02
1.860000e-06	6.436650e-06	2.705334e-09	4.541609e+01	1.788315e+02
1.870000e-06	6.501555e-06	2.715171e-09	4.587406e+01	1.794493e+02
1.880000e-06	6.565224e-06	2.725010e-09	4.632330e+01	1.800508e+02
1.890000e-06	6.627853e-06	2.736356e-09	4.676520e+01	1.806392e+02
1.900000e-06	6.689400e-06	2.746075e-09	4.719946e+01	1.812169e+02
1.910000e-06	6.749784e-06	2.753446e-09	4.762552e+01	1.817855e+02
1.920000e-06	6.809120e-06	2.761310e-09	4.804419e+01	1.823455e+02
1.930000e-06	6.867296e-06	2.770260e-09	4.845468e+01	1.828969e+02
1.940000e-06	6.923923e-06	2.777598e-09	4.885423e+01	1.834384e+02
1.950000e-06	6.979177e-06	2.783371e-09	4.924409e+01	1.839683e+02
1.960000e-06	7.033278e-06	2.791657e-09	4.962582e+01	1.844842e+02
1.970000e-06	7.086177e-06	2.799796e-09	4.999907e+01	1.849835e+02
1.980000e-06	7.137656e-06	2.807550e-09	5.036230e+01	1.854636e+02
1.990000e-06	7.187395e-06	2.815005e-09	5.071325e+01	1.859221e+02
2.000000e-06	7.235574e-06	2.820650e-09	5.105319e+01	1.863570e+02
2.010000e-06	7.282484e-06	2.826602e-09	5.138418e+01	1.867670e+02
2.020000e-06	7.328208e-06	2.832690e-09	5.170681e+01	1.871517e+02
2.030000e-06	7.372778e-06	2.838292e-09	5.202129e+01	1.875112e+02
2.040000e-06	7.416144e-06	2.844260e-09	5.232727e+01	1.878469e+02
2.050000e-06	7.458181e-06	2.849883e-09	5.262388e+01	1.881605e+02
2.060000e-06	7.498689e-06	2.855323e-09	5.290969e+01	1.884545e+02
2.070000e-06	7.537835e-06	2.861101e-09	5.318591e+01	1.887319e+02
2.080000e-06	7.575751e-06	2.866306e-09	5.345344e+01	1.889958e+02
2.090000e-06	7.612440e-06	2.871307e-09	5.371231e+01	1.892492e+02
2.100000e-06	7.648020e-06	2.876583e-09	5.396335e+01	1.894948e+02
2.110000e-06	7.682228e-06	2.880785e-09	5.420472e+01	1.897348e+02
2.120000e-06	7.714847e-06	2.883732e-09	5.443488e+01	1.899707e+02
2.130000e-06	7.746163e-06	2.887486e-09	5.465584e+01	1.902032e+02
2.140000e-06	7.776323e-06	2.891619e-09	5.486864e+01	1.904319e+02
2.150000e-06	7.805164e-06	2.894889e-09	5.507214e+01	1.906558e+02
2.160000e-06	7.832817e-06	2.898515e-09	5.526725e+01	1.908728e+02
2.170000e-06	7.859057e-06	2.901943e-09	5.545240e+01	1.910804e+02
2.180000e-06	7.883606e-06	2.904420e-09	5.562562e+01	1.912753e+02
2.190000e-06	7.906752e-06	2.905764e-09	5.578893e+01	1.914543e+02
2.200000e-06	7.928617e-06	2.906382e-09	5.594320e+01	1.916138e+02
2.210000e-06	7.949178e-06	2.907089e-09	5.608828e+01	1.917508e+02
2.220000e-06	7.968522e-06	2.908454e-09	5.622477e+01	1.918627e+02
2.230000e-06	7.986474e-06	2.909637e-09	5.635144e+01	1.919474e+02
2.240000e-06	8.002958e-06	2.910481e-09	5.646775e+01	1.920038e+02
2.250000e-06	8.018020e-06	2.911886e-09	5.657402e+01	1.920318e+02
2.260000e-06	8.031500e-06	2.913096e-09	5.666913e+01	1.920322e+02
2.270000e-06	8.043467e-06	2.912960e-09	5.675357e+01	1.920067e+02
2.280000e-06	8.053718e-06	2.910667e-09	5.682590e+01	1.919579e+02
2.290000e-06	8.062225e-06	2.909105e-09	5.688593e+01	1.918890e+02
2.300000e-06	8.069370e-06	2.909620e-09	5.693634e+01	1.918036e+02
2.310000e-06	8.075163e-06	2.907954e-09	5.697721e+01	1.917057e+02
2.320000e-06	8.079605e-06	2.904758e-09	5.700856e+01	1.915992e+02
2.330000e-06	8.082763e-06	2.905072e-09	5.703084e+01	1.914875e+02
2.340000e-06	8.084274e-06	2.903866e-09	5.704150e+01	1.913739e+02
2.350000e-06	8.084183e-06	2.904371e-09	5.704086e+01	1.912605e+02
2.360000e-06	8.082771e-06	2.903410e-09	5.703090e+01	1.911489e+02
2.370000e-06	8.080028e-06	2.897613e-09	5.701154e+01	1.910396e+02
2.380000e-06	8.076161e-06	2.897829e-09	5.698426e+01	1.909322e+02
2.390000e-06	8.071082e-06	2.895418e-09	5.694842e+01	1.908252e+02
2.400000e-06	8.064334e-06	2.894197e-09	5.690081e+01	1.907163e+02
2.410000e-06	8.056178e-06	2.894153e-09	5.684326e+01	1.906025e+02
2.420000e-06	8.046935e-06	2.898369e-09	5.677804e+01	1.904802e+02
2.430000e-06	8.036499e-06	2.936265e-09	5.670441e+01	1.903454e+02
2.440000e-06	8.024710e-06	2.889001e-09	5.662123e+01	1.901940e+02
2.450000e-06	8.010772e-06	2.868470e-09	5.652288e+01	1.900221e+02
2.460000e-06	7.994470e-06	2.863661e-09	5.640785e+01	1.898258e+02
2.470000e-06	7.976506e-06	2.824112e-09	5.628110e+01	1.896019e+02
2.480000e-06	7.957517e-06	2.946782e-09	5.614712e+01	1.893478e+02
2.490000e-06	7.937970e-06	2.901768e-09	5.600920e+01	1.890616e+02
2.500000e-06	7.917409e-06	2.786972e-09	5.586412e+01	1.887422e+02
2.510000e-06	7.894879e-06	2.961638e-09	5.570515e+01	1.883893e+02
2.520000e-06	7.870940e-06	2.936377e-09	5.553625e+01	1.880036e+02
2.530000e-06	7.846106e-06	2.928301e-09	5.536102e+01	1.875864e+02
2.540000e-06	7.819620e-06	3.006963e-09	5.517414e+01	1.871398e+02
2.550000e-06	7.791748e-06	2.768302e-09	5.497748e+01	1.866663e+02
2.560000e-06	7.763032e-06	2.853035e-09	5.477486e+01	1.861690e+02
2.570000e-06	7.732825e-06	3.018435e-09	5.456173e+01	1.856513e+02
2.580000e-06	7.700898e-06	2.786222e-09	5.433645e+01	1.851167e+02
2.590000e-06	7.667542e-06	2.675284e-09	5.410110e+01	1.845687e+02
2.600000e-06	7.632977e-06	2.686364e-09	5.385721e+01	1.840109e+02
2.610000e-06	7.597366e-06	2.821164e-09	5.360594e+01	1.834463e+02
2.620000e-06	7.560335e-06	2.828859e-09	5.334466e+01	1.828779e+02
2.630000e-06	7.521506e-06	2.622655e-09	5.307069e+01	1.823081e+02
2.640000e-06	7.481208e-06	2.755766e-09	5.278635e+01	1.817388e+02
2.650000e-06	7.439753e-06	2.780967e-09	5.249385e+01	1.811715e+02
2.660000e-06	7.396940e-06	2.705992e-09	5.219177e+01	1.806069e+02
2.670000e-06	7.352972e-06	2.752545e-09	5.188154e+01	1.800452e+02
2.680000e-06	7.307879e-06	2.693995e-09	5.156337e+01	1.794859e+02
2.690000e-06	7.261185e-06	2.701419e-09	5.123390e+01	1.789281e+02
2.700000e-06	7.213250e-06	2.687173e-09	5.089568e+01	1.783701e+02
2.710000e-06	7.164153e-06	2.757766e-09	5.054925e+01	1.778098e+02
2.720000e-06	7.113486e-06	2.716387e-09	5.019176e+01	1.772446e+02
2.730000e-06	7.061322e-06	2.587550e-09	4.982370e+01	1.766716e+02
2.740000e-06	7.007605e-06	2.706895e-09	4.944468e+01	1.760875e+02
2.750000e-06	6.952390e-06	2.718793e-09	4.905509e+01	1.754892e+02
2.760000e-06	6.895939e-06	2.665755e-09	4.865678e+01	1.748731e+02
2.770000e-06	6.838313e-06	2.589427e-09	4.825018e+01	1.742361e+02
2.780000e-06	6.779522e-06	2.618559e-09	4.783535e+01	1.735751e+02
2.790000e-06	6.719709e-06	2.698295e-09	4.741332e+01	1.728877e+02
2.800000e-06	6.658751e-06	2.606954e-09	4.698321e+01	1.721718e+02
2.810000e-06	6.596312e-06	2.575633e-09	4.654265e+01	1.714259e+02
2.820000e-06	6.532550e-06	2.577523e-09	4.609275e+01	1.706493e+02
2.830000e-06	6.467737e-06	2.618805e-09	4.563544e+01	1.698419e+02
2.840000e-06	6.401906e-06	2.586177e-09	4.517095e+01	1.690045e+02
2.850000e-06	6.335051e-06	2.548490e-09	4.469923e+01	1.681384e+02
2.860000e-06	6.267190e-06	2.556579e-09	4.422041e+01	1.672457e+02
2.870000e-06	6.198340e-06	2.522938e-09	4.373461e+01	1.663290e+02
2.880000e-06	6.128164e-06	2.525859e-09	4.323946e+01	1.653910e+02
2.890000e-06	6.056640e-06	2.510039e-09	4.273480e+01	1.644348e+02
2.900000e-06	5.984142e-06	2.494382e-09	4.222327e+01	1.634633e+02
2.910000e-06	5.910706e-06	2.458860e-09	4.170511e+01	1.624794e+02
2.920000e-06	5.836288e-06	2.472666e-09	4.118003e+01	1.614853e+02
2.930000e-06	5.760792e-06	2.478952e-09	4.064734e+01	1.604828e+02
2.940000e-06	5.684061e-06	2.428245e-09	4.010594e+01	1.594728e+02
2.950000e-06	5.606041e-06	2.407418e-09	3.955544e+01	1.584556e+02
