# Temperatura_=_20.0
# Concentracion g/m^3_=_9000.0
# C_Vs_to_Am_M_A/Vsm_=_65563218390.804596
# pendiente_HvsI_1/m_=_3716.3
# ordenada_HvsI_A/m_=_1297.0
# frecuencia_Hz_=_212990.71997793438

Tiempo_(s)	Campo_(V.s)	Magnetizacion_(V.s)	Campo_(kA/m)	Magnetizacion_(A/m)
0.000000e+00	-8.153105e-06	-4.687347e-09	-5.692191e+01	-3.089745e+02
1.000000e-08	-8.152634e-06	-4.682597e-09	-5.691862e+01	-3.089816e+02
2.000000e-08	-8.150533e-06	-4.685103e-09	-5.690396e+01	-3.089767e+02
3.000000e-08	-8.146868e-06	-4.685248e-09	-5.687837e+01	-3.089551e+02
4.000000e-08	-8.141986e-06	-4.685543e-09	-5.684428e+01	-3.089124e+02
5.000000e-08	-8.135807e-06	-4.682968e-09	-5.680115e+01	-3.088446e+02
6.000000e-08	-8.128444e-06	-4.677752e-09	-5.674974e+01	-3.087487e+02
7.000000e-08	-8.119843e-06	-4.676067e-09	-5.668969e+01	-3.086233e+02
8.000000e-08	-8.109561e-06	-4.673563e-09	-5.661790e+01	-3.084681e+02
9.000000e-08	-8.097536e-06	-4.670306e-09	-5.653395e+01	-3.082847e+02
1.000000e-07	-8.083773e-06	-4.719587e-09	-5.643787e+01	-3.080762e+02
1.100000e-07	-8.067890e-06	-4.736933e-09	-5.632698e+01	-3.078469e+02
1.200000e-07	-8.050304e-06	-4.706118e-09	-5.620419e+01	-3.076024e+02
1.300000e-07	-8.031524e-06	-4.682345e-09	-5.607308e+01	-3.073488e+02
1.400000e-07	-8.011705e-06	-4.599423e-09	-5.593471e+01	-3.070922e+02
1.500000e-07	-7.990993e-06	-4.599369e-09	-5.579011e+01	-3.068384e+02
1.600000e-07	-7.969035e-06	-4.761721e-09	-5.563680e+01	-3.065924e+02
1.700000e-07	-7.945872e-06	-4.676501e-09	-5.547509e+01	-3.063577e+02
1.800000e-07	-7.921555e-06	-4.611141e-09	-5.530532e+01	-3.061361e+02
1.900000e-07	-7.895443e-06	-4.656806e-09	-5.512302e+01	-3.059277e+02
2.000000e-07	-7.867831e-06	-4.580577e-09	-5.493024e+01	-3.057303e+02
2.100000e-07	-7.839242e-06	-4.713483e-09	-5.473064e+01	-3.055399e+02
2.200000e-07	-7.809275e-06	-4.720777e-09	-5.452142e+01	-3.053509e+02
2.300000e-07	-7.777946e-06	-4.559552e-09	-5.430269e+01	-3.051561e+02
2.400000e-07	-7.745397e-06	-4.605883e-09	-5.407545e+01	-3.049477e+02
2.500000e-07	-7.711305e-06	-4.684057e-09	-5.383744e+01	-3.047174e+02
2.600000e-07	-7.675730e-06	-4.667226e-09	-5.358906e+01	-3.044574e+02
2.700000e-07	-7.638734e-06	-4.624678e-09	-5.333077e+01	-3.041604e+02
2.800000e-07	-7.600266e-06	-4.556926e-09	-5.306220e+01	-3.038208e+02
2.900000e-07	-7.560584e-06	-4.578486e-09	-5.278515e+01	-3.034345e+02
3.000000e-07	-7.519552e-06	-4.647000e-09	-5.249869e+01	-3.029995e+02
3.100000e-07	-7.476921e-06	-4.631705e-09	-5.220105e+01	-3.025158e+02
3.200000e-07	-7.432783e-06	-4.542918e-09	-5.189290e+01	-3.019858e+02
3.300000e-07	-7.387289e-06	-4.529330e-09	-5.157527e+01	-3.014134e+02
3.400000e-07	-7.340510e-06	-4.589468e-09	-5.124868e+01	-3.008042e+02
3.500000e-07	-7.292351e-06	-4.577997e-09	-5.091245e+01	-3.001648e+02
3.600000e-07	-7.242480e-06	-4.561519e-09	-5.056427e+01	-2.995023e+02
3.700000e-07	-7.190779e-06	-4.512762e-09	-5.020332e+01	-2.988235e+02
3.800000e-07	-7.137649e-06	-4.487901e-09	-4.983238e+01	-2.981348e+02
3.900000e-07	-7.083436e-06	-4.548384e-09	-4.945388e+01	-2.974411e+02
4.000000e-07	-7.028100e-06	-4.539825e-09	-4.906755e+01	-2.967460e+02
4.100000e-07	-6.971372e-06	-4.473972e-09	-4.867149e+01	-2.960509e+02
4.200000e-07	-6.913221e-06	-4.452330e-09	-4.826551e+01	-2.953555e+02
4.300000e-07	-6.853809e-06	-4.496402e-09	-4.785071e+01	-2.946573e+02
4.400000e-07	-6.793205e-06	-4.492717e-09	-4.742760e+01	-2.939521e+02
4.500000e-07	-6.731415e-06	-4.445693e-09	-4.699621e+01	-2.932344e+02
4.600000e-07	-6.668576e-06	-4.426688e-09	-4.655749e+01	-2.924977e+02
4.700000e-07	-6.604824e-06	-4.417753e-09	-4.611240e+01	-2.917352e+02
4.800000e-07	-6.539785e-06	-4.424548e-09	-4.565832e+01	-2.909403e+02
4.900000e-07	-6.473347e-06	-4.410712e-09	-4.519447e+01	-2.901069e+02
5.000000e-07	-6.405795e-06	-4.376169e-09	-4.472285e+01	-2.892305e+02
5.100000e-07	-6.337272e-06	-4.357506e-09	-4.424445e+01	-2.883081e+02
5.200000e-07	-6.267727e-06	-4.364722e-09	-4.375891e+01	-2.873384e+02
5.300000e-07	-6.197187e-06	-4.356472e-09	-4.326643e+01	-2.863223e+02
5.400000e-07	-6.125634e-06	-4.321526e-09	-4.276688e+01	-2.852623e+02
5.500000e-07	-6.052794e-06	-4.301621e-09	-4.225833e+01	-2.841627e+02
5.600000e-07	-5.978741e-06	-4.294750e-09	-4.174132e+01	-2.830288e+02
5.700000e-07	-5.903562e-06	-4.286832e-09	-4.121645e+01	-2.818666e+02
5.800000e-07	-5.827166e-06	-4.262832e-09	-4.068308e+01	-2.806824e+02
5.900000e-07	-5.749509e-06	-4.231665e-09	-4.014091e+01	-2.794819e+02
6.000000e-07	-5.670643e-06	-4.219876e-09	-3.959030e+01	-2.782695e+02
6.100000e-07	-5.590771e-06	-4.215811e-09	-3.903266e+01	-2.770486e+02
6.200000e-07	-5.509818e-06	-4.194452e-09	-3.846748e+01	-2.758203e+02
6.300000e-07	-5.427738e-06	-4.156798e-09	-3.789442e+01	-2.745839e+02
6.400000e-07	-5.344867e-06	-4.136473e-09	-3.731585e+01	-2.733366e+02
6.500000e-07	-5.261245e-06	-4.127867e-09	-3.673203e+01	-2.720736e+02
6.600000e-07	-5.176742e-06	-4.101774e-09	-3.614206e+01	-2.707887e+02
6.700000e-07	-5.091383e-06	-4.071326e-09	-3.554612e+01	-2.694744e+02
6.800000e-07	-5.005097e-06	-4.048092e-09	-3.494371e+01	-2.681228e+02
6.900000e-07	-4.918093e-06	-4.036745e-09	-3.433627e+01	-2.667260e+02
7.000000e-07	-4.830326e-06	-4.025818e-09	-3.372352e+01	-2.652770e+02
7.100000e-07	-4.741359e-06	-3.998352e-09	-3.310238e+01	-2.637698e+02
7.200000e-07	-4.651344e-06	-3.966799e-09	-3.247393e+01	-2.622003e+02
7.300000e-07	-4.560681e-06	-3.942324e-09	-3.184096e+01	-2.605663e+02
7.400000e-07	-4.469287e-06	-3.929264e-09	-3.120288e+01	-2.588678e+02
7.500000e-07	-4.376977e-06	-3.902705e-09	-3.055841e+01	-2.571067e+02
7.600000e-07	-4.283800e-06	-3.858290e-09	-2.990788e+01	-2.552868e+02
7.700000e-07	-4.189831e-06	-3.824614e-09	-2.925183e+01	-2.534132e+02
7.800000e-07	-4.095278e-06	-3.801417e-09	-2.859169e+01	-2.514914e+02
7.900000e-07	-4.000267e-06	-3.780995e-09	-2.792836e+01	-2.495271e+02
8.000000e-07	-3.904508e-06	-3.747539e-09	-2.725981e+01	-2.475253e+02
8.100000e-07	-3.807651e-06	-3.709701e-09	-2.658359e+01	-2.454891e+02
8.200000e-07	-3.709895e-06	-3.685076e-09	-2.590109e+01	-2.434200e+02
8.300000e-07	-3.611663e-06	-3.661345e-09	-2.521527e+01	-2.413164e+02
8.400000e-07	-3.513010e-06	-3.627705e-09	-2.452652e+01	-2.391743e+02
8.500000e-07	-3.413761e-06	-3.581816e-09	-2.383360e+01	-2.369864e+02
8.600000e-07	-3.313795e-06	-3.539114e-09	-2.313567e+01	-2.347431e+02
8.700000e-07	-3.213253e-06	-3.509067e-09	-2.243373e+01	-2.324322e+02
8.800000e-07	-3.112279e-06	-3.477271e-09	-2.172876e+01	-2.300399e+02
8.900000e-07	-3.010774e-06	-3.434796e-09	-2.102009e+01	-2.275519e+02
9.000000e-07	-2.908735e-06	-3.385681e-09	-2.030769e+01	-2.249535e+02
9.100000e-07	-2.806313e-06	-3.345232e-09	-1.959262e+01	-2.222314e+02
9.200000e-07	-2.703609e-06	-3.309347e-09	-1.887558e+01	-2.193737e+02
9.300000e-07	-2.600558e-06	-3.261226e-09	-1.815611e+01	-2.163712e+02
9.400000e-07	-2.497008e-06	-3.203615e-09	-1.743317e+01	-2.132174e+02
9.500000e-07	-2.392886e-06	-3.149441e-09	-1.670623e+01	-2.099091e+02
9.600000e-07	-2.288154e-06	-3.104983e-09	-1.597503e+01	-2.064457e+02
9.700000e-07	-2.182803e-06	-3.058756e-09	-1.523951e+01	-2.028289e+02
9.800000e-07	-2.076975e-06	-2.999578e-09	-1.450066e+01	-1.990620e+02
9.900000e-07	-1.970893e-06	-2.934138e-09	-1.376003e+01	-1.951483e+02
1.000000e-06	-1.864580e-06	-2.873283e-09	-1.301780e+01	-1.910903e+02
1.010000e-06	-1.757984e-06	-2.814369e-09	-1.227359e+01	-1.868874e+02
1.020000e-06	-1.651098e-06	-2.747785e-09	-1.152734e+01	-1.825353e+02
1.030000e-06	-1.543876e-06	-2.673041e-09	-1.077876e+01	-1.780236e+02
1.040000e-06	-1.436320e-06	-2.598441e-09	-1.002785e+01	-1.733353e+02
1.050000e-06	-1.328371e-06	-2.527376e-09	-9.274184e+00	-1.684458e+02
1.060000e-06	-1.220119e-06	-2.453346e-09	-8.518414e+00	-1.633222e+02
1.070000e-06	-1.111696e-06	-2.368060e-09	-7.761441e+00	-1.579238e+02
1.080000e-06	-1.003008e-06	-2.271867e-09	-7.002624e+00	-1.522030e+02
1.090000e-06	-8.941151e-07	-2.176261e-09	-6.242376e+00	-1.461059e+02
1.100000e-06	-7.850211e-07	-2.078867e-09	-5.480722e+00	-1.395752e+02
1.110000e-06	-6.757296e-07	-1.969951e-09	-4.717690e+00	-1.325519e+02
1.120000e-06	-5.663139e-07	-1.850544e-09	-3.953790e+00	-1.249786e+02
1.130000e-06	-4.568386e-07	-1.725893e-09	-3.189475e+00	-1.168025e+02
1.140000e-06	-3.473035e-07	-1.594892e-09	-2.424743e+00	-1.079784e+02
1.150000e-06	-2.376898e-07	-1.451360e-09	-1.659461e+00	-9.847218e+01
1.160000e-06	-1.280987e-07	-1.297466e-09	-8.943368e-01	-8.826364e+01
1.170000e-06	-1.851693e-08	-1.132602e-09	-1.292782e-01	-7.734877e+01
1.180000e-06	9.105965e-08	-9.585890e-10	6.357443e-01	-6.574176e+01
1.190000e-06	2.006060e-07	-7.763472e-10	1.400556e+00	-5.347608e+01
1.200000e-06	3.101079e-07	-5.820500e-10	2.165057e+00	-4.060474e+01
1.210000e-06	4.194894e-07	-3.770536e-10	2.928717e+00	-2.719975e+01
1.220000e-06	5.287295e-07	-1.651161e-10	3.691391e+00	-1.335059e+01
1.230000e-06	6.378304e-07	4.940817e-11	4.453092e+00	8.380990e-01
1.240000e-06	7.467831e-07	2.663708e-10	5.213759e+00	1.524956e+01
1.250000e-06	8.555969e-07	4.861988e-10	5.973456e+00	2.975860e+01
1.260000e-06	9.642241e-07	7.085051e-10	6.731850e+00	4.423569e+01
1.270000e-06	1.072676e-06	9.283516e-10	7.489020e+00	5.855130e+01
1.280000e-06	1.180926e-06	1.144974e-09	8.244779e+00	7.258021e+01
1.290000e-06	1.288854e-06	1.355101e-09	8.998297e+00	8.620572e+01
1.300000e-06	1.396550e-06	1.557514e-09	9.750185e+00	9.932330e+01
1.310000e-06	1.504019e-06	1.749129e-09	1.050050e+01	1.118438e+02
1.320000e-06	1.611163e-06	1.928363e-09	1.124853e+01	1.236960e+02
1.330000e-06	1.718019e-06	2.095359e-09	1.199456e+01	1.348279e+02
1.340000e-06	1.824637e-06	2.248019e-09	1.273893e+01	1.452077e+02
1.350000e-06	1.931017e-06	2.389489e-09	1.348164e+01	1.548234e+02
1.360000e-06	2.037175e-06	2.519761e-09	1.422279e+01	1.636819e+02
1.370000e-06	2.143002e-06	2.639870e-09	1.496163e+01	1.718072e+02
1.380000e-06	2.248438e-06	2.747264e-09	1.569775e+01	1.792376e+02
1.390000e-06	2.353426e-06	2.846019e-09	1.643074e+01	1.860232e+02
1.400000e-06	2.457865e-06	2.939022e-09	1.715989e+01	1.922222e+02
1.410000e-06	2.561752e-06	3.025157e-09	1.788519e+01	1.978980e+02
1.420000e-06	2.665091e-06	3.107526e-09	1.860666e+01	2.031156e+02
1.430000e-06	2.767985e-06	3.182824e-09	1.932503e+01	2.079387e+02
1.440000e-06	2.870500e-06	3.254214e-09	2.004075e+01	2.124268e+02
1.450000e-06	2.972605e-06	3.324686e-09	2.075361e+01	2.166337e+02
1.460000e-06	3.074272e-06	3.389167e-09	2.146341e+01	2.206052e+02
1.470000e-06	3.175472e-06	3.446963e-09	2.216995e+01	2.243788e+02
1.480000e-06	3.276155e-06	3.498131e-09	2.287288e+01	2.279831e+02
1.490000e-06	3.376174e-06	3.547853e-09	2.357117e+01	2.314383e+02
1.500000e-06	3.475467e-06	3.595754e-09	2.426440e+01	2.347569e+02
1.510000e-06	3.574210e-06	3.640704e-09	2.495379e+01	2.379447e+02
1.520000e-06	3.672500e-06	3.682872e-09	2.564001e+01	2.410029e+02
1.530000e-06	3.770082e-06	3.723105e-09	2.632129e+01	2.439292e+02
1.540000e-06	3.866714e-06	3.761518e-09	2.699594e+01	2.467195e+02
1.550000e-06	3.962396e-06	3.796538e-09	2.766396e+01	2.493698e+02
1.560000e-06	4.057335e-06	3.831648e-09	2.832679e+01	2.518770e+02
1.570000e-06	4.151695e-06	3.866045e-09	2.898558e+01	2.542405e+02
1.580000e-06	4.245357e-06	3.897462e-09	2.963948e+01	2.564626e+02
1.590000e-06	4.338265e-06	3.927775e-09	3.028813e+01	2.585486e+02
1.600000e-06	4.430389e-06	3.955927e-09	3.093131e+01	2.605074e+02
1.610000e-06	4.521681e-06	3.985521e-09	3.156867e+01	2.623505e+02
1.620000e-06	4.612284e-06	4.016023e-09	3.220123e+01	2.640915e+02
1.630000e-06	4.702130e-06	4.040627e-09	3.282851e+01	2.657456e+02
1.640000e-06	4.790859e-06	4.063282e-09	3.344798e+01	2.673283e+02
1.650000e-06	4.878457e-06	4.089211e-09	3.405955e+01	2.688545e+02
1.660000e-06	4.965266e-06	4.114820e-09	3.466562e+01	2.703377e+02
1.670000e-06	5.051388e-06	4.136349e-09	3.526689e+01	2.717892e+02
1.680000e-06	5.136649e-06	4.155961e-09	3.586215e+01	2.732173e+02
1.690000e-06	5.221062e-06	4.176151e-09	3.645150e+01	2.746273e+02
1.700000e-06	5.304628e-06	4.197968e-09	3.703492e+01	2.760213e+02
1.710000e-06	5.387469e-06	4.220266e-09	3.761328e+01	2.773984e+02
1.720000e-06	5.469545e-06	4.239118e-09	3.818631e+01	2.787549e+02
1.730000e-06	5.550554e-06	4.257772e-09	3.875188e+01	2.800854e+02
1.740000e-06	5.630494e-06	4.277984e-09	3.930999e+01	2.813828e+02
1.750000e-06	5.709540e-06	4.296867e-09	3.986186e+01	2.826399e+02
1.760000e-06	5.787548e-06	4.311775e-09	4.040648e+01	2.838497e+02
1.770000e-06	5.864415e-06	4.327146e-09	4.094314e+01	2.850060e+02
1.780000e-06	5.940228e-06	4.344207e-09	4.147244e+01	2.861046e+02
1.790000e-06	6.014972e-06	4.361165e-09	4.199427e+01	2.871432e+02
1.800000e-06	6.088588e-06	4.378837e-09	4.250824e+01	2.881218e+02
1.810000e-06	6.160915e-06	4.393091e-09	4.301320e+01	2.890427e+02
1.820000e-06	6.232081e-06	4.406587e-09	4.351005e+01	2.899105e+02
1.830000e-06	6.302259e-06	4.422187e-09	4.400000e+01	2.907315e+02
1.840000e-06	6.371390e-06	4.438480e-09	4.448265e+01	2.915132e+02
1.850000e-06	6.439401e-06	4.450180e-09	4.495748e+01	2.922640e+02
1.860000e-06	6.506315e-06	4.461059e-09	4.542465e+01	2.929921e+02
1.870000e-06	6.572019e-06	4.474991e-09	4.588336e+01	2.937052e+02
1.880000e-06	6.636353e-06	4.489186e-09	4.633252e+01	2.944098e+02
1.890000e-06	6.699492e-06	4.503961e-09	4.677333e+01	2.951109e+02
1.900000e-06	6.761570e-06	4.516588e-09	4.720674e+01	2.958113e+02
1.910000e-06	6.822519e-06	4.528092e-09	4.763226e+01	2.965119e+02
1.920000e-06	6.882347e-06	4.540303e-09	4.804996e+01	2.972115e+02
1.930000e-06	6.941092e-06	4.552579e-09	4.846009e+01	2.979072e+02
1.940000e-06	6.998463e-06	4.562944e-09	4.886064e+01	2.985945e+02
1.950000e-06	7.054315e-06	4.572181e-09	4.925057e+01	2.992679e+02
1.960000e-06	7.108894e-06	4.582773e-09	4.963163e+01	2.999214e+02
1.970000e-06	7.162299e-06	4.593128e-09	5.000448e+01	3.005493e+02
1.980000e-06	7.214325e-06	4.603294e-09	5.036771e+01	3.011464e+02
1.990000e-06	7.264759e-06	4.612704e-09	5.071981e+01	3.017085e+02
2.000000e-06	7.313592e-06	4.620338e-09	5.106075e+01	3.022330e+02
2.010000e-06	7.360993e-06	4.628444e-09	5.139168e+01	3.027189e+02
2.020000e-06	7.407131e-06	4.637592e-09	5.171381e+01	3.031671e+02
2.030000e-06	7.452090e-06	4.646994e-09	5.202769e+01	3.035800e+02
2.040000e-06	7.495870e-06	4.655493e-09	5.233335e+01	3.039616e+02
2.050000e-06	7.538320e-06	4.663849e-09	5.262972e+01	3.043168e+02
2.060000e-06	7.579251e-06	4.673249e-09	5.291548e+01	3.046513e+02
2.070000e-06	7.618803e-06	4.681395e-09	5.319162e+01	3.049710e+02
2.080000e-06	7.657157e-06	4.688410e-09	5.345939e+01	3.052814e+02
2.090000e-06	7.694263e-06	4.695227e-09	5.371845e+01	3.055872e+02
2.100000e-06	7.730138e-06	4.702892e-09	5.396892e+01	3.058922e+02
2.110000e-06	7.764711e-06	4.709567e-09	5.421029e+01	3.061985e+02
2.120000e-06	7.797782e-06	4.714455e-09	5.444118e+01	3.065069e+02
2.130000e-06	7.829389e-06	4.717852e-09	5.466185e+01	3.068163e+02
2.140000e-06	7.859729e-06	4.721956e-09	5.487367e+01	3.071246e+02
2.150000e-06	7.888816e-06	4.727974e-09	5.507675e+01	3.074281e+02
2.160000e-06	7.916667e-06	4.732999e-09	5.527119e+01	3.077226e+02
2.170000e-06	7.943060e-06	4.737517e-09	5.545546e+01	3.080034e+02
2.180000e-06	7.967751e-06	4.742098e-09	5.562784e+01	3.082657e+02
2.190000e-06	7.991034e-06	4.746744e-09	5.579040e+01	3.085054e+02
2.200000e-06	8.013089e-06	4.750965e-09	5.594437e+01	3.087189e+02
2.210000e-06	8.033817e-06	4.756298e-09	5.608909e+01	3.089042e+02
2.220000e-06	8.053379e-06	4.761183e-09	5.622566e+01	3.090604e+02
2.230000e-06	8.071637e-06	4.764376e-09	5.635313e+01	3.091879e+02
2.240000e-06	8.088367e-06	4.769515e-09	5.646994e+01	3.092886e+02
2.250000e-06	8.103542e-06	4.775935e-09	5.657588e+01	3.093657e+02
2.260000e-06	8.117123e-06	4.779245e-09	5.667070e+01	3.094229e+02
2.270000e-06	8.129217e-06	4.779979e-09	5.675513e+01	3.094648e+02
2.280000e-06	8.139604e-06	4.781873e-09	5.682765e+01	3.094958e+02
2.290000e-06	8.148205e-06	4.785393e-09	5.688770e+01	3.095200e+02
2.300000e-06	8.155402e-06	4.789181e-09	5.693795e+01	3.095409e+02
2.310000e-06	8.161217e-06	4.790913e-09	5.697855e+01	3.095608e+02
2.320000e-06	8.165601e-06	4.792763e-09	5.700916e+01	3.095808e+02
2.330000e-06	8.168701e-06	4.795605e-09	5.703080e+01	3.096006e+02
2.340000e-06	8.170234e-06	4.796524e-09	5.704150e+01	3.096186e+02
2.350000e-06	8.170177e-06	4.799658e-09	5.704110e+01	3.096318e+02
2.360000e-06	8.168798e-06	4.800567e-09	5.703147e+01	3.096363e+02
2.370000e-06	8.166081e-06	4.795859e-09	5.701250e+01	3.096277e+02
2.380000e-06	8.162143e-06	4.795729e-09	5.698501e+01	3.096013e+02
2.390000e-06	8.156902e-06	4.793571e-09	5.694843e+01	3.095527e+02
2.400000e-06	8.150057e-06	4.793161e-09	5.690063e+01	3.094781e+02
2.410000e-06	8.141853e-06	4.794897e-09	5.684336e+01	3.093750e+02
2.420000e-06	8.132550e-06	4.794145e-09	5.677841e+01	3.092421e+02
2.430000e-06	8.121993e-06	4.805266e-09	5.670470e+01	3.090797e+02
2.440000e-06	8.109956e-06	4.728047e-09	5.662066e+01	3.088897e+02
2.450000e-06	8.095811e-06	4.697572e-09	5.652191e+01	3.086755e+02
2.460000e-06	8.079360e-06	4.717399e-09	5.640706e+01	3.084420e+02
2.470000e-06	8.061229e-06	4.732986e-09	5.628047e+01	3.081947e+02
2.480000e-06	8.042023e-06	4.889157e-09	5.614638e+01	3.079397e+02
2.490000e-06	8.022224e-06	4.829921e-09	5.600815e+01	3.076833e+02
2.500000e-06	8.001428e-06	4.657521e-09	5.586296e+01	3.074311e+02
2.510000e-06	7.978711e-06	4.778045e-09	5.570436e+01	3.071877e+02
2.520000e-06	7.954624e-06	4.745533e-09	5.553620e+01	3.069562e+02
2.530000e-06	7.929550e-06	4.770845e-09	5.536113e+01	3.067380e+02
2.540000e-06	7.902796e-06	4.856963e-09	5.517435e+01	3.065326e+02
2.550000e-06	7.874719e-06	4.620735e-09	5.497833e+01	3.063375e+02
2.560000e-06	7.845669e-06	4.679358e-09	5.477551e+01	3.061481e+02
2.570000e-06	7.815023e-06	4.787411e-09	5.456155e+01	3.059583e+02
2.580000e-06	7.782683e-06	4.601110e-09	5.433577e+01	3.057609e+02
2.590000e-06	7.748947e-06	4.593900e-09	5.410023e+01	3.055478e+02
2.600000e-06	7.714057e-06	4.576543e-09	5.385664e+01	3.053109e+02
2.610000e-06	7.678031e-06	4.616017e-09	5.360512e+01	3.050422e+02
2.620000e-06	7.640410e-06	4.701688e-09	5.334247e+01	3.047351e+02
2.630000e-06	7.601164e-06	4.562043e-09	5.306847e+01	3.043842e+02
2.640000e-06	7.560564e-06	4.563880e-09	5.278501e+01	3.039858e+02
2.650000e-06	7.518717e-06	4.556175e-09	5.249285e+01	3.035386e+02
2.660000e-06	7.475577e-06	4.600957e-09	5.219167e+01	3.030431e+02
2.670000e-06	7.431206e-06	4.636533e-09	5.188189e+01	3.025021e+02
2.680000e-06	7.385581e-06	4.516800e-09	5.156335e+01	3.019200e+02
2.690000e-06	7.338337e-06	4.539093e-09	5.123351e+01	3.013026e+02
2.700000e-06	7.289776e-06	4.523644e-09	5.089447e+01	3.006568e+02
2.710000e-06	7.240001e-06	4.588396e-09	5.054696e+01	2.999896e+02
2.720000e-06	7.188647e-06	4.569621e-09	5.018843e+01	2.993078e+02
2.730000e-06	7.135789e-06	4.443538e-09	4.981939e+01	2.986174e+02
2.740000e-06	7.081382e-06	4.516926e-09	4.943955e+01	2.979232e+02
2.750000e-06	7.025567e-06	4.516222e-09	4.904987e+01	2.972280e+02
2.760000e-06	6.968541e-06	4.509073e-09	4.865174e+01	2.965330e+02
2.770000e-06	6.910240e-06	4.454034e-09	4.824469e+01	2.958372e+02
2.780000e-06	6.850811e-06	4.438293e-09	4.782978e+01	2.951377e+02
2.790000e-06	6.790348e-06	4.474569e-09	4.740766e+01	2.944300e+02
2.800000e-06	6.728618e-06	4.438801e-09	4.697668e+01	2.937083e+02
2.810000e-06	6.665493e-06	4.448786e-09	4.653596e+01	2.929658e+02
2.820000e-06	6.601166e-06	4.396354e-09	4.608686e+01	2.921958e+02
2.830000e-06	6.535738e-06	4.397611e-09	4.563007e+01	2.913918e+02
2.840000e-06	6.469214e-06	4.399619e-09	4.516562e+01	2.905481e+02
2.850000e-06	6.401696e-06	4.387567e-09	4.469423e+01	2.896604e+02
2.860000e-06	6.333049e-06	4.366871e-09	4.421497e+01	2.887262e+02
2.870000e-06	6.263103e-06	4.326489e-09	4.372663e+01	2.877448e+02
2.880000e-06	6.191978e-06	4.336804e-09	4.323006e+01	2.867175e+02
2.890000e-06	6.119804e-06	4.317594e-09	4.272617e+01	2.856472e+02
2.900000e-06	6.046573e-06	4.301360e-09	4.221490e+01	2.845384e+02
2.910000e-06	5.972340e-06	4.270512e-09	4.169663e+01	2.833969e+02
2.920000e-06	5.897071e-06	4.272889e-09	4.117113e+01	2.822287e+02
2.930000e-06	5.820662e-06	4.262193e-09	4.063768e+01	2.810400e+02
2.940000e-06	5.742970e-06	4.226976e-09	4.009525e+01	2.798361e+02
2.950000e-06	5.664020e-06	4.213798e-09	3.954406e+01	2.786214e+02
