# Temperatura_=_20.0
# Concentracion g/m^3_=_9000.0
# C_Vs_to_Am_M_A/Vsm_=_65563218390.804596
# pendiente_HvsI_1/m_=_3716.3
# ordenada_HvsI_A/m_=_1297.0
# frecuencia_Hz_=_212988.73422297233

Tiempo_(s)	Campo_(V.s)	Magnetizacion_(V.s)	Campo_(kA/m)	Magnetizacion_(A/m)
0.000000e+00	-8.018487e-06	-4.576710e-09	-5.692408e+01	-3.007259e+02
1.000000e-08	-8.017997e-06	-4.571889e-09	-5.692061e+01	-3.007094e+02
2.000000e-08	-8.015862e-06	-4.571630e-09	-5.690545e+01	-3.006866e+02
3.000000e-08	-8.012266e-06	-4.570666e-09	-5.687992e+01	-3.006553e+02
4.000000e-08	-8.007539e-06	-4.568249e-09	-5.684637e+01	-3.006133e+02
5.000000e-08	-8.001506e-06	-4.564421e-09	-5.680353e+01	-3.005587e+02
6.000000e-08	-7.994210e-06	-4.561712e-09	-5.675174e+01	-3.004903e+02
7.000000e-08	-7.985670e-06	-4.560820e-09	-5.669111e+01	-3.004077e+02
8.000000e-08	-7.975448e-06	-4.562062e-09	-5.661855e+01	-3.003116e+02
9.000000e-08	-7.963477e-06	-4.546413e-09	-5.653356e+01	-3.002036e+02
1.000000e-07	-7.949870e-06	-4.576143e-09	-5.643696e+01	-3.000867e+02
1.100000e-07	-7.934187e-06	-4.607221e-09	-5.632564e+01	-2.999643e+02
1.200000e-07	-7.916778e-06	-4.589049e-09	-5.620204e+01	-2.998406e+02
1.300000e-07	-7.898143e-06	-4.565313e-09	-5.606975e+01	-2.997199e+02
1.400000e-07	-7.878508e-06	-4.501134e-09	-5.593036e+01	-2.996064e+02
1.500000e-07	-7.858110e-06	-4.474026e-09	-5.578555e+01	-2.995037e+02
1.600000e-07	-7.836526e-06	-4.624516e-09	-5.563233e+01	-2.994142e+02
1.700000e-07	-7.813661e-06	-4.580246e-09	-5.547000e+01	-2.993392e+02
1.800000e-07	-7.789593e-06	-4.497907e-09	-5.529914e+01	-2.992783e+02
1.900000e-07	-7.763847e-06	-4.554158e-09	-5.511637e+01	-2.992292e+02
2.000000e-07	-7.736669e-06	-4.499689e-09	-5.492343e+01	-2.991879e+02
2.100000e-07	-7.708552e-06	-4.591094e-09	-5.472383e+01	-2.991490e+02
2.200000e-07	-7.679074e-06	-4.623682e-09	-5.451456e+01	-2.991054e+02
2.300000e-07	-7.648169e-06	-4.473557e-09	-5.429516e+01	-2.990490e+02
2.400000e-07	-7.616054e-06	-4.521448e-09	-5.406717e+01	-2.989713e+02
2.500000e-07	-7.582462e-06	-4.638644e-09	-5.382870e+01	-2.988637e+02
2.600000e-07	-7.547403e-06	-4.579401e-09	-5.357981e+01	-2.987181e+02
2.700000e-07	-7.510984e-06	-4.533879e-09	-5.332127e+01	-2.985275e+02
2.800000e-07	-7.473186e-06	-4.504986e-09	-5.305294e+01	-2.982863e+02
2.900000e-07	-7.434175e-06	-4.531920e-09	-5.277600e+01	-2.979908e+02
3.000000e-07	-7.393926e-06	-4.573857e-09	-5.249026e+01	-2.976394e+02
3.100000e-07	-7.352097e-06	-4.536625e-09	-5.219332e+01	-2.972326e+02
3.200000e-07	-7.308680e-06	-4.476775e-09	-5.188509e+01	-2.967732e+02
3.300000e-07	-7.263891e-06	-4.474832e-09	-5.156713e+01	-2.962655e+02
3.400000e-07	-7.217732e-06	-4.543859e-09	-5.123944e+01	-2.957157e+02
3.500000e-07	-7.170352e-06	-4.513523e-09	-5.090309e+01	-2.951308e+02
3.600000e-07	-7.121557e-06	-4.470646e-09	-5.055669e+01	-2.945182e+02
3.700000e-07	-7.070949e-06	-4.464109e-09	-5.019741e+01	-2.938854e+02
3.800000e-07	-7.018718e-06	-4.460295e-09	-4.982662e+01	-2.932392e+02
3.900000e-07	-6.965169e-06	-4.501435e-09	-4.944647e+01	-2.925852e+02
4.000000e-07	-6.910494e-06	-4.464921e-09	-4.905832e+01	-2.919274e+02
4.100000e-07	-6.854722e-06	-4.403197e-09	-4.866239e+01	-2.912680e+02
4.200000e-07	-6.797694e-06	-4.416243e-09	-4.825755e+01	-2.906073e+02
4.300000e-07	-6.739318e-06	-4.452743e-09	-4.784313e+01	-2.899434e+02
4.400000e-07	-6.679644e-06	-4.424591e-09	-4.741950e+01	-2.892729e+02
4.500000e-07	-6.618806e-06	-4.369465e-09	-4.698760e+01	-2.885909e+02
4.600000e-07	-6.556870e-06	-4.378299e-09	-4.654791e+01	-2.878915e+02
4.700000e-07	-6.493982e-06	-4.388747e-09	-4.610147e+01	-2.871684e+02
4.800000e-07	-6.430092e-06	-4.376569e-09	-4.564790e+01	-2.864152e+02
4.900000e-07	-6.364910e-06	-4.347868e-09	-4.518517e+01	-2.856263e+02
5.000000e-07	-6.298417e-06	-4.318522e-09	-4.471313e+01	-2.847973e+02
5.100000e-07	-6.230811e-06	-4.322666e-09	-4.423318e+01	-2.839251e+02
5.200000e-07	-6.162331e-06	-4.329029e-09	-4.374704e+01	-2.830084e+02
5.300000e-07	-6.092895e-06	-4.302045e-09	-4.325410e+01	-2.820477e+02
5.400000e-07	-6.022341e-06	-4.265608e-09	-4.275324e+01	-2.810454e+02
5.500000e-07	-5.950812e-06	-4.263237e-09	-4.224544e+01	-2.800052e+02
5.600000e-07	-5.878217e-06	-4.267218e-09	-4.173009e+01	-2.789323e+02
5.700000e-07	-5.804426e-06	-4.248553e-09	-4.120623e+01	-2.778323e+02
5.800000e-07	-5.729311e-06	-4.214920e-09	-4.067299e+01	-2.767111e+02
5.900000e-07	-5.653010e-06	-4.189800e-09	-4.013131e+01	-2.755744e+02
6.000000e-07	-5.575746e-06	-4.187994e-09	-3.958281e+01	-2.744266e+02
6.100000e-07	-5.497318e-06	-4.178525e-09	-3.902604e+01	-2.732710e+02
6.200000e-07	-5.417631e-06	-4.148511e-09	-3.846033e+01	-2.721091e+02
6.300000e-07	-5.336802e-06	-4.116830e-09	-3.788652e+01	-2.709403e+02
6.400000e-07	-5.254972e-06	-4.107942e-09	-3.730560e+01	-2.697620e+02
6.500000e-07	-5.172344e-06	-4.099679e-09	-3.671902e+01	-2.685700e+02
6.600000e-07	-5.089021e-06	-4.071990e-09	-3.612750e+01	-2.673582e+02
6.700000e-07	-5.004911e-06	-4.046924e-09	-3.553039e+01	-2.661194e+02
6.800000e-07	-4.919964e-06	-4.028644e-09	-3.492734e+01	-2.648457e+02
6.900000e-07	-4.834251e-06	-4.014147e-09	-3.431886e+01	-2.635293e+02
7.000000e-07	-4.747802e-06	-3.992120e-09	-3.370515e+01	-2.621627e+02
7.100000e-07	-4.660434e-06	-3.963448e-09	-3.308492e+01	-2.607396e+02
7.200000e-07	-4.572064e-06	-3.938619e-09	-3.245756e+01	-2.592552e+02
7.300000e-07	-4.482838e-06	-3.918542e-09	-3.182414e+01	-2.577066e+02
7.400000e-07	-4.392800e-06	-3.898764e-09	-3.118495e+01	-2.560929e+02
7.500000e-07	-4.301866e-06	-3.864514e-09	-3.053940e+01	-2.544149e+02
7.600000e-07	-4.210047e-06	-3.830359e-09	-2.988757e+01	-2.526756e+02
7.700000e-07	-4.117510e-06	-3.807329e-09	-2.923064e+01	-2.508790e+02
7.800000e-07	-4.024429e-06	-3.781403e-09	-2.856984e+01	-2.490301e+02
7.900000e-07	-3.930716e-06	-3.749596e-09	-2.790457e+01	-2.471341e+02
8.000000e-07	-3.836317e-06	-3.716943e-09	-2.723442e+01	-2.451953e+02
8.100000e-07	-3.741296e-06	-3.690872e-09	-2.655986e+01	-2.432175e+02
8.200000e-07	-3.645590e-06	-3.667371e-09	-2.588043e+01	-2.412020e+02
8.300000e-07	-3.549237e-06	-3.634298e-09	-2.519641e+01	-2.391483e+02
8.400000e-07	-3.452272e-06	-3.596092e-09	-2.450805e+01	-2.370532e+02
8.500000e-07	-3.354558e-06	-3.560238e-09	-2.381436e+01	-2.349107e+02
8.600000e-07	-3.256152e-06	-3.527359e-09	-2.311576e+01	-2.327124e+02
8.700000e-07	-3.157180e-06	-3.491565e-09	-2.241316e+01	-2.304477e+02
8.800000e-07	-3.057692e-06	-3.448503e-09	-2.170688e+01	-2.281043e+02
8.900000e-07	-2.957748e-06	-3.408361e-09	-2.099736e+01	-2.256687e+02
9.000000e-07	-2.857377e-06	-3.369598e-09	-2.028482e+01	-2.231277e+02
9.100000e-07	-2.756600e-06	-3.328809e-09	-1.956940e+01	-2.204683e+02
9.200000e-07	-2.655479e-06	-3.285864e-09	-1.885153e+01	-2.176792e+02
9.300000e-07	-2.553945e-06	-3.238254e-09	-1.813072e+01	-2.147509e+02
9.400000e-07	-2.451913e-06	-3.192163e-09	-1.740639e+01	-2.116765e+02
9.500000e-07	-2.349478e-06	-3.144880e-09	-1.667919e+01	-2.084518e+02
9.600000e-07	-2.246670e-06	-3.093498e-09	-1.594935e+01	-2.050750e+02
9.700000e-07	-2.143492e-06	-3.038440e-09	-1.521688e+01	-2.015465e+02
9.800000e-07	-2.039939e-06	-2.981898e-09	-1.448174e+01	-1.978680e+02
9.900000e-07	-1.935928e-06	-2.925996e-09	-1.374336e+01	-1.940415e+02
1.000000e-06	-1.831550e-06	-2.866080e-09	-1.300236e+01	-1.900683e+02
1.010000e-06	-1.726771e-06	-2.802612e-09	-1.225853e+01	-1.859470e+02
1.020000e-06	-1.621578e-06	-2.735217e-09	-1.151175e+01	-1.816730e+02
1.030000e-06	-1.516018e-06	-2.668521e-09	-1.076237e+01	-1.772362e+02
1.040000e-06	-1.410090e-06	-2.601752e-09	-1.001038e+01	-1.726207e+02
1.050000e-06	-1.303920e-06	-2.528198e-09	-9.256663e+00	-1.678036e+02
1.060000e-06	-1.197495e-06	-2.450301e-09	-8.501143e+00	-1.627545e+02
1.070000e-06	-1.090717e-06	-2.366625e-09	-7.743114e+00	-1.574358e+02
1.080000e-06	-9.836962e-07	-2.276958e-09	-6.983364e+00	-1.518034e+02
1.090000e-06	-8.765055e-07	-2.184592e-09	-6.222405e+00	-1.458076e+02
1.100000e-06	-7.691156e-07	-2.085382e-09	-5.460033e+00	-1.393950e+02
1.110000e-06	-6.616029e-07	-1.980127e-09	-4.696789e+00	-1.325108e+02
1.120000e-06	-5.539753e-07	-1.867731e-09	-3.932729e+00	-1.251014e+02
1.130000e-06	-4.462285e-07	-1.745691e-09	-3.167823e+00	-1.171170e+02
1.140000e-06	-3.383910e-07	-1.613219e-09	-2.402273e+00	-1.085149e+02
1.150000e-06	-2.304589e-07	-1.471430e-09	-1.636052e+00	-9.926251e+01
1.160000e-06	-1.225212e-07	-1.323045e-09	-8.697907e-01	-8.933971e+01
1.170000e-06	-1.469295e-08	-1.163036e-09	-1.043068e-01	-7.874160e+01
1.180000e-06	9.314614e-08	-9.942390e-10	6.612543e-01	-6.748009e+01
1.190000e-06	2.010255e-07	-8.188253e-10	1.427101e+00	-5.558513e+01
1.200000e-06	3.088584e-07	-6.318940e-10	2.192618e+00	-4.310506e+01
1.210000e-06	4.165798e-07	-4.336324e-10	2.957344e+00	-3.010617e+01
1.220000e-06	5.242119e-07	-2.296187e-10	3.721435e+00	-1.667145e+01
1.230000e-06	6.317160e-07	-2.380234e-11	4.484618e+00	-2.898518e+00
1.240000e-06	7.390339e-07	1.873599e-10	5.246480e+00	1.110317e+01
1.250000e-06	8.461847e-07	4.037568e-10	6.007154e+00	2.521567e+01
1.260000e-06	9.530965e-07	6.229174e-10	6.766133e+00	3.931634e+01
1.270000e-06	1.059758e-06	8.379926e-10	7.523336e+00	5.328188e+01
1.280000e-06	1.166210e-06	1.046052e-09	8.279047e+00	6.699244e+01
1.290000e-06	1.272486e-06	1.249803e-09	9.033513e+00	8.033554e+01
1.300000e-06	1.378493e-06	1.449219e-09	9.786064e+00	9.320967e+01
1.310000e-06	1.484138e-06	1.638272e-09	1.053606e+01	1.055274e+02
1.320000e-06	1.589446e-06	1.816058e-09	1.128364e+01	1.172176e+02
1.330000e-06	1.694374e-06	1.981996e-09	1.202854e+01	1.282273e+02
1.340000e-06	1.799038e-06	2.136051e-09	1.277156e+01	1.385226e+02
1.350000e-06	1.903429e-06	2.279399e-09	1.351264e+01	1.480882e+02
1.360000e-06	2.007410e-06	2.408341e-09	1.425082e+01	1.569268e+02
1.370000e-06	2.111038e-06	2.525159e-09	1.498648e+01	1.650576e+02
1.380000e-06	2.214324e-06	2.631788e-09	1.571972e+01	1.725139e+02
1.390000e-06	2.317301e-06	2.732391e-09	1.645077e+01	1.793407e+02
1.400000e-06	2.419938e-06	2.825832e-09	1.717939e+01	1.855910e+02
1.410000e-06	2.522185e-06	2.910930e-09	1.790526e+01	1.913237e+02
1.420000e-06	2.624017e-06	2.995708e-09	1.862817e+01	1.965994e+02
1.430000e-06	2.725366e-06	3.075175e-09	1.934766e+01	2.014783e+02
1.440000e-06	2.826269e-06	3.147192e-09	2.006399e+01	2.060173e+02
1.450000e-06	2.926727e-06	3.216234e-09	2.077714e+01	2.102680e+02
1.460000e-06	3.026791e-06	3.280673e-09	2.148751e+01	2.142751e+02
1.470000e-06	3.126405e-06	3.339931e-09	2.219468e+01	2.180753e+02
1.480000e-06	3.225432e-06	3.390980e-09	2.289769e+01	2.216975e+02
1.490000e-06	3.323845e-06	3.439173e-09	2.359633e+01	2.251622e+02
1.500000e-06	3.421587e-06	3.485875e-09	2.429021e+01	2.284827e+02
1.510000e-06	3.518573e-06	3.531007e-09	2.497873e+01	2.316663e+02
1.520000e-06	3.614878e-06	3.575796e-09	2.566240e+01	2.347149e+02
1.530000e-06	3.710467e-06	3.616847e-09	2.634099e+01	2.376276e+02
1.540000e-06	3.805314e-06	3.654039e-09	2.701432e+01	2.404013e+02
1.550000e-06	3.899516e-06	3.690029e-09	2.768308e+01	2.430326e+02
1.560000e-06	3.993016e-06	3.725986e-09	2.834684e+01	2.455192e+02
1.570000e-06	4.085810e-06	3.759109e-09	2.900560e+01	2.478607e+02
1.580000e-06	4.177994e-06	3.787295e-09	2.966002e+01	2.500594e+02
1.590000e-06	4.269570e-06	3.816566e-09	3.031013e+01	2.521207e+02
1.600000e-06	4.360351e-06	3.845413e-09	3.095459e+01	2.540531e+02
1.610000e-06	4.450144e-06	3.873173e-09	3.159204e+01	2.558676e+02
1.620000e-06	4.538961e-06	3.902500e-09	3.222257e+01	2.575777e+02
1.630000e-06	4.626929e-06	3.928117e-09	3.284706e+01	2.591981e+02
1.640000e-06	4.714063e-06	3.952054e-09	3.346563e+01	2.607442e+02
1.650000e-06	4.800430e-06	3.975479e-09	3.407876e+01	2.622309e+02
1.660000e-06	4.885972e-06	3.998344e-09	3.468603e+01	2.636718e+02
1.670000e-06	4.970709e-06	4.021264e-09	3.528759e+01	2.650783e+02
1.680000e-06	5.054749e-06	4.041092e-09	3.588420e+01	2.664594e+02
1.690000e-06	5.137978e-06	4.058314e-09	3.647505e+01	2.678208e+02
1.700000e-06	5.220251e-06	4.075018e-09	3.705911e+01	2.691653e+02
1.710000e-06	5.301597e-06	4.095533e-09	3.763659e+01	2.704927e+02
1.720000e-06	5.382063e-06	4.117084e-09	3.820783e+01	2.717998e+02
1.730000e-06	5.461560e-06	4.135002e-09	3.877219e+01	2.730818e+02
1.740000e-06	5.540060e-06	4.153024e-09	3.932947e+01	2.743320e+02
1.750000e-06	5.617581e-06	4.171449e-09	3.987980e+01	2.755434e+02
1.760000e-06	5.694156e-06	4.186907e-09	4.042341e+01	2.767089e+02
1.770000e-06	5.769801e-06	4.201652e-09	4.096043e+01	2.778225e+02
1.780000e-06	5.844301e-06	4.216520e-09	4.148931e+01	2.788794e+02
1.790000e-06	5.917463e-06	4.231822e-09	4.200869e+01	2.798769e+02
1.800000e-06	5.989476e-06	4.248077e-09	4.251992e+01	2.808146e+02
1.810000e-06	6.060500e-06	4.262517e-09	4.302413e+01	2.816943e+02
1.820000e-06	6.130534e-06	4.275776e-09	4.352131e+01	2.825200e+02
1.830000e-06	6.199510e-06	4.290019e-09	4.401098e+01	2.832976e+02
1.840000e-06	6.267457e-06	4.305325e-09	4.449334e+01	2.840345e+02
1.850000e-06	6.334423e-06	4.317276e-09	4.496874e+01	2.847390e+02
1.860000e-06	6.400130e-06	4.328326e-09	4.543520e+01	2.854194e+02
1.870000e-06	6.464504e-06	4.340523e-09	4.589219e+01	2.860839e+02
1.880000e-06	6.527792e-06	4.352861e-09	4.634149e+01	2.867396e+02
1.890000e-06	6.590044e-06	4.366261e-09	4.678342e+01	2.873921e+02
1.900000e-06	6.651191e-06	4.377631e-09	4.721751e+01	2.880453e+02
1.910000e-06	6.711270e-06	4.387982e-09	4.764402e+01	2.887011e+02
1.920000e-06	6.770272e-06	4.400431e-09	4.806287e+01	2.893591e+02
1.930000e-06	6.827898e-06	4.415303e-09	4.847197e+01	2.900173e+02
1.940000e-06	6.884031e-06	4.426691e-09	4.887047e+01	2.906720e+02
1.950000e-06	6.938963e-06	4.435505e-09	4.926043e+01	2.913181e+02
1.960000e-06	6.992757e-06	4.447462e-09	4.964232e+01	2.919499e+02
1.970000e-06	7.045297e-06	4.460150e-09	5.001531e+01	2.925617e+02
1.980000e-06	7.096335e-06	4.469814e-09	5.037763e+01	2.931477e+02
1.990000e-06	7.145606e-06	4.476888e-09	5.072741e+01	2.937035e+02
2.000000e-06	7.193365e-06	4.485017e-09	5.106646e+01	2.942254e+02
2.010000e-06	7.239912e-06	4.494290e-09	5.139690e+01	2.947115e+02
2.020000e-06	7.285253e-06	4.504932e-09	5.171878e+01	2.951614e+02
2.030000e-06	7.329461e-06	4.513963e-09	5.203262e+01	2.955766e+02
2.040000e-06	7.372579e-06	4.523098e-09	5.233871e+01	2.959598e+02
2.050000e-06	7.414234e-06	4.533606e-09	5.263443e+01	2.963151e+02
2.060000e-06	7.454339e-06	4.543446e-09	5.291914e+01	2.966473e+02
2.070000e-06	7.493188e-06	4.549926e-09	5.319494e+01	2.969619e+02
2.080000e-06	7.530783e-06	4.554590e-09	5.346183e+01	2.972642e+02
2.090000e-06	7.567169e-06	4.561198e-09	5.372013e+01	2.975590e+02
2.100000e-06	7.602494e-06	4.567154e-09	5.397091e+01	2.978505e+02
2.110000e-06	7.636473e-06	4.573626e-09	5.421213e+01	2.981414e+02
2.120000e-06	7.668867e-06	4.579012e-09	5.444210e+01	2.984333e+02
2.130000e-06	7.699942e-06	4.584008e-09	5.466270e+01	2.987262e+02
2.140000e-06	7.729845e-06	4.589926e-09	5.487498e+01	2.990189e+02
2.150000e-06	7.758488e-06	4.595591e-09	5.507833e+01	2.993088e+02
2.160000e-06	7.785870e-06	4.600937e-09	5.527272e+01	2.995924e+02
2.170000e-06	7.811810e-06	4.605074e-09	5.545686e+01	2.998655e+02
2.180000e-06	7.836119e-06	4.607348e-09	5.562944e+01	3.001238e+02
2.190000e-06	7.859002e-06	4.608758e-09	5.579189e+01	3.003631e+02
2.200000e-06	7.880630e-06	4.612431e-09	5.594543e+01	3.005796e+02
2.210000e-06	7.901011e-06	4.618004e-09	5.609011e+01	3.007706e+02
2.220000e-06	7.920210e-06	4.622387e-09	5.622641e+01	3.009343e+02
2.230000e-06	7.938049e-06	4.624309e-09	5.635305e+01	3.010700e+02
2.240000e-06	7.954363e-06	4.627228e-09	5.646886e+01	3.011783e+02
2.250000e-06	7.969242e-06	4.632468e-09	5.657449e+01	3.012611e+02
2.260000e-06	7.982646e-06	4.635135e-09	5.666965e+01	3.013211e+02
2.270000e-06	7.994491e-06	4.634237e-09	5.675374e+01	3.013616e+02
2.280000e-06	8.004657e-06	4.633439e-09	5.682591e+01	3.013863e+02
2.290000e-06	8.013118e-06	4.634707e-09	5.688597e+01	3.013990e+02
2.300000e-06	8.020144e-06	4.636281e-09	5.693585e+01	3.014032e+02
2.310000e-06	8.025895e-06	4.635876e-09	5.697667e+01	3.014018e+02
2.320000e-06	8.030305e-06	4.636449e-09	5.700799e+01	3.013967e+02
2.330000e-06	8.033454e-06	4.639192e-09	5.703034e+01	3.013891e+02
2.340000e-06	8.035026e-06	4.640482e-09	5.704150e+01	3.013792e+02
2.350000e-06	8.034905e-06	4.642962e-09	5.704064e+01	3.013660e+02
2.360000e-06	8.033487e-06	4.644607e-09	5.703057e+01	3.013481e+02
2.370000e-06	8.030816e-06	4.640808e-09	5.701161e+01	3.013234e+02
2.380000e-06	8.026907e-06	4.639138e-09	5.698386e+01	3.012896e+02
2.390000e-06	8.021827e-06	4.635997e-09	5.694780e+01	3.012446e+02
2.400000e-06	8.015210e-06	4.635095e-09	5.690083e+01	3.011866e+02
2.410000e-06	8.007075e-06	4.635507e-09	5.684307e+01	3.011146e+02
2.420000e-06	7.997787e-06	4.629621e-09	5.677713e+01	3.010284e+02
2.430000e-06	7.987354e-06	4.650368e-09	5.670307e+01	3.009291e+02
2.440000e-06	7.975550e-06	4.603217e-09	5.661927e+01	3.008186e+02
2.450000e-06	7.961651e-06	4.558017e-09	5.652060e+01	3.006999e+02
2.460000e-06	7.945454e-06	4.571002e-09	5.640562e+01	3.005768e+02
2.470000e-06	7.927606e-06	4.576512e-09	5.627891e+01	3.004534e+02
2.480000e-06	7.908763e-06	4.704788e-09	5.614514e+01	3.003341e+02
2.490000e-06	7.889361e-06	4.706575e-09	5.600741e+01	3.002230e+02
2.500000e-06	7.868895e-06	4.515001e-09	5.586212e+01	3.001233e+02
2.510000e-06	7.846476e-06	4.637814e-09	5.570296e+01	3.000374e+02
2.520000e-06	7.822606e-06	4.677087e-09	5.553351e+01	2.999660e+02
2.530000e-06	7.797830e-06	4.627110e-09	5.535762e+01	2.999083e+02
2.540000e-06	7.771526e-06	4.726700e-09	5.517089e+01	2.998615e+02
2.550000e-06	7.743814e-06	4.549596e-09	5.497415e+01	2.998214e+02
2.560000e-06	7.715125e-06	4.519503e-09	5.477049e+01	2.997820e+02
2.570000e-06	7.685012e-06	4.668319e-09	5.455671e+01	2.997359e+02
2.580000e-06	7.653272e-06	4.506785e-09	5.433139e+01	2.996750e+02
2.590000e-06	7.620070e-06	4.476855e-09	5.409568e+01	2.995906e+02
2.600000e-06	7.585665e-06	4.573121e-09	5.385144e+01	2.994742e+02
2.610000e-06	7.550223e-06	4.559926e-09	5.359983e+01	2.993179e+02
2.620000e-06	7.513337e-06	4.623277e-09	5.333797e+01	2.991151e+02
2.630000e-06	7.474774e-06	4.504868e-09	5.306421e+01	2.988606e+02
2.640000e-06	7.434787e-06	4.490933e-09	5.278034e+01	2.985511e+02
2.650000e-06	7.393542e-06	4.564941e-09	5.248754e+01	2.981857e+02
2.660000e-06	7.350985e-06	4.535862e-09	5.218542e+01	2.977655e+02
2.670000e-06	7.307172e-06	4.552758e-09	5.187439e+01	2.972934e+02
2.680000e-06	7.262245e-06	4.463656e-09	5.155544e+01	2.967746e+02
2.690000e-06	7.215919e-06	4.495690e-09	5.122657e+01	2.962153e+02
2.700000e-06	7.168248e-06	4.523080e-09	5.088815e+01	2.956227e+02
2.710000e-06	7.119399e-06	4.494634e-09	5.054137e+01	2.950044e+02
2.720000e-06	7.069024e-06	4.504084e-09	5.018375e+01	2.943676e+02
2.730000e-06	7.017196e-06	4.404055e-09	4.981581e+01	2.937190e+02
2.740000e-06	6.963981e-06	4.481867e-09	4.943804e+01	2.930637e+02
2.750000e-06	6.909300e-06	4.499724e-09	4.904985e+01	2.924053e+02
2.760000e-06	6.853189e-06	4.423182e-09	4.865152e+01	2.917456e+02
2.770000e-06	6.795802e-06	4.411018e-09	4.824412e+01	2.910843e+02
2.780000e-06	6.737369e-06	4.402875e-09	4.782929e+01	2.904191e+02
2.790000e-06	6.677825e-06	4.449241e-09	4.740659e+01	2.897462e+02
2.800000e-06	6.617072e-06	4.391716e-09	4.697530e+01	2.890604e+02
2.810000e-06	6.555076e-06	4.374789e-09	4.653517e+01	2.883557e+02
2.820000e-06	6.491894e-06	4.369287e-09	4.608664e+01	2.876256e+02
2.830000e-06	6.427561e-06	4.364003e-09	4.562994e+01	2.868639e+02
2.840000e-06	6.362059e-06	4.373090e-09	4.516493e+01	2.860654e+02
2.850000e-06	6.295515e-06	4.328258e-09	4.469253e+01	2.852258e+02
2.860000e-06	6.227982e-06	4.318799e-09	4.421310e+01	2.843425e+02
2.870000e-06	6.159368e-06	4.298241e-09	4.372601e+01	2.834146e+02
2.880000e-06	6.089576e-06	4.302265e-09	4.323055e+01	2.824432e+02
2.890000e-06	6.018617e-06	4.279550e-09	4.272680e+01	2.814310e+02
2.900000e-06	5.946527e-06	4.247911e-09	4.221502e+01	2.803821e+02
2.910000e-06	5.873461e-06	4.237235e-09	4.169632e+01	2.793018e+02
2.920000e-06	5.799502e-06	4.236099e-09	4.117128e+01	2.781959e+02
2.930000e-06	5.724502e-06	4.229963e-09	4.063884e+01	2.770704e+02
2.940000e-06	5.648271e-06	4.184578e-09	4.009767e+01	2.759304e+02
2.950000e-06	5.570735e-06	4.171934e-09	3.954724e+01	2.747805e+02
