# Temperatura_=_20.0
# Concentracion g/m^3_=_9000.0
# C_Vs_to_Am_M_A/Vsm_=_65563218390.804596
# pendiente_HvsI_1/m_=_3716.3
# ordenada_HvsI_A/m_=_1297.0
# frecuencia_Hz_=_212993.1037614883

Tiempo_(s)	Campo_(V.s)	Magnetizacion_(V.s)	Campo_(kA/m)	Magnetizacion_(A/m)
0.000000e+00	-8.076051e-06	-4.792294e-09	-5.692262e+01	-3.149231e+02
1.000000e-08	-8.075410e-06	-4.786812e-09	-5.691810e+01	-3.149083e+02
2.000000e-08	-8.073117e-06	-4.788424e-09	-5.690194e+01	-3.148888e+02
3.000000e-08	-8.069483e-06	-4.787791e-09	-5.687633e+01	-3.148608e+02
4.000000e-08	-8.064665e-06	-4.786235e-09	-5.684237e+01	-3.148200e+02
5.000000e-08	-8.058465e-06	-4.784314e-09	-5.679867e+01	-3.147627e+02
6.000000e-08	-8.051044e-06	-4.780627e-09	-5.674637e+01	-3.146857e+02
7.000000e-08	-8.042358e-06	-4.779092e-09	-5.668515e+01	-3.145865e+02
8.000000e-08	-8.031994e-06	-4.773093e-09	-5.661210e+01	-3.144642e+02
9.000000e-08	-8.019990e-06	-4.774508e-09	-5.652749e+01	-3.143189e+02
1.000000e-07	-8.006173e-06	-4.810606e-09	-5.643010e+01	-3.141522e+02
1.100000e-07	-7.990209e-06	-4.818021e-09	-5.631758e+01	-3.139666e+02
1.200000e-07	-7.972565e-06	-4.795811e-09	-5.619322e+01	-3.137659e+02
1.300000e-07	-7.953817e-06	-4.766465e-09	-5.606108e+01	-3.135542e+02
1.400000e-07	-7.934187e-06	-4.704466e-09	-5.592272e+01	-3.133359e+02
1.500000e-07	-7.913582e-06	-4.740645e-09	-5.577749e+01	-3.131152e+02
1.600000e-07	-7.891697e-06	-4.831463e-09	-5.562324e+01	-3.128958e+02
1.700000e-07	-7.868648e-06	-4.752143e-09	-5.546078e+01	-3.126801e+02
1.800000e-07	-7.844463e-06	-4.729374e-09	-5.529032e+01	-3.124694e+02
1.900000e-07	-7.818462e-06	-4.750931e-09	-5.510705e+01	-3.122632e+02
2.000000e-07	-7.790964e-06	-4.720311e-09	-5.491323e+01	-3.120598e+02
2.100000e-07	-7.762564e-06	-4.810154e-09	-5.471307e+01	-3.118554e+02
2.200000e-07	-7.732792e-06	-4.767604e-09	-5.450322e+01	-3.116454e+02
2.300000e-07	-7.701683e-06	-4.673080e-09	-5.428396e+01	-3.114237e+02
2.400000e-07	-7.669383e-06	-4.738197e-09	-5.405629e+01	-3.111836e+02
2.500000e-07	-7.635540e-06	-4.778317e-09	-5.381776e+01	-3.109185e+02
2.600000e-07	-7.600167e-06	-4.752314e-09	-5.356844e+01	-3.106216e+02
2.700000e-07	-7.563383e-06	-4.707088e-09	-5.330917e+01	-3.102873e+02
2.800000e-07	-7.525203e-06	-4.678795e-09	-5.304007e+01	-3.099108e+02
2.900000e-07	-7.485823e-06	-4.711475e-09	-5.276250e+01	-3.094890e+02
3.000000e-07	-7.445074e-06	-4.732419e-09	-5.247529e+01	-3.090206e+02
3.100000e-07	-7.402725e-06	-4.691118e-09	-5.217680e+01	-3.085059e+02
3.200000e-07	-7.358897e-06	-4.636750e-09	-5.186789e+01	-3.079470e+02
3.300000e-07	-7.313748e-06	-4.657057e-09	-5.154966e+01	-3.073477e+02
3.400000e-07	-7.267339e-06	-4.688246e-09	-5.122256e+01	-3.067129e+02
3.500000e-07	-7.219570e-06	-4.661950e-09	-5.088587e+01	-3.060484e+02
3.600000e-07	-7.170122e-06	-4.641543e-09	-5.053734e+01	-3.053601e+02
3.700000e-07	-7.118872e-06	-4.613032e-09	-5.017611e+01	-3.046539e+02
3.800000e-07	-7.066197e-06	-4.618492e-09	-4.980484e+01	-3.039351e+02
3.900000e-07	-7.012345e-06	-4.644389e-09	-4.942528e+01	-3.032079e+02
4.000000e-07	-6.957347e-06	-4.604335e-09	-4.903763e+01	-3.024747e+02
4.100000e-07	-6.901088e-06	-4.562385e-09	-4.864111e+01	-3.017368e+02
4.200000e-07	-6.843522e-06	-4.571054e-09	-4.823536e+01	-3.009934e+02
4.300000e-07	-6.784674e-06	-4.592255e-09	-4.782058e+01	-3.002421e+02
4.400000e-07	-6.724490e-06	-4.562139e-09	-4.739639e+01	-2.994790e+02
4.500000e-07	-6.663192e-06	-4.526786e-09	-4.696433e+01	-2.986994e+02
4.600000e-07	-6.600897e-06	-4.524017e-09	-4.652526e+01	-2.978975e+02
4.700000e-07	-6.537601e-06	-4.525095e-09	-4.607913e+01	-2.970676e+02
4.800000e-07	-6.473167e-06	-4.516813e-09	-4.562498e+01	-2.962041e+02
4.900000e-07	-6.407444e-06	-4.482936e-09	-4.516174e+01	-2.953023e+02
5.000000e-07	-6.340472e-06	-4.458777e-09	-4.468970e+01	-2.943585e+02
5.100000e-07	-6.272401e-06	-4.459604e-09	-4.420992e+01	-2.933708e+02
5.200000e-07	-6.203431e-06	-4.457790e-09	-4.372379e+01	-2.923386e+02
5.300000e-07	-6.133422e-06	-4.434117e-09	-4.323034e+01	-2.912633e+02
5.400000e-07	-6.062381e-06	-4.406788e-09	-4.272962e+01	-2.901475e+02
5.500000e-07	-5.990254e-06	-4.396225e-09	-4.222125e+01	-2.889953e+02
5.600000e-07	-5.916923e-06	-4.390052e-09	-4.170439e+01	-2.878118e+02
5.700000e-07	-5.842501e-06	-4.377261e-09	-4.117984e+01	-2.866023e+02
5.800000e-07	-5.766803e-06	-4.346118e-09	-4.064629e+01	-2.853719e+02
5.900000e-07	-5.689845e-06	-4.317219e-09	-4.010387e+01	-2.841255e+02
6.000000e-07	-5.611732e-06	-4.310308e-09	-3.955331e+01	-2.828665e+02
6.100000e-07	-5.532502e-06	-4.298863e-09	-3.899486e+01	-2.815969e+02
6.200000e-07	-5.452219e-06	-4.270951e-09	-3.842900e+01	-2.803170e+02
6.300000e-07	-5.370834e-06	-4.241096e-09	-3.785538e+01	-2.790252e+02
6.400000e-07	-5.288532e-06	-4.224397e-09	-3.727529e+01	-2.777178e+02
6.500000e-07	-5.205511e-06	-4.209022e-09	-3.669013e+01	-2.763899e+02
6.600000e-07	-5.121616e-06	-4.181317e-09	-3.609881e+01	-2.750348e+02
6.700000e-07	-5.036818e-06	-4.153934e-09	-3.550113e+01	-2.736455e+02
6.800000e-07	-4.951235e-06	-4.131318e-09	-3.489791e+01	-2.722141e+02
6.900000e-07	-4.864925e-06	-4.113110e-09	-3.428956e+01	-2.707336e+02
7.000000e-07	-4.777898e-06	-4.090431e-09	-3.367617e+01	-2.691975e+02
7.100000e-07	-4.689821e-06	-4.062263e-09	-3.305537e+01	-2.676007e+02
7.200000e-07	-4.600720e-06	-4.038514e-09	-3.242736e+01	-2.659400e+02
7.300000e-07	-4.510896e-06	-4.013583e-09	-3.179426e+01	-2.642141e+02
7.400000e-07	-4.420255e-06	-3.989473e-09	-3.115539e+01	-2.624237e+02
7.500000e-07	-4.328728e-06	-3.960064e-09	-3.051028e+01	-2.605713e+02
7.600000e-07	-4.236298e-06	-3.927576e-09	-2.985880e+01	-2.586610e+02
7.700000e-07	-4.143124e-06	-3.898334e-09	-2.920208e+01	-2.566981e+02
7.800000e-07	-4.049387e-06	-3.868112e-09	-2.854139e+01	-2.546882e+02
7.900000e-07	-3.955015e-06	-3.838672e-09	-2.787623e+01	-2.526366e+02
8.000000e-07	-3.859988e-06	-3.804909e-09	-2.720645e+01	-2.505478e+02
8.100000e-07	-3.764105e-06	-3.774115e-09	-2.653063e+01	-2.484245e+02
8.200000e-07	-3.667408e-06	-3.746437e-09	-2.584908e+01	-2.462674e+02
8.300000e-07	-3.570152e-06	-3.711232e-09	-2.516358e+01	-2.440745e+02
8.400000e-07	-3.472410e-06	-3.672864e-09	-2.447467e+01	-2.418409e+02
8.500000e-07	-3.374049e-06	-3.634511e-09	-2.378139e+01	-2.395591e+02
8.600000e-07	-3.275013e-06	-3.598820e-09	-2.308335e+01	-2.372188e+02
8.700000e-07	-3.175422e-06	-3.562428e-09	-2.238140e+01	-2.348079e+02
8.800000e-07	-3.075217e-06	-3.519695e-09	-2.167512e+01	-2.323126e+02
8.900000e-07	-2.974552e-06	-3.475673e-09	-2.096561e+01	-2.297187e+02
9.000000e-07	-2.873514e-06	-3.432143e-09	-2.025346e+01	-2.270122e+02
9.100000e-07	-2.772067e-06	-3.389790e-09	-1.953842e+01	-2.241801e+02
9.200000e-07	-2.670166e-06	-3.344402e-09	-1.882020e+01	-2.212113e+02
9.300000e-07	-2.567821e-06	-3.291939e-09	-1.809884e+01	-2.180973e+02
9.400000e-07	-2.465011e-06	-3.239804e-09	-1.737420e+01	-2.148323e+02
9.500000e-07	-2.361836e-06	-3.190643e-09	-1.664699e+01	-2.114135e+02
9.600000e-07	-2.258241e-06	-3.140564e-09	-1.591681e+01	-2.078409e+02
9.700000e-07	-2.154079e-06	-3.084726e-09	-1.518265e+01	-2.041165e+02
9.800000e-07	-2.049438e-06	-3.023372e-09	-1.444511e+01	-2.002435e+02
9.900000e-07	-1.944434e-06	-2.963780e-09	-1.370500e+01	-1.962251e+02
1.000000e-06	-1.839090e-06	-2.904346e-09	-1.296250e+01	-1.920633e+02
1.010000e-06	-1.733415e-06	-2.839211e-09	-1.221767e+01	-1.877572e+02
1.020000e-06	-1.627479e-06	-2.768169e-09	-1.147100e+01	-1.833014e+02
1.030000e-06	-1.521277e-06	-2.695185e-09	-1.072245e+01	-1.786850e+02
1.040000e-06	-1.414768e-06	-2.623638e-09	-9.971740e+00	-1.738903e+02
1.050000e-06	-1.307824e-06	-2.548990e-09	-9.217970e+00	-1.688919e+02
1.060000e-06	-1.200589e-06	-2.468747e-09	-8.462140e+00	-1.636568e+02
1.070000e-06	-1.093141e-06	-2.382545e-09	-7.704814e+00	-1.581439e+02
1.080000e-06	-9.854670e-07	-2.290240e-09	-6.945890e+00	-1.523059e+02
1.090000e-06	-8.775824e-07	-2.197078e-09	-6.185485e+00	-1.460895e+02
1.100000e-06	-7.695033e-07	-2.095464e-09	-5.423709e+00	-1.394384e+02
1.110000e-06	-6.612558e-07	-1.984173e-09	-4.660745e+00	-1.322949e+02
1.120000e-06	-5.528004e-07	-1.866076e-09	-3.896316e+00	-1.246034e+02
1.130000e-06	-4.442818e-07	-1.739959e-09	-3.131442e+00	-1.163130e+02
1.140000e-06	-3.356866e-07	-1.604812e-09	-2.366028e+00	-1.073807e+02
1.150000e-06	-2.269667e-07	-1.458258e-09	-1.599735e+00	-9.777473e+01
1.160000e-06	-1.182906e-07	-1.305044e-09	-8.337502e-01	-8.747696e+01
1.170000e-06	-9.635753e-09	-1.140228e-09	-6.791591e-02	-7.648544e+01
1.180000e-06	9.904455e-08	-9.655799e-10	6.980980e-01	-6.481607e+01
1.190000e-06	2.076478e-07	-7.838732e-10	1.463569e+00	-5.250358e+01
1.200000e-06	3.161847e-07	-5.905865e-10	2.228572e+00	-3.960174e+01
1.210000e-06	4.246798e-07	-3.863111e-10	2.993281e+00	-2.618267e+01
1.220000e-06	5.330886e-07	-1.747245e-10	3.757381e+00	-1.233535e+01
1.230000e-06	6.413455e-07	4.175314e-11	4.520411e+00	1.836741e+00
1.240000e-06	7.493297e-07	2.619993e-10	5.281518e+00	1.621865e+01
1.250000e-06	8.571127e-07	4.824361e-10	6.041208e+00	3.068756e+01
1.260000e-06	9.647371e-07	7.040221e-10	6.799779e+00	4.511678e+01
1.270000e-06	1.072146e-06	9.237790e-10	7.556833e+00	5.937997e+01
1.280000e-06	1.179351e-06	1.140286e-09	8.312450e+00	7.335532e+01
1.290000e-06	1.286297e-06	1.349116e-09	9.066238e+00	8.692956e+01
1.300000e-06	1.392945e-06	1.549806e-09	9.817927e+00	1.000016e+02
1.310000e-06	1.499323e-06	1.739975e-09	1.056771e+01	1.124853e+02
1.320000e-06	1.605422e-06	1.917855e-09	1.131554e+01	1.243121e+02
1.330000e-06	1.711192e-06	2.083910e-09	1.206104e+01	1.354322e+02
1.340000e-06	1.816738e-06	2.237306e-09	1.280496e+01	1.458155e+02
1.350000e-06	1.922084e-06	2.379108e-09	1.354747e+01	1.554509e+02
1.360000e-06	2.027067e-06	2.506912e-09	1.428743e+01	1.643455e+02
1.370000e-06	2.131606e-06	2.626960e-09	1.502425e+01	1.725229e+02
1.380000e-06	2.235724e-06	2.738074e-09	1.575811e+01	1.800204e+02
1.390000e-06	2.339493e-06	2.838191e-09	1.648950e+01	1.868864e+02
1.400000e-06	2.442835e-06	2.930692e-09	1.721789e+01	1.931774e+02
1.410000e-06	2.545738e-06	3.016977e-09	1.794318e+01	1.989544e+02
1.420000e-06	2.648157e-06	3.101375e-09	1.866506e+01	2.042798e+02
1.430000e-06	2.750031e-06	3.178286e-09	1.938311e+01	2.092149e+02
1.440000e-06	2.851535e-06	3.251146e-09	2.009854e+01	2.138170e+02
1.450000e-06	2.952749e-06	3.324629e-09	2.081193e+01	2.181374e+02
1.460000e-06	3.053550e-06	3.390959e-09	2.152241e+01	2.222202e+02
1.470000e-06	3.153834e-06	3.450389e-09	2.222924e+01	2.261015e+02
1.480000e-06	3.253581e-06	3.504407e-09	2.293229e+01	2.298088e+02
1.490000e-06	3.352679e-06	3.556981e-09	2.363077e+01	2.333616e+02
1.500000e-06	3.451030e-06	3.605227e-09	2.432398e+01	2.367723e+02
1.510000e-06	3.548719e-06	3.649892e-09	2.501252e+01	2.400472e+02
1.520000e-06	3.645779e-06	3.694498e-09	2.569663e+01	2.431878e+02
1.530000e-06	3.742076e-06	3.736480e-09	2.637536e+01	2.461928e+02
1.540000e-06	3.837623e-06	3.774906e-09	2.704881e+01	2.490592e+02
1.550000e-06	3.932504e-06	3.810097e-09	2.771756e+01	2.517841e+02
1.560000e-06	4.026585e-06	3.845865e-09	2.838067e+01	2.543657e+02
1.570000e-06	4.119939e-06	3.881330e-09	2.903867e+01	2.568045e+02
1.580000e-06	4.212696e-06	3.912372e-09	2.969245e+01	2.591038e+02
1.590000e-06	4.304757e-06	3.943537e-09	3.034132e+01	2.612697e+02
1.600000e-06	4.396046e-06	3.974552e-09	3.098476e+01	2.633116e+02
1.610000e-06	4.486472e-06	4.004859e-09	3.162210e+01	2.652412e+02
1.620000e-06	4.576042e-06	4.035590e-09	3.225343e+01	2.670723e+02
1.630000e-06	4.664721e-06	4.062926e-09	3.287846e+01	2.688199e+02
1.640000e-06	4.752438e-06	4.088363e-09	3.349672e+01	2.704989e+02
1.650000e-06	4.839283e-06	4.112994e-09	3.410884e+01	2.721238e+02
1.660000e-06	4.925300e-06	4.137561e-09	3.471511e+01	2.737073e+02
1.670000e-06	5.010568e-06	4.163081e-09	3.531610e+01	2.752599e+02
1.680000e-06	5.095082e-06	4.185991e-09	3.591179e+01	2.767891e+02
1.690000e-06	5.178765e-06	4.207033e-09	3.650161e+01	2.782995e+02
1.700000e-06	5.261629e-06	4.229849e-09	3.708567e+01	2.797924e+02
1.710000e-06	5.343596e-06	4.254007e-09	3.766340e+01	2.812664e+02
1.720000e-06	5.424647e-06	4.273902e-09	3.823467e+01	2.827173e+02
1.730000e-06	5.504763e-06	4.290539e-09	3.879935e+01	2.841392e+02
1.740000e-06	5.583833e-06	4.308646e-09	3.935666e+01	2.855252e+02
1.750000e-06	5.661832e-06	4.327780e-09	3.990643e+01	2.868678e+02
1.760000e-06	5.738897e-06	4.345358e-09	4.044960e+01	2.881600e+02
1.770000e-06	5.815016e-06	4.361805e-09	4.098611e+01	2.893961e+02
1.780000e-06	5.890037e-06	4.378270e-09	4.151489e+01	2.905718e+02
1.790000e-06	5.963836e-06	4.396319e-09	4.203505e+01	2.916852e+02
1.800000e-06	6.036406e-06	4.416024e-09	4.254655e+01	2.927366e+02
1.810000e-06	6.107892e-06	4.433396e-09	4.305040e+01	2.937286e+02
1.820000e-06	6.178290e-06	4.449157e-09	4.354659e+01	2.946661e+02
1.830000e-06	6.247639e-06	4.463680e-09	4.403539e+01	2.955556e+02
1.840000e-06	6.315987e-06	4.478170e-09	4.451712e+01	2.964047e+02
1.850000e-06	6.383259e-06	4.491622e-09	4.499128e+01	2.972220e+02
1.860000e-06	6.449402e-06	4.502747e-09	4.545747e+01	2.980157e+02
1.870000e-06	6.514328e-06	4.514052e-09	4.591509e+01	2.987936e+02
1.880000e-06	6.578021e-06	4.527778e-09	4.636402e+01	2.995622e+02
1.890000e-06	6.640581e-06	4.546032e-09	4.680497e+01	3.003263e+02
1.900000e-06	6.702039e-06	4.560437e-09	4.723814e+01	3.010889e+02
1.910000e-06	6.762446e-06	4.572230e-09	4.766391e+01	3.018506e+02
1.920000e-06	6.821800e-06	4.586336e-09	4.808226e+01	3.026103e+02
1.930000e-06	6.879919e-06	4.599849e-09	4.849190e+01	3.033648e+02
1.940000e-06	6.936628e-06	4.609362e-09	4.889160e+01	3.041098e+02
1.950000e-06	6.991950e-06	4.616280e-09	4.928153e+01	3.048396e+02
1.960000e-06	7.046017e-06	4.628495e-09	4.966261e+01	3.055483e+02
1.970000e-06	7.098798e-06	4.640063e-09	5.003463e+01	3.062299e+02
1.980000e-06	7.150171e-06	4.650443e-09	5.039672e+01	3.068794e+02
1.990000e-06	7.199972e-06	4.662499e-09	5.074774e+01	3.074925e+02
2.000000e-06	7.248121e-06	4.673554e-09	5.108710e+01	3.080665e+02
2.010000e-06	7.294897e-06	4.684034e-09	5.141679e+01	3.086006e+02
2.020000e-06	7.340512e-06	4.693205e-09	5.173831e+01	3.090954e+02
2.030000e-06	7.384974e-06	4.701332e-09	5.205169e+01	3.095533e+02
2.040000e-06	7.428248e-06	4.708606e-09	5.235669e+01	3.099783e+02
2.050000e-06	7.470105e-06	4.716408e-09	5.265172e+01	3.103752e+02
2.060000e-06	7.510464e-06	4.725881e-09	5.293618e+01	3.107497e+02
2.070000e-06	7.549495e-06	4.734562e-09	5.321129e+01	3.111075e+02
2.080000e-06	7.587288e-06	4.743030e-09	5.347766e+01	3.114541e+02
2.090000e-06	7.623815e-06	4.752959e-09	5.373512e+01	3.117941e+02
2.100000e-06	7.659262e-06	4.762579e-09	5.398496e+01	3.121311e+02
2.110000e-06	7.693444e-06	4.769960e-09	5.422588e+01	3.124672e+02
2.120000e-06	7.726013e-06	4.774618e-09	5.445544e+01	3.128029e+02
2.130000e-06	7.757233e-06	4.778940e-09	5.467549e+01	3.131371e+02
2.140000e-06	7.787237e-06	4.783979e-09	5.488697e+01	3.134672e+02
2.150000e-06	7.815969e-06	4.789415e-09	5.508948e+01	3.137896e+02
2.160000e-06	7.843564e-06	4.795041e-09	5.528398e+01	3.140996e+02
2.170000e-06	7.869738e-06	4.800905e-09	5.546846e+01	3.143923e+02
2.180000e-06	7.894147e-06	4.806592e-09	5.564050e+01	3.146625e+02
2.190000e-06	7.917128e-06	4.811018e-09	5.580248e+01	3.149058e+02
2.200000e-06	7.938864e-06	4.814788e-09	5.595569e+01	3.151184e+02
2.210000e-06	7.959283e-06	4.820161e-09	5.609960e+01	3.152979e+02
2.220000e-06	7.978517e-06	4.825358e-09	5.623517e+01	3.154432e+02
2.230000e-06	7.996424e-06	4.826793e-09	5.636139e+01	3.155549e+02
2.240000e-06	8.012799e-06	4.828864e-09	5.647680e+01	3.156347e+02
2.250000e-06	8.027665e-06	4.832857e-09	5.658159e+01	3.156859e+02
2.260000e-06	8.041075e-06	4.835882e-09	5.667610e+01	3.157128e+02
2.270000e-06	8.052964e-06	4.836471e-09	5.675990e+01	3.157204e+02
2.280000e-06	8.063139e-06	4.838063e-09	5.683161e+01	3.157139e+02
2.290000e-06	8.071621e-06	4.842015e-09	5.689140e+01	3.156984e+02
2.300000e-06	8.078617e-06	4.845885e-09	5.694071e+01	3.156785e+02
2.310000e-06	8.084234e-06	4.846314e-09	5.698030e+01	3.156576e+02
2.320000e-06	8.088511e-06	4.845907e-09	5.701045e+01	3.156383e+02
2.330000e-06	8.091506e-06	4.847343e-09	5.703155e+01	3.156217e+02
2.340000e-06	8.092917e-06	4.847870e-09	5.704150e+01	3.156073e+02
2.350000e-06	8.092712e-06	4.849611e-09	5.704005e+01	3.155937e+02
2.360000e-06	8.091171e-06	4.848977e-09	5.702919e+01	3.155781e+02
2.370000e-06	8.088393e-06	4.846801e-09	5.700961e+01	3.155568e+02
2.380000e-06	8.084475e-06	4.846381e-09	5.698200e+01	3.155259e+02
2.390000e-06	8.079282e-06	4.845190e-09	5.694539e+01	3.154813e+02
2.400000e-06	8.072508e-06	4.845396e-09	5.689765e+01	3.154193e+02
2.410000e-06	8.064289e-06	4.845495e-09	5.683972e+01	3.153369e+02
2.420000e-06	8.054879e-06	4.846552e-09	5.677340e+01	3.152320e+02
2.430000e-06	8.044279e-06	4.847144e-09	5.669868e+01	3.151038e+02
2.440000e-06	8.032338e-06	4.788386e-09	5.661452e+01	3.149530e+02
2.450000e-06	8.018238e-06	4.771817e-09	5.651514e+01	3.147812e+02
2.460000e-06	8.001751e-06	4.786951e-09	5.639893e+01	3.145915e+02
2.470000e-06	7.983675e-06	4.816123e-09	5.627153e+01	3.143875e+02
2.480000e-06	7.964665e-06	4.910160e-09	5.613754e+01	3.141737e+02
2.490000e-06	7.945047e-06	4.835757e-09	5.599927e+01	3.139544e+02
2.500000e-06	7.924278e-06	4.770259e-09	5.585288e+01	3.137338e+02
2.510000e-06	7.901512e-06	4.856385e-09	5.569242e+01	3.135151e+02
2.520000e-06	7.877377e-06	4.809720e-09	5.552230e+01	3.133005e+02
2.530000e-06	7.852331e-06	4.831264e-09	5.534577e+01	3.130910e+02
2.540000e-06	7.825739e-06	4.844100e-09	5.515834e+01	3.128858e+02
2.550000e-06	7.797838e-06	4.712892e-09	5.496169e+01	3.126824e+02
2.560000e-06	7.768949e-06	4.801548e-09	5.475807e+01	3.124772e+02
2.570000e-06	7.738553e-06	4.841368e-09	5.454383e+01	3.122647e+02
2.580000e-06	7.706517e-06	4.713649e-09	5.431803e+01	3.120391e+02
2.590000e-06	7.672989e-06	4.725121e-09	5.408171e+01	3.117934e+02
2.600000e-06	7.638278e-06	4.726247e-09	5.383706e+01	3.115208e+02
2.610000e-06	7.602501e-06	4.770152e-09	5.358489e+01	3.112151e+02
2.620000e-06	7.565230e-06	4.782891e-09	5.332219e+01	3.108705e+02
2.630000e-06	7.526340e-06	4.682280e-09	5.304808e+01	3.104829e+02
2.640000e-06	7.486040e-06	4.716745e-09	5.276403e+01	3.100495e+02
2.650000e-06	7.444444e-06	4.720219e-09	5.247085e+01	3.095694e+02
2.660000e-06	7.401496e-06	4.740235e-09	5.216814e+01	3.090434e+02
2.670000e-06	7.357418e-06	4.725576e-09	5.185747e+01	3.084740e+02
2.680000e-06	7.312155e-06	4.655608e-09	5.153843e+01	3.078653e+02
2.690000e-06	7.265335e-06	4.691783e-09	5.120843e+01	3.072225e+02
2.700000e-06	7.217187e-06	4.680656e-09	5.086907e+01	3.065513e+02
2.710000e-06	7.167802e-06	4.706747e-09	5.052099e+01	3.058580e+02
2.720000e-06	7.116882e-06	4.656743e-09	5.016209e+01	3.051482e+02
2.730000e-06	7.064530e-06	4.597921e-09	4.979309e+01	3.044270e+02
2.740000e-06	7.010741e-06	4.667289e-09	4.941397e+01	3.036980e+02
2.750000e-06	6.955470e-06	4.646796e-09	4.902440e+01	3.029636e+02
2.760000e-06	6.898844e-06	4.618220e-09	4.862528e+01	3.022244e+02
2.770000e-06	6.841002e-06	4.575053e-09	4.821760e+01	3.014793e+02
2.780000e-06	6.782041e-06	4.586499e-09	4.780202e+01	3.007254e+02
2.790000e-06	6.721956e-06	4.605880e-09	4.737852e+01	2.999587e+02
2.800000e-06	6.660699e-06	4.563068e-09	4.694677e+01	2.991740e+02
2.810000e-06	6.598170e-06	4.551414e-09	4.650604e+01	2.983657e+02
2.820000e-06	6.534395e-06	4.520684e-09	4.605653e+01	2.975278e+02
2.830000e-06	6.469489e-06	4.532882e-09	4.559905e+01	2.966551e+02
2.840000e-06	6.403520e-06	4.517170e-09	4.513409e+01	2.957431e+02
2.850000e-06	6.336532e-06	4.494408e-09	4.466193e+01	2.947884e+02
2.860000e-06	6.268537e-06	4.475969e-09	4.418268e+01	2.937895e+02
2.870000e-06	6.199340e-06	4.451457e-09	4.369495e+01	2.927464e+02
2.880000e-06	6.128896e-06	4.456245e-09	4.319844e+01	2.916605e+02
2.890000e-06	6.057389e-06	4.436265e-09	4.269444e+01	2.905352e+02
2.900000e-06	5.984733e-06	4.412862e-09	4.218234e+01	2.893747e+02
2.910000e-06	5.911056e-06	4.383018e-09	4.166304e+01	2.881841e+02
2.920000e-06	5.836469e-06	4.385705e-09	4.113732e+01	2.869689e+02
2.930000e-06	5.760761e-06	4.372346e-09	4.060371e+01	2.857341e+02
2.940000e-06	5.683792e-06	4.337964e-09	4.006120e+01	2.844842e+02
2.950000e-06	5.605559e-06	4.321522e-09	3.950980e+01	2.832224e+02
