# Temperatura_=_20.0
# Concentracion g/m^3_=_9000.0
# C_Vs_to_Am_M_A/Vsm_=_65563218390.804596
# pendiente_HvsI_1/m_=_3716.3
# ordenada_HvsI_A/m_=_1297.0
# frecuencia_Hz_=_212987.7483741673

Tiempo_(s)	Campo_(V.s)	Magnetizacion_(V.s)	Campo_(kA/m)	Magnetizacion_(A/m)
0.000000e+00	-8.076500e-06	-4.524194e-09	-5.692432e+01	-2.982952e+02
1.000000e-08	-8.075600e-06	-4.522371e-09	-5.691798e+01	-2.982926e+02
2.000000e-08	-8.073156e-06	-4.520750e-09	-5.690075e+01	-2.982812e+02
3.000000e-08	-8.069356e-06	-4.519800e-09	-5.687397e+01	-2.982579e+02
4.000000e-08	-8.064334e-06	-4.521030e-09	-5.683857e+01	-2.982201e+02
5.000000e-08	-8.058033e-06	-4.522140e-09	-5.679416e+01	-2.981658e+02
6.000000e-08	-8.050471e-06	-4.520509e-09	-5.674086e+01	-2.980940e+02
7.000000e-08	-8.041525e-06	-4.520789e-09	-5.667781e+01	-2.980048e+02
8.000000e-08	-8.030949e-06	-4.527807e-09	-5.660327e+01	-2.978996e+02
9.000000e-08	-8.018657e-06	-4.521307e-09	-5.651663e+01	-2.977808e+02
1.000000e-07	-8.004576e-06	-4.512200e-09	-5.641739e+01	-2.976521e+02
1.100000e-07	-7.988554e-06	-4.531060e-09	-5.630447e+01	-2.975179e+02
1.200000e-07	-7.970877e-06	-4.542685e-09	-5.617988e+01	-2.973831e+02
1.300000e-07	-7.952001e-06	-4.548337e-09	-5.604683e+01	-2.972527e+02
1.400000e-07	-7.932163e-06	-4.527963e-09	-5.590701e+01	-2.971311e+02
1.500000e-07	-7.911359e-06	-4.460523e-09	-5.576038e+01	-2.970220e+02
1.600000e-07	-7.889353e-06	-4.496215e-09	-5.560528e+01	-2.969278e+02
1.700000e-07	-7.866150e-06	-4.558099e-09	-5.544175e+01	-2.968493e+02
1.800000e-07	-7.841651e-06	-4.513141e-09	-5.526907e+01	-2.967855e+02
1.900000e-07	-7.815501e-06	-4.519862e-09	-5.508476e+01	-2.967334e+02
2.000000e-07	-7.787951e-06	-4.514832e-09	-5.489059e+01	-2.966883e+02
2.100000e-07	-7.759296e-06	-4.490899e-09	-5.468862e+01	-2.966438e+02
2.200000e-07	-7.729338e-06	-4.563046e-09	-5.447747e+01	-2.965921e+02
2.300000e-07	-7.698024e-06	-4.550249e-09	-5.425676e+01	-2.965247e+02
2.400000e-07	-7.665388e-06	-4.485138e-09	-5.402674e+01	-2.964326e+02
2.500000e-07	-7.631294e-06	-4.510764e-09	-5.378645e+01	-2.963073e+02
2.600000e-07	-7.595706e-06	-4.528417e-09	-5.353561e+01	-2.961409e+02
2.700000e-07	-7.558678e-06	-4.528096e-09	-5.327464e+01	-2.959268e+02
2.800000e-07	-7.520276e-06	-4.504993e-09	-5.300397e+01	-2.956603e+02
2.900000e-07	-7.480589e-06	-4.462230e-09	-5.272426e+01	-2.953389e+02
3.000000e-07	-7.439546e-06	-4.480612e-09	-5.243498e+01	-2.949621e+02
3.100000e-07	-7.396988e-06	-4.506075e-09	-5.213502e+01	-2.945319e+02
3.200000e-07	-7.353000e-06	-4.471758e-09	-5.182499e+01	-2.940521e+02
3.300000e-07	-7.307703e-06	-4.438938e-09	-5.150573e+01	-2.935285e+02
3.400000e-07	-7.260988e-06	-4.451114e-09	-5.117647e+01	-2.929682e+02
3.500000e-07	-7.212838e-06	-4.449526e-09	-5.083711e+01	-2.923791e+02
3.600000e-07	-7.163053e-06	-4.438079e-09	-5.048621e+01	-2.917690e+02
3.700000e-07	-7.111520e-06	-4.438995e-09	-5.012300e+01	-2.911457e+02
3.800000e-07	-7.058623e-06	-4.405727e-09	-4.975018e+01	-2.905156e+02
3.900000e-07	-7.004616e-06	-4.394858e-09	-4.936953e+01	-2.898837e+02
4.000000e-07	-6.949413e-06	-4.422695e-09	-4.898045e+01	-2.892533e+02
4.100000e-07	-6.892926e-06	-4.402514e-09	-4.858232e+01	-2.886253e+02
4.200000e-07	-6.835130e-06	-4.363116e-09	-4.817497e+01	-2.879987e+02
4.300000e-07	-6.776107e-06	-4.361721e-09	-4.775897e+01	-2.873705e+02
4.400000e-07	-6.715896e-06	-4.372991e-09	-4.733459e+01	-2.867358e+02
4.500000e-07	-6.654501e-06	-4.355558e-09	-4.690187e+01	-2.860884e+02
4.600000e-07	-6.592042e-06	-4.329450e-09	-4.646165e+01	-2.854215e+02
4.700000e-07	-6.528526e-06	-4.316956e-09	-4.601398e+01	-2.847279e+02
4.800000e-07	-6.463843e-06	-4.310854e-09	-4.555808e+01	-2.840009e+02
4.900000e-07	-6.397844e-06	-4.306647e-09	-4.509291e+01	-2.832348e+02
5.000000e-07	-6.330614e-06	-4.288772e-09	-4.461907e+01	-2.824251e+02
5.100000e-07	-6.262379e-06	-4.270406e-09	-4.413813e+01	-2.815694e+02
5.200000e-07	-6.193240e-06	-4.264606e-09	-4.365083e+01	-2.806670e+02
5.300000e-07	-6.123153e-06	-4.256041e-09	-4.315685e+01	-2.797195e+02
5.400000e-07	-6.051954e-06	-4.240087e-09	-4.265503e+01	-2.787301e+02
5.500000e-07	-5.979588e-06	-4.222147e-09	-4.214498e+01	-2.777036e+02
5.600000e-07	-5.906150e-06	-4.200613e-09	-4.162738e+01	-2.766461e+02
5.700000e-07	-5.831519e-06	-4.182146e-09	-4.110137e+01	-2.755641e+02
5.800000e-07	-5.755619e-06	-4.171524e-09	-4.056642e+01	-2.744639e+02
5.900000e-07	-5.678529e-06	-4.150311e-09	-4.002308e+01	-2.733516e+02
6.000000e-07	-5.600303e-06	-4.127350e-09	-3.947173e+01	-2.722318e+02
6.100000e-07	-5.521003e-06	-4.118468e-09	-3.891282e+01	-2.711073e+02
6.200000e-07	-5.440579e-06	-4.111944e-09	-3.834598e+01	-2.699792e+02
6.300000e-07	-5.359033e-06	-4.090539e-09	-3.777123e+01	-2.688464e+02
6.400000e-07	-5.276624e-06	-4.064639e-09	-3.719040e+01	-2.677054e+02
6.500000e-07	-5.193434e-06	-4.048464e-09	-3.660406e+01	-2.665511e+02
6.600000e-07	-5.109380e-06	-4.026265e-09	-3.601164e+01	-2.653765e+02
6.700000e-07	-5.024511e-06	-4.003631e-09	-3.541347e+01	-2.641738e+02
6.800000e-07	-4.938853e-06	-3.981167e-09	-3.480973e+01	-2.629344e+02
6.900000e-07	-4.852501e-06	-3.959901e-09	-3.420112e+01	-2.616500e+02
7.000000e-07	-4.765258e-06	-3.942116e-09	-3.358621e+01	-2.603131e+02
7.100000e-07	-4.676950e-06	-3.923135e-09	-3.296381e+01	-2.589175e+02
7.200000e-07	-4.587752e-06	-3.902882e-09	-3.233512e+01	-2.574586e+02
7.300000e-07	-4.497817e-06	-3.875056e-09	-3.170126e+01	-2.559342e+02
7.400000e-07	-4.407092e-06	-3.851099e-09	-3.106181e+01	-2.543438e+02
7.500000e-07	-4.315473e-06	-3.827813e-09	-3.041607e+01	-2.526893e+02
7.600000e-07	-4.222985e-06	-3.798595e-09	-2.976420e+01	-2.509743e+02
7.700000e-07	-4.129698e-06	-3.766791e-09	-2.910670e+01	-2.492035e+02
7.800000e-07	-4.035766e-06	-3.737394e-09	-2.844465e+01	-2.473824e+02
7.900000e-07	-3.941345e-06	-3.716157e-09	-2.777916e+01	-2.455166e+02
8.000000e-07	-3.846251e-06	-3.691629e-09	-2.710892e+01	-2.436106e+02
8.100000e-07	-3.750259e-06	-3.661480e-09	-2.643236e+01	-2.416678e+02
8.200000e-07	-3.653525e-06	-3.631801e-09	-2.575056e+01	-2.396891e+02
8.300000e-07	-3.556232e-06	-3.603323e-09	-2.506483e+01	-2.376734e+02
8.400000e-07	-3.458387e-06	-3.573289e-09	-2.437520e+01	-2.356164e+02
8.500000e-07	-3.359887e-06	-3.536521e-09	-2.368096e+01	-2.335111e+02
8.600000e-07	-3.260772e-06	-3.497514e-09	-2.298238e+01	-2.313481e+02
8.700000e-07	-3.161079e-06	-3.461718e-09	-2.227973e+01	-2.291154e+02
8.800000e-07	-3.060854e-06	-3.426465e-09	-2.157334e+01	-2.268000e+02
8.900000e-07	-2.960165e-06	-3.390121e-09	-2.086366e+01	-2.243876e+02
9.000000e-07	-2.859016e-06	-3.347985e-09	-2.015075e+01	-2.218645e+02
9.100000e-07	-2.757532e-06	-3.305004e-09	-1.943548e+01	-2.192174e+02
9.200000e-07	-2.655644e-06	-3.265629e-09	-1.871736e+01	-2.164353e+02
9.300000e-07	-2.553224e-06	-3.222432e-09	-1.799549e+01	-2.135090e+02
9.400000e-07	-2.450396e-06	-3.172603e-09	-1.727074e+01	-2.104326e+02
9.500000e-07	-2.347214e-06	-3.120453e-09	-1.654350e+01	-2.072026e+02
9.600000e-07	-2.243524e-06	-3.070471e-09	-1.581267e+01	-2.038183e+02
9.700000e-07	-2.139332e-06	-3.019487e-09	-1.507832e+01	-2.002814e+02
9.800000e-07	-2.034750e-06	-2.963149e-09	-1.434120e+01	-1.965943e+02
9.900000e-07	-1.929749e-06	-2.902627e-09	-1.360114e+01	-1.927600e+02
1.000000e-06	-1.824360e-06	-2.841372e-09	-1.285835e+01	-1.887801e+02
1.010000e-06	-1.718681e-06	-2.779811e-09	-1.211351e+01	-1.846534e+02
1.020000e-06	-1.612717e-06	-2.715346e-09	-1.136666e+01	-1.803748e+02
1.030000e-06	-1.506421e-06	-2.648043e-09	-1.061747e+01	-1.759334e+02
1.040000e-06	-1.399786e-06	-2.577538e-09	-9.865891e+00	-1.713122e+02
1.050000e-06	-1.292811e-06	-2.502811e-09	-9.111912e+00	-1.664863e+02
1.060000e-06	-1.185502e-06	-2.424855e-09	-8.355584e+00	-1.614236e+02
1.070000e-06	-1.077909e-06	-2.341096e-09	-7.597254e+00	-1.560844e+02
1.080000e-06	-9.701158e-07	-2.249387e-09	-6.837514e+00	-1.504224e+02
1.090000e-06	-8.621316e-07	-2.153565e-09	-6.076426e+00	-1.443859e+02
1.100000e-06	-7.539595e-07	-2.054486e-09	-5.314014e+00	-1.379201e+02
1.110000e-06	-6.456983e-07	-1.951016e-09	-4.550973e+00	-1.309688e+02
1.120000e-06	-5.373701e-07	-1.837091e-09	-3.787461e+00	-1.234780e+02
1.130000e-06	-4.289493e-07	-1.711416e-09	-3.023296e+00	-1.153982e+02
1.140000e-06	-3.204587e-07	-1.576585e-09	-2.258638e+00	-1.066878e+02
1.150000e-06	-2.119203e-07	-1.433730e-09	-1.493645e+00	-9.731587e+01
1.160000e-06	-1.033759e-07	-1.283463e-09	-7.286082e-01	-8.726522e+01
1.170000e-06	5.177768e-09	-1.119323e-09	3.649365e-02	-7.653431e+01
1.180000e-06	1.137549e-07	-9.473078e-10	8.017606e-01	-6.513908e+01
1.190000e-06	2.223089e-07	-7.695891e-10	1.566864e+00	-5.311397e+01
1.200000e-06	3.308031e-07	-5.808636e-10	2.331547e+00	-4.051199e+01
1.210000e-06	4.392249e-07	-3.817905e-10	3.095719e+00	-2.740416e+01
1.220000e-06	5.475539e-07	-1.744106e-10	3.859238e+00	-1.387791e+01
1.230000e-06	6.557589e-07	3.499945e-11	4.621882e+00	-3.487353e-02
1.240000e-06	7.638494e-07	2.465529e-10	5.383719e+00	1.401214e+01
1.250000e-06	8.717891e-07	4.621805e-10	6.144493e+00	2.814267e+01
1.260000e-06	9.795732e-07	6.804391e-10	6.904171e+00	4.223255e+01
1.270000e-06	1.087172e-06	8.952571e-10	7.662542e+00	5.615798e+01
1.280000e-06	1.194427e-06	1.102326e-09	8.418493e+00	6.979968e+01
1.290000e-06	1.301286e-06	1.307590e-09	9.171649e+00	8.304681e+01
1.300000e-06	1.407833e-06	1.506157e-09	9.922610e+00	9.580042e+01
1.310000e-06	1.514119e-06	1.691617e-09	1.067172e+01	1.079764e+02
1.320000e-06	1.620083e-06	1.865029e-09	1.141858e+01	1.195077e+02
1.330000e-06	1.725751e-06	2.026952e-09	1.216334e+01	1.303459e+02
1.340000e-06	1.831249e-06	2.178086e-09	1.290691e+01	1.404615e+02
1.350000e-06	1.936505e-06	2.317668e-09	1.364876e+01	1.498439e+02
1.360000e-06	2.041426e-06	2.446317e-09	1.438826e+01	1.585001e+02
1.370000e-06	2.145975e-06	2.563746e-09	1.512514e+01	1.664533e+02
1.380000e-06	2.250119e-06	2.669458e-09	1.585916e+01	1.737402e+02
1.390000e-06	2.353812e-06	2.768409e-09	1.659000e+01	1.804081e+02
1.400000e-06	2.456960e-06	2.859721e-09	1.731701e+01	1.865122e+02
1.410000e-06	2.559682e-06	2.942084e-09	1.804100e+01	1.921121e+02
1.420000e-06	2.662087e-06	3.023710e-09	1.876277e+01	1.972689e+02
1.430000e-06	2.764136e-06	3.098370e-09	1.948202e+01	2.020422e+02
1.440000e-06	2.865709e-06	3.167603e-09	2.019792e+01	2.064880e+02
1.450000e-06	2.966760e-06	3.235740e-09	2.091015e+01	2.106562e+02
1.460000e-06	3.067407e-06	3.298139e-09	2.161952e+01	2.145899e+02
1.470000e-06	3.167620e-06	3.357577e-09	2.232583e+01	2.183239e+02
1.480000e-06	3.267268e-06	3.410386e-09	2.302817e+01	2.218849e+02
1.490000e-06	3.366276e-06	3.460224e-09	2.372599e+01	2.252920e+02
1.500000e-06	3.464604e-06	3.507300e-09	2.441902e+01	2.285569e+02
1.510000e-06	3.562284e-06	3.551106e-09	2.510748e+01	2.316854e+02
1.520000e-06	3.659294e-06	3.592636e-09	2.579123e+01	2.346791e+02
1.530000e-06	3.755471e-06	3.628716e-09	2.646909e+01	2.375362e+02
1.540000e-06	3.850774e-06	3.664482e-09	2.714080e+01	2.402537e+02
1.550000e-06	3.945388e-06	3.699978e-09	2.780766e+01	2.428287e+02
1.560000e-06	4.039363e-06	3.735399e-09	2.847000e+01	2.452591e+02
1.570000e-06	4.132656e-06	3.768197e-09	2.912755e+01	2.475452e+02
1.580000e-06	4.225282e-06	3.796434e-09	2.978039e+01	2.496902e+02
1.590000e-06	4.317238e-06	3.825114e-09	3.042850e+01	2.516999e+02
1.600000e-06	4.408419e-06	3.852379e-09	3.107116e+01	2.535833e+02
1.610000e-06	4.498756e-06	3.879006e-09	3.170787e+01	2.553521e+02
1.620000e-06	4.588208e-06	3.904678e-09	3.233834e+01	2.570196e+02
1.630000e-06	4.676644e-06	3.928491e-09	3.296165e+01	2.586006e+02
1.640000e-06	4.764095e-06	3.953163e-09	3.357802e+01	2.601100e+02
1.650000e-06	4.850771e-06	3.977254e-09	3.418892e+01	2.615620e+02
1.660000e-06	4.936785e-06	4.001267e-09	3.479516e+01	2.629695e+02
1.670000e-06	5.021992e-06	4.025050e-09	3.539571e+01	2.643432e+02
1.680000e-06	5.106375e-06	4.046792e-09	3.599045e+01	2.656911e+02
1.690000e-06	5.189942e-06	4.066990e-09	3.657945e+01	2.670181e+02
1.700000e-06	5.272649e-06	4.085799e-09	3.716238e+01	2.683262e+02
1.710000e-06	5.354565e-06	4.103741e-09	3.773973e+01	2.696148e+02
1.720000e-06	5.435548e-06	4.118852e-09	3.831052e+01	2.708804e+02
1.730000e-06	5.515531e-06	4.134244e-09	3.887424e+01	2.721180e+02
1.740000e-06	5.594583e-06	4.151988e-09	3.943142e+01	2.733214e+02
1.750000e-06	5.672619e-06	4.168514e-09	3.998142e+01	2.744840e+02
1.760000e-06	5.749575e-06	4.184297e-09	4.052382e+01	2.755994e+02
1.770000e-06	5.825517e-06	4.201820e-09	4.105907e+01	2.766622e+02
1.780000e-06	5.900409e-06	4.219735e-09	4.158692e+01	2.776688e+02
1.790000e-06	5.974066e-06	4.236067e-09	4.210606e+01	2.786173e+02
1.800000e-06	6.046477e-06	4.250789e-09	4.261643e+01	2.795080e+02
1.810000e-06	6.117788e-06	4.263895e-09	4.311904e+01	2.803434e+02
1.820000e-06	6.188051e-06	4.277180e-09	4.361426e+01	2.811281e+02
1.830000e-06	6.257256e-06	4.290309e-09	4.410203e+01	2.818682e+02
1.840000e-06	6.325461e-06	4.305316e-09	4.458274e+01	2.825710e+02
1.850000e-06	6.392699e-06	4.319354e-09	4.505665e+01	2.832445e+02
1.860000e-06	6.458781e-06	4.331961e-09	4.552240e+01	2.838967e+02
1.870000e-06	6.523426e-06	4.344286e-09	4.597803e+01	2.845350e+02
1.880000e-06	6.586830e-06	4.356930e-09	4.642491e+01	2.851658e+02
1.890000e-06	6.649237e-06	4.371153e-09	4.686476e+01	2.857938e+02
1.900000e-06	6.710554e-06	4.382396e-09	4.729694e+01	2.864222e+02
1.910000e-06	6.770750e-06	4.391508e-09	4.772121e+01	2.870520e+02
1.920000e-06	6.829932e-06	4.402076e-09	4.813833e+01	2.876826e+02
1.930000e-06	6.887891e-06	4.415199e-09	4.854683e+01	2.883114e+02
1.940000e-06	6.944315e-06	4.424892e-09	4.894452e+01	2.889346e+02
1.950000e-06	6.999423e-06	4.433629e-09	4.933293e+01	2.895475e+02
1.960000e-06	7.053354e-06	4.445342e-09	4.971304e+01	2.901448e+02
1.970000e-06	7.105965e-06	4.456478e-09	5.008385e+01	2.907212e+02
1.980000e-06	7.157110e-06	4.467106e-09	5.044433e+01	2.912719e+02
1.990000e-06	7.206668e-06	4.476238e-09	5.079362e+01	2.917932e+02
2.000000e-06	7.254676e-06	4.485096e-09	5.113198e+01	2.922825e+02
2.010000e-06	7.301436e-06	4.493184e-09	5.146156e+01	2.927386e+02
2.020000e-06	7.347023e-06	4.501796e-09	5.178286e+01	2.931618e+02
2.030000e-06	7.391315e-06	4.510330e-09	5.209504e+01	2.935539e+02
2.040000e-06	7.434389e-06	4.517977e-09	5.239863e+01	2.939180e+02
2.050000e-06	7.476079e-06	4.526802e-09	5.269246e+01	2.942580e+02
2.060000e-06	7.516202e-06	4.535755e-09	5.297526e+01	2.945784e+02
2.070000e-06	7.555054e-06	4.543858e-09	5.324910e+01	2.948841e+02
2.080000e-06	7.592772e-06	4.551147e-09	5.351494e+01	2.951794e+02
2.090000e-06	7.629268e-06	4.558560e-09	5.377216e+01	2.954682e+02
2.100000e-06	7.664580e-06	4.564915e-09	5.402105e+01	2.957534e+02
2.110000e-06	7.698505e-06	4.569660e-09	5.426015e+01	2.960367e+02
2.120000e-06	7.730865e-06	4.573257e-09	5.448823e+01	2.963187e+02
2.130000e-06	7.761864e-06	4.576195e-09	5.470672e+01	2.965983e+02
2.140000e-06	7.791615e-06	4.580748e-09	5.491641e+01	2.968738e+02
2.150000e-06	7.820106e-06	4.585695e-09	5.511722e+01	2.971421e+02
2.160000e-06	7.847376e-06	4.590883e-09	5.530942e+01	2.973999e+02
2.170000e-06	7.873199e-06	4.596130e-09	5.549142e+01	2.976431e+02
2.180000e-06	7.897444e-06	4.600101e-09	5.566231e+01	2.978683e+02
2.190000e-06	7.920271e-06	4.603182e-09	5.582319e+01	2.980720e+02
2.200000e-06	7.941781e-06	4.605519e-09	5.597480e+01	2.982518e+02
2.210000e-06	7.962060e-06	4.609218e-09	5.611773e+01	2.984062e+02
2.220000e-06	7.981192e-06	4.612741e-09	5.625258e+01	2.985348e+02
2.230000e-06	7.998955e-06	4.614989e-09	5.637777e+01	2.986383e+02
2.240000e-06	8.015147e-06	4.618598e-09	5.649189e+01	2.987185e+02
2.250000e-06	8.029805e-06	4.623713e-09	5.659520e+01	2.987784e+02
2.260000e-06	8.042978e-06	4.629015e-09	5.668805e+01	2.988212e+02
2.270000e-06	8.054668e-06	4.630267e-09	5.677045e+01	2.988508e+02
2.280000e-06	8.064669e-06	4.630641e-09	5.684093e+01	2.988709e+02
2.290000e-06	8.072972e-06	4.631604e-09	5.689945e+01	2.988848e+02
2.300000e-06	8.079792e-06	4.633716e-09	5.694752e+01	2.988955e+02
2.310000e-06	8.085225e-06	4.633694e-09	5.698582e+01	2.989048e+02
2.320000e-06	8.089323e-06	4.632716e-09	5.701470e+01	2.989136e+02
2.330000e-06	8.092029e-06	4.635661e-09	5.703377e+01	2.989216e+02
2.340000e-06	8.093126e-06	4.636664e-09	5.704150e+01	2.989278e+02
2.350000e-06	8.092740e-06	4.638403e-09	5.703878e+01	2.989299e+02
2.360000e-06	8.091120e-06	4.640094e-09	5.702737e+01	2.989254e+02
2.370000e-06	8.088245e-06	4.642311e-09	5.700710e+01	2.989113e+02
2.380000e-06	8.084091e-06	4.640021e-09	5.697782e+01	2.988846e+02
2.390000e-06	8.078600e-06	4.635123e-09	5.693912e+01	2.988428e+02
2.400000e-06	8.071598e-06	4.633413e-09	5.688977e+01	2.987842e+02
2.410000e-06	8.063206e-06	4.626838e-09	5.683062e+01	2.987081e+02
2.420000e-06	8.053636e-06	4.611242e-09	5.676317e+01	2.986147e+02
2.430000e-06	8.042814e-06	4.612153e-09	5.668689e+01	2.985058e+02
2.440000e-06	8.030418e-06	4.622106e-09	5.659953e+01	2.983841e+02
2.450000e-06	8.015925e-06	4.598036e-09	5.649738e+01	2.982536e+02
2.460000e-06	7.999257e-06	4.584800e-09	5.637990e+01	2.981188e+02
2.470000e-06	7.981089e-06	4.566486e-09	5.625185e+01	2.979847e+02
2.480000e-06	7.962104e-06	4.592843e-09	5.611804e+01	2.978561e+02
2.490000e-06	7.942328e-06	4.683164e-09	5.597865e+01	2.977373e+02
2.500000e-06	7.921208e-06	4.629614e-09	5.582980e+01	2.976318e+02
2.510000e-06	7.898327e-06	4.593974e-09	5.566853e+01	2.975415e+02
2.520000e-06	7.874107e-06	4.662068e-09	5.549782e+01	2.974668e+02
2.530000e-06	7.848762e-06	4.610320e-09	5.531919e+01	2.974063e+02
2.540000e-06	7.821995e-06	4.620035e-09	5.513053e+01	2.973565e+02
2.550000e-06	7.793955e-06	4.648633e-09	5.493290e+01	2.973122e+02
2.560000e-06	7.764751e-06	4.507066e-09	5.472707e+01	2.972667e+02
2.570000e-06	7.734071e-06	4.488602e-09	5.451083e+01	2.972119e+02
2.580000e-06	7.701842e-06	4.537159e-09	5.428368e+01	2.971392e+02
2.590000e-06	7.668227e-06	4.483296e-09	5.404675e+01	2.970396e+02
2.600000e-06	7.633402e-06	4.480658e-09	5.380130e+01	2.969047e+02
2.610000e-06	7.597415e-06	4.461663e-09	5.354766e+01	2.967269e+02
2.620000e-06	7.559965e-06	4.484366e-09	5.328371e+01	2.965001e+02
2.630000e-06	7.520897e-06	4.515921e-09	5.300835e+01	2.962200e+02
2.640000e-06	7.480368e-06	4.444410e-09	5.272269e+01	2.958847e+02
2.650000e-06	7.438592e-06	4.455926e-09	5.242825e+01	2.954943e+02
2.660000e-06	7.395613e-06	4.469413e-09	5.212533e+01	2.950512e+02
2.670000e-06	7.351365e-06	4.449891e-09	5.181347e+01	2.945599e+02
2.680000e-06	7.305819e-06	4.458422e-09	5.149245e+01	2.940265e+02
2.690000e-06	7.258844e-06	4.439968e-09	5.116137e+01	2.934582e+02
2.700000e-06	7.210574e-06	4.424215e-09	5.082115e+01	2.928631e+02
2.710000e-06	7.161000e-06	4.402662e-09	5.047174e+01	2.922491e+02
2.720000e-06	7.109864e-06	4.437891e-09	5.011133e+01	2.916235e+02
2.730000e-06	7.057235e-06	4.432200e-09	4.974039e+01	2.909925e+02
2.740000e-06	7.003117e-06	4.365054e-09	4.935896e+01	2.903608e+02
2.750000e-06	6.947572e-06	4.383623e-09	4.896747e+01	2.897310e+02
2.760000e-06	6.890736e-06	4.391448e-09	4.856689e+01	2.891035e+02
2.770000e-06	6.832724e-06	4.376822e-09	4.815801e+01	2.884769e+02
2.780000e-06	6.773660e-06	4.343861e-09	4.774172e+01	2.878476e+02
2.790000e-06	6.713463e-06	4.332099e-09	4.731744e+01	2.872104e+02
2.800000e-06	6.652045e-06	4.349400e-09	4.688456e+01	2.865588e+02
2.810000e-06	6.589359e-06	4.324379e-09	4.644274e+01	2.858859e+02
2.820000e-06	6.525471e-06	4.311055e-09	4.599245e+01	2.851845e+02
2.830000e-06	6.460448e-06	4.297781e-09	4.553416e+01	2.844482e+02
2.840000e-06	6.394310e-06	4.289878e-09	4.506800e+01	2.836715e+02
2.850000e-06	6.327125e-06	4.269957e-09	4.459448e+01	2.828505e+02
2.860000e-06	6.258878e-06	4.251469e-09	4.411346e+01	2.819831e+02
2.870000e-06	6.189496e-06	4.244743e-09	4.362445e+01	2.810693e+02
2.880000e-06	6.118974e-06	4.215684e-09	4.312740e+01	2.801109e+02
2.890000e-06	6.047284e-06	4.204513e-09	4.262212e+01	2.791117e+02
2.900000e-06	5.974452e-06	4.200817e-09	4.210879e+01	2.780769e+02
2.910000e-06	5.900656e-06	4.187973e-09	4.158866e+01	2.770126e+02
2.920000e-06	5.825898e-06	4.160510e-09	4.106176e+01	2.759255e+02
2.930000e-06	5.750001e-06	4.147584e-09	4.052682e+01	2.748218e+02
2.940000e-06	5.672843e-06	4.140039e-09	3.998300e+01	2.737073e+02
2.950000e-06	5.594520e-06	4.113902e-09	3.943097e+01	2.725860e+02
