# Temperatura_=_20.0
# Concentracion g/m^3_=_9000.0
# C_Vs_to_Am_M_A/Vsm_=_65563218390.804596
# pendiente_HvsI_1/m_=_3716.3
# ordenada_HvsI_A/m_=_1297.0
# frecuencia_Hz_=_212989.1716767809

Tiempo_(s)	Campo_(V.s)	Magnetizacion_(V.s)	Campo_(kA/m)	Magnetizacion_(A/m)
0.000000e+00	-8.046349e-06	-4.644055e-09	-5.691942e+01	-3.053092e+02
1.000000e-08	-8.045607e-06	-4.641969e-09	-5.691417e+01	-3.053220e+02
2.000000e-08	-8.043245e-06	-4.641885e-09	-5.689747e+01	-3.053259e+02
3.000000e-08	-8.039434e-06	-4.639344e-09	-5.687051e+01	-3.053169e+02
4.000000e-08	-8.034426e-06	-4.634790e-09	-5.683508e+01	-3.052914e+02
5.000000e-08	-8.028152e-06	-4.631175e-09	-5.679070e+01	-3.052466e+02
6.000000e-08	-8.020700e-06	-4.628782e-09	-5.673798e+01	-3.051803e+02
7.000000e-08	-8.011853e-06	-4.629681e-09	-5.667539e+01	-3.050919e+02
8.000000e-08	-8.001303e-06	-4.624545e-09	-5.660077e+01	-3.049820e+02
9.000000e-08	-7.989130e-06	-4.642375e-09	-5.651466e+01	-3.048526e+02
1.000000e-07	-7.975169e-06	-4.665911e-09	-5.641590e+01	-3.047071e+02
1.100000e-07	-7.959209e-06	-4.660357e-09	-5.630300e+01	-3.045500e+02
1.200000e-07	-7.941624e-06	-4.646413e-09	-5.617860e+01	-3.043864e+02
1.300000e-07	-7.922798e-06	-4.597348e-09	-5.604543e+01	-3.042219e+02
1.400000e-07	-7.903040e-06	-4.566156e-09	-5.590566e+01	-3.040616e+02
1.500000e-07	-7.882385e-06	-4.646033e-09	-5.575955e+01	-3.039102e+02
1.600000e-07	-7.860492e-06	-4.639575e-09	-5.560468e+01	-3.037711e+02
1.700000e-07	-7.837388e-06	-4.590314e-09	-5.544124e+01	-3.036462e+02
1.800000e-07	-7.813037e-06	-4.608827e-09	-5.526899e+01	-3.035356e+02
1.900000e-07	-7.787032e-06	-4.576948e-09	-5.508503e+01	-3.034374e+02
2.000000e-07	-7.759699e-06	-4.628876e-09	-5.489168e+01	-3.033477e+02
2.100000e-07	-7.731283e-06	-4.670437e-09	-5.469066e+01	-3.032609e+02
2.200000e-07	-7.701440e-06	-4.564620e-09	-5.447956e+01	-3.031697e+02
2.300000e-07	-7.670297e-06	-4.575369e-09	-5.425925e+01	-3.030660e+02
2.400000e-07	-7.637806e-06	-4.654862e-09	-5.402941e+01	-3.029408e+02
2.500000e-07	-7.603782e-06	-4.639686e-09	-5.378872e+01	-3.027854e+02
2.600000e-07	-7.568394e-06	-4.602832e-09	-5.353839e+01	-3.025916e+02
2.700000e-07	-7.531598e-06	-4.549807e-09	-5.327810e+01	-3.023524e+02
2.800000e-07	-7.493373e-06	-4.579924e-09	-5.300770e+01	-3.020625e+02
2.900000e-07	-7.454016e-06	-4.612780e-09	-5.272929e+01	-3.017185e+02
3.000000e-07	-7.413341e-06	-4.578014e-09	-5.244156e+01	-3.013194e+02
3.100000e-07	-7.371022e-06	-4.538037e-09	-5.214220e+01	-3.008661e+02
3.200000e-07	-7.327222e-06	-4.522701e-09	-5.183236e+01	-3.003621e+02
3.300000e-07	-7.282046e-06	-4.563594e-09	-5.151278e+01	-2.998125e+02
3.400000e-07	-7.235559e-06	-4.565613e-09	-5.118394e+01	-2.992239e+02
3.500000e-07	-7.187851e-06	-4.531782e-09	-5.084645e+01	-2.986039e+02
3.600000e-07	-7.138447e-06	-4.496104e-09	-5.049697e+01	-2.979602e+02
3.700000e-07	-7.087210e-06	-4.499722e-09	-5.013452e+01	-2.973004e+02
3.800000e-07	-7.034608e-06	-4.544681e-09	-4.976242e+01	-2.966312e+02
3.900000e-07	-6.980803e-06	-4.510546e-09	-4.938181e+01	-2.959576e+02
4.000000e-07	-6.925802e-06	-4.453660e-09	-4.899273e+01	-2.952833e+02
4.100000e-07	-6.869565e-06	-4.456935e-09	-4.859492e+01	-2.946095e+02
4.200000e-07	-6.812028e-06	-4.485571e-09	-4.818790e+01	-2.939354e+02
4.300000e-07	-6.753239e-06	-4.476174e-09	-4.777203e+01	-2.932585e+02
4.400000e-07	-6.693269e-06	-4.424957e-09	-4.734781e+01	-2.925739e+02
4.500000e-07	-6.632090e-06	-4.412633e-09	-4.691503e+01	-2.918759e+02
4.600000e-07	-6.569814e-06	-4.422989e-09	-4.647450e+01	-2.911577e+02
4.700000e-07	-6.506615e-06	-4.420473e-09	-4.602743e+01	-2.904121e+02
4.800000e-07	-6.442258e-06	-4.395309e-09	-4.557217e+01	-2.896325e+02
4.900000e-07	-6.376499e-06	-4.362458e-09	-4.510700e+01	-2.888129e+02
5.000000e-07	-6.309563e-06	-4.356968e-09	-4.463349e+01	-2.879488e+02
5.100000e-07	-6.241635e-06	-4.364131e-09	-4.415298e+01	-2.870374e+02
5.200000e-07	-6.172691e-06	-4.355197e-09	-4.366527e+01	-2.860779e+02
5.300000e-07	-6.102753e-06	-4.317249e-09	-4.317053e+01	-2.850715e+02
5.400000e-07	-6.031822e-06	-4.295345e-09	-4.266877e+01	-2.840212e+02
5.500000e-07	-5.959861e-06	-4.303544e-09	-4.215973e+01	-2.829316e+02
5.600000e-07	-5.886832e-06	-4.297109e-09	-4.164312e+01	-2.818085e+02
5.700000e-07	-5.812578e-06	-4.261939e-09	-4.111785e+01	-2.806583e+02
5.800000e-07	-5.737003e-06	-4.228679e-09	-4.058324e+01	-2.794874e+02
5.900000e-07	-5.660262e-06	-4.223025e-09	-4.004038e+01	-2.783016e+02
6.000000e-07	-5.582470e-06	-4.218150e-09	-3.949008e+01	-2.771058e+02
6.100000e-07	-5.503555e-06	-4.190796e-09	-3.893184e+01	-2.759028e+02
6.200000e-07	-5.423470e-06	-4.162436e-09	-3.836532e+01	-2.746939e+02
6.300000e-07	-5.342211e-06	-4.149230e-09	-3.779050e+01	-2.734782e+02
6.400000e-07	-5.260001e-06	-4.137397e-09	-3.720895e+01	-2.722524e+02
6.500000e-07	-5.177076e-06	-4.114552e-09	-3.662234e+01	-2.710117e+02
6.600000e-07	-5.093377e-06	-4.083978e-09	-3.603026e+01	-2.697493e+02
6.700000e-07	-5.008831e-06	-4.062483e-09	-3.543219e+01	-2.684575e+02
6.800000e-07	-4.923440e-06	-4.046478e-09	-3.482814e+01	-2.671281e+02
6.900000e-07	-4.837298e-06	-4.026999e-09	-3.421877e+01	-2.657529e+02
7.000000e-07	-4.750399e-06	-4.000912e-09	-3.360405e+01	-2.643247e+02
7.100000e-07	-4.662580e-06	-3.972945e-09	-3.298283e+01	-2.628373e+02
7.200000e-07	-4.573698e-06	-3.955833e-09	-3.235408e+01	-2.612863e+02
7.300000e-07	-4.483913e-06	-3.937201e-09	-3.171895e+01	-2.596695e+02
7.400000e-07	-4.393467e-06	-3.908227e-09	-3.107914e+01	-2.579866e+02
7.500000e-07	-4.302277e-06	-3.873147e-09	-3.043407e+01	-2.562396e+02
7.600000e-07	-4.210160e-06	-3.847664e-09	-2.978244e+01	-2.544319e+02
7.700000e-07	-4.117212e-06	-3.827295e-09	-2.912493e+01	-2.525685e+02
7.800000e-07	-4.023645e-06	-3.795146e-09	-2.846304e+01	-2.506549e+02
7.900000e-07	-3.929520e-06	-3.760557e-09	-2.779720e+01	-2.486965e+02
8.000000e-07	-3.834743e-06	-3.733201e-09	-2.712675e+01	-2.466981e+02
8.100000e-07	-3.739235e-06	-3.711410e-09	-2.645113e+01	-2.446628e+02
8.200000e-07	-3.642988e-06	-3.681397e-09	-2.577029e+01	-2.425920e+02
8.300000e-07	-3.546026e-06	-3.641999e-09	-2.508439e+01	-2.404841e+02
8.400000e-07	-3.448485e-06	-3.606879e-09	-2.439439e+01	-2.383352e+02
8.500000e-07	-3.350370e-06	-3.574545e-09	-2.370033e+01	-2.361382e+02
8.600000e-07	-3.251627e-06	-3.540650e-09	-2.300183e+01	-2.338835e+02
8.700000e-07	-3.152376e-06	-3.503134e-09	-2.229973e+01	-2.315596e+02
8.800000e-07	-3.052617e-06	-3.461949e-09	-2.159404e+01	-2.291531e+02
8.900000e-07	-2.952279e-06	-3.423282e-09	-2.088425e+01	-2.266502e+02
9.000000e-07	-2.851376e-06	-3.384193e-09	-2.017047e+01	-2.240369e+02
9.100000e-07	-2.750061e-06	-3.340611e-09	-1.945377e+01	-2.213003e+02
9.200000e-07	-2.648475e-06	-3.292882e-09	-1.873517e+01	-2.184293e+02
9.300000e-07	-2.546535e-06	-3.244283e-09	-1.801405e+01	-2.154151e+02
9.400000e-07	-2.444194e-06	-3.199829e-09	-1.729009e+01	-2.122517e+02
9.500000e-07	-2.341523e-06	-3.153286e-09	-1.656380e+01	-2.089359e+02
9.600000e-07	-2.238410e-06	-3.100108e-09	-1.583438e+01	-2.054673e+02
9.700000e-07	-2.134803e-06	-3.046200e-09	-1.510147e+01	-2.018475e+02
9.800000e-07	-2.030652e-06	-2.991007e-09	-1.436471e+01	-1.980792e+02
9.900000e-07	-1.925979e-06	-2.933185e-09	-1.362427e+01	-1.941654e+02
1.000000e-06	-1.820931e-06	-2.869909e-09	-1.288116e+01	-1.901077e+02
1.010000e-06	-1.715506e-06	-2.802332e-09	-1.213540e+01	-1.859048e+02
1.020000e-06	-1.609786e-06	-2.736813e-09	-1.138753e+01	-1.815516e+02
1.030000e-06	-1.503806e-06	-2.670154e-09	-1.063784e+01	-1.770370e+02
1.040000e-06	-1.397578e-06	-2.598867e-09	-9.886390e+00	-1.723434e+02
1.050000e-06	-1.291080e-06	-2.522384e-09	-9.133027e+00	-1.674458e+02
1.060000e-06	-1.184304e-06	-2.443318e-09	-8.377703e+00	-1.623116e+02
1.070000e-06	-1.077305e-06	-2.360066e-09	-7.620798e+00	-1.569006e+02
1.080000e-06	-9.700659e-07	-2.268857e-09	-6.862192e+00	-1.511658e+02
1.090000e-06	-8.625309e-07	-2.173102e-09	-6.101495e+00	-1.450552e+02
1.100000e-06	-7.548024e-07	-2.069615e-09	-5.339430e+00	-1.385133e+02
1.110000e-06	-6.469533e-07	-1.961410e-09	-4.576511e+00	-1.314836e+02
1.120000e-06	-5.389591e-07	-1.849849e-09	-3.812567e+00	-1.239116e+02
1.130000e-06	-4.308488e-07	-1.726478e-09	-3.047800e+00	-1.157475e+02
1.140000e-06	-3.226562e-07	-1.590532e-09	-2.282452e+00	-1.069496e+02
1.150000e-06	-2.144039e-07	-1.447411e-09	-1.516681e+00	-9.748704e+01
1.160000e-06	-1.060909e-07	-1.299147e-09	-7.504811e-01	-8.734267e+01
1.170000e-06	2.214714e-09	-1.137314e-09	1.566676e-02	-7.651524e+01
1.180000e-06	1.104407e-07	-9.623179e-10	7.812516e-01	-6.502112e+01
1.190000e-06	2.186299e-07	-7.819294e-10	1.546576e+00	-5.289526e+01
1.200000e-06	3.268161e-07	-5.930470e-10	2.311879e+00	-4.019127e+01
1.210000e-06	4.349182e-07	-3.930258e-10	3.076587e+00	-2.698082e+01
1.220000e-06	5.428482e-07	-1.853948e-10	3.840078e+00	-1.335200e+01
1.230000e-06	6.505638e-07	2.770371e-11	4.602052e+00	5.929063e-01
1.240000e-06	7.580865e-07	2.420101e-10	5.362661e+00	1.474054e+01
1.250000e-06	8.653721e-07	4.553825e-10	6.121594e+00	2.896996e+01
1.260000e-06	9.724599e-07	6.719724e-10	6.879126e+00	4.315665e+01
1.270000e-06	1.079360e-06	8.887339e-10	7.635332e+00	5.717662e+01
1.280000e-06	1.186037e-06	1.101854e-09	8.389960e+00	7.091055e+01
1.290000e-06	1.292478e-06	1.305361e-09	9.142917e+00	8.424767e+01
1.300000e-06	1.398632e-06	1.500848e-09	9.893846e+00	9.708928e+01
1.310000e-06	1.504576e-06	1.689675e-09	1.064329e+01	1.093516e+02
1.320000e-06	1.610280e-06	1.866230e-09	1.139103e+01	1.209682e+02
1.330000e-06	1.715716e-06	2.030980e-09	1.213688e+01	1.318908e+02
1.340000e-06	1.820872e-06	2.181850e-09	1.288075e+01	1.420906e+02
1.350000e-06	1.925705e-06	2.323468e-09	1.362233e+01	1.515573e+02
1.360000e-06	2.030097e-06	2.452376e-09	1.436079e+01	1.602986e+02
1.370000e-06	2.134038e-06	2.568489e-09	1.509606e+01	1.683375e+02
1.380000e-06	2.237633e-06	2.673987e-09	1.582889e+01	1.757110e+02
1.390000e-06	2.340854e-06	2.771363e-09	1.655907e+01	1.824664e+02
1.400000e-06	2.443685e-06	2.865035e-09	1.728649e+01	1.886586e+02
1.410000e-06	2.546125e-06	2.951735e-09	1.801115e+01	1.943467e+02
1.420000e-06	2.648154e-06	3.034462e-09	1.873290e+01	1.995915e+02
1.430000e-06	2.749760e-06	3.112618e-09	1.945165e+01	2.044520e+02
1.440000e-06	2.850984e-06	3.186639e-09	2.016770e+01	2.089834e+02
1.450000e-06	2.951792e-06	3.257601e-09	2.088081e+01	2.132350e+02
1.460000e-06	3.052175e-06	3.320222e-09	2.159092e+01	2.172494e+02
1.470000e-06	3.152034e-06	3.377021e-09	2.229731e+01	2.210607e+02
1.480000e-06	3.251240e-06	3.430921e-09	2.299909e+01	2.246955e+02
1.490000e-06	3.349832e-06	3.482256e-09	2.369652e+01	2.281723e+02
1.500000e-06	3.447821e-06	3.528598e-09	2.438969e+01	2.315030e+02
1.510000e-06	3.545162e-06	3.571570e-09	2.507828e+01	2.346938e+02
1.520000e-06	3.641779e-06	3.616007e-09	2.576174e+01	2.377464e+02
1.530000e-06	3.737609e-06	3.659459e-09	2.643964e+01	2.406598e+02
1.540000e-06	3.832674e-06	3.697660e-09	2.711212e+01	2.434318e+02
1.550000e-06	3.927064e-06	3.731440e-09	2.777983e+01	2.460602e+02
1.560000e-06	4.020773e-06	3.766109e-09	2.844272e+01	2.485440e+02
1.570000e-06	4.113806e-06	3.799810e-09	2.910083e+01	2.508845e+02
1.580000e-06	4.206198e-06	3.829779e-09	2.975441e+01	2.530856e+02
1.590000e-06	4.297857e-06	3.858524e-09	3.040280e+01	2.551540e+02
1.600000e-06	4.388679e-06	3.887025e-09	3.104527e+01	2.570993e+02
1.610000e-06	4.478698e-06	3.916519e-09	3.168206e+01	2.589333e+02
1.620000e-06	4.567800e-06	3.947850e-09	3.231236e+01	2.606698e+02
1.630000e-06	4.655909e-06	3.975384e-09	3.293564e+01	2.623232e+02
1.640000e-06	4.743204e-06	3.998762e-09	3.355316e+01	2.639081e+02
1.650000e-06	4.829744e-06	4.023576e-09	3.416534e+01	2.654381e+02
1.660000e-06	4.915450e-06	4.049099e-09	3.477162e+01	2.669253e+02
1.670000e-06	5.000353e-06	4.071969e-09	3.537222e+01	2.683794e+02
1.680000e-06	5.084508e-06	4.090568e-09	3.596752e+01	2.698074e+02
1.690000e-06	5.167876e-06	4.108285e-09	3.655726e+01	2.712133e+02
1.700000e-06	5.250408e-06	4.130162e-09	3.714109e+01	2.725981e+02
1.710000e-06	5.332058e-06	4.152444e-09	3.771868e+01	2.739603e+02
1.720000e-06	5.412740e-06	4.171104e-09	3.828942e+01	2.752959e+02
1.730000e-06	5.492444e-06	4.189539e-09	3.885324e+01	2.765997e+02
1.740000e-06	5.571204e-06	4.208085e-09	3.941038e+01	2.778651e+02
1.750000e-06	5.648957e-06	4.226049e-09	3.996041e+01	2.790857e+02
1.760000e-06	5.725684e-06	4.240251e-09	4.050317e+01	2.802557e+02
1.770000e-06	5.801397e-06	4.254164e-09	4.103876e+01	2.813703e+02
1.780000e-06	5.876009e-06	4.271133e-09	4.156655e+01	2.824267e+02
1.790000e-06	5.949407e-06	4.288036e-09	4.208577e+01	2.834240e+02
1.800000e-06	6.021604e-06	4.303324e-09	4.259649e+01	2.843636e+02
1.810000e-06	6.092748e-06	4.317863e-09	4.309976e+01	2.852490e+02
1.820000e-06	6.162905e-06	4.333694e-09	4.359604e+01	2.860857e+02
1.830000e-06	6.232038e-06	4.350411e-09	4.408509e+01	2.868806e+02
1.840000e-06	6.300118e-06	4.364088e-09	4.456668e+01	2.876417e+02
1.850000e-06	6.367177e-06	4.374624e-09	4.504105e+01	2.883770e+02
1.860000e-06	6.433105e-06	4.385081e-09	4.550742e+01	2.890947e+02
1.870000e-06	6.497676e-06	4.397086e-09	4.596419e+01	2.898018e+02
1.880000e-06	6.561016e-06	4.409774e-09	4.641226e+01	2.905040e+02
1.890000e-06	6.623276e-06	4.421272e-09	4.685268e+01	2.912055e+02
1.900000e-06	6.684425e-06	4.434669e-09	4.728525e+01	2.919080e+02
1.910000e-06	6.744493e-06	4.445613e-09	4.771016e+01	2.926117e+02
1.920000e-06	6.803427e-06	4.457154e-09	4.812706e+01	2.933145e+02
1.930000e-06	6.861046e-06	4.468552e-09	4.853466e+01	2.940128e+02
1.940000e-06	6.917202e-06	4.477594e-09	4.893190e+01	2.947016e+02
1.950000e-06	6.972088e-06	4.488640e-09	4.932016e+01	2.953752e+02
1.960000e-06	7.025829e-06	4.499679e-09	4.970032e+01	2.960276e+02
1.970000e-06	7.078307e-06	4.511118e-09	5.007154e+01	2.966533e+02
1.980000e-06	7.129282e-06	4.520058e-09	5.043214e+01	2.972473e+02
1.990000e-06	7.178576e-06	4.529448e-09	5.078084e+01	2.978062e+02
2.000000e-06	7.226414e-06	4.540052e-09	5.111925e+01	2.983279e+02
2.010000e-06	7.272992e-06	4.550048e-09	5.144873e+01	2.988120e+02
2.020000e-06	7.318350e-06	4.559263e-09	5.176960e+01	2.992599e+02
2.030000e-06	7.362565e-06	4.566606e-09	5.208237e+01	2.996747e+02
2.040000e-06	7.405575e-06	4.577355e-09	5.238662e+01	3.000607e+02
2.050000e-06	7.447127e-06	4.588042e-09	5.268056e+01	3.004230e+02
2.060000e-06	7.487193e-06	4.595800e-09	5.296398e+01	3.007675e+02
2.070000e-06	7.525995e-06	4.601447e-09	5.323847e+01	3.010998e+02
2.080000e-06	7.563565e-06	4.607762e-09	5.350423e+01	3.014252e+02
2.090000e-06	7.599913e-06	4.616875e-09	5.376136e+01	3.017480e+02
2.100000e-06	7.635077e-06	4.624925e-09	5.401010e+01	3.020713e+02
2.110000e-06	7.668832e-06	4.631036e-09	5.424889e+01	3.023967e+02
2.120000e-06	7.701139e-06	4.636273e-09	5.447743e+01	3.027242e+02
2.130000e-06	7.732224e-06	4.642124e-09	5.469732e+01	3.030524e+02
2.140000e-06	7.762035e-06	4.649953e-09	5.490820e+01	3.033782e+02
2.150000e-06	7.790588e-06	4.656495e-09	5.511018e+01	3.036978e+02
2.160000e-06	7.817939e-06	4.662831e-09	5.530366e+01	3.040064e+02
2.170000e-06	7.843701e-06	4.666987e-09	5.548590e+01	3.042992e+02
2.180000e-06	7.867830e-06	4.667900e-09	5.565659e+01	3.045713e+02
2.190000e-06	7.890631e-06	4.670287e-09	5.581788e+01	3.048185e+02
2.200000e-06	7.912141e-06	4.672872e-09	5.597004e+01	3.050377e+02
2.210000e-06	7.932407e-06	4.678465e-09	5.611340e+01	3.052267e+02
2.220000e-06	7.951479e-06	4.683506e-09	5.624832e+01	3.053851e+02
2.230000e-06	7.969162e-06	4.688063e-09	5.637340e+01	3.055137e+02
2.240000e-06	7.985414e-06	4.693906e-09	5.648837e+01	3.056146e+02
2.250000e-06	8.000158e-06	4.697784e-09	5.659266e+01	3.056911e+02
2.260000e-06	8.013312e-06	4.700750e-09	5.668572e+01	3.057474e+02
2.270000e-06	8.024914e-06	4.698389e-09	5.676779e+01	3.057882e+02
2.280000e-06	8.034801e-06	4.697924e-09	5.683773e+01	3.058180e+02
2.290000e-06	8.043031e-06	4.702099e-09	5.689595e+01	3.058411e+02
2.300000e-06	8.049892e-06	4.704393e-09	5.694448e+01	3.058611e+02
2.310000e-06	8.055424e-06	4.704756e-09	5.698362e+01	3.058805e+02
2.320000e-06	8.059612e-06	4.705449e-09	5.701324e+01	3.059007e+02
2.330000e-06	8.062450e-06	4.709904e-09	5.703332e+01	3.059215e+02
2.340000e-06	8.063607e-06	4.712722e-09	5.704150e+01	3.059417e+02
2.350000e-06	8.063200e-06	4.714377e-09	5.703862e+01	3.059589e+02
2.360000e-06	8.061599e-06	4.713227e-09	5.702730e+01	3.059699e+02
2.370000e-06	8.058715e-06	4.710871e-09	5.700689e+01	3.059709e+02
2.380000e-06	8.054624e-06	4.710912e-09	5.697795e+01	3.059581e+02
2.390000e-06	8.049252e-06	4.708688e-09	5.693996e+01	3.059281e+02
2.400000e-06	8.042313e-06	4.707232e-09	5.689087e+01	3.058781e+02
2.410000e-06	8.034000e-06	4.707723e-09	5.683207e+01	3.058064e+02
2.420000e-06	8.024506e-06	4.711834e-09	5.676490e+01	3.057125e+02
2.430000e-06	8.013799e-06	4.690095e-09	5.668916e+01	3.055975e+02
2.440000e-06	8.001557e-06	4.653178e-09	5.660256e+01	3.054638e+02
2.450000e-06	7.987113e-06	4.650162e-09	5.650039e+01	3.053150e+02
2.460000e-06	7.970493e-06	4.649645e-09	5.638282e+01	3.051558e+02
2.470000e-06	7.952406e-06	4.716575e-09	5.625487e+01	3.049915e+02
2.480000e-06	7.933398e-06	4.743464e-09	5.612041e+01	3.048276e+02
2.490000e-06	7.913756e-06	4.653589e-09	5.598146e+01	3.046692e+02
2.500000e-06	7.892864e-06	4.704448e-09	5.583368e+01	3.045206e+02
2.510000e-06	7.870098e-06	4.701786e-09	5.567263e+01	3.043850e+02
2.520000e-06	7.846104e-06	4.695932e-09	5.550290e+01	3.042638e+02
2.530000e-06	7.820992e-06	4.767686e-09	5.532526e+01	3.041566e+02
2.540000e-06	7.794274e-06	4.630664e-09	5.513625e+01	3.040610e+02
2.550000e-06	7.766405e-06	4.621493e-09	5.493912e+01	3.039726e+02
2.560000e-06	7.737487e-06	4.731842e-09	5.473455e+01	3.038855e+02
2.570000e-06	7.706986e-06	4.604952e-09	5.451879e+01	3.037920e+02
2.580000e-06	7.674871e-06	4.556475e-09	5.429161e+01	3.036837e+02
2.590000e-06	7.641376e-06	4.605911e-09	5.405466e+01	3.035519e+02
2.600000e-06	7.606715e-06	4.621702e-09	5.380948e+01	3.033876e+02
2.610000e-06	7.570914e-06	4.680144e-09	5.355622e+01	3.031832e+02
2.620000e-06	7.533618e-06	4.574501e-09	5.329239e+01	3.029318e+02
2.630000e-06	7.494660e-06	4.564293e-09	5.301680e+01	3.026286e+02
2.640000e-06	7.454305e-06	4.620547e-09	5.273133e+01	3.022709e+02
2.650000e-06	7.412716e-06	4.588099e-09	5.243714e+01	3.018580e+02
2.660000e-06	7.369832e-06	4.637476e-09	5.213378e+01	3.013917e+02
2.670000e-06	7.325795e-06	4.544063e-09	5.182226e+01	3.008758e+02
2.680000e-06	7.280487e-06	4.518396e-09	5.150175e+01	3.003158e+02
2.690000e-06	7.233670e-06	4.589709e-09	5.117058e+01	2.997187e+02
2.700000e-06	7.185650e-06	4.582746e-09	5.083089e+01	2.990921e+02
2.710000e-06	7.136339e-06	4.556731e-09	5.048206e+01	2.984437e+02
2.720000e-06	7.085479e-06	4.462308e-09	5.012228e+01	2.977810e+02
2.730000e-06	7.033154e-06	4.532830e-09	4.975213e+01	2.971103e+02
2.740000e-06	6.979424e-06	4.567487e-09	4.937205e+01	2.964364e+02
2.750000e-06	6.924287e-06	4.494880e-09	4.898201e+01	2.957621e+02
2.760000e-06	6.867750e-06	4.477557e-09	4.858208e+01	2.950885e+02
2.770000e-06	6.809999e-06	4.461403e-09	4.817355e+01	2.944141e+02
2.780000e-06	6.751113e-06	4.506179e-09	4.775699e+01	2.937357e+02
2.790000e-06	6.691115e-06	4.465046e-09	4.733257e+01	2.930485e+02
2.800000e-06	6.629932e-06	4.442731e-09	4.689977e+01	2.923461e+02
2.810000e-06	6.567419e-06	4.436471e-09	4.645755e+01	2.916217e+02
2.820000e-06	6.503714e-06	4.409435e-09	4.600690e+01	2.908683e+02
2.830000e-06	6.438899e-06	4.430485e-09	4.554841e+01	2.900792e+02
2.840000e-06	6.373011e-06	4.404711e-09	4.508232e+01	2.892489e+02
2.850000e-06	6.306130e-06	4.381555e-09	4.460921e+01	2.883732e+02
2.860000e-06	6.238178e-06	4.349682e-09	4.412852e+01	2.874498e+02
2.870000e-06	6.169071e-06	4.362317e-09	4.363966e+01	2.864784e+02
2.880000e-06	6.098799e-06	4.352667e-09	4.314256e+01	2.854607e+02
2.890000e-06	6.027371e-06	4.305378e-09	4.263728e+01	2.844001e+02
2.900000e-06	5.954840e-06	4.295482e-09	4.212420e+01	2.833016e+02
2.910000e-06	5.881360e-06	4.296032e-09	4.160441e+01	2.821712e+02
2.920000e-06	5.806983e-06	4.292007e-09	4.107827e+01	2.810152e+02
2.930000e-06	5.731597e-06	4.248085e-09	4.054499e+01	2.798402e+02
2.940000e-06	5.654917e-06	4.234586e-09	4.000256e+01	2.786516e+02
2.950000e-06	5.576925e-06	4.229180e-09	3.945085e+01	2.774537e+02
