# Temperatura_=_20.0
# Concentracion g/m^3_=_9000.0
# C_Vs_to_Am_M_A/Vsm_=_65563218390.804596
# pendiente_HvsI_1/m_=_3716.3
# ordenada_HvsI_A/m_=_1297.0
# frecuencia_Hz_=_300784.04238345486

Tiempo_(s)	Campo_(V.s)	Magnetizacion_(V.s)	Campo_(kA/m)	Magnetizacion_(A/m)
0.000000e+00	-4.048968e-06	-3.537834e-09	-2.906964e+01	-2.329755e+02
1.000000e-08	-4.047419e-06	-3.542107e-09	-2.905852e+01	-2.329532e+02
2.000000e-08	-4.044349e-06	-3.543296e-09	-2.903648e+01	-2.328972e+02
3.000000e-08	-4.040050e-06	-3.541459e-09	-2.900561e+01	-2.328084e+02
4.000000e-08	-4.034576e-06	-3.538694e-09	-2.896631e+01	-2.326895e+02
5.000000e-08	-4.027887e-06	-3.535122e-09	-2.891829e+01	-2.325442e+02
6.000000e-08	-4.019959e-06	-3.530029e-09	-2.886137e+01	-2.323774e+02
7.000000e-08	-4.010497e-06	-3.517104e-09	-2.879344e+01	-2.321942e+02
8.000000e-08	-3.999312e-06	-3.515889e-09	-2.871314e+01	-2.319995e+02
9.000000e-08	-3.986354e-06	-3.559362e-09	-2.862010e+01	-2.317972e+02
1.000000e-07	-3.971319e-06	-3.594304e-09	-2.851215e+01	-2.315895e+02
1.100000e-07	-3.954434e-06	-3.562734e-09	-2.839093e+01	-2.313762e+02
1.200000e-07	-3.936357e-06	-3.455216e-09	-2.826114e+01	-2.311548e+02
1.300000e-07	-3.917354e-06	-3.394477e-09	-2.812472e+01	-2.309202e+02
1.400000e-07	-3.897425e-06	-3.532773e-09	-2.798163e+01	-2.306650e+02
1.500000e-07	-3.876502e-06	-3.587895e-09	-2.783141e+01	-2.303805e+02
1.600000e-07	-3.854510e-06	-3.448090e-09	-2.767352e+01	-2.300574e+02
1.700000e-07	-3.831016e-06	-3.428056e-09	-2.750485e+01	-2.296864e+02
1.800000e-07	-3.805613e-06	-3.430146e-09	-2.732247e+01	-2.292597e+02
1.900000e-07	-3.778831e-06	-3.448312e-09	-2.713019e+01	-2.287718e+02
2.000000e-07	-3.751083e-06	-3.567480e-09	-2.693097e+01	-2.282195e+02
2.100000e-07	-3.722005e-06	-3.474825e-09	-2.672220e+01	-2.276029e+02
2.200000e-07	-3.691587e-06	-3.334573e-09	-2.650382e+01	-2.269249e+02
2.300000e-07	-3.660131e-06	-3.473585e-09	-2.627798e+01	-2.261909e+02
2.400000e-07	-3.627452e-06	-3.548824e-09	-2.604335e+01	-2.254080e+02
2.500000e-07	-3.593214e-06	-3.420099e-09	-2.579754e+01	-2.245841e+02
2.600000e-07	-3.557534e-06	-3.340633e-09	-2.554138e+01	-2.237271e+02
2.700000e-07	-3.520677e-06	-3.352514e-09	-2.527677e+01	-2.228435e+02
2.800000e-07	-3.482684e-06	-3.448016e-09	-2.500400e+01	-2.219382e+02
2.900000e-07	-3.443477e-06	-3.425437e-09	-2.472250e+01	-2.210137e+02
3.000000e-07	-3.403029e-06	-3.292820e-09	-2.443211e+01	-2.200696e+02
3.100000e-07	-3.361243e-06	-3.316933e-09	-2.413211e+01	-2.191035e+02
3.200000e-07	-3.318081e-06	-3.359478e-09	-2.382223e+01	-2.181107e+02
3.300000e-07	-3.273762e-06	-3.319688e-09	-2.350403e+01	-2.170855e+02
3.400000e-07	-3.228363e-06	-3.324027e-09	-2.317809e+01	-2.160213e+02
3.500000e-07	-3.181790e-06	-3.281531e-09	-2.284372e+01	-2.149122e+02
3.600000e-07	-3.134063e-06	-3.207636e-09	-2.250107e+01	-2.137529e+02
3.700000e-07	-3.085071e-06	-3.269515e-09	-2.214932e+01	-2.125397e+02
3.800000e-07	-3.034508e-06	-3.301857e-09	-2.178631e+01	-2.112706e+02
3.900000e-07	-2.982441e-06	-3.178699e-09	-2.141249e+01	-2.099450e+02
4.000000e-07	-2.929261e-06	-3.125274e-09	-2.103068e+01	-2.085638e+02
4.100000e-07	-2.875173e-06	-3.213452e-09	-2.064236e+01	-2.071286e+02
4.200000e-07	-2.820190e-06	-3.198675e-09	-2.024761e+01	-2.056412e+02
4.300000e-07	-2.764315e-06	-3.092868e-09	-1.984645e+01	-2.041028e+02
4.400000e-07	-2.707303e-06	-3.074248e-09	-1.943713e+01	-2.025139e+02
4.500000e-07	-2.648991e-06	-3.097444e-09	-1.901848e+01	-2.008734e+02
4.600000e-07	-2.589705e-06	-3.073682e-09	-1.859283e+01	-1.991789e+02
4.700000e-07	-2.529718e-06	-3.017090e-09	-1.816216e+01	-1.974266e+02
4.800000e-07	-2.468910e-06	-2.987406e-09	-1.772559e+01	-1.956117e+02
4.900000e-07	-2.407169e-06	-2.967713e-09	-1.728231e+01	-1.937288e+02
5.000000e-07	-2.344612e-06	-2.945258e-09	-1.683318e+01	-1.917726e+02
5.100000e-07	-2.281384e-06	-2.925512e-09	-1.637924e+01	-1.897382e+02
5.200000e-07	-2.217425e-06	-2.881080e-09	-1.592004e+01	-1.876218e+02
5.300000e-07	-2.152447e-06	-2.822901e-09	-1.545353e+01	-1.854209e+02
5.400000e-07	-2.086338e-06	-2.803210e-09	-1.497890e+01	-1.831341e+02
5.500000e-07	-2.019425e-06	-2.799398e-09	-1.449850e+01	-1.807614e+02
5.600000e-07	-1.952014e-06	-2.746385e-09	-1.401452e+01	-1.783032e+02
5.700000e-07	-1.884071e-06	-2.673683e-09	-1.352672e+01	-1.757603e+02
5.800000e-07	-1.815503e-06	-2.645169e-09	-1.303444e+01	-1.731328e+02
5.900000e-07	-1.746316e-06	-2.635969e-09	-1.253771e+01	-1.704202e+02
6.000000e-07	-1.676541e-06	-2.583206e-09	-1.203676e+01	-1.676200e+02
6.100000e-07	-1.606084e-06	-2.517503e-09	-1.153091e+01	-1.647281e+02
6.200000e-07	-1.535041e-06	-2.479458e-09	-1.102085e+01	-1.617384e+02
6.300000e-07	-1.463643e-06	-2.448991e-09	-1.050825e+01	-1.586429e+02
6.400000e-07	-1.391941e-06	-2.396878e-09	-9.993469e+00	-1.554322e+02
6.500000e-07	-1.319711e-06	-2.338071e-09	-9.474891e+00	-1.520958e+02
6.600000e-07	-1.246753e-06	-2.287500e-09	-8.951084e+00	-1.486223e+02
6.700000e-07	-1.173125e-06	-2.230614e-09	-8.422472e+00	-1.450009e+02
6.800000e-07	-1.098878e-06	-2.174004e-09	-7.889417e+00	-1.412205e+02
6.900000e-07	-1.024071e-06	-2.116799e-09	-7.352336e+00	-1.372711e+02
7.000000e-07	-9.488364e-07	-2.049945e-09	-6.812188e+00	-1.331433e+02
7.100000e-07	-8.733417e-07	-1.977300e-09	-6.270172e+00	-1.288282e+02
7.200000e-07	-7.976588e-07	-1.914132e-09	-5.726806e+00	-1.243177e+02
7.300000e-07	-7.217448e-07	-1.849726e-09	-5.181780e+00	-1.196034e+02
7.400000e-07	-6.455039e-07	-1.766374e-09	-4.634407e+00	-1.146767e+02
7.500000e-07	-5.689107e-07	-1.681158e-09	-4.084505e+00	-1.095287e+02
7.600000e-07	-4.920631e-07	-1.604133e-09	-3.532776e+00	-1.041497e+02
7.700000e-07	-4.151200e-07	-1.519987e-09	-2.980362e+00	-9.852942e+01
7.800000e-07	-3.380811e-07	-1.421631e-09	-2.427260e+00	-9.265758e+01
7.900000e-07	-2.608112e-07	-1.326663e-09	-1.872499e+00	-8.652416e+01
8.000000e-07	-1.834529e-07	-1.236056e-09	-1.317103e+00	-8.012034e+01
8.100000e-07	-1.061331e-07	-1.133343e-09	-7.619845e-01	-7.343948e+01
8.200000e-07	-2.880635e-08	-1.019150e-09	-2.068157e-01	-6.647801e+01
8.300000e-07	4.850658e-08	-9.092280e-10	3.482538e-01	-5.923645e+01
8.400000e-07	1.257947e-07	-8.007489e-10	9.031451e-01	-5.172021e+01
8.500000e-07	2.030240e-07	-6.812689e-10	1.457614e+00	-4.394015e+01
8.600000e-07	2.802220e-07	-5.552364e-10	2.011859e+00	-3.591294e+01
8.700000e-07	3.573645e-07	-4.273064e-10	2.565705e+00	-2.766103e+01
8.800000e-07	4.344039e-07	-2.996010e-10	3.118811e+00	-1.921238e+01
8.900000e-07	5.112994e-07	-1.705021e-10	3.670883e+00	-1.059985e+01
9.000000e-07	5.879586e-07	-3.839894e-11	4.221260e+00	-1.860420e+00
9.100000e-07	6.643680e-07	1.001991e-10	4.769842e+00	6.965769e+00
9.200000e-07	7.405310e-07	2.399244e-10	5.316656e+00	1.583650e+01
9.300000e-07	8.163585e-07	3.702573e-10	5.861060e+00	2.470854e+01
9.400000e-07	8.918629e-07	4.985290e-10	6.403146e+00	3.353868e+01
9.500000e-07	9.671748e-07	6.341362e-10	6.943849e+00	4.228475e+01
9.600000e-07	1.042252e-06	7.732194e-10	7.482867e+00	5.090646e+01
9.700000e-07	1.116868e-06	9.033489e-10	8.018572e+00	5.936620e+01
9.800000e-07	1.190813e-06	1.024547e-09	8.549461e+00	6.762975e+01
9.900000e-07	1.264039e-06	1.147948e-09	9.075189e+00	7.566682e+01
1.000000e-06	1.336605e-06	1.274767e-09	9.596178e+00	8.345159e+01
1.010000e-06	1.408577e-06	1.391946e-09	1.011290e+01	9.096306e+01
1.020000e-06	1.480096e-06	1.495321e-09	1.062638e+01	9.818539e+01
1.030000e-06	1.551274e-06	1.595137e-09	1.113740e+01	1.051080e+02
1.040000e-06	1.622050e-06	1.696263e-09	1.164554e+01	1.117258e+02
1.050000e-06	1.692235e-06	1.793607e-09	1.214943e+01	1.180386e+02
1.060000e-06	1.761724e-06	1.882910e-09	1.264833e+01	1.240511e+02
1.070000e-06	1.830566e-06	1.966634e-09	1.314258e+01	1.297723e+02
1.080000e-06	1.898802e-06	2.048325e-09	1.363249e+01	1.352146e+02
1.090000e-06	1.966489e-06	2.129797e-09	1.411844e+01	1.403929e+02
1.100000e-06	2.033686e-06	2.207445e-09	1.460089e+01	1.453236e+02
1.110000e-06	2.100221e-06	2.276753e-09	1.507858e+01	1.500236e+02
1.120000e-06	2.165750e-06	2.338564e-09	1.554904e+01	1.545093e+02
1.130000e-06	2.230225e-06	2.399728e-09	1.601194e+01	1.587957e+02
1.140000e-06	2.293912e-06	2.463151e-09	1.646918e+01	1.628956e+02
1.150000e-06	2.356951e-06	2.522426e-09	1.692177e+01	1.668195e+02
1.160000e-06	2.419264e-06	2.575870e-09	1.736915e+01	1.705754e+02
1.170000e-06	2.480726e-06	2.628041e-09	1.781042e+01	1.741688e+02
1.180000e-06	2.541296e-06	2.680622e-09	1.824528e+01	1.776034e+02
1.190000e-06	2.601131e-06	2.731503e-09	1.867486e+01	1.808817e+02
1.200000e-06	2.660290e-06	2.777211e-09	1.909960e+01	1.840053e+02
1.210000e-06	2.718442e-06	2.818618e-09	1.951710e+01	1.869763e+02
1.220000e-06	2.775314e-06	2.858462e-09	1.992542e+01	1.897973e+02
1.230000e-06	2.831069e-06	2.897594e-09	2.032571e+01	1.924720e+02
1.240000e-06	2.885916e-06	2.935257e-09	2.071949e+01	1.950057e+02
1.250000e-06	2.939827e-06	2.970275e-09	2.110654e+01	1.974047e+02
1.260000e-06	2.992721e-06	3.002074e-09	2.148629e+01	1.996769e+02
1.270000e-06	3.044492e-06	3.033887e-09	2.185799e+01	2.018303e+02
1.280000e-06	3.094912e-06	3.066655e-09	2.221998e+01	2.038734e+02
1.290000e-06	3.143820e-06	3.096450e-09	2.257111e+01	2.058143e+02
1.300000e-06	3.191437e-06	3.122222e-09	2.291298e+01	2.076599e+02
1.310000e-06	3.238023e-06	3.146876e-09	2.324744e+01	2.094163e+02
1.320000e-06	3.283544e-06	3.172064e-09	2.357427e+01	2.110879e+02
1.330000e-06	3.327976e-06	3.195812e-09	2.389326e+01	2.126778e+02
1.340000e-06	3.371402e-06	3.217306e-09	2.420504e+01	2.141880e+02
1.350000e-06	3.413615e-06	3.237486e-09	2.450811e+01	2.156199e+02
1.360000e-06	3.454347e-06	3.259066e-09	2.480054e+01	2.169743e+02
1.370000e-06	3.493742e-06	3.280693e-09	2.508338e+01	2.182527e+02
1.380000e-06	3.531950e-06	3.299932e-09	2.535770e+01	2.194566e+02
1.390000e-06	3.568983e-06	3.318166e-09	2.562357e+01	2.205890e+02
1.400000e-06	3.604919e-06	3.335444e-09	2.588158e+01	2.216533e+02
1.410000e-06	3.639689e-06	3.351321e-09	2.613121e+01	2.226540e+02
1.420000e-06	3.673001e-06	3.366040e-09	2.637037e+01	2.235964e+02
1.430000e-06	3.704878e-06	3.380025e-09	2.659924e+01	2.244855e+02
1.440000e-06	3.735536e-06	3.392354e-09	2.681935e+01	2.253265e+02
1.450000e-06	3.764992e-06	3.403957e-09	2.703082e+01	2.261237e+02
1.460000e-06	3.793249e-06	3.415855e-09	2.723370e+01	2.268803e+02
1.470000e-06	3.820244e-06	3.428475e-09	2.742751e+01	2.275983e+02
1.480000e-06	3.845706e-06	3.442298e-09	2.761031e+01	2.282782e+02
1.490000e-06	3.869594e-06	3.453966e-09	2.778182e+01	2.289197e+02
1.500000e-06	3.892155e-06	3.462778e-09	2.794379e+01	2.295214e+02
1.510000e-06	3.913449e-06	3.471592e-09	2.809668e+01	2.300815e+02
1.520000e-06	3.933514e-06	3.481409e-09	2.824074e+01	2.305982e+02
1.530000e-06	3.952379e-06	3.489720e-09	2.837618e+01	2.310705e+02
1.540000e-06	3.969890e-06	3.495364e-09	2.850190e+01	2.314978e+02
1.550000e-06	3.985921e-06	3.500094e-09	2.861699e+01	2.318807e+02
1.560000e-06	4.000424e-06	3.506189e-09	2.872112e+01	2.322210e+02
1.570000e-06	4.013411e-06	3.512876e-09	2.881436e+01	2.325210e+02
1.580000e-06	4.024872e-06	3.517530e-09	2.889664e+01	2.327837e+02
1.590000e-06	4.034616e-06	3.521622e-09	2.896660e+01	2.330121e+02
1.600000e-06	4.042711e-06	3.526596e-09	2.902472e+01	2.332090e+02
1.610000e-06	4.049467e-06	3.531402e-09	2.907322e+01	2.333764e+02
1.620000e-06	4.054862e-06	3.533085e-09	2.911196e+01	2.335154e+02
1.630000e-06	4.058933e-06	3.531220e-09	2.914118e+01	2.336259e+02
1.640000e-06	4.061692e-06	3.531864e-09	2.916099e+01	2.337072e+02
1.650000e-06	4.062842e-06	3.536225e-09	2.916925e+01	2.337579e+02
1.660000e-06	4.062434e-06	3.538599e-09	2.916632e+01	2.337763e+02
1.670000e-06	4.060780e-06	3.536402e-09	2.915445e+01	2.337613e+02
1.680000e-06	4.057911e-06	3.534155e-09	2.913385e+01	2.337124e+02
1.690000e-06	4.053842e-06	3.533961e-09	2.910463e+01	2.336305e+02
1.700000e-06	4.048509e-06	3.534031e-09	2.906634e+01	2.335177e+02
1.710000e-06	4.041676e-06	3.532060e-09	2.901728e+01	2.333778e+02
1.720000e-06	4.033459e-06	3.532339e-09	2.895830e+01	2.332151e+02
1.730000e-06	4.024092e-06	3.540770e-09	2.889104e+01	2.330350e+02
1.740000e-06	4.013561e-06	3.523817e-09	2.881543e+01	2.328424e+02
1.750000e-06	4.001367e-06	3.454582e-09	2.872789e+01	2.326415e+02
1.760000e-06	3.986810e-06	3.429549e-09	2.862337e+01	2.324349e+02
1.770000e-06	3.970012e-06	3.483909e-09	2.850278e+01	2.322229e+02
1.780000e-06	3.952025e-06	3.611938e-09	2.837363e+01	2.320036e+02
1.790000e-06	3.933645e-06	3.571184e-09	2.824168e+01	2.317724e+02
1.800000e-06	3.914390e-06	3.406769e-09	2.810343e+01	2.315223e+02
1.810000e-06	3.893308e-06	3.480890e-09	2.795208e+01	2.312449e+02
1.820000e-06	3.870675e-06	3.545754e-09	2.778958e+01	2.309308e+02
1.830000e-06	3.847099e-06	3.502321e-09	2.762031e+01	2.305708e+02
1.840000e-06	3.822037e-06	3.555503e-09	2.744038e+01	2.301567e+02
1.850000e-06	3.795340e-06	3.456344e-09	2.724871e+01	2.296822e+02
1.860000e-06	3.767630e-06	3.347404e-09	2.704977e+01	2.291438e+02
1.870000e-06	3.738798e-06	3.554699e-09	2.684276e+01	2.285409e+02
1.880000e-06	3.708396e-06	3.566786e-09	2.662449e+01	2.278757e+02
1.890000e-06	3.676402e-06	3.376123e-09	2.639479e+01	2.271531e+02
1.900000e-06	3.643034e-06	3.474369e-09	2.615523e+01	2.263800e+02
1.910000e-06	3.608619e-06	3.563053e-09	2.590815e+01	2.255643e+02
1.920000e-06	3.573094e-06	3.488756e-09	2.565310e+01	2.247137e+02
1.930000e-06	3.536364e-06	3.442793e-09	2.538939e+01	2.238354e+02
1.940000e-06	3.498535e-06	3.370132e-09	2.511779e+01	2.229345e+02
1.950000e-06	3.459243e-06	3.450955e-09	2.483570e+01	2.220140e+02
1.960000e-06	3.418410e-06	3.478714e-09	2.454254e+01	2.210742e+02
1.970000e-06	3.376474e-06	3.348901e-09	2.424146e+01	2.201132e+02
1.980000e-06	3.333453e-06	3.402928e-09	2.393259e+01	2.191266e+02
1.990000e-06	3.289318e-06	3.367862e-09	2.361572e+01	2.181088e+02
2.000000e-06	3.244234e-06	3.300527e-09	2.329204e+01	2.170536e+02
2.010000e-06	3.198031e-06	3.409110e-09	2.296032e+01	2.159545e+02
2.020000e-06	3.150493e-06	3.345987e-09	2.261902e+01	2.148064e+02
2.030000e-06	3.101607e-06	3.223331e-09	2.226804e+01	2.136050e+02
2.040000e-06	3.051656e-06	3.263540e-09	2.190942e+01	2.123479e+02
2.050000e-06	3.000769e-06	3.322802e-09	2.154407e+01	2.110344e+02
2.060000e-06	2.948694e-06	3.260776e-09	2.117020e+01	2.096650e+02
2.070000e-06	2.895328e-06	3.138055e-09	2.078706e+01	2.082413e+02
2.080000e-06	2.840579e-06	3.182077e-09	2.039399e+01	2.067649e+02
2.090000e-06	2.784581e-06	3.219676e-09	1.999195e+01	2.052374e+02
2.100000e-06	2.727628e-06	3.135415e-09	1.958305e+01	2.036593e+02
2.110000e-06	2.669801e-06	3.096994e-09	1.916788e+01	2.020300e+02
2.120000e-06	2.611161e-06	3.086367e-09	1.874688e+01	2.003474e+02
2.130000e-06	2.551639e-06	3.086222e-09	1.831954e+01	1.986079e+02
2.140000e-06	2.491304e-06	3.030680e-09	1.788637e+01	1.968068e+02
2.150000e-06	2.430201e-06	2.995876e-09	1.744767e+01	1.949390e+02
2.160000e-06	2.368035e-06	2.992743e-09	1.700135e+01	1.929989e+02
2.170000e-06	2.304697e-06	2.923659e-09	1.654661e+01	1.909816e+02
2.180000e-06	2.240482e-06	2.907331e-09	1.608558e+01	1.888831e+02
2.190000e-06	2.175651e-06	2.900059e-09	1.562012e+01	1.867005e+02
2.200000e-06	2.110077e-06	2.843570e-09	1.514933e+01	1.844322e+02
2.210000e-06	2.043772e-06	2.789614e-09	1.467330e+01	1.820778e+02
2.220000e-06	1.976825e-06	2.771110e-09	1.419265e+01	1.796379e+02
2.230000e-06	1.909185e-06	2.761436e-09	1.370703e+01	1.771131e+02
2.240000e-06	1.840962e-06	2.687191e-09	1.321722e+01	1.745038e+02
2.250000e-06	1.772175e-06	2.631479e-09	1.272336e+01	1.718095e+02
2.260000e-06	1.702736e-06	2.618653e-09	1.222482e+01	1.690284e+02
2.270000e-06	1.632425e-06	2.573078e-09	1.172002e+01	1.661566e+02
2.280000e-06	1.561145e-06	2.509893e-09	1.120827e+01	1.631885e+02
2.290000e-06	1.489238e-06	2.463233e-09	1.069201e+01	1.601164e+02
2.300000e-06	1.416963e-06	2.430514e-09	1.017311e+01	1.569313e+02
2.310000e-06	1.344315e-06	2.371112e-09	9.651535e+00	1.536227e+02
2.320000e-06	1.271289e-06	2.308134e-09	9.127243e+00	1.501796e+02
2.330000e-06	1.197835e-06	2.266204e-09	8.599876e+00	1.465907e+02
2.340000e-06	1.123891e-06	2.206395e-09	8.068995e+00	1.428453e+02
2.350000e-06	1.049547e-06	2.139863e-09	7.535240e+00	1.389330e+02
2.360000e-06	9.749159e-07	2.083647e-09	6.999426e+00	1.348441e+02
2.370000e-06	8.999032e-07	2.026123e-09	6.460872e+00	1.305699e+02
2.380000e-06	8.245056e-07	1.950009e-09	5.919553e+00	1.261020e+02
2.390000e-06	7.488958e-07	1.873736e-09	5.376711e+00	1.214320e+02
2.400000e-06	6.730490e-07	1.810723e-09	4.832168e+00	1.165516e+02
2.410000e-06	5.969561e-07	1.731642e-09	4.285857e+00	1.114518e+02
2.420000e-06	5.206812e-07	1.644027e-09	3.738240e+00	1.061232e+02
2.430000e-06	4.442150e-07	1.563927e-09	3.189250e+00	1.005555e+02
2.440000e-06	3.675560e-07	1.482458e-09	2.638875e+00	9.473844e+01
2.450000e-06	2.907555e-07	1.382284e-09	2.087484e+00	8.866187e+01
2.460000e-06	2.138590e-07	1.275966e-09	1.535404e+00	8.231666e+01
2.470000e-06	1.368370e-07	1.183391e-09	9.824240e-01	7.569558e+01
2.480000e-06	5.968792e-08	1.085183e-09	4.285305e-01	6.879436e+01
2.490000e-06	-1.743466e-08	9.703743e-10	-1.251725e-01	6.161255e+01
2.500000e-06	-9.448376e-08	8.522171e-10	-6.783479e-01	5.415445e+01
2.510000e-06	-1.715710e-07	7.396291e-10	-1.231797e+00	4.642973e+01
2.520000e-06	-2.485579e-07	6.224112e-10	-1.784526e+00	3.845379e+01
2.530000e-06	-3.252807e-07	4.940601e-10	-2.335359e+00	3.024787e+01
2.540000e-06	-4.018321e-07	3.611977e-10	-2.884961e+00	2.183877e+01
2.550000e-06	-4.782858e-07	2.288654e-10	-3.433861e+00	1.325837e+01
2.560000e-06	-5.545561e-07	9.811227e-11	-3.981445e+00	4.542861e+00
2.570000e-06	-6.305910e-07	-3.328113e-11	-4.527339e+00	-4.268229e+00
2.580000e-06	-7.063729e-07	-1.683626e-10	-5.071417e+00	-1.313303e+01
2.590000e-06	-7.818813e-07	-3.088368e-10	-5.613531e+00	-2.200843e+01
2.600000e-06	-8.570794e-07	-4.435522e-10	-6.153417e+00	-3.085115e+01
2.610000e-06	-9.319149e-07	-5.676059e-10	-6.690700e+00	-3.961869e+01
2.620000e-06	-1.006399e-06	-6.950671e-10	-7.225457e+00	-4.827031e+01
2.630000e-06	-1.080573e-06	-8.316814e-10	-7.757995e+00	-5.676776e+01
2.640000e-06	-1.154423e-06	-9.624779e-10	-8.288201e+00	-6.507604e+01
2.650000e-06	-1.227856e-06	-1.079185e-09	-8.815412e+00	-7.316397e+01
2.660000e-06	-1.300835e-06	-1.194619e-09	-9.339366e+00	-8.100473e+01
2.670000e-06	-1.373401e-06	-1.314795e-09	-9.860354e+00	-8.857627e+01
2.680000e-06	-1.445655e-06	-1.429590e-09	-1.037911e+01	-9.586162e+01
2.690000e-06	-1.517550e-06	-1.533360e-09	-1.089528e+01	-1.028491e+02
2.700000e-06	-1.588847e-06	-1.632187e-09	-1.140715e+01	-1.095324e+02
2.710000e-06	-1.659296e-06	-1.729028e-09	-1.191295e+01	-1.159102e+02
2.720000e-06	-1.728782e-06	-1.823704e-09	-1.241182e+01	-1.219865e+02
2.730000e-06	-1.797552e-06	-1.913704e-09	-1.290555e+01	-1.277692e+02
2.740000e-06	-1.865854e-06	-1.998067e-09	-1.339594e+01	-1.332700e+02
2.750000e-06	-1.933620e-06	-2.077180e-09	-1.388246e+01	-1.385035e+02
2.760000e-06	-2.000744e-06	-2.153630e-09	-1.436438e+01	-1.434858e+02
2.770000e-06	-2.067211e-06	-2.229777e-09	-1.484158e+01	-1.482339e+02
2.780000e-06	-2.133030e-06	-2.302084e-09	-1.531413e+01	-1.527642e+02
2.790000e-06	-2.198127e-06	-2.368515e-09	-1.578150e+01	-1.570921e+02
2.800000e-06	-2.262532e-06	-2.430389e-09	-1.624389e+01	-1.612310e+02
2.810000e-06	-2.326231e-06	-2.491998e-09	-1.670122e+01	-1.651919e+02
2.820000e-06	-2.388915e-06	-2.553659e-09	-1.715126e+01	-1.689832e+02
2.830000e-06	-2.450464e-06	-2.611996e-09	-1.759315e+01	-1.726111e+02
2.840000e-06	-2.511119e-06	-2.665270e-09	-1.802862e+01	-1.760795e+02
2.850000e-06	-2.570992e-06	-2.715128e-09	-1.845848e+01	-1.793911e+02
2.860000e-06	-2.629998e-06	-2.765232e-09	-1.888212e+01	-1.825477e+02
2.870000e-06	-2.688072e-06	-2.816166e-09	-1.929906e+01	-1.855512e+02
2.880000e-06	-2.745184e-06	-2.863091e-09	-1.970910e+01	-1.884041e+02
2.890000e-06	-2.801453e-06	-2.903721e-09	-2.011308e+01	-1.911097e+02
2.900000e-06	-2.856755e-06	-2.943208e-09	-2.051013e+01	-1.936731e+02
2.910000e-06	-2.910716e-06	-2.985546e-09	-2.089754e+01	-1.961004e+02
2.920000e-06	-2.963339e-06	-3.025086e-09	-2.127535e+01	-1.983990e+02
2.930000e-06	-3.014801e-06	-3.057375e-09	-2.164482e+01	-2.005772e+02
2.940000e-06	-3.065069e-06	-3.086767e-09	-2.200572e+01	-2.026432e+02
