# Temperatura_=_20.0
# Concentracion g/m^3_=_9000.0
# C_Vs_to_Am_M_A/Vsm_=_65563218390.804596
# pendiente_HvsI_1/m_=_3716.3
# ordenada_HvsI_A/m_=_1297.0
# frecuencia_Hz_=_300779.9022291596

Tiempo_(s)	Campo_(V.s)	Magnetizacion_(V.s)	Campo_(kA/m)	Magnetizacion_(A/m)
0.000000e+00	-4.070055e-06	-3.529232e-09	-2.907110e+01	-2.336892e+02
1.000000e-08	-4.068436e-06	-3.530778e-09	-2.905954e+01	-2.336913e+02
2.000000e-08	-4.065336e-06	-3.530975e-09	-2.903740e+01	-2.336599e+02
3.000000e-08	-4.060967e-06	-3.529201e-09	-2.900619e+01	-2.335928e+02
4.000000e-08	-4.055348e-06	-3.526191e-09	-2.896606e+01	-2.334891e+02
5.000000e-08	-4.048499e-06	-3.522279e-09	-2.891714e+01	-2.333488e+02
6.000000e-08	-4.040433e-06	-3.515746e-09	-2.885953e+01	-2.331734e+02
7.000000e-08	-4.030899e-06	-3.501314e-09	-2.879143e+01	-2.329659e+02
8.000000e-08	-4.019676e-06	-3.511920e-09	-2.871127e+01	-2.327302e+02
9.000000e-08	-4.006612e-06	-3.555053e-09	-2.861795e+01	-2.324710e+02
1.000000e-07	-3.991392e-06	-3.571358e-09	-2.850924e+01	-2.321932e+02
1.100000e-07	-3.974377e-06	-3.537476e-09	-2.838771e+01	-2.319010e+02
1.200000e-07	-3.956198e-06	-3.418630e-09	-2.825786e+01	-2.315980e+02
1.300000e-07	-3.937078e-06	-3.404705e-09	-2.812129e+01	-2.312861e+02
1.400000e-07	-3.917006e-06	-3.550249e-09	-2.797793e+01	-2.309654e+02
1.500000e-07	-3.895916e-06	-3.517337e-09	-2.782729e+01	-2.306342e+02
1.600000e-07	-3.873759e-06	-3.438584e-09	-2.766903e+01	-2.302890e+02
1.700000e-07	-3.849966e-06	-3.445436e-09	-2.749908e+01	-2.299246e+02
1.800000e-07	-3.824283e-06	-3.374173e-09	-2.731564e+01	-2.295349e+02
1.900000e-07	-3.797390e-06	-3.442714e-09	-2.712355e+01	-2.291131e+02
2.000000e-07	-3.769459e-06	-3.574689e-09	-2.692405e+01	-2.286523e+02
2.100000e-07	-3.740132e-06	-3.428338e-09	-2.671457e+01	-2.281464e+02
2.200000e-07	-3.709564e-06	-3.361592e-09	-2.649623e+01	-2.275904e+02
2.300000e-07	-3.677966e-06	-3.521167e-09	-2.627054e+01	-2.269804e+02
2.400000e-07	-3.644968e-06	-3.538573e-09	-2.603484e+01	-2.263144e+02
2.500000e-07	-3.610392e-06	-3.469875e-09	-2.578788e+01	-2.255918e+02
2.600000e-07	-3.574485e-06	-3.408878e-09	-2.553141e+01	-2.248136e+02
2.700000e-07	-3.537385e-06	-3.374597e-09	-2.526641e+01	-2.239817e+02
2.800000e-07	-3.499136e-06	-3.448901e-09	-2.499322e+01	-2.230992e+02
2.900000e-07	-3.459759e-06	-3.461984e-09	-2.471195e+01	-2.221690e+02
3.000000e-07	-3.419156e-06	-3.372948e-09	-2.442194e+01	-2.211946e+02
3.100000e-07	-3.377091e-06	-3.342369e-09	-2.412148e+01	-2.201786e+02
3.200000e-07	-3.333626e-06	-3.343054e-09	-2.381103e+01	-2.191232e+02
3.300000e-07	-3.289040e-06	-3.365960e-09	-2.349256e+01	-2.180299e+02
3.400000e-07	-3.243329e-06	-3.382322e-09	-2.316607e+01	-2.168990e+02
3.500000e-07	-3.196413e-06	-3.301905e-09	-2.283096e+01	-2.157302e+02
3.600000e-07	-3.148344e-06	-3.228061e-09	-2.248762e+01	-2.145225e+02
3.700000e-07	-3.098956e-06	-3.286836e-09	-2.213486e+01	-2.132741e+02
3.800000e-07	-3.047974e-06	-3.329047e-09	-2.177071e+01	-2.119830e+02
3.900000e-07	-2.995540e-06	-3.223669e-09	-2.139619e+01	-2.106467e+02
4.000000e-07	-2.942097e-06	-3.168159e-09	-2.101446e+01	-2.092628e+02
4.100000e-07	-2.887746e-06	-3.215397e-09	-2.062625e+01	-2.078285e+02
4.200000e-07	-2.832534e-06	-3.206037e-09	-2.023189e+01	-2.063415e+02
4.300000e-07	-2.776433e-06	-3.149274e-09	-1.983118e+01	-2.047990e+02
4.400000e-07	-2.719000e-06	-3.119754e-09	-1.942095e+01	-2.031988e+02
4.500000e-07	-2.660298e-06	-3.098102e-09	-1.900166e+01	-2.015385e+02
4.600000e-07	-2.600755e-06	-3.070524e-09	-1.857637e+01	-1.998159e+02
4.700000e-07	-2.540374e-06	-3.053877e-09	-1.814508e+01	-1.980289e+02
4.800000e-07	-2.479139e-06	-3.029170e-09	-1.770770e+01	-1.961756e+02
4.900000e-07	-2.417042e-06	-2.980938e-09	-1.726416e+01	-1.942542e+02
5.000000e-07	-2.354153e-06	-2.949724e-09	-1.681496e+01	-1.922633e+02
5.100000e-07	-2.290666e-06	-2.942843e-09	-1.636150e+01	-1.902012e+02
5.200000e-07	-2.226279e-06	-2.907706e-09	-1.590160e+01	-1.880669e+02
5.300000e-07	-2.160643e-06	-2.850746e-09	-1.543279e+01	-1.858588e+02
5.400000e-07	-2.094019e-06	-2.817365e-09	-1.495691e+01	-1.835758e+02
5.500000e-07	-2.026812e-06	-2.808712e-09	-1.447688e+01	-1.812159e+02
5.600000e-07	-1.959148e-06	-2.770772e-09	-1.399357e+01	-1.787771e+02
5.700000e-07	-1.890849e-06	-2.704541e-09	-1.350573e+01	-1.762566e+02
5.800000e-07	-1.821854e-06	-2.669809e-09	-1.301292e+01	-1.736506e+02
5.900000e-07	-1.752297e-06	-2.649166e-09	-1.251610e+01	-1.709547e+02
6.000000e-07	-1.682123e-06	-2.600451e-09	-1.201487e+01	-1.681635e+02
6.100000e-07	-1.611293e-06	-2.539413e-09	-1.150895e+01	-1.652706e+02
6.200000e-07	-1.539981e-06	-2.497841e-09	-1.099960e+01	-1.622689e+02
6.300000e-07	-1.468365e-06	-2.461914e-09	-1.048806e+01	-1.591507e+02
6.400000e-07	-1.396333e-06	-2.412220e-09	-9.973560e+00	-1.559076e+02
6.500000e-07	-1.323573e-06	-2.356305e-09	-9.453864e+00	-1.525314e+02
6.600000e-07	-1.249950e-06	-2.299335e-09	-8.927993e+00	-1.490136e+02
6.700000e-07	-1.175612e-06	-2.242139e-09	-8.397020e+00	-1.453459e+02
6.800000e-07	-1.100787e-06	-2.189173e-09	-7.862572e+00	-1.415199e+02
6.900000e-07	-1.025589e-06	-2.133785e-09	-7.325459e+00	-1.375278e+02
7.000000e-07	-9.500308e-07	-2.060488e-09	-6.785767e+00	-1.333613e+02
7.100000e-07	-8.741724e-07	-1.983376e-09	-6.243935e+00	-1.290124e+02
7.200000e-07	-7.980852e-07	-1.924632e-09	-5.700469e+00	-1.244725e+02
7.300000e-07	-7.217702e-07	-1.865240e-09	-5.155374e+00	-1.197324e+02
7.400000e-07	-6.451549e-07	-1.779164e-09	-4.608136e+00	-1.147824e+02
7.500000e-07	-5.681909e-07	-1.687050e-09	-4.058407e+00	-1.096120e+02
7.600000e-07	-4.909738e-07	-1.611063e-09	-3.506870e+00	-1.042102e+02
7.700000e-07	-4.136737e-07	-1.534119e-09	-2.954740e+00	-9.856538e+01
7.800000e-07	-3.363098e-07	-1.437852e-09	-2.402153e+00	-9.266622e+01
7.900000e-07	-2.588059e-07	-1.334196e-09	-1.848568e+00	-8.650197e+01
8.000000e-07	-1.811293e-07	-1.238043e-09	-1.293749e+00	-8.006325e+01
8.100000e-07	-1.033968e-07	-1.140491e-09	-7.385307e-01	-7.334293e+01
8.200000e-07	-2.569371e-08	-1.032643e-09	-1.835220e-01	-6.633689e+01
8.300000e-07	5.201747e-08	-9.177402e-10	3.715442e-01	-5.904493e+01
8.400000e-07	1.297363e-07	-7.990465e-10	9.266653e-01	-5.147144e+01
8.500000e-07	2.073841e-07	-6.797397e-10	1.481278e+00	-4.362605e+01
8.600000e-07	2.849091e-07	-5.611039e-10	2.035015e+00	-3.552398e+01
8.700000e-07	3.623544e-07	-4.339761e-10	2.588182e+00	-2.718623e+01
8.800000e-07	4.396837e-07	-2.957984e-10	3.140521e+00	-1.863953e+01
8.900000e-07	5.168551e-07	-1.593856e-10	3.691731e+00	-9.915974e+00
9.000000e-07	5.938451e-07	-2.919340e-11	4.241647e+00	-1.052478e+00
9.100000e-07	6.706376e-07	1.058878e-10	4.790151e+00	7.909970e+00
9.200000e-07	7.471878e-07	2.504203e-10	5.336925e+00	1.692727e+01
9.300000e-07	8.234331e-07	3.906575e-10	5.881520e+00	2.595326e+01
9.400000e-07	8.993749e-07	5.215815e-10	6.423948e+00	3.494091e+01
9.500000e-07	9.750360e-07	6.544994e-10	6.964371e+00	4.384350e+01
9.600000e-07	1.050371e-06	7.937448e-10	7.502462e+00	5.261584e+01
9.700000e-07	1.125368e-06	9.299697e-10	8.038142e+00	6.121543e+01
9.800000e-07	1.199892e-06	1.056160e-09	8.570449e+00	6.960350e+01
9.900000e-07	1.273768e-06	1.179427e-09	9.098116e+00	7.774601e+01
1.000000e-06	1.346944e-06	1.303595e-09	9.620794e+00	8.561436e+01
1.010000e-06	1.419350e-06	1.423008e-09	1.013796e+01	9.318605e+01
1.020000e-06	1.491122e-06	1.532448e-09	1.065061e+01	1.004450e+02
1.030000e-06	1.562519e-06	1.634196e-09	1.116058e+01	1.073815e+02
1.040000e-06	1.633555e-06	1.732993e-09	1.166796e+01	1.139923e+02
1.050000e-06	1.704072e-06	1.829739e-09	1.217164e+01	1.202802e+02
1.060000e-06	1.773973e-06	1.921636e-09	1.267092e+01	1.262529e+02
1.070000e-06	1.843239e-06	2.005696e-09	1.316567e+01	1.319228e+02
1.080000e-06	1.911817e-06	2.085564e-09	1.365550e+01	1.373055e+02
1.090000e-06	1.979721e-06	2.164311e-09	1.414052e+01	1.424186e+02
1.100000e-06	2.047126e-06	2.239833e-09	1.462197e+01	1.472811e+02
1.110000e-06	2.113978e-06	2.308435e-09	1.509947e+01	1.519116e+02
1.120000e-06	2.179899e-06	2.369975e-09	1.557032e+01	1.563278e+02
1.130000e-06	2.244643e-06	2.431465e-09	1.603277e+01	1.605454e+02
1.140000e-06	2.308442e-06	2.494353e-09	1.648846e+01	1.645778e+02
1.150000e-06	2.371645e-06	2.553289e-09	1.693990e+01	1.684359e+02
1.160000e-06	2.434186e-06	2.604860e-09	1.738662e+01	1.721276e+02
1.170000e-06	2.495934e-06	2.655078e-09	1.782766e+01	1.756588e+02
1.180000e-06	2.556830e-06	2.707065e-09	1.826262e+01	1.790332e+02
1.190000e-06	2.616903e-06	2.757256e-09	1.869170e+01	1.822534e+02
1.200000e-06	2.676269e-06	2.802984e-09	1.911573e+01	1.853211e+02
1.210000e-06	2.734714e-06	2.845031e-09	1.953319e+01	1.882384e+02
1.220000e-06	2.791877e-06	2.885348e-09	1.994149e+01	1.910074e+02
1.230000e-06	2.847827e-06	2.924157e-09	2.034112e+01	1.936316e+02
1.240000e-06	2.902868e-06	2.961492e-09	2.073426e+01	1.961153e+02
1.250000e-06	2.956977e-06	2.995825e-09	2.112074e+01	1.984642e+02
1.260000e-06	3.010058e-06	3.026992e-09	2.149988e+01	2.006848e+02
1.270000e-06	3.062047e-06	3.057326e-09	2.187123e+01	2.027845e+02
1.280000e-06	3.112696e-06	3.088937e-09	2.223299e+01	2.047710e+02
1.290000e-06	3.161851e-06	3.119217e-09	2.258409e+01	2.066518e+02
1.300000e-06	3.209685e-06	3.147173e-09	2.292575e+01	2.084339e+02
1.310000e-06	3.256407e-06	3.173434e-09	2.325947e+01	2.101239e+02
1.320000e-06	3.302035e-06	3.198623e-09	2.358538e+01	2.117273e+02
1.330000e-06	3.346603e-06	3.221197e-09	2.390372e+01	2.132486e+02
1.340000e-06	3.390193e-06	3.241320e-09	2.421507e+01	2.146919e+02
1.350000e-06	3.432648e-06	3.261148e-09	2.451831e+01	2.160604e+02
1.360000e-06	3.473623e-06	3.280509e-09	2.481098e+01	2.173572e+02
1.370000e-06	3.513182e-06	3.298872e-09	2.509354e+01	2.185854e+02
1.380000e-06	3.551580e-06	3.317242e-09	2.536780e+01	2.197483e+02
1.390000e-06	3.588788e-06	3.336258e-09	2.563357e+01	2.208497e+02
1.400000e-06	3.624867e-06	3.353927e-09	2.589127e+01	2.218936e+02
1.410000e-06	3.659798e-06	3.370186e-09	2.614077e+01	2.228846e+02
1.420000e-06	3.693246e-06	3.386287e-09	2.637968e+01	2.238272e+02
1.430000e-06	3.725235e-06	3.400450e-09	2.660816e+01	2.247256e+02
1.440000e-06	3.755984e-06	3.411649e-09	2.682779e+01	2.255838e+02
1.450000e-06	3.785556e-06	3.422909e-09	2.703902e+01	2.264044e+02
1.460000e-06	3.813988e-06	3.436159e-09	2.724210e+01	2.271895e+02
1.470000e-06	3.841097e-06	3.450205e-09	2.743573e+01	2.279394e+02
1.480000e-06	3.866606e-06	3.463886e-09	2.761794e+01	2.286535e+02
1.490000e-06	3.890542e-06	3.475879e-09	2.778890e+01	2.293302e+02
1.500000e-06	3.913146e-06	3.486983e-09	2.795035e+01	2.299668e+02
1.510000e-06	3.934465e-06	3.497317e-09	2.810263e+01	2.305608e+02
1.520000e-06	3.954547e-06	3.507120e-09	2.824607e+01	2.311094e+02
1.530000e-06	3.973473e-06	3.516308e-09	2.838125e+01	2.316107e+02
1.540000e-06	3.991025e-06	3.523240e-09	2.850662e+01	2.320634e+02
1.550000e-06	4.007036e-06	3.528398e-09	2.862098e+01	2.324678e+02
1.560000e-06	4.021519e-06	3.533751e-09	2.872443e+01	2.328251e+02
1.570000e-06	4.034501e-06	3.540540e-09	2.881716e+01	2.331379e+02
1.580000e-06	4.045970e-06	3.546361e-09	2.889908e+01	2.334096e+02
1.590000e-06	4.055712e-06	3.551347e-09	2.896866e+01	2.336441e+02
1.600000e-06	4.063853e-06	3.556737e-09	2.902680e+01	2.338453e+02
1.610000e-06	4.070588e-06	3.560910e-09	2.907491e+01	2.340167e+02
1.620000e-06	4.075878e-06	3.564225e-09	2.911270e+01	2.341611e+02
1.630000e-06	4.079911e-06	3.567895e-09	2.914150e+01	2.342800e+02
1.640000e-06	4.082655e-06	3.571609e-09	2.916110e+01	2.343737e+02
1.650000e-06	4.083795e-06	3.573642e-09	2.916925e+01	2.344413e+02
1.660000e-06	4.083386e-06	3.575007e-09	2.916632e+01	2.344808e+02
1.670000e-06	4.081689e-06	3.574658e-09	2.915420e+01	2.344899e+02
1.680000e-06	4.078735e-06	3.573399e-09	2.913310e+01	2.344660e+02
1.690000e-06	4.074583e-06	3.571747e-09	2.910345e+01	2.344068e+02
1.700000e-06	4.069165e-06	3.571636e-09	2.906475e+01	2.343110e+02
1.710000e-06	4.062221e-06	3.572270e-09	2.901515e+01	2.341785e+02
1.720000e-06	4.053911e-06	3.575383e-09	2.895579e+01	2.340105e+02
1.730000e-06	4.044449e-06	3.586926e-09	2.888821e+01	2.338097e+02
1.740000e-06	4.033815e-06	3.546935e-09	2.881226e+01	2.335798e+02
1.750000e-06	4.021455e-06	3.490307e-09	2.872397e+01	2.333253e+02
1.760000e-06	4.006650e-06	3.477897e-09	2.861822e+01	2.330511e+02
1.770000e-06	3.989671e-06	3.547582e-09	2.849695e+01	2.327618e+02
1.780000e-06	3.971622e-06	3.655499e-09	2.836803e+01	2.324610e+02
1.790000e-06	3.953240e-06	3.552066e-09	2.823673e+01	2.321510e+02
1.800000e-06	3.933817e-06	3.447597e-09	2.809801e+01	2.318323e+02
1.810000e-06	3.912341e-06	3.559928e-09	2.794461e+01	2.315037e+02
1.820000e-06	3.889444e-06	3.539319e-09	2.778106e+01	2.311620e+02
1.830000e-06	3.865762e-06	3.551185e-09	2.761191e+01	2.308023e+02
1.840000e-06	3.840537e-06	3.641214e-09	2.743173e+01	2.304187e+02
1.850000e-06	3.813695e-06	3.458043e-09	2.724001e+01	2.300044e+02
1.860000e-06	3.785835e-06	3.423565e-09	2.704101e+01	2.295526e+02
1.870000e-06	3.756769e-06	3.619247e-09	2.683340e+01	2.290569e+02
1.880000e-06	3.726133e-06	3.506961e-09	2.661458e+01	2.285121e+02
1.890000e-06	3.693931e-06	3.377784e-09	2.638457e+01	2.279140e+02
1.900000e-06	3.660408e-06	3.484341e-09	2.614513e+01	2.272601e+02
1.910000e-06	3.625845e-06	3.472634e-09	2.589825e+01	2.265497e+02
1.920000e-06	3.590100e-06	3.478004e-09	2.564294e+01	2.257834e+02
1.930000e-06	3.553132e-06	3.470920e-09	2.537889e+01	2.249629e+02
1.940000e-06	3.514943e-06	3.367896e-09	2.510612e+01	2.240910e+02
1.950000e-06	3.475186e-06	3.402865e-09	2.482215e+01	2.231709e+02
1.960000e-06	3.433966e-06	3.408317e-09	2.452773e+01	2.222058e+02
1.970000e-06	3.391751e-06	3.410941e-09	2.422620e+01	2.211986e+02
1.980000e-06	3.348566e-06	3.416920e-09	2.391774e+01	2.201516e+02
1.990000e-06	3.304286e-06	3.278379e-09	2.360146e+01	2.190664e+02
2.000000e-06	3.258899e-06	3.301595e-09	2.327728e+01	2.179436e+02
2.010000e-06	3.212327e-06	3.395457e-09	2.294463e+01	2.167831e+02
2.020000e-06	3.164441e-06	3.317167e-09	2.260260e+01	2.155839e+02
2.030000e-06	3.115258e-06	3.226094e-09	2.225129e+01	2.143445e+02
2.040000e-06	3.065053e-06	3.223031e-09	2.189269e+01	2.130629e+02
2.050000e-06	3.013824e-06	3.289046e-09	2.152678e+01	2.117366e+02
2.060000e-06	2.961377e-06	3.232245e-09	2.115217e+01	2.103631e+02
2.070000e-06	2.907564e-06	3.152585e-09	2.076780e+01	2.089400e+02
2.080000e-06	2.852358e-06	3.177531e-09	2.037348e+01	2.074645e+02
2.090000e-06	2.796102e-06	3.147731e-09	1.997167e+01	2.059343e+02
2.100000e-06	2.738897e-06	3.121999e-09	1.956307e+01	2.043467e+02
2.110000e-06	2.680746e-06	3.106722e-09	1.914771e+01	2.026996e+02
2.120000e-06	2.621804e-06	3.082725e-09	1.872671e+01	2.009906e+02
2.130000e-06	2.562063e-06	3.052635e-09	1.830000e+01	1.992176e+02
2.140000e-06	2.501524e-06	3.000207e-09	1.786759e+01	1.973788e+02
2.150000e-06	2.440021e-06	3.005268e-09	1.742829e+01	1.954722e+02
2.160000e-06	2.377298e-06	2.974944e-09	1.698028e+01	1.934964e+02
2.170000e-06	2.313547e-06	2.908218e-09	1.652493e+01	1.914497e+02
2.180000e-06	2.249144e-06	2.890467e-09	1.606492e+01	1.893311e+02
2.190000e-06	2.184044e-06	2.873417e-09	1.559993e+01	1.871390e+02
2.200000e-06	2.118146e-06	2.831993e-09	1.512924e+01	1.848723e+02
2.210000e-06	2.051469e-06	2.772360e-09	1.465299e+01	1.825291e+02
2.220000e-06	1.984082e-06	2.760314e-09	1.417167e+01	1.801075e+02
2.230000e-06	1.916166e-06	2.741619e-09	1.368657e+01	1.776049e+02
2.240000e-06	1.847702e-06	2.663896e-09	1.319755e+01	1.750176e+02
2.250000e-06	1.778534e-06	2.623589e-09	1.270350e+01	1.723415e+02
2.260000e-06	1.708536e-06	2.606192e-09	1.220353e+01	1.695714e+02
2.270000e-06	1.637612e-06	2.561709e-09	1.169694e+01	1.667009e+02
2.280000e-06	1.565916e-06	2.495951e-09	1.118484e+01	1.637233e+02
2.290000e-06	1.493779e-06	2.450493e-09	1.066959e+01	1.606307e+02
2.300000e-06	1.421362e-06	2.417174e-09	1.015233e+01	1.574152e+02
2.310000e-06	1.348539e-06	2.360034e-09	9.632183e+00	1.540684e+02
2.320000e-06	1.275188e-06	2.306636e-09	9.108260e+00	1.505817e+02
2.330000e-06	1.201332e-06	2.252622e-09	8.580730e+00	1.469468e+02
2.340000e-06	1.127032e-06	2.188683e-09	8.050030e+00	1.431556e+02
2.350000e-06	1.052358e-06	2.127548e-09	7.516655e+00	1.391998e+02
2.360000e-06	9.773373e-07	2.078359e-09	6.980809e+00	1.350715e+02
2.370000e-06	9.019385e-07	2.016647e-09	6.442260e+00	1.307624e+02
2.380000e-06	8.262131e-07	1.928691e-09	5.901377e+00	1.262642e+02
2.390000e-06	7.502415e-07	1.857158e-09	5.358736e+00	1.215679e+02
2.400000e-06	6.740588e-07	1.799922e-09	4.814587e+00	1.166639e+02
2.410000e-06	5.976143e-07	1.721724e-09	4.268568e+00	1.115417e+02
2.420000e-06	5.208973e-07	1.626759e-09	3.720604e+00	1.061905e+02
2.430000e-06	4.440639e-07	1.541077e-09	3.171807e+00	1.005989e+02
2.440000e-06	3.670913e-07	1.462158e-09	2.622016e+00	9.475522e+01
2.450000e-06	2.899103e-07	1.368390e-09	2.070737e+00	8.864870e+01
2.460000e-06	2.125686e-07	1.264399e-09	1.518310e+00	8.226958e+01
2.470000e-06	1.350199e-07	1.163553e-09	9.644038e-01	7.561015e+01
2.480000e-06	5.729704e-08	1.060116e-09	4.092545e-01	6.866558e+01
2.490000e-06	-2.033487e-08	9.508261e-10	-1.452455e-01	6.143477e+01
2.500000e-06	-9.778518e-08	8.415234e-10	-6.984484e-01	5.392107e+01
2.510000e-06	-1.752682e-07	7.263569e-10	-1.251885e+00	4.613295e+01
2.520000e-06	-2.527461e-07	6.019417e-10	-1.805285e+00	3.808439e+01
2.530000e-06	-3.299767e-07	4.761015e-10	-2.356918e+00	2.979518e+01
2.540000e-06	-4.069720e-07	3.499048e-10	-2.906872e+00	2.129081e+01
2.550000e-06	-4.838141e-07	2.150244e-10	-3.455730e+00	1.260228e+01
2.560000e-06	-5.604342e-07	7.509735e-11	-4.003003e+00	3.765535e+00
2.570000e-06	-6.367940e-07	-6.004121e-11	-4.548416e+00	-5.179246e+00
2.580000e-06	-7.129360e-07	-1.937088e-10	-5.092275e+00	-1.418854e+01
2.590000e-06	-7.888236e-07	-3.340731e-10	-5.634316e+00	-2.321653e+01
2.600000e-06	-8.644101e-07	-4.736180e-10	-6.174206e+00	-3.221627e+01
2.610000e-06	-9.396454e-07	-6.025865e-10	-6.711588e+00	-4.114088e+01
2.620000e-06	-1.014451e-06	-7.293581e-10	-7.245902e+00	-4.994473e+01
2.630000e-06	-1.088906e-06	-8.613830e-10	-7.777708e+00	-5.858466e+01
2.640000e-06	-1.163076e-06	-9.917520e-10	-8.307478e+00	-6.702101e+01
2.650000e-06	-1.236844e-06	-1.113151e-09	-8.834384e+00	-7.521865e+01
2.660000e-06	-1.310171e-06	-1.232034e-09	-9.358136e+00	-8.314778e+01
2.670000e-06	-1.383015e-06	-1.350484e-09	-9.878439e+00	-9.078453e+01
2.680000e-06	-1.455429e-06	-1.464222e-09	-1.039566e+01	-9.811140e+01
2.690000e-06	-1.527526e-06	-1.572595e-09	-1.091063e+01	-1.051174e+02
2.700000e-06	-1.599199e-06	-1.673813e-09	-1.142257e+01	-1.117979e+02
2.710000e-06	-1.670263e-06	-1.767481e-09	-1.193016e+01	-1.181544e+02
2.720000e-06	-1.740474e-06	-1.858271e-09	-1.243165e+01	-1.241937e+02
2.730000e-06	-1.809746e-06	-1.947968e-09	-1.292644e+01	-1.299272e+02
2.740000e-06	-1.878288e-06	-2.031839e-09	-1.341601e+01	-1.353698e+02
2.750000e-06	-1.946284e-06	-2.108891e-09	-1.390169e+01	-1.405391e+02
2.760000e-06	-2.013666e-06	-2.185377e-09	-1.438297e+01	-1.454536e+02
2.770000e-06	-2.080337e-06	-2.263234e-09	-1.485918e+01	-1.501322e+02
2.780000e-06	-2.146368e-06	-2.336416e-09	-1.533082e+01	-1.545928e+02
2.790000e-06	-2.211683e-06	-2.401312e-09	-1.579735e+01	-1.588517e+02
2.800000e-06	-2.276297e-06	-2.461016e-09	-1.625886e+01	-1.629227e+02
2.810000e-06	-2.340286e-06	-2.521135e-09	-1.671591e+01	-1.668173e+02
2.820000e-06	-2.403327e-06	-2.581727e-09	-1.716620e+01	-1.705440e+02
2.830000e-06	-2.465184e-06	-2.638317e-09	-1.760802e+01	-1.741091e+02
2.840000e-06	-2.526056e-06	-2.689133e-09	-1.804282e+01	-1.775168e+02
2.850000e-06	-2.586159e-06	-2.737819e-09	-1.847211e+01	-1.807698e+02
2.860000e-06	-2.645429e-06	-2.788313e-09	-1.889546e+01	-1.838700e+02
2.870000e-06	-2.703758e-06	-2.837693e-09	-1.931208e+01	-1.868192e+02
2.880000e-06	-2.761156e-06	-2.881492e-09	-1.972205e+01	-1.896197e+02
2.890000e-06	-2.817681e-06	-2.920609e-09	-2.012580e+01	-1.922744e+02
2.900000e-06	-2.873274e-06	-2.960806e-09	-2.052288e+01	-1.947877e+02
2.910000e-06	-2.927586e-06	-3.002848e-09	-2.091081e+01	-1.971649e+02
2.920000e-06	-2.980506e-06	-3.038821e-09	-2.128881e+01	-1.994123e+02
2.930000e-06	-3.032196e-06	-3.066573e-09	-2.165801e+01	-2.015373e+02
2.940000e-06	-3.082709e-06	-3.093049e-09	-2.201881e+01	-2.035473e+02
