# Temperatura_=_20.0
# Concentracion g/m^3_=_9000.0
# C_Vs_to_Am_M_A/Vsm_=_65563218390.804596
# pendiente_HvsI_1/m_=_3716.3
# ordenada_HvsI_A/m_=_1297.0
# frecuencia_Hz_=_300782.8846993059

Tiempo_(s)	Campo_(V.s)	Magnetizacion_(V.s)	Campo_(kA/m)	Magnetizacion_(A/m)
0.000000e+00	-4.050836e-06	-3.562411e-09	-2.906755e+01	-2.331689e+02
1.000000e-08	-4.049107e-06	-3.565029e-09	-2.905514e+01	-2.331724e+02
2.000000e-08	-4.045872e-06	-3.565542e-09	-2.903194e+01	-2.331541e+02
3.000000e-08	-4.041479e-06	-3.564003e-09	-2.900041e+01	-2.331109e+02
4.000000e-08	-4.035861e-06	-3.560151e-09	-2.896010e+01	-2.330396e+02
5.000000e-08	-4.028973e-06	-3.556238e-09	-2.891067e+01	-2.329375e+02
6.000000e-08	-4.020922e-06	-3.551367e-09	-2.885290e+01	-2.328029e+02
7.000000e-08	-4.011462e-06	-3.531815e-09	-2.878502e+01	-2.326362e+02
8.000000e-08	-4.000264e-06	-3.539524e-09	-2.870467e+01	-2.324397e+02
9.000000e-08	-3.987151e-06	-3.609395e-09	-2.861057e+01	-2.322178e+02
1.000000e-07	-3.971820e-06	-3.634522e-09	-2.850056e+01	-2.319773e+02
1.100000e-07	-3.954690e-06	-3.594611e-09	-2.837764e+01	-2.317261e+02
1.200000e-07	-3.936436e-06	-3.423867e-09	-2.824666e+01	-2.314729e+02
1.300000e-07	-3.917298e-06	-3.391563e-09	-2.810932e+01	-2.312260e+02
1.400000e-07	-3.897216e-06	-3.645678e-09	-2.796522e+01	-2.309921e+02
1.500000e-07	-3.876072e-06	-3.598830e-09	-2.781350e+01	-2.307759e+02
1.600000e-07	-3.853903e-06	-3.438109e-09	-2.765443e+01	-2.305783e+02
1.700000e-07	-3.830129e-06	-3.488348e-09	-2.748383e+01	-2.303968e+02
1.800000e-07	-3.804504e-06	-3.396730e-09	-2.729995e+01	-2.302250e+02
1.900000e-07	-3.777726e-06	-3.458992e-09	-2.710780e+01	-2.300527e+02
2.000000e-07	-3.749878e-06	-3.697028e-09	-2.690797e+01	-2.298670e+02
2.100000e-07	-3.720599e-06	-3.461245e-09	-2.669788e+01	-2.296528e+02
2.200000e-07	-3.690088e-06	-3.303008e-09	-2.647894e+01	-2.293945e+02
2.300000e-07	-3.658565e-06	-3.585193e-09	-2.625274e+01	-2.290768e+02
2.400000e-07	-3.625700e-06	-3.625891e-09	-2.601691e+01	-2.286865e+02
2.500000e-07	-3.591226e-06	-3.478925e-09	-2.576954e+01	-2.282131e+02
2.600000e-07	-3.555333e-06	-3.403929e-09	-2.551198e+01	-2.276496e+02
2.700000e-07	-3.518258e-06	-3.380363e-09	-2.524594e+01	-2.269931e+02
2.800000e-07	-3.480079e-06	-3.506986e-09	-2.497197e+01	-2.262446e+02
2.900000e-07	-3.440756e-06	-3.517684e-09	-2.468980e+01	-2.254084e+02
3.000000e-07	-3.400283e-06	-3.369273e-09	-2.439938e+01	-2.244916e+02
3.100000e-07	-3.358402e-06	-3.364415e-09	-2.409886e+01	-2.235027e+02
3.200000e-07	-3.315025e-06	-3.369450e-09	-2.378760e+01	-2.224511e+02
3.300000e-07	-3.270535e-06	-3.387586e-09	-2.346835e+01	-2.213454e+02
3.400000e-07	-3.225014e-06	-3.434162e-09	-2.314171e+01	-2.201927e+02
3.500000e-07	-3.178195e-06	-3.321289e-09	-2.280575e+01	-2.189981e+02
3.600000e-07	-3.130210e-06	-3.206668e-09	-2.246143e+01	-2.177642e+02
3.700000e-07	-3.081108e-06	-3.318520e-09	-2.210909e+01	-2.164910e+02
3.800000e-07	-3.030432e-06	-3.392844e-09	-2.174545e+01	-2.151762e+02
3.900000e-07	-2.978182e-06	-3.224773e-09	-2.137052e+01	-2.138158e+02
4.000000e-07	-2.924808e-06	-3.150965e-09	-2.098752e+01	-2.124047e+02
4.100000e-07	-2.870569e-06	-3.253856e-09	-2.059832e+01	-2.109374e+02
4.200000e-07	-2.815423e-06	-3.246988e-09	-2.020261e+01	-2.094090e+02
4.300000e-07	-2.759356e-06	-3.146249e-09	-1.980029e+01	-2.078153e+02
4.400000e-07	-2.702205e-06	-3.118470e-09	-1.939019e+01	-2.061536e+02
4.500000e-07	-2.643791e-06	-3.113429e-09	-1.897103e+01	-2.044224e+02
4.600000e-07	-2.584429e-06	-3.087935e-09	-1.854507e+01	-2.026217e+02
4.700000e-07	-2.524297e-06	-3.061389e-09	-1.811358e+01	-2.007527e+02
4.800000e-07	-2.463282e-06	-3.036927e-09	-1.767575e+01	-1.988172e+02
4.900000e-07	-2.401443e-06	-2.984174e-09	-1.723202e+01	-1.968170e+02
5.000000e-07	-2.338805e-06	-2.949988e-09	-1.678254e+01	-1.947538e+02
5.100000e-07	-2.275451e-06	-2.958474e-09	-1.632793e+01	-1.926283e+02
5.200000e-07	-2.211390e-06	-2.916304e-09	-1.586826e+01	-1.904402e+02
5.300000e-07	-2.146266e-06	-2.842066e-09	-1.540095e+01	-1.881878e+02
5.400000e-07	-2.080007e-06	-2.807941e-09	-1.492549e+01	-1.858683e+02
5.500000e-07	-2.012989e-06	-2.815579e-09	-1.444459e+01	-1.834777e+02
5.600000e-07	-1.945438e-06	-2.773679e-09	-1.395987e+01	-1.810107e+02
5.700000e-07	-1.877323e-06	-2.686351e-09	-1.347109e+01	-1.784619e+02
5.800000e-07	-1.808593e-06	-2.650374e-09	-1.297791e+01	-1.758250e+02
5.900000e-07	-1.739273e-06	-2.645256e-09	-1.248049e+01	-1.730940e+02
6.000000e-07	-1.669418e-06	-2.597776e-09	-1.197923e+01	-1.702629e+02
6.100000e-07	-1.598937e-06	-2.522278e-09	-1.147348e+01	-1.673256e+02
6.200000e-07	-1.527818e-06	-2.479842e-09	-1.096316e+01	-1.642765e+02
6.300000e-07	-1.456311e-06	-2.449016e-09	-1.045004e+01	-1.611100e+02
6.400000e-07	-1.384521e-06	-2.398120e-09	-9.934900e+00	-1.578203e+02
6.500000e-07	-1.312261e-06	-2.337769e-09	-9.416381e+00	-1.544014e+02
6.600000e-07	-1.239271e-06	-2.280000e-09	-8.892626e+00	-1.508469e+02
6.700000e-07	-1.165566e-06	-2.220042e-09	-8.363743e+00	-1.471496e+02
6.800000e-07	-1.091246e-06	-2.166538e-09	-7.830448e+00	-1.433016e+02
6.900000e-07	-1.016377e-06	-2.115996e-09	-7.293211e+00	-1.392942e+02
7.000000e-07	-9.410612e-07	-2.041922e-09	-6.752766e+00	-1.351179e+02
7.100000e-07	-8.654547e-07	-1.957810e-09	-6.210237e+00	-1.307625e+02
7.200000e-07	-7.896730e-07	-1.896294e-09	-5.666450e+00	-1.262171e+02
7.300000e-07	-7.137168e-07	-1.842793e-09	-5.121412e+00	-1.214703e+02
7.400000e-07	-6.375153e-07	-1.755334e-09	-4.574614e+00	-1.165106e+02
7.500000e-07	-5.608742e-07	-1.658205e-09	-4.024661e+00	-1.113265e+02
7.600000e-07	-4.839487e-07	-1.583308e-09	-3.472667e+00	-1.059063e+02
7.700000e-07	-4.069645e-07	-1.509284e-09	-2.920252e+00	-1.002391e+02
7.800000e-07	-3.298776e-07	-1.409324e-09	-2.367100e+00	-9.431448e+01
7.900000e-07	-2.526610e-07	-1.302522e-09	-1.813017e+00	-8.812335e+01
8.000000e-07	-1.753316e-07	-1.211704e-09	-1.258126e+00	-8.165804e+01
8.100000e-07	-9.791269e-08	-1.115601e-09	-7.025914e-01	-7.491300e+01
8.200000e-07	-2.045416e-08	-1.003865e-09	-1.467727e-01	-6.788536e+01
8.300000e-07	5.697805e-08	-8.873053e-10	4.088570e-01	-6.057558e+01
8.400000e-07	1.343490e-07	-7.724894e-10	9.640474e-01	-5.298812e+01
8.500000e-07	2.116495e-07	-6.535293e-10	1.518731e+00	-4.513203e+01
8.600000e-07	2.888646e-07	-5.307824e-10	2.072804e+00	-3.702152e+01
8.700000e-07	3.659960e-07	-4.009877e-10	2.626275e+00	-2.867631e+01
8.800000e-07	4.430229e-07	-2.638080e-10	3.178996e+00	-2.012176e+01
8.900000e-07	5.198780e-07	-1.319885e-10	3.730485e+00	-1.138884e+01
9.000000e-07	5.964704e-07	-4.732060e-12	4.280089e+00	-2.513717e+00
9.100000e-07	6.728161e-07	1.327414e-10	4.827921e+00	6.462913e+00
9.200000e-07	7.489262e-07	2.811553e-10	5.374064e+00	1.549672e+01
9.300000e-07	8.247725e-07	4.187163e-10	5.918314e+00	2.454093e+01
9.400000e-07	9.004030e-07	5.463823e-10	6.461015e+00	3.354760e+01
9.500000e-07	9.758237e-07	6.822932e-10	7.002211e+00	4.246905e+01
9.600000e-07	1.050914e-06	8.276206e-10	7.541036e+00	5.125929e+01
9.700000e-07	1.125474e-06	9.640999e-10	8.076054e+00	5.987530e+01
9.800000e-07	1.199371e-06	1.085517e-09	8.606317e+00	6.827827e+01
9.900000e-07	1.272489e-06	1.207360e-09	9.130989e+00	7.643457e+01
1.000000e-06	1.344893e-06	1.335085e-09	9.650539e+00	8.431643e+01
1.010000e-06	1.416818e-06	1.458133e-09	1.016665e+01	9.190244e+01
1.020000e-06	1.488402e-06	1.566391e-09	1.068031e+01	9.917768e+01
1.030000e-06	1.559649e-06	1.666019e-09	1.119156e+01	1.061336e+02
1.040000e-06	1.630403e-06	1.764161e-09	1.169927e+01	1.127677e+02
1.050000e-06	1.700513e-06	1.862197e-09	1.220235e+01	1.190831e+02
1.060000e-06	1.769986e-06	1.956739e-09	1.270088e+01	1.250875e+02
1.070000e-06	1.838846e-06	2.040248e-09	1.319499e+01	1.307926e+02
1.080000e-06	1.907080e-06	2.116157e-09	1.368462e+01	1.362133e+02
1.090000e-06	1.974787e-06	2.194034e-09	1.417047e+01	1.413664e+02
1.100000e-06	2.042032e-06	2.273548e-09	1.465299e+01	1.462701e+02
1.110000e-06	2.108515e-06	2.344412e-09	1.513005e+01	1.509425e+02
1.120000e-06	2.173839e-06	2.405222e-09	1.559880e+01	1.554016e+02
1.130000e-06	2.238097e-06	2.466492e-09	1.605990e+01	1.596637e+02
1.140000e-06	2.301679e-06	2.532417e-09	1.651614e+01	1.637436e+02
1.150000e-06	2.364640e-06	2.593198e-09	1.696793e+01	1.676537e+02
1.160000e-06	2.426877e-06	2.644655e-09	1.741452e+01	1.714036e+02
1.170000e-06	2.488350e-06	2.695277e-09	1.785563e+01	1.750008e+02
1.180000e-06	2.548984e-06	2.747326e-09	1.829073e+01	1.784499e+02
1.190000e-06	2.608866e-06	2.798572e-09	1.872042e+01	1.817536e+02
1.200000e-06	2.668063e-06	2.846213e-09	1.914520e+01	1.849126e+02
1.210000e-06	2.726207e-06	2.889960e-09	1.956242e+01	1.879269e+02
1.220000e-06	2.782993e-06	2.930253e-09	1.996990e+01	1.907956e+02
1.230000e-06	2.838671e-06	2.969713e-09	2.036943e+01	1.935182e+02
1.240000e-06	2.893450e-06	3.009243e-09	2.076251e+01	1.960948e+02
1.250000e-06	2.947304e-06	3.045448e-09	2.114895e+01	1.985267e+02
1.260000e-06	3.000173e-06	3.077044e-09	2.152832e+01	2.008168e+02
1.270000e-06	3.051888e-06	3.107894e-09	2.189941e+01	2.029697e+02
1.280000e-06	3.102174e-06	3.141336e-09	2.226024e+01	2.049918e+02
1.290000e-06	3.150872e-06	3.172565e-09	2.260969e+01	2.068904e+02
1.300000e-06	3.198283e-06	3.200030e-09	2.294990e+01	2.086745e+02
1.310000e-06	3.244654e-06	3.225804e-09	2.328264e+01	2.103531e+02
1.320000e-06	3.289959e-06	3.250277e-09	2.360773e+01	2.119355e+02
1.330000e-06	3.334234e-06	3.273120e-09	2.392543e+01	2.134305e+02
1.340000e-06	3.377538e-06	3.295474e-09	2.423618e+01	2.148461e+02
1.350000e-06	3.419512e-06	3.317042e-09	2.453737e+01	2.161890e+02
1.360000e-06	3.459930e-06	3.337433e-09	2.482739e+01	2.174648e+02
1.370000e-06	3.499177e-06	3.355843e-09	2.510902e+01	2.186776e+02
1.380000e-06	3.537357e-06	3.373069e-09	2.538299e+01	2.198306e+02
1.390000e-06	3.574326e-06	3.391564e-09	2.564826e+01	2.209263e+02
1.400000e-06	3.610221e-06	3.408978e-09	2.590583e+01	2.219664e+02
1.410000e-06	3.644917e-06	3.424255e-09	2.615481e+01	2.229526e+02
1.420000e-06	3.678067e-06	3.439581e-09	2.639268e+01	2.238868e+02
1.430000e-06	3.709865e-06	3.455228e-09	2.662085e+01	2.247710e+02
1.440000e-06	3.740462e-06	3.468895e-09	2.684040e+01	2.256076e+02
1.450000e-06	3.769766e-06	3.482066e-09	2.705068e+01	2.263992e+02
1.460000e-06	3.797897e-06	3.495618e-09	2.725254e+01	2.271484e+02
1.470000e-06	3.824798e-06	3.507977e-09	2.744557e+01	2.278577e+02
1.480000e-06	3.850099e-06	3.520746e-09	2.762712e+01	2.285291e+02
1.490000e-06	3.873843e-06	3.532255e-09	2.779751e+01	2.291637e+02
1.500000e-06	3.896286e-06	3.541420e-09	2.795855e+01	2.297618e+02
1.510000e-06	3.917434e-06	3.548894e-09	2.811030e+01	2.303230e+02
1.520000e-06	3.937430e-06	3.556837e-09	2.825379e+01	2.308457e+02
1.530000e-06	3.956254e-06	3.565188e-09	2.838886e+01	2.313282e+02
1.540000e-06	3.973607e-06	3.572191e-09	2.851339e+01	2.317682e+02
1.550000e-06	3.989462e-06	3.578875e-09	2.862715e+01	2.321640e+02
1.560000e-06	4.003848e-06	3.585358e-09	2.873038e+01	2.325144e+02
1.570000e-06	4.016727e-06	3.592041e-09	2.882280e+01	2.328191e+02
1.580000e-06	4.028046e-06	3.596911e-09	2.890402e+01	2.330793e+02
1.590000e-06	4.037585e-06	3.600913e-09	2.897247e+01	2.332971e+02
1.600000e-06	4.045516e-06	3.604597e-09	2.902938e+01	2.334760e+02
1.610000e-06	4.052106e-06	3.606236e-09	2.907667e+01	2.336202e+02
1.620000e-06	4.057357e-06	3.607513e-09	2.911435e+01	2.337343e+02
1.630000e-06	4.061407e-06	3.609680e-09	2.914341e+01	2.338225e+02
1.640000e-06	4.064074e-06	3.613695e-09	2.916255e+01	2.338885e+02
1.650000e-06	4.065008e-06	3.617504e-09	2.916925e+01	2.339346e+02
1.660000e-06	4.064497e-06	3.620019e-09	2.916558e+01	2.339620e+02
1.670000e-06	4.062744e-06	3.618185e-09	2.915300e+01	2.339699e+02
1.680000e-06	4.059701e-06	3.615350e-09	2.913116e+01	2.339566e+02
1.690000e-06	4.055559e-06	3.613547e-09	2.910145e+01	2.339190e+02
1.700000e-06	4.050146e-06	3.613016e-09	2.906261e+01	2.338541e+02
1.710000e-06	4.043116e-06	3.611631e-09	2.901216e+01	2.337588e+02
1.720000e-06	4.034739e-06	3.614659e-09	2.895205e+01	2.336313e+02
1.730000e-06	4.025254e-06	3.637240e-09	2.888399e+01	2.334715e+02
1.740000e-06	4.014547e-06	3.594859e-09	2.880715e+01	2.332811e+02
1.750000e-06	4.002090e-06	3.508175e-09	2.871777e+01	2.330642e+02
1.760000e-06	3.987158e-06	3.502330e-09	2.861062e+01	2.328271e+02
1.770000e-06	3.970101e-06	3.590832e-09	2.848823e+01	2.325776e+02
1.780000e-06	3.952086e-06	3.762787e-09	2.835895e+01	2.323241e+02
1.790000e-06	3.933800e-06	3.616561e-09	2.822774e+01	2.320752e+02
1.800000e-06	3.914488e-06	3.410689e-09	2.808916e+01	2.318382e+02
1.810000e-06	3.892985e-06	3.631584e-09	2.793486e+01	2.316180e+02
1.820000e-06	3.870045e-06	3.601711e-09	2.777025e+01	2.314165e+02
1.830000e-06	3.846381e-06	3.558773e-09	2.760045e+01	2.312321e+02
1.840000e-06	3.821041e-06	3.749118e-09	2.741862e+01	2.310590e+02
1.850000e-06	3.794107e-06	3.479904e-09	2.722534e+01	2.308879e+02
1.860000e-06	3.766303e-06	3.355280e-09	2.702584e+01	2.307064e+02
1.870000e-06	3.737273e-06	3.700019e-09	2.681752e+01	2.304997e+02
1.880000e-06	3.706597e-06	3.553630e-09	2.659740e+01	2.302522e+02
1.890000e-06	3.674444e-06	3.288860e-09	2.636668e+01	2.299485e+02
1.900000e-06	3.641026e-06	3.498735e-09	2.612688e+01	2.295748e+02
1.910000e-06	3.606585e-06	3.515344e-09	2.587975e+01	2.291199e+02
1.920000e-06	3.570982e-06	3.467936e-09	2.562427e+01	2.285762e+02
1.930000e-06	3.534115e-06	3.467718e-09	2.535972e+01	2.279398e+02
1.940000e-06	3.496057e-06	3.327395e-09	2.508663e+01	2.272108e+02
1.950000e-06	3.456384e-06	3.416699e-09	2.480195e+01	2.263929e+02
1.960000e-06	3.415175e-06	3.418669e-09	2.450625e+01	2.254927e+02
1.970000e-06	3.373030e-06	3.370825e-09	2.420383e+01	2.245186e+02
1.980000e-06	3.329921e-06	3.458326e-09	2.389449e+01	2.234797e+02
1.990000e-06	3.285740e-06	3.247593e-09	2.357746e+01	2.223850e+02
2.000000e-06	3.240561e-06	3.245178e-09	2.325327e+01	2.212419e+02
2.010000e-06	3.194285e-06	3.452670e-09	2.292121e+01	2.200561e+02
2.020000e-06	3.146667e-06	3.322322e-09	2.257952e+01	2.188306e+02
2.030000e-06	3.097632e-06	3.176811e-09	2.222765e+01	2.175660e+02
2.040000e-06	3.047570e-06	3.204153e-09	2.186842e+01	2.162604e+02
2.050000e-06	2.996489e-06	3.317461e-09	2.150188e+01	2.149102e+02
2.060000e-06	2.944206e-06	3.240173e-09	2.112672e+01	2.135105e+02
2.070000e-06	2.890601e-06	3.097015e-09	2.074206e+01	2.120558e+02
2.080000e-06	2.835581e-06	3.168883e-09	2.034726e+01	2.105410e+02
2.090000e-06	2.779474e-06	3.158461e-09	1.994465e+01	2.089616e+02
2.100000e-06	2.722408e-06	3.100554e-09	1.953516e+01	2.073147e+02
2.110000e-06	2.664438e-06	3.089341e-09	1.911919e+01	2.055984e+02
2.120000e-06	2.605714e-06	3.058637e-09	1.869780e+01	2.038127e+02
2.130000e-06	2.546145e-06	3.039472e-09	1.827035e+01	2.019583e+02
2.140000e-06	2.485827e-06	2.973637e-09	1.783753e+01	2.000369e+02
2.150000e-06	2.424658e-06	2.987527e-09	1.739860e+01	1.980505e+02
2.160000e-06	2.362287e-06	2.967308e-09	1.695105e+01	1.960007e+02
2.170000e-06	2.298786e-06	2.863627e-09	1.649538e+01	1.938886e+02
2.180000e-06	2.234538e-06	2.871365e-09	1.603436e+01	1.917140e+02
2.190000e-06	2.169688e-06	2.869921e-09	1.556901e+01	1.894757e+02
2.200000e-06	2.104045e-06	2.814620e-09	1.509798e+01	1.871710e+02
2.210000e-06	2.037637e-06	2.739526e-09	1.462146e+01	1.847960e+02
2.220000e-06	1.970581e-06	2.731102e-09	1.414028e+01	1.823460e+02
2.230000e-06	1.902848e-06	2.739952e-09	1.365426e+01	1.798152e+02
2.240000e-06	1.834503e-06	2.642899e-09	1.316383e+01	1.771978e+02
2.250000e-06	1.765573e-06	2.593492e-09	1.266921e+01	1.744876e+02
2.260000e-06	1.695951e-06	2.584555e-09	1.216962e+01	1.716784e+02
2.270000e-06	1.625383e-06	2.541058e-09	1.166325e+01	1.687644e+02
2.280000e-06	1.553918e-06	2.475319e-09	1.115044e+01	1.657399e+02
2.290000e-06	1.481952e-06	2.428743e-09	1.063403e+01	1.625990e+02
2.300000e-06	1.409674e-06	2.400059e-09	1.011539e+01	1.593363e+02
2.310000e-06	1.337070e-06	2.335092e-09	9.594405e+00	1.559457e+02
2.320000e-06	1.264001e-06	2.284875e-09	9.070085e+00	1.524209e+02
2.330000e-06	1.190430e-06	2.240648e-09	8.542158e+00	1.487549e+02
2.340000e-06	1.116421e-06	2.170164e-09	8.011095e+00	1.449399e+02
2.350000e-06	1.042056e-06	2.100899e-09	7.477477e+00	1.409676e+02
2.360000e-06	9.673638e-07	2.053475e-09	6.941505e+00	1.368284e+02
2.370000e-06	8.922593e-07	2.000108e-09	6.402578e+00	1.325123e+02
2.380000e-06	8.168696e-07	1.910609e-09	5.861605e+00	1.280085e+02
2.390000e-06	7.412811e-07	1.835748e-09	5.319205e+00	1.233059e+02
2.400000e-06	6.653895e-07	1.781813e-09	4.774630e+00	1.183930e+02
2.410000e-06	5.892160e-07	1.702009e-09	4.228033e+00	1.132579e+02
2.420000e-06	5.128345e-07	1.606154e-09	3.679943e+00	1.078893e+02
2.430000e-06	4.362963e-07	1.524589e-09	3.130728e+00	1.022760e+02
2.440000e-06	3.596079e-07	1.448269e-09	2.580436e+00	9.640745e+01
2.450000e-06	2.827699e-07	1.349250e-09	2.029070e+00	9.027420e+01
2.460000e-06	2.057648e-07	1.239605e-09	1.476505e+00	8.386825e+01
2.470000e-06	1.285824e-07	1.145437e-09	9.226680e-01	7.718356e+01
2.480000e-06	5.127624e-08	1.048350e-09	3.679425e-01	7.021662e+01
2.490000e-06	-2.599696e-08	9.354787e-10	-1.865462e-01	6.296713e+01
2.500000e-06	-1.031603e-07	8.205082e-10	-7.402464e-01	5.543864e+01
2.510000e-06	-1.802750e-07	7.054126e-10	-1.293598e+00	4.763916e+01
2.520000e-06	-2.573017e-07	5.826194e-10	-1.846318e+00	3.958177e+01
2.530000e-06	-3.340855e-07	4.557776e-10	-2.397295e+00	3.128497e+01
2.540000e-06	-4.106237e-07	3.283626e-10	-2.946510e+00	2.277292e+01
2.550000e-06	-4.870093e-07	1.889354e-10	-3.494629e+00	1.407541e+01
2.560000e-06	-5.632149e-07	4.767308e-11	-4.041457e+00	5.227534e+00
2.570000e-06	-6.392011e-07	-8.168085e-11	-4.586710e+00	-3.730908e+00
2.580000e-06	-7.149651e-07	-2.108085e-10	-5.130370e+00	-1.275628e+01
2.590000e-06	-7.905086e-07	-3.539602e-10	-5.672447e+00	-2.180221e+01
2.600000e-06	-8.657266e-07	-4.966423e-10	-6.212188e+00	-3.082091e+01
2.610000e-06	-9.405567e-07	-6.211461e-10	-6.749146e+00	-3.976451e+01
2.620000e-06	-1.015027e-06	-7.444416e-10	-7.283520e+00	-4.858654e+01
2.630000e-06	-1.089177e-06	-8.810201e-10	-7.815600e+00	-5.724325e+01
2.640000e-06	-1.163013e-06	-1.017366e-09	-8.345423e+00	-6.569484e+01
2.650000e-06	-1.236431e-06	-1.139355e-09	-8.872247e+00	-7.390648e+01
2.660000e-06	-1.309291e-06	-1.254269e-09	-9.395070e+00	-8.184911e+01
2.670000e-06	-1.381698e-06	-1.370112e-09	-9.914643e+00	-8.949993e+01
2.680000e-06	-1.453824e-06	-1.484996e-09	-1.043220e+01	-9.684263e+01
2.690000e-06	-1.525684e-06	-1.595596e-09	-1.094784e+01	-1.038673e+02
2.700000e-06	-1.597050e-06	-1.696788e-09	-1.145994e+01	-1.105703e+02
2.710000e-06	-1.667605e-06	-1.788122e-09	-1.196622e+01	-1.169534e+02
2.720000e-06	-1.737235e-06	-1.878007e-09	-1.246586e+01	-1.230235e+02
2.730000e-06	-1.805971e-06	-1.970353e-09	-1.295909e+01	-1.287915e+02
2.740000e-06	-1.874101e-06	-2.058002e-09	-1.344797e+01	-1.342717e+02
2.750000e-06	-1.941781e-06	-2.134239e-09	-1.393363e+01	-1.394806e+02
2.760000e-06	-2.008834e-06	-2.206055e-09	-1.441477e+01	-1.444361e+02
2.770000e-06	-2.075205e-06	-2.281480e-09	-1.489103e+01	-1.491565e+02
2.780000e-06	-2.140899e-06	-2.356043e-09	-1.536243e+01	-1.536598e+02
2.790000e-06	-2.205843e-06	-2.422202e-09	-1.582845e+01	-1.579628e+02
2.800000e-06	-2.270140e-06	-2.482148e-09	-1.628983e+01	-1.620806e+02
2.810000e-06	-2.333799e-06	-2.543385e-09	-1.674662e+01	-1.660260e+02
2.820000e-06	-2.396458e-06	-2.606111e-09	-1.719625e+01	-1.698095e+02
2.830000e-06	-2.457934e-06	-2.665071e-09	-1.763738e+01	-1.734389e+02
2.840000e-06	-2.518471e-06	-2.719759e-09	-1.807177e+01	-1.769194e+02
2.850000e-06	-2.578238e-06	-2.769950e-09	-1.850064e+01	-1.802540e+02
2.860000e-06	-2.637163e-06	-2.819018e-09	-1.892347e+01	-1.834440e+02
2.870000e-06	-2.695209e-06	-2.871234e-09	-1.933999e+01	-1.864893e+02
2.880000e-06	-2.752291e-06	-2.920679e-09	-1.974960e+01	-1.893892e+02
2.890000e-06	-2.808504e-06	-2.962442e-09	-2.015296e+01	-1.921431e+02
2.900000e-06	-2.863821e-06	-3.000304e-09	-2.054990e+01	-1.947508e+02
2.910000e-06	-2.917743e-06	-3.040214e-09	-2.093682e+01	-1.972134e+02
2.920000e-06	-2.970260e-06	-3.079529e-09	-2.131367e+01	-1.995335e+02
2.930000e-06	-3.021657e-06	-3.112611e-09	-2.168248e+01	-2.017154e+02
2.940000e-06	-3.071884e-06	-3.140346e-09	-2.204290e+01	-2.037648e+02
