# Temperatura_=_20.0
# Concentracion g/m^3_=_9000.0
# C_Vs_to_Am_M_A/Vsm_=_65563218390.804596
# pendiente_HvsI_1/m_=_3716.3
# ordenada_HvsI_A/m_=_1297.0
# frecuencia_Hz_=_300775.61616239033

Tiempo_(s)	Campo_(V.s)	Magnetizacion_(V.s)	Campo_(kA/m)	Magnetizacion_(A/m)
0.000000e+00	-4.053176e-06	-3.544360e-09	-2.907264e+01	-2.316173e+02
1.000000e-08	-4.051186e-06	-3.544817e-09	-2.905837e+01	-2.315743e+02
2.000000e-08	-4.047736e-06	-3.543005e-09	-2.903362e+01	-2.315126e+02
3.000000e-08	-4.043100e-06	-3.541685e-09	-2.900037e+01	-2.314303e+02
4.000000e-08	-4.037228e-06	-3.539583e-09	-2.895825e+01	-2.313244e+02
5.000000e-08	-4.030167e-06	-3.535458e-09	-2.890760e+01	-2.311913e+02
6.000000e-08	-4.021874e-06	-3.527965e-09	-2.884812e+01	-2.310277e+02
7.000000e-08	-4.011998e-06	-3.517470e-09	-2.877728e+01	-2.308315e+02
8.000000e-08	-4.000350e-06	-3.524409e-09	-2.869373e+01	-2.306027e+02
9.000000e-08	-3.986821e-06	-3.552055e-09	-2.859669e+01	-2.303436e+02
1.000000e-07	-3.971237e-06	-3.570801e-09	-2.848491e+01	-2.300590e+02
1.100000e-07	-3.953984e-06	-3.539574e-09	-2.836116e+01	-2.297563e+02
1.200000e-07	-3.935579e-06	-3.460370e-09	-2.822914e+01	-2.294446e+02
1.300000e-07	-3.916244e-06	-3.449791e-09	-2.809046e+01	-2.291336e+02
1.400000e-07	-3.895982e-06	-3.521811e-09	-2.794512e+01	-2.288327e+02
1.500000e-07	-3.874707e-06	-3.527488e-09	-2.779252e+01	-2.285495e+02
1.600000e-07	-3.852298e-06	-3.473400e-09	-2.763179e+01	-2.282885e+02
1.700000e-07	-3.828184e-06	-3.433357e-09	-2.745882e+01	-2.280504e+02
1.800000e-07	-3.802289e-06	-3.411474e-09	-2.727308e+01	-2.278314e+02
1.900000e-07	-3.775289e-06	-3.467391e-09	-2.707942e+01	-2.276230e+02
2.000000e-07	-3.747145e-06	-3.522226e-09	-2.687754e+01	-2.274125e+02
2.100000e-07	-3.717533e-06	-3.438704e-09	-2.666514e+01	-2.271842e+02
2.200000e-07	-3.686720e-06	-3.386032e-09	-2.644413e+01	-2.269205e+02
2.300000e-07	-3.654904e-06	-3.474003e-09	-2.621592e+01	-2.266034e+02
2.400000e-07	-3.621760e-06	-3.523038e-09	-2.597818e+01	-2.262166e+02
2.500000e-07	-3.587034e-06	-3.456136e-09	-2.572910e+01	-2.257464e+02
2.600000e-07	-3.550908e-06	-3.372669e-09	-2.546997e+01	-2.251835e+02
2.700000e-07	-3.513635e-06	-3.372199e-09	-2.520262e+01	-2.245235e+02
2.800000e-07	-3.475220e-06	-3.423823e-09	-2.492707e+01	-2.237668e+02
2.900000e-07	-3.435647e-06	-3.415292e-09	-2.464323e+01	-2.229186e+02
3.000000e-07	-3.394870e-06	-3.360770e-09	-2.435074e+01	-2.219881e+02
3.100000e-07	-3.352579e-06	-3.318135e-09	-2.404740e+01	-2.209867e+02
3.200000e-07	-3.308894e-06	-3.309904e-09	-2.373405e+01	-2.199272e+02
3.300000e-07	-3.264149e-06	-3.352156e-09	-2.341311e+01	-2.188214e+02
3.400000e-07	-3.218322e-06	-3.347408e-09	-2.308440e+01	-2.176797e+02
3.500000e-07	-3.171279e-06	-3.253401e-09	-2.274697e+01	-2.165091e+02
3.600000e-07	-3.123028e-06	-3.217643e-09	-2.240087e+01	-2.153134e+02
3.700000e-07	-3.073476e-06	-3.276521e-09	-2.204545e+01	-2.140923e+02
3.800000e-07	-3.022362e-06	-3.277218e-09	-2.167881e+01	-2.128422e+02
3.900000e-07	-2.969818e-06	-3.194382e-09	-2.130193e+01	-2.115567e+02
4.000000e-07	-2.916290e-06	-3.157137e-09	-2.091798e+01	-2.102279e+02
4.100000e-07	-2.861921e-06	-3.179146e-09	-2.052800e+01	-2.088472e+02
4.200000e-07	-2.806688e-06	-3.171212e-09	-2.013183e+01	-2.074065e+02
4.300000e-07	-2.750539e-06	-3.127689e-09	-1.972908e+01	-2.058991e+02
4.400000e-07	-2.693136e-06	-3.086997e-09	-1.931734e+01	-2.043207e+02
4.500000e-07	-2.634430e-06	-3.060083e-09	-1.889625e+01	-2.026689e+02
4.600000e-07	-2.574829e-06	-3.049698e-09	-1.846875e+01	-2.009437e+02
4.700000e-07	-2.514493e-06	-3.037879e-09	-1.803597e+01	-1.991467e+02
4.800000e-07	-2.453323e-06	-2.993077e-09	-1.759721e+01	-1.972807e+02
4.900000e-07	-2.391271e-06	-2.939444e-09	-1.715212e+01	-1.953485e+02
5.000000e-07	-2.328413e-06	-2.930037e-09	-1.670126e+01	-1.933524e+02
5.100000e-07	-2.264915e-06	-2.926608e-09	-1.624579e+01	-1.912933e+02
5.200000e-07	-2.200651e-06	-2.871927e-09	-1.578484e+01	-1.891702e+02
5.300000e-07	-2.135203e-06	-2.812835e-09	-1.531539e+01	-1.869805e+02
5.400000e-07	-2.068618e-06	-2.797141e-09	-1.483780e+01	-1.847195e+02
5.500000e-07	-2.001389e-06	-2.782546e-09	-1.435558e+01	-1.823811e+02
5.600000e-07	-1.933728e-06	-2.734159e-09	-1.387025e+01	-1.799583e+02
5.700000e-07	-1.865518e-06	-2.678829e-09	-1.338100e+01	-1.774440e+02
5.800000e-07	-1.796681e-06	-2.642007e-09	-1.288725e+01	-1.748311e+02
5.900000e-07	-1.727270e-06	-2.614050e-09	-1.238937e+01	-1.721136e+02
6.000000e-07	-1.657203e-06	-2.572464e-09	-1.188680e+01	-1.692863e+02
6.100000e-07	-1.586471e-06	-2.514514e-09	-1.137944e+01	-1.663454e+02
6.200000e-07	-1.515267e-06	-2.460080e-09	-1.086871e+01	-1.632877e+02
6.300000e-07	-1.443724e-06	-2.421193e-09	-1.035555e+01	-1.601105e+02
6.400000e-07	-1.371879e-06	-2.380767e-09	-9.840219e+00	-1.568108e+02
6.500000e-07	-1.299528e-06	-2.321991e-09	-9.321262e+00	-1.533849e+02
6.600000e-07	-1.226357e-06	-2.255754e-09	-8.796419e+00	-1.498277e+02
6.700000e-07	-1.152392e-06	-2.201737e-09	-8.265885e+00	-1.461324e+02
6.800000e-07	-1.077899e-06	-2.156244e-09	-7.731560e+00	-1.422902e+02
6.900000e-07	-1.002919e-06	-2.096954e-09	-7.193742e+00	-1.382902e+02
7.000000e-07	-9.274923e-07	-2.019780e-09	-6.652722e+00	-1.341198e+02
7.100000e-07	-8.518352e-07	-1.946743e-09	-6.110048e+00	-1.297653e+02
7.200000e-07	-7.760143e-07	-1.888802e-09	-5.566199e+00	-1.252121e+02
7.300000e-07	-6.999442e-07	-1.823319e-09	-5.020563e+00	-1.204459e+02
7.400000e-07	-6.235527e-07	-1.736704e-09	-4.472622e+00	-1.154528e+02
7.500000e-07	-5.468209e-07	-1.647479e-09	-3.922240e+00	-1.102200e+02
7.600000e-07	-4.698695e-07	-1.568961e-09	-3.370282e+00	-1.047366e+02
7.700000e-07	-3.928028e-07	-1.487583e-09	-2.817498e+00	-9.899317e+01
7.800000e-07	-3.156261e-07	-1.390949e-09	-2.263924e+00	-9.298248e+01
7.900000e-07	-2.383197e-07	-1.288865e-09	-1.709421e+00	-8.669914e+01
8.000000e-07	-1.608914e-07	-1.190112e-09	-1.154043e+00	-8.013982e+01
8.100000e-07	-8.346454e-08	-1.090621e-09	-5.986749e-01	-7.330321e+01
8.200000e-07	-6.048237e-09	-9.823562e-10	-4.338283e-02	-6.619018e+01
8.300000e-07	7.136749e-08	-8.654379e-10	5.119051e-01	-5.880410e+01
8.400000e-07	1.487336e-07	-7.461211e-10	1.066837e+00	-5.115124e+01
8.500000e-07	2.260766e-07	-6.291937e-10	1.621603e+00	-4.324139e+01
8.600000e-07	3.033888e-07	-5.096533e-10	2.176149e+00	-3.508848e+01
8.700000e-07	3.805895e-07	-3.775719e-10	2.729894e+00	-2.671122e+01
8.800000e-07	4.576191e-07	-2.402283e-10	3.282412e+00	-1.813359e+01
8.900000e-07	5.344276e-07	-1.078642e-10	3.833345e+00	-9.385162e+00
9.000000e-07	6.110088e-07	2.329295e-11	4.382647e+00	-5.010713e-01
9.100000e-07	6.873696e-07	1.628382e-10	4.930368e+00	8.478387e+00
9.200000e-07	7.634651e-07	3.071744e-10	5.476186e+00	1.750854e+01
9.300000e-07	8.393163e-07	4.446726e-10	6.020252e+00	2.654152e+01
9.400000e-07	9.149385e-07	5.768565e-10	6.562676e+00	3.552773e+01
9.500000e-07	9.903085e-07	7.105686e-10	7.103290e+00	4.441754e+01
9.600000e-07	1.065309e-06	8.478445e-10	7.641256e+00	5.316307e+01
9.700000e-07	1.139775e-06	9.817518e-10	8.175385e+00	6.171987e+01
9.800000e-07	1.213549e-06	1.106158e-09	8.704548e+00	7.004846e+01
9.900000e-07	1.286570e-06	1.226634e-09	9.228314e+00	7.811550e+01
1.000000e-06	1.358959e-06	1.348837e-09	9.747545e+00	8.589460e+01
1.010000e-06	1.430867e-06	1.466738e-09	1.026333e+01	9.336665e+01
1.020000e-06	1.502379e-06	1.574139e-09	1.077627e+01	1.005198e+02
1.030000e-06	1.573534e-06	1.674008e-09	1.128665e+01	1.073488e+02
1.040000e-06	1.644224e-06	1.772430e-09	1.179370e+01	1.138546e+02
1.050000e-06	1.714240e-06	1.868537e-09	1.229591e+01	1.200430e+02
1.060000e-06	1.783640e-06	1.957237e-09	1.279370e+01	1.259237e+02
1.070000e-06	1.852447e-06	2.038265e-09	1.328724e+01	1.315093e+02
1.080000e-06	1.920644e-06	2.115735e-09	1.377640e+01	1.368140e+02
1.090000e-06	1.988335e-06	2.191850e-09	1.426194e+01	1.418533e+02
1.100000e-06	2.055475e-06	2.263974e-09	1.474353e+01	1.466427e+02
1.110000e-06	2.121803e-06	2.331857e-09	1.521928e+01	1.511975e+02
1.120000e-06	2.187006e-06	2.394304e-09	1.568697e+01	1.555325e+02
1.130000e-06	2.251221e-06	2.454880e-09	1.614757e+01	1.596616e+02
1.140000e-06	2.314788e-06	2.516492e-09	1.660352e+01	1.635979e+02
1.150000e-06	2.377713e-06	2.573255e-09	1.705487e+01	1.673532e+02
1.160000e-06	2.439842e-06	2.624825e-09	1.750051e+01	1.709383e+02
1.170000e-06	2.501112e-06	2.675104e-09	1.793999e+01	1.743627e+02
1.180000e-06	2.561573e-06	2.725093e-09	1.837367e+01	1.776346e+02
1.190000e-06	2.621334e-06	2.771661e-09	1.880232e+01	1.807609e+02
1.200000e-06	2.680308e-06	2.815172e-09	1.922533e+01	1.837473e+02
1.210000e-06	2.738117e-06	2.857137e-09	1.963998e+01	1.865981e+02
1.220000e-06	2.794648e-06	2.897559e-09	2.004546e+01	1.893169e+02
1.230000e-06	2.850202e-06	2.935610e-09	2.044395e+01	1.919062e+02
1.240000e-06	2.904888e-06	2.971936e-09	2.083619e+01	1.943685e+02
1.250000e-06	2.958599e-06	3.006304e-09	2.122146e+01	1.967062e+02
1.260000e-06	3.011231e-06	3.037213e-09	2.159898e+01	1.989219e+02
1.270000e-06	3.062648e-06	3.067533e-09	2.196778e+01	2.010194e+02
1.280000e-06	3.112633e-06	3.097716e-09	2.232631e+01	2.030031e+02
1.290000e-06	3.161142e-06	3.126841e-09	2.267426e+01	2.048787e+02
1.300000e-06	3.208423e-06	3.153913e-09	2.301340e+01	2.066530e+02
1.310000e-06	3.254657e-06	3.180413e-09	2.334502e+01	2.083334e+02
1.320000e-06	3.299844e-06	3.205315e-09	2.366914e+01	2.099277e+02
1.330000e-06	3.344004e-06	3.228089e-09	2.398589e+01	2.114439e+02
1.340000e-06	3.387129e-06	3.249017e-09	2.429522e+01	2.128892e+02
1.350000e-06	3.428864e-06	3.269144e-09	2.459458e+01	2.142699e+02
1.360000e-06	3.469140e-06	3.290716e-09	2.488347e+01	2.155911e+02
1.370000e-06	3.508244e-06	3.310613e-09	2.516395e+01	2.168563e+02
1.380000e-06	3.546193e-06	3.327598e-09	2.543615e+01	2.180674e+02
1.390000e-06	3.582967e-06	3.345596e-09	2.569993e+01	2.192253e+02
1.400000e-06	3.618643e-06	3.365298e-09	2.595582e+01	2.203295e+02
1.410000e-06	3.653036e-06	3.382089e-09	2.620252e+01	2.213794e+02
1.420000e-06	3.685933e-06	3.397061e-09	2.643848e+01	2.223740e+02
1.430000e-06	3.717496e-06	3.412387e-09	2.666488e+01	2.233129e+02
1.440000e-06	3.747818e-06	3.425765e-09	2.688237e+01	2.241964e+02
1.450000e-06	3.776892e-06	3.438270e-09	2.709091e+01	2.250258e+02
1.460000e-06	3.804830e-06	3.451673e-09	2.729130e+01	2.258030e+02
1.470000e-06	3.831439e-06	3.465436e-09	2.748217e+01	2.265309e+02
1.480000e-06	3.856414e-06	3.478345e-09	2.766131e+01	2.272126e+02
1.490000e-06	3.879888e-06	3.490224e-09	2.782968e+01	2.278512e+02
1.500000e-06	3.902093e-06	3.501280e-09	2.798896e+01	2.284493e+02
1.510000e-06	3.923087e-06	3.511167e-09	2.813954e+01	2.290087e+02
1.520000e-06	3.942901e-06	3.520623e-09	2.828166e+01	2.295299e+02
1.530000e-06	3.961361e-06	3.529093e-09	2.841407e+01	2.300126e+02
1.540000e-06	3.978354e-06	3.535388e-09	2.853596e+01	2.304551e+02
1.550000e-06	3.993944e-06	3.541202e-09	2.864779e+01	2.308554e+02
1.560000e-06	4.008031e-06	3.548028e-09	2.874882e+01	2.312111e+02
1.570000e-06	4.020608e-06	3.554891e-09	2.883904e+01	2.315202e+02
1.580000e-06	4.031600e-06	3.560700e-09	2.891788e+01	2.317815e+02
1.590000e-06	4.040813e-06	3.565656e-09	2.898396e+01	2.319953e+02
1.600000e-06	4.048491e-06	3.570322e-09	2.903904e+01	2.321630e+02
1.610000e-06	4.054852e-06	3.574053e-09	2.908466e+01	2.322877e+02
1.620000e-06	4.059885e-06	3.576200e-09	2.912077e+01	2.323738e+02
1.630000e-06	4.063655e-06	3.576473e-09	2.914781e+01	2.324261e+02
1.640000e-06	4.065959e-06	3.577192e-09	2.916433e+01	2.324499e+02
1.650000e-06	4.066645e-06	3.579658e-09	2.916925e+01	2.324497e+02
1.660000e-06	4.065925e-06	3.580405e-09	2.916409e+01	2.324291e+02
1.670000e-06	4.063956e-06	3.578634e-09	2.914996e+01	2.323898e+02
1.680000e-06	4.060743e-06	3.576959e-09	2.912692e+01	2.323322e+02
1.690000e-06	4.056358e-06	3.576328e-09	2.909547e+01	2.322544e+02
1.700000e-06	4.050656e-06	3.574615e-09	2.905456e+01	2.321538e+02
1.710000e-06	4.043462e-06	3.572471e-09	2.900296e+01	2.320267e+02
1.720000e-06	4.034965e-06	3.575404e-09	2.894201e+01	2.318698e+02
1.730000e-06	4.025309e-06	3.576747e-09	2.887276e+01	2.316806e+02
1.740000e-06	4.014408e-06	3.547459e-09	2.879457e+01	2.314585e+02
1.750000e-06	4.001600e-06	3.508659e-09	2.870270e+01	2.312054e+02
1.760000e-06	3.986306e-06	3.499084e-09	2.859300e+01	2.309257e+02
1.770000e-06	3.969063e-06	3.553691e-09	2.846932e+01	2.306261e+02
1.780000e-06	3.950997e-06	3.609292e-09	2.833973e+01	2.303153e+02
1.790000e-06	3.932575e-06	3.549039e-09	2.820760e+01	2.300033e+02
1.800000e-06	3.912875e-06	3.496453e-09	2.806629e+01	2.296994e+02
1.810000e-06	3.891036e-06	3.528198e-09	2.790965e+01	2.294118e+02
1.820000e-06	3.867908e-06	3.538852e-09	2.774375e+01	2.291457e+02
1.830000e-06	3.843908e-06	3.565333e-09	2.757160e+01	2.289028e+02
1.840000e-06	3.818251e-06	3.567565e-09	2.738757e+01	2.286802e+02
1.850000e-06	3.791144e-06	3.462421e-09	2.719313e+01	2.284703e+02
1.860000e-06	3.763103e-06	3.445268e-09	2.699201e+01	2.282614e+02
1.870000e-06	3.733739e-06	3.523459e-09	2.678139e+01	2.280383e+02
1.880000e-06	3.702747e-06	3.467987e-09	2.655908e+01	2.277836e+02
1.890000e-06	3.670294e-06	3.387909e-09	2.632630e+01	2.274793e+02
1.900000e-06	3.636671e-06	3.429450e-09	2.608513e+01	2.271085e+02
1.910000e-06	3.602013e-06	3.476171e-09	2.583654e+01	2.266571e+02
1.920000e-06	3.566122e-06	3.469631e-09	2.557910e+01	2.261145e+02
1.930000e-06	3.529020e-06	3.420049e-09	2.531297e+01	2.254753e+02
1.940000e-06	3.490671e-06	3.382921e-09	2.503790e+01	2.247389e+02
1.950000e-06	3.450727e-06	3.384845e-09	2.475139e+01	2.239096e+02
1.960000e-06	3.409430e-06	3.384357e-09	2.445518e+01	2.229957e+02
1.970000e-06	3.367166e-06	3.407099e-09	2.415203e+01	2.220084e+02
1.980000e-06	3.323833e-06	3.363834e-09	2.384120e+01	2.209601e+02
1.990000e-06	3.279440e-06	3.266392e-09	2.352278e+01	2.198632e+02
2.000000e-06	3.234004e-06	3.312224e-09	2.319688e+01	2.187284e+02
2.010000e-06	3.187365e-06	3.364105e-09	2.286235e+01	2.175635e+02
2.020000e-06	3.139384e-06	3.280408e-09	2.251819e+01	2.163729e+02
2.030000e-06	3.090132e-06	3.219269e-09	2.216491e+01	2.151573e+02
2.040000e-06	3.039886e-06	3.239990e-09	2.180451e+01	2.139138e+02
2.050000e-06	2.988600e-06	3.259011e-09	2.143665e+01	2.126364e+02
2.060000e-06	2.936080e-06	3.210723e-09	2.105993e+01	2.113175e+02
2.070000e-06	2.882179e-06	3.159590e-09	2.067331e+01	2.099485e+02
2.080000e-06	2.826916e-06	3.151395e-09	2.027692e+01	2.085212e+02
2.090000e-06	2.770623e-06	3.131154e-09	1.987314e+01	2.070285e+02
2.100000e-06	2.713397e-06	3.121378e-09	1.946267e+01	2.054654e+02
2.110000e-06	2.655313e-06	3.103673e-09	1.904604e+01	2.038293e+02
2.120000e-06	2.596439e-06	3.053441e-09	1.862375e+01	2.021196e+02
2.130000e-06	2.536711e-06	3.021175e-09	1.819534e+01	2.003378e+02
2.140000e-06	2.476226e-06	3.013546e-09	1.776149e+01	1.984862e+02
2.150000e-06	2.414795e-06	2.996129e-09	1.732086e+01	1.965679e+02
2.160000e-06	2.352119e-06	2.937066e-09	1.687129e+01	1.945852e+02
2.170000e-06	2.288432e-06	2.895008e-09	1.641447e+01	1.925395e+02
2.180000e-06	2.224087e-06	2.892192e-09	1.595294e+01	1.904302e+02
2.190000e-06	2.159057e-06	2.860591e-09	1.548650e+01	1.882550e+02
2.200000e-06	2.093199e-06	2.808636e-09	1.501411e+01	1.860096e+02
2.210000e-06	2.026586e-06	2.769818e-09	1.453631e+01	1.836883e+02
2.220000e-06	1.959336e-06	2.747890e-09	1.405393e+01	1.812841e+02
2.230000e-06	1.891525e-06	2.715572e-09	1.356754e+01	1.787899e+02
2.240000e-06	1.823183e-06	2.662292e-09	1.307733e+01	1.761985e+02
2.250000e-06	1.754193e-06	2.618152e-09	1.258249e+01	1.735038e+02
2.260000e-06	1.684385e-06	2.580396e-09	1.208177e+01	1.707003e+02
2.270000e-06	1.613573e-06	2.538633e-09	1.157385e+01	1.677840e+02
2.280000e-06	1.541952e-06	2.488954e-09	1.106012e+01	1.647515e+02
2.290000e-06	1.469928e-06	2.437223e-09	1.054350e+01	1.615999e+02
2.300000e-06	1.397535e-06	2.389648e-09	1.002425e+01	1.583266e+02
2.310000e-06	1.324742e-06	2.343030e-09	9.502114e+00	1.549280e+02
2.320000e-06	1.251529e-06	2.294897e-09	8.976977e+00	1.513994e+02
2.330000e-06	1.177842e-06	2.232526e-09	8.448429e+00	1.477343e+02
2.340000e-06	1.103748e-06	2.165880e-09	7.916973e+00	1.439243e+02
2.350000e-06	1.029337e-06	2.112773e-09	7.383233e+00	1.399590e+02
2.360000e-06	9.545572e-07	2.059021e-09	6.846853e+00	1.358262e+02
2.370000e-06	8.793598e-07	1.984922e-09	6.307476e+00	1.315122e+02
2.380000e-06	8.038473e-07	1.903877e-09	5.765840e+00	1.270027e+02
2.390000e-06	7.280792e-07	1.839114e-09	5.222371e+00	1.222833e+02
2.400000e-06	6.520799e-07	1.774168e-09	4.677242e+00	1.173398e+02
2.410000e-06	5.758769e-07	1.690970e-09	4.130653e+00	1.121592e+02
2.420000e-06	4.995022e-07	1.601890e-09	3.582832e+00	1.067303e+02
2.430000e-06	4.229365e-07	1.517247e-09	3.033641e+00	1.010432e+02
2.440000e-06	3.461396e-07	1.432399e-09	2.482792e+00	9.509014e+01
2.450000e-06	2.691522e-07	1.336480e-09	1.930576e+00	8.886548e+01
2.460000e-06	1.920250e-07	1.231037e-09	1.377358e+00	8.236538e+01
2.470000e-06	1.147672e-07	1.124288e-09	8.232031e-01	7.558809e+01
2.480000e-06	3.740710e-08	1.019838e-09	2.683139e-01	6.853399e+01
2.490000e-06	-3.986430e-08	9.155411e-10	-2.859389e-01	6.120590e+01
2.500000e-06	-1.170344e-07	8.014666e-10	-8.394653e-01	5.360941e+01
2.510000e-06	-1.942317e-07	6.782719e-10	-1.393186e+00	4.575350e+01
2.520000e-06	-2.713061e-07	5.544734e-10	-1.946026e+00	3.765117e+01
2.530000e-06	-3.481117e-07	4.311133e-10	-2.496938e+00	2.932005e+01
2.540000e-06	-4.247040e-07	3.011272e-10	-3.046319e+00	2.078295e+01
2.550000e-06	-5.010928e-07	1.612929e-10	-3.594241e+00	1.206825e+01
2.560000e-06	-5.772713e-07	2.154391e-11	-4.140654e+00	3.209898e+00
2.570000e-06	-6.532363e-07	-1.123051e-10	-4.685536e+00	-5.752855e+00
2.580000e-06	-7.289527e-07	-2.460664e-10	-5.228636e+00	-1.477619e+01
2.590000e-06	-8.044539e-07	-3.850955e-10	-5.770191e+00	-2.381281e+01
2.600000e-06	-8.796523e-07	-5.221653e-10	-6.309575e+00	-3.281335e+01
2.610000e-06	-9.544256e-07	-6.516480e-10	-6.845909e+00	-4.172804e+01
2.620000e-06	-1.028839e-06	-7.797589e-10	-7.379664e+00	-5.050847e+01
2.630000e-06	-1.102943e-06	-9.106451e-10	-7.911199e+00	-5.910932e+01
2.640000e-06	-1.176695e-06	-1.040668e-09	-8.440201e+00	-6.748995e+01
2.650000e-06	-1.250011e-06	-1.164937e-09	-8.966083e+00	-7.561561e+01
2.660000e-06	-1.322867e-06	-1.284417e-09	-9.488664e+00	-8.345838e+01
2.670000e-06	-1.395328e-06	-1.400941e-09	-1.000842e+01	-9.099757e+01
2.680000e-06	-1.467453e-06	-1.513165e-09	-1.052576e+01	-9.821978e+01
2.690000e-06	-1.539249e-06	-1.620584e-09	-1.104073e+01	-1.051185e+02
2.700000e-06	-1.610474e-06	-1.719890e-09	-1.155162e+01	-1.116933e+02
2.710000e-06	-1.680938e-06	-1.810526e-09	-1.205704e+01	-1.179491e+02
2.720000e-06	-1.750551e-06	-1.897820e-09	-1.255637e+01	-1.238949e+02
2.730000e-06	-1.819322e-06	-1.984971e-09	-1.304964e+01	-1.295427e+02
2.740000e-06	-1.887480e-06	-2.070023e-09	-1.353852e+01	-1.349064e+02
2.750000e-06	-1.955097e-06	-2.148465e-09	-1.402353e+01	-1.400014e+02
2.760000e-06	-2.022083e-06	-2.223671e-09	-1.450401e+01	-1.448431e+02
2.770000e-06	-2.088403e-06	-2.297945e-09	-1.497971e+01	-1.494470e+02
2.780000e-06	-2.154054e-06	-2.369442e-09	-1.545061e+01	-1.538280e+02
2.790000e-06	-2.218994e-06	-2.434501e-09	-1.591641e+01	-1.580002e+02
2.800000e-06	-2.283242e-06	-2.492386e-09	-1.637725e+01	-1.619769e+02
2.810000e-06	-2.346769e-06	-2.548074e-09	-1.683292e+01	-1.657702e+02
2.820000e-06	-2.409258e-06	-2.604710e-09	-1.728114e+01	-1.693910e+02
2.830000e-06	-2.470528e-06	-2.660602e-09	-1.772062e+01	-1.728491e+02
2.840000e-06	-2.530904e-06	-2.711420e-09	-1.815368e+01	-1.761532e+02
2.850000e-06	-2.590588e-06	-2.759336e-09	-1.858178e+01	-1.793103e+02
2.860000e-06	-2.649412e-06	-2.809018e-09	-1.900372e+01	-1.823263e+02
2.870000e-06	-2.707252e-06	-2.858525e-09	-1.941859e+01	-1.852060e+02
2.880000e-06	-2.764155e-06	-2.901950e-09	-1.982675e+01	-1.879529e+02
2.890000e-06	-2.820196e-06	-2.939205e-09	-2.022871e+01	-1.905699e+02
2.900000e-06	-2.875171e-06	-2.976070e-09	-2.062304e+01	-1.930594e+02
2.910000e-06	-2.928799e-06	-3.013707e-09	-2.100771e+01	-1.954236e+02
2.920000e-06	-2.981114e-06	-3.048574e-09	-2.138295e+01	-1.976653e+02
2.930000e-06	-3.032325e-06	-3.079833e-09	-2.175028e+01	-1.997879e+02
2.940000e-06	-3.082371e-06	-3.110433e-09	-2.210925e+01	-2.017956e+02
