# Temperatura_=_20.0
# Concentracion g/m^3_=_9000.0
# C_Vs_to_Am_M_A/Vsm_=_65563218390.804596
# pendiente_HvsI_1/m_=_3716.3
# ordenada_HvsI_A/m_=_1297.0
# frecuencia_Hz_=_300781.3240932216

Tiempo_(s)	Campo_(V.s)	Magnetizacion_(V.s)	Campo_(kA/m)	Magnetizacion_(A/m)
0.000000e+00	-4.044031e-06	-3.529766e-09	-2.907607e+01	-2.342728e+02
1.000000e-08	-4.043389e-06	-3.535055e-09	-2.907145e+01	-2.342353e+02
2.000000e-08	-4.041109e-06	-3.537636e-09	-2.905506e+01	-2.341662e+02
3.000000e-08	-4.037443e-06	-3.537224e-09	-2.902870e+01	-2.340706e+02
4.000000e-08	-4.032706e-06	-3.534645e-09	-2.899464e+01	-2.339550e+02
5.000000e-08	-4.026674e-06	-3.529086e-09	-2.895127e+01	-2.338261e+02
6.000000e-08	-4.019418e-06	-3.524375e-09	-2.889910e+01	-2.336905e+02
7.000000e-08	-4.010879e-06	-3.508742e-09	-2.883771e+01	-2.335539e+02
8.000000e-08	-4.000661e-06	-3.481202e-09	-2.876424e+01	-2.334199e+02
9.000000e-08	-3.988741e-06	-3.546194e-09	-2.867854e+01	-2.332895e+02
1.000000e-07	-3.974995e-06	-3.621506e-09	-2.857971e+01	-2.331608e+02
1.100000e-07	-3.959149e-06	-3.617508e-09	-2.846577e+01	-2.330289e+02
1.200000e-07	-3.941676e-06	-3.495594e-09	-2.834014e+01	-2.328860e+02
1.300000e-07	-3.923127e-06	-3.277054e-09	-2.820678e+01	-2.327223e+02
1.400000e-07	-3.903714e-06	-3.485912e-09	-2.806721e+01	-2.325265e+02
1.500000e-07	-3.883352e-06	-3.717784e-09	-2.792080e+01	-2.322872e+02
1.600000e-07	-3.861962e-06	-3.438122e-09	-2.776701e+01	-2.319941e+02
1.700000e-07	-3.839407e-06	-3.434072e-09	-2.760484e+01	-2.316387e+02
1.800000e-07	-3.814994e-06	-3.439271e-09	-2.742932e+01	-2.312153e+02
1.900000e-07	-3.788869e-06	-3.296970e-09	-2.724148e+01	-2.307215e+02
2.000000e-07	-3.761816e-06	-3.636613e-09	-2.704698e+01	-2.301584e+02
2.100000e-07	-3.733593e-06	-3.651573e-09	-2.684405e+01	-2.295303e+02
2.200000e-07	-3.703911e-06	-3.222785e-09	-2.663064e+01	-2.288439e+02
2.300000e-07	-3.673141e-06	-3.417326e-09	-2.640942e+01	-2.281076e+02
2.400000e-07	-3.641311e-06	-3.704528e-09	-2.618056e+01	-2.273304e+02
2.500000e-07	-3.607994e-06	-3.514369e-09	-2.594102e+01	-2.265208e+02
2.600000e-07	-3.573100e-06	-3.408551e-09	-2.569013e+01	-2.256859e+02
2.700000e-07	-3.536897e-06	-3.341925e-09	-2.542984e+01	-2.248307e+02
2.800000e-07	-3.499578e-06	-3.431809e-09	-2.516152e+01	-2.239575e+02
2.900000e-07	-3.461103e-06	-3.563231e-09	-2.488489e+01	-2.230660e+02
3.000000e-07	-3.421458e-06	-3.397033e-09	-2.459985e+01	-2.221537e+02
3.100000e-07	-3.380519e-06	-3.326811e-09	-2.430550e+01	-2.212159e+02
3.200000e-07	-3.338081e-06	-3.383079e-09	-2.400038e+01	-2.202470e+02
3.300000e-07	-3.294377e-06	-3.349560e-09	-2.368615e+01	-2.192410e+02
3.400000e-07	-3.249664e-06	-3.415057e-09	-2.336467e+01	-2.181922e+02
3.500000e-07	-3.203856e-06	-3.415889e-09	-2.303532e+01	-2.170961e+02
3.600000e-07	-3.156831e-06	-3.211727e-09	-2.269721e+01	-2.159491e+02
3.700000e-07	-3.108673e-06	-3.227655e-09	-2.235096e+01	-2.147495e+02
3.800000e-07	-3.059147e-06	-3.418707e-09	-2.199487e+01	-2.134968e+02
3.900000e-07	-3.007978e-06	-3.328625e-09	-2.162698e+01	-2.121911e+02
4.000000e-07	-2.955434e-06	-3.114156e-09	-2.124919e+01	-2.108334e+02
4.100000e-07	-2.901934e-06	-3.214732e-09	-2.086454e+01	-2.094242e+02
4.200000e-07	-2.847502e-06	-3.310158e-09	-2.047317e+01	-2.079638e+02
4.300000e-07	-2.792120e-06	-3.185430e-09	-2.007498e+01	-2.064510e+02
4.400000e-07	-2.735840e-06	-3.122262e-09	-1.967034e+01	-2.048839e+02
4.500000e-07	-2.678339e-06	-3.142255e-09	-1.925692e+01	-2.032593e+02
4.600000e-07	-2.619607e-06	-3.131270e-09	-1.883464e+01	-2.015731e+02
4.700000e-07	-2.560072e-06	-3.074831e-09	-1.840659e+01	-1.998209e+02
4.800000e-07	-2.499722e-06	-3.062560e-09	-1.797268e+01	-1.979984e+02
4.900000e-07	-2.438458e-06	-3.034647e-09	-1.753220e+01	-1.961018e+02
5.000000e-07	-2.376330e-06	-2.978194e-09	-1.708551e+01	-1.941285e+02
5.100000e-07	-2.313465e-06	-2.969074e-09	-1.663352e+01	-1.920770e+02
5.200000e-07	-2.250054e-06	-2.967093e-09	-1.617760e+01	-1.899475e+02
5.300000e-07	-2.185821e-06	-2.899581e-09	-1.571578e+01	-1.877409e+02
5.400000e-07	-2.120329e-06	-2.832380e-09	-1.524490e+01	-1.854593e+02
5.500000e-07	-2.053789e-06	-2.840070e-09	-1.476648e+01	-1.831047e+02
5.600000e-07	-1.986657e-06	-2.835550e-09	-1.428381e+01	-1.806787e+02
5.700000e-07	-1.919050e-06	-2.751938e-09	-1.379773e+01	-1.781820e+02
5.800000e-07	-1.850879e-06	-2.678739e-09	-1.330759e+01	-1.756132e+02
5.900000e-07	-1.782098e-06	-2.688988e-09	-1.281306e+01	-1.729692e+02
6.000000e-07	-1.712749e-06	-2.664026e-09	-1.231445e+01	-1.702445e+02
6.100000e-07	-1.642727e-06	-2.583919e-09	-1.181100e+01	-1.674316e+02
6.200000e-07	-1.572059e-06	-2.528073e-09	-1.130290e+01	-1.645209e+02
6.300000e-07	-1.500915e-06	-2.508602e-09	-1.079139e+01	-1.615019e+02
6.400000e-07	-1.429440e-06	-2.466294e-09	-1.027749e+01	-1.583632e+02
6.500000e-07	-1.357590e-06	-2.397883e-09	-9.760898e+00	-1.550933e+02
6.600000e-07	-1.285128e-06	-2.349057e-09	-9.239905e+00	-1.516813e+02
6.700000e-07	-1.211918e-06	-2.294714e-09	-8.713532e+00	-1.481171e+02
6.800000e-07	-1.138110e-06	-2.234410e-09	-8.182862e+00	-1.443920e+02
6.900000e-07	-1.063817e-06	-2.180208e-09	-7.648709e+00	-1.404981e+02
7.000000e-07	-9.889192e-07	-2.124679e-09	-7.110203e+00	-1.364285e+02
7.100000e-07	-9.135508e-07	-2.043348e-09	-6.568314e+00	-1.321768e+02
7.200000e-07	-8.379813e-07	-1.970331e-09	-6.024979e+00	-1.277367e+02
7.300000e-07	-7.623059e-07	-1.924264e-09	-5.480882e+00	-1.231013e+02
7.400000e-07	-6.864159e-07	-1.851769e-09	-4.935242e+00	-1.182627e+02
7.500000e-07	-6.101532e-07	-1.751847e-09	-4.386924e+00	-1.132121e+02
7.600000e-07	-5.335912e-07	-1.669299e-09	-3.836452e+00	-1.079392e+02
7.700000e-07	-4.569252e-07	-1.604540e-09	-3.285234e+00	-1.024329e+02
7.800000e-07	-3.801365e-07	-1.511910e-09	-2.733133e+00	-9.668141e+01
7.900000e-07	-3.031107e-07	-1.401650e-09	-2.179327e+00	-9.067326e+01
8.000000e-07	-2.259264e-07	-1.308260e-09	-1.624382e+00	-8.439780e+01
8.100000e-07	-1.486936e-07	-1.224034e-09	-1.069088e+00	-7.784633e+01
8.200000e-07	-7.143117e-08	-1.116907e-09	-5.135810e-01	-7.101295e+01
8.300000e-07	5.868199e-09	-9.979868e-10	4.219160e-02	-6.389542e+01
8.400000e-07	8.311771e-08	-8.899846e-10	5.976057e-01	-5.649593e+01
8.500000e-07	1.603017e-07	-7.777411e-10	1.152549e+00	-4.882154e+01
8.600000e-07	2.374501e-07	-6.566889e-10	1.707236e+00	-4.088459e+01
8.700000e-07	3.145466e-07	-5.292171e-10	2.261550e+00	-3.270276e+01
8.800000e-07	3.915513e-07	-3.962676e-10	2.815204e+00	-2.429902e+01
8.900000e-07	4.683757e-07	-2.612360e-10	3.367561e+00	-1.570133e+01
9.000000e-07	5.449916e-07	-1.336247e-10	3.918420e+00	-6.942238e+00
9.100000e-07	6.213607e-07	-5.009762e-12	4.467504e+00	1.941634e+00
9.200000e-07	6.974608e-07	1.398242e-10	5.014654e+00	1.091025e+01
9.300000e-07	7.733334e-07	2.856459e-10	5.560168e+00	1.992085e+01
9.400000e-07	8.489827e-07	4.160911e-10	6.104077e+00	2.892882e+01
9.500000e-07	9.244063e-07	5.441442e-10	6.646363e+00	3.788851e+01
9.600000e-07	9.996142e-07	6.876477e-10	7.187098e+00	4.675426e+01
9.700000e-07	1.074435e-06	8.300650e-10	7.725048e+00	5.548147e+01
9.800000e-07	1.148609e-06	9.577265e-10	8.258352e+00	6.402768e+01
9.900000e-07	1.222005e-06	1.076978e-09	8.786061e+00	7.235376e+01
1.000000e-06	1.294659e-06	1.202110e-09	9.308433e+00	8.042497e+01
1.010000e-06	1.366711e-06	1.328864e-09	9.826479e+00	8.821205e+01
1.020000e-06	1.438364e-06	1.443226e-09	1.034166e+01	9.569202e+01
1.030000e-06	1.509717e-06	1.546372e-09	1.085467e+01	1.028488e+02
1.040000e-06	1.580622e-06	1.645000e-09	1.136447e+01	1.096735e+02
1.050000e-06	1.650961e-06	1.744918e-09	1.187020e+01	1.161643e+02
1.060000e-06	1.720732e-06	1.841679e-09	1.237185e+01	1.223261e+02
1.070000e-06	1.789924e-06	1.931257e-09	1.286933e+01	1.281697e+02
1.080000e-06	1.858453e-06	2.010471e-09	1.336204e+01	1.337106e+02
1.090000e-06	1.926358e-06	2.085546e-09	1.385027e+01	1.389677e+02
1.100000e-06	1.993815e-06	2.164614e-09	1.433528e+01	1.439618e+02
1.110000e-06	2.060741e-06	2.240339e-09	1.481647e+01	1.487144e+02
1.120000e-06	2.126712e-06	2.306713e-09	1.529079e+01	1.532459e+02
1.130000e-06	2.191497e-06	2.364478e-09	1.575659e+01	1.575749e+02
1.140000e-06	2.255391e-06	2.428516e-09	1.621597e+01	1.617174e+02
1.150000e-06	2.318691e-06	2.494339e-09	1.667109e+01	1.656862e+02
1.160000e-06	2.381299e-06	2.550487e-09	1.712124e+01	1.694909e+02
1.170000e-06	2.443099e-06	2.598883e-09	1.756557e+01	1.731382e+02
1.180000e-06	2.504115e-06	2.648170e-09	1.800427e+01	1.766324e+02
1.190000e-06	2.564325e-06	2.699958e-09	1.843717e+01	1.799762e+02
1.200000e-06	2.623869e-06	2.749092e-09	1.886528e+01	1.831711e+02
1.210000e-06	2.682651e-06	2.794878e-09	1.928792e+01	1.862187e+02
1.220000e-06	2.740124e-06	2.834791e-09	1.970114e+01	1.891207e+02
1.230000e-06	2.796294e-06	2.874123e-09	2.010500e+01	1.918797e+02
1.240000e-06	2.851582e-06	2.914290e-09	2.050251e+01	1.944989e+02
1.250000e-06	2.905965e-06	2.954301e-09	2.089352e+01	1.969829e+02
1.260000e-06	2.959335e-06	2.987409e-09	2.127724e+01	1.993366e+02
1.270000e-06	3.011645e-06	3.017002e-09	2.165335e+01	2.015657e+02
1.280000e-06	3.062754e-06	3.048473e-09	2.202081e+01	2.036757e+02
1.290000e-06	3.112362e-06	3.081296e-09	2.237749e+01	2.056723e+02
1.300000e-06	3.160520e-06	3.109400e-09	2.272374e+01	2.075606e+02
1.310000e-06	3.207599e-06	3.133598e-09	2.306222e+01	2.093456e+02
1.320000e-06	3.253613e-06	3.158390e-09	2.339306e+01	2.110318e+02
1.330000e-06	3.298499e-06	3.182550e-09	2.371579e+01	2.126233e+02
1.340000e-06	3.342345e-06	3.206629e-09	2.403104e+01	2.141247e+02
1.350000e-06	3.385123e-06	3.228193e-09	2.433860e+01	2.155407e+02
1.360000e-06	3.426444e-06	3.247673e-09	2.463570e+01	2.168764e+02
1.370000e-06	3.466344e-06	3.266848e-09	2.492257e+01	2.181377e+02
1.380000e-06	3.505124e-06	3.286295e-09	2.520140e+01	2.193309e+02
1.390000e-06	3.542776e-06	3.305003e-09	2.547210e+01	2.204628e+02
1.400000e-06	3.579282e-06	3.323054e-09	2.573458e+01	2.215404e+02
1.410000e-06	3.614738e-06	3.339281e-09	2.598951e+01	2.225700e+02
1.420000e-06	3.648916e-06	3.353682e-09	2.623524e+01	2.235574e+02
1.430000e-06	3.681547e-06	3.369909e-09	2.646985e+01	2.245070e+02
1.440000e-06	3.712855e-06	3.385615e-09	2.669495e+01	2.254219e+02
1.450000e-06	3.742957e-06	3.398093e-09	2.691138e+01	2.263033e+02
1.460000e-06	3.771830e-06	3.410344e-09	2.711898e+01	2.271508e+02
1.470000e-06	3.799576e-06	3.424814e-09	2.731847e+01	2.279626e+02
1.480000e-06	3.826007e-06	3.439364e-09	2.750851e+01	2.287358e+02
1.490000e-06	3.850796e-06	3.452843e-09	2.768673e+01	2.294670e+02
1.500000e-06	3.874085e-06	3.464541e-09	2.785417e+01	2.301528e+02
1.510000e-06	3.896076e-06	3.473978e-09	2.801229e+01	2.307902e+02
1.520000e-06	3.916802e-06	3.483416e-09	2.816131e+01	2.313773e+02
1.530000e-06	3.936390e-06	3.494004e-09	2.830214e+01	2.319133e+02
1.540000e-06	3.954672e-06	3.502861e-09	2.843359e+01	2.323988e+02
1.550000e-06	3.971445e-06	3.508305e-09	2.855418e+01	2.328354e+02
1.560000e-06	3.986697e-06	3.513671e-09	2.866384e+01	2.332255e+02
1.570000e-06	4.000426e-06	3.521152e-09	2.876255e+01	2.335721e+02
1.580000e-06	4.012752e-06	3.528782e-09	2.885118e+01	2.338780e+02
1.590000e-06	4.023520e-06	3.533211e-09	2.892859e+01	2.341454e+02
1.600000e-06	4.032486e-06	3.536957e-09	2.899306e+01	2.343760e+02
1.610000e-06	4.039942e-06	3.541561e-09	2.904667e+01	2.345703e+02
1.620000e-06	4.046108e-06	3.544842e-09	2.909100e+01	2.347283e+02
1.630000e-06	4.050907e-06	3.546224e-09	2.912550e+01	2.348493e+02
1.640000e-06	4.054518e-06	3.545963e-09	2.915147e+01	2.349324e+02
1.650000e-06	4.056625e-06	3.549094e-09	2.916662e+01	2.349773e+02
1.660000e-06	4.056991e-06	3.553739e-09	2.916925e+01	2.349843e+02
1.670000e-06	4.055976e-06	3.552418e-09	2.916195e+01	2.349553e+02
1.680000e-06	4.053735e-06	3.548397e-09	2.914584e+01	2.348936e+02
1.690000e-06	4.050301e-06	3.545730e-09	2.912114e+01	2.348041e+02
1.700000e-06	4.045812e-06	3.545733e-09	2.908887e+01	2.346928e+02
1.710000e-06	4.039897e-06	3.545831e-09	2.904634e+01	2.345665e+02
1.720000e-06	4.032343e-06	3.545183e-09	2.899203e+01	2.344320e+02
1.730000e-06	4.023605e-06	3.562135e-09	2.892920e+01	2.342952e+02
1.740000e-06	4.013800e-06	3.582316e-09	2.885871e+01	2.341603e+02
1.750000e-06	4.002738e-06	3.462034e-09	2.877918e+01	2.340290e+02
1.760000e-06	3.989596e-06	3.411501e-09	2.868469e+01	2.339002e+02
1.770000e-06	3.973846e-06	3.424242e-09	2.857144e+01	2.337697e+02
1.780000e-06	3.956242e-06	3.651145e-09	2.844488e+01	2.336304e+02
1.790000e-06	3.938048e-06	3.728104e-09	2.831406e+01	2.334728e+02
1.800000e-06	3.919667e-06	3.367252e-09	2.818190e+01	2.332861e+02
1.810000e-06	3.899788e-06	3.456230e-09	2.803898e+01	2.330587e+02
1.820000e-06	3.877633e-06	3.630397e-09	2.787969e+01	2.327799e+02
1.830000e-06	3.854561e-06	3.463426e-09	2.771380e+01	2.324407e+02
1.840000e-06	3.830593e-06	3.681775e-09	2.754148e+01	2.320346e+02
1.850000e-06	3.804664e-06	3.661295e-09	2.735505e+01	2.315584e+02
1.860000e-06	3.777504e-06	3.222738e-09	2.715977e+01	2.310123e+02
1.870000e-06	3.749536e-06	3.561081e-09	2.695869e+01	2.303999e+02
1.880000e-06	3.720099e-06	3.775925e-09	2.674703e+01	2.297273e+02
1.890000e-06	3.688978e-06	3.294234e-09	2.652328e+01	2.290026e+02
1.900000e-06	3.656345e-06	3.384121e-09	2.628866e+01	2.282347e+02
1.910000e-06	3.622544e-06	3.642734e-09	2.604563e+01	2.274324e+02
1.920000e-06	3.587770e-06	3.486980e-09	2.579561e+01	2.266033e+02
1.930000e-06	3.551733e-06	3.535889e-09	2.553650e+01	2.257528e+02
1.940000e-06	3.514595e-06	3.401852e-09	2.526949e+01	2.248840e+02
1.950000e-06	3.476257e-06	3.386480e-09	2.499384e+01	2.239972e+02
1.960000e-06	3.436171e-06	3.529435e-09	2.470563e+01	2.230904e+02
1.970000e-06	3.394766e-06	3.355208e-09	2.440793e+01	2.221594e+02
1.980000e-06	3.352450e-06	3.498702e-09	2.410369e+01	2.211988e+02
1.990000e-06	3.309006e-06	3.445424e-09	2.379133e+01	2.202027e+02
2.000000e-06	3.264544e-06	3.181891e-09	2.347165e+01	2.191650e+02
2.010000e-06	3.219123e-06	3.443200e-09	2.314509e+01	2.180811e+02
2.020000e-06	3.172457e-06	3.497212e-09	2.280956e+01	2.169470e+02
2.030000e-06	3.124305e-06	3.248070e-09	2.246335e+01	2.157606e+02
2.040000e-06	3.074895e-06	3.205442e-09	2.210810e+01	2.145211e+02
2.050000e-06	3.024620e-06	3.338265e-09	2.174663e+01	2.132286e+02
2.060000e-06	2.973286e-06	3.397432e-09	2.137755e+01	2.118838e+02
2.070000e-06	2.920786e-06	3.161627e-09	2.100008e+01	2.104874e+02
2.080000e-06	2.866961e-06	3.168639e-09	2.061309e+01	2.090398e+02
2.090000e-06	2.811711e-06	3.282616e-09	2.021584e+01	2.075402e+02
2.100000e-06	2.755394e-06	3.165690e-09	1.981093e+01	2.059869e+02
2.110000e-06	2.698057e-06	3.150486e-09	1.939869e+01	2.043770e+02
2.120000e-06	2.639887e-06	3.131782e-09	1.898045e+01	2.027066e+02
2.130000e-06	2.580927e-06	3.138856e-09	1.855654e+01	2.009713e+02
2.140000e-06	2.521109e-06	3.064496e-09	1.812645e+01	1.991667e+02
2.150000e-06	2.460637e-06	3.014397e-09	1.769167e+01	1.972889e+02
2.160000e-06	2.399210e-06	3.086593e-09	1.725001e+01	1.953349e+02
2.170000e-06	2.336529e-06	2.972633e-09	1.679934e+01	1.933030e+02
2.180000e-06	2.272834e-06	2.913104e-09	1.634139e+01	1.911928e+02
2.190000e-06	2.208482e-06	2.942437e-09	1.587870e+01	1.890053e+02
2.200000e-06	2.143482e-06	2.916602e-09	1.541136e+01	1.867422e+02
2.210000e-06	2.077672e-06	2.837527e-09	1.493820e+01	1.844056e+02
2.220000e-06	2.011167e-06	2.777659e-09	1.446003e+01	1.819974e+02
2.230000e-06	1.944002e-06	2.820244e-09	1.397712e+01	1.795184e+02
2.240000e-06	1.876200e-06	2.756620e-09	1.348963e+01	1.769678e+02
2.250000e-06	1.807852e-06	2.657427e-09	1.299822e+01	1.743430e+02
2.260000e-06	1.738942e-06	2.661823e-09	1.250277e+01	1.716391e+02
2.270000e-06	1.669280e-06	2.638957e-09	1.200191e+01	1.688489e+02
2.280000e-06	1.598561e-06	2.566217e-09	1.149345e+01	1.659637e+02
2.290000e-06	1.526984e-06	2.501699e-09	1.097882e+01	1.629728e+02
2.300000e-06	1.454990e-06	2.486847e-09	1.046119e+01	1.598650e+02
2.310000e-06	1.382702e-06	2.441544e-09	9.941452e+00	1.566289e+02
2.320000e-06	1.310039e-06	2.360370e-09	9.419013e+00	1.532534e+02
2.330000e-06	1.236928e-06	2.325300e-09	8.893352e+00	1.497281e+02
2.340000e-06	1.163385e-06	2.274277e-09	8.364589e+00	1.460440e+02
2.350000e-06	1.089388e-06	2.199762e-09	7.832564e+00	1.421929e+02
2.360000e-06	1.015035e-06	2.138310e-09	7.297975e+00	1.381678e+02
2.370000e-06	9.403880e-07	2.095572e-09	6.761270e+00	1.339622e+02
2.380000e-06	8.653189e-07	2.022252e-09	6.221532e+00	1.295698e+02
2.390000e-06	7.899405e-07	1.926181e-09	5.679572e+00	1.249838e+02
2.400000e-06	7.143384e-07	1.876792e-09	5.136002e+00	1.201968e+02
2.410000e-06	6.384861e-07	1.814735e-09	4.590634e+00	1.152001e+02
2.420000e-06	5.624098e-07	1.715381e-09	4.043655e+00	1.099837e+02
2.430000e-06	4.861412e-07	1.621799e-09	3.495293e+00	1.045368e+02
2.440000e-06	4.097267e-07	1.553545e-09	2.945883e+00	9.884768e+01
2.450000e-06	3.331807e-07	1.472250e-09	2.395527e+00	9.290472e+01
2.460000e-06	2.565431e-07	1.356028e-09	1.844512e+00	8.669696e+01
2.470000e-06	1.797586e-07	1.253796e-09	1.292442e+00	8.021513e+01
2.480000e-06	1.028199e-07	1.166282e-09	7.392621e-01	7.345256e+01
2.490000e-06	2.581571e-08	1.060709e-09	1.856117e-01	6.640601e+01
2.500000e-06	-5.107524e-08	9.399243e-10	-3.672245e-01	5.907651e+01
2.510000e-06	-1.278864e-07	8.264216e-10	-9.194865e-01	5.146986e+01
2.520000e-06	-2.047377e-07	7.092205e-10	-1.472038e+00	4.359707e+01
2.530000e-06	-2.814636e-07	5.820652e-10	-2.023688e+00	3.547448e+01
2.540000e-06	-3.579749e-07	4.578603e-10	-2.573794e+00	2.712375e+01
2.550000e-06	-4.343524e-07	3.289994e-10	-3.122938e+00	1.857163e+01
2.560000e-06	-5.106187e-07	1.883336e-10	-3.671284e+00	9.849566e+00
2.570000e-06	-5.866893e-07	5.074230e-11	-4.218221e+00	9.932225e-01
2.580000e-06	-6.625205e-07	-7.430516e-11	-4.763438e+00	-7.958155e+00
2.590000e-06	-7.380401e-07	-2.093889e-10	-5.306414e+00	-1.696242e+01
2.600000e-06	-8.132546e-07	-3.579726e-10	-5.847196e+00	-2.597534e+01
2.610000e-06	-8.881673e-07	-4.942721e-10	-6.385809e+00	-3.495143e+01
2.620000e-06	-9.627167e-07	-6.147613e-10	-6.921810e+00	-4.384495e+01
2.630000e-06	-1.036976e-06	-7.447065e-10	-7.455725e+00	-5.261091e+01
2.640000e-06	-1.110944e-06	-8.857990e-10	-7.987549e+00	-6.120622e+01
2.650000e-06	-1.184537e-06	-1.015384e-09	-8.516672e+00	-6.959081e+01
2.660000e-06	-1.257654e-06	-1.134087e-09	-9.042373e+00	-7.772875e+01
2.670000e-06	-1.330263e-06	-1.252060e-09	-9.564418e+00	-8.558932e+01
2.680000e-06	-1.402585e-06	-1.368815e-09	-1.008441e+01	-9.314788e+01
2.690000e-06	-1.474666e-06	-1.481216e-09	-1.060266e+01	-1.003866e+02
2.700000e-06	-1.546251e-06	-1.590243e-09	-1.111735e+01	-1.072948e+02
2.710000e-06	-1.617161e-06	-1.688517e-09	-1.162718e+01	-1.138689e+02
2.720000e-06	-1.687215e-06	-1.777891e-09	-1.213086e+01	-1.201122e+02
2.730000e-06	-1.756386e-06	-1.869558e-09	-1.262819e+01	-1.260341e+02
2.740000e-06	-1.824901e-06	-1.962295e-09	-1.312081e+01	-1.316490e+02
2.750000e-06	-1.892898e-06	-2.045800e-09	-1.360970e+01	-1.369752e+02
2.760000e-06	-1.960260e-06	-2.118119e-09	-1.409402e+01	-1.420331e+02
2.770000e-06	-2.026936e-06	-2.192158e-09	-1.457341e+01	-1.468441e+02
2.780000e-06	-2.093012e-06	-2.269215e-09	-1.504849e+01	-1.514291e+02
2.790000e-06	-2.158393e-06	-2.340632e-09	-1.551857e+01	-1.558072e+02
2.800000e-06	-2.223032e-06	-2.401572e-09	-1.598332e+01	-1.599950e+02
2.810000e-06	-2.287070e-06	-2.460672e-09	-1.644374e+01	-1.640063e+02
2.820000e-06	-2.350319e-06	-2.522323e-09	-1.689849e+01	-1.678513e+02
2.830000e-06	-2.412350e-06	-2.581812e-09	-1.734449e+01	-1.715375e+02
2.840000e-06	-2.473239e-06	-2.637763e-09	-1.778227e+01	-1.750697e+02
2.850000e-06	-2.533409e-06	-2.689365e-09	-1.821489e+01	-1.784509e+02
2.860000e-06	-2.592852e-06	-2.738090e-09	-1.864227e+01	-1.816829e+02
2.870000e-06	-2.651394e-06	-2.788052e-09	-1.906318e+01	-1.847673e+02
2.880000e-06	-2.708989e-06	-2.839179e-09	-1.947728e+01	-1.877055e+02
2.890000e-06	-2.765677e-06	-2.883470e-09	-1.988486e+01	-1.905000e+02
2.900000e-06	-2.821572e-06	-2.921082e-09	-2.028674e+01	-1.931538e+02
2.910000e-06	-2.876304e-06	-2.960974e-09	-2.068026e+01	-1.956712e+02
2.920000e-06	-2.929559e-06	-3.003493e-09	-2.106316e+01	-1.980570e+02
2.930000e-06	-2.981576e-06	-3.040228e-09	-2.143715e+01	-2.003167e+02
2.940000e-06	-3.032490e-06	-3.070058e-09	-2.180321e+01	-2.024560e+02
