# Temperatura_=_20.0
# Concentracion g/m^3_=_9000.0
# C_Vs_to_Am_M_A/Vsm_=_65563218390.804596
# pendiente_HvsI_1/m_=_3716.3
# ordenada_HvsI_A/m_=_1297.0
# frecuencia_Hz_=_300780.29070162604

Tiempo_(s)	Campo_(V.s)	Magnetizacion_(V.s)	Campo_(kA/m)	Magnetizacion_(A/m)
0.000000e+00	-4.046439e-06	-3.533246e-09	-2.907120e+01	-2.316569e+02
1.000000e-08	-4.044741e-06	-3.536697e-09	-2.905900e+01	-2.316187e+02
2.000000e-08	-4.041523e-06	-3.537180e-09	-2.903588e+01	-2.315678e+02
3.000000e-08	-4.037144e-06	-3.536098e-09	-2.900442e+01	-2.315050e+02
4.000000e-08	-4.031548e-06	-3.532026e-09	-2.896422e+01	-2.314292e+02
5.000000e-08	-4.024671e-06	-3.525989e-09	-2.891481e+01	-2.313377e+02
6.000000e-08	-4.016642e-06	-3.519112e-09	-2.885713e+01	-2.312272e+02
7.000000e-08	-4.007151e-06	-3.498224e-09	-2.878894e+01	-2.310940e+02
8.000000e-08	-3.995889e-06	-3.507863e-09	-2.870803e+01	-2.309351e+02
9.000000e-08	-3.982809e-06	-3.583237e-09	-2.861406e+01	-2.307486e+02
1.000000e-07	-3.967589e-06	-3.615053e-09	-2.850471e+01	-2.305343e+02
1.100000e-07	-3.950547e-06	-3.572903e-09	-2.838228e+01	-2.302939e+02
1.200000e-07	-3.932348e-06	-3.390704e-09	-2.825153e+01	-2.300309e+02
1.300000e-07	-3.913270e-06	-3.358109e-09	-2.811446e+01	-2.297500e+02
1.400000e-07	-3.893265e-06	-3.620884e-09	-2.797074e+01	-2.294566e+02
1.500000e-07	-3.872199e-06	-3.577739e-09	-2.781939e+01	-2.291559e+02
1.600000e-07	-3.850076e-06	-3.416587e-09	-2.766045e+01	-2.288518e+02
1.700000e-07	-3.826360e-06	-3.461221e-09	-2.749007e+01	-2.285463e+02
1.800000e-07	-3.800749e-06	-3.372686e-09	-2.730606e+01	-2.282387e+02
1.900000e-07	-3.773980e-06	-3.441833e-09	-2.711375e+01	-2.279251e+02
2.000000e-07	-3.746208e-06	-3.668261e-09	-2.691422e+01	-2.275987e+02
2.100000e-07	-3.716970e-06	-3.414384e-09	-2.670416e+01	-2.272499e+02
2.200000e-07	-3.686519e-06	-3.256086e-09	-2.648539e+01	-2.268674e+02
2.300000e-07	-3.655105e-06	-3.554448e-09	-2.625970e+01	-2.264387e+02
2.400000e-07	-3.622303e-06	-3.599599e-09	-2.602404e+01	-2.259517e+02
2.500000e-07	-3.587888e-06	-3.434292e-09	-2.577679e+01	-2.253958e+02
2.600000e-07	-3.552073e-06	-3.345680e-09	-2.551948e+01	-2.247627e+02
2.700000e-07	-3.515092e-06	-3.348818e-09	-2.525379e+01	-2.240476e+02
2.800000e-07	-3.476983e-06	-3.484703e-09	-2.498001e+01	-2.232491e+02
2.900000e-07	-3.437705e-06	-3.459047e-09	-2.469782e+01	-2.223699e+02
3.000000e-07	-3.397238e-06	-3.308963e-09	-2.440709e+01	-2.214157e+02
3.100000e-07	-3.355323e-06	-3.329904e-09	-2.410595e+01	-2.203947e+02
3.200000e-07	-3.311971e-06	-3.328192e-09	-2.379449e+01	-2.193168e+02
3.300000e-07	-3.267534e-06	-3.339814e-09	-2.347524e+01	-2.181919e+02
3.400000e-07	-3.222042e-06	-3.385062e-09	-2.314841e+01	-2.170293e+02
3.500000e-07	-3.175342e-06	-3.258863e-09	-2.281290e+01	-2.158360e+02
3.600000e-07	-3.127551e-06	-3.160812e-09	-2.246955e+01	-2.146166e+02
3.700000e-07	-3.078543e-06	-3.296390e-09	-2.211746e+01	-2.133724e+02
3.800000e-07	-3.027861e-06	-3.348651e-09	-2.175334e+01	-2.121018e+02
3.900000e-07	-2.975589e-06	-3.154550e-09	-2.137780e+01	-2.108002e+02
4.000000e-07	-2.922278e-06	-3.103983e-09	-2.099479e+01	-2.094609e+02
4.100000e-07	-2.868151e-06	-3.227296e-09	-2.060592e+01	-2.080762e+02
4.200000e-07	-2.813150e-06	-3.203713e-09	-2.021077e+01	-2.066377e+02
4.300000e-07	-2.757305e-06	-3.093328e-09	-1.980956e+01	-2.051380e+02
4.400000e-07	-2.700260e-06	-3.077545e-09	-1.939972e+01	-2.035707e+02
4.500000e-07	-2.641865e-06	-3.083496e-09	-1.898019e+01	-2.019316e+02
4.600000e-07	-2.582574e-06	-3.058945e-09	-1.855422e+01	-2.002182e+02
4.700000e-07	-2.522571e-06	-3.027683e-09	-1.812314e+01	-1.984303e+02
4.800000e-07	-2.461717e-06	-2.996106e-09	-1.768594e+01	-1.965691e+02
4.900000e-07	-2.399983e-06	-2.946148e-09	-1.724242e+01	-1.946370e+02
5.000000e-07	-2.337417e-06	-2.925174e-09	-1.679292e+01	-1.926366e+02
5.100000e-07	-2.274140e-06	-2.935596e-09	-1.633831e+01	-1.905701e+02
5.200000e-07	-2.210154e-06	-2.879520e-09	-1.587861e+01	-1.884391e+02
5.300000e-07	-2.145052e-06	-2.806166e-09	-1.541089e+01	-1.862435e+02
5.400000e-07	-2.078760e-06	-2.791136e-09	-1.493463e+01	-1.839818e+02
5.500000e-07	-2.011770e-06	-2.801814e-09	-1.445334e+01	-1.816507e+02
5.600000e-07	-1.944335e-06	-2.748713e-09	-1.396886e+01	-1.792456e+02
5.700000e-07	-1.876321e-06	-2.661984e-09	-1.348022e+01	-1.767608e+02
5.800000e-07	-1.807697e-06	-2.635202e-09	-1.298720e+01	-1.741900e+02
5.900000e-07	-1.738543e-06	-2.632468e-09	-1.249037e+01	-1.715265e+02
6.000000e-07	-1.668759e-06	-2.585001e-09	-1.198901e+01	-1.687638e+02
6.100000e-07	-1.598225e-06	-2.512102e-09	-1.148227e+01	-1.658955e+02
6.200000e-07	-1.527121e-06	-2.470419e-09	-1.097143e+01	-1.629159e+02
6.300000e-07	-1.455747e-06	-2.440262e-09	-1.045865e+01	-1.598193e+02
6.400000e-07	-1.384119e-06	-2.393252e-09	-9.944053e+00	-1.566000e+02
6.500000e-07	-1.311970e-06	-2.335151e-09	-9.425703e+00	-1.532523e+02
6.600000e-07	-1.239051e-06	-2.275881e-09	-8.901826e+00	-1.497695e+02
6.700000e-07	-1.165382e-06	-2.216225e-09	-8.372558e+00	-1.461443e+02
6.800000e-07	-1.091103e-06	-2.165424e-09	-7.838909e+00	-1.423680e+02
6.900000e-07	-1.016280e-06	-2.115590e-09	-7.301351e+00	-1.384307e+02
7.000000e-07	-9.410120e-07	-2.042168e-09	-6.760598e+00	-1.343212e+02
7.100000e-07	-8.654954e-07	-1.964504e-09	-6.218058e+00	-1.300276e+02
7.200000e-07	-7.897972e-07	-1.908245e-09	-5.674212e+00	-1.255372e+02
7.300000e-07	-7.138875e-07	-1.851662e-09	-5.128847e+00	-1.208370e+02
7.400000e-07	-6.376932e-07	-1.761825e-09	-4.581437e+00	-1.159145e+02
7.500000e-07	-5.611472e-07	-1.669383e-09	-4.031501e+00	-1.107577e+02
7.600000e-07	-4.843689e-07	-1.596277e-09	-3.479896e+00	-1.053556e+02
7.700000e-07	-4.074578e-07	-1.517049e-09	-2.927336e+00	-9.969860e+01
7.800000e-07	-3.303940e-07	-1.416531e-09	-2.373680e+00	-9.377868e+01
7.900000e-07	-2.531797e-07	-1.314744e-09	-1.818942e+00	-8.758942e+01
8.000000e-07	-1.759192e-07	-1.226167e-09	-1.263872e+00	-8.112622e+01
8.100000e-07	-9.868930e-08	-1.128407e-09	-7.090225e-01	-7.438639e+01
8.200000e-07	-2.143246e-08	-1.014102e-09	-1.539792e-01	-6.736935e+01
8.300000e-07	5.582918e-08	-8.967428e-10	4.010986e-01	-6.007698e+01
8.400000e-07	1.330984e-07	-7.842840e-10	9.562312e-01	-5.251396e+01
8.500000e-07	2.103720e-07	-6.695834e-10	1.511394e+00	-4.468838e+01
8.600000e-07	2.875212e-07	-5.483203e-10	2.065665e+00	-3.661230e+01
8.700000e-07	3.645678e-07	-4.171545e-10	2.619198e+00	-2.830236e+01
8.800000e-07	4.415360e-07	-2.800757e-10	3.172167e+00	-1.978035e+01
8.900000e-07	5.183109e-07	-1.510375e-10	3.723748e+00	-1.107357e+01
9.000000e-07	5.948522e-07	-2.454655e-11	4.273651e+00	-2.214970e+00
9.100000e-07	6.711521e-07	1.166163e-10	4.821819e+00	6.757067e+00
9.200000e-07	7.471781e-07	2.677120e-10	5.368020e+00	1.579928e+01
9.300000e-07	8.229601e-07	4.035173e-10	5.912467e+00	2.486447e+01
9.400000e-07	8.985128e-07	5.282640e-10	6.455267e+00	3.390282e+01
9.500000e-07	9.738125e-07	6.644841e-10	6.996250e+00	4.286346e+01
9.600000e-07	1.048811e-06	8.108553e-10	7.535069e+00	5.169623e+01
9.700000e-07	1.123337e-06	9.473438e-10	8.070495e+00	6.035347e+01
9.800000e-07	1.197195e-06	1.067924e-09	8.601116e+00	6.879173e+01
9.900000e-07	1.270363e-06	1.189648e-09	9.126783e+00	7.697331e+01
1.000000e-06	1.342847e-06	1.318131e-09	9.647537e+00	8.486735e+01
1.010000e-06	1.414716e-06	1.440687e-09	1.016388e+01	9.245062e+01
1.020000e-06	1.486162e-06	1.547522e-09	1.067717e+01	9.970780e+01
1.030000e-06	1.557298e-06	1.645459e-09	1.118823e+01	1.066313e+02
1.040000e-06	1.627945e-06	1.743651e-09	1.169580e+01	1.132205e+02
1.050000e-06	1.697966e-06	1.842738e-09	1.219885e+01	1.194813e+02
1.060000e-06	1.767394e-06	1.936256e-09	1.269765e+01	1.254242e+02
1.070000e-06	1.836200e-06	2.017439e-09	1.319198e+01	1.310636e+02
1.080000e-06	1.904389e-06	2.093484e-09	1.368188e+01	1.364162e+02
1.090000e-06	1.972009e-06	2.171147e-09	1.416769e+01	1.414999e+02
1.100000e-06	2.039080e-06	2.248336e-09	1.464954e+01	1.463324e+02
1.110000e-06	2.105502e-06	2.317020e-09	1.512675e+01	1.509309e+02
1.120000e-06	2.170965e-06	2.376835e-09	1.559706e+01	1.553110e+02
1.130000e-06	2.235311e-06	2.437422e-09	1.605935e+01	1.594866e+02
1.140000e-06	2.298865e-06	2.499954e-09	1.651595e+01	1.634696e+02
1.150000e-06	2.361817e-06	2.559055e-09	1.696822e+01	1.672703e+02
1.160000e-06	2.424018e-06	2.611399e-09	1.741509e+01	1.708972e+02
1.170000e-06	2.485403e-06	2.661872e-09	1.785611e+01	1.743575e+02
1.180000e-06	2.545953e-06	2.712139e-09	1.829112e+01	1.776572e+02
1.190000e-06	2.605746e-06	2.761161e-09	1.872070e+01	1.808018e+02
1.200000e-06	2.664837e-06	2.805807e-09	1.914523e+01	1.837960e+02
1.210000e-06	2.722862e-06	2.847103e-09	1.956211e+01	1.866445e+02
1.220000e-06	2.779510e-06	2.885730e-09	1.996909e+01	1.893517e+02
1.230000e-06	2.835075e-06	2.922433e-09	2.036829e+01	1.919222e+02
1.240000e-06	2.889825e-06	2.959981e-09	2.076163e+01	1.943609e+02
1.250000e-06	2.943632e-06	2.995928e-09	2.114820e+01	1.966728e+02
1.260000e-06	2.996386e-06	3.028078e-09	2.152721e+01	1.988633e+02
1.270000e-06	3.047982e-06	3.057759e-09	2.189790e+01	2.009380e+02
1.280000e-06	3.098171e-06	3.088696e-09	2.225847e+01	2.029029e+02
1.290000e-06	3.146830e-06	3.118071e-09	2.260806e+01	2.047640e+02
1.300000e-06	3.194270e-06	3.144687e-09	2.294889e+01	2.065277e+02
1.310000e-06	3.240693e-06	3.170709e-09	2.328240e+01	2.082000e+02
1.320000e-06	3.286009e-06	3.195449e-09	2.360797e+01	2.097869e+02
1.330000e-06	3.330247e-06	3.217299e-09	2.392580e+01	2.112939e+02
1.340000e-06	3.373452e-06	3.239079e-09	2.423620e+01	2.127261e+02
1.350000e-06	3.415412e-06	3.261049e-09	2.453765e+01	2.140878e+02
1.360000e-06	3.455912e-06	3.281747e-09	2.482862e+01	2.153827e+02
1.370000e-06	3.495152e-06	3.300231e-09	2.511053e+01	2.166139e+02
1.380000e-06	3.533283e-06	3.317030e-09	2.538449e+01	2.177840e+02
1.390000e-06	3.570236e-06	3.334584e-09	2.564997e+01	2.188950e+02
1.400000e-06	3.606121e-06	3.351735e-09	2.590778e+01	2.199489e+02
1.410000e-06	3.640809e-06	3.367754e-09	2.615699e+01	2.209478e+02
1.420000e-06	3.673941e-06	3.383381e-09	2.639503e+01	2.218939e+02
1.430000e-06	3.705658e-06	3.398784e-09	2.662289e+01	2.227899e+02
1.440000e-06	3.736172e-06	3.413162e-09	2.684212e+01	2.236388e+02
1.450000e-06	3.765448e-06	3.426299e-09	2.705245e+01	2.244441e+02
1.460000e-06	3.793580e-06	3.439269e-09	2.725456e+01	2.252094e+02
1.470000e-06	3.820511e-06	3.452244e-09	2.744804e+01	2.259381e+02
1.480000e-06	3.845835e-06	3.464339e-09	2.762998e+01	2.266335e+02
1.490000e-06	3.869601e-06	3.474521e-09	2.780072e+01	2.272978e+02
1.500000e-06	3.892068e-06	3.485568e-09	2.796214e+01	2.279322e+02
1.510000e-06	3.913187e-06	3.496096e-09	2.811387e+01	2.285366e+02
1.520000e-06	3.933092e-06	3.504831e-09	2.825687e+01	2.291095e+02
1.530000e-06	3.951774e-06	3.513825e-09	2.839109e+01	2.296482e+02
1.540000e-06	3.969030e-06	3.522660e-09	2.851506e+01	2.301489e+02
1.550000e-06	3.984795e-06	3.530556e-09	2.862832e+01	2.306072e+02
1.560000e-06	3.999056e-06	3.537742e-09	2.873078e+01	2.310188e+02
1.570000e-06	4.011839e-06	3.544600e-09	2.882262e+01	2.313798e+02
1.580000e-06	4.023130e-06	3.550463e-09	2.890374e+01	2.316877e+02
1.590000e-06	4.032689e-06	3.555869e-09	2.897242e+01	2.319412e+02
1.600000e-06	4.040616e-06	3.561398e-09	2.902937e+01	2.321413e+02
1.610000e-06	4.047217e-06	3.565449e-09	2.907679e+01	2.322906e+02
1.620000e-06	4.052483e-06	3.567666e-09	2.911463e+01	2.323936e+02
1.630000e-06	4.056488e-06	3.568662e-09	2.914340e+01	2.324563e+02
1.640000e-06	4.059118e-06	3.571115e-09	2.916229e+01	2.324852e+02
1.650000e-06	4.060087e-06	3.573986e-09	2.916925e+01	2.324870e+02
1.660000e-06	4.059598e-06	3.574470e-09	2.916574e+01	2.324678e+02
1.670000e-06	4.057855e-06	3.571254e-09	2.915322e+01	2.324325e+02
1.680000e-06	4.054821e-06	3.569821e-09	2.913142e+01	2.323841e+02
1.690000e-06	4.050670e-06	3.570072e-09	2.910159e+01	2.323237e+02
1.700000e-06	4.045280e-06	3.571118e-09	2.906287e+01	2.322508e+02
1.710000e-06	4.038262e-06	3.571576e-09	2.901245e+01	2.321628e+02
1.720000e-06	4.029897e-06	3.575873e-09	2.895236e+01	2.320567e+02
1.730000e-06	4.020490e-06	3.600434e-09	2.888477e+01	2.319285e+02
1.740000e-06	4.009870e-06	3.553329e-09	2.880847e+01	2.317752e+02
1.750000e-06	3.997461e-06	3.461806e-09	2.871932e+01	2.315946e+02
1.760000e-06	3.982565e-06	3.451113e-09	2.861231e+01	2.313860e+02
1.770000e-06	3.965504e-06	3.546433e-09	2.848973e+01	2.311509e+02
1.780000e-06	3.947432e-06	3.728713e-09	2.835990e+01	2.308923e+02
1.790000e-06	3.929142e-06	3.579103e-09	2.822849e+01	2.306147e+02
1.800000e-06	3.909861e-06	3.366332e-09	2.808997e+01	2.303234e+02
1.810000e-06	3.888410e-06	3.580726e-09	2.793586e+01	2.300238e+02
1.820000e-06	3.865573e-06	3.548462e-09	2.777179e+01	2.297201e+02
1.830000e-06	3.842034e-06	3.513869e-09	2.760267e+01	2.294148e+02
1.840000e-06	3.816809e-06	3.700996e-09	2.742145e+01	2.291077e+02
1.850000e-06	3.789972e-06	3.416617e-09	2.722864e+01	2.287958e+02
1.860000e-06	3.762240e-06	3.311336e-09	2.702940e+01	2.284727e+02
1.870000e-06	3.733330e-06	3.676074e-09	2.682170e+01	2.281296e+02
1.880000e-06	3.702781e-06	3.518294e-09	2.660222e+01	2.277552e+02
1.890000e-06	3.670635e-06	3.258199e-09	2.637128e+01	2.273374e+02
1.900000e-06	3.637185e-06	3.495666e-09	2.613096e+01	2.268638e+02
1.910000e-06	3.602735e-06	3.525900e-09	2.588346e+01	2.263233e+02
1.920000e-06	3.567172e-06	3.470646e-09	2.562796e+01	2.257072e+02
1.930000e-06	3.530417e-06	3.439565e-09	2.536390e+01	2.250098e+02
1.940000e-06	3.492544e-06	3.318058e-09	2.509180e+01	2.242290e+02
1.950000e-06	3.453039e-06	3.443319e-09	2.480798e+01	2.233666e+02
1.960000e-06	3.411992e-06	3.402272e-09	2.451308e+01	2.224277e+02
1.970000e-06	3.369994e-06	3.340494e-09	2.421136e+01	2.214202e+02
1.980000e-06	3.326913e-06	3.453353e-09	2.390184e+01	2.203535e+02
1.990000e-06	3.282710e-06	3.237366e-09	2.358427e+01	2.192378e+02
2.000000e-06	3.237480e-06	3.251292e-09	2.325932e+01	2.180824e+02
2.010000e-06	3.191089e-06	3.457024e-09	2.292603e+01	2.168951e+02
2.020000e-06	3.143388e-06	3.290145e-09	2.258333e+01	2.156810e+02
2.030000e-06	3.094322e-06	3.152618e-09	2.223082e+01	2.144421e+02
2.040000e-06	3.044235e-06	3.212877e-09	2.187097e+01	2.131773e+02
2.050000e-06	2.993209e-06	3.332087e-09	2.150438e+01	2.118828e+02
2.060000e-06	2.941091e-06	3.224674e-09	2.112995e+01	2.105521e+02
2.070000e-06	2.887676e-06	3.074806e-09	2.074619e+01	2.091777e+02
2.080000e-06	2.832750e-06	3.174568e-09	2.035158e+01	2.077514e+02
2.090000e-06	2.776677e-06	3.168995e-09	1.994873e+01	2.062652e+02
2.100000e-06	2.719669e-06	3.102707e-09	1.953917e+01	2.047128e+02
2.110000e-06	2.661748e-06	3.082338e-09	1.912304e+01	2.030892e+02
2.120000e-06	2.603017e-06	3.052923e-09	1.870109e+01	2.013917e+02
2.130000e-06	2.543413e-06	3.041171e-09	1.827287e+01	1.996196e+02
2.140000e-06	2.483105e-06	2.978785e-09	1.783960e+01	1.977739e+02
2.150000e-06	2.422037e-06	2.995516e-09	1.740086e+01	1.958566e+02
2.160000e-06	2.359822e-06	2.963600e-09	1.695388e+01	1.938705e+02
2.170000e-06	2.296408e-06	2.862310e-09	1.649829e+01	1.918180e+02
2.180000e-06	2.232191e-06	2.882960e-09	1.603694e+01	1.897007e+02
2.190000e-06	2.167376e-06	2.874917e-09	1.557127e+01	1.875189e+02
2.200000e-06	2.101750e-06	2.814171e-09	1.509979e+01	1.852714e+02
2.210000e-06	2.035382e-06	2.743509e-09	1.462298e+01	1.829554e+02
2.220000e-06	1.968365e-06	2.739751e-09	1.414150e+01	1.805666e+02
2.230000e-06	1.900657e-06	2.744469e-09	1.365506e+01	1.780993e+02
2.240000e-06	1.832467e-06	2.646737e-09	1.316516e+01	1.755474e+02
2.250000e-06	1.763815e-06	2.605872e-09	1.267194e+01	1.729042e+02
2.260000e-06	1.694484e-06	2.595702e-09	1.217383e+01	1.701632e+02
2.270000e-06	1.624070e-06	2.548243e-09	1.166796e+01	1.673179e+02
2.280000e-06	1.552611e-06	2.483107e-09	1.115456e+01	1.643626e+02
2.290000e-06	1.480669e-06	2.439960e-09	1.063770e+01	1.612914e+02
2.300000e-06	1.408419e-06	2.412406e-09	1.011863e+01	1.580988e+02
2.310000e-06	1.335871e-06	2.343019e-09	9.597416e+00	1.547790e+02
2.320000e-06	1.262917e-06	2.291527e-09	9.073290e+00	1.513257e+02
2.330000e-06	1.189433e-06	2.248190e-09	8.545354e+00	1.477316e+02
2.340000e-06	1.115521e-06	2.182504e-09	8.014342e+00	1.439883e+02
2.350000e-06	1.041271e-06	2.119995e-09	7.480901e+00	1.400863e+02
2.360000e-06	9.666744e-07	2.071369e-09	6.944967e+00	1.360146e+02
2.370000e-06	8.916917e-07	2.012150e-09	6.406262e+00	1.317615e+02
2.380000e-06	8.163795e-07	1.923166e-09	5.865190e+00	1.273142e+02
2.390000e-06	7.408023e-07	1.854887e-09	5.322213e+00	1.226600e+02
2.400000e-06	6.649806e-07	1.799926e-09	4.777481e+00	1.177860e+02
2.410000e-06	5.888947e-07	1.713718e-09	4.230850e+00	1.126803e+02
2.420000e-06	5.126522e-07	1.616887e-09	3.683094e+00	1.073315e+02
2.430000e-06	4.363112e-07	1.538857e-09	3.134630e+00	1.017298e+02
2.440000e-06	3.597920e-07	1.464003e-09	2.584887e+00	9.586668e+01
2.450000e-06	2.831748e-07	1.363168e-09	2.034439e+00	8.973549e+01
2.460000e-06	2.064545e-07	1.253363e-09	1.483250e+00	8.333119e+01
2.470000e-06	1.295356e-07	1.159966e-09	9.306341e-01	7.665066e+01
2.480000e-06	5.244853e-08	1.063841e-09	3.768108e-01	6.969286e+01
2.490000e-06	-2.461424e-08	9.516308e-10	-1.768383e-01	6.245910e+01
2.500000e-06	-1.015815e-07	8.355155e-10	-7.298011e-01	5.495342e+01
2.510000e-06	-1.785566e-07	7.176796e-10	-1.282821e+00	4.718314e+01
2.520000e-06	-2.554134e-07	5.933632e-10	-1.834989e+00	3.915940e+01
2.530000e-06	-3.320187e-07	4.674746e-10	-2.385352e+00	3.089782e+01
2.540000e-06	-4.084516e-07	3.402534e-10	-2.934476e+00	2.241905e+01
2.550000e-06	-4.847502e-07	2.008240e-10	-3.482635e+00	1.374919e+01
2.560000e-06	-5.608952e-07	6.025375e-11	-4.029691e+00	4.919974e+00
2.570000e-06	-6.368276e-07	-6.859093e-11	-4.575219e+00	-4.031341e+00
2.580000e-06	-7.125032e-07	-1.979515e-10	-5.118901e+00	-1.306247e+01
2.590000e-06	-7.878767e-07	-3.420830e-10	-5.660414e+00	-2.212696e+01
2.600000e-06	-8.629355e-07	-4.865181e-10	-6.199666e+00	-3.117543e+01
2.610000e-06	-9.377176e-07	-6.141045e-10	-6.736930e+00	-4.015710e+01
2.620000e-06	-1.012174e-06	-7.402050e-10	-7.271856e+00	-4.902149e+01
2.630000e-06	-1.086303e-06	-8.767626e-10	-7.804424e+00	-5.772026e+01
2.640000e-06	-1.160048e-06	-1.012410e-09	-8.334238e+00	-6.620894e+01
2.650000e-06	-1.233396e-06	-1.134951e-09	-8.861202e+00	-7.444846e+01
2.660000e-06	-1.306278e-06	-1.251793e-09	-9.384813e+00	-8.240644e+01
2.670000e-06	-1.378710e-06	-1.368320e-09	-9.905189e+00	-9.005796e+01
2.680000e-06	-1.450845e-06	-1.482061e-09	-1.042344e+01	-9.738601e+01
2.690000e-06	-1.522637e-06	-1.592503e-09	-1.093922e+01	-1.043813e+02
2.700000e-06	-1.593910e-06	-1.694827e-09	-1.145127e+01	-1.110420e+02
2.710000e-06	-1.664363e-06	-1.787482e-09	-1.195743e+01	-1.173725e+02
2.720000e-06	-1.733852e-06	-1.876627e-09	-1.245667e+01	-1.233825e+02
2.730000e-06	-1.802550e-06	-1.968232e-09	-1.295022e+01	-1.290857e+02
2.740000e-06	-1.870747e-06	-2.055220e-09	-1.344018e+01	-1.344984e+02
2.750000e-06	-1.938479e-06	-2.130909e-09	-1.392679e+01	-1.396383e+02
2.760000e-06	-2.005553e-06	-2.202105e-09	-1.440868e+01	-1.445233e+02
2.770000e-06	-2.071939e-06	-2.275957e-09	-1.488562e+01	-1.491707e+02
2.780000e-06	-2.137632e-06	-2.349398e-09	-1.535758e+01	-1.535964e+02
2.790000e-06	-2.202559e-06	-2.415191e-09	-1.582405e+01	-1.578148e+02
2.800000e-06	-2.266829e-06	-2.474738e-09	-1.628578e+01	-1.618383e+02
2.810000e-06	-2.330417e-06	-2.534376e-09	-1.674262e+01	-1.656774e+02
2.820000e-06	-2.392944e-06	-2.594073e-09	-1.719184e+01	-1.693410e+02
2.830000e-06	-2.454257e-06	-2.649740e-09	-1.763234e+01	-1.728365e+02
2.840000e-06	-2.514702e-06	-2.701085e-09	-1.806660e+01	-1.761703e+02
2.850000e-06	-2.574426e-06	-2.748512e-09	-1.849568e+01	-1.793478e+02
2.860000e-06	-2.633233e-06	-2.795316e-09	-1.891817e+01	-1.823739e+02
2.870000e-06	-2.691142e-06	-2.843778e-09	-1.933421e+01	-1.852533e+02
2.880000e-06	-2.748186e-06	-2.888422e-09	-1.974404e+01	-1.879905e+02
2.890000e-06	-2.804375e-06	-2.926974e-09	-2.014773e+01	-1.905901e+02
2.900000e-06	-2.859570e-06	-2.964697e-09	-2.054427e+01	-1.930567e+02
2.910000e-06	-2.913405e-06	-3.004572e-09	-2.093104e+01	-1.953954e+02
2.920000e-06	-2.965885e-06	-3.040184e-09	-2.130808e+01	-1.976115e+02
2.930000e-06	-3.017205e-06	-3.069966e-09	-2.167678e+01	-1.997107e+02
2.940000e-06	-3.067350e-06	-3.099362e-09	-2.203704e+01	-2.016987e+02
