# Temperatura_=_20.0
# Concentracion g/m^3_=_9000.0
# C_Vs_to_Am_M_A/Vsm_=_65563218390.804596
# pendiente_HvsI_1/m_=_3716.3
# ordenada_HvsI_A/m_=_1297.0
# frecuencia_Hz_=_300777.64758670726

Tiempo_(s)	Campo_(V.s)	Magnetizacion_(V.s)	Campo_(kA/m)	Magnetizacion_(A/m)
0.000000e+00	-4.060301e-06	-3.547275e-09	-2.907208e+01	-2.336679e+02
1.000000e-08	-4.058502e-06	-3.548823e-09	-2.905919e+01	-2.336408e+02
2.000000e-08	-4.055216e-06	-3.548330e-09	-2.903567e+01	-2.335803e+02
3.000000e-08	-4.050763e-06	-3.546274e-09	-2.900378e+01	-2.334866e+02
4.000000e-08	-4.045139e-06	-3.542843e-09	-2.896351e+01	-2.333614e+02
5.000000e-08	-4.038259e-06	-3.538992e-09	-2.891426e+01	-2.332075e+02
6.000000e-08	-4.030093e-06	-3.533268e-09	-2.885578e+01	-2.330290e+02
7.000000e-08	-4.020429e-06	-3.521214e-09	-2.878659e+01	-2.328310e+02
8.000000e-08	-4.009040e-06	-3.521831e-09	-2.870505e+01	-2.326187e+02
9.000000e-08	-3.995799e-06	-3.562007e-09	-2.861024e+01	-2.323975e+02
1.000000e-07	-3.980498e-06	-3.590600e-09	-2.850068e+01	-2.321716e+02
1.100000e-07	-3.963404e-06	-3.564741e-09	-2.837829e+01	-2.319442e+02
1.200000e-07	-3.945130e-06	-3.461536e-09	-2.824744e+01	-2.317165e+02
1.300000e-07	-3.925947e-06	-3.402682e-09	-2.811009e+01	-2.314879e+02
1.400000e-07	-3.905834e-06	-3.533071e-09	-2.796608e+01	-2.312555e+02
1.500000e-07	-3.884715e-06	-3.576034e-09	-2.781487e+01	-2.310147e+02
1.600000e-07	-3.862441e-06	-3.461103e-09	-2.765538e+01	-2.307593e+02
1.700000e-07	-3.838494e-06	-3.445375e-09	-2.748392e+01	-2.304818e+02
1.800000e-07	-3.812721e-06	-3.415909e-09	-2.729939e+01	-2.301746e+02
1.900000e-07	-3.785759e-06	-3.433499e-09	-2.710634e+01	-2.298299e+02
2.000000e-07	-3.757739e-06	-3.583615e-09	-2.690571e+01	-2.294407e+02
2.100000e-07	-3.728335e-06	-3.501672e-09	-2.669518e+01	-2.290013e+02
2.200000e-07	-3.697758e-06	-3.349090e-09	-2.647624e+01	-2.285071e+02
2.300000e-07	-3.666165e-06	-3.483443e-09	-2.625003e+01	-2.279556e+02
2.400000e-07	-3.633131e-06	-3.578615e-09	-2.601350e+01	-2.273455e+02
2.500000e-07	-3.598501e-06	-3.475454e-09	-2.576555e+01	-2.266770e+02
2.600000e-07	-3.562532e-06	-3.396253e-09	-2.550801e+01	-2.259515e+02
2.700000e-07	-3.525389e-06	-3.374691e-09	-2.524207e+01	-2.251711e+02
2.800000e-07	-3.487113e-06	-3.433324e-09	-2.496800e+01	-2.243383e+02
2.900000e-07	-3.447677e-06	-3.473001e-09	-2.468564e+01	-2.234556e+02
3.000000e-07	-3.407019e-06	-3.395330e-09	-2.439452e+01	-2.225252e+02
3.100000e-07	-3.364905e-06	-3.329610e-09	-2.409299e+01	-2.215490e+02
3.200000e-07	-3.321380e-06	-3.334910e-09	-2.378134e+01	-2.205280e+02
3.300000e-07	-3.276793e-06	-3.381763e-09	-2.346210e+01	-2.194630e+02
3.400000e-07	-3.231144e-06	-3.387759e-09	-2.313524e+01	-2.183540e+02
3.500000e-07	-3.184262e-06	-3.296284e-09	-2.279957e+01	-2.172006e+02
3.600000e-07	-3.136214e-06	-3.229243e-09	-2.245554e+01	-2.160021e+02
3.700000e-07	-3.086926e-06	-3.286516e-09	-2.210263e+01	-2.147576e+02
3.800000e-07	-3.036032e-06	-3.330698e-09	-2.173823e+01	-2.134660e+02
3.900000e-07	-2.983618e-06	-3.243242e-09	-2.136294e+01	-2.121261e+02
4.000000e-07	-2.930159e-06	-3.163987e-09	-2.098017e+01	-2.107364e+02
4.100000e-07	-2.875855e-06	-3.204938e-09	-2.059135e+01	-2.092954e+02
4.200000e-07	-2.820660e-06	-3.224456e-09	-2.019615e+01	-2.078013e+02
4.300000e-07	-2.764507e-06	-3.163240e-09	-1.979409e+01	-2.062518e+02
4.400000e-07	-2.707208e-06	-3.109968e-09	-1.938382e+01	-2.046445e+02
4.500000e-07	-2.648665e-06	-3.085688e-09	-1.896465e+01	-2.029767e+02
4.600000e-07	-2.589124e-06	-3.079597e-09	-1.853833e+01	-2.012455e+02
4.700000e-07	-2.528810e-06	-3.067358e-09	-1.810648e+01	-1.994478e+02
4.800000e-07	-2.467674e-06	-3.026048e-09	-1.766874e+01	-1.975807e+02
4.900000e-07	-2.405680e-06	-2.968933e-09	-1.722486e+01	-1.956415e+02
5.000000e-07	-2.342901e-06	-2.952554e-09	-1.677536e+01	-1.936279e+02
5.100000e-07	-2.279424e-06	-2.956674e-09	-1.632086e+01	-1.915377e+02
5.200000e-07	-2.215170e-06	-2.908798e-09	-1.586079e+01	-1.893697e+02
5.300000e-07	-2.149792e-06	-2.840187e-09	-1.539268e+01	-1.871226e+02
5.400000e-07	-2.083316e-06	-2.812271e-09	-1.491671e+01	-1.847955e+02
5.500000e-07	-2.016216e-06	-2.806627e-09	-1.443626e+01	-1.823877e+02
5.600000e-07	-1.948640e-06	-2.769383e-09	-1.395242e+01	-1.798980e+02
5.700000e-07	-1.880442e-06	-2.701508e-09	-1.346411e+01	-1.773246e+02
5.800000e-07	-1.811644e-06	-2.653378e-09	-1.297151e+01	-1.746653e+02
5.900000e-07	-1.742282e-06	-2.637088e-09	-1.247488e+01	-1.719166e+02
6.000000e-07	-1.672238e-06	-2.604532e-09	-1.197336e+01	-1.690738e+02
6.100000e-07	-1.601490e-06	-2.541706e-09	-1.146680e+01	-1.661314e+02
6.200000e-07	-1.530230e-06	-2.481567e-09	-1.095657e+01	-1.630825e+02
6.300000e-07	-1.458633e-06	-2.443256e-09	-1.044393e+01	-1.599195e+02
6.400000e-07	-1.386686e-06	-2.406278e-09	-9.928778e+00	-1.566339e+02
6.500000e-07	-1.314169e-06	-2.349718e-09	-9.409557e+00	-1.532169e+02
6.600000e-07	-1.240858e-06	-2.282632e-09	-8.884645e+00	-1.496593e+02
6.700000e-07	-1.166822e-06	-2.222561e-09	-8.354535e+00	-1.459523e+02
6.800000e-07	-1.092288e-06	-2.175995e-09	-7.820871e+00	-1.420868e+02
6.900000e-07	-1.017317e-06	-2.122536e-09	-7.284068e+00	-1.380542e+02
7.000000e-07	-9.419190e-07	-2.048677e-09	-6.744215e+00	-1.338459e+02
7.100000e-07	-8.662256e-07	-1.969763e-09	-6.202244e+00	-1.294536e+02
7.200000e-07	-7.903119e-07	-1.906627e-09	-5.658696e+00	-1.248687e+02
7.300000e-07	-7.141001e-07	-1.846783e-09	-5.113013e+00	-1.200823e+02
7.400000e-07	-6.375588e-07	-1.763352e-09	-4.564972e+00	-1.150854e+02
7.500000e-07	-5.607666e-07	-1.669004e-09	-4.015133e+00	-1.098681e+02
7.600000e-07	-4.837795e-07	-1.586702e-09	-3.463900e+00	-1.044205e+02
7.700000e-07	-4.066565e-07	-1.508445e-09	-2.911693e+00	-9.873225e+01
7.800000e-07	-3.294013e-07	-1.415549e-09	-2.358539e+00	-9.279306e+01
7.900000e-07	-2.520167e-07	-1.312917e-09	-1.804459e+00	-8.659337e+01
8.000000e-07	-1.745497e-07	-1.214097e-09	-1.249790e+00	-8.012479e+01
8.100000e-07	-9.704885e-08	-1.116986e-09	-6.948775e-01	-7.338089e+01
8.200000e-07	-1.952684e-08	-1.010586e-09	-1.398137e-01	-6.635798e+01
8.300000e-07	5.801950e-08	-8.940886e-10	4.154242e-01	-5.905588e+01
8.400000e-07	1.355647e-07	-7.751143e-10	9.706542e-01	-5.147861e+01
8.500000e-07	2.130574e-07	-6.582016e-10	1.525508e+00	-4.363501e+01
8.600000e-07	2.904332e-07	-5.404461e-10	2.079525e+00	-3.553920e+01
8.700000e-07	3.676850e-07	-4.109087e-10	2.632654e+00	-2.721079e+01
8.800000e-07	4.448117e-07	-2.723209e-10	3.184887e+00	-1.867496e+01
8.900000e-07	5.217869e-07	-1.389786e-10	3.736036e+00	-9.962221e+00
9.000000e-07	5.985692e-07	-1.098465e-11	4.285803e+00	-1.108008e+00
9.100000e-07	6.751042e-07	1.259243e-10	4.833800e+00	7.847954e+00
9.200000e-07	7.513800e-07	2.726993e-10	5.379940e+00	1.686249e+01
9.300000e-07	8.274145e-07	4.115631e-10	5.924353e+00	2.588996e+01
9.400000e-07	9.031463e-07	5.397216e-10	6.466599e+00	3.488341e+01
9.500000e-07	9.786025e-07	6.716652e-10	7.006872e+00	4.379573e+01
9.600000e-07	1.053814e-06	8.135751e-10	7.545392e+00	5.258095e+01
9.700000e-07	1.128589e-06	9.515143e-10	8.080784e+00	6.119546e+01
9.800000e-07	1.202777e-06	1.075962e-09	8.611982e+00	6.959920e+01
9.900000e-07	1.276329e-06	1.194940e-09	9.138620e+00	7.775672e+01
1.000000e-06	1.349138e-06	1.318661e-09	9.659937e+00	8.563806e+01
1.010000e-06	1.421257e-06	1.441344e-09	1.017631e+01	9.321954e+01
1.020000e-06	1.492904e-06	1.550691e-09	1.068931e+01	1.004841e+02
1.030000e-06	1.564216e-06	1.649952e-09	1.119991e+01	1.074214e+02
1.040000e-06	1.635067e-06	1.748818e-09	1.170721e+01	1.140281e+02
1.050000e-06	1.705279e-06	1.848542e-09	1.220993e+01	1.203069e+02
1.060000e-06	1.774847e-06	1.942255e-09	1.270805e+01	1.262659e+02
1.070000e-06	1.843816e-06	2.025033e-09	1.320187e+01	1.319183e+02
1.080000e-06	1.912167e-06	2.101599e-09	1.369127e+01	1.372804e+02
1.090000e-06	1.979920e-06	2.178812e-09	1.417638e+01	1.423711e+02
1.100000e-06	2.047179e-06	2.255460e-09	1.465796e+01	1.472102e+02
1.110000e-06	2.113791e-06	2.324384e-09	1.513491e+01	1.518176e+02
1.120000e-06	2.179355e-06	2.385877e-09	1.560435e+01	1.562120e+02
1.130000e-06	2.243843e-06	2.446558e-09	1.606609e+01	1.604104e+02
1.140000e-06	2.307576e-06	2.509481e-09	1.652243e+01	1.644271e+02
1.150000e-06	2.370619e-06	2.569016e-09	1.697382e+01	1.682739e+02
1.160000e-06	2.432921e-06	2.621564e-09	1.741991e+01	1.719598e+02
1.170000e-06	2.494421e-06	2.671468e-09	1.786025e+01	1.754915e+02
1.180000e-06	2.555130e-06	2.722813e-09	1.829493e+01	1.788733e+02
1.190000e-06	2.615127e-06	2.773559e-09	1.872451e+01	1.821084e+02
1.200000e-06	2.674402e-06	2.819382e-09	1.914893e+01	1.851989e+02
1.210000e-06	2.732639e-06	2.861885e-09	1.956591e+01	1.881467e+02
1.220000e-06	2.789510e-06	2.902325e-09	1.997311e+01	1.909538e+02
1.230000e-06	2.845221e-06	2.941574e-09	2.037201e+01	1.936229e+02
1.240000e-06	2.900034e-06	2.979038e-09	2.076448e+01	1.961573e+02
1.250000e-06	2.953925e-06	3.013930e-09	2.115034e+01	1.985613e+02
1.260000e-06	3.006857e-06	3.045654e-09	2.152934e+01	2.008398e+02
1.270000e-06	3.058687e-06	3.076657e-09	2.190044e+01	2.029983e+02
1.280000e-06	3.109038e-06	3.108977e-09	2.226096e+01	2.050427e+02
1.290000e-06	3.157873e-06	3.140438e-09	2.261062e+01	2.069788e+02
1.300000e-06	3.205501e-06	3.169229e-09	2.295164e+01	2.088122e+02
1.310000e-06	3.252041e-06	3.196374e-09	2.328487e+01	2.105481e+02
1.320000e-06	3.297461e-06	3.222474e-09	2.361008e+01	2.121915e+02
1.330000e-06	3.341809e-06	3.246555e-09	2.392761e+01	2.137468e+02
1.340000e-06	3.385185e-06	3.267869e-09	2.423819e+01	2.152182e+02
1.350000e-06	3.427334e-06	3.287836e-09	2.453998e+01	2.166097e+02
1.360000e-06	3.468025e-06	3.308423e-09	2.483134e+01	2.179252e+02
1.370000e-06	3.507452e-06	3.327752e-09	2.511364e+01	2.191689e+02
1.380000e-06	3.545716e-06	3.346828e-09	2.538761e+01	2.203452e+02
1.390000e-06	3.582776e-06	3.367041e-09	2.565296e+01	2.214583e+02
1.400000e-06	3.618747e-06	3.385268e-09	2.591052e+01	2.225129e+02
1.410000e-06	3.653493e-06	3.401645e-09	2.615930e+01	2.235134e+02
1.420000e-06	3.686698e-06	3.417866e-09	2.639705e+01	2.244638e+02
1.430000e-06	3.718514e-06	3.432874e-09	2.662486e+01	2.253676e+02
1.440000e-06	3.749132e-06	3.445241e-09	2.684408e+01	2.262274e+02
1.450000e-06	3.778522e-06	3.457230e-09	2.705452e+01	2.270448e+02
1.460000e-06	3.806732e-06	3.469490e-09	2.725650e+01	2.278204e+02
1.470000e-06	3.833676e-06	3.481987e-09	2.744942e+01	2.285539e+02
1.480000e-06	3.859043e-06	3.495908e-09	2.763105e+01	2.292442e+02
1.490000e-06	3.882849e-06	3.509433e-09	2.780151e+01	2.298896e+02
1.500000e-06	3.905321e-06	3.520815e-09	2.796241e+01	2.304884e+02
1.510000e-06	3.926493e-06	3.530438e-09	2.811400e+01	2.310391e+02
1.520000e-06	3.946489e-06	3.539286e-09	2.825718e+01	2.315408e+02
1.530000e-06	3.965304e-06	3.547180e-09	2.839189e+01	2.319934e+02
1.540000e-06	3.982656e-06	3.554382e-09	2.851613e+01	2.323981e+02
1.550000e-06	3.998478e-06	3.559840e-09	2.862942e+01	2.327566e+02
1.560000e-06	4.012817e-06	3.564015e-09	2.873209e+01	2.330721e+02
1.570000e-06	4.025632e-06	3.569306e-09	2.882385e+01	2.333478e+02
1.580000e-06	4.036903e-06	3.574987e-09	2.890455e+01	2.335876e+02
1.590000e-06	4.046508e-06	3.579190e-09	2.897331e+01	2.337951e+02
1.600000e-06	4.054479e-06	3.582909e-09	2.903039e+01	2.339732e+02
1.610000e-06	4.061075e-06	3.586826e-09	2.907762e+01	2.341240e+02
1.620000e-06	4.066332e-06	3.589512e-09	2.911526e+01	2.342487e+02
1.630000e-06	4.070308e-06	3.591614e-09	2.914373e+01	2.343473e+02
1.640000e-06	4.072917e-06	3.593981e-09	2.916241e+01	2.344188e+02
1.650000e-06	4.073873e-06	3.595778e-09	2.916925e+01	2.344616e+02
1.660000e-06	4.073371e-06	3.597078e-09	2.916566e+01	2.344738e+02
1.670000e-06	4.071620e-06	3.596743e-09	2.915312e+01	2.344537e+02
1.680000e-06	4.068581e-06	3.595670e-09	2.913136e+01	2.344004e+02
1.690000e-06	4.064385e-06	3.594535e-09	2.910132e+01	2.343137e+02
1.700000e-06	4.058913e-06	3.594050e-09	2.906214e+01	2.341950e+02
1.710000e-06	4.051876e-06	3.592891e-09	2.901175e+01	2.340469e+02
1.720000e-06	4.043465e-06	3.594025e-09	2.895153e+01	2.338733e+02
1.730000e-06	4.033932e-06	3.601705e-09	2.888327e+01	2.336790e+02
1.740000e-06	4.023224e-06	3.579077e-09	2.880660e+01	2.334694e+02
1.750000e-06	4.010754e-06	3.516188e-09	2.871732e+01	2.332497e+02
1.760000e-06	3.995828e-06	3.497902e-09	2.861044e+01	2.330245e+02
1.770000e-06	3.978772e-06	3.551404e-09	2.848832e+01	2.327972e+02
1.780000e-06	3.960697e-06	3.663558e-09	2.835890e+01	2.325695e+02
1.790000e-06	3.942268e-06	3.615736e-09	2.822695e+01	2.323413e+02
1.800000e-06	3.922798e-06	3.477292e-09	2.808754e+01	2.321100e+02
1.810000e-06	3.901306e-06	3.557943e-09	2.793366e+01	2.318715e+02
1.820000e-06	3.878407e-06	3.596491e-09	2.776970e+01	2.316197e+02
1.830000e-06	3.854642e-06	3.568977e-09	2.759955e+01	2.313476e+02
1.840000e-06	3.829285e-06	3.646116e-09	2.741799e+01	2.310474e+02
1.850000e-06	3.802368e-06	3.541158e-09	2.722526e+01	2.307113e+02
1.860000e-06	3.774451e-06	3.428545e-09	2.702537e+01	2.303322e+02
1.870000e-06	3.745329e-06	3.589401e-09	2.681685e+01	2.299040e+02
1.880000e-06	3.714640e-06	3.559572e-09	2.659712e+01	2.294219e+02
1.890000e-06	3.682429e-06	3.361088e-09	2.636649e+01	2.288828e+02
1.900000e-06	3.648891e-06	3.431384e-09	2.612635e+01	2.282852e+02
1.910000e-06	3.614259e-06	3.513551e-09	2.587838e+01	2.276291e+02
1.920000e-06	3.578537e-06	3.477950e-09	2.562261e+01	2.269157e+02
1.930000e-06	3.541670e-06	3.458327e-09	2.535864e+01	2.261468e+02
1.940000e-06	3.503590e-06	3.381921e-09	2.508598e+01	2.253250e+02
1.950000e-06	3.463897e-06	3.390836e-09	2.480178e+01	2.244528e+02
1.960000e-06	3.422720e-06	3.421400e-09	2.450695e+01	2.235325e+02
1.970000e-06	3.380560e-06	3.405165e-09	2.420508e+01	2.225659e+02
1.980000e-06	3.337380e-06	3.411074e-09	2.389591e+01	2.215545e+02
1.990000e-06	3.293097e-06	3.289275e-09	2.357883e+01	2.204989e+02
2.000000e-06	3.247736e-06	3.283736e-09	2.325405e+01	2.193993e+02
2.010000e-06	3.201219e-06	3.407587e-09	2.292098e+01	2.182554e+02
2.020000e-06	3.153410e-06	3.323071e-09	2.257867e+01	2.170667e+02
2.030000e-06	3.104302e-06	3.212988e-09	2.222705e+01	2.158321e+02
2.040000e-06	3.054148e-06	3.230812e-09	2.186794e+01	2.145507e+02
2.050000e-06	3.002985e-06	3.284825e-09	2.150161e+01	2.132212e+02
2.060000e-06	2.950609e-06	3.251377e-09	2.112659e+01	2.118423e+02
2.070000e-06	2.896893e-06	3.150488e-09	2.074198e+01	2.104125e+02
2.080000e-06	2.841814e-06	3.158033e-09	2.034761e+01	2.089299e+02
2.090000e-06	2.785583e-06	3.160195e-09	1.994500e+01	2.073924e+02
2.100000e-06	2.728344e-06	3.127290e-09	1.953516e+01	2.057977e+02
2.110000e-06	2.670211e-06	3.118945e-09	1.911892e+01	2.041431e+02
2.120000e-06	2.611306e-06	3.065779e-09	1.869716e+01	2.024257e+02
2.130000e-06	2.551545e-06	3.037210e-09	1.826926e+01	2.006426e+02
2.140000e-06	2.491025e-06	3.024843e-09	1.783594e+01	1.987906e+02
2.150000e-06	2.429640e-06	3.013475e-09	1.739642e+01	1.968670e+02
2.160000e-06	2.367062e-06	2.967982e-09	1.694835e+01	1.948695e+02
2.170000e-06	2.303406e-06	2.896851e-09	1.649257e+01	1.927958e+02
2.180000e-06	2.239029e-06	2.899715e-09	1.603162e+01	1.906446e+02
2.190000e-06	2.174031e-06	2.883064e-09	1.556623e+01	1.884145e+02
2.200000e-06	2.108249e-06	2.824007e-09	1.509523e+01	1.861046e+02
2.210000e-06	2.041716e-06	2.771482e-09	1.461885e+01	1.837142e+02
2.220000e-06	1.974502e-06	2.747483e-09	1.413759e+01	1.812421e+02
2.230000e-06	1.906611e-06	2.736637e-09	1.365149e+01	1.786869e+02
2.240000e-06	1.838056e-06	2.674709e-09	1.316063e+01	1.760462e+02
2.250000e-06	1.768859e-06	2.620705e-09	1.266517e+01	1.733170e+02
2.260000e-06	1.699000e-06	2.591498e-09	1.216497e+01	1.704948e+02
2.270000e-06	1.628239e-06	2.550605e-09	1.165832e+01	1.675743e+02
2.280000e-06	1.556634e-06	2.499814e-09	1.114562e+01	1.645488e+02
2.290000e-06	1.484550e-06	2.445674e-09	1.062950e+01	1.614109e+02
2.300000e-06	1.412125e-06	2.398642e-09	1.011093e+01	1.581523e+02
2.310000e-06	1.339309e-06	2.346919e-09	9.589561e+00	1.547642e+02
2.320000e-06	1.266096e-06	2.297815e-09	9.065345e+00	1.512375e+02
2.330000e-06	1.192466e-06	2.243875e-09	8.538149e+00	1.475632e+02
2.340000e-06	1.118400e-06	2.173489e-09	8.007834e+00	1.437324e+02
2.350000e-06	1.043893e-06	2.112905e-09	7.474355e+00	1.397363e+02
2.360000e-06	9.690261e-07	2.063312e-09	6.938303e+00	1.355664e+02
2.370000e-06	8.938469e-07	2.000606e-09	6.400014e+00	1.312142e+02
2.380000e-06	8.183281e-07	1.916574e-09	5.859294e+00	1.266713e+02
2.390000e-06	7.424924e-07	1.842673e-09	5.316305e+00	1.219288e+02
2.400000e-06	6.663672e-07	1.782724e-09	4.771242e+00	1.169778e+02
2.410000e-06	5.900386e-07	1.702577e-09	4.224723e+00	1.118086e+02
2.420000e-06	5.134863e-07	1.610750e-09	3.676602e+00	1.064112e+02
2.430000e-06	4.367515e-07	1.524985e-09	3.127175e+00	1.007754e+02
2.440000e-06	3.598858e-07	1.442177e-09	2.576811e+00	9.489076e+01
2.450000e-06	2.828218e-07	1.348959e-09	2.025027e+00	8.874764e+01
2.460000e-06	2.055661e-07	1.245747e-09	1.471870e+00	8.233728e+01
2.470000e-06	1.281277e-07	1.143229e-09	9.174047e-01	7.565278e+01
2.480000e-06	5.056665e-08	1.040430e-09	3.620612e-01	6.868980e+01
2.490000e-06	-2.689780e-08	9.343387e-10	-1.925904e-01	6.144733e+01
2.500000e-06	-1.042497e-07	8.207753e-10	-7.464360e-01	5.392843e+01
2.510000e-06	-1.816352e-07	7.005566e-10	-1.300523e+00	4.614089e+01
2.520000e-06	-2.589577e-07	5.768161e-10	-1.854158e+00	3.809765e+01
2.530000e-06	-3.360438e-07	4.536816e-10	-2.406101e+00	2.981715e+01
2.540000e-06	-4.128161e-07	3.265504e-10	-2.955796e+00	2.132336e+01
2.550000e-06	-4.894018e-07	1.887312e-10	-3.504156e+00	1.264569e+01
2.560000e-06	-5.658176e-07	5.082251e-11	-4.051299e+00	3.818574e+00
2.570000e-06	-6.419658e-07	-8.110698e-11	-4.596526e+00	-5.119128e+00
2.580000e-06	-7.178720e-07	-2.142563e-10	-5.140020e+00	-1.412490e+01
2.590000e-06	-7.935282e-07	-3.548882e-10	-5.681724e+00	-2.315354e+01
2.600000e-06	-8.688541e-07	-4.951577e-10	-6.221064e+00	-3.215827e+01
2.610000e-06	-9.438420e-07	-6.266777e-10	-6.757983e+00	-4.109191e+01
2.620000e-06	-1.018509e-06	-7.542357e-10	-7.292605e+00	-4.990815e+01
2.630000e-06	-1.092808e-06	-8.843922e-10	-7.824591e+00	-5.856277e+01
2.640000e-06	-1.166736e-06	-1.015751e-09	-8.353920e+00	-6.701484e+01
2.650000e-06	-1.240267e-06	-1.141507e-09	-8.880409e+00	-7.522785e+01
2.660000e-06	-1.313321e-06	-1.260238e-09	-9.403481e+00	-8.317060e+01
2.670000e-06	-1.385929e-06	-1.374629e-09	-9.923360e+00	-9.081801e+01
2.680000e-06	-1.458229e-06	-1.488448e-09	-1.044104e+01	-9.815157e+01
2.690000e-06	-1.530188e-06	-1.599648e-09	-1.095627e+01	-1.051596e+02
2.700000e-06	-1.601639e-06	-1.700803e-09	-1.146786e+01	-1.118371e+02
2.710000e-06	-1.672389e-06	-1.792520e-09	-1.197444e+01	-1.181856e+02
2.720000e-06	-1.742244e-06	-1.882541e-09	-1.247461e+01	-1.242122e+02
2.730000e-06	-1.811252e-06	-1.972671e-09	-1.296871e+01	-1.299290e+02
2.740000e-06	-1.879618e-06	-2.057871e-09	-1.345821e+01	-1.353519e+02
2.750000e-06	-1.947417e-06	-2.135002e-09	-1.394366e+01	-1.404990e+02
2.760000e-06	-2.014610e-06	-2.207889e-09	-1.442477e+01	-1.453904e+02
2.770000e-06	-2.081147e-06	-2.281921e-09	-1.490118e+01	-1.500458e+02
2.780000e-06	-2.146988e-06	-2.353427e-09	-1.537261e+01	-1.544844e+02
2.790000e-06	-2.212118e-06	-2.417986e-09	-1.583894e+01	-1.587235e+02
2.800000e-06	-2.276578e-06	-2.478607e-09	-1.630048e+01	-1.627781e+02
2.810000e-06	-2.340312e-06	-2.539865e-09	-1.675682e+01	-1.666604e+02
2.820000e-06	-2.403079e-06	-2.600456e-09	-1.720623e+01	-1.703802e+02
2.830000e-06	-2.464686e-06	-2.656634e-09	-1.764735e+01	-1.739445e+02
2.840000e-06	-2.525308e-06	-2.709013e-09	-1.808140e+01	-1.773581e+02
2.850000e-06	-2.585157e-06	-2.756775e-09	-1.850993e+01	-1.806245e+02
2.860000e-06	-2.644199e-06	-2.804022e-09	-1.893267e+01	-1.837458e+02
2.870000e-06	-2.702315e-06	-2.853720e-09	-1.934879e+01	-1.867241e+02
2.880000e-06	-2.759468e-06	-2.900522e-09	-1.975801e+01	-1.895611e+02
2.890000e-06	-2.815774e-06	-2.941689e-09	-2.016116e+01	-1.922595e+02
2.900000e-06	-2.871080e-06	-2.981921e-09	-2.055716e+01	-1.948225e+02
2.910000e-06	-2.925063e-06	-3.024777e-09	-2.094368e+01	-1.972540e+02
2.920000e-06	-2.977728e-06	-3.063837e-09	-2.132076e+01	-1.995590e+02
2.930000e-06	-3.029204e-06	-3.095414e-09	-2.168934e+01	-2.017428e+02
2.940000e-06	-3.079460e-06	-3.122845e-09	-2.204918e+01	-2.038111e+02
