# Temperatura_=_20.0
# Concentracion g/m^3_=_9000.0
# C_Vs_to_Am_M_A/Vsm_=_65563218390.804596
# pendiente_HvsI_1/m_=_3716.3
# ordenada_HvsI_A/m_=_1297.0
# frecuencia_Hz_=_300783.6014555157

Tiempo_(s)	Campo_(V.s)	Magnetizacion_(V.s)	Campo_(kA/m)	Magnetizacion_(A/m)
0.000000e+00	-4.048031e-06	-3.550039e-09	-2.907020e+01	-2.318017e+02
1.000000e-08	-4.046397e-06	-3.552749e-09	-2.905847e+01	-2.318267e+02
2.000000e-08	-4.043295e-06	-3.553794e-09	-2.903619e+01	-2.318221e+02
3.000000e-08	-4.038962e-06	-3.553223e-09	-2.900507e+01	-2.317863e+02
4.000000e-08	-4.033462e-06	-3.550203e-09	-2.896558e+01	-2.317183e+02
5.000000e-08	-4.026735e-06	-3.545751e-09	-2.891727e+01	-2.316174e+02
6.000000e-08	-4.018780e-06	-3.541038e-09	-2.886014e+01	-2.314843e+02
7.000000e-08	-4.009354e-06	-3.531757e-09	-2.879245e+01	-2.313207e+02
8.000000e-08	-3.998223e-06	-3.533361e-09	-2.871251e+01	-2.311297e+02
9.000000e-08	-3.985308e-06	-3.568418e-09	-2.861976e+01	-2.309153e+02
1.000000e-07	-3.970328e-06	-3.593490e-09	-2.851219e+01	-2.306827e+02
1.100000e-07	-3.953451e-06	-3.571261e-09	-2.839099e+01	-2.304368e+02
1.200000e-07	-3.935332e-06	-3.480866e-09	-2.826087e+01	-2.301826e+02
1.300000e-07	-3.916333e-06	-3.436575e-09	-2.812443e+01	-2.299238e+02
1.400000e-07	-3.896409e-06	-3.549494e-09	-2.798135e+01	-2.296624e+02
1.500000e-07	-3.875434e-06	-3.576657e-09	-2.783073e+01	-2.293987e+02
1.600000e-07	-3.853407e-06	-3.476926e-09	-2.767254e+01	-2.291303e+02
1.700000e-07	-3.829859e-06	-3.454056e-09	-2.750344e+01	-2.288524e+02
1.800000e-07	-3.804440e-06	-3.442044e-09	-2.732089e+01	-2.285582e+02
1.900000e-07	-3.777754e-06	-3.479383e-09	-2.712925e+01	-2.282389e+02
2.000000e-07	-3.750042e-06	-3.572007e-09	-2.693025e+01	-2.278849e+02
2.100000e-07	-3.720939e-06	-3.471345e-09	-2.672125e+01	-2.274863e+02
2.200000e-07	-3.690518e-06	-3.368812e-09	-2.650279e+01	-2.270336e+02
2.300000e-07	-3.659033e-06	-3.483178e-09	-2.627668e+01	-2.265189e+02
2.400000e-07	-3.626276e-06	-3.515000e-09	-2.604144e+01	-2.259361e+02
2.500000e-07	-3.591990e-06	-3.406357e-09	-2.579523e+01	-2.252818e+02
2.600000e-07	-3.556258e-06	-3.349507e-09	-2.553862e+01	-2.245552e+02
2.700000e-07	-3.519315e-06	-3.360065e-09	-2.527332e+01	-2.237580e+02
2.800000e-07	-3.481242e-06	-3.417191e-09	-2.499991e+01	-2.228941e+02
2.900000e-07	-3.442009e-06	-3.399812e-09	-2.471816e+01	-2.219692e+02
3.000000e-07	-3.401625e-06	-3.307413e-09	-2.442816e+01	-2.209898e+02
3.100000e-07	-3.359840e-06	-3.307118e-09	-2.412808e+01	-2.199626e+02
3.200000e-07	-3.316599e-06	-3.332060e-09	-2.381756e+01	-2.188938e+02
3.300000e-07	-3.272199e-06	-3.313243e-09	-2.349870e+01	-2.177882e+02
3.400000e-07	-3.226724e-06	-3.297581e-09	-2.317214e+01	-2.166492e+02
3.500000e-07	-3.180066e-06	-3.254435e-09	-2.283707e+01	-2.154780e+02
3.600000e-07	-3.132233e-06	-3.214056e-09	-2.249356e+01	-2.142741e+02
3.700000e-07	-3.083154e-06	-3.247205e-09	-2.214111e+01	-2.130353e+02
3.800000e-07	-3.032603e-06	-3.256617e-09	-2.177809e+01	-2.117578e+02
3.900000e-07	-2.980539e-06	-3.168973e-09	-2.140420e+01	-2.104374e+02
4.000000e-07	-2.927334e-06	-3.129693e-09	-2.102212e+01	-2.090692e+02
4.100000e-07	-2.873255e-06	-3.179691e-09	-2.063376e+01	-2.076488e+02
4.200000e-07	-2.818278e-06	-3.160439e-09	-2.023895e+01	-2.061723e+02
4.300000e-07	-2.762433e-06	-3.078325e-09	-1.983791e+01	-2.046367e+02
4.400000e-07	-2.705492e-06	-3.056391e-09	-1.942900e+01	-2.030401e+02
4.500000e-07	-2.647272e-06	-3.066454e-09	-1.901090e+01	-2.013817e+02
4.600000e-07	-2.588022e-06	-3.038824e-09	-1.858541e+01	-1.996612e+02
4.700000e-07	-2.527975e-06	-2.987929e-09	-1.815419e+01	-1.978790e+02
4.800000e-07	-2.467091e-06	-2.959866e-09	-1.771697e+01	-1.960358e+02
4.900000e-07	-2.405323e-06	-2.944186e-09	-1.727339e+01	-1.941317e+02
5.000000e-07	-2.342727e-06	-2.920339e-09	-1.682387e+01	-1.921666e+02
5.100000e-07	-2.279482e-06	-2.890564e-09	-1.636969e+01	-1.901394e+02
5.200000e-07	-2.215556e-06	-2.847289e-09	-1.591062e+01	-1.880484e+02
5.300000e-07	-2.150548e-06	-2.806723e-09	-1.544377e+01	-1.858907e+02
5.400000e-07	-2.084417e-06	-2.782684e-09	-1.496886e+01	-1.836626e+02
5.500000e-07	-2.017560e-06	-2.760673e-09	-1.448874e+01	-1.813597e+02
5.600000e-07	-1.950165e-06	-2.714808e-09	-1.400475e+01	-1.789772e+02
5.700000e-07	-1.882183e-06	-2.657629e-09	-1.351655e+01	-1.765099e+02
5.800000e-07	-1.813570e-06	-2.628895e-09	-1.302382e+01	-1.739526e+02
5.900000e-07	-1.744342e-06	-2.610388e-09	-1.252668e+01	-1.713000e+02
6.000000e-07	-1.674495e-06	-2.559459e-09	-1.202508e+01	-1.685468e+02
6.100000e-07	-1.604038e-06	-2.495678e-09	-1.151911e+01	-1.656881e+02
6.200000e-07	-1.533029e-06	-2.457812e-09	-1.100917e+01	-1.627187e+02
6.300000e-07	-1.461628e-06	-2.426736e-09	-1.049642e+01	-1.596333e+02
6.400000e-07	-1.389961e-06	-2.372778e-09	-9.981752e+00	-1.564263e+02
6.500000e-07	-1.317822e-06	-2.311604e-09	-9.463698e+00	-1.530915e+02
6.600000e-07	-1.244900e-06	-2.261322e-09	-8.940021e+00	-1.496222e+02
6.700000e-07	-1.171209e-06	-2.211861e-09	-8.410826e+00	-1.460107e+02
6.800000e-07	-1.096892e-06	-2.156302e-09	-7.877131e+00	-1.422487e+02
6.900000e-07	-1.022060e-06	-2.095790e-09	-7.339739e+00	-1.383269e+02
7.000000e-07	-9.468429e-07	-2.028945e-09	-6.799581e+00	-1.342352e+02
7.100000e-07	-8.713616e-07	-1.960515e-09	-6.257526e+00	-1.299627e+02
7.200000e-07	-7.956790e-07	-1.896678e-09	-5.714024e+00	-1.254980e+02
7.300000e-07	-7.197910e-07	-1.829958e-09	-5.169049e+00	-1.208293e+02
7.400000e-07	-6.436180e-07	-1.748719e-09	-4.622026e+00	-1.159445e+02
7.500000e-07	-5.670958e-07	-1.664550e-09	-4.072496e+00	-1.108316e+02
7.600000e-07	-4.903150e-07	-1.586511e-09	-3.521108e+00	-1.054788e+02
7.700000e-07	-4.133755e-07	-1.502117e-09	-2.968581e+00	-9.987500e+01
7.800000e-07	-3.363145e-07	-1.406559e-09	-2.415182e+00	-9.401007e+01
7.900000e-07	-2.590924e-07	-1.311261e-09	-1.860625e+00	-8.787526e+01
8.000000e-07	-1.817376e-07	-1.220124e-09	-1.305115e+00	-8.146375e+01
8.100000e-07	-1.043544e-07	-1.119557e-09	-7.494024e-01	-7.477119e+01
8.200000e-07	-2.701150e-08	-1.008142e-09	-1.939782e-01	-6.779628e+01
8.300000e-07	5.032176e-08	-8.978154e-10	3.613766e-01	-6.054138e+01
8.400000e-07	1.276578e-07	-7.882589e-10	9.167514e-01	-5.301306e+01
8.500000e-07	2.049414e-07	-6.687030e-10	1.471750e+00	-4.522260e+01
8.600000e-07	2.821226e-07	-5.396912e-10	2.026013e+00	-3.718634e+01
8.700000e-07	3.591735e-07	-4.108182e-10	2.579339e+00	-2.892588e+01
8.800000e-07	4.360736e-07	-2.839528e-10	3.131584e+00	-2.046803e+01
8.900000e-07	5.128142e-07	-1.544337e-10	3.682682e+00	-1.184459e+01
9.000000e-07	5.893839e-07	-1.969580e-11	4.232554e+00	-3.091812e+00
9.100000e-07	6.656951e-07	1.176804e-10	4.780569e+00	5.750311e+00
9.200000e-07	7.417293e-07	2.539321e-10	5.326595e+00	1.463902e+01
9.300000e-07	8.175310e-07	3.859956e-10	5.870951e+00	2.352987e+01
9.400000e-07	8.931249e-07	5.184820e-10	6.413815e+00	3.237798e+01
9.500000e-07	9.684947e-07	6.568091e-10	6.955070e+00	4.113925e+01
9.600000e-07	1.043526e-06	7.949059e-10	7.493896e+00	4.977158e+01
9.700000e-07	1.118053e-06	9.235563e-10	8.029097e+00	5.823598e+01
9.800000e-07	1.191935e-06	1.045820e-09	8.559663e+00	6.649755e+01
9.900000e-07	1.265115e-06	1.170155e-09	9.085197e+00	7.452619e+01
1.000000e-06	1.337685e-06	1.294560e-09	9.606343e+00	8.229715e+01
1.010000e-06	1.409697e-06	1.409640e-09	1.012348e+01	8.979131e+01
1.020000e-06	1.481262e-06	1.514346e-09	1.063741e+01	9.699518e+01
1.030000e-06	1.552469e-06	1.616935e-09	1.114878e+01	1.039008e+02
1.040000e-06	1.623166e-06	1.719885e-09	1.165647e+01	1.105052e+02
1.050000e-06	1.693271e-06	1.818311e-09	1.215992e+01	1.168100e+02
1.060000e-06	1.762805e-06	1.909937e-09	1.265927e+01	1.228209e+02
1.070000e-06	1.831686e-06	1.994789e-09	1.315392e+01	1.285466e+02
1.080000e-06	1.899867e-06	2.075567e-09	1.364355e+01	1.339982e+02
1.090000e-06	1.967510e-06	2.154649e-09	1.412932e+01	1.391886e+02
1.100000e-06	2.034674e-06	2.230064e-09	1.461164e+01	1.441316e+02
1.110000e-06	2.101134e-06	2.299874e-09	1.508891e+01	1.488412e+02
1.120000e-06	2.166563e-06	2.364736e-09	1.555878e+01	1.533311e+02
1.130000e-06	2.230919e-06	2.428146e-09	1.602094e+01	1.576142e+02
1.140000e-06	2.294518e-06	2.492647e-09	1.647767e+01	1.617023e+02
1.150000e-06	2.357530e-06	2.554000e-09	1.693017e+01	1.656057e+02
1.160000e-06	2.419837e-06	2.608355e-09	1.737762e+01	1.693333e+02
1.170000e-06	2.481292e-06	2.659473e-09	1.781895e+01	1.728924e+02
1.180000e-06	2.541895e-06	2.710080e-09	1.825416e+01	1.762890e+02
1.190000e-06	2.601747e-06	2.759893e-09	1.868398e+01	1.795278e+02
1.200000e-06	2.660858e-06	2.805074e-09	1.910847e+01	1.826128e+02
1.210000e-06	2.718960e-06	2.845750e-09	1.952572e+01	1.855475e+02
1.220000e-06	2.775760e-06	2.885128e-09	1.993362e+01	1.883352e+02
1.230000e-06	2.831442e-06	2.925448e-09	2.033349e+01	1.909793e+02
1.240000e-06	2.886247e-06	2.965164e-09	2.072706e+01	1.934839e+02
1.250000e-06	2.940143e-06	3.001030e-09	2.111410e+01	1.958535e+02
1.260000e-06	2.993028e-06	3.032917e-09	2.149389e+01	1.980935e+02
1.270000e-06	3.044746e-06	3.063404e-09	2.186529e+01	2.002100e+02
1.280000e-06	3.095096e-06	3.094449e-09	2.222687e+01	2.022096e+02
1.290000e-06	3.143975e-06	3.123533e-09	2.257789e+01	2.040997e+02
1.300000e-06	3.191569e-06	3.149320e-09	2.291967e+01	2.058875e+02
1.310000e-06	3.238086e-06	3.173499e-09	2.325373e+01	2.075802e+02
1.320000e-06	3.283535e-06	3.198221e-09	2.358011e+01	2.091849e+02
1.330000e-06	3.327907e-06	3.222747e-09	2.389876e+01	2.107077e+02
1.340000e-06	3.371211e-06	3.246130e-09	2.420974e+01	2.121545e+02
1.350000e-06	3.413237e-06	3.267274e-09	2.451154e+01	2.135298e+02
1.360000e-06	3.453810e-06	3.287090e-09	2.480291e+01	2.148380e+02
1.370000e-06	3.493149e-06	3.306700e-09	2.508542e+01	2.160823e+02
1.380000e-06	3.531371e-06	3.325262e-09	2.535990e+01	2.172656e+02
1.390000e-06	3.568419e-06	3.342203e-09	2.562596e+01	2.183907e+02
1.400000e-06	3.604362e-06	3.357881e-09	2.588408e+01	2.194598e+02
1.410000e-06	3.639094e-06	3.373269e-09	2.613350e+01	2.204755e+02
1.420000e-06	3.672394e-06	3.389611e-09	2.637263e+01	2.214403e+02
1.430000e-06	3.704288e-06	3.406154e-09	2.660167e+01	2.223568e+02
1.440000e-06	3.734927e-06	3.419700e-09	2.682170e+01	2.232277e+02
1.450000e-06	3.764341e-06	3.431393e-09	2.703293e+01	2.240557e+02
1.460000e-06	3.792566e-06	3.444276e-09	2.723562e+01	2.248430e+02
1.470000e-06	3.819571e-06	3.458547e-09	2.742956e+01	2.255917e+02
1.480000e-06	3.845067e-06	3.471739e-09	2.761265e+01	2.263030e+02
1.490000e-06	3.868990e-06	3.482729e-09	2.778445e+01	2.269776e+02
1.500000e-06	3.891535e-06	3.492645e-09	2.794635e+01	2.276155e+02
1.510000e-06	3.912766e-06	3.502334e-09	2.809882e+01	2.282160e+02
1.520000e-06	3.932793e-06	3.512681e-09	2.824264e+01	2.287782e+02
1.530000e-06	3.951661e-06	3.522085e-09	2.837814e+01	2.293007e+02
1.540000e-06	3.969139e-06	3.528752e-09	2.850365e+01	2.297821e+02
1.550000e-06	3.985079e-06	3.535012e-09	2.861813e+01	2.302215e+02
1.560000e-06	3.999531e-06	3.543639e-09	2.872191e+01	2.306186e+02
1.570000e-06	4.012502e-06	3.552514e-09	2.881505e+01	2.309736e+02
1.580000e-06	4.023943e-06	3.558477e-09	2.889722e+01	2.312876e+02
1.590000e-06	4.033692e-06	3.562904e-09	2.896723e+01	2.315623e+02
1.600000e-06	4.041810e-06	3.568162e-09	2.902553e+01	2.318000e+02
1.610000e-06	4.048540e-06	3.574012e-09	2.907386e+01	2.320033e+02
1.620000e-06	4.053902e-06	3.577903e-09	2.911236e+01	2.321748e+02
1.630000e-06	4.057972e-06	3.578756e-09	2.914159e+01	2.323166e+02
1.640000e-06	4.060709e-06	3.580780e-09	2.916124e+01	2.324305e+02
1.650000e-06	4.061823e-06	3.586423e-09	2.916925e+01	2.325171e+02
1.660000e-06	4.061442e-06	3.591181e-09	2.916651e+01	2.325764e+02
1.670000e-06	4.059778e-06	3.589952e-09	2.915456e+01	2.326078e+02
1.680000e-06	4.056862e-06	3.587241e-09	2.913362e+01	2.326098e+02
1.690000e-06	4.052840e-06	3.586820e-09	2.910474e+01	2.325810e+02
1.700000e-06	4.047535e-06	3.586630e-09	2.906664e+01	2.325201e+02
1.710000e-06	4.040682e-06	3.584419e-09	2.901742e+01	2.324264e+02
1.720000e-06	4.032482e-06	3.583671e-09	2.895854e+01	2.323002e+02
1.730000e-06	4.023134e-06	3.591396e-09	2.889141e+01	2.321431e+02
1.740000e-06	4.012578e-06	3.574161e-09	2.881560e+01	2.319578e+02
1.750000e-06	4.000303e-06	3.520749e-09	2.872745e+01	2.317482e+02
1.760000e-06	3.985663e-06	3.499977e-09	2.862232e+01	2.315192e+02
1.770000e-06	3.968888e-06	3.546408e-09	2.850185e+01	2.312759e+02
1.780000e-06	3.950933e-06	3.648951e-09	2.837291e+01	2.310233e+02
1.790000e-06	3.932540e-06	3.615231e-09	2.824082e+01	2.307653e+02
1.800000e-06	3.913258e-06	3.484379e-09	2.810236e+01	2.305046e+02
1.810000e-06	3.892126e-06	3.541762e-09	2.795060e+01	2.302417e+02
1.820000e-06	3.869487e-06	3.593150e-09	2.778802e+01	2.299747e+02
1.830000e-06	3.845927e-06	3.574660e-09	2.761883e+01	2.296996e+02
1.840000e-06	3.820808e-06	3.604523e-09	2.743844e+01	2.294096e+02
1.850000e-06	3.794062e-06	3.489517e-09	2.724637e+01	2.290967e+02
1.860000e-06	3.766348e-06	3.411876e-09	2.704735e+01	2.287512e+02
1.870000e-06	3.737480e-06	3.553939e-09	2.684003e+01	2.283631e+02
1.880000e-06	3.707009e-06	3.515102e-09	2.662122e+01	2.279229e+02
1.890000e-06	3.674993e-06	3.360932e-09	2.639130e+01	2.274222e+02
1.900000e-06	3.641682e-06	3.442895e-09	2.615208e+01	2.268545e+02
1.910000e-06	3.607290e-06	3.495166e-09	2.590510e+01	2.262159e+02
1.920000e-06	3.571750e-06	3.433098e-09	2.564988e+01	2.255048e+02
1.930000e-06	3.535026e-06	3.400248e-09	2.538615e+01	2.247226e+02
1.940000e-06	3.497172e-06	3.351514e-09	2.511431e+01	2.238728e+02
1.950000e-06	3.457850e-06	3.388278e-09	2.483193e+01	2.229606e+02
1.960000e-06	3.416975e-06	3.392229e-09	2.453839e+01	2.219924e+02
1.970000e-06	3.374980e-06	3.329776e-09	2.423681e+01	2.209751e+02
1.980000e-06	3.331957e-06	3.354969e-09	2.392785e+01	2.199149e+02
1.990000e-06	3.287876e-06	3.298682e-09	2.361129e+01	2.188170e+02
2.000000e-06	3.242798e-06	3.268210e-09	2.328756e+01	2.176851e+02
2.010000e-06	3.196598e-06	3.329408e-09	2.295579e+01	2.165210e+02
2.020000e-06	3.149074e-06	3.266956e-09	2.261451e+01	2.153244e+02
2.030000e-06	3.100181e-06	3.197767e-09	2.226339e+01	2.140935e+02
2.040000e-06	3.050228e-06	3.213376e-09	2.190466e+01	2.128248e+02
2.050000e-06	2.999233e-06	3.240575e-09	2.153845e+01	2.115141e+02
2.060000e-06	2.947058e-06	3.185520e-09	2.116376e+01	2.101567e+02
2.070000e-06	2.893632e-06	3.103698e-09	2.078010e+01	2.087480e+02
2.080000e-06	2.838801e-06	3.140778e-09	2.038634e+01	2.072840e+02
2.090000e-06	2.782803e-06	3.144365e-09	1.998419e+01	2.057614e+02
2.100000e-06	2.725841e-06	3.073740e-09	1.957514e+01	2.041782e+02
2.110000e-06	2.667986e-06	3.042697e-09	1.915966e+01	2.025332e+02
2.120000e-06	2.609350e-06	3.037135e-09	1.873858e+01	2.008261e+02
2.130000e-06	2.549855e-06	3.032437e-09	1.831132e+01	1.990573e+02
2.140000e-06	2.489544e-06	2.977200e-09	1.787821e+01	1.972272e+02
2.150000e-06	2.428449e-06	2.940224e-09	1.743947e+01	1.953363e+02
2.160000e-06	2.366330e-06	2.928521e-09	1.699337e+01	1.933845e+02
2.170000e-06	2.303068e-06	2.884118e-09	1.653907e+01	1.913709e+02
2.180000e-06	2.238944e-06	2.864396e-09	1.607857e+01	1.892940e+02
2.190000e-06	2.174160e-06	2.835789e-09	1.561334e+01	1.871510e+02
2.200000e-06	2.108579e-06	2.787567e-09	1.514238e+01	1.849385e+02
2.210000e-06	2.042237e-06	2.744751e-09	1.466596e+01	1.826522e+02
2.220000e-06	1.975247e-06	2.725336e-09	1.418488e+01	1.802873e+02
2.230000e-06	1.907567e-06	2.707651e-09	1.369885e+01	1.778388e+02
2.240000e-06	1.839292e-06	2.638428e-09	1.320854e+01	1.753013e+02
2.250000e-06	1.770468e-06	2.589178e-09	1.271430e+01	1.726697e+02
2.260000e-06	1.700999e-06	2.572286e-09	1.221541e+01	1.699387e+02
2.270000e-06	1.630620e-06	2.532584e-09	1.171000e+01	1.671032e+02
2.280000e-06	1.559312e-06	2.471894e-09	1.119791e+01	1.641582e+02
2.290000e-06	1.487439e-06	2.421084e-09	1.068177e+01	1.610982e+02
2.300000e-06	1.415212e-06	2.385900e-09	1.016309e+01	1.579179e+02
2.310000e-06	1.342658e-06	2.331771e-09	9.642052e+00	1.546112e+02
2.320000e-06	1.269715e-06	2.274467e-09	9.118226e+00	1.511715e+02
2.330000e-06	1.196260e-06	2.226574e-09	8.590723e+00	1.475913e+02
2.340000e-06	1.122308e-06	2.169028e-09	8.059648e+00	1.438625e+02
2.350000e-06	1.048009e-06	2.106475e-09	7.526090e+00	1.399759e+02
2.360000e-06	9.733680e-07	2.048251e-09	6.990066e+00	1.359216e+02
2.370000e-06	8.983126e-07	1.989538e-09	6.451069e+00	1.316889e+02
2.380000e-06	8.229765e-07	1.916813e-09	5.910057e+00	1.272666e+02
2.390000e-06	7.474124e-07	1.843053e-09	5.367407e+00	1.226427e+02
2.400000e-06	6.715721e-07	1.774970e-09	4.822774e+00	1.178054e+02
2.410000e-06	5.954858e-07	1.697125e-09	4.276374e+00	1.127425e+02
2.420000e-06	5.191805e-07	1.612560e-09	3.728401e+00	1.074423e+02
2.430000e-06	4.427092e-07	1.531061e-09	3.179236e+00	1.018933e+02
2.440000e-06	3.660815e-07	1.447027e-09	2.628948e+00	9.608533e+01
2.450000e-06	2.893319e-07	1.349270e-09	2.077785e+00	9.000916e+01
2.460000e-06	2.124562e-07	1.246742e-09	1.525716e+00	8.365755e+01
2.470000e-06	1.354110e-07	1.151936e-09	9.724292e-01	7.702559e+01
2.480000e-06	5.828462e-08	1.052834e-09	4.185605e-01	7.011128e+01
2.490000e-06	-1.885525e-08	9.389578e-10	-1.354055e-01	6.291613e+01
2.500000e-06	-9.597480e-08	8.216205e-10	-6.892257e-01	5.544577e+01
2.510000e-06	-1.730184e-07	7.089033e-10	-1.242501e+00	4.771045e+01
2.520000e-06	-2.499679e-07	5.915737e-10	-1.795099e+00	3.972538e+01
2.530000e-06	-3.267672e-07	4.627079e-10	-2.346620e+00	3.151104e+01
2.540000e-06	-4.033619e-07	3.288435e-10	-2.896670e+00	2.309313e+01
2.550000e-06	-4.797738e-07	1.964252e-10	-3.445408e+00	1.450241e+01
2.560000e-06	-5.560024e-07	6.621338e-11	-3.992831e+00	5.774257e+00
2.570000e-06	-6.319742e-07	-6.622172e-11	-4.538409e+00	-3.052085e+00
2.580000e-06	-7.076799e-07	-2.025555e-10	-5.082075e+00	-1.193435e+01
2.590000e-06	-7.830882e-07	-3.417719e-10	-5.623606e+00	-2.082837e+01
2.600000e-06	-8.581791e-07	-4.773251e-10	-6.162858e+00	-2.968924e+01
2.610000e-06	-9.330066e-07	-6.037700e-10	-6.700218e+00	-3.847260e+01
2.620000e-06	-1.007529e-06	-7.305621e-10	-7.235390e+00	-4.713580e+01
2.630000e-06	-1.081704e-06	-8.635554e-10	-7.768064e+00	-5.563912e+01
2.640000e-06	-1.155529e-06	-9.928178e-10	-8.298224e+00	-6.394670e+01
2.650000e-06	-1.228903e-06	-1.110570e-09	-8.825147e+00	-7.202737e+01
2.660000e-06	-1.301792e-06	-1.225930e-09	-9.348587e+00	-7.985520e+01
2.670000e-06	-1.374319e-06	-1.345349e-09	-9.869421e+00	-8.740984e+01
2.680000e-06	-1.446566e-06	-1.460380e-09	-1.038825e+01	-9.467662e+01
2.690000e-06	-1.518451e-06	-1.566654e-09	-1.090448e+01	-1.016464e+02
2.700000e-06	-1.589720e-06	-1.666095e-09	-1.141629e+01	-1.083152e+02
2.710000e-06	-1.660141e-06	-1.761394e-09	-1.192200e+01	-1.146837e+02
2.720000e-06	-1.729672e-06	-1.855226e-09	-1.242132e+01	-1.207568e+02
2.730000e-06	-1.798452e-06	-1.944789e-09	-1.291526e+01	-1.265426e+02
2.740000e-06	-1.866689e-06	-2.027746e-09	-1.340529e+01	-1.320517e+02
2.750000e-06	-1.934413e-06	-2.105234e-09	-1.389163e+01	-1.372968e+02
2.760000e-06	-2.001515e-06	-2.181802e-09	-1.437352e+01	-1.422915e+02
2.770000e-06	-2.067968e-06	-2.258328e-09	-1.485074e+01	-1.470497e+02
2.780000e-06	-2.133733e-06	-2.330861e-09	-1.532302e+01	-1.515854e+02
2.790000e-06	-2.198737e-06	-2.397145e-09	-1.578983e+01	-1.559116e+02
2.800000e-06	-2.263112e-06	-2.458968e-09	-1.625213e+01	-1.600404e+02
2.810000e-06	-2.326773e-06	-2.520462e-09	-1.670930e+01	-1.639825e+02
2.820000e-06	-2.389348e-06	-2.581819e-09	-1.715867e+01	-1.677470e+02
2.830000e-06	-2.450780e-06	-2.639055e-09	-1.759983e+01	-1.713415e+02
2.840000e-06	-2.511328e-06	-2.691146e-09	-1.803465e+01	-1.747723e+02
2.850000e-06	-2.571157e-06	-2.741048e-09	-1.846430e+01	-1.780444e+02
2.860000e-06	-2.630190e-06	-2.790010e-09	-1.888824e+01	-1.811619e+02
2.870000e-06	-2.688266e-06	-2.838425e-09	-1.930530e+01	-1.841284e+02
2.880000e-06	-2.745365e-06	-2.884106e-09	-1.971534e+01	-1.869471e+02
2.890000e-06	-2.801671e-06	-2.924919e-09	-2.011969e+01	-1.896215e+02
2.900000e-06	-2.856973e-06	-2.963452e-09	-2.051684e+01	-1.921555e+02
2.910000e-06	-2.910894e-06	-3.003973e-09	-2.090406e+01	-1.945534e+02
2.920000e-06	-2.963500e-06	-3.042256e-09	-2.128184e+01	-1.968206e+02
2.930000e-06	-3.014936e-06	-3.073594e-09	-2.165122e+01	-1.989628e+02
2.940000e-06	-3.065195e-06	-3.102362e-09	-2.201214e+01	-2.009868e+02
