# Temperatura_=_20.0
# Concentracion g/m^3_=_9000.0
# C_Vs_to_Am_M_A/Vsm_=_65563218390.804596
# pendiente_HvsI_1/m_=_3716.3
# ordenada_HvsI_A/m_=_1297.0
# frecuencia_Hz_=_300783.3104689102

Tiempo_(s)	Campo_(V.s)	Magnetizacion_(V.s)	Campo_(kA/m)	Magnetizacion_(A/m)
0.000000e+00	-4.048598e-06	-3.539364e-09	-2.906534e+01	-2.342207e+02
1.000000e-08	-4.046706e-06	-3.542678e-09	-2.905175e+01	-2.341662e+02
2.000000e-08	-4.043334e-06	-3.541936e-09	-2.902754e+01	-2.340786e+02
3.000000e-08	-4.038812e-06	-3.539757e-09	-2.899508e+01	-2.339640e+02
4.000000e-08	-4.033078e-06	-3.537894e-09	-2.895392e+01	-2.338286e+02
5.000000e-08	-4.026129e-06	-3.535608e-09	-2.890403e+01	-2.336783e+02
6.000000e-08	-4.017918e-06	-3.529164e-09	-2.884508e+01	-2.335182e+02
7.000000e-08	-4.008142e-06	-3.516545e-09	-2.877490e+01	-2.333512e+02
8.000000e-08	-3.996673e-06	-3.536332e-09	-2.869256e+01	-2.331783e+02
9.000000e-08	-3.983351e-06	-3.568204e-09	-2.859692e+01	-2.329977e+02
1.000000e-07	-3.967833e-06	-3.573895e-09	-2.848552e+01	-2.328052e+02
1.100000e-07	-3.950573e-06	-3.529505e-09	-2.836160e+01	-2.325945e+02
1.200000e-07	-3.932264e-06	-3.434505e-09	-2.823016e+01	-2.323576e+02
1.300000e-07	-3.913093e-06	-3.470876e-09	-2.809253e+01	-2.320856e+02
1.400000e-07	-3.892961e-06	-3.557449e-09	-2.794800e+01	-2.317699e+02
1.500000e-07	-3.871774e-06	-3.489761e-09	-2.779589e+01	-2.314026e+02
1.600000e-07	-3.849491e-06	-3.475660e-09	-2.763592e+01	-2.309779e+02
1.700000e-07	-3.825551e-06	-3.463944e-09	-2.746406e+01	-2.304919e+02
1.800000e-07	-3.799831e-06	-3.380987e-09	-2.727941e+01	-2.299438e+02
1.900000e-07	-3.772955e-06	-3.472209e-09	-2.708647e+01	-2.293351e+02
2.000000e-07	-3.744963e-06	-3.542860e-09	-2.688551e+01	-2.286697e+02
2.100000e-07	-3.715556e-06	-3.423744e-09	-2.667439e+01	-2.279533e+02
2.200000e-07	-3.684922e-06	-3.410579e-09	-2.645446e+01	-2.271926e+02
2.300000e-07	-3.653241e-06	-3.492555e-09	-2.622703e+01	-2.263946e+02
2.400000e-07	-3.620203e-06	-3.501961e-09	-2.598984e+01	-2.255654e+02
2.500000e-07	-3.585584e-06	-3.500361e-09	-2.574130e+01	-2.247102e+02
2.600000e-07	-3.549605e-06	-3.421060e-09	-2.548301e+01	-2.238321e+02
2.700000e-07	-3.512482e-06	-3.371041e-09	-2.521650e+01	-2.229325e+02
2.800000e-07	-3.474211e-06	-3.442464e-09	-2.494174e+01	-2.220107e+02
2.900000e-07	-3.434830e-06	-3.451996e-09	-2.465902e+01	-2.210646e+02
3.000000e-07	-3.394232e-06	-3.394883e-09	-2.436757e+01	-2.200907e+02
3.100000e-07	-3.352088e-06	-3.345719e-09	-2.406501e+01	-2.190849e+02
3.200000e-07	-3.308578e-06	-3.314449e-09	-2.375265e+01	-2.180433e+02
3.300000e-07	-3.264017e-06	-3.360416e-09	-2.343274e+01	-2.169624e+02
3.400000e-07	-3.218303e-06	-3.394319e-09	-2.310455e+01	-2.158393e+02
3.500000e-07	-3.171384e-06	-3.291032e-09	-2.276772e+01	-2.146724e+02
3.600000e-07	-3.123351e-06	-3.218305e-09	-2.242288e+01	-2.134611e+02
3.700000e-07	-3.074053e-06	-3.283757e-09	-2.206897e+01	-2.122056e+02
3.800000e-07	-3.023163e-06	-3.310368e-09	-2.170362e+01	-2.109065e+02
3.900000e-07	-2.970797e-06	-3.221349e-09	-2.132768e+01	-2.095645e+02
4.000000e-07	-2.917425e-06	-3.176353e-09	-2.094452e+01	-2.081801e+02
4.100000e-07	-2.863167e-06	-3.187606e-09	-2.055499e+01	-2.067529e+02
4.200000e-07	-2.808033e-06	-3.180088e-09	-2.015918e+01	-2.052816e+02
4.300000e-07	-2.751989e-06	-3.161724e-09	-1.975683e+01	-2.037639e+02
4.400000e-07	-2.694674e-06	-3.119460e-09	-1.934536e+01	-2.021967e+02
4.500000e-07	-2.636093e-06	-3.073673e-09	-1.892480e+01	-2.005760e+02
4.600000e-07	-2.576667e-06	-3.056584e-09	-1.849818e+01	-1.988977e+02
4.700000e-07	-2.516480e-06	-3.063032e-09	-1.806609e+01	-1.971575e+02
4.800000e-07	-2.455421e-06	-3.029920e-09	-1.762774e+01	-1.953515e+02
4.900000e-07	-2.393494e-06	-2.963889e-09	-1.718316e+01	-1.934767e+02
5.000000e-07	-2.330723e-06	-2.937605e-09	-1.673252e+01	-1.915305e+02
5.100000e-07	-2.267274e-06	-2.944177e-09	-1.627701e+01	-1.895115e+02
5.200000e-07	-2.203074e-06	-2.910746e-09	-1.581611e+01	-1.874185e+02
5.300000e-07	-2.137740e-06	-2.841431e-09	-1.534708e+01	-1.852510e+02
5.400000e-07	-2.071304e-06	-2.810905e-09	-1.487012e+01	-1.830081e+02
5.500000e-07	-2.004214e-06	-2.809367e-09	-1.438847e+01	-1.806886e+02
5.600000e-07	-1.936683e-06	-2.772762e-09	-1.390366e+01	-1.782905e+02
5.700000e-07	-1.868587e-06	-2.706843e-09	-1.341479e+01	-1.758103e+02
5.800000e-07	-1.799839e-06	-2.667356e-09	-1.292124e+01	-1.732437e+02
5.900000e-07	-1.730534e-06	-2.643455e-09	-1.242369e+01	-1.705846e+02
6.000000e-07	-1.660641e-06	-2.605832e-09	-1.192193e+01	-1.678260e+02
6.100000e-07	-1.590039e-06	-2.552417e-09	-1.141507e+01	-1.649599e+02
6.200000e-07	-1.518909e-06	-2.497882e-09	-1.090442e+01	-1.619779e+02
6.300000e-07	-1.447457e-06	-2.454391e-09	-1.039146e+01	-1.588713e+02
6.400000e-07	-1.375677e-06	-2.416254e-09	-9.876135e+00	-1.556315e+02
6.500000e-07	-1.303389e-06	-2.369035e-09	-9.357176e+00	-1.522504e+02
6.600000e-07	-1.230285e-06	-2.300895e-09	-8.832351e+00	-1.487203e+02
6.700000e-07	-1.156415e-06	-2.236635e-09	-8.302031e+00	-1.450338e+02
6.800000e-07	-1.082036e-06	-2.192537e-09	-7.768056e+00	-1.411840e+02
6.900000e-07	-1.007159e-06	-2.144197e-09	-7.230510e+00	-1.371636e+02
7.000000e-07	-9.318225e-07	-2.065562e-09	-6.689657e+00	-1.329652e+02
7.100000e-07	-8.561914e-07	-1.982718e-09	-6.146693e+00	-1.285804e+02
7.200000e-07	-7.803919e-07	-1.925667e-09	-5.602520e+00	-1.239999e+02
7.300000e-07	-7.043729e-07	-1.867963e-09	-5.056772e+00	-1.192133e+02
7.400000e-07	-6.280448e-07	-1.782830e-09	-4.508803e+00	-1.142091e+02
7.500000e-07	-5.513871e-07	-1.687092e-09	-3.958470e+00	-1.089749e+02
7.600000e-07	-4.745628e-07	-1.606279e-09	-3.406939e+00	-1.034981e+02
7.700000e-07	-3.976680e-07	-1.528484e-09	-2.854903e+00	-9.776628e+01
7.800000e-07	-3.206061e-07	-1.434183e-09	-2.301667e+00	-9.176807e+01
7.900000e-07	-2.433831e-07	-1.327489e-09	-1.747274e+00	-8.549390e+01
8.000000e-07	-1.660677e-07	-1.224474e-09	-1.192219e+00	-7.893685e+01
8.100000e-07	-8.869320e-08	-1.125022e-09	-6.367383e-01	-7.209337e+01
8.200000e-07	-1.129236e-08	-1.020286e-09	-8.106908e-02	-6.496392e+01
8.300000e-07	6.608269e-08	-9.060950e-10	4.744149e-01	-5.755341e+01
8.400000e-07	1.434138e-07	-7.823702e-10	1.029584e+00	-4.987152e+01
8.500000e-07	2.206897e-07	-6.627270e-10	1.584356e+00	-4.193280e+01
8.600000e-07	2.978804e-07	-5.474806e-10	2.138516e+00	-3.375662e+01
8.700000e-07	3.749722e-07	-4.190068e-10	2.691967e+00	-2.536699e+01
8.800000e-07	4.519091e-07	-2.762614e-10	3.244306e+00	-1.679224e+01
8.900000e-07	5.286681e-07	-1.397306e-10	3.795367e+00	-8.064620e+00
9.000000e-07	6.052684e-07	-1.226217e-11	4.345289e+00	7.801713e-01
9.100000e-07	6.816183e-07	1.231572e-10	4.893413e+00	9.703532e+00
9.200000e-07	7.576900e-07	2.685205e-10	5.439541e+00	1.866458e+01
9.300000e-07	8.334895e-07	4.089862e-10	5.983714e+00	2.762083e+01
9.400000e-07	9.090160e-07	5.374202e-10	6.525927e+00	3.652900e+01
9.500000e-07	9.842560e-07	6.674742e-10	7.066083e+00	4.534584e+01
9.600000e-07	1.059188e-06	8.051026e-10	7.604028e+00	5.402909e+01
9.700000e-07	1.133644e-06	9.415402e-10	8.138559e+00	6.253853e+01
9.800000e-07	1.207473e-06	1.068258e-09	8.668580e+00	7.083695e+01
9.900000e-07	1.280610e-06	1.189351e-09	9.193638e+00	7.889120e+01
1.000000e-06	1.353036e-06	1.311195e-09	9.713599e+00	8.667309e+01
1.010000e-06	1.424920e-06	1.430261e-09	1.022966e+01	9.416016e+01
1.020000e-06	1.496374e-06	1.540460e-09	1.074264e+01	1.013362e+02
1.030000e-06	1.567407e-06	1.639896e-09	1.125259e+01	1.081915e+02
1.040000e-06	1.638002e-06	1.737051e-09	1.175940e+01	1.147227e+02
1.050000e-06	1.708069e-06	1.834128e-09	1.226242e+01	1.209325e+02
1.060000e-06	1.777477e-06	1.926691e-09	1.276070e+01	1.268290e+02
1.070000e-06	1.846234e-06	2.009644e-09	1.325432e+01	1.324245e+02
1.080000e-06	1.914387e-06	2.086432e-09	1.374359e+01	1.377345e+02
1.090000e-06	1.981987e-06	2.163787e-09	1.422891e+01	1.427766e+02
1.100000e-06	2.049062e-06	2.238257e-09	1.471044e+01	1.475690e+02
1.110000e-06	2.115310e-06	2.307062e-09	1.518605e+01	1.521296e+02
1.120000e-06	2.180502e-06	2.368233e-09	1.565407e+01	1.564751e+02
1.130000e-06	2.244731e-06	2.430068e-09	1.611517e+01	1.606204e+02
1.140000e-06	2.308224e-06	2.493987e-09	1.657100e+01	1.645780e+02
1.150000e-06	2.371074e-06	2.552412e-09	1.702221e+01	1.683584e+02
1.160000e-06	2.433161e-06	2.602702e-09	1.746793e+01	1.719696e+02
1.170000e-06	2.494461e-06	2.650910e-09	1.790802e+01	1.754181e+02
1.180000e-06	2.554954e-06	2.700739e-09	1.834230e+01	1.787092e+02
1.190000e-06	2.614683e-06	2.747537e-09	1.877110e+01	1.818473e+02
1.200000e-06	2.673625e-06	2.791242e-09	1.919425e+01	1.848365e+02
1.210000e-06	2.731469e-06	2.832294e-09	1.960952e+01	1.876812e+02
1.220000e-06	2.788048e-06	2.871354e-09	2.001571e+01	1.903859e+02
1.230000e-06	2.843535e-06	2.908711e-09	2.041405e+01	1.929558e+02
1.240000e-06	2.898090e-06	2.945233e-09	2.080571e+01	1.953964e+02
1.250000e-06	2.951730e-06	2.978891e-09	2.119080e+01	1.977136e+02
1.260000e-06	3.004359e-06	3.009398e-09	2.156863e+01	1.999133e+02
1.270000e-06	3.055838e-06	3.039710e-09	2.193820e+01	2.020015e+02
1.280000e-06	3.105926e-06	3.070646e-09	2.229779e+01	2.039837e+02
1.290000e-06	3.154522e-06	3.099817e-09	2.264667e+01	2.058653e+02
1.300000e-06	3.201888e-06	3.126216e-09	2.298671e+01	2.076515e+02
1.310000e-06	3.248204e-06	3.151163e-09	2.331922e+01	2.093469e+02
1.320000e-06	3.293450e-06	3.174991e-09	2.364405e+01	2.109563e+02
1.330000e-06	3.337634e-06	3.198429e-09	2.396124e+01	2.124843e+02
1.340000e-06	3.380830e-06	3.220331e-09	2.427135e+01	2.139360e+02
1.350000e-06	3.422744e-06	3.240538e-09	2.457226e+01	2.153164e+02
1.360000e-06	3.463150e-06	3.261089e-09	2.486234e+01	2.166311e+02
1.370000e-06	3.502321e-06	3.281302e-09	2.514355e+01	2.178854e+02
1.380000e-06	3.540348e-06	3.299061e-09	2.541655e+01	2.190849e+02
1.390000e-06	3.577191e-06	3.316670e-09	2.568105e+01	2.202346e+02
1.400000e-06	3.612974e-06	3.334988e-09	2.593794e+01	2.213392e+02
1.410000e-06	3.647530e-06	3.351842e-09	2.618602e+01	2.224020e+02
1.420000e-06	3.680541e-06	3.367653e-09	2.642301e+01	2.234256e+02
1.430000e-06	3.712133e-06	3.382488e-09	2.664982e+01	2.244109e+02
1.440000e-06	3.742548e-06	3.396157e-09	2.686817e+01	2.253580e+02
1.450000e-06	3.771760e-06	3.409798e-09	2.707788e+01	2.262655e+02
1.460000e-06	3.799780e-06	3.424296e-09	2.727904e+01	2.271316e+02
1.470000e-06	3.826503e-06	3.438902e-09	2.747089e+01	2.279538e+02
1.480000e-06	3.851610e-06	3.452911e-09	2.765114e+01	2.287298e+02
1.490000e-06	3.875188e-06	3.465858e-09	2.782041e+01	2.294575e+02
1.500000e-06	3.897464e-06	3.477714e-09	2.798033e+01	2.301359e+02
1.510000e-06	3.918454e-06	3.488077e-09	2.813102e+01	2.307646e+02
1.520000e-06	3.938279e-06	3.497446e-09	2.827334e+01	2.313442e+02
1.530000e-06	3.956889e-06	3.507184e-09	2.840694e+01	2.318763e+02
1.540000e-06	3.974027e-06	3.516118e-09	2.852998e+01	2.323632e+02
1.550000e-06	3.989638e-06	3.522929e-09	2.864206e+01	2.328071e+02
1.560000e-06	4.003777e-06	3.529583e-09	2.874356e+01	2.332102e+02
1.570000e-06	4.016447e-06	3.537195e-09	2.883452e+01	2.335744e+02
1.580000e-06	4.027551e-06	3.543473e-09	2.891423e+01	2.339004e+02
1.590000e-06	4.036948e-06	3.548338e-09	2.898170e+01	2.341884e+02
1.600000e-06	4.044719e-06	3.553936e-09	2.903749e+01	2.344375e+02
1.610000e-06	4.051099e-06	3.558597e-09	2.908329e+01	2.346462e+02
1.620000e-06	4.056151e-06	3.561663e-09	2.911956e+01	2.348128e+02
1.630000e-06	4.059959e-06	3.564492e-09	2.914689e+01	2.349357e+02
1.640000e-06	4.062341e-06	3.567724e-09	2.916400e+01	2.350143e+02
1.650000e-06	4.063073e-06	3.570032e-09	2.916925e+01	2.350488e+02
1.660000e-06	4.062391e-06	3.570701e-09	2.916435e+01	2.350409e+02
1.670000e-06	4.060452e-06	3.570562e-09	2.915043e+01	2.349941e+02
1.680000e-06	4.057263e-06	3.569257e-09	2.912754e+01	2.349131e+02
1.690000e-06	4.052918e-06	3.567354e-09	2.909635e+01	2.348036e+02
1.700000e-06	4.047295e-06	3.565437e-09	2.905598e+01	2.346720e+02
1.710000e-06	4.040148e-06	3.564338e-09	2.900467e+01	2.345244e+02
1.720000e-06	4.031674e-06	3.568134e-09	2.894383e+01	2.343660e+02
1.730000e-06	4.022080e-06	3.573112e-09	2.887496e+01	2.342002e+02
1.740000e-06	4.011231e-06	3.524915e-09	2.879707e+01	2.340285e+02
1.750000e-06	3.998515e-06	3.490978e-09	2.870578e+01	2.338497e+02
1.760000e-06	3.983325e-06	3.485337e-09	2.859674e+01	2.336602e+02
1.770000e-06	3.966103e-06	3.566608e-09	2.847310e+01	2.334539e+02
1.780000e-06	3.948015e-06	3.621788e-09	2.834324e+01	2.332233e+02
1.790000e-06	3.929639e-06	3.512986e-09	2.821131e+01	2.329594e+02
1.800000e-06	3.910079e-06	3.515814e-09	2.807089e+01	2.326537e+02
1.810000e-06	3.888462e-06	3.573153e-09	2.791570e+01	2.322979e+02
1.820000e-06	3.865602e-06	3.513716e-09	2.775159e+01	2.318858e+02
1.830000e-06	3.841822e-06	3.573665e-09	2.758087e+01	2.314130e+02
1.840000e-06	3.816317e-06	3.621495e-09	2.739777e+01	2.308781e+02
1.850000e-06	3.789356e-06	3.469326e-09	2.720421e+01	2.302820e+02
1.860000e-06	3.761437e-06	3.491876e-09	2.700377e+01	2.296282e+02
1.870000e-06	3.732235e-06	3.583787e-09	2.679413e+01	2.289221e+02
1.880000e-06	3.701441e-06	3.466107e-09	2.657306e+01	2.281703e+02
1.890000e-06	3.669093e-06	3.432776e-09	2.634082e+01	2.273796e+02
1.900000e-06	3.635489e-06	3.467749e-09	2.609958e+01	2.265565e+02
1.910000e-06	3.600869e-06	3.425985e-09	2.585104e+01	2.257064e+02
1.920000e-06	3.565069e-06	3.494814e-09	2.559402e+01	2.248329e+02
1.930000e-06	3.528122e-06	3.468143e-09	2.532878e+01	2.239378e+02
1.940000e-06	3.490026e-06	3.371130e-09	2.505528e+01	2.230208e+02
1.950000e-06	3.450279e-06	3.386893e-09	2.476994e+01	2.220801e+02
1.960000e-06	3.409049e-06	3.379588e-09	2.447394e+01	2.211123e+02
1.970000e-06	3.366903e-06	3.430658e-09	2.417137e+01	2.201137e+02
1.980000e-06	3.323693e-06	3.398729e-09	2.386116e+01	2.190800e+02
1.990000e-06	3.279358e-06	3.259090e-09	2.354288e+01	2.180076e+02
2.000000e-06	3.234021e-06	3.307633e-09	2.321739e+01	2.168936e+02
2.010000e-06	3.187476e-06	3.378298e-09	2.288324e+01	2.157362e+02
2.020000e-06	3.139588e-06	3.308942e-09	2.253945e+01	2.145343e+02
2.030000e-06	3.090407e-06	3.228789e-09	2.218637e+01	2.132881e+02
2.040000e-06	3.040221e-06	3.223813e-09	2.182608e+01	2.119982e+02
2.050000e-06	2.989039e-06	3.270147e-09	2.145864e+01	2.106653e+02
2.060000e-06	2.936692e-06	3.227711e-09	2.108284e+01	2.092898e+02
2.070000e-06	2.882998e-06	3.179153e-09	2.069737e+01	2.078718e+02
2.080000e-06	2.827827e-06	3.164666e-09	2.030128e+01	2.064099e+02
2.090000e-06	2.771563e-06	3.126716e-09	1.989736e+01	2.049024e+02
2.100000e-06	2.714350e-06	3.136487e-09	1.948662e+01	2.033460e+02
2.110000e-06	2.656300e-06	3.118168e-09	1.906987e+01	2.017370e+02
2.120000e-06	2.597495e-06	3.073677e-09	1.864770e+01	2.000713e+02
2.130000e-06	2.537806e-06	3.028627e-09	1.821919e+01	1.983446e+02
2.140000e-06	2.477385e-06	3.009105e-09	1.778542e+01	1.965529e+02
2.150000e-06	2.416084e-06	3.024526e-09	1.734533e+01	1.946930e+02
2.160000e-06	2.353541e-06	2.962418e-09	1.689633e+01	1.927622e+02
2.170000e-06	2.289890e-06	2.900871e-09	1.643938e+01	1.907588e+02
2.180000e-06	2.225581e-06	2.896957e-09	1.597769e+01	1.886816e+02
2.190000e-06	2.160686e-06	2.885449e-09	1.551181e+01	1.865300e+02
2.200000e-06	2.094969e-06	2.834217e-09	1.504002e+01	1.843032e+02
2.210000e-06	2.028462e-06	2.776744e-09	1.456255e+01	1.820002e+02
2.220000e-06	1.961293e-06	2.768056e-09	1.408034e+01	1.796191e+02
2.230000e-06	1.893507e-06	2.743124e-09	1.359370e+01	1.771567e+02
2.240000e-06	1.825219e-06	2.682552e-09	1.310345e+01	1.746090e+02
2.250000e-06	1.756363e-06	2.639273e-09	1.260913e+01	1.719701e+02
2.260000e-06	1.686745e-06	2.603524e-09	1.210933e+01	1.692334e+02
2.270000e-06	1.616163e-06	2.564403e-09	1.160261e+01	1.663910e+02
2.280000e-06	1.544655e-06	2.518443e-09	1.108925e+01	1.634344e+02
2.290000e-06	1.472613e-06	2.468784e-09	1.057205e+01	1.603551e+02
2.300000e-06	1.400305e-06	2.415009e-09	1.005294e+01	1.571445e+02
2.310000e-06	1.327685e-06	2.364400e-09	9.531598e+00	1.537942e+02
2.320000e-06	1.254615e-06	2.325864e-09	9.007018e+00	1.502966e+02
2.330000e-06	1.181072e-06	2.266953e-09	8.479050e+00	1.466441e+02
2.340000e-06	1.107050e-06	2.191345e-09	7.947635e+00	1.428298e+02
2.350000e-06	1.032621e-06	2.131617e-09	7.413302e+00	1.388465e+02
2.360000e-06	9.578553e-07	2.088108e-09	6.876549e+00	1.346868e+02
2.370000e-06	8.827165e-07	2.024857e-09	6.337120e+00	1.303426e+02
2.380000e-06	8.073106e-07	1.935841e-09	5.795773e+00	1.258048e+02
2.390000e-06	7.316272e-07	1.863941e-09	5.252433e+00	1.210632e+02
2.400000e-06	6.556406e-07	1.803967e-09	4.706917e+00	1.161065e+02
2.410000e-06	5.794245e-07	1.728450e-09	4.159753e+00	1.109226e+02
2.420000e-06	5.030085e-07	1.637287e-09	3.611154e+00	1.054987e+02
2.430000e-06	4.264928e-07	1.547213e-09	3.061839e+00	9.982246e+01
2.440000e-06	3.498629e-07	1.462610e-09	2.511705e+00	9.388212e+01
2.450000e-06	2.731281e-07	1.370657e-09	1.960817e+00	8.766767e+01
2.460000e-06	1.962717e-07	1.270309e-09	1.409056e+00	8.117157e+01
2.470000e-06	1.192170e-07	1.162814e-09	8.558717e-01	7.438947e+01
2.480000e-06	4.200883e-08	1.053172e-09	3.015861e-01	6.732095e+01
2.490000e-06	-3.512794e-08	9.469389e-10	-2.521874e-01	5.996992e+01
2.500000e-06	-1.121541e-07	8.374578e-10	-8.051667e-01	5.234502e+01
2.510000e-06	-1.891853e-07	7.149094e-10	-1.358182e+00	4.445977e+01
2.520000e-06	-2.660680e-07	5.861473e-10	-1.910132e+00	3.633252e+01
2.530000e-06	-3.427062e-07	4.624638e-10	-2.460326e+00	2.798629e+01
2.540000e-06	-4.191656e-07	3.368856e-10	-3.009237e+00	1.944852e+01
2.550000e-06	-4.954873e-07	1.989175e-10	-3.557158e+00	1.075066e+01
2.560000e-06	-5.716326e-07	5.631009e-11	-4.103814e+00	1.927721e+00
2.570000e-06	-6.475623e-07	-7.814153e-11	-4.648922e+00	-6.982275e+00
2.580000e-06	-7.232137e-07	-2.097139e-10	-5.192031e+00	-1.593888e+01
2.590000e-06	-7.986129e-07	-3.478362e-10	-5.733330e+00	-2.489988e+01
2.600000e-06	-8.737686e-07	-4.873613e-10	-6.272882e+00	-3.382211e+01
2.610000e-06	-9.485681e-07	-6.185901e-10	-6.809876e+00	-4.266222e+01
2.620000e-06	-1.023054e-06	-7.450769e-10	-7.344618e+00	-5.137767e+01
2.630000e-06	-1.097208e-06	-8.736233e-10	-7.876977e+00	-5.992771e+01
2.640000e-06	-1.170916e-06	-1.002076e-09	-8.406135e+00	-6.827438e+01
2.650000e-06	-1.244203e-06	-1.126149e-09	-8.932275e+00	-7.638361e+01
2.660000e-06	-1.317069e-06	-1.244217e-09	-9.455388e+00	-8.422605e+01
2.670000e-06	-1.389529e-06	-1.357545e-09	-9.975584e+00	-9.177798e+01
2.680000e-06	-1.461693e-06	-1.468270e-09	-1.049366e+01	-9.902180e+01
2.690000e-06	-1.533450e-06	-1.576923e-09	-1.100881e+01	-1.059464e+02
2.700000e-06	-1.604537e-06	-1.678081e-09	-1.151915e+01	-1.125471e+02
2.710000e-06	-1.674844e-06	-1.770281e-09	-1.202389e+01	-1.188254e+02
2.720000e-06	-1.744322e-06	-1.859102e-09	-1.252268e+01	-1.247883e+02
2.730000e-06	-1.813075e-06	-1.947755e-09	-1.301627e+01	-1.304471e+02
2.740000e-06	-1.881295e-06	-2.032665e-09	-1.350602e+01	-1.358170e+02
2.750000e-06	-1.948963e-06	-2.108869e-09	-1.399182e+01	-1.409151e+02
2.760000e-06	-2.015952e-06	-2.181246e-09	-1.447274e+01	-1.457595e+02
2.770000e-06	-2.082192e-06	-2.254584e-09	-1.494829e+01	-1.503684e+02
2.780000e-06	-2.147725e-06	-2.325907e-09	-1.541876e+01	-1.547588e+02
2.790000e-06	-2.212572e-06	-2.389874e-09	-1.588430e+01	-1.589459e+02
2.800000e-06	-2.276763e-06	-2.448218e-09	-1.634513e+01	-1.629430e+02
2.810000e-06	-2.340220e-06	-2.506173e-09	-1.680070e+01	-1.667606e+02
2.820000e-06	-2.402614e-06	-2.564674e-09	-1.724863e+01	-1.704076e+02
2.830000e-06	-2.463871e-06	-2.620678e-09	-1.768840e+01	-1.738906e+02
2.840000e-06	-2.524258e-06	-2.671707e-09	-1.812193e+01	-1.772151e+02
2.850000e-06	-2.583930e-06	-2.718651e-09	-1.855032e+01	-1.803857e+02
2.860000e-06	-2.642744e-06	-2.766232e-09	-1.897255e+01	-1.834066e+02
2.870000e-06	-2.700591e-06	-2.816033e-09	-1.938784e+01	-1.862819e+02
2.880000e-06	-2.757518e-06	-2.860736e-09	-1.979653e+01	-1.890163e+02
2.890000e-06	-2.813569e-06	-2.899794e-09	-2.019892e+01	-1.916148e+02
2.900000e-06	-2.868560e-06	-2.938745e-09	-2.059371e+01	-1.940827e+02
2.910000e-06	-2.922192e-06	-2.977265e-09	-2.097874e+01	-1.964260e+02
2.920000e-06	-2.974533e-06	-3.012172e-09	-2.135450e+01	-1.986505e+02
2.930000e-06	-3.025727e-06	-3.042961e-09	-2.172203e+01	-2.007621e+02
2.940000e-06	-3.075751e-06	-3.071028e-09	-2.208116e+01	-2.027667e+02
