# Temperatura_=_20.0
# Concentracion g/m^3_=_9000.0
# C_Vs_to_Am_M_A/Vsm_=_65563218390.804596
# pendiente_HvsI_1/m_=_3716.3
# ordenada_HvsI_A/m_=_1297.0
# frecuencia_Hz_=_300782.0401807155

Tiempo_(s)	Campo_(V.s)	Magnetizacion_(V.s)	Campo_(kA/m)	Magnetizacion_(A/m)
0.000000e+00	-4.062390e-06	-3.534657e-09	-2.906949e+01	-2.306823e+02
1.000000e-08	-4.060550e-06	-3.535450e-09	-2.905632e+01	-2.306859e+02
2.000000e-08	-4.057270e-06	-3.534310e-09	-2.903285e+01	-2.306714e+02
3.000000e-08	-4.052782e-06	-3.535089e-09	-2.900074e+01	-2.306372e+02
4.000000e-08	-4.047029e-06	-3.534740e-09	-2.895957e+01	-2.305810e+02
5.000000e-08	-4.040055e-06	-3.530236e-09	-2.890967e+01	-2.305002e+02
6.000000e-08	-4.031848e-06	-3.522847e-09	-2.885094e+01	-2.303927e+02
7.000000e-08	-4.022081e-06	-3.509944e-09	-2.878105e+01	-2.302569e+02
8.000000e-08	-4.010631e-06	-3.525129e-09	-2.869911e+01	-2.300926e+02
9.000000e-08	-3.997355e-06	-3.567756e-09	-2.860412e+01	-2.299013e+02
1.000000e-07	-3.981933e-06	-3.582526e-09	-2.849376e+01	-2.296856e+02
1.100000e-07	-3.964763e-06	-3.546622e-09	-2.837090e+01	-2.294500e+02
1.200000e-07	-3.946485e-06	-3.428686e-09	-2.824010e+01	-2.291999e+02
1.300000e-07	-3.927308e-06	-3.432175e-09	-2.810288e+01	-2.289410e+02
1.400000e-07	-3.907146e-06	-3.572083e-09	-2.795860e+01	-2.286791e+02
1.500000e-07	-3.885955e-06	-3.523298e-09	-2.780697e+01	-2.284188e+02
1.600000e-07	-3.863652e-06	-3.454233e-09	-2.764737e+01	-2.281627e+02
1.700000e-07	-3.839646e-06	-3.458537e-09	-2.747559e+01	-2.279114e+02
1.800000e-07	-3.813766e-06	-3.397501e-09	-2.729040e+01	-2.276622e+02
1.900000e-07	-3.786738e-06	-3.473012e-09	-2.709699e+01	-2.274096e+02
2.000000e-07	-3.758696e-06	-3.567061e-09	-2.689633e+01	-2.271454e+02
2.100000e-07	-3.729201e-06	-3.409402e-09	-2.668527e+01	-2.268586e+02
2.200000e-07	-3.698487e-06	-3.358648e-09	-2.646549e+01	-2.265371e+02
2.300000e-07	-3.666785e-06	-3.505505e-09	-2.623864e+01	-2.261676e+02
2.400000e-07	-3.633709e-06	-3.505000e-09	-2.600195e+01	-2.257376e+02
2.500000e-07	-3.599051e-06	-3.423839e-09	-2.575395e+01	-2.252358e+02
2.600000e-07	-3.562991e-06	-3.365184e-09	-2.549591e+01	-2.246533e+02
2.700000e-07	-3.525760e-06	-3.364169e-09	-2.522950e+01	-2.239844e+02
2.800000e-07	-3.487433e-06	-3.430067e-09	-2.495524e+01	-2.232268e+02
2.900000e-07	-3.447961e-06	-3.412774e-09	-2.467279e+01	-2.223818e+02
3.000000e-07	-3.407149e-06	-3.335503e-09	-2.438074e+01	-2.214540e+02
3.100000e-07	-3.364810e-06	-3.315442e-09	-2.407778e+01	-2.204505e+02
3.200000e-07	-3.321178e-06	-3.316938e-09	-2.376556e+01	-2.193806e+02
3.300000e-07	-3.276496e-06	-3.341534e-09	-2.344582e+01	-2.182539e+02
3.400000e-07	-3.230699e-06	-3.333078e-09	-2.311811e+01	-2.170801e+02
3.500000e-07	-3.183679e-06	-3.244526e-09	-2.278165e+01	-2.158676e+02
3.600000e-07	-3.135483e-06	-3.211172e-09	-2.243677e+01	-2.146226e+02
3.700000e-07	-3.086019e-06	-3.272884e-09	-2.208282e+01	-2.133489e+02
3.800000e-07	-3.035032e-06	-3.272373e-09	-2.171796e+01	-2.120473e+02
3.900000e-07	-2.982610e-06	-3.168270e-09	-2.134285e+01	-2.107160e+02
4.000000e-07	-2.929125e-06	-3.145246e-09	-2.096012e+01	-2.093507e+02
4.100000e-07	-2.874690e-06	-3.188012e-09	-2.057060e+01	-2.079454e+02
4.200000e-07	-2.819413e-06	-3.163960e-09	-2.017504e+01	-2.064931e+02
4.300000e-07	-2.763218e-06	-3.105499e-09	-1.977293e+01	-2.049864e+02
4.400000e-07	-2.705697e-06	-3.072912e-09	-1.936132e+01	-2.034187e+02
4.500000e-07	-2.646953e-06	-3.058947e-09	-1.894096e+01	-2.017843e+02
4.600000e-07	-2.587413e-06	-3.045064e-09	-1.851491e+01	-2.000791e+02
4.700000e-07	-2.527124e-06	-3.022634e-09	-1.808349e+01	-1.983009e+02
4.800000e-07	-2.465966e-06	-2.977624e-09	-1.764586e+01	-1.964488e+02
4.900000e-07	-2.403943e-06	-2.935081e-09	-1.720204e+01	-1.945236e+02
5.000000e-07	-2.341122e-06	-2.925799e-09	-1.675251e+01	-1.925265e+02
5.100000e-07	-2.277653e-06	-2.916338e-09	-1.629834e+01	-1.904595e+02
5.200000e-07	-2.213288e-06	-2.860164e-09	-1.583776e+01	-1.883240e+02
5.300000e-07	-2.147639e-06	-2.802217e-09	-1.536799e+01	-1.861205e+02
5.400000e-07	-2.080992e-06	-2.783568e-09	-1.489108e+01	-1.838485e+02
5.500000e-07	-2.013827e-06	-2.774626e-09	-1.441046e+01	-1.815058e+02
5.600000e-07	-1.946208e-06	-2.729119e-09	-1.392660e+01	-1.790888e+02
5.700000e-07	-1.877915e-06	-2.662855e-09	-1.343791e+01	-1.765925e+02
5.800000e-07	-1.808969e-06	-2.629561e-09	-1.294455e+01	-1.740106e+02
5.900000e-07	-1.739479e-06	-2.609962e-09	-1.244730e+01	-1.713362e+02
6.000000e-07	-1.669346e-06	-2.568028e-09	-1.194544e+01	-1.685619e+02
6.100000e-07	-1.598582e-06	-2.506183e-09	-1.143907e+01	-1.656804e+02
6.200000e-07	-1.527331e-06	-2.454148e-09	-1.092922e+01	-1.626847e+02
6.300000e-07	-1.455768e-06	-2.414425e-09	-1.041713e+01	-1.595684e+02
6.400000e-07	-1.383855e-06	-2.371624e-09	-9.902536e+00	-1.563255e+02
6.500000e-07	-1.311325e-06	-2.318804e-09	-9.383525e+00	-1.529505e+02
6.600000e-07	-1.237931e-06	-2.254777e-09	-8.858335e+00	-1.494380e+02
6.700000e-07	-1.163776e-06	-2.195473e-09	-8.327706e+00	-1.457826e+02
6.800000e-07	-1.089093e-06	-2.147030e-09	-7.793287e+00	-1.419783e+02
6.900000e-07	-1.013955e-06	-2.094041e-09	-7.255623e+00	-1.380179e+02
7.000000e-07	-9.384552e-07	-2.020418e-09	-6.715361e+00	-1.338935e+02
7.100000e-07	-8.627454e-07	-1.944577e-09	-6.173600e+00	-1.295952e+02
7.200000e-07	-7.868786e-07	-1.884079e-09	-5.630716e+00	-1.251120e+02
7.300000e-07	-7.106814e-07	-1.821279e-09	-5.085466e+00	-1.204313e+02
7.400000e-07	-6.341150e-07	-1.738516e-09	-4.537576e+00	-1.155397e+02
7.500000e-07	-5.572579e-07	-1.650826e-09	-3.987604e+00	-1.104230e+02
7.600000e-07	-4.802039e-07	-1.571087e-09	-3.436224e+00	-1.050668e+02
7.700000e-07	-4.030324e-07	-1.488338e-09	-2.884004e+00	-9.945752e+01
7.800000e-07	-3.257481e-07	-1.395654e-09	-2.330976e+00	-9.358278e+01
7.900000e-07	-2.483176e-07	-1.299085e-09	-1.776901e+00	-8.743217e+01
8.000000e-07	-1.707886e-07	-1.204822e-09	-1.222122e+00	-8.099800e+01
8.100000e-07	-9.326581e-08	-1.104984e-09	-6.673879e-01	-7.427587e+01
8.200000e-07	-1.571178e-08	-9.963546e-10	-1.124298e-01	-6.726523e+01
8.300000e-07	6.191112e-08	-8.833797e-10	4.430212e-01	-5.996981e+01
8.400000e-07	1.394997e-07	-7.684336e-10	9.982268e-01	-5.239794e+01
8.500000e-07	2.169876e-07	-6.516928e-10	1.552711e+00	-4.456279e+01
8.600000e-07	2.944300e-07	-5.304605e-10	2.106871e+00	-3.648243e+01
8.700000e-07	3.718031e-07	-4.000808e-10	2.660534e+00	-2.817981e+01
8.800000e-07	4.490327e-07	-2.652941e-10	3.213171e+00	-1.968260e+01
8.900000e-07	5.260910e-07	-1.357448e-10	3.764581e+00	-1.102286e+01
9.000000e-07	6.029264e-07	-6.574930e-12	4.314397e+00	-2.236617e+00
9.100000e-07	6.794891e-07	1.315766e-10	4.862262e+00	6.636728e+00
9.200000e-07	7.557834e-07	2.748493e-10	5.408205e+00	1.555515e+01
9.300000e-07	8.318047e-07	4.094650e-10	5.952196e+00	2.447485e+01
9.400000e-07	9.075467e-07	5.369963e-10	6.494187e+00	3.335127e+01
9.500000e-07	9.830365e-07	6.709538e-10	7.034374e+00	4.214015e+01
9.600000e-07	1.058279e-06	8.105508e-10	7.572793e+00	5.079865e+01
9.700000e-07	1.133180e-06	9.441058e-10	8.108766e+00	5.928647e+01
9.800000e-07	1.207553e-06	1.065706e-09	8.640958e+00	6.756692e+01
9.900000e-07	1.281150e-06	1.184935e-09	9.167602e+00	7.560783e+01
1.000000e-06	1.353948e-06	1.307969e-09	9.688531e+00	8.338239e+01
1.010000e-06	1.426107e-06	1.426908e-09	1.020488e+01	9.086964e+01
1.020000e-06	1.497752e-06	1.534183e-09	1.071755e+01	9.805480e+01
1.030000e-06	1.569023e-06	1.633204e-09	1.122755e+01	1.049293e+02
1.040000e-06	1.639918e-06	1.732651e-09	1.173486e+01	1.114905e+02
1.050000e-06	1.710195e-06	1.831996e-09	1.223775e+01	1.177412e+02
1.060000e-06	1.779803e-06	1.924812e-09	1.273584e+01	1.236890e+02
1.070000e-06	1.848823e-06	2.007699e-09	1.322974e+01	1.293452e+02
1.080000e-06	1.917157e-06	2.085819e-09	1.371872e+01	1.347240e+02
1.090000e-06	1.984876e-06	2.163865e-09	1.420330e+01	1.398413e+02
1.100000e-06	2.052121e-06	2.239504e-09	1.468449e+01	1.447139e+02
1.110000e-06	2.118760e-06	2.308981e-09	1.516134e+01	1.493583e+02
1.120000e-06	2.184388e-06	2.371314e-09	1.563096e+01	1.537902e+02
1.130000e-06	2.248846e-06	2.434205e-09	1.609220e+01	1.580235e+02
1.140000e-06	2.312516e-06	2.498739e-09	1.654781e+01	1.620705e+02
1.150000e-06	2.375638e-06	2.558892e-09	1.699950e+01	1.659412e+02
1.160000e-06	2.438031e-06	2.611596e-09	1.744597e+01	1.696435e+02
1.170000e-06	2.499582e-06	2.661854e-09	1.788641e+01	1.731835e+02
1.180000e-06	2.560276e-06	2.712567e-09	1.832072e+01	1.765656e+02
1.190000e-06	2.620196e-06	2.761972e-09	1.874950e+01	1.797932e+02
1.200000e-06	2.679455e-06	2.807408e-09	1.917354e+01	1.828690e+02
1.210000e-06	2.737709e-06	2.849258e-09	1.959039e+01	1.857953e+02
1.220000e-06	2.794534e-06	2.890215e-09	1.999701e+01	1.885747e+02
1.230000e-06	2.850182e-06	2.929551e-09	2.039522e+01	1.912104e+02
1.240000e-06	2.904993e-06	2.967889e-09	2.078743e+01	1.937063e+02
1.250000e-06	2.958915e-06	3.003388e-09	2.117329e+01	1.960670e+02
1.260000e-06	3.011845e-06	3.035165e-09	2.155204e+01	1.982983e+02
1.270000e-06	3.063643e-06	3.065165e-09	2.192270e+01	2.004064e+02
1.280000e-06	3.114025e-06	3.095856e-09	2.228322e+01	2.023984e+02
1.290000e-06	3.162805e-06	3.125600e-09	2.263227e+01	2.042814e+02
1.300000e-06	3.210305e-06	3.153611e-09	2.297218e+01	2.060628e+02
1.310000e-06	3.256766e-06	3.180056e-09	2.330464e+01	2.077495e+02
1.320000e-06	3.302191e-06	3.204343e-09	2.362969e+01	2.093482e+02
1.330000e-06	3.346592e-06	3.226570e-09	2.394741e+01	2.108648e+02
1.340000e-06	3.389979e-06	3.247982e-09	2.425788e+01	2.123044e+02
1.350000e-06	3.432098e-06	3.268643e-09	2.455927e+01	2.136715e+02
1.360000e-06	3.472690e-06	3.288514e-09	2.484974e+01	2.149695e+02
1.370000e-06	3.512052e-06	3.307890e-09	2.513140e+01	2.162015e+02
1.380000e-06	3.550278e-06	3.325383e-09	2.540494e+01	2.173701e+02
1.390000e-06	3.587255e-06	3.342275e-09	2.566954e+01	2.184776e+02
1.400000e-06	3.623109e-06	3.359405e-09	2.592610e+01	2.195262e+02
1.410000e-06	3.657770e-06	3.376141e-09	2.617413e+01	2.205181e+02
1.420000e-06	3.690916e-06	3.391044e-09	2.641131e+01	2.214559e+02
1.430000e-06	3.722640e-06	3.404676e-09	2.663833e+01	2.223421e+02
1.440000e-06	3.753186e-06	3.418766e-09	2.685690e+01	2.231795e+02
1.450000e-06	3.782510e-06	3.432206e-09	2.706673e+01	2.239708e+02
1.460000e-06	3.810619e-06	3.444866e-09	2.726788e+01	2.247187e+02
1.470000e-06	3.837487e-06	3.456321e-09	2.746014e+01	2.254255e+02
1.480000e-06	3.862784e-06	3.468291e-09	2.764116e+01	2.260930e+02
1.490000e-06	3.886498e-06	3.480710e-09	2.781085e+01	2.267224e+02
1.500000e-06	3.908898e-06	3.491561e-09	2.797114e+01	2.273140e+02
1.510000e-06	3.930007e-06	3.500707e-09	2.812219e+01	2.278677e+02
1.520000e-06	3.949923e-06	3.509578e-09	2.826471e+01	2.283826e+02
1.530000e-06	3.968631e-06	3.519139e-09	2.839857e+01	2.288573e+02
1.540000e-06	3.985887e-06	3.526380e-09	2.852205e+01	2.292905e+02
1.550000e-06	4.001662e-06	3.530818e-09	2.863494e+01	2.296808e+02
1.560000e-06	4.015949e-06	3.535746e-09	2.873717e+01	2.300276e+02
1.570000e-06	4.028722e-06	3.541258e-09	2.882857e+01	2.303305e+02
1.580000e-06	4.039969e-06	3.545123e-09	2.890906e+01	2.305905e+02
1.590000e-06	4.049452e-06	3.549425e-09	2.897691e+01	2.308093e+02
1.600000e-06	4.057290e-06	3.555402e-09	2.903300e+01	2.309895e+02
1.610000e-06	4.063795e-06	3.560073e-09	2.907954e+01	2.311348e+02
1.620000e-06	4.068965e-06	3.562420e-09	2.911654e+01	2.312489e+02
1.630000e-06	4.072904e-06	3.564208e-09	2.914473e+01	2.313359e+02
1.640000e-06	4.075465e-06	3.567516e-09	2.916305e+01	2.313996e+02
1.650000e-06	4.076331e-06	3.571120e-09	2.916925e+01	2.314428e+02
1.660000e-06	4.075726e-06	3.572917e-09	2.916492e+01	2.314678e+02
1.670000e-06	4.073906e-06	3.571288e-09	2.915189e+01	2.314752e+02
1.680000e-06	4.070820e-06	3.568760e-09	2.912982e+01	2.314647e+02
1.690000e-06	4.066579e-06	3.567832e-09	2.909947e+01	2.314349e+02
1.700000e-06	4.061054e-06	3.568468e-09	2.905993e+01	2.313837e+02
1.710000e-06	4.053948e-06	3.568584e-09	2.900908e+01	2.313084e+02
1.720000e-06	4.045508e-06	3.572045e-09	2.894869e+01	2.312068e+02
1.730000e-06	4.035974e-06	3.583334e-09	2.888046e+01	2.310772e+02
1.740000e-06	4.025235e-06	3.540696e-09	2.880362e+01	2.309191e+02
1.750000e-06	4.012673e-06	3.489984e-09	2.871373e+01	2.307334e+02
1.760000e-06	3.997658e-06	3.480248e-09	2.860628e+01	2.305227e+02
1.770000e-06	3.980533e-06	3.558613e-09	2.848374e+01	2.302910e+02
1.780000e-06	3.962392e-06	3.660844e-09	2.835393e+01	2.300435e+02
1.790000e-06	3.943955e-06	3.554985e-09	2.822200e+01	2.297861e+02
1.800000e-06	3.924411e-06	3.468953e-09	2.808215e+01	2.295245e+02
1.810000e-06	3.902759e-06	3.569492e-09	2.792721e+01	2.292636e+02
1.820000e-06	3.879805e-06	3.540506e-09	2.776296e+01	2.290065e+02
1.830000e-06	3.856031e-06	3.555282e-09	2.759284e+01	2.287543e+02
1.840000e-06	3.830570e-06	3.624089e-09	2.741065e+01	2.285051e+02
1.850000e-06	3.803566e-06	3.450228e-09	2.721741e+01	2.282539e+02
1.860000e-06	3.775647e-06	3.437316e-09	2.701763e+01	2.279930e+02
1.870000e-06	3.746440e-06	3.591929e-09	2.680863e+01	2.277122e+02
1.880000e-06	3.715590e-06	3.459076e-09	2.658787e+01	2.273992e+02
1.890000e-06	3.683235e-06	3.354279e-09	2.635635e+01	2.270412e+02
1.900000e-06	3.649617e-06	3.460254e-09	2.611578e+01	2.266252e+02
1.910000e-06	3.614941e-06	3.458270e-09	2.586765e+01	2.261397e+02
1.920000e-06	3.579080e-06	3.457602e-09	2.561104e+01	2.255752e+02
1.930000e-06	3.542053e-06	3.405461e-09	2.534609e+01	2.249251e+02
1.940000e-06	3.503864e-06	3.340719e-09	2.507282e+01	2.241866e+02
1.950000e-06	3.464049e-06	3.408546e-09	2.478791e+01	2.233601e+02
1.960000e-06	3.422730e-06	3.373539e-09	2.449223e+01	2.224496e+02
1.970000e-06	3.380440e-06	3.366039e-09	2.418962e+01	2.214617e+02
1.980000e-06	3.337116e-06	3.376044e-09	2.387960e+01	2.204052e+02
1.990000e-06	3.292685e-06	3.253098e-09	2.356167e+01	2.192899e+02
2.000000e-06	3.247225e-06	3.294871e-09	2.323637e+01	2.181255e+02
2.010000e-06	3.200652e-06	3.361345e-09	2.290310e+01	2.169207e+02
2.020000e-06	3.152726e-06	3.251716e-09	2.256016e+01	2.156823e+02
2.030000e-06	3.103415e-06	3.183954e-09	2.220729e+01	2.144147e+02
2.040000e-06	3.053075e-06	3.218508e-09	2.184707e+01	2.131192e+02
2.050000e-06	3.001728e-06	3.268731e-09	2.147965e+01	2.117946e+02
2.060000e-06	2.949198e-06	3.183861e-09	2.110376e+01	2.104371e+02
2.070000e-06	2.895339e-06	3.113493e-09	2.071836e+01	2.090410e+02
2.080000e-06	2.840094e-06	3.147732e-09	2.032303e+01	2.075994e+02
2.090000e-06	2.783755e-06	3.125597e-09	1.991988e+01	2.061050e+02
2.100000e-06	2.726455e-06	3.098554e-09	1.950986e+01	2.045510e+02
2.110000e-06	2.668307e-06	3.062471e-09	1.909376e+01	2.029313e+02
2.120000e-06	2.609404e-06	3.029069e-09	1.867227e+01	2.012416e+02
2.130000e-06	2.549657e-06	3.010026e-09	1.824474e+01	1.994792e+02
2.140000e-06	2.489117e-06	2.984818e-09	1.781152e+01	1.976430e+02
2.150000e-06	2.427573e-06	2.980969e-09	1.737113e+01	1.957334e+02
2.160000e-06	2.364826e-06	2.919239e-09	1.692213e+01	1.937516e+02
2.170000e-06	2.301117e-06	2.864631e-09	1.646624e+01	1.916995e+02
2.180000e-06	2.236714e-06	2.871460e-09	1.600539e+01	1.895786e+02
2.190000e-06	2.171593e-06	2.849311e-09	1.553940e+01	1.873898e+02
2.200000e-06	2.105642e-06	2.791783e-09	1.506747e+01	1.851326e+02
2.210000e-06	2.038995e-06	2.736094e-09	1.459056e+01	1.828054e+02
2.220000e-06	1.971721e-06	2.726818e-09	1.410917e+01	1.804048e+02
2.230000e-06	1.903782e-06	2.704990e-09	1.362301e+01	1.779260e+02
2.240000e-06	1.835270e-06	2.636861e-09	1.313276e+01	1.753631e+02
2.250000e-06	1.766179e-06	2.594232e-09	1.263835e+01	1.727092e+02
2.260000e-06	1.696295e-06	2.562676e-09	1.213828e+01	1.699569e+02
2.270000e-06	1.625405e-06	2.522695e-09	1.163101e+01	1.670991e+02
2.280000e-06	1.553676e-06	2.474649e-09	1.111774e+01	1.641285e+02
2.290000e-06	1.481534e-06	2.429051e-09	1.060150e+01	1.610386e+02
2.300000e-06	1.409082e-06	2.381110e-09	1.008305e+01	1.578233e+02
2.310000e-06	1.336215e-06	2.323409e-09	9.561634e+00	1.544771e+02
2.320000e-06	1.262829e-06	2.278988e-09	9.036502e+00	1.509946e+02
2.330000e-06	1.188982e-06	2.225043e-09	8.508072e+00	1.473704e+02
2.340000e-06	1.114789e-06	2.158297e-09	7.977167e+00	1.435986e+02
2.350000e-06	1.040206e-06	2.099625e-09	7.443466e+00	1.396724e+02
2.360000e-06	9.652722e-07	2.049253e-09	6.907257e+00	1.355839e+02
2.370000e-06	8.899515e-07	1.985480e-09	6.368280e+00	1.313238e+02
2.380000e-06	8.142567e-07	1.905608e-09	5.826627e+00	1.268812e+02
2.390000e-06	7.383255e-07	1.839758e-09	5.283281e+00	1.222441e+02
2.400000e-06	6.621648e-07	1.775092e-09	4.738293e+00	1.173989e+02
2.410000e-06	5.857263e-07	1.692977e-09	4.191317e+00	1.123317e+02
2.420000e-06	5.090817e-07	1.606050e-09	3.642867e+00	1.070280e+02
2.430000e-06	4.323267e-07	1.526236e-09	3.093626e+00	1.014742e+02
2.440000e-06	3.554129e-07	1.443397e-09	2.543250e+00	9.565732e+01
2.450000e-06	2.783207e-07	1.344955e-09	1.991596e+00	8.956663e+01
2.460000e-06	2.010242e-07	1.242968e-09	1.438481e+00	8.319377e+01
2.470000e-06	1.235558e-07	1.146180e-09	8.841361e-01	7.653358e+01
2.480000e-06	4.595985e-08	1.044226e-09	3.288777e-01	6.958466e+01
2.490000e-06	-3.156636e-08	9.330050e-10	-2.258813e-01	6.234978e+01
2.500000e-06	-1.088739e-07	8.183748e-10	-7.790757e-01	5.483626e+01
2.510000e-06	-1.861427e-07	6.991201e-10	-1.331993e+00	4.705623e+01
2.520000e-06	-2.633708e-07	5.770104e-10	-1.884618e+00	3.902670e+01
2.530000e-06	-3.403544e-07	4.535351e-10	-2.435495e+00	3.076959e+01
2.540000e-06	-4.170889e-07	3.232517e-10	-2.984588e+00	2.231158e+01
2.550000e-06	-4.936653e-07	1.843982e-10	-3.532551e+00	1.368381e+01
2.560000e-06	-5.700616e-07	4.865958e-11	-4.079225e+00	4.921523e+00
2.570000e-06	-6.462512e-07	-7.924728e-11	-4.624419e+00	-3.936563e+00
2.580000e-06	-7.222198e-07	-2.128088e-10	-5.168032e+00	-1.284891e+01
2.590000e-06	-7.979553e-07	-3.547489e-10	-5.709977e+00	-2.177202e+01
2.600000e-06	-8.733721e-07	-4.910330e-10	-6.249642e+00	-3.066142e+01
2.610000e-06	-9.484325e-07	-6.162726e-10	-6.786756e+00	-3.947267e+01
2.620000e-06	-1.023107e-06	-7.426562e-10	-7.321112e+00	-4.816255e+01
2.630000e-06	-1.097383e-06	-8.747261e-10	-7.852611e+00	-5.669012e+01
2.640000e-06	-1.171302e-06	-1.004961e-09	-8.381554e+00	-6.501782e+01
2.650000e-06	-1.244867e-06	-1.127244e-09	-8.907969e+00	-7.311246e+01
2.660000e-06	-1.317997e-06	-1.244128e-09	-9.431275e+00	-8.094601e+01
2.670000e-06	-1.390644e-06	-1.358930e-09	-9.951114e+00	-8.849623e+01
2.680000e-06	-1.462929e-06	-1.472896e-09	-1.046837e+01	-9.574700e+01
2.690000e-06	-1.534916e-06	-1.583845e-09	-1.098349e+01	-1.026884e+02
2.700000e-06	-1.606442e-06	-1.683892e-09	-1.149532e+01	-1.093166e+02
2.710000e-06	-1.677187e-06	-1.775320e-09	-1.200155e+01	-1.156333e+02
2.720000e-06	-1.746931e-06	-1.865111e-09	-1.250062e+01	-1.216451e+02
2.730000e-06	-1.815780e-06	-1.955469e-09	-1.299329e+01	-1.273626e+02
2.740000e-06	-1.884092e-06	-2.040810e-09	-1.348211e+01	-1.327995e+02
2.750000e-06	-1.951992e-06	-2.118258e-09	-1.396799e+01	-1.379714e+02
2.760000e-06	-2.019267e-06	-2.192925e-09	-1.444939e+01	-1.428950e+02
2.770000e-06	-2.085824e-06	-2.266614e-09	-1.492566e+01	-1.475869e+02
2.780000e-06	-2.151696e-06	-2.337928e-09	-1.539702e+01	-1.520630e+02
2.790000e-06	-2.216789e-06	-2.404040e-09	-1.586281e+01	-1.563378e+02
2.800000e-06	-2.281190e-06	-2.465492e-09	-1.632365e+01	-1.604237e+02
2.810000e-06	-2.344922e-06	-2.525419e-09	-1.677970e+01	-1.643314e+02
2.820000e-06	-2.407615e-06	-2.585611e-09	-1.722832e+01	-1.680691e+02
2.830000e-06	-2.469143e-06	-2.643782e-09	-1.766860e+01	-1.716434e+02
2.840000e-06	-2.529752e-06	-2.697492e-09	-1.810230e+01	-1.750590e+02
2.850000e-06	-2.589642e-06	-2.747243e-09	-1.853086e+01	-1.783194e+02
2.860000e-06	-2.648717e-06	-2.795132e-09	-1.895358e+01	-1.814275e+02
2.870000e-06	-2.706788e-06	-2.843771e-09	-1.936913e+01	-1.843855e+02
2.880000e-06	-2.763913e-06	-2.889588e-09	-1.977790e+01	-1.871961e+02
2.890000e-06	-2.820225e-06	-2.929834e-09	-2.018085e+01	-1.898623e+02
2.900000e-06	-2.875580e-06	-2.968997e-09	-2.057696e+01	-1.923877e+02
2.910000e-06	-2.929558e-06	-3.008762e-09	-2.096321e+01	-1.947769e+02
2.920000e-06	-2.982151e-06	-3.044398e-09	-2.133956e+01	-1.970354e+02
2.930000e-06	-3.033597e-06	-3.075323e-09	-2.170769e+01	-1.991693e+02
2.940000e-06	-3.083859e-06	-3.104794e-09	-2.206736e+01	-2.011854e+02
