# Temperatura_=_20.0
# Concentracion g/m^3_=_12600.0
# C_Vs_to_Am_M_A/Vsm_=_65563218390.804596
# pendiente_HvsI_1/m_=_3716.3
# ordenada_HvsI_A/m_=_1297.0
# frecuencia_Hz_=_302074.64049567666

Tiempo_(s)	Campo_(V.s)	Magnetizacion_(V.s)	Campo_(kA/m)	Magnetizacion_(A/m)
0.000000e+00	-6.713521e-06	-3.154111e-08	-4.744850e+01	-2.065928e+03
1.000000e-08	-6.711796e-06	-3.153903e-08	-4.743631e+01	-2.065531e+03
2.000000e-08	-6.707717e-06	-3.153136e-08	-4.740748e+01	-2.064744e+03
3.000000e-08	-6.701528e-06	-3.151497e-08	-4.736374e+01	-2.063569e+03
4.000000e-08	-6.693233e-06	-3.149040e-08	-4.730512e+01	-2.062017e+03
5.000000e-08	-6.682588e-06	-3.145825e-08	-4.722988e+01	-2.060110e+03
6.000000e-08	-6.669450e-06	-3.142780e-08	-4.713702e+01	-2.057878e+03
7.000000e-08	-6.653825e-06	-3.138717e-08	-4.702659e+01	-2.055358e+03
8.000000e-08	-6.635945e-06	-3.132524e-08	-4.690022e+01	-2.052585e+03
9.000000e-08	-6.616025e-06	-3.131532e-08	-4.675944e+01	-2.049597e+03
1.000000e-07	-6.593747e-06	-3.133760e-08	-4.660199e+01	-2.046422e+03
1.100000e-07	-6.568820e-06	-3.125095e-08	-4.642581e+01	-2.043085e+03
1.200000e-07	-6.541229e-06	-3.114675e-08	-4.623081e+01	-2.039598e+03
1.300000e-07	-6.511271e-06	-3.106191e-08	-4.601908e+01	-2.035961e+03
1.400000e-07	-6.479384e-06	-3.091950e-08	-4.579372e+01	-2.032167e+03
1.500000e-07	-6.445659e-06	-3.086762e-08	-4.555536e+01	-2.028198e+03
1.600000e-07	-6.409990e-06	-3.102694e-08	-4.530327e+01	-2.024027e+03
1.700000e-07	-6.372318e-06	-3.083260e-08	-4.503701e+01	-2.019624e+03
1.800000e-07	-6.332601e-06	-3.064670e-08	-4.475631e+01	-2.014955e+03
1.900000e-07	-6.290594e-06	-3.069626e-08	-4.445942e+01	-2.009983e+03
2.000000e-07	-6.246101e-06	-3.049507e-08	-4.414496e+01	-2.004676e+03
2.100000e-07	-6.199338e-06	-3.051483e-08	-4.381446e+01	-1.999002e+03
2.200000e-07	-6.150148e-06	-3.044706e-08	-4.346680e+01	-1.992934e+03
2.300000e-07	-6.098305e-06	-3.020398e-08	-4.310040e+01	-1.986449e+03
2.400000e-07	-6.044036e-06	-3.014608e-08	-4.271685e+01	-1.979529e+03
2.500000e-07	-5.987488e-06	-3.005380e-08	-4.231719e+01	-1.972164e+03
2.600000e-07	-5.928599e-06	-2.998265e-08	-4.190098e+01	-1.964348e+03
2.700000e-07	-5.867482e-06	-2.985218e-08	-4.146903e+01	-1.956081e+03
2.800000e-07	-5.804330e-06	-2.963095e-08	-4.102270e+01	-1.947369e+03
2.900000e-07	-5.739045e-06	-2.949218e-08	-4.056129e+01	-1.938221e+03
3.000000e-07	-5.671562e-06	-2.940290e-08	-4.008435e+01	-1.928652e+03
3.100000e-07	-5.601932e-06	-2.930843e-08	-3.959223e+01	-1.918679e+03
3.200000e-07	-5.530208e-06	-2.906922e-08	-3.908532e+01	-1.908318e+03
3.300000e-07	-5.456386e-06	-2.886817e-08	-3.856357e+01	-1.897587e+03
3.400000e-07	-5.380322e-06	-2.873433e-08	-3.802598e+01	-1.886497e+03
3.500000e-07	-5.302079e-06	-2.857102e-08	-3.747299e+01	-1.875058e+03
3.600000e-07	-5.221699e-06	-2.843271e-08	-3.690490e+01	-1.863269e+03
3.700000e-07	-5.139369e-06	-2.821107e-08	-3.632302e+01	-1.851127e+03
3.800000e-07	-5.055404e-06	-2.797990e-08	-3.572959e+01	-1.838616e+03
3.900000e-07	-4.969756e-06	-2.778049e-08	-3.512426e+01	-1.825715e+03
4.000000e-07	-4.882479e-06	-2.760997e-08	-3.450742e+01	-1.812401e+03
4.100000e-07	-4.793711e-06	-2.741920e-08	-3.388004e+01	-1.798642e+03
4.200000e-07	-4.703154e-06	-2.717360e-08	-3.324002e+01	-1.784411e+03
4.300000e-07	-4.610836e-06	-2.693067e-08	-3.258756e+01	-1.769680e+03
4.400000e-07	-4.517011e-06	-2.670362e-08	-3.192444e+01	-1.754427e+03
4.500000e-07	-4.421597e-06	-2.649251e-08	-3.125009e+01	-1.738637e+03
4.600000e-07	-4.324594e-06	-2.624781e-08	-3.056451e+01	-1.722300e+03
4.700000e-07	-4.225872e-06	-2.597072e-08	-2.986678e+01	-1.705414e+03
4.800000e-07	-4.125610e-06	-2.569409e-08	-2.915817e+01	-1.687981e+03
4.900000e-07	-4.023982e-06	-2.542250e-08	-2.843990e+01	-1.670005e+03
5.000000e-07	-3.920863e-06	-2.515664e-08	-2.771110e+01	-1.651490e+03
5.100000e-07	-3.816402e-06	-2.486932e-08	-2.697281e+01	-1.632436e+03
5.200000e-07	-3.710497e-06	-2.455576e-08	-2.622432e+01	-1.612836e+03
5.300000e-07	-3.603075e-06	-2.423442e-08	-2.546510e+01	-1.592673e+03
5.400000e-07	-3.494416e-06	-2.392430e-08	-2.469714e+01	-1.571925e+03
5.500000e-07	-3.384548e-06	-2.361416e-08	-2.392064e+01	-1.550558e+03
5.600000e-07	-3.273358e-06	-2.327886e-08	-2.313480e+01	-1.528534e+03
5.700000e-07	-3.160967e-06	-2.292277e-08	-2.234046e+01	-1.505812e+03
5.800000e-07	-3.047284e-06	-2.255849e-08	-2.153699e+01	-1.482351e+03
5.900000e-07	-2.932136e-06	-2.219018e-08	-2.072318e+01	-1.458115e+03
6.000000e-07	-2.815741e-06	-2.181506e-08	-1.990054e+01	-1.433076e+03
6.100000e-07	-2.698317e-06	-2.142621e-08	-1.907063e+01	-1.407214e+03
6.200000e-07	-2.579930e-06	-2.101589e-08	-1.823392e+01	-1.380520e+03
6.300000e-07	-2.460604e-06	-2.058942e-08	-1.739058e+01	-1.352990e+03
6.400000e-07	-2.340439e-06	-2.015935e-08	-1.654129e+01	-1.324628e+03
6.500000e-07	-2.219534e-06	-1.972303e-08	-1.568678e+01	-1.295436e+03
6.600000e-07	-2.097730e-06	-1.927265e-08	-1.482592e+01	-1.265409e+03
6.700000e-07	-1.974915e-06	-1.880115e-08	-1.395791e+01	-1.234537e+03
6.800000e-07	-1.851289e-06	-1.831008e-08	-1.308418e+01	-1.202793e+03
6.900000e-07	-1.727105e-06	-1.780588e-08	-1.220649e+01	-1.170138e+03
7.000000e-07	-1.602461e-06	-1.729421e-08	-1.132556e+01	-1.136517e+03
7.100000e-07	-1.477368e-06	-1.677345e-08	-1.044145e+01	-1.101865e+03
7.200000e-07	-1.351805e-06	-1.622552e-08	-9.554021e+00	-1.066108e+03
7.300000e-07	-1.225748e-06	-1.564952e-08	-8.663104e+00	-1.029172e+03
7.400000e-07	-1.099283e-06	-1.506107e-08	-7.769298e+00	-9.909906e+02
7.500000e-07	-9.725231e-07	-1.446944e-08	-6.873407e+00	-9.515071e+02
7.600000e-07	-8.454429e-07	-1.386166e-08	-5.975255e+00	-9.106824e+02
7.700000e-07	-7.180099e-07	-1.321853e-08	-5.074609e+00	-8.684951e+02
7.800000e-07	-5.902875e-07	-1.254489e-08	-4.171918e+00	-8.249405e+02
7.900000e-07	-4.623459e-07	-1.186135e-08	-3.267677e+00	-7.800257e+02
8.000000e-07	-3.342424e-07	-1.117171e-08	-2.362293e+00	-7.337625e+02
8.100000e-07	-2.060104e-07	-1.045588e-08	-1.456000e+00	-6.861569e+02
8.200000e-07	-7.770388e-08	-9.700087e-09	-5.491802e-01	-6.371996e+02
8.300000e-07	5.060936e-08	-8.914559e-09	3.576868e-01	-5.868562e+02
8.400000e-07	1.789250e-07	-8.118743e-09	1.264571e+00	-5.350605e+02
8.500000e-07	3.072247e-07	-7.312247e-09	2.171342e+00	-4.817120e+02
8.600000e-07	4.354401e-07	-6.476534e-09	3.077518e+00	-4.266785e+02
8.700000e-07	5.635428e-07	-5.596292e-09	3.982897e+00	-3.698042e+02
8.800000e-07	6.915135e-07	-4.682246e-09	4.887343e+00	-3.109242e+02
8.900000e-07	8.193045e-07	-3.751903e-09	5.790519e+00	-2.498826e+02
9.000000e-07	9.468364e-07	-2.801697e-09	6.691864e+00	-1.865541e+02
9.100000e-07	1.073992e-06	-1.812563e-09	7.590548e+00	-1.208666e+02
9.200000e-07	1.200722e-06	-7.726756e-10	8.486226e+00	-5.282217e+01
9.300000e-07	1.327049e-06	3.033689e-10	9.379054e+00	1.748650e+01
9.400000e-07	1.452909e-06	1.397959e-09	1.026859e+01	8.986508e+01
9.500000e-07	1.578256e-06	2.514785e-09	1.115449e+01	1.640149e+02
9.600000e-07	1.703109e-06	3.668985e-09	1.203690e+01	2.395386e+02
9.700000e-07	1.827446e-06	4.855129e-09	1.291566e+01	3.159545e+02
9.800000e-07	1.951246e-06	6.043326e-09	1.379063e+01	3.927183e+02
9.900000e-07	2.074314e-06	7.209193e-09	1.466043e+01	4.692507e+02
1.000000e-06	2.196412e-06	8.353395e-09	1.552337e+01	5.449677e+02
1.010000e-06	2.317543e-06	9.485501e-09	1.637948e+01	6.193123e+02
1.020000e-06	2.437808e-06	1.059587e-08	1.722946e+01	6.917826e+02
1.030000e-06	2.557180e-06	1.166313e-08	1.807313e+01	7.619559e+02
1.040000e-06	2.675597e-06	1.267298e-08	1.891006e+01	8.295048e+02
1.050000e-06	2.793088e-06	1.363818e-08	1.974044e+01	8.942063e+02
1.060000e-06	2.909560e-06	1.457447e-08	2.056362e+01	9.559406e+02
1.070000e-06	3.024853e-06	1.547854e-08	2.137846e+01	1.014684e+03
1.080000e-06	3.138781e-06	1.633286e-08	2.218366e+01	1.070493e+03
1.090000e-06	3.251384e-06	1.713247e-08	2.297949e+01	1.123487e+03
1.100000e-06	3.362840e-06	1.789465e-08	2.376722e+01	1.173824e+03
1.110000e-06	3.473174e-06	1.863496e-08	2.454702e+01	1.221683e+03
1.120000e-06	3.582382e-06	1.934445e-08	2.531886e+01	1.267240e+03
1.130000e-06	3.690497e-06	2.000626e-08	2.608297e+01	1.310661e+03
1.140000e-06	3.797364e-06	2.062539e-08	2.683826e+01	1.352084e+03
1.150000e-06	3.902752e-06	2.122036e-08	2.758310e+01	1.391621e+03
1.160000e-06	4.006715e-06	2.179886e-08	2.831787e+01	1.429357e+03
1.170000e-06	4.109256e-06	2.234938e-08	2.904259e+01	1.465355e+03
1.180000e-06	4.210398e-06	2.286283e-08	2.975742e+01	1.499662e+03
1.190000e-06	4.310162e-06	2.334349e-08	3.046251e+01	1.532322e+03
1.200000e-06	4.408272e-06	2.380842e-08	3.115592e+01	1.563380e+03
1.210000e-06	4.504611e-06	2.426294e-08	3.183680e+01	1.592891e+03
1.220000e-06	4.599327e-06	2.469629e-08	3.250622e+01	1.620921e+03
1.230000e-06	4.692528e-06	2.509942e-08	3.316493e+01	1.647552e+03
1.240000e-06	4.784242e-06	2.547841e-08	3.381312e+01	1.672874e+03
1.250000e-06	4.874255e-06	2.584700e-08	3.444930e+01	1.696985e+03
1.260000e-06	4.962410e-06	2.620940e-08	3.507235e+01	1.719982e+03
1.270000e-06	5.048730e-06	2.655377e-08	3.568242e+01	1.741956e+03
1.280000e-06	5.133297e-06	2.687199e-08	3.628011e+01	1.762986e+03
1.290000e-06	5.216129e-06	2.717215e-08	3.686553e+01	1.783132e+03
1.300000e-06	5.297018e-06	2.746463e-08	3.743722e+01	1.802440e+03
1.310000e-06	5.375900e-06	2.774919e-08	3.799473e+01	1.820936e+03
1.320000e-06	5.452813e-06	2.801692e-08	3.853832e+01	1.838631e+03
1.330000e-06	5.527655e-06	2.826468e-08	3.906727e+01	1.855528e+03
1.340000e-06	5.600362e-06	2.850063e-08	3.958114e+01	1.871625e+03
1.350000e-06	5.671036e-06	2.873222e-08	4.008063e+01	1.886922e+03
1.360000e-06	5.739726e-06	2.895826e-08	4.056611e+01	1.901423e+03
1.370000e-06	5.806305e-06	2.917014e-08	4.103666e+01	1.915144e+03
1.380000e-06	5.870717e-06	2.936408e-08	4.149189e+01	1.928110e+03
1.390000e-06	5.933117e-06	2.954651e-08	4.193292e+01	1.940358e+03
1.400000e-06	5.993582e-06	2.972489e-08	4.236026e+01	1.951930e+03
1.410000e-06	6.051943e-06	2.989865e-08	4.277273e+01	1.962872e+03
1.420000e-06	6.108073e-06	3.006014e-08	4.316943e+01	1.973228e+03
1.430000e-06	6.162036e-06	3.020771e-08	4.355082e+01	1.983038e+03
1.440000e-06	6.213641e-06	3.034881e-08	4.391555e+01	1.992331e+03
1.450000e-06	6.262634e-06	3.048852e-08	4.426181e+01	2.001125e+03
1.460000e-06	6.309229e-06	3.061958e-08	4.459113e+01	2.009428e+03
1.470000e-06	6.353720e-06	3.073608e-08	4.490557e+01	2.017234e+03
1.480000e-06	6.396051e-06	3.083977e-08	4.520475e+01	2.024534e+03
1.490000e-06	6.435999e-06	3.093664e-08	4.548708e+01	2.031315e+03
1.500000e-06	6.473667e-06	3.103139e-08	4.575331e+01	2.037563e+03
1.510000e-06	6.509213e-06	3.111976e-08	4.600453e+01	2.043271e+03
1.520000e-06	6.542350e-06	3.119714e-08	4.623873e+01	2.048442e+03
1.530000e-06	6.573091e-06	3.126514e-08	4.645600e+01	2.053087e+03
1.540000e-06	6.601694e-06	3.132786e-08	4.665815e+01	2.057228e+03
1.550000e-06	6.627985e-06	3.138793e-08	4.684396e+01	2.060895e+03
1.560000e-06	6.651733e-06	3.144368e-08	4.701181e+01	2.064125e+03
1.570000e-06	6.673087e-06	3.148961e-08	4.716273e+01	2.066955e+03
1.580000e-06	6.692265e-06	3.152536e-08	4.729827e+01	2.069420e+03
1.590000e-06	6.709037e-06	3.155606e-08	4.741681e+01	2.071550e+03
1.600000e-06	6.723227e-06	3.158463e-08	4.751710e+01	2.073363e+03
1.610000e-06	6.734832e-06	3.160925e-08	4.759912e+01	2.074868e+03
1.620000e-06	6.743793e-06	3.162528e-08	4.766245e+01	2.076064e+03
1.630000e-06	6.750300e-06	3.163263e-08	4.770844e+01	2.076940e+03
1.640000e-06	6.754519e-06	3.163594e-08	4.773826e+01	2.077479e+03
1.650000e-06	6.756286e-06	3.164071e-08	4.775075e+01	2.077661e+03
1.660000e-06	6.755604e-06	3.164347e-08	4.774593e+01	2.077469e+03
1.670000e-06	6.752755e-06	3.162948e-08	4.772579e+01	2.076890e+03
1.680000e-06	6.747799e-06	3.161212e-08	4.769076e+01	2.075921e+03
1.690000e-06	6.740503e-06	3.159028e-08	4.763920e+01	2.074568e+03
1.700000e-06	6.730982e-06	3.157095e-08	4.757191e+01	2.072846e+03
1.710000e-06	6.719330e-06	3.155496e-08	4.748956e+01	2.070784e+03
1.720000e-06	6.705275e-06	3.153871e-08	4.739022e+01	2.068412e+03
1.730000e-06	6.688982e-06	3.153411e-08	4.727507e+01	2.065769e+03
1.740000e-06	6.670670e-06	3.143827e-08	4.714565e+01	2.062891e+03
1.750000e-06	6.649869e-06	3.131335e-08	4.699863e+01	2.059812e+03
1.760000e-06	6.625894e-06	3.129964e-08	4.682919e+01	2.056558e+03
1.770000e-06	6.598942e-06	3.126825e-08	4.663870e+01	2.053149e+03
1.780000e-06	6.569643e-06	3.125219e-08	4.643163e+01	2.049592e+03
1.790000e-06	6.538350e-06	3.131150e-08	4.621046e+01	2.045883e+03
1.800000e-06	6.505612e-06	3.104600e-08	4.597908e+01	2.042010e+03
1.810000e-06	6.471208e-06	3.086530e-08	4.573593e+01	2.037949e+03
1.820000e-06	6.434331e-06	3.105942e-08	4.547530e+01	2.033674e+03
1.830000e-06	6.395156e-06	3.091981e-08	4.519842e+01	2.029150e+03
1.840000e-06	6.353901e-06	3.098348e-08	4.490685e+01	2.024344e+03
1.850000e-06	6.310451e-06	3.092026e-08	4.459976e+01	2.019220e+03
1.860000e-06	6.264912e-06	3.056856e-08	4.427791e+01	2.013745e+03
1.870000e-06	6.217034e-06	3.069777e-08	4.393953e+01	2.007890e+03
1.880000e-06	6.166803e-06	3.060133e-08	4.358452e+01	2.001629e+03
1.890000e-06	6.114179e-06	3.047034e-08	4.321259e+01	1.994943e+03
1.900000e-06	6.058841e-06	3.034612e-08	4.282148e+01	1.987817e+03
1.910000e-06	6.001207e-06	3.007663e-08	4.241415e+01	1.980242e+03
1.920000e-06	5.941483e-06	3.013624e-08	4.199204e+01	1.972215e+03
1.930000e-06	5.879532e-06	3.001011e-08	4.155420e+01	1.963739e+03
1.940000e-06	5.815335e-06	2.983347e-08	4.110048e+01	1.954822e+03
1.950000e-06	5.748903e-06	2.967126e-08	4.063096e+01	1.945476e+03
1.960000e-06	5.680367e-06	2.945289e-08	4.014658e+01	1.935716e+03
1.970000e-06	5.609574e-06	2.943460e-08	3.964624e+01	1.925559e+03
1.980000e-06	5.536638e-06	2.924125e-08	3.913076e+01	1.915024e+03
1.990000e-06	5.461719e-06	2.911136e-08	3.860126e+01	1.904124e+03
2.000000e-06	5.384691e-06	2.888638e-08	3.805686e+01	1.892870e+03
2.010000e-06	5.305524e-06	2.864720e-08	3.749734e+01	1.881268e+03
2.020000e-06	5.224363e-06	2.857774e-08	3.692373e+01	1.869315e+03
2.030000e-06	5.141502e-06	2.838817e-08	3.633810e+01	1.857002e+03
2.040000e-06	5.056922e-06	2.819736e-08	3.574031e+01	1.844312e+03
2.050000e-06	4.970360e-06	2.790677e-08	3.512853e+01	1.831222e+03
2.060000e-06	4.881907e-06	2.771145e-08	3.450338e+01	1.817704e+03
2.070000e-06	4.791917e-06	2.756689e-08	3.386737e+01	1.803729e+03
2.080000e-06	4.700422e-06	2.735117e-08	3.322072e+01	1.789267e+03
2.090000e-06	4.607349e-06	2.709070e-08	3.256292e+01	1.774296e+03
2.100000e-06	4.512526e-06	2.678938e-08	3.189274e+01	1.758794e+03
2.110000e-06	4.416036e-06	2.658727e-08	3.121079e+01	1.742749e+03
2.120000e-06	4.318154e-06	2.637001e-08	3.051900e+01	1.726156e+03
2.130000e-06	4.218849e-06	2.612990e-08	2.981715e+01	1.709015e+03
2.140000e-06	4.118098e-06	2.582566e-08	2.910508e+01	1.691328e+03
2.150000e-06	4.015661e-06	2.552173e-08	2.838110e+01	1.673100e+03
2.160000e-06	3.911501e-06	2.526495e-08	2.764494e+01	1.654335e+03
2.170000e-06	3.805997e-06	2.500133e-08	2.689928e+01	1.635027e+03
2.180000e-06	3.699280e-06	2.469837e-08	2.614504e+01	1.615167e+03
2.190000e-06	3.591307e-06	2.434331e-08	2.538193e+01	1.594736e+03
2.200000e-06	3.482104e-06	2.401644e-08	2.461013e+01	1.573703e+03
2.210000e-06	3.371615e-06	2.370400e-08	2.382924e+01	1.552036e+03
2.220000e-06	3.259723e-06	2.337940e-08	2.303843e+01	1.529691e+03
2.230000e-06	3.146516e-06	2.301158e-08	2.223833e+01	1.506630e+03
2.240000e-06	3.032050e-06	2.263236e-08	2.142933e+01	1.482812e+03
2.250000e-06	2.916392e-06	2.225247e-08	2.061190e+01	1.458205e+03
2.260000e-06	2.799712e-06	2.187723e-08	1.978725e+01	1.432785e+03
2.270000e-06	2.681913e-06	2.148829e-08	1.895470e+01	1.406536e+03
2.280000e-06	2.562817e-06	2.107438e-08	1.811298e+01	1.379453e+03
2.290000e-06	2.442647e-06	2.064676e-08	1.726366e+01	1.351536e+03
2.300000e-06	2.321692e-06	2.020775e-08	1.640880e+01	1.322787e+03
2.310000e-06	2.200022e-06	1.976135e-08	1.554888e+01	1.293207e+03
2.320000e-06	2.077662e-06	1.929730e-08	1.468409e+01	1.262788e+03
2.330000e-06	1.954612e-06	1.882359e-08	1.381442e+01	1.231515e+03
2.340000e-06	1.830874e-06	1.833184e-08	1.293989e+01	1.199353e+03
2.350000e-06	1.706511e-06	1.781816e-08	1.206094e+01	1.166256e+03
2.360000e-06	1.581661e-06	1.728357e-08	1.117855e+01	1.132164e+03
2.370000e-06	1.456380e-06	1.674566e-08	1.029312e+01	1.097007e+03
2.380000e-06	1.330626e-06	1.619879e-08	9.404337e+00	1.060710e+03
2.390000e-06	1.204367e-06	1.562831e-08	8.511985e+00	1.023203e+03
2.400000e-06	1.077555e-06	1.503001e-08	7.615731e+00	9.844218e+02
2.410000e-06	9.502385e-07	1.441055e-08	6.715908e+00	9.443184e+02
2.420000e-06	8.225710e-07	1.378565e-08	5.813605e+00	9.028616e+02
2.430000e-06	6.946042e-07	1.314767e-08	4.909187e+00	8.600381e+02
2.440000e-06	5.663406e-07	1.248212e-08	4.002671e+00	8.158495e+02
2.450000e-06	4.379043e-07	1.177925e-08	3.094934e+00	7.703063e+02
2.460000e-06	3.093793e-07	1.105349e-08	2.186570e+00	7.234187e+02
2.470000e-06	1.807376e-07	1.032520e-08	1.277382e+00	6.751870e+02
2.480000e-06	5.202212e-08	9.585822e-09	3.676717e-01	6.255912e+02
2.490000e-06	-7.671366e-08	8.808402e-09	-5.421817e-01	5.745827e+02
2.500000e-06	-2.054376e-07	7.984536e-09	-1.451951e+00	5.220796e+02
2.510000e-06	-3.341376e-07	7.140095e-09	-2.361552e+00	4.679658e+02
2.520000e-06	-4.627480e-07	6.294512e-09	-3.270519e+00	4.120969e+02
2.530000e-06	-5.912322e-07	5.430318e-09	-4.178594e+00	3.543108e+02
2.540000e-06	-7.195673e-07	4.517560e-09	-5.085616e+00	2.944442e+02
2.550000e-06	-8.476808e-07	3.552687e-09	-5.991071e+00	2.323526e+02
2.560000e-06	-9.754871e-07	2.564326e-09	-6.894355e+00	1.679327e+02
2.570000e-06	-1.102852e-06	1.570060e-09	-7.794522e+00	1.011444e+02
2.580000e-06	-1.229674e-06	5.469911e-10	-8.690851e+00	3.203010e+01
2.590000e-06	-1.355880e-06	-5.363063e-10	-9.582819e+00	-3.927119e+01
2.600000e-06	-1.481500e-06	-1.674655e-09	-1.047065e+01	-1.125166e+02
2.610000e-06	-1.606643e-06	-2.827598e-09	-1.135511e+01	-1.873603e+02
2.620000e-06	-1.731262e-06	-3.973166e-09	-1.223587e+01	-2.633635e+02
2.630000e-06	-1.855177e-06	-5.133761e-09	-1.311165e+01	-3.400126e+02
2.640000e-06	-1.978310e-06	-6.328651e-09	-1.398191e+01	-4.167430e+02
2.650000e-06	-2.100672e-06	-7.527781e-09	-1.484672e+01	-4.929696e+02
2.660000e-06	-2.222222e-06	-8.680785e-09	-1.570578e+01	-5.681170e+02
2.670000e-06	-2.342993e-06	-9.778737e-09	-1.655934e+01	-6.416506e+02
2.680000e-06	-2.462981e-06	-1.085251e-08	-1.740737e+01	-7.131025e+02
2.690000e-06	-2.581978e-06	-1.191603e-08	-1.824840e+01	-7.820929e+02
2.700000e-06	-2.699808e-06	-1.294135e-08	-1.908117e+01	-8.483423e+02
2.710000e-06	-2.816533e-06	-1.389786e-08	-1.990614e+01	-9.116760e+02
2.720000e-06	-2.932140e-06	-1.479498e-08	-2.072320e+01	-9.720203e+02
2.730000e-06	-3.046534e-06	-1.566592e-08	-2.153169e+01	-1.029391e+03
2.740000e-06	-3.159644e-06	-1.652028e-08	-2.233111e+01	-1.083877e+03
2.750000e-06	-3.271447e-06	-1.733180e-08	-2.312129e+01	-1.135617e+03
2.760000e-06	-3.381953e-06	-1.807916e-08	-2.390230e+01	-1.184782e+03
2.770000e-06	-3.491211e-06	-1.878019e-08	-2.467449e+01	-1.231551e+03
2.780000e-06	-3.599446e-06	-1.946526e-08	-2.543945e+01	-1.276099e+03
2.790000e-06	-3.706602e-06	-2.013628e-08	-2.619679e+01	-1.318577e+03
2.800000e-06	-3.812533e-06	-2.076796e-08	-2.694547e+01	-1.359114e+03
2.810000e-06	-3.917201e-06	-2.134817e-08	-2.768522e+01	-1.397807e+03
2.820000e-06	-4.020372e-06	-2.189674e-08	-2.841439e+01	-1.434730e+03
2.830000e-06	-4.121975e-06	-2.243739e-08	-2.913248e+01	-1.469938e+03
2.840000e-06	-4.222106e-06	-2.296511e-08	-2.984017e+01	-1.503477e+03
2.850000e-06	-4.320822e-06	-2.345604e-08	-3.053785e+01	-1.535388e+03
2.860000e-06	-4.418088e-06	-2.390492e-08	-3.122529e+01	-1.565721e+03
2.870000e-06	-4.513851e-06	-2.433201e-08	-3.190211e+01	-1.594536e+03
2.880000e-06	-4.607959e-06	-2.475510e-08	-3.256722e+01	-1.621907e+03
2.890000e-06	-4.700366e-06	-2.516755e-08	-3.322032e+01	-1.647919e+03
2.900000e-06	-4.791141e-06	-2.555076e-08	-3.386188e+01	-1.672668e+03
2.910000e-06	-4.880201e-06	-2.590146e-08	-3.449132e+01	-1.696251e+03
2.920000e-06	-4.967411e-06	-2.624009e-08	-3.510769e+01	-1.718764e+03
2.930000e-06	-5.052657e-06	-2.657997e-08	-3.571018e+01	-1.740291e+03
2.940000e-06	-5.136096e-06	-2.690932e-08	-3.629989e+01	-1.760905e+03
