# Temperatura_=_20.0
# Concentracion g/m^3_=_12600.0
# C_Vs_to_Am_M_A/Vsm_=_65563218390.804596
# pendiente_HvsI_1/m_=_3716.3
# ordenada_HvsI_A/m_=_1297.0
# frecuencia_Hz_=_302083.9569745723

Tiempo_(s)	Campo_(V.s)	Magnetizacion_(V.s)	Campo_(kA/m)	Magnetizacion_(A/m)
0.000000e+00	-6.754476e-06	-2.686830e-08	-4.742966e+01	-1.759031e+03
1.000000e-08	-6.750796e-06	-2.686012e-08	-4.740381e+01	-1.758508e+03
2.000000e-08	-6.744909e-06	-2.684551e-08	-4.736248e+01	-1.757624e+03
3.000000e-08	-6.736892e-06	-2.682887e-08	-4.730618e+01	-1.756376e+03
4.000000e-08	-6.726486e-06	-2.680598e-08	-4.723311e+01	-1.754771e+03
5.000000e-08	-6.713519e-06	-2.677665e-08	-4.714206e+01	-1.752831e+03
6.000000e-08	-6.698093e-06	-2.674165e-08	-4.703374e+01	-1.750585e+03
7.000000e-08	-6.680447e-06	-2.669489e-08	-4.690983e+01	-1.748074e+03
8.000000e-08	-6.660745e-06	-2.667271e-08	-4.677148e+01	-1.745342e+03
9.000000e-08	-6.638752e-06	-2.668960e-08	-4.661705e+01	-1.742436e+03
1.000000e-07	-6.614107e-06	-2.662942e-08	-4.644400e+01	-1.739396e+03
1.100000e-07	-6.586703e-06	-2.652752e-08	-4.625156e+01	-1.736257e+03
1.200000e-07	-6.556912e-06	-2.645096e-08	-4.604237e+01	-1.733040e+03
1.300000e-07	-6.525148e-06	-2.636126e-08	-4.581932e+01	-1.729748e+03
1.400000e-07	-6.491503e-06	-2.629542e-08	-4.558307e+01	-1.726372e+03
1.500000e-07	-6.456013e-06	-2.635633e-08	-4.533386e+01	-1.722885e+03
1.600000e-07	-6.418564e-06	-2.628327e-08	-4.507090e+01	-1.719246e+03
1.700000e-07	-6.378988e-06	-2.610968e-08	-4.479299e+01	-1.715406e+03
1.800000e-07	-6.337101e-06	-2.614689e-08	-4.449887e+01	-1.711308e+03
1.900000e-07	-6.292723e-06	-2.604510e-08	-4.418725e+01	-1.706895e+03
2.000000e-07	-6.245938e-06	-2.595213e-08	-4.385873e+01	-1.702115e+03
2.100000e-07	-6.196685e-06	-2.591903e-08	-4.351287e+01	-1.696922e+03
2.200000e-07	-6.144819e-06	-2.573895e-08	-4.314867e+01	-1.691284e+03
2.300000e-07	-6.090580e-06	-2.565968e-08	-4.276781e+01	-1.685182e+03
2.400000e-07	-6.034039e-06	-2.559665e-08	-4.237078e+01	-1.678609e+03
2.500000e-07	-5.975158e-06	-2.549090e-08	-4.195732e+01	-1.671573e+03
2.600000e-07	-5.914066e-06	-2.537322e-08	-4.152833e+01	-1.664093e+03
2.700000e-07	-5.850815e-06	-2.520935e-08	-4.108418e+01	-1.656195e+03
2.800000e-07	-5.785461e-06	-2.509460e-08	-4.062527e+01	-1.647910e+03
2.900000e-07	-5.717900e-06	-2.499942e-08	-4.015086e+01	-1.639269e+03
3.000000e-07	-5.648208e-06	-2.487693e-08	-3.966149e+01	-1.630299e+03
3.100000e-07	-5.576436e-06	-2.469407e-08	-3.915751e+01	-1.621023e+03
3.200000e-07	-5.502392e-06	-2.452459e-08	-3.863757e+01	-1.611454e+03
3.300000e-07	-5.426045e-06	-2.441786e-08	-3.810147e+01	-1.601598e+03
3.400000e-07	-5.347486e-06	-2.426431e-08	-3.754983e+01	-1.591449e+03
3.500000e-07	-5.266890e-06	-2.410619e-08	-3.698389e+01	-1.580998e+03
3.600000e-07	-5.184433e-06	-2.392738e-08	-3.640488e+01	-1.570224e+03
3.700000e-07	-5.100293e-06	-2.373924e-08	-3.581405e+01	-1.559107e+03
3.800000e-07	-5.014532e-06	-2.357714e-08	-3.521184e+01	-1.547622e+03
3.900000e-07	-4.927110e-06	-2.339960e-08	-3.459796e+01	-1.535747e+03
4.000000e-07	-4.838011e-06	-2.320704e-08	-3.397232e+01	-1.523461e+03
4.100000e-07	-4.747142e-06	-2.299819e-08	-3.333424e+01	-1.510748e+03
4.200000e-07	-4.654558e-06	-2.280159e-08	-3.268412e+01	-1.497596e+03
4.300000e-07	-4.560436e-06	-2.260454e-08	-3.202320e+01	-1.484000e+03
4.400000e-07	-4.464678e-06	-2.239560e-08	-3.135079e+01	-1.469955e+03
4.500000e-07	-4.367208e-06	-2.217201e-08	-3.066636e+01	-1.455461e+03
4.600000e-07	-4.268123e-06	-2.193566e-08	-2.997059e+01	-1.440521e+03
4.700000e-07	-4.167555e-06	-2.170863e-08	-2.926441e+01	-1.425132e+03
4.800000e-07	-4.065558e-06	-2.147003e-08	-2.854819e+01	-1.409293e+03
4.900000e-07	-3.962081e-06	-2.121949e-08	-2.782158e+01	-1.392997e+03
5.000000e-07	-3.857145e-06	-2.095746e-08	-2.708471e+01	-1.376233e+03
5.100000e-07	-3.750745e-06	-2.068982e-08	-2.633758e+01	-1.358985e+03
5.200000e-07	-3.642927e-06	-2.041915e-08	-2.558049e+01	-1.341231e+03
5.300000e-07	-3.533814e-06	-2.014216e-08	-2.481430e+01	-1.322947e+03
5.400000e-07	-3.423451e-06	-1.985835e-08	-2.403934e+01	-1.304106e+03
5.500000e-07	-3.311799e-06	-1.956103e-08	-2.325532e+01	-1.284681e+03
5.600000e-07	-3.198767e-06	-1.925524e-08	-2.246161e+01	-1.264645e+03
5.700000e-07	-3.084263e-06	-1.893793e-08	-2.165757e+01	-1.243977e+03
5.800000e-07	-2.968422e-06	-1.861081e-08	-2.084414e+01	-1.222657e+03
5.900000e-07	-2.851498e-06	-1.827408e-08	-2.002311e+01	-1.200674e+03
6.000000e-07	-2.733613e-06	-1.793108e-08	-1.919532e+01	-1.178018e+03
6.100000e-07	-2.614703e-06	-1.757610e-08	-1.836034e+01	-1.154686e+03
6.200000e-07	-2.494739e-06	-1.720714e-08	-1.751795e+01	-1.130677e+03
6.300000e-07	-2.373853e-06	-1.683160e-08	-1.666910e+01	-1.105989e+03
6.400000e-07	-2.252093e-06	-1.645064e-08	-1.581411e+01	-1.080621e+03
6.500000e-07	-2.129482e-06	-1.605818e-08	-1.495313e+01	-1.054565e+03
6.600000e-07	-2.006101e-06	-1.564857e-08	-1.408676e+01	-1.027809e+03
6.700000e-07	-1.881964e-06	-1.522653e-08	-1.321508e+01	-1.000334e+03
6.800000e-07	-1.757147e-06	-1.479311e-08	-1.233861e+01	-9.721113e+02
6.900000e-07	-1.631860e-06	-1.435008e-08	-1.145886e+01	-9.431074e+02
7.000000e-07	-1.506164e-06	-1.389495e-08	-1.057622e+01	-9.132832e+02
7.100000e-07	-1.379990e-06	-1.342327e-08	-9.690237e+00	-8.825969e+02
7.200000e-07	-1.253293e-06	-1.293705e-08	-8.800575e+00	-8.510078e+02
7.300000e-07	-1.126163e-06	-1.244233e-08	-7.907874e+00	-8.184789e+02
7.400000e-07	-9.987059e-07	-1.193624e-08	-7.012872e+00	-7.849802e+02
7.500000e-07	-8.708959e-07	-1.141061e-08	-6.115396e+00	-7.504909e+02
7.600000e-07	-7.427529e-07	-1.086645e-08	-5.215581e+00	-7.149996e+02
7.700000e-07	-6.143561e-07	-1.030888e-08	-4.313984e+00	-6.785044e+02
7.800000e-07	-4.857180e-07	-9.742532e-09	-3.410692e+00	-6.410105e+02
7.900000e-07	-3.568699e-07	-9.160432e-09	-2.505926e+00	-6.025260e+02
8.000000e-07	-2.278496e-07	-8.556940e-09	-1.599950e+00	-5.630579e+02
8.100000e-07	-9.871680e-08	-7.936279e-09	-6.931854e-01	-5.226062e+02
8.200000e-07	3.047090e-08	-7.304717e-09	2.139654e-01	-4.811591e+02
8.300000e-07	1.597158e-07	-6.659484e-09	1.121518e+00	-4.386889e+02
8.400000e-07	2.889395e-07	-5.993867e-09	2.028921e+00	-3.951499e+02
8.500000e-07	4.180687e-07	-5.308144e-09	2.935661e+00	-3.504779e+02
8.600000e-07	5.470923e-07	-4.604379e-09	3.841660e+00	-3.045940e+02
8.700000e-07	6.759693e-07	-3.885940e-09	4.746629e+00	-2.574096e+02
8.800000e-07	8.046421e-07	-3.146856e-09	5.650164e+00	-2.088357e+02
8.900000e-07	9.329984e-07	-2.381496e-09	6.551477e+00	-1.587931e+02
9.000000e-07	1.060962e-06	-1.592667e-09	7.450031e+00	-1.072246e+02
9.100000e-07	1.188539e-06	-7.840786e-10	8.345873e+00	-5.410694e+01
9.200000e-07	1.315706e-06	4.440366e-11	9.238836e+00	5.378408e-01
9.300000e-07	1.442397e-06	8.955777e-10	1.012846e+01	5.663400e+01
9.400000e-07	1.568538e-06	1.769016e-09	1.101421e+01	1.140466e+02
9.500000e-07	1.694168e-06	2.662640e-09	1.189638e+01	1.725803e+02
9.600000e-07	1.819302e-06	3.570791e-09	1.277506e+01	2.319826e+02
9.700000e-07	1.943870e-06	4.486597e-09	1.364977e+01	2.919517e+02
9.800000e-07	2.067705e-06	5.406055e-09	1.451934e+01	3.521487e+02
9.900000e-07	2.190682e-06	6.326625e-09	1.538288e+01	4.122120e+02
1.000000e-06	2.312896e-06	7.239567e-09	1.624106e+01	4.717745e+02
1.010000e-06	2.434302e-06	8.135166e-09	1.709357e+01	5.304811e+02
1.020000e-06	2.554664e-06	9.008097e-09	1.793875e+01	5.880044e+02
1.030000e-06	2.673946e-06	9.856093e-09	1.877634e+01	6.440594e+02
1.040000e-06	2.792270e-06	1.067911e-08	1.960721e+01	6.984134e+02
1.050000e-06	2.909665e-06	1.147460e-08	2.043155e+01	7.508923e+02
1.060000e-06	3.026043e-06	1.224065e-08	2.124875e+01	8.013823e+02
1.070000e-06	3.141187e-06	1.297273e-08	2.205729e+01	8.498270e+02
1.080000e-06	3.255031e-06	1.367458e-08	2.285670e+01	8.962209e+02
1.090000e-06	3.367549e-06	1.435094e-08	2.364679e+01	9.405998e+02
1.100000e-06	3.478710e-06	1.500155e-08	2.442736e+01	9.830300e+02
1.110000e-06	3.588668e-06	1.562114e-08	2.519948e+01	1.023596e+03
1.120000e-06	3.697522e-06	1.620942e-08	2.596385e+01	1.062391e+03
1.130000e-06	3.805247e-06	1.677310e-08	2.672029e+01	1.099507e+03
1.140000e-06	3.911703e-06	1.731578e-08	2.746782e+01	1.135027e+03
1.150000e-06	4.016683e-06	1.783452e-08	2.820499e+01	1.169023e+03
1.160000e-06	4.120113e-06	1.832289e-08	2.893127e+01	1.201554e+03
1.170000e-06	4.222064e-06	1.878710e-08	2.964716e+01	1.232670e+03
1.180000e-06	4.322593e-06	1.923632e-08	3.035308e+01	1.262409e+03
1.190000e-06	4.421624e-06	1.966904e-08	3.104846e+01	1.290808e+03
1.200000e-06	4.518945e-06	2.007908e-08	3.173185e+01	1.317905e+03
1.210000e-06	4.614525e-06	2.046654e-08	3.240301e+01	1.343738e+03
1.220000e-06	4.708513e-06	2.083812e-08	3.306299e+01	1.368357e+03
1.230000e-06	4.800990e-06	2.119894e-08	3.371236e+01	1.391815e+03
1.240000e-06	4.891868e-06	2.154609e-08	3.435050e+01	1.414174e+03
1.250000e-06	4.980891e-06	2.187382e-08	3.497562e+01	1.435499e+03
1.260000e-06	5.067986e-06	2.218261e-08	3.558719e+01	1.455859e+03
1.270000e-06	5.153319e-06	2.248005e-08	3.618640e+01	1.475316e+03
1.280000e-06	5.236953e-06	2.276891e-08	3.677367e+01	1.493931e+03
1.290000e-06	5.318711e-06	2.304248e-08	3.734778e+01	1.511752e+03
1.300000e-06	5.398465e-06	2.329641e-08	3.790780e+01	1.528819e+03
1.310000e-06	5.476241e-06	2.353807e-08	3.845394e+01	1.545160e+03
1.320000e-06	5.551969e-06	2.377457e-08	3.898571e+01	1.560791e+03
1.330000e-06	5.625497e-06	2.400449e-08	3.950202e+01	1.575725e+03
1.340000e-06	5.696918e-06	2.421992e-08	4.000353e+01	1.589964e+03
1.350000e-06	5.766295e-06	2.441942e-08	4.049069e+01	1.603514e+03
1.360000e-06	5.833582e-06	2.460972e-08	4.096318e+01	1.616380e+03
1.370000e-06	5.898685e-06	2.479576e-08	4.142033e+01	1.628572e+03
1.380000e-06	5.961647e-06	2.497455e-08	4.186244e+01	1.640105e+03
1.390000e-06	6.022660e-06	2.514128e-08	4.229088e+01	1.651003e+03
1.400000e-06	6.081715e-06	2.529735e-08	4.270556e+01	1.661292e+03
1.410000e-06	6.138621e-06	2.544783e-08	4.310515e+01	1.671004e+03
1.420000e-06	6.193306e-06	2.559429e-08	4.348914e+01	1.680172e+03
1.430000e-06	6.245696e-06	2.573273e-08	4.385703e+01	1.688824e+03
1.440000e-06	6.295493e-06	2.585882e-08	4.420670e+01	1.696988e+03
1.450000e-06	6.342743e-06	2.597242e-08	4.453849e+01	1.704681e+03
1.460000e-06	6.387765e-06	2.607997e-08	4.485463e+01	1.711917e+03
1.470000e-06	6.430669e-06	2.618293e-08	4.515590e+01	1.718700e+03
1.480000e-06	6.471225e-06	2.627708e-08	4.544068e+01	1.725030e+03
1.490000e-06	6.509457e-06	2.636236e-08	4.570914e+01	1.730901e+03
1.500000e-06	6.545593e-06	2.643948e-08	4.596289e+01	1.736309e+03
1.510000e-06	6.579481e-06	2.651166e-08	4.620085e+01	1.741250e+03
1.520000e-06	6.610949e-06	2.658064e-08	4.642181e+01	1.745727e+03
1.530000e-06	6.640117e-06	2.664339e-08	4.662663e+01	1.749747e+03
1.540000e-06	6.667030e-06	2.669832e-08	4.681562e+01	1.753325e+03
1.550000e-06	6.691422e-06	2.674710e-08	4.698690e+01	1.756483e+03
1.560000e-06	6.713287e-06	2.679166e-08	4.714043e+01	1.759249e+03
1.570000e-06	6.732883e-06	2.683126e-08	4.727803e+01	1.761651e+03
1.580000e-06	6.750137e-06	2.686519e-08	4.739919e+01	1.763720e+03
1.590000e-06	6.764851e-06	2.689308e-08	4.750251e+01	1.765478e+03
1.600000e-06	6.776999e-06	2.691374e-08	4.758781e+01	1.766946e+03
1.610000e-06	6.786514e-06	2.692789e-08	4.765463e+01	1.768133e+03
1.620000e-06	6.793435e-06	2.693800e-08	4.770322e+01	1.769039e+03
1.630000e-06	6.797994e-06	2.694574e-08	4.773524e+01	1.769657e+03
1.640000e-06	6.800203e-06	2.695075e-08	4.775075e+01	1.769971e+03
1.650000e-06	6.799951e-06	2.695152e-08	4.774898e+01	1.769964e+03
1.660000e-06	6.797379e-06	2.694237e-08	4.773092e+01	1.769615e+03
1.670000e-06	6.792665e-06	2.692957e-08	4.769782e+01	1.768911e+03
1.680000e-06	6.785614e-06	2.691358e-08	4.764831e+01	1.767842e+03
1.690000e-06	6.776292e-06	2.689392e-08	4.758285e+01	1.766412e+03
1.700000e-06	6.764889e-06	2.687394e-08	4.750278e+01	1.764634e+03
1.710000e-06	6.751135e-06	2.685384e-08	4.740620e+01	1.762534e+03
1.720000e-06	6.735025e-06	2.684045e-08	4.729308e+01	1.760148e+03
1.730000e-06	6.716833e-06	2.678361e-08	4.716533e+01	1.757519e+03
1.740000e-06	6.696238e-06	2.667340e-08	4.702071e+01	1.754692e+03
1.750000e-06	6.672506e-06	2.664553e-08	4.685407e+01	1.751712e+03
1.760000e-06	6.645725e-06	2.663461e-08	4.666601e+01	1.748618e+03
1.770000e-06	6.616588e-06	2.660828e-08	4.646142e+01	1.745436e+03
1.780000e-06	6.585422e-06	2.662174e-08	4.624257e+01	1.742179e+03
1.790000e-06	6.552613e-06	2.648185e-08	4.601218e+01	1.738846e+03
1.800000e-06	6.518206e-06	2.628814e-08	4.577058e+01	1.735416e+03
1.810000e-06	6.481517e-06	2.638339e-08	4.551295e+01	1.731857e+03
1.820000e-06	6.442488e-06	2.636611e-08	4.523889e+01	1.728123e+03
1.830000e-06	6.401402e-06	2.632042e-08	4.495039e+01	1.724159e+03
1.840000e-06	6.358112e-06	2.631921e-08	4.464640e+01	1.719908e+03
1.850000e-06	6.312662e-06	2.608640e-08	4.432726e+01	1.715315e+03
1.860000e-06	6.264903e-06	2.611184e-08	4.399189e+01	1.710332e+03
1.870000e-06	6.214715e-06	2.610163e-08	4.363948e+01	1.704918e+03
1.880000e-06	6.162125e-06	2.591411e-08	4.327019e+01	1.699047e+03
1.890000e-06	6.106833e-06	2.582836e-08	4.288194e+01	1.692707e+03
1.900000e-06	6.049178e-06	2.565713e-08	4.247708e+01	1.685899e+03
1.910000e-06	5.989470e-06	2.562934e-08	4.205782e+01	1.678636e+03
1.920000e-06	5.927536e-06	2.555838e-08	4.162292e+01	1.670941e+03
1.930000e-06	5.863306e-06	2.533668e-08	4.117190e+01	1.662844e+03
1.940000e-06	5.796829e-06	2.522951e-08	4.070510e+01	1.654375e+03
1.950000e-06	5.728316e-06	2.508683e-08	4.022401e+01	1.645564e+03
1.960000e-06	5.657568e-06	2.501491e-08	3.972722e+01	1.636437e+03
1.970000e-06	5.584502e-06	2.484750e-08	3.921415e+01	1.627011e+03
1.980000e-06	5.509335e-06	2.467111e-08	3.868632e+01	1.617296e+03
1.990000e-06	5.432056e-06	2.455212e-08	3.814368e+01	1.607293e+03
2.000000e-06	5.352743e-06	2.435649e-08	3.758674e+01	1.596993e+03
2.010000e-06	5.271447e-06	2.424196e-08	3.701589e+01	1.586380e+03
2.020000e-06	5.188302e-06	2.405682e-08	3.643204e+01	1.575436e+03
2.030000e-06	5.103390e-06	2.387356e-08	3.583580e+01	1.564136e+03
2.040000e-06	5.016528e-06	2.369371e-08	3.522586e+01	1.552456e+03
2.050000e-06	4.927799e-06	2.350076e-08	3.460281e+01	1.540376e+03
2.060000e-06	4.837502e-06	2.333962e-08	3.396874e+01	1.527876e+03
2.070000e-06	4.745680e-06	2.312317e-08	3.332398e+01	1.514943e+03
2.080000e-06	4.652213e-06	2.292046e-08	3.266765e+01	1.501567e+03
2.090000e-06	4.557047e-06	2.269736e-08	3.199940e+01	1.487745e+03
2.100000e-06	4.460247e-06	2.249443e-08	3.131967e+01	1.473473e+03
2.110000e-06	4.361956e-06	2.227969e-08	3.062948e+01	1.458754e+03
2.120000e-06	4.262167e-06	2.204516e-08	2.992876e+01	1.443587e+03
2.130000e-06	4.160828e-06	2.180792e-08	2.921717e+01	1.427972e+03
2.140000e-06	4.057873e-06	2.155036e-08	2.849422e+01	1.411904e+03
2.150000e-06	3.953345e-06	2.130931e-08	2.776023e+01	1.395374e+03
2.160000e-06	3.847498e-06	2.105418e-08	2.701698e+01	1.378368e+03
2.170000e-06	3.740432e-06	2.079054e-08	2.626516e+01	1.360867e+03
2.180000e-06	3.632068e-06	2.050230e-08	2.550424e+01	1.342850e+03
2.190000e-06	3.522362e-06	2.021690e-08	2.473388e+01	1.324289e+03
2.200000e-06	3.411318e-06	1.993210e-08	2.395413e+01	1.305157e+03
2.210000e-06	3.298885e-06	1.963737e-08	2.316464e+01	1.285427e+03
2.220000e-06	3.185101e-06	1.932454e-08	2.236565e+01	1.265076e+03
2.230000e-06	3.070020e-06	1.899804e-08	2.155756e+01	1.244082e+03
2.240000e-06	2.953694e-06	1.866532e-08	2.074072e+01	1.222429e+03
2.250000e-06	2.836257e-06	1.832369e-08	1.991608e+01	1.200108e+03
2.260000e-06	2.717703e-06	1.797953e-08	1.908360e+01	1.177113e+03
2.270000e-06	2.598006e-06	1.762252e-08	1.824309e+01	1.153440e+03
2.280000e-06	2.477239e-06	1.725368e-08	1.739508e+01	1.129090e+03
2.290000e-06	2.355572e-06	1.686637e-08	1.654073e+01	1.104060e+03
2.300000e-06	2.233215e-06	1.647273e-08	1.568155e+01	1.078347e+03
2.310000e-06	2.110213e-06	1.607576e-08	1.481783e+01	1.051941e+03
2.320000e-06	1.986473e-06	1.567073e-08	1.394893e+01	1.024827e+03
2.330000e-06	1.861989e-06	1.524120e-08	1.307481e+01	9.969794e+02
2.340000e-06	1.736840e-06	1.479003e-08	1.219602e+01	9.683687e+02
2.350000e-06	1.611086e-06	1.433618e-08	1.131298e+01	9.389576e+02
2.360000e-06	1.484822e-06	1.388575e-08	1.042636e+01	9.087055e+02
2.370000e-06	1.358109e-06	1.341939e-08	9.536583e+00	8.775707e+02
2.380000e-06	1.230945e-06	1.291843e-08	8.643644e+00	8.455138e+02
2.390000e-06	1.103340e-06	1.240347e-08	7.747611e+00	8.125012e+02
2.400000e-06	9.753626e-07	1.189468e-08	6.848957e+00	7.785071e+02
2.410000e-06	8.470487e-07	1.138164e-08	5.947941e+00	7.435155e+02
2.420000e-06	7.184105e-07	1.083393e-08	5.044649e+00	7.075199e+02
2.430000e-06	5.895241e-07	1.025356e-08	4.139614e+00	6.705224e+02
2.440000e-06	4.604268e-07	9.668708e-09	3.233099e+00	6.325300e+02
2.450000e-06	3.311622e-07	9.087898e-09	2.325407e+00	5.935511e+02
2.460000e-06	2.017674e-07	8.489262e-09	1.416803e+00	5.535897e+02
2.470000e-06	7.224344e-08	7.853873e-09	5.072905e-01	5.126406e+02
2.480000e-06	-5.731180e-08	7.195736e-09	-4.024412e-01	4.706845e+02
2.490000e-06	-1.868317e-07	6.538989e-09	-1.311925e+00	4.276847e+02
2.500000e-06	-3.163122e-07	5.880986e-09	-2.221131e+00	3.835861e+02
2.510000e-06	-4.456654e-07	5.195343e-09	-3.129445e+00	3.383167e+02
2.520000e-06	-5.748959e-07	4.472311e-09	-4.036896e+00	2.917919e+02
2.530000e-06	-7.040432e-07	3.733084e-09	-4.943763e+00	2.439214e+02
2.540000e-06	-8.329368e-07	2.989518e-09	-5.848849e+00	1.946199e+02
2.550000e-06	-9.614825e-07	2.226404e-09	-6.751491e+00	1.438175e+02
2.560000e-06	-1.089603e-06	1.426070e-09	-7.651147e+00	9.147269e+01
2.570000e-06	-1.217242e-06	5.957037e-10	-8.547422e+00	3.758347e+01
2.580000e-06	-1.344430e-06	-2.458684e-10	-9.440531e+00	-1.780217e+01
2.590000e-06	-1.471196e-06	-1.098982e-09	-1.033068e+01	-7.457931e+01
2.600000e-06	-1.597517e-06	-1.976628e-09	-1.121770e+01	-1.325826e+02
2.610000e-06	-1.723208e-06	-2.881796e-09	-1.210030e+01	-1.915876e+02
2.620000e-06	-1.848100e-06	-3.801322e-09	-1.297728e+01	-2.513158e+02
2.630000e-06	-1.972167e-06	-4.722710e-09	-1.384847e+01	-3.114451e+02
2.640000e-06	-2.095438e-06	-5.642124e-09	-1.471408e+01	-3.716233e+02
2.650000e-06	-2.217940e-06	-6.559723e-09	-1.557429e+01	-4.314838e+02
2.660000e-06	-2.339673e-06	-7.470614e-09	-1.642909e+01	-4.906634e+02
2.670000e-06	-2.460557e-06	-8.364333e-09	-1.727793e+01	-5.488190e+02
2.680000e-06	-2.580468e-06	-9.230407e-09	-1.811994e+01	-6.056428e+02
2.690000e-06	-2.699406e-06	-1.006685e-08	-1.895512e+01	-6.608749e+02
2.700000e-06	-2.817270e-06	-1.087746e-08	-1.978275e+01	-7.143114e+02
2.710000e-06	-2.933827e-06	-1.166262e-08	-2.060122e+01	-7.658085e+02
2.720000e-06	-3.049173e-06	-1.241960e-08	-2.141117e+01	-8.152816e+02
2.730000e-06	-3.163385e-06	-1.314424e-08	-2.221316e+01	-8.627008e+02
2.740000e-06	-3.276297e-06	-1.383607e-08	-2.300602e+01	-9.080826e+02
2.750000e-06	-3.387806e-06	-1.449956e-08	-2.378904e+01	-9.514795e+02
2.760000e-06	-3.497974e-06	-1.514052e-08	-2.456263e+01	-9.929685e+02
2.770000e-06	-3.606978e-06	-1.575737e-08	-2.532805e+01	-1.032640e+03
2.780000e-06	-3.714933e-06	-1.634388e-08	-2.608611e+01	-1.070586e+03
2.790000e-06	-3.821749e-06	-1.689882e-08	-2.683617e+01	-1.106896e+03
2.800000e-06	-3.927293e-06	-1.743042e-08	-2.757729e+01	-1.141648e+03
2.810000e-06	-4.031431e-06	-1.794625e-08	-2.830855e+01	-1.174907e+03
2.820000e-06	-4.133999e-06	-1.843849e-08	-2.902877e+01	-1.206727e+03
2.830000e-06	-4.234974e-06	-1.889807e-08	-2.973782e+01	-1.237152e+03
2.840000e-06	-4.334511e-06	-1.933124e-08	-3.043676e+01	-1.266219e+03
2.850000e-06	-4.432596e-06	-1.975231e-08	-3.112551e+01	-1.293964e+03
2.860000e-06	-4.529190e-06	-2.016316e-08	-3.180379e+01	-1.320425e+03
2.870000e-06	-4.624184e-06	-2.055269e-08	-3.247084e+01	-1.345647e+03
2.880000e-06	-4.717388e-06	-2.091431e-08	-3.312531e+01	-1.369680e+03
2.890000e-06	-4.808905e-06	-2.125658e-08	-3.376794e+01	-1.392583e+03
2.900000e-06	-4.898801e-06	-2.159330e-08	-3.439918e+01	-1.414419e+03
2.910000e-06	-4.986961e-06	-2.192157e-08	-3.501824e+01	-1.435255e+03
2.920000e-06	-5.073134e-06	-2.222823e-08	-3.562334e+01	-1.455158e+03
2.930000e-06	-5.157384e-06	-2.251408e-08	-3.621494e+01	-1.474189e+03
2.940000e-06	-5.239909e-06	-2.279123e-08	-3.679443e+01	-1.492404e+03
