# Temperatura_=_20.0
# Concentracion g/m^3_=_12600.0
# C_Vs_to_Am_M_A/Vsm_=_65563218390.804596
# pendiente_HvsI_1/m_=_3716.3
# ordenada_HvsI_A/m_=_1297.0
# frecuencia_Hz_=_302077.98381336237

Tiempo_(s)	Campo_(V.s)	Magnetizacion_(V.s)	Campo_(kA/m)	Magnetizacion_(A/m)
0.000000e+00	-6.774606e-06	-3.073881e-08	-4.744644e+01	-2.013081e+03
1.000000e-08	-6.772543e-06	-3.073517e-08	-4.743199e+01	-2.012710e+03
2.000000e-08	-6.768089e-06	-3.072050e-08	-4.740080e+01	-2.011934e+03
3.000000e-08	-6.761584e-06	-3.070452e-08	-4.735523e+01	-2.010748e+03
4.000000e-08	-6.752979e-06	-3.068562e-08	-4.729497e+01	-2.009162e+03
5.000000e-08	-6.741955e-06	-3.065514e-08	-4.721776e+01	-2.007200e+03
6.000000e-08	-6.728384e-06	-3.062219e-08	-4.712272e+01	-2.004899e+03
7.000000e-08	-6.712345e-06	-3.057609e-08	-4.701039e+01	-2.002307e+03
8.000000e-08	-6.694133e-06	-3.052153e-08	-4.688284e+01	-1.999478e+03
9.000000e-08	-6.673922e-06	-3.054428e-08	-4.674129e+01	-1.996466e+03
1.000000e-07	-6.651237e-06	-3.057551e-08	-4.658242e+01	-1.993320e+03
1.100000e-07	-6.625769e-06	-3.045545e-08	-4.640404e+01	-1.990080e+03
1.200000e-07	-6.597660e-06	-3.031843e-08	-4.620718e+01	-1.986770e+03
1.300000e-07	-6.567248e-06	-3.022850e-08	-4.599419e+01	-1.983400e+03
1.400000e-07	-6.534877e-06	-3.011226e-08	-4.576748e+01	-1.979958e+03
1.500000e-07	-6.500656e-06	-3.009269e-08	-4.552781e+01	-1.976416e+03
1.600000e-07	-6.464567e-06	-3.025204e-08	-4.527506e+01	-1.972732e+03
1.700000e-07	-6.426463e-06	-2.999140e-08	-4.500819e+01	-1.968851e+03
1.800000e-07	-6.386283e-06	-2.986031e-08	-4.472679e+01	-1.964712e+03
1.900000e-07	-6.343703e-06	-2.999403e-08	-4.442857e+01	-1.960249e+03
2.000000e-07	-6.298615e-06	-2.976847e-08	-4.411280e+01	-1.955404e+03
2.100000e-07	-6.251278e-06	-2.977106e-08	-4.378127e+01	-1.950124e+03
2.200000e-07	-6.201280e-06	-2.964949e-08	-4.343111e+01	-1.944367e+03
2.300000e-07	-6.148643e-06	-2.943323e-08	-4.306246e+01	-1.938105e+03
2.400000e-07	-6.093766e-06	-2.944390e-08	-4.267812e+01	-1.931324e+03
2.500000e-07	-6.036521e-06	-2.932347e-08	-4.227721e+01	-1.924026e+03
2.600000e-07	-5.976909e-06	-2.921151e-08	-4.185971e+01	-1.916222e+03
2.700000e-07	-5.915149e-06	-2.906130e-08	-4.142717e+01	-1.907937e+03
2.800000e-07	-5.851324e-06	-2.887858e-08	-4.098017e+01	-1.899199e+03
2.900000e-07	-5.785277e-06	-2.878845e-08	-4.051760e+01	-1.890041e+03
3.000000e-07	-5.717055e-06	-2.868424e-08	-4.003980e+01	-1.880496e+03
3.100000e-07	-5.646774e-06	-2.854808e-08	-3.954758e+01	-1.870592e+03
3.200000e-07	-5.574266e-06	-2.829200e-08	-3.903977e+01	-1.860351e+03
3.300000e-07	-5.499425e-06	-2.815389e-08	-3.851561e+01	-1.849788e+03
3.400000e-07	-5.422285e-06	-2.804800e-08	-3.797536e+01	-1.838907e+03
3.500000e-07	-5.342958e-06	-2.785869e-08	-3.741979e+01	-1.827703e+03
3.600000e-07	-5.261655e-06	-2.769426e-08	-3.685038e+01	-1.816164e+03
3.700000e-07	-5.178607e-06	-2.746845e-08	-3.626874e+01	-1.804268e+03
3.800000e-07	-5.093899e-06	-2.728460e-08	-3.567549e+01	-1.791991e+03
3.900000e-07	-5.007561e-06	-2.710749e-08	-3.507081e+01	-1.779305e+03
4.000000e-07	-4.919565e-06	-2.691802e-08	-3.445453e+01	-1.766183e+03
4.100000e-07	-4.829759e-06	-2.669366e-08	-3.382556e+01	-1.752598e+03
4.200000e-07	-4.738116e-06	-2.644934e-08	-3.318373e+01	-1.738530e+03
4.300000e-07	-4.644864e-06	-2.623621e-08	-3.253064e+01	-1.723964e+03
4.400000e-07	-4.550086e-06	-2.602663e-08	-3.186685e+01	-1.708889e+03
4.500000e-07	-4.453667e-06	-2.580846e-08	-3.119158e+01	-1.693302e+03
4.600000e-07	-4.355496e-06	-2.554063e-08	-3.050403e+01	-1.677202e+03
4.700000e-07	-4.255715e-06	-2.526797e-08	-2.980520e+01	-1.660593e+03
4.800000e-07	-4.154421e-06	-2.502089e-08	-2.909578e+01	-1.643475e+03
4.900000e-07	-4.051768e-06	-2.477434e-08	-2.837684e+01	-1.625849e+03
5.000000e-07	-3.947791e-06	-2.450474e-08	-2.764864e+01	-1.607709e+03
5.100000e-07	-3.842232e-06	-2.419755e-08	-2.690935e+01	-1.589045e+03
5.200000e-07	-3.735111e-06	-2.388378e-08	-2.615912e+01	-1.569836e+03
5.300000e-07	-3.626675e-06	-2.358792e-08	-2.539968e+01	-1.550056e+03
5.400000e-07	-3.516996e-06	-2.330078e-08	-2.463153e+01	-1.529673e+03
5.500000e-07	-3.406082e-06	-2.298436e-08	-2.385474e+01	-1.508650e+03
5.600000e-07	-3.293868e-06	-2.262976e-08	-2.306884e+01	-1.486949e+03
5.700000e-07	-3.180209e-06	-2.227465e-08	-2.227282e+01	-1.464534e+03
5.800000e-07	-3.065107e-06	-2.193717e-08	-2.146670e+01	-1.441372e+03
5.900000e-07	-2.948687e-06	-2.159001e-08	-2.065134e+01	-1.417439e+03
6.000000e-07	-2.831108e-06	-2.120897e-08	-1.982787e+01	-1.392717e+03
6.100000e-07	-2.712607e-06	-2.080154e-08	-1.899794e+01	-1.367198e+03
6.200000e-07	-2.593297e-06	-2.039248e-08	-1.816234e+01	-1.340878e+03
6.300000e-07	-2.472920e-06	-1.999199e-08	-1.731927e+01	-1.313761e+03
6.400000e-07	-2.351466e-06	-1.958708e-08	-1.646866e+01	-1.285847e+03
6.500000e-07	-2.229104e-06	-1.915016e-08	-1.561169e+01	-1.257137e+03
6.600000e-07	-2.105860e-06	-1.868504e-08	-1.474854e+01	-1.227620e+03
6.700000e-07	-1.981838e-06	-1.821958e-08	-1.387995e+01	-1.197278e+03
6.800000e-07	-1.857218e-06	-1.775994e-08	-1.300716e+01	-1.166078e+03
6.900000e-07	-1.732047e-06	-1.728085e-08	-1.213052e+01	-1.133975e+03
7.000000e-07	-1.606270e-06	-1.676549e-08	-1.124963e+01	-1.100912e+03
7.100000e-07	-1.479998e-06	-1.623072e-08	-1.036527e+01	-1.066826e+03
7.200000e-07	-1.353364e-06	-1.568834e-08	-9.478379e+00	-1.031648e+03
7.300000e-07	-1.226380e-06	-1.514195e-08	-8.589042e+00	-9.953134e+02
7.400000e-07	-1.099036e-06	-1.457688e-08	-7.697177e+00	-9.577666e+02
7.500000e-07	-9.712372e-07	-1.398169e-08	-6.802129e+00	-9.189635e+02
7.600000e-07	-8.429845e-07	-1.336127e-08	-5.903902e+00	-8.788762e+02
7.700000e-07	-7.143958e-07	-1.273170e-08	-5.003322e+00	-8.374929e+02
7.800000e-07	-5.855228e-07	-1.209879e-08	-4.100751e+00	-7.948153e+02
7.900000e-07	-4.564258e-07	-1.144448e-08	-3.196611e+00	-7.508539e+02
8.000000e-07	-3.271829e-07	-1.075119e-08	-2.291449e+00	-7.056200e+02
8.100000e-07	-1.978335e-07	-1.002696e-08	-1.385541e+00	-6.591178e+02
8.200000e-07	-6.838272e-08	-9.296236e-09	-4.789232e-01	-6.113348e+02
8.300000e-07	6.115506e-08	-8.557979e-09	4.283038e-01	-5.622343e+02
8.400000e-07	1.907632e-07	-7.790994e-09	1.336023e+00	-5.117508e+02
8.500000e-07	3.203084e-07	-6.983578e-09	2.243303e+00	-4.597880e+02
8.600000e-07	4.496916e-07	-6.150811e-09	3.149447e+00	-4.062226e+02
8.700000e-07	5.789477e-07	-5.307689e-09	4.054702e+00	-3.509127e+02
8.800000e-07	7.080145e-07	-4.448992e-09	4.958630e+00	-2.937104e+02
8.900000e-07	8.368555e-07	-3.551175e-09	5.860977e+00	-2.344792e+02
9.000000e-07	9.654449e-07	-2.604784e-09	6.761562e+00	-1.731128e+02
9.100000e-07	1.093634e-06	-1.629277e-09	7.659345e+00	-1.095550e+02
9.200000e-07	1.221307e-06	-6.385132e-10	8.553511e+00	-4.381769e+01
9.300000e-07	1.348564e-06	3.751118e-10	9.444763e+00	2.400450e+01
9.400000e-07	1.475475e-06	1.432535e-09	1.033360e+01	9.372538e+01
9.500000e-07	1.601910e-06	2.533323e-09	1.121909e+01	1.650651e+02
9.600000e-07	1.727775e-06	3.651983e-09	1.210059e+01	2.376553e+02
9.700000e-07	1.853040e-06	4.765955e-09	1.297790e+01	3.110525e+02
9.800000e-07	1.977686e-06	5.880692e-09	1.385086e+01	3.847568e+02
9.900000e-07	2.101674e-06	7.009204e-09	1.471922e+01	4.582366e+02
1.000000e-06	2.224957e-06	8.138026e-09	1.558264e+01	5.309562e+02
1.010000e-06	2.347415e-06	9.234666e-09	1.644029e+01	6.024028e+02
1.020000e-06	2.468857e-06	1.028242e-08	1.729082e+01	6.721127e+02
1.030000e-06	2.589221e-06	1.129863e-08	1.813379e+01	7.396927e+02
1.040000e-06	2.708583e-06	1.228945e-08	1.896975e+01	8.048350e+02
1.050000e-06	2.827023e-06	1.324371e-08	1.979926e+01	8.673257e+02
1.060000e-06	2.944526e-06	1.414498e-08	2.062220e+01	9.270450e+02
1.070000e-06	3.060975e-06	1.499719e-08	2.143776e+01	9.839612e+02
1.080000e-06	3.176192e-06	1.581729e-08	2.224469e+01	1.038117e+03
1.090000e-06	3.290000e-06	1.661097e-08	2.304175e+01	1.089614e+03
1.100000e-06	3.402437e-06	1.736921e-08	2.382921e+01	1.138593e+03
1.110000e-06	3.513625e-06	1.807914e-08	2.460793e+01	1.185213e+03
1.120000e-06	3.623624e-06	1.874795e-08	2.537831e+01	1.229637e+03
1.130000e-06	3.732500e-06	1.939269e-08	2.614083e+01	1.272017e+03
1.140000e-06	3.840261e-06	2.001980e-08	2.689554e+01	1.312482e+03
1.150000e-06	3.946694e-06	2.061498e-08	2.764096e+01	1.351138e+03
1.160000e-06	4.051580e-06	2.116905e-08	2.837553e+01	1.388063e+03
1.170000e-06	4.154943e-06	2.169086e-08	2.909944e+01	1.423316e+03
1.180000e-06	4.256840e-06	2.219730e-08	2.981308e+01	1.456940e+03
1.190000e-06	4.357364e-06	2.268781e-08	3.051711e+01	1.488972e+03
1.200000e-06	4.456449e-06	2.315120e-08	3.121106e+01	1.519450e+03
1.210000e-06	4.553754e-06	2.358257e-08	3.189254e+01	1.548420e+03
1.220000e-06	4.649195e-06	2.399397e-08	3.256097e+01	1.575939e+03
1.230000e-06	4.742980e-06	2.439639e-08	3.321780e+01	1.602079e+03
1.240000e-06	4.835270e-06	2.478472e-08	3.386416e+01	1.626923e+03
1.250000e-06	4.925947e-06	2.514959e-08	3.449922e+01	1.650561e+03
1.260000e-06	5.014728e-06	2.549073e-08	3.512100e+01	1.673088e+03
1.270000e-06	5.101596e-06	2.581813e-08	3.572939e+01	1.694594e+03
1.280000e-06	5.186716e-06	2.613787e-08	3.632554e+01	1.715159e+03
1.290000e-06	5.270159e-06	2.644428e-08	3.690993e+01	1.734849e+03
1.300000e-06	5.351715e-06	2.672955e-08	3.748112e+01	1.753717e+03
1.310000e-06	5.431180e-06	2.699584e-08	3.803766e+01	1.771794e+03
1.320000e-06	5.508678e-06	2.725264e-08	3.858042e+01	1.789100e+03
1.330000e-06	5.584199e-06	2.750399e-08	3.910934e+01	1.805641e+03
1.340000e-06	5.657483e-06	2.774540e-08	3.962258e+01	1.821419e+03
1.350000e-06	5.728564e-06	2.797113e-08	4.012041e+01	1.836432e+03
1.360000e-06	5.797653e-06	2.818176e-08	4.060428e+01	1.850683e+03
1.370000e-06	5.864719e-06	2.838371e-08	4.107398e+01	1.864183e+03
1.380000e-06	5.929622e-06	2.857863e-08	4.152853e+01	1.876951e+03
1.390000e-06	5.992382e-06	2.876427e-08	4.196808e+01	1.889017e+03
1.400000e-06	6.053127e-06	2.893693e-08	4.239351e+01	1.900416e+03
1.410000e-06	6.111783e-06	2.909943e-08	4.280431e+01	1.911192e+03
1.420000e-06	6.168270e-06	2.925754e-08	4.319992e+01	1.921384e+03
1.430000e-06	6.222605e-06	2.941282e-08	4.358046e+01	1.931033e+03
1.440000e-06	6.274550e-06	2.956040e-08	4.394426e+01	1.940168e+03
1.450000e-06	6.323838e-06	2.969294e-08	4.428945e+01	1.948812e+03
1.460000e-06	6.370684e-06	2.981165e-08	4.461754e+01	1.956974e+03
1.470000e-06	6.415387e-06	2.992432e-08	4.493062e+01	1.964653e+03
1.480000e-06	6.457846e-06	3.003201e-08	4.522799e+01	1.971842e+03
1.490000e-06	6.497930e-06	3.013063e-08	4.550872e+01	1.978528e+03
1.500000e-06	6.535758e-06	3.021833e-08	4.577365e+01	1.984697e+03
1.510000e-06	6.571461e-06	3.029769e-08	4.602370e+01	1.990342e+03
1.520000e-06	6.604779e-06	3.037448e-08	4.625704e+01	1.995459e+03
1.530000e-06	6.635604e-06	3.044967e-08	4.647292e+01	2.000058e+03
1.540000e-06	6.664219e-06	3.051809e-08	4.667333e+01	2.004156e+03
1.550000e-06	6.690518e-06	3.057583e-08	4.685752e+01	2.007782e+03
1.560000e-06	6.714292e-06	3.062635e-08	4.702402e+01	2.010971e+03
1.570000e-06	6.735661e-06	3.067254e-08	4.717369e+01	2.013762e+03
1.580000e-06	6.754783e-06	3.071258e-08	4.730760e+01	2.016192e+03
1.590000e-06	6.771461e-06	3.074526e-08	4.742441e+01	2.018293e+03
1.600000e-06	6.785594e-06	3.077075e-08	4.752339e+01	2.020089e+03
1.610000e-06	6.797175e-06	3.079060e-08	4.760450e+01	2.021590e+03
1.620000e-06	6.806025e-06	3.080691e-08	4.766648e+01	2.022796e+03
1.630000e-06	6.812375e-06	3.081968e-08	4.771096e+01	2.023695e+03
1.640000e-06	6.816452e-06	3.082742e-08	4.773951e+01	2.024266e+03
1.650000e-06	6.818057e-06	3.082988e-08	4.775075e+01	2.024484e+03
1.660000e-06	6.817168e-06	3.082582e-08	4.774452e+01	2.024323e+03
1.670000e-06	6.814047e-06	3.080834e-08	4.772267e+01	2.023765e+03
1.680000e-06	6.808712e-06	3.079479e-08	4.768530e+01	2.022797e+03
1.690000e-06	6.801077e-06	3.077430e-08	4.763183e+01	2.021423e+03
1.700000e-06	6.791305e-06	3.075259e-08	4.756339e+01	2.019657e+03
1.710000e-06	6.779368e-06	3.073386e-08	4.747979e+01	2.017532e+03
1.720000e-06	6.764947e-06	3.071924e-08	4.737879e+01	2.015089e+03
1.730000e-06	6.748245e-06	3.071429e-08	4.726181e+01	2.012379e+03
1.740000e-06	6.729574e-06	3.059218e-08	4.713105e+01	2.009457e+03
1.750000e-06	6.708333e-06	3.046983e-08	4.698229e+01	2.006376e+03
1.760000e-06	6.683836e-06	3.048374e-08	4.681072e+01	2.003182e+03
1.770000e-06	6.656437e-06	3.046802e-08	4.661883e+01	1.999906e+03
1.780000e-06	6.626726e-06	3.046817e-08	4.641075e+01	1.996568e+03
1.790000e-06	6.595065e-06	3.051588e-08	4.618901e+01	1.993165e+03
1.800000e-06	6.561928e-06	3.018878e-08	4.595693e+01	1.989681e+03
1.810000e-06	6.526993e-06	3.006683e-08	4.571226e+01	1.986079e+03
1.820000e-06	6.489537e-06	3.034057e-08	4.544993e+01	1.982310e+03
1.830000e-06	6.449843e-06	3.014672e-08	4.517193e+01	1.978316e+03
1.840000e-06	6.408093e-06	3.021765e-08	4.487954e+01	1.974033e+03
1.850000e-06	6.364123e-06	3.011428e-08	4.457159e+01	1.969399e+03
1.860000e-06	6.317975e-06	2.981196e-08	4.424839e+01	1.964357e+03
1.870000e-06	6.269427e-06	3.006988e-08	4.390838e+01	1.958859e+03
1.880000e-06	6.218637e-06	2.988270e-08	4.355267e+01	1.952869e+03
1.890000e-06	6.165374e-06	2.970313e-08	4.317964e+01	1.946366e+03
1.900000e-06	6.109330e-06	2.957617e-08	4.278713e+01	1.939343e+03
1.910000e-06	6.051031e-06	2.936499e-08	4.237883e+01	1.931807e+03
1.920000e-06	5.990542e-06	2.949427e-08	4.195519e+01	1.923776e+03
1.930000e-06	5.927698e-06	2.925493e-08	4.151506e+01	1.915276e+03
1.940000e-06	5.862663e-06	2.906137e-08	4.105958e+01	1.906338e+03
1.950000e-06	5.795567e-06	2.893989e-08	4.058967e+01	1.896996e+03
1.960000e-06	5.726428e-06	2.878389e-08	4.010544e+01	1.887280e+03
1.970000e-06	5.654884e-06	2.875603e-08	3.960438e+01	1.877216e+03
1.980000e-06	5.581157e-06	2.845564e-08	3.908803e+01	1.866824e+03
1.990000e-06	5.505442e-06	2.836214e-08	3.855775e+01	1.856112e+03
2.000000e-06	5.427372e-06	2.817326e-08	3.801099e+01	1.845081e+03
2.010000e-06	5.347192e-06	2.797829e-08	3.744944e+01	1.833723e+03
2.020000e-06	5.265186e-06	2.787235e-08	3.687511e+01	1.822020e+03
2.030000e-06	5.181458e-06	2.762280e-08	3.628871e+01	1.809950e+03
2.040000e-06	5.095812e-06	2.747672e-08	3.568888e+01	1.797486e+03
2.050000e-06	5.008234e-06	2.721274e-08	3.507553e+01	1.784599e+03
2.060000e-06	4.918966e-06	2.703856e-08	3.445033e+01	1.771264e+03
2.070000e-06	4.828121e-06	2.685352e-08	3.381409e+01	1.757457e+03
2.080000e-06	4.735748e-06	2.663803e-08	3.316715e+01	1.743158e+03
2.090000e-06	4.641551e-06	2.639829e-08	3.250743e+01	1.728356e+03
2.100000e-06	4.545581e-06	2.610731e-08	3.183530e+01	1.713043e+03
2.110000e-06	4.448099e-06	2.591180e-08	3.115258e+01	1.697216e+03
2.120000e-06	4.349230e-06	2.568568e-08	3.046014e+01	1.680879e+03
2.130000e-06	4.248939e-06	2.546174e-08	2.975775e+01	1.664032e+03
2.140000e-06	4.146959e-06	2.514843e-08	2.904352e+01	1.646678e+03
2.150000e-06	4.043253e-06	2.484592e-08	2.831721e+01	1.628813e+03
2.160000e-06	3.938073e-06	2.459699e-08	2.758058e+01	1.610431e+03
2.170000e-06	3.831650e-06	2.435483e-08	2.683524e+01	1.591515e+03
2.180000e-06	3.724044e-06	2.404854e-08	2.608161e+01	1.572044e+03
2.190000e-06	3.615142e-06	2.367188e-08	2.531891e+01	1.551988e+03
2.200000e-06	3.504823e-06	2.334987e-08	2.454628e+01	1.531312e+03
2.210000e-06	3.393122e-06	2.307278e-08	2.376397e+01	1.509978e+03
2.220000e-06	3.280065e-06	2.277690e-08	2.297217e+01	1.487949e+03
2.230000e-06	3.165698e-06	2.238858e-08	2.217119e+01	1.465190e+03
2.240000e-06	3.050115e-06	2.198681e-08	2.136170e+01	1.441672e+03
2.250000e-06	2.933246e-06	2.162246e-08	2.054320e+01	1.417373e+03
2.260000e-06	2.815053e-06	2.129230e-08	1.971543e+01	1.392281e+03
2.270000e-06	2.695669e-06	2.091163e-08	1.887931e+01	1.366389e+03
2.280000e-06	2.575244e-06	2.046674e-08	1.803590e+01	1.339698e+03
2.290000e-06	2.453950e-06	2.001849e-08	1.718642e+01	1.312209e+03
2.300000e-06	2.331877e-06	1.960487e-08	1.633147e+01	1.283926e+03
2.310000e-06	2.209098e-06	1.919868e-08	1.547157e+01	1.254842e+03
2.320000e-06	2.085710e-06	1.874111e-08	1.460742e+01	1.224944e+03
2.330000e-06	1.961683e-06	1.824423e-08	1.373879e+01	1.194208e+03
2.340000e-06	1.836899e-06	1.774428e-08	1.286485e+01	1.162594e+03
2.350000e-06	1.711375e-06	1.726267e-08	1.198574e+01	1.130052e+03
2.360000e-06	1.585230e-06	1.676738e-08	1.110227e+01	1.096522e+03
2.370000e-06	1.458510e-06	1.623742e-08	1.021478e+01	1.061936e+03
2.380000e-06	1.331280e-06	1.566851e-08	9.323716e+00	1.026227e+03
2.390000e-06	1.203647e-06	1.508930e-08	8.429828e+00	9.893357e+02
2.400000e-06	1.075608e-06	1.452000e-08	7.533095e+00	9.512092e+02
2.410000e-06	9.471303e-07	1.394480e-08	6.633294e+00	9.118115e+02
2.420000e-06	8.183141e-07	1.333330e-08	5.731121e+00	8.711222e+02
2.430000e-06	6.892597e-07	1.267379e-08	4.827279e+00	8.291362e+02
2.440000e-06	5.600540e-07	1.200001e-08	3.922378e+00	7.858601e+02
2.450000e-06	4.307219e-07	1.133567e-08	3.016592e+00	7.413058e+02
2.460000e-06	3.012478e-07	1.066452e-08	2.109810e+00	6.954825e+02
2.470000e-06	1.716788e-07	9.947895e-09	1.202364e+00	6.483876e+02
2.480000e-06	4.203294e-08	9.177318e-09	2.943807e-01	5.999983e+02
2.490000e-06	-8.767780e-08	8.394025e-09	-6.140577e-01	5.502649e+02
2.500000e-06	-2.173590e-07	7.627661e-09	-1.522289e+00	4.991074e+02
2.510000e-06	-3.470083e-07	6.852330e-09	-2.430297e+00	4.464164e+02
2.520000e-06	-4.765767e-07	6.015738e-09	-3.337739e+00	3.920585e+02
2.530000e-06	-6.059790e-07	5.121703e-09	-4.244017e+00	3.358872e+02
2.540000e-06	-7.352453e-07	4.226716e-09	-5.149343e+00	2.777577e+02
2.550000e-06	-8.643657e-07	3.344784e-09	-6.053647e+00	2.175449e+02
2.560000e-06	-9.932296e-07	2.424793e-09	-6.956154e+00	1.551634e+02
2.570000e-06	-1.121715e-06	1.424493e-09	-7.856012e+00	9.058661e+01
2.580000e-06	-1.249765e-06	3.766976e-10	-8.752815e+00	2.386326e+01
2.590000e-06	-1.377328e-06	-6.621051e-10	-9.646213e+00	-4.487022e+01
2.600000e-06	-1.504370e-06	-1.700027e-09	-1.053596e+01	-1.153840e+02
2.610000e-06	-1.630812e-06	-2.788514e-09	-1.142151e+01	-1.873559e+02
2.620000e-06	-1.756580e-06	-3.937686e-09	-1.230233e+01	-2.603808e+02
2.630000e-06	-1.881602e-06	-5.094571e-09	-1.317793e+01	-3.339861e+02
2.640000e-06	-2.005829e-06	-6.211843e-09	-1.404797e+01	-4.076541e+02
2.650000e-06	-2.129244e-06	-7.305743e-09	-1.491231e+01	-4.808477e+02
2.660000e-06	-2.251829e-06	-8.413072e-09	-1.577084e+01	-5.530385e+02
2.670000e-06	-2.373611e-06	-9.523140e-09	-1.662375e+01	-6.237335e+02
2.680000e-06	-2.494608e-06	-1.058390e-08	-1.747116e+01	-6.924994e+02
2.690000e-06	-2.614730e-06	-1.157090e-08	-1.831245e+01	-7.589811e+02
2.700000e-06	-2.733808e-06	-1.251811e-08	-1.914642e+01	-8.229140e+02
2.710000e-06	-2.851676e-06	-1.345966e-08	-1.997191e+01	-8.841282e+02
2.720000e-06	-2.968325e-06	-1.437502e-08	-2.078888e+01	-9.425460e+02
2.730000e-06	-3.083815e-06	-1.522593e-08	-2.159772e+01	-9.981722e+02
2.740000e-06	-3.198029e-06	-1.601318e-08	-2.239763e+01	-1.051079e+03
2.750000e-06	-3.310860e-06	-1.677344e-08	-2.318784e+01	-1.101389e+03
2.760000e-06	-3.422325e-06	-1.752601e-08	-2.396850e+01	-1.149253e+03
2.770000e-06	-3.532530e-06	-1.824787e-08	-2.474033e+01	-1.194834e+03
2.780000e-06	-3.641569e-06	-1.891271e-08	-2.550399e+01	-1.238293e+03
2.790000e-06	-3.749503e-06	-1.953252e-08	-2.625991e+01	-1.279770e+03
2.800000e-06	-3.856234e-06	-2.013669e-08	-2.700741e+01	-1.319384e+03
2.810000e-06	-3.961669e-06	-2.073272e-08	-2.774583e+01	-1.357229e+03
2.820000e-06	-4.065776e-06	-2.129937e-08	-2.847495e+01	-1.393372e+03
2.830000e-06	-4.168233e-06	-2.181707e-08	-2.919252e+01	-1.427865e+03
2.840000e-06	-4.269004e-06	-2.229851e-08	-2.989828e+01	-1.460747e+03
2.850000e-06	-4.368364e-06	-2.277077e-08	-3.059415e+01	-1.492053e+03
2.860000e-06	-4.466356e-06	-2.323736e-08	-3.128044e+01	-1.521825e+03
2.870000e-06	-4.562884e-06	-2.367666e-08	-3.195648e+01	-1.550114e+03
2.880000e-06	-4.657718e-06	-2.407794e-08	-3.262066e+01	-1.576984e+03
2.890000e-06	-4.750769e-06	-2.445697e-08	-3.327235e+01	-1.602512e+03
2.900000e-06	-4.842134e-06	-2.483289e-08	-3.391223e+01	-1.626786e+03
2.910000e-06	-4.931805e-06	-2.520150e-08	-3.454025e+01	-1.649898e+03
2.920000e-06	-5.019751e-06	-2.554573e-08	-3.515618e+01	-1.671941e+03
2.930000e-06	-5.105760e-06	-2.585989e-08	-3.575855e+01	-1.693001e+03
2.940000e-06	-5.189800e-06	-2.616022e-08	-3.634713e+01	-1.713153e+03
