# Temperatura_=_20.0
# Concentracion g/m^3_=_12600.0
# C_Vs_to_Am_M_A/Vsm_=_65563218390.804596
# pendiente_HvsI_1/m_=_3716.3
# ordenada_HvsI_A/m_=_1297.0
# frecuencia_Hz_=_302074.9464336284

Tiempo_(s)	Campo_(V.s)	Magnetizacion_(V.s)	Campo_(kA/m)	Magnetizacion_(A/m)
0.000000e+00	-6.833775e-06	-3.237268e-08	-4.742803e+01	-2.119473e+03
1.000000e-08	-6.829751e-06	-3.236983e-08	-4.740011e+01	-2.118699e+03
2.000000e-08	-6.823590e-06	-3.235432e-08	-4.735735e+01	-2.117539e+03
3.000000e-08	-6.815264e-06	-3.232695e-08	-4.729956e+01	-2.116007e+03
4.000000e-08	-6.804493e-06	-3.229170e-08	-4.722481e+01	-2.114122e+03
5.000000e-08	-6.791172e-06	-3.226023e-08	-4.713236e+01	-2.111912e+03
6.000000e-08	-6.775352e-06	-3.222143e-08	-4.702256e+01	-2.109404e+03
7.000000e-08	-6.757269e-06	-3.216223e-08	-4.689706e+01	-2.106629e+03
8.000000e-08	-6.737144e-06	-3.215149e-08	-4.675739e+01	-2.103612e+03
9.000000e-08	-6.714637e-06	-3.217780e-08	-4.660118e+01	-2.100376e+03
1.000000e-07	-6.689349e-06	-3.208210e-08	-4.642568e+01	-2.096935e+03
1.100000e-07	-6.661354e-06	-3.196805e-08	-4.623139e+01	-2.093298e+03
1.200000e-07	-6.631039e-06	-3.188967e-08	-4.602100e+01	-2.089467e+03
1.300000e-07	-6.598660e-06	-3.176588e-08	-4.579628e+01	-2.085435e+03
1.400000e-07	-6.564324e-06	-3.169224e-08	-4.555797e+01	-2.081193e+03
1.500000e-07	-6.528210e-06	-3.183149e-08	-4.530734e+01	-2.076724e+03
1.600000e-07	-6.490128e-06	-3.166114e-08	-4.504304e+01	-2.072009e+03
1.700000e-07	-6.449897e-06	-3.142282e-08	-4.476383e+01	-2.067028e+03
1.800000e-07	-6.407287e-06	-3.149366e-08	-4.446810e+01	-2.061758e+03
1.900000e-07	-6.362095e-06	-3.131855e-08	-4.415446e+01	-2.056172e+03
2.000000e-07	-6.314624e-06	-3.129055e-08	-4.382500e+01	-2.050248e+03
2.100000e-07	-6.264554e-06	-3.122913e-08	-4.347750e+01	-2.043958e+03
2.200000e-07	-6.211741e-06	-3.100222e-08	-4.311097e+01	-2.037280e+03
2.300000e-07	-6.156557e-06	-3.095473e-08	-4.272798e+01	-2.030190e+03
2.400000e-07	-6.098978e-06	-3.083834e-08	-4.232836e+01	-2.022669e+03
2.500000e-07	-6.039127e-06	-3.075184e-08	-4.191299e+01	-2.014702e+03
2.600000e-07	-5.977156e-06	-3.063035e-08	-4.148289e+01	-2.006280e+03
2.700000e-07	-5.912996e-06	-3.041402e-08	-4.103761e+01	-1.997401e+03
2.800000e-07	-5.846583e-06	-3.026965e-08	-4.057668e+01	-1.988070e+03
2.900000e-07	-5.777959e-06	-3.016341e-08	-4.010042e+01	-1.978298e+03
3.000000e-07	-5.707246e-06	-3.006942e-08	-3.960965e+01	-1.968105e+03
3.100000e-07	-5.634353e-06	-2.983383e-08	-3.910376e+01	-1.957511e+03
3.200000e-07	-5.559138e-06	-2.962418e-08	-3.858175e+01	-1.946538e+03
3.300000e-07	-5.481623e-06	-2.949182e-08	-3.804377e+01	-1.935206e+03
3.400000e-07	-5.401867e-06	-2.932419e-08	-3.749025e+01	-1.923530e+03
3.500000e-07	-5.320093e-06	-2.918102e-08	-3.692271e+01	-1.911516e+03
3.600000e-07	-5.236614e-06	-2.895814e-08	-3.634335e+01	-1.899160e+03
3.700000e-07	-5.151419e-06	-2.872404e-08	-3.575208e+01	-1.886448e+03
3.800000e-07	-5.064535e-06	-2.851760e-08	-3.514909e+01	-1.873356e+03
3.900000e-07	-4.975958e-06	-2.834404e-08	-3.453434e+01	-1.859852e+03
4.000000e-07	-4.885529e-06	-2.815730e-08	-3.390674e+01	-1.845900e+03
4.100000e-07	-4.793397e-06	-2.790694e-08	-3.326732e+01	-1.831463e+03
4.200000e-07	-4.699662e-06	-2.765567e-08	-3.261678e+01	-1.816506e+03
4.300000e-07	-4.604293e-06	-2.742175e-08	-3.195490e+01	-1.801002e+03
4.400000e-07	-4.507148e-06	-2.721058e-08	-3.128068e+01	-1.784932e+03
4.500000e-07	-4.408281e-06	-2.696264e-08	-3.059452e+01	-1.768287e+03
4.600000e-07	-4.307927e-06	-2.667641e-08	-2.989805e+01	-1.751065e+03
4.700000e-07	-4.206071e-06	-2.639170e-08	-2.919114e+01	-1.733274e+03
4.800000e-07	-4.102807e-06	-2.611519e-08	-2.847446e+01	-1.714921e+03
4.900000e-07	-3.997968e-06	-2.584739e-08	-2.774685e+01	-1.696017e+03
5.000000e-07	-3.891466e-06	-2.555376e-08	-2.700771e+01	-1.676565e+03
5.100000e-07	-3.783591e-06	-2.523194e-08	-2.625902e+01	-1.656560e+03
5.200000e-07	-3.674433e-06	-2.490407e-08	-2.550145e+01	-1.635987e+03
5.300000e-07	-3.564018e-06	-2.458900e-08	-2.473513e+01	-1.614818e+03
5.400000e-07	-3.452370e-06	-2.427211e-08	-2.396027e+01	-1.593018e+03
5.500000e-07	-3.339246e-06	-2.392680e-08	-2.317516e+01	-1.570541e+03
5.600000e-07	-3.224546e-06	-2.356033e-08	-2.237912e+01	-1.547340e+03
5.700000e-07	-3.108425e-06	-2.318715e-08	-2.157321e+01	-1.523371e+03
5.800000e-07	-2.991032e-06	-2.281077e-08	-2.075847e+01	-1.498593e+03
5.900000e-07	-2.872597e-06	-2.242514e-08	-1.993651e+01	-1.472977e+03
6.000000e-07	-2.753303e-06	-2.202724e-08	-1.910858e+01	-1.446504e+03
6.100000e-07	-2.633030e-06	-2.160894e-08	-1.827386e+01	-1.419168e+03
6.200000e-07	-2.511500e-06	-2.117235e-08	-1.743041e+01	-1.390972e+03
6.300000e-07	-2.388898e-06	-2.072981e-08	-1.657952e+01	-1.361921e+03
6.400000e-07	-2.265523e-06	-2.028274e-08	-1.572327e+01	-1.332022e+03
6.500000e-07	-2.141399e-06	-1.982382e-08	-1.486182e+01	-1.301274e+03
6.600000e-07	-2.016572e-06	-1.934095e-08	-1.399549e+01	-1.269663e+03
6.700000e-07	-1.891057e-06	-1.883490e-08	-1.312439e+01	-1.237158e+03
6.800000e-07	-1.764871e-06	-1.831509e-08	-1.224863e+01	-1.203711e+03
6.900000e-07	-1.638170e-06	-1.779171e-08	-1.136929e+01	-1.169257e+03
7.000000e-07	-1.511069e-06	-1.726101e-08	-1.048718e+01	-1.133715e+03
7.100000e-07	-1.383463e-06	-1.669907e-08	-9.601564e+00	-1.097001e+03
7.200000e-07	-1.255371e-06	-1.610242e-08	-8.712577e+00	-1.059029e+03
7.300000e-07	-1.126860e-06	-1.549268e-08	-7.820680e+00	-1.019724e+03
7.400000e-07	-9.978302e-07	-1.488604e-08	-6.925180e+00	-9.790257e+02
7.500000e-07	-8.682717e-07	-1.426264e-08	-6.026013e+00	-9.368961e+02
7.600000e-07	-7.383364e-07	-1.359605e-08	-5.124231e+00	-8.933186e+02
7.700000e-07	-6.081346e-07	-1.289289e-08	-4.220600e+00	-8.482965e+02
7.800000e-07	-4.777324e-07	-1.218470e-08	-3.315577e+00	-8.018464e+02
7.900000e-07	-3.471662e-07	-1.147776e-08	-2.409416e+00	-7.539881e+02
8.000000e-07	-2.164406e-07	-1.074123e-08	-1.502149e+00	-7.047330e+02
8.100000e-07	-8.559618e-08	-9.955912e-09	-5.940579e-01	-6.540711e+02
8.200000e-07	4.530730e-08	-9.137916e-09	3.144435e-01	-6.019608e+02
8.300000e-07	1.761969e-07	-8.314706e-09	1.222849e+00	-5.483213e+02
8.400000e-07	3.070462e-07	-7.484173e-09	2.130974e+00	-4.930308e+02
8.500000e-07	4.378186e-07	-6.618832e-09	3.038566e+00	-4.359309e+02
8.600000e-07	5.685102e-07	-5.698431e-09	3.945596e+00	-3.768373e+02
8.700000e-07	6.990739e-07	-4.742492e-09	4.851740e+00	-3.155581e+02
8.800000e-07	8.294220e-07	-3.776035e-09	5.756387e+00	-2.519157e+02
8.900000e-07	9.595549e-07	-2.790324e-09	6.659541e+00	-1.857724e+02
9.000000e-07	1.089328e-06	-1.754594e-09	7.560200e+00	-1.170562e+02
9.100000e-07	1.218509e-06	-6.580838e-10	8.456743e+00	-4.578378e+01
9.200000e-07	1.346976e-06	4.727138e-10	9.348333e+00	2.792202e+01
9.300000e-07	1.474776e-06	1.616982e-09	1.023530e+01	1.038219e+02
9.400000e-07	1.602114e-06	2.786477e-09	1.111905e+01	1.815599e+02
9.500000e-07	1.729044e-06	4.001222e-09	1.199998e+01	2.606724e+02
9.600000e-07	1.855466e-06	5.247446e-09	1.287738e+01	3.406073e+02
9.700000e-07	1.981238e-06	6.486615e-09	1.375026e+01	4.207509e+02
9.800000e-07	2.106266e-06	7.696142e-09	1.461799e+01	5.004607e+02
9.900000e-07	2.230532e-06	8.884085e-09	1.548042e+01	5.791001e+02
1.000000e-06	2.354047e-06	1.006099e-08	1.633765e+01	6.560738e+02
1.010000e-06	2.476838e-06	1.121110e-08	1.718985e+01	7.308580e+02
1.020000e-06	2.598704e-06	1.230700e-08	1.803563e+01	8.030252e+02
1.030000e-06	2.719330e-06	1.333576e-08	1.887280e+01	8.722589e+02
1.040000e-06	2.838809e-06	1.431775e-08	1.970202e+01	9.383605e+02
1.050000e-06	2.957397e-06	1.527253e-08	2.052504e+01	1.001245e+03
1.060000e-06	3.075036e-06	1.619490e-08	2.134148e+01	1.060929e+03
1.070000e-06	3.191555e-06	1.706111e-08	2.215015e+01	1.117512e+03
1.080000e-06	3.306818e-06	1.786734e-08	2.295011e+01	1.171154e+03
1.090000e-06	3.420659e-06	1.863555e-08	2.374019e+01	1.222047e+03
1.100000e-06	3.533011e-06	1.938250e-08	2.451994e+01	1.270399e+03
1.110000e-06	3.644065e-06	2.009951e-08	2.529068e+01	1.316407e+03
1.120000e-06	3.753925e-06	2.076755e-08	2.605314e+01	1.360246e+03
1.130000e-06	3.862602e-06	2.138963e-08	2.680738e+01	1.402062e+03
1.140000e-06	3.970100e-06	2.198542e-08	2.755344e+01	1.441965e+03
1.150000e-06	4.076238e-06	2.256765e-08	2.829006e+01	1.480038e+03
1.160000e-06	4.180723e-06	2.312437e-08	2.901521e+01	1.516339e+03
1.170000e-06	4.283617e-06	2.364290e-08	2.972933e+01	1.550912e+03
1.180000e-06	4.385115e-06	2.412461e-08	3.043375e+01	1.583800e+03
1.190000e-06	4.485169e-06	2.459048e-08	3.112814e+01	1.615049e+03
1.200000e-06	4.583701e-06	2.504842e-08	3.181198e+01	1.644719e+03
1.210000e-06	4.680406e-06	2.548582e-08	3.248314e+01	1.672883e+03
1.220000e-06	4.775307e-06	2.589111e-08	3.314177e+01	1.699630e+03
1.230000e-06	4.868619e-06	2.626989e-08	3.378938e+01	1.725059e+03
1.240000e-06	4.960293e-06	2.663917e-08	3.442562e+01	1.749272e+03
1.250000e-06	5.050170e-06	2.700393e-08	3.504939e+01	1.772374e+03
1.260000e-06	5.138068e-06	2.735171e-08	3.565942e+01	1.794455e+03
1.270000e-06	5.224075e-06	2.767157e-08	3.625633e+01	1.815595e+03
1.280000e-06	5.308383e-06	2.797123e-08	3.684145e+01	1.835854e+03
1.290000e-06	5.390932e-06	2.826539e-08	3.741436e+01	1.855270e+03
1.300000e-06	5.471425e-06	2.855295e-08	3.797300e+01	1.873868e+03
1.310000e-06	5.549826e-06	2.882299e-08	3.851712e+01	1.891656e+03
1.320000e-06	5.626227e-06	2.907212e-08	3.904736e+01	1.908633e+03
1.330000e-06	5.700472e-06	2.930742e-08	3.956264e+01	1.924798e+03
1.340000e-06	5.772483e-06	2.953843e-08	4.006241e+01	1.940152e+03
1.350000e-06	5.842396e-06	2.976547e-08	4.054762e+01	1.954703e+03
1.360000e-06	5.910295e-06	2.997824e-08	4.101886e+01	1.968471e+03
1.370000e-06	5.976077e-06	3.017132e-08	4.147540e+01	1.981487e+03
1.380000e-06	6.039705e-06	3.035319e-08	4.191700e+01	1.993791e+03
1.390000e-06	6.101254e-06	3.053164e-08	4.234416e+01	2.005429e+03
1.400000e-06	6.160812e-06	3.070695e-08	4.275751e+01	2.016448e+03
1.410000e-06	6.218189e-06	3.087235e-08	4.315572e+01	2.026892e+03
1.420000e-06	6.273259e-06	3.102349e-08	4.353792e+01	2.036800e+03
1.430000e-06	6.326026e-06	3.116571e-08	4.390413e+01	2.046196e+03
1.440000e-06	6.376185e-06	3.130470e-08	4.425225e+01	2.055094e+03
1.450000e-06	6.423768e-06	3.143674e-08	4.458249e+01	2.063498e+03
1.460000e-06	6.469173e-06	3.155614e-08	4.489761e+01	2.071399e+03
1.470000e-06	6.512472e-06	3.166115e-08	4.519811e+01	2.078787e+03
1.480000e-06	6.553259e-06	3.175770e-08	4.548119e+01	2.085645e+03
1.490000e-06	6.591572e-06	3.185197e-08	4.574709e+01	2.091965e+03
1.500000e-06	6.627749e-06	3.194217e-08	4.599816e+01	2.097740e+03
1.510000e-06	6.661636e-06	3.202307e-08	4.623335e+01	2.102976e+03
1.520000e-06	6.693059e-06	3.209375e-08	4.645143e+01	2.107688e+03
1.530000e-06	6.722184e-06	3.215868e-08	4.665356e+01	2.111901e+03
1.540000e-06	6.749074e-06	3.222078e-08	4.684019e+01	2.115647e+03
1.550000e-06	6.773415e-06	3.227910e-08	4.700912e+01	2.118961e+03
1.560000e-06	6.795216e-06	3.232765e-08	4.716043e+01	2.121880e+03
1.570000e-06	6.814760e-06	3.236382e-08	4.729607e+01	2.124434e+03
1.580000e-06	6.831884e-06	3.239354e-08	4.741491e+01	2.126648e+03
1.590000e-06	6.846361e-06	3.242220e-08	4.751538e+01	2.128537e+03
1.600000e-06	6.858238e-06	3.244828e-08	4.759781e+01	2.130106e+03
1.610000e-06	6.867411e-06	3.246493e-08	4.766147e+01	2.131351e+03
1.620000e-06	6.873994e-06	3.247207e-08	4.770716e+01	2.132260e+03
1.630000e-06	6.878317e-06	3.247697e-08	4.773717e+01	2.132817e+03
1.640000e-06	6.880275e-06	3.248425e-08	4.775075e+01	2.133005e+03
1.650000e-06	6.879751e-06	3.248928e-08	4.774712e+01	2.132812e+03
1.660000e-06	6.876914e-06	3.247421e-08	4.772743e+01	2.132230e+03
1.670000e-06	6.871844e-06	3.245562e-08	4.769224e+01	2.131259e+03
1.680000e-06	6.864399e-06	3.243368e-08	4.764057e+01	2.129907e+03
1.690000e-06	6.854685e-06	3.241433e-08	4.757315e+01	2.128192e+03
1.700000e-06	6.842835e-06	3.239869e-08	4.749091e+01	2.126138e+03
1.710000e-06	6.828584e-06	3.238051e-08	4.739201e+01	2.123772e+03
1.720000e-06	6.812023e-06	3.237466e-08	4.727707e+01	2.121123e+03
1.730000e-06	6.793439e-06	3.228220e-08	4.714809e+01	2.118221e+03
1.740000e-06	6.772349e-06	3.214831e-08	4.700172e+01	2.115088e+03
1.750000e-06	6.748036e-06	3.214020e-08	4.683298e+01	2.111744e+03
1.760000e-06	6.720705e-06	3.211395e-08	4.664330e+01	2.108202e+03
1.770000e-06	6.690912e-06	3.208309e-08	4.643653e+01	2.104464e+03
1.780000e-06	6.659122e-06	3.214426e-08	4.621590e+01	2.100530e+03
1.790000e-06	6.625850e-06	3.191053e-08	4.598498e+01	2.096392e+03
1.800000e-06	6.590859e-06	3.167795e-08	4.574214e+01	2.092034e+03
1.810000e-06	6.553422e-06	3.188581e-08	4.548232e+01	2.087442e+03
1.820000e-06	6.513716e-06	3.176754e-08	4.520675e+01	2.082594e+03
1.830000e-06	6.471936e-06	3.177238e-08	4.491679e+01	2.077467e+03
1.840000e-06	6.427864e-06	3.173648e-08	4.461091e+01	2.072039e+03
1.850000e-06	6.381520e-06	3.136632e-08	4.428928e+01	2.066283e+03
1.860000e-06	6.332789e-06	3.149074e-08	4.395107e+01	2.060176e+03
1.870000e-06	6.281772e-06	3.139557e-08	4.359700e+01	2.053692e+03
1.880000e-06	6.228311e-06	3.124779e-08	4.322597e+01	2.046807e+03
1.890000e-06	6.172108e-06	3.114423e-08	4.283590e+01	2.039500e+03
1.900000e-06	6.113571e-06	3.085478e-08	4.242965e+01	2.031754e+03
1.910000e-06	6.052865e-06	3.091896e-08	4.200833e+01	2.023557e+03
1.920000e-06	5.989833e-06	3.080085e-08	4.157088e+01	2.014902e+03
1.930000e-06	5.924595e-06	3.060715e-08	4.111810e+01	2.005793e+03
1.940000e-06	5.857204e-06	3.044402e-08	4.065039e+01	1.996236e+03
1.950000e-06	5.787532e-06	3.021180e-08	4.016685e+01	1.986248e+03
1.960000e-06	5.715477e-06	3.021137e-08	3.966678e+01	1.975848e+03
1.970000e-06	5.641327e-06	3.000673e-08	3.915216e+01	1.965058e+03
1.980000e-06	5.564991e-06	2.986560e-08	3.862237e+01	1.953900e+03
1.990000e-06	5.486255e-06	2.964129e-08	3.807592e+01	1.942391e+03
2.000000e-06	5.405593e-06	2.939527e-08	3.751611e+01	1.930543e+03
2.010000e-06	5.323222e-06	2.932583e-08	3.694443e+01	1.918355e+03
2.020000e-06	5.239127e-06	2.913387e-08	3.636079e+01	1.905820e+03
2.030000e-06	5.153016e-06	2.895288e-08	3.576316e+01	1.892918e+03
2.040000e-06	5.064901e-06	2.864417e-08	3.515162e+01	1.879621e+03
2.050000e-06	4.975120e-06	2.843425e-08	3.452852e+01	1.865894e+03
2.060000e-06	4.883786e-06	2.828727e-08	3.389464e+01	1.851700e+03
2.070000e-06	4.790849e-06	2.808659e-08	3.324964e+01	1.837004e+03
2.080000e-06	4.695976e-06	2.782802e-08	3.259120e+01	1.821773e+03
2.090000e-06	4.599348e-06	2.750405e-08	3.192057e+01	1.805984e+03
2.100000e-06	4.501221e-06	2.728789e-08	3.123955e+01	1.789624e+03
2.110000e-06	4.401682e-06	2.707286e-08	3.054872e+01	1.772686e+03
2.120000e-06	4.300628e-06	2.684757e-08	2.984739e+01	1.755175e+03
2.130000e-06	4.197804e-06	2.653228e-08	2.913376e+01	1.737098e+03
2.140000e-06	4.093362e-06	2.620738e-08	2.840891e+01	1.718466e+03
2.150000e-06	3.987546e-06	2.593789e-08	2.767452e+01	1.699284e+03
2.160000e-06	3.880447e-06	2.568498e-08	2.693123e+01	1.679553e+03
2.170000e-06	3.772137e-06	2.538675e-08	2.617953e+01	1.659263e+03
2.180000e-06	3.662422e-06	2.501313e-08	2.541808e+01	1.638393e+03
2.190000e-06	3.551168e-06	2.466320e-08	2.464595e+01	1.616910e+03
2.200000e-06	3.438547e-06	2.434730e-08	2.386434e+01	1.594774e+03
2.210000e-06	3.324595e-06	2.403333e-08	2.307349e+01	1.571937e+03
2.220000e-06	3.209340e-06	2.365736e-08	2.227359e+01	1.548354e+03
2.230000e-06	3.092708e-06	2.326074e-08	2.146413e+01	1.523982e+03
2.240000e-06	2.974586e-06	2.286704e-08	2.064434e+01	1.498784e+03
2.250000e-06	2.855268e-06	2.249098e-08	1.981625e+01	1.472738e+03
2.260000e-06	2.735035e-06	2.209742e-08	1.898180e+01	1.445830e+03
2.270000e-06	2.613817e-06	2.167110e-08	1.814052e+01	1.418060e+03
2.280000e-06	2.491583e-06	2.122823e-08	1.729218e+01	1.389432e+03
2.290000e-06	2.368547e-06	2.077645e-08	1.643829e+01	1.359953e+03
2.300000e-06	2.244908e-06	2.031848e-08	1.558020e+01	1.329627e+03
2.310000e-06	2.120640e-06	1.984339e-08	1.471775e+01	1.298446e+03
2.320000e-06	1.995514e-06	1.936472e-08	1.384934e+01	1.266390e+03
2.330000e-06	1.869390e-06	1.886867e-08	1.297402e+01	1.233418e+03
2.340000e-06	1.742500e-06	1.833846e-08	1.209337e+01	1.199473e+03
2.350000e-06	1.615084e-06	1.777652e-08	1.120907e+01	1.164482e+03
2.360000e-06	1.487262e-06	1.722314e-08	1.032196e+01	1.128361e+03
2.370000e-06	1.359046e-06	1.667683e-08	9.432102e+00	1.091025e+03
2.380000e-06	1.230378e-06	1.609711e-08	8.539117e+00	1.052391e+03
2.390000e-06	1.101288e-06	1.546253e-08	7.643203e+00	1.012392e+03
2.400000e-06	9.717881e-07	1.480512e-08	6.744442e+00	9.709785e+02
2.410000e-06	8.419436e-07	1.417046e-08	5.843290e+00	9.281221e+02
2.420000e-06	7.118607e-07	1.353666e-08	4.940483e+00	8.838173e+02
2.430000e-06	5.815501e-07	1.284975e-08	4.036097e+00	8.380752e+02
2.440000e-06	4.510216e-07	1.209798e-08	3.130198e+00	7.909153e+02
2.450000e-06	3.203436e-07	1.133541e-08	2.223261e+00	7.423548e+02
2.460000e-06	1.895531e-07	1.060228e-08	1.315544e+00	6.923957e+02
2.470000e-06	5.868324e-08	9.854939e-09	4.072757e-01	6.410137e+02
2.480000e-06	-7.217421e-08	9.033344e-09	-5.009063e-01	5.881480e+02
2.490000e-06	-2.029992e-07	8.149617e-09	-1.408863e+00	5.336972e+02
2.500000e-06	-3.337938e-07	7.271193e-09	-2.316609e+00	4.775202e+02
2.510000e-06	-4.644808e-07	6.416820e-09	-3.223608e+00	4.194439e+02
2.520000e-06	-5.949931e-07	5.527076e-09	-4.129394e+00	3.592777e+02
2.530000e-06	-7.253335e-07	4.557229e-09	-5.033988e+00	2.968337e+02
2.540000e-06	-8.554767e-07	3.534973e-09	-5.937212e+00	2.319511e+02
2.550000e-06	-9.852920e-07	2.515404e-09	-6.838162e+00	1.645218e+02
2.560000e-06	-1.114738e-06	1.495475e-09	-7.736546e+00	9.451564e+01
2.570000e-06	-1.243830e-06	4.201109e-10	-8.632476e+00	2.200050e+01
2.580000e-06	-1.372501e-06	-7.367213e-10	-9.525482e+00	-5.284316e+01
2.590000e-06	-1.500662e-06	-1.938207e-09	-1.041495e+01	-1.297172e+02
2.600000e-06	-1.628334e-06	-3.133803e-09	-1.130103e+01	-2.082099e+02
2.610000e-06	-1.755564e-06	-4.324526e-09	-1.218404e+01	-2.878107e+02
2.620000e-06	-1.882162e-06	-5.546715e-09	-1.306266e+01	-3.679328e+02
2.630000e-06	-2.007886e-06	-6.804009e-09	-1.393521e+01	-4.479437e+02
2.640000e-06	-2.132641e-06	-8.047636e-09	-1.480104e+01	-5.271996e+02
2.650000e-06	-2.256467e-06	-9.231379e-09	-1.566042e+01	-6.050802e+02
2.660000e-06	-2.379481e-06	-1.036189e-08	-1.651417e+01	-6.810226e+02
2.670000e-06	-2.501654e-06	-1.147292e-08	-1.736208e+01	-7.545486e+02
2.680000e-06	-2.622854e-06	-1.256754e-08	-1.820323e+01	-8.252847e+02
2.690000e-06	-2.743010e-06	-1.361478e-08	-1.903715e+01	-8.929734e+02
2.700000e-06	-2.862203e-06	-1.458849e-08	-1.986437e+01	-9.574738e+02
2.710000e-06	-2.980333e-06	-1.549959e-08	-2.068423e+01	-1.018754e+03
2.720000e-06	-3.097095e-06	-1.638204e-08	-2.149458e+01	-1.076874e+03
2.730000e-06	-3.212596e-06	-1.724700e-08	-2.229618e+01	-1.131967e+03
2.740000e-06	-3.326961e-06	-1.807050e-08	-2.308990e+01	-1.184213e+03
2.750000e-06	-3.439973e-06	-1.882633e-08	-2.387423e+01	-1.233813e+03
2.760000e-06	-3.551483e-06	-1.952908e-08	-2.464814e+01	-1.280973e+03
2.770000e-06	-3.661630e-06	-2.021663e-08	-2.541259e+01	-1.325880e+03
2.780000e-06	-3.770565e-06	-2.089834e-08	-2.616862e+01	-1.368695e+03
2.790000e-06	-3.878364e-06	-2.154406e-08	-2.691677e+01	-1.409546e+03
2.800000e-06	-3.985001e-06	-2.212928e-08	-2.765686e+01	-1.448529e+03
2.810000e-06	-4.090256e-06	-2.267434e-08	-2.838735e+01	-1.485713e+03
2.820000e-06	-4.194026e-06	-2.321570e-08	-2.910754e+01	-1.521148e+03
2.830000e-06	-4.296182e-06	-2.375270e-08	-2.981653e+01	-1.554877e+03
2.840000e-06	-4.396596e-06	-2.424971e-08	-3.051343e+01	-1.586943e+03
2.850000e-06	-4.495484e-06	-2.469334e-08	-3.119974e+01	-1.617398e+03
2.860000e-06	-4.592951e-06	-2.511280e-08	-3.187618e+01	-1.646308e+03
2.870000e-06	-4.688869e-06	-2.553921e-08	-3.254187e+01	-1.673755e+03
2.880000e-06	-4.783075e-06	-2.596145e-08	-3.319568e+01	-1.699834e+03
2.890000e-06	-4.875445e-06	-2.634781e-08	-3.383675e+01	-1.724645e+03
2.900000e-06	-4.966100e-06	-2.669509e-08	-3.446592e+01	-1.748294e+03
2.910000e-06	-5.055022e-06	-2.703286e-08	-3.508306e+01	-1.770878e+03
2.920000e-06	-5.142063e-06	-2.737807e-08	-3.568715e+01	-1.792484e+03
2.930000e-06	-5.227087e-06	-2.771319e-08	-3.627724e+01	-1.813180e+03
2.940000e-06	-5.310269e-06	-2.801462e-08	-3.685454e+01	-1.833017e+03
