# Temperatura_=_20.0
# Concentracion g/m^3_=_9000.0
# C_Vs_to_Am_M_A/Vsm_=_65563218390.804596
# pendiente_HvsI_1/m_=_3716.3
# ordenada_HvsI_A/m_=_1297.0
# frecuencia_Hz_=_212986.19415594262

Tiempo_(s)	Campo_(V.s)	Magnetizacion_(V.s)	Campo_(kA/m)	Magnetizacion_(A/m)
0.000000e+00	-8.065889e-06	-4.927862e-09	-5.691852e+01	-3.240911e+02
1.000000e-08	-8.065130e-06	-4.924462e-09	-5.691316e+01	-3.241332e+02
2.000000e-08	-8.062698e-06	-4.925210e-09	-5.689600e+01	-3.241775e+02
3.000000e-08	-8.058859e-06	-4.923962e-09	-5.686891e+01	-3.242188e+02
4.000000e-08	-8.053863e-06	-4.922628e-09	-5.683365e+01	-3.242513e+02
5.000000e-08	-8.047489e-06	-4.920866e-09	-5.678867e+01	-3.242686e+02
6.000000e-08	-8.039903e-06	-4.918968e-09	-5.673514e+01	-3.242647e+02
7.000000e-08	-8.031075e-06	-4.916155e-09	-5.667285e+01	-3.242342e+02
8.000000e-08	-8.020578e-06	-4.894673e-09	-5.659877e+01	-3.241731e+02
9.000000e-08	-8.008348e-06	-4.919742e-09	-5.651247e+01	-3.240787e+02
1.000000e-07	-7.994254e-06	-5.005886e-09	-5.641301e+01	-3.239501e+02
1.100000e-07	-7.978185e-06	-4.997293e-09	-5.629961e+01	-3.237881e+02
1.200000e-07	-7.960562e-06	-4.944040e-09	-5.617525e+01	-3.235955e+02
1.300000e-07	-7.941724e-06	-4.862824e-09	-5.604232e+01	-3.233762e+02
1.400000e-07	-7.921948e-06	-4.747131e-09	-5.590277e+01	-3.231355e+02
1.500000e-07	-7.901223e-06	-4.954895e-09	-5.575652e+01	-3.228792e+02
1.600000e-07	-7.879203e-06	-5.050813e-09	-5.560113e+01	-3.226134e+02
1.700000e-07	-7.856014e-06	-4.812190e-09	-5.543749e+01	-3.223437e+02
1.800000e-07	-7.831611e-06	-4.873228e-09	-5.526529e+01	-3.220749e+02
1.900000e-07	-7.805421e-06	-4.878552e-09	-5.508047e+01	-3.218106e+02
2.000000e-07	-7.777891e-06	-4.876246e-09	-5.488620e+01	-3.215527e+02
2.100000e-07	-7.749383e-06	-5.077503e-09	-5.468503e+01	-3.213012e+02
2.200000e-07	-7.719375e-06	-4.845034e-09	-5.447327e+01	-3.210546e+02
2.300000e-07	-7.688067e-06	-4.721807e-09	-5.425234e+01	-3.208092e+02
2.400000e-07	-7.655685e-06	-4.972214e-09	-5.402383e+01	-3.205601e+02
2.500000e-07	-7.621779e-06	-4.987731e-09	-5.378457e+01	-3.203014e+02
2.600000e-07	-7.586325e-06	-4.891229e-09	-5.353438e+01	-3.200262e+02
2.700000e-07	-7.549455e-06	-4.775565e-09	-5.327420e+01	-3.197277e+02
2.800000e-07	-7.511104e-06	-4.800063e-09	-5.300356e+01	-3.193993e+02
2.900000e-07	-7.471557e-06	-4.936951e-09	-5.272450e+01	-3.190353e+02
3.000000e-07	-7.430737e-06	-4.897020e-09	-5.243644e+01	-3.186313e+02
3.100000e-07	-7.388279e-06	-4.785175e-09	-5.213683e+01	-3.181845e+02
3.200000e-07	-7.344335e-06	-4.766070e-09	-5.182673e+01	-3.176936e+02
3.300000e-07	-7.299039e-06	-4.851625e-09	-5.150709e+01	-3.171593e+02
3.400000e-07	-7.252399e-06	-4.857122e-09	-5.117797e+01	-3.165838e+02
3.500000e-07	-7.204537e-06	-4.799370e-09	-5.084022e+01	-3.159707e+02
3.600000e-07	-7.155019e-06	-4.770918e-09	-5.049078e+01	-3.153248e+02
3.700000e-07	-7.103614e-06	-4.735988e-09	-5.012804e+01	-3.146513e+02
3.800000e-07	-7.050825e-06	-4.815779e-09	-4.975552e+01	-3.139556e+02
3.900000e-07	-6.996872e-06	-4.833461e-09	-4.937479e+01	-3.132427e+02
4.000000e-07	-6.941673e-06	-4.707693e-09	-4.898527e+01	-3.125167e+02
4.100000e-07	-6.885342e-06	-4.698128e-09	-4.858775e+01	-3.117808e+02
4.200000e-07	-6.827712e-06	-4.774393e-09	-4.818108e+01	-3.110365e+02
4.300000e-07	-6.768672e-06	-4.781494e-09	-4.776445e+01	-3.102840e+02
4.400000e-07	-6.708441e-06	-4.679560e-09	-4.733942e+01	-3.095216e+02
4.500000e-07	-6.647058e-06	-4.655294e-09	-4.690626e+01	-3.087467e+02
4.600000e-07	-6.584604e-06	-4.704627e-09	-4.646554e+01	-3.079552e+02
4.700000e-07	-6.521189e-06	-4.697437e-09	-4.601804e+01	-3.071426e+02
4.800000e-07	-6.456730e-06	-4.656699e-09	-4.556317e+01	-3.063038e+02
4.900000e-07	-6.390949e-06	-4.617546e-09	-4.509898e+01	-3.054342e+02
5.000000e-07	-6.323854e-06	-4.633183e-09	-4.462551e+01	-3.045296e+02
5.100000e-07	-6.255783e-06	-4.643149e-09	-4.414515e+01	-3.035868e+02
5.200000e-07	-6.186783e-06	-4.616304e-09	-4.365824e+01	-3.026041e+02
5.300000e-07	-6.116720e-06	-4.573789e-09	-4.316383e+01	-3.015810e+02
5.400000e-07	-6.045600e-06	-4.558324e-09	-4.266196e+01	-3.005188e+02
5.500000e-07	-5.973549e-06	-4.571465e-09	-4.215351e+01	-2.994198e+02
5.600000e-07	-5.900451e-06	-4.556921e-09	-4.163768e+01	-2.982878e+02
5.700000e-07	-5.825952e-06	-4.517905e-09	-4.111197e+01	-2.971270e+02
5.800000e-07	-5.750085e-06	-4.480588e-09	-4.057660e+01	-2.959422e+02
5.900000e-07	-5.673099e-06	-4.485978e-09	-4.003332e+01	-2.947379e+02
6.000000e-07	-5.595152e-06	-4.495492e-09	-3.948328e+01	-2.935179e+02
6.100000e-07	-5.516084e-06	-4.453325e-09	-3.892532e+01	-2.922848e+02
6.200000e-07	-5.435650e-06	-4.405070e-09	-3.835772e+01	-2.910399e+02
6.300000e-07	-5.354109e-06	-4.402470e-09	-3.778231e+01	-2.897824e+02
6.400000e-07	-5.271721e-06	-4.408882e-09	-3.720093e+01	-2.885099e+02
6.500000e-07	-5.188616e-06	-4.372378e-09	-3.661448e+01	-2.872182e+02
6.600000e-07	-5.104766e-06	-4.325143e-09	-3.602277e+01	-2.859012e+02
6.700000e-07	-5.020081e-06	-4.311584e-09	-3.542518e+01	-2.845519e+02
6.800000e-07	-4.934642e-06	-4.313458e-09	-3.482226e+01	-2.831622e+02
6.900000e-07	-4.848389e-06	-4.293781e-09	-3.421360e+01	-2.817241e+02
7.000000e-07	-4.761237e-06	-4.254663e-09	-3.359860e+01	-2.802296e+02
7.100000e-07	-4.673146e-06	-4.221186e-09	-3.297697e+01	-2.786720e+02
7.200000e-07	-4.584155e-06	-4.205051e-09	-3.234898e+01	-2.770455e+02
7.300000e-07	-4.494342e-06	-4.188363e-09	-3.171520e+01	-2.753467e+02
7.400000e-07	-4.403646e-06	-4.153278e-09	-3.107519e+01	-2.735736e+02
7.500000e-07	-4.312012e-06	-4.111068e-09	-3.042855e+01	-2.717267e+02
7.600000e-07	-4.219543e-06	-4.086724e-09	-2.977602e+01	-2.698084e+02
7.700000e-07	-4.126382e-06	-4.077072e-09	-2.911862e+01	-2.678224e+02
7.800000e-07	-4.032639e-06	-4.049623e-09	-2.845710e+01	-2.657739e+02
7.900000e-07	-3.938340e-06	-4.003236e-09	-2.779167e+01	-2.636686e+02
8.000000e-07	-3.843361e-06	-3.968488e-09	-2.712142e+01	-2.615119e+02
8.100000e-07	-3.747521e-06	-3.951996e-09	-2.644511e+01	-2.593087e+02
8.200000e-07	-3.650972e-06	-3.925324e-09	-2.576379e+01	-2.570621e+02
8.300000e-07	-3.553854e-06	-3.874473e-09	-2.507846e+01	-2.547734e+02
8.400000e-07	-3.456081e-06	-3.827533e-09	-2.438851e+01	-2.524416e+02
8.500000e-07	-3.357627e-06	-3.799327e-09	-2.369375e+01	-2.500629e+02
8.600000e-07	-3.258538e-06	-3.769280e-09	-2.299451e+01	-2.476307e+02
8.700000e-07	-3.158962e-06	-3.725307e-09	-2.229183e+01	-2.451363e+02
8.800000e-07	-3.058939e-06	-3.675631e-09	-2.158600e+01	-2.425686e+02
8.900000e-07	-2.958390e-06	-3.634577e-09	-2.087645e+01	-2.399154e+02
9.000000e-07	-2.857409e-06	-3.600058e-09	-2.016386e+01	-2.371634e+02
9.100000e-07	-2.756072e-06	-3.557383e-09	-1.944876e+01	-2.342995e+02
9.200000e-07	-2.654306e-06	-3.504644e-09	-1.873063e+01	-2.313112e+02
9.300000e-07	-2.552055e-06	-3.451086e-09	-1.800907e+01	-2.281876e+02
9.400000e-07	-2.449348e-06	-3.406166e-09	-1.728430e+01	-2.249194e+02
9.500000e-07	-2.346241e-06	-3.361190e-09	-1.655671e+01	-2.214996e+02
9.600000e-07	-2.242658e-06	-3.305430e-09	-1.582575e+01	-2.179233e+02
9.700000e-07	-2.138651e-06	-3.243957e-09	-1.509181e+01	-2.141875e+02
9.800000e-07	-2.034276e-06	-3.187116e-09	-1.435526e+01	-2.102902e+02
9.900000e-07	-1.929552e-06	-3.133324e-09	-1.361626e+01	-2.062301e+02
1.000000e-06	-1.824469e-06	-3.069825e-09	-1.287472e+01	-2.020048e+02
1.010000e-06	-1.718929e-06	-2.996933e-09	-1.212996e+01	-1.976099e+02
1.020000e-06	-1.612958e-06	-2.925255e-09	-1.138215e+01	-1.930380e+02
1.030000e-06	-1.506613e-06	-2.856277e-09	-1.063171e+01	-1.882766e+02
1.040000e-06	-1.400014e-06	-2.780870e-09	-9.879471e+00	-1.833079e+02
1.050000e-06	-1.293150e-06	-2.695192e-09	-9.125367e+00	-1.781073e+02
1.060000e-06	-1.185932e-06	-2.607325e-09	-8.368758e+00	-1.726434e+02
1.070000e-06	-1.078495e-06	-2.519918e-09	-7.610612e+00	-1.668779e+02
1.080000e-06	-9.708751e-07	-2.426284e-09	-6.851169e+00	-1.607660e+02
1.090000e-06	-8.630148e-07	-2.325137e-09	-6.090032e+00	-1.542577e+02
1.100000e-06	-7.549704e-07	-2.219431e-09	-5.327595e+00	-1.472996e+02
1.110000e-06	-6.468127e-07	-2.109171e-09	-4.564360e+00	-1.398367e+02
1.120000e-06	-5.385431e-07	-1.989432e-09	-3.800334e+00	-1.318152e+02
1.130000e-06	-4.301903e-07	-1.858031e-09	-3.035722e+00	-1.231855e+02
1.140000e-06	-3.217752e-07	-1.712040e-09	-2.270670e+00	-1.139048e+02
1.150000e-06	-2.132876e-07	-1.555277e-09	-1.505106e+00	-1.039405e+02
1.160000e-06	-1.047538e-07	-1.393156e-09	-7.392157e-01	-9.327302e+01
1.170000e-06	3.791568e-09	-1.219815e-09	2.675593e-02	-8.189783e+01
1.180000e-06	1.122918e-07	-1.037005e-09	7.924091e-01	-6.982784e+01
1.190000e-06	2.207294e-07	-8.469371e-10	1.557620e+00	-5.709443e+01
1.200000e-06	3.291182e-07	-6.493988e-10	2.322486e+00	-4.374798e+01
1.210000e-06	4.374495e-07	-4.421816e-10	3.086947e+00	-2.985755e+01
1.220000e-06	5.456963e-07	-2.246180e-10	3.850812e+00	-1.550964e+01
1.230000e-06	6.537843e-07	-1.396112e-13	4.613556e+00	-8.061521e-01
1.240000e-06	7.616989e-07	2.300019e-10	5.375077e+00	1.413835e+01
1.250000e-06	8.693917e-07	4.615210e-10	6.135032e+00	2.920012e+01
1.260000e-06	9.768861e-07	6.967213e-10	6.893587e+00	4.425009e+01
1.270000e-06	1.084222e-06	9.314829e-10	7.651023e+00	5.915812e+01
1.280000e-06	1.191372e-06	1.160142e-09	8.407151e+00	7.379723e+01
1.290000e-06	1.298277e-06	1.378295e-09	9.161546e+00	8.804777e+01
1.300000e-06	1.404852e-06	1.587191e-09	9.913612e+00	1.018013e+02
1.310000e-06	1.511199e-06	1.787159e-09	1.066407e+01	1.149637e+02
1.320000e-06	1.617247e-06	1.976862e-09	1.141242e+01	1.274582e+02
1.330000e-06	1.722901e-06	2.152458e-09	1.215799e+01	1.392269e+02
1.340000e-06	1.828202e-06	2.315135e-09	1.290106e+01	1.502318e+02
1.350000e-06	1.933127e-06	2.468696e-09	1.364148e+01	1.604549e+02
1.360000e-06	2.037687e-06	2.609807e-09	1.437934e+01	1.698975e+02
1.370000e-06	2.141919e-06	2.737752e-09	1.511487e+01	1.785785e+02
1.380000e-06	2.245842e-06	2.852029e-09	1.584822e+01	1.865323e+02
1.390000e-06	2.349400e-06	2.958775e-09	1.657900e+01	1.938056e+02
1.400000e-06	2.452576e-06	3.058440e-09	1.730708e+01	2.004549e+02
1.410000e-06	2.555400e-06	3.148523e-09	1.803268e+01	2.065425e+02
1.420000e-06	2.657709e-06	3.231297e-09	1.875464e+01	2.121335e+02
1.430000e-06	2.759501e-06	3.310507e-09	1.947296e+01	2.172927e+02
1.440000e-06	2.860910e-06	3.387852e-09	2.018857e+01	2.220816e+02
1.450000e-06	2.961893e-06	3.461986e-09	2.090118e+01	2.265565e+02
1.460000e-06	3.062427e-06	3.530287e-09	2.161061e+01	2.307663e+02
1.470000e-06	3.162532e-06	3.593793e-09	2.231702e+01	2.347517e+02
1.480000e-06	3.262164e-06	3.655093e-09	2.302010e+01	2.385447e+02
1.490000e-06	3.361150e-06	3.713186e-09	2.371861e+01	2.421686e+02
1.500000e-06	3.459356e-06	3.763474e-09	2.441162e+01	2.456388e+02
1.510000e-06	3.556784e-06	3.809215e-09	2.509914e+01	2.489640e+02
1.520000e-06	3.653471e-06	3.854252e-09	2.578143e+01	2.521475e+02
1.530000e-06	3.749471e-06	3.899216e-09	2.645887e+01	2.551887e+02
1.540000e-06	3.844818e-06	3.941135e-09	2.713170e+01	2.580851e+02
1.550000e-06	3.939462e-06	3.979351e-09	2.779958e+01	2.608337e+02
1.560000e-06	4.033387e-06	4.016256e-09	2.846238e+01	2.634325e+02
1.570000e-06	4.126601e-06	4.052034e-09	2.912016e+01	2.658815e+02
1.580000e-06	4.219136e-06	4.085197e-09	2.977315e+01	2.681837e+02
1.590000e-06	4.311046e-06	4.114651e-09	3.042173e+01	2.703454e+02
1.600000e-06	4.402214e-06	4.144667e-09	3.106508e+01	2.723759e+02
1.610000e-06	4.492447e-06	4.174084e-09	3.170183e+01	2.742879e+02
1.620000e-06	4.581692e-06	4.201287e-09	3.233160e+01	2.760961e+02
1.630000e-06	4.670033e-06	4.227809e-09	3.295499e+01	2.778170e+02
1.640000e-06	4.757548e-06	4.253986e-09	3.357256e+01	2.794672e+02
1.650000e-06	4.844229e-06	4.280220e-09	3.418425e+01	2.810631e+02
1.660000e-06	4.930071e-06	4.304923e-09	3.479001e+01	2.826194e+02
1.670000e-06	5.015099e-06	4.327472e-09	3.539002e+01	2.841484e+02
1.680000e-06	5.099371e-06	4.348231e-09	3.598470e+01	2.856591e+02
1.690000e-06	5.182958e-06	4.367609e-09	3.657455e+01	2.871574e+02
1.700000e-06	5.265727e-06	4.386232e-09	3.715862e+01	2.886454e+02
1.710000e-06	5.347513e-06	4.405862e-09	3.773576e+01	2.901216e+02
1.720000e-06	5.428337e-06	4.426770e-09	3.830612e+01	2.915816e+02
1.730000e-06	5.508194e-06	4.446033e-09	3.886964e+01	2.930187e+02
1.740000e-06	5.587041e-06	4.464197e-09	3.942604e+01	2.944243e+02
1.750000e-06	5.664920e-06	4.482826e-09	3.997561e+01	2.957895e+02
1.760000e-06	5.741814e-06	4.501226e-09	4.051823e+01	2.971051e+02
1.770000e-06	5.817751e-06	4.518547e-09	4.105409e+01	2.983634e+02
1.780000e-06	5.892580e-06	4.533611e-09	4.158213e+01	2.995583e+02
1.790000e-06	5.966109e-06	4.548265e-09	4.210101e+01	3.006862e+02
1.800000e-06	6.038416e-06	4.564751e-09	4.261126e+01	3.017460e+02
1.810000e-06	6.109599e-06	4.582157e-09	4.311358e+01	3.027395e+02
1.820000e-06	6.179751e-06	4.598411e-09	4.360861e+01	3.036714e+02
1.830000e-06	6.248916e-06	4.613080e-09	4.409669e+01	3.045484e+02
1.840000e-06	6.317129e-06	4.627314e-09	4.457805e+01	3.053790e+02
1.850000e-06	6.384316e-06	4.639770e-09	4.505217e+01	3.061730e+02
1.860000e-06	6.450218e-06	4.650912e-09	4.551722e+01	3.069402e+02
1.870000e-06	6.514829e-06	4.663719e-09	4.597316e+01	3.076902e+02
1.880000e-06	6.578328e-06	4.676298e-09	4.642125e+01	3.084313e+02
1.890000e-06	6.640759e-06	4.688246e-09	4.686181e+01	3.091701e+02
1.900000e-06	6.702073e-06	4.702761e-09	4.729448e+01	3.099109e+02
1.910000e-06	6.762323e-06	4.717778e-09	4.771965e+01	3.106557e+02
1.920000e-06	6.821476e-06	4.729820e-09	4.813708e+01	3.114038e+02
1.930000e-06	6.879244e-06	4.740253e-09	4.854472e+01	3.121522e+02
1.940000e-06	6.935580e-06	4.750182e-09	4.894227e+01	3.128960e+02
1.950000e-06	6.990653e-06	4.759029e-09	4.933090e+01	3.136285e+02
1.960000e-06	7.044566e-06	4.767877e-09	4.971135e+01	3.143426e+02
1.970000e-06	7.097187e-06	4.778212e-09	5.008268e+01	3.150306e+02
1.980000e-06	7.148223e-06	4.790000e-09	5.044283e+01	3.156854e+02
1.990000e-06	7.197587e-06	4.802642e-09	5.079118e+01	3.163011e+02
2.000000e-06	7.245542e-06	4.813946e-09	5.112958e+01	3.168734e+02
2.010000e-06	7.292234e-06	4.822925e-09	5.145907e+01	3.173999e+02
2.020000e-06	7.337632e-06	4.831143e-09	5.177943e+01	3.178804e+02
2.030000e-06	7.381844e-06	4.839278e-09	5.209142e+01	3.183171e+02
2.040000e-06	7.424857e-06	4.846638e-09	5.239495e+01	3.187140e+02
2.050000e-06	7.466461e-06	4.851488e-09	5.268853e+01	3.190769e+02
2.060000e-06	7.506598e-06	4.856452e-09	5.297177e+01	3.194127e+02
2.070000e-06	7.545480e-06	4.863451e-09	5.324615e+01	3.197292e+02
2.080000e-06	7.583184e-06	4.871033e-09	5.351222e+01	3.200339e+02
2.090000e-06	7.619681e-06	4.879273e-09	5.376977e+01	3.203339e+02
2.100000e-06	7.654962e-06	4.887511e-09	5.401873e+01	3.206351e+02
2.110000e-06	7.688762e-06	4.893977e-09	5.425724e+01	3.209417e+02
2.120000e-06	7.721054e-06	4.899739e-09	5.448512e+01	3.212561e+02
2.130000e-06	7.752144e-06	4.904625e-09	5.470451e+01	3.215788e+02
2.140000e-06	7.782015e-06	4.908382e-09	5.491530e+01	3.219078e+02
2.150000e-06	7.810549e-06	4.914195e-09	5.511666e+01	3.222399e+02
2.160000e-06	7.837873e-06	4.921105e-09	5.530948e+01	3.225698e+02
2.170000e-06	7.863668e-06	4.926340e-09	5.549151e+01	3.228917e+02
2.180000e-06	7.887793e-06	4.928464e-09	5.566175e+01	3.231989e+02
2.190000e-06	7.910630e-06	4.932450e-09	5.582290e+01	3.234851e+02
2.200000e-06	7.932116e-06	4.938007e-09	5.597452e+01	3.237445e+02
2.210000e-06	7.952326e-06	4.942004e-09	5.611713e+01	3.239725e+02
2.220000e-06	7.971408e-06	4.947110e-09	5.625179e+01	3.241659e+02
2.230000e-06	7.989116e-06	4.951903e-09	5.637675e+01	3.243236e+02
2.240000e-06	8.005327e-06	4.957092e-09	5.649115e+01	3.244461e+02
2.250000e-06	8.019997e-06	4.960985e-09	5.659467e+01	3.245359e+02
2.260000e-06	8.033118e-06	4.963515e-09	5.668726e+01	3.245971e+02
2.270000e-06	8.044772e-06	4.965504e-09	5.676950e+01	3.246352e+02
2.280000e-06	8.054667e-06	4.966189e-09	5.683932e+01	3.246562e+02
2.290000e-06	8.062821e-06	4.967699e-09	5.689686e+01	3.246667e+02
2.300000e-06	8.069636e-06	4.968611e-09	5.694496e+01	3.246730e+02
2.310000e-06	8.075078e-06	4.970012e-09	5.698336e+01	3.246804e+02
2.320000e-06	8.079245e-06	4.972274e-09	5.701277e+01	3.246932e+02
2.330000e-06	8.082114e-06	4.975131e-09	5.703301e+01	3.247141e+02
2.340000e-06	8.083317e-06	4.978688e-09	5.704150e+01	3.247440e+02
2.350000e-06	8.083003e-06	4.982247e-09	5.703928e+01	3.247819e+02
2.360000e-06	8.081395e-06	4.980287e-09	5.702793e+01	3.248250e+02
2.370000e-06	8.078468e-06	4.974199e-09	5.700728e+01	3.248692e+02
2.380000e-06	8.074355e-06	4.973350e-09	5.697826e+01	3.249090e+02
2.390000e-06	8.068896e-06	4.973965e-09	5.693974e+01	3.249383e+02
2.400000e-06	8.061769e-06	4.976276e-09	5.688944e+01	3.249510e+02
2.410000e-06	8.053327e-06	4.980961e-09	5.682987e+01	3.249410e+02
2.420000e-06	8.043801e-06	5.005096e-09	5.676264e+01	3.249033e+02
2.430000e-06	8.033059e-06	4.988963e-09	5.668685e+01	3.248341e+02
2.440000e-06	8.020837e-06	4.863947e-09	5.660060e+01	3.247312e+02
2.450000e-06	8.006361e-06	4.861437e-09	5.649845e+01	3.245942e+02
2.460000e-06	7.989579e-06	4.893439e-09	5.638002e+01	3.244244e+02
2.470000e-06	7.971311e-06	5.019438e-09	5.625110e+01	3.242247e+02
2.480000e-06	7.952174e-06	5.163776e-09	5.611607e+01	3.239996e+02
2.490000e-06	7.932461e-06	4.846042e-09	5.597696e+01	3.237545e+02
2.500000e-06	7.911493e-06	4.834079e-09	5.582899e+01	3.234954e+02
2.510000e-06	7.888558e-06	5.039104e-09	5.566715e+01	3.232282e+02
2.520000e-06	7.864430e-06	4.898077e-09	5.549688e+01	3.229584e+02
2.530000e-06	7.839247e-06	5.053409e-09	5.531917e+01	3.226905e+02
2.540000e-06	7.812377e-06	4.947910e-09	5.512956e+01	3.224278e+02
2.550000e-06	7.784383e-06	4.663260e-09	5.493201e+01	3.221716e+02
2.560000e-06	7.755418e-06	5.014150e-09	5.472762e+01	3.219217e+02
2.570000e-06	7.724801e-06	4.983375e-09	5.451156e+01	3.216758e+02
2.580000e-06	7.692541e-06	4.686686e-09	5.428391e+01	3.214301e+02
2.590000e-06	7.658912e-06	4.817922e-09	5.404661e+01	3.211793e+02
2.600000e-06	7.624167e-06	4.856549e-09	5.380142e+01	3.209172e+02
2.610000e-06	7.588263e-06	4.992213e-09	5.354805e+01	3.206369e+02
2.620000e-06	7.550771e-06	4.895019e-09	5.328349e+01	3.203315e+02
2.630000e-06	7.511657e-06	4.718651e-09	5.300747e+01	3.199948e+02
2.640000e-06	7.471199e-06	4.932599e-09	5.272197e+01	3.196213e+02
2.650000e-06	7.429495e-06	4.874414e-09	5.242768e+01	3.192069e+02
2.660000e-06	7.386452e-06	4.881594e-09	5.212394e+01	3.187492e+02
2.670000e-06	7.342249e-06	4.868022e-09	5.181201e+01	3.182474e+02
2.680000e-06	7.296841e-06	4.759782e-09	5.149158e+01	3.177026e+02
2.690000e-06	7.249872e-06	4.851684e-09	5.116014e+01	3.171174e+02
2.700000e-06	7.201653e-06	4.838210e-09	5.081986e+01	3.164957e+02
2.710000e-06	7.152190e-06	4.885799e-09	5.047082e+01	3.158425e+02
2.720000e-06	7.101164e-06	4.733147e-09	5.011075e+01	3.151630e+02
2.730000e-06	7.048696e-06	4.713082e-09	4.974049e+01	3.144626e+02
2.740000e-06	6.994719e-06	4.897465e-09	4.935960e+01	3.137462e+02
2.750000e-06	6.939266e-06	4.774719e-09	4.896828e+01	3.130176e+02
2.760000e-06	6.882474e-06	4.720898e-09	4.856752e+01	3.122796e+02
2.770000e-06	6.824514e-06	4.703226e-09	4.815851e+01	3.115334e+02
2.780000e-06	6.765568e-06	4.790111e-09	4.774254e+01	3.107786e+02
2.790000e-06	6.705554e-06	4.767728e-09	4.731905e+01	3.100135e+02
2.800000e-06	6.644320e-06	4.648230e-09	4.688694e+01	3.092350e+02
2.810000e-06	6.581718e-06	4.703662e-09	4.644518e+01	3.084387e+02
2.820000e-06	6.517881e-06	4.695317e-09	4.599470e+01	3.076201e+02
2.830000e-06	6.452934e-06	4.698867e-09	4.553639e+01	3.067741e+02
2.840000e-06	6.386849e-06	4.640168e-09	4.507004e+01	3.058962e+02
2.850000e-06	6.319690e-06	4.638413e-09	4.459612e+01	3.049823e+02
2.860000e-06	6.251542e-06	4.645200e-09	4.411522e+01	3.040298e+02
2.870000e-06	6.182369e-06	4.611999e-09	4.362709e+01	3.030370e+02
2.880000e-06	6.111904e-06	4.614482e-09	4.312984e+01	3.020041e+02
2.890000e-06	6.040257e-06	4.565946e-09	4.262425e+01	3.009325e+02
2.900000e-06	5.967577e-06	4.558892e-09	4.211137e+01	2.998249e+02
2.910000e-06	5.893910e-06	4.552156e-09	4.159153e+01	2.986854e+02
2.920000e-06	5.819302e-06	4.560758e-09	4.106504e+01	2.975183e+02
2.930000e-06	5.743548e-06	4.508563e-09	4.053047e+01	2.963283e+02
2.940000e-06	5.666607e-06	4.473434e-09	3.998752e+01	2.951198e+02
2.950000e-06	5.588415e-06	4.502211e-09	3.943574e+01	2.938964e+02
