# Temperatura_=_20.0
# Concentracion g/m^3_=_9000.0
# C_Vs_to_Am_M_A/Vsm_=_65563218390.804596
# pendiente_HvsI_1/m_=_3716.3
# ordenada_HvsI_A/m_=_1297.0
# frecuencia_Hz_=_212985.00676808108

Tiempo_(s)	Campo_(V.s)	Magnetizacion_(V.s)	Campo_(kA/m)	Magnetizacion_(A/m)
0.000000e+00	-8.094439e-06	-4.980864e-09	-5.692013e+01	-3.273345e+02
1.000000e-08	-8.092448e-06	-4.981911e-09	-5.690613e+01	-3.273732e+02
2.000000e-08	-8.088953e-06	-4.981584e-09	-5.688156e+01	-3.274012e+02
3.000000e-08	-8.084288e-06	-4.981149e-09	-5.684876e+01	-3.274119e+02
4.000000e-08	-8.078340e-06	-4.979581e-09	-5.680692e+01	-3.273990e+02
5.000000e-08	-8.071159e-06	-4.978086e-09	-5.675643e+01	-3.273569e+02
6.000000e-08	-8.062727e-06	-4.978531e-09	-5.669713e+01	-3.272813e+02
7.000000e-08	-8.052710e-06	-4.967719e-09	-5.662670e+01	-3.271695e+02
8.000000e-08	-8.040997e-06	-4.957682e-09	-5.654433e+01	-3.270208e+02
9.000000e-08	-8.027530e-06	-5.024536e-09	-5.644963e+01	-3.268364e+02
1.000000e-07	-8.011969e-06	-5.049173e-09	-5.634021e+01	-3.266197e+02
1.100000e-07	-7.994640e-06	-5.011417e-09	-5.621835e+01	-3.263758e+02
1.200000e-07	-7.976072e-06	-4.975193e-09	-5.608777e+01	-3.261113e+02
1.300000e-07	-7.956463e-06	-4.863447e-09	-5.594988e+01	-3.258337e+02
1.400000e-07	-7.936002e-06	-4.910828e-09	-5.580600e+01	-3.255507e+02
1.500000e-07	-7.914391e-06	-5.091065e-09	-5.565404e+01	-3.252699e+02
1.600000e-07	-7.891544e-06	-4.939951e-09	-5.549338e+01	-3.249980e+02
1.700000e-07	-7.867539e-06	-4.901756e-09	-5.532457e+01	-3.247399e+02
1.800000e-07	-7.841797e-06	-4.956990e-09	-5.514356e+01	-3.244991e+02
1.900000e-07	-7.814539e-06	-4.880895e-09	-5.495188e+01	-3.242764e+02
2.000000e-07	-7.786305e-06	-5.050979e-09	-5.475333e+01	-3.240705e+02
2.100000e-07	-7.756667e-06	-4.977176e-09	-5.454492e+01	-3.238774e+02
2.200000e-07	-7.725685e-06	-4.796983e-09	-5.432706e+01	-3.236914e+02
2.300000e-07	-7.693551e-06	-4.934838e-09	-5.410109e+01	-3.235046e+02
2.400000e-07	-7.659851e-06	-5.003810e-09	-5.386411e+01	-3.233082e+02
2.500000e-07	-7.624635e-06	-4.939984e-09	-5.361647e+01	-3.230924e+02
2.600000e-07	-7.588047e-06	-4.867593e-09	-5.335918e+01	-3.228478e+02
2.700000e-07	-7.549997e-06	-4.827539e-09	-5.309162e+01	-3.225655e+02
2.800000e-07	-7.510747e-06	-4.925731e-09	-5.281561e+01	-3.222378e+02
2.900000e-07	-7.470228e-06	-4.943290e-09	-5.253068e+01	-3.218588e+02
3.000000e-07	-7.428061e-06	-4.846581e-09	-5.223416e+01	-3.214251e+02
3.100000e-07	-7.384340e-06	-4.814520e-09	-5.192672e+01	-3.209353e+02
3.200000e-07	-7.339300e-06	-4.867758e-09	-5.161000e+01	-3.203906e+02
3.300000e-07	-7.292982e-06	-4.887190e-09	-5.128428e+01	-3.197941e+02
3.400000e-07	-7.245368e-06	-4.825083e-09	-5.094946e+01	-3.191512e+02
3.500000e-07	-7.196130e-06	-4.817150e-09	-5.060322e+01	-3.184685e+02
3.600000e-07	-7.145041e-06	-4.792341e-09	-5.024397e+01	-3.177533e+02
3.700000e-07	-7.092443e-06	-4.809451e-09	-4.987410e+01	-3.170134e+02
3.800000e-07	-7.038623e-06	-4.850129e-09	-4.949563e+01	-3.162559e+02
3.900000e-07	-6.983545e-06	-4.767636e-09	-4.910832e+01	-3.154871e+02
4.000000e-07	-6.927234e-06	-4.736583e-09	-4.871234e+01	-3.147116e+02
4.100000e-07	-6.869703e-06	-4.786066e-09	-4.830778e+01	-3.139323e+02
4.200000e-07	-6.810818e-06	-4.807301e-09	-4.789371e+01	-3.131501e+02
4.300000e-07	-6.750656e-06	-4.735123e-09	-4.747065e+01	-3.123637e+02
4.400000e-07	-6.689419e-06	-4.691321e-09	-4.704003e+01	-3.115699e+02
4.500000e-07	-6.627194e-06	-4.731788e-09	-4.660246e+01	-3.107641e+02
4.600000e-07	-6.563840e-06	-4.734243e-09	-4.615696e+01	-3.099403e+02
4.700000e-07	-6.499358e-06	-4.691689e-09	-4.570352e+01	-3.090921e+02
4.800000e-07	-6.433720e-06	-4.646388e-09	-4.524195e+01	-3.082129e+02
4.900000e-07	-6.366752e-06	-4.656529e-09	-4.477103e+01	-3.072970e+02
5.000000e-07	-6.298680e-06	-4.673663e-09	-4.429235e+01	-3.063393e+02
5.100000e-07	-6.229698e-06	-4.644451e-09	-4.380727e+01	-3.053366e+02
5.200000e-07	-6.159733e-06	-4.599603e-09	-4.331527e+01	-3.042874e+02
5.300000e-07	-6.088715e-06	-4.584197e-09	-4.281587e+01	-3.031920e+02
5.400000e-07	-6.016595e-06	-4.598895e-09	-4.230873e+01	-3.020525e+02
5.500000e-07	-5.943382e-06	-4.587200e-09	-4.179389e+01	-3.008730e+02
5.600000e-07	-5.868981e-06	-4.545863e-09	-4.127070e+01	-2.996584e+02
5.700000e-07	-5.793276e-06	-4.504986e-09	-4.073835e+01	-2.984147e+02
5.800000e-07	-5.716344e-06	-4.502392e-09	-4.019736e+01	-2.971480e+02
5.900000e-07	-5.638331e-06	-4.514578e-09	-3.964877e+01	-2.958641e+02
6.000000e-07	-5.559292e-06	-4.482641e-09	-3.909297e+01	-2.945677e+02
6.100000e-07	-5.479016e-06	-4.431691e-09	-3.852847e+01	-2.932621e+02
6.200000e-07	-5.397625e-06	-4.416170e-09	-3.795612e+01	-2.919489e+02
6.300000e-07	-5.315421e-06	-4.426911e-09	-3.737806e+01	-2.906275e+02
6.400000e-07	-5.232377e-06	-4.403383e-09	-3.679410e+01	-2.892951e+02
6.500000e-07	-5.148486e-06	-4.351822e-09	-3.620418e+01	-2.879471e+02
6.600000e-07	-5.063759e-06	-4.325301e-09	-3.560838e+01	-2.865769e+02
6.700000e-07	-4.978171e-06	-4.325230e-09	-3.500653e+01	-2.851769e+02
6.800000e-07	-4.891870e-06	-4.313801e-09	-3.439966e+01	-2.837386e+02
6.900000e-07	-4.804803e-06	-4.276797e-09	-3.378740e+01	-2.822534e+02
7.000000e-07	-4.716652e-06	-4.240402e-09	-3.316752e+01	-2.807133e+02
7.100000e-07	-4.627484e-06	-4.222884e-09	-3.254049e+01	-2.791113e+02
7.200000e-07	-4.537574e-06	-4.209695e-09	-3.190824e+01	-2.774419e+02
7.300000e-07	-4.446878e-06	-4.180608e-09	-3.127047e+01	-2.757017e+02
7.400000e-07	-4.355327e-06	-4.138573e-09	-3.062668e+01	-2.738893e+02
7.500000e-07	-4.262908e-06	-4.107830e-09	-2.997679e+01	-2.720053e+02
7.600000e-07	-4.169687e-06	-4.093644e-09	-2.932126e+01	-2.700522e+02
7.700000e-07	-4.075872e-06	-4.070495e-09	-2.866155e+01	-2.680338e+02
7.800000e-07	-3.981483e-06	-4.029861e-09	-2.799781e+01	-2.659551e+02
7.900000e-07	-3.886263e-06	-3.991494e-09	-2.732822e+01	-2.638212e+02
8.000000e-07	-3.790151e-06	-3.970463e-09	-2.665236e+01	-2.616365e+02
8.100000e-07	-3.693424e-06	-3.948004e-09	-2.597218e+01	-2.594048e+02
8.200000e-07	-3.596216e-06	-3.904181e-09	-2.528861e+01	-2.571277e+02
8.300000e-07	-3.498384e-06	-3.857874e-09	-2.460065e+01	-2.548049e+02
8.400000e-07	-3.399798e-06	-3.824495e-09	-2.390740e+01	-2.524333e+02
8.500000e-07	-3.300556e-06	-3.794054e-09	-2.320953e+01	-2.500075e+02
8.600000e-07	-3.200798e-06	-3.751491e-09	-2.250803e+01	-2.475194e+02
8.700000e-07	-3.100586e-06	-3.701602e-09	-2.180333e+01	-2.449587e+02
8.800000e-07	-2.999864e-06	-3.658557e-09	-2.109506e+01	-2.423138e+02
8.900000e-07	-2.898662e-06	-3.620903e-09	-2.038341e+01	-2.395716e+02
9.000000e-07	-2.797093e-06	-3.578841e-09	-1.966917e+01	-2.367193e+02
9.100000e-07	-2.695161e-06	-3.527924e-09	-1.895238e+01	-2.337443e+02
9.200000e-07	-2.592792e-06	-3.474901e-09	-1.823252e+01	-2.306352e+02
9.300000e-07	-2.489923e-06	-3.428187e-09	-1.750915e+01	-2.273827e+02
9.400000e-07	-2.386531e-06	-3.379543e-09	-1.678210e+01	-2.239793e+02
9.500000e-07	-2.282593e-06	-3.322886e-09	-1.605120e+01	-2.204197e+02
9.600000e-07	-2.178161e-06	-3.263751e-09	-1.531684e+01	-2.167006e+02
9.700000e-07	-2.073363e-06	-3.209830e-09	-1.457990e+01	-2.128203e+02
9.800000e-07	-1.968287e-06	-3.155117e-09	-1.384100e+01	-2.087774e+02
9.900000e-07	-1.862933e-06	-3.088941e-09	-1.310015e+01	-2.045702e+02
1.000000e-06	-1.757226e-06	-3.018306e-09	-1.235683e+01	-2.001953e+02
1.010000e-06	-1.651168e-06	-2.949847e-09	-1.161102e+01	-1.956462e+02
1.020000e-06	-1.544714e-06	-2.882663e-09	-1.086244e+01	-1.909121e+02
1.030000e-06	-1.437788e-06	-2.806234e-09	-1.011053e+01	-1.859766e+02
1.040000e-06	-1.330553e-06	-2.719949e-09	-9.356456e+00	-1.808170e+02
1.050000e-06	-1.223057e-06	-2.634883e-09	-8.600543e+00	-1.754034e+02
1.060000e-06	-1.115246e-06	-2.550747e-09	-7.842415e+00	-1.696989e+02
1.070000e-06	-1.007256e-06	-2.460198e-09	-7.083026e+00	-1.636599e+02
1.080000e-06	-8.991503e-07	-2.357919e-09	-6.322829e+00	-1.572372e+02
1.090000e-06	-7.908502e-07	-2.249749e-09	-5.561262e+00	-1.503773e+02
1.100000e-06	-6.823301e-07	-2.140109e-09	-4.798148e+00	-1.430248e+02
1.110000e-06	-5.736488e-07	-2.021389e-09	-4.033901e+00	-1.351246e+02
1.120000e-06	-4.648911e-07	-1.892625e-09	-3.269117e+00	-1.266248e+02
1.130000e-06	-3.560882e-07	-1.748683e-09	-2.504014e+00	-1.174800e+02
1.140000e-06	-2.472656e-07	-1.593230e-09	-1.738773e+00	-1.076539e+02
1.150000e-06	-1.383888e-07	-1.433398e-09	-9.731507e-01	-9.712288e+01
1.160000e-06	-2.946232e-08	-1.261662e-09	-2.071792e-01	-8.587784e+01
1.170000e-06	7.942909e-08	-1.078757e-09	5.585458e-01	-7.392683e+01
1.180000e-06	1.882542e-07	-8.882872e-10	1.323804e+00	-6.129632e+01
1.190000e-06	2.970103e-07	-6.934595e-10	2.088578e+00	-4.803193e+01
1.200000e-06	4.057285e-07	-4.916211e-10	2.853085e+00	-3.419829e+01
1.210000e-06	5.142635e-07	-2.778243e-10	3.616304e+00	-1.987804e+01
1.220000e-06	6.226063e-07	-5.383795e-11	4.378171e+00	-5.170010e+00
1.230000e-06	7.308943e-07	1.753681e-10	5.139652e+00	9.813435e+00
1.240000e-06	8.390552e-07	4.074368e-10	5.900240e+00	2.494971e+01
1.250000e-06	9.470549e-07	6.453357e-10	6.659694e+00	4.010984e+01
1.260000e-06	1.054852e-06	8.841220e-10	7.417722e+00	5.516262e+01
1.270000e-06	1.162385e-06	1.117354e-09	8.173898e+00	6.997897e+01
1.280000e-06	1.269668e-06	1.339739e-09	8.928314e+00	8.443615e+01
1.290000e-06	1.376655e-06	1.552973e-09	9.680642e+00	9.842174e+01
1.300000e-06	1.483334e-06	1.756206e-09	1.043081e+01	1.118371e+02
1.310000e-06	1.589749e-06	1.950707e-09	1.117912e+01	1.246002e+02
1.320000e-06	1.695865e-06	2.129223e-09	1.192533e+01	1.366478e+02
1.330000e-06	1.801653e-06	2.294575e-09	1.266924e+01	1.479364e+02
1.340000e-06	1.907139e-06	2.451524e-09	1.341101e+01	1.584429e+02
1.350000e-06	2.012322e-06	2.598080e-09	1.415066e+01	1.681636e+02
1.360000e-06	2.117181e-06	2.731049e-09	1.488803e+01	1.771133e+02
1.370000e-06	2.221752e-06	2.849212e-09	1.562337e+01	1.853227e+02
1.380000e-06	2.326024e-06	2.960522e-09	1.635661e+01	1.928358e+02
1.390000e-06	2.429830e-06	3.061153e-09	1.708657e+01	1.997072e+02
1.400000e-06	2.533116e-06	3.153461e-09	1.781289e+01	2.059981e+02
1.410000e-06	2.635901e-06	3.240093e-09	1.853567e+01	2.117737e+02
1.420000e-06	2.738146e-06	3.322308e-09	1.925466e+01	2.170992e+02
1.430000e-06	2.839950e-06	3.401045e-09	1.997054e+01	2.220376e+02
1.440000e-06	2.941414e-06	3.475500e-09	2.068404e+01	2.266469e+02
1.450000e-06	3.042438e-06	3.545481e-09	2.139444e+01	2.309782e+02
1.460000e-06	3.142961e-06	3.610282e-09	2.210132e+01	2.350745e+02
1.470000e-06	3.243015e-06	3.671442e-09	2.280489e+01	2.389702e+02
1.480000e-06	3.342435e-06	3.730844e-09	2.350402e+01	2.426910e+02
1.490000e-06	3.441115e-06	3.783976e-09	2.419794e+01	2.462543e+02
1.500000e-06	3.539155e-06	3.831763e-09	2.488736e+01	2.496705e+02
1.510000e-06	3.636571e-06	3.876610e-09	2.557238e+01	2.529440e+02
1.520000e-06	3.733360e-06	3.921166e-09	2.625300e+01	2.560751e+02
1.530000e-06	3.829406e-06	3.964397e-09	2.692840e+01	2.590615e+02
1.540000e-06	3.924653e-06	4.003080e-09	2.759818e+01	2.619001e+02
1.550000e-06	4.019128e-06	4.038464e-09	2.826253e+01	2.645883e+02
1.560000e-06	4.112848e-06	4.074329e-09	2.892157e+01	2.671252e+02
1.570000e-06	4.205882e-06	4.111231e-09	2.957578e+01	2.695126e+02
1.580000e-06	4.298269e-06	4.145069e-09	3.022545e+01	2.717554e+02
1.590000e-06	4.389978e-06	4.175398e-09	3.087035e+01	2.738621e+02
1.600000e-06	4.480813e-06	4.203385e-09	3.150910e+01	2.758439e+02
1.610000e-06	4.570709e-06	4.229540e-09	3.214124e+01	2.777149e+02
1.620000e-06	4.659790e-06	4.256590e-09	3.276766e+01	2.794906e+02
1.630000e-06	4.748047e-06	4.284178e-09	3.338829e+01	2.811878e+02
1.640000e-06	4.835318e-06	4.308938e-09	3.400198e+01	2.828226e+02
1.650000e-06	4.921690e-06	4.332335e-09	3.460935e+01	2.844105e+02
1.660000e-06	5.007291e-06	4.356793e-09	3.521130e+01	2.859644e+02
1.670000e-06	5.092077e-06	4.380962e-09	3.580751e+01	2.874949e+02
1.680000e-06	5.176093e-06	4.401086e-09	3.639831e+01	2.890090e+02
1.690000e-06	5.259280e-06	4.418465e-09	3.698328e+01	2.905107e+02
1.700000e-06	5.341587e-06	4.437694e-09	3.756206e+01	2.920002e+02
1.710000e-06	5.423009e-06	4.456770e-09	3.813463e+01	2.934748e+02
1.720000e-06	5.503471e-06	4.474354e-09	3.870043e+01	2.949295e+02
1.730000e-06	5.582902e-06	4.492671e-09	3.925900e+01	2.963571e+02
1.740000e-06	5.661355e-06	4.511167e-09	3.981067e+01	2.977497e+02
1.750000e-06	5.738797e-06	4.529281e-09	4.035525e+01	2.990992e+02
1.760000e-06	5.815242e-06	4.547405e-09	4.089281e+01	3.003981e+02
1.770000e-06	5.890664e-06	4.563858e-09	4.142318e+01	3.016404e+02
1.780000e-06	5.964835e-06	4.578246e-09	4.194475e+01	3.028221e+02
1.790000e-06	6.037792e-06	4.592884e-09	4.245778e+01	3.039413e+02
1.800000e-06	6.109658e-06	4.608968e-09	4.296315e+01	3.049989e+02
1.810000e-06	6.180471e-06	4.625247e-09	4.346110e+01	3.059980e+02
1.820000e-06	6.250217e-06	4.640936e-09	4.395156e+01	3.069438e+02
1.830000e-06	6.318945e-06	4.656314e-09	4.443485e+01	3.078433e+02
1.840000e-06	6.386641e-06	4.670139e-09	4.491089e+01	3.087044e+02
1.850000e-06	6.453149e-06	4.683612e-09	4.537858e+01	3.095357e+02
1.860000e-06	6.518452e-06	4.697078e-09	4.583778e+01	3.103450e+02
1.870000e-06	6.582550e-06	4.708842e-09	4.628853e+01	3.111398e+02
1.880000e-06	6.645434e-06	4.720752e-09	4.673072e+01	3.119257e+02
1.890000e-06	6.707200e-06	4.733461e-09	4.716507e+01	3.127065e+02
1.900000e-06	6.767938e-06	4.746309e-09	4.759217e+01	3.134840e+02
1.910000e-06	6.827639e-06	4.758381e-09	4.801199e+01	3.142578e+02
1.920000e-06	6.886078e-06	4.770630e-09	4.842293e+01	3.150254e+02
1.930000e-06	6.943059e-06	4.782273e-09	4.882363e+01	3.157828e+02
1.940000e-06	6.998660e-06	4.792415e-09	4.921461e+01	3.165244e+02
1.950000e-06	7.053045e-06	4.802561e-09	4.959705e+01	3.172442e+02
1.960000e-06	7.106219e-06	4.813978e-09	4.997097e+01	3.179360e+02
1.970000e-06	7.158025e-06	4.825120e-09	5.033527e+01	3.185941e+02
1.980000e-06	7.208186e-06	4.834487e-09	5.068800e+01	3.192138e+02
1.990000e-06	7.256695e-06	4.844219e-09	5.102912e+01	3.197919e+02
2.000000e-06	7.303832e-06	4.854942e-09	5.136059e+01	3.203270e+02
2.010000e-06	7.349789e-06	4.864877e-09	5.168375e+01	3.208195e+02
2.020000e-06	7.394574e-06	4.872496e-09	5.199868e+01	3.212719e+02
2.030000e-06	7.438152e-06	4.879425e-09	5.230512e+01	3.216884e+02
2.040000e-06	7.480327e-06	4.886135e-09	5.260169e+01	3.220743e+02
2.050000e-06	7.520993e-06	4.892961e-09	5.288766e+01	3.224361e+02
2.060000e-06	7.560374e-06	4.900014e-09	5.316459e+01	3.227805e+02
2.070000e-06	7.598540e-06	4.907646e-09	5.343297e+01	3.231142e+02
2.080000e-06	7.635479e-06	4.916343e-09	5.369273e+01	3.234430e+02
2.090000e-06	7.671291e-06	4.924886e-09	5.394455e+01	3.237717e+02
2.100000e-06	7.705768e-06	4.931195e-09	5.418700e+01	3.241033e+02
2.110000e-06	7.738614e-06	4.936824e-09	5.441797e+01	3.244392e+02
2.120000e-06	7.770116e-06	4.943008e-09	5.463949e+01	3.247789e+02
2.130000e-06	7.800441e-06	4.949530e-09	5.485274e+01	3.251201e+02
2.140000e-06	7.829478e-06	4.956407e-09	5.505693e+01	3.254590e+02
2.150000e-06	7.857333e-06	4.963835e-09	5.525281e+01	3.257904e+02
2.160000e-06	7.883759e-06	4.970617e-09	5.543863e+01	3.261088e+02
2.170000e-06	7.908516e-06	4.974264e-09	5.561272e+01	3.264083e+02
2.180000e-06	7.931839e-06	4.978705e-09	5.577673e+01	3.266832e+02
2.190000e-06	7.953867e-06	4.983439e-09	5.593163e+01	3.269290e+02
2.200000e-06	7.974545e-06	4.986771e-09	5.607704e+01	3.271422e+02
2.210000e-06	7.994025e-06	4.990282e-09	5.621402e+01	3.273210e+02
2.220000e-06	8.012211e-06	4.994626e-09	5.634191e+01	3.274655e+02
2.230000e-06	8.028863e-06	5.001939e-09	5.645900e+01	3.275774e+02
2.240000e-06	8.043973e-06	5.007649e-09	5.656526e+01	3.276600e+02
2.250000e-06	8.057577e-06	5.010391e-09	5.666092e+01	3.277181e+02
2.260000e-06	8.069716e-06	5.012700e-09	5.674628e+01	3.277574e+02
2.270000e-06	8.080201e-06	5.015491e-09	5.682001e+01	3.277838e+02
2.280000e-06	8.088957e-06	5.018326e-09	5.688158e+01	3.278036e+02
2.290000e-06	8.096187e-06	5.018736e-09	5.693242e+01	3.278220e+02
2.300000e-06	8.102052e-06	5.019253e-09	5.697367e+01	3.278433e+02
2.310000e-06	8.106582e-06	5.021585e-09	5.700552e+01	3.278705e+02
2.320000e-06	8.109882e-06	5.024863e-09	5.702873e+01	3.279045e+02
2.330000e-06	8.111600e-06	5.026555e-09	5.704081e+01	3.279446e+02
2.340000e-06	8.111698e-06	5.028167e-09	5.704150e+01	3.279882e+02
2.350000e-06	8.110498e-06	5.027276e-09	5.703306e+01	3.280311e+02
2.360000e-06	8.107958e-06	5.021092e-09	5.701520e+01	3.280679e+02
2.370000e-06	8.104212e-06	5.020409e-09	5.698886e+01	3.280922e+02
2.380000e-06	8.099264e-06	5.019233e-09	5.695407e+01	3.280977e+02
2.390000e-06	8.092715e-06	5.019802e-09	5.690801e+01	3.280781e+02
2.400000e-06	8.084726e-06	5.021955e-09	5.685183e+01	3.280280e+02
2.410000e-06	8.075661e-06	5.027356e-09	5.678809e+01	3.279437e+02
2.420000e-06	8.065396e-06	5.047890e-09	5.671590e+01	3.278227e+02
2.430000e-06	8.053703e-06	4.949352e-09	5.663368e+01	3.276649e+02
2.440000e-06	8.039887e-06	4.910311e-09	5.653652e+01	3.274722e+02
2.450000e-06	8.023738e-06	4.929483e-09	5.642297e+01	3.272483e+02
2.460000e-06	8.005850e-06	4.966108e-09	5.629718e+01	3.269987e+02
2.470000e-06	7.986897e-06	5.163184e-09	5.616390e+01	3.267303e+02
2.480000e-06	7.967383e-06	5.031396e-09	5.602668e+01	3.264506e+02
2.490000e-06	7.946849e-06	4.842181e-09	5.588228e+01	3.261676e+02
2.500000e-06	7.924391e-06	5.039377e-09	5.572436e+01	3.258886e+02
2.510000e-06	7.900522e-06	4.971492e-09	5.555651e+01	3.256197e+02
2.520000e-06	7.875683e-06	4.996502e-09	5.538184e+01	3.253659e+02
2.530000e-06	7.849220e-06	5.071027e-09	5.519575e+01	3.251297e+02
2.540000e-06	7.821441e-06	4.764324e-09	5.500041e+01	3.249115e+02
2.550000e-06	7.792709e-06	4.907855e-09	5.479837e+01	3.247093e+02
2.560000e-06	7.762544e-06	5.050509e-09	5.458625e+01	3.245188e+02
2.570000e-06	7.730759e-06	4.798053e-09	5.436274e+01	3.243334e+02
2.580000e-06	7.697417e-06	4.851508e-09	5.412828e+01	3.241452e+02
2.590000e-06	7.662807e-06	4.895490e-09	5.388490e+01	3.239450e+02
2.600000e-06	7.627131e-06	4.953643e-09	5.363402e+01	3.237230e+02
2.610000e-06	7.590021e-06	4.989821e-09	5.337306e+01	3.234698e+02
2.620000e-06	7.551269e-06	4.778539e-09	5.310056e+01	3.231769e+02
2.630000e-06	7.511036e-06	4.917946e-09	5.281764e+01	3.228369e+02
2.640000e-06	7.469528e-06	4.957329e-09	5.252576e+01	3.224446e+02
2.650000e-06	7.426773e-06	4.882969e-09	5.222510e+01	3.219970e+02
2.660000e-06	7.382845e-06	4.910170e-09	5.191620e+01	3.214934e+02
2.670000e-06	7.337733e-06	4.829796e-09	5.159897e+01	3.209354e+02
2.680000e-06	7.291013e-06	4.898459e-09	5.127044e+01	3.203269e+02
2.690000e-06	7.242929e-06	4.860270e-09	5.093231e+01	3.196734e+02
2.700000e-06	7.193674e-06	4.881501e-09	5.058595e+01	3.189820e+02
2.710000e-06	7.142902e-06	4.848457e-09	5.022892e+01	3.182600e+02
2.720000e-06	7.090694e-06	4.751215e-09	4.986179e+01	3.175151e+02
2.730000e-06	7.037074e-06	4.907664e-09	4.948474e+01	3.167544e+02
2.740000e-06	6.981985e-06	4.841692e-09	4.909735e+01	3.159836e+02
2.750000e-06	6.925464e-06	4.765960e-09	4.869990e+01	3.152071e+02
2.760000e-06	6.867707e-06	4.752757e-09	4.829375e+01	3.144272e+02
2.770000e-06	6.808908e-06	4.800926e-09	4.788027e+01	3.136442e+02
2.780000e-06	6.748969e-06	4.832857e-09	4.745878e+01	3.128564e+02
2.790000e-06	6.687796e-06	4.696131e-09	4.702861e+01	3.120602e+02
2.800000e-06	6.625341e-06	4.721678e-09	4.658943e+01	3.112505e+02
2.810000e-06	6.561646e-06	4.746285e-09	4.614153e+01	3.104213e+02
2.820000e-06	6.496822e-06	4.754664e-09	4.568568e+01	3.095661e+02
2.830000e-06	6.430850e-06	4.696805e-09	4.522177e+01	3.086783e+02
2.840000e-06	6.363817e-06	4.658166e-09	4.475039e+01	3.077524e+02
2.850000e-06	6.295718e-06	4.690276e-09	4.427152e+01	3.067839e+02
2.860000e-06	6.226449e-06	4.662248e-09	4.378442e+01	3.057697e+02
2.870000e-06	6.156060e-06	4.657052e-09	4.328945e+01	3.047089e+02
2.880000e-06	6.084538e-06	4.610394e-09	4.278650e+01	3.036023e+02
2.890000e-06	6.011876e-06	4.597877e-09	4.227554e+01	3.024525e+02
2.900000e-06	5.938194e-06	4.593892e-09	4.175741e+01	3.012638e+02
2.910000e-06	5.863553e-06	4.599311e-09	4.123253e+01	3.000414e+02
2.920000e-06	5.787862e-06	4.565803e-09	4.070027e+01	2.987915e+02
2.930000e-06	5.710928e-06	4.513738e-09	4.015927e+01	2.975201e+02
2.940000e-06	5.632754e-06	4.531142e-09	3.960956e+01	2.962327e+02
2.950000e-06	5.553494e-06	4.530174e-09	3.905220e+01	2.949339e+02
