# Temperatura_=_20.0
# Concentracion g/m^3_=_9000.0
# C_Vs_to_Am_M_A/Vsm_=_65563218390.804596
# pendiente_HvsI_1/m_=_3716.3
# ordenada_HvsI_A/m_=_1297.0
# frecuencia_Hz_=_212984.10748586312

Tiempo_(s)	Campo_(V.s)	Magnetizacion_(V.s)	Campo_(kA/m)	Magnetizacion_(A/m)
0.000000e+00	-8.066765e-06	-2.003936e-09	-5.692044e+01	-1.296787e+02
1.000000e-08	-8.065751e-06	-2.002949e-09	-5.691328e+01	-1.296978e+02
2.000000e-08	-8.063096e-06	-2.003468e-09	-5.689455e+01	-1.297343e+02
3.000000e-08	-8.059081e-06	-2.002133e-09	-5.686622e+01	-1.297874e+02
4.000000e-08	-8.053877e-06	-2.002074e-09	-5.682950e+01	-1.298546e+02
5.000000e-08	-8.047320e-06	-2.001797e-09	-5.678324e+01	-1.299319e+02
6.000000e-08	-8.039590e-06	-2.002100e-09	-5.672869e+01	-1.300137e+02
7.000000e-08	-8.030574e-06	-1.995995e-09	-5.666507e+01	-1.300935e+02
8.000000e-08	-8.019860e-06	-1.972473e-09	-5.658947e+01	-1.301637e+02
9.000000e-08	-8.007420e-06	-1.989414e-09	-5.650169e+01	-1.302163e+02
1.000000e-07	-7.993128e-06	-2.033225e-09	-5.640085e+01	-1.302437e+02
1.100000e-07	-7.976892e-06	-2.026030e-09	-5.628628e+01	-1.302383e+02
1.200000e-07	-7.959070e-06	-2.009530e-09	-5.616053e+01	-1.301939e+02
1.300000e-07	-7.940065e-06	-1.960315e-09	-5.602642e+01	-1.301053e+02
1.400000e-07	-7.920113e-06	-1.899555e-09	-5.588564e+01	-1.299691e+02
1.500000e-07	-7.899219e-06	-2.033992e-09	-5.573821e+01	-1.297836e+02
1.600000e-07	-7.877099e-06	-2.047154e-09	-5.558212e+01	-1.295490e+02
1.700000e-07	-7.853783e-06	-1.904383e-09	-5.541761e+01	-1.292675e+02
1.800000e-07	-7.829076e-06	-1.936615e-09	-5.524327e+01	-1.289431e+02
1.900000e-07	-7.802635e-06	-1.914667e-09	-5.505669e+01	-1.285814e+02
2.000000e-07	-7.774981e-06	-1.945658e-09	-5.486156e+01	-1.281891e+02
2.100000e-07	-7.746296e-06	-2.031905e-09	-5.465916e+01	-1.277740e+02
2.200000e-07	-7.716211e-06	-1.885789e-09	-5.444687e+01	-1.273443e+02
2.300000e-07	-7.684821e-06	-1.843378e-09	-5.422538e+01	-1.269084e+02
2.400000e-07	-7.652108e-06	-1.959269e-09	-5.399455e+01	-1.264742e+02
2.500000e-07	-7.617884e-06	-1.973239e-09	-5.375306e+01	-1.260489e+02
2.600000e-07	-7.582168e-06	-1.937772e-09	-5.350104e+01	-1.256387e+02
2.700000e-07	-7.545020e-06	-1.836225e-09	-5.323892e+01	-1.252483e+02
2.800000e-07	-7.506555e-06	-1.853523e-09	-5.296750e+01	-1.248810e+02
2.900000e-07	-7.466804e-06	-1.955730e-09	-5.268701e+01	-1.245386e+02
3.000000e-07	-7.425598e-06	-1.920878e-09	-5.239626e+01	-1.242211e+02
3.100000e-07	-7.382849e-06	-1.846139e-09	-5.209462e+01	-1.239271e+02
3.200000e-07	-7.338690e-06	-1.856329e-09	-5.178302e+01	-1.236539e+02
3.300000e-07	-7.293174e-06	-1.904880e-09	-5.146186e+01	-1.233977e+02
3.400000e-07	-7.246390e-06	-1.882501e-09	-5.113174e+01	-1.231537e+02
3.500000e-07	-7.198276e-06	-1.873422e-09	-5.079224e+01	-1.229168e+02
3.600000e-07	-7.148477e-06	-1.857028e-09	-5.044085e+01	-1.226816e+02
3.700000e-07	-7.096947e-06	-1.817735e-09	-5.007724e+01	-1.224426e+02
3.800000e-07	-7.044027e-06	-1.875816e-09	-4.970383e+01	-1.221948e+02
3.900000e-07	-6.989821e-06	-1.891090e-09	-4.932134e+01	-1.219340e+02
4.000000e-07	-6.934447e-06	-1.816034e-09	-4.893062e+01	-1.216563e+02
4.100000e-07	-6.877995e-06	-1.802773e-09	-4.853228e+01	-1.213590e+02
4.200000e-07	-6.820231e-06	-1.856997e-09	-4.812469e+01	-1.210401e+02
4.300000e-07	-6.761083e-06	-1.864546e-09	-4.770733e+01	-1.206989e+02
4.400000e-07	-6.700672e-06	-1.802160e-09	-4.728106e+01	-1.203351e+02
4.500000e-07	-6.639136e-06	-1.785552e-09	-4.684685e+01	-1.199495e+02
4.600000e-07	-6.576646e-06	-1.814565e-09	-4.640591e+01	-1.195435e+02
4.700000e-07	-6.513134e-06	-1.824989e-09	-4.595776e+01	-1.191190e+02
4.800000e-07	-6.448380e-06	-1.793333e-09	-4.550085e+01	-1.186780e+02
4.900000e-07	-6.382391e-06	-1.760246e-09	-4.503521e+01	-1.182231e+02
5.000000e-07	-6.315159e-06	-1.773962e-09	-4.456082e+01	-1.177564e+02
5.100000e-07	-6.246807e-06	-1.791207e-09	-4.407851e+01	-1.172802e+02
5.200000e-07	-6.177501e-06	-1.779235e-09	-4.358948e+01	-1.167963e+02
5.300000e-07	-6.107211e-06	-1.750056e-09	-4.309350e+01	-1.163064e+02
5.400000e-07	-6.035884e-06	-1.739005e-09	-4.259020e+01	-1.158114e+02
5.500000e-07	-5.963536e-06	-1.748581e-09	-4.207971e+01	-1.153120e+02
5.600000e-07	-5.890177e-06	-1.750759e-09	-4.156207e+01	-1.148083e+02
5.700000e-07	-5.815539e-06	-1.726846e-09	-4.103541e+01	-1.142999e+02
5.800000e-07	-5.739586e-06	-1.693910e-09	-4.049947e+01	-1.137861e+02
5.900000e-07	-5.662513e-06	-1.695790e-09	-3.995563e+01	-1.132658e+02
6.000000e-07	-5.584355e-06	-1.715293e-09	-3.940414e+01	-1.127373e+02
6.100000e-07	-5.505113e-06	-1.703203e-09	-3.884499e+01	-1.121991e+02
6.200000e-07	-5.424658e-06	-1.666862e-09	-3.827729e+01	-1.116492e+02
6.300000e-07	-5.343081e-06	-1.656574e-09	-3.770167e+01	-1.110856e+02
6.400000e-07	-5.260684e-06	-1.670528e-09	-3.712026e+01	-1.105065e+02
6.500000e-07	-5.177465e-06	-1.666243e-09	-3.653306e+01	-1.099100e+02
6.600000e-07	-5.093399e-06	-1.639972e-09	-3.593987e+01	-1.092942e+02
6.700000e-07	-5.008541e-06	-1.622015e-09	-3.534110e+01	-1.086577e+02
6.800000e-07	-4.922861e-06	-1.621607e-09	-3.473653e+01	-1.079992e+02
6.900000e-07	-4.836413e-06	-1.621291e-09	-3.412654e+01	-1.073177e+02
7.000000e-07	-4.749071e-06	-1.608879e-09	-3.351024e+01	-1.066127e+02
7.100000e-07	-4.660661e-06	-1.587463e-09	-3.288640e+01	-1.058836e+02
7.200000e-07	-4.571423e-06	-1.573609e-09	-3.225672e+01	-1.051306e+02
7.300000e-07	-4.481467e-06	-1.571781e-09	-3.162198e+01	-1.043540e+02
7.400000e-07	-4.390633e-06	-1.566100e-09	-3.098104e+01	-1.035544e+02
7.500000e-07	-4.298847e-06	-1.547102e-09	-3.033338e+01	-1.027324e+02
7.600000e-07	-4.206224e-06	-1.528339e-09	-2.967982e+01	-1.018891e+02
7.700000e-07	-4.112989e-06	-1.520647e-09	-2.902194e+01	-1.010255e+02
7.800000e-07	-4.019156e-06	-1.513481e-09	-2.835984e+01	-1.001424e+02
7.900000e-07	-3.924726e-06	-1.496509e-09	-2.769352e+01	-9.924073e+01
8.000000e-07	-3.829584e-06	-1.477575e-09	-2.702218e+01	-9.832094e+01
8.100000e-07	-3.733616e-06	-1.467925e-09	-2.634502e+01	-9.738326e+01
8.200000e-07	-3.637008e-06	-1.458744e-09	-2.566333e+01	-9.642747e+01
8.300000e-07	-3.539848e-06	-1.439630e-09	-2.497776e+01	-9.545288e+01
8.400000e-07	-3.442131e-06	-1.418825e-09	-2.428825e+01	-9.445826e+01
8.500000e-07	-3.343754e-06	-1.406705e-09	-2.359408e+01	-9.344185e+01
8.600000e-07	-3.244643e-06	-1.397564e-09	-2.289474e+01	-9.240138e+01
8.700000e-07	-3.144858e-06	-1.378473e-09	-2.219065e+01	-9.133413e+01
8.800000e-07	-3.044583e-06	-1.354278e-09	-2.148309e+01	-9.023701e+01
8.900000e-07	-2.943917e-06	-1.336817e-09	-2.077277e+01	-8.910664e+01
9.000000e-07	-2.842830e-06	-1.324347e-09	-2.005948e+01	-8.793951e+01
9.100000e-07	-2.741343e-06	-1.306401e-09	-1.934337e+01	-8.673210e+01
9.200000e-07	-2.639459e-06	-1.281654e-09	-1.862446e+01	-8.548098e+01
9.300000e-07	-2.537163e-06	-1.258598e-09	-1.790265e+01	-8.418295e+01
9.400000e-07	-2.434444e-06	-1.240690e-09	-1.717784e+01	-8.283510e+01
9.500000e-07	-2.331270e-06	-1.223459e-09	-1.644983e+01	-8.143486e+01
9.600000e-07	-2.227605e-06	-1.199844e-09	-1.571835e+01	-7.997995e+01
9.700000e-07	-2.123530e-06	-1.172065e-09	-1.498398e+01	-7.846840e+01
9.800000e-07	-2.019038e-06	-1.148163e-09	-1.424667e+01	-7.689836e+01
9.900000e-07	-1.914204e-06	-1.128212e-09	-1.350694e+01	-7.526795e+01
1.000000e-06	-1.809130e-06	-1.103287e-09	-1.276552e+01	-7.357503e+01
1.010000e-06	-1.703673e-06	-1.069789e-09	-1.202140e+01	-7.181700e+01
1.020000e-06	-1.597749e-06	-1.038490e-09	-1.127399e+01	-6.999048e+01
1.030000e-06	-1.491464e-06	-1.013194e-09	-1.052402e+01	-6.809107e+01
1.040000e-06	-1.384887e-06	-9.865192e-10	-9.771995e+00	-6.611314e+01
1.050000e-06	-1.277984e-06	-9.528456e-10	-9.017671e+00	-6.404962e+01
1.060000e-06	-1.170724e-06	-9.159595e-10	-8.260826e+00	-6.189190e+01
1.070000e-06	-1.063181e-06	-8.828206e-10	-7.501986e+00	-5.962984e+01
1.080000e-06	-9.553861e-07	-8.508244e-10	-6.741364e+00	-5.725185e+01
1.090000e-06	-8.473888e-07	-8.142283e-10	-5.979317e+00	-5.474514e+01
1.100000e-06	-7.392918e-07	-7.719357e-10	-5.216566e+00	-5.209604e+01
1.110000e-06	-6.311027e-07	-7.293230e-10	-4.453166e+00	-4.929048e+01
1.120000e-06	-5.228201e-07	-6.889949e-10	-3.689106e+00	-4.631461e+01
1.130000e-06	-4.144388e-07	-6.454722e-10	-2.924349e+00	-4.315541e+01
1.140000e-06	-3.059940e-07	-5.921329e-10	-2.159145e+00	-3.980146e+01
1.150000e-06	-1.974983e-07	-5.329135e-10	-1.393581e+00	-3.624368e+01
1.160000e-06	-8.900432e-08	-4.759897e-10	-6.280293e-01	-3.247609e+01
1.170000e-06	1.942744e-08	-4.194526e-10	1.370832e-01	-2.849645e+01
1.180000e-06	1.278776e-07	-3.576319e-10	9.023255e-01	-2.430692e+01
1.190000e-06	2.363147e-07	-2.898070e-10	1.667476e+00	-1.991445e+01
1.200000e-06	3.446820e-07	-2.219499e-10	2.432134e+00	-1.533106e+01
1.210000e-06	4.529700e-07	-1.551390e-10	3.196232e+00	-1.057399e+01
1.220000e-06	5.612313e-07	-8.198251e-11	3.960142e+00	-5.665471e+00
1.230000e-06	6.694080e-07	-2.886530e-12	4.723455e+00	-6.324536e-01
1.240000e-06	7.773510e-07	7.686491e-11	5.485118e+00	4.494008e+00
1.250000e-06	8.851275e-07	1.562822e-10	6.245607e+00	9.679507e+00
1.260000e-06	9.927554e-07	2.384486e-10	7.005048e+00	1.488722e+01
1.270000e-06	1.100134e-06	3.205276e-10	7.762731e+00	2.007898e+01
1.280000e-06	1.207161e-06	4.019385e-10	8.517930e+00	2.521642e+01
1.290000e-06	1.313871e-06	4.789407e-10	9.270892e+00	3.026214e+01
1.300000e-06	1.420331e-06	5.500193e-10	1.002209e+01	3.518090e+01
1.310000e-06	1.526459e-06	6.204041e-10	1.077095e+01	3.994062e+01
1.320000e-06	1.632202e-06	6.900679e-10	1.151709e+01	4.451341e+01
1.330000e-06	1.737712e-06	7.560950e-10	1.226158e+01	4.887627e+01
1.340000e-06	1.843017e-06	8.166099e-10	1.300463e+01	5.301167e+01
1.350000e-06	1.947992e-06	8.758451e-10	1.374536e+01	5.690785e+01
1.360000e-06	2.052579e-06	9.304614e-10	1.448334e+01	6.055891e+01
1.370000e-06	2.156787e-06	9.778631e-10	1.521865e+01	6.396461e+01
1.380000e-06	2.260639e-06	1.020076e-09	1.595144e+01	6.712998e+01
1.390000e-06	2.364144e-06	1.059785e-09	1.668180e+01	7.006468e+01
1.400000e-06	2.467262e-06	1.098095e-09	1.740941e+01	7.278227e+01
1.410000e-06	2.569949e-06	1.133731e-09	1.813399e+01	7.529927e+01
1.420000e-06	2.672192e-06	1.166188e-09	1.885543e+01	7.763422e+01
1.430000e-06	2.773976e-06	1.195839e-09	1.957364e+01	7.980671e+01
1.440000e-06	2.875341e-06	1.226481e-09	2.028889e+01	8.183640e+01
1.450000e-06	2.976279e-06	1.255678e-09	2.100112e+01	8.374221e+01
1.460000e-06	3.076760e-06	1.281135e-09	2.171013e+01	8.554158e+01
1.470000e-06	3.176776e-06	1.306281e-09	2.241586e+01	8.724988e+01
1.480000e-06	3.276214e-06	1.331558e-09	2.311751e+01	8.888006e+01
1.490000e-06	3.375009e-06	1.354887e-09	2.381463e+01	9.044241e+01
1.500000e-06	3.473148e-06	1.375360e-09	2.450711e+01	9.194458e+01
1.510000e-06	3.570533e-06	1.395833e-09	2.519428e+01	9.339171e+01
1.520000e-06	3.667190e-06	1.414666e-09	2.587631e+01	9.478671e+01
1.530000e-06	3.763100e-06	1.431269e-09	2.655306e+01	9.613073e+01
1.540000e-06	3.858287e-06	1.448651e-09	2.722471e+01	9.742361e+01
1.550000e-06	3.952810e-06	1.465475e-09	2.789169e+01	9.866438e+01
1.560000e-06	4.046669e-06	1.481043e-09	2.855398e+01	9.985184e+01
1.570000e-06	4.139899e-06	1.496691e-09	2.921182e+01	1.009850e+02
1.580000e-06	4.232446e-06	1.511653e-09	2.986485e+01	1.020633e+02
1.590000e-06	4.324229e-06	1.525530e-09	3.051248e+01	1.030874e+02
1.600000e-06	4.415200e-06	1.539438e-09	3.115439e+01	1.040587e+02
1.610000e-06	4.505292e-06	1.552689e-09	3.179009e+01	1.049799e+02
1.620000e-06	4.594427e-06	1.566297e-09	3.241904e+01	1.058549e+02
1.630000e-06	4.682677e-06	1.579909e-09	3.304175e+01	1.066881e+02
1.640000e-06	4.770126e-06	1.592102e-09	3.365881e+01	1.074850e+02
1.650000e-06	4.856738e-06	1.604043e-09	3.426996e+01	1.082512e+02
1.660000e-06	4.942505e-06	1.615709e-09	3.487514e+01	1.089922e+02
1.670000e-06	5.027498e-06	1.626637e-09	3.547487e+01	1.097135e+02
1.680000e-06	5.111760e-06	1.636194e-09	3.606943e+01	1.104195e+02
1.690000e-06	5.195290e-06	1.645286e-09	3.665884e+01	1.111139e+02
1.700000e-06	5.277935e-06	1.653685e-09	3.724199e+01	1.117994e+02
1.710000e-06	5.359534e-06	1.661242e-09	3.781777e+01	1.124772e+02
1.720000e-06	5.440218e-06	1.669746e-09	3.838709e+01	1.131475e+02
1.730000e-06	5.519961e-06	1.680007e-09	3.894976e+01	1.138094e+02
1.740000e-06	5.598712e-06	1.689483e-09	3.950545e+01	1.144608e+02
1.750000e-06	5.676504e-06	1.697747e-09	4.005436e+01	1.150992e+02
1.760000e-06	5.753297e-06	1.706631e-09	4.059622e+01	1.157216e+02
1.770000e-06	5.829053e-06	1.714662e-09	4.113077e+01	1.163249e+02
1.780000e-06	5.903688e-06	1.721788e-09	4.165741e+01	1.169064e+02
1.790000e-06	5.977076e-06	1.728906e-09	4.217524e+01	1.174637e+02
1.800000e-06	6.049256e-06	1.736241e-09	4.268456e+01	1.179953e+02
1.810000e-06	6.120387e-06	1.744778e-09	4.318647e+01	1.185008e+02
1.820000e-06	6.190473e-06	1.752953e-09	4.368101e+01	1.189804e+02
1.830000e-06	6.259493e-06	1.760003e-09	4.416802e+01	1.194356e+02
1.840000e-06	6.327512e-06	1.767551e-09	4.464798e+01	1.198689e+02
1.850000e-06	6.394582e-06	1.774764e-09	4.512124e+01	1.202833e+02
1.860000e-06	6.460470e-06	1.779981e-09	4.558616e+01	1.206825e+02
1.870000e-06	6.524922e-06	1.784601e-09	4.604094e+01	1.210702e+02
1.880000e-06	6.588152e-06	1.790367e-09	4.648710e+01	1.214504e+02
1.890000e-06	6.650371e-06	1.796534e-09	4.692613e+01	1.218265e+02
1.900000e-06	6.711533e-06	1.803086e-09	4.735770e+01	1.222012e+02
1.910000e-06	6.771644e-06	1.810364e-09	4.778185e+01	1.225765e+02
1.920000e-06	6.830634e-06	1.818402e-09	4.819809e+01	1.229534e+02
1.930000e-06	6.888199e-06	1.825022e-09	4.860428e+01	1.233318e+02
1.940000e-06	6.944274e-06	1.829077e-09	4.899996e+01	1.237107e+02
1.950000e-06	6.999144e-06	1.831574e-09	4.938713e+01	1.240878e+02
1.960000e-06	7.052790e-06	1.834285e-09	4.976567e+01	1.244603e+02
1.970000e-06	7.105081e-06	1.839522e-09	5.013464e+01	1.248249e+02
1.980000e-06	7.155919e-06	1.846152e-09	5.049336e+01	1.251780e+02
1.990000e-06	7.205161e-06	1.852380e-09	5.084082e+01	1.255159e+02
2.000000e-06	7.252919e-06	1.856722e-09	5.117781e+01	1.258355e+02
2.010000e-06	7.299383e-06	1.862278e-09	5.150566e+01	1.261342e+02
2.020000e-06	7.344642e-06	1.868163e-09	5.182502e+01	1.264102e+02
2.030000e-06	7.388808e-06	1.872097e-09	5.213666e+01	1.266628e+02
2.040000e-06	7.431751e-06	1.874573e-09	5.243967e+01	1.268923e+02
2.050000e-06	7.473139e-06	1.875056e-09	5.273172e+01	1.271001e+02
2.060000e-06	7.513114e-06	1.875713e-09	5.301379e+01	1.272886e+02
2.070000e-06	7.551877e-06	1.878161e-09	5.328730e+01	1.274611e+02
2.080000e-06	7.589364e-06	1.882481e-09	5.355182e+01	1.276211e+02
2.090000e-06	7.625646e-06	1.887573e-09	5.380783e+01	1.277728e+02
2.100000e-06	7.660733e-06	1.892284e-09	5.405541e+01	1.279201e+02
2.110000e-06	7.694321e-06	1.894196e-09	5.429241e+01	1.280667e+02
2.120000e-06	7.726422e-06	1.895168e-09	5.451892e+01	1.282154e+02
2.130000e-06	7.757269e-06	1.897689e-09	5.473659e+01	1.283683e+02
2.140000e-06	7.786855e-06	1.899458e-09	5.494535e+01	1.285267e+02
2.150000e-06	7.815236e-06	1.899039e-09	5.514561e+01	1.286902e+02
2.160000e-06	7.842413e-06	1.901180e-09	5.533737e+01	1.288579e+02
2.170000e-06	7.867995e-06	1.905135e-09	5.551789e+01	1.290273e+02
2.180000e-06	7.891952e-06	1.906848e-09	5.568693e+01	1.291953e+02
2.190000e-06	7.914578e-06	1.908512e-09	5.584658e+01	1.293582e+02
2.200000e-06	7.935908e-06	1.910869e-09	5.599709e+01	1.295120e+02
2.210000e-06	7.956055e-06	1.914072e-09	5.613925e+01	1.296527e+02
2.220000e-06	7.974974e-06	1.916581e-09	5.627275e+01	1.297764e+02
2.230000e-06	7.992463e-06	1.918512e-09	5.639615e+01	1.298802e+02
2.240000e-06	8.008416e-06	1.920452e-09	5.650872e+01	1.299621e+02
2.250000e-06	8.022842e-06	1.921269e-09	5.661051e+01	1.300212e+02
2.260000e-06	8.035756e-06	1.921297e-09	5.670164e+01	1.300579e+02
2.270000e-06	8.047111e-06	1.921199e-09	5.678176e+01	1.300739e+02
2.280000e-06	8.056724e-06	1.922168e-09	5.684959e+01	1.300721e+02
2.290000e-06	8.064709e-06	1.922429e-09	5.690593e+01	1.300565e+02
2.300000e-06	8.071278e-06	1.920933e-09	5.695228e+01	1.300320e+02
2.310000e-06	8.076477e-06	1.921329e-09	5.698897e+01	1.300038e+02
2.320000e-06	8.080415e-06	1.921711e-09	5.701676e+01	1.299775e+02
2.330000e-06	8.082978e-06	1.921159e-09	5.703485e+01	1.299580e+02
2.340000e-06	8.083921e-06	1.923251e-09	5.704150e+01	1.299499e+02
2.350000e-06	8.083428e-06	1.926256e-09	5.703802e+01	1.299565e+02
2.360000e-06	8.081687e-06	1.925868e-09	5.702574e+01	1.299800e+02
2.370000e-06	8.078651e-06	1.926080e-09	5.700431e+01	1.300207e+02
2.380000e-06	8.074428e-06	1.929076e-09	5.697451e+01	1.300776e+02
2.390000e-06	8.068841e-06	1.931695e-09	5.693509e+01	1.301478e+02
2.400000e-06	8.061671e-06	1.933106e-09	5.688449e+01	1.302269e+02
2.410000e-06	8.053142e-06	1.937746e-09	5.682432e+01	1.303089e+02
2.420000e-06	8.043486e-06	1.964209e-09	5.675618e+01	1.303870e+02
2.430000e-06	8.032586e-06	1.948299e-09	5.667927e+01	1.304535e+02
2.440000e-06	8.019999e-06	1.888142e-09	5.659045e+01	1.305006e+02
2.450000e-06	8.005250e-06	1.890297e-09	5.648638e+01	1.305204e+02
2.460000e-06	7.988423e-06	1.892654e-09	5.636764e+01	1.305059e+02
2.470000e-06	7.970114e-06	1.982447e-09	5.623845e+01	1.304509e+02
2.480000e-06	7.950951e-06	2.039810e-09	5.610324e+01	1.303506e+02
2.490000e-06	7.931100e-06	1.844986e-09	5.596316e+01	1.302022e+02
2.500000e-06	7.909760e-06	1.904078e-09	5.581258e+01	1.300043e+02
2.510000e-06	7.886618e-06	2.008082e-09	5.564930e+01	1.297577e+02
2.520000e-06	7.862416e-06	1.927080e-09	5.547852e+01	1.294651e+02
2.530000e-06	7.836981e-06	2.034984e-09	5.529905e+01	1.291308e+02
2.540000e-06	7.809983e-06	1.908840e-09	5.510854e+01	1.287607e+02
2.550000e-06	7.781854e-06	1.783765e-09	5.491006e+01	1.283620e+02
2.560000e-06	7.752477e-06	2.048283e-09	5.470277e+01	1.279425e+02
2.570000e-06	7.721553e-06	2.025214e-09	5.448457e+01	1.275106e+02
2.580000e-06	7.689087e-06	1.862588e-09	5.425548e+01	1.270744e+02
2.590000e-06	7.655209e-06	1.880325e-09	5.401643e+01	1.266418e+02
2.600000e-06	7.620319e-06	1.909695e-09	5.377025e+01	1.262197e+02
2.610000e-06	7.584282e-06	2.029702e-09	5.351596e+01	1.258140e+02
2.620000e-06	7.546553e-06	1.914588e-09	5.324974e+01	1.254292e+02
2.630000e-06	7.507283e-06	1.834154e-09	5.297264e+01	1.250680e+02
2.640000e-06	7.466740e-06	1.973295e-09	5.268657e+01	1.247319e+02
2.650000e-06	7.424855e-06	1.939800e-09	5.239102e+01	1.244205e+02
2.660000e-06	7.381707e-06	1.925275e-09	5.208656e+01	1.241320e+02
2.670000e-06	7.337360e-06	1.908787e-09	5.177364e+01	1.238635e+02
2.680000e-06	7.291690e-06	1.901060e-09	5.145138e+01	1.236108e+02
2.690000e-06	7.244615e-06	1.910467e-09	5.111922e+01	1.233692e+02
2.700000e-06	7.196258e-06	1.917476e-09	5.077800e+01	1.231332e+02
2.710000e-06	7.146500e-06	1.964725e-09	5.042690e+01	1.228975e+02
2.720000e-06	7.095288e-06	1.846195e-09	5.006554e+01	1.226568e+02
2.730000e-06	7.042617e-06	1.860274e-09	4.969388e+01	1.224062e+02
2.740000e-06	6.988442e-06	1.959810e-09	4.931161e+01	1.221414e+02
2.750000e-06	6.932887e-06	1.912492e-09	4.891961e+01	1.218591e+02
2.760000e-06	6.875996e-06	1.853982e-09	4.851818e+01	1.215565e+02
2.770000e-06	6.817957e-06	1.835823e-09	4.810864e+01	1.212321e+02
2.780000e-06	6.758853e-06	1.922572e-09	4.769160e+01	1.208852e+02
2.790000e-06	6.698550e-06	1.908021e-09	4.726609e+01	1.205159e+02
2.800000e-06	6.637007e-06	1.834954e-09	4.683183e+01	1.201251e+02
2.810000e-06	6.574223e-06	1.833963e-09	4.638881e+01	1.197143e+02
2.820000e-06	6.510229e-06	1.866869e-09	4.593726e+01	1.192854e+02
2.830000e-06	6.445096e-06	1.885546e-09	4.547767e+01	1.188408e+02
2.840000e-06	6.378895e-06	1.839604e-09	4.501055e+01	1.183827e+02
2.850000e-06	6.311711e-06	1.834325e-09	4.453649e+01	1.179134e+02
2.860000e-06	6.243445e-06	1.830279e-09	4.405479e+01	1.174352e+02
2.870000e-06	6.173954e-06	1.828726e-09	4.356445e+01	1.169497e+02
2.880000e-06	6.103287e-06	1.834677e-09	4.306581e+01	1.164584e+02
2.890000e-06	6.031468e-06	1.816414e-09	4.255905e+01	1.159623e+02
2.900000e-06	5.958549e-06	1.791926e-09	4.204452e+01	1.154618e+02
2.910000e-06	5.884702e-06	1.789697e-09	4.152344e+01	1.149570e+02
2.920000e-06	5.809919e-06	1.816304e-09	4.099576e+01	1.144474e+02
2.930000e-06	5.733963e-06	1.794058e-09	4.045980e+01	1.139321e+02
2.940000e-06	5.656702e-06	1.763584e-09	3.991463e+01	1.134099e+02
2.950000e-06	5.578345e-06	1.767807e-09	3.936173e+01	1.128792e+02
