# Temperatura_=_20.0
# Concentracion g/m^3_=_9000.0
# C_Vs_to_Am_M_A/Vsm_=_65563218390.804596
# pendiente_HvsI_1/m_=_3716.3
# ordenada_HvsI_A/m_=_1297.0
# frecuencia_Hz_=_212983.37001641144

Tiempo_(s)	Campo_(V.s)	Magnetizacion_(V.s)	Campo_(kA/m)	Magnetizacion_(A/m)
0.000000e+00	-8.086788e-06	-4.978580e-09	-5.692140e+01	-3.265869e+02
1.000000e-08	-8.086009e-06	-4.973794e-09	-5.691592e+01	-3.266070e+02
2.000000e-08	-8.083530e-06	-4.977339e-09	-5.689847e+01	-3.266158e+02
3.000000e-08	-8.079717e-06	-4.977333e-09	-5.687163e+01	-3.266076e+02
4.000000e-08	-8.074791e-06	-4.976747e-09	-5.683696e+01	-3.265768e+02
5.000000e-08	-8.068496e-06	-4.973313e-09	-5.679265e+01	-3.265185e+02
6.000000e-08	-8.060995e-06	-4.969755e-09	-5.673985e+01	-3.264289e+02
7.000000e-08	-8.052191e-06	-4.969474e-09	-5.667788e+01	-3.263059e+02
8.000000e-08	-8.041703e-06	-4.944652e-09	-5.660406e+01	-3.261490e+02
9.000000e-08	-8.029509e-06	-4.964114e-09	-5.651823e+01	-3.259602e+02
1.000000e-07	-8.015511e-06	-5.067080e-09	-5.641970e+01	-3.257430e+02
1.100000e-07	-7.999414e-06	-5.057672e-09	-5.630640e+01	-3.255030e+02
1.200000e-07	-7.981680e-06	-4.996108e-09	-5.618157e+01	-3.252472e+02
1.300000e-07	-7.962806e-06	-4.920790e-09	-5.604872e+01	-3.249834e+02
1.400000e-07	-7.942956e-06	-4.771027e-09	-5.590900e+01	-3.247201e+02
1.500000e-07	-7.922216e-06	-4.997983e-09	-5.576301e+01	-3.244650e+02
1.600000e-07	-7.900165e-06	-5.146364e-09	-5.560780e+01	-3.242252e+02
1.700000e-07	-7.876942e-06	-4.851225e-09	-5.544434e+01	-3.240062e+02
1.800000e-07	-7.852558e-06	-4.912719e-09	-5.527270e+01	-3.238114e+02
1.900000e-07	-7.826333e-06	-4.927857e-09	-5.508811e+01	-3.236416e+02
2.000000e-07	-7.798804e-06	-4.881425e-09	-5.489433e+01	-3.234953e+02
2.100000e-07	-7.770381e-06	-5.148435e-09	-5.469428e+01	-3.233681e+02
2.200000e-07	-7.740394e-06	-4.902119e-09	-5.448320e+01	-3.232535e+02
2.300000e-07	-7.709061e-06	-4.729178e-09	-5.426265e+01	-3.231427e+02
2.400000e-07	-7.676514e-06	-5.003472e-09	-5.403356e+01	-3.230256e+02
2.500000e-07	-7.642354e-06	-5.019240e-09	-5.379311e+01	-3.228910e+02
2.600000e-07	-7.606776e-06	-4.949726e-09	-5.354269e+01	-3.227280e+02
2.700000e-07	-7.569816e-06	-4.824835e-09	-5.328254e+01	-3.225258e+02
2.800000e-07	-7.531444e-06	-4.814891e-09	-5.301244e+01	-3.222754e+02
2.900000e-07	-7.491884e-06	-4.971021e-09	-5.273398e+01	-3.219695e+02
3.000000e-07	-7.450921e-06	-4.950774e-09	-5.244565e+01	-3.216031e+02
3.100000e-07	-7.408336e-06	-4.827489e-09	-5.214591e+01	-3.211741e+02
3.200000e-07	-7.364404e-06	-4.789188e-09	-5.183668e+01	-3.206828e+02
3.300000e-07	-7.319179e-06	-4.881402e-09	-5.151835e+01	-3.201325e+02
3.400000e-07	-7.272538e-06	-4.891176e-09	-5.119005e+01	-3.195285e+02
3.500000e-07	-7.224555e-06	-4.838117e-09	-5.085231e+01	-3.188782e+02
3.600000e-07	-7.174943e-06	-4.820368e-09	-5.050310e+01	-3.181899e+02
3.700000e-07	-7.123567e-06	-4.752765e-09	-5.014147e+01	-3.174727e+02
3.800000e-07	-7.070798e-06	-4.830829e-09	-4.977004e+01	-3.167352e+02
3.900000e-07	-7.016796e-06	-4.878245e-09	-4.938992e+01	-3.159855e+02
4.000000e-07	-6.961534e-06	-4.740670e-09	-4.900095e+01	-3.152298e+02
4.100000e-07	-6.905036e-06	-4.715014e-09	-4.860327e+01	-3.144725e+02
4.200000e-07	-6.847195e-06	-4.788780e-09	-4.819614e+01	-3.137158e+02
4.300000e-07	-6.788053e-06	-4.814042e-09	-4.777985e+01	-3.129594e+02
4.400000e-07	-6.727729e-06	-4.714409e-09	-4.735524e+01	-3.122005e+02
4.500000e-07	-6.666240e-06	-4.682552e-09	-4.692243e+01	-3.114347e+02
4.600000e-07	-6.603715e-06	-4.731519e-09	-4.648233e+01	-3.106556e+02
4.700000e-07	-6.540209e-06	-4.725418e-09	-4.603532e+01	-3.098560e+02
4.800000e-07	-6.475584e-06	-4.689360e-09	-4.558044e+01	-3.090282e+02
4.900000e-07	-6.409625e-06	-4.639195e-09	-4.511616e+01	-3.081649e+02
5.000000e-07	-6.342382e-06	-4.649067e-09	-4.464285e+01	-3.072596e+02
5.100000e-07	-6.274152e-06	-4.662401e-09	-4.416259e+01	-3.063073e+02
5.200000e-07	-6.205000e-06	-4.639520e-09	-4.367584e+01	-3.053050e+02
5.300000e-07	-6.134783e-06	-4.594079e-09	-4.318160e+01	-3.042517e+02
5.400000e-07	-6.063441e-06	-4.568901e-09	-4.267944e+01	-3.031487e+02
5.500000e-07	-5.991111e-06	-4.581987e-09	-4.217032e+01	-3.019994e+02
5.600000e-07	-5.917796e-06	-4.576404e-09	-4.165427e+01	-3.008087e+02
5.700000e-07	-5.843219e-06	-4.540915e-09	-4.112934e+01	-2.995832e+02
5.800000e-07	-5.767257e-06	-4.491813e-09	-4.059466e+01	-2.983299e+02
5.900000e-07	-5.690090e-06	-4.487985e-09	-4.005149e+01	-2.970556e+02
6.000000e-07	-5.611871e-06	-4.506204e-09	-3.950092e+01	-2.957669e+02
6.100000e-07	-5.532540e-06	-4.474437e-09	-3.894252e+01	-2.944688e+02
6.200000e-07	-5.452012e-06	-4.419621e-09	-3.837570e+01	-2.931646e+02
6.300000e-07	-5.370408e-06	-4.406277e-09	-3.780131e+01	-2.918551e+02
6.400000e-07	-5.287936e-06	-4.416493e-09	-3.722080e+01	-2.905391e+02
6.500000e-07	-5.204720e-06	-4.391945e-09	-3.663506e+01	-2.892128e+02
6.600000e-07	-5.120711e-06	-4.345077e-09	-3.604374e+01	-2.878701e+02
6.700000e-07	-5.035826e-06	-4.320683e-09	-3.544624e+01	-2.865031e+02
6.800000e-07	-4.950168e-06	-4.318293e-09	-3.484331e+01	-2.851026e+02
6.900000e-07	-4.863755e-06	-4.302687e-09	-3.423507e+01	-2.836589e+02
7.000000e-07	-4.776450e-06	-4.268880e-09	-3.362055e+01	-2.821623e+02
7.100000e-07	-4.688157e-06	-4.232253e-09	-3.299907e+01	-2.806038e+02
7.200000e-07	-4.598904e-06	-4.209555e-09	-3.237083e+01	-2.789759e+02
7.300000e-07	-4.508819e-06	-4.196465e-09	-3.173674e+01	-2.772731e+02
7.400000e-07	-4.417902e-06	-4.170861e-09	-3.109680e+01	-2.754921e+02
7.500000e-07	-4.326151e-06	-4.129551e-09	-3.045097e+01	-2.736321e+02
7.600000e-07	-4.233610e-06	-4.095849e-09	-2.979960e+01	-2.716949e+02
7.700000e-07	-4.140312e-06	-4.080799e-09	-2.914289e+01	-2.696842e+02
7.800000e-07	-4.046437e-06	-4.059367e-09	-2.848212e+01	-2.676054e+02
7.900000e-07	-3.951954e-06	-4.017711e-09	-2.781708e+01	-2.654649e+02
8.000000e-07	-3.856684e-06	-3.974936e-09	-2.714648e+01	-2.632695e+02
8.100000e-07	-3.760620e-06	-3.951045e-09	-2.647031e+01	-2.610255e+02
8.200000e-07	-3.663888e-06	-3.929137e-09	-2.578943e+01	-2.587376e+02
8.300000e-07	-3.566590e-06	-3.886555e-09	-2.510457e+01	-2.564088e+02
8.400000e-07	-3.468725e-06	-3.839738e-09	-2.441571e+01	-2.540397e+02
8.500000e-07	-3.370087e-06	-3.806645e-09	-2.372142e+01	-2.516278e+02
8.600000e-07	-3.270723e-06	-3.774735e-09	-2.302201e+01	-2.491677e+02
8.700000e-07	-3.170899e-06	-3.731916e-09	-2.231937e+01	-2.466513e+02
8.800000e-07	-3.070596e-06	-3.682526e-09	-2.161335e+01	-2.440680e+02
8.900000e-07	-2.969794e-06	-3.637259e-09	-2.090383e+01	-2.414052e+02
9.000000e-07	-2.868552e-06	-3.598636e-09	-2.019120e+01	-2.386492e+02
9.100000e-07	-2.766913e-06	-3.557913e-09	-1.947578e+01	-2.357858e+02
9.200000e-07	-2.664908e-06	-3.509497e-09	-1.875780e+01	-2.328014e+02
9.300000e-07	-2.562485e-06	-3.455747e-09	-1.803685e+01	-2.296835e+02
9.400000e-07	-2.459552e-06	-3.407266e-09	-1.731233e+01	-2.264212e+02
9.500000e-07	-2.356141e-06	-3.360667e-09	-1.658444e+01	-2.230060e+02
9.600000e-07	-2.252282e-06	-3.304880e-09	-1.585340e+01	-2.194315e+02
9.700000e-07	-2.147996e-06	-3.242677e-09	-1.511935e+01	-2.156932e+02
9.800000e-07	-2.043339e-06	-3.182389e-09	-1.438268e+01	-2.117884e+02
9.900000e-07	-1.938369e-06	-3.125954e-09	-1.364382e+01	-2.077148e+02
1.000000e-06	-1.833077e-06	-3.061959e-09	-1.290269e+01	-2.034698e+02
1.010000e-06	-1.727402e-06	-2.989593e-09	-1.215887e+01	-1.990493e+02
1.020000e-06	-1.621335e-06	-2.918668e-09	-1.141227e+01	-1.944460e+02
1.030000e-06	-1.514863e-06	-2.850948e-09	-1.066284e+01	-1.896484e+02
1.040000e-06	-1.408017e-06	-2.778137e-09	-9.910772e+00	-1.846396e+02
1.050000e-06	-1.300844e-06	-2.693061e-09	-9.156397e+00	-1.793963e+02
1.060000e-06	-1.193385e-06	-2.603724e-09	-8.400017e+00	-1.738886e+02
1.070000e-06	-1.085685e-06	-2.514541e-09	-7.641937e+00	-1.680793e+02
1.080000e-06	-9.777938e-07	-2.420280e-09	-6.882510e+00	-1.619252e+02
1.090000e-06	-8.697429e-07	-2.318146e-09	-6.121959e+00	-1.553775e+02
1.100000e-06	-7.614504e-07	-2.207652e-09	-5.359708e+00	-1.483836e+02
1.110000e-06	-6.529987e-07	-2.093930e-09	-4.596337e+00	-1.408895e+02
1.120000e-06	-5.444892e-07	-1.976871e-09	-3.832559e+00	-1.328418e+02
1.130000e-06	-4.358997e-07	-1.849968e-09	-3.068217e+00	-1.241911e+02
1.140000e-06	-3.272226e-07	-1.704378e-09	-2.303259e+00	-1.148945e+02
1.150000e-06	-2.184554e-07	-1.545657e-09	-1.537667e+00	-1.049190e+02
1.160000e-06	-1.096134e-07	-1.382391e-09	-7.715481e-01	-9.424425e+01
1.170000e-06	-7.414495e-10	-1.209844e-09	-5.218926e-03	-8.286505e+01
1.180000e-06	1.080845e-07	-1.025745e-09	7.607869e-01	-7.079318e+01
1.190000e-06	2.168175e-07	-8.321615e-10	1.526138e+00	-5.805888e+01
1.200000e-06	3.254460e-07	-6.337524e-10	2.290754e+00	-4.471133e+01
1.210000e-06	4.339560e-07	-4.283659e-10	3.054536e+00	-3.081834e+01
1.220000e-06	5.423343e-07	-2.155156e-10	3.817391e+00	-1.646523e+01
1.230000e-06	6.506186e-07	5.091012e-12	4.579584e+00	-1.752804e+00
1.240000e-06	7.587978e-07	2.329692e-10	5.341037e+00	1.320540e+01
1.250000e-06	8.668003e-07	4.640808e-10	6.101247e+00	2.828649e+01
1.260000e-06	9.745969e-07	6.999771e-10	6.860007e+00	4.336212e+01
1.270000e-06	1.082175e-06	9.353872e-10	7.617231e+00	5.830267e+01
1.280000e-06	1.189566e-06	1.168047e-09	8.373138e+00	7.298150e+01
1.290000e-06	1.296730e-06	1.387324e-09	9.127441e+00	8.727914e+01
1.300000e-06	1.403596e-06	1.597341e-09	9.879651e+00	1.010871e+02
1.310000e-06	1.510088e-06	1.797309e-09	1.062923e+01	1.143112e+02
1.320000e-06	1.616196e-06	1.987801e-09	1.137610e+01	1.268742e+02
1.330000e-06	1.722037e-06	2.164649e-09	1.212110e+01	1.387177e+02
1.340000e-06	1.827563e-06	2.326883e-09	1.286388e+01	1.498029e+02
1.350000e-06	1.932782e-06	2.481287e-09	1.360450e+01	1.601112e+02
1.360000e-06	2.037759e-06	2.622093e-09	1.434341e+01	1.696430e+02
1.370000e-06	2.142424e-06	2.752128e-09	1.508012e+01	1.784161e+02
1.380000e-06	2.246754e-06	2.869017e-09	1.581448e+01	1.864639e+02
1.390000e-06	2.350723e-06	2.980217e-09	1.654630e+01	1.938322e+02
1.400000e-06	2.454271e-06	3.082006e-09	1.727516e+01	2.005762e+02
1.410000e-06	2.557331e-06	3.174824e-09	1.800058e+01	2.067573e+02
1.420000e-06	2.659849e-06	3.260932e-09	1.872219e+01	2.124398e+02
1.430000e-06	2.761921e-06	3.340446e-09	1.944065e+01	2.176875e+02
1.440000e-06	2.863570e-06	3.415979e-09	2.015614e+01	2.225613e+02
1.450000e-06	2.964799e-06	3.486622e-09	2.086867e+01	2.271170e+02
1.460000e-06	3.065662e-06	3.553527e-09	2.157863e+01	2.314031e+02
1.470000e-06	3.166029e-06	3.617977e-09	2.228509e+01	2.354602e+02
1.480000e-06	3.265801e-06	3.681084e-09	2.298737e+01	2.393202e+02
1.490000e-06	3.364902e-06	3.740719e-09	2.368492e+01	2.430067e+02
1.500000e-06	3.463255e-06	3.794392e-09	2.437721e+01	2.465353e+02
1.510000e-06	3.560977e-06	3.844916e-09	2.506506e+01	2.499152e+02
1.520000e-06	3.658096e-06	3.892633e-09	2.574866e+01	2.531499e+02
1.530000e-06	3.754530e-06	3.937341e-09	2.642744e+01	2.562397e+02
1.540000e-06	3.850234e-06	3.977686e-09	2.710108e+01	2.591822e+02
1.550000e-06	3.945156e-06	4.014682e-09	2.776922e+01	2.619749e+02
1.560000e-06	4.039359e-06	4.050614e-09	2.843230e+01	2.646160e+02
1.570000e-06	4.132889e-06	4.086982e-09	2.909064e+01	2.671057e+02
1.580000e-06	4.225702e-06	4.121303e-09	2.974394e+01	2.694469e+02
1.590000e-06	4.317852e-06	4.153160e-09	3.039256e+01	2.716455e+02
1.600000e-06	4.409231e-06	4.185342e-09	3.103576e+01	2.737106e+02
1.610000e-06	4.499618e-06	4.214530e-09	3.167198e+01	2.756544e+02
1.620000e-06	4.589105e-06	4.241072e-09	3.230186e+01	2.774911e+02
1.630000e-06	4.677896e-06	4.268316e-09	3.292685e+01	2.792364e+02
1.640000e-06	4.765839e-06	4.295252e-09	3.354586e+01	2.809067e+02
1.650000e-06	4.852760e-06	4.319997e-09	3.415768e+01	2.825176e+02
1.660000e-06	4.938810e-06	4.344270e-09	3.476337e+01	2.840836e+02
1.670000e-06	5.024112e-06	4.367124e-09	3.536379e+01	2.856170e+02
1.680000e-06	5.108677e-06	4.388715e-09	3.595903e+01	2.871271e+02
1.690000e-06	5.192528e-06	4.410623e-09	3.654925e+01	2.886201e+02
1.700000e-06	5.275457e-06	4.430249e-09	3.713297e+01	2.900991e+02
1.710000e-06	5.357400e-06	4.447891e-09	3.770975e+01	2.915636e+02
1.720000e-06	5.438530e-06	4.466644e-09	3.828081e+01	2.930106e+02
1.730000e-06	5.518604e-06	4.486700e-09	3.884443e+01	2.944349e+02
1.740000e-06	5.597586e-06	4.505878e-09	3.940037e+01	2.958296e+02
1.750000e-06	5.675643e-06	4.522850e-09	3.994980e+01	2.971872e+02
1.760000e-06	5.752758e-06	4.539303e-09	4.049260e+01	2.985004e+02
1.770000e-06	5.828900e-06	4.555802e-09	4.102855e+01	2.997628e+02
1.780000e-06	5.903909e-06	4.570964e-09	4.155653e+01	3.009694e+02
1.790000e-06	5.977742e-06	4.586119e-09	4.207622e+01	3.021174e+02
1.800000e-06	6.050467e-06	4.602336e-09	4.258812e+01	3.032061e+02
1.810000e-06	6.121991e-06	4.619757e-09	4.309156e+01	3.042372e+02
1.820000e-06	6.192372e-06	4.636822e-09	4.358696e+01	3.052147e+02
1.830000e-06	6.261761e-06	4.652436e-09	4.407537e+01	3.061444e+02
1.840000e-06	6.330190e-06	4.666344e-09	4.455704e+01	3.070335e+02
1.850000e-06	6.397605e-06	4.679429e-09	4.503156e+01	3.078899e+02
1.860000e-06	6.463761e-06	4.691699e-09	4.549722e+01	3.087216e+02
1.870000e-06	6.528662e-06	4.703540e-09	4.595404e+01	3.095361e+02
1.880000e-06	6.592286e-06	4.715970e-09	4.640188e+01	3.103398e+02
1.890000e-06	6.654698e-06	4.729408e-09	4.684118e+01	3.111374e+02
1.900000e-06	6.716068e-06	4.744011e-09	4.727316e+01	3.119318e+02
1.910000e-06	6.776435e-06	4.758788e-09	4.769807e+01	3.127236e+02
1.920000e-06	6.835734e-06	4.772527e-09	4.811546e+01	3.135115e+02
1.930000e-06	6.893731e-06	4.783090e-09	4.852369e+01	3.142922e+02
1.940000e-06	6.950345e-06	4.791552e-09	4.892219e+01	3.150611e+02
1.950000e-06	7.005591e-06	4.800321e-09	4.931106e+01	3.158124e+02
1.960000e-06	7.059642e-06	4.809310e-09	4.969152e+01	3.165400e+02
1.970000e-06	7.112489e-06	4.820679e-09	5.006349e+01	3.172376e+02
1.980000e-06	7.163819e-06	4.832309e-09	5.042480e+01	3.179001e+02
1.990000e-06	7.213477e-06	4.842490e-09	5.077433e+01	3.185232e+02
2.000000e-06	7.261627e-06	4.853405e-09	5.111325e+01	3.191044e+02
2.010000e-06	7.308436e-06	4.864770e-09	5.144273e+01	3.196428e+02
2.020000e-06	7.353986e-06	4.875794e-09	5.176334e+01	3.201395e+02
2.030000e-06	7.398427e-06	4.882989e-09	5.207616e+01	3.205974e+02
2.040000e-06	7.441711e-06	4.889521e-09	5.238083e+01	3.210209e+02
2.050000e-06	7.483503e-06	4.896800e-09	5.267499e+01	3.214157e+02
2.060000e-06	7.523720e-06	4.903437e-09	5.295807e+01	3.217879e+02
2.070000e-06	7.562654e-06	4.911069e-09	5.323212e+01	3.221441e+02
2.080000e-06	7.600409e-06	4.919595e-09	5.349787e+01	3.224903e+02
2.090000e-06	7.636978e-06	4.928844e-09	5.375528e+01	3.228317e+02
2.100000e-06	7.672403e-06	4.936899e-09	5.400462e+01	3.231724e+02
2.110000e-06	7.706484e-06	4.942409e-09	5.424451e+01	3.235145e+02
2.120000e-06	7.739025e-06	4.947180e-09	5.447356e+01	3.238588e+02
2.130000e-06	7.770225e-06	4.952684e-09	5.469318e+01	3.242042e+02
2.140000e-06	7.800201e-06	4.959506e-09	5.490417e+01	3.245478e+02
2.150000e-06	7.828893e-06	4.965885e-09	5.510613e+01	3.248856e+02
2.160000e-06	7.856353e-06	4.972105e-09	5.529941e+01	3.252127e+02
2.170000e-06	7.882341e-06	4.977887e-09	5.548234e+01	3.255237e+02
2.180000e-06	7.906662e-06	4.981928e-09	5.565353e+01	3.258131e+02
2.190000e-06	7.929547e-06	4.986273e-09	5.581461e+01	3.260763e+02
2.200000e-06	7.951113e-06	4.990722e-09	5.596641e+01	3.263093e+02
2.210000e-06	7.971447e-06	4.995361e-09	5.610954e+01	3.265097e+02
2.220000e-06	7.990621e-06	5.001467e-09	5.624450e+01	3.266767e+02
2.230000e-06	8.008385e-06	5.008630e-09	5.636954e+01	3.268109e+02
2.240000e-06	8.024651e-06	5.014880e-09	5.648403e+01	3.269148e+02
2.250000e-06	8.039466e-06	5.019285e-09	5.658831e+01	3.269920e+02
2.260000e-06	8.052800e-06	5.022641e-09	5.668217e+01	3.270474e+02
2.270000e-06	8.064693e-06	5.024036e-09	5.676588e+01	3.270862e+02
2.280000e-06	8.074794e-06	5.024470e-09	5.683698e+01	3.271140e+02
2.290000e-06	8.083082e-06	5.025203e-09	5.689532e+01	3.271358e+02
2.300000e-06	8.089973e-06	5.025963e-09	5.694382e+01	3.271560e+02
2.310000e-06	8.095469e-06	5.027515e-09	5.698251e+01	3.271775e+02
2.320000e-06	8.099641e-06	5.029619e-09	5.701188e+01	3.272019e+02
2.330000e-06	8.102582e-06	5.031343e-09	5.703258e+01	3.272289e+02
2.340000e-06	8.103850e-06	5.032601e-09	5.704150e+01	3.272567e+02
2.350000e-06	8.103529e-06	5.037137e-09	5.703924e+01	3.272818e+02
2.360000e-06	8.101916e-06	5.036593e-09	5.702789e+01	3.272996e+02
2.370000e-06	8.098985e-06	5.028174e-09	5.700725e+01	3.273048e+02
2.380000e-06	8.094943e-06	5.025849e-09	5.697880e+01	3.272915e+02
2.390000e-06	8.089570e-06	5.026725e-09	5.694098e+01	3.272543e+02
2.400000e-06	8.082490e-06	5.029606e-09	5.689115e+01	3.271886e+02
2.410000e-06	8.074086e-06	5.032892e-09	5.683199e+01	3.270908e+02
2.420000e-06	8.064651e-06	5.054963e-09	5.676559e+01	3.269593e+02
2.430000e-06	8.053979e-06	5.052987e-09	5.669047e+01	3.267943e+02
2.440000e-06	8.041774e-06	4.898118e-09	5.660456e+01	3.265980e+02
2.450000e-06	8.027379e-06	4.895067e-09	5.650324e+01	3.263746e+02
2.460000e-06	8.010643e-06	4.931405e-09	5.638543e+01	3.261300e+02
2.470000e-06	7.992329e-06	5.041959e-09	5.625652e+01	3.258715e+02
2.480000e-06	7.973180e-06	5.245019e-09	5.612174e+01	3.256071e+02
2.490000e-06	7.953530e-06	4.891084e-09	5.598343e+01	3.253452e+02
2.500000e-06	7.932694e-06	4.857318e-09	5.583676e+01	3.250934e+02
2.510000e-06	7.909808e-06	5.114591e-09	5.567567e+01	3.248584e+02
2.520000e-06	7.885652e-06	4.910933e-09	5.550565e+01	3.246453e+02
2.530000e-06	7.860483e-06	5.105035e-09	5.532848e+01	3.244567e+02
2.540000e-06	7.833607e-06	5.049915e-09	5.513931e+01	3.242931e+02
2.550000e-06	7.805592e-06	4.665522e-09	5.494212e+01	3.241522e+02
2.560000e-06	7.776552e-06	5.068748e-09	5.473771e+01	3.240289e+02
2.570000e-06	7.745844e-06	5.070395e-09	5.452156e+01	3.239162e+02
2.580000e-06	7.713579e-06	4.718877e-09	5.429445e+01	3.238049e+02
2.590000e-06	7.679906e-06	4.874273e-09	5.405744e+01	3.236845e+02
2.600000e-06	7.645057e-06	4.836049e-09	5.381214e+01	3.235439e+02
2.610000e-06	7.609157e-06	4.995519e-09	5.355944e+01	3.233721e+02
2.620000e-06	7.571732e-06	4.944504e-09	5.329602e+01	3.231587e+02
2.630000e-06	7.532650e-06	4.686590e-09	5.302093e+01	3.228951e+02
2.640000e-06	7.492142e-06	4.940636e-09	5.273580e+01	3.225745e+02
2.650000e-06	7.450385e-06	4.869291e-09	5.244188e+01	3.221926e+02
2.660000e-06	7.407355e-06	4.879399e-09	5.213900e+01	3.217479e+02
2.670000e-06	7.363158e-06	4.896869e-09	5.182790e+01	3.212415e+02
2.680000e-06	7.317718e-06	4.762929e-09	5.150806e+01	3.206773e+02
2.690000e-06	7.270659e-06	4.866033e-09	5.117682e+01	3.200610e+02
2.700000e-06	7.222414e-06	4.823648e-09	5.083723e+01	3.194004e+02
2.710000e-06	7.172844e-06	4.926427e-09	5.048832e+01	3.187041e+02
2.720000e-06	7.121602e-06	4.761392e-09	5.012764e+01	3.179810e+02
2.730000e-06	7.069090e-06	4.693435e-09	4.975802e+01	3.172399e+02
2.740000e-06	7.015136e-06	4.929310e-09	4.937824e+01	3.164882e+02
2.750000e-06	6.959653e-06	4.790369e-09	4.898771e+01	3.157318e+02
2.760000e-06	6.902810e-06	4.742893e-09	4.858760e+01	3.149747e+02
2.770000e-06	6.844760e-06	4.696809e-09	4.817900e+01	3.142182e+02
2.780000e-06	6.785631e-06	4.796074e-09	4.776280e+01	3.134615e+02
2.790000e-06	6.725415e-06	4.803886e-09	4.733895e+01	3.127015e+02
2.800000e-06	6.664084e-06	4.659201e-09	4.690726e+01	3.119331e+02
2.810000e-06	6.601358e-06	4.725417e-09	4.646574e+01	3.111496e+02
2.820000e-06	6.537333e-06	4.704305e-09	4.601508e+01	3.103438e+02
2.830000e-06	6.472185e-06	4.729600e-09	4.555651e+01	3.095078e+02
2.840000e-06	6.405983e-06	4.666705e-09	4.509053e+01	3.086346e+02
2.850000e-06	6.338853e-06	4.659911e-09	4.461801e+01	3.077180e+02
2.860000e-06	6.270655e-06	4.665113e-09	4.413798e+01	3.067534e+02
2.870000e-06	6.201323e-06	4.624679e-09	4.364997e+01	3.057384e+02
2.880000e-06	6.130770e-06	4.651121e-09	4.315335e+01	3.046726e+02
2.890000e-06	6.059034e-06	4.596306e-09	4.264842e+01	3.035577e+02
2.900000e-06	5.986226e-06	4.581487e-09	4.213594e+01	3.023975e+02
2.910000e-06	5.912473e-06	4.562093e-09	4.161680e+01	3.011976e+02
2.920000e-06	5.837729e-06	4.587945e-09	4.109070e+01	2.999645e+02
2.930000e-06	5.761786e-06	4.536510e-09	4.055615e+01	2.987053e+02
2.940000e-06	5.684504e-06	4.482531e-09	4.001217e+01	2.974270e+02
2.950000e-06	5.606017e-06	4.508952e-09	3.945972e+01	2.961356e+02
