# Temperatura_=_20.0
# Concentracion g/m^3_=_9000.0
# C_Vs_to_Am_M_A/Vsm_=_65563218390.804596
# pendiente_HvsI_1/m_=_3716.3
# ordenada_HvsI_A/m_=_1297.0
# frecuencia_Hz_=_212985.45989920845

Tiempo_(s)	Campo_(V.s)	Magnetizacion_(V.s)	Campo_(kA/m)	Magnetizacion_(A/m)
0.000000e+00	-8.106304e-06	-5.114704e-09	-5.692031e+01	-3.362115e+02
1.000000e-08	-8.105402e-06	-5.113982e-09	-5.691397e+01	-3.361938e+02
2.000000e-08	-8.102875e-06	-5.116631e-09	-5.689622e+01	-3.361722e+02
3.000000e-08	-8.098950e-06	-5.116219e-09	-5.686867e+01	-3.361441e+02
4.000000e-08	-8.093823e-06	-5.117199e-09	-5.683266e+01	-3.361062e+02
5.000000e-08	-8.087433e-06	-5.116812e-09	-5.678780e+01	-3.360553e+02
6.000000e-08	-8.079845e-06	-5.112342e-09	-5.673452e+01	-3.359885e+02
7.000000e-08	-8.070909e-06	-5.106028e-09	-5.667177e+01	-3.359033e+02
8.000000e-08	-8.060239e-06	-5.084995e-09	-5.659685e+01	-3.357982e+02
9.000000e-08	-8.047893e-06	-5.112116e-09	-5.651016e+01	-3.356727e+02
1.000000e-07	-8.033727e-06	-5.183106e-09	-5.641068e+01	-3.355271e+02
1.100000e-07	-8.017467e-06	-5.173425e-09	-5.629651e+01	-3.353627e+02
1.200000e-07	-7.999608e-06	-5.133147e-09	-5.617111e+01	-3.351817e+02
1.300000e-07	-7.980597e-06	-5.058395e-09	-5.603762e+01	-3.349868e+02
1.400000e-07	-7.960662e-06	-4.949191e-09	-5.589764e+01	-3.347807e+02
1.500000e-07	-7.939782e-06	-5.119294e-09	-5.575103e+01	-3.345663e+02
1.600000e-07	-7.917695e-06	-5.198102e-09	-5.559594e+01	-3.343459e+02
1.700000e-07	-7.894430e-06	-5.024420e-09	-5.543258e+01	-3.341208e+02
1.800000e-07	-7.869794e-06	-5.082611e-09	-5.525959e+01	-3.338915e+02
1.900000e-07	-7.843387e-06	-5.063696e-09	-5.507417e+01	-3.336573e+02
2.000000e-07	-7.815660e-06	-5.059003e-09	-5.487948e+01	-3.334161e+02
2.100000e-07	-7.786939e-06	-5.215054e-09	-5.467781e+01	-3.331646e+02
2.200000e-07	-7.756817e-06	-5.039762e-09	-5.446630e+01	-3.328984e+02
2.300000e-07	-7.725348e-06	-4.946092e-09	-5.424533e+01	-3.326125e+02
2.400000e-07	-7.692612e-06	-5.108712e-09	-5.401547e+01	-3.323012e+02
2.500000e-07	-7.658355e-06	-5.117589e-09	-5.377492e+01	-3.319589e+02
2.600000e-07	-7.622643e-06	-5.076529e-09	-5.352416e+01	-3.315804e+02
2.700000e-07	-7.585558e-06	-4.978515e-09	-5.326376e+01	-3.311613e+02
2.800000e-07	-7.547070e-06	-4.968484e-09	-5.299351e+01	-3.306984e+02
2.900000e-07	-7.507314e-06	-5.071331e-09	-5.271436e+01	-3.301897e+02
3.000000e-07	-7.466181e-06	-5.052299e-09	-5.242553e+01	-3.296351e+02
3.100000e-07	-7.423471e-06	-4.962157e-09	-5.212563e+01	-3.290359e+02
3.200000e-07	-7.379313e-06	-4.945884e-09	-5.181556e+01	-3.283952e+02
3.300000e-07	-7.333809e-06	-5.003251e-09	-5.149605e+01	-3.277171e+02
3.400000e-07	-7.287003e-06	-4.982727e-09	-5.116739e+01	-3.270070e+02
3.500000e-07	-7.238823e-06	-4.958708e-09	-5.082908e+01	-3.262707e+02
3.600000e-07	-7.188865e-06	-4.948101e-09	-5.047829e+01	-3.255142e+02
3.700000e-07	-7.137130e-06	-4.895320e-09	-5.011502e+01	-3.247431e+02
3.800000e-07	-7.084062e-06	-4.943907e-09	-4.974239e+01	-3.239621e+02
3.900000e-07	-7.029811e-06	-4.963734e-09	-4.936145e+01	-3.231749e+02
4.000000e-07	-6.974329e-06	-4.874704e-09	-4.897188e+01	-3.223833e+02
4.100000e-07	-6.917612e-06	-4.854578e-09	-4.857362e+01	-3.215876e+02
4.200000e-07	-6.859572e-06	-4.902507e-09	-4.816608e+01	-3.207863e+02
4.300000e-07	-6.800150e-06	-4.905539e-09	-4.774884e+01	-3.199764e+02
4.400000e-07	-6.739539e-06	-4.833038e-09	-4.732324e+01	-3.191533e+02
4.500000e-07	-6.677878e-06	-4.814608e-09	-4.689028e+01	-3.183114e+02
4.600000e-07	-6.615150e-06	-4.840526e-09	-4.644982e+01	-3.174448e+02
4.700000e-07	-6.551309e-06	-4.829635e-09	-4.600155e+01	-3.165471e+02
4.800000e-07	-6.486325e-06	-4.790970e-09	-4.554524e+01	-3.156127e+02
4.900000e-07	-6.420090e-06	-4.753154e-09	-4.508015e+01	-3.146368e+02
5.000000e-07	-6.352572e-06	-4.755153e-09	-4.460607e+01	-3.136161e+02
5.100000e-07	-6.284072e-06	-4.756679e-09	-4.412507e+01	-3.125487e+02
5.200000e-07	-6.214646e-06	-4.732101e-09	-4.363758e+01	-3.114348e+02
5.300000e-07	-6.144171e-06	-4.695254e-09	-4.314273e+01	-3.102762e+02
5.400000e-07	-6.072609e-06	-4.680345e-09	-4.264024e+01	-3.090765e+02
5.500000e-07	-6.000059e-06	-4.684139e-09	-4.213081e+01	-3.078404e+02
5.600000e-07	-5.926459e-06	-4.671966e-09	-4.161401e+01	-3.065737e+02
5.700000e-07	-5.851479e-06	-4.637089e-09	-4.108753e+01	-3.052826e+02
5.800000e-07	-5.775151e-06	-4.597076e-09	-4.055157e+01	-3.039729e+02
5.900000e-07	-5.697690e-06	-4.591507e-09	-4.000766e+01	-3.026498e+02
6.000000e-07	-5.619255e-06	-4.597773e-09	-3.945691e+01	-3.013171e+02
6.100000e-07	-5.539755e-06	-4.568895e-09	-3.889868e+01	-2.999769e+02
6.200000e-07	-5.458998e-06	-4.523223e-09	-3.833163e+01	-2.986290e+02
6.300000e-07	-5.377205e-06	-4.508504e-09	-3.775730e+01	-2.972714e+02
6.400000e-07	-5.294529e-06	-4.508748e-09	-3.717677e+01	-2.958996e+02
6.500000e-07	-5.210958e-06	-4.482078e-09	-3.658996e+01	-2.945074e+02
6.600000e-07	-5.126637e-06	-4.439864e-09	-3.599787e+01	-2.930869e+02
6.700000e-07	-5.041528e-06	-4.415249e-09	-3.540027e+01	-2.916293e+02
6.800000e-07	-4.955552e-06	-4.407196e-09	-3.479656e+01	-2.901251e+02
6.900000e-07	-4.868825e-06	-4.388917e-09	-3.418759e+01	-2.885654e+02
7.000000e-07	-4.781199e-06	-4.356354e-09	-3.357230e+01	-2.869419e+02
7.100000e-07	-4.692562e-06	-4.320730e-09	-3.294992e+01	-2.852481e+02
7.200000e-07	-4.603094e-06	-4.295516e-09	-3.232170e+01	-2.834793e+02
7.300000e-07	-4.512771e-06	-4.277816e-09	-3.168747e+01	-2.816330e+02
7.400000e-07	-4.421506e-06	-4.248860e-09	-3.104664e+01	-2.797093e+02
7.500000e-07	-4.329434e-06	-4.208473e-09	-3.040013e+01	-2.777106e+02
7.600000e-07	-4.236554e-06	-4.175892e-09	-2.974795e+01	-2.756412e+02
7.700000e-07	-4.142918e-06	-4.156956e-09	-2.909047e+01	-2.735072e+02
7.800000e-07	-4.048754e-06	-4.131267e-09	-2.842927e+01	-2.713155e+02
7.900000e-07	-3.953998e-06	-4.090669e-09	-2.776392e+01	-2.690731e+02
8.000000e-07	-3.858413e-06	-4.051824e-09	-2.709275e+01	-2.667866e+02
8.100000e-07	-3.762038e-06	-4.024728e-09	-2.641603e+01	-2.644611e+02
8.200000e-07	-3.665114e-06	-3.996865e-09	-2.573545e+01	-2.620996e+02
8.300000e-07	-3.567612e-06	-3.953379e-09	-2.505082e+01	-2.597027e+02
8.400000e-07	-3.469397e-06	-3.906508e-09	-2.436118e+01	-2.572679e+02
8.500000e-07	-3.370380e-06	-3.872152e-09	-2.366591e+01	-2.547896e+02
8.600000e-07	-3.270680e-06	-3.841003e-09	-2.296584e+01	-2.522594e+02
8.700000e-07	-3.170565e-06	-3.797810e-09	-2.226286e+01	-2.496660e+02
8.800000e-07	-3.070090e-06	-3.746727e-09	-2.155735e+01	-2.469964e+02
8.900000e-07	-2.969115e-06	-3.703546e-09	-2.084833e+01	-2.442361e+02
9.000000e-07	-2.867698e-06	-3.665803e-09	-2.013621e+01	-2.413702e+02
9.100000e-07	-2.765882e-06	-3.619907e-09	-1.942128e+01	-2.383842e+02
9.200000e-07	-2.663620e-06	-3.565190e-09	-1.870323e+01	-2.352648e+02
9.300000e-07	-2.560886e-06	-3.510611e-09	-1.798186e+01	-2.320006e+02
9.400000e-07	-2.457653e-06	-3.461352e-09	-1.725698e+01	-2.285829e+02
9.500000e-07	-2.353954e-06	-3.410859e-09	-1.652884e+01	-2.250052e+02
9.600000e-07	-2.249773e-06	-3.352768e-09	-1.579731e+01	-2.212639e+02
9.700000e-07	-2.145249e-06	-3.289838e-09	-1.506337e+01	-2.173573e+02
9.800000e-07	-2.040438e-06	-3.230048e-09	-1.432741e+01	-2.132850e+02
9.900000e-07	-1.935267e-06	-3.173296e-09	-1.358893e+01	-2.090472e+02
1.000000e-06	-1.829707e-06	-3.108888e-09	-1.284771e+01	-2.046428e+02
1.010000e-06	-1.723795e-06	-3.035652e-09	-1.210403e+01	-2.000685e+02
1.020000e-06	-1.617412e-06	-2.962294e-09	-1.135703e+01	-1.953173e+02
1.030000e-06	-1.510515e-06	-2.888644e-09	-1.060643e+01	-1.903770e+02
1.040000e-06	-1.403215e-06	-2.809665e-09	-9.852999e+00	-1.852289e+02
1.050000e-06	-1.295600e-06	-2.723704e-09	-9.097356e+00	-1.798476e+02
1.060000e-06	-1.187770e-06	-2.633038e-09	-8.340203e+00	-1.742000e+02
1.070000e-06	-1.079740e-06	-2.540621e-09	-7.581646e+00	-1.682458e+02
1.080000e-06	-9.715365e-07	-2.444401e-09	-6.821870e+00	-1.619381e+02
1.090000e-06	-8.631762e-07	-2.339615e-09	-6.060993e+00	-1.552248e+02
1.100000e-06	-7.546606e-07	-2.226352e-09	-5.299025e+00	-1.480500e+02
1.110000e-06	-6.459978e-07	-2.109943e-09	-4.536024e+00	-1.403571e+02
1.120000e-06	-5.372763e-07	-1.987312e-09	-3.772611e+00	-1.320908e+02
1.130000e-06	-4.284835e-07	-1.852322e-09	-3.008696e+00	-1.232008e+02
1.140000e-06	-3.196387e-07	-1.702524e-09	-2.244418e+00	-1.136443e+02
1.150000e-06	-2.107612e-07	-1.542450e-09	-1.479909e+00	-1.033895e+02
1.160000e-06	-1.017989e-07	-1.375906e-09	-7.148044e-01	-9.241829e+01
1.170000e-06	7.181314e-09	-1.199649e-09	5.042527e-02	-8.072873e+01
1.180000e-06	1.161276e-07	-1.014079e-09	8.154174e-01	-6.833679e+01
1.190000e-06	2.250379e-07	-8.186177e-10	1.580156e+00	-5.527755e+01
1.200000e-06	3.338764e-07	-6.162974e-10	2.344391e+00	-4.160549e+01
1.210000e-06	4.425981e-07	-4.064152e-10	3.107806e+00	-2.739398e+01
1.220000e-06	5.511903e-07	-1.846566e-10	3.870311e+00	-1.273382e+01
1.230000e-06	6.596296e-07	4.558524e-11	4.631743e+00	2.268970e+00
1.240000e-06	7.679724e-07	2.801187e-10	5.392497e+00	1.749617e+01
1.250000e-06	8.762281e-07	5.171480e-10	6.152640e+00	3.282095e+01
1.260000e-06	9.843107e-07	7.581273e-10	6.911567e+00	4.811190e+01
1.270000e-06	1.092237e-06	9.967058e-10	7.669394e+00	6.323732e+01
1.280000e-06	1.200026e-06	1.227540e-09	8.426260e+00	7.806960e+01
1.290000e-06	1.307632e-06	1.447300e-09	9.181841e+00	9.248930e+01
1.300000e-06	1.414965e-06	1.657887e-09	9.935508e+00	1.063890e+02
1.310000e-06	1.521935e-06	1.859115e-09	1.068662e+01	1.196764e+02
1.320000e-06	1.628474e-06	2.047173e-09	1.143471e+01	1.322771e+02
1.330000e-06	1.734675e-06	2.221507e-09	1.218042e+01	1.441360e+02
1.340000e-06	1.840514e-06	2.385013e-09	1.292360e+01	1.552180e+02
1.350000e-06	1.945949e-06	2.539773e-09	1.366393e+01	1.655085e+02
1.360000e-06	2.051047e-06	2.680574e-09	1.440191e+01	1.750117e+02
1.370000e-06	2.155820e-06	2.807978e-09	1.513759e+01	1.837496e+02
1.380000e-06	2.260329e-06	2.925318e-09	1.587143e+01	1.917589e+02
1.390000e-06	2.364477e-06	3.033850e-09	1.660272e+01	1.990887e+02
1.400000e-06	2.468120e-06	3.132834e-09	1.733048e+01	2.057970e+02
1.410000e-06	2.571287e-06	3.223015e-09	1.805489e+01	2.119473e+02
1.420000e-06	2.674007e-06	3.307223e-09	1.877616e+01	2.176053e+02
1.430000e-06	2.776292e-06	3.388098e-09	1.949438e+01	2.228363e+02
1.440000e-06	2.878153e-06	3.465365e-09	2.020962e+01	2.277017e+02
1.450000e-06	2.979582e-06	3.539032e-09	2.092183e+01	2.322572e+02
1.460000e-06	3.080535e-06	3.608701e-09	2.163070e+01	2.365515e+02
1.470000e-06	3.180977e-06	3.674190e-09	2.233597e+01	2.406246e+02
1.480000e-06	3.280970e-06	3.736501e-09	2.303810e+01	2.445079e+02
1.490000e-06	3.380422e-06	3.796031e-09	2.373642e+01	2.482242e+02
1.500000e-06	3.479119e-06	3.849544e-09	2.442945e+01	2.517885e+02
1.510000e-06	3.577054e-06	3.897215e-09	2.511712e+01	2.552092e+02
1.520000e-06	3.674291e-06	3.944578e-09	2.579989e+01	2.584895e+02
1.530000e-06	3.770778e-06	3.992477e-09	2.647740e+01	2.616288e+02
1.540000e-06	3.866525e-06	4.036439e-09	2.714970e+01	2.646247e+02
1.550000e-06	3.961549e-06	4.073829e-09	2.781694e+01	2.674744e+02
1.560000e-06	4.055901e-06	4.109404e-09	2.847945e+01	2.701760e+02
1.570000e-06	4.149593e-06	4.145997e-09	2.913734e+01	2.727296e+02
1.580000e-06	4.242555e-06	4.181657e-09	2.979009e+01	2.751382e+02
1.590000e-06	4.334848e-06	4.215385e-09	3.043814e+01	2.774079e+02
1.600000e-06	4.426440e-06	4.248790e-09	3.108128e+01	2.795481e+02
1.610000e-06	4.517247e-06	4.279617e-09	3.171891e+01	2.815708e+02
1.620000e-06	4.607151e-06	4.308624e-09	3.235018e+01	2.834905e+02
1.630000e-06	4.696011e-06	4.336771e-09	3.297414e+01	2.853230e+02
1.640000e-06	4.783957e-06	4.363322e-09	3.359167e+01	2.870845e+02
1.650000e-06	4.871057e-06	4.388943e-09	3.420327e+01	2.887906e+02
1.660000e-06	4.957324e-06	4.411893e-09	3.480900e+01	2.904557e+02
1.670000e-06	5.042743e-06	4.437090e-09	3.540880e+01	2.920917e+02
1.680000e-06	5.127309e-06	4.462858e-09	3.600260e+01	2.937076e+02
1.690000e-06	5.211178e-06	4.485334e-09	3.659150e+01	2.953091e+02
1.700000e-06	5.294335e-06	4.505560e-09	3.717540e+01	2.968985e+02
1.710000e-06	5.376522e-06	4.527186e-09	3.775250e+01	2.984749e+02
1.720000e-06	5.457653e-06	4.549316e-09	3.832218e+01	3.000346e+02
1.730000e-06	5.537898e-06	4.567860e-09	3.888564e+01	3.015713e+02
1.740000e-06	5.617210e-06	4.586260e-09	3.944255e+01	3.030775e+02
1.750000e-06	5.695471e-06	4.605546e-09	3.999208e+01	3.045448e+02
1.760000e-06	5.772750e-06	4.624806e-09	4.053471e+01	3.059649e+02
1.770000e-06	5.849061e-06	4.643164e-09	4.107054e+01	3.073305e+02
1.780000e-06	5.924324e-06	4.659830e-09	4.159902e+01	3.086359e+02
1.790000e-06	5.998333e-06	4.677007e-09	4.211870e+01	3.098775e+02
1.800000e-06	6.071013e-06	4.694972e-09	4.262903e+01	3.110539e+02
1.810000e-06	6.142559e-06	4.713005e-09	4.313141e+01	3.121666e+02
1.820000e-06	6.213071e-06	4.729679e-09	4.362653e+01	3.132191e+02
1.830000e-06	6.282479e-06	4.745500e-09	4.411389e+01	3.142172e+02
1.840000e-06	6.350822e-06	4.762042e-09	4.459378e+01	3.151682e+02
1.850000e-06	6.418288e-06	4.777196e-09	4.506750e+01	3.160804e+02
1.860000e-06	6.484600e-06	4.789710e-09	4.553313e+01	3.169626e+02
1.870000e-06	6.549393e-06	4.801616e-09	4.598809e+01	3.178230e+02
1.880000e-06	6.612937e-06	4.815782e-09	4.643428e+01	3.186688e+02
1.890000e-06	6.675503e-06	4.831356e-09	4.687360e+01	3.195061e+02
1.900000e-06	6.737023e-06	4.844790e-09	4.730558e+01	3.203387e+02
1.910000e-06	6.797459e-06	4.856845e-09	4.772994e+01	3.211685e+02
1.920000e-06	6.856882e-06	4.869585e-09	4.814719e+01	3.219952e+02
1.930000e-06	6.914944e-06	4.883916e-09	4.855489e+01	3.228166e+02
1.940000e-06	6.971408e-06	4.896508e-09	4.895137e+01	3.236287e+02
1.950000e-06	7.026598e-06	4.905580e-09	4.933890e+01	3.244263e+02
1.960000e-06	7.080645e-06	4.916096e-09	4.971840e+01	3.252035e+02
1.970000e-06	7.133418e-06	4.929328e-09	5.008896e+01	3.259541e+02
1.980000e-06	7.184759e-06	4.941346e-09	5.044946e+01	3.266726e+02
1.990000e-06	7.234495e-06	4.950206e-09	5.079869e+01	3.273540e+02
2.000000e-06	7.282599e-06	4.959342e-09	5.113647e+01	3.279951e+02
2.010000e-06	7.329353e-06	4.970958e-09	5.146476e+01	3.285939e+02
2.020000e-06	7.374934e-06	4.982752e-09	5.178482e+01	3.291506e+02
2.030000e-06	7.419315e-06	4.992273e-09	5.209645e+01	3.296670e+02
2.040000e-06	7.462524e-06	4.999986e-09	5.239985e+01	3.301464e+02
2.050000e-06	7.504329e-06	5.007946e-09	5.269339e+01	3.305936e+02
2.060000e-06	7.544589e-06	5.016386e-09	5.297609e+01	3.310143e+02
2.070000e-06	7.583641e-06	5.023753e-09	5.325030e+01	3.314145e+02
2.080000e-06	7.621474e-06	5.030792e-09	5.351596e+01	3.318004e+02
2.090000e-06	7.657981e-06	5.040035e-09	5.377230e+01	3.321774e+02
2.100000e-06	7.693412e-06	5.050398e-09	5.402109e+01	3.325499e+02
2.110000e-06	7.727429e-06	5.057345e-09	5.425995e+01	3.329213e+02
2.120000e-06	7.759804e-06	5.062492e-09	5.448727e+01	3.332929e+02
2.130000e-06	7.790955e-06	5.069061e-09	5.470600e+01	3.336649e+02
2.140000e-06	7.820926e-06	5.076380e-09	5.491646e+01	3.340356e+02
2.150000e-06	7.849596e-06	5.083351e-09	5.511777e+01	3.344017e+02
2.160000e-06	7.877048e-06	5.091081e-09	5.531053e+01	3.347591e+02
2.170000e-06	7.903049e-06	5.098273e-09	5.549310e+01	3.351028e+02
2.180000e-06	7.927399e-06	5.103040e-09	5.566408e+01	3.354275e+02
2.190000e-06	7.950363e-06	5.108149e-09	5.582533e+01	3.357281e+02
2.200000e-06	7.971988e-06	5.113148e-09	5.597717e+01	3.359999e+02
2.210000e-06	7.992291e-06	5.118105e-09	5.611974e+01	3.362394e+02
2.220000e-06	8.011412e-06	5.122692e-09	5.625400e+01	3.364443e+02
2.230000e-06	8.029113e-06	5.128274e-09	5.637829e+01	3.366135e+02
2.240000e-06	8.045305e-06	5.135602e-09	5.649198e+01	3.367478e+02
2.250000e-06	8.060024e-06	5.141438e-09	5.659534e+01	3.368490e+02
2.260000e-06	8.073232e-06	5.145753e-09	5.668808e+01	3.369203e+02
2.270000e-06	8.084928e-06	5.148056e-09	5.677021e+01	3.369660e+02
2.280000e-06	8.094894e-06	5.149238e-09	5.684018e+01	3.369907e+02
2.290000e-06	8.103136e-06	5.151223e-09	5.689806e+01	3.369995e+02
2.300000e-06	8.109961e-06	5.152395e-09	5.694598e+01	3.369970e+02
2.310000e-06	8.115432e-06	5.151979e-09	5.698440e+01	3.369874e+02
2.320000e-06	8.119573e-06	5.151350e-09	5.701348e+01	3.369741e+02
2.330000e-06	8.122388e-06	5.152332e-09	5.703324e+01	3.369592e+02
2.340000e-06	8.123564e-06	5.155456e-09	5.704150e+01	3.369437e+02
2.350000e-06	8.123191e-06	5.158148e-09	5.703888e+01	3.369274e+02
2.360000e-06	8.121518e-06	5.153649e-09	5.702713e+01	3.369089e+02
2.370000e-06	8.118550e-06	5.148819e-09	5.700629e+01	3.368860e+02
2.380000e-06	8.114382e-06	5.148379e-09	5.697702e+01	3.368557e+02
2.390000e-06	8.108902e-06	5.148287e-09	5.693854e+01	3.368148e+02
2.400000e-06	8.101823e-06	5.148060e-09	5.688884e+01	3.367602e+02
2.410000e-06	8.093433e-06	5.150764e-09	5.682993e+01	3.366889e+02
2.420000e-06	8.083903e-06	5.173480e-09	5.676301e+01	3.365988e+02
2.430000e-06	8.073020e-06	5.146255e-09	5.668659e+01	3.364886e+02
2.440000e-06	8.060550e-06	5.042241e-09	5.659903e+01	3.363579e+02
2.450000e-06	8.045892e-06	5.039371e-09	5.649610e+01	3.362074e+02
2.460000e-06	8.029032e-06	5.062735e-09	5.637772e+01	3.360387e+02
2.470000e-06	8.010660e-06	5.183695e-09	5.624872e+01	3.358539e+02
2.480000e-06	7.991459e-06	5.298171e-09	5.611389e+01	3.356559e+02
2.490000e-06	7.971677e-06	5.032894e-09	5.597499e+01	3.354475e+02
2.500000e-06	7.950500e-06	5.044247e-09	5.582629e+01	3.352313e+02
2.510000e-06	7.927418e-06	5.181789e-09	5.566421e+01	3.350096e+02
2.520000e-06	7.903233e-06	5.057898e-09	5.549439e+01	3.347834e+02
2.530000e-06	7.877964e-06	5.220494e-09	5.531696e+01	3.345530e+02
2.540000e-06	7.851047e-06	5.133373e-09	5.512796e+01	3.343173e+02
2.550000e-06	7.822899e-06	4.917147e-09	5.493031e+01	3.340738e+02
2.560000e-06	7.793617e-06	5.190205e-09	5.472470e+01	3.338190e+02
2.570000e-06	7.762789e-06	5.154058e-09	5.450823e+01	3.335484e+02
2.580000e-06	7.730466e-06	4.961296e-09	5.428127e+01	3.332566e+02
2.590000e-06	7.696732e-06	5.035509e-09	5.404440e+01	3.329380e+02
2.600000e-06	7.661766e-06	5.022096e-09	5.379888e+01	3.325871e+02
2.610000e-06	7.625613e-06	5.145157e-09	5.354502e+01	3.321988e+02
2.620000e-06	7.587914e-06	5.063625e-09	5.328031e+01	3.317690e+02
2.630000e-06	7.548555e-06	4.939177e-09	5.300394e+01	3.312947e+02
2.640000e-06	7.507812e-06	5.091364e-09	5.271785e+01	3.307745e+02
2.650000e-06	7.465832e-06	5.030295e-09	5.242308e+01	3.302085e+02
2.660000e-06	7.422584e-06	5.029025e-09	5.211940e+01	3.295985e+02
2.670000e-06	7.378155e-06	5.020903e-09	5.180744e+01	3.289480e+02
2.680000e-06	7.332410e-06	4.973611e-09	5.148623e+01	3.282613e+02
2.690000e-06	7.285164e-06	5.001257e-09	5.115447e+01	3.275441e+02
2.700000e-06	7.236659e-06	4.978442e-09	5.081389e+01	3.268021e+02
2.710000e-06	7.186849e-06	5.035545e-09	5.046413e+01	3.260415e+02
2.720000e-06	7.135457e-06	4.908593e-09	5.010327e+01	3.252675e+02
2.730000e-06	7.082561e-06	4.902414e-09	4.973185e+01	3.244846e+02
2.740000e-06	7.028193e-06	5.021375e-09	4.935009e+01	3.236961e+02
2.750000e-06	6.972425e-06	4.936427e-09	4.895851e+01	3.229035e+02
2.760000e-06	6.915357e-06	4.889234e-09	4.855779e+01	3.221066e+02
2.770000e-06	6.857126e-06	4.866925e-09	4.814891e+01	3.213035e+02
2.780000e-06	6.797900e-06	4.940104e-09	4.773304e+01	3.204907e+02
2.790000e-06	6.737527e-06	4.907713e-09	4.730911e+01	3.196634e+02
2.800000e-06	6.675815e-06	4.818593e-09	4.687579e+01	3.188159e+02
2.810000e-06	6.612745e-06	4.844762e-09	4.643293e+01	3.179420e+02
2.820000e-06	6.548466e-06	4.847797e-09	4.598158e+01	3.170356e+02
2.830000e-06	6.483076e-06	4.850993e-09	4.552243e+01	3.160912e+02
2.840000e-06	6.416622e-06	4.798238e-09	4.505581e+01	3.151044e+02
2.850000e-06	6.349129e-06	4.792473e-09	4.458189e+01	3.140720e+02
2.860000e-06	6.280514e-06	4.786302e-09	4.410009e+01	3.129929e+02
2.870000e-06	6.210812e-06	4.767159e-09	4.361067e+01	3.118676e+02
2.880000e-06	6.140004e-06	4.761838e-09	4.311347e+01	3.106983e+02
2.890000e-06	6.068013e-06	4.720914e-09	4.260797e+01	3.094889e+02
2.900000e-06	5.994946e-06	4.699348e-09	4.209491e+01	3.082446e+02
2.910000e-06	5.920901e-06	4.689700e-09	4.157498e+01	3.069712e+02
2.920000e-06	5.845814e-06	4.698898e-09	4.104774e+01	3.056749e+02
2.930000e-06	5.769549e-06	4.653033e-09	4.051223e+01	3.043614e+02
2.940000e-06	5.692051e-06	4.615892e-09	3.996807e+01	3.030356e+02
2.950000e-06	5.613381e-06	4.625190e-09	3.941566e+01	3.017008e+02
