# Temperatura_=_20.0
# Concentracion g/m^3_=_9000.0
# C_Vs_to_Am_M_A/Vsm_=_65563218390.804596
# pendiente_HvsI_1/m_=_3716.3
# ordenada_HvsI_A/m_=_1297.0
# frecuencia_Hz_=_212985.90505329662

Tiempo_(s)	Campo_(V.s)	Magnetizacion_(V.s)	Campo_(kA/m)	Magnetizacion_(A/m)
0.000000e+00	-8.125825e-06	-5.112041e-09	-5.692210e+01	-3.365139e+02
1.000000e-08	-8.125053e-06	-5.110994e-09	-5.691669e+01	-3.365157e+02
2.000000e-08	-8.122687e-06	-5.111725e-09	-5.690011e+01	-3.365166e+02
3.000000e-08	-8.118935e-06	-5.109491e-09	-5.687383e+01	-3.365132e+02
4.000000e-08	-8.114002e-06	-5.106029e-09	-5.683927e+01	-3.365013e+02
5.000000e-08	-8.107782e-06	-5.106507e-09	-5.679570e+01	-3.364767e+02
6.000000e-08	-8.100259e-06	-5.108050e-09	-5.674300e+01	-3.364349e+02
7.000000e-08	-8.091302e-06	-5.107185e-09	-5.668026e+01	-3.363725e+02
8.000000e-08	-8.080668e-06	-5.094247e-09	-5.660576e+01	-3.362864e+02
9.000000e-08	-8.068357e-06	-5.115850e-09	-5.651953e+01	-3.361748e+02
1.000000e-07	-8.054238e-06	-5.165598e-09	-5.642062e+01	-3.360369e+02
1.100000e-07	-8.038111e-06	-5.156521e-09	-5.630765e+01	-3.358732e+02
1.200000e-07	-8.020392e-06	-5.123576e-09	-5.618353e+01	-3.356852e+02
1.300000e-07	-8.001495e-06	-5.063319e-09	-5.605115e+01	-3.354752e+02
1.400000e-07	-7.981644e-06	-4.987628e-09	-5.591209e+01	-3.352461e+02
1.500000e-07	-7.960814e-06	-5.103527e-09	-5.576618e+01	-3.350009e+02
1.600000e-07	-7.938714e-06	-5.156849e-09	-5.561136e+01	-3.347426e+02
1.700000e-07	-7.915437e-06	-5.041915e-09	-5.544831e+01	-3.344736e+02
1.800000e-07	-7.890805e-06	-5.074447e-09	-5.527576e+01	-3.341956e+02
1.900000e-07	-7.864440e-06	-5.066706e-09	-5.509107e+01	-3.339091e+02
2.000000e-07	-7.836756e-06	-5.074756e-09	-5.489714e+01	-3.336136e+02
2.100000e-07	-7.808017e-06	-5.179382e-09	-5.469582e+01	-3.333072e+02
2.200000e-07	-7.777896e-06	-5.060490e-09	-5.448482e+01	-3.329872e+02
2.300000e-07	-7.746462e-06	-4.983284e-09	-5.426463e+01	-3.326497e+02
2.400000e-07	-7.713699e-06	-5.088582e-09	-5.403512e+01	-3.322904e+02
2.500000e-07	-7.679377e-06	-5.106308e-09	-5.379469e+01	-3.319045e+02
2.600000e-07	-7.643634e-06	-5.072173e-09	-5.354431e+01	-3.314876e+02
2.700000e-07	-7.606481e-06	-4.995735e-09	-5.328405e+01	-3.310357e+02
2.800000e-07	-7.567950e-06	-4.991659e-09	-5.301413e+01	-3.305456e+02
2.900000e-07	-7.528206e-06	-5.059064e-09	-5.273572e+01	-3.300154e+02
3.000000e-07	-7.487051e-06	-5.045186e-09	-5.244743e+01	-3.294446e+02
3.100000e-07	-7.444287e-06	-4.988693e-09	-5.214786e+01	-3.288341e+02
3.200000e-07	-7.400078e-06	-4.958827e-09	-5.183818e+01	-3.281863e+02
3.300000e-07	-7.354490e-06	-4.987013e-09	-5.151883e+01	-3.275048e+02
3.400000e-07	-7.307601e-06	-4.995695e-09	-5.119036e+01	-3.267942e+02
3.500000e-07	-7.259391e-06	-4.981415e-09	-5.085265e+01	-3.260596e+02
3.600000e-07	-7.209555e-06	-4.952125e-09	-5.050354e+01	-3.253066e+02
3.700000e-07	-7.157929e-06	-4.909691e-09	-5.014190e+01	-3.245402e+02
3.800000e-07	-7.104756e-06	-4.948357e-09	-4.976942e+01	-3.237648e+02
3.900000e-07	-7.050345e-06	-4.962958e-09	-4.938827e+01	-3.229837e+02
4.000000e-07	-6.994751e-06	-4.899907e-09	-4.899882e+01	-3.221988e+02
4.100000e-07	-6.937848e-06	-4.878136e-09	-4.860021e+01	-3.214104e+02
4.200000e-07	-6.879653e-06	-4.899363e-09	-4.819255e+01	-3.206170e+02
4.300000e-07	-6.820204e-06	-4.902301e-09	-4.777611e+01	-3.198156e+02
4.400000e-07	-6.759499e-06	-4.858113e-09	-4.735086e+01	-3.190017e+02
4.500000e-07	-6.697680e-06	-4.836680e-09	-4.691782e+01	-3.181699e+02
4.600000e-07	-6.634865e-06	-4.838550e-09	-4.647779e+01	-3.173140e+02
4.700000e-07	-6.571012e-06	-4.825305e-09	-4.603049e+01	-3.164279e+02
4.800000e-07	-6.505898e-06	-4.806361e-09	-4.557437e+01	-3.155055e+02
4.900000e-07	-6.439512e-06	-4.781761e-09	-4.510933e+01	-3.145420e+02
5.000000e-07	-6.371984e-06	-4.770582e-09	-4.463629e+01	-3.135335e+02
5.100000e-07	-6.303414e-06	-4.762610e-09	-4.415595e+01	-3.124780e+02
5.200000e-07	-6.233899e-06	-4.748222e-09	-4.366899e+01	-3.113749e+02
5.300000e-07	-6.163428e-06	-4.724893e-09	-4.317534e+01	-3.102258e+02
5.400000e-07	-6.091860e-06	-4.705323e-09	-4.267400e+01	-3.090338e+02
5.500000e-07	-6.019106e-06	-4.693392e-09	-4.216435e+01	-3.078033e+02
5.600000e-07	-5.945187e-06	-4.675700e-09	-4.164654e+01	-3.065400e+02
5.700000e-07	-5.870085e-06	-4.650600e-09	-4.112044e+01	-3.052497e+02
5.800000e-07	-5.793685e-06	-4.622296e-09	-4.058525e+01	-3.039386e+02
5.900000e-07	-5.716127e-06	-4.607837e-09	-4.004195e+01	-3.026118e+02
6.000000e-07	-5.637532e-06	-4.598347e-09	-3.949139e+01	-3.012735e+02
6.100000e-07	-5.557859e-06	-4.571931e-09	-3.893327e+01	-2.999262e+02
6.200000e-07	-5.477022e-06	-4.539786e-09	-3.836701e+01	-2.985705e+02
6.300000e-07	-5.395071e-06	-4.525390e-09	-3.779293e+01	-2.972048e+02
6.400000e-07	-5.312314e-06	-4.513682e-09	-3.721321e+01	-2.958251e+02
6.500000e-07	-5.228803e-06	-4.484012e-09	-3.662821e+01	-2.944259e+02
6.600000e-07	-5.144445e-06	-4.450142e-09	-3.603727e+01	-2.929997e+02
6.700000e-07	-5.059192e-06	-4.429098e-09	-3.544007e+01	-2.915379e+02
6.800000e-07	-4.973123e-06	-4.416276e-09	-3.483715e+01	-2.900314e+02
6.900000e-07	-4.886308e-06	-4.395485e-09	-3.422900e+01	-2.884712e+02
7.000000e-07	-4.798625e-06	-4.365605e-09	-3.361477e+01	-2.868487e+02
7.100000e-07	-4.709826e-06	-4.334069e-09	-3.299273e+01	-2.851572e+02
7.200000e-07	-4.620049e-06	-4.308877e-09	-3.236383e+01	-2.833912e+02
7.300000e-07	-4.529581e-06	-4.287828e-09	-3.173010e+01	-2.815478e+02
7.400000e-07	-4.438372e-06	-4.257838e-09	-3.109118e+01	-2.796263e+02
7.500000e-07	-4.346313e-06	-4.220571e-09	-3.044629e+01	-2.776282e+02
7.600000e-07	-4.253291e-06	-4.189643e-09	-2.979467e+01	-2.755574e+02
7.700000e-07	-4.159505e-06	-4.166727e-09	-2.913769e+01	-2.734191e+02
7.800000e-07	-4.065206e-06	-4.138268e-09	-2.847711e+01	-2.712197e+02
7.900000e-07	-3.970358e-06	-4.098846e-09	-2.781270e+01	-2.689661e+02
8.000000e-07	-3.874752e-06	-4.061709e-09	-2.714296e+01	-2.666647e+02
8.100000e-07	-3.778137e-06	-4.033432e-09	-2.646617e+01	-2.643207e+02
8.200000e-07	-3.680706e-06	-4.002796e-09	-2.578366e+01	-2.619377e+02
8.300000e-07	-3.582812e-06	-3.959909e-09	-2.509790e+01	-2.595167e+02
8.400000e-07	-3.484426e-06	-3.914227e-09	-2.440870e+01	-2.570561e+02
8.500000e-07	-3.385344e-06	-3.878469e-09	-2.371463e+01	-2.545512e+02
8.600000e-07	-3.285628e-06	-3.844269e-09	-2.301610e+01	-2.519945e+02
8.700000e-07	-3.185387e-06	-3.802254e-09	-2.231391e+01	-2.493761e+02
8.800000e-07	-3.084596e-06	-3.753891e-09	-2.160785e+01	-2.466838e+02
8.900000e-07	-2.983323e-06	-3.707082e-09	-2.089843e+01	-2.439040e+02
9.000000e-07	-2.881618e-06	-3.666898e-09	-2.018598e+01	-2.410227e+02
9.100000e-07	-2.779560e-06	-3.623544e-09	-1.947105e+01	-2.380258e+02
9.200000e-07	-2.677131e-06	-3.572332e-09	-1.875353e+01	-2.349005e+02
9.300000e-07	-2.574215e-06	-3.517223e-09	-1.803260e+01	-2.316356e+02
9.400000e-07	-2.470839e-06	-3.465909e-09	-1.730844e+01	-2.282219e+02
9.500000e-07	-2.367007e-06	-3.416557e-09	-1.658108e+01	-2.246529e+02
9.600000e-07	-2.262591e-06	-3.360977e-09	-1.584964e+01	-2.209243e+02
9.700000e-07	-2.157551e-06	-3.301620e-09	-1.511383e+01	-2.170335e+02
9.800000e-07	-2.052037e-06	-3.239939e-09	-1.437469e+01	-2.129796e+02
9.900000e-07	-1.946267e-06	-3.176754e-09	-1.363377e+01	-2.087617e+02
1.000000e-06	-1.840292e-06	-3.109906e-09	-1.289140e+01	-2.043779e+02
1.010000e-06	-1.734024e-06	-3.039194e-09	-1.214699e+01	-1.998243e+02
1.020000e-06	-1.627448e-06	-2.965243e-09	-1.140041e+01	-1.950930e+02
1.030000e-06	-1.520498e-06	-2.889569e-09	-1.065121e+01	-1.901715e+02
1.040000e-06	-1.413178e-06	-2.812049e-09	-9.899434e+00	-1.850408e+02
1.050000e-06	-1.305543e-06	-2.728362e-09	-9.145440e+00	-1.796755e+02
1.060000e-06	-1.197640e-06	-2.641157e-09	-8.389568e+00	-1.740425e+02
1.070000e-06	-1.089445e-06	-2.550942e-09	-7.631653e+00	-1.681020e+02
1.080000e-06	-9.810188e-07	-2.452889e-09	-6.872120e+00	-1.618073e+02
1.090000e-06	-8.723905e-07	-2.347020e-09	-6.111170e+00	-1.551069e+02
1.100000e-06	-7.635614e-07	-2.237774e-09	-5.348813e+00	-1.479457e+02
1.110000e-06	-6.546205e-07	-2.122712e-09	-4.585672e+00	-1.402673e+02
1.120000e-06	-5.455425e-07	-1.995601e-09	-3.821571e+00	-1.320173e+02
1.130000e-06	-4.364108e-07	-1.858604e-09	-3.057094e+00	-1.231454e+02
1.140000e-06	-3.272426e-07	-1.710814e-09	-2.292362e+00	-1.136094e+02
1.150000e-06	-2.179681e-07	-1.553345e-09	-1.526885e+00	-1.033774e+02
1.160000e-06	-1.086764e-07	-1.388955e-09	-7.612874e-01	-9.243136e+01
1.170000e-06	5.330435e-10	-1.213858e-09	3.734015e-03	-8.076889e+01
1.180000e-06	1.097405e-07	-1.028225e-09	7.687416e-01	-6.840558e+01
1.190000e-06	2.189531e-07	-8.330150e-10	1.533785e+00	-5.537592e+01
1.200000e-06	3.280735e-07	-6.289523e-10	2.298183e+00	-4.173372e+01
1.210000e-06	4.370892e-07	-4.148970e-10	3.061847e+00	-2.755160e+01
1.220000e-06	5.460343e-07	-1.914744e-10	3.825016e+00	-1.291962e+01
1.230000e-06	6.548507e-07	3.720497e-11	4.587285e+00	2.056891e+00
1.240000e-06	7.635475e-07	2.688536e-10	5.348715e+00	1.726031e+01
1.250000e-06	8.720850e-07	5.015778e-10	6.109029e+00	3.256429e+01
1.260000e-06	9.803662e-07	7.374037e-10	6.867548e+00	4.783772e+01
1.270000e-06	1.088473e-06	9.744909e-10	7.624843e+00	6.294907e+01
1.280000e-06	1.196348e-06	1.208230e-09	8.380523e+00	7.777067e+01
1.290000e-06	1.303924e-06	1.431350e-09	9.134097e+00	9.218291e+01
1.300000e-06	1.411177e-06	1.642192e-09	9.885412e+00	1.060780e+02
1.310000e-06	1.518073e-06	1.842839e-09	1.063423e+01	1.193633e+02
1.320000e-06	1.624696e-06	2.031509e-09	1.138114e+01	1.319638e+02
1.330000e-06	1.731057e-06	2.206645e-09	1.212620e+01	1.438238e+02
1.340000e-06	1.837175e-06	2.368691e-09	1.286957e+01	1.549079e+02
1.350000e-06	1.943122e-06	2.521549e-09	1.361173e+01	1.652008e+02
1.360000e-06	2.048839e-06	2.662866e-09	1.435229e+01	1.747067e+02
1.370000e-06	2.154258e-06	2.791060e-09	1.509076e+01	1.834471e+02
1.380000e-06	2.259276e-06	2.908228e-09	1.582642e+01	1.914588e+02
1.390000e-06	2.363806e-06	3.016019e-09	1.655866e+01	1.987910e+02
1.400000e-06	2.467795e-06	3.114103e-09	1.728711e+01	2.055017e+02
1.410000e-06	2.571202e-06	3.205557e-09	1.801149e+01	2.116550e+02
1.420000e-06	2.674092e-06	3.292953e-09	1.873224e+01	2.173170e+02
1.430000e-06	2.776577e-06	3.374514e-09	1.945016e+01	2.225534e+02
1.440000e-06	2.878697e-06	3.451311e-09	2.016552e+01	2.274262e+02
1.450000e-06	2.980424e-06	3.524873e-09	2.087812e+01	2.319916e+02
1.460000e-06	3.081662e-06	3.592684e-09	2.158730e+01	2.362986e+02
1.470000e-06	3.182442e-06	3.655844e-09	2.229328e+01	2.403876e+02
1.480000e-06	3.282759e-06	3.717755e-09	2.299601e+01	2.442900e+02
1.490000e-06	3.382387e-06	3.776858e-09	2.369391e+01	2.480287e+02
1.500000e-06	3.481290e-06	3.829992e-09	2.438673e+01	2.516186e+02
1.510000e-06	3.579584e-06	3.877735e-09	2.507529e+01	2.550678e+02
1.520000e-06	3.677312e-06	3.923990e-09	2.575988e+01	2.583789e+02
1.530000e-06	3.774308e-06	3.969590e-09	2.643934e+01	2.615508e+02
1.540000e-06	3.870411e-06	4.011676e-09	2.711256e+01	2.645806e+02
1.550000e-06	3.965701e-06	4.051152e-09	2.778007e+01	2.674646e+02
1.560000e-06	4.060284e-06	4.088850e-09	2.844264e+01	2.702004e+02
1.570000e-06	4.154166e-06	4.125720e-09	2.910028e+01	2.727873e+02
1.580000e-06	4.247366e-06	4.161728e-09	2.975316e+01	2.752278e+02
1.590000e-06	4.339895e-06	4.195544e-09	3.040133e+01	2.775275e+02
1.600000e-06	4.431663e-06	4.228464e-09	3.104417e+01	2.796953e+02
1.610000e-06	4.522546e-06	4.260291e-09	3.168082e+01	2.817431e+02
1.620000e-06	4.612620e-06	4.290112e-09	3.231180e+01	2.836851e+02
1.630000e-06	4.701942e-06	4.317884e-09	3.293750e+01	2.855372e+02
1.640000e-06	4.790232e-06	4.345466e-09	3.355599e+01	2.873155e+02
1.650000e-06	4.877476e-06	4.372000e-09	3.416713e+01	2.890360e+02
1.660000e-06	4.963934e-06	4.396412e-09	3.477278e+01	2.907131e+02
1.670000e-06	5.049628e-06	4.420758e-09	3.537307e+01	2.923588e+02
1.680000e-06	5.134534e-06	4.444724e-09	3.596785e+01	2.939824e+02
1.690000e-06	5.218584e-06	4.467393e-09	3.655663e+01	2.955897e+02
1.700000e-06	5.301743e-06	4.489014e-09	3.713916e+01	2.971832e+02
1.710000e-06	5.384092e-06	4.510342e-09	3.771602e+01	2.987619e+02
1.720000e-06	5.465600e-06	4.531896e-09	3.828699e+01	3.003220e+02
1.730000e-06	5.546104e-06	4.552180e-09	3.885093e+01	3.018573e+02
1.740000e-06	5.625532e-06	4.571418e-09	3.940733e+01	3.033600e+02
1.750000e-06	5.703975e-06	4.589712e-09	3.995683e+01	3.048217e+02
1.760000e-06	5.781480e-06	4.608074e-09	4.049976e+01	3.062340e+02
1.770000e-06	5.858005e-06	4.625972e-09	4.103582e+01	3.075895e+02
1.780000e-06	5.933409e-06	4.641343e-09	4.156403e+01	3.088824e+02
1.790000e-06	6.007666e-06	4.656771e-09	4.208421e+01	3.101093e+02
1.800000e-06	6.080773e-06	4.673717e-09	4.259633e+01	3.112690e+02
1.810000e-06	6.152638e-06	4.691097e-09	4.309975e+01	3.123632e+02
1.820000e-06	6.223369e-06	4.708267e-09	4.359523e+01	3.133959e+02
1.830000e-06	6.293101e-06	4.725152e-09	4.408370e+01	3.143735e+02
1.840000e-06	6.361763e-06	4.740592e-09	4.456469e+01	3.153038e+02
1.850000e-06	6.429359e-06	4.754373e-09	4.503821e+01	3.161959e+02
1.860000e-06	6.495880e-06	4.767551e-09	4.550419e+01	3.170592e+02
1.870000e-06	6.561142e-06	4.780390e-09	4.596136e+01	3.179025e+02
1.880000e-06	6.625124e-06	4.793131e-09	4.640955e+01	3.187338e+02
1.890000e-06	6.687959e-06	4.806532e-09	4.684972e+01	3.195596e+02
1.900000e-06	6.749673e-06	4.820515e-09	4.728203e+01	3.203841e+02
1.910000e-06	6.810338e-06	4.834784e-09	4.770699e+01	3.212094e+02
1.920000e-06	6.869915e-06	4.848995e-09	4.812434e+01	3.220355e+02
1.930000e-06	6.928185e-06	4.862403e-09	4.853253e+01	3.228598e+02
1.940000e-06	6.985021e-06	4.873908e-09	4.893066e+01	3.236781e+02
1.950000e-06	7.040490e-06	4.883177e-09	4.931923e+01	3.244849e+02
1.960000e-06	7.094758e-06	4.892871e-09	4.969938e+01	3.252736e+02
1.970000e-06	7.147733e-06	4.904778e-09	5.007048e+01	3.260376e+02
1.980000e-06	7.199232e-06	4.917080e-09	5.043123e+01	3.267703e+02
1.990000e-06	7.249184e-06	4.928573e-09	5.078115e+01	3.274665e+02
2.000000e-06	7.297560e-06	4.939891e-09	5.112002e+01	3.281220e+02
2.010000e-06	7.344543e-06	4.951390e-09	5.144914e+01	3.287346e+02
2.020000e-06	7.390309e-06	4.962902e-09	5.176974e+01	3.293037e+02
2.030000e-06	7.434864e-06	4.972715e-09	5.208185e+01	3.298309e+02
2.040000e-06	7.478212e-06	4.980949e-09	5.238551e+01	3.303194e+02
2.050000e-06	7.520228e-06	4.988868e-09	5.267984e+01	3.307741e+02
2.060000e-06	7.560746e-06	4.996652e-09	5.296367e+01	3.312005e+02
2.070000e-06	7.599914e-06	5.004234e-09	5.323805e+01	3.316053e+02
2.080000e-06	7.637908e-06	5.011957e-09	5.350419e+01	3.319946e+02
2.090000e-06	7.674689e-06	5.020888e-09	5.376185e+01	3.323743e+02
2.100000e-06	7.710223e-06	5.029574e-09	5.401077e+01	3.327494e+02
2.110000e-06	7.744364e-06	5.036598e-09	5.424993e+01	3.331234e+02
2.120000e-06	7.777020e-06	5.043899e-09	5.447868e+01	3.334981e+02
2.130000e-06	7.808307e-06	5.050011e-09	5.469786e+01	3.338737e+02
2.140000e-06	7.838289e-06	5.056487e-09	5.490788e+01	3.342486e+02
2.150000e-06	7.867062e-06	5.064355e-09	5.510943e+01	3.346198e+02
2.160000e-06	7.894620e-06	5.071631e-09	5.530248e+01	3.349827e+02
2.170000e-06	7.920660e-06	5.079257e-09	5.548490e+01	3.353323e+02
2.180000e-06	7.945074e-06	5.084493e-09	5.565592e+01	3.356629e+02
2.190000e-06	7.968082e-06	5.089652e-09	5.581709e+01	3.359691e+02
2.200000e-06	7.989765e-06	5.093510e-09	5.596898e+01	3.362459e+02
2.210000e-06	8.010204e-06	5.096405e-09	5.611216e+01	3.364895e+02
2.220000e-06	8.029489e-06	5.101454e-09	5.624725e+01	3.366973e+02
2.230000e-06	8.047351e-06	5.106326e-09	5.637238e+01	3.368682e+02
2.240000e-06	8.063635e-06	5.111837e-09	5.648645e+01	3.370029e+02
2.250000e-06	8.078405e-06	5.116116e-09	5.658992e+01	3.371035e+02
2.260000e-06	8.091703e-06	5.120310e-09	5.668307e+01	3.371736e+02
2.270000e-06	8.103549e-06	5.124283e-09	5.676605e+01	3.372178e+02
2.280000e-06	8.113652e-06	5.126650e-09	5.683682e+01	3.372414e+02
2.290000e-06	8.121976e-06	5.128520e-09	5.689513e+01	3.372500e+02
2.300000e-06	8.128900e-06	5.129476e-09	5.694363e+01	3.372491e+02
2.310000e-06	8.134491e-06	5.131516e-09	5.698280e+01	3.372434e+02
2.320000e-06	8.138746e-06	5.133409e-09	5.701261e+01	3.372368e+02
2.330000e-06	8.141655e-06	5.133848e-09	5.703298e+01	3.372319e+02
2.340000e-06	8.142871e-06	5.134271e-09	5.704150e+01	3.372300e+02
2.350000e-06	8.142470e-06	5.135267e-09	5.703869e+01	3.372307e+02
2.360000e-06	8.140842e-06	5.133644e-09	5.702729e+01	3.372326e+02
2.370000e-06	8.137982e-06	5.131066e-09	5.700725e+01	3.372328e+02
2.380000e-06	8.133951e-06	5.129787e-09	5.697902e+01	3.372277e+02
2.390000e-06	8.128567e-06	5.129138e-09	5.694130e+01	3.372130e+02
2.400000e-06	8.121568e-06	5.130431e-09	5.689227e+01	3.371845e+02
2.410000e-06	8.113253e-06	5.132885e-09	5.683403e+01	3.371379e+02
2.420000e-06	8.103767e-06	5.145058e-09	5.676757e+01	3.370698e+02
2.430000e-06	8.092998e-06	5.117151e-09	5.669214e+01	3.369774e+02
2.440000e-06	8.080690e-06	5.043359e-09	5.660592e+01	3.368593e+02
2.450000e-06	8.066226e-06	5.043204e-09	5.650460e+01	3.367149e+02
2.460000e-06	8.049522e-06	5.063758e-09	5.638759e+01	3.365450e+02
2.470000e-06	8.031261e-06	5.153722e-09	5.625966e+01	3.363512e+02
2.480000e-06	8.012078e-06	5.227731e-09	5.612529e+01	3.361361e+02
2.490000e-06	7.992274e-06	5.043855e-09	5.598655e+01	3.359027e+02
2.500000e-06	7.971189e-06	5.030843e-09	5.583885e+01	3.356540e+02
2.510000e-06	7.948178e-06	5.107043e-09	5.567766e+01	3.353928e+02
2.520000e-06	7.923965e-06	5.036445e-09	5.550805e+01	3.351215e+02
2.530000e-06	7.898726e-06	5.135259e-09	5.533124e+01	3.348413e+02
2.540000e-06	7.871875e-06	5.063498e-09	5.514315e+01	3.345526e+02
2.550000e-06	7.843729e-06	4.939942e-09	5.494598e+01	3.342546e+02
2.560000e-06	7.814434e-06	5.146631e-09	5.474077e+01	3.339452e+02
2.570000e-06	7.783585e-06	5.140083e-09	5.452468e+01	3.336212e+02
2.580000e-06	7.751152e-06	5.016337e-09	5.429748e+01	3.332787e+02
2.590000e-06	7.717300e-06	5.060804e-09	5.406034e+01	3.329131e+02
2.600000e-06	7.682311e-06	5.055652e-09	5.381524e+01	3.325199e+02
2.610000e-06	7.646198e-06	5.143066e-09	5.356226e+01	3.320946e+02
2.620000e-06	7.608498e-06	5.092242e-09	5.329817e+01	3.316334e+02
2.630000e-06	7.569137e-06	5.006285e-09	5.302245e+01	3.311334e+02
2.640000e-06	7.528403e-06	5.088444e-09	5.273710e+01	3.305930e+02
2.650000e-06	7.486417e-06	5.053749e-09	5.244298e+01	3.300122e+02
2.660000e-06	7.443214e-06	5.081563e-09	5.214035e+01	3.293921e+02
2.670000e-06	7.398793e-06	5.055247e-09	5.182917e+01	3.287355e+02
2.680000e-06	7.352938e-06	4.989018e-09	5.150795e+01	3.280462e+02
2.690000e-06	7.305538e-06	5.012800e-09	5.117591e+01	3.273291e+02
2.700000e-06	7.256916e-06	5.014686e-09	5.083531e+01	3.265894e+02
2.710000e-06	7.206979e-06	5.056812e-09	5.048550e+01	3.258326e+02
2.720000e-06	7.155558e-06	4.952892e-09	5.012529e+01	3.250636e+02
2.730000e-06	7.102643e-06	4.934377e-09	4.975462e+01	3.242865e+02
2.740000e-06	7.048208e-06	5.012691e-09	4.937330e+01	3.235044e+02
2.750000e-06	6.992439e-06	4.959683e-09	4.898263e+01	3.227187e+02
2.760000e-06	6.935326e-06	4.931061e-09	4.858255e+01	3.219292e+02
2.770000e-06	6.876971e-06	4.896680e-09	4.817377e+01	3.211341e+02
2.780000e-06	6.817617e-06	4.929984e-09	4.775798e+01	3.203301e+02
2.790000e-06	6.757181e-06	4.911373e-09	4.733463e+01	3.195122e+02
2.800000e-06	6.695413e-06	4.865895e-09	4.690194e+01	3.186750e+02
2.810000e-06	6.632270e-06	4.880603e-09	4.645961e+01	3.178122e+02
2.820000e-06	6.567925e-06	4.859803e-09	4.600887e+01	3.169175e+02
2.830000e-06	6.502464e-06	4.854603e-09	4.555031e+01	3.159853e+02
2.840000e-06	6.435940e-06	4.822576e-09	4.508430e+01	3.150108e+02
2.850000e-06	6.368358e-06	4.821971e-09	4.461089e+01	3.139907e+02
2.860000e-06	6.299667e-06	4.804700e-09	4.412970e+01	3.129232e+02
2.870000e-06	6.229821e-06	4.774231e-09	4.364043e+01	3.118085e+02
2.880000e-06	6.158840e-06	4.767781e-09	4.314320e+01	3.106483e+02
2.890000e-06	6.086702e-06	4.745047e-09	4.263787e+01	3.094462e+02
2.900000e-06	6.013493e-06	4.730658e-09	4.212503e+01	3.082070e+02
2.910000e-06	5.939327e-06	4.711685e-09	4.160549e+01	3.069363e+02
2.920000e-06	5.864079e-06	4.706977e-09	4.107837e+01	3.056403e+02
2.930000e-06	5.787644e-06	4.671931e-09	4.054294e+01	3.043247e+02
2.940000e-06	5.710006e-06	4.649172e-09	3.999908e+01	3.029948e+02
2.950000e-06	5.631214e-06	4.651094e-09	3.944713e+01	3.016541e+02
