# Temperatura_=_20.0
# Concentracion g/m^3_=_9000.0
# C_Vs_to_Am_M_A/Vsm_=_65563218390.804596
# pendiente_HvsI_1/m_=_3716.3
# ordenada_HvsI_A/m_=_1297.0
# frecuencia_Hz_=_212981.89231528837

Tiempo_(s)	Campo_(V.s)	Magnetizacion_(V.s)	Campo_(kA/m)	Magnetizacion_(A/m)
0.000000e+00	-8.124722e-06	-4.823612e-09	-5.692516e+01	-3.177616e+02
1.000000e-08	-8.124092e-06	-4.821165e-09	-5.692075e+01	-3.177868e+02
2.000000e-08	-8.121826e-06	-4.824208e-09	-5.690487e+01	-3.178196e+02
3.000000e-08	-8.118133e-06	-4.823491e-09	-5.687899e+01	-3.178559e+02
4.000000e-08	-8.113282e-06	-4.823677e-09	-5.684500e+01	-3.178907e+02
5.000000e-08	-8.107099e-06	-4.823847e-09	-5.680169e+01	-3.179186e+02
6.000000e-08	-8.099670e-06	-4.822343e-09	-5.674964e+01	-3.179338e+02
7.000000e-08	-8.090977e-06	-4.821610e-09	-5.668873e+01	-3.179310e+02
8.000000e-08	-8.080630e-06	-4.813555e-09	-5.661623e+01	-3.179056e+02
9.000000e-08	-8.068581e-06	-4.811550e-09	-5.653181e+01	-3.178542e+02
1.000000e-07	-8.054645e-06	-4.874992e-09	-5.643417e+01	-3.177745e+02
1.100000e-07	-8.038550e-06	-4.889781e-09	-5.632140e+01	-3.176659e+02
1.200000e-07	-8.020804e-06	-4.844887e-09	-5.619707e+01	-3.175289e+02
1.300000e-07	-8.001910e-06	-4.810810e-09	-5.606469e+01	-3.173658e+02
1.400000e-07	-7.982086e-06	-4.718928e-09	-5.592579e+01	-3.171794e+02
1.500000e-07	-7.961352e-06	-4.762937e-09	-5.578052e+01	-3.169736e+02
1.600000e-07	-7.939366e-06	-4.935188e-09	-5.562648e+01	-3.167527e+02
1.700000e-07	-7.916199e-06	-4.801633e-09	-5.546416e+01	-3.165206e+02
1.800000e-07	-7.891811e-06	-4.768046e-09	-5.529329e+01	-3.162811e+02
1.900000e-07	-7.865645e-06	-4.836252e-09	-5.510996e+01	-3.160370e+02
2.000000e-07	-7.838058e-06	-4.761713e-09	-5.491668e+01	-3.157901e+02
2.100000e-07	-7.809486e-06	-4.907279e-09	-5.471649e+01	-3.155411e+02
2.200000e-07	-7.779517e-06	-4.854375e-09	-5.450651e+01	-3.152891e+02
2.300000e-07	-7.748208e-06	-4.686779e-09	-5.428715e+01	-3.150322e+02
2.400000e-07	-7.715611e-06	-4.803783e-09	-5.405876e+01	-3.147673e+02
2.500000e-07	-7.681446e-06	-4.877585e-09	-5.381938e+01	-3.144904e+02
2.600000e-07	-7.645838e-06	-4.823802e-09	-5.356990e+01	-3.141971e+02
2.700000e-07	-7.608875e-06	-4.763831e-09	-5.331092e+01	-3.138829e+02
2.800000e-07	-7.570525e-06	-4.721695e-09	-5.304223e+01	-3.135433e+02
2.900000e-07	-7.530933e-06	-4.792234e-09	-5.276483e+01	-3.131747e+02
3.000000e-07	-7.489942e-06	-4.824192e-09	-5.247763e+01	-3.127743e+02
3.100000e-07	-7.447313e-06	-4.761909e-09	-5.217895e+01	-3.123403e+02
3.200000e-07	-7.403222e-06	-4.706408e-09	-5.187003e+01	-3.118723e+02
3.300000e-07	-7.357812e-06	-4.736892e-09	-5.155187e+01	-3.113709e+02
3.400000e-07	-7.311104e-06	-4.780730e-09	-5.122462e+01	-3.108381e+02
3.500000e-07	-7.263101e-06	-4.734891e-09	-5.088829e+01	-3.102767e+02
3.600000e-07	-7.213481e-06	-4.718117e-09	-5.054063e+01	-3.096901e+02
3.700000e-07	-7.161999e-06	-4.682884e-09	-5.017992e+01	-3.090821e+02
3.800000e-07	-7.109054e-06	-4.690496e-09	-4.980897e+01	-3.084563e+02
3.900000e-07	-7.054915e-06	-4.740942e-09	-4.942965e+01	-3.078159e+02
4.000000e-07	-6.999554e-06	-4.684996e-09	-4.904177e+01	-3.071634e+02
4.100000e-07	-6.942902e-06	-4.638829e-09	-4.864484e+01	-3.065002e+02
4.200000e-07	-6.884862e-06	-4.656218e-09	-4.823819e+01	-3.058266e+02
4.300000e-07	-6.825591e-06	-4.691392e-09	-4.782291e+01	-3.051417e+02
4.400000e-07	-6.765116e-06	-4.652072e-09	-4.739920e+01	-3.044433e+02
4.500000e-07	-6.703480e-06	-4.604287e-09	-4.696735e+01	-3.037283e+02
4.600000e-07	-6.640844e-06	-4.614675e-09	-4.652850e+01	-3.029929e+02
4.700000e-07	-6.577235e-06	-4.615090e-09	-4.608282e+01	-3.022328e+02
4.800000e-07	-6.512425e-06	-4.602782e-09	-4.562874e+01	-3.014438e+02
4.900000e-07	-6.446193e-06	-4.571639e-09	-4.516470e+01	-3.006219e+02
5.000000e-07	-6.378767e-06	-4.558347e-09	-4.469228e+01	-2.997641e+02
5.100000e-07	-6.310363e-06	-4.555060e-09	-4.421301e+01	-2.988681e+02
5.200000e-07	-6.241015e-06	-4.544923e-09	-4.372713e+01	-2.979330e+02
5.300000e-07	-6.170641e-06	-4.525629e-09	-4.323406e+01	-2.969591e+02
5.400000e-07	-6.099243e-06	-4.504974e-09	-4.273382e+01	-2.959480e+02
5.500000e-07	-6.026808e-06	-4.496385e-09	-4.222631e+01	-2.949026e+02
5.600000e-07	-5.953136e-06	-4.481844e-09	-4.171013e+01	-2.938265e+02
5.700000e-07	-5.878185e-06	-4.464400e-09	-4.118500e+01	-2.927238e+02
5.800000e-07	-5.802013e-06	-4.437513e-09	-4.065130e+01	-2.915988e+02
5.900000e-07	-5.724695e-06	-4.419744e-09	-4.010958e+01	-2.904553e+02
6.000000e-07	-5.646207e-06	-4.415511e-09	-3.955966e+01	-2.892966e+02
6.100000e-07	-5.566534e-06	-4.395932e-09	-3.900143e+01	-2.881245e+02
6.200000e-07	-5.485712e-06	-4.365187e-09	-3.843516e+01	-2.869398e+02
6.300000e-07	-5.403839e-06	-4.347780e-09	-3.786153e+01	-2.857413e+02
6.400000e-07	-5.321100e-06	-4.344496e-09	-3.728183e+01	-2.845262e+02
6.500000e-07	-5.237649e-06	-4.321485e-09	-3.669714e+01	-2.832904e+02
6.600000e-07	-5.153421e-06	-4.284608e-09	-3.610700e+01	-2.820280e+02
6.700000e-07	-5.068310e-06	-4.264464e-09	-3.551067e+01	-2.807326e+02
6.800000e-07	-4.982363e-06	-4.258455e-09	-3.490849e+01	-2.793968e+02
6.900000e-07	-4.895634e-06	-4.241060e-09	-3.430084e+01	-2.780136e+02
7.000000e-07	-4.808080e-06	-4.207751e-09	-3.368740e+01	-2.765761e+02
7.100000e-07	-4.719439e-06	-4.178345e-09	-3.306634e+01	-2.750786e+02
7.200000e-07	-4.629663e-06	-4.160490e-09	-3.243733e+01	-2.735166e+02
7.300000e-07	-4.539054e-06	-4.143006e-09	-3.180249e+01	-2.718875e+02
7.400000e-07	-4.447774e-06	-4.113473e-09	-3.116294e+01	-2.701903e+02
7.500000e-07	-4.355708e-06	-4.075712e-09	-3.051789e+01	-2.684259e+02
7.600000e-07	-4.262763e-06	-4.046344e-09	-2.986668e+01	-2.665968e+02
7.700000e-07	-4.169090e-06	-4.029637e-09	-2.921037e+01	-2.647068e+02
7.800000e-07	-4.074828e-06	-4.007260e-09	-2.854993e+01	-2.627607e+02
7.900000e-07	-3.979975e-06	-3.970728e-09	-2.788535e+01	-2.607632e+02
8.000000e-07	-3.884454e-06	-3.933482e-09	-2.721609e+01	-2.587188e+02
8.100000e-07	-3.788044e-06	-3.910254e-09	-2.654060e+01	-2.566311e+02
8.200000e-07	-3.690779e-06	-3.890323e-09	-2.585912e+01	-2.545020e+02
8.300000e-07	-3.592846e-06	-3.852331e-09	-2.517297e+01	-2.523313e+02
8.400000e-07	-3.494320e-06	-3.806117e-09	-2.448265e+01	-2.501166e+02
8.500000e-07	-3.395223e-06	-3.770093e-09	-2.378833e+01	-2.478527e+02
8.600000e-07	-3.295584e-06	-3.741114e-09	-2.309023e+01	-2.455322e+02
8.700000e-07	-3.195457e-06	-3.705336e-09	-2.238869e+01	-2.431456e+02
8.800000e-07	-3.094836e-06	-3.658437e-09	-2.168370e+01	-2.406812e+02
8.900000e-07	-2.993712e-06	-3.613098e-09	-2.097518e+01	-2.381267e+02
9.000000e-07	-2.892072e-06	-3.574808e-09	-2.026305e+01	-2.354691e+02
9.100000e-07	-2.789987e-06	-3.536549e-09	-1.954780e+01	-2.326954e+02
9.200000e-07	-2.687519e-06	-3.491861e-09	-1.882987e+01	-2.297941e+02
9.300000e-07	-2.584650e-06	-3.439249e-09	-1.810913e+01	-2.267550e+02
9.400000e-07	-2.481394e-06	-3.388484e-09	-1.738567e+01	-2.235697e+02
9.500000e-07	-2.377710e-06	-3.341823e-09	-1.665922e+01	-2.202323e+02
9.600000e-07	-2.273524e-06	-3.292909e-09	-1.592925e+01	-2.167389e+02
9.700000e-07	-2.168849e-06	-3.237228e-09	-1.519586e+01	-2.130872e+02
9.800000e-07	-2.063658e-06	-3.175810e-09	-1.445884e+01	-2.092761e+02
9.900000e-07	-1.957957e-06	-3.116388e-09	-1.371826e+01	-2.053046e+02
1.000000e-06	-1.851860e-06	-3.056454e-09	-1.297490e+01	-2.011708e+02
1.010000e-06	-1.745393e-06	-2.992406e-09	-1.222894e+01	-1.968706e+02
1.020000e-06	-1.638557e-06	-2.921977e-09	-1.148041e+01	-1.923962e+02
1.030000e-06	-1.531443e-06	-2.848305e-09	-1.072993e+01	-1.877352e+02
1.040000e-06	-1.424077e-06	-2.773368e-09	-9.977674e+00	-1.828694e+02
1.050000e-06	-1.316442e-06	-2.693663e-09	-9.223537e+00	-1.777740e+02
1.060000e-06	-1.208581e-06	-2.611982e-09	-8.467821e+00	-1.724171e+02
1.070000e-06	-1.100495e-06	-2.525429e-09	-7.710520e+00	-1.667602e+02
1.080000e-06	-9.922037e-07	-2.432124e-09	-6.951789e+00	-1.607583e+02
1.090000e-06	-8.837131e-07	-2.333849e-09	-6.191659e+00	-1.543614e+02
1.100000e-06	-7.749935e-07	-2.230776e-09	-5.429925e+00	-1.475161e+02
1.110000e-06	-6.661442e-07	-2.120528e-09	-4.667282e+00	-1.401673e+02
1.120000e-06	-5.572494e-07	-1.999125e-09	-3.904320e+00	-1.322617e+02
1.130000e-06	-4.482823e-07	-1.867361e-09	-3.140851e+00	-1.237498e+02
1.140000e-06	-3.392133e-07	-1.725486e-09	-2.376669e+00	-1.145890e+02
1.150000e-06	-2.300532e-07	-1.574069e-09	-1.611848e+00	-1.047469e+02
1.160000e-06	-1.208446e-07	-1.412725e-09	-8.466871e-01	-9.420383e+01
1.170000e-06	-1.162617e-08	-1.240169e-09	-8.145776e-02	-8.295514e+01
1.180000e-06	9.757786e-08	-1.060831e-09	6.836708e-01	-7.101328e+01
1.190000e-06	2.067164e-07	-8.756155e-10	1.448341e+00	-5.840893e+01
1.200000e-06	3.157514e-07	-6.799004e-10	2.212285e+00	-4.519151e+01
1.210000e-06	4.247216e-07	-4.722809e-10	2.975775e+00	-3.142884e+01
1.220000e-06	5.335965e-07	-2.568202e-10	3.738598e+00	-1.720596e+01
1.230000e-06	6.423496e-07	-3.399692e-11	4.500567e+00	-2.623167e+00
1.240000e-06	7.509877e-07	1.930518e-10	5.261730e+00	1.220669e+01
1.250000e-06	8.593806e-07	4.223484e-10	6.021176e+00	2.716157e+01
1.260000e-06	9.675078e-07	6.557253e-10	6.778759e+00	4.211402e+01
1.270000e-06	1.075459e-06	8.883767e-10	7.535111e+00	5.693530e+01
1.280000e-06	1.183252e-06	1.115881e-09	8.290351e+00	7.149954e+01
1.290000e-06	1.290806e-06	1.332276e-09	9.043918e+00	8.568784e+01
1.300000e-06	1.398098e-06	1.541255e-09	9.795651e+00	9.939204e+01
1.310000e-06	1.505209e-06	1.741562e-09	1.054612e+01	1.125180e+02
1.320000e-06	1.612117e-06	1.931204e-09	1.129515e+01	1.249882e+02
1.330000e-06	1.718791e-06	2.106372e-09	1.204256e+01	1.367436e+02
1.340000e-06	1.825192e-06	2.268967e-09	1.278805e+01	1.477448e+02
1.350000e-06	1.931279e-06	2.423605e-09	1.353134e+01	1.579719e+02
1.360000e-06	2.037031e-06	2.565265e-09	1.427228e+01	1.674243e+02
1.370000e-06	2.142327e-06	2.692731e-09	1.501003e+01	1.761186e+02
1.380000e-06	2.247129e-06	2.807763e-09	1.574432e+01	1.840870e+02
1.390000e-06	2.351461e-06	2.914387e-09	1.647531e+01	1.913743e+02
1.400000e-06	2.455297e-06	3.013100e-09	1.720283e+01	1.980349e+02
1.410000e-06	2.558695e-06	3.105313e-09	1.792727e+01	2.041298e+02
1.420000e-06	2.661739e-06	3.191086e-09	1.864924e+01	2.097230e+02
1.430000e-06	2.764382e-06	3.270230e-09	1.936840e+01	2.148784e+02
1.440000e-06	2.866559e-06	3.344834e-09	2.008430e+01	2.196574e+02
1.450000e-06	2.968308e-06	3.417062e-09	2.079719e+01	2.241163e+02
1.460000e-06	3.069639e-06	3.484609e-09	2.150716e+01	2.283046e+02
1.470000e-06	3.170391e-06	3.546355e-09	2.221307e+01	2.322638e+02
1.480000e-06	3.270510e-06	3.605169e-09	2.291454e+01	2.360269e+02
1.490000e-06	3.370055e-06	3.663111e-09	2.361200e+01	2.396183e+02
1.500000e-06	3.469088e-06	3.716071e-09	2.430587e+01	2.430546e+02
1.510000e-06	3.567615e-06	3.763821e-09	2.499618e+01	2.463452e+02
1.520000e-06	3.665425e-06	3.807090e-09	2.568148e+01	2.494943e+02
1.530000e-06	3.762326e-06	3.848288e-09	2.636041e+01	2.525019e+02
1.540000e-06	3.858383e-06	3.889511e-09	2.703343e+01	2.553654e+02
1.550000e-06	3.953730e-06	3.928159e-09	2.770147e+01	2.580817e+02
1.560000e-06	4.048397e-06	3.962869e-09	2.836474e+01	2.606481e+02
1.570000e-06	4.142387e-06	3.996447e-09	2.902328e+01	2.630640e+02
1.580000e-06	4.235668e-06	4.029816e-09	2.967684e+01	2.653310e+02
1.590000e-06	4.328200e-06	4.059870e-09	3.032516e+01	2.674543e+02
1.600000e-06	4.419947e-06	4.087728e-09	3.096797e+01	2.694420e+02
1.610000e-06	4.510964e-06	4.113180e-09	3.160568e+01	2.713054e+02
1.620000e-06	4.601335e-06	4.140104e-09	3.223886e+01	2.730585e+02
1.630000e-06	4.690775e-06	4.168044e-09	3.286551e+01	2.747167e+02
1.640000e-06	4.779081e-06	4.193026e-09	3.348421e+01	2.762966e+02
1.650000e-06	4.866476e-06	4.217015e-09	3.409654e+01	2.778143e+02
1.660000e-06	4.953068e-06	4.240342e-09	3.470324e+01	2.792852e+02
1.670000e-06	5.038826e-06	4.263447e-09	3.530410e+01	2.807224e+02
1.680000e-06	5.123767e-06	4.284229e-09	3.589923e+01	2.821364e+02
1.690000e-06	5.207891e-06	4.303503e-09	3.648864e+01	2.835346e+02
1.700000e-06	5.291265e-06	4.321788e-09	3.707279e+01	2.849208e+02
1.710000e-06	5.373882e-06	4.338569e-09	3.765164e+01	2.862959e+02
1.720000e-06	5.455479e-06	4.356166e-09	3.822334e+01	2.876573e+02
1.730000e-06	5.535981e-06	4.374761e-09	3.878737e+01	2.890001e+02
1.740000e-06	5.615575e-06	4.393243e-09	3.934504e+01	2.903175e+02
1.750000e-06	5.694189e-06	4.410469e-09	3.989584e+01	2.916017e+02
1.760000e-06	5.771726e-06	4.426952e-09	4.043910e+01	2.928446e+02
1.770000e-06	5.848274e-06	4.443073e-09	4.097542e+01	2.940389e+02
1.780000e-06	5.923827e-06	4.458618e-09	4.150478e+01	2.951783e+02
1.790000e-06	5.998302e-06	4.473283e-09	4.202658e+01	2.962587e+02
1.800000e-06	6.071463e-06	4.487713e-09	4.253918e+01	2.972781e+02
1.810000e-06	6.143298e-06	4.502744e-09	4.304249e+01	2.982369e+02
1.820000e-06	6.214110e-06	4.516964e-09	4.353863e+01	2.991381e+02
1.830000e-06	6.283918e-06	4.530645e-09	4.402773e+01	2.999866e+02
1.840000e-06	6.352664e-06	4.544655e-09	4.450939e+01	3.007893e+02
1.850000e-06	6.420389e-06	4.558179e-09	4.498390e+01	3.015540e+02
1.860000e-06	6.487065e-06	4.569866e-09	4.545106e+01	3.022892e+02
1.870000e-06	6.552408e-06	4.581504e-09	4.590888e+01	3.030030e+02
1.880000e-06	6.616365e-06	4.594162e-09	4.635698e+01	3.037031e+02
1.890000e-06	6.679264e-06	4.606088e-09	4.679768e+01	3.043954e+02
1.900000e-06	6.741071e-06	4.617291e-09	4.723073e+01	3.050843e+02
1.910000e-06	6.801785e-06	4.628378e-09	4.765612e+01	3.057719e+02
1.920000e-06	6.861454e-06	4.640096e-09	4.807418e+01	3.064583e+02
1.930000e-06	6.919838e-06	4.652410e-09	4.848325e+01	3.071416e+02
1.940000e-06	6.976662e-06	4.663413e-09	4.888138e+01	3.078179e+02
1.950000e-06	7.032138e-06	4.671978e-09	4.927007e+01	3.084821e+02
1.960000e-06	7.086504e-06	4.680196e-09	4.965097e+01	3.091282e+02
1.970000e-06	7.139621e-06	4.691778e-09	5.002314e+01	3.097500e+02
1.980000e-06	7.191360e-06	4.703967e-09	5.038564e+01	3.103414e+02
1.990000e-06	7.241504e-06	4.713816e-09	5.073697e+01	3.108973e+02
2.000000e-06	7.290035e-06	4.721767e-09	5.107700e+01	3.114142e+02
2.010000e-06	7.337195e-06	4.729247e-09	5.140742e+01	3.118899e+02
2.020000e-06	7.383123e-06	4.738215e-09	5.172921e+01	3.123244e+02
2.030000e-06	7.427841e-06	4.746661e-09	5.204253e+01	3.127195e+02
2.040000e-06	7.471422e-06	4.753352e-09	5.234787e+01	3.130788e+02
2.050000e-06	7.513680e-06	4.758831e-09	5.264395e+01	3.134074e+02
2.060000e-06	7.554340e-06	4.765104e-09	5.292883e+01	3.137116e+02
2.070000e-06	7.593631e-06	4.773094e-09	5.320412e+01	3.139981e+02
2.080000e-06	7.631761e-06	4.781375e-09	5.347127e+01	3.142739e+02
2.090000e-06	7.668643e-06	4.788704e-09	5.372968e+01	3.145453e+02
2.100000e-06	7.704341e-06	4.795841e-09	5.397980e+01	3.148178e+02
2.110000e-06	7.738732e-06	4.802011e-09	5.422075e+01	3.150952e+02
2.120000e-06	7.771501e-06	4.807609e-09	5.445035e+01	3.153797e+02
2.130000e-06	7.802878e-06	4.812689e-09	5.467019e+01	3.156718e+02
2.140000e-06	7.833086e-06	4.817139e-09	5.488184e+01	3.159700e+02
2.150000e-06	7.861968e-06	4.823176e-09	5.508420e+01	3.162709e+02
2.160000e-06	7.889629e-06	4.830713e-09	5.527800e+01	3.165700e+02
2.170000e-06	7.915932e-06	4.838403e-09	5.546229e+01	3.168616e+02
2.180000e-06	7.940602e-06	4.842971e-09	5.563514e+01	3.171396e+02
2.190000e-06	7.963835e-06	4.845964e-09	5.579792e+01	3.173978e+02
2.200000e-06	7.985704e-06	4.849783e-09	5.595114e+01	3.176305e+02
2.210000e-06	8.006230e-06	4.852110e-09	5.609496e+01	3.178332e+02
2.220000e-06	8.025648e-06	4.855029e-09	5.623101e+01	3.180026e+02
2.230000e-06	8.043795e-06	4.859290e-09	5.635815e+01	3.181372e+02
2.240000e-06	8.060409e-06	4.865339e-09	5.647456e+01	3.182372e+02
2.250000e-06	8.075465e-06	4.870966e-09	5.658004e+01	3.183047e+02
2.260000e-06	8.088968e-06	4.875119e-09	5.667465e+01	3.183432e+02
2.270000e-06	8.100966e-06	4.877805e-09	5.675871e+01	3.183579e+02
2.280000e-06	8.111290e-06	4.878416e-09	5.683105e+01	3.183545e+02
2.290000e-06	8.119809e-06	4.879298e-09	5.689073e+01	3.183396e+02
2.300000e-06	8.126833e-06	4.878588e-09	5.693995e+01	3.183194e+02
2.310000e-06	8.132531e-06	4.878369e-09	5.697987e+01	3.182998e+02
2.320000e-06	8.136883e-06	4.880239e-09	5.701036e+01	3.182857e+02
2.330000e-06	8.139909e-06	4.882171e-09	5.703157e+01	3.182807e+02
2.340000e-06	8.141327e-06	4.882634e-09	5.704150e+01	3.182866e+02
2.350000e-06	8.141207e-06	4.884511e-09	5.704066e+01	3.183038e+02
2.360000e-06	8.139758e-06	4.885986e-09	5.703051e+01	3.183308e+02
2.370000e-06	8.136987e-06	4.881945e-09	5.701109e+01	3.183646e+02
2.380000e-06	8.133055e-06	4.881531e-09	5.698354e+01	3.184011e+02
2.390000e-06	8.127887e-06	4.880931e-09	5.694734e+01	3.184350e+02
2.400000e-06	8.121073e-06	4.881170e-09	5.689960e+01	3.184608e+02
2.410000e-06	8.112800e-06	4.883247e-09	5.684163e+01	3.184728e+02
2.420000e-06	8.103428e-06	4.888069e-09	5.677597e+01	3.184659e+02
2.430000e-06	8.092836e-06	4.903773e-09	5.670175e+01	3.184356e+02
2.440000e-06	8.080755e-06	4.816975e-09	5.661711e+01	3.183787e+02
2.450000e-06	8.066512e-06	4.789323e-09	5.651731e+01	3.182932e+02
2.460000e-06	8.049949e-06	4.821602e-09	5.640127e+01	3.181789e+02
2.470000e-06	8.031768e-06	4.850700e-09	5.627389e+01	3.180365e+02
2.480000e-06	8.012625e-06	5.008288e-09	5.613977e+01	3.178685e+02
2.490000e-06	7.992854e-06	4.894443e-09	5.600124e+01	3.176779e+02
2.500000e-06	7.972008e-06	4.727134e-09	5.585518e+01	3.174688e+02
2.510000e-06	7.949239e-06	4.916561e-09	5.569565e+01	3.172453e+02
2.520000e-06	7.925110e-06	4.861193e-09	5.552660e+01	3.170115e+02
2.530000e-06	7.900042e-06	4.866544e-09	5.535096e+01	3.167709e+02
2.540000e-06	7.873333e-06	4.951028e-09	5.516383e+01	3.165262e+02
2.550000e-06	7.845331e-06	4.698252e-09	5.496763e+01	3.162790e+02
2.560000e-06	7.816272e-06	4.815175e-09	5.476403e+01	3.160295e+02
2.570000e-06	7.785594e-06	4.935778e-09	5.454909e+01	3.157767e+02
2.580000e-06	7.753345e-06	4.706324e-09	5.432314e+01	3.155185e+02
2.590000e-06	7.719681e-06	4.737308e-09	5.408728e+01	3.152516e+02
2.600000e-06	7.684782e-06	4.762254e-09	5.384276e+01	3.149718e+02
2.610000e-06	7.648788e-06	4.814409e-09	5.359057e+01	3.146747e+02
2.620000e-06	7.611272e-06	4.877190e-09	5.332772e+01	3.143558e+02
2.630000e-06	7.572109e-06	4.698335e-09	5.305333e+01	3.140107e+02
2.640000e-06	7.531556e-06	4.770496e-09	5.276919e+01	3.136360e+02
2.650000e-06	7.489708e-06	4.793704e-09	5.247599e+01	3.132290e+02
2.660000e-06	7.446592e-06	4.783701e-09	5.217390e+01	3.127882e+02
2.670000e-06	7.402371e-06	4.810742e-09	5.186407e+01	3.123134e+02
2.680000e-06	7.356903e-06	4.700129e-09	5.154550e+01	3.118056e+02
2.690000e-06	7.309773e-06	4.751901e-09	5.121529e+01	3.112669e+02
2.700000e-06	7.261274e-06	4.736511e-09	5.087549e+01	3.107002e+02
2.710000e-06	7.211531e-06	4.780492e-09	5.052697e+01	3.101090e+02
2.720000e-06	7.160332e-06	4.745792e-09	5.016825e+01	3.094972e+02
2.730000e-06	7.107695e-06	4.628552e-09	4.979945e+01	3.088682e+02
2.740000e-06	7.053393e-06	4.747871e-09	4.941899e+01	3.082253e+02
2.750000e-06	6.997616e-06	4.717732e-09	4.902819e+01	3.075706e+02
2.760000e-06	6.940629e-06	4.682144e-09	4.862891e+01	3.069054e+02
2.770000e-06	6.882459e-06	4.640841e-09	4.822135e+01	3.062297e+02
2.780000e-06	6.823254e-06	4.647250e-09	4.780654e+01	3.055423e+02
2.790000e-06	6.762944e-06	4.688836e-09	4.738398e+01	3.048409e+02
2.800000e-06	6.701301e-06	4.611817e-09	4.695209e+01	3.041222e+02
2.810000e-06	6.638290e-06	4.633232e-09	4.651060e+01	3.033822e+02
2.820000e-06	6.574145e-06	4.614917e-09	4.606118e+01	3.026167e+02
2.830000e-06	6.508882e-06	4.615025e-09	4.560392e+01	3.018214e+02
2.840000e-06	6.442489e-06	4.588170e-09	4.513874e+01	3.009926e+02
2.850000e-06	6.375104e-06	4.572792e-09	4.466661e+01	3.001273e+02
2.860000e-06	6.306679e-06	4.582110e-09	4.418720e+01	2.992236e+02
2.870000e-06	6.236996e-06	4.534974e-09	4.369897e+01	2.982806e+02
2.880000e-06	6.166049e-06	4.533684e-09	4.320189e+01	2.972992e+02
2.890000e-06	6.094036e-06	4.515425e-09	4.269734e+01	2.962810e+02
2.900000e-06	6.021005e-06	4.512998e-09	4.218565e+01	2.952292e+02
2.910000e-06	5.946988e-06	4.488945e-09	4.166705e+01	2.941475e+02
2.920000e-06	5.871950e-06	4.482130e-09	4.114131e+01	2.930400e+02
2.930000e-06	5.795682e-06	4.462177e-09	4.060694e+01	2.919110e+02
2.940000e-06	5.718081e-06	4.428043e-09	4.006324e+01	2.907643e+02
2.950000e-06	5.639266e-06	4.432664e-09	3.951103e+01	2.896028e+02
