# Temperatura_=_20.0
# Concentracion g/m^3_=_9000.0
# C_Vs_to_Am_M_A/Vsm_=_65563218390.804596
# pendiente_HvsI_1/m_=_3716.3
# ordenada_HvsI_A/m_=_1297.0
# frecuencia_Hz_=_212984.19238835303

Tiempo_(s)	Campo_(V.s)	Magnetizacion_(V.s)	Campo_(kA/m)	Magnetizacion_(A/m)
0.000000e+00	-8.060886e-06	-4.316759e-09	-5.692546e+01	-2.789842e+02
1.000000e-08	-8.060180e-06	-4.314640e-09	-5.692048e+01	-2.790258e+02
2.000000e-08	-8.057805e-06	-4.313092e-09	-5.690370e+01	-2.790805e+02
3.000000e-08	-8.054056e-06	-4.311115e-09	-5.687723e+01	-2.791447e+02
4.000000e-08	-8.049166e-06	-4.312891e-09	-5.684270e+01	-2.792125e+02
5.000000e-08	-8.042951e-06	-4.314976e-09	-5.679881e+01	-2.792768e+02
6.000000e-08	-8.035522e-06	-4.313110e-09	-5.674634e+01	-2.793293e+02
7.000000e-08	-8.026788e-06	-4.308588e-09	-5.668467e+01	-2.793610e+02
8.000000e-08	-8.016372e-06	-4.285608e-09	-5.661110e+01	-2.793632e+02
9.000000e-08	-8.004269e-06	-4.289795e-09	-5.652564e+01	-2.793275e+02
1.000000e-07	-7.990414e-06	-4.323737e-09	-5.642779e+01	-2.792466e+02
1.100000e-07	-7.974539e-06	-4.313307e-09	-5.631568e+01	-2.791148e+02
1.200000e-07	-7.956942e-06	-4.300760e-09	-5.619141e+01	-2.789280e+02
1.300000e-07	-7.938134e-06	-4.269452e-09	-5.605860e+01	-2.786843e+02
1.400000e-07	-7.918370e-06	-4.207627e-09	-5.591902e+01	-2.783838e+02
1.500000e-07	-7.897666e-06	-4.319440e-09	-5.577281e+01	-2.780285e+02
1.600000e-07	-7.875746e-06	-4.326818e-09	-5.561801e+01	-2.776222e+02
1.700000e-07	-7.852653e-06	-4.189397e-09	-5.545494e+01	-2.771706e+02
1.800000e-07	-7.828320e-06	-4.214035e-09	-5.528310e+01	-2.766801e+02
1.900000e-07	-7.802254e-06	-4.186603e-09	-5.509902e+01	-2.761582e+02
2.000000e-07	-7.774806e-06	-4.212272e-09	-5.490518e+01	-2.756125e+02
2.100000e-07	-7.746399e-06	-4.298819e-09	-5.470457e+01	-2.750506e+02
2.200000e-07	-7.716570e-06	-4.146901e-09	-5.449392e+01	-2.744795e+02
2.300000e-07	-7.685340e-06	-4.110599e-09	-5.427338e+01	-2.739054e+02
2.400000e-07	-7.652940e-06	-4.208687e-09	-5.404458e+01	-2.733335e+02
2.500000e-07	-7.619067e-06	-4.211637e-09	-5.380536e+01	-2.727674e+02
2.600000e-07	-7.583706e-06	-4.212575e-09	-5.355564e+01	-2.722099e+02
2.700000e-07	-7.546938e-06	-4.087647e-09	-5.329600e+01	-2.716620e+02
2.800000e-07	-7.508730e-06	-4.088750e-09	-5.302617e+01	-2.711239e+02
2.900000e-07	-7.469340e-06	-4.206830e-09	-5.274800e+01	-2.705943e+02
3.000000e-07	-7.428663e-06	-4.158490e-09	-5.246074e+01	-2.700716e+02
3.100000e-07	-7.386340e-06	-4.082147e-09	-5.216186e+01	-2.695531e+02
3.200000e-07	-7.342623e-06	-4.098306e-09	-5.185313e+01	-2.690359e+02
3.300000e-07	-7.297586e-06	-4.127196e-09	-5.153508e+01	-2.685170e+02
3.400000e-07	-7.251074e-06	-4.096727e-09	-5.120662e+01	-2.679933e+02
3.500000e-07	-7.203316e-06	-4.098461e-09	-5.086935e+01	-2.674619e+02
3.600000e-07	-7.154016e-06	-4.074007e-09	-5.052120e+01	-2.669200e+02
3.700000e-07	-7.102837e-06	-4.011974e-09	-5.015978e+01	-2.663653e+02
3.800000e-07	-7.050139e-06	-4.071482e-09	-4.978763e+01	-2.657956e+02
3.900000e-07	-6.996222e-06	-4.090402e-09	-4.940687e+01	-2.652089e+02
4.000000e-07	-6.941165e-06	-4.005029e-09	-4.901807e+01	-2.646038e+02
4.100000e-07	-6.885030e-06	-3.989648e-09	-4.862164e+01	-2.639785e+02
4.200000e-07	-6.827561e-06	-4.028264e-09	-4.821580e+01	-2.633317e+02
4.300000e-07	-6.768663e-06	-4.034650e-09	-4.779987e+01	-2.626620e+02
4.400000e-07	-6.708587e-06	-3.976839e-09	-4.737561e+01	-2.619680e+02
4.500000e-07	-6.647394e-06	-3.952434e-09	-4.694347e+01	-2.612483e+02
4.600000e-07	-6.585068e-06	-3.968891e-09	-4.650333e+01	-2.605018e+02
4.700000e-07	-6.521781e-06	-3.969565e-09	-4.605640e+01	-2.597272e+02
4.800000e-07	-6.457497e-06	-3.940989e-09	-4.560243e+01	-2.589238e+02
4.900000e-07	-6.391784e-06	-3.899364e-09	-4.513837e+01	-2.580909e+02
5.000000e-07	-6.324671e-06	-3.900320e-09	-4.466442e+01	-2.572283e+02
5.100000e-07	-6.256646e-06	-3.903432e-09	-4.418403e+01	-2.563362e+02
5.200000e-07	-6.187766e-06	-3.885155e-09	-4.369761e+01	-2.554154e+02
5.300000e-07	-6.117721e-06	-3.857735e-09	-4.320295e+01	-2.544670e+02
5.400000e-07	-6.046601e-06	-3.840338e-09	-4.270071e+01	-2.534926e+02
5.500000e-07	-5.974698e-06	-3.836257e-09	-4.219293e+01	-2.524941e+02
5.600000e-07	-5.901830e-06	-3.825105e-09	-4.167835e+01	-2.514736e+02
5.700000e-07	-5.827511e-06	-3.800177e-09	-4.115351e+01	-2.504329e+02
5.800000e-07	-5.751787e-06	-3.765539e-09	-4.061875e+01	-2.493740e+02
5.900000e-07	-5.675029e-06	-3.754153e-09	-4.007669e+01	-2.482981e+02
6.000000e-07	-5.597341e-06	-3.754737e-09	-3.952806e+01	-2.472061e+02
6.100000e-07	-5.518537e-06	-3.733077e-09	-3.897155e+01	-2.460978e+02
6.200000e-07	-5.438319e-06	-3.697450e-09	-3.840506e+01	-2.449724e+02
6.300000e-07	-5.357038e-06	-3.680324e-09	-3.783106e+01	-2.438279e+02
6.400000e-07	-5.274853e-06	-3.676041e-09	-3.725067e+01	-2.426615e+02
6.500000e-07	-5.191714e-06	-3.654429e-09	-3.666355e+01	-2.414697e+02
6.600000e-07	-5.107914e-06	-3.621153e-09	-3.607176e+01	-2.402480e+02
6.700000e-07	-5.023289e-06	-3.598413e-09	-3.547414e+01	-2.389918e+02
6.800000e-07	-4.937745e-06	-3.587245e-09	-3.487004e+01	-2.376963e+02
6.900000e-07	-4.851484e-06	-3.571390e-09	-3.426087e+01	-2.363567e+02
7.000000e-07	-4.764485e-06	-3.545921e-09	-3.364649e+01	-2.349688e+02
7.100000e-07	-4.676695e-06	-3.516198e-09	-3.302652e+01	-2.335291e+02
7.200000e-07	-4.587913e-06	-3.492728e-09	-3.239955e+01	-2.320350e+02
7.300000e-07	-4.498002e-06	-3.474184e-09	-3.176460e+01	-2.304852e+02
7.400000e-07	-4.407189e-06	-3.450231e-09	-3.112329e+01	-2.288793e+02
7.500000e-07	-4.315679e-06	-3.420584e-09	-3.047705e+01	-2.272183e+02
7.600000e-07	-4.223454e-06	-3.393691e-09	-2.982576e+01	-2.255039e+02
7.700000e-07	-4.130470e-06	-3.373684e-09	-2.916911e+01	-2.237389e+02
7.800000e-07	-4.036811e-06	-3.350025e-09	-2.850770e+01	-2.219261e+02
7.900000e-07	-3.942506e-06	-3.317934e-09	-2.784173e+01	-2.200687e+02
8.000000e-07	-3.847537e-06	-3.286295e-09	-2.717106e+01	-2.181693e+02
8.100000e-07	-3.751984e-06	-3.260923e-09	-2.649627e+01	-2.162299e+02
8.200000e-07	-3.655900e-06	-3.235620e-09	-2.581773e+01	-2.142512e+02
8.300000e-07	-3.559141e-06	-3.200768e-09	-2.513442e+01	-2.122326e+02
8.400000e-07	-3.461502e-06	-3.164838e-09	-2.444491e+01	-2.101717e+02
8.500000e-07	-3.362943e-06	-3.137203e-09	-2.374889e+01	-2.080646e+02
8.600000e-07	-3.263728e-06	-3.109024e-09	-2.304824e+01	-2.059057e+02
8.700000e-07	-3.164199e-06	-3.071858e-09	-2.234537e+01	-2.036881e+02
8.800000e-07	-3.064371e-06	-3.027772e-09	-2.164039e+01	-2.014034e+02
8.900000e-07	-2.963993e-06	-2.988960e-09	-2.093153e+01	-1.990430e+02
9.000000e-07	-2.863055e-06	-2.955609e-09	-2.021871e+01	-1.965977e+02
9.100000e-07	-2.761744e-06	-2.917262e-09	-1.950326e+01	-1.940587e+02
9.200000e-07	-2.660016e-06	-2.874544e-09	-1.878486e+01	-1.914181e+02
9.300000e-07	-2.557806e-06	-2.828980e-09	-1.806306e+01	-1.886687e+02
9.400000e-07	-2.455118e-06	-2.787653e-09	-1.733789e+01	-1.858051e+02
9.500000e-07	-2.352042e-06	-2.747184e-09	-1.660997e+01	-1.828231e+02
9.600000e-07	-2.248635e-06	-2.699006e-09	-1.587972e+01	-1.797201e+02
9.700000e-07	-2.144926e-06	-2.646342e-09	-1.514733e+01	-1.764943e+02
9.800000e-07	-2.040915e-06	-2.593685e-09	-1.441281e+01	-1.731447e+02
9.900000e-07	-1.936456e-06	-2.543981e-09	-1.367513e+01	-1.696701e+02
1.000000e-06	-1.831487e-06	-2.490331e-09	-1.293385e+01	-1.660684e+02
1.010000e-06	-1.726018e-06	-2.430832e-09	-1.218903e+01	-1.623356e+02
1.020000e-06	-1.620051e-06	-2.370134e-09	-1.144069e+01	-1.584650e+02
1.030000e-06	-1.513586e-06	-2.311178e-09	-1.068885e+01	-1.544461e+02
1.040000e-06	-1.406740e-06	-2.250956e-09	-9.934305e+00	-1.502640e+02
1.050000e-06	-1.299678e-06	-2.182048e-09	-9.178241e+00	-1.458986e+02
1.060000e-06	-1.192420e-06	-2.107517e-09	-8.420790e+00	-1.413248e+02
1.070000e-06	-1.084966e-06	-2.031206e-09	-7.661960e+00	-1.365121e+02
1.080000e-06	-9.773817e-07	-1.952312e-09	-6.902207e+00	-1.314254e+02
1.090000e-06	-8.697159e-07	-1.867976e-09	-6.141878e+00	-1.260255e+02
1.100000e-06	-7.618793e-07	-1.777299e-09	-5.380343e+00	-1.202710e+02
1.110000e-06	-6.538594e-07	-1.681489e-09	-4.617513e+00	-1.141191e+02
1.120000e-06	-5.457583e-07	-1.583517e-09	-3.854110e+00	-1.075282e+02
1.130000e-06	-4.375557e-07	-1.481260e-09	-3.089990e+00	-1.004597e+02
1.140000e-06	-3.292685e-07	-1.366811e-09	-2.325273e+00	-9.288035e+01
1.150000e-06	-2.209547e-07	-1.239545e-09	-1.560368e+00	-8.476463e+01
1.160000e-06	-1.125993e-07	-1.105517e-09	-7.951691e-01	-7.609667e+01
1.170000e-06	-4.242741e-09	-9.676308e-10	-2.996197e-02	-6.687225e+01
1.180000e-06	1.041360e-07	-8.195295e-10	7.354017e-01	-5.710022e+01
1.190000e-06	2.125086e-07	-6.622114e-10	1.500722e+00	-4.680355e+01
1.200000e-06	3.207661e-07	-5.003374e-10	2.265230e+00	-3.601975e+01
1.210000e-06	4.289110e-07	-3.352948e-10	3.028942e+00	-2.480067e+01
1.220000e-06	5.369437e-07	-1.634788e-10	3.791862e+00	-1.321173e+01
1.230000e-06	6.448397e-07	1.830915e-11	4.553817e+00	-1.330383e+00
1.240000e-06	7.525802e-07	2.037357e-10	5.314673e+00	1.075581e+01
1.250000e-06	8.602210e-07	3.903128e-10	6.074826e+00	2.295177e+01
1.260000e-06	9.677074e-07	5.813464e-10	6.833888e+00	3.515779e+01
1.270000e-06	1.075063e-06	7.727713e-10	7.592026e+00	4.727265e+01
1.280000e-06	1.182268e-06	9.607343e-10	8.349103e+00	5.919695e+01
1.290000e-06	1.289263e-06	1.138019e-09	9.104692e+00	7.083623e+01
1.300000e-06	1.396048e-06	1.308414e-09	9.858803e+00	8.210399e+01
1.310000e-06	1.502557e-06	1.472213e-09	1.061096e+01	9.292435e+01
1.320000e-06	1.608746e-06	1.628512e-09	1.136086e+01	1.032341e+02
1.330000e-06	1.714612e-06	1.772735e-09	1.210848e+01	1.129845e+02
1.340000e-06	1.820007e-06	1.904964e-09	1.285277e+01	1.221418e+02
1.350000e-06	1.924886e-06	2.033858e-09	1.359342e+01	1.306880e+02
1.360000e-06	2.029365e-06	2.152205e-09	1.433125e+01	1.386199e+02
1.370000e-06	2.133358e-06	2.258790e-09	1.506564e+01	1.459486e+02
1.380000e-06	2.236925e-06	2.354938e-09	1.579702e+01	1.526975e+02
1.390000e-06	2.340237e-06	2.444570e-09	1.652660e+01	1.589004e+02
1.400000e-06	2.443276e-06	2.527261e-09	1.725426e+01	1.645991e+02
1.410000e-06	2.545986e-06	2.603694e-09	1.797959e+01	1.698410e+02
1.420000e-06	2.648267e-06	2.676522e-09	1.870189e+01	1.746764e+02
1.430000e-06	2.750089e-06	2.745877e-09	1.942095e+01	1.791561e+02
1.440000e-06	2.851504e-06	2.811790e-09	2.013714e+01	1.833291e+02
1.450000e-06	2.952438e-06	2.873495e-09	2.084993e+01	1.872407e+02
1.460000e-06	3.052840e-06	2.929310e-09	2.155896e+01	1.909308e+02
1.470000e-06	3.152764e-06	2.983001e-09	2.226462e+01	1.944335e+02
1.480000e-06	3.252246e-06	3.036413e-09	2.296715e+01	1.977759e+02
1.490000e-06	3.351236e-06	3.086049e-09	2.366622e+01	2.009781e+02
1.500000e-06	3.449635e-06	3.130498e-09	2.436110e+01	2.040542e+02
1.510000e-06	3.547246e-06	3.173142e-09	2.505043e+01	2.070122e+02
1.520000e-06	3.643924e-06	3.214636e-09	2.573316e+01	2.098557e+02
1.530000e-06	3.739800e-06	3.252177e-09	2.641023e+01	2.125848e+02
1.540000e-06	3.835045e-06	3.288029e-09	2.708284e+01	2.151974e+02
1.550000e-06	3.929644e-06	3.321564e-09	2.775089e+01	2.176906e+02
1.560000e-06	4.023555e-06	3.351818e-09	2.841409e+01	2.200620e+02
1.570000e-06	4.116756e-06	3.382492e-09	2.907227e+01	2.223104e+02
1.580000e-06	4.209298e-06	3.413298e-09	2.972579e+01	2.244367e+02
1.590000e-06	4.301169e-06	3.441357e-09	3.037458e+01	2.264444e+02
1.600000e-06	4.392354e-06	3.468953e-09	3.101852e+01	2.283396e+02
1.610000e-06	4.482731e-06	3.495835e-09	3.165676e+01	2.301313e+02
1.620000e-06	4.572040e-06	3.519777e-09	3.228745e+01	2.318303e+02
1.630000e-06	4.660261e-06	3.542624e-09	3.291046e+01	2.334492e+02
1.640000e-06	4.747668e-06	3.565576e-09	3.352773e+01	2.350014e+02
1.650000e-06	4.834323e-06	3.588201e-09	3.413968e+01	2.365003e+02
1.660000e-06	4.920184e-06	3.609463e-09	3.474602e+01	2.379586e+02
1.670000e-06	5.005246e-06	3.631390e-09	3.534672e+01	2.393872e+02
1.680000e-06	5.089502e-06	3.652876e-09	3.594174e+01	2.407951e+02
1.690000e-06	5.173050e-06	3.672040e-09	3.653175e+01	2.421887e+02
1.700000e-06	5.255832e-06	3.689463e-09	3.711635e+01	2.435712e+02
1.710000e-06	5.337662e-06	3.706269e-09	3.769422e+01	2.449435e+02
1.720000e-06	5.418456e-06	3.722532e-09	3.826479e+01	2.463034e+02
1.730000e-06	5.498378e-06	3.737885e-09	3.882920e+01	2.476466e+02
1.740000e-06	5.577305e-06	3.754512e-09	3.938657e+01	2.489672e+02
1.750000e-06	5.655130e-06	3.769983e-09	3.993617e+01	2.502583e+02
1.760000e-06	5.732040e-06	3.784969e-09	4.047930e+01	2.515126e+02
1.770000e-06	5.807996e-06	3.801492e-09	4.101569e+01	2.527234e+02
1.780000e-06	5.882872e-06	3.816568e-09	4.154446e+01	2.538848e+02
1.790000e-06	5.956453e-06	3.831383e-09	4.206409e+01	2.549928e+02
1.800000e-06	6.028695e-06	3.846501e-09	4.257426e+01	2.560451e+02
1.810000e-06	6.099876e-06	3.861861e-09	4.307693e+01	2.570419e+02
1.820000e-06	6.170126e-06	3.876177e-09	4.357303e+01	2.579853e+02
1.830000e-06	6.239367e-06	3.887794e-09	4.406201e+01	2.588796e+02
1.840000e-06	6.307568e-06	3.900657e-09	4.454364e+01	2.597306e+02
1.850000e-06	6.374780e-06	3.914185e-09	4.501829e+01	2.605453e+02
1.860000e-06	6.440781e-06	3.925891e-09	4.548438e+01	2.613315e+02
1.870000e-06	6.505389e-06	3.936441e-09	4.594064e+01	2.620969e+02
1.880000e-06	6.568856e-06	3.947883e-09	4.638884e+01	2.628484e+02
1.890000e-06	6.631281e-06	3.961065e-09	4.682968e+01	2.635921e+02
1.900000e-06	6.692584e-06	3.972761e-09	4.726260e+01	2.643322e+02
1.910000e-06	6.752786e-06	3.983518e-09	4.768775e+01	2.650714e+02
1.920000e-06	6.811910e-06	3.993299e-09	4.810528e+01	2.658099e+02
1.930000e-06	6.869703e-06	4.002991e-09	4.851340e+01	2.665464e+02
1.940000e-06	6.926044e-06	4.014152e-09	4.891128e+01	2.672775e+02
1.950000e-06	6.981140e-06	4.022900e-09	4.930037e+01	2.679984e+02
1.960000e-06	7.035062e-06	4.030483e-09	4.968116e+01	2.687035e+02
1.970000e-06	7.087667e-06	4.039344e-09	5.005265e+01	2.693864e+02
1.980000e-06	7.138775e-06	4.050615e-09	5.041357e+01	2.700412e+02
1.990000e-06	7.188257e-06	4.061857e-09	5.076301e+01	2.706623e+02
2.000000e-06	7.236214e-06	4.069212e-09	5.110168e+01	2.712454e+02
2.010000e-06	7.282928e-06	4.076924e-09	5.143157e+01	2.717878e+02
2.020000e-06	7.328431e-06	4.086231e-09	5.175291e+01	2.722884e+02
2.030000e-06	7.372756e-06	4.094469e-09	5.206593e+01	2.727482e+02
2.040000e-06	7.415922e-06	4.099171e-09	5.237077e+01	2.731700e+02
2.050000e-06	7.457641e-06	4.102466e-09	5.266538e+01	2.735581e+02
2.060000e-06	7.497846e-06	4.108272e-09	5.294931e+01	2.739183e+02
2.070000e-06	7.536769e-06	4.115157e-09	5.322418e+01	2.742572e+02
2.080000e-06	7.574465e-06	4.122033e-09	5.349038e+01	2.745816e+02
2.090000e-06	7.610972e-06	4.128192e-09	5.374820e+01	2.748984e+02
2.100000e-06	7.646325e-06	4.133868e-09	5.399786e+01	2.752134e+02
2.110000e-06	7.680211e-06	4.137889e-09	5.423716e+01	2.755316e+02
2.120000e-06	7.712573e-06	4.141646e-09	5.446570e+01	2.758561e+02
2.130000e-06	7.743680e-06	4.146142e-09	5.468537e+01	2.761883e+02
2.140000e-06	7.773538e-06	4.150040e-09	5.489623e+01	2.765277e+02
2.150000e-06	7.802167e-06	4.153537e-09	5.509841e+01	2.768718e+02
2.160000e-06	7.829585e-06	4.158537e-09	5.529203e+01	2.772167e+02
2.170000e-06	7.855498e-06	4.164034e-09	5.547502e+01	2.775570e+02
2.180000e-06	7.879786e-06	4.167480e-09	5.564654e+01	2.778863e+02
2.190000e-06	7.902656e-06	4.171253e-09	5.580805e+01	2.781981e+02
2.200000e-06	7.924226e-06	4.173929e-09	5.596038e+01	2.784858e+02
2.210000e-06	7.944584e-06	4.174939e-09	5.610414e+01	2.787438e+02
2.220000e-06	7.963804e-06	4.176827e-09	5.623987e+01	2.789674e+02
2.230000e-06	7.981706e-06	4.181039e-09	5.636629e+01	2.791538e+02
2.240000e-06	7.998057e-06	4.186400e-09	5.648177e+01	2.793017e+02
2.250000e-06	8.012886e-06	4.189341e-09	5.658649e+01	2.794120e+02
2.260000e-06	8.026155e-06	4.190878e-09	5.668020e+01	2.794874e+02
2.270000e-06	8.037878e-06	4.192491e-09	5.676298e+01	2.795325e+02
2.280000e-06	8.047911e-06	4.193390e-09	5.683383e+01	2.795530e+02
2.290000e-06	8.056242e-06	4.192780e-09	5.689266e+01	2.795559e+02
2.300000e-06	8.063168e-06	4.191268e-09	5.694158e+01	2.795486e+02
2.310000e-06	8.068756e-06	4.191059e-09	5.698104e+01	2.795383e+02
2.320000e-06	8.073076e-06	4.192698e-09	5.701155e+01	2.795316e+02
2.330000e-06	8.076028e-06	4.193888e-09	5.703239e+01	2.795341e+02
2.340000e-06	8.077318e-06	4.194061e-09	5.704150e+01	2.795495e+02
2.350000e-06	8.077160e-06	4.195930e-09	5.704039e+01	2.795799e+02
2.360000e-06	8.075737e-06	4.196203e-09	5.703034e+01	2.796250e+02
2.370000e-06	8.072953e-06	4.194125e-09	5.701068e+01	2.796826e+02
2.380000e-06	8.068979e-06	4.194113e-09	5.698261e+01	2.797484e+02
2.390000e-06	8.063711e-06	4.195626e-09	5.694541e+01	2.798161e+02
2.400000e-06	8.056826e-06	4.197186e-09	5.689679e+01	2.798783e+02
2.410000e-06	8.048588e-06	4.200320e-09	5.683861e+01	2.799265e+02
2.420000e-06	8.039226e-06	4.219866e-09	5.677250e+01	2.799517e+02
2.430000e-06	8.028648e-06	4.227126e-09	5.669780e+01	2.799452e+02
2.440000e-06	8.016574e-06	4.175559e-09	5.661253e+01	2.798989e+02
2.450000e-06	8.002278e-06	4.179149e-09	5.651158e+01	2.798059e+02
2.460000e-06	7.985734e-06	4.173532e-09	5.639474e+01	2.796607e+02
2.470000e-06	7.967647e-06	4.221924e-09	5.626701e+01	2.794599e+02
2.480000e-06	7.948650e-06	4.290082e-09	5.613286e+01	2.792020e+02
2.490000e-06	7.929046e-06	4.121736e-09	5.599442e+01	2.788875e+02
2.500000e-06	7.908209e-06	4.160996e-09	5.584727e+01	2.785191e+02
2.510000e-06	7.885467e-06	4.262603e-09	5.568667e+01	2.781010e+02
2.520000e-06	7.861478e-06	4.198889e-09	5.551725e+01	2.776391e+02
2.530000e-06	7.836461e-06	4.299484e-09	5.534059e+01	2.771401e+02
2.540000e-06	7.809836e-06	4.181542e-09	5.515256e+01	2.766116e+02
2.550000e-06	7.781964e-06	4.039019e-09	5.495573e+01	2.760612e+02
2.560000e-06	7.753039e-06	4.297874e-09	5.475146e+01	2.754964e+02
2.570000e-06	7.722552e-06	4.293721e-09	5.453617e+01	2.749241e+02
2.580000e-06	7.690410e-06	4.114833e-09	5.430919e+01	2.743502e+02
2.590000e-06	7.656848e-06	4.102131e-09	5.407217e+01	2.737795e+02
2.600000e-06	7.622140e-06	4.091287e-09	5.382706e+01	2.732154e+02
2.610000e-06	7.586350e-06	4.251436e-09	5.357432e+01	2.726603e+02
2.620000e-06	7.549054e-06	4.151354e-09	5.331094e+01	2.721150e+02
2.630000e-06	7.510086e-06	4.027136e-09	5.303575e+01	2.715792e+02
2.640000e-06	7.469770e-06	4.195577e-09	5.275104e+01	2.710516e+02
2.650000e-06	7.428174e-06	4.133226e-09	5.245729e+01	2.705302e+02
2.660000e-06	7.385188e-06	4.116359e-09	5.215373e+01	2.700124e+02
2.670000e-06	7.341098e-06	4.128908e-09	5.184236e+01	2.694952e+02
2.680000e-06	7.295790e-06	4.087839e-09	5.152240e+01	2.689754e+02
2.690000e-06	7.248956e-06	4.102109e-09	5.119167e+01	2.684501e+02
2.700000e-06	7.200886e-06	4.094458e-09	5.085220e+01	2.679164e+02
2.710000e-06	7.151516e-06	4.165102e-09	5.050355e+01	2.673716e+02
2.720000e-06	7.100665e-06	4.042629e-09	5.014444e+01	2.668134e+02
2.730000e-06	7.048474e-06	4.021590e-09	4.977587e+01	2.662396e+02
2.740000e-06	6.994745e-06	4.134104e-09	4.939644e+01	2.656486e+02
2.750000e-06	6.939366e-06	4.071273e-09	4.900536e+01	2.650386e+02
2.760000e-06	6.882645e-06	4.039165e-09	4.860480e+01	2.644082e+02
2.770000e-06	6.824814e-06	3.991596e-09	4.819640e+01	2.637559e+02
2.780000e-06	6.765930e-06	4.057873e-09	4.778056e+01	2.630802e+02
2.790000e-06	6.706034e-06	4.060546e-09	4.735758e+01	2.623800e+02
2.800000e-06	6.645012e-06	3.978953e-09	4.692665e+01	2.616538e+02
2.810000e-06	6.582451e-06	3.986753e-09	4.648485e+01	2.609004e+02
2.820000e-06	6.518578e-06	3.985200e-09	4.603378e+01	2.601188e+02
2.830000e-06	6.453728e-06	4.009097e-09	4.557581e+01	2.593081e+02
2.840000e-06	6.387793e-06	3.959986e-09	4.511018e+01	2.584678e+02
2.850000e-06	6.320805e-06	3.953747e-09	4.463712e+01	2.575979e+02
2.860000e-06	6.252859e-06	3.947164e-09	4.415729e+01	2.566986e+02
2.870000e-06	6.183896e-06	3.918608e-09	4.367028e+01	2.557708e+02
2.880000e-06	6.113539e-06	3.923998e-09	4.317342e+01	2.548158e+02
2.890000e-06	6.041889e-06	3.898753e-09	4.266744e+01	2.538353e+02
2.900000e-06	5.969311e-06	3.885069e-09	4.215489e+01	2.528312e+02
2.910000e-06	5.895821e-06	3.860442e-09	4.163591e+01	2.518054e+02
2.920000e-06	5.821302e-06	3.872960e-09	4.110966e+01	2.507601e+02
2.930000e-06	5.745759e-06	3.852235e-09	4.057618e+01	2.496969e+02
2.940000e-06	5.669056e-06	3.823939e-09	4.003451e+01	2.486171e+02
2.950000e-06	5.590910e-06	3.820862e-09	3.948265e+01	2.475211e+02
