# Temperatura_=_20.0
# Concentracion g/m^3_=_9000.0
# C_Vs_to_Am_M_A/Vsm_=_65563218390.804596
# pendiente_HvsI_1/m_=_3716.3
# ordenada_HvsI_A/m_=_1297.0
# frecuencia_Hz_=_212986.0596898338

Tiempo_(s)	Campo_(V.s)	Magnetizacion_(V.s)	Campo_(kA/m)	Magnetizacion_(A/m)
0.000000e+00	-8.091412e-06	-5.067563e-09	-5.691943e+01	-3.323171e+02
1.000000e-08	-8.090462e-06	-5.065480e-09	-5.691274e+01	-3.323351e+02
2.000000e-08	-8.087835e-06	-5.067840e-09	-5.689426e+01	-3.323446e+02
3.000000e-08	-8.083862e-06	-5.066435e-09	-5.686632e+01	-3.323405e+02
4.000000e-08	-8.078715e-06	-5.065961e-09	-5.683011e+01	-3.323173e+02
5.000000e-08	-8.072227e-06	-5.063548e-09	-5.678447e+01	-3.322705e+02
6.000000e-08	-8.064563e-06	-5.060057e-09	-5.673056e+01	-3.321965e+02
7.000000e-08	-8.055590e-06	-5.056802e-09	-5.666744e+01	-3.320931e+02
8.000000e-08	-8.044872e-06	-5.032382e-09	-5.659204e+01	-3.319600e+02
9.000000e-08	-8.032423e-06	-5.066588e-09	-5.650447e+01	-3.317989e+02
1.000000e-07	-8.018129e-06	-5.158603e-09	-5.640392e+01	-3.316131e+02
1.100000e-07	-8.001838e-06	-5.142656e-09	-5.628932e+01	-3.314076e+02
1.200000e-07	-7.983971e-06	-5.082942e-09	-5.616363e+01	-3.311887e+02
1.300000e-07	-7.964970e-06	-4.992064e-09	-5.602997e+01	-3.309636e+02
1.400000e-07	-7.945081e-06	-4.869094e-09	-5.589005e+01	-3.307394e+02
1.500000e-07	-7.924255e-06	-5.102748e-09	-5.574355e+01	-3.305228e+02
1.600000e-07	-7.902131e-06	-5.187859e-09	-5.558792e+01	-3.303198e+02
1.700000e-07	-7.878829e-06	-4.934489e-09	-5.542401e+01	-3.301342e+02
1.800000e-07	-7.854104e-06	-5.013010e-09	-5.525007e+01	-3.299682e+02
1.900000e-07	-7.827590e-06	-5.017545e-09	-5.506356e+01	-3.298215e+02
2.000000e-07	-7.799946e-06	-5.025082e-09	-5.486910e+01	-3.296911e+02
2.100000e-07	-7.771195e-06	-5.214889e-09	-5.466684e+01	-3.295718e+02
2.200000e-07	-7.740959e-06	-4.960608e-09	-5.445415e+01	-3.294562e+02
2.300000e-07	-7.709566e-06	-4.865777e-09	-5.423332e+01	-3.293351e+02
2.400000e-07	-7.676933e-06	-5.117787e-09	-5.400376e+01	-3.291981e+02
2.500000e-07	-7.642677e-06	-5.108592e-09	-5.376278e+01	-3.290344e+02
2.600000e-07	-7.606928e-06	-5.024469e-09	-5.351130e+01	-3.288332e+02
2.700000e-07	-7.569812e-06	-4.902113e-09	-5.325021e+01	-3.285849e+02
2.800000e-07	-7.531303e-06	-4.946260e-09	-5.297931e+01	-3.282814e+02
2.900000e-07	-7.491540e-06	-5.087487e-09	-5.269960e+01	-3.279165e+02
3.000000e-07	-7.450402e-06	-5.020882e-09	-5.241021e+01	-3.274870e+02
3.100000e-07	-7.407739e-06	-4.902676e-09	-5.211010e+01	-3.269920e+02
3.200000e-07	-7.363630e-06	-4.898401e-09	-5.179981e+01	-3.264335e+02
3.300000e-07	-7.318075e-06	-4.996534e-09	-5.147936e+01	-3.258161e+02
3.400000e-07	-7.271215e-06	-4.975873e-09	-5.114971e+01	-3.251465e+02
3.500000e-07	-7.223069e-06	-4.913896e-09	-5.081103e+01	-3.244330e+02
3.600000e-07	-7.173176e-06	-4.895050e-09	-5.046006e+01	-3.236847e+02
3.700000e-07	-7.121484e-06	-4.867170e-09	-5.009642e+01	-3.229111e+02
3.800000e-07	-7.068481e-06	-4.950460e-09	-4.972357e+01	-3.221211e+02
3.900000e-07	-7.014308e-06	-4.942214e-09	-4.934249e+01	-3.213225e+02
4.000000e-07	-6.958903e-06	-4.814123e-09	-4.895274e+01	-3.205213e+02
4.100000e-07	-6.902195e-06	-4.822739e-09	-4.855382e+01	-3.197210e+02
4.200000e-07	-6.844119e-06	-4.901938e-09	-4.814529e+01	-3.189232e+02
4.300000e-07	-6.784799e-06	-4.892181e-09	-4.772800e+01	-3.181266e+02
4.400000e-07	-6.724300e-06	-4.778793e-09	-4.730242e+01	-3.173277e+02
4.500000e-07	-6.662655e-06	-4.768923e-09	-4.686877e+01	-3.165210e+02
4.600000e-07	-6.599989e-06	-4.827175e-09	-4.642794e+01	-3.156996e+02
4.700000e-07	-6.536312e-06	-4.816388e-09	-4.598000e+01	-3.148557e+02
4.800000e-07	-6.471447e-06	-4.760669e-09	-4.552371e+01	-3.139812e+02
4.900000e-07	-6.405235e-06	-4.716441e-09	-4.505794e+01	-3.130686e+02
5.000000e-07	-6.337804e-06	-4.742465e-09	-4.458359e+01	-3.121116e+02
5.100000e-07	-6.269386e-06	-4.755587e-09	-4.410230e+01	-3.111056e+02
5.200000e-07	-6.200026e-06	-4.718569e-09	-4.361438e+01	-3.100477e+02
5.300000e-07	-6.129629e-06	-4.663828e-09	-4.311917e+01	-3.089378e+02
5.400000e-07	-6.058083e-06	-4.654079e-09	-4.261588e+01	-3.077775e+02
5.500000e-07	-5.985561e-06	-4.676954e-09	-4.210572e+01	-3.065709e+02
5.600000e-07	-5.912021e-06	-4.660176e-09	-4.158840e+01	-3.053235e+02
5.700000e-07	-5.837109e-06	-4.607453e-09	-4.106143e+01	-3.040419e+02
5.800000e-07	-5.760871e-06	-4.565108e-09	-4.052513e+01	-3.027335e+02
5.900000e-07	-5.683515e-06	-4.577675e-09	-3.998096e+01	-3.014053e+02
6.000000e-07	-5.605133e-06	-4.586248e-09	-3.942958e+01	-3.000634e+02
6.100000e-07	-5.525613e-06	-4.536557e-09	-3.887019e+01	-2.987125e+02
6.200000e-07	-5.444843e-06	-4.482682e-09	-3.830201e+01	-2.973553e+02
6.300000e-07	-5.363056e-06	-4.485089e-09	-3.772667e+01	-2.959922e+02
6.400000e-07	-5.280552e-06	-4.497413e-09	-3.714630e+01	-2.946210e+02
6.500000e-07	-5.197224e-06	-4.458369e-09	-3.656013e+01	-2.932373e+02
6.600000e-07	-5.112978e-06	-4.408017e-09	-3.596749e+01	-2.918345e+02
6.700000e-07	-5.027947e-06	-4.391946e-09	-3.536934e+01	-2.904041e+02
6.800000e-07	-4.942089e-06	-4.393218e-09	-3.476536e+01	-2.889367e+02
6.900000e-07	-4.855499e-06	-4.372154e-09	-3.415624e+01	-2.874225e+02
7.000000e-07	-4.768038e-06	-4.329756e-09	-3.354099e+01	-2.858519e+02
7.100000e-07	-4.679461e-06	-4.295971e-09	-3.291790e+01	-2.842165e+02
7.200000e-07	-4.590002e-06	-4.282305e-09	-3.228859e+01	-2.825092e+02
7.300000e-07	-4.499802e-06	-4.269559e-09	-3.165407e+01	-2.807254e+02
7.400000e-07	-4.408693e-06	-4.235277e-09	-3.101316e+01	-2.788626e+02
7.500000e-07	-4.316710e-06	-4.192518e-09	-3.036611e+01	-2.769210e+02
7.600000e-07	-4.223964e-06	-4.168458e-09	-2.971368e+01	-2.749031e+02
7.700000e-07	-4.130530e-06	-4.153979e-09	-2.905641e+01	-2.728132e+02
7.800000e-07	-4.036540e-06	-4.120636e-09	-2.839524e+01	-2.706573e+02
7.900000e-07	-3.941934e-06	-4.072644e-09	-2.772972e+01	-2.684420e+02
8.000000e-07	-3.846519e-06	-4.037651e-09	-2.705853e+01	-2.661737e+02
8.100000e-07	-3.750230e-06	-4.019965e-09	-2.638118e+01	-2.638584e+02
8.200000e-07	-3.653359e-06	-3.990905e-09	-2.569973e+01	-2.614999e+02
8.300000e-07	-3.556025e-06	-3.942319e-09	-2.501503e+01	-2.591003e+02
8.400000e-07	-3.457986e-06	-3.899872e-09	-2.432537e+01	-2.566587e+02
8.500000e-07	-3.359113e-06	-3.873030e-09	-2.362984e+01	-2.541711e+02
8.600000e-07	-3.259604e-06	-3.841193e-09	-2.292984e+01	-2.516308e+02
8.700000e-07	-3.159632e-06	-3.789983e-09	-2.222659e+01	-2.490283e+02
8.800000e-07	-3.059207e-06	-3.736109e-09	-2.152014e+01	-2.463517e+02
8.900000e-07	-2.958306e-06	-3.694461e-09	-2.081035e+01	-2.435876e+02
9.000000e-07	-2.856931e-06	-3.658472e-09	-2.009722e+01	-2.407216e+02
9.100000e-07	-2.755247e-06	-3.612909e-09	-1.938192e+01	-2.377397e+02
9.200000e-07	-2.653205e-06	-3.557061e-09	-1.866410e+01	-2.346286e+02
9.300000e-07	-2.550606e-06	-3.505877e-09	-1.794236e+01	-2.313765e+02
9.400000e-07	-2.447533e-06	-3.461616e-09	-1.721729e+01	-2.279741e+02
9.500000e-07	-2.343945e-06	-3.410908e-09	-1.648860e+01	-2.244144e+02
9.600000e-07	-2.239777e-06	-3.347122e-09	-1.575582e+01	-2.206927e+02
9.700000e-07	-2.135215e-06	-3.281414e-09	-1.502027e+01	-2.168069e+02
9.800000e-07	-2.030374e-06	-3.225353e-09	-1.428276e+01	-2.127560e+02
9.900000e-07	-1.925288e-06	-3.169249e-09	-1.354353e+01	-2.085396e+02
1.000000e-06	-1.819957e-06	-3.099520e-09	-1.280257e+01	-2.041565e+02
1.010000e-06	-1.714269e-06	-3.023667e-09	-1.205911e+01	-1.996035e+02
1.020000e-06	-1.608116e-06	-2.952447e-09	-1.131237e+01	-1.948737e+02
1.030000e-06	-1.501511e-06	-2.882941e-09	-1.056245e+01	-1.899554e+02
1.040000e-06	-1.394512e-06	-2.802849e-09	-9.809760e+00	-1.848309e+02
1.050000e-06	-1.287220e-06	-2.713861e-09	-9.055009e+00	-1.794753e+02
1.060000e-06	-1.179672e-06	-2.625432e-09	-8.298459e+00	-1.738563e+02
1.070000e-06	-1.071887e-06	-2.537872e-09	-7.540242e+00	-1.679346e+02
1.080000e-06	-9.638661e-07	-2.443206e-09	-6.780363e+00	-1.616637e+02
1.090000e-06	-8.555931e-07	-2.335760e-09	-6.018711e+00	-1.549920e+02
1.100000e-06	-7.472326e-07	-2.222607e-09	-5.256444e+00	-1.478641e+02
1.110000e-06	-6.387769e-07	-2.109445e-09	-4.493507e+00	-1.402234e+02
1.120000e-06	-5.301097e-07	-1.989728e-09	-3.729082e+00	-1.320144e+02
1.130000e-06	-4.213860e-07	-1.855020e-09	-2.964260e+00	-1.231864e+02
1.140000e-06	-3.126231e-07	-1.704046e-09	-2.199163e+00	-1.136961e+02
1.150000e-06	-2.037325e-07	-1.545193e-09	-1.433166e+00	-1.035110e+02
1.160000e-06	-9.482099e-08	-1.380738e-09	-6.670228e-01	-9.261244e+01
1.170000e-06	1.405388e-08	-1.203824e-09	9.886269e-02	-8.099758e+01
1.180000e-06	1.229251e-07	-1.014820e-09	8.647224e-01	-6.868179e+01
1.190000e-06	2.317598e-07	-8.189493e-10	1.630325e+00	-5.569964e+01
1.200000e-06	3.404887e-07	-6.197353e-10	2.395184e+00	-4.210525e+01
1.210000e-06	4.490779e-07	-4.105085e-10	3.159060e+00	-2.797181e+01
1.220000e-06	5.575444e-07	-1.886723e-10	3.922073e+00	-1.339014e+01
1.230000e-06	6.658844e-07	3.855035e-11	4.684196e+00	1.533575e+00
1.240000e-06	7.740990e-07	2.682098e-10	5.445437e+00	1.668080e+01
1.250000e-06	8.821520e-07	5.003745e-10	6.205541e+00	3.192432e+01
1.260000e-06	9.899476e-07	7.396825e-10	6.963834e+00	4.713234e+01
1.270000e-06	1.097525e-06	9.777725e-10	7.720595e+00	6.217285e+01
1.280000e-06	1.204988e-06	1.208347e-09	8.476544e+00	7.691802e+01
1.290000e-06	1.312207e-06	1.426545e-09	9.230785e+00	9.124844e+01
1.300000e-06	1.419105e-06	1.635914e-09	9.982760e+00	1.050569e+02
1.310000e-06	1.525633e-06	1.836976e-09	1.073214e+01	1.182517e+02
1.320000e-06	1.631804e-06	2.024091e-09	1.147900e+01	1.307591e+02
1.330000e-06	1.737637e-06	2.197892e-09	1.222349e+01	1.425251e+02
1.340000e-06	1.843078e-06	2.358971e-09	1.296522e+01	1.535159e+02
1.350000e-06	1.948235e-06	2.512877e-09	1.370495e+01	1.637183e+02
1.360000e-06	2.053134e-06	2.653851e-09	1.444287e+01	1.731381e+02
1.370000e-06	2.157781e-06	2.780332e-09	1.517901e+01	1.817985e+02
1.380000e-06	2.262165e-06	2.894977e-09	1.591331e+01	1.897377e+02
1.390000e-06	2.366154e-06	3.001961e-09	1.664482e+01	1.970059e+02
1.400000e-06	2.469673e-06	3.100895e-09	1.737304e+01	2.036619e+02
1.410000e-06	2.572731e-06	3.192239e-09	1.809800e+01	2.097696e+02
1.420000e-06	2.675283e-06	3.276914e-09	1.881941e+01	2.153948e+02
1.430000e-06	2.777334e-06	3.355478e-09	1.953729e+01	2.206022e+02
1.440000e-06	2.878984e-06	3.431499e-09	2.025235e+01	2.254526e+02
1.450000e-06	2.980289e-06	3.505490e-09	2.096499e+01	2.300004e+02
1.460000e-06	3.081131e-06	3.575437e-09	2.167436e+01	2.342927e+02
1.470000e-06	3.181442e-06	3.641052e-09	2.238001e+01	2.383678e+02
1.480000e-06	3.281181e-06	3.704764e-09	2.308163e+01	2.422552e+02
1.490000e-06	3.380230e-06	3.764329e-09	2.377839e+01	2.459760e+02
1.500000e-06	3.478574e-06	3.817068e-09	2.447020e+01	2.495433e+02
1.510000e-06	3.576283e-06	3.864742e-09	2.515754e+01	2.529641e+02
1.520000e-06	3.673382e-06	3.909958e-09	2.584058e+01	2.562402e+02
1.530000e-06	3.769860e-06	3.953535e-09	2.651926e+01	2.593703e+02
1.540000e-06	3.865578e-06	3.994181e-09	2.719260e+01	2.623516e+02
1.550000e-06	3.960432e-06	4.032373e-09	2.785985e+01	2.651811e+02
1.560000e-06	4.054510e-06	4.068821e-09	2.852164e+01	2.678573e+02
1.570000e-06	4.147997e-06	4.104949e-09	2.917928e+01	2.703811e+02
1.580000e-06	4.240873e-06	4.141031e-09	2.983263e+01	2.727564e+02
1.590000e-06	4.333023e-06	4.174600e-09	3.048086e+01	2.749904e+02
1.600000e-06	4.424353e-06	4.206365e-09	3.112333e+01	2.770938e+02
1.610000e-06	4.514732e-06	4.235284e-09	3.175910e+01	2.790796e+02
1.620000e-06	4.604229e-06	4.263319e-09	3.238867e+01	2.809634e+02
1.630000e-06	4.692932e-06	4.292458e-09	3.301266e+01	2.827617e+02
1.640000e-06	4.780678e-06	4.318914e-09	3.362991e+01	2.844912e+02
1.650000e-06	4.867461e-06	4.343376e-09	3.424039e+01	2.861677e+02
1.660000e-06	4.953517e-06	4.368584e-09	3.484576e+01	2.878053e+02
1.670000e-06	5.038839e-06	4.394816e-09	3.544595e+01	2.894154e+02
1.680000e-06	5.123364e-06	4.418149e-09	3.604055e+01	2.910062e+02
1.690000e-06	5.207122e-06	4.439121e-09	3.662975e+01	2.925824e+02
1.700000e-06	5.290006e-06	4.459510e-09	3.721280e+01	2.941454e+02
1.710000e-06	5.371962e-06	4.480915e-09	3.778933e+01	2.956929e+02
1.720000e-06	5.453064e-06	4.502094e-09	3.835984e+01	2.972202e+02
1.730000e-06	5.533180e-06	4.520996e-09	3.892342e+01	2.987204e+02
1.740000e-06	5.612168e-06	4.540023e-09	3.947906e+01	3.001851e+02
1.750000e-06	5.690132e-06	4.558267e-09	4.002751e+01	3.016059e+02
1.760000e-06	5.767163e-06	4.577382e-09	4.056939e+01	3.029745e+02
1.770000e-06	5.843148e-06	4.596345e-09	4.110390e+01	3.042842e+02
1.780000e-06	5.918016e-06	4.613555e-09	4.163057e+01	3.055300e+02
1.790000e-06	5.991708e-06	4.630536e-09	4.214896e+01	3.067093e+02
1.800000e-06	6.064234e-06	4.647955e-09	4.265915e+01	3.078223e+02
1.810000e-06	6.135615e-06	4.664552e-09	4.316128e+01	3.088716e+02
1.820000e-06	6.205913e-06	4.679000e-09	4.365579e+01	3.098623e+02
1.830000e-06	6.275200e-06	4.694618e-09	4.414320e+01	3.108015e+02
1.840000e-06	6.343493e-06	4.710777e-09	4.462361e+01	3.116976e+02
1.850000e-06	6.410764e-06	4.724677e-09	4.509683e+01	3.125599e+02
1.860000e-06	6.476830e-06	4.735965e-09	4.556157e+01	3.133975e+02
1.870000e-06	6.541596e-06	4.748020e-09	4.601717e+01	3.142188e+02
1.880000e-06	6.605142e-06	4.763133e-09	4.646419e+01	3.150311e+02
1.890000e-06	6.667618e-06	4.776733e-09	4.690368e+01	3.158397e+02
1.900000e-06	6.728996e-06	4.789820e-09	4.733545e+01	3.166476e+02
1.910000e-06	6.789307e-06	4.801490e-09	4.775971e+01	3.174558e+02
1.920000e-06	6.848542e-06	4.813136e-09	4.817640e+01	3.182628e+02
1.930000e-06	6.906402e-06	4.825139e-09	4.858342e+01	3.190653e+02
1.940000e-06	6.962743e-06	4.834254e-09	4.897975e+01	3.198584e+02
1.950000e-06	7.017767e-06	4.843119e-09	4.936682e+01	3.206359e+02
1.960000e-06	7.071618e-06	4.852896e-09	4.974564e+01	3.213915e+02
1.970000e-06	7.124217e-06	4.866841e-09	5.011565e+01	3.221189e+02
1.980000e-06	7.175384e-06	4.880857e-09	5.047559e+01	3.228125e+02
1.990000e-06	7.224917e-06	4.891552e-09	5.082403e+01	3.234680e+02
2.000000e-06	7.272841e-06	4.901483e-09	5.116115e+01	3.240829e+02
2.010000e-06	7.319399e-06	4.910720e-09	5.148867e+01	3.246564e+02
2.020000e-06	7.364784e-06	4.920557e-09	5.180793e+01	3.251896e+02
2.030000e-06	7.409030e-06	4.928136e-09	5.211918e+01	3.256856e+02
2.040000e-06	7.452102e-06	4.933784e-09	5.242217e+01	3.261490e+02
2.050000e-06	7.493779e-06	4.940791e-09	5.271535e+01	3.265853e+02
2.060000e-06	7.533991e-06	4.950659e-09	5.299823e+01	3.270010e+02
2.070000e-06	7.572911e-06	4.961576e-09	5.327201e+01	3.274023e+02
2.080000e-06	7.610583e-06	4.971379e-09	5.353701e+01	3.277951e+02
2.090000e-06	7.647031e-06	4.979532e-09	5.379341e+01	3.281844e+02
2.100000e-06	7.682303e-06	4.985098e-09	5.404153e+01	3.285736e+02
2.110000e-06	7.716172e-06	4.989173e-09	5.427978e+01	3.289644e+02
2.120000e-06	7.748461e-06	4.994201e-09	5.450693e+01	3.293569e+02
2.130000e-06	7.779488e-06	4.999811e-09	5.472519e+01	3.297493e+02
2.140000e-06	7.809309e-06	5.006659e-09	5.493496e+01	3.301379e+02
2.150000e-06	7.837856e-06	5.016350e-09	5.513578e+01	3.305181e+02
2.160000e-06	7.865200e-06	5.025974e-09	5.532813e+01	3.308842e+02
2.170000e-06	7.891000e-06	5.034724e-09	5.550962e+01	3.312302e+02
2.180000e-06	7.915174e-06	5.039198e-09	5.567967e+01	3.315503e+02
2.190000e-06	7.937945e-06	5.043342e-09	5.583986e+01	3.318393e+02
2.200000e-06	7.959380e-06	5.046436e-09	5.599064e+01	3.320933e+02
2.210000e-06	7.979587e-06	5.048094e-09	5.613279e+01	3.323097e+02
2.220000e-06	7.998619e-06	5.051902e-09	5.626667e+01	3.324878e+02
2.230000e-06	8.016195e-06	5.055492e-09	5.639031e+01	3.326287e+02
2.240000e-06	8.032229e-06	5.062048e-09	5.650310e+01	3.327351e+02
2.250000e-06	8.046776e-06	5.068126e-09	5.660543e+01	3.328111e+02
2.260000e-06	8.059786e-06	5.073270e-09	5.669696e+01	3.328623e+02
2.270000e-06	8.071349e-06	5.076369e-09	5.677830e+01	3.328945e+02
2.280000e-06	8.081132e-06	5.077181e-09	5.684711e+01	3.329138e+02
2.290000e-06	8.089186e-06	5.078380e-09	5.690377e+01	3.329261e+02
2.300000e-06	8.095885e-06	5.078075e-09	5.695089e+01	3.329363e+02
2.310000e-06	8.101171e-06	5.078095e-09	5.698808e+01	3.329479e+02
2.320000e-06	8.105147e-06	5.078752e-09	5.701605e+01	3.329630e+02
2.330000e-06	8.107788e-06	5.080407e-09	5.703463e+01	3.329820e+02
2.340000e-06	8.108765e-06	5.082932e-09	5.704150e+01	3.330035e+02
2.350000e-06	8.108247e-06	5.086822e-09	5.703786e+01	3.330245e+02
2.360000e-06	8.106475e-06	5.084349e-09	5.702539e+01	3.330409e+02
2.370000e-06	8.103371e-06	5.078167e-09	5.700356e+01	3.330476e+02
2.380000e-06	8.099125e-06	5.076869e-09	5.697368e+01	3.330392e+02
2.390000e-06	8.093601e-06	5.076418e-09	5.693482e+01	3.330106e+02
2.400000e-06	8.086438e-06	5.077812e-09	5.688444e+01	3.329573e+02
2.410000e-06	8.077936e-06	5.083813e-09	5.682463e+01	3.328761e+02
2.420000e-06	8.068271e-06	5.111582e-09	5.675664e+01	3.327653e+02
2.430000e-06	8.057370e-06	5.085909e-09	5.667996e+01	3.326251e+02
2.440000e-06	8.044923e-06	4.955420e-09	5.659240e+01	3.324574e+02
2.450000e-06	8.030206e-06	4.964408e-09	5.648887e+01	3.322662e+02
2.460000e-06	8.013268e-06	5.000211e-09	5.636972e+01	3.320568e+02
2.470000e-06	7.994870e-06	5.136677e-09	5.624030e+01	3.318357e+02
2.480000e-06	7.975658e-06	5.276326e-09	5.610515e+01	3.316102e+02
2.490000e-06	7.955832e-06	4.931013e-09	5.596568e+01	3.313873e+02
2.500000e-06	7.934574e-06	4.964752e-09	5.581615e+01	3.311737e+02
2.510000e-06	7.911398e-06	5.153985e-09	5.565311e+01	3.309748e+02
2.520000e-06	7.887158e-06	4.980073e-09	5.548259e+01	3.307940e+02
2.530000e-06	7.861814e-06	5.173135e-09	5.530431e+01	3.306330e+02
2.540000e-06	7.834840e-06	5.037491e-09	5.511456e+01	3.304908e+02
2.550000e-06	7.806739e-06	4.774744e-09	5.491688e+01	3.303638e+02
2.560000e-06	7.777460e-06	5.182662e-09	5.471092e+01	3.302463e+02
2.570000e-06	7.746538e-06	5.117069e-09	5.449340e+01	3.301303e+02
2.580000e-06	7.714094e-06	4.855931e-09	5.426516e+01	3.300063e+02
2.590000e-06	7.680222e-06	5.019000e-09	5.402689e+01	3.298636e+02
2.600000e-06	7.645194e-06	5.026489e-09	5.378049e+01	3.296916e+02
2.610000e-06	7.609100e-06	5.177461e-09	5.352658e+01	3.294795e+02
2.620000e-06	7.571418e-06	5.032586e-09	5.326150e+01	3.292181e+02
2.630000e-06	7.532081e-06	4.875370e-09	5.298479e+01	3.288998e+02
2.640000e-06	7.491410e-06	5.113564e-09	5.269869e+01	3.285190e+02
2.650000e-06	7.449482e-06	5.023237e-09	5.240374e+01	3.280731e+02
2.660000e-06	7.406267e-06	5.038073e-09	5.209974e+01	3.275620e+02
2.670000e-06	7.361917e-06	4.991423e-09	5.178776e+01	3.269883e+02
2.680000e-06	7.316312e-06	4.924801e-09	5.146695e+01	3.263573e+02
2.690000e-06	7.269090e-06	5.024709e-09	5.113477e+01	3.256759e+02
2.700000e-06	7.220587e-06	4.973501e-09	5.079357e+01	3.249528e+02
2.710000e-06	7.170850e-06	5.027928e-09	5.044369e+01	3.241973e+02
2.720000e-06	7.119584e-06	4.857618e-09	5.008306e+01	3.234189e+02
2.730000e-06	7.066807e-06	4.891411e-09	4.971180e+01	3.226262e+02
2.740000e-06	7.012465e-06	5.062077e-09	4.932953e+01	3.218265e+02
2.750000e-06	6.956727e-06	4.905602e-09	4.893743e+01	3.210252e+02
2.760000e-06	6.899689e-06	4.855195e-09	4.853619e+01	3.202257e+02
2.770000e-06	6.841470e-06	4.837872e-09	4.812665e+01	3.194284e+02
2.780000e-06	6.782263e-06	4.957453e-09	4.771016e+01	3.186316e+02
2.790000e-06	6.721901e-06	4.904359e-09	4.728554e+01	3.178314e+02
2.800000e-06	6.660264e-06	4.782462e-09	4.685195e+01	3.170218e+02
2.810000e-06	6.597315e-06	4.840160e-09	4.640913e+01	3.161956e+02
2.820000e-06	6.533148e-06	4.846523e-09	4.595775e+01	3.153448e+02
2.830000e-06	6.467854e-06	4.863764e-09	4.549843e+01	3.144615e+02
2.840000e-06	6.401500e-06	4.778899e-09	4.503166e+01	3.135384e+02
2.850000e-06	6.334138e-06	4.776548e-09	4.455780e+01	3.125696e+02
2.860000e-06	6.265649e-06	4.778782e-09	4.407601e+01	3.115508e+02
2.870000e-06	6.196008e-06	4.763591e-09	4.358612e+01	3.104799e+02
2.880000e-06	6.125195e-06	4.758247e-09	4.308798e+01	3.093571e+02
2.890000e-06	6.053162e-06	4.698621e-09	4.258126e+01	3.081849e+02
2.900000e-06	5.980056e-06	4.692119e-09	4.206699e+01	3.069675e+02
2.910000e-06	5.906070e-06	4.691699e-09	4.154654e+01	3.057110e+02
2.920000e-06	5.831067e-06	4.708074e-09	4.101892e+01	3.044221e+02
2.930000e-06	5.754866e-06	4.639028e-09	4.048288e+01	3.031082e+02
2.940000e-06	5.677497e-06	4.602212e-09	3.993863e+01	3.017760e+02
2.950000e-06	5.598981e-06	4.628143e-09	3.938630e+01	3.004316e+02
