# Temperatura_=_20.0
# Concentracion g/m^3_=_9000.0
# C_Vs_to_Am_M_A/Vsm_=_65563218390.804596
# pendiente_HvsI_1/m_=_3716.3
# ordenada_HvsI_A/m_=_1297.0
# frecuencia_Hz_=_212986.94602629426

Tiempo_(s)	Campo_(V.s)	Magnetizacion_(V.s)	Campo_(kA/m)	Magnetizacion_(A/m)
0.000000e+00	-8.005389e-06	-5.119330e-09	-5.691739e+01	-3.342540e+02
1.000000e-08	-8.004710e-06	-5.118482e-09	-5.691256e+01	-3.342802e+02
2.000000e-08	-8.002400e-06	-5.117844e-09	-5.689613e+01	-3.342933e+02
3.000000e-08	-7.998611e-06	-5.116982e-09	-5.686920e+01	-3.342877e+02
4.000000e-08	-7.993680e-06	-5.117232e-09	-5.683413e+01	-3.342582e+02
5.000000e-08	-7.987501e-06	-5.117807e-09	-5.679020e+01	-3.342001e+02
6.000000e-08	-7.980129e-06	-5.116669e-09	-5.673779e+01	-3.341102e+02
7.000000e-08	-7.971443e-06	-5.113052e-09	-5.667604e+01	-3.339869e+02
8.000000e-08	-7.961083e-06	-5.098286e-09	-5.660238e+01	-3.338305e+02
9.000000e-08	-7.949063e-06	-5.120464e-09	-5.651691e+01	-3.336436e+02
1.000000e-07	-7.935288e-06	-5.157568e-09	-5.641898e+01	-3.334303e+02
1.100000e-07	-7.919484e-06	-5.152717e-09	-5.630662e+01	-3.331968e+02
1.200000e-07	-7.902006e-06	-5.134078e-09	-5.618235e+01	-3.329505e+02
1.300000e-07	-7.883361e-06	-5.066293e-09	-5.604978e+01	-3.326998e+02
1.400000e-07	-7.863762e-06	-5.007157e-09	-5.591044e+01	-3.324529e+02
1.500000e-07	-7.843223e-06	-5.145773e-09	-5.576440e+01	-3.322178e+02
1.600000e-07	-7.821480e-06	-5.130645e-09	-5.560982e+01	-3.320011e+02
1.700000e-07	-7.798537e-06	-5.027731e-09	-5.544669e+01	-3.318079e+02
1.800000e-07	-7.774267e-06	-5.065303e-09	-5.527413e+01	-3.316409e+02
1.900000e-07	-7.748278e-06	-5.008571e-09	-5.508936e+01	-3.315001e+02
2.000000e-07	-7.720889e-06	-5.065968e-09	-5.489463e+01	-3.313828e+02
2.100000e-07	-7.692506e-06	-5.150811e-09	-5.469283e+01	-3.312837e+02
2.200000e-07	-7.662848e-06	-5.003376e-09	-5.448196e+01	-3.311948e+02
2.300000e-07	-7.631832e-06	-4.978250e-09	-5.426144e+01	-3.311061e+02
2.400000e-07	-7.599605e-06	-5.082671e-09	-5.403231e+01	-3.310063e+02
2.500000e-07	-7.565978e-06	-5.073331e-09	-5.379323e+01	-3.308831e+02
2.600000e-07	-7.530865e-06	-5.048779e-09	-5.354357e+01	-3.307242e+02
2.700000e-07	-7.494276e-06	-4.972013e-09	-5.328343e+01	-3.305183e+02
2.800000e-07	-7.456251e-06	-4.993941e-09	-5.301308e+01	-3.302552e+02
2.900000e-07	-7.417025e-06	-5.051265e-09	-5.273418e+01	-3.299273e+02
3.000000e-07	-7.376594e-06	-5.013016e-09	-5.244673e+01	-3.295290e+02
3.100000e-07	-7.334613e-06	-4.965350e-09	-5.214825e+01	-3.290582e+02
3.200000e-07	-7.291106e-06	-4.957709e-09	-5.183892e+01	-3.285153e+02
3.300000e-07	-7.246263e-06	-4.987063e-09	-5.152009e+01	-3.279037e+02
3.400000e-07	-7.200112e-06	-4.972044e-09	-5.119196e+01	-3.272295e+02
3.500000e-07	-7.152680e-06	-4.961864e-09	-5.085473e+01	-3.265005e+02
3.600000e-07	-7.103705e-06	-4.927950e-09	-5.050652e+01	-3.257262e+02
3.700000e-07	-7.052964e-06	-4.895621e-09	-5.014575e+01	-3.249165e+02
3.800000e-07	-7.000681e-06	-4.947186e-09	-4.977403e+01	-3.240813e+02
3.900000e-07	-6.947078e-06	-4.935083e-09	-4.939292e+01	-3.232300e+02
4.000000e-07	-6.892202e-06	-4.864520e-09	-4.900275e+01	-3.223700e+02
4.100000e-07	-6.836250e-06	-4.861280e-09	-4.860495e+01	-3.215072e+02
4.200000e-07	-6.779178e-06	-4.893238e-09	-4.819917e+01	-3.206450e+02
4.300000e-07	-6.720682e-06	-4.880560e-09	-4.778327e+01	-3.197844e+02
4.400000e-07	-6.660909e-06	-4.824777e-09	-4.735829e+01	-3.189240e+02
4.500000e-07	-6.600058e-06	-4.813884e-09	-4.692565e+01	-3.180602e+02
4.600000e-07	-6.538120e-06	-4.822890e-09	-4.648528e+01	-3.171877e+02
4.700000e-07	-6.475158e-06	-4.808421e-09	-4.603762e+01	-3.162999e+02
4.800000e-07	-6.411176e-06	-4.779985e-09	-4.558272e+01	-3.153896e+02
4.900000e-07	-6.346021e-06	-4.753282e-09	-4.511947e+01	-3.144496e+02
5.000000e-07	-6.279453e-06	-4.748178e-09	-4.464618e+01	-3.134736e+02
5.100000e-07	-6.211738e-06	-4.741675e-09	-4.416474e+01	-3.124562e+02
5.200000e-07	-6.143209e-06	-4.723093e-09	-4.367750e+01	-3.113937e+02
5.300000e-07	-6.073722e-06	-4.693763e-09	-4.318346e+01	-3.102845e+02
5.400000e-07	-6.003096e-06	-4.672459e-09	-4.268132e+01	-3.091288e+02
5.500000e-07	-5.931442e-06	-4.664982e-09	-4.217186e+01	-3.079287e+02
5.600000e-07	-5.858904e-06	-4.654169e-09	-4.165612e+01	-3.066881e+02
5.700000e-07	-5.785156e-06	-4.625616e-09	-4.113179e+01	-3.054119e+02
5.800000e-07	-5.709972e-06	-4.592117e-09	-4.059724e+01	-3.041058e+02
5.900000e-07	-5.633619e-06	-4.582747e-09	-4.005437e+01	-3.027755e+02
6.000000e-07	-5.556330e-06	-4.577842e-09	-3.950486e+01	-3.014261e+02
6.100000e-07	-5.478023e-06	-4.548505e-09	-3.894811e+01	-3.000618e+02
6.200000e-07	-5.398452e-06	-4.512987e-09	-3.838237e+01	-2.986851e+02
6.300000e-07	-5.317678e-06	-4.498637e-09	-3.780808e+01	-2.972965e+02
6.400000e-07	-5.236061e-06	-4.485997e-09	-3.722779e+01	-2.958945e+02
6.500000e-07	-5.153570e-06	-4.460454e-09	-3.664129e+01	-2.944754e+02
6.600000e-07	-5.070158e-06	-4.429990e-09	-3.604824e+01	-2.930336e+02
6.700000e-07	-4.986033e-06	-4.406946e-09	-3.545011e+01	-2.915621e+02
6.800000e-07	-4.901160e-06	-4.388506e-09	-3.484668e+01	-2.900527e+02
6.900000e-07	-4.815474e-06	-4.364981e-09	-3.423746e+01	-2.884966e+02
7.000000e-07	-4.728895e-06	-4.339284e-09	-3.362189e+01	-2.868856e+02
7.100000e-07	-4.641387e-06	-4.309043e-09	-3.299972e+01	-2.852120e+02
7.200000e-07	-4.553193e-06	-4.281097e-09	-3.237268e+01	-2.834696e+02
7.300000e-07	-4.464334e-06	-4.256204e-09	-3.174090e+01	-2.816538e+02
7.400000e-07	-4.374515e-06	-4.226698e-09	-3.110229e+01	-2.797625e+02
7.500000e-07	-4.283633e-06	-4.193739e-09	-3.045613e+01	-2.777956e+02
7.600000e-07	-4.191836e-06	-4.164791e-09	-2.980347e+01	-2.757550e+02
7.700000e-07	-4.099411e-06	-4.140367e-09	-2.914633e+01	-2.736447e+02
7.800000e-07	-4.006458e-06	-4.109159e-09	-2.848545e+01	-2.714697e+02
7.900000e-07	-3.912804e-06	-4.072975e-09	-2.781958e+01	-2.692360e+02
8.000000e-07	-3.818346e-06	-4.041213e-09	-2.714800e+01	-2.669494e+02
8.100000e-07	-3.723192e-06	-4.012551e-09	-2.647146e+01	-2.646152e+02
8.200000e-07	-3.627472e-06	-3.977484e-09	-2.579091e+01	-2.622369e+02
8.300000e-07	-3.531322e-06	-3.934507e-09	-2.510729e+01	-2.598164e+02
8.400000e-07	-3.434706e-06	-3.895697e-09	-2.442036e+01	-2.573528e+02
8.500000e-07	-3.337329e-06	-3.861645e-09	-2.372802e+01	-2.548428e+02
8.600000e-07	-3.239143e-06	-3.822122e-09	-2.302993e+01	-2.522802e+02
8.700000e-07	-3.140223e-06	-3.775982e-09	-2.232662e+01	-2.496560e+02
8.800000e-07	-3.040706e-06	-3.729591e-09	-2.161906e+01	-2.469595e+02
8.900000e-07	-2.940790e-06	-3.686461e-09	-2.090868e+01	-2.441781e+02
9.000000e-07	-2.840552e-06	-3.644301e-09	-2.019599e+01	-2.412984e+02
9.100000e-07	-2.739987e-06	-3.598597e-09	-1.948099e+01	-2.383072e+02
9.200000e-07	-2.639035e-06	-3.547721e-09	-1.876323e+01	-2.351917e+02
9.300000e-07	-2.537547e-06	-3.494129e-09	-1.804167e+01	-2.319405e+02
9.400000e-07	-2.435455e-06	-3.444001e-09	-1.731580e+01	-2.285442e+02
9.500000e-07	-2.332905e-06	-3.393840e-09	-1.658668e+01	-2.249957e+02
9.600000e-07	-2.229974e-06	-3.336112e-09	-1.585486e+01	-2.212899e+02
9.700000e-07	-2.126614e-06	-3.275198e-09	-1.511998e+01	-2.174235e+02
9.800000e-07	-2.022927e-06	-3.215991e-09	-1.438278e+01	-2.133946e+02
9.900000e-07	-1.918984e-06	-3.156377e-09	-1.364375e+01	-2.092018e+02
1.000000e-06	-1.814786e-06	-3.090215e-09	-1.290292e+01	-2.048427e+02
1.010000e-06	-1.710341e-06	-3.017199e-09	-1.216033e+01	-2.003131e+02
1.020000e-06	-1.605588e-06	-2.943151e-09	-1.141554e+01	-1.956053e+02
1.030000e-06	-1.500480e-06	-2.868662e-09	-1.066824e+01	-1.907072e+02
1.040000e-06	-1.394981e-06	-2.790990e-09	-9.918156e+00	-1.856008e+02
1.050000e-06	-1.289145e-06	-2.708000e-09	-9.165668e+00	-1.802616e+02
1.060000e-06	-1.182899e-06	-2.621726e-09	-8.410278e+00	-1.746583e+02
1.070000e-06	-1.076229e-06	-2.531287e-09	-7.651862e+00	-1.687526e+02
1.080000e-06	-9.692343e-07	-2.435714e-09	-6.891144e+00	-1.625000e+02
1.090000e-06	-8.619726e-07	-2.332165e-09	-6.128526e+00	-1.558506e+02
1.100000e-06	-7.545930e-07	-2.220573e-09	-5.365069e+00	-1.487514e+02
1.110000e-06	-6.470815e-07	-2.104020e-09	-4.600674e+00	-1.411478e+02
1.120000e-06	-5.393936e-07	-1.979793e-09	-3.835026e+00	-1.329868e+02
1.130000e-06	-4.315753e-07	-1.845955e-09	-3.068451e+00	-1.242194e+02
1.140000e-06	-3.236832e-07	-1.699785e-09	-2.301350e+00	-1.148037e+02
1.150000e-06	-2.157644e-07	-1.543969e-09	-1.534060e+00	-1.047083e+02
1.160000e-06	-1.078014e-07	-1.380112e-09	-7.664557e-01	-9.391452e+01
1.170000e-06	1.569772e-10	-1.206916e-09	1.116090e-03	-8.241901e+01
1.180000e-06	1.080775e-07	-1.023522e-09	7.684188e-01	-7.023574e+01
1.190000e-06	2.159636e-07	-8.301530e-10	1.535476e+00	-5.739701e+01
1.200000e-06	3.237947e-07	-6.300173e-10	2.302143e+00	-4.395396e+01
1.210000e-06	4.315662e-07	-4.210035e-10	3.068386e+00	-2.997611e+01
1.220000e-06	5.392250e-07	-2.018919e-10	3.833827e+00	-1.555009e+01
1.230000e-06	6.467323e-07	2.431528e-11	4.598192e+00	-7.776081e-01
1.240000e-06	7.540382e-07	2.550966e-10	5.361124e+00	1.422746e+01
1.250000e-06	8.611305e-07	4.858075e-10	6.122538e+00	2.934241e+01
1.260000e-06	9.679759e-07	7.198303e-10	6.882197e+00	4.443968e+01
1.270000e-06	1.074486e-06	9.547518e-10	7.639474e+00	5.939094e+01
1.280000e-06	1.180703e-06	1.185321e-09	8.394662e+00	7.407132e+01
1.290000e-06	1.286568e-06	1.404913e-09	9.147353e+00	8.836350e+01
1.300000e-06	1.392022e-06	1.613141e-09	9.897114e+00	1.021614e+02
1.310000e-06	1.497146e-06	1.813796e-09	1.064453e+01	1.153734e+02
1.320000e-06	1.601977e-06	2.002766e-09	1.138987e+01	1.279249e+02
1.330000e-06	1.706534e-06	2.177972e-09	1.213326e+01	1.397598e+02
1.340000e-06	1.810870e-06	2.339740e-09	1.287507e+01	1.508417e+02
1.350000e-06	1.915016e-06	2.494662e-09	1.361554e+01	1.611539e+02
1.360000e-06	2.018942e-06	2.637637e-09	1.435444e+01	1.706981e+02
1.370000e-06	2.122542e-06	2.765118e-09	1.509103e+01	1.794933e+02
1.380000e-06	2.225781e-06	2.881542e-09	1.582504e+01	1.875732e+02
1.390000e-06	2.328610e-06	2.989688e-09	1.655615e+01	1.949838e+02
1.400000e-06	2.431015e-06	3.090422e-09	1.728423e+01	2.017798e+02
1.410000e-06	2.532976e-06	3.183019e-09	1.800916e+01	2.080218e+02
1.420000e-06	2.634519e-06	3.269296e-09	1.873112e+01	2.137729e+02
1.430000e-06	2.735640e-06	3.352332e-09	1.945008e+01	2.190957e+02
1.440000e-06	2.836322e-06	3.432133e-09	2.016592e+01	2.240497e+02
1.450000e-06	2.936665e-06	3.507069e-09	2.087935e+01	2.286892e+02
1.460000e-06	3.036661e-06	3.575689e-09	2.159031e+01	2.330615e+02
1.470000e-06	3.136159e-06	3.639281e-09	2.229773e+01	2.372060e+02
1.480000e-06	3.234976e-06	3.701749e-09	2.300030e+01	2.411538e+02
1.490000e-06	3.333013e-06	3.760581e-09	2.369734e+01	2.449280e+02
1.500000e-06	3.430230e-06	3.813650e-09	2.438853e+01	2.485439e+02
1.510000e-06	3.526818e-06	3.862970e-09	2.507527e+01	2.520108e+02
1.520000e-06	3.622852e-06	3.911248e-09	2.575806e+01	2.553326e+02
1.530000e-06	3.718212e-06	3.958649e-09	2.643606e+01	2.585101e+02
1.540000e-06	3.812911e-06	4.001406e-09	2.710935e+01	2.615419e+02
1.550000e-06	3.906937e-06	4.040747e-09	2.777787e+01	2.644262e+02
1.560000e-06	4.000291e-06	4.078482e-09	2.844161e+01	2.671620e+02
1.570000e-06	4.092979e-06	4.116586e-09	2.910061e+01	2.697502e+02
1.580000e-06	4.185022e-06	4.153348e-09	2.975502e+01	2.721945e+02
1.590000e-06	4.276406e-06	4.185373e-09	3.040475e+01	2.745011e+02
1.600000e-06	4.366850e-06	4.217238e-09	3.104780e+01	2.766794e+02
1.610000e-06	4.456241e-06	4.248096e-09	3.168336e+01	2.787413e+02
1.620000e-06	4.544848e-06	4.278153e-09	3.231334e+01	2.807006e+02
1.630000e-06	4.632769e-06	4.307374e-09	3.293845e+01	2.825725e+02
1.640000e-06	4.719806e-06	4.334610e-09	3.355727e+01	2.843723e+02
1.650000e-06	4.805925e-06	4.361579e-09	3.416957e+01	2.861147e+02
1.660000e-06	4.891197e-06	4.386637e-09	3.477584e+01	2.878130e+02
1.670000e-06	4.975699e-06	4.410388e-09	3.537664e+01	2.894783e+02
1.680000e-06	5.059518e-06	4.433797e-09	3.597259e+01	2.911187e+02
1.690000e-06	5.142515e-06	4.455138e-09	3.656268e+01	2.927395e+02
1.700000e-06	5.224592e-06	4.475339e-09	3.714624e+01	2.943425e+02
1.710000e-06	5.305864e-06	4.495500e-09	3.772408e+01	2.959268e+02
1.720000e-06	5.386256e-06	4.515648e-09	3.829566e+01	2.974889e+02
1.730000e-06	5.465541e-06	4.536977e-09	3.885936e+01	2.990232e+02
1.740000e-06	5.543756e-06	4.558764e-09	3.941546e+01	3.005230e+02
1.750000e-06	5.620981e-06	4.577573e-09	3.996452e+01	3.019809e+02
1.760000e-06	5.697276e-06	4.594789e-09	4.050697e+01	3.033900e+02
1.770000e-06	5.772638e-06	4.612438e-09	4.104278e+01	3.047444e+02
1.780000e-06	5.846787e-06	4.628080e-09	4.156998e+01	3.060397e+02
1.790000e-06	5.919681e-06	4.643490e-09	4.208825e+01	3.072736e+02
1.800000e-06	5.991505e-06	4.659392e-09	4.259891e+01	3.084462e+02
1.810000e-06	6.062234e-06	4.676541e-09	4.310178e+01	3.095596e+02
1.820000e-06	6.131888e-06	4.694313e-09	4.359702e+01	3.106182e+02
1.830000e-06	6.200588e-06	4.710985e-09	4.408546e+01	3.116279e+02
1.840000e-06	6.268405e-06	4.727147e-09	4.456763e+01	3.125961e+02
1.850000e-06	6.335074e-06	4.742142e-09	4.504164e+01	3.135307e+02
1.860000e-06	6.400429e-06	4.754971e-09	4.550630e+01	3.144394e+02
1.870000e-06	6.464619e-06	4.766809e-09	4.596269e+01	3.153294e+02
1.880000e-06	6.527661e-06	4.779524e-09	4.641091e+01	3.162068e+02
1.890000e-06	6.589558e-06	4.792941e-09	4.685099e+01	3.170758e+02
1.900000e-06	6.650412e-06	4.807254e-09	4.728366e+01	3.179389e+02
1.910000e-06	6.710309e-06	4.821216e-09	4.770952e+01	3.187965e+02
1.920000e-06	6.769063e-06	4.835711e-09	4.812725e+01	3.196470e+02
1.930000e-06	6.826401e-06	4.849056e-09	4.853492e+01	3.204871e+02
1.940000e-06	6.882319e-06	4.859933e-09	4.893249e+01	3.213121e+02
1.950000e-06	6.937041e-06	4.870275e-09	4.932156e+01	3.221165e+02
1.960000e-06	6.990560e-06	4.879181e-09	4.970207e+01	3.228945e+02
1.970000e-06	7.042702e-06	4.890337e-09	5.007279e+01	3.236404e+02
1.980000e-06	7.093328e-06	4.901732e-09	5.043274e+01	3.243495e+02
1.990000e-06	7.142394e-06	4.913103e-09	5.078160e+01	3.250182e+02
2.000000e-06	7.190011e-06	4.924266e-09	5.112014e+01	3.256445e+02
2.010000e-06	7.236344e-06	4.934426e-09	5.144957e+01	3.262282e+02
2.020000e-06	7.281473e-06	4.945432e-09	5.177042e+01	3.267710e+02
2.030000e-06	7.325423e-06	4.953558e-09	5.208291e+01	3.272761e+02
2.040000e-06	7.368167e-06	4.961645e-09	5.238682e+01	3.277482e+02
2.050000e-06	7.409479e-06	4.968825e-09	5.268054e+01	3.281929e+02
2.060000e-06	7.449334e-06	4.974918e-09	5.296390e+01	3.286166e+02
2.070000e-06	7.487911e-06	4.982759e-09	5.323818e+01	3.290254e+02
2.080000e-06	7.525292e-06	4.990859e-09	5.350395e+01	3.294250e+02
2.090000e-06	7.561568e-06	4.999166e-09	5.376187e+01	3.298201e+02
2.100000e-06	7.596625e-06	5.007292e-09	5.401112e+01	3.302141e+02
2.110000e-06	7.630111e-06	5.015103e-09	5.424921e+01	3.306087e+02
2.120000e-06	7.662176e-06	5.021981e-09	5.447718e+01	3.310040e+02
2.130000e-06	7.693083e-06	5.027810e-09	5.469693e+01	3.313981e+02
2.140000e-06	7.722741e-06	5.034625e-09	5.490779e+01	3.317878e+02
2.150000e-06	7.751225e-06	5.041496e-09	5.511031e+01	3.321688e+02
2.160000e-06	7.778435e-06	5.049224e-09	5.530377e+01	3.325357e+02
2.170000e-06	7.804044e-06	5.056346e-09	5.548585e+01	3.328831e+02
2.180000e-06	7.828103e-06	5.061286e-09	5.565690e+01	3.332055e+02
2.190000e-06	7.850811e-06	5.066285e-09	5.581835e+01	3.334985e+02
2.200000e-06	7.872233e-06	5.069781e-09	5.597066e+01	3.337583e+02
2.210000e-06	7.892439e-06	5.073506e-09	5.611433e+01	3.339829e+02
2.220000e-06	7.911435e-06	5.078775e-09	5.624939e+01	3.341719e+02
2.230000e-06	7.929023e-06	5.085130e-09	5.637443e+01	3.343263e+02
2.240000e-06	7.945111e-06	5.092392e-09	5.648882e+01	3.344490e+02
2.250000e-06	7.959730e-06	5.097882e-09	5.659276e+01	3.345439e+02
2.260000e-06	7.972840e-06	5.101717e-09	5.668597e+01	3.346161e+02
2.270000e-06	7.984460e-06	5.102685e-09	5.676859e+01	3.346712e+02
2.280000e-06	7.994347e-06	5.102621e-09	5.683888e+01	3.347146e+02
2.290000e-06	8.002463e-06	5.104486e-09	5.689659e+01	3.347515e+02
2.300000e-06	8.009230e-06	5.106147e-09	5.694470e+01	3.347860e+02
2.310000e-06	8.014650e-06	5.107197e-09	5.698323e+01	3.348210e+02
2.320000e-06	8.018768e-06	5.108510e-09	5.701251e+01	3.348576e+02
2.330000e-06	8.021595e-06	5.110018e-09	5.703261e+01	3.348955e+02
2.340000e-06	8.022845e-06	5.111781e-09	5.704150e+01	3.349325e+02
2.350000e-06	8.022559e-06	5.112966e-09	5.703946e+01	3.349651e+02
2.360000e-06	8.020934e-06	5.111241e-09	5.702791e+01	3.349886e+02
2.370000e-06	8.018049e-06	5.108766e-09	5.700740e+01	3.349976e+02
2.380000e-06	8.014009e-06	5.106180e-09	5.697868e+01	3.349866e+02
2.390000e-06	8.008660e-06	5.107558e-09	5.694065e+01	3.349504e+02
2.400000e-06	8.001743e-06	5.110010e-09	5.689146e+01	3.348846e+02
2.410000e-06	7.993480e-06	5.111694e-09	5.683272e+01	3.347865e+02
2.420000e-06	7.984082e-06	5.125452e-09	5.676590e+01	3.346550e+02
2.430000e-06	7.973533e-06	5.099454e-09	5.669089e+01	3.344907e+02
2.440000e-06	7.961445e-06	5.041273e-09	5.660495e+01	3.342967e+02
2.450000e-06	7.947069e-06	5.036573e-09	5.650274e+01	3.340778e+02
2.460000e-06	7.930500e-06	5.038701e-09	5.638493e+01	3.338405e+02
2.470000e-06	7.912476e-06	5.137796e-09	5.625678e+01	3.335924e+02
2.480000e-06	7.893544e-06	5.176909e-09	5.612218e+01	3.333419e+02
2.490000e-06	7.874000e-06	5.006860e-09	5.598323e+01	3.330973e+02
2.500000e-06	7.853199e-06	5.082596e-09	5.583533e+01	3.328663e+02
2.510000e-06	7.830571e-06	5.101376e-09	5.567445e+01	3.326552e+02
2.520000e-06	7.806700e-06	5.042357e-09	5.550473e+01	3.324685e+02
2.530000e-06	7.781702e-06	5.177374e-09	5.532700e+01	3.323082e+02
2.540000e-06	7.755221e-06	5.037917e-09	5.513872e+01	3.321737e+02
2.550000e-06	7.727511e-06	4.962947e-09	5.494170e+01	3.320616e+02
2.560000e-06	7.698688e-06	5.153980e-09	5.473678e+01	3.319659e+02
2.570000e-06	7.668458e-06	5.068564e-09	5.452185e+01	3.318782e+02
2.580000e-06	7.636625e-06	4.994435e-09	5.429552e+01	3.317879e+02
2.590000e-06	7.603288e-06	5.054730e-09	5.405850e+01	3.316835e+02
2.600000e-06	7.568790e-06	5.028561e-09	5.381322e+01	3.315526e+02
2.610000e-06	7.533128e-06	5.108872e-09	5.355966e+01	3.313830e+02
2.620000e-06	7.496071e-06	5.030552e-09	5.329619e+01	3.311638e+02
2.630000e-06	7.457570e-06	4.993900e-09	5.302246e+01	3.308852e+02
2.640000e-06	7.417567e-06	5.074260e-09	5.273804e+01	3.305401e+02
2.650000e-06	7.376150e-06	5.015084e-09	5.244357e+01	3.301239e+02
2.660000e-06	7.333433e-06	5.045111e-09	5.213986e+01	3.296349e+02
2.670000e-06	7.289556e-06	5.010137e-09	5.182790e+01	3.290745e+02
2.680000e-06	7.244458e-06	4.978092e-09	5.150726e+01	3.284467e+02
2.690000e-06	7.197893e-06	4.995973e-09	5.117618e+01	3.277581e+02
2.700000e-06	7.150090e-06	4.990700e-09	5.083631e+01	3.270169e+02
2.710000e-06	7.101030e-06	5.016086e-09	5.048750e+01	3.262328e+02
2.720000e-06	7.050436e-06	4.905507e-09	5.012778e+01	3.254159e+02
2.730000e-06	6.998425e-06	4.936727e-09	4.975799e+01	3.245760e+02
2.740000e-06	6.945113e-06	5.001323e-09	4.937895e+01	3.237219e+02
2.750000e-06	6.890430e-06	4.928833e-09	4.899016e+01	3.228608e+02
2.760000e-06	6.834230e-06	4.896531e-09	4.859059e+01	3.219980e+02
2.770000e-06	6.776753e-06	4.879113e-09	4.818193e+01	3.211363e+02
2.780000e-06	6.718187e-06	4.929057e-09	4.776553e+01	3.202761e+02
2.790000e-06	6.658408e-06	4.887863e-09	4.734051e+01	3.194153e+02
2.800000e-06	6.597538e-06	4.840665e-09	4.690773e+01	3.185499e+02
2.810000e-06	6.535593e-06	4.850538e-09	4.646731e+01	3.176743e+02
2.820000e-06	6.472330e-06	4.836630e-09	4.601751e+01	3.167816e+02
2.830000e-06	6.407831e-06	4.839042e-09	4.555894e+01	3.158646e+02
2.840000e-06	6.342302e-06	4.809729e-09	4.509303e+01	3.149163e+02
2.850000e-06	6.275722e-06	4.803059e-09	4.461965e+01	3.139304e+02
2.860000e-06	6.208035e-06	4.774934e-09	4.413841e+01	3.129021e+02
2.870000e-06	6.139390e-06	4.760987e-09	4.365035e+01	3.118281e+02
2.880000e-06	6.069809e-06	4.764021e-09	4.315564e+01	3.107073e+02
2.890000e-06	5.998912e-06	4.732765e-09	4.265157e+01	3.095403e+02
2.900000e-06	5.926751e-06	4.703490e-09	4.213851e+01	3.083297e+02
2.910000e-06	5.853668e-06	4.689270e-09	4.161890e+01	3.070798e+02
2.920000e-06	5.779599e-06	4.694578e-09	4.109228e+01	3.057956e+02
2.930000e-06	5.704439e-06	4.659698e-09	4.055790e+01	3.044830e+02
2.940000e-06	5.628199e-06	4.634442e-09	4.001584e+01	3.031475e+02
2.950000e-06	5.550890e-06	4.630691e-09	3.946619e+01	3.017942e+02
