# Temperatura_=_20.0
# Concentracion g/m^3_=_9000.0
# C_Vs_to_Am_M_A/Vsm_=_65563218390.804596
# pendiente_HvsI_1/m_=_3716.3
# ordenada_HvsI_A/m_=_1297.0
# frecuencia_Hz_=_212985.10595851013

Tiempo_(s)	Campo_(V.s)	Magnetizacion_(V.s)	Campo_(kA/m)	Magnetizacion_(A/m)
0.000000e+00	-8.057368e-06	-5.142037e-09	-5.691376e+01	-3.359178e+02
1.000000e-08	-8.056225e-06	-5.140460e-09	-5.690569e+01	-3.359544e+02
2.000000e-08	-8.053454e-06	-5.143406e-09	-5.688612e+01	-3.359973e+02
3.000000e-08	-8.049312e-06	-5.143652e-09	-5.685686e+01	-3.360418e+02
4.000000e-08	-8.044009e-06	-5.144528e-09	-5.681940e+01	-3.360819e+02
5.000000e-08	-8.037500e-06	-5.143027e-09	-5.677343e+01	-3.361108e+02
6.000000e-08	-8.029812e-06	-5.141113e-09	-5.671912e+01	-3.361210e+02
7.000000e-08	-8.020634e-06	-5.134918e-09	-5.665429e+01	-3.361053e+02
8.000000e-08	-8.009731e-06	-5.104908e-09	-5.657728e+01	-3.360569e+02
9.000000e-08	-7.997176e-06	-5.128526e-09	-5.648859e+01	-3.359699e+02
1.000000e-07	-7.982785e-06	-5.201088e-09	-5.638695e+01	-3.358398e+02
1.100000e-07	-7.966425e-06	-5.191234e-09	-5.627138e+01	-3.356638e+02
1.200000e-07	-7.948437e-06	-5.153675e-09	-5.614432e+01	-3.354406e+02
1.300000e-07	-7.929287e-06	-5.075964e-09	-5.600906e+01	-3.351705e+02
1.400000e-07	-7.909279e-06	-4.967031e-09	-5.586773e+01	-3.348556e+02
1.500000e-07	-7.888333e-06	-5.171542e-09	-5.571977e+01	-3.344991e+02
1.600000e-07	-7.866151e-06	-5.220883e-09	-5.556309e+01	-3.341053e+02
1.700000e-07	-7.842836e-06	-4.993442e-09	-5.539840e+01	-3.336791e+02
1.800000e-07	-7.818013e-06	-5.042523e-09	-5.522306e+01	-3.332255e+02
1.900000e-07	-7.791386e-06	-5.022925e-09	-5.503498e+01	-3.327498e+02
2.000000e-07	-7.763622e-06	-5.050560e-09	-5.483887e+01	-3.322563e+02
2.100000e-07	-7.734747e-06	-5.214117e-09	-5.463491e+01	-3.317490e+02
2.200000e-07	-7.704455e-06	-4.988775e-09	-5.442094e+01	-3.312307e+02
2.300000e-07	-7.672976e-06	-4.895931e-09	-5.419859e+01	-3.307036e+02
2.400000e-07	-7.640211e-06	-5.091483e-09	-5.396715e+01	-3.301684e+02
2.500000e-07	-7.605935e-06	-5.108340e-09	-5.372504e+01	-3.296253e+02
2.600000e-07	-7.570230e-06	-5.063299e-09	-5.347283e+01	-3.290737e+02
2.700000e-07	-7.533065e-06	-4.919164e-09	-5.321031e+01	-3.285123e+02
2.800000e-07	-7.494495e-06	-4.935311e-09	-5.293787e+01	-3.279398e+02
2.900000e-07	-7.454705e-06	-5.075935e-09	-5.265681e+01	-3.273546e+02
3.000000e-07	-7.413471e-06	-5.033536e-09	-5.236556e+01	-3.267554e+02
3.100000e-07	-7.370611e-06	-4.932327e-09	-5.206281e+01	-3.261413e+02
3.200000e-07	-7.326441e-06	-4.914452e-09	-5.175081e+01	-3.255117e+02
3.300000e-07	-7.280986e-06	-4.979724e-09	-5.142974e+01	-3.248666e+02
3.400000e-07	-7.234120e-06	-4.972806e-09	-5.109869e+01	-3.242064e+02
3.500000e-07	-7.185888e-06	-4.956544e-09	-5.075800e+01	-3.235317e+02
3.600000e-07	-7.135925e-06	-4.917110e-09	-5.040509e+01	-3.228435e+02
3.700000e-07	-7.084221e-06	-4.844080e-09	-5.003988e+01	-3.221424e+02
3.800000e-07	-7.031180e-06	-4.930617e-09	-4.966521e+01	-3.214292e+02
3.900000e-07	-6.976905e-06	-4.961013e-09	-4.928184e+01	-3.207038e+02
4.000000e-07	-6.921483e-06	-4.844509e-09	-4.889037e+01	-3.199656e+02
4.100000e-07	-6.864881e-06	-4.817544e-09	-4.849055e+01	-3.192135e+02
4.200000e-07	-6.806958e-06	-4.880261e-09	-4.808141e+01	-3.184452e+02
4.300000e-07	-6.747660e-06	-4.896509e-09	-4.766256e+01	-3.176580e+02
4.400000e-07	-6.687154e-06	-4.811583e-09	-4.723517e+01	-3.168484e+02
4.500000e-07	-6.625584e-06	-4.781505e-09	-4.680026e+01	-3.160125e+02
4.600000e-07	-6.562996e-06	-4.808456e-09	-4.635817e+01	-3.151463e+02
4.700000e-07	-6.499421e-06	-4.805951e-09	-4.590910e+01	-3.142458e+02
4.800000e-07	-6.434617e-06	-4.771612e-09	-4.545135e+01	-3.133077e+02
4.900000e-07	-6.368447e-06	-4.729551e-09	-4.498396e+01	-3.123290e+02
5.000000e-07	-6.301131e-06	-4.733945e-09	-4.450847e+01	-3.113081e+02
5.100000e-07	-6.232868e-06	-4.734791e-09	-4.402629e+01	-3.102444e+02
5.200000e-07	-6.163706e-06	-4.712560e-09	-4.353775e+01	-3.091383e+02
5.300000e-07	-6.093517e-06	-4.679200e-09	-4.304197e+01	-3.079918e+02
5.400000e-07	-6.022266e-06	-4.657278e-09	-4.253868e+01	-3.068077e+02
5.500000e-07	-5.950009e-06	-4.653420e-09	-4.202829e+01	-3.055899e+02
5.600000e-07	-5.876689e-06	-4.642670e-09	-4.151039e+01	-3.043427e+02
5.700000e-07	-5.802077e-06	-4.610583e-09	-4.098336e+01	-3.030706e+02
5.800000e-07	-5.726084e-06	-4.566208e-09	-4.044658e+01	-3.017780e+02
5.900000e-07	-5.648970e-06	-4.559259e-09	-3.990188e+01	-3.004683e+02
6.000000e-07	-5.570897e-06	-4.566579e-09	-3.935041e+01	-2.991444e+02
6.100000e-07	-5.491707e-06	-4.533414e-09	-3.879104e+01	-2.978073e+02
6.200000e-07	-5.411245e-06	-4.484320e-09	-3.822269e+01	-2.964568e+02
6.300000e-07	-5.329709e-06	-4.474368e-09	-3.764676e+01	-2.950910e+02
6.400000e-07	-5.247291e-06	-4.478927e-09	-3.706460e+01	-2.937062e+02
6.500000e-07	-5.164079e-06	-4.448718e-09	-3.647683e+01	-2.922974e+02
6.600000e-07	-5.080103e-06	-4.402727e-09	-3.588365e+01	-2.908585e+02
6.700000e-07	-4.995269e-06	-4.378608e-09	-3.528442e+01	-2.893824e+02
6.800000e-07	-4.909616e-06	-4.372870e-09	-3.467940e+01	-2.878618e+02
6.900000e-07	-4.823224e-06	-4.355054e-09	-3.406917e+01	-2.862897e+02
7.000000e-07	-4.735949e-06	-4.321375e-09	-3.345270e+01	-2.846597e+02
7.100000e-07	-4.647654e-06	-4.284979e-09	-3.282902e+01	-2.829666e+02
7.200000e-07	-4.558482e-06	-4.261875e-09	-3.219915e+01	-2.812064e+02
7.300000e-07	-4.468549e-06	-4.246815e-09	-3.156390e+01	-2.793772e+02
7.400000e-07	-4.377737e-06	-4.218274e-09	-3.092244e+01	-2.774787e+02
7.500000e-07	-4.286010e-06	-4.175267e-09	-3.027452e+01	-2.755123e+02
7.600000e-07	-4.193487e-06	-4.139520e-09	-2.962098e+01	-2.734809e+02
7.700000e-07	-4.100280e-06	-4.121278e-09	-2.896261e+01	-2.713885e+02
7.800000e-07	-4.006500e-06	-4.097348e-09	-2.830018e+01	-2.692397e+02
7.900000e-07	-3.912100e-06	-4.056747e-09	-2.763338e+01	-2.670390e+02
8.000000e-07	-3.816958e-06	-4.015947e-09	-2.696134e+01	-2.647906e+02
8.100000e-07	-3.721064e-06	-3.990617e-09	-2.628399e+01	-2.624970e+02
8.200000e-07	-3.624544e-06	-3.966860e-09	-2.560222e+01	-2.601596e+02
8.300000e-07	-3.527493e-06	-3.923469e-09	-2.491669e+01	-2.577772e+02
8.400000e-07	-3.429825e-06	-3.875073e-09	-2.422680e+01	-2.553465e+02
8.500000e-07	-3.331443e-06	-3.838360e-09	-2.353187e+01	-2.528618e+02
8.600000e-07	-3.232351e-06	-3.804471e-09	-2.283193e+01	-2.503151e+02
8.700000e-07	-3.132695e-06	-3.761032e-09	-2.212800e+01	-2.476965e+02
8.800000e-07	-3.032568e-06	-3.710279e-09	-2.142075e+01	-2.449946e+02
8.900000e-07	-2.931998e-06	-3.664727e-09	-2.071037e+01	-2.421972e+02
9.000000e-07	-2.830973e-06	-3.626148e-09	-1.999677e+01	-2.392920e+02
9.100000e-07	-2.729583e-06	-3.584352e-09	-1.928060e+01	-2.362671e+02
9.200000e-07	-2.627838e-06	-3.532750e-09	-1.856191e+01	-2.331118e+02
9.300000e-07	-2.525662e-06	-3.475993e-09	-1.784019e+01	-2.298173e+02
9.400000e-07	-2.423023e-06	-3.424357e-09	-1.711519e+01	-2.263765e+02
9.500000e-07	-2.319837e-06	-3.376944e-09	-1.638633e+01	-2.227844e+02
9.600000e-07	-2.216174e-06	-3.323094e-09	-1.565410e+01	-2.190380e+02
9.700000e-07	-2.112178e-06	-3.259641e-09	-1.491951e+01	-2.151354e+02
9.800000e-07	-2.007855e-06	-3.196487e-09	-1.418262e+01	-2.110756e+02
9.900000e-07	-1.903206e-06	-3.138521e-09	-1.344342e+01	-2.068568e+02
1.000000e-06	-1.798236e-06	-3.074594e-09	-1.270196e+01	-2.024759e+02
1.010000e-06	-1.692882e-06	-3.001170e-09	-1.195779e+01	-1.979269e+02
1.020000e-06	-1.587183e-06	-2.924911e-09	-1.121117e+01	-1.931997e+02
1.030000e-06	-1.481080e-06	-2.849803e-09	-1.046171e+01	-1.882790e+02
1.040000e-06	-1.374549e-06	-2.771549e-09	-9.709220e+00	-1.831433e+02
1.050000e-06	-1.267722e-06	-2.685131e-09	-8.954643e+00	-1.777644e+02
1.060000e-06	-1.160640e-06	-2.594399e-09	-8.198260e+00	-1.721072e+02
1.070000e-06	-1.053239e-06	-2.502167e-09	-7.439628e+00	-1.661298e+02
1.080000e-06	-9.455313e-07	-2.405711e-09	-6.678825e+00	-1.597848e+02
1.090000e-06	-8.376177e-07	-2.302493e-09	-5.916570e+00	-1.530202e+02
1.100000e-06	-7.295524e-07	-2.191078e-09	-5.153243e+00	-1.457815e+02
1.110000e-06	-6.213885e-07	-2.071706e-09	-4.389220e+00	-1.380141e+02
1.120000e-06	-5.131474e-07	-1.946486e-09	-3.624651e+00	-1.296656e+02
1.130000e-06	-4.047973e-07	-1.811084e-09	-2.859313e+00	-1.206891e+02
1.140000e-06	-2.964024e-07	-1.659067e-09	-2.093658e+00	-1.110462e+02
1.150000e-06	-1.879834e-07	-1.496887e-09	-1.327833e+00	-1.007094e+02
1.160000e-06	-7.956021e-08	-1.329199e-09	-5.619789e-01	-8.966505e+01
1.170000e-06	2.884270e-08	-1.154028e-09	2.037324e-01	-7.791572e+01
1.180000e-06	1.372696e-07	-9.695864e-10	9.696134e-01	-6.548148e+01
1.190000e-06	2.456988e-07	-7.757153e-10	1.735510e+00	-5.240099e+01
1.200000e-06	3.540140e-07	-5.738281e-10	2.500602e+00	-3.873168e+01
1.210000e-06	4.621962e-07	-3.605438e-10	3.264754e+00	-2.454902e+01
1.220000e-06	5.703249e-07	-1.369626e-10	4.028528e+00	-9.945064e+00
1.230000e-06	6.783634e-07	9.282828e-11	4.791666e+00	4.973874e+00
1.240000e-06	7.862524e-07	3.247370e-10	5.553747e+00	2.009019e+01
1.250000e-06	8.939509e-07	5.577746e-10	6.314482e+00	3.527854e+01
1.260000e-06	1.001447e-06	7.949591e-10	7.073788e+00	5.040981e+01
1.270000e-06	1.108650e-06	1.031193e-09	7.831026e+00	6.535529e+01
1.280000e-06	1.215527e-06	1.260987e-09	8.585958e+00	7.999086e+01
1.290000e-06	1.322107e-06	1.474874e-09	9.338792e+00	9.420099e+01
1.300000e-06	1.428343e-06	1.679570e-09	1.008920e+01	1.078824e+02
1.310000e-06	1.534231e-06	1.877447e-09	1.083715e+01	1.209470e+02
1.320000e-06	1.639805e-06	2.061703e-09	1.158288e+01	1.333243e+02
1.330000e-06	1.745116e-06	2.233400e-09	1.232674e+01	1.449632e+02
1.340000e-06	1.850178e-06	2.393147e-09	1.306886e+01	1.558322e+02
1.350000e-06	1.954986e-06	2.546495e-09	1.380918e+01	1.659197e+02
1.360000e-06	2.059539e-06	2.687997e-09	1.454769e+01	1.752327e+02
1.370000e-06	2.163740e-06	2.814020e-09	1.528373e+01	1.837949e+02
1.380000e-06	2.267522e-06	2.926789e-09	1.601679e+01	1.916449e+02
1.390000e-06	2.370904e-06	3.030206e-09	1.674704e+01	1.988325e+02
1.400000e-06	2.473874e-06	3.127154e-09	1.747438e+01	2.054162e+02
1.410000e-06	2.576371e-06	3.217576e-09	1.819837e+01	2.114594e+02
1.420000e-06	2.678387e-06	3.302543e-09	1.891897e+01	2.170275e+02
1.430000e-06	2.780008e-06	3.383482e-09	1.963678e+01	2.221847e+02
1.440000e-06	2.881217e-06	3.460877e-09	2.035167e+01	2.269914e+02
1.450000e-06	2.981994e-06	3.534922e-09	2.106351e+01	2.315018e+02
1.460000e-06	3.082346e-06	3.603597e-09	2.177236e+01	2.357630e+02
1.470000e-06	3.182186e-06	3.667684e-09	2.247759e+01	2.398134e+02
1.480000e-06	3.281410e-06	3.727023e-09	2.317846e+01	2.436825e+02
1.490000e-06	3.379888e-06	3.784208e-09	2.387407e+01	2.473915e+02
1.500000e-06	3.477635e-06	3.837195e-09	2.456451e+01	2.509537e+02
1.510000e-06	3.574744e-06	3.885356e-09	2.525045e+01	2.543761e+02
1.520000e-06	3.671283e-06	3.930136e-09	2.593236e+01	2.576603e+02
1.530000e-06	3.767152e-06	3.973124e-09	2.660953e+01	2.608047e+02
1.540000e-06	3.862241e-06	4.015288e-09	2.728120e+01	2.638058e+02
1.550000e-06	3.956615e-06	4.054829e-09	2.794782e+01	2.666601e+02
1.560000e-06	4.050331e-06	4.093307e-09	2.860978e+01	2.693652e+02
1.570000e-06	4.143396e-06	4.130261e-09	2.926716e+01	2.719210e+02
1.580000e-06	4.235824e-06	4.166469e-09	2.992003e+01	2.743303e+02
1.590000e-06	4.327587e-06	4.198207e-09	3.056821e+01	2.765994e+02
1.600000e-06	4.418444e-06	4.228566e-09	3.120998e+01	2.787380e+02
1.610000e-06	4.508242e-06	4.258687e-09	3.184427e+01	2.807586e+02
1.620000e-06	4.597176e-06	4.286460e-09	3.247246e+01	2.826762e+02
1.630000e-06	4.685381e-06	4.314718e-09	3.309551e+01	2.845070e+02
1.640000e-06	4.772740e-06	4.343268e-09	3.371258e+01	2.862678e+02
1.650000e-06	4.859215e-06	4.370968e-09	3.432339e+01	2.879748e+02
1.660000e-06	4.944876e-06	4.396070e-09	3.492846e+01	2.896425e+02
1.670000e-06	5.029737e-06	4.420953e-09	3.552789e+01	2.912831e+02
1.680000e-06	5.113827e-06	4.443137e-09	3.612187e+01	2.929055e+02
1.690000e-06	5.197163e-06	4.462256e-09	3.671051e+01	2.945153e+02
1.700000e-06	5.279535e-06	4.482178e-09	3.729236e+01	2.961144e+02
1.710000e-06	5.360967e-06	4.503910e-09	3.786756e+01	2.977015e+02
1.720000e-06	5.441563e-06	4.525619e-09	3.843685e+01	2.992719e+02
1.730000e-06	5.521120e-06	4.545468e-09	3.899881e+01	3.008190e+02
1.740000e-06	5.599654e-06	4.565476e-09	3.955354e+01	3.023341e+02
1.750000e-06	5.677228e-06	4.585187e-09	4.010149e+01	3.038084e+02
1.760000e-06	5.753852e-06	4.603147e-09	4.064272e+01	3.052328e+02
1.770000e-06	5.829435e-06	4.619169e-09	4.117661e+01	3.065996e+02
1.780000e-06	5.903782e-06	4.635455e-09	4.170176e+01	3.079028e+02
1.790000e-06	5.976908e-06	4.652394e-09	4.221830e+01	3.091387e+02
1.800000e-06	6.048953e-06	4.669866e-09	4.272719e+01	3.103064e+02
1.810000e-06	6.119940e-06	4.687133e-09	4.322861e+01	3.114077e+02
1.820000e-06	6.189912e-06	4.703516e-09	4.372286e+01	3.124470e+02
1.830000e-06	6.258905e-06	4.719758e-09	4.421020e+01	3.134311e+02
1.840000e-06	6.326907e-06	4.734777e-09	4.469054e+01	3.143685e+02
1.850000e-06	6.393729e-06	4.748637e-09	4.516254e+01	3.152688e+02
1.860000e-06	6.459200e-06	4.761560e-09	4.562499e+01	3.161417e+02
1.870000e-06	6.523516e-06	4.774221e-09	4.607930e+01	3.169968e+02
1.880000e-06	6.586721e-06	4.787396e-09	4.652575e+01	3.178424e+02
1.890000e-06	6.648755e-06	4.801384e-09	4.696393e+01	3.186849e+02
1.900000e-06	6.709694e-06	4.815544e-09	4.739438e+01	3.195287e+02
1.910000e-06	6.769601e-06	4.828256e-09	4.781753e+01	3.203757e+02
1.920000e-06	6.828358e-06	4.840229e-09	4.823257e+01	3.212251e+02
1.930000e-06	6.885759e-06	4.852127e-09	4.863803e+01	3.220739e+02
1.940000e-06	6.941793e-06	4.862824e-09	4.903383e+01	3.229170e+02
1.950000e-06	6.996579e-06	4.871732e-09	4.942081e+01	3.237478e+02
1.960000e-06	7.050085e-06	4.881825e-09	4.979875e+01	3.245586e+02
1.970000e-06	7.102223e-06	4.894627e-09	5.016703e+01	3.253418e+02
1.980000e-06	7.152781e-06	4.907517e-09	5.052416e+01	3.260898e+02
1.990000e-06	7.201633e-06	4.918185e-09	5.086923e+01	3.267965e+02
2.000000e-06	7.249093e-06	4.926899e-09	5.120446e+01	3.274570e+02
2.010000e-06	7.295419e-06	4.936166e-09	5.153168e+01	3.280686e+02
2.020000e-06	7.340571e-06	4.945410e-09	5.185062e+01	3.286309e+02
2.030000e-06	7.384543e-06	4.952747e-09	5.216122e+01	3.291455e+02
2.040000e-06	7.427256e-06	4.958739e-09	5.246293e+01	3.296164e+02
2.050000e-06	7.468478e-06	4.965996e-09	5.275410e+01	3.300490e+02
2.060000e-06	7.508315e-06	4.974822e-09	5.303549e+01	3.304505e+02
2.070000e-06	7.546895e-06	4.983614e-09	5.330800e+01	3.308285e+02
2.080000e-06	7.584210e-06	4.992403e-09	5.357158e+01	3.311909e+02
2.090000e-06	7.620377e-06	5.000350e-09	5.382705e+01	3.315451e+02
2.100000e-06	7.655341e-06	5.006763e-09	5.407402e+01	3.318975e+02
2.110000e-06	7.688751e-06	5.012175e-09	5.431002e+01	3.322528e+02
2.120000e-06	7.720680e-06	5.016154e-09	5.453555e+01	3.326141e+02
2.130000e-06	7.751462e-06	5.020341e-09	5.475298e+01	3.329823e+02
2.140000e-06	7.781025e-06	5.026078e-09	5.496179e+01	3.333560e+02
2.150000e-06	7.809276e-06	5.031742e-09	5.516135e+01	3.337322e+02
2.160000e-06	7.836183e-06	5.038236e-09	5.535141e+01	3.341061e+02
2.170000e-06	7.861499e-06	5.044062e-09	5.553023e+01	3.344717e+02
2.180000e-06	7.885281e-06	5.048197e-09	5.569822e+01	3.348223e+02
2.190000e-06	7.907770e-06	5.053389e-09	5.585707e+01	3.351511e+02
2.200000e-06	7.928952e-06	5.058127e-09	5.600669e+01	3.354518e+02
2.210000e-06	7.948910e-06	5.062469e-09	5.614766e+01	3.357190e+02
2.220000e-06	7.967672e-06	5.066746e-09	5.628019e+01	3.359488e+02
2.230000e-06	7.984967e-06	5.071577e-09	5.640235e+01	3.361392e+02
2.240000e-06	8.000691e-06	5.077904e-09	5.651342e+01	3.362900e+02
2.250000e-06	8.014948e-06	5.082339e-09	5.661413e+01	3.364030e+02
2.260000e-06	8.027751e-06	5.085635e-09	5.670456e+01	3.364818e+02
2.270000e-06	8.039050e-06	5.087478e-09	5.678437e+01	3.365315e+02
2.280000e-06	8.048641e-06	5.089329e-09	5.685212e+01	3.365584e+02
2.290000e-06	8.056599e-06	5.089503e-09	5.690833e+01	3.365694e+02
2.300000e-06	8.063109e-06	5.088842e-09	5.695432e+01	3.365716e+02
2.310000e-06	8.068231e-06	5.087851e-09	5.699050e+01	3.365713e+02
2.320000e-06	8.072119e-06	5.087872e-09	5.701796e+01	3.365742e+02
2.330000e-06	8.074632e-06	5.090849e-09	5.703571e+01	3.365844e+02
2.340000e-06	8.075452e-06	5.092777e-09	5.704150e+01	3.366042e+02
2.350000e-06	8.074823e-06	5.096109e-09	5.703706e+01	3.366342e+02
2.360000e-06	8.072922e-06	5.093833e-09	5.702363e+01	3.366727e+02
2.370000e-06	8.069673e-06	5.090217e-09	5.700069e+01	3.367165e+02
2.380000e-06	8.065237e-06	5.091174e-09	5.696935e+01	3.367606e+02
2.390000e-06	8.059375e-06	5.091048e-09	5.692794e+01	3.367987e+02
2.400000e-06	8.051940e-06	5.091822e-09	5.687542e+01	3.368236e+02
2.410000e-06	8.043326e-06	5.097164e-09	5.681458e+01	3.368281e+02
2.420000e-06	8.033618e-06	5.126955e-09	5.674601e+01	3.368049e+02
2.430000e-06	8.022618e-06	5.111507e-09	5.666830e+01	3.367474e+02
2.440000e-06	8.009906e-06	5.006470e-09	5.657851e+01	3.366501e+02
2.450000e-06	7.994928e-06	5.009545e-09	5.647272e+01	3.365088e+02
2.460000e-06	7.977880e-06	5.028856e-09	5.635230e+01	3.363211e+02
2.470000e-06	7.959452e-06	5.147178e-09	5.622213e+01	3.360861e+02
2.480000e-06	7.940225e-06	5.252077e-09	5.608632e+01	3.358047e+02
2.490000e-06	7.920329e-06	4.946712e-09	5.594578e+01	3.354791e+02
2.500000e-06	7.898875e-06	5.005713e-09	5.579424e+01	3.351129e+02
2.510000e-06	7.875568e-06	5.178382e-09	5.562961e+01	3.347106e+02
2.520000e-06	7.851241e-06	5.044358e-09	5.545777e+01	3.342771e+02
2.530000e-06	7.825739e-06	5.203156e-09	5.527764e+01	3.338176e+02
2.540000e-06	7.798662e-06	5.043460e-09	5.508638e+01	3.333371e+02
2.550000e-06	7.770523e-06	4.831050e-09	5.488762e+01	3.328399e+02
2.560000e-06	7.741168e-06	5.227889e-09	5.468026e+01	3.323296e+02
2.570000e-06	7.710168e-06	5.195030e-09	5.446129e+01	3.318091e+02
2.580000e-06	7.677633e-06	4.935326e-09	5.423148e+01	3.312799e+02
2.590000e-06	7.643708e-06	4.997483e-09	5.399185e+01	3.307429e+02
2.600000e-06	7.608674e-06	5.000732e-09	5.374439e+01	3.301978e+02
2.610000e-06	7.572475e-06	5.180053e-09	5.348869e+01	3.296439e+02
2.620000e-06	7.534736e-06	5.047802e-09	5.322212e+01	3.290800e+02
2.630000e-06	7.495413e-06	4.892244e-09	5.294435e+01	3.285045e+02
2.640000e-06	7.454706e-06	5.083987e-09	5.265682e+01	3.279160e+02
2.650000e-06	7.412699e-06	4.995452e-09	5.236011e+01	3.273132e+02
2.660000e-06	7.369439e-06	5.027112e-09	5.205453e+01	3.266953e+02
2.670000e-06	7.325049e-06	5.024761e-09	5.174098e+01	3.260619e+02
2.680000e-06	7.279324e-06	4.933857e-09	5.141800e+01	3.254130e+02
2.690000e-06	7.232077e-06	4.962576e-09	5.108427e+01	3.247492e+02
2.700000e-06	7.183683e-06	4.968611e-09	5.074243e+01	3.240711e+02
2.710000e-06	7.133912e-06	5.065175e-09	5.039087e+01	3.233796e+02
2.720000e-06	7.082519e-06	4.883487e-09	5.002785e+01	3.226756e+02
2.730000e-06	7.029715e-06	4.867382e-09	4.965487e+01	3.219594e+02
2.740000e-06	6.975504e-06	5.024862e-09	4.927195e+01	3.212309e+02
2.750000e-06	6.919900e-06	4.934007e-09	4.887918e+01	3.204895e+02
2.760000e-06	6.862915e-06	4.886288e-09	4.847667e+01	3.197336e+02
2.770000e-06	6.804754e-06	4.838043e-09	4.806584e+01	3.189609e+02
2.780000e-06	6.745581e-06	4.931439e-09	4.764787e+01	3.181685e+02
2.790000e-06	6.685267e-06	4.906676e-09	4.722184e+01	3.173528e+02
2.800000e-06	6.623627e-06	4.810985e-09	4.678644e+01	3.165098e+02
2.810000e-06	6.560671e-06	4.848220e-09	4.634175e+01	3.156354e+02
2.820000e-06	6.496535e-06	4.844887e-09	4.588872e+01	3.147259e+02
2.830000e-06	6.431281e-06	4.849149e-09	4.542779e+01	3.137779e+02
2.840000e-06	6.365026e-06	4.786085e-09	4.495979e+01	3.127889e+02
2.850000e-06	6.297780e-06	4.799596e-09	4.448480e+01	3.117574e+02
2.860000e-06	6.229451e-06	4.790033e-09	4.400215e+01	3.106830e+02
2.870000e-06	6.160002e-06	4.756238e-09	4.351160e+01	3.095666e+02
2.880000e-06	6.089352e-06	4.759930e-09	4.301255e+01	3.084105e+02
2.890000e-06	6.017573e-06	4.724013e-09	4.250554e+01	3.072177e+02
2.900000e-06	5.944777e-06	4.704713e-09	4.199133e+01	3.059922e+02
2.910000e-06	5.870973e-06	4.687578e-09	4.147001e+01	3.047384e+02
2.920000e-06	5.796175e-06	4.707694e-09	4.094167e+01	3.034609e+02
2.930000e-06	5.720225e-06	4.658314e-09	4.040520e+01	3.021637e+02
2.940000e-06	5.643024e-06	4.616099e-09	3.985988e+01	3.008503e+02
2.950000e-06	5.564665e-06	4.628594e-09	3.930639e+01	2.995231e+02
