# Temperatura_=_20.0
# Concentracion g/m^3_=_9000.0
# C_Vs_to_Am_M_A/Vsm_=_65563218390.804596
# pendiente_HvsI_1/m_=_3716.3
# ordenada_HvsI_A/m_=_1297.0
# frecuencia_Hz_=_212986.67100069803

Tiempo_(s)	Campo_(V.s)	Magnetizacion_(V.s)	Campo_(kA/m)	Magnetizacion_(A/m)
0.000000e+00	-8.034527e-06	-5.121992e-09	-5.692329e+01	-3.360425e+02
1.000000e-08	-8.033661e-06	-5.121665e-09	-5.691716e+01	-3.360803e+02
2.000000e-08	-8.031082e-06	-5.123798e-09	-5.689889e+01	-3.361182e+02
3.000000e-08	-8.027169e-06	-5.123256e-09	-5.687116e+01	-3.361514e+02
4.000000e-08	-8.022164e-06	-5.123905e-09	-5.683570e+01	-3.361744e+02
5.000000e-08	-8.015836e-06	-5.122237e-09	-5.679088e+01	-3.361815e+02
6.000000e-08	-8.008267e-06	-5.118497e-09	-5.673725e+01	-3.361670e+02
7.000000e-08	-7.999424e-06	-5.112214e-09	-5.667460e+01	-3.361258e+02
8.000000e-08	-7.988923e-06	-5.084535e-09	-5.660020e+01	-3.360539e+02
9.000000e-08	-7.976659e-06	-5.119910e-09	-5.651331e+01	-3.359483e+02
1.000000e-07	-7.962463e-06	-5.194683e-09	-5.641273e+01	-3.358079e+02
1.100000e-07	-7.946327e-06	-5.182619e-09	-5.629841e+01	-3.356327e+02
1.200000e-07	-7.928609e-06	-5.144361e-09	-5.617289e+01	-3.354244e+02
1.300000e-07	-7.909627e-06	-5.047922e-09	-5.603840e+01	-3.351858e+02
1.400000e-07	-7.889774e-06	-4.949833e-09	-5.589774e+01	-3.349208e+02
1.500000e-07	-7.868969e-06	-5.179366e-09	-5.575035e+01	-3.346336e+02
1.600000e-07	-7.846960e-06	-5.193807e-09	-5.559442e+01	-3.343287e+02
1.700000e-07	-7.823801e-06	-4.994320e-09	-5.543034e+01	-3.340101e+02
1.800000e-07	-7.799252e-06	-5.063111e-09	-5.525641e+01	-3.336814e+02
1.900000e-07	-7.772961e-06	-5.005840e-09	-5.507015e+01	-3.333448e+02
2.000000e-07	-7.745399e-06	-5.070576e-09	-5.487487e+01	-3.330016e+02
2.100000e-07	-7.716805e-06	-5.234625e-09	-5.467229e+01	-3.326514e+02
2.200000e-07	-7.686744e-06	-4.986034e-09	-5.445931e+01	-3.322929e+02
2.300000e-07	-7.655416e-06	-4.917242e-09	-5.423736e+01	-3.319231e+02
2.400000e-07	-7.622886e-06	-5.127015e-09	-5.400689e+01	-3.315383e+02
2.500000e-07	-7.588857e-06	-5.120029e-09	-5.376580e+01	-3.311343e+02
2.600000e-07	-7.553351e-06	-5.069914e-09	-5.351424e+01	-3.307063e+02
2.700000e-07	-7.516448e-06	-4.947539e-09	-5.325279e+01	-3.302502e+02
2.800000e-07	-7.478188e-06	-4.960919e-09	-5.298173e+01	-3.297620e+02
2.900000e-07	-7.438732e-06	-5.089460e-09	-5.270219e+01	-3.292390e+02
3.000000e-07	-7.398002e-06	-5.052925e-09	-5.241362e+01	-3.286796e+02
3.100000e-07	-7.355701e-06	-4.954917e-09	-5.211392e+01	-3.280835e+02
3.200000e-07	-7.311919e-06	-4.932842e-09	-5.180373e+01	-3.274520e+02
3.300000e-07	-7.266715e-06	-5.004286e-09	-5.148347e+01	-3.267876e+02
3.400000e-07	-7.220095e-06	-4.998599e-09	-5.115318e+01	-3.260939e+02
3.500000e-07	-7.172277e-06	-4.976069e-09	-5.081440e+01	-3.253754e+02
3.600000e-07	-7.122905e-06	-4.936525e-09	-5.046460e+01	-3.246368e+02
3.700000e-07	-7.071654e-06	-4.874685e-09	-5.010150e+01	-3.238831e+02
3.800000e-07	-7.018929e-06	-4.965044e-09	-4.972795e+01	-3.231184e+02
3.900000e-07	-6.965053e-06	-4.981249e-09	-4.934625e+01	-3.223463e+02
4.000000e-07	-6.909972e-06	-4.860917e-09	-4.895601e+01	-3.215688e+02
4.100000e-07	-6.853683e-06	-4.844521e-09	-4.855721e+01	-3.207868e+02
4.200000e-07	-6.796202e-06	-4.910574e-09	-4.814997e+01	-3.199992e+02
4.300000e-07	-6.737369e-06	-4.916334e-09	-4.773314e+01	-3.192037e+02
4.400000e-07	-6.677288e-06	-4.832824e-09	-4.730748e+01	-3.183963e+02
4.500000e-07	-6.616076e-06	-4.811975e-09	-4.687380e+01	-3.175720e+02
4.600000e-07	-6.553750e-06	-4.836442e-09	-4.643224e+01	-3.167251e+02
4.700000e-07	-6.490360e-06	-4.830045e-09	-4.598313e+01	-3.158495e+02
4.800000e-07	-6.425848e-06	-4.801016e-09	-4.552607e+01	-3.149394e+02
4.900000e-07	-6.360178e-06	-4.760931e-09	-4.506081e+01	-3.139894e+02
5.000000e-07	-6.293274e-06	-4.760907e-09	-4.458680e+01	-3.129957e+02
5.100000e-07	-6.225276e-06	-4.764906e-09	-4.410505e+01	-3.119554e+02
5.200000e-07	-6.156356e-06	-4.746555e-09	-4.361676e+01	-3.108677e+02
5.300000e-07	-6.086478e-06	-4.713746e-09	-4.312169e+01	-3.097332e+02
5.400000e-07	-6.015533e-06	-4.691053e-09	-4.261906e+01	-3.085545e+02
5.500000e-07	-5.943558e-06	-4.688143e-09	-4.210913e+01	-3.073353e+02
5.600000e-07	-5.870670e-06	-4.678975e-09	-4.159272e+01	-3.060808e+02
5.700000e-07	-5.796490e-06	-4.645908e-09	-4.106717e+01	-3.047964e+02
5.800000e-07	-5.720888e-06	-4.600958e-09	-4.053155e+01	-3.034879e+02
5.900000e-07	-5.644128e-06	-4.593566e-09	-3.998772e+01	-3.021606e+02
6.000000e-07	-5.566369e-06	-4.598706e-09	-3.943680e+01	-3.008187e+02
6.100000e-07	-5.487543e-06	-4.565943e-09	-3.887833e+01	-2.994652e+02
6.200000e-07	-5.407474e-06	-4.521066e-09	-3.831106e+01	-2.981011e+02
6.300000e-07	-5.326297e-06	-4.511137e-09	-3.773594e+01	-2.967255e+02
6.400000e-07	-5.244283e-06	-4.508657e-09	-3.715488e+01	-2.953354e+02
6.500000e-07	-5.161458e-06	-4.476547e-09	-3.656808e+01	-2.939258e+02
6.600000e-07	-5.077738e-06	-4.435821e-09	-3.597493e+01	-2.924902e+02
6.700000e-07	-4.993199e-06	-4.413294e-09	-3.537599e+01	-2.910209e+02
6.800000e-07	-4.907851e-06	-4.404434e-09	-3.477131e+01	-2.895093e+02
6.900000e-07	-4.821825e-06	-4.384814e-09	-3.416183e+01	-2.879470e+02
7.000000e-07	-4.734951e-06	-4.353010e-09	-3.354634e+01	-2.863258e+02
7.100000e-07	-4.646972e-06	-4.318881e-09	-3.292303e+01	-2.846389e+02
7.200000e-07	-4.558214e-06	-4.295085e-09	-3.229420e+01	-2.828811e+02
7.300000e-07	-4.468817e-06	-4.278728e-09	-3.166083e+01	-2.810488e+02
7.400000e-07	-4.378558e-06	-4.249562e-09	-3.102136e+01	-2.791411e+02
7.500000e-07	-4.287313e-06	-4.209113e-09	-3.037490e+01	-2.771587e+02
7.600000e-07	-4.195210e-06	-4.177330e-09	-2.972237e+01	-2.751047e+02
7.700000e-07	-4.102510e-06	-4.158320e-09	-2.906561e+01	-2.729835e+02
7.800000e-07	-4.009207e-06	-4.132314e-09	-2.840457e+01	-2.708007e+02
7.900000e-07	-3.915226e-06	-4.089913e-09	-2.773873e+01	-2.685624e+02
8.000000e-07	-3.820544e-06	-4.049257e-09	-2.706792e+01	-2.662741e+02
8.100000e-07	-3.725054e-06	-4.023117e-09	-2.639139e+01	-2.639406e+02
8.200000e-07	-3.628877e-06	-3.995567e-09	-2.571000e+01	-2.615649e+02
8.300000e-07	-3.532230e-06	-3.952042e-09	-2.502527e+01	-2.591478e+02
8.400000e-07	-3.435073e-06	-3.905862e-09	-2.433692e+01	-2.566876e+02
8.500000e-07	-3.337176e-06	-3.872520e-09	-2.364334e+01	-2.541799e+02
8.600000e-07	-3.238506e-06	-3.839439e-09	-2.294428e+01	-2.516173e+02
8.700000e-07	-3.139196e-06	-3.795365e-09	-2.224068e+01	-2.489904e+02
8.800000e-07	-3.039375e-06	-3.744140e-09	-2.153347e+01	-2.462875e+02
8.900000e-07	-2.939118e-06	-3.694866e-09	-2.082316e+01	-2.434956e+02
9.000000e-07	-2.838490e-06	-3.655142e-09	-2.011023e+01	-2.406014e+02
9.100000e-07	-2.737521e-06	-3.612884e-09	-1.939488e+01	-2.375914e+02
9.200000e-07	-2.636148e-06	-3.561942e-09	-1.867667e+01	-2.344534e+02
9.300000e-07	-2.534326e-06	-3.507769e-09	-1.795528e+01	-2.311764e+02
9.400000e-07	-2.432013e-06	-3.458218e-09	-1.723041e+01	-2.277518e+02
9.500000e-07	-2.329204e-06	-3.411550e-09	-1.650203e+01	-2.241731e+02
9.600000e-07	-2.225902e-06	-3.355526e-09	-1.577015e+01	-2.204360e+02
9.700000e-07	-2.122125e-06	-3.291146e-09	-1.503490e+01	-2.165380e+02
9.800000e-07	-2.017945e-06	-3.227129e-09	-1.429681e+01	-2.124779e+02
9.900000e-07	-1.913503e-06	-3.168047e-09	-1.355685e+01	-2.082546e+02
1.000000e-06	-1.808794e-06	-3.104194e-09	-1.281501e+01	-2.038658e+02
1.010000e-06	-1.703786e-06	-3.030002e-09	-1.207104e+01	-1.993074e+02
1.020000e-06	-1.598496e-06	-2.954842e-09	-1.132508e+01	-1.945713e+02
1.030000e-06	-1.492886e-06	-2.880627e-09	-1.057685e+01	-1.896447e+02
1.040000e-06	-1.386968e-06	-2.804394e-09	-9.826442e+00	-1.845089e+02
1.050000e-06	-1.280726e-06	-2.720727e-09	-9.073732e+00	-1.791385e+02
1.060000e-06	-1.174193e-06	-2.629837e-09	-8.318962e+00	-1.735009e+02
1.070000e-06	-1.067324e-06	-2.536885e-09	-7.561811e+00	-1.675569e+02
1.080000e-06	-9.600751e-07	-2.440218e-09	-6.801973e+00	-1.612606e+02
1.090000e-06	-8.525809e-07	-2.337649e-09	-6.040395e+00	-1.545616e+02
1.100000e-06	-7.448434e-07	-2.226380e-09	-5.277092e+00	-1.474058e+02
1.110000e-06	-6.368902e-07	-2.107141e-09	-4.512262e+00	-1.397384e+02
1.120000e-06	-5.288495e-07	-1.983576e-09	-3.746811e+00	-1.315060e+02
1.130000e-06	-4.207528e-07	-1.851881e-09	-2.980964e+00	-1.226600e+02
1.140000e-06	-3.125781e-07	-1.704401e-09	-2.214564e+00	-1.131592e+02
1.150000e-06	-2.043380e-07	-1.544534e-09	-1.447701e+00	-1.029730e+02
1.160000e-06	-9.606624e-08	-1.378711e-09	-6.806134e-01	-9.208421e+01
1.170000e-06	1.223066e-08	-1.203991e-09	8.665218e-02	-8.049121e+01
1.180000e-06	1.205390e-07	-1.019212e-09	8.539988e-01	-6.820988e+01
1.190000e-06	2.288321e-07	-8.254303e-10	1.621237e+00	-5.527472e+01
1.200000e-06	3.370036e-07	-6.242758e-10	2.387615e+00	-4.173911e+01
1.210000e-06	4.450118e-07	-4.157330e-10	3.152835e+00	-2.767489e+01
1.220000e-06	5.529412e-07	-1.971666e-10	3.917497e+00	-1.317094e+01
1.230000e-06	6.607082e-07	2.949691e-11	4.681009e+00	1.668994e+00
1.240000e-06	7.682434e-07	2.607553e-10	5.442877e+00	1.672916e+01
1.250000e-06	8.755564e-07	4.932322e-10	6.203172e+00	3.188537e+01
1.260000e-06	9.825806e-07	7.291861e-10	6.961421e+00	4.700888e+01
1.270000e-06	1.089285e-06	9.633855e-10	7.717405e+00	6.197064e+01
1.280000e-06	1.195684e-06	1.193133e-09	8.471223e+00	7.664553e+01
1.290000e-06	1.301799e-06	1.412870e-09	9.223033e+00	9.091641e+01
1.300000e-06	1.407665e-06	1.621236e-09	9.973076e+00	1.046779e+02
1.310000e-06	1.513239e-06	1.819101e-09	1.072105e+01	1.178394e+02
1.320000e-06	1.618504e-06	2.004220e-09	1.146683e+01	1.303278e+02
1.330000e-06	1.723555e-06	2.178135e-09	1.221110e+01	1.420889e+02
1.340000e-06	1.828413e-06	2.340404e-09	1.295400e+01	1.530884e+02
1.350000e-06	1.933023e-06	2.493956e-09	1.369515e+01	1.633118e+02
1.360000e-06	2.037320e-06	2.635540e-09	1.443408e+01	1.727633e+02
1.370000e-06	2.141256e-06	2.765234e-09	1.517045e+01	1.814642e+02
1.380000e-06	2.244872e-06	2.883715e-09	1.590454e+01	1.894509e+02
1.390000e-06	2.348113e-06	2.991802e-09	1.663599e+01	1.967711e+02
1.400000e-06	2.450861e-06	3.090185e-09	1.736395e+01	2.034819e+02
1.410000e-06	2.553153e-06	3.181046e-09	1.808867e+01	2.096454e+02
1.420000e-06	2.655029e-06	3.265589e-09	1.881044e+01	2.153260e+02
1.430000e-06	2.756409e-06	3.344447e-09	1.952870e+01	2.205873e+02
1.440000e-06	2.857379e-06	3.419711e-09	2.024406e+01	2.254892e+02
1.450000e-06	2.958061e-06	3.493162e-09	2.095738e+01	2.300861e+02
1.460000e-06	3.058369e-06	3.561229e-09	2.166804e+01	2.344251e+02
1.470000e-06	3.158156e-06	3.625667e-09	2.237501e+01	2.385447e+02
1.480000e-06	3.257135e-06	3.690041e-09	2.307626e+01	2.424751e+02
1.490000e-06	3.355233e-06	3.750258e-09	2.377127e+01	2.462381e+02
1.500000e-06	3.452723e-06	3.802817e-09	2.446197e+01	2.498476e+02
1.510000e-06	3.549672e-06	3.849022e-09	2.514884e+01	2.533113e+02
1.520000e-06	3.646033e-06	3.894925e-09	2.583154e+01	2.566316e+02
1.530000e-06	3.741766e-06	3.940692e-09	2.650979e+01	2.598076e+02
1.540000e-06	3.836763e-06	3.982667e-09	2.718283e+01	2.628368e+02
1.550000e-06	3.930998e-06	4.021392e-09	2.785047e+01	2.657162e+02
1.560000e-06	4.024547e-06	4.059733e-09	2.851325e+01	2.684442e+02
1.570000e-06	4.117483e-06	4.099342e-09	2.917169e+01	2.710211e+02
1.580000e-06	4.209842e-06	4.136790e-09	2.982603e+01	2.734503e+02
1.590000e-06	4.301370e-06	4.170127e-09	3.047449e+01	2.757385e+02
1.600000e-06	4.391821e-06	4.199922e-09	3.111532e+01	2.778955e+02
1.610000e-06	4.481349e-06	4.227877e-09	3.174962e+01	2.799340e+02
1.620000e-06	4.570148e-06	4.257347e-09	3.237874e+01	2.818688e+02
1.630000e-06	4.658217e-06	4.286853e-09	3.300270e+01	2.837163e+02
1.640000e-06	4.745429e-06	4.313829e-09	3.362058e+01	2.854930e+02
1.650000e-06	4.831748e-06	4.338440e-09	3.423214e+01	2.872147e+02
1.660000e-06	4.917231e-06	4.363893e-09	3.483777e+01	2.888957e+02
1.670000e-06	5.002013e-06	4.390787e-09	3.543843e+01	2.905479e+02
1.680000e-06	5.086136e-06	4.415297e-09	3.603443e+01	2.921799e+02
1.690000e-06	5.169379e-06	4.437045e-09	3.662420e+01	2.937973e+02
1.700000e-06	5.251589e-06	4.458421e-09	3.720664e+01	2.954017e+02
1.710000e-06	5.332920e-06	4.479309e-09	3.778285e+01	2.969918e+02
1.720000e-06	5.413412e-06	4.500338e-09	3.835313e+01	2.985631e+02
1.730000e-06	5.492852e-06	4.521431e-09	3.891595e+01	3.001091e+02
1.740000e-06	5.571238e-06	4.541024e-09	3.947130e+01	3.016218e+02
1.750000e-06	5.648686e-06	4.559247e-09	4.002001e+01	3.030924e+02
1.760000e-06	5.725267e-06	4.577282e-09	4.056257e+01	3.045126e+02
1.770000e-06	5.800779e-06	4.595591e-09	4.109756e+01	3.058752e+02
1.780000e-06	5.874968e-06	4.613534e-09	4.162317e+01	3.071748e+02
1.790000e-06	5.947984e-06	4.629716e-09	4.214048e+01	3.084081e+02
1.800000e-06	6.019991e-06	4.645537e-09	4.265064e+01	3.095747e+02
1.810000e-06	6.090966e-06	4.664073e-09	4.315349e+01	3.106765e+02
1.820000e-06	6.160829e-06	4.682732e-09	4.364846e+01	3.117183e+02
1.830000e-06	6.229677e-06	4.698852e-09	4.413623e+01	3.127067e+02
1.840000e-06	6.297632e-06	4.713352e-09	4.461768e+01	3.136500e+02
1.850000e-06	6.364374e-06	4.728093e-09	4.509054e+01	3.145576e+02
1.860000e-06	6.429760e-06	4.743084e-09	4.555378e+01	3.154387e+02
1.870000e-06	6.494041e-06	4.756441e-09	4.600920e+01	3.163023e+02
1.880000e-06	6.557183e-06	4.768000e-09	4.645655e+01	3.171561e+02
1.890000e-06	6.619133e-06	4.780758e-09	4.689546e+01	3.180061e+02
1.900000e-06	6.680073e-06	4.795272e-09	4.732721e+01	3.188560e+02
1.910000e-06	6.740073e-06	4.810219e-09	4.775230e+01	3.197074e+02
1.920000e-06	6.798824e-06	4.823946e-09	4.816854e+01	3.205594e+02
1.930000e-06	6.856156e-06	4.836185e-09	4.857473e+01	3.214088e+02
1.940000e-06	6.912186e-06	4.847378e-09	4.897170e+01	3.222509e+02
1.950000e-06	6.966961e-06	4.857918e-09	4.935976e+01	3.230794e+02
1.960000e-06	7.020532e-06	4.867783e-09	4.973931e+01	3.238874e+02
1.970000e-06	7.072793e-06	4.878401e-09	5.010957e+01	3.246680e+02
1.980000e-06	7.123405e-06	4.890512e-09	5.046815e+01	3.254148e+02
1.990000e-06	7.172388e-06	4.902337e-09	5.081519e+01	3.261224e+02
2.000000e-06	7.220041e-06	4.913323e-09	5.115279e+01	3.267872e+02
2.010000e-06	7.266433e-06	4.922962e-09	5.148148e+01	3.274074e+02
2.020000e-06	7.311577e-06	4.931502e-09	5.180132e+01	3.279833e+02
2.030000e-06	7.355619e-06	4.939928e-09	5.211334e+01	3.285172e+02
2.040000e-06	7.398482e-06	4.948163e-09	5.241702e+01	3.290132e+02
2.050000e-06	7.439792e-06	4.955352e-09	5.270970e+01	3.294769e+02
2.060000e-06	7.479653e-06	4.962381e-09	5.299211e+01	3.299149e+02
2.070000e-06	7.518315e-06	4.969626e-09	5.326602e+01	3.303343e+02
2.080000e-06	7.555732e-06	4.979177e-09	5.353111e+01	3.307420e+02
2.090000e-06	7.591998e-06	4.989085e-09	5.378805e+01	3.311442e+02
2.100000e-06	7.627050e-06	4.996679e-09	5.403639e+01	3.315458e+02
2.110000e-06	7.660563e-06	5.004248e-09	5.427382e+01	3.319502e+02
2.120000e-06	7.692654e-06	5.011326e-09	5.450118e+01	3.323590e+02
2.130000e-06	7.723540e-06	5.016548e-09	5.472000e+01	3.327717e+02
2.140000e-06	7.753198e-06	5.021203e-09	5.493012e+01	3.331859e+02
2.150000e-06	7.781653e-06	5.025381e-09	5.513172e+01	3.335977e+02
2.160000e-06	7.808743e-06	5.032575e-09	5.532365e+01	3.340017e+02
2.170000e-06	7.834222e-06	5.038306e-09	5.550417e+01	3.343917e+02
2.180000e-06	7.858184e-06	5.042219e-09	5.567394e+01	3.347613e+02
2.190000e-06	7.880817e-06	5.046381e-09	5.583428e+01	3.351042e+02
2.200000e-06	7.902115e-06	5.051996e-09	5.598518e+01	3.354149e+02
2.210000e-06	7.922254e-06	5.058681e-09	5.612786e+01	3.356892e+02
2.220000e-06	7.941199e-06	5.063092e-09	5.626208e+01	3.359243e+02
2.230000e-06	7.958641e-06	5.067757e-09	5.638566e+01	3.361193e+02
2.240000e-06	7.974616e-06	5.071288e-09	5.649883e+01	3.362753e+02
2.250000e-06	7.989132e-06	5.075951e-09	5.660168e+01	3.363950e+02
2.260000e-06	8.002091e-06	5.078774e-09	5.669349e+01	3.364827e+02
2.270000e-06	8.013517e-06	5.078185e-09	5.677444e+01	3.365438e+02
2.280000e-06	8.023213e-06	5.078509e-09	5.684314e+01	3.365847e+02
2.290000e-06	8.031285e-06	5.080732e-09	5.690032e+01	3.366118e+02
2.300000e-06	8.038006e-06	5.082566e-09	5.694794e+01	3.366313e+02
2.310000e-06	8.043352e-06	5.083676e-09	5.698582e+01	3.366487e+02
2.320000e-06	8.047454e-06	5.084743e-09	5.701488e+01	3.366683e+02
2.330000e-06	8.050194e-06	5.085211e-09	5.703430e+01	3.366927e+02
2.340000e-06	8.051211e-06	5.087051e-09	5.704150e+01	3.367230e+02
2.350000e-06	8.050659e-06	5.088386e-09	5.703759e+01	3.367585e+02
2.360000e-06	8.048885e-06	5.083080e-09	5.702502e+01	3.367968e+02
2.370000e-06	8.045884e-06	5.077395e-09	5.700376e+01	3.368341e+02
2.380000e-06	8.041771e-06	5.076130e-09	5.697462e+01	3.368653e+02
2.390000e-06	8.036322e-06	5.078456e-09	5.693601e+01	3.368850e+02
2.400000e-06	8.029232e-06	5.082036e-09	5.688578e+01	3.368873e+02
2.410000e-06	8.020865e-06	5.087929e-09	5.682650e+01	3.368667e+02
2.420000e-06	8.011365e-06	5.119626e-09	5.675919e+01	3.368182e+02
2.430000e-06	8.000608e-06	5.089777e-09	5.668299e+01	3.367381e+02
2.440000e-06	7.988235e-06	4.984922e-09	5.659533e+01	3.366240e+02
2.450000e-06	7.973653e-06	4.989482e-09	5.649201e+01	3.364748e+02
2.460000e-06	7.956938e-06	5.010579e-09	5.637359e+01	3.362912e+02
2.470000e-06	7.938758e-06	5.162748e-09	5.624479e+01	3.360751e+02
2.480000e-06	7.919715e-06	5.238975e-09	5.610987e+01	3.358297e+02
2.490000e-06	7.900056e-06	4.916587e-09	5.597059e+01	3.355588e+02
2.500000e-06	7.878956e-06	5.007069e-09	5.582110e+01	3.352668e+02
2.510000e-06	7.855920e-06	5.124759e-09	5.565789e+01	3.349582e+02
2.520000e-06	7.831877e-06	4.986467e-09	5.548756e+01	3.346369e+02
2.530000e-06	7.806732e-06	5.181377e-09	5.530940e+01	3.343060e+02
2.540000e-06	7.779910e-06	5.002752e-09	5.511937e+01	3.339678e+02
2.550000e-06	7.751956e-06	4.819192e-09	5.492132e+01	3.336230e+02
2.560000e-06	7.722941e-06	5.211172e-09	5.471576e+01	3.332711e+02
2.570000e-06	7.692293e-06	5.159593e-09	5.449862e+01	3.329101e+02
2.580000e-06	7.660051e-06	4.960372e-09	5.427020e+01	3.325370e+02
2.590000e-06	7.626442e-06	5.064374e-09	5.403208e+01	3.321479e+02
2.600000e-06	7.591671e-06	5.053369e-09	5.378574e+01	3.317384e+02
2.610000e-06	7.555762e-06	5.210639e-09	5.353132e+01	3.313039e+02
2.620000e-06	7.518449e-06	5.092625e-09	5.326697e+01	3.308401e+02
2.630000e-06	7.479491e-06	4.956026e-09	5.299095e+01	3.303435e+02
2.640000e-06	7.439068e-06	5.122903e-09	5.270457e+01	3.298116e+02
2.650000e-06	7.397411e-06	5.042221e-09	5.240944e+01	3.292430e+02
2.660000e-06	7.354415e-06	5.088740e-09	5.210481e+01	3.286380e+02
2.670000e-06	7.310325e-06	5.060505e-09	5.179244e+01	3.279981e+02
2.680000e-06	7.265045e-06	4.968348e-09	5.147164e+01	3.273260e+02
2.690000e-06	7.218227e-06	5.015053e-09	5.113995e+01	3.266258e+02
2.700000e-06	7.170143e-06	5.019440e-09	5.079928e+01	3.259019e+02
2.710000e-06	7.120776e-06	5.095976e-09	5.044952e+01	3.251592e+02
2.720000e-06	7.069863e-06	4.915987e-09	5.008881e+01	3.244024e+02
2.730000e-06	7.017510e-06	4.915667e-09	4.971790e+01	3.236357e+02
2.740000e-06	6.963754e-06	5.068474e-09	4.933705e+01	3.228621e+02
2.750000e-06	6.908545e-06	4.963912e-09	4.894590e+01	3.220836e+02
2.760000e-06	6.851965e-06	4.920014e-09	4.854504e+01	3.213004e+02
2.770000e-06	6.794212e-06	4.880812e-09	4.813587e+01	3.205112e+02
2.780000e-06	6.735333e-06	4.964059e-09	4.771872e+01	3.197132e+02
2.790000e-06	6.675331e-06	4.937631e-09	4.729362e+01	3.189021e+02
2.800000e-06	6.614291e-06	4.852867e-09	4.686116e+01	3.180729e+02
2.810000e-06	6.551947e-06	4.889829e-09	4.641946e+01	3.172194e+02
2.820000e-06	6.488204e-06	4.871910e-09	4.596785e+01	3.163358e+02
2.830000e-06	6.423342e-06	4.879831e-09	4.550832e+01	3.154162e+02
2.840000e-06	6.357413e-06	4.829143e-09	4.504122e+01	3.144558e+02
2.850000e-06	6.290444e-06	4.830285e-09	4.456675e+01	3.134506e+02
2.860000e-06	6.222412e-06	4.811678e-09	4.408476e+01	3.123986e+02
2.870000e-06	6.153358e-06	4.781947e-09	4.359552e+01	3.112991e+02
2.880000e-06	6.083227e-06	4.794097e-09	4.309866e+01	3.101534e+02
2.890000e-06	6.011825e-06	4.753718e-09	4.259278e+01	3.089642e+02
2.900000e-06	5.939311e-06	4.730652e-09	4.207904e+01	3.077358e+02
2.910000e-06	5.865857e-06	4.716749e-09	4.155863e+01	3.064733e+02
2.920000e-06	5.791385e-06	4.734575e-09	4.103101e+01	3.051824e+02
2.930000e-06	5.715807e-06	4.685759e-09	4.049555e+01	3.038689e+02
2.940000e-06	5.639106e-06	4.646510e-09	3.995213e+01	3.025376e+02
2.950000e-06	5.561313e-06	4.658926e-09	3.940098e+01	3.011928e+02
