# Temperatura_=_20.0
# Concentracion g/m^3_=_9000.0
# C_Vs_to_Am_M_A/Vsm_=_65563218390.804596
# pendiente_HvsI_1/m_=_3716.3
# ordenada_HvsI_A/m_=_1297.0
# frecuencia_Hz_=_212984.75133471529

Tiempo_(s)	Campo_(V.s)	Magnetizacion_(V.s)	Campo_(kA/m)	Magnetizacion_(A/m)
0.000000e+00	-8.139410e-06	-5.130476e-09	-5.692031e+01	-3.371265e+02
1.000000e-08	-8.138796e-06	-5.126728e-09	-5.691601e+01	-3.371438e+02
2.000000e-08	-8.136533e-06	-5.128012e-09	-5.690019e+01	-3.371624e+02
3.000000e-08	-8.132808e-06	-5.129132e-09	-5.687414e+01	-3.371783e+02
4.000000e-08	-8.127872e-06	-5.130974e-09	-5.683962e+01	-3.371870e+02
5.000000e-08	-8.121617e-06	-5.130941e-09	-5.679587e+01	-3.371829e+02
6.000000e-08	-8.114190e-06	-5.129493e-09	-5.674394e+01	-3.371607e+02
7.000000e-08	-8.105490e-06	-5.127861e-09	-5.668310e+01	-3.371152e+02
8.000000e-08	-8.095115e-06	-5.115212e-09	-5.661055e+01	-3.370419e+02
9.000000e-08	-8.083036e-06	-5.117490e-09	-5.652607e+01	-3.369372e+02
1.000000e-07	-8.069189e-06	-5.171930e-09	-5.642924e+01	-3.367990e+02
1.100000e-07	-8.053271e-06	-5.183942e-09	-5.631792e+01	-3.366262e+02
1.200000e-07	-8.035592e-06	-5.152510e-09	-5.619429e+01	-3.364195e+02
1.300000e-07	-8.016661e-06	-5.114773e-09	-5.606190e+01	-3.361805e+02
1.400000e-07	-7.996802e-06	-5.027115e-09	-5.592302e+01	-3.359120e+02
1.500000e-07	-7.976052e-06	-5.080550e-09	-5.577792e+01	-3.356175e+02
1.600000e-07	-7.954076e-06	-5.201680e-09	-5.562424e+01	-3.353010e+02
1.700000e-07	-7.930886e-06	-5.090272e-09	-5.546206e+01	-3.349662e+02
1.800000e-07	-7.906446e-06	-5.065137e-09	-5.529115e+01	-3.346169e+02
1.900000e-07	-7.880283e-06	-5.094171e-09	-5.510819e+01	-3.342559e+02
2.000000e-07	-7.852709e-06	-5.061146e-09	-5.491536e+01	-3.338852e+02
2.100000e-07	-7.824116e-06	-5.174207e-09	-5.471540e+01	-3.335055e+02
2.200000e-07	-7.794133e-06	-5.109620e-09	-5.450573e+01	-3.331167e+02
2.300000e-07	-7.762817e-06	-4.990724e-09	-5.428673e+01	-3.327173e+02
2.400000e-07	-7.730144e-06	-5.071957e-09	-5.405824e+01	-3.323049e+02
2.500000e-07	-7.695858e-06	-5.117290e-09	-5.381847e+01	-3.318765e+02
2.600000e-07	-7.660213e-06	-5.094989e-09	-5.356920e+01	-3.314285e+02
2.700000e-07	-7.623213e-06	-5.027206e-09	-5.331045e+01	-3.309573e+02
2.800000e-07	-7.584735e-06	-4.986653e-09	-5.304137e+01	-3.304595e+02
2.900000e-07	-7.545028e-06	-5.055213e-09	-5.276369e+01	-3.299324e+02
3.000000e-07	-7.503941e-06	-5.069433e-09	-5.247636e+01	-3.293738e+02
3.100000e-07	-7.461230e-06	-5.011901e-09	-5.217768e+01	-3.287828e+02
3.200000e-07	-7.417057e-06	-4.971117e-09	-5.186877e+01	-3.281595e+02
3.300000e-07	-7.371513e-06	-4.994558e-09	-5.155027e+01	-3.275050e+02
3.400000e-07	-7.324673e-06	-5.012295e-09	-5.122271e+01	-3.268213e+02
3.500000e-07	-7.276545e-06	-4.982769e-09	-5.088615e+01	-3.261112e+02
3.600000e-07	-7.226742e-06	-4.967875e-09	-5.053786e+01	-3.253781e+02
3.700000e-07	-7.175124e-06	-4.926150e-09	-5.017689e+01	-3.246253e+02
3.800000e-07	-7.122084e-06	-4.938109e-09	-4.980597e+01	-3.238559e+02
3.900000e-07	-7.067815e-06	-4.968677e-09	-4.942646e+01	-3.230726e+02
4.000000e-07	-7.012331e-06	-4.912691e-09	-4.903845e+01	-3.222771e+02
4.100000e-07	-6.955534e-06	-4.875586e-09	-4.864126e+01	-3.214703e+02
4.200000e-07	-6.897339e-06	-4.891237e-09	-4.823429e+01	-3.206518e+02
4.300000e-07	-6.837915e-06	-4.908667e-09	-4.781872e+01	-3.198200e+02
4.400000e-07	-6.777309e-06	-4.866486e-09	-4.739490e+01	-3.189723e+02
4.500000e-07	-6.715538e-06	-4.829470e-09	-4.696292e+01	-3.181054e+02
4.600000e-07	-6.652778e-06	-4.833916e-09	-4.652403e+01	-3.172152e+02
4.700000e-07	-6.589033e-06	-4.830885e-09	-4.607825e+01	-3.162975e+02
4.800000e-07	-6.523990e-06	-4.812981e-09	-4.562340e+01	-3.153481e+02
4.900000e-07	-6.457594e-06	-4.776045e-09	-4.515908e+01	-3.143635e+02
5.000000e-07	-6.390087e-06	-4.761225e-09	-4.468699e+01	-3.133407e+02
5.100000e-07	-6.321525e-06	-4.761031e-09	-4.420752e+01	-3.122782e+02
5.200000e-07	-6.251910e-06	-4.749522e-09	-4.372069e+01	-3.111754e+02
5.300000e-07	-6.181335e-06	-4.721929e-09	-4.322715e+01	-3.100332e+02
5.400000e-07	-6.109779e-06	-4.696608e-09	-4.272675e+01	-3.088537e+02
5.500000e-07	-6.037002e-06	-4.689141e-09	-4.221780e+01	-3.076398e+02
5.600000e-07	-5.963006e-06	-4.679933e-09	-4.170034e+01	-3.063954e+02
5.700000e-07	-5.887865e-06	-4.657484e-09	-4.117486e+01	-3.051248e+02
5.800000e-07	-5.811518e-06	-4.619910e-09	-4.064096e+01	-3.038319e+02
5.900000e-07	-5.733986e-06	-4.597116e-09	-4.009876e+01	-3.025206e+02
6.000000e-07	-5.655267e-06	-4.593853e-09	-3.954827e+01	-3.011934e+02
6.100000e-07	-5.575441e-06	-4.578364e-09	-3.899003e+01	-2.998518e+02
6.200000e-07	-5.494517e-06	-4.543315e-09	-3.842411e+01	-2.984957e+02
6.300000e-07	-5.412492e-06	-4.515471e-09	-3.785049e+01	-2.971234e+02
6.400000e-07	-5.329627e-06	-4.505717e-09	-3.727100e+01	-2.957315e+02
6.500000e-07	-5.246050e-06	-4.485944e-09	-3.668654e+01	-2.943150e+02
6.600000e-07	-5.161639e-06	-4.451153e-09	-3.609624e+01	-2.928678e+02
6.700000e-07	-5.076326e-06	-4.419344e-09	-3.549963e+01	-2.913828e+02
6.800000e-07	-4.990160e-06	-4.399853e-09	-3.489705e+01	-2.898527e+02
6.900000e-07	-4.903296e-06	-4.382801e-09	-3.428960e+01	-2.882702e+02
7.000000e-07	-4.815606e-06	-4.357704e-09	-3.367637e+01	-2.866289e+02
7.100000e-07	-4.726746e-06	-4.325436e-09	-3.305496e+01	-2.849233e+02
7.200000e-07	-4.636791e-06	-4.296172e-09	-3.242588e+01	-2.831495e+02
7.300000e-07	-4.546140e-06	-4.274569e-09	-3.179195e+01	-2.813056e+02
7.400000e-07	-4.454824e-06	-4.249029e-09	-3.115336e+01	-2.793914e+02
7.500000e-07	-4.362635e-06	-4.215169e-09	-3.050866e+01	-2.774086e+02
7.600000e-07	-4.269564e-06	-4.180129e-09	-2.985780e+01	-2.753607e+02
7.700000e-07	-4.175743e-06	-4.152229e-09	-2.920170e+01	-2.732520e+02
7.800000e-07	-4.081351e-06	-4.126014e-09	-2.854160e+01	-2.710880e+02
7.900000e-07	-3.986431e-06	-4.091270e-09	-2.787781e+01	-2.688740e+02
8.000000e-07	-3.890775e-06	-4.053245e-09	-2.720887e+01	-2.666147e+02
8.100000e-07	-3.794128e-06	-4.022412e-09	-2.653300e+01	-2.643137e+02
8.200000e-07	-3.696590e-06	-3.993424e-09	-2.585090e+01	-2.619728e+02
8.300000e-07	-3.598494e-06	-3.954605e-09	-2.516489e+01	-2.595916e+02
8.400000e-07	-3.499971e-06	-3.911802e-09	-2.447590e+01	-2.571670e+02
8.500000e-07	-3.400859e-06	-3.875143e-09	-2.378280e+01	-2.546934e+02
8.600000e-07	-3.301060e-06	-3.840399e-09	-2.308489e+01	-2.521626e+02
8.700000e-07	-3.200647e-06	-3.798889e-09	-2.238268e+01	-2.495644e+02
8.800000e-07	-3.099780e-06	-3.749657e-09	-2.167730e+01	-2.468867e+02
8.900000e-07	-2.998455e-06	-3.702581e-09	-2.096872e+01	-2.441164e+02
9.000000e-07	-2.896589e-06	-3.661706e-09	-2.025635e+01	-2.412402e+02
9.100000e-07	-2.794330e-06	-3.619487e-09	-1.954124e+01	-2.382452e+02
9.200000e-07	-2.691750e-06	-3.571562e-09	-1.882387e+01	-2.351196e+02
9.300000e-07	-2.588817e-06	-3.519064e-09	-1.810405e+01	-2.318536e+02
9.400000e-07	-2.485441e-06	-3.468021e-09	-1.738112e+01	-2.284393e+02
9.500000e-07	-2.381496e-06	-3.418448e-09	-1.665421e+01	-2.248713e+02
9.600000e-07	-2.276885e-06	-3.363611e-09	-1.592265e+01	-2.211464e+02
9.700000e-07	-2.171729e-06	-3.301573e-09	-1.518728e+01	-2.172630e+02
9.800000e-07	-2.066182e-06	-3.237472e-09	-1.444917e+01	-2.132207e+02
9.900000e-07	-1.960255e-06	-3.176137e-09	-1.370840e+01	-2.090190e+02
1.000000e-06	-1.854012e-06	-3.112415e-09	-1.296543e+01	-2.046563e+02
1.010000e-06	-1.747482e-06	-3.043280e-09	-1.222045e+01	-2.001284e+02
1.020000e-06	-1.640661e-06	-2.970195e-09	-1.147343e+01	-1.954273e+02
1.030000e-06	-1.533564e-06	-2.894924e-09	-1.072448e+01	-1.905399e+02
1.040000e-06	-1.426123e-06	-2.817116e-09	-9.973123e+00	-1.854468e+02
1.050000e-06	-1.318312e-06	-2.733713e-09	-9.219182e+00	-1.801217e+02
1.060000e-06	-1.210260e-06	-2.644963e-09	-8.463555e+00	-1.745311e+02
1.070000e-06	-1.102021e-06	-2.551104e-09	-7.706621e+00	-1.686342e+02
1.080000e-06	-9.935541e-07	-2.454417e-09	-6.948096e+00	-1.623839e+02
1.090000e-06	-8.848571e-07	-2.353427e-09	-6.187959e+00	-1.557278e+02
1.100000e-06	-7.759825e-07	-2.243818e-09	-5.426580e+00	-1.486103e+02
1.110000e-06	-6.669602e-07	-2.125500e-09	-4.664169e+00	-1.409745e+02
1.120000e-06	-5.578198e-07	-2.000608e-09	-3.900931e+00	-1.327653e+02
1.130000e-06	-4.485532e-07	-1.868809e-09	-3.136810e+00	-1.239319e+02
1.140000e-06	-3.391373e-07	-1.723573e-09	-2.371646e+00	-1.144314e+02
1.150000e-06	-2.296615e-07	-1.564692e-09	-1.606063e+00	-1.042314e+02
1.160000e-06	-1.201939e-07	-1.396205e-09	-8.405366e-01	-9.331294e+01
1.170000e-06	-1.074435e-08	-1.218971e-09	-7.513710e-02	-8.167310e+01
1.180000e-06	9.870304e-08	-1.034443e-09	6.902475e-01	-6.932662e+01
1.190000e-06	2.081665e-07	-8.403281e-10	1.455744e+00	-5.630719e+01
1.200000e-06	3.175302e-07	-6.356198e-10	2.220543e+00	-4.266784e+01
1.210000e-06	4.267461e-07	-4.213388e-10	2.984309e+00	-2.848043e+01
1.220000e-06	5.358679e-07	-1.993052e-10	3.747417e+00	-1.383442e+01
1.230000e-06	6.448334e-07	2.918570e-11	4.509432e+00	1.165380e+00
1.240000e-06	7.536220e-07	2.629049e-10	5.270209e+00	1.640162e+01
1.250000e-06	8.622259e-07	4.992226e-10	6.029695e+00	3.174797e+01
1.260000e-06	9.706627e-07	7.376527e-10	6.788013e+00	4.707311e+01
1.270000e-06	1.078921e-06	9.746834e-10	7.545082e+00	6.224492e+01
1.280000e-06	1.186906e-06	1.208830e-09	8.300237e+00	7.713490e+01
1.290000e-06	1.294629e-06	1.432619e-09	9.053565e+00	9.162225e+01
1.300000e-06	1.402119e-06	1.646129e-09	9.805264e+00	1.055978e+02
1.310000e-06	1.509334e-06	1.846937e-09	1.055503e+01	1.189671e+02
1.320000e-06	1.616283e-06	2.036950e-09	1.130294e+01	1.316535e+02
1.330000e-06	1.722971e-06	2.215117e-09	1.204904e+01	1.435993e+02
1.340000e-06	1.829346e-06	2.380252e-09	1.279293e+01	1.547673e+02
1.350000e-06	1.935432e-06	2.537944e-09	1.353481e+01	1.651404e+02
1.360000e-06	2.041259e-06	2.681924e-09	1.427488e+01	1.747210e+02
1.370000e-06	2.146822e-06	2.812727e-09	1.501310e+01	1.835294e+02
1.380000e-06	2.252027e-06	2.930594e-09	1.574882e+01	1.916012e+02
1.390000e-06	2.356758e-06	3.037418e-09	1.648122e+01	1.989848e+02
1.400000e-06	2.460980e-06	3.135851e-09	1.721006e+01	2.057381e+02
1.410000e-06	2.564695e-06	3.227687e-09	1.793536e+01	2.119249e+02
1.420000e-06	2.667935e-06	3.313883e-09	1.865733e+01	2.176118e+02
1.430000e-06	2.770680e-06	3.393961e-09	1.937585e+01	2.228651e+02
1.440000e-06	2.872993e-06	3.469955e-09	2.009134e+01	2.277477e+02
1.450000e-06	2.974914e-06	3.543966e-09	2.080409e+01	2.323170e+02
1.460000e-06	3.076385e-06	3.613236e-09	2.151369e+01	2.366230e+02
1.470000e-06	3.177340e-06	3.677062e-09	2.221969e+01	2.407073e+02
1.480000e-06	3.277773e-06	3.737685e-09	2.292203e+01	2.446025e+02
1.490000e-06	3.377642e-06	3.796605e-09	2.362044e+01	2.483326e+02
1.500000e-06	3.476847e-06	3.851106e-09	2.431420e+01	2.519130e+02
1.510000e-06	3.575408e-06	3.900870e-09	2.500345e+01	2.553526e+02
1.520000e-06	3.673390e-06	3.946903e-09	2.568866e+01	2.586544e+02
1.530000e-06	3.770723e-06	3.991042e-09	2.636932e+01	2.618173e+02
1.540000e-06	3.867234e-06	4.034167e-09	2.704424e+01	2.648383e+02
1.550000e-06	3.962857e-06	4.075478e-09	2.771295e+01	2.677135e+02
1.560000e-06	4.057693e-06	4.114266e-09	2.837615e+01	2.704401e+02
1.570000e-06	4.151850e-06	4.152222e-09	2.903461e+01	2.730169e+02
1.580000e-06	4.245305e-06	4.189686e-09	2.968815e+01	2.754461e+02
1.590000e-06	4.338048e-06	4.223331e-09	3.033673e+01	2.777329e+02
1.600000e-06	4.430041e-06	4.255624e-09	3.098005e+01	2.798858e+02
1.610000e-06	4.521140e-06	4.285588e-09	3.161711e+01	2.819169e+02
1.620000e-06	4.611401e-06	4.314035e-09	3.224833e+01	2.838404e+02
1.630000e-06	4.700940e-06	4.342600e-09	3.287449e+01	2.856724e+02
1.640000e-06	4.789606e-06	4.369621e-09	3.349455e+01	2.874297e+02
1.650000e-06	4.877226e-06	4.396570e-09	3.410729e+01	2.891289e+02
1.660000e-06	4.963894e-06	4.422536e-09	3.471338e+01	2.907851e+02
1.670000e-06	5.049780e-06	4.447581e-09	3.531399e+01	2.924115e+02
1.680000e-06	5.134901e-06	4.472525e-09	3.590926e+01	2.940180e+02
1.690000e-06	5.219223e-06	4.496152e-09	3.649893e+01	2.956113e+02
1.700000e-06	5.302646e-06	4.516894e-09	3.708232e+01	2.971947e+02
1.710000e-06	5.385242e-06	4.536930e-09	3.765993e+01	2.987676e+02
1.720000e-06	5.467039e-06	4.557804e-09	3.823196e+01	3.003267e+02
1.730000e-06	5.547774e-06	4.578557e-09	3.879655e+01	3.018658e+02
1.740000e-06	5.627426e-06	4.599319e-09	3.935357e+01	3.033770e+02
1.750000e-06	5.706171e-06	4.618945e-09	3.990425e+01	3.048514e+02
1.760000e-06	5.783947e-06	4.637724e-09	4.044815e+01	3.062801e+02
1.770000e-06	5.860619e-06	4.656574e-09	4.098433e+01	3.076550e+02
1.780000e-06	5.936203e-06	4.674711e-09	4.151290e+01	3.089693e+02
1.790000e-06	6.010721e-06	4.691879e-09	4.203402e+01	3.102186e+02
1.800000e-06	6.084061e-06	4.708269e-09	4.254690e+01	3.114010e+02
1.810000e-06	6.156157e-06	4.724869e-09	4.305108e+01	3.125172e+02
1.820000e-06	6.227140e-06	4.742471e-09	4.354747e+01	3.135705e+02
1.830000e-06	6.297093e-06	4.759910e-09	4.403667e+01	3.145667e+02
1.840000e-06	6.366021e-06	4.775950e-09	4.451869e+01	3.155134e+02
1.850000e-06	6.433858e-06	4.790652e-09	4.499308e+01	3.164193e+02
1.860000e-06	6.500586e-06	4.804791e-09	4.545973e+01	3.172939e+02
1.870000e-06	6.566117e-06	4.819291e-09	4.591800e+01	3.181463e+02
1.880000e-06	6.630292e-06	4.833938e-09	4.636678e+01	3.189849e+02
1.890000e-06	6.693284e-06	4.848249e-09	4.680730e+01	3.198165e+02
1.900000e-06	6.755208e-06	4.861728e-09	4.724034e+01	3.206458e+02
1.910000e-06	6.816041e-06	4.875101e-09	4.766576e+01	3.214755e+02
1.920000e-06	6.875785e-06	4.889180e-09	4.808356e+01	3.223057e+02
1.930000e-06	6.934311e-06	4.903247e-09	4.849284e+01	3.231344e+02
1.940000e-06	6.991450e-06	4.914415e-09	4.889243e+01	3.239574e+02
1.950000e-06	7.047180e-06	4.923245e-09	4.928215e+01	3.247691e+02
1.960000e-06	7.101630e-06	4.932919e-09	4.966294e+01	3.255628e+02
1.970000e-06	7.154847e-06	4.945489e-09	5.003509e+01	3.263314e+02
1.980000e-06	7.206725e-06	4.958442e-09	5.039788e+01	3.270681e+02
1.990000e-06	7.257047e-06	4.969769e-09	5.074979e+01	3.277669e+02
2.000000e-06	7.305739e-06	4.980207e-09	5.109030e+01	3.284232e+02
2.010000e-06	7.352971e-06	4.989954e-09	5.142060e+01	3.290343e+02
2.020000e-06	7.398901e-06	4.999879e-09	5.174180e+01	3.295993e+02
2.030000e-06	7.443632e-06	5.008396e-09	5.205461e+01	3.301194e+02
2.040000e-06	7.487199e-06	5.016303e-09	5.235928e+01	3.305978e+02
2.050000e-06	7.529510e-06	5.023644e-09	5.265517e+01	3.310395e+02
2.060000e-06	7.570296e-06	5.030945e-09	5.294039e+01	3.314506e+02
2.070000e-06	7.609611e-06	5.039467e-09	5.321533e+01	3.318382e+02
2.080000e-06	7.647700e-06	5.048695e-09	5.348169e+01	3.322092e+02
2.090000e-06	7.684611e-06	5.056963e-09	5.373982e+01	3.325707e+02
2.100000e-06	7.720365e-06	5.064097e-09	5.398985e+01	3.329285e+02
2.110000e-06	7.754787e-06	5.071108e-09	5.423057e+01	3.332871e+02
2.120000e-06	7.787657e-06	5.078244e-09	5.446044e+01	3.336494e+02
2.130000e-06	7.819106e-06	5.083102e-09	5.468036e+01	3.340165e+02
2.140000e-06	7.849282e-06	5.087083e-09	5.489139e+01	3.343874e+02
2.150000e-06	7.878186e-06	5.093255e-09	5.509352e+01	3.347594e+02
2.160000e-06	7.905855e-06	5.102011e-09	5.528702e+01	3.351284e+02
2.170000e-06	7.932080e-06	5.108795e-09	5.547041e+01	3.354889e+02
2.180000e-06	7.956710e-06	5.110741e-09	5.564266e+01	3.358350e+02
2.190000e-06	7.979881e-06	5.113976e-09	5.580470e+01	3.361604e+02
2.200000e-06	8.001707e-06	5.118408e-09	5.595733e+01	3.364596e+02
2.210000e-06	8.022240e-06	5.122981e-09	5.610092e+01	3.367275e+02
2.220000e-06	8.041584e-06	5.127915e-09	5.623619e+01	3.369606e+02
2.230000e-06	8.059577e-06	5.134173e-09	5.636202e+01	3.371569e+02
2.240000e-06	8.076036e-06	5.143494e-09	5.647712e+01	3.373159e+02
2.250000e-06	8.090963e-06	5.151679e-09	5.658151e+01	3.374391e+02
2.260000e-06	8.104376e-06	5.156429e-09	5.667531e+01	3.375295e+02
2.270000e-06	8.116338e-06	5.159251e-09	5.675896e+01	3.375915e+02
2.280000e-06	8.126644e-06	5.159826e-09	5.683103e+01	3.376304e+02
2.290000e-06	8.135178e-06	5.161222e-09	5.689071e+01	3.376521e+02
2.300000e-06	8.142233e-06	5.161627e-09	5.694005e+01	3.376625e+02
2.310000e-06	8.147960e-06	5.161376e-09	5.698010e+01	3.376671e+02
2.320000e-06	8.152310e-06	5.163059e-09	5.701052e+01	3.376706e+02
2.330000e-06	8.155314e-06	5.165360e-09	5.703153e+01	3.376764e+02
2.340000e-06	8.156740e-06	5.169352e-09	5.704150e+01	3.376865e+02
2.350000e-06	8.156579e-06	5.171111e-09	5.704037e+01	3.377011e+02
2.360000e-06	8.155094e-06	5.170190e-09	5.702999e+01	3.377189e+02
2.370000e-06	8.152293e-06	5.166359e-09	5.701040e+01	3.377373e+02
2.380000e-06	8.148293e-06	5.164628e-09	5.698243e+01	3.377523e+02
2.390000e-06	8.143013e-06	5.162661e-09	5.694550e+01	3.377588e+02
2.400000e-06	8.136149e-06	5.159821e-09	5.689750e+01	3.377516e+02
2.410000e-06	8.127875e-06	5.162495e-09	5.683964e+01	3.377252e+02
2.420000e-06	8.118417e-06	5.174663e-09	5.677350e+01	3.376745e+02
2.430000e-06	8.107683e-06	5.178178e-09	5.669844e+01	3.375951e+02
2.440000e-06	8.095452e-06	5.100541e-09	5.661290e+01	3.374839e+02
2.450000e-06	8.081087e-06	5.075463e-09	5.651245e+01	3.373388e+02
2.460000e-06	8.064498e-06	5.094547e-09	5.639644e+01	3.371592e+02
2.470000e-06	8.046365e-06	5.144312e-09	5.626963e+01	3.369459e+02
2.480000e-06	8.027229e-06	5.270151e-09	5.613581e+01	3.367008e+02
2.490000e-06	8.007415e-06	5.140627e-09	5.599724e+01	3.364268e+02
2.500000e-06	7.986419e-06	5.037563e-09	5.585041e+01	3.361276e+02
2.510000e-06	7.963543e-06	5.176109e-09	5.569044e+01	3.358071e+02
2.520000e-06	7.939393e-06	5.121828e-09	5.552156e+01	3.354692e+02
2.530000e-06	7.914234e-06	5.160709e-09	5.534561e+01	3.351174e+02
2.540000e-06	7.887442e-06	5.176235e-09	5.515825e+01	3.347543e+02
2.550000e-06	7.859392e-06	4.969089e-09	5.496210e+01	3.343818e+02
2.560000e-06	7.830267e-06	5.115249e-09	5.475842e+01	3.340004e+02
2.570000e-06	7.799556e-06	5.204260e-09	5.454365e+01	3.336096e+02
2.580000e-06	7.767245e-06	5.026466e-09	5.431769e+01	3.332079e+02
2.590000e-06	7.733481e-06	5.030169e-09	5.408158e+01	3.327926e+02
2.600000e-06	7.698507e-06	5.013485e-09	5.383699e+01	3.323606e+02
2.610000e-06	7.662433e-06	5.085911e-09	5.358473e+01	3.319083e+02
2.620000e-06	7.624816e-06	5.106746e-09	5.332166e+01	3.314320e+02
2.630000e-06	7.585526e-06	4.960083e-09	5.304690e+01	3.309286e+02
2.640000e-06	7.544834e-06	5.038081e-09	5.276233e+01	3.303953e+02
2.650000e-06	7.502869e-06	5.034576e-09	5.246887e+01	3.298303e+02
2.660000e-06	7.459667e-06	5.022098e-09	5.216674e+01	3.292329e+02
2.670000e-06	7.415352e-06	5.035984e-09	5.185685e+01	3.286032e+02
2.680000e-06	7.369751e-06	4.966322e-09	5.153795e+01	3.279427e+02
2.690000e-06	7.322501e-06	4.993460e-09	5.120752e+01	3.272535e+02
2.700000e-06	7.273952e-06	4.970314e-09	5.086801e+01	3.265386e+02
2.710000e-06	7.224120e-06	5.013377e-09	5.051953e+01	3.258013e+02
2.720000e-06	7.172733e-06	4.954591e-09	5.016016e+01	3.250449e+02
2.730000e-06	7.119847e-06	4.884179e-09	4.979033e+01	3.242726e+02
2.740000e-06	7.065406e-06	4.982602e-09	4.940961e+01	3.234867e+02
2.750000e-06	7.009649e-06	4.942805e-09	4.901969e+01	3.226890e+02
2.760000e-06	6.952621e-06	4.904860e-09	4.862088e+01	3.218800e+02
2.770000e-06	6.894287e-06	4.863768e-09	4.821295e+01	3.210590e+02
2.780000e-06	6.834947e-06	4.889930e-09	4.779797e+01	3.202243e+02
2.790000e-06	6.774551e-06	4.908704e-09	4.737561e+01	3.193731e+02
2.800000e-06	6.712730e-06	4.833874e-09	4.694329e+01	3.185019e+02
2.810000e-06	6.649559e-06	4.835400e-09	4.650152e+01	3.176066e+02
2.820000e-06	6.585332e-06	4.822614e-09	4.605237e+01	3.166828e+02
2.830000e-06	6.519951e-06	4.835921e-09	4.559515e+01	3.157267e+02
2.840000e-06	6.453374e-06	4.803462e-09	4.512956e+01	3.147346e+02
2.850000e-06	6.385806e-06	4.780114e-09	4.465705e+01	3.137041e+02
2.860000e-06	6.317172e-06	4.772771e-09	4.417708e+01	3.126335e+02
2.870000e-06	6.247260e-06	4.745044e-09	4.368817e+01	3.115228e+02
2.880000e-06	6.176168e-06	4.750037e-09	4.319101e+01	3.103729e+02
2.890000e-06	6.104022e-06	4.719344e-09	4.268649e+01	3.091862e+02
2.900000e-06	6.030814e-06	4.694325e-09	4.217453e+01	3.079660e+02
2.910000e-06	5.956650e-06	4.669582e-09	4.165589e+01	3.067160e+02
2.920000e-06	5.881479e-06	4.675705e-09	4.113020e+01	3.054406e+02
2.930000e-06	5.805100e-06	4.657199e-09	4.059607e+01	3.041439e+02
2.940000e-06	5.727404e-06	4.619253e-09	4.005273e+01	3.028292e+02
2.950000e-06	5.648489e-06	4.610445e-09	3.950086e+01	3.014991e+02
