# Temperatura_=_20.0
# Concentracion g/m^3_=_9000.0
# C_Vs_to_Am_M_A/Vsm_=_65563218390.804596
# pendiente_HvsI_1/m_=_3716.3
# ordenada_HvsI_A/m_=_1297.0
# frecuencia_Hz_=_212986.00952058216

Tiempo_(s)	Campo_(V.s)	Magnetizacion_(V.s)	Campo_(kA/m)	Magnetizacion_(A/m)
0.000000e+00	-8.077101e-06	-4.987945e-09	-5.691913e+01	-3.284155e+02
1.000000e-08	-8.076345e-06	-4.990560e-09	-5.691381e+01	-3.284303e+02
2.000000e-08	-8.073966e-06	-4.993113e-09	-5.689704e+01	-3.284488e+02
3.000000e-08	-8.070201e-06	-4.995154e-09	-5.687051e+01	-3.284670e+02
4.000000e-08	-8.065218e-06	-4.992540e-09	-5.683539e+01	-3.284798e+02
5.000000e-08	-8.058950e-06	-4.990471e-09	-5.679123e+01	-3.284818e+02
6.000000e-08	-8.051524e-06	-4.986321e-09	-5.673889e+01	-3.284678e+02
7.000000e-08	-8.042773e-06	-4.983176e-09	-5.667722e+01	-3.284328e+02
8.000000e-08	-8.032300e-06	-4.975041e-09	-5.660342e+01	-3.283732e+02
9.000000e-08	-8.020137e-06	-4.983294e-09	-5.651771e+01	-3.282864e+02
1.000000e-07	-8.006244e-06	-5.022995e-09	-5.641981e+01	-3.281714e+02
1.100000e-07	-7.990337e-06	-5.034921e-09	-5.630771e+01	-3.280285e+02
1.200000e-07	-7.972731e-06	-5.010009e-09	-5.618364e+01	-3.278597e+02
1.300000e-07	-7.953907e-06	-4.953968e-09	-5.605099e+01	-3.276681e+02
1.400000e-07	-7.934165e-06	-4.914565e-09	-5.591187e+01	-3.274578e+02
1.500000e-07	-7.913493e-06	-4.964906e-09	-5.576619e+01	-3.272333e+02
1.600000e-07	-7.891615e-06	-5.021719e-09	-5.561201e+01	-3.269994e+02
1.700000e-07	-7.868549e-06	-4.970891e-09	-5.544947e+01	-3.267601e+02
1.800000e-07	-7.844129e-06	-4.940648e-09	-5.527739e+01	-3.265188e+02
1.900000e-07	-7.818005e-06	-4.952074e-09	-5.509329e+01	-3.262777e+02
2.000000e-07	-7.790510e-06	-4.983130e-09	-5.489954e+01	-3.260376e+02
2.100000e-07	-7.761968e-06	-5.034186e-09	-5.469840e+01	-3.257973e+02
2.200000e-07	-7.732083e-06	-4.959314e-09	-5.448780e+01	-3.255545e+02
2.300000e-07	-7.700847e-06	-4.908867e-09	-5.426768e+01	-3.253050e+02
2.400000e-07	-7.668361e-06	-4.998428e-09	-5.403875e+01	-3.250437e+02
2.500000e-07	-7.634323e-06	-5.027737e-09	-5.379889e+01	-3.247644e+02
2.600000e-07	-7.598783e-06	-4.960177e-09	-5.354844e+01	-3.244607e+02
2.700000e-07	-7.561893e-06	-4.905074e-09	-5.328847e+01	-3.241263e+02
2.800000e-07	-7.523593e-06	-4.911071e-09	-5.301858e+01	-3.237554e+02
2.900000e-07	-7.484068e-06	-4.971818e-09	-5.274004e+01	-3.233433e+02
3.000000e-07	-7.443241e-06	-4.948253e-09	-5.245233e+01	-3.228866e+02
3.100000e-07	-7.400757e-06	-4.887163e-09	-5.215295e+01	-3.223836e+02
3.200000e-07	-7.356809e-06	-4.886364e-09	-5.184325e+01	-3.218345e+02
3.300000e-07	-7.311611e-06	-4.916531e-09	-5.152475e+01	-3.212410e+02
3.400000e-07	-7.265081e-06	-4.925498e-09	-5.119685e+01	-3.206065e+02
3.500000e-07	-7.217270e-06	-4.883543e-09	-5.085993e+01	-3.199357e+02
3.600000e-07	-7.167764e-06	-4.857516e-09	-5.051106e+01	-3.192342e+02
3.700000e-07	-7.116424e-06	-4.854948e-09	-5.014926e+01	-3.185077e+02
3.800000e-07	-7.063741e-06	-4.877382e-09	-4.977801e+01	-3.177622e+02
3.900000e-07	-7.009819e-06	-4.865686e-09	-4.939802e+01	-3.170029e+02
4.000000e-07	-6.954642e-06	-4.805222e-09	-4.900919e+01	-3.162340e+02
4.100000e-07	-6.898273e-06	-4.803876e-09	-4.861196e+01	-3.154582e+02
4.200000e-07	-6.840594e-06	-4.833689e-09	-4.820550e+01	-3.146768e+02
4.300000e-07	-6.781577e-06	-4.819606e-09	-4.778961e+01	-3.138892e+02
4.400000e-07	-6.721354e-06	-4.769494e-09	-4.736521e+01	-3.130933e+02
4.500000e-07	-6.660001e-06	-4.754492e-09	-4.693287e+01	-3.122853e+02
4.600000e-07	-6.597536e-06	-4.774099e-09	-4.649267e+01	-3.114605e+02
4.700000e-07	-6.534036e-06	-4.758317e-09	-4.604519e+01	-3.106133e+02
4.800000e-07	-6.469421e-06	-4.716694e-09	-4.558985e+01	-3.097381e+02
4.900000e-07	-6.403463e-06	-4.693689e-09	-4.512505e+01	-3.088293e+02
5.000000e-07	-6.336275e-06	-4.701915e-09	-4.465158e+01	-3.078822e+02
5.100000e-07	-6.268113e-06	-4.699742e-09	-4.417124e+01	-3.068933e+02
5.200000e-07	-6.199054e-06	-4.668403e-09	-4.368458e+01	-3.058605e+02
5.300000e-07	-6.128937e-06	-4.641040e-09	-4.319047e+01	-3.047833e+02
5.400000e-07	-6.057728e-06	-4.637857e-09	-4.268866e+01	-3.036631e+02
5.500000e-07	-5.985539e-06	-4.639608e-09	-4.217995e+01	-3.025027e+02
5.600000e-07	-5.912313e-06	-4.613275e-09	-4.166392e+01	-3.013063e+02
5.700000e-07	-5.837903e-06	-4.571341e-09	-4.113956e+01	-3.000790e+02
5.800000e-07	-5.762144e-06	-4.547892e-09	-4.060569e+01	-2.988263e+02
5.900000e-07	-5.685149e-06	-4.549348e-09	-4.006310e+01	-2.975538e+02
6.000000e-07	-5.607111e-06	-4.538527e-09	-3.951318e+01	-2.962662e+02
6.100000e-07	-5.527921e-06	-4.499900e-09	-3.895513e+01	-2.949673e+02
6.200000e-07	-5.447518e-06	-4.468961e-09	-3.838853e+01	-2.936593e+02
6.300000e-07	-5.366050e-06	-4.466514e-09	-3.781443e+01	-2.923424e+02
6.400000e-07	-5.283736e-06	-4.462400e-09	-3.723436e+01	-2.910150e+02
6.500000e-07	-5.200603e-06	-4.424862e-09	-3.664852e+01	-2.896734e+02
6.600000e-07	-5.116596e-06	-4.383951e-09	-3.605653e+01	-2.883122e+02
6.700000e-07	-5.031775e-06	-4.371126e-09	-3.545879e+01	-2.869244e+02
6.800000e-07	-4.946161e-06	-4.368714e-09	-3.485548e+01	-2.855023e+02
6.900000e-07	-4.859797e-06	-4.345542e-09	-3.424687e+01	-2.840373e+02
7.000000e-07	-4.772600e-06	-4.306235e-09	-3.363239e+01	-2.825213e+02
7.100000e-07	-4.684434e-06	-4.278752e-09	-3.301109e+01	-2.809467e+02
7.200000e-07	-4.595361e-06	-4.265486e-09	-3.238340e+01	-2.793072e+02
7.300000e-07	-4.505452e-06	-4.245792e-09	-3.174981e+01	-2.775983e+02
7.400000e-07	-4.414683e-06	-4.209324e-09	-3.111016e+01	-2.758171e+02
7.500000e-07	-4.322983e-06	-4.173305e-09	-3.046396e+01	-2.739631e+02
7.600000e-07	-4.230421e-06	-4.152624e-09	-2.981167e+01	-2.720374e+02
7.700000e-07	-4.137199e-06	-4.136781e-09	-2.915474e+01	-2.700430e+02
7.800000e-07	-4.043351e-06	-4.105251e-09	-2.849340e+01	-2.679841e+02
7.900000e-07	-3.948917e-06	-4.062210e-09	-2.782792e+01	-2.658656e+02
8.000000e-07	-3.853809e-06	-4.030115e-09	-2.715770e+01	-2.636923e+02
8.100000e-07	-3.757889e-06	-4.008494e-09	-2.648175e+01	-2.614687e+02
8.200000e-07	-3.661320e-06	-3.976137e-09	-2.580123e+01	-2.591977e+02
8.300000e-07	-3.564226e-06	-3.929105e-09	-2.511702e+01	-2.568806e+02
8.400000e-07	-3.466454e-06	-3.886626e-09	-2.442802e+01	-2.545165e+02
8.500000e-07	-3.367885e-06	-3.854190e-09	-2.373341e+01	-2.521019e+02
8.600000e-07	-3.268668e-06	-3.820953e-09	-2.303422e+01	-2.496309e+02
8.700000e-07	-3.168966e-06	-3.775717e-09	-2.233163e+01	-2.470952e+02
8.800000e-07	-3.068820e-06	-3.728445e-09	-2.162590e+01	-2.444846e+02
8.900000e-07	-2.968205e-06	-3.689934e-09	-2.091687e+01	-2.417874e+02
9.000000e-07	-2.867098e-06	-3.652337e-09	-2.020437e+01	-2.389913e+02
9.100000e-07	-2.765605e-06	-3.606967e-09	-1.948915e+01	-2.360836e+02
9.200000e-07	-2.663725e-06	-3.551959e-09	-1.877121e+01	-2.330527e+02
9.300000e-07	-2.561364e-06	-3.500243e-09	-1.804987e+01	-2.298880e+02
9.400000e-07	-2.458508e-06	-3.453934e-09	-1.732505e+01	-2.265806e+02
9.500000e-07	-2.355170e-06	-3.403664e-09	-1.659683e+01	-2.231238e+02
9.600000e-07	-2.251398e-06	-3.345374e-09	-1.586555e+01	-2.195127e+02
9.700000e-07	-2.147173e-06	-3.287615e-09	-1.513107e+01	-2.157443e+02
9.800000e-07	-2.042562e-06	-3.235403e-09	-1.439388e+01	-2.118166e+02
9.900000e-07	-1.937632e-06	-3.176235e-09	-1.365445e+01	-2.077277e+02
1.000000e-06	-1.832376e-06	-3.108663e-09	-1.291271e+01	-2.034750e+02
1.010000e-06	-1.726844e-06	-3.037398e-09	-1.216903e+01	-1.990538e+02
1.020000e-06	-1.620944e-06	-2.967310e-09	-1.142275e+01	-1.944561e+02
1.030000e-06	-1.514649e-06	-2.895667e-09	-1.067370e+01	-1.896690e+02
1.040000e-06	-1.408051e-06	-2.813630e-09	-9.922499e+00	-1.846742e+02
1.050000e-06	-1.301109e-06	-2.727322e-09	-9.168883e+00	-1.794469e+02
1.060000e-06	-1.193849e-06	-2.642957e-09	-8.413026e+00	-1.739551e+02
1.070000e-06	-1.086324e-06	-2.558346e-09	-7.655299e+00	-1.681604e+02
1.080000e-06	-9.784949e-07	-2.466068e-09	-6.895429e+00	-1.620176e+02
1.090000e-06	-8.704598e-07	-2.362624e-09	-6.134109e+00	-1.554767e+02
1.100000e-06	-7.623116e-07	-2.255270e-09	-5.371991e+00	-1.484841e+02
1.110000e-06	-6.539676e-07	-2.145093e-09	-4.608494e+00	-1.409846e+02
1.120000e-06	-5.455052e-07	-2.025247e-09	-3.844162e+00	-1.329245e+02
1.130000e-06	-4.370159e-07	-1.890452e-09	-3.079641e+00	-1.242540e+02
1.140000e-06	-3.284356e-07	-1.741336e-09	-2.314478e+00	-1.149302e+02
1.150000e-06	-2.197984e-07	-1.585837e-09	-1.548914e+00	-1.049204e+02
1.160000e-06	-1.111702e-07	-1.424602e-09	-7.834140e-01	-9.420481e+01
1.170000e-06	-2.534696e-09	-1.252060e-09	-1.786194e-02	-8.277882e+01
1.180000e-06	1.061275e-07	-1.067485e-09	7.478780e-01	-7.065508e+01
1.190000e-06	2.147791e-07	-8.755765e-10	1.513543e+00	-5.786473e+01
1.200000e-06	3.233164e-07	-6.785517e-10	2.278403e+00	-4.445792e+01
1.210000e-06	4.316984e-07	-4.711838e-10	3.042168e+00	-3.050347e+01
1.220000e-06	5.399861e-07	-2.501121e-10	3.805269e+00	-1.608769e+01
1.230000e-06	6.481750e-07	-2.023675e-11	4.567673e+00	-1.312343e+00
1.240000e-06	7.562180e-07	2.115298e-10	5.329050e+00	1.370808e+01
1.250000e-06	8.640760e-07	4.443839e-10	6.089122e+00	2.884979e+01
1.260000e-06	9.717815e-07	6.814099e-10	6.848121e+00	4.398362e+01
1.270000e-06	1.079285e-06	9.171061e-10	7.605692e+00	5.897915e+01
1.280000e-06	1.186549e-06	1.144629e-09	8.361579e+00	7.370906e+01
1.290000e-06	1.293623e-06	1.363390e-09	9.116128e+00	8.805323e+01
1.300000e-06	1.400410e-06	1.573690e-09	9.868654e+00	1.019026e+02
1.310000e-06	1.506850e-06	1.776725e-09	1.061874e+01	1.151626e+02
1.320000e-06	1.612941e-06	1.968392e-09	1.136635e+01	1.277557e+02
1.330000e-06	1.718707e-06	2.144339e-09	1.211169e+01	1.396232e+02
1.340000e-06	1.824167e-06	2.309307e-09	1.285486e+01	1.507264e+02
1.350000e-06	1.929281e-06	2.464891e-09	1.359560e+01	1.610469e+02
1.360000e-06	2.034098e-06	2.606010e-09	1.433424e+01	1.705854e+02
1.370000e-06	2.138590e-06	2.732250e-09	1.507059e+01	1.793602e+02
1.380000e-06	2.242723e-06	2.847499e-09	1.580441e+01	1.874056e+02
1.390000e-06	2.346543e-06	2.955039e-09	1.653603e+01	1.947680e+02
1.400000e-06	2.450013e-06	3.055514e-09	1.726518e+01	2.015039e+02
1.410000e-06	2.553032e-06	3.148896e-09	1.799115e+01	2.076756e+02
1.420000e-06	2.655441e-06	3.236017e-09	1.871283e+01	2.133486e+02
1.430000e-06	2.757365e-06	3.318858e-09	1.943108e+01	2.185879e+02
1.440000e-06	2.858960e-06	3.396797e-09	2.014702e+01	2.234554e+02
1.450000e-06	2.960144e-06	3.468285e-09	2.086006e+01	2.280078e+02
1.460000e-06	3.060920e-06	3.534352e-09	2.157023e+01	2.322943e+02
1.470000e-06	3.161198e-06	3.597578e-09	2.227689e+01	2.363560e+02
1.480000e-06	3.260877e-06	3.659508e-09	2.297932e+01	2.402252e+02
1.490000e-06	3.359935e-06	3.719409e-09	2.367738e+01	2.439253e+02
1.500000e-06	3.458296e-06	3.773677e-09	2.437053e+01	2.474718e+02
1.510000e-06	3.555880e-06	3.822549e-09	2.505820e+01	2.508732e+02
1.520000e-06	3.652822e-06	3.868856e-09	2.574135e+01	2.541327e+02
1.530000e-06	3.749191e-06	3.913237e-09	2.642046e+01	2.572494e+02
1.540000e-06	3.844800e-06	3.954705e-09	2.709421e+01	2.602203e+02
1.550000e-06	3.939696e-06	3.991014e-09	2.776294e+01	2.630420e+02
1.560000e-06	4.033825e-06	4.025941e-09	2.842627e+01	2.657119e+02
1.570000e-06	4.127246e-06	4.062335e-09	2.908460e+01	2.682295e+02
1.580000e-06	4.220083e-06	4.097991e-09	2.973882e+01	2.705974e+02
1.590000e-06	4.312183e-06	4.131397e-09	3.038785e+01	2.728213e+02
1.600000e-06	4.403447e-06	4.162681e-09	3.103099e+01	2.749105e+02
1.610000e-06	4.493809e-06	4.191673e-09	3.166777e+01	2.768775e+02
1.620000e-06	4.583261e-06	4.220945e-09	3.229813e+01	2.787370e+02
1.630000e-06	4.671812e-06	4.250948e-09	3.292215e+01	2.805056e+02
1.640000e-06	4.759576e-06	4.277350e-09	3.354062e+01	2.822005e+02
1.650000e-06	4.846491e-06	4.301182e-09	3.415310e+01	2.838385e+02
1.660000e-06	4.932487e-06	4.325366e-09	3.475911e+01	2.854349e+02
1.670000e-06	5.017748e-06	4.348995e-09	3.535994e+01	2.870026e+02
1.680000e-06	5.102216e-06	4.371493e-09	3.595519e+01	2.885517e+02
1.690000e-06	5.185870e-06	4.392148e-09	3.654470e+01	2.900884e+02
1.700000e-06	5.268689e-06	4.412100e-09	3.712832e+01	2.916157e+02
1.710000e-06	5.350650e-06	4.433126e-09	3.770590e+01	2.931328e+02
1.720000e-06	5.431720e-06	4.453788e-09	3.827720e+01	2.946355e+02
1.730000e-06	5.511824e-06	4.473168e-09	3.884169e+01	2.961175e+02
1.740000e-06	5.590893e-06	4.491859e-09	3.939889e+01	2.975703e+02
1.750000e-06	5.668919e-06	4.509323e-09	3.994874e+01	2.989846e+02
1.760000e-06	5.746004e-06	4.526002e-09	4.049195e+01	3.003514e+02
1.770000e-06	5.822072e-06	4.542169e-09	4.102800e+01	3.016622e+02
1.780000e-06	5.896954e-06	4.558169e-09	4.155569e+01	3.029104e+02
1.790000e-06	5.970634e-06	4.574979e-09	4.207491e+01	3.040915e+02
1.800000e-06	6.043242e-06	4.591831e-09	4.258658e+01	3.052038e+02
1.810000e-06	6.114719e-06	4.609513e-09	4.309028e+01	3.062484e+02
1.820000e-06	6.185063e-06	4.627224e-09	4.358599e+01	3.072290e+02
1.830000e-06	6.254355e-06	4.642953e-09	4.407429e+01	3.081516e+02
1.840000e-06	6.322633e-06	4.656896e-09	4.455544e+01	3.090245e+02
1.850000e-06	6.389876e-06	4.669701e-09	4.502930e+01	3.098568e+02
1.860000e-06	6.455910e-06	4.680182e-09	4.549464e+01	3.106583e+02
1.870000e-06	6.520699e-06	4.691001e-09	4.595120e+01	3.114386e+02
1.880000e-06	6.584261e-06	4.703387e-09	4.639913e+01	3.122062e+02
1.890000e-06	6.646676e-06	4.715326e-09	4.683896e+01	3.129681e+02
1.900000e-06	6.708039e-06	4.728259e-09	4.727139e+01	3.137293e+02
1.910000e-06	6.768361e-06	4.742928e-09	4.769647e+01	3.144922e+02
1.920000e-06	6.827583e-06	4.756605e-09	4.811381e+01	3.152572e+02
1.930000e-06	6.885466e-06	4.769280e-09	4.852171e+01	3.160219e+02
1.940000e-06	6.941955e-06	4.780612e-09	4.891979e+01	3.167822e+02
1.950000e-06	6.997142e-06	4.790688e-09	4.930869e+01	3.175324e+02
1.960000e-06	7.051091e-06	4.800028e-09	4.968887e+01	3.182657e+02
1.970000e-06	7.103779e-06	4.811040e-09	5.006016e+01	3.189750e+02
1.980000e-06	7.155055e-06	4.823590e-09	5.042150e+01	3.196538e+02
1.990000e-06	7.204738e-06	4.833887e-09	5.077161e+01	3.202960e+02
2.000000e-06	7.252868e-06	4.843301e-09	5.111078e+01	3.208975e+02
2.010000e-06	7.299664e-06	4.853495e-09	5.144055e+01	3.214556e+02
2.020000e-06	7.345198e-06	4.863408e-09	5.176143e+01	3.219699e+02
2.030000e-06	7.389560e-06	4.870535e-09	5.207405e+01	3.224420e+02
2.040000e-06	7.432677e-06	4.877436e-09	5.237789e+01	3.228754e+02
2.050000e-06	7.474359e-06	4.884366e-09	5.267162e+01	3.232753e+02
2.060000e-06	7.514651e-06	4.891269e-09	5.295556e+01	3.236480e+02
2.070000e-06	7.553664e-06	4.899201e-09	5.323048e+01	3.240006e+02
2.080000e-06	7.591400e-06	4.907515e-09	5.349641e+01	3.243400e+02
2.090000e-06	7.627894e-06	4.915886e-09	5.375358e+01	3.246730e+02
2.100000e-06	7.663289e-06	4.923624e-09	5.400301e+01	3.250049e+02
2.110000e-06	7.697392e-06	4.928869e-09	5.424333e+01	3.253397e+02
2.120000e-06	7.729918e-06	4.934359e-09	5.447255e+01	3.256798e+02
2.130000e-06	7.761066e-06	4.940902e-09	5.469204e+01	3.260254e+02
2.140000e-06	7.790954e-06	4.946354e-09	5.490266e+01	3.263747e+02
2.150000e-06	7.819616e-06	4.951889e-09	5.510464e+01	3.267244e+02
2.160000e-06	7.847044e-06	4.958815e-09	5.529792e+01	3.270695e+02
2.170000e-06	7.872939e-06	4.964884e-09	5.548041e+01	3.274042e+02
2.180000e-06	7.897214e-06	4.967251e-09	5.565147e+01	3.277221e+02
2.190000e-06	7.920121e-06	4.971796e-09	5.581290e+01	3.280168e+02
2.200000e-06	7.941750e-06	4.976379e-09	5.596532e+01	3.282826e+02
2.210000e-06	7.962122e-06	4.979398e-09	5.610888e+01	3.285148e+02
2.220000e-06	7.981304e-06	4.983278e-09	5.624406e+01	3.287104e+02
2.230000e-06	7.999149e-06	4.988498e-09	5.636981e+01	3.288679e+02
2.240000e-06	8.015490e-06	4.995280e-09	5.648496e+01	3.289877e+02
2.250000e-06	8.030319e-06	5.001368e-09	5.658946e+01	3.290722e+02
2.260000e-06	8.043657e-06	5.006828e-09	5.668345e+01	3.291252e+02
2.270000e-06	8.055413e-06	5.009076e-09	5.676630e+01	3.291520e+02
2.280000e-06	8.065452e-06	5.006732e-09	5.683704e+01	3.291587e+02
2.290000e-06	8.073783e-06	5.003947e-09	5.689575e+01	3.291518e+02
2.300000e-06	8.080667e-06	5.005812e-09	5.694426e+01	3.291376e+02
2.310000e-06	8.086196e-06	5.007232e-09	5.698323e+01	3.291220e+02
2.320000e-06	8.090367e-06	5.008517e-09	5.701262e+01	3.291096e+02
2.330000e-06	8.093220e-06	5.008700e-09	5.703272e+01	3.291036e+02
2.340000e-06	8.094465e-06	5.008656e-09	5.704150e+01	3.291056e+02
2.350000e-06	8.094171e-06	5.011519e-09	5.703943e+01	3.291156e+02
2.360000e-06	8.092581e-06	5.010959e-09	5.702822e+01	3.291316e+02
2.370000e-06	8.089735e-06	5.008228e-09	5.700817e+01	3.291506e+02
2.380000e-06	8.085732e-06	5.004510e-09	5.697995e+01	3.291679e+02
2.390000e-06	8.080457e-06	5.002098e-09	5.694279e+01	3.291786e+02
2.400000e-06	8.073616e-06	5.002502e-09	5.689457e+01	3.291771e+02
2.410000e-06	8.065321e-06	5.003522e-09	5.683612e+01	3.291582e+02
2.420000e-06	8.055815e-06	5.012714e-09	5.676913e+01	3.291175e+02
2.430000e-06	8.045056e-06	4.999930e-09	5.669331e+01	3.290513e+02
2.440000e-06	8.032772e-06	4.946537e-09	5.660675e+01	3.289575e+02
2.450000e-06	8.018406e-06	4.923700e-09	5.650551e+01	3.288354e+02
2.460000e-06	8.001889e-06	4.945634e-09	5.638912e+01	3.286858e+02
2.470000e-06	7.983805e-06	5.024437e-09	5.626168e+01	3.285110e+02
2.480000e-06	7.964745e-06	5.080180e-09	5.612737e+01	3.283143e+02
2.490000e-06	7.945002e-06	4.989675e-09	5.598823e+01	3.281001e+02
2.500000e-06	7.924092e-06	4.927786e-09	5.584088e+01	3.278728e+02
2.510000e-06	7.901296e-06	4.986769e-09	5.568024e+01	3.276372e+02
2.520000e-06	7.877195e-06	4.986639e-09	5.551040e+01	3.273971e+02
2.530000e-06	7.852113e-06	4.992921e-09	5.533365e+01	3.271558e+02
2.540000e-06	7.825407e-06	4.937188e-09	5.514545e+01	3.269150e+02
2.550000e-06	7.797413e-06	4.836574e-09	5.494818e+01	3.266750e+02
2.560000e-06	7.768426e-06	4.941283e-09	5.474391e+01	3.264344e+02
2.570000e-06	7.737868e-06	4.977347e-09	5.452856e+01	3.261904e+02
2.580000e-06	7.705663e-06	4.879640e-09	5.430162e+01	3.259385e+02
2.590000e-06	7.672062e-06	4.919562e-09	5.406484e+01	3.256733e+02
2.600000e-06	7.637293e-06	4.981903e-09	5.381982e+01	3.253885e+02
2.610000e-06	7.601430e-06	5.015564e-09	5.356709e+01	3.250778e+02
2.620000e-06	7.564114e-06	4.975579e-09	5.330413e+01	3.247348e+02
2.630000e-06	7.525105e-06	4.889701e-09	5.302923e+01	3.243540e+02
2.640000e-06	7.484628e-06	4.972866e-09	5.274399e+01	3.239309e+02
2.650000e-06	7.442892e-06	4.988615e-09	5.244988e+01	3.234628e+02
2.660000e-06	7.399836e-06	4.945036e-09	5.214646e+01	3.229482e+02
2.670000e-06	7.355627e-06	4.938739e-09	5.183493e+01	3.223878e+02
2.680000e-06	7.310192e-06	4.897421e-09	5.151475e+01	3.217837e+02
2.690000e-06	7.263266e-06	4.931306e-09	5.118406e+01	3.211397e+02
2.700000e-06	7.215023e-06	4.928532e-09	5.084409e+01	3.204607e+02
2.710000e-06	7.165497e-06	4.908209e-09	5.049508e+01	3.197524e+02
2.720000e-06	7.114525e-06	4.865065e-09	5.013588e+01	3.190207e+02
2.730000e-06	7.062063e-06	4.851990e-09	4.976618e+01	3.182713e+02
2.740000e-06	7.008064e-06	4.921617e-09	4.938566e+01	3.175092e+02
2.750000e-06	6.952626e-06	4.857614e-09	4.899499e+01	3.167384e+02
2.760000e-06	6.895913e-06	4.813412e-09	4.859533e+01	3.159612e+02
2.770000e-06	6.838036e-06	4.827996e-09	4.818747e+01	3.151784e+02
2.780000e-06	6.779035e-06	4.850114e-09	4.777169e+01	3.143890e+02
2.790000e-06	6.718931e-06	4.830533e-09	4.734814e+01	3.135905e+02
2.800000e-06	6.657661e-06	4.760005e-09	4.691638e+01	3.127788e+02
2.810000e-06	6.595040e-06	4.785670e-09	4.647508e+01	3.119490e+02
2.820000e-06	6.531105e-06	4.794437e-09	4.602454e+01	3.110953e+02
2.830000e-06	6.466056e-06	4.774740e-09	4.556614e+01	3.102122e+02
2.840000e-06	6.399989e-06	4.732531e-09	4.510057e+01	3.092943e+02
2.850000e-06	6.332823e-06	4.716975e-09	4.462725e+01	3.083371e+02
2.860000e-06	6.264556e-06	4.732515e-09	4.414618e+01	3.073373e+02
2.870000e-06	6.195198e-06	4.711130e-09	4.365741e+01	3.062934e+02
2.880000e-06	6.124636e-06	4.690386e-09	4.316016e+01	3.052053e+02
2.890000e-06	6.052944e-06	4.653312e-09	4.265495e+01	3.040747e+02
2.900000e-06	5.980224e-06	4.648381e-09	4.214249e+01	3.029049e+02
2.910000e-06	5.906504e-06	4.649400e-09	4.162299e+01	3.017003e+02
2.920000e-06	5.831763e-06	4.630392e-09	4.109629e+01	3.004661e+02
2.930000e-06	5.755916e-06	4.587726e-09	4.056180e+01	2.992080e+02
2.940000e-06	5.678882e-06	4.564725e-09	4.001895e+01	2.979314e+02
2.950000e-06	5.600600e-06	4.580345e-09	3.946729e+01	2.966407e+02
