# Temperatura_=_20.0
# Concentracion g/m^3_=_9000.0
# C_Vs_to_Am_M_A/Vsm_=_65563218390.804596
# pendiente_HvsI_1/m_=_3716.3
# ordenada_HvsI_A/m_=_1297.0
# frecuencia_Hz_=_212984.2603430926

Tiempo_(s)	Campo_(V.s)	Magnetizacion_(V.s)	Campo_(kA/m)	Magnetizacion_(A/m)
0.000000e+00	-8.155374e-06	-5.022312e-09	-5.692699e+01	-3.307057e+02
1.000000e-08	-8.154670e-06	-5.023958e-09	-5.692207e+01	-3.307460e+02
2.000000e-08	-8.152380e-06	-5.024869e-09	-5.690609e+01	-3.307773e+02
3.000000e-08	-8.148651e-06	-5.022909e-09	-5.688006e+01	-3.307928e+02
4.000000e-08	-8.143689e-06	-5.021119e-09	-5.684542e+01	-3.307858e+02
5.000000e-08	-8.137461e-06	-5.017838e-09	-5.680194e+01	-3.307497e+02
6.000000e-08	-8.129983e-06	-5.016339e-09	-5.674975e+01	-3.306794e+02
7.000000e-08	-8.121124e-06	-5.013673e-09	-5.668791e+01	-3.305710e+02
8.000000e-08	-8.110606e-06	-5.007957e-09	-5.661449e+01	-3.304226e+02
9.000000e-08	-8.098368e-06	-5.028195e-09	-5.652907e+01	-3.302347e+02
1.000000e-07	-8.084262e-06	-5.058364e-09	-5.643060e+01	-3.300098e+02
1.100000e-07	-8.068171e-06	-5.056479e-09	-5.631828e+01	-3.297524e+02
1.200000e-07	-8.050450e-06	-5.034860e-09	-5.619458e+01	-3.294692e+02
1.300000e-07	-8.031523e-06	-4.988921e-09	-5.606247e+01	-3.291677e+02
1.400000e-07	-8.011657e-06	-4.945758e-09	-5.592380e+01	-3.288565e+02
1.500000e-07	-7.990806e-06	-5.010502e-09	-5.577825e+01	-3.285443e+02
1.600000e-07	-7.968688e-06	-5.026581e-09	-5.562386e+01	-3.282391e+02
1.700000e-07	-7.945388e-06	-4.977309e-09	-5.546122e+01	-3.279477e+02
1.800000e-07	-7.920798e-06	-4.991341e-09	-5.528957e+01	-3.276751e+02
1.900000e-07	-7.894501e-06	-4.977722e-09	-5.510601e+01	-3.274242e+02
2.000000e-07	-7.866901e-06	-5.015815e-09	-5.491336e+01	-3.271952e+02
2.100000e-07	-7.838245e-06	-5.055731e-09	-5.471333e+01	-3.269858e+02
2.200000e-07	-7.808142e-06	-4.961285e-09	-5.450320e+01	-3.267913e+02
2.300000e-07	-7.776702e-06	-4.952086e-09	-5.428374e+01	-3.266045e+02
2.400000e-07	-7.743861e-06	-5.014021e-09	-5.405450e+01	-3.264166e+02
2.500000e-07	-7.709467e-06	-5.003486e-09	-5.381442e+01	-3.262177e+02
2.600000e-07	-7.673674e-06	-4.980031e-09	-5.356457e+01	-3.259974e+02
2.700000e-07	-7.636436e-06	-4.926932e-09	-5.330464e+01	-3.257452e+02
2.800000e-07	-7.597825e-06	-4.946479e-09	-5.303513e+01	-3.254520e+02
2.900000e-07	-7.558007e-06	-4.987275e-09	-5.275718e+01	-3.251098e+02
3.000000e-07	-7.516759e-06	-4.951344e-09	-5.246926e+01	-3.247129e+02
3.100000e-07	-7.473865e-06	-4.910316e-09	-5.216985e+01	-3.242578e+02
3.200000e-07	-7.429561e-06	-4.910695e-09	-5.186059e+01	-3.237436e+02
3.300000e-07	-7.383876e-06	-4.936052e-09	-5.154170e+01	-3.231719e+02
3.400000e-07	-7.336854e-06	-4.918163e-09	-5.121347e+01	-3.225466e+02
3.500000e-07	-7.288480e-06	-4.890740e-09	-5.087580e+01	-3.218735e+02
3.600000e-07	-7.238371e-06	-4.871626e-09	-5.052602e+01	-3.211597e+02
3.700000e-07	-7.186496e-06	-4.866773e-09	-5.016392e+01	-3.204132e+02
3.800000e-07	-7.133201e-06	-4.891948e-09	-4.979191e+01	-3.196419e+02
3.900000e-07	-7.078753e-06	-4.864122e-09	-4.941184e+01	-3.188534e+02
4.000000e-07	-7.023188e-06	-4.822727e-09	-4.902398e+01	-3.180540e+02
4.100000e-07	-6.966242e-06	-4.834556e-09	-4.862648e+01	-3.172486e+02
4.200000e-07	-6.907833e-06	-4.847626e-09	-4.821877e+01	-3.164399e+02
4.300000e-07	-6.848256e-06	-4.822402e-09	-4.780290e+01	-3.156288e+02
4.400000e-07	-6.787523e-06	-4.776104e-09	-4.737897e+01	-3.148139e+02
4.500000e-07	-6.725580e-06	-4.771766e-09	-4.694659e+01	-3.139922e+02
4.600000e-07	-6.662591e-06	-4.780538e-09	-4.650691e+01	-3.131589e+02
4.700000e-07	-6.598640e-06	-4.761404e-09	-4.606051e+01	-3.123085e+02
4.800000e-07	-6.533405e-06	-4.727519e-09	-4.560515e+01	-3.114345e+02
4.900000e-07	-6.466780e-06	-4.710633e-09	-4.514009e+01	-3.105311e+02
5.000000e-07	-6.399029e-06	-4.721206e-09	-4.466717e+01	-3.095927e+02
5.100000e-07	-6.330274e-06	-4.711285e-09	-4.418723e+01	-3.086150e+02
5.200000e-07	-6.260526e-06	-4.677285e-09	-4.370037e+01	-3.075952e+02
5.300000e-07	-6.189729e-06	-4.649271e-09	-4.320618e+01	-3.065322e+02
5.400000e-07	-6.117941e-06	-4.647546e-09	-4.270508e+01	-3.054267e+02
5.500000e-07	-6.045069e-06	-4.646395e-09	-4.219642e+01	-3.042811e+02
5.600000e-07	-5.970916e-06	-4.618839e-09	-4.167881e+01	-3.030994e+02
5.700000e-07	-5.895510e-06	-4.581476e-09	-4.115245e+01	-3.018862e+02
5.800000e-07	-5.818922e-06	-4.563814e-09	-4.061784e+01	-3.006470e+02
5.900000e-07	-5.741111e-06	-4.569448e-09	-4.007470e+01	-2.993870e+02
6.000000e-07	-5.662087e-06	-4.554612e-09	-3.952308e+01	-2.981108e+02
6.100000e-07	-5.581965e-06	-4.512685e-09	-3.896381e+01	-2.968218e+02
6.200000e-07	-5.500767e-06	-4.482823e-09	-3.839702e+01	-2.955219e+02
6.300000e-07	-5.418532e-06	-4.481743e-09	-3.782300e+01	-2.942108e+02
6.400000e-07	-5.335530e-06	-4.474593e-09	-3.724362e+01	-2.928864e+02
6.500000e-07	-5.251878e-06	-4.436476e-09	-3.665971e+01	-2.915444e+02
6.600000e-07	-5.167360e-06	-4.396715e-09	-3.606974e+01	-2.901788e+02
6.700000e-07	-5.081919e-06	-4.382978e-09	-3.547334e+01	-2.887822e+02
6.800000e-07	-4.995622e-06	-4.379429e-09	-3.487096e+01	-2.873460e+02
6.900000e-07	-4.908577e-06	-4.357063e-09	-3.426336e+01	-2.858616e+02
7.000000e-07	-4.820795e-06	-4.319068e-09	-3.365061e+01	-2.843207e+02
7.100000e-07	-4.731850e-06	-4.289144e-09	-3.302975e+01	-2.827157e+02
7.200000e-07	-4.641680e-06	-4.274920e-09	-3.240034e+01	-2.810409e+02
7.300000e-07	-4.550725e-06	-4.255452e-09	-3.176544e+01	-2.792922e+02
7.400000e-07	-4.459026e-06	-4.218084e-09	-3.112535e+01	-2.774679e+02
7.500000e-07	-4.366505e-06	-4.178782e-09	-3.047953e+01	-2.755684e+02
7.600000e-07	-4.273152e-06	-4.154240e-09	-2.982790e+01	-2.735965e+02
7.700000e-07	-4.179005e-06	-4.136258e-09	-2.917073e+01	-2.715565e+02
7.800000e-07	-4.084330e-06	-4.106526e-09	-2.850986e+01	-2.694541e+02
7.900000e-07	-3.989173e-06	-4.067960e-09	-2.784564e+01	-2.672959e+02
8.000000e-07	-3.893315e-06	-4.036186e-09	-2.717652e+01	-2.650879e+02
8.100000e-07	-3.796511e-06	-4.012238e-09	-2.650080e+01	-2.628358e+02
8.200000e-07	-3.698774e-06	-3.980236e-09	-2.581857e+01	-2.605433e+02
8.300000e-07	-3.600330e-06	-3.936271e-09	-2.513139e+01	-2.582122e+02
8.400000e-07	-3.501343e-06	-3.895870e-09	-2.444044e+01	-2.558415e+02
8.500000e-07	-3.401859e-06	-3.864108e-09	-2.374601e+01	-2.534276e+02
8.600000e-07	-3.301824e-06	-3.828170e-09	-2.304774e+01	-2.509637e+02
8.700000e-07	-3.201264e-06	-3.783607e-09	-2.234579e+01	-2.484406e+02
8.800000e-07	-3.100226e-06	-3.738109e-09	-2.164052e+01	-2.458467e+02
8.900000e-07	-2.998695e-06	-3.697070e-09	-2.093180e+01	-2.431688e+02
9.000000e-07	-2.896670e-06	-3.657288e-09	-2.021963e+01	-2.403928e+02
9.100000e-07	-2.794180e-06	-3.612127e-09	-1.950423e+01	-2.375047e+02
9.200000e-07	-2.691266e-06	-3.562610e-09	-1.878585e+01	-2.344911e+02
9.300000e-07	-2.588017e-06	-3.514503e-09	-1.806514e+01	-2.313402e+02
9.400000e-07	-2.484403e-06	-3.466950e-09	-1.734189e+01	-2.280421e+02
9.500000e-07	-2.380403e-06	-3.415028e-09	-1.661594e+01	-2.245892e+02
9.600000e-07	-2.275907e-06	-3.357395e-09	-1.588652e+01	-2.209762e+02
9.700000e-07	-2.170767e-06	-3.300601e-09	-1.515261e+01	-2.171998e+02
9.800000e-07	-2.065031e-06	-3.245341e-09	-1.441454e+01	-2.132581e+02
9.900000e-07	-1.958802e-06	-3.183271e-09	-1.367303e+01	-2.091497e+02
1.000000e-06	-1.852216e-06	-3.113265e-09	-1.292903e+01	-2.048724e+02
1.010000e-06	-1.745329e-06	-3.043646e-09	-1.218293e+01	-2.004219e+02
1.020000e-06	-1.638124e-06	-2.977111e-09	-1.143460e+01	-1.957907e+02
1.030000e-06	-1.530659e-06	-2.904442e-09	-1.068447e+01	-1.909664e+02
1.040000e-06	-1.422951e-06	-2.821850e-09	-9.932627e+00	-1.859309e+02
1.050000e-06	-1.314979e-06	-2.735615e-09	-9.178953e+00	-1.806591e+02
1.060000e-06	-1.206761e-06	-2.651998e-09	-8.423555e+00	-1.751190e+02
1.070000e-06	-1.098274e-06	-2.565838e-09	-7.666283e+00	-1.692714e+02
1.080000e-06	-9.895507e-07	-2.468843e-09	-6.907364e+00	-1.630705e+02
1.090000e-06	-8.806416e-07	-2.363152e-09	-6.147146e+00	-1.564652e+02
1.100000e-06	-7.715459e-07	-2.254474e-09	-5.385624e+00	-1.494008e+02
1.110000e-06	-6.622705e-07	-2.143285e-09	-4.622849e+00	-1.418210e+02
1.120000e-06	-5.529257e-07	-2.020306e-09	-3.859589e+00	-1.336712e+02
1.130000e-06	-4.435431e-07	-1.880411e-09	-3.096065e+00	-1.249006e+02
1.140000e-06	-3.340411e-07	-1.730641e-09	-2.331708e+00	-1.154662e+02
1.150000e-06	-2.244742e-07	-1.575732e-09	-1.566898e+00	-1.053351e+02
1.160000e-06	-1.149251e-07	-1.413205e-09	-8.022123e-01	-9.448788e+01
1.170000e-06	-5.409734e-09	-1.236040e-09	-3.776158e-02	-8.292095e+01
1.180000e-06	1.041062e-07	-1.047689e-09	7.266925e-01	-7.064840e+01
1.190000e-06	2.136045e-07	-8.542411e-10	1.491024e+00	-5.770331e+01
1.200000e-06	3.230226e-07	-6.549801e-10	2.254796e+00	-4.413820e+01
1.210000e-06	4.323243e-07	-4.450944e-10	3.017755e+00	-3.002455e+01
1.220000e-06	5.415420e-07	-2.224272e-10	3.780127e+00	-1.545153e+01
1.230000e-06	6.506417e-07	6.787907e-12	4.541677e+00	-5.238306e-01
1.240000e-06	7.595937e-07	2.385075e-10	5.302194e+00	1.464124e+01
1.250000e-06	8.683945e-07	4.720279e-10	6.061657e+00	2.991733e+01
1.260000e-06	9.770101e-07	7.093227e-10	6.819827e+00	4.517306e+01
1.270000e-06	1.085421e-06	9.464666e-10	7.576565e+00	6.027634e+01
1.280000e-06	1.193589e-06	1.177189e-09	8.331617e+00	7.509870e+01
1.290000e-06	1.301519e-06	1.398778e-09	9.084995e+00	8.951956e+01
1.300000e-06	1.409191e-06	1.611490e-09	9.836580e+00	1.034300e+02
1.310000e-06	1.516655e-06	1.814953e-09	1.058671e+01	1.167362e+02
1.320000e-06	1.623946e-06	2.004609e-09	1.133563e+01	1.293620e+02
1.330000e-06	1.731017e-06	2.180778e-09	1.208302e+01	1.412504e+02
1.340000e-06	1.837841e-06	2.344664e-09	1.282869e+01	1.523649e+02
1.350000e-06	1.944421e-06	2.498088e-09	1.357265e+01	1.626892e+02
1.360000e-06	2.050647e-06	2.639798e-09	1.431414e+01	1.722264e+02
1.370000e-06	2.156373e-06	2.769387e-09	1.505214e+01	1.809971e+02
1.380000e-06	2.261653e-06	2.886968e-09	1.578703e+01	1.890373e+02
1.390000e-06	2.366405e-06	2.993685e-09	1.651823e+01	1.963953e+02
1.400000e-06	2.470566e-06	3.092968e-09	1.724530e+01	2.031286e+02
1.410000e-06	2.574266e-06	3.185009e-09	1.796916e+01	2.093004e+02
1.420000e-06	2.677581e-06	3.269975e-09	1.869033e+01	2.149763e+02
1.430000e-06	2.780539e-06	3.350039e-09	1.940901e+01	2.202210e+02
1.440000e-06	2.883134e-06	3.427487e-09	2.012515e+01	2.250960e+02
1.450000e-06	2.985289e-06	3.500728e-09	2.083823e+01	2.296569e+02
1.460000e-06	3.086883e-06	3.568569e-09	2.154738e+01	2.339519e+02
1.470000e-06	3.187959e-06	3.632583e-09	2.225292e+01	2.380208e+02
1.480000e-06	3.288511e-06	3.694992e-09	2.295480e+01	2.418948e+02
1.490000e-06	3.388472e-06	3.754557e-09	2.365256e+01	2.455963e+02
1.500000e-06	3.487893e-06	3.807805e-09	2.434655e+01	2.491401e+02
1.510000e-06	3.586714e-06	3.856243e-09	2.503635e+01	2.525343e+02
1.520000e-06	3.684877e-06	3.903096e-09	2.572156e+01	2.557819e+02
1.530000e-06	3.782268e-06	3.947533e-09	2.640138e+01	2.588824e+02
1.540000e-06	3.878718e-06	3.989257e-09	2.707463e+01	2.618336e+02
1.550000e-06	3.974363e-06	4.026097e-09	2.774226e+01	2.646329e+02
1.560000e-06	4.069338e-06	4.060016e-09	2.840522e+01	2.672790e+02
1.570000e-06	4.163612e-06	4.096181e-09	2.906328e+01	2.697728e+02
1.580000e-06	4.257179e-06	4.131607e-09	2.971640e+01	2.721181e+02
1.590000e-06	4.350036e-06	4.164579e-09	3.036457e+01	2.743222e+02
1.600000e-06	4.442172e-06	4.193672e-09	3.100771e+01	2.763953e+02
1.610000e-06	4.533562e-06	4.222274e-09	3.164564e+01	2.783508e+02
1.620000e-06	4.624179e-06	4.251500e-09	3.227818e+01	2.802040e+02
1.630000e-06	4.713886e-06	4.279417e-09	3.290436e+01	2.819716e+02
1.640000e-06	4.802501e-06	4.306876e-09	3.352291e+01	2.836708e+02
1.650000e-06	4.890105e-06	4.332024e-09	3.413442e+01	2.853175e+02
1.660000e-06	4.976899e-06	4.357894e-09	3.474027e+01	2.869264e+02
1.670000e-06	5.062940e-06	4.380552e-09	3.534086e+01	2.885094e+02
1.680000e-06	5.148152e-06	4.402365e-09	3.593566e+01	2.900752e+02
1.690000e-06	5.232528e-06	4.424069e-09	3.652464e+01	2.916290e+02
1.700000e-06	5.316145e-06	4.442388e-09	3.710831e+01	2.931726e+02
1.710000e-06	5.398918e-06	4.464528e-09	3.768608e+01	2.947043e+02
1.720000e-06	5.480762e-06	4.486658e-09	3.825738e+01	2.962193e+02
1.730000e-06	5.561591e-06	4.507894e-09	3.882159e+01	2.977108e+02
1.740000e-06	5.641347e-06	4.527710e-09	3.937832e+01	2.991704e+02
1.750000e-06	5.720101e-06	4.546629e-09	3.992804e+01	3.005894e+02
1.760000e-06	5.797884e-06	4.565981e-09	4.047099e+01	3.019590e+02
1.770000e-06	5.874712e-06	4.581127e-09	4.100727e+01	3.032720e+02
1.780000e-06	5.950495e-06	4.596789e-09	4.153626e+01	3.045228e+02
1.790000e-06	6.025152e-06	4.613762e-09	4.205739e+01	3.057082e+02
1.800000e-06	6.098579e-06	4.631516e-09	4.256993e+01	3.068278e+02
1.810000e-06	6.170709e-06	4.649213e-09	4.307342e+01	3.078835e+02
1.820000e-06	6.241734e-06	4.665752e-09	4.356920e+01	3.088800e+02
1.830000e-06	6.311737e-06	4.683220e-09	4.405784e+01	3.098240e+02
1.840000e-06	6.380667e-06	4.699674e-09	4.453899e+01	3.107237e+02
1.850000e-06	6.448557e-06	4.713713e-09	4.501288e+01	3.115882e+02
1.860000e-06	6.515365e-06	4.726220e-09	4.547923e+01	3.124266e+02
1.870000e-06	6.580902e-06	4.739444e-09	4.593669e+01	3.132475e+02
1.880000e-06	6.645103e-06	4.753356e-09	4.638483e+01	3.140583e+02
1.890000e-06	6.708132e-06	4.765470e-09	4.682479e+01	3.148643e+02
1.900000e-06	6.770095e-06	4.777343e-09	4.725732e+01	3.156689e+02
1.910000e-06	6.830969e-06	4.791271e-09	4.768223e+01	3.164732e+02
1.920000e-06	6.890726e-06	4.804875e-09	4.809936e+01	3.172757e+02
1.930000e-06	6.949295e-06	4.818049e-09	4.850819e+01	3.180731e+02
1.940000e-06	7.006492e-06	4.830046e-09	4.890744e+01	3.188602e+02
1.950000e-06	7.062288e-06	4.840398e-09	4.929691e+01	3.196307e+02
1.960000e-06	7.116831e-06	4.850064e-09	4.967764e+01	3.203778e+02
1.970000e-06	7.170134e-06	4.861055e-09	5.004971e+01	3.210948e+02
1.980000e-06	7.221999e-06	4.872672e-09	5.041175e+01	3.217754e+02
1.990000e-06	7.272253e-06	4.882046e-09	5.076253e+01	3.224149e+02
2.000000e-06	7.320924e-06	4.891387e-09	5.110227e+01	3.230102e+02
2.010000e-06	7.368169e-06	4.902105e-09	5.143206e+01	3.235600e+02
2.020000e-06	7.414141e-06	4.913182e-09	5.175296e+01	3.240654e+02
2.030000e-06	7.458893e-06	4.922446e-09	5.206534e+01	3.245291e+02
2.040000e-06	7.502465e-06	4.930065e-09	5.236948e+01	3.249558e+02
2.050000e-06	7.544727e-06	4.936696e-09	5.266448e+01	3.253514e+02
2.060000e-06	7.585497e-06	4.942625e-09	5.294907e+01	3.257226e+02
2.070000e-06	7.624923e-06	4.950128e-09	5.322428e+01	3.260765e+02
2.080000e-06	7.663143e-06	4.959654e-09	5.349106e+01	3.264198e+02
2.090000e-06	7.700094e-06	4.969328e-09	5.374899e+01	3.267582e+02
2.100000e-06	7.735805e-06	4.977550e-09	5.399826e+01	3.270962e+02
2.110000e-06	7.770155e-06	4.983319e-09	5.423804e+01	3.274367e+02
2.120000e-06	7.802978e-06	4.987990e-09	5.446716e+01	3.277805e+02
2.130000e-06	7.834453e-06	4.992030e-09	5.468686e+01	3.281267e+02
2.140000e-06	7.864687e-06	4.998215e-09	5.489790e+01	3.284725e+02
2.150000e-06	7.893687e-06	5.004912e-09	5.510033e+01	3.288138e+02
2.160000e-06	7.921417e-06	5.012464e-09	5.529390e+01	3.291452e+02
2.170000e-06	7.947608e-06	5.019526e-09	5.547671e+01	3.294610e+02
2.180000e-06	7.972136e-06	5.024654e-09	5.564793e+01	3.297553e+02
2.190000e-06	7.995245e-06	5.030652e-09	5.580924e+01	3.300229e+02
2.200000e-06	8.017083e-06	5.033795e-09	5.596167e+01	3.302594e+02
2.210000e-06	8.037663e-06	5.036603e-09	5.610533e+01	3.304622e+02
2.220000e-06	8.057071e-06	5.039811e-09	5.624080e+01	3.306300e+02
2.230000e-06	8.075109e-06	5.043855e-09	5.636671e+01	3.307636e+02
2.240000e-06	8.091581e-06	5.049856e-09	5.648169e+01	3.308653e+02
2.250000e-06	8.106523e-06	5.055089e-09	5.658599e+01	3.309393e+02
2.260000e-06	8.119984e-06	5.060700e-09	5.667995e+01	3.309907e+02
2.270000e-06	8.131921e-06	5.064488e-09	5.676328e+01	3.310255e+02
2.280000e-06	8.142099e-06	5.067024e-09	5.683432e+01	3.310500e+02
2.290000e-06	8.150560e-06	5.069753e-09	5.689338e+01	3.310700e+02
2.300000e-06	8.157582e-06	5.071186e-09	5.694240e+01	3.310905e+02
2.310000e-06	8.163200e-06	5.072399e-09	5.698161e+01	3.311152e+02
2.320000e-06	8.167463e-06	5.073314e-09	5.701137e+01	3.311462e+02
2.330000e-06	8.170393e-06	5.075336e-09	5.703182e+01	3.311836e+02
2.340000e-06	8.171779e-06	5.077496e-09	5.704150e+01	3.312257e+02
2.350000e-06	8.171658e-06	5.078888e-09	5.704065e+01	3.312688e+02
2.360000e-06	8.170154e-06	5.078792e-09	5.703015e+01	3.313079e+02
2.370000e-06	8.167333e-06	5.077773e-09	5.701046e+01	3.313366e+02
2.380000e-06	8.163306e-06	5.076158e-09	5.698235e+01	3.313483e+02
2.390000e-06	8.157894e-06	5.075305e-09	5.694458e+01	3.313360e+02
2.400000e-06	8.150881e-06	5.074771e-09	5.689562e+01	3.312935e+02
2.410000e-06	8.142517e-06	5.073820e-09	5.683724e+01	3.312159e+02
2.420000e-06	8.133041e-06	5.076774e-09	5.677110e+01	3.310997e+02
2.430000e-06	8.122321e-06	5.051867e-09	5.669626e+01	3.309434e+02
2.440000e-06	8.110022e-06	5.008641e-09	5.661042e+01	3.307479e+02
2.450000e-06	8.095576e-06	5.005239e-09	5.650958e+01	3.305161e+02
2.460000e-06	8.078931e-06	5.012121e-09	5.639339e+01	3.302531e+02
2.470000e-06	8.060699e-06	5.079129e-09	5.626612e+01	3.299656e+02
2.480000e-06	8.041438e-06	5.118880e-09	5.613168e+01	3.296615e+02
2.490000e-06	8.021507e-06	5.023339e-09	5.599255e+01	3.293495e+02
2.500000e-06	8.000348e-06	5.028251e-09	5.584485e+01	3.290382e+02
2.510000e-06	7.977360e-06	5.023022e-09	5.568440e+01	3.287353e+02
2.520000e-06	7.953119e-06	5.012759e-09	5.551519e+01	3.284474e+02
2.530000e-06	7.927789e-06	5.075311e-09	5.533837e+01	3.281791e+02
2.540000e-06	7.900937e-06	4.948322e-09	5.515094e+01	3.279327e+02
2.550000e-06	7.872851e-06	4.918292e-09	5.495489e+01	3.277080e+02
2.560000e-06	7.843576e-06	5.054431e-09	5.475054e+01	3.275021e+02
2.570000e-06	7.812729e-06	4.978181e-09	5.453522e+01	3.273098e+02
2.580000e-06	7.780336e-06	4.938425e-09	5.430910e+01	3.271236e+02
2.590000e-06	7.746515e-06	4.975157e-09	5.407303e+01	3.269344e+02
2.600000e-06	7.711531e-06	4.960339e-09	5.382883e+01	3.267322e+02
2.610000e-06	7.675368e-06	5.031944e-09	5.357640e+01	3.265063e+02
2.620000e-06	7.637578e-06	4.960013e-09	5.331261e+01	3.262468e+02
2.630000e-06	7.598142e-06	4.933480e-09	5.303734e+01	3.259444e+02
2.640000e-06	7.557344e-06	5.011258e-09	5.275255e+01	3.255918e+02
2.650000e-06	7.515211e-06	4.968057e-09	5.245845e+01	3.251835e+02
2.660000e-06	7.471832e-06	4.973213e-09	5.215566e+01	3.247166e+02
2.670000e-06	7.427349e-06	4.941585e-09	5.184515e+01	3.241908e+02
2.680000e-06	7.381499e-06	4.932366e-09	5.152510e+01	3.236081e+02
2.690000e-06	7.334063e-06	4.949222e-09	5.119398e+01	3.229728e+02
2.700000e-06	7.285328e-06	4.926273e-09	5.085380e+01	3.222910e+02
2.710000e-06	7.235330e-06	4.930553e-09	5.050480e+01	3.215701e+02
2.720000e-06	7.183867e-06	4.862310e-09	5.014557e+01	3.208180e+02
2.730000e-06	7.130897e-06	4.902318e-09	4.977583e+01	3.200428e+02
2.740000e-06	7.076317e-06	4.922937e-09	4.939484e+01	3.192517e+02
2.750000e-06	7.020258e-06	4.842673e-09	4.900353e+01	3.184509e+02
2.760000e-06	6.962964e-06	4.830954e-09	4.860360e+01	3.176447e+02
2.770000e-06	6.904507e-06	4.833745e-09	4.819555e+01	3.168356e+02
2.780000e-06	6.844980e-06	4.865734e-09	4.778004e+01	3.160240e+02
2.790000e-06	6.784371e-06	4.806700e-09	4.735697e+01	3.152082e+02
2.800000e-06	6.722462e-06	4.766144e-09	4.692482e+01	3.143846e+02
2.810000e-06	6.659192e-06	4.796071e-09	4.648318e+01	3.135485e+02
2.820000e-06	6.594795e-06	4.798468e-09	4.603367e+01	3.126939e+02
2.830000e-06	6.529298e-06	4.780065e-09	4.557648e+01	3.118146e+02
2.840000e-06	6.462578e-06	4.724741e-09	4.511076e+01	3.109047e+02
2.850000e-06	6.394811e-06	4.725781e-09	4.463772e+01	3.099588e+02
2.860000e-06	6.326010e-06	4.726846e-09	4.415747e+01	3.089729e+02
2.870000e-06	6.255933e-06	4.715571e-09	4.366831e+01	3.079445e+02
2.880000e-06	6.184618e-06	4.686262e-09	4.317051e+01	3.068730e+02
2.890000e-06	6.112259e-06	4.647988e-09	4.266543e+01	3.057593e+02
2.900000e-06	6.038862e-06	4.649608e-09	4.215309e+01	3.046063e+02
2.910000e-06	5.964435e-06	4.652434e-09	4.163356e+01	3.034179e+02
2.920000e-06	5.889014e-06	4.635834e-09	4.110711e+01	3.021991e+02
2.930000e-06	5.812475e-06	4.583574e-09	4.057284e+01	3.009554e+02
2.940000e-06	5.734552e-06	4.571676e-09	4.002891e+01	2.996919e+02
2.950000e-06	5.655355e-06	4.583070e-09	3.947609e+01	2.984130e+02
