# Temperatura_=_20.0
# Concentracion g/m^3_=_9000.0
# C_Vs_to_Am_M_A/Vsm_=_65563218390.804596
# pendiente_HvsI_1/m_=_3716.3
# ordenada_HvsI_A/m_=_1297.0
# frecuencia_Hz_=_212983.28318571666

Tiempo_(s)	Campo_(V.s)	Magnetizacion_(V.s)	Campo_(kA/m)	Magnetizacion_(A/m)
0.000000e+00	-8.085086e-06	-4.992638e-09	-5.692482e+01	-3.276765e+02
1.000000e-08	-8.084382e-06	-4.989409e-09	-5.691986e+01	-3.276937e+02
2.000000e-08	-8.082042e-06	-4.991665e-09	-5.690338e+01	-3.277080e+02
3.000000e-08	-8.078318e-06	-4.993281e-09	-5.687717e+01	-3.277157e+02
4.000000e-08	-8.073401e-06	-4.994175e-09	-5.684255e+01	-3.277128e+02
5.000000e-08	-8.067186e-06	-4.993019e-09	-5.679879e+01	-3.276953e+02
6.000000e-08	-8.059813e-06	-4.990716e-09	-5.674688e+01	-3.276597e+02
7.000000e-08	-8.051218e-06	-4.987943e-09	-5.668636e+01	-3.276032e+02
8.000000e-08	-8.040929e-06	-4.974036e-09	-5.661392e+01	-3.275243e+02
9.000000e-08	-8.028952e-06	-4.977020e-09	-5.652959e+01	-3.274226e+02
1.000000e-07	-8.015282e-06	-5.035313e-09	-5.643335e+01	-3.272989e+02
1.100000e-07	-7.999493e-06	-5.047298e-09	-5.632218e+01	-3.271554e+02
1.200000e-07	-7.981955e-06	-5.010777e-09	-5.619870e+01	-3.269953e+02
1.300000e-07	-7.963179e-06	-4.963912e-09	-5.606651e+01	-3.268224e+02
1.400000e-07	-7.943406e-06	-4.875837e-09	-5.592728e+01	-3.266412e+02
1.500000e-07	-7.922731e-06	-4.953486e-09	-5.578172e+01	-3.264557e+02
1.600000e-07	-7.900898e-06	-5.076743e-09	-5.562800e+01	-3.262700e+02
1.700000e-07	-7.877930e-06	-4.955154e-09	-5.546629e+01	-3.260868e+02
1.800000e-07	-7.853666e-06	-4.941351e-09	-5.529545e+01	-3.259080e+02
1.900000e-07	-7.827575e-06	-4.969563e-09	-5.511175e+01	-3.257337e+02
2.000000e-07	-7.800060e-06	-4.942280e-09	-5.491802e+01	-3.255626e+02
2.100000e-07	-7.771622e-06	-5.063900e-09	-5.471780e+01	-3.253918e+02
2.200000e-07	-7.741802e-06	-4.966928e-09	-5.450785e+01	-3.252167e+02
2.300000e-07	-7.710622e-06	-4.854869e-09	-5.428832e+01	-3.250317e+02
2.400000e-07	-7.678149e-06	-4.974548e-09	-5.405969e+01	-3.248302e+02
2.500000e-07	-7.644099e-06	-5.013191e-09	-5.381995e+01	-3.246052e+02
2.600000e-07	-7.608651e-06	-4.978862e-09	-5.357037e+01	-3.243496e+02
2.700000e-07	-7.571860e-06	-4.903555e-09	-5.331134e+01	-3.240572e+02
2.800000e-07	-7.533632e-06	-4.881388e-09	-5.304218e+01	-3.237225e+02
2.900000e-07	-7.494231e-06	-4.972836e-09	-5.276477e+01	-3.233414e+02
3.000000e-07	-7.453499e-06	-4.961111e-09	-5.247799e+01	-3.229116e+02
3.100000e-07	-7.411140e-06	-4.883929e-09	-5.217975e+01	-3.224326e+02
3.200000e-07	-7.367374e-06	-4.869952e-09	-5.187161e+01	-3.219056e+02
3.300000e-07	-7.322196e-06	-4.906897e-09	-5.155352e+01	-3.213337e+02
3.400000e-07	-7.275620e-06	-4.913875e-09	-5.122559e+01	-3.207213e+02
3.500000e-07	-7.227847e-06	-4.878438e-09	-5.088924e+01	-3.200739e+02
3.600000e-07	-7.178450e-06	-4.861192e-09	-5.054145e+01	-3.193976e+02
3.700000e-07	-7.127141e-06	-4.826397e-09	-5.018019e+01	-3.186987e+02
3.800000e-07	-7.074405e-06	-4.856349e-09	-4.980889e+01	-3.179829e+02
3.900000e-07	-7.020497e-06	-4.877029e-09	-4.942935e+01	-3.172552e+02
4.000000e-07	-6.965387e-06	-4.796182e-09	-4.904133e+01	-3.165192e+02
4.100000e-07	-6.909110e-06	-4.775977e-09	-4.864510e+01	-3.157769e+02
4.200000e-07	-6.851447e-06	-4.811209e-09	-4.823911e+01	-3.150287e+02
4.300000e-07	-6.792423e-06	-4.820580e-09	-4.782354e+01	-3.142731e+02
4.400000e-07	-6.732207e-06	-4.762234e-09	-4.739958e+01	-3.135072e+02
4.500000e-07	-6.670790e-06	-4.731047e-09	-4.696715e+01	-3.127266e+02
4.600000e-07	-6.608316e-06	-4.756806e-09	-4.652729e+01	-3.119260e+02
4.700000e-07	-6.544959e-06	-4.752576e-09	-4.608122e+01	-3.110997e+02
4.800000e-07	-6.480523e-06	-4.720551e-09	-4.562754e+01	-3.102420e+02
4.900000e-07	-6.414592e-06	-4.683008e-09	-4.516334e+01	-3.093476e+02
5.000000e-07	-6.347393e-06	-4.682209e-09	-4.469021e+01	-3.084125e+02
5.100000e-07	-6.279297e-06	-4.684022e-09	-4.421077e+01	-3.074338e+02
5.200000e-07	-6.210250e-06	-4.662401e-09	-4.372462e+01	-3.064102e+02
5.300000e-07	-6.140078e-06	-4.629606e-09	-4.323056e+01	-3.053422e+02
5.400000e-07	-6.068883e-06	-4.610232e-09	-4.272930e+01	-3.042321e+02
5.500000e-07	-5.996774e-06	-4.614192e-09	-4.222160e+01	-3.030833e+02
5.600000e-07	-5.923478e-06	-4.603395e-09	-4.170554e+01	-3.019008e+02
5.700000e-07	-5.848878e-06	-4.572741e-09	-4.118030e+01	-3.006899e+02
5.800000e-07	-5.773025e-06	-4.539875e-09	-4.064624e+01	-2.994563e+02
5.900000e-07	-5.696054e-06	-4.532852e-09	-4.010431e+01	-2.982051e+02
6.000000e-07	-5.618043e-06	-4.532736e-09	-3.955506e+01	-2.969408e+02
6.100000e-07	-5.538827e-06	-4.503902e-09	-3.899733e+01	-2.956662e+02
6.200000e-07	-5.458364e-06	-4.463733e-09	-3.843081e+01	-2.943826e+02
6.300000e-07	-5.376858e-06	-4.446449e-09	-3.785694e+01	-2.930892e+02
6.400000e-07	-5.294438e-06	-4.443123e-09	-3.727665e+01	-2.917833e+02
6.500000e-07	-5.211253e-06	-4.417909e-09	-3.669097e+01	-2.904600e+02
6.600000e-07	-5.127346e-06	-4.380211e-09	-3.610020e+01	-2.891132e+02
6.700000e-07	-5.042569e-06	-4.358159e-09	-3.550331e+01	-2.877351e+02
6.800000e-07	-4.956921e-06	-4.350160e-09	-3.490028e+01	-2.863174e+02
6.900000e-07	-4.870505e-06	-4.331343e-09	-3.429185e+01	-2.848517e+02
7.000000e-07	-4.783352e-06	-4.297899e-09	-3.367824e+01	-2.833299e+02
7.100000e-07	-4.695273e-06	-4.265519e-09	-3.305810e+01	-2.817451e+02
7.200000e-07	-4.606033e-06	-4.243614e-09	-3.242978e+01	-2.800918e+02
7.300000e-07	-4.515805e-06	-4.224117e-09	-3.179451e+01	-2.783665e+02
7.400000e-07	-4.424870e-06	-4.194488e-09	-3.115426e+01	-2.765677e+02
7.500000e-07	-4.333204e-06	-4.161389e-09	-3.050887e+01	-2.746960e+02
7.600000e-07	-4.240697e-06	-4.135898e-09	-2.985756e+01	-2.727540e+02
7.700000e-07	-4.147378e-06	-4.117186e-09	-2.920052e+01	-2.707458e+02
7.800000e-07	-4.053428e-06	-4.090569e-09	-2.853905e+01	-2.686767e+02
7.900000e-07	-3.958910e-06	-4.051999e-09	-2.787357e+01	-2.665520e+02
8.000000e-07	-3.863777e-06	-4.014841e-09	-2.720377e+01	-2.643773e+02
8.100000e-07	-3.767950e-06	-3.986955e-09	-2.652908e+01	-2.621568e+02
8.200000e-07	-3.671340e-06	-3.957755e-09	-2.584887e+01	-2.598933e+02
8.300000e-07	-3.573962e-06	-3.915971e-09	-2.516326e+01	-2.575874e+02
8.400000e-07	-3.475871e-06	-3.873111e-09	-2.447263e+01	-2.552372e+02
8.500000e-07	-3.377155e-06	-3.841073e-09	-2.377760e+01	-2.528382e+02
8.600000e-07	-3.277932e-06	-3.810512e-09	-2.307900e+01	-2.503831e+02
8.700000e-07	-3.178270e-06	-3.770538e-09	-2.237731e+01	-2.478625e+02
8.800000e-07	-3.078144e-06	-3.723210e-09	-2.167235e+01	-2.452649e+02
8.900000e-07	-2.977493e-06	-3.679263e-09	-2.096369e+01	-2.425776e+02
9.000000e-07	-2.876368e-06	-3.639746e-09	-2.025170e+01	-2.397873e+02
9.100000e-07	-2.774803e-06	-3.595007e-09	-1.953661e+01	-2.368811e+02
9.200000e-07	-2.672796e-06	-3.544446e-09	-1.881840e+01	-2.338471e+02
9.300000e-07	-2.570358e-06	-3.492485e-09	-1.809716e+01	-2.306749e+02
9.400000e-07	-2.467508e-06	-3.443796e-09	-1.737303e+01	-2.273562e+02
9.500000e-07	-2.364274e-06	-3.396283e-09	-1.664619e+01	-2.238853e+02
9.600000e-07	-2.260654e-06	-3.340671e-09	-1.591663e+01	-2.202585e+02
9.700000e-07	-2.156569e-06	-3.280947e-09	-1.518379e+01	-2.164741e+02
9.800000e-07	-2.052029e-06	-3.222130e-09	-1.444776e+01	-2.125316e+02
9.900000e-07	-1.947039e-06	-3.162618e-09	-1.370855e+01	-2.084306e+02
1.000000e-06	-1.841491e-06	-3.099415e-09	-1.296542e+01	-2.041701e+02
1.010000e-06	-1.735452e-06	-3.028861e-09	-1.221883e+01	-1.997465e+02
1.020000e-06	-1.629066e-06	-2.955994e-09	-1.146980e+01	-1.951529e+02
1.030000e-06	-1.522431e-06	-2.883181e-09	-1.071901e+01	-1.903773e+02
1.040000e-06	-1.415554e-06	-2.807329e-09	-9.966516e+00	-1.854017e+02
1.050000e-06	-1.308434e-06	-2.725032e-09	-9.212314e+00	-1.802015e+02
1.060000e-06	-1.201107e-06	-2.639123e-09	-8.456658e+00	-1.747445e+02
1.070000e-06	-1.093568e-06	-2.552897e-09	-7.699503e+00	-1.689917e+02
1.080000e-06	-9.858472e-07	-2.460665e-09	-6.941073e+00	-1.628972e+02
1.090000e-06	-8.779302e-07	-2.359946e-09	-6.181260e+00	-1.564100e+02
1.100000e-06	-7.697909e-07	-2.252581e-09	-5.419881e+00	-1.494752e+02
1.110000e-06	-6.615092e-07	-2.139463e-09	-4.657500e+00	-1.420366e+02
1.120000e-06	-5.530956e-07	-2.017267e-09	-3.894191e+00	-1.340392e+02
1.130000e-06	-4.445681e-07	-1.885170e-09	-3.130079e+00	-1.254320e+02
1.140000e-06	-3.360067e-07	-1.742475e-09	-2.365729e+00	-1.161711e+02
1.150000e-06	-2.274047e-07	-1.588188e-09	-1.601093e+00	-1.062227e+02
1.160000e-06	-1.187645e-07	-1.424726e-09	-8.361877e-01	-9.556630e+01
1.170000e-06	-1.006453e-08	-1.252062e-09	-7.086153e-02	-8.419647e+01
1.180000e-06	9.867146e-08	-1.070720e-09	6.947180e-01	-7.212534e+01
1.190000e-06	2.073020e-07	-8.818017e-10	1.459555e+00	-5.938358e+01
1.200000e-06	3.158367e-07	-6.839475e-10	2.223718e+00	-4.602095e+01
1.210000e-06	4.243258e-07	-4.744820e-10	2.987558e+00	-3.210596e+01
1.220000e-06	5.327050e-07	-2.553914e-10	3.750626e+00	-1.772459e+01
1.230000e-06	6.409254e-07	-2.851075e-11	4.512575e+00	-2.978343e+00
1.240000e-06	7.489909e-07	2.023603e-10	5.273434e+00	1.201860e+01
1.250000e-06	8.568986e-07	4.346415e-10	6.033182e+00	2.714276e+01
1.260000e-06	9.646631e-07	6.697438e-10	6.791921e+00	4.226526e+01
1.270000e-06	1.072247e-06	9.036907e-10	7.549393e+00	5.725596e+01
1.280000e-06	1.179607e-06	1.133459e-09	8.305280e+00	7.198774e+01
1.290000e-06	1.286772e-06	1.352772e-09	9.059798e+00	8.634062e+01
1.300000e-06	1.393764e-06	1.564385e-09	9.813100e+00	1.002056e+02
1.310000e-06	1.500521e-06	1.766273e-09	1.056474e+01	1.134877e+02
1.320000e-06	1.607009e-06	1.956592e-09	1.131450e+01	1.261092e+02
1.330000e-06	1.713222e-06	2.134374e-09	1.206232e+01	1.380108e+02
1.340000e-06	1.819117e-06	2.298989e-09	1.280789e+01	1.491530e+02
1.350000e-06	1.924560e-06	2.455714e-09	1.355029e+01	1.595161e+02
1.360000e-06	2.029536e-06	2.601138e-09	1.428939e+01	1.690996e+02
1.370000e-06	2.134091e-06	2.731868e-09	1.502554e+01	1.779205e+02
1.380000e-06	2.238185e-06	2.849153e-09	1.575843e+01	1.860113e+02
1.390000e-06	2.341888e-06	2.957742e-09	1.648857e+01	1.934172e+02
1.400000e-06	2.445178e-06	3.057322e-09	1.721581e+01	2.001930e+02
1.410000e-06	2.548027e-06	3.148822e-09	1.793994e+01	2.063996e+02
1.420000e-06	2.650506e-06	3.233844e-09	1.866147e+01	2.121014e+02
1.430000e-06	2.752626e-06	3.314020e-09	1.938047e+01	2.173625e+02
1.440000e-06	2.854352e-06	3.390922e-09	2.009669e+01	2.222444e+02
1.450000e-06	2.955664e-06	3.464156e-09	2.081000e+01	2.268034e+02
1.460000e-06	3.056474e-06	3.532749e-09	2.151978e+01	2.310893e+02
1.470000e-06	3.156749e-06	3.596756e-09	2.222578e+01	2.351437e+02
1.480000e-06	3.256516e-06	3.658352e-09	2.292822e+01	2.389997e+02
1.490000e-06	3.355754e-06	3.716936e-09	2.362692e+01	2.426823e+02
1.500000e-06	3.454371e-06	3.769033e-09	2.432126e+01	2.462083e+02
1.510000e-06	3.552268e-06	3.816672e-09	2.501052e+01	2.495879e+02
1.520000e-06	3.649380e-06	3.862484e-09	2.569426e+01	2.528257e+02
1.530000e-06	3.745720e-06	3.906950e-09	2.637256e+01	2.559226e+02
1.540000e-06	3.841318e-06	3.948630e-09	2.704564e+01	2.588767e+02
1.550000e-06	3.936168e-06	3.987460e-09	2.771345e+01	2.616858e+02
1.560000e-06	4.030342e-06	4.024395e-09	2.837650e+01	2.643478e+02
1.570000e-06	4.123914e-06	4.060951e-09	2.903532e+01	2.668627e+02
1.580000e-06	4.216833e-06	4.095623e-09	2.968954e+01	2.692328e+02
1.590000e-06	4.308993e-06	4.126761e-09	3.033841e+01	2.714635e+02
1.600000e-06	4.400413e-06	4.156183e-09	3.098207e+01	2.735632e+02
1.610000e-06	4.491127e-06	4.184915e-09	3.162076e+01	2.755432e+02
1.620000e-06	4.580860e-06	4.212929e-09	3.225254e+01	2.774170e+02
1.630000e-06	4.669496e-06	4.239418e-09	3.287661e+01	2.791998e+02
1.640000e-06	4.757261e-06	4.264889e-09	3.349454e+01	2.809075e+02
1.650000e-06	4.844169e-06	4.290774e-09	3.410643e+01	2.825555e+02
1.660000e-06	4.930267e-06	4.316896e-09	3.471262e+01	2.841581e+02
1.670000e-06	5.015625e-06	4.341250e-09	3.531360e+01	2.857277e+02
1.680000e-06	5.100149e-06	4.364323e-09	3.590872e+01	2.872737e+02
1.690000e-06	5.183871e-06	4.385836e-09	3.649817e+01	2.888028e+02
1.700000e-06	5.266844e-06	4.405977e-09	3.708236e+01	2.903180e+02
1.710000e-06	5.348989e-06	4.425003e-09	3.766072e+01	2.918195e+02
1.720000e-06	5.430112e-06	4.443795e-09	3.823189e+01	2.933043e+02
1.730000e-06	5.510158e-06	4.463733e-09	3.879547e+01	2.947672e+02
1.740000e-06	5.589229e-06	4.482796e-09	3.935219e+01	2.962014e+02
1.750000e-06	5.667347e-06	4.500622e-09	3.990219e+01	2.975991e+02
1.760000e-06	5.744495e-06	4.517273e-09	4.044537e+01	2.989525e+02
1.770000e-06	5.820650e-06	4.536211e-09	4.098156e+01	3.002544e+02
1.780000e-06	5.895778e-06	4.555128e-09	4.151051e+01	3.014992e+02
1.790000e-06	5.969727e-06	4.571092e-09	4.203117e+01	3.026831e+02
1.800000e-06	6.042368e-06	4.586379e-09	4.254261e+01	3.038045e+02
1.810000e-06	6.113853e-06	4.601255e-09	4.304592e+01	3.048641e+02
1.820000e-06	6.184310e-06	4.617518e-09	4.354199e+01	3.058653e+02
1.830000e-06	6.253704e-06	4.633979e-09	4.403057e+01	3.068132e+02
1.840000e-06	6.322071e-06	4.649341e-09	4.451192e+01	3.077146e+02
1.850000e-06	6.389482e-06	4.663399e-09	4.498654e+01	3.085774e+02
1.860000e-06	6.455816e-06	4.676182e-09	4.545358e+01	3.094099e+02
1.870000e-06	6.520805e-06	4.689667e-09	4.591115e+01	3.102203e+02
1.880000e-06	6.584513e-06	4.702538e-09	4.635971e+01	3.110157e+02
1.890000e-06	6.647140e-06	4.714269e-09	4.680064e+01	3.118021e+02
1.900000e-06	6.708665e-06	4.726008e-09	4.723382e+01	3.125836e+02
1.910000e-06	6.769071e-06	4.739242e-09	4.765912e+01	3.133624e+02
1.920000e-06	6.828445e-06	4.752463e-09	4.807716e+01	3.141385e+02
1.930000e-06	6.886620e-06	4.763697e-09	4.848676e+01	3.149102e+02
1.940000e-06	6.943321e-06	4.773901e-09	4.888597e+01	3.156739e+02
1.950000e-06	6.998641e-06	4.783594e-09	4.927546e+01	3.164248e+02
1.960000e-06	7.052695e-06	4.793599e-09	4.965604e+01	3.171573e+02
1.970000e-06	7.105468e-06	4.805402e-09	5.002760e+01	3.178656e+02
1.980000e-06	7.156913e-06	4.816374e-09	5.038981e+01	3.185440e+02
1.990000e-06	7.206760e-06	4.826874e-09	5.074077e+01	3.191880e+02
2.000000e-06	7.255015e-06	4.837985e-09	5.108052e+01	3.197941e+02
2.010000e-06	7.301979e-06	4.848245e-09	5.141118e+01	3.203602e+02
2.020000e-06	7.347682e-06	4.858543e-09	5.173296e+01	3.208862e+02
2.030000e-06	7.392146e-06	4.866041e-09	5.204602e+01	3.213735e+02
2.040000e-06	7.435496e-06	4.873057e-09	5.235123e+01	3.218252e+02
2.050000e-06	7.477477e-06	4.880231e-09	5.264681e+01	3.222457e+02
2.060000e-06	7.517875e-06	4.885456e-09	5.293124e+01	3.226402e+02
2.070000e-06	7.556970e-06	4.892398e-09	5.320650e+01	3.230144e+02
2.080000e-06	7.594882e-06	4.901316e-09	5.347343e+01	3.233740e+02
2.090000e-06	7.631524e-06	4.909780e-09	5.373141e+01	3.237244e+02
2.100000e-06	7.667015e-06	4.917331e-09	5.398130e+01	3.240697e+02
2.110000e-06	7.701217e-06	4.924496e-09	5.422210e+01	3.244131e+02
2.120000e-06	7.733842e-06	4.931831e-09	5.445180e+01	3.247561e+02
2.130000e-06	7.765140e-06	4.936647e-09	5.467216e+01	3.250988e+02
2.140000e-06	7.795254e-06	4.941802e-09	5.488419e+01	3.254396e+02
2.150000e-06	7.824064e-06	4.948619e-09	5.508703e+01	3.257757e+02
2.160000e-06	7.851659e-06	4.957108e-09	5.528132e+01	3.261030e+02
2.170000e-06	7.877857e-06	4.964674e-09	5.546577e+01	3.264171e+02
2.180000e-06	7.902377e-06	4.967786e-09	5.563841e+01	3.267130e+02
2.190000e-06	7.925383e-06	4.971629e-09	5.580039e+01	3.269861e+02
2.200000e-06	7.947094e-06	4.976033e-09	5.595326e+01	3.272321e+02
2.210000e-06	7.967557e-06	4.979383e-09	5.609733e+01	3.274481e+02
2.220000e-06	7.986841e-06	4.981827e-09	5.623310e+01	3.276322e+02
2.230000e-06	8.004757e-06	4.985073e-09	5.635924e+01	3.277840e+02
2.240000e-06	8.021166e-06	4.991601e-09	5.647477e+01	3.279045e+02
2.250000e-06	8.036084e-06	4.997482e-09	5.657981e+01	3.279961e+02
2.260000e-06	8.049476e-06	5.003312e-09	5.667410e+01	3.280623e+02
2.270000e-06	8.061399e-06	5.007620e-09	5.675804e+01	3.281077e+02
2.280000e-06	8.071669e-06	5.008711e-09	5.683035e+01	3.281372e+02
2.290000e-06	8.080173e-06	5.010691e-09	5.689023e+01	3.281557e+02
2.300000e-06	8.087180e-06	5.011832e-09	5.693956e+01	3.281680e+02
2.310000e-06	8.092839e-06	5.011265e-09	5.697940e+01	3.281779e+02
2.320000e-06	8.097199e-06	5.010125e-09	5.701010e+01	3.281886e+02
2.330000e-06	8.100257e-06	5.011237e-09	5.703163e+01	3.282016e+02
2.340000e-06	8.101659e-06	5.014321e-09	5.704150e+01	3.282173e+02
2.350000e-06	8.101499e-06	5.017739e-09	5.704037e+01	3.282347e+02
2.360000e-06	8.100117e-06	5.018155e-09	5.703065e+01	3.282516e+02
2.370000e-06	8.097433e-06	5.014306e-09	5.701174e+01	3.282650e+02
2.380000e-06	8.093533e-06	5.013267e-09	5.698429e+01	3.282709e+02
2.390000e-06	8.088398e-06	5.012033e-09	5.694813e+01	3.282654e+02
2.400000e-06	8.081651e-06	5.011204e-09	5.690063e+01	3.282445e+02
2.410000e-06	8.073450e-06	5.012273e-09	5.684289e+01	3.282050e+02
2.420000e-06	8.064066e-06	5.020718e-09	5.677682e+01	3.281442e+02
2.430000e-06	8.053401e-06	5.026388e-09	5.670173e+01	3.280607e+02
2.440000e-06	8.041302e-06	4.944712e-09	5.661655e+01	3.279545e+02
2.450000e-06	8.027124e-06	4.922272e-09	5.651672e+01	3.278267e+02
2.460000e-06	8.010632e-06	4.945611e-09	5.640060e+01	3.276796e+02
2.470000e-06	7.992541e-06	5.002210e-09	5.627323e+01	3.275167e+02
2.480000e-06	7.973510e-06	5.132926e-09	5.613924e+01	3.273418e+02
2.490000e-06	7.953850e-06	4.989766e-09	5.600082e+01	3.271594e+02
2.500000e-06	7.933054e-06	4.900278e-09	5.585440e+01	3.269736e+02
2.510000e-06	7.910339e-06	5.040807e-09	5.569447e+01	3.267882e+02
2.520000e-06	7.886306e-06	4.974620e-09	5.552526e+01	3.266059e+02
2.530000e-06	7.861307e-06	5.034177e-09	5.534925e+01	3.264280e+02
2.540000e-06	7.834654e-06	5.045249e-09	5.516159e+01	3.262546e+02
2.550000e-06	7.806686e-06	4.832879e-09	5.496468e+01	3.260839e+02
2.560000e-06	7.777720e-06	4.992629e-09	5.476074e+01	3.259126e+02
2.570000e-06	7.747175e-06	5.050347e-09	5.454568e+01	3.257361e+02
2.580000e-06	7.715050e-06	4.868216e-09	5.431950e+01	3.255483e+02
2.590000e-06	7.681512e-06	4.927382e-09	5.408337e+01	3.253427e+02
2.600000e-06	7.646734e-06	4.929647e-09	5.383850e+01	3.251121e+02
2.610000e-06	7.610923e-06	4.998612e-09	5.358637e+01	3.248498e+02
2.620000e-06	7.573636e-06	4.999826e-09	5.332384e+01	3.245493e+02
2.630000e-06	7.534625e-06	4.843143e-09	5.304917e+01	3.242056e+02
2.640000e-06	7.494179e-06	4.964261e-09	5.276441e+01	3.238149e+02
2.650000e-06	7.452500e-06	4.954612e-09	5.247096e+01	3.233753e+02
2.660000e-06	7.409543e-06	4.919271e-09	5.216850e+01	3.228866e+02
2.670000e-06	7.365454e-06	4.937119e-09	5.185809e+01	3.223503e+02
2.680000e-06	7.320146e-06	4.870629e-09	5.153909e+01	3.217699e+02
2.690000e-06	7.273264e-06	4.924738e-09	5.120900e+01	3.211501e+02
2.700000e-06	7.225162e-06	4.894950e-09	5.087033e+01	3.204964e+02
2.710000e-06	7.175785e-06	4.923020e-09	5.052269e+01	3.198152e+02
2.720000e-06	7.124803e-06	4.859535e-09	5.016373e+01	3.191125e+02
2.730000e-06	7.072419e-06	4.798479e-09	4.979491e+01	3.183940e+02
2.740000e-06	7.018518e-06	4.920670e-09	4.941541e+01	3.176644e+02
2.750000e-06	6.963095e-06	4.852632e-09	4.902519e+01	3.169271e+02
2.760000e-06	6.906380e-06	4.808174e-09	4.862588e+01	3.161837e+02
2.770000e-06	6.848481e-06	4.785382e-09	4.821823e+01	3.154342e+02
2.780000e-06	6.789426e-06	4.826616e-09	4.780244e+01	3.146769e+02
2.790000e-06	6.729354e-06	4.841425e-09	4.737949e+01	3.139084e+02
2.800000e-06	6.668162e-06	4.744717e-09	4.694865e+01	3.131243e+02
2.810000e-06	6.605470e-06	4.766513e-09	4.650726e+01	3.123191e+02
2.820000e-06	6.541559e-06	4.762659e-09	4.605727e+01	3.114870e+02
2.830000e-06	6.476633e-06	4.770444e-09	4.560015e+01	3.106223e+02
2.840000e-06	6.410538e-06	4.728177e-09	4.513480e+01	3.097201e+02
2.850000e-06	6.343372e-06	4.708116e-09	4.466190e+01	3.087765e+02
2.860000e-06	6.275288e-06	4.716346e-09	4.418253e+01	3.077889e+02
2.870000e-06	6.206118e-06	4.686153e-09	4.369553e+01	3.067563e+02
2.880000e-06	6.135577e-06	4.687882e-09	4.319887e+01	3.056797e+02
2.890000e-06	6.063878e-06	4.649905e-09	4.269406e+01	3.045616e+02
2.900000e-06	5.991183e-06	4.635798e-09	4.218223e+01	3.034057e+02
2.910000e-06	5.917505e-06	4.619786e-09	4.166349e+01	3.022171e+02
2.920000e-06	5.842871e-06	4.619434e-09	4.113801e+01	3.010012e+02
2.930000e-06	5.767195e-06	4.587771e-09	4.060520e+01	2.997637e+02
2.940000e-06	5.690226e-06	4.551042e-09	4.006328e+01	2.985097e+02
2.950000e-06	5.611832e-06	4.558493e-09	3.951133e+01	2.972431e+02
