# Temperatura_=_20.0
# Concentracion g/m^3_=_12600.0
# C_Vs_to_Am_M_A/Vsm_=_65563218390.804596
# pendiente_HvsI_1/m_=_3716.3
# ordenada_HvsI_A/m_=_1297.0
# frecuencia_Hz_=_213044.30220474474

Tiempo_(s)	Campo_(V.s)	Magnetizacion_(V.s)	Campo_(kA/m)	Magnetizacion_(A/m)
0.000000e+00	-2.499600e-06	-2.253222e-10	-1.981599e+01	-1.463516e+01
1.000000e-08	-2.499615e-06	-2.255881e-10	-1.981610e+01	-1.462277e+01
2.000000e-08	-2.499391e-06	-2.261239e-10	-1.981433e+01	-1.460598e+01
3.000000e-08	-2.498898e-06	-2.262072e-10	-1.981042e+01	-1.458530e+01
4.000000e-08	-2.497924e-06	-2.231427e-10	-1.980269e+01	-1.456128e+01
5.000000e-08	-2.496351e-06	-2.088944e-10	-1.979022e+01	-1.453448e+01
6.000000e-08	-2.494041e-06	-1.881266e-10	-1.977192e+01	-1.450540e+01
7.000000e-08	-2.491007e-06	-2.141883e-10	-1.974786e+01	-1.447444e+01
8.000000e-08	-2.487391e-06	-3.030869e-10	-1.971919e+01	-1.444191e+01
9.000000e-08	-2.483337e-06	-2.563596e-10	-1.968705e+01	-1.440794e+01
1.000000e-07	-2.479097e-06	-1.253141e-10	-1.965344e+01	-1.437253e+01
1.100000e-07	-2.474632e-06	-1.709192e-10	-1.961805e+01	-1.433556e+01
1.200000e-07	-2.469704e-06	-3.211931e-10	-1.957898e+01	-1.429676e+01
1.300000e-07	-2.464278e-06	-2.696764e-10	-1.953596e+01	-1.425578e+01
1.400000e-07	-2.458489e-06	-1.654301e-10	-1.949007e+01	-1.421223e+01
1.500000e-07	-2.452273e-06	-1.769620e-10	-1.944079e+01	-1.416570e+01
1.600000e-07	-2.445547e-06	-1.750817e-10	-1.938747e+01	-1.411584e+01
1.700000e-07	-2.438398e-06	-2.144077e-10	-1.933080e+01	-1.406239e+01
1.800000e-07	-2.430896e-06	-3.052544e-10	-1.927132e+01	-1.400521e+01
1.900000e-07	-2.423060e-06	-2.411597e-10	-1.920920e+01	-1.394431e+01
2.000000e-07	-2.414878e-06	-4.020659e-11	-1.914433e+01	-1.387989e+01
2.100000e-07	-2.406394e-06	-1.279277e-10	-1.907708e+01	-1.381231e+01
2.200000e-07	-2.397571e-06	-3.929956e-10	-1.900713e+01	-1.374209e+01
2.300000e-07	-2.388092e-06	-3.052962e-10	-1.893198e+01	-1.366990e+01
2.400000e-07	-2.377708e-06	3.600796e-12	-1.884967e+01	-1.359650e+01
2.500000e-07	-2.366654e-06	-8.729672e-11	-1.876203e+01	-1.352270e+01
2.600000e-07	-2.355203e-06	-3.738898e-10	-1.867125e+01	-1.344932e+01
2.700000e-07	-2.343271e-06	-2.699158e-10	-1.857666e+01	-1.337710e+01
2.800000e-07	-2.330927e-06	-5.852209e-11	-1.847880e+01	-1.330670e+01
2.900000e-07	-2.318231e-06	-1.593922e-10	-1.837815e+01	-1.323860e+01
3.000000e-07	-2.305066e-06	-2.570984e-10	-1.827379e+01	-1.317312e+01
3.100000e-07	-2.291427e-06	-1.635526e-10	-1.816566e+01	-1.311032e+01
3.200000e-07	-2.277405e-06	-1.781246e-10	-1.805450e+01	-1.305007e+01
3.300000e-07	-2.263024e-06	-2.467043e-10	-1.794049e+01	-1.299199e+01
3.400000e-07	-2.247978e-06	-1.410262e-10	-1.782121e+01	-1.293552e+01
3.500000e-07	-2.232294e-06	-9.141527e-11	-1.769687e+01	-1.287992e+01
3.600000e-07	-2.216091e-06	-2.442286e-10	-1.756842e+01	-1.282432e+01
3.700000e-07	-2.199320e-06	-2.748544e-10	-1.743547e+01	-1.276779e+01
3.800000e-07	-2.182171e-06	-1.230139e-10	-1.729951e+01	-1.270937e+01
3.900000e-07	-2.164696e-06	-9.859775e-11	-1.716098e+01	-1.264816e+01
4.000000e-07	-2.146975e-06	-2.249647e-10	-1.702049e+01	-1.258335e+01
4.100000e-07	-2.128983e-06	-2.562959e-10	-1.687786e+01	-1.251428e+01
4.200000e-07	-2.110553e-06	-1.656769e-10	-1.673175e+01	-1.244044e+01
4.300000e-07	-2.091708e-06	-1.285358e-10	-1.658236e+01	-1.236155e+01
4.400000e-07	-2.072456e-06	-1.811643e-10	-1.642973e+01	-1.227754e+01
4.500000e-07	-2.052810e-06	-2.097607e-10	-1.627398e+01	-1.218853e+01
4.600000e-07	-2.032885e-06	-1.824465e-10	-1.611602e+01	-1.209483e+01
4.700000e-07	-2.012791e-06	-1.700731e-10	-1.595673e+01	-1.199691e+01
4.800000e-07	-1.992534e-06	-1.715380e-10	-1.579614e+01	-1.189536e+01
4.900000e-07	-1.972008e-06	-1.521657e-10	-1.563342e+01	-1.179083e+01
5.000000e-07	-1.951197e-06	-1.695556e-10	-1.546843e+01	-1.168399e+01
5.100000e-07	-1.930004e-06	-2.064805e-10	-1.530042e+01	-1.157549e+01
5.200000e-07	-1.908323e-06	-1.676562e-10	-1.512854e+01	-1.146591e+01
5.300000e-07	-1.886294e-06	-1.256208e-10	-1.495390e+01	-1.135573e+01
5.400000e-07	-1.864051e-06	-1.713191e-10	-1.477757e+01	-1.124530e+01
5.500000e-07	-1.841554e-06	-2.022628e-10	-1.459921e+01	-1.113481e+01
5.600000e-07	-1.818696e-06	-1.619729e-10	-1.441801e+01	-1.102432e+01
5.700000e-07	-1.795401e-06	-1.476548e-10	-1.423333e+01	-1.091374e+01
5.800000e-07	-1.771760e-06	-1.741615e-10	-1.404592e+01	-1.080285e+01
5.900000e-07	-1.747901e-06	-1.719956e-10	-1.385677e+01	-1.069136e+01
6.000000e-07	-1.723867e-06	-1.579271e-10	-1.366623e+01	-1.057889e+01
6.100000e-07	-1.699675e-06	-1.685574e-10	-1.347445e+01	-1.046502e+01
6.200000e-07	-1.675322e-06	-1.735142e-10	-1.328139e+01	-1.034936e+01
6.300000e-07	-1.650684e-06	-1.546020e-10	-1.308606e+01	-1.023151e+01
6.400000e-07	-1.625605e-06	-1.456445e-10	-1.288725e+01	-1.011114e+01
6.500000e-07	-1.600077e-06	-1.649440e-10	-1.268487e+01	-9.987995e+00
6.600000e-07	-1.574062e-06	-1.743708e-10	-1.247863e+01	-9.861878e+00
6.700000e-07	-1.547495e-06	-1.539766e-10	-1.226802e+01	-9.732678e+00
6.800000e-07	-1.520470e-06	-1.403787e-10	-1.205377e+01	-9.600349e+00
6.900000e-07	-1.493080e-06	-1.533641e-10	-1.183663e+01	-9.464899e+00
7.000000e-07	-1.465388e-06	-1.668297e-10	-1.161710e+01	-9.326372e+00
7.100000e-07	-1.437496e-06	-1.592652e-10	-1.139598e+01	-9.184827e+00
7.200000e-07	-1.409455e-06	-1.417088e-10	-1.117369e+01	-9.040318e+00
7.300000e-07	-1.381323e-06	-1.351156e-10	-1.095066e+01	-8.892877e+00
7.400000e-07	-1.353099e-06	-1.448836e-10	-1.072691e+01	-8.742502e+00
7.500000e-07	-1.324757e-06	-1.541166e-10	-1.050222e+01	-8.589154e+00
7.600000e-07	-1.296226e-06	-1.436046e-10	-1.027604e+01	-8.432756e+00
7.700000e-07	-1.267444e-06	-1.265828e-10	-1.004787e+01	-8.273206e+00
7.800000e-07	-1.238403e-06	-1.245355e-10	-9.817639e+00	-8.110391e+00
7.900000e-07	-1.209096e-06	-1.325280e-10	-9.585304e+00	-7.944215e+00
8.000000e-07	-1.179498e-06	-1.369679e-10	-9.350659e+00	-7.774620e+00
8.100000e-07	-1.149666e-06	-1.311103e-10	-9.114165e+00	-7.601618e+00
8.200000e-07	-1.119657e-06	-1.184725e-10	-8.876264e+00	-7.425317e+00
8.300000e-07	-1.089502e-06	-1.127587e-10	-8.637207e+00	-7.245938e+00
8.400000e-07	-1.059266e-06	-1.204477e-10	-8.397507e+00	-7.063838e+00
8.500000e-07	-1.028869e-06	-1.259545e-10	-8.156523e+00	-6.879507e+00
8.600000e-07	-9.982592e-07	-1.127656e-10	-7.913862e+00	-6.693565e+00
8.700000e-07	-9.675107e-07	-9.609381e-11	-7.670098e+00	-6.506747e+00
8.800000e-07	-9.365730e-07	-9.672196e-11	-7.424835e+00	-6.319871e+00
8.900000e-07	-9.053839e-07	-1.069157e-10	-7.177578e+00	-6.133803e+00
9.000000e-07	-8.740693e-07	-1.042091e-10	-6.929326e+00	-5.949407e+00
9.100000e-07	-8.426720e-07	-8.830256e-11	-6.680419e+00	-5.767495e+00
9.200000e-07	-8.111481e-07	-8.145742e-11	-6.430508e+00	-5.588778e+00
9.300000e-07	-7.794604e-07	-8.809623e-11	-6.179298e+00	-5.413809e+00
9.400000e-07	-7.476051e-07	-9.304953e-11	-5.926761e+00	-5.242943e+00
9.500000e-07	-7.156802e-07	-8.788594e-11	-5.673671e+00	-5.076304e+00
9.600000e-07	-6.836824e-07	-7.742526e-11	-5.420003e+00	-4.913756e+00
9.700000e-07	-6.516029e-07	-7.381577e-11	-5.165687e+00	-4.754905e+00
9.800000e-07	-6.194987e-07	-7.758522e-11	-4.911177e+00	-4.599101e+00
9.900000e-07	-5.873558e-07	-7.871790e-11	-4.656358e+00	-4.445466e+00
1.000000e-06	-5.551623e-07	-7.198499e-11	-4.401140e+00	-4.292935e+00
1.010000e-06	-5.229421e-07	-6.108843e-11	-4.145708e+00	-4.140308e+00
1.020000e-06	-4.906409e-07	-5.614752e-11	-3.889635e+00	-3.986314e+00
1.030000e-06	-4.582747e-07	-5.865888e-11	-3.633047e+00	-3.829676e+00
1.040000e-06	-4.258412e-07	-6.074916e-11	-3.375925e+00	-3.669189e+00
1.050000e-06	-3.933114e-07	-5.576422e-11	-3.118040e+00	-3.503778e+00
1.060000e-06	-3.607206e-07	-4.842544e-11	-2.859671e+00	-3.332563e+00
1.070000e-06	-3.280641e-07	-4.820370e-11	-2.600781e+00	-3.154908e+00
1.080000e-06	-2.953679e-07	-5.227752e-11	-2.341577e+00	-2.970448e+00
1.090000e-06	-2.625822e-07	-5.096597e-11	-2.081663e+00	-2.779110e+00
1.100000e-06	-2.297549e-07	-4.258876e-11	-1.821419e+00	-2.581111e+00
1.110000e-06	-1.969338e-07	-3.344144e-11	-1.561225e+00	-2.376936e+00
1.120000e-06	-1.640103e-07	-3.060074e-11	-1.300218e+00	-2.167302e+00
1.130000e-06	-1.310658e-07	-3.290622e-11	-1.039045e+00	-1.953112e+00
1.140000e-06	-9.810850e-08	-3.045832e-11	-7.777711e-01	-1.735390e+00
1.150000e-06	-6.505229e-08	-1.969156e-11	-5.157126e-01	-1.515222e+00
1.160000e-06	-3.199777e-08	-1.264691e-11	-2.536675e-01	-1.293681e+00
1.170000e-06	1.025794e-09	-1.734477e-11	8.132149e-03	-1.071773e+00
1.180000e-06	3.407158e-08	-2.214388e-11	2.701079e-01	-8.503744e-01
1.190000e-06	6.713152e-08	-1.525516e-11	5.321960e-01	-6.301913e-01
1.200000e-06	1.000631e-07	-5.411463e-12	7.932662e-01	-4.117303e-01
1.210000e-06	1.329545e-07	-4.306655e-12	1.054018e+00	-1.952852e-01
1.220000e-06	1.659216e-07	-7.180615e-12	1.315370e+00	1.906017e-02
1.230000e-06	1.988566e-07	-5.271179e-12	1.576468e+00	2.314117e-01
1.240000e-06	2.317335e-07	1.321226e-12	1.837105e+00	4.420320e-01
1.250000e-06	2.644509e-07	6.466590e-12	2.096478e+00	6.512962e-01
1.260000e-06	2.970678e-07	7.049320e-12	2.355053e+00	8.596398e-01
1.270000e-06	3.297090e-07	6.515902e-12	2.613822e+00	1.067505e+00
1.280000e-06	3.623102e-07	1.221460e-11	2.872273e+00	1.275285e+00
1.290000e-06	3.948326e-07	2.089830e-11	3.130099e+00	1.483283e+00
1.300000e-06	4.273233e-07	2.529832e-11	3.387674e+00	1.691666e+00
1.310000e-06	4.597430e-07	2.522288e-11	3.644687e+00	1.900445e+00
1.320000e-06	4.920565e-07	2.607836e-11	3.900858e+00	2.109463e+00
1.330000e-06	5.243036e-07	3.067897e-11	4.156502e+00	2.318400e+00
1.340000e-06	5.565016e-07	3.544657e-11	4.411757e+00	2.526789e+00
1.350000e-06	5.886846e-07	3.902604e-11	4.666892e+00	2.734051e+00
1.360000e-06	6.208373e-07	4.030936e-11	4.921788e+00	2.939537e+00
1.370000e-06	6.529473e-07	4.179065e-11	5.176345e+00	3.142578e+00
1.380000e-06	6.850211e-07	4.639316e-11	5.430616e+00	3.342535e+00
1.390000e-06	7.170436e-07	5.240328e-11	5.684480e+00	3.538855e+00
1.400000e-06	7.489890e-07	5.801640e-11	5.937732e+00	3.731114e+00
1.410000e-06	7.808186e-07	5.992145e-11	6.190066e+00	3.919052e+00
1.420000e-06	8.125488e-07	5.805020e-11	6.441613e+00	4.102602e+00
1.430000e-06	8.441428e-07	5.943595e-11	6.692079e+00	4.281895e+00
1.440000e-06	8.755286e-07	6.611758e-11	6.940895e+00	4.457260e+00
1.450000e-06	9.067208e-07	7.101361e-11	7.188176e+00	4.629202e+00
1.460000e-06	9.377028e-07	6.996181e-11	7.433791e+00	4.798365e+00
1.470000e-06	9.685267e-07	7.029755e-11	7.678152e+00	4.965496e+00
1.480000e-06	9.991518e-07	7.578159e-11	7.920938e+00	5.131385e+00
1.490000e-06	1.029572e-06	8.183510e-11	8.162098e+00	5.296816e+00
1.500000e-06	1.059873e-06	8.368237e-11	8.402314e+00	5.462508e+00
1.510000e-06	1.090010e-06	8.395982e-11	8.641231e+00	5.629070e+00
1.520000e-06	1.120020e-06	8.736133e-11	8.879143e+00	5.796955e+00
1.530000e-06	1.149932e-06	9.173567e-11	9.116275e+00	5.966438e+00
1.540000e-06	1.179703e-06	9.462144e-11	9.352288e+00	6.137592e+00
1.550000e-06	1.209233e-06	9.598509e-11	9.586391e+00	6.310299e+00
1.560000e-06	1.238457e-06	9.782766e-11	9.818067e+00	6.484258e+00
1.570000e-06	1.267369e-06	1.026437e-10	1.004727e+01	6.659019e+00
1.580000e-06	1.296061e-06	1.083324e-10	1.027474e+01	6.834020e+00
1.590000e-06	1.324545e-06	1.127934e-10	1.050055e+01	7.008641e+00
1.600000e-06	1.352845e-06	1.171952e-10	1.072489e+01	7.182253e+00
1.610000e-06	1.381047e-06	1.198695e-10	1.094848e+01	7.354275e+00
1.620000e-06	1.409135e-06	1.194494e-10	1.117115e+01	7.524219e+00
1.630000e-06	1.437132e-06	1.208761e-10	1.139310e+01	7.691735e+00
1.640000e-06	1.464991e-06	1.258188e-10	1.161395e+01	7.856638e+00
1.650000e-06	1.492676e-06	1.291772e-10	1.183343e+01	8.018924e+00
1.660000e-06	1.520131e-06	1.291052e-10	1.205108e+01	8.178770e+00
1.670000e-06	1.547115e-06	1.292155e-10	1.226501e+01	8.336519e+00
1.680000e-06	1.573569e-06	1.332986e-10	1.247472e+01	8.492650e+00
1.690000e-06	1.599492e-06	1.381391e-10	1.268023e+01	8.647740e+00
1.700000e-06	1.624800e-06	1.405091e-10	1.288087e+01	8.802410e+00
1.710000e-06	1.649670e-06	1.402349e-10	1.307803e+01	8.957274e+00
1.720000e-06	1.674274e-06	1.407726e-10	1.327308e+01	9.112884e+00
1.730000e-06	1.698625e-06	1.445037e-10	1.346613e+01	9.269680e+00
1.740000e-06	1.722762e-06	1.480851e-10	1.365747e+01	9.427945e+00
1.750000e-06	1.746766e-06	1.495107e-10	1.384777e+01	9.587777e+00
1.760000e-06	1.770583e-06	1.514599e-10	1.403658e+01	9.749072e+00
1.770000e-06	1.794051e-06	1.564061e-10	1.422263e+01	9.911524e+00
1.780000e-06	1.817165e-06	1.614214e-10	1.440587e+01	1.007464e+01
1.790000e-06	1.839904e-06	1.635401e-10	1.458613e+01	1.023776e+01
1.800000e-06	1.862278e-06	1.651509e-10	1.476351e+01	1.040013e+01
1.810000e-06	1.884360e-06	1.688316e-10	1.493857e+01	1.056091e+01
1.820000e-06	1.906165e-06	1.723187e-10	1.511143e+01	1.071928e+01
1.830000e-06	1.927702e-06	1.742733e-10	1.528217e+01	1.087446e+01
1.840000e-06	1.948907e-06	1.750601e-10	1.545027e+01	1.102578e+01
1.850000e-06	1.969730e-06	1.763769e-10	1.561536e+01	1.117275e+01
1.860000e-06	1.990218e-06	1.787337e-10	1.577778e+01	1.131505e+01
1.870000e-06	2.010495e-06	1.801764e-10	1.593852e+01	1.145258e+01
1.880000e-06	2.030620e-06	1.817177e-10	1.609807e+01	1.158549e+01
1.890000e-06	2.050533e-06	1.845654e-10	1.625593e+01	1.171411e+01
1.900000e-06	2.070149e-06	1.865368e-10	1.641144e+01	1.183895e+01
1.910000e-06	2.089453e-06	1.866241e-10	1.656448e+01	1.196069e+01
1.920000e-06	2.108301e-06	1.873606e-10	1.671389e+01	1.208006e+01
1.930000e-06	2.126627e-06	1.899189e-10	1.685918e+01	1.219782e+01
1.940000e-06	2.144601e-06	1.922029e-10	1.700167e+01	1.231471e+01
1.950000e-06	2.162245e-06	1.936879e-10	1.714154e+01	1.243133e+01
1.960000e-06	2.179552e-06	1.951610e-10	1.727875e+01	1.254816e+01
1.970000e-06	2.196507e-06	1.963682e-10	1.741317e+01	1.266545e+01
1.980000e-06	2.213109e-06	1.980276e-10	1.754478e+01	1.278323e+01
1.990000e-06	2.229321e-06	2.000816e-10	1.767331e+01	1.290127e+01
2.000000e-06	2.244928e-06	2.007082e-10	1.779703e+01	1.301913e+01
2.010000e-06	2.259927e-06	2.006946e-10	1.791594e+01	1.313612e+01
2.020000e-06	2.274471e-06	2.024987e-10	1.803124e+01	1.325140e+01
2.030000e-06	2.288598e-06	2.051449e-10	1.814323e+01	1.336401e+01
2.040000e-06	2.302347e-06	2.061861e-10	1.825223e+01	1.347289e+01
2.050000e-06	2.315720e-06	2.057079e-10	1.835825e+01	1.357704e+01
2.060000e-06	2.328624e-06	2.060793e-10	1.846055e+01	1.367550e+01
2.070000e-06	2.341072e-06	2.092066e-10	1.855923e+01	1.376748e+01
2.080000e-06	2.353147e-06	2.124410e-10	1.865495e+01	1.385235e+01
2.090000e-06	2.364917e-06	2.136900e-10	1.874826e+01	1.392973e+01
2.100000e-06	2.376202e-06	2.142362e-10	1.883773e+01	1.399952e+01
2.110000e-06	2.386793e-06	2.155391e-10	1.892169e+01	1.406187e+01
2.120000e-06	2.396725e-06	2.183232e-10	1.900042e+01	1.411717e+01
2.130000e-06	2.405999e-06	2.192069e-10	1.907395e+01	1.416606e+01
2.140000e-06	2.414696e-06	2.166066e-10	1.914289e+01	1.420936e+01
2.150000e-06	2.423028e-06	2.138083e-10	1.920895e+01	1.424801e+01
2.160000e-06	2.431118e-06	2.156684e-10	1.927309e+01	1.428302e+01
2.170000e-06	2.438927e-06	2.192131e-10	1.933499e+01	1.431537e+01
2.180000e-06	2.446389e-06	2.197410e-10	1.939414e+01	1.434600e+01
2.190000e-06	2.453374e-06	2.188536e-10	1.944952e+01	1.437569e+01
2.200000e-06	2.459948e-06	2.190784e-10	1.950164e+01	1.440507e+01
2.210000e-06	2.466136e-06	2.211901e-10	1.955069e+01	1.443454e+01
2.220000e-06	2.471809e-06	2.232436e-10	1.959567e+01	1.446426e+01
2.230000e-06	2.477030e-06	2.238218e-10	1.963706e+01	1.449417e+01
2.240000e-06	2.481841e-06	2.223224e-10	1.967520e+01	1.452396e+01
2.250000e-06	2.486312e-06	2.226591e-10	1.971064e+01	1.455318e+01
2.260000e-06	2.490535e-06	2.245586e-10	1.974412e+01	1.458118e+01
2.270000e-06	2.494541e-06	2.265698e-10	1.977587e+01	1.460725e+01
2.280000e-06	2.498228e-06	2.275499e-10	1.980511e+01	1.463064e+01
2.290000e-06	2.501394e-06	2.268643e-10	1.983021e+01	1.465062e+01
2.300000e-06	2.503845e-06	2.278048e-10	1.984963e+01	1.466651e+01
2.310000e-06	2.505593e-06	2.300578e-10	1.986349e+01	1.467780e+01
2.320000e-06	2.506671e-06	2.315565e-10	1.987204e+01	1.468411e+01
2.330000e-06	2.507217e-06	2.312826e-10	1.987637e+01	1.468523e+01
2.340000e-06	2.507486e-06	2.296902e-10	1.987850e+01	1.468117e+01
2.350000e-06	2.507473e-06	2.277760e-10	1.987840e+01	1.467208e+01
2.360000e-06	2.507094e-06	2.285132e-10	1.987539e+01	1.465830e+01
2.370000e-06	2.506256e-06	2.298603e-10	1.986875e+01	1.464026e+01
2.380000e-06	2.504985e-06	2.305115e-10	1.985868e+01	1.461850e+01
2.390000e-06	2.503338e-06	2.391564e-10	1.984562e+01	1.459357e+01
2.400000e-06	2.501330e-06	2.599192e-10	1.982970e+01	1.456601e+01
2.410000e-06	2.498961e-06	2.448757e-10	1.981092e+01	1.453630e+01
2.420000e-06	2.496119e-06	1.596485e-10	1.978838e+01	1.450482e+01
2.430000e-06	2.492777e-06	1.939170e-10	1.976189e+01	1.447182e+01
2.440000e-06	2.489079e-06	2.963119e-10	1.973258e+01	1.443741e+01
2.450000e-06	2.485125e-06	2.514928e-10	1.970123e+01	1.440153e+01
2.460000e-06	2.480878e-06	1.690305e-10	1.966756e+01	1.436402e+01
2.470000e-06	2.476120e-06	2.268393e-10	1.962984e+01	1.432458e+01
2.480000e-06	2.470664e-06	2.651360e-10	1.958659e+01	1.428285e+01
2.490000e-06	2.464641e-06	2.194206e-10	1.953884e+01	1.423842e+01
2.500000e-06	2.458122e-06	2.294813e-10	1.948716e+01	1.419090e+01
2.510000e-06	2.450967e-06	2.365000e-10	1.943043e+01	1.413997e+01
2.520000e-06	2.443265e-06	1.699671e-10	1.936938e+01	1.408538e+01
2.530000e-06	2.435339e-06	1.953709e-10	1.930654e+01	1.402705e+01
2.540000e-06	2.427185e-06	3.311404e-10	1.924191e+01	1.396505e+01
2.550000e-06	2.418485e-06	2.416571e-10	1.917294e+01	1.389961e+01
2.560000e-06	2.409347e-06	5.798177e-11	1.910049e+01	1.383115e+01
2.570000e-06	2.399950e-06	1.879057e-10	1.902599e+01	1.376025e+01
2.580000e-06	2.390168e-06	3.971365e-10	1.894845e+01	1.368759e+01
2.590000e-06	2.379942e-06	2.169742e-10	1.886738e+01	1.361396e+01
2.600000e-06	2.369299e-06	2.559285e-11	1.878300e+01	1.354017e+01
2.610000e-06	2.358261e-06	2.451115e-10	1.869549e+01	1.346704e+01
2.620000e-06	2.346775e-06	3.745767e-10	1.860444e+01	1.339528e+01
2.630000e-06	2.334821e-06	1.304807e-10	1.850967e+01	1.332551e+01
2.640000e-06	2.322465e-06	8.726617e-11	1.841172e+01	1.325815e+01
2.650000e-06	2.309640e-06	3.159122e-10	1.831005e+01	1.319345e+01
2.660000e-06	2.296040e-06	2.465852e-10	1.820223e+01	1.313142e+01
2.670000e-06	2.281612e-06	6.007512e-11	1.808785e+01	1.307184e+01
2.680000e-06	2.266559e-06	2.144943e-10	1.796851e+01	1.301429e+01
2.690000e-06	2.251085e-06	3.302752e-10	1.784584e+01	1.295815e+01
2.700000e-06	2.235359e-06	1.277751e-10	1.772117e+01	1.290262e+01
2.710000e-06	2.219444e-06	8.763583e-11	1.759500e+01	1.284681e+01
2.720000e-06	2.203330e-06	2.857995e-10	1.746726e+01	1.278979e+01
2.730000e-06	2.186873e-06	2.691511e-10	1.733679e+01	1.273060e+01
2.740000e-06	2.169890e-06	1.111840e-10	1.720215e+01	1.266837e+01
2.750000e-06	2.152453e-06	1.409343e-10	1.706392e+01	1.260232e+01
2.760000e-06	2.134717e-06	2.396367e-10	1.692331e+01	1.253184e+01
2.770000e-06	2.116684e-06	2.169072e-10	1.678036e+01	1.245648e+01
2.780000e-06	2.098271e-06	1.527565e-10	1.663438e+01	1.237603e+01
2.790000e-06	2.079387e-06	1.578481e-10	1.648468e+01	1.229047e+01
2.800000e-06	2.060117e-06	2.022695e-10	1.633191e+01	1.219999e+01
2.810000e-06	2.040595e-06	1.939058e-10	1.617714e+01	1.210495e+01
2.820000e-06	2.020894e-06	1.588844e-10	1.602096e+01	1.200585e+01
2.830000e-06	2.001036e-06	1.867604e-10	1.586354e+01	1.190331e+01
2.840000e-06	1.980929e-06	2.011006e-10	1.570413e+01	1.179799e+01
2.850000e-06	1.960484e-06	1.484298e-10	1.554206e+01	1.169057e+01
2.860000e-06	1.939669e-06	1.604865e-10	1.537704e+01	1.158167e+01
2.870000e-06	1.918332e-06	2.111560e-10	1.520789e+01	1.147184e+01
2.880000e-06	1.896310e-06	1.703773e-10	1.503331e+01	1.136153e+01
2.890000e-06	1.873619e-06	1.365405e-10	1.485342e+01	1.125105e+01
2.900000e-06	1.850469e-06	1.782601e-10	1.466989e+01	1.114053e+01
2.910000e-06	1.827035e-06	1.810997e-10	1.448411e+01	1.103000e+01
2.920000e-06	1.803360e-06	1.478416e-10	1.429643e+01	1.091934e+01
2.930000e-06	1.779518e-06	1.579610e-10	1.410742e+01	1.080828e+01
2.940000e-06	1.755522e-06	1.730246e-10	1.391719e+01	1.069652e+01
2.950000e-06	1.731264e-06	1.569735e-10	1.372488e+01	1.058365e+01
