# Temperatura_=_20.0
# Concentracion g/m^3_=_12600.0
# C_Vs_to_Am_M_A/Vsm_=_65563218390.804596
# pendiente_HvsI_1/m_=_3716.3
# ordenada_HvsI_A/m_=_1297.0
# frecuencia_Hz_=_213043.93822134018

Tiempo_(s)	Campo_(V.s)	Magnetizacion_(V.s)	Campo_(kA/m)	Magnetizacion_(A/m)
0.000000e+00	-2.493549e-06	-6.386032e-11	-1.982146e+01	-4.022767e+00
1.000000e-08	-2.493632e-06	-6.318007e-11	-1.982212e+01	-4.008975e+00
2.000000e-08	-2.493469e-06	-6.228751e-11	-1.982083e+01	-3.993203e+00
3.000000e-08	-2.493002e-06	-6.255504e-11	-1.981711e+01	-3.975020e+00
4.000000e-08	-2.492065e-06	-6.132543e-11	-1.980967e+01	-3.954112e+00
5.000000e-08	-2.490568e-06	-5.033805e-11	-1.979776e+01	-3.930293e+00
6.000000e-08	-2.488414e-06	-3.683680e-11	-1.978064e+01	-3.903499e+00
7.000000e-08	-2.485523e-06	-7.172064e-11	-1.975766e+01	-3.873776e+00
8.000000e-08	-2.482020e-06	-1.140778e-10	-1.972982e+01	-3.841267e+00
9.000000e-08	-2.478166e-06	-3.670277e-11	-1.969918e+01	-3.806191e+00
1.000000e-07	-2.474049e-06	1.176636e-11	-1.966645e+01	-3.768821e+00
1.100000e-07	-2.469595e-06	-8.069810e-11	-1.963105e+01	-3.729460e+00
1.200000e-07	-2.464740e-06	-1.365768e-10	-1.959245e+01	-3.688423e+00
1.300000e-07	-2.459432e-06	-3.477772e-11	-1.955026e+01	-3.646021e+00
1.400000e-07	-2.453736e-06	-1.085160e-11	-1.950499e+01	-3.602545e+00
1.500000e-07	-2.447538e-06	-6.087592e-11	-1.945571e+01	-3.558260e+00
1.600000e-07	-2.440813e-06	-3.164831e-11	-1.940226e+01	-3.513402e+00
1.700000e-07	-2.433776e-06	-7.228082e-11	-1.934632e+01	-3.468177e+00
1.800000e-07	-2.426462e-06	-1.107955e-10	-1.928818e+01	-3.422766e+00
1.900000e-07	-2.418757e-06	-2.343341e-11	-1.922694e+01	-3.377328e+00
2.000000e-07	-2.410734e-06	6.667103e-11	-1.916316e+01	-3.332010e+00
2.100000e-07	-2.402485e-06	-7.468011e-11	-1.909758e+01	-3.286951e+00
2.200000e-07	-2.393749e-06	-1.876350e-10	-1.902814e+01	-3.242282e+00
2.300000e-07	-2.384258e-06	-5.792861e-12	-1.895270e+01	-3.198132e+00
2.400000e-07	-2.374032e-06	1.051210e-10	-1.887141e+01	-3.154620e+00
2.500000e-07	-2.363167e-06	-8.205290e-11	-1.878504e+01	-3.111855e+00
2.600000e-07	-2.351759e-06	-1.793517e-10	-1.869436e+01	-3.069922e+00
2.700000e-07	-2.339957e-06	3.685975e-12	-1.860055e+01	-3.028873e+00
2.800000e-07	-2.327762e-06	5.629153e-11	-1.850361e+01	-2.988715e+00
2.900000e-07	-2.315103e-06	-8.840157e-11	-1.840298e+01	-2.949400e+00
3.000000e-07	-2.301994e-06	-8.013916e-11	-1.829877e+01	-2.910814e+00
3.100000e-07	-2.288488e-06	2.252954e-12	-1.819141e+01	-2.872773e+00
3.200000e-07	-2.274586e-06	-4.966868e-11	-1.808090e+01	-2.835023e+00
3.300000e-07	-2.260234e-06	-6.547809e-11	-1.796682e+01	-2.797242e+00
3.400000e-07	-2.245209e-06	6.010490e-12	-1.784738e+01	-2.759057e+00
3.500000e-07	-2.229663e-06	-2.565861e-11	-1.772380e+01	-2.720056e+00
3.600000e-07	-2.213713e-06	-1.028729e-10	-1.759702e+01	-2.679817e+00
3.700000e-07	-2.197184e-06	-3.901617e-11	-1.746563e+01	-2.637930e+00
3.800000e-07	-2.180186e-06	2.942384e-11	-1.733051e+01	-2.594032e+00
3.900000e-07	-2.162880e-06	-3.648905e-11	-1.719294e+01	-2.547833e+00
4.000000e-07	-2.145305e-06	-8.764926e-11	-1.705323e+01	-2.499150e+00
4.100000e-07	-2.127392e-06	-4.077736e-11	-1.691084e+01	-2.447927e+00
4.200000e-07	-2.109071e-06	7.157176e-12	-1.676521e+01	-2.394253e+00
4.300000e-07	-2.090363e-06	-2.130901e-11	-1.661650e+01	-2.338373e+00
4.400000e-07	-2.071337e-06	-6.909412e-11	-1.646526e+01	-2.280689e+00
4.500000e-07	-2.051901e-06	-4.698089e-11	-1.631076e+01	-2.221745e+00
4.600000e-07	-2.032118e-06	-5.872639e-12	-1.615350e+01	-2.162207e+00
4.700000e-07	-2.012143e-06	-2.453489e-11	-1.599472e+01	-2.102834e+00
4.800000e-07	-1.991979e-06	-4.977351e-11	-1.583443e+01	-2.044437e+00
4.900000e-07	-1.971559e-06	-2.657823e-11	-1.567211e+01	-1.987832e+00
5.000000e-07	-1.950736e-06	-2.045982e-11	-1.550659e+01	-1.933792e+00
5.100000e-07	-1.929577e-06	-4.128814e-11	-1.533839e+01	-1.882999e+00
5.200000e-07	-1.908168e-06	-2.378360e-11	-1.516821e+01	-1.836000e+00
5.300000e-07	-1.886438e-06	-1.888471e-11	-1.499547e+01	-1.793161e+00
5.400000e-07	-1.864340e-06	-5.130817e-11	-1.481982e+01	-1.754644e+00
5.500000e-07	-1.841879e-06	-4.038723e-11	-1.464127e+01	-1.720384e+00
5.600000e-07	-1.819094e-06	-1.167227e-11	-1.446015e+01	-1.690083e+00
5.700000e-07	-1.796022e-06	-3.093259e-11	-1.427675e+01	-1.663219e+00
5.800000e-07	-1.772645e-06	-5.190734e-11	-1.409093e+01	-1.639069e+00
5.900000e-07	-1.748958e-06	-2.895626e-11	-1.390264e+01	-1.616741e+00
6.000000e-07	-1.725041e-06	-1.671650e-11	-1.371252e+01	-1.595219e+00
6.100000e-07	-1.700920e-06	-3.640052e-11	-1.352077e+01	-1.573418e+00
6.200000e-07	-1.676581e-06	-3.649312e-11	-1.332730e+01	-1.550240e+00
6.300000e-07	-1.651959e-06	-2.061388e-11	-1.313158e+01	-1.524632e+00
6.400000e-07	-1.626984e-06	-2.384964e-11	-1.293305e+01	-1.495645e+00
6.500000e-07	-1.601658e-06	-3.601052e-11	-1.273173e+01	-1.462482e+00
6.600000e-07	-1.575831e-06	-2.958063e-11	-1.252643e+01	-1.424542e+00
6.700000e-07	-1.549414e-06	-1.578961e-11	-1.231644e+01	-1.381444e+00
6.800000e-07	-1.522565e-06	-2.296599e-11	-1.210301e+01	-1.333050e+00
6.900000e-07	-1.495362e-06	-3.392641e-11	-1.188678e+01	-1.279462e+00
7.000000e-07	-1.467823e-06	-2.778504e-11	-1.166787e+01	-1.221010e+00
7.100000e-07	-1.440041e-06	-1.811589e-11	-1.144702e+01	-1.158230e+00
7.200000e-07	-1.412102e-06	-1.577826e-11	-1.122494e+01	-1.091823e+00
7.300000e-07	-1.384053e-06	-1.961523e-11	-1.100197e+01	-1.022617e+00
7.400000e-07	-1.355933e-06	-2.021898e-11	-1.077844e+01	-9.515070e-01
7.500000e-07	-1.327662e-06	-1.482102e-11	-1.055371e+01	-8.794130e-01
7.600000e-07	-1.299183e-06	-1.005755e-11	-1.032733e+01	-8.072227e-01
7.700000e-07	-1.270468e-06	-1.084283e-11	-1.009907e+01	-7.357483e-01
7.800000e-07	-1.241529e-06	-1.357480e-11	-9.869033e+00	-6.656871e-01
7.900000e-07	-1.212316e-06	-1.091628e-11	-9.636817e+00	-5.975930e-01
8.000000e-07	-1.182785e-06	-1.090751e-11	-9.402074e+00	-5.318588e-01
8.100000e-07	-1.153079e-06	-1.422706e-11	-9.165938e+00	-4.687094e-01
8.200000e-07	-1.123257e-06	-9.059014e-12	-8.928880e+00	-4.082073e-01
8.300000e-07	-1.093269e-06	-4.806574e-12	-8.690498e+00	-3.502673e-01
8.400000e-07	-1.063082e-06	-8.784340e-12	-8.450542e+00	-2.946802e-01
8.500000e-07	-1.032715e-06	-9.058945e-12	-8.209154e+00	-2.411420e-01
8.600000e-07	-1.002162e-06	6.444035e-13	-7.966282e+00	-1.892872e-01
8.700000e-07	-9.714326e-07	4.880307e-12	-7.722012e+00	-1.387222e-01
8.800000e-07	-9.406469e-07	-4.668258e-12	-7.477292e+00	-8.905646e-02
8.900000e-07	-9.097790e-07	-9.882939e-12	-7.231921e+00	-3.993048e-02
9.000000e-07	-8.786976e-07	-1.117492e-12	-6.984852e+00	8.963699e-03
9.100000e-07	-8.473530e-07	8.473668e-12	-6.735690e+00	5.786847e-02
9.200000e-07	-8.158319e-07	4.327385e-12	-6.485126e+00	1.069548e-01
9.300000e-07	-7.842412e-07	-3.950598e-12	-6.234009e+00	1.563239e-01
9.400000e-07	-7.525233e-07	-6.749091e-13	-5.981881e+00	2.060159e-01
9.500000e-07	-7.206594e-07	8.897269e-12	-5.728591e+00	2.560236e-01
9.600000e-07	-6.887352e-07	1.096051e-11	-5.474822e+00	3.063096e-01
9.700000e-07	-6.567512e-07	3.956169e-12	-5.220579e+00	3.568255e-01
9.800000e-07	-6.247073e-07	1.903516e-13	-4.965858e+00	4.075291e-01
9.900000e-07	-5.926353e-07	5.264185e-12	-4.710915e+00	4.584001e-01
1.000000e-06	-5.604771e-07	9.420912e-12	-4.455287e+00	5.094500e-01
1.010000e-06	-5.282579e-07	8.965877e-12	-4.199173e+00	5.607280e-01
1.020000e-06	-4.960143e-07	8.471780e-12	-3.942866e+00	6.123185e-01
1.030000e-06	-4.637251e-07	9.727017e-12	-3.686196e+00	6.643346e-01
1.040000e-06	-4.313671e-07	1.052796e-11	-3.428978e+00	7.169041e-01
1.050000e-06	-3.989311e-07	9.333568e-12	-3.171142e+00	7.701532e-01
1.060000e-06	-3.664159e-07	9.443768e-12	-2.912676e+00	8.241856e-01
1.070000e-06	-3.338544e-07	1.070311e-11	-2.653841e+00	8.790633e-01
1.080000e-06	-3.012609e-07	9.034953e-12	-2.394752e+00	9.347873e-01
1.090000e-06	-2.686208e-07	4.644471e-12	-2.135292e+00	9.912837e-01
1.100000e-06	-2.359005e-07	4.944506e-12	-1.875195e+00	1.048394e+00
1.110000e-06	-2.031094e-07	1.104069e-11	-1.614536e+00	1.105874e+00
1.120000e-06	-1.703140e-07	1.239115e-11	-1.353843e+00	1.163400e+00
1.130000e-06	-1.375102e-07	5.686919e-12	-1.093082e+00	1.220582e+00
1.140000e-06	-1.046129e-07	4.625051e-12	-8.315777e-01	1.276984e+00
1.150000e-06	-7.167048e-08	1.492445e-11	-5.697155e-01	1.332155e+00
1.160000e-06	-3.871274e-08	2.161005e-11	-3.077313e-01	1.385659e+00
1.170000e-06	-5.753919e-09	1.440390e-11	-4.573846e-02	1.437104e+00
1.180000e-06	2.717009e-08	8.986672e-12	2.159777e-01	1.486182e+00
1.190000e-06	6.017712e-08	1.606540e-11	4.783537e-01	1.532692e+00
1.200000e-06	9.316846e-08	2.346657e-11	7.406051e-01	1.576564e+00
1.210000e-06	1.260323e-07	2.109635e-11	1.001843e+00	1.617872e+00
1.220000e-06	1.588357e-07	1.432373e-11	1.262600e+00	1.656841e+00
1.230000e-06	1.916592e-07	1.237791e-11	1.523517e+00	1.693834e+00
1.240000e-06	2.244349e-07	1.712502e-11	1.784055e+00	1.729340e+00
1.250000e-06	2.571838e-07	2.129683e-11	2.044379e+00	1.763939e+00
1.260000e-06	2.898739e-07	2.040053e-11	2.304235e+00	1.798271e+00
1.270000e-06	3.224089e-07	1.906646e-11	2.562860e+00	1.832987e+00
1.280000e-06	3.549339e-07	2.304110e-11	2.821404e+00	1.868709e+00
1.290000e-06	3.874314e-07	2.890163e-11	3.079730e+00	1.905976e+00
1.300000e-06	4.198057e-07	2.812057e-11	3.337076e+00	1.945209e+00
1.310000e-06	4.521131e-07	2.530623e-11	3.593891e+00	1.986672e+00
1.320000e-06	4.843451e-07	2.730679e-11	3.850106e+00	2.030448e+00
1.330000e-06	5.165116e-07	3.266001e-11	4.105800e+00	2.076424e+00
1.340000e-06	5.486684e-07	3.437318e-11	4.361418e+00	2.124296e+00
1.350000e-06	5.807863e-07	3.361523e-11	4.616726e+00	2.173580e+00
1.360000e-06	6.128578e-07	3.321720e-11	4.871666e+00	2.223645e+00
1.370000e-06	6.449012e-07	3.200424e-11	5.126381e+00	2.273749e+00
1.380000e-06	6.768992e-07	3.276614e-11	5.380737e+00	2.323095e+00
1.390000e-06	7.088418e-07	3.773395e-11	5.634652e+00	2.370882e+00
1.400000e-06	7.407191e-07	4.125939e-11	5.888047e+00	2.416369e+00
1.410000e-06	7.725470e-07	3.880435e-11	6.141051e+00	2.458925e+00
1.420000e-06	8.043157e-07	3.508311e-11	6.393583e+00	2.498088e+00
1.430000e-06	8.358697e-07	3.717296e-11	6.644409e+00	2.533599e+00
1.440000e-06	8.671868e-07	4.276453e-11	6.893352e+00	2.565435e+00
1.450000e-06	8.983786e-07	4.347657e-11	7.141298e+00	2.593815e+00
1.460000e-06	9.293997e-07	3.916342e-11	7.387888e+00	2.619203e+00
1.470000e-06	9.601950e-07	3.682083e-11	7.632683e+00	2.642282e+00
1.480000e-06	9.907358e-07	4.060009e-11	7.875454e+00	2.663921e+00
1.490000e-06	1.021012e-06	4.469945e-11	8.116125e+00	2.685120e+00
1.500000e-06	1.051147e-06	4.328679e-11	8.355665e+00	2.706955e+00
1.510000e-06	1.081241e-06	4.076598e-11	8.594892e+00	2.730509e+00
1.520000e-06	1.111255e-06	4.342052e-11	8.833474e+00	2.756803e+00
1.530000e-06	1.141138e-06	4.846169e-11	9.071014e+00	2.786730e+00
1.540000e-06	1.170840e-06	4.878238e-11	9.307119e+00	2.821002e+00
1.550000e-06	1.200300e-06	4.531740e-11	9.541301e+00	2.860095e+00
1.560000e-06	1.229553e-06	4.495344e-11	9.773832e+00	2.904223e+00
1.570000e-06	1.258567e-06	4.867040e-11	1.000447e+01	2.953321e+00
1.580000e-06	1.287327e-06	5.033304e-11	1.023309e+01	3.007047e+00
1.590000e-06	1.315855e-06	4.770140e-11	1.045986e+01	3.064806e+00
1.600000e-06	1.344218e-06	4.617334e-11	1.068532e+01	3.125780e+00
1.610000e-06	1.372460e-06	4.855793e-11	1.090981e+01	3.188985e+00
1.620000e-06	1.400546e-06	5.056548e-11	1.113307e+01	3.253333e+00
1.630000e-06	1.428504e-06	5.042083e-11	1.135531e+01	3.317692e+00
1.640000e-06	1.456337e-06	5.167152e-11	1.157656e+01	3.380963e+00
1.650000e-06	1.483954e-06	5.464208e-11	1.179610e+01	3.442137e+00
1.660000e-06	1.511279e-06	5.623249e-11	1.201330e+01	3.500362e+00
1.670000e-06	1.538199e-06	5.637808e-11	1.222730e+01	3.554980e+00
1.680000e-06	1.564626e-06	5.743710e-11	1.243737e+01	3.605563e+00
1.690000e-06	1.590567e-06	5.829261e-11	1.264357e+01	3.651927e+00
1.700000e-06	1.616028e-06	5.862199e-11	1.284596e+01	3.694129e+00
1.710000e-06	1.641081e-06	5.877101e-11	1.304511e+01	3.732448e+00
1.720000e-06	1.665695e-06	5.993431e-11	1.324077e+01	3.767347e+00
1.730000e-06	1.690012e-06	6.322608e-11	1.343407e+01	3.799435e+00
1.740000e-06	1.714171e-06	6.528412e-11	1.362611e+01	3.829401e+00
1.750000e-06	1.738120e-06	6.517611e-11	1.381649e+01	3.857964e+00
1.760000e-06	1.761889e-06	6.621576e-11	1.400543e+01	3.885807e+00
1.770000e-06	1.785389e-06	6.862862e-11	1.419223e+01	3.913527e+00
1.780000e-06	1.808526e-06	7.044197e-11	1.437615e+01	3.941585e+00
1.790000e-06	1.831283e-06	7.002608e-11	1.455704e+01	3.970277e+00
1.800000e-06	1.853683e-06	7.008073e-11	1.473510e+01	3.999711e+00
1.810000e-06	1.875808e-06	7.259604e-11	1.491098e+01	4.029805e+00
1.820000e-06	1.897643e-06	7.395218e-11	1.508455e+01	4.060295e+00
1.830000e-06	1.919189e-06	7.372814e-11	1.525582e+01	4.090769e+00
1.840000e-06	1.940397e-06	7.384234e-11	1.542440e+01	4.120698e+00
1.850000e-06	1.961203e-06	7.460448e-11	1.558979e+01	4.149490e+00
1.860000e-06	1.981694e-06	7.456751e-11	1.575268e+01	4.176539e+00
1.870000e-06	2.001960e-06	7.512860e-11	1.591377e+01	4.201282e+00
1.880000e-06	2.022037e-06	7.569270e-11	1.607336e+01	4.223250e+00
1.890000e-06	2.041913e-06	7.572540e-11	1.623136e+01	4.242112e+00
1.900000e-06	2.061500e-06	7.789025e-11	1.638707e+01	4.257705e+00
1.910000e-06	2.080743e-06	8.054138e-11	1.654002e+01	4.270061e+00
1.920000e-06	2.099616e-06	8.112484e-11	1.669005e+01	4.279403e+00
1.930000e-06	2.118003e-06	7.958210e-11	1.683621e+01	4.286143e+00
1.940000e-06	2.135965e-06	7.876682e-11	1.697899e+01	4.290848e+00
1.950000e-06	2.153533e-06	7.935093e-11	1.711864e+01	4.294209e+00
1.960000e-06	2.170705e-06	7.926385e-11	1.725514e+01	4.296986e+00
1.970000e-06	2.187562e-06	7.748535e-11	1.738914e+01	4.299957e+00
1.980000e-06	2.204079e-06	7.630766e-11	1.752044e+01	4.303859e+00
1.990000e-06	2.220218e-06	7.670340e-11	1.764872e+01	4.309328e+00
2.000000e-06	2.235919e-06	7.826755e-11	1.777354e+01	4.316855e+00
2.010000e-06	2.251109e-06	8.030236e-11	1.789428e+01	4.326742e+00
2.020000e-06	2.265808e-06	8.110208e-11	1.801112e+01	4.339073e+00
2.030000e-06	2.279996e-06	8.079740e-11	1.812391e+01	4.353705e+00
2.040000e-06	2.293715e-06	8.167742e-11	1.823296e+01	4.370268e+00
2.050000e-06	2.307062e-06	8.268683e-11	1.833906e+01	4.388184e+00
2.060000e-06	2.320032e-06	8.167681e-11	1.844216e+01	4.406703e+00
2.070000e-06	2.332567e-06	8.124071e-11	1.854180e+01	4.424947e+00
2.080000e-06	2.344718e-06	8.119414e-11	1.863839e+01	4.441967e+00
2.090000e-06	2.356548e-06	8.150399e-11	1.873242e+01	4.456799e+00
2.100000e-06	2.367881e-06	8.255172e-11	1.882252e+01	4.468531e+00
2.110000e-06	2.378602e-06	8.236103e-11	1.890774e+01	4.476360e+00
2.120000e-06	2.388686e-06	8.093070e-11	1.898790e+01	4.479640e+00
2.130000e-06	2.398111e-06	7.982720e-11	1.906281e+01	4.477930e+00
2.140000e-06	2.406954e-06	7.797438e-11	1.913311e+01	4.471015e+00
2.150000e-06	2.415393e-06	7.394599e-11	1.920019e+01	4.458923e+00
2.160000e-06	2.423516e-06	7.167044e-11	1.926477e+01	4.441922e+00
2.170000e-06	2.431365e-06	7.168705e-11	1.932715e+01	4.420502e+00
2.180000e-06	2.438848e-06	7.096963e-11	1.938664e+01	4.395340e+00
2.190000e-06	2.445857e-06	7.035809e-11	1.944235e+01	4.367262e+00
2.200000e-06	2.452456e-06	7.048712e-11	1.949481e+01	4.337190e+00
2.210000e-06	2.458621e-06	7.007502e-11	1.954382e+01	4.306083e+00
2.220000e-06	2.464353e-06	6.909348e-11	1.958938e+01	4.274880e+00
2.230000e-06	2.469721e-06	6.788110e-11	1.963205e+01	4.244450e+00
2.240000e-06	2.474692e-06	6.721009e-11	1.967156e+01	4.215539e+00
2.250000e-06	2.479267e-06	6.684556e-11	1.970793e+01	4.188732e+00
2.260000e-06	2.483513e-06	6.615527e-11	1.974168e+01	4.164428e+00
2.270000e-06	2.487508e-06	6.438391e-11	1.977344e+01	4.142822e+00
2.280000e-06	2.491150e-06	6.293307e-11	1.980239e+01	4.123906e+00
2.290000e-06	2.494239e-06	6.481810e-11	1.982694e+01	4.107478e+00
2.300000e-06	2.496727e-06	6.621653e-11	1.984672e+01	4.093167e+00
2.310000e-06	2.498547e-06	6.530862e-11	1.986119e+01	4.080462e+00
2.320000e-06	2.499715e-06	6.401862e-11	1.987048e+01	4.068753e+00
2.330000e-06	2.500399e-06	6.486545e-11	1.987591e+01	4.057372e+00
2.340000e-06	2.500718e-06	6.588551e-11	1.987845e+01	4.045634e+00
2.350000e-06	2.500725e-06	6.565043e-11	1.987850e+01	4.032880e+00
2.360000e-06	2.500379e-06	6.462884e-11	1.987575e+01	4.018514e+00
2.370000e-06	2.499660e-06	6.306992e-11	1.987004e+01	4.002026e+00
2.380000e-06	2.498527e-06	6.346012e-11	1.986103e+01	3.983020e+00
2.390000e-06	2.496964e-06	7.132867e-11	1.984861e+01	3.961221e+00
2.400000e-06	2.494990e-06	8.594605e-11	1.983292e+01	3.936479e+00
2.410000e-06	2.492597e-06	5.650006e-11	1.981390e+01	3.908764e+00
2.420000e-06	2.489719e-06	1.105560e-11	1.979101e+01	3.878154e+00
2.430000e-06	2.486356e-06	8.207165e-11	1.976428e+01	3.844817e+00
2.440000e-06	2.482682e-06	1.083578e-10	1.973508e+01	3.808990e+00
2.450000e-06	2.478842e-06	3.352750e-11	1.970455e+01	3.770958e+00
2.460000e-06	2.474674e-06	3.164214e-11	1.967142e+01	3.731028e+00
2.470000e-06	2.469971e-06	8.966097e-11	1.963404e+01	3.689518e+00
2.480000e-06	2.464791e-06	7.525458e-11	1.959286e+01	3.646732e+00
2.490000e-06	2.459075e-06	3.159333e-11	1.954743e+01	3.602954e+00
2.500000e-06	2.452697e-06	7.254551e-11	1.949672e+01	3.558442e+00
2.510000e-06	2.445721e-06	6.533966e-11	1.944127e+01	3.513421e+00
2.520000e-06	2.438329e-06	1.861393e-11	1.938251e+01	3.468090e+00
2.530000e-06	2.430587e-06	7.991501e-11	1.932097e+01	3.422622e+00
2.540000e-06	2.422418e-06	1.395265e-10	1.925603e+01	3.377173e+00
2.550000e-06	2.413809e-06	1.318528e-11	1.918760e+01	3.331887e+00
2.560000e-06	2.404848e-06	-4.209205e-11	1.911636e+01	3.286898e+00
2.570000e-06	2.395538e-06	1.353386e-10	1.904236e+01	3.242340e+00
2.580000e-06	2.385813e-06	1.669930e-10	1.896506e+01	3.198336e+00
2.590000e-06	2.375699e-06	-4.398664e-11	1.888466e+01	3.155006e+00
2.600000e-06	2.365134e-06	-4.852079e-11	1.880068e+01	3.112451e+00
2.610000e-06	2.354146e-06	1.698936e-10	1.871333e+01	3.070747e+00
2.620000e-06	2.342816e-06	1.229199e-10	1.862327e+01	3.029934e+00
2.630000e-06	2.331053e-06	-7.045860e-11	1.852977e+01	2.990005e+00
2.640000e-06	2.318867e-06	2.375113e-11	1.843290e+01	2.950891e+00
2.650000e-06	2.306182e-06	1.537630e-10	1.833206e+01	2.912459e+00
2.660000e-06	2.292827e-06	1.876315e-11	1.822590e+01	2.874503e+00
2.670000e-06	2.278783e-06	-2.892558e-11	1.811426e+01	2.836748e+00
2.680000e-06	2.264104e-06	1.188653e-10	1.799758e+01	2.798855e+00
2.690000e-06	2.248917e-06	8.297451e-11	1.787686e+01	2.760437e+00
2.700000e-06	2.233303e-06	-4.237660e-11	1.775274e+01	2.721077e+00
2.710000e-06	2.217390e-06	5.223968e-11	1.762625e+01	2.680352e+00
2.720000e-06	2.201284e-06	1.337687e-10	1.749822e+01	2.637865e+00
2.730000e-06	2.184857e-06	1.357813e-11	1.736764e+01	2.593270e+00
2.740000e-06	2.168002e-06	-3.081848e-11	1.723366e+01	2.546308e+00
2.750000e-06	2.150723e-06	6.718900e-11	1.709631e+01	2.496831e+00
2.760000e-06	2.133070e-06	8.174516e-11	1.695598e+01	2.444823e+00
2.770000e-06	2.115090e-06	1.989520e-11	1.681305e+01	2.390422e+00
2.780000e-06	2.096792e-06	4.014251e-12	1.666760e+01	2.333920e+00
2.790000e-06	2.078138e-06	4.254931e-11	1.651932e+01	2.275762e+00
2.800000e-06	2.059072e-06	6.874110e-11	1.636776e+01	2.216533e+00
2.810000e-06	2.039638e-06	3.169817e-11	1.621328e+01	2.156929e+00
2.820000e-06	2.019933e-06	5.737793e-12	1.605664e+01	2.097731e+00
2.830000e-06	2.000052e-06	4.664393e-11	1.589861e+01	2.039754e+00
2.840000e-06	1.980005e-06	4.945002e-11	1.573925e+01	1.983808e+00
2.850000e-06	1.959723e-06	5.190947e-12	1.557802e+01	1.930644e+00
2.860000e-06	1.939060e-06	2.313645e-11	1.541377e+01	1.880907e+00
2.870000e-06	1.917897e-06	4.770459e-11	1.524555e+01	1.835094e+00
2.880000e-06	1.896145e-06	1.218977e-11	1.507264e+01	1.793513e+00
2.890000e-06	1.873730e-06	9.363927e-12	1.489446e+01	1.756258e+00
2.900000e-06	1.850734e-06	3.688413e-11	1.471166e+01	1.723195e+00
2.910000e-06	1.827314e-06	2.053765e-11	1.452550e+01	1.693957e+00
2.920000e-06	1.803649e-06	1.072898e-11	1.433738e+01	1.667960e+00
2.930000e-06	1.779841e-06	2.841460e-11	1.414813e+01	1.644424e+00
2.940000e-06	1.755893e-06	2.640143e-11	1.395776e+01	1.622417e+00
2.950000e-06	1.731744e-06	1.359612e-11	1.376580e+01	1.600895e+00
2.960000e-06	1.707340e-06	1.830696e-11	1.357181e+01	1.578762e+00
