# Temperatura_=_20.0
# Concentracion g/m^3_=_12600.0
# C_Vs_to_Am_M_A/Vsm_=_65563218390.804596
# pendiente_HvsI_1/m_=_3716.3
# ordenada_HvsI_A/m_=_1297.0
# frecuencia_Hz_=_213045.73880680153

Tiempo_(s)	Campo_(V.s)	Magnetizacion_(V.s)	Campo_(kA/m)	Magnetizacion_(A/m)
0.000000e+00	-2.496666e-06	-5.463988e-11	-1.982412e+01	-3.668742e+00
1.000000e-08	-2.496588e-06	-5.313089e-11	-1.982349e+01	-3.650540e+00
2.000000e-08	-2.496202e-06	-5.188877e-11	-1.982043e+01	-3.631848e+00
3.000000e-08	-2.495450e-06	-5.114277e-11	-1.981446e+01	-3.612832e+00
4.000000e-08	-2.494189e-06	-4.639500e-11	-1.980445e+01	-3.593594e+00
5.000000e-08	-2.492300e-06	-2.579516e-11	-1.978945e+01	-3.574174e+00
6.000000e-08	-2.489689e-06	-3.079440e-11	-1.976872e+01	-3.554545e+00
7.000000e-08	-2.486357e-06	-1.092337e-10	-1.974226e+01	-3.534618e+00
8.000000e-08	-2.482516e-06	-8.606891e-11	-1.971176e+01	-3.514250e+00
9.000000e-08	-2.478362e-06	2.278085e-11	-1.967878e+01	-3.493253e+00
1.000000e-07	-2.473997e-06	-4.849362e-13	-1.964412e+01	-3.471412e+00
1.100000e-07	-2.469265e-06	-1.187477e-10	-1.960655e+01	-3.448494e+00
1.200000e-07	-2.464086e-06	-8.387091e-11	-1.956542e+01	-3.424267e+00
1.300000e-07	-2.458556e-06	-5.691025e-12	-1.952152e+01	-3.398513e+00
1.400000e-07	-2.452510e-06	-3.924235e-11	-1.947351e+01	-3.371040e+00
1.500000e-07	-2.445986e-06	-1.991256e-11	-1.942170e+01	-3.341697e+00
1.600000e-07	-2.439139e-06	-3.020155e-11	-1.936734e+01	-3.310382e+00
1.700000e-07	-2.431825e-06	-1.208067e-10	-1.930926e+01	-3.277045e+00
1.800000e-07	-2.424104e-06	-1.015406e-10	-1.924795e+01	-3.241694e+00
1.900000e-07	-2.416111e-06	6.556615e-11	-1.918449e+01	-3.204395e+00
2.000000e-07	-2.407869e-06	4.758476e-11	-1.911905e+01	-3.165269e+00
2.100000e-07	-2.399317e-06	-1.737562e-10	-1.905114e+01	-3.124484e+00
2.200000e-07	-2.390196e-06	-1.468872e-10	-1.897872e+01	-3.082254e+00
2.300000e-07	-2.380282e-06	8.718559e-11	-1.890000e+01	-3.038822e+00
2.400000e-07	-2.369569e-06	4.560207e-11	-1.881494e+01	-2.994459e+00
2.500000e-07	-2.358279e-06	-1.601805e-10	-1.872529e+01	-2.949449e+00
2.600000e-07	-2.346627e-06	-9.358857e-11	-1.863277e+01	-2.904077e+00
2.700000e-07	-2.334644e-06	4.567625e-11	-1.853762e+01	-2.858627e+00
2.800000e-07	-2.322209e-06	-5.133806e-11	-1.843889e+01	-2.813366e+00
2.900000e-07	-2.309228e-06	-9.276904e-11	-1.833581e+01	-2.768540e+00
3.000000e-07	-2.295776e-06	2.755185e-11	-1.822900e+01	-2.724369e+00
3.100000e-07	-2.281965e-06	-2.286625e-11	-1.811934e+01	-2.681037e+00
3.200000e-07	-2.267751e-06	-1.413082e-10	-1.800648e+01	-2.638694e+00
3.300000e-07	-2.253055e-06	-3.464807e-11	-1.788979e+01	-2.597453e+00
3.400000e-07	-2.237662e-06	7.929508e-11	-1.776756e+01	-2.557384e+00
3.500000e-07	-2.221682e-06	-4.432362e-11	-1.764068e+01	-2.518519e+00
3.600000e-07	-2.205276e-06	-1.451115e-10	-1.751041e+01	-2.480852e+00
3.700000e-07	-2.188388e-06	-3.677780e-11	-1.737631e+01	-2.444338e+00
3.800000e-07	-2.171152e-06	4.896893e-11	-1.723946e+01	-2.408901e+00
3.900000e-07	-2.153618e-06	-1.629073e-11	-1.710023e+01	-2.374431e+00
4.000000e-07	-2.135824e-06	-9.229132e-11	-1.695895e+01	-2.340795e+00
4.100000e-07	-2.117685e-06	-7.191240e-11	-1.681492e+01	-2.307835e+00
4.200000e-07	-2.099110e-06	-1.437210e-11	-1.666743e+01	-2.275383e+00
4.300000e-07	-2.080092e-06	-1.080202e-11	-1.651642e+01	-2.243257e+00
4.400000e-07	-2.060683e-06	-3.861364e-11	-1.636231e+01	-2.211275e+00
4.500000e-07	-2.040937e-06	-5.822771e-11	-1.620552e+01	-2.179261e+00
4.600000e-07	-2.020931e-06	-7.133766e-11	-1.604667e+01	-2.147051e+00
4.700000e-07	-2.000771e-06	-4.629507e-11	-1.588659e+01	-2.114499e+00
4.800000e-07	-1.980419e-06	5.376893e-12	-1.572499e+01	-2.081488e+00
4.900000e-07	-1.959814e-06	-1.520242e-11	-1.556139e+01	-2.047931e+00
5.000000e-07	-1.938889e-06	-9.042876e-11	-1.539523e+01	-2.013777e+00
5.100000e-07	-1.917612e-06	-7.118465e-11	-1.522629e+01	-1.979015e+00
5.200000e-07	-1.895927e-06	4.638315e-12	-1.505411e+01	-1.943673e+00
5.300000e-07	-1.873888e-06	-9.430251e-12	-1.487911e+01	-1.907815e+00
5.400000e-07	-1.851609e-06	-6.220753e-11	-1.470221e+01	-1.871540e+00
5.500000e-07	-1.828942e-06	-6.234220e-11	-1.452223e+01	-1.834974e+00
5.600000e-07	-1.805868e-06	-4.209604e-11	-1.433902e+01	-1.798260e+00
5.700000e-07	-1.782474e-06	-3.042602e-11	-1.415326e+01	-1.761548e+00
5.800000e-07	-1.758747e-06	-2.052834e-11	-1.396486e+01	-1.724986e+00
5.900000e-07	-1.734808e-06	-3.473246e-11	-1.377478e+01	-1.688703e+00
6.000000e-07	-1.710767e-06	-6.500248e-11	-1.358390e+01	-1.652798e+00
6.100000e-07	-1.686571e-06	-5.213095e-11	-1.339177e+01	-1.617332e+00
6.200000e-07	-1.662153e-06	-8.628344e-12	-1.319789e+01	-1.582310e+00
6.300000e-07	-1.637352e-06	-9.877405e-12	-1.300096e+01	-1.547681e+00
6.400000e-07	-1.612065e-06	-5.351750e-11	-1.280018e+01	-1.513332e+00
6.500000e-07	-1.586374e-06	-6.419073e-11	-1.259618e+01	-1.479085e+00
6.600000e-07	-1.560162e-06	-2.219472e-11	-1.238806e+01	-1.444704e+00
6.700000e-07	-1.533464e-06	-6.583868e-13	-1.217606e+01	-1.409902e+00
6.800000e-07	-1.506367e-06	-3.275357e-11	-1.196091e+01	-1.374354e+00
6.900000e-07	-1.478892e-06	-5.825007e-11	-1.174275e+01	-1.337712e+00
7.000000e-07	-1.451173e-06	-4.007298e-11	-1.152266e+01	-1.299625e+00
7.100000e-07	-1.423263e-06	-1.182512e-11	-1.130105e+01	-1.259760e+00
7.200000e-07	-1.395227e-06	-1.420470e-11	-1.107843e+01	-1.217824e+00
7.300000e-07	-1.367095e-06	-3.616343e-11	-1.085506e+01	-1.173586e+00
7.400000e-07	-1.338819e-06	-4.013051e-11	-1.063053e+01	-1.126897e+00
7.500000e-07	-1.310371e-06	-2.439443e-11	-1.040466e+01	-1.077706e+00
7.600000e-07	-1.281700e-06	-1.733773e-11	-1.017700e+01	-1.026072e+00
7.700000e-07	-1.252756e-06	-2.504394e-11	-9.947178e+00	-9.721750e-01
7.800000e-07	-1.223565e-06	-2.745046e-11	-9.715391e+00	-9.163128e-01
7.900000e-07	-1.194151e-06	-2.398298e-11	-9.481842e+00	-8.588995e-01
8.000000e-07	-1.164537e-06	-2.733972e-11	-9.246701e+00	-8.004525e-01
8.100000e-07	-1.134713e-06	-2.331069e-11	-9.009888e+00	-7.415751e-01
8.200000e-07	-1.104715e-06	-1.086642e-11	-8.771696e+00	-6.829342e-01
8.300000e-07	-1.074590e-06	-1.239487e-11	-8.532495e+00	-6.252319e-01
8.400000e-07	-1.044323e-06	-2.576830e-11	-8.292174e+00	-5.691763e-01
8.500000e-07	-1.013900e-06	-2.481547e-11	-8.050606e+00	-5.154489e-01
8.600000e-07	-9.833949e-07	-7.425571e-12	-7.808388e+00	-4.646731e-01
8.700000e-07	-9.527585e-07	-2.195498e-12	-7.565127e+00	-4.173849e-01
8.800000e-07	-9.218446e-07	-1.696819e-11	-7.319663e+00	-3.740064e-01
8.900000e-07	-8.906330e-07	-2.494930e-11	-7.071836e+00	-3.348249e-01
9.000000e-07	-8.592596e-07	-1.125492e-11	-6.822723e+00	-2.999781e-01
9.100000e-07	-8.278066e-07	2.108484e-12	-6.572979e+00	-2.694464e-01
9.200000e-07	-7.961911e-07	-5.294290e-12	-6.321945e+00	-2.430529e-01
9.300000e-07	-7.644599e-07	-1.886421e-11	-6.069992e+00	-2.204709e-01
9.400000e-07	-7.326505e-07	-1.523373e-11	-5.817418e+00	-2.012387e-01
9.500000e-07	-7.006969e-07	-1.821859e-12	-5.563699e+00	-1.847809e-01
9.600000e-07	-6.686567e-07	-1.022505e-12	-5.309292e+00	-1.704350e-01
9.700000e-07	-6.365995e-07	-1.239401e-11	-5.054750e+00	-1.574820e-01
9.800000e-07	-6.045076e-07	-1.451776e-11	-4.799933e+00	-1.451787e-01
9.900000e-07	-5.723757e-07	-4.075417e-12	-4.544798e+00	-1.327910e-01
1.000000e-06	-5.402433e-07	2.627806e-12	-4.289659e+00	-1.196251e-01
1.010000e-06	-5.080590e-07	-5.789356e-13	-4.034108e+00	-1.050569e-01
1.020000e-06	-4.757694e-07	-4.583989e-12	-3.777721e+00	-8.855515e-02
1.030000e-06	-4.434192e-07	-1.949645e-12	-3.520853e+00	-6.970047e-02
1.040000e-06	-4.110296e-07	-6.838506e-13	-3.263672e+00	-4.819697e-02
1.050000e-06	-3.785249e-07	-4.292094e-12	-3.005577e+00	-2.387715e-02
1.060000e-06	-3.459631e-07	-4.918330e-12	-2.747029e+00	3.300161e-03
1.070000e-06	-3.133578e-07	-4.281160e-12	-2.488135e+00	3.325855e-02
1.080000e-06	-2.807064e-07	-6.454561e-12	-2.228875e+00	6.581856e-02
1.090000e-06	-2.480243e-07	-8.000597e-12	-1.969372e+00	1.007170e-01
1.100000e-06	-2.152199e-07	-3.180194e-12	-1.708897e+00	1.376296e-01
1.110000e-06	-1.823506e-07	3.704599e-12	-1.447907e+00	1.761962e-01
1.120000e-06	-1.494409e-07	1.533392e-12	-1.186596e+00	2.160451e-01
1.130000e-06	-1.164371e-07	-4.667488e-12	-9.245384e-01	2.568180e-01
1.140000e-06	-8.341977e-08	-1.974378e-12	-6.623727e-01	2.981908e-01
1.150000e-06	-5.039641e-08	6.907453e-12	-4.001593e-01	3.398922e-01
1.160000e-06	-1.735641e-08	6.417360e-12	-1.378140e-01	3.817165e-01
1.170000e-06	1.563821e-08	-3.221479e-12	1.241711e-01	4.235322e-01
1.180000e-06	4.862722e-08	-3.799912e-12	3.861116e-01	4.652845e-01
1.190000e-06	8.161046e-08	5.856679e-12	6.480063e-01	5.069926e-01
1.200000e-06	1.145491e-07	1.023661e-11	9.095468e-01	5.487424e-01
1.210000e-06	1.474323e-07	5.127150e-12	1.170647e+00	5.906748e-01
1.220000e-06	1.802639e-07	7.114452e-13	1.431338e+00	6.329702e-01
1.230000e-06	2.131464e-07	5.347311e-12	1.692433e+00	6.758318e-01
1.240000e-06	2.460245e-07	1.111835e-11	1.953493e+00	7.194671e-01
1.250000e-06	2.787216e-07	1.020265e-11	2.213115e+00	7.640697e-01
1.260000e-06	3.113169e-07	7.891332e-12	2.471929e+00	8.098027e-01
1.270000e-06	3.438876e-07	1.179451e-11	2.730549e+00	8.567847e-01
1.280000e-06	3.764324e-07	1.958451e-11	2.988962e+00	9.050779e-01
1.290000e-06	4.089160e-07	2.046220e-11	3.246889e+00	9.546814e-01
1.300000e-06	4.413096e-07	1.752551e-11	3.504102e+00	1.005528e+00
1.310000e-06	4.736190e-07	1.716558e-11	3.760647e+00	1.057483e+00
1.320000e-06	5.058917e-07	2.052391e-11	4.016899e+00	1.110355e+00
1.330000e-06	5.381235e-07	2.146487e-11	4.272827e+00	1.163897e+00
1.340000e-06	5.702694e-07	1.916197e-11	4.528074e+00	1.217823e+00
1.350000e-06	6.023560e-07	2.020925e-11	4.782848e+00	1.271825e+00
1.360000e-06	6.344150e-07	2.205128e-11	5.037404e+00	1.325579e+00
1.370000e-06	6.664478e-07	2.108021e-11	5.291752e+00	1.378772e+00
1.380000e-06	6.984486e-07	2.078951e-11	5.545846e+00	1.431112e+00
1.390000e-06	7.304027e-07	2.469347e-11	5.799569e+00	1.482344e+00
1.400000e-06	7.622854e-07	2.741222e-11	6.052725e+00	1.532264e+00
1.410000e-06	7.940014e-07	2.402923e-11	6.304559e+00	1.580727e+00
1.420000e-06	8.255671e-07	2.111712e-11	6.555198e+00	1.627660e+00
1.430000e-06	8.570481e-07	2.609838e-11	6.805164e+00	1.673060e+00
1.440000e-06	8.883221e-07	3.213931e-11	7.053487e+00	1.716997e+00
1.450000e-06	9.193372e-07	3.006676e-11	7.299754e+00	1.759613e+00
1.460000e-06	9.501332e-07	2.382668e-11	7.544282e+00	1.801114e+00
1.470000e-06	9.807134e-07	2.471081e-11	7.787095e+00	1.841764e+00
1.480000e-06	1.011127e-06	3.307493e-11	8.028586e+00	1.881868e+00
1.490000e-06	1.041399e-06	3.637589e-11	8.268955e+00	1.921766e+00
1.500000e-06	1.071547e-06	3.281203e-11	8.508337e+00	1.961811e+00
1.510000e-06	1.101630e-06	3.049744e-11	8.747199e+00	2.002357e+00
1.520000e-06	1.131589e-06	3.523232e-11	8.985085e+00	2.043744e+00
1.530000e-06	1.161376e-06	4.069645e-11	9.221598e+00	2.086280e+00
1.540000e-06	1.190964e-06	3.858907e-11	9.456537e+00	2.130225e+00
1.550000e-06	1.220294e-06	3.488324e-11	9.689424e+00	2.175782e+00
1.560000e-06	1.249448e-06	3.645333e-11	9.920915e+00	2.223083e+00
1.570000e-06	1.278356e-06	4.098493e-11	1.015045e+01	2.272180e+00
1.580000e-06	1.306916e-06	4.310824e-11	1.037722e+01	2.323044e+00
1.590000e-06	1.335304e-06	4.183120e-11	1.060263e+01	2.375554e+00
1.600000e-06	1.363584e-06	4.159838e-11	1.082718e+01	2.429506e+00
1.610000e-06	1.391740e-06	4.368160e-11	1.105074e+01	2.484615e+00
1.620000e-06	1.419804e-06	4.510749e-11	1.127357e+01	2.540519e+00
1.630000e-06	1.447724e-06	4.608076e-11	1.149527e+01	2.596795e+00
1.640000e-06	1.475472e-06	4.671685e-11	1.171560e+01	2.652970e+00
1.650000e-06	1.502990e-06	4.832140e-11	1.193409e+01	2.708539e+00
1.660000e-06	1.530174e-06	5.054474e-11	1.214994e+01	2.762982e+00
1.670000e-06	1.556909e-06	5.225137e-11	1.236222e+01	2.815788e+00
1.680000e-06	1.583072e-06	5.380034e-11	1.256996e+01	2.866467e+00
1.690000e-06	1.608665e-06	5.443381e-11	1.277318e+01	2.914579e+00
1.700000e-06	1.633779e-06	5.229927e-11	1.297259e+01	2.959748e+00
1.710000e-06	1.658497e-06	5.158226e-11	1.316886e+01	3.001679e+00
1.720000e-06	1.682921e-06	5.418253e-11	1.336279e+01	3.040174e+00
1.730000e-06	1.707158e-06	5.667894e-11	1.355524e+01	3.075138e+00
1.740000e-06	1.731199e-06	5.635248e-11	1.374613e+01	3.106589e+00
1.750000e-06	1.755035e-06	5.555936e-11	1.393539e+01	3.134658e+00
1.760000e-06	1.778581e-06	5.835058e-11	1.412236e+01	3.159583e+00
1.770000e-06	1.801777e-06	6.137306e-11	1.430654e+01	3.181699e+00
1.780000e-06	1.824638e-06	5.973798e-11	1.448806e+01	3.201429e+00
1.790000e-06	1.847151e-06	5.739760e-11	1.466682e+01	3.219261e+00
1.800000e-06	1.869383e-06	5.935471e-11	1.484334e+01	3.235728e+00
1.810000e-06	1.891361e-06	6.212433e-11	1.501785e+01	3.251383e+00
1.820000e-06	1.913103e-06	6.148090e-11	1.519049e+01	3.266773e+00
1.830000e-06	1.934507e-06	5.992099e-11	1.536044e+01	3.282414e+00
1.840000e-06	1.955517e-06	6.005400e-11	1.552726e+01	3.298766e+00
1.850000e-06	1.976168e-06	6.156609e-11	1.569124e+01	3.316209e+00
1.860000e-06	1.996536e-06	6.340204e-11	1.585297e+01	3.335028e+00
1.870000e-06	2.016709e-06	6.335392e-11	1.601315e+01	3.355396e+00
1.880000e-06	2.036690e-06	6.272431e-11	1.617180e+01	3.377366e+00
1.890000e-06	2.056462e-06	6.311222e-11	1.632879e+01	3.400871e+00
1.900000e-06	2.075965e-06	6.390387e-11	1.648365e+01	3.425728e+00
1.910000e-06	2.095028e-06	6.393508e-11	1.663502e+01	3.451648e+00
1.920000e-06	2.113525e-06	6.338057e-11	1.678188e+01	3.478252e+00
1.930000e-06	2.131619e-06	6.308958e-11	1.692556e+01	3.505093e+00
1.940000e-06	2.149382e-06	6.448920e-11	1.706660e+01	3.531681e+00
1.950000e-06	2.166777e-06	6.698152e-11	1.720472e+01	3.557510e+00
1.960000e-06	2.183903e-06	6.870895e-11	1.734071e+01	3.582084e+00
1.970000e-06	2.200791e-06	6.936560e-11	1.747480e+01	3.604951e+00
1.980000e-06	2.217297e-06	6.976449e-11	1.760586e+01	3.625719e+00
1.990000e-06	2.233255e-06	6.973298e-11	1.773257e+01	3.644085e+00
2.000000e-06	2.248613e-06	6.890016e-11	1.785451e+01	3.659849e+00
2.010000e-06	2.263384e-06	6.747074e-11	1.797180e+01	3.672922e+00
2.020000e-06	2.277734e-06	6.607090e-11	1.808575e+01	3.683334e+00
2.030000e-06	2.291705e-06	6.564171e-11	1.819668e+01	3.691228e+00
2.040000e-06	2.305252e-06	6.668489e-11	1.830424e+01	3.696853e+00
2.050000e-06	2.318403e-06	6.794518e-11	1.840867e+01	3.700547e+00
2.060000e-06	2.331108e-06	6.794048e-11	1.850955e+01	3.702719e+00
2.070000e-06	2.343445e-06	6.823741e-11	1.860750e+01	3.703821e+00
2.080000e-06	2.355468e-06	6.830649e-11	1.870297e+01	3.704325e+00
2.090000e-06	2.367054e-06	6.823470e-11	1.879497e+01	3.704693e+00
2.100000e-06	2.378064e-06	6.705035e-11	1.888239e+01	3.705351e+00
2.110000e-06	2.388275e-06	6.505564e-11	1.896346e+01	3.706667e+00
2.120000e-06	2.397725e-06	6.426289e-11	1.903850e+01	3.708928e+00
2.130000e-06	2.406670e-06	6.444239e-11	1.910953e+01	3.712323e+00
2.140000e-06	2.415171e-06	6.373226e-11	1.917702e+01	3.716939e+00
2.150000e-06	2.423371e-06	6.295289e-11	1.924214e+01	3.722752e+00
2.160000e-06	2.431356e-06	6.349342e-11	1.930554e+01	3.729633e+00
2.170000e-06	2.438989e-06	6.440671e-11	1.936615e+01	3.737358e+00
2.180000e-06	2.446161e-06	6.451671e-11	1.942309e+01	3.745618e+00
2.190000e-06	2.452902e-06	6.329735e-11	1.947662e+01	3.754044e+00
2.200000e-06	2.459230e-06	6.148799e-11	1.952687e+01	3.762224e+00
2.210000e-06	2.465169e-06	6.227655e-11	1.957402e+01	3.769732e+00
2.220000e-06	2.470695e-06	6.411167e-11	1.961790e+01	3.776146e+00
2.230000e-06	2.475777e-06	6.397408e-11	1.965826e+01	3.781077e+00
2.240000e-06	2.480427e-06	6.498156e-11	1.969517e+01	3.784187e+00
2.250000e-06	2.484731e-06	6.670457e-11	1.972935e+01	3.785205e+00
2.260000e-06	2.488783e-06	6.694822e-11	1.976152e+01	3.783940e+00
2.270000e-06	2.492557e-06	6.636043e-11	1.979149e+01	3.780290e+00
2.280000e-06	2.495961e-06	6.721283e-11	1.981852e+01	3.774238e+00
2.290000e-06	2.498748e-06	6.870284e-11	1.984065e+01	3.765854e+00
2.300000e-06	2.500816e-06	6.932569e-11	1.985707e+01	3.755283e+00
2.310000e-06	2.502192e-06	6.884418e-11	1.986800e+01	3.742731e+00
2.320000e-06	2.502976e-06	6.913839e-11	1.987422e+01	3.728451e+00
2.330000e-06	2.503369e-06	6.858645e-11	1.987734e+01	3.712721e+00
2.340000e-06	2.503515e-06	6.671688e-11	1.987850e+01	3.695831e+00
2.350000e-06	2.503398e-06	6.620060e-11	1.987757e+01	3.678054e+00
2.360000e-06	2.502853e-06	6.688514e-11	1.987324e+01	3.659640e+00
2.370000e-06	2.501874e-06	6.661377e-11	1.986547e+01	3.640790e+00
2.380000e-06	2.500499e-06	6.881118e-11	1.985455e+01	3.621654e+00
2.390000e-06	2.498717e-06	8.979357e-11	1.984040e+01	3.602315e+00
2.400000e-06	2.496552e-06	9.120127e-11	1.982321e+01	3.582793e+00
2.410000e-06	2.493973e-06	9.095891e-12	1.980274e+01	3.563041e+00
2.420000e-06	2.490870e-06	2.815015e-11	1.977809e+01	3.542953e+00
2.430000e-06	2.487296e-06	1.204665e-10	1.974972e+01	3.522372e+00
2.440000e-06	2.483472e-06	8.002307e-11	1.971935e+01	3.501101e+00
2.450000e-06	2.479481e-06	2.312361e-11	1.968766e+01	3.478916e+00
2.460000e-06	2.475055e-06	7.072795e-11	1.965252e+01	3.455584e+00
2.470000e-06	2.469990e-06	9.706107e-11	1.961230e+01	3.430875e+00
2.480000e-06	2.464390e-06	4.741788e-11	1.956784e+01	3.404578e+00
2.490000e-06	2.458232e-06	6.164594e-11	1.951894e+01	3.376513e+00
2.500000e-06	2.451414e-06	8.843874e-11	1.946480e+01	3.346542e+00
2.510000e-06	2.444024e-06	2.448515e-11	1.940613e+01	3.314577e+00
2.520000e-06	2.436286e-06	2.244266e-11	1.934469e+01	3.280587e+00
2.530000e-06	2.428212e-06	1.404684e-10	1.928057e+01	3.244597e+00
2.540000e-06	2.419756e-06	1.025498e-10	1.921343e+01	3.206689e+00
2.550000e-06	2.410915e-06	-5.606301e-11	1.914324e+01	3.167000e+00
2.560000e-06	2.401734e-06	1.728361e-11	1.907033e+01	3.125712e+00
2.570000e-06	2.392157e-06	1.828789e-10	1.899429e+01	3.083049e+00
2.580000e-06	2.382181e-06	5.964023e-11	1.891508e+01	3.039263e+00
2.590000e-06	2.371863e-06	-8.522662e-11	1.883315e+01	2.994630e+00
2.600000e-06	2.361051e-06	8.447624e-11	1.874730e+01	2.949436e+00
2.610000e-06	2.349708e-06	1.717427e-10	1.865723e+01	2.903967e+00
2.620000e-06	2.337931e-06	-3.722456e-11	1.856372e+01	2.858501e+00
2.630000e-06	2.325846e-06	-4.465287e-11	1.846777e+01	2.813300e+00
2.640000e-06	2.313345e-06	1.723791e-10	1.836850e+01	2.768603e+00
2.650000e-06	2.300176e-06	8.486352e-11	1.826394e+01	2.724620e+00
2.660000e-06	2.286293e-06	-1.112913e-10	1.815371e+01	2.681526e+00
2.670000e-06	2.271702e-06	4.930712e-11	1.803785e+01	2.639458e+00
2.680000e-06	2.256468e-06	1.934761e-10	1.791689e+01	2.598517e+00
2.690000e-06	2.240844e-06	-2.314661e-12	1.779283e+01	2.558763e+00
2.700000e-06	2.225008e-06	-8.464895e-11	1.766709e+01	2.520214e+00
2.710000e-06	2.208933e-06	9.617554e-11	1.753945e+01	2.482854e+00
2.720000e-06	2.192568e-06	1.270614e-10	1.740950e+01	2.446627e+00
2.730000e-06	2.175812e-06	-8.123301e-12	1.727646e+01	2.411447e+00
2.740000e-06	2.158620e-06	-1.478464e-11	1.713995e+01	2.377197e+00
2.750000e-06	2.141052e-06	6.041532e-11	1.700046e+01	2.343736e+00
2.760000e-06	2.123182e-06	6.358772e-11	1.685857e+01	2.310902e+00
2.770000e-06	2.105029e-06	2.380004e-11	1.671443e+01	2.278521e+00
2.780000e-06	2.086536e-06	1.515869e-11	1.656758e+01	2.246412e+00
2.790000e-06	2.067558e-06	4.401966e-11	1.641690e+01	2.214393e+00
2.800000e-06	2.048169e-06	3.770906e-11	1.626295e+01	2.182291e+00
2.810000e-06	2.028587e-06	8.701248e-12	1.610746e+01	2.149947e+00
2.820000e-06	2.008846e-06	4.249186e-11	1.595071e+01	2.117223e+00
2.830000e-06	1.988942e-06	6.127259e-11	1.579267e+01	2.084010e+00
2.840000e-06	1.968842e-06	2.287375e-12	1.563307e+01	2.050232e+00
2.850000e-06	1.948429e-06	1.632882e-12	1.547098e+01	2.015850e+00
2.860000e-06	1.927479e-06	6.202600e-11	1.530464e+01	1.980864e+00
2.870000e-06	1.905826e-06	4.219940e-11	1.513271e+01	1.945313e+00
2.880000e-06	1.883506e-06	-1.541016e-12	1.495548e+01	1.909273e+00
2.890000e-06	1.860666e-06	1.945671e-11	1.477413e+01	1.872851e+00
2.900000e-06	1.837367e-06	3.278654e-11	1.458913e+01	1.836180e+00
2.910000e-06	1.813755e-06	2.531011e-11	1.440164e+01	1.799405e+00
2.920000e-06	1.789995e-06	3.249531e-11	1.421298e+01	1.762678e+00
2.930000e-06	1.766093e-06	2.653081e-11	1.402319e+01	1.726141e+00
2.940000e-06	1.742000e-06	1.279223e-11	1.383189e+01	1.689918e+00
2.950000e-06	1.717689e-06	2.358455e-11	1.363885e+01	1.654095e+00
