# Temperatura_=_20.0
# Concentracion g/m^3_=_12600.0
# C_Vs_to_Am_M_A/Vsm_=_65563218390.804596
# pendiente_HvsI_1/m_=_3716.3
# ordenada_HvsI_A/m_=_1297.0
# frecuencia_Hz_=_213042.35319506176

Tiempo_(s)	Campo_(V.s)	Magnetizacion_(V.s)	Campo_(kA/m)	Magnetizacion_(A/m)
0.000000e+00	-2.489771e-06	-1.511124e-09	-1.983072e+01	-9.876540e+01
1.000000e-08	-2.489642e-06	-1.506749e-09	-1.982969e+01	-9.873298e+01
2.000000e-08	-2.489272e-06	-1.505863e-09	-1.982674e+01	-9.868087e+01
3.000000e-08	-2.488596e-06	-1.506631e-09	-1.982136e+01	-9.860991e+01
4.000000e-08	-2.487393e-06	-1.501442e-09	-1.981178e+01	-9.852092e+01
5.000000e-08	-2.485449e-06	-1.483734e-09	-1.979630e+01	-9.841472e+01
6.000000e-08	-2.482834e-06	-1.465590e-09	-1.977547e+01	-9.829202e+01
7.000000e-08	-2.479585e-06	-1.528990e-09	-1.974959e+01	-9.815346e+01
8.000000e-08	-2.475753e-06	-1.573584e-09	-1.971906e+01	-9.799957e+01
9.000000e-08	-2.471593e-06	-1.476592e-09	-1.968593e+01	-9.783076e+01
1.000000e-07	-2.467247e-06	-1.403306e-09	-1.965132e+01	-9.764732e+01
1.100000e-07	-2.462655e-06	-1.520764e-09	-1.961475e+01	-9.744944e+01
1.200000e-07	-2.457618e-06	-1.565956e-09	-1.957463e+01	-9.723722e+01
1.300000e-07	-2.452083e-06	-1.479028e-09	-1.953054e+01	-9.701067e+01
1.400000e-07	-2.446124e-06	-1.422423e-09	-1.948308e+01	-9.676976e+01
1.500000e-07	-2.439637e-06	-1.438801e-09	-1.943141e+01	-9.651445e+01
1.600000e-07	-2.432678e-06	-1.436441e-09	-1.937598e+01	-9.624467e+01
1.700000e-07	-2.425406e-06	-1.498579e-09	-1.931806e+01	-9.596036e+01
1.800000e-07	-2.417847e-06	-1.554969e-09	-1.925785e+01	-9.566151e+01
1.900000e-07	-2.409953e-06	-1.384396e-09	-1.919498e+01	-9.534813e+01
2.000000e-07	-2.401696e-06	-1.291911e-09	-1.912921e+01	-9.502026e+01
2.100000e-07	-2.393142e-06	-1.478283e-09	-1.906108e+01	-9.467802e+01
2.200000e-07	-2.384107e-06	-1.626265e-09	-1.898912e+01	-9.432152e+01
2.300000e-07	-2.374295e-06	-1.384173e-09	-1.891097e+01	-9.395094e+01
2.400000e-07	-2.363716e-06	-1.230074e-09	-1.882671e+01	-9.356647e+01
2.500000e-07	-2.352599e-06	-1.448798e-09	-1.873816e+01	-9.316831e+01
2.600000e-07	-2.341031e-06	-1.552341e-09	-1.864603e+01	-9.275666e+01
2.700000e-07	-2.329022e-06	-1.364884e-09	-1.855038e+01	-9.233173e+01
2.800000e-07	-2.316600e-06	-1.311336e-09	-1.845144e+01	-9.189370e+01
2.900000e-07	-2.303729e-06	-1.426521e-09	-1.834892e+01	-9.144274e+01
3.000000e-07	-2.290359e-06	-1.382437e-09	-1.824243e+01	-9.097902e+01
3.100000e-07	-2.276540e-06	-1.322859e-09	-1.813236e+01	-9.050267e+01
3.200000e-07	-2.262338e-06	-1.428791e-09	-1.801924e+01	-9.001380e+01
3.300000e-07	-2.247657e-06	-1.409516e-09	-1.790231e+01	-8.951256e+01
3.400000e-07	-2.232383e-06	-1.243263e-09	-1.778066e+01	-8.899904e+01
3.500000e-07	-2.216515e-06	-1.286720e-09	-1.765427e+01	-8.847336e+01
3.600000e-07	-2.200150e-06	-1.444723e-09	-1.752392e+01	-8.793566e+01
3.700000e-07	-2.183336e-06	-1.388020e-09	-1.739000e+01	-8.738606e+01
3.800000e-07	-2.166102e-06	-1.222100e-09	-1.725274e+01	-8.682471e+01
3.900000e-07	-2.148542e-06	-1.240784e-09	-1.711288e+01	-8.625175e+01
4.000000e-07	-2.130702e-06	-1.355080e-09	-1.697078e+01	-8.566735e+01
4.100000e-07	-2.112543e-06	-1.353938e-09	-1.682614e+01	-8.507163e+01
4.200000e-07	-2.093992e-06	-1.265655e-09	-1.667839e+01	-8.446474e+01
4.300000e-07	-2.075000e-06	-1.215979e-09	-1.652712e+01	-8.384677e+01
4.400000e-07	-2.055608e-06	-1.246916e-09	-1.637266e+01	-8.321778e+01
4.500000e-07	-2.035860e-06	-1.289166e-09	-1.621537e+01	-8.257781e+01
4.600000e-07	-2.015854e-06	-1.278891e-09	-1.605603e+01	-8.192683e+01
4.700000e-07	-1.995727e-06	-1.225238e-09	-1.589572e+01	-8.126474e+01
4.800000e-07	-1.975439e-06	-1.170848e-09	-1.573413e+01	-8.059142e+01
4.900000e-07	-1.954853e-06	-1.185036e-09	-1.557016e+01	-7.990667e+01
5.000000e-07	-1.933905e-06	-1.245365e-09	-1.540332e+01	-7.921027e+01
5.100000e-07	-1.912593e-06	-1.226925e-09	-1.523356e+01	-7.850196e+01
5.200000e-07	-1.890919e-06	-1.133974e-09	-1.506094e+01	-7.778147e+01
5.300000e-07	-1.868949e-06	-1.113911e-09	-1.488595e+01	-7.704851e+01
5.400000e-07	-1.846721e-06	-1.178084e-09	-1.470891e+01	-7.630285e+01
5.500000e-07	-1.824140e-06	-1.179409e-09	-1.452905e+01	-7.554425e+01
5.600000e-07	-1.801188e-06	-1.115099e-09	-1.434624e+01	-7.477255e+01
5.700000e-07	-1.777892e-06	-1.092212e-09	-1.416069e+01	-7.398764e+01
5.800000e-07	-1.754306e-06	-1.101908e-09	-1.397283e+01	-7.318950e+01
5.900000e-07	-1.730446e-06	-1.098195e-09	-1.378279e+01	-7.237815e+01
6.000000e-07	-1.706344e-06	-1.084599e-09	-1.359082e+01	-7.155370e+01
6.100000e-07	-1.682144e-06	-1.072356e-09	-1.339807e+01	-7.071631e+01
6.200000e-07	-1.657765e-06	-1.047316e-09	-1.320389e+01	-6.986622e+01
6.300000e-07	-1.633068e-06	-1.017231e-09	-1.300719e+01	-6.900365e+01
6.400000e-07	-1.607986e-06	-1.017005e-09	-1.280741e+01	-6.812887e+01
6.500000e-07	-1.582488e-06	-1.026890e-09	-1.260432e+01	-6.724214e+01
6.600000e-07	-1.556503e-06	-1.005402e-09	-1.239735e+01	-6.634368e+01
6.700000e-07	-1.529971e-06	-9.645007e-10	-1.218603e+01	-6.543366e+01
6.800000e-07	-1.502984e-06	-9.485450e-10	-1.197108e+01	-6.451220e+01
6.900000e-07	-1.475615e-06	-9.618848e-10	-1.175309e+01	-6.357935e+01
7.000000e-07	-1.447962e-06	-9.592488e-10	-1.153284e+01	-6.263509e+01
7.100000e-07	-1.420099e-06	-9.246288e-10	-1.131091e+01	-6.167931e+01
7.200000e-07	-1.392076e-06	-8.870432e-10	-1.108771e+01	-6.071186e+01
7.300000e-07	-1.363954e-06	-8.775106e-10	-1.086372e+01	-5.973252e+01
7.400000e-07	-1.335709e-06	-8.872814e-10	-1.063876e+01	-5.874107e+01
7.500000e-07	-1.307293e-06	-8.748735e-10	-1.041242e+01	-5.773725e+01
7.600000e-07	-1.278677e-06	-8.388097e-10	-1.018451e+01	-5.672085e+01
7.700000e-07	-1.249901e-06	-8.106652e-10	-9.955307e+00	-5.569167e+01
7.800000e-07	-1.220928e-06	-8.051924e-10	-9.724545e+00	-5.464961e+01
7.900000e-07	-1.191651e-06	-8.060889e-10	-9.491350e+00	-5.359463e+01
8.000000e-07	-1.162085e-06	-7.908927e-10	-9.255860e+00	-5.252678e+01
8.100000e-07	-1.132334e-06	-7.601813e-10	-9.018902e+00	-5.144625e+01
8.200000e-07	-1.102378e-06	-7.317242e-10	-8.780306e+00	-5.035330e+01
8.300000e-07	-1.072246e-06	-7.227221e-10	-8.540306e+00	-4.924831e+01
8.400000e-07	-1.042023e-06	-7.226051e-10	-8.299583e+00	-4.813173e+01
8.500000e-07	-1.011680e-06	-7.019879e-10	-8.057910e+00	-4.700408e+01
8.600000e-07	-9.811838e-07	-6.659485e-10	-7.815008e+00	-4.586594e+01
8.700000e-07	-9.505096e-07	-6.432693e-10	-7.570692e+00	-4.471789e+01
8.800000e-07	-9.196419e-07	-6.416514e-10	-7.324835e+00	-4.356051e+01
8.900000e-07	-8.885657e-07	-6.374450e-10	-7.077316e+00	-4.239434e+01
9.000000e-07	-8.573510e-07	-6.102877e-10	-6.828695e+00	-4.121987e+01
9.100000e-07	-8.260677e-07	-5.784576e-10	-6.579528e+00	-4.003752e+01
9.200000e-07	-7.945971e-07	-5.626801e-10	-6.328868e+00	-3.884762e+01
9.300000e-07	-7.629108e-07	-5.580964e-10	-6.076490e+00	-3.765044e+01
9.400000e-07	-7.311289e-07	-5.449952e-10	-5.823351e+00	-3.644612e+01
9.500000e-07	-6.992757e-07	-5.169122e-10	-5.569645e+00	-3.523478e+01
9.600000e-07	-6.673308e-07	-4.907497e-10	-5.315207e+00	-3.401646e+01
9.700000e-07	-6.353151e-07	-4.763236e-10	-5.060207e+00	-3.279116e+01
9.800000e-07	-6.032649e-07	-4.678058e-10	-4.804930e+00	-3.155888e+01
9.900000e-07	-5.711750e-07	-4.520379e-10	-4.549339e+00	-3.031963e+01
1.000000e-06	-5.389984e-07	-4.243288e-10	-4.293056e+00	-2.907345e+01
1.010000e-06	-5.067427e-07	-3.978829e-10	-4.036143e+00	-2.782046e+01
1.020000e-06	-4.744562e-07	-3.806037e-10	-3.778985e+00	-2.656082e+01
1.030000e-06	-4.421567e-07	-3.685899e-10	-3.521724e+00	-2.529478e+01
1.040000e-06	-4.098048e-07	-3.506860e-10	-3.264044e+00	-2.402266e+01
1.050000e-06	-3.773639e-07	-3.246002e-10	-3.005657e+00	-2.274485e+01
1.060000e-06	-3.448867e-07	-3.018563e-10	-2.746980e+00	-2.146180e+01
1.070000e-06	-3.123143e-07	-2.868392e-10	-2.487545e+00	-2.017398e+01
1.080000e-06	-2.796093e-07	-2.756711e-10	-2.227054e+00	-1.888186e+01
1.090000e-06	-2.469148e-07	-2.584579e-10	-1.966646e+00	-1.758590e+01
1.100000e-06	-2.142600e-07	-2.325237e-10	-1.706555e+00	-1.628650e+01
1.110000e-06	-1.815395e-07	-2.080942e-10	-1.445940e+00	-1.498397e+01
1.120000e-06	-1.487489e-07	-1.916019e-10	-1.184767e+00	-1.367854e+01
1.130000e-06	-1.159369e-07	-1.791159e-10	-9.234231e-01	-1.237029e+01
1.140000e-06	-8.316056e-08	-1.575455e-10	-6.623636e-01	-1.105918e+01
1.150000e-06	-5.037032e-08	-1.277146e-10	-4.011934e-01	-9.745062e+00
1.160000e-06	-1.752925e-08	-1.058420e-10	-1.396183e-01	-8.427652e+00
1.170000e-06	1.531717e-08	-9.508262e-11	1.219994e-01	-7.106580e+00
1.180000e-06	4.817613e-08	-8.184404e-11	3.837169e-01	-5.781410e+00
1.190000e-06	8.098157e-08	-5.657533e-11	6.450082e-01	-4.451680e+00
1.200000e-06	1.137358e-07	-2.988605e-11	9.058918e-01	-3.116939e+00
1.210000e-06	1.465164e-07	-1.256648e-11	1.166985e+00	-1.776796e+00
1.220000e-06	1.793089e-07	1.139417e-12	1.428173e+00	-4.309560e-01
1.230000e-06	2.120508e-07	2.107721e-11	1.688959e+00	9.207346e-01
1.240000e-06	2.447322e-07	4.562772e-11	1.949261e+00	2.278260e+00
1.250000e-06	2.773837e-07	6.751224e-11	2.209327e+00	3.641409e+00
1.260000e-06	3.099666e-07	8.442549e-11	2.468846e+00	5.009764e+00
1.270000e-06	3.424562e-07	1.033316e-10	2.727621e+00	6.382699e+00
1.280000e-06	3.748499e-07	1.264015e-10	2.985633e+00	7.759388e+00
1.290000e-06	4.071630e-07	1.501467e-10	3.243003e+00	9.138830e+00
1.300000e-06	4.394743e-07	1.705673e-10	3.500358e+00	1.051988e+01
1.310000e-06	4.717699e-07	1.893708e-10	3.757589e+00	1.190130e+01
1.320000e-06	5.039800e-07	2.119152e-10	4.014139e+00	1.328178e+01
1.330000e-06	5.361232e-07	2.352209e-10	4.270155e+00	1.466003e+01
1.340000e-06	5.682468e-07	2.573065e-10	4.526016e+00	1.603477e+01
1.350000e-06	6.003592e-07	2.773378e-10	4.781787e+00	1.740485e+01
1.360000e-06	6.324425e-07	2.972046e-10	5.037326e+00	1.876924e+01
1.370000e-06	6.644879e-07	3.156520e-10	5.292564e+00	2.012706e+01
1.380000e-06	6.964680e-07	3.333346e-10	5.547282e+00	2.147765e+01
1.390000e-06	7.283679e-07	3.552955e-10	5.801360e+00	2.282054e+01
1.400000e-06	7.602030e-07	3.776208e-10	6.054924e+00	2.415545e+01
1.410000e-06	7.918980e-07	3.957057e-10	6.307370e+00	2.548233e+01
1.420000e-06	8.234384e-07	4.120162e-10	6.558586e+00	2.680126e+01
1.430000e-06	8.548114e-07	4.324143e-10	6.808468e+00	2.811251e+01
1.440000e-06	8.859952e-07	4.562026e-10	7.056843e+00	2.941642e+01
1.450000e-06	9.170061e-07	4.751509e-10	7.303840e+00	3.071345e+01
1.460000e-06	9.477443e-07	4.885399e-10	7.548667e+00	3.200406e+01
1.470000e-06	9.782076e-07	5.045645e-10	7.791303e+00	3.328873e+01
1.480000e-06	1.008579e-06	5.278560e-10	8.033204e+00	3.456792e+01
1.490000e-06	1.038825e-06	5.511509e-10	8.274117e+00	3.584201e+01
1.500000e-06	1.068877e-06	5.686595e-10	8.513477e+00	3.711133e+01
1.510000e-06	1.098833e-06	5.844225e-10	8.752071e+00	3.837611e+01
1.520000e-06	1.128692e-06	6.048680e-10	8.989896e+00	3.963648e+01
1.530000e-06	1.158396e-06	6.279417e-10	9.226482e+00	4.089251e+01
1.540000e-06	1.187938e-06	6.470958e-10	9.461781e+00	4.214416e+01
1.550000e-06	1.217237e-06	6.611773e-10	9.695145e+00	4.339136e+01
1.560000e-06	1.246230e-06	6.768165e-10	9.926069e+00	4.463394e+01
1.570000e-06	1.274955e-06	6.961772e-10	1.015486e+01	4.587173e+01
1.580000e-06	1.303447e-06	7.146714e-10	1.038179e+01	4.710452e+01
1.590000e-06	1.331754e-06	7.312967e-10	1.060726e+01	4.833208e+01
1.600000e-06	1.359923e-06	7.475592e-10	1.083162e+01	4.955416e+01
1.610000e-06	1.388035e-06	7.652140e-10	1.105552e+01	5.077053e+01
1.620000e-06	1.416083e-06	7.827540e-10	1.127893e+01	5.198089e+01
1.630000e-06	1.443992e-06	8.010046e-10	1.150122e+01	5.318497e+01
1.640000e-06	1.471750e-06	8.202396e-10	1.172230e+01	5.438241e+01
1.650000e-06	1.499211e-06	8.366638e-10	1.194103e+01	5.557283e+01
1.660000e-06	1.526214e-06	8.520421e-10	1.215611e+01	5.675574e+01
1.670000e-06	1.552770e-06	8.695076e-10	1.236762e+01	5.793061e+01
1.680000e-06	1.578787e-06	8.879225e-10	1.257484e+01	5.909678e+01
1.690000e-06	1.604214e-06	9.053741e-10	1.277736e+01	6.025350e+01
1.700000e-06	1.629177e-06	9.195550e-10	1.297619e+01	6.139993e+01
1.710000e-06	1.653780e-06	9.330702e-10	1.317215e+01	6.253515e+01
1.720000e-06	1.678137e-06	9.509555e-10	1.336616e+01	6.365814e+01
1.730000e-06	1.702310e-06	9.718055e-10	1.355869e+01	6.476788e+01
1.740000e-06	1.726308e-06	9.900969e-10	1.374983e+01	6.586333e+01
1.750000e-06	1.750108e-06	1.003712e-09	1.393939e+01	6.694346e+01
1.760000e-06	1.773632e-06	1.018007e-09	1.412676e+01	6.800734e+01
1.770000e-06	1.796751e-06	1.036064e-09	1.431090e+01	6.905412e+01
1.780000e-06	1.819482e-06	1.053287e-09	1.449195e+01	7.008311e+01
1.790000e-06	1.841960e-06	1.066533e-09	1.467099e+01	7.109378e+01
1.800000e-06	1.864142e-06	1.079077e-09	1.484767e+01	7.208579e+01
1.810000e-06	1.886049e-06	1.094340e-09	1.502215e+01	7.305901e+01
1.820000e-06	1.907697e-06	1.110853e-09	1.519457e+01	7.401351e+01
1.830000e-06	1.928993e-06	1.126199e-09	1.536419e+01	7.494954e+01
1.840000e-06	1.949933e-06	1.140047e-09	1.553098e+01	7.586752e+01
1.850000e-06	1.970549e-06	1.153150e-09	1.569518e+01	7.676797e+01
1.860000e-06	1.990887e-06	1.167711e-09	1.585717e+01	7.765152e+01
1.870000e-06	2.011018e-06	1.181964e-09	1.601751e+01	7.851880e+01
1.880000e-06	2.030966e-06	1.194368e-09	1.617640e+01	7.937041e+01
1.890000e-06	2.050689e-06	1.206301e-09	1.633349e+01	8.020688e+01
1.900000e-06	2.070107e-06	1.218491e-09	1.648814e+01	8.102860e+01
1.910000e-06	2.089135e-06	1.231397e-09	1.663970e+01	8.183578e+01
1.920000e-06	2.107638e-06	1.243453e-09	1.678708e+01	8.262844e+01
1.930000e-06	2.125689e-06	1.256457e-09	1.693085e+01	8.340635e+01
1.940000e-06	2.143360e-06	1.269505e-09	1.707160e+01	8.416908e+01
1.950000e-06	2.160708e-06	1.281775e-09	1.720977e+01	8.491598e+01
1.960000e-06	2.177815e-06	1.292486e-09	1.734603e+01	8.564622e+01
1.970000e-06	2.194624e-06	1.302626e-09	1.747991e+01	8.635882e+01
1.980000e-06	2.210983e-06	1.314192e-09	1.761021e+01	8.705271e+01
1.990000e-06	2.226795e-06	1.324314e-09	1.773615e+01	8.772679e+01
2.000000e-06	2.242076e-06	1.331926e-09	1.785786e+01	8.838002e+01
2.010000e-06	2.256871e-06	1.340013e-09	1.797570e+01	8.901142e+01
2.020000e-06	2.271193e-06	1.350009e-09	1.808977e+01	8.962020e+01
2.030000e-06	2.285101e-06	1.359904e-09	1.820055e+01	9.020576e+01
2.040000e-06	2.298659e-06	1.368076e-09	1.830854e+01	9.076776e+01
2.050000e-06	2.311737e-06	1.375624e-09	1.841270e+01	9.130613e+01
2.060000e-06	2.324366e-06	1.383561e-09	1.851329e+01	9.182108e+01
2.070000e-06	2.336636e-06	1.392221e-09	1.861102e+01	9.231312e+01
2.080000e-06	2.348549e-06	1.399418e-09	1.870591e+01	9.278297e+01
2.090000e-06	2.360038e-06	1.404704e-09	1.879742e+01	9.323160e+01
2.100000e-06	2.370934e-06	1.411843e-09	1.888420e+01	9.366010e+01
2.110000e-06	2.381018e-06	1.419367e-09	1.896451e+01	9.406969e+01
2.120000e-06	2.390385e-06	1.425455e-09	1.903912e+01	9.446158e+01
2.130000e-06	2.399261e-06	1.430218e-09	1.910982e+01	9.483696e+01
2.140000e-06	2.407736e-06	1.433730e-09	1.917732e+01	9.519691e+01
2.150000e-06	2.415941e-06	1.437348e-09	1.924267e+01	9.554233e+01
2.160000e-06	2.423938e-06	1.441174e-09	1.930637e+01	9.587389e+01
2.170000e-06	2.431608e-06	1.445289e-09	1.936746e+01	9.619203e+01
2.180000e-06	2.438845e-06	1.448693e-09	1.942510e+01	9.649689e+01
2.190000e-06	2.445591e-06	1.450571e-09	1.947883e+01	9.678835e+01
2.200000e-06	2.451869e-06	1.454411e-09	1.952883e+01	9.706600e+01
2.210000e-06	2.457756e-06	1.461522e-09	1.957572e+01	9.732923e+01
2.220000e-06	2.463239e-06	1.466997e-09	1.961940e+01	9.757719e+01
2.230000e-06	2.468311e-06	1.468877e-09	1.965979e+01	9.780890e+01
2.240000e-06	2.472956e-06	1.472040e-09	1.969679e+01	9.802333e+01
2.250000e-06	2.477233e-06	1.477073e-09	1.973085e+01	9.821937e+01
2.260000e-06	2.481238e-06	1.481017e-09	1.976276e+01	9.839598e+01
2.270000e-06	2.485019e-06	1.482910e-09	1.979287e+01	9.855223e+01
2.280000e-06	2.488417e-06	1.483839e-09	1.981994e+01	9.868730e+01
2.290000e-06	2.491242e-06	1.487499e-09	1.984244e+01	9.880059e+01
2.300000e-06	2.493328e-06	1.492148e-09	1.985905e+01	9.889169e+01
2.310000e-06	2.494625e-06	1.494897e-09	1.986938e+01	9.896042e+01
2.320000e-06	2.495344e-06	1.496401e-09	1.987511e+01	9.900683e+01
2.330000e-06	2.495693e-06	1.497059e-09	1.987789e+01	9.903120e+01
2.340000e-06	2.495770e-06	1.497083e-09	1.987850e+01	9.903397e+01
2.350000e-06	2.495556e-06	1.497409e-09	1.987680e+01	9.901576e+01
2.360000e-06	2.494933e-06	1.497382e-09	1.987183e+01	9.897731e+01
2.370000e-06	2.493870e-06	1.496820e-09	1.986337e+01	9.891941e+01
2.380000e-06	2.492418e-06	1.497235e-09	1.985180e+01	9.884290e+01
2.390000e-06	2.490548e-06	1.509163e-09	1.983691e+01	9.874862e+01
2.400000e-06	2.488321e-06	1.528201e-09	1.981917e+01	9.863735e+01
2.410000e-06	2.485752e-06	1.473109e-09	1.979871e+01	9.850978e+01
2.420000e-06	2.482689e-06	1.425193e-09	1.977431e+01	9.836653e+01
2.430000e-06	2.479174e-06	1.491766e-09	1.974631e+01	9.820808e+01
2.440000e-06	2.475389e-06	1.544236e-09	1.971617e+01	9.803481e+01
2.450000e-06	2.471388e-06	1.454140e-09	1.968430e+01	9.784698e+01
2.460000e-06	2.467005e-06	1.452489e-09	1.964939e+01	9.764474e+01
2.470000e-06	2.462022e-06	1.515257e-09	1.960970e+01	9.742817e+01
2.480000e-06	2.456476e-06	1.495600e-09	1.956553e+01	9.719727e+01
2.490000e-06	2.450455e-06	1.461396e-09	1.951757e+01	9.695200e+01
2.500000e-06	2.443822e-06	1.483843e-09	1.946474e+01	9.669231e+01
2.510000e-06	2.436472e-06	1.465018e-09	1.940620e+01	9.641813e+01
2.520000e-06	2.428671e-06	1.407167e-09	1.934407e+01	9.612942e+01
2.530000e-06	2.420674e-06	1.501613e-09	1.928037e+01	9.582615e+01
2.540000e-06	2.412386e-06	1.547196e-09	1.921436e+01	9.550837e+01
2.550000e-06	2.403656e-06	1.393866e-09	1.914482e+01	9.517613e+01
2.560000e-06	2.394466e-06	1.327321e-09	1.907163e+01	9.482955e+01
2.570000e-06	2.384910e-06	1.529728e-09	1.899551e+01	9.446876e+01
2.580000e-06	2.374962e-06	1.553794e-09	1.891628e+01	9.409395e+01
2.590000e-06	2.364575e-06	1.322870e-09	1.883355e+01	9.370530e+01
2.600000e-06	2.353806e-06	1.337564e-09	1.874777e+01	9.330302e+01
2.610000e-06	2.342658e-06	1.550999e-09	1.865898e+01	9.288732e+01
2.620000e-06	2.331057e-06	1.458377e-09	1.856658e+01	9.245840e+01
2.630000e-06	2.319023e-06	1.269560e-09	1.847073e+01	9.201643e+01
2.640000e-06	2.306580e-06	1.417215e-09	1.837163e+01	9.156158e+01
2.650000e-06	2.293534e-06	1.517507e-09	1.826771e+01	9.109401e+01
2.660000e-06	2.279717e-06	1.304119e-09	1.815766e+01	9.061384e+01
2.670000e-06	2.265216e-06	1.275785e-09	1.804217e+01	9.012120e+01
2.680000e-06	2.250190e-06	1.498431e-09	1.792248e+01	8.961622e+01
2.690000e-06	2.234725e-06	1.432732e-09	1.779931e+01	8.909899e+01
2.700000e-06	2.218941e-06	1.216390e-09	1.767359e+01	8.856965e+01
2.710000e-06	2.202950e-06	1.312192e-09	1.754622e+01	8.802831e+01
2.720000e-06	2.186680e-06	1.463290e-09	1.741664e+01	8.747513e+01
2.730000e-06	2.169962e-06	1.348672e-09	1.728348e+01	8.691023e+01
2.740000e-06	2.152842e-06	1.230059e-09	1.714712e+01	8.633378e+01
2.750000e-06	2.135351e-06	1.294756e-09	1.700781e+01	8.574592e+01
2.760000e-06	2.117503e-06	1.354293e-09	1.686565e+01	8.514679e+01
2.770000e-06	2.099380e-06	1.312390e-09	1.672130e+01	8.453652e+01
2.780000e-06	2.080921e-06	1.258939e-09	1.657428e+01	8.391519e+01
2.790000e-06	2.062035e-06	1.254219e-09	1.642386e+01	8.328286e+01
2.800000e-06	2.042771e-06	1.275573e-09	1.627042e+01	8.263955e+01
2.810000e-06	2.023219e-06	1.262905e-09	1.611469e+01	8.198520e+01
2.820000e-06	2.003489e-06	1.242269e-09	1.595754e+01	8.131971e+01
2.830000e-06	1.983608e-06	1.244417e-09	1.579919e+01	8.064293e+01
2.840000e-06	1.963484e-06	1.213957e-09	1.563891e+01	7.995467e+01
2.850000e-06	1.942993e-06	1.190978e-09	1.547570e+01	7.925468e+01
2.860000e-06	1.922032e-06	1.223903e-09	1.530875e+01	7.854270e+01
2.870000e-06	1.900525e-06	1.214414e-09	1.513745e+01	7.781845e+01
2.880000e-06	1.878375e-06	1.155800e-09	1.496102e+01	7.708166e+01
2.890000e-06	1.855659e-06	1.156166e-09	1.478009e+01	7.633208e+01
2.900000e-06	1.832504e-06	1.181788e-09	1.459567e+01	7.556952e+01
2.910000e-06	1.809011e-06	1.147102e-09	1.440855e+01	7.479382e+01
2.920000e-06	1.785309e-06	1.118831e-09	1.421977e+01	7.400490e+01
2.930000e-06	1.761468e-06	1.133614e-09	1.402987e+01	7.320274e+01
2.940000e-06	1.737443e-06	1.124066e-09	1.383852e+01	7.238740e+01
2.950000e-06	1.713168e-06	1.088528e-09	1.364517e+01	7.155900e+01
