# Temperatura_=_20.0
# Concentracion g/m^3_=_12600.0
# C_Vs_to_Am_M_A/Vsm_=_65563218390.804596
# pendiente_HvsI_1/m_=_3716.3
# ordenada_HvsI_A/m_=_1297.0
# frecuencia_Hz_=_213043.18680027642

Tiempo_(s)	Campo_(V.s)	Magnetizacion_(V.s)	Campo_(kA/m)	Magnetizacion_(A/m)
0.000000e+00	-2.496549e-06	-1.542847e-09	-1.982711e+01	-1.004656e+02
1.000000e-08	-2.496587e-06	-1.540876e-09	-1.982741e+01	-1.004321e+02
2.000000e-08	-2.496353e-06	-1.540053e-09	-1.982555e+01	-1.003801e+02
3.000000e-08	-2.495788e-06	-1.541325e-09	-1.982106e+01	-1.003104e+02
4.000000e-08	-2.494693e-06	-1.539412e-09	-1.981237e+01	-1.002236e+02
5.000000e-08	-2.492910e-06	-1.522305e-09	-1.979821e+01	-1.001204e+02
6.000000e-08	-2.490451e-06	-1.516399e-09	-1.977868e+01	-1.000012e+02
7.000000e-08	-2.487324e-06	-1.575302e-09	-1.975384e+01	-9.986638e+01
8.000000e-08	-2.483643e-06	-1.583932e-09	-1.972461e+01	-9.971626e+01
9.000000e-08	-2.479640e-06	-1.497591e-09	-1.969282e+01	-9.955097e+01
1.000000e-07	-2.475374e-06	-1.470882e-09	-1.965894e+01	-9.937052e+01
1.100000e-07	-2.470715e-06	-1.559573e-09	-1.962194e+01	-9.917486e+01
1.200000e-07	-2.465639e-06	-1.591021e-09	-1.958162e+01	-9.896384e+01
1.300000e-07	-2.460140e-06	-1.513021e-09	-1.953796e+01	-9.873728e+01
1.400000e-07	-2.454183e-06	-1.475997e-09	-1.949065e+01	-9.849500e+01
1.500000e-07	-2.447836e-06	-1.467726e-09	-1.944024e+01	-9.823682e+01
1.600000e-07	-2.441066e-06	-1.476977e-09	-1.938647e+01	-9.796265e+01
1.700000e-07	-2.433815e-06	-1.548084e-09	-1.932889e+01	-9.767247e+01
1.800000e-07	-2.426207e-06	-1.548979e-09	-1.926846e+01	-9.736636e+01
1.900000e-07	-2.418324e-06	-1.419393e-09	-1.920586e+01	-9.704451e+01
2.000000e-07	-2.410163e-06	-1.368072e-09	-1.914104e+01	-9.670723e+01
2.100000e-07	-2.401671e-06	-1.536438e-09	-1.907360e+01	-9.635493e+01
2.200000e-07	-2.392631e-06	-1.598306e-09	-1.900181e+01	-9.598810e+01
2.300000e-07	-2.382830e-06	-1.394340e-09	-1.892397e+01	-9.560728e+01
2.400000e-07	-2.372252e-06	-1.332408e-09	-1.883996e+01	-9.521307e+01
2.500000e-07	-2.361054e-06	-1.499977e-09	-1.875104e+01	-9.480601e+01
2.600000e-07	-2.349481e-06	-1.534950e-09	-1.865912e+01	-9.438664e+01
2.700000e-07	-2.337580e-06	-1.384963e-09	-1.856460e+01	-9.395539e+01
2.800000e-07	-2.325223e-06	-1.377938e-09	-1.846647e+01	-9.351262e+01
2.900000e-07	-2.312390e-06	-1.457861e-09	-1.836455e+01	-9.305852e+01
3.000000e-07	-2.299057e-06	-1.401431e-09	-1.825866e+01	-9.259317e+01
3.100000e-07	-2.285303e-06	-1.369341e-09	-1.814943e+01	-9.211650e+01
3.200000e-07	-2.271230e-06	-1.441213e-09	-1.803767e+01	-9.162832e+01
3.300000e-07	-2.256728e-06	-1.417280e-09	-1.792249e+01	-9.112829e+01
3.400000e-07	-2.241610e-06	-1.311812e-09	-1.780243e+01	-9.061601e+01
3.500000e-07	-2.225887e-06	-1.337333e-09	-1.767756e+01	-9.009101e+01
3.600000e-07	-2.209517e-06	-1.434940e-09	-1.754756e+01	-8.955278e+01
3.700000e-07	-2.192603e-06	-1.394434e-09	-1.741323e+01	-8.900085e+01
3.800000e-07	-2.175423e-06	-1.290054e-09	-1.727679e+01	-8.843478e+01
3.900000e-07	-2.157964e-06	-1.296338e-09	-1.713813e+01	-8.785424e+01
4.000000e-07	-2.140219e-06	-1.363104e-09	-1.699721e+01	-8.725898e+01
4.100000e-07	-2.122134e-06	-1.368583e-09	-1.685358e+01	-8.664891e+01
4.200000e-07	-2.103595e-06	-1.306809e-09	-1.670634e+01	-8.602404e+01
4.300000e-07	-2.084671e-06	-1.267306e-09	-1.655605e+01	-8.538456e+01
4.400000e-07	-2.065418e-06	-1.278138e-09	-1.640315e+01	-8.473076e+01
4.500000e-07	-2.045758e-06	-1.300635e-09	-1.624701e+01	-8.406303e+01
4.600000e-07	-2.025802e-06	-1.303143e-09	-1.608853e+01	-8.338185e+01
4.700000e-07	-2.005687e-06	-1.258872e-09	-1.592878e+01	-8.268773e+01
4.800000e-07	-1.985390e-06	-1.208549e-09	-1.576759e+01	-8.198118e+01
4.900000e-07	-1.964836e-06	-1.219897e-09	-1.560435e+01	-8.126269e+01
5.000000e-07	-1.943895e-06	-1.258704e-09	-1.543803e+01	-8.053266e+01
5.100000e-07	-1.922561e-06	-1.234224e-09	-1.526860e+01	-7.979140e+01
5.200000e-07	-1.900908e-06	-1.171000e-09	-1.509664e+01	-7.903910e+01
5.300000e-07	-1.878991e-06	-1.168523e-09	-1.492259e+01	-7.827582e+01
5.400000e-07	-1.856798e-06	-1.197388e-09	-1.474633e+01	-7.750145e+01
5.500000e-07	-1.834185e-06	-1.181585e-09	-1.456674e+01	-7.671580e+01
5.600000e-07	-1.811139e-06	-1.150371e-09	-1.438371e+01	-7.591851e+01
5.700000e-07	-1.787769e-06	-1.140026e-09	-1.419811e+01	-7.510916e+01
5.800000e-07	-1.764113e-06	-1.132860e-09	-1.401024e+01	-7.428729e+01
5.900000e-07	-1.740241e-06	-1.109896e-09	-1.382065e+01	-7.345239e+01
6.000000e-07	-1.716253e-06	-1.099730e-09	-1.363015e+01	-7.260398e+01
6.100000e-07	-1.692108e-06	-1.105463e-09	-1.343839e+01	-7.174164e+01
6.200000e-07	-1.667710e-06	-1.082354e-09	-1.324463e+01	-7.086507e+01
6.300000e-07	-1.642915e-06	-1.040530e-09	-1.304771e+01	-6.997404e+01
6.400000e-07	-1.617664e-06	-1.029458e-09	-1.284717e+01	-6.906851e+01
6.500000e-07	-1.591981e-06	-1.047936e-09	-1.264320e+01	-6.814857e+01
6.600000e-07	-1.565796e-06	-1.037774e-09	-1.243524e+01	-6.721446e+01
6.700000e-07	-1.539163e-06	-9.877029e-10	-1.222373e+01	-6.626658e+01
6.800000e-07	-1.512197e-06	-9.590903e-10	-1.200958e+01	-6.530544e+01
6.900000e-07	-1.484854e-06	-9.727439e-10	-1.179242e+01	-6.433165e+01
7.000000e-07	-1.457178e-06	-9.827817e-10	-1.157262e+01	-6.334588e+01
7.100000e-07	-1.429305e-06	-9.481248e-10	-1.135126e+01	-6.234882e+01
7.200000e-07	-1.401299e-06	-8.972347e-10	-1.112884e+01	-6.134118e+01
7.300000e-07	-1.373224e-06	-8.889992e-10	-1.090588e+01	-6.032358e+01
7.400000e-07	-1.344998e-06	-9.056369e-10	-1.068171e+01	-5.929659e+01
7.500000e-07	-1.316562e-06	-8.930555e-10	-1.045588e+01	-5.826066e+01
7.600000e-07	-1.287970e-06	-8.503994e-10	-1.022880e+01	-5.721613e+01
7.700000e-07	-1.259158e-06	-8.199108e-10	-9.999989e+00	-5.616319e+01
7.800000e-07	-1.230090e-06	-8.181771e-10	-9.769133e+00	-5.510193e+01
7.900000e-07	-1.200785e-06	-8.162950e-10	-9.536401e+00	-5.403230e+01
8.000000e-07	-1.171232e-06	-7.971677e-10	-9.301694e+00	-5.295415e+01
8.100000e-07	-1.141430e-06	-7.688395e-10	-9.065017e+00	-5.186727e+01
8.200000e-07	-1.111457e-06	-7.451216e-10	-8.826979e+00	-5.077138e+01
8.300000e-07	-1.081384e-06	-7.356241e-10	-8.588144e+00	-4.966622e+01
8.400000e-07	-1.051149e-06	-7.294861e-10	-8.348024e+00	-4.855150e+01
8.500000e-07	-1.020669e-06	-7.107499e-10	-8.105953e+00	-4.742700e+01
8.600000e-07	-9.900310e-07	-6.790948e-10	-7.862634e+00	-4.629257e+01
8.700000e-07	-9.592932e-07	-6.522387e-10	-7.618520e+00	-4.514811e+01
8.800000e-07	-9.283678e-07	-6.443366e-10	-7.372917e+00	-4.399365e+01
8.900000e-07	-8.972611e-07	-6.403519e-10	-7.125874e+00	-4.282927e+01
9.000000e-07	-8.660344e-07	-6.211878e-10	-6.877877e+00	-4.165517e+01
9.100000e-07	-8.346548e-07	-5.886735e-10	-6.628666e+00	-4.047158e+01
9.200000e-07	-8.031156e-07	-5.639723e-10	-6.378188e+00	-3.927881e+01
9.300000e-07	-7.714550e-07	-5.584618e-10	-6.126746e+00	-3.807718e+01
9.400000e-07	-7.396674e-07	-5.535765e-10	-5.874295e+00	-3.686700e+01
9.500000e-07	-7.077808e-07	-5.284088e-10	-5.621058e+00	-3.564857e+01
9.600000e-07	-6.758018e-07	-4.918118e-10	-5.367086e+00	-3.442215e+01
9.700000e-07	-6.437562e-07	-4.718870e-10	-5.112587e+00	-3.318790e+01
9.800000e-07	-6.116730e-07	-4.711095e-10	-4.857788e+00	-3.194593e+01
9.900000e-07	-5.795386e-07	-4.591199e-10	-4.602583e+00	-3.069627e+01
1.000000e-06	-5.473707e-07	-4.242446e-10	-4.347112e+00	-2.943886e+01
1.010000e-06	-5.151566e-07	-3.909490e-10	-4.091274e+00	-2.817360e+01
1.020000e-06	-4.828969e-07	-3.806779e-10	-3.835073e+00	-2.690031e+01
1.030000e-06	-4.505612e-07	-3.777259e-10	-3.578270e+00	-2.561882e+01
1.040000e-06	-4.180847e-07	-3.558339e-10	-3.320347e+00	-2.432896e+01
1.050000e-06	-3.855403e-07	-3.234063e-10	-3.061887e+00	-2.303058e+01
1.060000e-06	-3.530191e-07	-3.017655e-10	-2.803609e+00	-2.172361e+01
1.070000e-06	-3.204482e-07	-2.936532e-10	-2.544938e+00	-2.040807e+01
1.080000e-06	-2.877077e-07	-2.817105e-10	-2.284919e+00	-1.908407e+01
1.090000e-06	-2.548745e-07	-2.563762e-10	-2.024164e+00	-1.775186e+01
1.100000e-06	-2.220618e-07	-2.284411e-10	-1.763572e+00	-1.641181e+01
1.110000e-06	-1.891936e-07	-2.085806e-10	-1.502538e+00	-1.506441e+01
1.120000e-06	-1.562304e-07	-1.956317e-10	-1.240752e+00	-1.371025e+01
1.130000e-06	-1.232018e-07	-1.801596e-10	-9.784448e-01	-1.235001e+01
1.140000e-06	-9.014574e-08	-1.565383e-10	-7.159200e-01	-1.098445e+01
1.150000e-06	-5.711060e-08	-1.304742e-10	-4.535613e-01	-9.614326e+00
1.160000e-06	-2.411317e-08	-1.103525e-10	-1.915021e-01	-8.240412e+00
1.170000e-06	8.843101e-09	-9.643989e-11	7.023019e-02	-6.863427e+00
1.180000e-06	4.181605e-08	-8.038624e-11	3.320949e-01	-5.484023e+00
1.190000e-06	7.479694e-08	-5.640102e-11	5.940228e-01	-4.102750e+00
1.200000e-06	1.077036e-07	-3.000026e-11	8.553610e-01	-2.720038e+00
1.210000e-06	1.405644e-07	-9.769606e-12	1.116335e+00	-1.336190e+00
1.220000e-06	1.734363e-07	2.807597e-12	1.377397e+00	4.862397e-02
1.230000e-06	2.063010e-07	1.945800e-11	1.638403e+00	1.434356e+00
1.240000e-06	2.390960e-07	4.649168e-11	1.898854e+00	2.821060e+00
1.250000e-06	2.717578e-07	7.457869e-11	2.158248e+00	4.208868e+00
1.260000e-06	3.043179e-07	9.302577e-11	2.416834e+00	5.597956e+00
1.270000e-06	3.368626e-07	1.074947e-10	2.675297e+00	6.988503e+00
1.280000e-06	3.693421e-07	1.289636e-10	2.933243e+00	8.380653e+00
1.290000e-06	4.017250e-07	1.544882e-10	3.190422e+00	9.774478e+00
1.300000e-06	4.340679e-07	1.749428e-10	3.447283e+00	1.116994e+01
1.310000e-06	4.663963e-07	1.911013e-10	3.704029e+00	1.256686e+01
1.320000e-06	4.986664e-07	2.095681e-10	3.960312e+00	1.396491e+01
1.330000e-06	5.308418e-07	2.338328e-10	4.215842e+00	1.536357e+01
1.340000e-06	5.629377e-07	2.583272e-10	4.470742e+00	1.676218e+01
1.350000e-06	5.950160e-07	2.788034e-10	4.725502e+00	1.815990e+01
1.360000e-06	6.271017e-07	2.975205e-10	4.980320e+00	1.955577e+01
1.370000e-06	6.591574e-07	3.161968e-10	5.234900e+00	2.094873e+01
1.380000e-06	6.911688e-07	3.381226e-10	5.489128e+00	2.233763e+01
1.390000e-06	7.231168e-07	3.619659e-10	5.742853e+00	2.372134e+01
1.400000e-06	7.550164e-07	3.838083e-10	5.996194e+00	2.509875e+01
1.410000e-06	7.868622e-07	4.019739e-10	6.249106e+00	2.646881e+01
1.420000e-06	8.185741e-07	4.178616e-10	6.500957e+00	2.783064e+01
1.430000e-06	8.500933e-07	4.376452e-10	6.751276e+00	2.918348e+01
1.440000e-06	8.814122e-07	4.620107e-10	7.000004e+00	3.052680e+01
1.450000e-06	9.125276e-07	4.844794e-10	7.247117e+00	3.186027e+01
1.460000e-06	9.434191e-07	5.003612e-10	7.492451e+00	3.318380e+01
1.470000e-06	9.741106e-07	5.158929e-10	7.736197e+00	3.449753e+01
1.480000e-06	1.004647e-06	5.400520e-10	7.978715e+00	3.580179e+01
1.490000e-06	1.034995e-06	5.661664e-10	8.219728e+00	3.709713e+01
1.500000e-06	1.065194e-06	5.852460e-10	8.459567e+00	3.838422e+01
1.510000e-06	1.095307e-06	6.001253e-10	8.698713e+00	3.966385e+01
1.520000e-06	1.125327e-06	6.198020e-10	8.937130e+00	4.093689e+01
1.530000e-06	1.155198e-06	6.446124e-10	9.174360e+00	4.220418e+01
1.540000e-06	1.184875e-06	6.653037e-10	9.410050e+00	4.346654e+01
1.550000e-06	1.214338e-06	6.789106e-10	9.644040e+00	4.472469e+01
1.560000e-06	1.243515e-06	6.939100e-10	9.875751e+00	4.597922e+01
1.570000e-06	1.272403e-06	7.142988e-10	1.010518e+01	4.723050e+01
1.580000e-06	1.301011e-06	7.362177e-10	1.033238e+01	4.847875e+01
1.590000e-06	1.329369e-06	7.539649e-10	1.055759e+01	4.972392e+01
1.600000e-06	1.357620e-06	7.698070e-10	1.078195e+01	5.096573e+01
1.610000e-06	1.385791e-06	7.871583e-10	1.100568e+01	5.220369e+01
1.620000e-06	1.413859e-06	8.049032e-10	1.122859e+01	5.343704e+01
1.630000e-06	1.441842e-06	8.241585e-10	1.145083e+01	5.466488e+01
1.640000e-06	1.469672e-06	8.446941e-10	1.167185e+01	5.588609e+01
1.650000e-06	1.497225e-06	8.624434e-10	1.189067e+01	5.709944e+01
1.660000e-06	1.524466e-06	8.780503e-10	1.210701e+01	5.830361e+01
1.670000e-06	1.551296e-06	8.955003e-10	1.232009e+01	5.949724e+01
1.680000e-06	1.577579e-06	9.151701e-10	1.252882e+01	6.067897e+01
1.690000e-06	1.603289e-06	9.325153e-10	1.273301e+01	6.184749e+01
1.700000e-06	1.628484e-06	9.448488e-10	1.293310e+01	6.300158e+01
1.710000e-06	1.653299e-06	9.574838e-10	1.313018e+01	6.414016e+01
1.720000e-06	1.677808e-06	9.766572e-10	1.332482e+01	6.526230e+01
1.730000e-06	1.702080e-06	9.990220e-10	1.351759e+01	6.636726e+01
1.740000e-06	1.726139e-06	1.016687e-09	1.370866e+01	6.745452e+01
1.750000e-06	1.749989e-06	1.030542e-09	1.389807e+01	6.852377e+01
1.760000e-06	1.773585e-06	1.046574e-09	1.408547e+01	6.957491e+01
1.770000e-06	1.796888e-06	1.066002e-09	1.427054e+01	7.060804e+01
1.780000e-06	1.819875e-06	1.084030e-09	1.445310e+01	7.162348e+01
1.790000e-06	1.842510e-06	1.097576e-09	1.463285e+01	7.262168e+01
1.800000e-06	1.864852e-06	1.109915e-09	1.481029e+01	7.360326e+01
1.810000e-06	1.886908e-06	1.123679e-09	1.498546e+01	7.456889e+01
1.820000e-06	1.908658e-06	1.138517e-09	1.515819e+01	7.551935e+01
1.830000e-06	1.930078e-06	1.153511e-09	1.532830e+01	7.645540e+01
1.840000e-06	1.951113e-06	1.166833e-09	1.549536e+01	7.737777e+01
1.850000e-06	1.971808e-06	1.179769e-09	1.565971e+01	7.828712e+01
1.860000e-06	1.992239e-06	1.193499e-09	1.582198e+01	7.918400e+01
1.870000e-06	2.012459e-06	1.207594e-09	1.598256e+01	8.006880e+01
1.880000e-06	2.032500e-06	1.222253e-09	1.614172e+01	8.094172e+01
1.890000e-06	2.052314e-06	1.235901e-09	1.629908e+01	8.180274e+01
1.900000e-06	2.071822e-06	1.247766e-09	1.645401e+01	8.265165e+01
1.910000e-06	2.090965e-06	1.260000e-09	1.660604e+01	8.348797e+01
1.920000e-06	2.109672e-06	1.272344e-09	1.675460e+01	8.431103e+01
1.930000e-06	2.127840e-06	1.283418e-09	1.689889e+01	8.511992e+01
1.940000e-06	2.145484e-06	1.294362e-09	1.703901e+01	8.591359e+01
1.950000e-06	2.162855e-06	1.306771e-09	1.717697e+01	8.669080e+01
1.960000e-06	2.180061e-06	1.319517e-09	1.731362e+01	8.745024e+01
1.970000e-06	2.196927e-06	1.331963e-09	1.744757e+01	8.819053e+01
1.980000e-06	2.213399e-06	1.343656e-09	1.757839e+01	8.891030e+01
1.990000e-06	2.229425e-06	1.353857e-09	1.770566e+01	8.960823e+01
2.000000e-06	2.244853e-06	1.362896e-09	1.782819e+01	9.028312e+01
2.010000e-06	2.259693e-06	1.373269e-09	1.794605e+01	9.093393e+01
2.020000e-06	2.274097e-06	1.385013e-09	1.806044e+01	9.155983e+01
2.030000e-06	2.288165e-06	1.394686e-09	1.817216e+01	9.216022e+01
2.040000e-06	2.301796e-06	1.401826e-09	1.828042e+01	9.273480e+01
2.050000e-06	2.314960e-06	1.409264e-09	1.838496e+01	9.328353e+01
2.060000e-06	2.327766e-06	1.418611e-09	1.848667e+01	9.380664e+01
2.070000e-06	2.340184e-06	1.427936e-09	1.858529e+01	9.430466e+01
2.080000e-06	2.352173e-06	1.435874e-09	1.868050e+01	9.477833e+01
2.090000e-06	2.363813e-06	1.442751e-09	1.877294e+01	9.522862e+01
2.100000e-06	2.374991e-06	1.449355e-09	1.886172e+01	9.565662e+01
2.110000e-06	2.385421e-06	1.455514e-09	1.894455e+01	9.606356e+01
2.120000e-06	2.395140e-06	1.461415e-09	1.902174e+01	9.645068e+01
2.130000e-06	2.404264e-06	1.467056e-09	1.909420e+01	9.681919e+01
2.140000e-06	2.412848e-06	1.471115e-09	1.916237e+01	9.717025e+01
2.150000e-06	2.421094e-06	1.474573e-09	1.922786e+01	9.750486e+01
2.160000e-06	2.429112e-06	1.480191e-09	1.929153e+01	9.782384e+01
2.170000e-06	2.436843e-06	1.486179e-09	1.935294e+01	9.812781e+01
2.180000e-06	2.444126e-06	1.490572e-09	1.941077e+01	9.841714e+01
2.190000e-06	2.450965e-06	1.493366e-09	1.946509e+01	9.869196e+01
2.200000e-06	2.457401e-06	1.496920e-09	1.951620e+01	9.895216e+01
2.210000e-06	2.463433e-06	1.502845e-09	1.956411e+01	9.919741e+01
2.220000e-06	2.469109e-06	1.507907e-09	1.960918e+01	9.942721e+01
2.230000e-06	2.474287e-06	1.509353e-09	1.965031e+01	9.964090e+01
2.240000e-06	2.478959e-06	1.510117e-09	1.968741e+01	9.983771e+01
2.250000e-06	2.483306e-06	1.514864e-09	1.972193e+01	1.000169e+02
2.260000e-06	2.487401e-06	1.520236e-09	1.975446e+01	1.001775e+02
2.270000e-06	2.491267e-06	1.522966e-09	1.978516e+01	1.003191e+02
2.280000e-06	2.494722e-06	1.524962e-09	1.981260e+01	1.004408e+02
2.290000e-06	2.497584e-06	1.527091e-09	1.983532e+01	1.005422e+02
2.300000e-06	2.499828e-06	1.529666e-09	1.985315e+01	1.006230e+02
2.310000e-06	2.501391e-06	1.532935e-09	1.986556e+01	1.006832e+02
2.320000e-06	2.502283e-06	1.534510e-09	1.987265e+01	1.007227e+02
2.330000e-06	2.502780e-06	1.534379e-09	1.987659e+01	1.007418e+02
2.340000e-06	2.503020e-06	1.533772e-09	1.987850e+01	1.007409e+02
2.350000e-06	2.502955e-06	1.533895e-09	1.987798e+01	1.007205e+02
2.360000e-06	2.502487e-06	1.534372e-09	1.987427e+01	1.006813e+02
2.370000e-06	2.501543e-06	1.534590e-09	1.986677e+01	1.006239e+02
2.380000e-06	2.500182e-06	1.535949e-09	1.985596e+01	1.005489e+02
2.390000e-06	2.498441e-06	1.550711e-09	1.984214e+01	1.004571e+02
2.400000e-06	2.496327e-06	1.557452e-09	1.982534e+01	1.003490e+02
2.410000e-06	2.493770e-06	1.496509e-09	1.980504e+01	1.002250e+02
2.420000e-06	2.490765e-06	1.481648e-09	1.978117e+01	1.000855e+02
2.430000e-06	2.487338e-06	1.551017e-09	1.975396e+01	9.993081e+01
2.440000e-06	2.483578e-06	1.544787e-09	1.972409e+01	9.976092e+01
2.450000e-06	2.479573e-06	1.491502e-09	1.969228e+01	9.957587e+01
2.460000e-06	2.475157e-06	1.497028e-09	1.965722e+01	9.937556e+01
2.470000e-06	2.470189e-06	1.525105e-09	1.961776e+01	9.915985e+01
2.480000e-06	2.464749e-06	1.520036e-09	1.957456e+01	9.892854e+01
2.490000e-06	2.458861e-06	1.501131e-09	1.952779e+01	9.868145e+01
2.500000e-06	2.452313e-06	1.510104e-09	1.947579e+01	9.841843e+01
2.510000e-06	2.445102e-06	1.470985e-09	1.941852e+01	9.813940e+01
2.520000e-06	2.437488e-06	1.459454e-09	1.935806e+01	9.784438e+01
2.530000e-06	2.429570e-06	1.545159e-09	1.929517e+01	9.753346e+01
2.540000e-06	2.421270e-06	1.547277e-09	1.922926e+01	9.720690e+01
2.550000e-06	2.412569e-06	1.410312e-09	1.916016e+01	9.686501e+01
2.560000e-06	2.403535e-06	1.404188e-09	1.908841e+01	9.650824e+01
2.570000e-06	2.394150e-06	1.566303e-09	1.901387e+01	9.613711e+01
2.580000e-06	2.384278e-06	1.529423e-09	1.893547e+01	9.575216e+01
2.590000e-06	2.373878e-06	1.354150e-09	1.885288e+01	9.535398e+01
2.600000e-06	2.363093e-06	1.407815e-09	1.876723e+01	9.494313e+01
2.610000e-06	2.351929e-06	1.555434e-09	1.867856e+01	9.452010e+01
2.620000e-06	2.340300e-06	1.445818e-09	1.858621e+01	9.408531e+01
2.630000e-06	2.328293e-06	1.331050e-09	1.849085e+01	9.363907e+01
2.640000e-06	2.315865e-06	1.462405e-09	1.839215e+01	9.318154e+01
2.650000e-06	2.302782e-06	1.502286e-09	1.828825e+01	9.271276e+01
2.660000e-06	2.288980e-06	1.335834e-09	1.817863e+01	9.223261e+01
2.670000e-06	2.274464e-06	1.339561e-09	1.806335e+01	9.174086e+01
2.680000e-06	2.259396e-06	1.487405e-09	1.794368e+01	9.123715e+01
2.690000e-06	2.243960e-06	1.423159e-09	1.782109e+01	9.072106e+01
2.700000e-06	2.228253e-06	1.284839e-09	1.769635e+01	9.019208e+01
2.710000e-06	2.212312e-06	1.350034e-09	1.756975e+01	8.964974e+01
2.720000e-06	2.196087e-06	1.444546e-09	1.744089e+01	8.909356e+01
2.730000e-06	2.179468e-06	1.369475e-09	1.730891e+01	8.852313e+01
2.740000e-06	2.162399e-06	1.283895e-09	1.717335e+01	8.793814e+01
2.750000e-06	2.144985e-06	1.315673e-09	1.703505e+01	8.733839e+01
2.760000e-06	2.127275e-06	1.361317e-09	1.689440e+01	8.672382e+01
2.770000e-06	2.109183e-06	1.333306e-09	1.675072e+01	8.609449e+01
2.780000e-06	2.090619e-06	1.280187e-09	1.660329e+01	8.545063e+01
2.790000e-06	2.071687e-06	1.281293e-09	1.645294e+01	8.479255e+01
2.800000e-06	2.052462e-06	1.298236e-09	1.630026e+01	8.412068e+01
2.810000e-06	2.032956e-06	1.280191e-09	1.614534e+01	8.343551e+01
2.820000e-06	2.013260e-06	1.268349e-09	1.598892e+01	8.273756e+01
2.830000e-06	1.993356e-06	1.261780e-09	1.583084e+01	8.202732e+01
2.840000e-06	1.973113e-06	1.236240e-09	1.567008e+01	8.130528e+01
2.850000e-06	1.952566e-06	1.231863e-09	1.550690e+01	8.057180e+01
2.860000e-06	1.931699e-06	1.239758e-09	1.534118e+01	7.982716e+01
2.870000e-06	1.910224e-06	1.211309e-09	1.517063e+01	7.907152e+01
2.880000e-06	1.888094e-06	1.183702e-09	1.499487e+01	7.830487e+01
2.890000e-06	1.865370e-06	1.194823e-09	1.481441e+01	7.752710e+01
2.900000e-06	1.842165e-06	1.186372e-09	1.463011e+01	7.673794e+01
2.910000e-06	1.818661e-06	1.151473e-09	1.444345e+01	7.593703e+01
2.920000e-06	1.794950e-06	1.150114e-09	1.425515e+01	7.512393e+01
2.930000e-06	1.771069e-06	1.164049e-09	1.406549e+01	7.429814e+01
2.940000e-06	1.746989e-06	1.142939e-09	1.387425e+01	7.345918e+01
2.950000e-06	1.722734e-06	1.101079e-09	1.368162e+01	7.260658e+01
