# Temperatura_=_20.0
# Concentracion g/m^3_=_12600.0
# C_Vs_to_Am_M_A/Vsm_=_65563218390.804596
# pendiente_HvsI_1/m_=_3716.3
# ordenada_HvsI_A/m_=_1297.0
# frecuencia_Hz_=_213040.53940705265

Tiempo_(s)	Campo_(V.s)	Magnetizacion_(V.s)	Campo_(kA/m)	Magnetizacion_(A/m)
0.000000e+00	-2.498361e-06	-1.558067e-09	-1.983074e+01	-1.014110e+02
1.000000e-08	-2.498387e-06	-1.554668e-09	-1.983094e+01	-1.014009e+02
2.000000e-08	-2.498128e-06	-1.552034e-09	-1.982889e+01	-1.013718e+02
3.000000e-08	-2.497533e-06	-1.551490e-09	-1.982416e+01	-1.013229e+02
4.000000e-08	-2.496418e-06	-1.547273e-09	-1.981531e+01	-1.012537e+02
5.000000e-08	-2.494592e-06	-1.530802e-09	-1.980082e+01	-1.011636e+02
6.000000e-08	-2.492063e-06	-1.532294e-09	-1.978075e+01	-1.010523e+02
7.000000e-08	-2.488919e-06	-1.574940e-09	-1.975579e+01	-1.009193e+02
8.000000e-08	-2.485246e-06	-1.585656e-09	-1.972663e+01	-1.007645e+02
9.000000e-08	-2.481243e-06	-1.523896e-09	-1.969486e+01	-1.005879e+02
1.000000e-07	-2.476979e-06	-1.478076e-09	-1.966102e+01	-1.003899e+02
1.100000e-07	-2.472333e-06	-1.565109e-09	-1.962414e+01	-1.001709e+02
1.200000e-07	-2.467232e-06	-1.599880e-09	-1.958365e+01	-9.993157e+01
1.300000e-07	-2.461734e-06	-1.527145e-09	-1.954000e+01	-9.967274e+01
1.400000e-07	-2.455854e-06	-1.476746e-09	-1.949334e+01	-9.939548e+01
1.500000e-07	-2.449466e-06	-1.495555e-09	-1.944263e+01	-9.910097e+01
1.600000e-07	-2.442614e-06	-1.512540e-09	-1.938824e+01	-9.879050e+01
1.700000e-07	-2.435399e-06	-1.530862e-09	-1.933097e+01	-9.846539e+01
1.800000e-07	-2.427820e-06	-1.547201e-09	-1.927082e+01	-9.812696e+01
1.900000e-07	-2.419935e-06	-1.437461e-09	-1.920823e+01	-9.777649e+01
2.000000e-07	-2.411757e-06	-1.394113e-09	-1.914332e+01	-9.741512e+01
2.100000e-07	-2.403245e-06	-1.527976e-09	-1.907575e+01	-9.704385e+01
2.200000e-07	-2.394169e-06	-1.592170e-09	-1.900371e+01	-9.666345e+01
2.300000e-07	-2.384310e-06	-1.414349e-09	-1.892546e+01	-9.627446e+01
2.400000e-07	-2.373786e-06	-1.327834e-09	-1.884192e+01	-9.587712e+01
2.500000e-07	-2.362759e-06	-1.497393e-09	-1.875439e+01	-9.547142e+01
2.600000e-07	-2.351265e-06	-1.561637e-09	-1.866316e+01	-9.505701e+01
2.700000e-07	-2.339300e-06	-1.396852e-09	-1.856819e+01	-9.463333e+01
2.800000e-07	-2.326877e-06	-1.349996e-09	-1.846958e+01	-9.419951e+01
2.900000e-07	-2.314039e-06	-1.457440e-09	-1.836768e+01	-9.375453e+01
3.000000e-07	-2.300759e-06	-1.451134e-09	-1.826227e+01	-9.329717e+01
3.100000e-07	-2.287061e-06	-1.383463e-09	-1.815354e+01	-9.282615e+01
3.200000e-07	-2.272927e-06	-1.414103e-09	-1.804135e+01	-9.234015e+01
3.300000e-07	-2.258339e-06	-1.416038e-09	-1.792556e+01	-9.183789e+01
3.400000e-07	-2.243192e-06	-1.338165e-09	-1.780533e+01	-9.131818e+01
3.500000e-07	-2.227352e-06	-1.364571e-09	-1.767960e+01	-9.078004e+01
3.600000e-07	-2.210935e-06	-1.433569e-09	-1.754929e+01	-9.022268e+01
3.700000e-07	-2.194087e-06	-1.370533e-09	-1.741556e+01	-8.964556e+01
3.800000e-07	-2.176905e-06	-1.288323e-09	-1.727918e+01	-8.904847e+01
3.900000e-07	-2.159423e-06	-1.333572e-09	-1.714042e+01	-8.843148e+01
4.000000e-07	-2.141651e-06	-1.388520e-09	-1.699935e+01	-8.779497e+01
4.100000e-07	-2.123527e-06	-1.341492e-09	-1.685549e+01	-8.713958e+01
4.200000e-07	-2.105019e-06	-1.284336e-09	-1.670859e+01	-8.646624e+01
4.300000e-07	-2.086101e-06	-1.292511e-09	-1.655843e+01	-8.577604e+01
4.400000e-07	-2.066808e-06	-1.313256e-09	-1.640529e+01	-8.507024e+01
4.500000e-07	-2.047190e-06	-1.303204e-09	-1.624957e+01	-8.435016e+01
4.600000e-07	-2.027314e-06	-1.272797e-09	-1.609180e+01	-8.361716e+01
4.700000e-07	-2.007248e-06	-1.251431e-09	-1.593253e+01	-8.287251e+01
4.800000e-07	-1.986960e-06	-1.243691e-09	-1.577149e+01	-8.211739e+01
4.900000e-07	-1.966373e-06	-1.242612e-09	-1.560808e+01	-8.135280e+01
5.000000e-07	-1.945443e-06	-1.240913e-09	-1.544195e+01	-8.057952e+01
5.100000e-07	-1.924130e-06	-1.216612e-09	-1.527277e+01	-7.979808e+01
5.200000e-07	-1.902480e-06	-1.183220e-09	-1.510093e+01	-7.900875e+01
5.300000e-07	-1.880561e-06	-1.182735e-09	-1.492695e+01	-7.821154e+01
5.400000e-07	-1.858333e-06	-1.193700e-09	-1.475051e+01	-7.740620e+01
5.500000e-07	-1.835758e-06	-1.168056e-09	-1.457132e+01	-7.659228e+01
5.600000e-07	-1.812754e-06	-1.133607e-09	-1.438873e+01	-7.576911e+01
5.700000e-07	-1.789408e-06	-1.139066e-09	-1.420342e+01	-7.493591e+01
5.800000e-07	-1.765898e-06	-1.143746e-09	-1.401681e+01	-7.409182e+01
5.900000e-07	-1.742126e-06	-1.113053e-09	-1.382812e+01	-7.323596e+01
6.000000e-07	-1.718128e-06	-1.089934e-09	-1.363763e+01	-7.236745e+01
6.100000e-07	-1.693982e-06	-1.095296e-09	-1.344598e+01	-7.148552e+01
6.200000e-07	-1.669593e-06	-1.090021e-09	-1.325239e+01	-7.058951e+01
6.300000e-07	-1.644839e-06	-1.056912e-09	-1.305590e+01	-6.967892e+01
6.400000e-07	-1.619683e-06	-1.034271e-09	-1.285623e+01	-6.875342e+01
6.500000e-07	-1.594106e-06	-1.037106e-09	-1.265321e+01	-6.781288e+01
6.600000e-07	-1.567944e-06	-1.030408e-09	-1.244555e+01	-6.685732e+01
6.700000e-07	-1.541310e-06	-1.000010e-09	-1.223415e+01	-6.588697e+01
6.800000e-07	-1.514305e-06	-9.732164e-10	-1.201979e+01	-6.490219e+01
6.900000e-07	-1.486948e-06	-9.697715e-10	-1.180264e+01	-6.390343e+01
7.000000e-07	-1.459324e-06	-9.701309e-10	-1.158338e+01	-6.289126e+01
7.100000e-07	-1.431476e-06	-9.478398e-10	-1.136234e+01	-6.186629e+01
7.200000e-07	-1.403504e-06	-9.134162e-10	-1.114031e+01	-6.082912e+01
7.300000e-07	-1.375446e-06	-8.935026e-10	-1.091760e+01	-5.978034e+01
7.400000e-07	-1.347288e-06	-8.919613e-10	-1.069410e+01	-5.872052e+01
7.500000e-07	-1.318944e-06	-8.833291e-10	-1.046911e+01	-5.765015e+01
7.600000e-07	-1.290326e-06	-8.549971e-10	-1.024196e+01	-5.656965e+01
7.700000e-07	-1.261450e-06	-8.279473e-10	-1.001276e+01	-5.547939e+01
7.800000e-07	-1.232350e-06	-8.158723e-10	-9.781775e+00	-5.437968e+01
7.900000e-07	-1.203025e-06	-8.102836e-10	-9.549006e+00	-5.327077e+01
8.000000e-07	-1.173447e-06	-7.961602e-10	-9.314236e+00	-5.215290e+01
8.100000e-07	-1.143658e-06	-7.698530e-10	-9.077780e+00	-5.102633e+01
8.200000e-07	-1.113696e-06	-7.422057e-10	-8.839962e+00	-4.989130e+01
8.300000e-07	-1.083609e-06	-7.261713e-10	-8.601146e+00	-4.874812e+01
8.400000e-07	-1.053394e-06	-7.195209e-10	-8.361311e+00	-4.759714e+01
8.500000e-07	-1.023001e-06	-7.018381e-10	-8.120071e+00	-4.643879e+01
8.600000e-07	-9.924770e-07	-6.698140e-10	-7.877784e+00	-4.527353e+01
8.700000e-07	-9.617983e-07	-6.462297e-10	-7.634272e+00	-4.410190e+01
8.800000e-07	-9.308926e-07	-6.393599e-10	-7.388958e+00	-4.292445e+01
8.900000e-07	-8.997667e-07	-6.307781e-10	-7.141896e+00	-4.174176e+01
9.000000e-07	-8.684986e-07	-6.051986e-10	-6.893706e+00	-4.055435e+01
9.100000e-07	-8.371021e-07	-5.748717e-10	-6.644496e+00	-3.936272e+01
9.200000e-07	-8.055049e-07	-5.577945e-10	-6.393693e+00	-3.816722e+01
9.300000e-07	-7.737271e-07	-5.493413e-10	-6.141457e+00	-3.696812e+01
9.400000e-07	-7.419059e-07	-5.352039e-10	-5.888877e+00	-3.576548e+01
9.500000e-07	-7.100335e-07	-5.101902e-10	-5.635889e+00	-3.455921e+01
9.600000e-07	-6.780650e-07	-4.837002e-10	-5.382140e+00	-3.334899e+01
9.700000e-07	-6.460234e-07	-4.676411e-10	-5.127809e+00	-3.213432e+01
9.800000e-07	-6.139592e-07	-4.591694e-10	-4.873300e+00	-3.091452e+01
9.900000e-07	-5.818402e-07	-4.429902e-10	-4.618355e+00	-2.968872e+01
1.000000e-06	-5.496473e-07	-4.145497e-10	-4.362824e+00	-2.845594e+01
1.010000e-06	-5.174372e-07	-3.876935e-10	-4.107156e+00	-2.721511e+01
1.020000e-06	-4.851508e-07	-3.735656e-10	-3.850884e+00	-2.596514e+01
1.030000e-06	-4.528005e-07	-3.628518e-10	-3.594103e+00	-2.470494e+01
1.040000e-06	-4.203823e-07	-3.430379e-10	-3.336784e+00	-2.343355e+01
1.050000e-06	-3.879203e-07	-3.148951e-10	-3.079117e+00	-2.215010e+01
1.060000e-06	-3.553914e-07	-2.933739e-10	-2.820918e+00	-2.085395e+01
1.070000e-06	-3.228083e-07	-2.827351e-10	-2.562290e+00	-1.954466e+01
1.080000e-06	-2.901674e-07	-2.692462e-10	-2.303203e+00	-1.822205e+01
1.090000e-06	-2.573902e-07	-2.455988e-10	-2.043034e+00	-1.688622e+01
1.100000e-06	-2.245734e-07	-2.171818e-10	-1.782551e+00	-1.553753e+01
1.110000e-06	-1.917635e-07	-1.967932e-10	-1.522123e+00	-1.417659e+01
1.120000e-06	-1.588766e-07	-1.841257e-10	-1.261083e+00	-1.280423e+01
1.130000e-06	-1.259057e-07	-1.674688e-10	-9.993759e-01	-1.142145e+01
1.140000e-06	-9.288576e-08	-1.403908e-10	-7.372805e-01	-1.002940e+01
1.150000e-06	-5.983521e-08	-1.126733e-10	-4.749419e-01	-8.629291e+00
1.160000e-06	-2.679424e-08	-9.561395e-11	-2.126792e-01	-7.222370e+00
1.170000e-06	6.253657e-09	-8.288383e-11	4.963839e-02	-5.809838e+00
1.180000e-06	3.931374e-08	-6.186584e-11	3.120527e-01	-4.392819e+00
1.190000e-06	7.236861e-08	-3.375659e-11	5.744257e-01	-2.972321e+00
1.200000e-06	1.053807e-07	-1.001073e-11	8.364587e-01	-1.549206e+00
1.210000e-06	1.383647e-07	5.452204e-12	1.098270e+00	-1.241801e-01
1.220000e-06	1.712797e-07	2.076785e-11	1.359532e+00	1.302206e+00
1.230000e-06	2.041487e-07	4.260182e-11	1.620430e+00	2.729543e+00
1.240000e-06	2.370587e-07	6.749032e-11	1.881653e+00	4.157534e+00
1.250000e-06	2.698804e-07	8.958661e-11	2.142175e+00	5.585958e+00
1.260000e-06	3.026249e-07	1.077913e-10	2.402084e+00	7.014627e+00
1.270000e-06	3.353643e-07	1.282080e-10	2.661954e+00	8.443341e+00
1.280000e-06	3.679981e-07	1.539805e-10	2.920984e+00	9.871838e+00
1.290000e-06	4.004728e-07	1.782984e-10	3.178752e+00	1.129976e+01
1.300000e-06	4.328622e-07	1.973730e-10	3.435843e+00	1.272661e+01
1.310000e-06	4.651922e-07	2.147836e-10	3.692462e+00	1.415174e+01
1.320000e-06	4.974154e-07	2.364874e-10	3.948234e+00	1.557435e+01
1.330000e-06	5.295885e-07	2.610719e-10	4.203607e+00	1.699349e+01
1.340000e-06	5.617342e-07	2.836817e-10	4.458764e+00	1.840806e+01
1.350000e-06	5.938293e-07	3.036723e-10	4.713519e+00	1.981689e+01
1.360000e-06	6.258918e-07	3.237276e-10	4.968015e+00	2.121875e+01
1.370000e-06	6.579368e-07	3.450142e-10	5.222372e+00	2.261244e+01
1.380000e-06	6.899375e-07	3.663986e-10	5.476377e+00	2.399682e+01
1.390000e-06	7.218806e-07	3.875470e-10	5.729926e+00	2.537089e+01
1.400000e-06	7.537705e-07	4.078756e-10	5.983051e+00	2.673386e+01
1.410000e-06	7.855694e-07	4.254161e-10	6.235456e+00	2.808517e+01
1.420000e-06	8.172120e-07	4.435088e-10	6.486619e+00	2.942456e+01
1.430000e-06	8.486731e-07	4.657215e-10	6.736340e+00	3.075208e+01
1.440000e-06	8.799581e-07	4.882472e-10	6.984665e+00	3.206808e+01
1.450000e-06	9.110463e-07	5.081127e-10	7.231428e+00	3.337324e+01
1.460000e-06	9.419149e-07	5.252620e-10	7.476448e+00	3.466850e+01
1.470000e-06	9.725894e-07	5.453225e-10	7.719927e+00	3.595500e+01
1.480000e-06	1.003057e-06	5.675172e-10	7.961761e+00	3.723408e+01
1.490000e-06	1.033339e-06	5.887503e-10	8.202127e+00	3.850712e+01
1.500000e-06	1.063523e-06	6.066858e-10	8.441713e+00	3.977553e+01
1.510000e-06	1.093614e-06	6.239420e-10	8.680557e+00	4.104063e+01
1.520000e-06	1.123546e-06	6.449217e-10	8.918141e+00	4.230355e+01
1.530000e-06	1.153363e-06	6.661940e-10	9.154815e+00	4.356520e+01
1.540000e-06	1.183027e-06	6.836781e-10	9.390271e+00	4.482617e+01
1.550000e-06	1.212454e-06	6.996990e-10	9.623847e+00	4.608672e+01
1.560000e-06	1.241680e-06	7.188342e-10	9.855834e+00	4.734670e+01
1.570000e-06	1.270609e-06	7.403980e-10	1.008546e+01	4.860560e+01
1.580000e-06	1.299274e-06	7.594015e-10	1.031298e+01	4.986252e+01
1.590000e-06	1.327761e-06	7.752527e-10	1.053910e+01	5.111622e+01
1.600000e-06	1.356030e-06	7.917903e-10	1.076348e+01	5.236521e+01
1.610000e-06	1.384155e-06	8.102568e-10	1.098673e+01	5.360774e+01
1.620000e-06	1.412196e-06	8.293428e-10	1.120930e+01	5.484195e+01
1.630000e-06	1.440155e-06	8.474300e-10	1.143122e+01	5.606593e+01
1.640000e-06	1.468007e-06	8.651146e-10	1.165230e+01	5.727780e+01
1.650000e-06	1.495647e-06	8.821350e-10	1.187170e+01	5.847583e+01
1.660000e-06	1.522934e-06	8.991979e-10	1.208829e+01	5.965845e+01
1.670000e-06	1.549751e-06	9.177311e-10	1.230115e+01	6.082438e+01
1.680000e-06	1.576125e-06	9.364364e-10	1.251049e+01	6.197266e+01
1.690000e-06	1.602032e-06	9.536212e-10	1.271613e+01	6.310265e+01
1.700000e-06	1.627392e-06	9.681693e-10	1.291742e+01	6.421407e+01
1.710000e-06	1.652272e-06	9.827973e-10	1.311490e+01	6.530699e+01
1.720000e-06	1.676766e-06	1.001941e-09	1.330933e+01	6.638178e+01
1.730000e-06	1.700991e-06	1.021098e-09	1.350161e+01	6.743910e+01
1.740000e-06	1.725047e-06	1.036432e-09	1.369255e+01	6.847981e+01
1.750000e-06	1.748878e-06	1.050174e-09	1.388172e+01	6.950492e+01
1.760000e-06	1.772502e-06	1.065516e-09	1.406923e+01	7.051550e+01
1.770000e-06	1.795874e-06	1.082696e-09	1.425475e+01	7.151265e+01
1.780000e-06	1.818878e-06	1.098054e-09	1.443734e+01	7.249738e+01
1.790000e-06	1.841538e-06	1.110700e-09	1.461720e+01	7.347057e+01
1.800000e-06	1.863876e-06	1.124524e-09	1.479451e+01	7.443293e+01
1.810000e-06	1.885928e-06	1.141059e-09	1.496955e+01	7.538493e+01
1.820000e-06	1.907702e-06	1.156840e-09	1.514238e+01	7.632681e+01
1.830000e-06	1.929168e-06	1.170721e-09	1.531276e+01	7.725853e+01
1.840000e-06	1.950254e-06	1.184450e-09	1.548014e+01	7.817984e+01
1.850000e-06	1.970916e-06	1.198422e-09	1.564414e+01	7.909022e+01
1.860000e-06	1.991290e-06	1.211916e-09	1.580586e+01	7.998898e+01
1.870000e-06	2.011489e-06	1.225419e-09	1.596619e+01	8.087525e+01
1.880000e-06	2.031492e-06	1.238620e-09	1.612497e+01	8.174807e+01
1.890000e-06	2.051282e-06	1.251154e-09	1.628205e+01	8.260641e+01
1.900000e-06	2.070809e-06	1.262967e-09	1.643704e+01	8.344923e+01
1.910000e-06	2.089935e-06	1.274244e-09	1.658885e+01	8.427555e+01
1.920000e-06	2.108641e-06	1.284570e-09	1.673733e+01	8.508443e+01
1.930000e-06	2.126923e-06	1.295217e-09	1.688244e+01	8.587508e+01
1.940000e-06	2.144761e-06	1.307506e-09	1.702404e+01	8.664683e+01
1.950000e-06	2.162251e-06	1.319973e-09	1.716286e+01	8.739915e+01
1.960000e-06	2.179481e-06	1.330449e-09	1.729962e+01	8.813170e+01
1.970000e-06	2.196469e-06	1.340411e-09	1.743447e+01	8.884424e+01
1.980000e-06	2.213059e-06	1.352638e-09	1.756615e+01	8.953671e+01
1.990000e-06	2.229120e-06	1.365320e-09	1.769364e+01	9.020914e+01
2.000000e-06	2.244649e-06	1.375484e-09	1.781690e+01	9.086164e+01
2.010000e-06	2.259594e-06	1.384361e-09	1.793552e+01	9.149439e+01
2.020000e-06	2.274076e-06	1.393756e-09	1.805048e+01	9.210760e+01
2.030000e-06	2.288169e-06	1.403249e-09	1.816233e+01	9.270147e+01
2.040000e-06	2.301826e-06	1.411909e-09	1.827074e+01	9.327618e+01
2.050000e-06	2.315096e-06	1.418424e-09	1.837607e+01	9.383186e+01
2.060000e-06	2.327929e-06	1.424471e-09	1.847793e+01	9.436860e+01
2.070000e-06	2.340366e-06	1.432927e-09	1.857665e+01	9.488641e+01
2.080000e-06	2.352436e-06	1.442454e-09	1.867245e+01	9.538523e+01
2.090000e-06	2.364051e-06	1.449730e-09	1.876465e+01	9.586497e+01
2.100000e-06	2.375151e-06	1.455281e-09	1.885275e+01	9.632547e+01
2.110000e-06	2.385643e-06	1.462192e-09	1.893603e+01	9.676654e+01
2.120000e-06	2.395478e-06	1.469992e-09	1.901410e+01	9.718798e+01
2.130000e-06	2.404693e-06	1.475416e-09	1.908725e+01	9.758962e+01
2.140000e-06	2.413372e-06	1.478293e-09	1.915613e+01	9.797130e+01
2.150000e-06	2.421682e-06	1.482255e-09	1.922210e+01	9.833292e+01
2.160000e-06	2.429716e-06	1.488001e-09	1.928586e+01	9.867442e+01
2.170000e-06	2.437453e-06	1.493665e-09	1.934728e+01	9.899585e+01
2.180000e-06	2.444845e-06	1.498551e-09	1.940595e+01	9.929733e+01
2.190000e-06	2.451744e-06	1.503445e-09	1.946071e+01	9.957906e+01
2.200000e-06	2.458113e-06	1.509010e-09	1.951127e+01	9.984133e+01
2.210000e-06	2.464100e-06	1.514018e-09	1.955879e+01	1.000845e+02
2.220000e-06	2.469761e-06	1.517907e-09	1.960372e+01	1.003089e+02
2.230000e-06	2.475003e-06	1.520068e-09	1.964533e+01	1.005151e+02
2.240000e-06	2.479786e-06	1.522967e-09	1.968329e+01	1.007034e+02
2.250000e-06	2.484210e-06	1.526433e-09	1.971841e+01	1.008744e+02
2.260000e-06	2.488387e-06	1.528607e-09	1.975157e+01	1.010283e+02
2.270000e-06	2.492329e-06	1.531564e-09	1.978285e+01	1.011656e+02
2.280000e-06	2.495898e-06	1.536246e-09	1.981119e+01	1.012864e+02
2.290000e-06	2.498880e-06	1.540639e-09	1.983486e+01	1.013910e+02
2.300000e-06	2.501170e-06	1.543519e-09	1.985303e+01	1.014792e+02
2.310000e-06	2.502709e-06	1.546564e-09	1.986525e+01	1.015511e+02
2.320000e-06	2.503612e-06	1.549872e-09	1.987241e+01	1.016064e+02
2.330000e-06	2.504149e-06	1.551412e-09	1.987668e+01	1.016446e+02
2.340000e-06	2.504379e-06	1.550005e-09	1.987850e+01	1.016655e+02
2.350000e-06	2.504328e-06	1.547694e-09	1.987810e+01	1.016683e+02
2.360000e-06	2.503897e-06	1.548370e-09	1.987468e+01	1.016526e+02
2.370000e-06	2.502971e-06	1.549865e-09	1.986733e+01	1.016176e+02
2.380000e-06	2.501686e-06	1.551042e-09	1.985713e+01	1.015627e+02
2.390000e-06	2.500035e-06	1.562887e-09	1.984402e+01	1.014873e+02
2.400000e-06	2.497991e-06	1.562933e-09	1.982780e+01	1.013909e+02
2.410000e-06	2.495544e-06	1.519308e-09	1.980837e+01	1.012731e+02
2.420000e-06	2.492591e-06	1.508937e-09	1.978494e+01	1.011335e+02
2.430000e-06	2.489183e-06	1.548535e-09	1.975789e+01	1.009722e+02
2.440000e-06	2.485474e-06	1.572944e-09	1.972845e+01	1.007892e+02
2.450000e-06	2.481493e-06	1.514136e-09	1.969685e+01	1.005849e+02
2.460000e-06	2.477111e-06	1.496064e-09	1.966206e+01	1.003597e+02
2.470000e-06	2.472235e-06	1.544523e-09	1.962336e+01	1.001144e+02
2.480000e-06	2.466805e-06	1.538908e-09	1.958026e+01	9.984991e+01
2.490000e-06	2.460850e-06	1.512408e-09	1.953299e+01	9.956736e+01
2.500000e-06	2.454338e-06	1.511752e-09	1.948131e+01	9.926793e+01
2.510000e-06	2.447184e-06	1.501864e-09	1.942452e+01	9.895294e+01
2.520000e-06	2.439540e-06	1.479187e-09	1.936385e+01	9.862370e+01
2.530000e-06	2.431584e-06	1.535651e-09	1.930070e+01	9.828154e+01
2.540000e-06	2.423284e-06	1.549083e-09	1.923481e+01	9.792769e+01
2.550000e-06	2.414561e-06	1.437312e-09	1.916558e+01	9.756326e+01
2.560000e-06	2.405441e-06	1.409519e-09	1.909318e+01	9.718919e+01
2.570000e-06	2.395975e-06	1.548534e-09	1.901805e+01	9.680618e+01
2.580000e-06	2.386110e-06	1.549482e-09	1.893975e+01	9.641468e+01
2.590000e-06	2.375849e-06	1.376233e-09	1.885830e+01	9.601485e+01
2.600000e-06	2.365185e-06	1.385978e-09	1.877365e+01	9.560659e+01
2.610000e-06	2.354044e-06	1.545383e-09	1.868522e+01	9.518948e+01
2.620000e-06	2.342426e-06	1.490742e-09	1.859300e+01	9.476286e+01
2.630000e-06	2.330417e-06	1.345640e-09	1.849768e+01	9.432582e+01
2.640000e-06	2.318055e-06	1.424185e-09	1.839955e+01	9.387727e+01
2.650000e-06	2.305071e-06	1.507040e-09	1.829650e+01	9.341596e+01
2.660000e-06	2.291264e-06	1.383507e-09	1.818690e+01	9.294059e+01
2.670000e-06	2.276743e-06	1.345102e-09	1.807164e+01	9.244985e+01
2.680000e-06	2.261726e-06	1.467259e-09	1.795245e+01	9.194248e+01
2.690000e-06	2.246302e-06	1.433896e-09	1.783002e+01	9.141735e+01
2.700000e-06	2.230586e-06	1.305292e-09	1.770527e+01	9.087352e+01
2.710000e-06	2.214650e-06	1.365336e-09	1.757878e+01	9.031027e+01
2.720000e-06	2.198391e-06	1.451177e-09	1.744973e+01	8.972719e+01
2.730000e-06	2.181786e-06	1.355443e-09	1.731792e+01	8.912411e+01
2.740000e-06	2.164770e-06	1.280986e-09	1.718286e+01	8.850122e+01
2.750000e-06	2.147339e-06	1.342371e-09	1.704450e+01	8.785897e+01
2.760000e-06	2.129550e-06	1.370646e-09	1.690330e+01	8.719810e+01
2.770000e-06	2.111431e-06	1.313198e-09	1.675948e+01	8.651958e+01
2.780000e-06	2.092969e-06	1.282357e-09	1.661294e+01	8.582457e+01
2.790000e-06	2.074070e-06	1.296883e-09	1.646293e+01	8.511435e+01
2.800000e-06	2.054814e-06	1.303328e-09	1.631008e+01	8.439027e+01
2.810000e-06	2.035290e-06	1.282765e-09	1.615511e+01	8.365365e+01
2.820000e-06	2.015531e-06	1.261849e-09	1.599827e+01	8.290575e+01
2.830000e-06	1.995620e-06	1.258869e-09	1.584023e+01	8.214770e+01
2.840000e-06	1.975514e-06	1.248411e-09	1.568064e+01	8.138044e+01
2.850000e-06	1.955048e-06	1.227092e-09	1.551819e+01	8.060467e+01
2.860000e-06	1.934161e-06	1.225194e-09	1.535240e+01	7.982086e+01
2.870000e-06	1.912799e-06	1.215044e-09	1.518284e+01	7.902918e+01
2.880000e-06	1.890742e-06	1.186140e-09	1.500776e+01	7.822958e+01
2.890000e-06	1.868121e-06	1.183452e-09	1.482821e+01	7.742173e+01
2.900000e-06	1.845082e-06	1.189455e-09	1.464534e+01	7.660512e+01
2.910000e-06	1.821644e-06	1.161925e-09	1.445930e+01	7.577903e+01
2.920000e-06	1.797932e-06	1.141750e-09	1.427108e+01	7.494267e+01
2.930000e-06	1.774031e-06	1.150735e-09	1.408137e+01	7.409515e+01
2.940000e-06	1.749968e-06	1.139031e-09	1.389037e+01	7.323559e+01
2.950000e-06	1.725707e-06	1.105310e-09	1.369780e+01	7.236314e+01
