# Temperatura_=_20.0
# Concentracion g/m^3_=_12600.0
# C_Vs_to_Am_M_A/Vsm_=_65563218390.804596
# pendiente_HvsI_1/m_=_3716.3
# ordenada_HvsI_A/m_=_1297.0
# frecuencia_Hz_=_213043.93602992696

Tiempo_(s)	Campo_(V.s)	Magnetizacion_(V.s)	Campo_(kA/m)	Magnetizacion_(A/m)
0.000000e+00	-2.499724e-06	-1.660351e-09	-1.982630e+01	-1.081639e+02
1.000000e-08	-2.499679e-06	-1.657663e-09	-1.982595e+01	-1.081337e+02
2.000000e-08	-2.499370e-06	-1.654057e-09	-1.982350e+01	-1.080833e+02
3.000000e-08	-2.498740e-06	-1.653362e-09	-1.981850e+01	-1.080132e+02
4.000000e-08	-2.497571e-06	-1.650365e-09	-1.980923e+01	-1.079239e+02
5.000000e-08	-2.495822e-06	-1.635092e-09	-1.979536e+01	-1.078160e+02
6.000000e-08	-2.493440e-06	-1.634734e-09	-1.977647e+01	-1.076900e+02
7.000000e-08	-2.490303e-06	-1.671204e-09	-1.975158e+01	-1.075463e+02
8.000000e-08	-2.486548e-06	-1.691547e-09	-1.972180e+01	-1.073852e+02
9.000000e-08	-2.482455e-06	-1.654864e-09	-1.968934e+01	-1.072069e+02
1.000000e-07	-2.478113e-06	-1.587493e-09	-1.965490e+01	-1.070113e+02
1.100000e-07	-2.473458e-06	-1.636039e-09	-1.961798e+01	-1.067985e+02
1.200000e-07	-2.468462e-06	-1.683297e-09	-1.957836e+01	-1.065683e+02
1.300000e-07	-2.463014e-06	-1.652696e-09	-1.953514e+01	-1.063204e+02
1.400000e-07	-2.457141e-06	-1.591731e-09	-1.948857e+01	-1.060546e+02
1.500000e-07	-2.450884e-06	-1.577919e-09	-1.943894e+01	-1.057706e+02
1.600000e-07	-2.444191e-06	-1.607690e-09	-1.938585e+01	-1.054683e+02
1.700000e-07	-2.437021e-06	-1.630846e-09	-1.932899e+01	-1.051474e+02
1.800000e-07	-2.429455e-06	-1.663160e-09	-1.926897e+01	-1.048080e+02
1.900000e-07	-2.421561e-06	-1.570341e-09	-1.920637e+01	-1.044502e+02
2.000000e-07	-2.413347e-06	-1.506611e-09	-1.914122e+01	-1.040742e+02
2.100000e-07	-2.404803e-06	-1.587554e-09	-1.907345e+01	-1.036805e+02
2.200000e-07	-2.395770e-06	-1.672681e-09	-1.900181e+01	-1.032695e+02
2.300000e-07	-2.386029e-06	-1.580518e-09	-1.892455e+01	-1.028421e+02
2.400000e-07	-2.375453e-06	-1.462838e-09	-1.884066e+01	-1.023990e+02
2.500000e-07	-2.364278e-06	-1.538208e-09	-1.875203e+01	-1.019410e+02
2.600000e-07	-2.352722e-06	-1.628355e-09	-1.866038e+01	-1.014690e+02
2.700000e-07	-2.340750e-06	-1.550910e-09	-1.856542e+01	-1.009840e+02
2.800000e-07	-2.328347e-06	-1.474620e-09	-1.846705e+01	-1.004867e+02
2.900000e-07	-2.315507e-06	-1.521615e-09	-1.836521e+01	-9.997779e+01
3.000000e-07	-2.302190e-06	-1.547234e-09	-1.825959e+01	-9.945787e+01
3.100000e-07	-2.288435e-06	-1.496322e-09	-1.815049e+01	-9.892732e+01
3.200000e-07	-2.274248e-06	-1.495553e-09	-1.803797e+01	-9.838635e+01
3.300000e-07	-2.259565e-06	-1.519560e-09	-1.792151e+01	-9.783498e+01
3.400000e-07	-2.244276e-06	-1.466366e-09	-1.780025e+01	-9.727304e+01
3.500000e-07	-2.228434e-06	-1.439763e-09	-1.767460e+01	-9.670017e+01
3.600000e-07	-2.212037e-06	-1.482160e-09	-1.754455e+01	-9.611589e+01
3.700000e-07	-2.195121e-06	-1.487517e-09	-1.741038e+01	-9.551959e+01
3.800000e-07	-2.177901e-06	-1.435283e-09	-1.727381e+01	-9.491057e+01
3.900000e-07	-2.160352e-06	-1.414296e-09	-1.713461e+01	-9.428814e+01
4.000000e-07	-2.142485e-06	-1.437048e-09	-1.699291e+01	-9.365159e+01
4.100000e-07	-2.124341e-06	-1.437366e-09	-1.684900e+01	-9.300028e+01
4.200000e-07	-2.105850e-06	-1.416467e-09	-1.670233e+01	-9.233365e+01
4.300000e-07	-2.086954e-06	-1.399457e-09	-1.655247e+01	-9.165127e+01
4.400000e-07	-2.067628e-06	-1.379869e-09	-1.639918e+01	-9.095286e+01
4.500000e-07	-2.047934e-06	-1.371127e-09	-1.624298e+01	-9.023829e+01
4.600000e-07	-2.027979e-06	-1.374642e-09	-1.608471e+01	-8.950757e+01
4.700000e-07	-2.007852e-06	-1.377350e-09	-1.592508e+01	-8.876088e+01
4.800000e-07	-1.987534e-06	-1.348202e-09	-1.576393e+01	-8.799851e+01
4.900000e-07	-1.966965e-06	-1.302014e-09	-1.560078e+01	-8.722086e+01
5.000000e-07	-1.946094e-06	-1.305175e-09	-1.543525e+01	-8.642840e+01
5.100000e-07	-1.924829e-06	-1.335262e-09	-1.526659e+01	-8.562161e+01
5.200000e-07	-1.903212e-06	-1.312698e-09	-1.509514e+01	-8.480099e+01
5.300000e-07	-1.881300e-06	-1.255342e-09	-1.492134e+01	-8.396700e+01
5.400000e-07	-1.859074e-06	-1.244944e-09	-1.474505e+01	-8.312001e+01
5.500000e-07	-1.836531e-06	-1.268009e-09	-1.456626e+01	-8.226033e+01
5.600000e-07	-1.813574e-06	-1.255695e-09	-1.438418e+01	-8.138814e+01
5.700000e-07	-1.790281e-06	-1.225072e-09	-1.419943e+01	-8.050347e+01
5.800000e-07	-1.766667e-06	-1.200084e-09	-1.401214e+01	-7.960628e+01
5.900000e-07	-1.742740e-06	-1.184392e-09	-1.382236e+01	-7.869638e+01
6.000000e-07	-1.718687e-06	-1.187450e-09	-1.363159e+01	-7.777349e+01
6.100000e-07	-1.694484e-06	-1.187435e-09	-1.343963e+01	-7.683725e+01
6.200000e-07	-1.670091e-06	-1.158794e-09	-1.324616e+01	-7.588724e+01
6.300000e-07	-1.645374e-06	-1.120849e-09	-1.305011e+01	-7.492304e+01
6.400000e-07	-1.620213e-06	-1.113295e-09	-1.285056e+01	-7.394423e+01
6.500000e-07	-1.594615e-06	-1.122612e-09	-1.264753e+01	-7.295042e+01
6.600000e-07	-1.568482e-06	-1.106129e-09	-1.244026e+01	-7.194131e+01
6.700000e-07	-1.541866e-06	-1.068494e-09	-1.222916e+01	-7.091668e+01
6.800000e-07	-1.514887e-06	-1.042974e-09	-1.201518e+01	-6.987643e+01
6.900000e-07	-1.487496e-06	-1.043063e-09	-1.179793e+01	-6.882057e+01
7.000000e-07	-1.459758e-06	-1.041268e-09	-1.157793e+01	-6.774927e+01
7.100000e-07	-1.431831e-06	-1.012928e-09	-1.135643e+01	-6.666281e+01
7.200000e-07	-1.403798e-06	-9.783731e-10	-1.113408e+01	-6.556159e+01
7.300000e-07	-1.375675e-06	-9.577865e-10	-1.091103e+01	-6.444616e+01
7.400000e-07	-1.347429e-06	-9.530992e-10	-1.068700e+01	-6.331713e+01
7.500000e-07	-1.319026e-06	-9.438534e-10	-1.046172e+01	-6.217520e+01
7.600000e-07	-1.290384e-06	-9.158841e-10	-1.023455e+01	-6.102114e+01
7.700000e-07	-1.261512e-06	-8.859106e-10	-1.000555e+01	-5.985574e+01
7.800000e-07	-1.232415e-06	-8.693085e-10	-9.774778e+00	-5.867980e+01
7.900000e-07	-1.203041e-06	-8.631677e-10	-9.541799e+00	-5.749411e+01
8.000000e-07	-1.173428e-06	-8.513295e-10	-9.306922e+00	-5.629942e+01
8.100000e-07	-1.143626e-06	-8.245107e-10	-9.070557e+00	-5.509642e+01
8.200000e-07	-1.113697e-06	-7.948668e-10	-8.833176e+00	-5.388576e+01
8.300000e-07	-1.083604e-06	-7.777633e-10	-8.594497e+00	-5.266797e+01
8.400000e-07	-1.053336e-06	-7.705187e-10	-8.354429e+00	-5.144348e+01
8.500000e-07	-1.022955e-06	-7.514316e-10	-8.113465e+00	-5.021265e+01
8.600000e-07	-9.923974e-07	-7.179023e-10	-7.871100e+00	-4.897569e+01
8.700000e-07	-9.616062e-07	-6.922936e-10	-7.626882e+00	-4.773271e+01
8.800000e-07	-9.305736e-07	-6.819800e-10	-7.380750e+00	-4.648372e+01
8.900000e-07	-8.993437e-07	-6.725887e-10	-7.133054e+00	-4.522858e+01
9.000000e-07	-8.680679e-07	-6.470747e-10	-6.884993e+00	-4.396709e+01
9.100000e-07	-8.366168e-07	-6.168948e-10	-6.635541e+00	-4.269891e+01
9.200000e-07	-8.049379e-07	-5.998613e-10	-6.384284e+00	-4.142364e+01
9.300000e-07	-7.731857e-07	-5.891515e-10	-6.132444e+00	-4.014079e+01
9.400000e-07	-7.413184e-07	-5.728964e-10	-5.879692e+00	-3.884983e+01
9.500000e-07	-7.093581e-07	-5.484738e-10	-5.626202e+00	-3.755019e+01
9.600000e-07	-6.773556e-07	-5.254710e-10	-5.372377e+00	-3.624127e+01
9.700000e-07	-6.452743e-07	-5.092546e-10	-5.117928e+00	-3.492252e+01
9.800000e-07	-6.131296e-07	-4.924974e-10	-4.862975e+00	-3.359342e+01
9.900000e-07	-5.809631e-07	-4.712788e-10	-4.607850e+00	-3.225349e+01
1.000000e-06	-5.487663e-07	-4.460737e-10	-4.352484e+00	-3.090237e+01
1.010000e-06	-5.165377e-07	-4.218198e-10	-4.096867e+00	-2.953982e+01
1.020000e-06	-4.842648e-07	-4.014631e-10	-3.840898e+00	-2.816572e+01
1.030000e-06	-4.519001e-07	-3.829006e-10	-3.584200e+00	-2.678012e+01
1.040000e-06	-4.194272e-07	-3.643111e-10	-3.326644e+00	-2.538322e+01
1.050000e-06	-3.868905e-07	-3.423727e-10	-3.068583e+00	-2.397539e+01
1.060000e-06	-3.542518e-07	-3.205970e-10	-2.809712e+00	-2.255716e+01
1.070000e-06	-3.215150e-07	-3.013092e-10	-2.550064e+00	-2.112921e+01
1.080000e-06	-2.887541e-07	-2.821307e-10	-2.290224e+00	-1.969235e+01
1.090000e-06	-2.559527e-07	-2.603335e-10	-2.030063e+00	-1.824749e+01
1.100000e-06	-2.231330e-07	-2.344607e-10	-1.769757e+00	-1.679562e+01
1.110000e-06	-1.902519e-07	-2.099282e-10	-1.508964e+00	-1.533773e+01
1.120000e-06	-1.573278e-07	-1.896202e-10	-1.247830e+00	-1.387484e+01
1.130000e-06	-1.243564e-07	-1.696253e-10	-9.863203e-01	-1.240789e+01
1.140000e-06	-9.134802e-08	-1.462194e-10	-7.245176e-01	-1.093774e+01
1.150000e-06	-5.837428e-08	-1.203217e-10	-4.629897e-01	-9.465155e+00
1.160000e-06	-2.538789e-08	-9.893170e-11	-2.013615e-01	-7.990719e+00
1.170000e-06	7.718901e-09	-8.144559e-11	6.122168e-02	-6.514867e+00
1.180000e-06	4.093461e-08	-6.010276e-11	3.246687e-01	-5.037854e+00
1.190000e-06	7.408576e-08	-3.526539e-11	5.876037e-01	-3.559765e+00
1.200000e-06	1.071125e-07	-1.179100e-11	8.495522e-01	-2.080522e+00
1.210000e-06	1.400756e-07	7.765749e-12	1.110995e+00	-5.999154e-01
1.220000e-06	1.729978e-07	2.761746e-11	1.372115e+00	8.823711e-01
1.230000e-06	2.058556e-07	5.098554e-11	1.632723e+00	2.366713e+00
1.240000e-06	2.387376e-07	7.489415e-11	1.893523e+00	3.853502e+00
1.250000e-06	2.715463e-07	9.653384e-11	2.153742e+00	5.343094e+00
1.260000e-06	3.042679e-07	1.166272e-10	2.413270e+00	6.835763e+00
1.270000e-06	3.369486e-07	1.377225e-10	2.672473e+00	8.331653e+00
1.280000e-06	3.694767e-07	1.607924e-10	2.930467e+00	9.830738e+00
1.290000e-06	4.019470e-07	1.837345e-10	3.188002e+00	1.133279e+01
1.300000e-06	4.343829e-07	2.071147e-10	3.445264e+00	1.283738e+01
1.310000e-06	4.667312e-07	2.301659e-10	3.701832e+00	1.434381e+01
1.320000e-06	4.990656e-07	2.523391e-10	3.958288e+00	1.585121e+01
1.330000e-06	5.313629e-07	2.732677e-10	4.214451e+00	1.735847e+01
1.340000e-06	5.635498e-07	2.954068e-10	4.469738e+00	1.886433e+01
1.350000e-06	5.956974e-07	3.182006e-10	4.724714e+00	2.036740e+01
1.360000e-06	6.278483e-07	3.390199e-10	4.979716e+00	2.186619e+01
1.370000e-06	6.599637e-07	3.609669e-10	5.234435e+00	2.335923e+01
1.380000e-06	6.920094e-07	3.841522e-10	5.488602e+00	2.484506e+01
1.390000e-06	7.240044e-07	4.068869e-10	5.742368e+00	2.632232e+01
1.400000e-06	7.559676e-07	4.285443e-10	5.995880e+00	2.778981e+01
1.410000e-06	7.878332e-07	4.474454e-10	6.248620e+00	2.924653e+01
1.420000e-06	8.195087e-07	4.671049e-10	6.499850e+00	3.069172e+01
1.430000e-06	8.509758e-07	4.907128e-10	6.749429e+00	3.212489e+01
1.440000e-06	8.823109e-07	5.164339e-10	6.997960e+00	3.354581e+01
1.450000e-06	9.134860e-07	5.393056e-10	7.245222e+00	3.495455e+01
1.460000e-06	9.444264e-07	5.575437e-10	7.490622e+00	3.635144e+01
1.470000e-06	9.751187e-07	5.770304e-10	7.734055e+00	3.773705e+01
1.480000e-06	1.005688e-06	5.993871e-10	7.976511e+00	3.911212e+01
1.490000e-06	1.036112e-06	6.211937e-10	8.217814e+00	4.047760e+01
1.500000e-06	1.066307e-06	6.391751e-10	8.457306e+00	4.183450e+01
1.510000e-06	1.096381e-06	6.575396e-10	8.695835e+00	4.318390e+01
1.520000e-06	1.126322e-06	6.796261e-10	8.933309e+00	4.452685e+01
1.530000e-06	1.156143e-06	7.019804e-10	9.169833e+00	4.586436e+01
1.540000e-06	1.185850e-06	7.218974e-10	9.405447e+00	4.719733e+01
1.550000e-06	1.215389e-06	7.401491e-10	9.639733e+00	4.852649e+01
1.560000e-06	1.244668e-06	7.592216e-10	9.871960e+00	4.985243e+01
1.570000e-06	1.273651e-06	7.791967e-10	1.010184e+01	5.117549e+01
1.580000e-06	1.302366e-06	7.976094e-10	1.032958e+01	5.249583e+01
1.590000e-06	1.330818e-06	8.148931e-10	1.055525e+01	5.381339e+01
1.600000e-06	1.359143e-06	8.335519e-10	1.077991e+01	5.512789e+01
1.610000e-06	1.387394e-06	8.522508e-10	1.100397e+01	5.643887e+01
1.620000e-06	1.415501e-06	8.698684e-10	1.122690e+01	5.774569e+01
1.630000e-06	1.443460e-06	8.890349e-10	1.144865e+01	5.904758e+01
1.640000e-06	1.471305e-06	9.106950e-10	1.166951e+01	6.034364e+01
1.650000e-06	1.498949e-06	9.306860e-10	1.188876e+01	6.163289e+01
1.660000e-06	1.526243e-06	9.487030e-10	1.210524e+01	6.291429e+01
1.670000e-06	1.553016e-06	9.674514e-10	1.231759e+01	6.418677e+01
1.680000e-06	1.579278e-06	9.862457e-10	1.252589e+01	6.544927e+01
1.690000e-06	1.605043e-06	1.004800e-09	1.273024e+01	6.670072e+01
1.700000e-06	1.630293e-06	1.020764e-09	1.293051e+01	6.794011e+01
1.710000e-06	1.655159e-06	1.036239e-09	1.312773e+01	6.916644e+01
1.720000e-06	1.679720e-06	1.054651e-09	1.332253e+01	7.037880e+01
1.730000e-06	1.704060e-06	1.074567e-09	1.351558e+01	7.157633e+01
1.740000e-06	1.728219e-06	1.092530e-09	1.370719e+01	7.275824e+01
1.750000e-06	1.752138e-06	1.108501e-09	1.389691e+01	7.392380e+01
1.760000e-06	1.775771e-06	1.125421e-09	1.408435e+01	7.507236e+01
1.770000e-06	1.799142e-06	1.144220e-09	1.426972e+01	7.620338e+01
1.780000e-06	1.822137e-06	1.161511e-09	1.445210e+01	7.731635e+01
1.790000e-06	1.844758e-06	1.176122e-09	1.463151e+01	7.841088e+01
1.800000e-06	1.867093e-06	1.191646e-09	1.480866e+01	7.948663e+01
1.810000e-06	1.889158e-06	1.207983e-09	1.498367e+01	8.054339e+01
1.820000e-06	1.910943e-06	1.223685e-09	1.515645e+01	8.158098e+01
1.830000e-06	1.932385e-06	1.239044e-09	1.532651e+01	8.259935e+01
1.840000e-06	1.953433e-06	1.254694e-09	1.549345e+01	8.359848e+01
1.850000e-06	1.974127e-06	1.269781e-09	1.565759e+01	8.457846e+01
1.860000e-06	1.994548e-06	1.283569e-09	1.581956e+01	8.553941e+01
1.870000e-06	2.014737e-06	1.297598e-09	1.597968e+01	8.648149e+01
1.880000e-06	2.034742e-06	1.312448e-09	1.613835e+01	8.740490e+01
1.890000e-06	2.054500e-06	1.326458e-09	1.629506e+01	8.830984e+01
1.900000e-06	2.073961e-06	1.339032e-09	1.644941e+01	8.919648e+01
1.910000e-06	2.093101e-06	1.351663e-09	1.660122e+01	9.006497e+01
1.920000e-06	2.111819e-06	1.364169e-09	1.674968e+01	9.091539e+01
1.930000e-06	2.130073e-06	1.377143e-09	1.689446e+01	9.174775e+01
1.940000e-06	2.147978e-06	1.390186e-09	1.703647e+01	9.256199e+01
1.950000e-06	2.165532e-06	1.403355e-09	1.717570e+01	9.335791e+01
1.960000e-06	2.182763e-06	1.416516e-09	1.731236e+01	9.413525e+01
1.970000e-06	2.199745e-06	1.428194e-09	1.744706e+01	9.489364e+01
1.980000e-06	2.216344e-06	1.439044e-09	1.757870e+01	9.563262e+01
1.990000e-06	2.232432e-06	1.449814e-09	1.770630e+01	9.635168e+01
2.000000e-06	2.247952e-06	1.460851e-09	1.782941e+01	9.705027e+01
2.010000e-06	2.262909e-06	1.471133e-09	1.794803e+01	9.772779e+01
2.020000e-06	2.277382e-06	1.481401e-09	1.806282e+01	9.838370e+01
2.030000e-06	2.291468e-06	1.492146e-09	1.817455e+01	9.901750e+01
2.040000e-06	2.305137e-06	1.502195e-09	1.828296e+01	9.962876e+01
2.050000e-06	2.318385e-06	1.511421e-09	1.838804e+01	1.002172e+02
2.060000e-06	2.331201e-06	1.520796e-09	1.848968e+01	1.007825e+02
2.070000e-06	2.343558e-06	1.530367e-09	1.858770e+01	1.013248e+02
2.080000e-06	2.355542e-06	1.538678e-09	1.868275e+01	1.018442e+02
2.090000e-06	2.367179e-06	1.546419e-09	1.877504e+01	1.023409e+02
2.100000e-06	2.378315e-06	1.553694e-09	1.886337e+01	1.028153e+02
2.110000e-06	2.388705e-06	1.559994e-09	1.894577e+01	1.032680e+02
2.120000e-06	2.398409e-06	1.566550e-09	1.902274e+01	1.036996e+02
2.130000e-06	2.407550e-06	1.572243e-09	1.909524e+01	1.041109e+02
2.140000e-06	2.416180e-06	1.575927e-09	1.916369e+01	1.045024e+02
2.150000e-06	2.424484e-06	1.580190e-09	1.922955e+01	1.048750e+02
2.160000e-06	2.432506e-06	1.586051e-09	1.929318e+01	1.052292e+02
2.170000e-06	2.440205e-06	1.593535e-09	1.935424e+01	1.055656e+02
2.180000e-06	2.447497e-06	1.599597e-09	1.941208e+01	1.058845e+02
2.190000e-06	2.454327e-06	1.603351e-09	1.946625e+01	1.061863e+02
2.200000e-06	2.460725e-06	1.606769e-09	1.951699e+01	1.064710e+02
2.210000e-06	2.466715e-06	1.611660e-09	1.956450e+01	1.067385e+02
2.220000e-06	2.472288e-06	1.617677e-09	1.960870e+01	1.069885e+02
2.230000e-06	2.477413e-06	1.621616e-09	1.964935e+01	1.072208e+02
2.240000e-06	2.482104e-06	1.624357e-09	1.968656e+01	1.074348e+02
2.250000e-06	2.486485e-06	1.629245e-09	1.972130e+01	1.076299e+02
2.260000e-06	2.490604e-06	1.635571e-09	1.975397e+01	1.078056e+02
2.270000e-06	2.494457e-06	1.639798e-09	1.978453e+01	1.079611e+02
2.280000e-06	2.497968e-06	1.641656e-09	1.981238e+01	1.080960e+02
2.290000e-06	2.500898e-06	1.642771e-09	1.983562e+01	1.082098e+02
2.300000e-06	2.503089e-06	1.645661e-09	1.985300e+01	1.083020e+02
2.310000e-06	2.504612e-06	1.649333e-09	1.986508e+01	1.083726e+02
2.320000e-06	2.505596e-06	1.652043e-09	1.987288e+01	1.084213e+02
2.330000e-06	2.506109e-06	1.651514e-09	1.987695e+01	1.084483e+02
2.340000e-06	2.506304e-06	1.649193e-09	1.987850e+01	1.084538e+02
2.350000e-06	2.506227e-06	1.648676e-09	1.987788e+01	1.084382e+02
2.360000e-06	2.505761e-06	1.649219e-09	1.987419e+01	1.084019e+02
2.370000e-06	2.504882e-06	1.648286e-09	1.986722e+01	1.083455e+02
2.380000e-06	2.503606e-06	1.646514e-09	1.985710e+01	1.082695e+02
2.390000e-06	2.501890e-06	1.656445e-09	1.984349e+01	1.081745e+02
2.400000e-06	2.499777e-06	1.658472e-09	1.982673e+01	1.080611e+02
2.410000e-06	2.497273e-06	1.622793e-09	1.980687e+01	1.079297e+02
2.420000e-06	2.494314e-06	1.605833e-09	1.978340e+01	1.077807e+02
2.430000e-06	2.490937e-06	1.615469e-09	1.975662e+01	1.076144e+02
2.440000e-06	2.487234e-06	1.664417e-09	1.972724e+01	1.074309e+02
2.450000e-06	2.483229e-06	1.639762e-09	1.969548e+01	1.072301e+02
2.460000e-06	2.478812e-06	1.597196e-09	1.966045e+01	1.070120e+02
2.470000e-06	2.473902e-06	1.626843e-09	1.962151e+01	1.067765e+02
2.480000e-06	2.468476e-06	1.635571e-09	1.957847e+01	1.065232e+02
2.490000e-06	2.462434e-06	1.626527e-09	1.953055e+01	1.062520e+02
2.500000e-06	2.455826e-06	1.614789e-09	1.947813e+01	1.059625e+02
2.510000e-06	2.448665e-06	1.605668e-09	1.942134e+01	1.056545e+02
2.520000e-06	2.440994e-06	1.583848e-09	1.936050e+01	1.053281e+02
2.530000e-06	2.433023e-06	1.620773e-09	1.929727e+01	1.049831e+02
2.540000e-06	2.424708e-06	1.646179e-09	1.923133e+01	1.046197e+02
2.550000e-06	2.415958e-06	1.579246e-09	1.916193e+01	1.042383e+02
2.560000e-06	2.406819e-06	1.529793e-09	1.908944e+01	1.038393e+02
2.570000e-06	2.397308e-06	1.603984e-09	1.901401e+01	1.034233e+02
2.580000e-06	2.387390e-06	1.643068e-09	1.893534e+01	1.029911e+02
2.590000e-06	2.376992e-06	1.539548e-09	1.885287e+01	1.025433e+02
2.600000e-06	2.366201e-06	1.504345e-09	1.876728e+01	1.020810e+02
2.610000e-06	2.355092e-06	1.602423e-09	1.867917e+01	1.016050e+02
2.620000e-06	2.343526e-06	1.602512e-09	1.858744e+01	1.011162e+02
2.630000e-06	2.331452e-06	1.489492e-09	1.849167e+01	1.006153e+02
2.640000e-06	2.318971e-06	1.503811e-09	1.839268e+01	1.001030e+02
2.650000e-06	2.305896e-06	1.591128e-09	1.828898e+01	9.957982e+01
2.660000e-06	2.292085e-06	1.530665e-09	1.817944e+01	9.904609e+01
2.670000e-06	2.277691e-06	1.449653e-09	1.806527e+01	9.850197e+01
2.680000e-06	2.262742e-06	1.518068e-09	1.794671e+01	9.794741e+01
2.690000e-06	2.247316e-06	1.559077e-09	1.782436e+01	9.738220e+01
2.700000e-06	2.231580e-06	1.466969e-09	1.769955e+01	9.680593e+01
2.710000e-06	2.215575e-06	1.437834e-09	1.757261e+01	9.621807e+01
2.720000e-06	2.199252e-06	1.498642e-09	1.744315e+01	9.561798e+01
2.730000e-06	2.182605e-06	1.486321e-09	1.731111e+01	9.500498e+01
2.740000e-06	2.165593e-06	1.431139e-09	1.717619e+01	9.437835e+01
2.750000e-06	2.148134e-06	1.433224e-09	1.703770e+01	9.373739e+01
2.760000e-06	2.130295e-06	1.448227e-09	1.689622e+01	9.308149e+01
2.770000e-06	2.112188e-06	1.425744e-09	1.675261e+01	9.241014e+01
2.780000e-06	2.093693e-06	1.414752e-09	1.660592e+01	9.172293e+01
2.790000e-06	2.074735e-06	1.412418e-09	1.645555e+01	9.101964e+01
2.800000e-06	2.055414e-06	1.391785e-09	1.630231e+01	9.030018e+01
2.810000e-06	2.035880e-06	1.373757e-09	1.614737e+01	8.956460e+01
2.820000e-06	2.016186e-06	1.372136e-09	1.599117e+01	8.881314e+01
2.830000e-06	1.996299e-06	1.378365e-09	1.583345e+01	8.804610e+01
2.840000e-06	1.976133e-06	1.362145e-09	1.567350e+01	8.726391e+01
2.850000e-06	1.955563e-06	1.321833e-09	1.551035e+01	8.646706e+01
2.860000e-06	1.934486e-06	1.320348e-09	1.534318e+01	8.565603e+01
2.870000e-06	1.912825e-06	1.341040e-09	1.517138e+01	8.483131e+01
2.880000e-06	1.890616e-06	1.312933e-09	1.499523e+01	8.399334e+01
2.890000e-06	1.867862e-06	1.272535e-09	1.481476e+01	8.314249e+01
2.900000e-06	1.844605e-06	1.276560e-09	1.463030e+01	8.227900e+01
2.910000e-06	1.821068e-06	1.279186e-09	1.444361e+01	8.140302e+01
2.920000e-06	1.797356e-06	1.253225e-09	1.425555e+01	8.051457e+01
2.930000e-06	1.773492e-06	1.240830e-09	1.406627e+01	7.961356e+01
2.940000e-06	1.749489e-06	1.232173e-09	1.387589e+01	7.869975e+01
2.950000e-06	1.725235e-06	1.209472e-09	1.368352e+01	7.777285e+01
