# Temperatura_=_20.0
# Concentracion g/m^3_=_12600.0
# C_Vs_to_Am_M_A/Vsm_=_65563218390.804596
# pendiente_HvsI_1/m_=_3716.3
# ordenada_HvsI_A/m_=_1297.0
# frecuencia_Hz_=_213044.5031195893

Tiempo_(s)	Campo_(V.s)	Magnetizacion_(V.s)	Campo_(kA/m)	Magnetizacion_(A/m)
0.000000e+00	-2.499103e-06	-1.600956e-09	-1.982481e+01	-1.049023e+02
1.000000e-08	-2.499150e-06	-1.597826e-09	-1.982518e+01	-1.048694e+02
2.000000e-08	-2.498933e-06	-1.596311e-09	-1.982346e+01	-1.048177e+02
3.000000e-08	-2.498415e-06	-1.598606e-09	-1.981935e+01	-1.047483e+02
4.000000e-08	-2.497445e-06	-1.596742e-09	-1.981166e+01	-1.046625e+02
5.000000e-08	-2.495843e-06	-1.584217e-09	-1.979895e+01	-1.045611e+02
6.000000e-08	-2.493503e-06	-1.570943e-09	-1.978039e+01	-1.044450e+02
7.000000e-08	-2.490480e-06	-1.583908e-09	-1.975641e+01	-1.043146e+02
8.000000e-08	-2.486912e-06	-1.642222e-09	-1.972810e+01	-1.041702e+02
9.000000e-08	-2.482972e-06	-1.627123e-09	-1.969684e+01	-1.040118e+02
1.000000e-07	-2.478788e-06	-1.508905e-09	-1.966366e+01	-1.038390e+02
1.100000e-07	-2.474333e-06	-1.537966e-09	-1.962831e+01	-1.036511e+02
1.200000e-07	-2.469420e-06	-1.646455e-09	-1.958934e+01	-1.034474e+02
1.300000e-07	-2.464010e-06	-1.631519e-09	-1.954642e+01	-1.032270e+02
1.400000e-07	-2.458205e-06	-1.518975e-09	-1.950038e+01	-1.029888e+02
1.500000e-07	-2.451959e-06	-1.542008e-09	-1.945083e+01	-1.027321e+02
1.600000e-07	-2.445155e-06	-1.554714e-09	-1.939685e+01	-1.024560e+02
1.700000e-07	-2.437977e-06	-1.543732e-09	-1.933991e+01	-1.021600e+02
1.800000e-07	-2.430585e-06	-1.627616e-09	-1.928127e+01	-1.018438e+02
1.900000e-07	-2.422793e-06	-1.580800e-09	-1.921946e+01	-1.015076e+02
2.000000e-07	-2.414607e-06	-1.441805e-09	-1.915452e+01	-1.011516e+02
2.100000e-07	-2.406106e-06	-1.451503e-09	-1.908709e+01	-1.007765e+02
2.200000e-07	-2.397210e-06	-1.662775e-09	-1.901651e+01	-1.003834e+02
2.300000e-07	-2.387643e-06	-1.619897e-09	-1.894062e+01	-9.997345e+01
2.400000e-07	-2.377285e-06	-1.373454e-09	-1.885846e+01	-9.954792e+01
2.500000e-07	-2.366228e-06	-1.414113e-09	-1.877074e+01	-9.910823e+01
2.600000e-07	-2.354672e-06	-1.636590e-09	-1.867907e+01	-9.865578e+01
2.700000e-07	-2.342748e-06	-1.569467e-09	-1.858448e+01	-9.819182e+01
2.800000e-07	-2.330440e-06	-1.377492e-09	-1.848685e+01	-9.771741e+01
2.900000e-07	-2.317723e-06	-1.449039e-09	-1.838596e+01	-9.723336e+01
3.000000e-07	-2.304502e-06	-1.540161e-09	-1.828109e+01	-9.674018e+01
3.100000e-07	-2.290828e-06	-1.442157e-09	-1.817261e+01	-9.623803e+01
3.200000e-07	-2.276714e-06	-1.430294e-09	-1.806065e+01	-9.572675e+01
3.300000e-07	-2.262076e-06	-1.500596e-09	-1.794453e+01	-9.520589e+01
3.400000e-07	-2.246976e-06	-1.419939e-09	-1.782475e+01	-9.467472e+01
3.500000e-07	-2.231360e-06	-1.358741e-09	-1.770086e+01	-9.413232e+01
3.600000e-07	-2.215044e-06	-1.461933e-09	-1.757144e+01	-9.357766e+01
3.700000e-07	-2.198234e-06	-1.492286e-09	-1.743809e+01	-9.300966e+01
3.800000e-07	-2.181067e-06	-1.358104e-09	-1.730190e+01	-9.242728e+01
3.900000e-07	-2.163596e-06	-1.326857e-09	-1.716331e+01	-9.182961e+01
4.000000e-07	-2.145933e-06	-1.421711e-09	-1.702320e+01	-9.121590e+01
4.100000e-07	-2.127915e-06	-1.430288e-09	-1.688026e+01	-9.058566e+01
4.200000e-07	-2.109468e-06	-1.349088e-09	-1.673392e+01	-8.993862e+01
4.300000e-07	-2.090663e-06	-1.312854e-09	-1.658475e+01	-8.927480e+01
4.400000e-07	-2.071476e-06	-1.352213e-09	-1.643254e+01	-8.859445e+01
4.500000e-07	-2.051896e-06	-1.372130e-09	-1.627722e+01	-8.789803e+01
4.600000e-07	-2.032030e-06	-1.326567e-09	-1.611963e+01	-8.718617e+01
4.700000e-07	-2.011979e-06	-1.294821e-09	-1.596057e+01	-8.645958e+01
4.800000e-07	-1.991775e-06	-1.299918e-09	-1.580029e+01	-8.571902e+01
4.900000e-07	-1.971291e-06	-1.290232e-09	-1.563779e+01	-8.496519e+01
5.000000e-07	-1.950427e-06	-1.273909e-09	-1.547229e+01	-8.419870e+01
5.100000e-07	-1.929212e-06	-1.274224e-09	-1.530400e+01	-8.341999e+01
5.200000e-07	-1.907627e-06	-1.248838e-09	-1.513277e+01	-8.262932e+01
5.300000e-07	-1.885711e-06	-1.213524e-09	-1.495891e+01	-8.182675e+01
5.400000e-07	-1.863527e-06	-1.233356e-09	-1.478293e+01	-8.101211e+01
5.500000e-07	-1.841040e-06	-1.239608e-09	-1.460455e+01	-8.018506e+01
5.600000e-07	-1.818122e-06	-1.189637e-09	-1.442274e+01	-7.934509e+01
5.700000e-07	-1.794820e-06	-1.173922e-09	-1.423790e+01	-7.849161e+01
5.800000e-07	-1.771301e-06	-1.192975e-09	-1.405132e+01	-7.762396e+01
5.900000e-07	-1.747568e-06	-1.174641e-09	-1.386306e+01	-7.674153e+01
6.000000e-07	-1.723613e-06	-1.132800e-09	-1.367303e+01	-7.584378e+01
6.100000e-07	-1.699491e-06	-1.128774e-09	-1.348167e+01	-7.493030e+01
6.200000e-07	-1.675165e-06	-1.136284e-09	-1.328870e+01	-7.400088e+01
6.300000e-07	-1.650532e-06	-1.107878e-09	-1.309329e+01	-7.305549e+01
6.400000e-07	-1.625517e-06	-1.078366e-09	-1.289485e+01	-7.209435e+01
6.500000e-07	-1.600061e-06	-1.077437e-09	-1.269292e+01	-7.111787e+01
6.600000e-07	-1.574075e-06	-1.077386e-09	-1.248678e+01	-7.012666e+01
6.700000e-07	-1.547579e-06	-1.049189e-09	-1.227659e+01	-6.912144e+01
6.800000e-07	-1.520587e-06	-1.017577e-09	-1.206247e+01	-6.810305e+01
6.900000e-07	-1.493238e-06	-1.013676e-09	-1.184552e+01	-6.707233e+01
7.000000e-07	-1.465725e-06	-1.010724e-09	-1.162726e+01	-6.603009e+01
7.100000e-07	-1.437989e-06	-9.876945e-10	-1.140724e+01	-6.497705e+01
7.200000e-07	-1.410084e-06	-9.570724e-10	-1.118587e+01	-6.391377e+01
7.300000e-07	-1.382086e-06	-9.386591e-10	-1.096377e+01	-6.284063e+01
7.400000e-07	-1.353997e-06	-9.362667e-10	-1.074094e+01	-6.175779e+01
7.500000e-07	-1.325707e-06	-9.241796e-10	-1.051653e+01	-6.066524e+01
7.600000e-07	-1.297159e-06	-8.961026e-10	-1.029006e+01	-5.956274e+01
7.700000e-07	-1.268320e-06	-8.709136e-10	-1.006129e+01	-5.844993e+01
7.800000e-07	-1.239207e-06	-8.596473e-10	-9.830346e+00	-5.732634e+01
7.900000e-07	-1.209901e-06	-8.498635e-10	-9.597868e+00	-5.619146e+01
8.000000e-07	-1.180319e-06	-8.305002e-10	-9.363201e+00	-5.504482e+01
8.100000e-07	-1.150525e-06	-8.116602e-10	-9.126846e+00	-5.388604e+01
8.200000e-07	-1.120592e-06	-7.938014e-10	-8.889400e+00	-5.271490e+01
8.300000e-07	-1.090508e-06	-7.735137e-10	-8.650746e+00	-5.153139e+01
8.400000e-07	-1.060281e-06	-7.569224e-10	-8.410964e+00	-5.033574e+01
8.500000e-07	-1.029890e-06	-7.414164e-10	-8.169878e+00	-4.912842e+01
8.600000e-07	-9.992837e-07	-7.214953e-10	-7.927088e+00	-4.791016e+01
8.700000e-07	-9.684739e-07	-6.961966e-10	-7.682681e+00	-4.668187e+01
8.800000e-07	-9.375653e-07	-6.753074e-10	-7.437490e+00	-4.544464e+01
8.900000e-07	-9.065567e-07	-6.627777e-10	-7.191506e+00	-4.419964e+01
9.000000e-07	-8.753506e-07	-6.456597e-10	-6.943955e+00	-4.294804e+01
9.100000e-07	-8.439167e-07	-6.209079e-10	-6.694597e+00	-4.169096e+01
9.200000e-07	-8.123447e-07	-5.970469e-10	-6.444144e+00	-4.042933e+01
9.300000e-07	-7.807151e-07	-5.821834e-10	-6.193233e+00	-3.916387e+01
9.400000e-07	-7.489866e-07	-5.702914e-10	-5.941538e+00	-3.789500e+01
9.500000e-07	-7.171236e-07	-5.499626e-10	-5.688777e+00	-3.662281e+01
9.600000e-07	-6.851992e-07	-5.232802e-10	-5.435527e+00	-3.534705e+01
9.700000e-07	-6.532522e-07	-4.999316e-10	-5.182100e+00	-3.406714e+01
9.800000e-07	-6.212351e-07	-4.862011e-10	-4.928115e+00	-3.278222e+01
9.900000e-07	-5.891255e-07	-4.732132e-10	-4.673397e+00	-3.149118e+01
1.000000e-06	-5.569657e-07	-4.498791e-10	-4.418281e+00	-3.019279e+01
1.010000e-06	-5.247668e-07	-4.210828e-10	-4.162855e+00	-2.888577e+01
1.020000e-06	-4.924881e-07	-3.979692e-10	-3.906795e+00	-2.756889e+01
1.030000e-06	-4.601344e-07	-3.844070e-10	-3.650140e+00	-2.624110e+01
1.040000e-06	-4.277148e-07	-3.694815e-10	-3.392963e+00	-2.490160e+01
1.050000e-06	-3.952356e-07	-3.455975e-10	-3.135313e+00	-2.354993e+01
1.060000e-06	-3.626956e-07	-3.203417e-10	-2.877181e+00	-2.218605e+01
1.070000e-06	-3.300528e-07	-2.998884e-10	-2.618233e+00	-2.081033e+01
1.080000e-06	-2.973105e-07	-2.852317e-10	-2.358496e+00	-1.942357e+01
1.090000e-06	-2.644631e-07	-2.682527e-10	-2.097925e+00	-1.802697e+01
1.100000e-06	-2.315131e-07	-2.425323e-10	-1.836540e+00	-1.662203e+01
1.110000e-06	-1.985174e-07	-2.159323e-10	-1.574793e+00	-1.521053e+01
1.120000e-06	-1.654641e-07	-1.961289e-10	-1.312589e+00	-1.379436e+01
1.130000e-06	-1.323736e-07	-1.808983e-10	-1.050089e+00	-1.237540e+01
1.140000e-06	-9.930748e-08	-1.612385e-10	-7.877834e-01	-1.095545e+01
1.150000e-06	-6.627970e-08	-1.345407e-10	-5.257816e-01	-9.536058e+00
1.160000e-06	-3.322627e-08	-1.083611e-10	-2.635764e-01	-8.118425e+00
1.170000e-06	-1.977874e-10	-8.997739e-11	-1.569002e-03	-6.703343e+00
1.180000e-06	3.282359e-08	-7.460224e-11	2.603820e-01	-5.291131e+00
1.190000e-06	6.594459e-08	-5.207137e-11	5.231232e-01	-3.881619e+00
1.200000e-06	9.907661e-08	-2.595962e-11	7.859519e-01	-2.474169e+00
1.210000e-06	1.321183e-07	-5.334021e-12	1.048064e+00	-1.067724e+00
1.220000e-06	1.650194e-07	1.176656e-11	1.309061e+00	3.390976e-01
1.230000e-06	1.979066e-07	3.039761e-11	1.569948e+00	1.747898e+00
1.240000e-06	2.308240e-07	5.188205e-11	1.831074e+00	3.160363e+00
1.250000e-06	2.636694e-07	7.359350e-11	2.091629e+00	4.578125e+00
1.260000e-06	2.964446e-07	9.338704e-11	2.351627e+00	6.002619e+00
1.270000e-06	3.291598e-07	1.132249e-10	2.611149e+00	7.434957e+00
1.280000e-06	3.617869e-07	1.349991e-10	2.869972e+00	8.875819e+00
1.290000e-06	3.943049e-07	1.587133e-10	3.127930e+00	1.032537e+01
1.300000e-06	4.266994e-07	1.823778e-10	3.384908e+00	1.178321e+01
1.310000e-06	4.590240e-07	2.031928e-10	3.641332e+00	1.324837e+01
1.320000e-06	4.913139e-07	2.230621e-10	3.897480e+00	1.471937e+01
1.330000e-06	5.235152e-07	2.453947e-10	4.152925e+00	1.619423e+01
1.340000e-06	5.556198e-07	2.695622e-10	4.407605e+00	1.767062e+01
1.350000e-06	5.876872e-07	2.912352e-10	4.661988e+00	1.914599e+01
1.360000e-06	6.197258e-07	3.116506e-10	4.916143e+00	2.061768e+01
1.370000e-06	6.517120e-07	3.333311e-10	5.169881e+00	2.208310e+01
1.380000e-06	6.836913e-07	3.547307e-10	5.423566e+00	2.353989e+01
1.390000e-06	7.156448e-07	3.759680e-10	5.677045e+00	2.498603e+01
1.400000e-06	7.475146e-07	3.982108e-10	5.929862e+00	2.641996e+01
1.410000e-06	7.793296e-07	4.190209e-10	6.182243e+00	2.784069e+01
1.420000e-06	8.111059e-07	4.360322e-10	6.434316e+00	2.924779e+01
1.430000e-06	8.426923e-07	4.529384e-10	6.684885e+00	3.064144e+01
1.440000e-06	8.740942e-07	4.750974e-10	6.933988e+00	3.202239e+01
1.450000e-06	9.052614e-07	4.981203e-10	7.181231e+00	3.339186e+01
1.460000e-06	9.361727e-07	5.173026e-10	7.426443e+00	3.475147e+01
1.470000e-06	9.669569e-07	5.361452e-10	7.670647e+00	3.610307e+01
1.480000e-06	9.975387e-07	5.571591e-10	7.913245e+00	3.744863e+01
1.490000e-06	1.027898e-06	5.789744e-10	8.154075e+00	3.879009e+01
1.500000e-06	1.058095e-06	5.976189e-10	8.393628e+00	4.012919e+01
1.510000e-06	1.088174e-06	6.163025e-10	8.632232e+00	4.146736e+01
1.520000e-06	1.118149e-06	6.368614e-10	8.870022e+00	4.280560e+01
1.530000e-06	1.147998e-06	6.582634e-10	9.106802e+00	4.414443e+01
1.540000e-06	1.177655e-06	6.789277e-10	9.342065e+00	4.548384e+01
1.550000e-06	1.207073e-06	6.982227e-10	9.575436e+00	4.682328e+01
1.560000e-06	1.236329e-06	7.186893e-10	9.807516e+00	4.816171e+01
1.570000e-06	1.265388e-06	7.398568e-10	1.003804e+01	4.949767e+01
1.580000e-06	1.294208e-06	7.599353e-10	1.026665e+01	5.082936e+01
1.590000e-06	1.322843e-06	7.793624e-10	1.049381e+01	5.215480e+01
1.600000e-06	1.351249e-06	7.984606e-10	1.071915e+01	5.347189e+01
1.610000e-06	1.379430e-06	8.178441e-10	1.094270e+01	5.477860e+01
1.620000e-06	1.407453e-06	8.359127e-10	1.116500e+01	5.607306e+01
1.630000e-06	1.435389e-06	8.529780e-10	1.138661e+01	5.735368e+01
1.640000e-06	1.463180e-06	8.719750e-10	1.160707e+01	5.861921e+01
1.650000e-06	1.490790e-06	8.927787e-10	1.182610e+01	5.986880e+01
1.660000e-06	1.518167e-06	9.123832e-10	1.204327e+01	6.110203e+01
1.670000e-06	1.545203e-06	9.296448e-10	1.225774e+01	6.231886e+01
1.680000e-06	1.571726e-06	9.475155e-10	1.246814e+01	6.351964e+01
1.690000e-06	1.597624e-06	9.670653e-10	1.267358e+01	6.470498e+01
1.700000e-06	1.622980e-06	9.857615e-10	1.287472e+01	6.587569e+01
1.710000e-06	1.647894e-06	1.001970e-09	1.307236e+01	6.703267e+01
1.720000e-06	1.672487e-06	1.017173e-09	1.326745e+01	6.817681e+01
1.730000e-06	1.696793e-06	1.033588e-09	1.346027e+01	6.930889e+01
1.740000e-06	1.720849e-06	1.051914e-09	1.365110e+01	7.042948e+01
1.750000e-06	1.744762e-06	1.069302e-09	1.384080e+01	7.153887e+01
1.760000e-06	1.768508e-06	1.085640e-09	1.402917e+01	7.263704e+01
1.770000e-06	1.791956e-06	1.103804e-09	1.421517e+01	7.372366e+01
1.780000e-06	1.815057e-06	1.123321e-09	1.439843e+01	7.479805e+01
1.790000e-06	1.837826e-06	1.140429e-09	1.457905e+01	7.585928e+01
1.800000e-06	1.860222e-06	1.155468e-09	1.475671e+01	7.690620e+01
1.810000e-06	1.882316e-06	1.171242e-09	1.493198e+01	7.793753e+01
1.820000e-06	1.904200e-06	1.187180e-09	1.510558e+01	7.895196e+01
1.830000e-06	1.925784e-06	1.202370e-09	1.527680e+01	7.994823e+01
1.840000e-06	1.946949e-06	1.217205e-09	1.544469e+01	8.092523e+01
1.850000e-06	1.967778e-06	1.233003e-09	1.560993e+01	8.188210e+01
1.860000e-06	1.988299e-06	1.247801e-09	1.577272e+01	8.281823e+01
1.870000e-06	2.008489e-06	1.260214e-09	1.593288e+01	8.373337e+01
1.880000e-06	2.028506e-06	1.272605e-09	1.609167e+01	8.462758e+01
1.890000e-06	2.048345e-06	1.287753e-09	1.624905e+01	8.550123e+01
1.900000e-06	2.067891e-06	1.302702e-09	1.640410e+01	8.635497e+01
1.910000e-06	2.087114e-06	1.315275e-09	1.655659e+01	8.718966e+01
1.920000e-06	2.105905e-06	1.326691e-09	1.670566e+01	8.800626e+01
1.930000e-06	2.124215e-06	1.337794e-09	1.685091e+01	8.880576e+01
1.940000e-06	2.142197e-06	1.351158e-09	1.699355e+01	8.958910e+01
1.950000e-06	2.159766e-06	1.364834e-09	1.713292e+01	9.035703e+01
1.960000e-06	2.176989e-06	1.375182e-09	1.726955e+01	9.111007e+01
1.970000e-06	2.193969e-06	1.382777e-09	1.740426e+01	9.184846e+01
1.980000e-06	2.210583e-06	1.392488e-09	1.753604e+01	9.257209e+01
1.990000e-06	2.226836e-06	1.404906e-09	1.766497e+01	9.328049e+01
2.000000e-06	2.242527e-06	1.416769e-09	1.778945e+01	9.397289e+01
2.010000e-06	2.257590e-06	1.426209e-09	1.790894e+01	9.464824e+01
2.020000e-06	2.272170e-06	1.435867e-09	1.802460e+01	9.530526e+01
2.030000e-06	2.286349e-06	1.447294e-09	1.813708e+01	9.594255e+01
2.040000e-06	2.300178e-06	1.457668e-09	1.824678e+01	9.655870e+01
2.050000e-06	2.313573e-06	1.466263e-09	1.835304e+01	9.715234e+01
2.060000e-06	2.326528e-06	1.474018e-09	1.845581e+01	9.772228e+01
2.070000e-06	2.339059e-06	1.483098e-09	1.855522e+01	9.826761e+01
2.080000e-06	2.351187e-06	1.492761e-09	1.865143e+01	9.878769e+01
2.090000e-06	2.362973e-06	1.501476e-09	1.874492e+01	9.928229e+01
2.100000e-06	2.374342e-06	1.507930e-09	1.883511e+01	9.975153e+01
2.110000e-06	2.385177e-06	1.513250e-09	1.892106e+01	1.001959e+02
2.120000e-06	2.395344e-06	1.519791e-09	1.900171e+01	1.006163e+02
2.130000e-06	2.404724e-06	1.525981e-09	1.907612e+01	1.010137e+02
2.140000e-06	2.413410e-06	1.530891e-09	1.914502e+01	1.013896e+02
2.150000e-06	2.421649e-06	1.534681e-09	1.921039e+01	1.017451e+02
2.160000e-06	2.429637e-06	1.537985e-09	1.927375e+01	1.020819e+02
2.170000e-06	2.437377e-06	1.541884e-09	1.933515e+01	1.024010e+02
2.180000e-06	2.444791e-06	1.546738e-09	1.939396e+01	1.027037e+02
2.190000e-06	2.451818e-06	1.553087e-09	1.944971e+01	1.029907e+02
2.200000e-06	2.458328e-06	1.557807e-09	1.950135e+01	1.032625e+02
2.210000e-06	2.464355e-06	1.561806e-09	1.954916e+01	1.035193e+02
2.220000e-06	2.470053e-06	1.566539e-09	1.959436e+01	1.037609e+02
2.230000e-06	2.475398e-06	1.571732e-09	1.963677e+01	1.039868e+02
2.240000e-06	2.480347e-06	1.576508e-09	1.967602e+01	1.041962e+02
2.250000e-06	2.484863e-06	1.579279e-09	1.971185e+01	1.043882e+02
2.260000e-06	2.489002e-06	1.582177e-09	1.974468e+01	1.045616e+02
2.270000e-06	2.492901e-06	1.585846e-09	1.977561e+01	1.047155e+02
2.280000e-06	2.496540e-06	1.589319e-09	1.980448e+01	1.048488e+02
2.290000e-06	2.499724e-06	1.590654e-09	1.982974e+01	1.049607e+02
2.300000e-06	2.502237e-06	1.592622e-09	1.984967e+01	1.050505e+02
2.310000e-06	2.504046e-06	1.596442e-09	1.986402e+01	1.051180e+02
2.320000e-06	2.505170e-06	1.601465e-09	1.987294e+01	1.051630e+02
2.330000e-06	2.505698e-06	1.605395e-09	1.987713e+01	1.051860e+02
2.340000e-06	2.505871e-06	1.604665e-09	1.987850e+01	1.051875e+02
2.350000e-06	2.505812e-06	1.602083e-09	1.987803e+01	1.051684e+02
2.360000e-06	2.505449e-06	1.602621e-09	1.987515e+01	1.051297e+02
2.370000e-06	2.504671e-06	1.604206e-09	1.986898e+01	1.050725e+02
2.380000e-06	2.503425e-06	1.604098e-09	1.985909e+01	1.049981e+02
2.390000e-06	2.501778e-06	1.608951e-09	1.984603e+01	1.049074e+02
2.400000e-06	2.499801e-06	1.619661e-09	1.983035e+01	1.048015e+02
2.410000e-06	2.497461e-06	1.611591e-09	1.981178e+01	1.046810e+02
2.420000e-06	2.494658e-06	1.553563e-09	1.978955e+01	1.045464e+02
2.430000e-06	2.491342e-06	1.550585e-09	1.976325e+01	1.043978e+02
2.440000e-06	2.487640e-06	1.655537e-09	1.973387e+01	1.042350e+02
2.450000e-06	2.483707e-06	1.613090e-09	1.970267e+01	1.040577e+02
2.460000e-06	2.479467e-06	1.540757e-09	1.966904e+01	1.038651e+02
2.470000e-06	2.474779e-06	1.583692e-09	1.963186e+01	1.036564e+02
2.480000e-06	2.469514e-06	1.615033e-09	1.959009e+01	1.034307e+02
2.490000e-06	2.463681e-06	1.572781e-09	1.954381e+01	1.031870e+02
2.500000e-06	2.457343e-06	1.562950e-09	1.949354e+01	1.029245e+02
2.510000e-06	2.450297e-06	1.594513e-09	1.943764e+01	1.026424e+02
2.520000e-06	2.442642e-06	1.534017e-09	1.937691e+01	1.023403e+02
2.530000e-06	2.434695e-06	1.533986e-09	1.931388e+01	1.020181e+02
2.540000e-06	2.426465e-06	1.631524e-09	1.924859e+01	1.016758e+02
2.550000e-06	2.417767e-06	1.596112e-09	1.917959e+01	1.013140e+02
2.560000e-06	2.408605e-06	1.427900e-09	1.910691e+01	1.009334e+02
2.570000e-06	2.399172e-06	1.497058e-09	1.903208e+01	1.005350e+02
2.580000e-06	2.389436e-06	1.675247e-09	1.895484e+01	1.001202e+02
2.590000e-06	2.379211e-06	1.551681e-09	1.887373e+01	9.969020e+01
2.600000e-06	2.368538e-06	1.362089e-09	1.878907e+01	9.924650e+01
2.610000e-06	2.357476e-06	1.507907e-09	1.870132e+01	9.879042e+01
2.620000e-06	2.345934e-06	1.646448e-09	1.860975e+01	9.832317e+01
2.630000e-06	2.333909e-06	1.457533e-09	1.851436e+01	9.784575e+01
2.640000e-06	2.321495e-06	1.379878e-09	1.841588e+01	9.735887e+01
2.650000e-06	2.308621e-06	1.562136e-09	1.831376e+01	9.686295e+01
2.660000e-06	2.295178e-06	1.534976e-09	1.820712e+01	9.635804e+01
2.670000e-06	2.280964e-06	1.362250e-09	1.809436e+01	9.584390e+01
2.680000e-06	2.266001e-06	1.461517e-09	1.797567e+01	9.531998e+01
2.690000e-06	2.250598e-06	1.565121e-09	1.785347e+01	9.478550e+01
2.700000e-06	2.234855e-06	1.391767e-09	1.772859e+01	9.423949e+01
2.710000e-06	2.218880e-06	1.337076e-09	1.760187e+01	9.368089e+01
2.720000e-06	2.202697e-06	1.504154e-09	1.747349e+01	9.310863e+01
2.730000e-06	2.186146e-06	1.489488e-09	1.734219e+01	9.252171e+01
2.740000e-06	2.169171e-06	1.332946e-09	1.720754e+01	9.191924e+01
2.750000e-06	2.151779e-06	1.352387e-09	1.706957e+01	9.130057e+01
2.760000e-06	2.134021e-06	1.441910e-09	1.692870e+01	9.066525e+01
2.770000e-06	2.115996e-06	1.408887e-09	1.678571e+01	9.001311e+01
2.780000e-06	2.097674e-06	1.342468e-09	1.664036e+01	8.934425e+01
2.790000e-06	2.078966e-06	1.329189e-09	1.649196e+01	8.865897e+01
2.800000e-06	2.059815e-06	1.362147e-09	1.634004e+01	8.795780e+01
2.810000e-06	2.040275e-06	1.364538e-09	1.618503e+01	8.724139e+01
2.820000e-06	2.020483e-06	1.312609e-09	1.602803e+01	8.651049e+01
2.830000e-06	2.000560e-06	1.308136e-09	1.586998e+01	8.576583e+01
2.840000e-06	1.980419e-06	1.332929e-09	1.571021e+01	8.500809e+01
2.850000e-06	1.959967e-06	1.293177e-09	1.554797e+01	8.423784e+01
2.860000e-06	1.939224e-06	1.269199e-09	1.538342e+01	8.345548e+01
2.870000e-06	1.918002e-06	1.294737e-09	1.521507e+01	8.266119e+01
2.880000e-06	1.896059e-06	1.266019e-09	1.504100e+01	8.185498e+01
2.890000e-06	1.873410e-06	1.222858e-09	1.486133e+01	8.103661e+01
2.900000e-06	1.850311e-06	1.241844e-09	1.467809e+01	8.020569e+01
2.910000e-06	1.826873e-06	1.233793e-09	1.449217e+01	7.936169e+01
2.920000e-06	1.803166e-06	1.192107e-09	1.430410e+01	7.850398e+01
2.930000e-06	1.779312e-06	1.196427e-09	1.411487e+01	7.763191e+01
2.940000e-06	1.755261e-06	1.201469e-09	1.392408e+01	7.674489e+01
2.950000e-06	1.730964e-06	1.169326e-09	1.373134e+01	7.584240e+01
