# Temperatura_=_20.0
# Concentracion g/m^3_=_12600.0
# C_Vs_to_Am_M_A/Vsm_=_65563218390.804596
# pendiente_HvsI_1/m_=_3716.3
# ordenada_HvsI_A/m_=_1297.0
# frecuencia_Hz_=_213041.39550365545

Tiempo_(s)	Campo_(V.s)	Magnetizacion_(V.s)	Campo_(kA/m)	Magnetizacion_(A/m)
0.000000e+00	-2.492167e-06	-1.538255e-09	-1.982035e+01	-1.004785e+02
1.000000e-08	-2.492196e-06	-1.535816e-09	-1.982058e+01	-1.004382e+02
2.000000e-08	-2.492041e-06	-1.534126e-09	-1.981935e+01	-1.003785e+02
3.000000e-08	-2.491594e-06	-1.533533e-09	-1.981579e+01	-1.002999e+02
4.000000e-08	-2.490576e-06	-1.530624e-09	-1.980769e+01	-1.002030e+02
5.000000e-08	-2.488848e-06	-1.516039e-09	-1.979395e+01	-1.000882e+02
6.000000e-08	-2.486429e-06	-1.501475e-09	-1.977471e+01	-9.995606e+01
7.000000e-08	-2.483358e-06	-1.541276e-09	-1.975029e+01	-9.980695e+01
8.000000e-08	-2.479733e-06	-1.589936e-09	-1.972146e+01	-9.964128e+01
9.000000e-08	-2.475751e-06	-1.517662e-09	-1.968979e+01	-9.945937e+01
1.000000e-07	-2.471555e-06	-1.445757e-09	-1.965642e+01	-9.926149e+01
1.100000e-07	-2.467053e-06	-1.510520e-09	-1.962061e+01	-9.904784e+01
1.200000e-07	-2.462178e-06	-1.592294e-09	-1.958184e+01	-9.881856e+01
1.300000e-07	-2.456845e-06	-1.519339e-09	-1.953943e+01	-9.857377e+01
1.400000e-07	-2.451076e-06	-1.466764e-09	-1.949355e+01	-9.831358e+01
1.500000e-07	-2.444899e-06	-1.472071e-09	-1.944442e+01	-9.803810e+01
1.600000e-07	-2.438219e-06	-1.460302e-09	-1.939130e+01	-9.774747e+01
1.700000e-07	-2.431112e-06	-1.505091e-09	-1.933478e+01	-9.744185e+01
1.800000e-07	-2.423653e-06	-1.543002e-09	-1.927545e+01	-9.712148e+01
1.900000e-07	-2.415835e-06	-1.452959e-09	-1.921327e+01	-9.678663e+01
2.000000e-07	-2.407744e-06	-1.327987e-09	-1.914893e+01	-9.643763e+01
2.100000e-07	-2.399425e-06	-1.454304e-09	-1.908276e+01	-9.607484e+01
2.200000e-07	-2.390570e-06	-1.593789e-09	-1.901234e+01	-9.569867e+01
2.300000e-07	-2.380912e-06	-1.444014e-09	-1.893553e+01	-9.530950e+01
2.400000e-07	-2.370524e-06	-1.284580e-09	-1.885291e+01	-9.490773e+01
2.500000e-07	-2.359611e-06	-1.430551e-09	-1.876612e+01	-9.449367e+01
2.600000e-07	-2.348206e-06	-1.551084e-09	-1.867541e+01	-9.406762e+01
2.700000e-07	-2.336319e-06	-1.390326e-09	-1.858088e+01	-9.362975e+01
2.800000e-07	-2.324063e-06	-1.315752e-09	-1.848341e+01	-9.318016e+01
2.900000e-07	-2.311408e-06	-1.448861e-09	-1.838276e+01	-9.271885e+01
3.000000e-07	-2.298235e-06	-1.437929e-09	-1.827799e+01	-9.224570e+01
3.100000e-07	-2.284566e-06	-1.314611e-09	-1.816929e+01	-9.176051e+01
3.200000e-07	-2.270559e-06	-1.370742e-09	-1.805788e+01	-9.126303e+01
3.300000e-07	-2.256133e-06	-1.454609e-09	-1.794315e+01	-9.075293e+01
3.400000e-07	-2.241156e-06	-1.353883e-09	-1.782404e+01	-9.022988e+01
3.500000e-07	-2.225533e-06	-1.274169e-09	-1.769979e+01	-8.969359e+01
3.600000e-07	-2.209239e-06	-1.366082e-09	-1.757021e+01	-8.914377e+01
3.700000e-07	-2.192452e-06	-1.414146e-09	-1.743670e+01	-8.858025e+01
3.800000e-07	-2.175277e-06	-1.330926e-09	-1.730010e+01	-8.800294e+01
3.900000e-07	-2.157832e-06	-1.271691e-09	-1.716136e+01	-8.741185e+01
4.000000e-07	-2.140117e-06	-1.300774e-09	-1.702047e+01	-8.680715e+01
4.100000e-07	-2.122093e-06	-1.339387e-09	-1.687713e+01	-8.618908e+01
4.200000e-07	-2.103727e-06	-1.325936e-09	-1.673106e+01	-8.555801e+01
4.300000e-07	-2.084901e-06	-1.282638e-09	-1.658134e+01	-8.491436e+01
4.400000e-07	-2.065678e-06	-1.250536e-09	-1.642846e+01	-8.425860e+01
4.500000e-07	-2.046077e-06	-1.250791e-09	-1.627257e+01	-8.359120e+01
4.600000e-07	-2.026196e-06	-1.280217e-09	-1.611445e+01	-8.291256e+01
4.700000e-07	-2.006187e-06	-1.284574e-09	-1.595532e+01	-8.222303e+01
4.800000e-07	-1.986008e-06	-1.227545e-09	-1.579484e+01	-8.152282e+01
4.900000e-07	-1.965540e-06	-1.173524e-09	-1.563206e+01	-8.081196e+01
5.000000e-07	-1.944704e-06	-1.205935e-09	-1.546635e+01	-8.009035e+01
5.100000e-07	-1.923514e-06	-1.250165e-09	-1.529782e+01	-7.935767e+01
5.200000e-07	-1.901970e-06	-1.203811e-09	-1.512647e+01	-7.861344e+01
5.300000e-07	-1.880111e-06	-1.144877e-09	-1.495263e+01	-7.785702e+01
5.400000e-07	-1.857953e-06	-1.154159e-09	-1.477641e+01	-7.708766e+01
5.500000e-07	-1.835478e-06	-1.172182e-09	-1.459766e+01	-7.630450e+01
5.600000e-07	-1.812655e-06	-1.157548e-09	-1.441615e+01	-7.550668e+01
5.700000e-07	-1.789448e-06	-1.139668e-09	-1.423158e+01	-7.469337e+01
5.800000e-07	-1.765909e-06	-1.119968e-09	-1.404438e+01	-7.386382e+01
5.900000e-07	-1.742129e-06	-1.088558e-09	-1.385525e+01	-7.301742e+01
6.000000e-07	-1.718183e-06	-1.085100e-09	-1.366481e+01	-7.215379e+01
6.100000e-07	-1.694109e-06	-1.107875e-09	-1.347334e+01	-7.127274e+01
6.200000e-07	-1.669781e-06	-1.090402e-09	-1.327986e+01	-7.037437e+01
6.300000e-07	-1.645158e-06	-1.030084e-09	-1.308404e+01	-6.945901e+01
6.400000e-07	-1.620202e-06	-1.001002e-09	-1.288556e+01	-6.852726e+01
6.500000e-07	-1.594771e-06	-1.031510e-09	-1.268331e+01	-6.757995e+01
6.600000e-07	-1.568843e-06	-1.049213e-09	-1.247709e+01	-6.661809e+01
6.700000e-07	-1.542433e-06	-1.000954e-09	-1.226706e+01	-6.564280e+01
6.800000e-07	-1.515614e-06	-9.442274e-10	-1.205376e+01	-6.465528e+01
6.900000e-07	-1.488355e-06	-9.472015e-10	-1.183697e+01	-6.365675e+01
7.000000e-07	-1.460711e-06	-9.813802e-10	-1.161712e+01	-6.264833e+01
7.100000e-07	-1.432884e-06	-9.678755e-10	-1.139581e+01	-6.163103e+01
7.200000e-07	-1.404949e-06	-9.036994e-10	-1.117364e+01	-6.060569e+01
7.300000e-07	-1.376920e-06	-8.670005e-10	-1.095073e+01	-5.957291e+01
7.400000e-07	-1.348804e-06	-8.871152e-10	-1.072712e+01	-5.853307e+01
7.500000e-07	-1.320542e-06	-9.030262e-10	-1.050234e+01	-5.748631e+01
7.600000e-07	-1.292064e-06	-8.677359e-10	-1.027586e+01	-5.643254e+01
7.700000e-07	-1.263360e-06	-8.163820e-10	-1.004757e+01	-5.537146e+01
7.800000e-07	-1.234357e-06	-8.008644e-10	-9.816911e+00	-5.430265e+01
7.900000e-07	-1.205117e-06	-8.138371e-10	-9.584365e+00	-5.322558e+01
8.000000e-07	-1.175716e-06	-8.133659e-10	-9.350533e+00	-5.213969e+01
8.100000e-07	-1.146043e-06	-7.800050e-10	-9.114545e+00	-5.104446e+01
8.200000e-07	-1.116171e-06	-7.373737e-10	-8.876970e+00	-4.993948e+01
8.300000e-07	-1.086192e-06	-7.228875e-10	-8.638549e+00	-4.882448e+01
8.400000e-07	-1.056028e-06	-7.315114e-10	-8.398649e+00	-4.769937e+01
8.500000e-07	-1.025652e-06	-7.229320e-10	-8.157066e+00	-4.656429e+01
8.600000e-07	-9.951615e-07	-6.832648e-10	-7.914577e+00	-4.541962e+01
8.700000e-07	-9.645218e-07	-6.467207e-10	-7.670897e+00	-4.426590e+01
8.800000e-07	-9.336680e-07	-6.422037e-10	-7.425515e+00	-4.310389e+01
8.900000e-07	-9.026719e-07	-6.467622e-10	-7.179001e+00	-4.193445e+01
9.000000e-07	-8.715522e-07	-6.262654e-10	-6.931504e+00	-4.075850e+01
9.100000e-07	-8.402749e-07	-5.858723e-10	-6.682755e+00	-3.957698e+01
9.200000e-07	-8.088200e-07	-5.585817e-10	-6.432592e+00	-3.839072e+01
9.300000e-07	-7.772040e-07	-5.557223e-10	-6.181147e+00	-3.720041e+01
9.400000e-07	-7.454448e-07	-5.545491e-10	-5.928565e+00	-3.600653e+01
9.500000e-07	-7.135690e-07	-5.314657e-10	-5.675055e+00	-3.480930e+01
9.600000e-07	-6.816605e-07	-4.945393e-10	-5.421285e+00	-3.360863e+01
9.700000e-07	-6.497089e-07	-4.716480e-10	-5.167172e+00	-3.240415e+01
9.800000e-07	-6.176813e-07	-4.681915e-10	-4.912455e+00	-3.119517e+01
9.900000e-07	-5.856089e-07	-4.596801e-10	-4.657381e+00	-2.998074e+01
1.000000e-06	-5.535111e-07	-4.301685e-10	-4.402106e+00	-2.875972e+01
1.010000e-06	-5.213615e-07	-3.955265e-10	-4.146418e+00	-2.753081e+01
1.020000e-06	-4.891366e-07	-3.782232e-10	-3.890132e+00	-2.629267e+01
1.030000e-06	-4.568789e-07	-3.751018e-10	-3.633584e+00	-2.504398e+01
1.040000e-06	-4.245491e-07	-3.629419e-10	-3.376463e+00	-2.378356e+01
1.050000e-06	-3.921638e-07	-3.345501e-10	-3.118901e+00	-2.251043e+01
1.060000e-06	-3.597847e-07	-3.059105e-10	-2.861388e+00	-2.122388e+01
1.070000e-06	-3.273145e-07	-2.913392e-10	-2.603151e+00	-1.992358e+01
1.080000e-06	-2.947501e-07	-2.837534e-10	-2.344164e+00	-1.860954e+01
1.090000e-06	-2.621021e-07	-2.668637e-10	-2.084513e+00	-1.728216e+01
1.100000e-06	-2.293779e-07	-2.376287e-10	-1.824255e+00	-1.594224e+01
1.110000e-06	-1.966140e-07	-2.091484e-10	-1.563682e+00	-1.459090e+01
1.120000e-06	-1.637335e-07	-1.937167e-10	-1.302182e+00	-1.322953e+01
1.130000e-06	-1.307847e-07	-1.841892e-10	-1.040138e+00	-1.185973e+01
1.140000e-06	-9.783384e-08	-1.630257e-10	-7.780781e-01	-1.048322e+01
1.150000e-06	-6.487502e-08	-1.305195e-10	-5.159547e-01	-9.101708e+00
1.160000e-06	-3.188204e-08	-1.045988e-10	-2.535597e-01	-7.716849e+00
1.170000e-06	1.109627e-09	-9.338188e-11	8.824928e-03	-6.330109e+00
1.180000e-06	3.409254e-08	-8.108523e-11	2.711399e-01	-4.942713e+00
1.190000e-06	6.701916e-08	-5.420771e-11	5.330072e-01	-3.555580e+00
1.200000e-06	9.986093e-08	-2.333568e-11	7.941997e-01	-2.169291e+00
1.210000e-06	1.327210e-07	-3.945675e-12	1.055538e+00	-7.840765e-01
1.220000e-06	1.655941e-07	7.842610e-12	1.316980e+00	6.001626e-01
1.230000e-06	1.984401e-07	2.549812e-11	1.578205e+00	1.983818e+00
1.240000e-06	2.312098e-07	5.087702e-11	1.838825e+00	3.367512e+00
1.250000e-06	2.638926e-07	7.552736e-11	2.098753e+00	4.752014e+00
1.260000e-06	2.964633e-07	9.270860e-11	2.357790e+00	6.138152e+00
1.270000e-06	3.289619e-07	1.079523e-10	2.616253e+00	7.526719e+00
1.280000e-06	3.613940e-07	1.310455e-10	2.874187e+00	8.918373e+00
1.290000e-06	3.937381e-07	1.594356e-10	3.131422e+00	1.031356e+01
1.300000e-06	4.260445e-07	1.819728e-10	3.388356e+00	1.171242e+01
1.310000e-06	4.582825e-07	1.985474e-10	3.644747e+00	1.311479e+01
1.320000e-06	4.904998e-07	2.173512e-10	3.900973e+00	1.452010e+01
1.330000e-06	5.227078e-07	2.419740e-10	4.157125e+00	1.592745e+01
1.340000e-06	5.548406e-07	2.652115e-10	4.412679e+00	1.733557e+01
1.350000e-06	5.869101e-07	2.859198e-10	4.667730e+00	1.874293e+01
1.360000e-06	6.189652e-07	3.060545e-10	4.922665e+00	2.014774e+01
1.370000e-06	6.509994e-07	3.248471e-10	5.177435e+00	2.154812e+01
1.380000e-06	6.829834e-07	3.434918e-10	5.431806e+00	2.294213e+01
1.390000e-06	7.149100e-07	3.655582e-10	5.685720e+00	2.432789e+01
1.400000e-06	7.467728e-07	3.903067e-10	5.939127e+00	2.570370e+01
1.410000e-06	7.785611e-07	4.102381e-10	6.191941e+00	2.706813e+01
1.420000e-06	8.102432e-07	4.250214e-10	6.443910e+00	2.842005e+01
1.430000e-06	8.417620e-07	4.439322e-10	6.694581e+00	2.975874e+01
1.440000e-06	8.730428e-07	4.692803e-10	6.943359e+00	3.108388e+01
1.450000e-06	9.041287e-07	4.905470e-10	7.190588e+00	3.239558e+01
1.460000e-06	9.350602e-07	5.041739e-10	7.436588e+00	3.369436e+01
1.470000e-06	9.657536e-07	5.182846e-10	7.680693e+00	3.498107e+01
1.480000e-06	9.962005e-07	5.419900e-10	7.922840e+00	3.625688e+01
1.490000e-06	1.026498e-06	5.686424e-10	8.163797e+00	3.752316e+01
1.500000e-06	1.056683e-06	5.879820e-10	8.403859e+00	3.878141e+01
1.510000e-06	1.086761e-06	6.015135e-10	8.643074e+00	4.003313e+01
1.520000e-06	1.116746e-06	6.192333e-10	8.881544e+00	4.127977e+01
1.530000e-06	1.146604e-06	6.436631e-10	9.119009e+00	4.252263e+01
1.540000e-06	1.176248e-06	6.666866e-10	9.354770e+00	4.376274e+01
1.550000e-06	1.205657e-06	6.818920e-10	9.588660e+00	4.500087e+01
1.560000e-06	1.234832e-06	6.958073e-10	9.820688e+00	4.623747e+01
1.570000e-06	1.263748e-06	7.153738e-10	1.005066e+01	4.747261e+01
1.580000e-06	1.292418e-06	7.373776e-10	1.027868e+01	4.870607e+01
1.590000e-06	1.320872e-06	7.562912e-10	1.050497e+01	4.993726e+01
1.600000e-06	1.349128e-06	7.716136e-10	1.072970e+01	5.116538e+01
1.610000e-06	1.377225e-06	7.887850e-10	1.095315e+01	5.238936e+01
1.620000e-06	1.405229e-06	8.081875e-10	1.117586e+01	5.360802e+01
1.630000e-06	1.433143e-06	8.269768e-10	1.139787e+01	5.482009e+01
1.640000e-06	1.460968e-06	8.454285e-10	1.161916e+01	5.602426e+01
1.650000e-06	1.488632e-06	8.633005e-10	1.183917e+01	5.721930e+01
1.660000e-06	1.515919e-06	8.802696e-10	1.205619e+01	5.840408e+01
1.670000e-06	1.542669e-06	8.976615e-10	1.226894e+01	5.957758e+01
1.680000e-06	1.568922e-06	9.162825e-10	1.247772e+01	6.073897e+01
1.690000e-06	1.594689e-06	9.348007e-10	1.268266e+01	6.188760e+01
1.700000e-06	1.619908e-06	9.502405e-10	1.288322e+01	6.302299e+01
1.710000e-06	1.644705e-06	9.649105e-10	1.308043e+01	6.414480e+01
1.720000e-06	1.669190e-06	9.832594e-10	1.327516e+01	6.525285e+01
1.730000e-06	1.693419e-06	1.003056e-09	1.346786e+01	6.634703e+01
1.740000e-06	1.717489e-06	1.019302e-09	1.365929e+01	6.742730e+01
1.750000e-06	1.741386e-06	1.033849e-09	1.384934e+01	6.849363e+01
1.760000e-06	1.765063e-06	1.050467e-09	1.403765e+01	6.954600e+01
1.770000e-06	1.788426e-06	1.069050e-09	1.422346e+01	7.058431e+01
1.780000e-06	1.811388e-06	1.085692e-09	1.440607e+01	7.160842e+01
1.790000e-06	1.833987e-06	1.098797e-09	1.458580e+01	7.261812e+01
1.800000e-06	1.856287e-06	1.111817e-09	1.476316e+01	7.361311e+01
1.810000e-06	1.878329e-06	1.126307e-09	1.493846e+01	7.459303e+01
1.820000e-06	1.900063e-06	1.141145e-09	1.511131e+01	7.555747e+01
1.830000e-06	1.921468e-06	1.155372e-09	1.528154e+01	7.650602e+01
1.840000e-06	1.942539e-06	1.168373e-09	1.544912e+01	7.743823e+01
1.850000e-06	1.963283e-06	1.181914e-09	1.561410e+01	7.835373e+01
1.860000e-06	1.983787e-06	1.195538e-09	1.577717e+01	7.925216e+01
1.870000e-06	2.004056e-06	1.207991e-09	1.593837e+01	8.013327e+01
1.880000e-06	2.024100e-06	1.220576e-09	1.609778e+01	8.099690e+01
1.890000e-06	2.043923e-06	1.234233e-09	1.625544e+01	8.184297e+01
1.900000e-06	2.063463e-06	1.247674e-09	1.641084e+01	8.267151e+01
1.910000e-06	2.082655e-06	1.259309e-09	1.656347e+01	8.348263e+01
1.920000e-06	2.101386e-06	1.270837e-09	1.671244e+01	8.427649e+01
1.930000e-06	2.119693e-06	1.283801e-09	1.685804e+01	8.505331e+01
1.940000e-06	2.137605e-06	1.295958e-09	1.700049e+01	8.581328e+01
1.950000e-06	2.155141e-06	1.307414e-09	1.713996e+01	8.655659e+01
1.960000e-06	2.172454e-06	1.319177e-09	1.727765e+01	8.728337e+01
1.970000e-06	2.189460e-06	1.330217e-09	1.741290e+01	8.799365e+01
1.980000e-06	2.206111e-06	1.340371e-09	1.754533e+01	8.868737e+01
1.990000e-06	2.222254e-06	1.348771e-09	1.767371e+01	8.936434e+01
2.000000e-06	2.237825e-06	1.357029e-09	1.779755e+01	9.002426e+01
2.010000e-06	2.252833e-06	1.366683e-09	1.791691e+01	9.066672e+01
2.020000e-06	2.267317e-06	1.377173e-09	1.803210e+01	9.129122e+01
2.030000e-06	2.281549e-06	1.386963e-09	1.814529e+01	9.189718e+01
2.040000e-06	2.295379e-06	1.395545e-09	1.825528e+01	9.248399e+01
2.050000e-06	2.308712e-06	1.403053e-09	1.836132e+01	9.305103e+01
2.060000e-06	2.321575e-06	1.411578e-09	1.846362e+01	9.359774e+01
2.070000e-06	2.334002e-06	1.421429e-09	1.856245e+01	9.412362e+01
2.080000e-06	2.346112e-06	1.430206e-09	1.865876e+01	9.462825e+01
2.090000e-06	2.357821e-06	1.437093e-09	1.875188e+01	9.511138e+01
2.100000e-06	2.369135e-06	1.442795e-09	1.884186e+01	9.557288e+01
2.110000e-06	2.379835e-06	1.447760e-09	1.892696e+01	9.601276e+01
2.120000e-06	2.389710e-06	1.453984e-09	1.900550e+01	9.643119e+01
2.130000e-06	2.398882e-06	1.460355e-09	1.907845e+01	9.682847e+01
2.140000e-06	2.407608e-06	1.463792e-09	1.914784e+01	9.720498e+01
2.150000e-06	2.416003e-06	1.466800e-09	1.921461e+01	9.756120e+01
2.160000e-06	2.424036e-06	1.472178e-09	1.927850e+01	9.789764e+01
2.170000e-06	2.431720e-06	1.479157e-09	1.933961e+01	9.821480e+01
2.180000e-06	2.439031e-06	1.484524e-09	1.939776e+01	9.851315e+01
2.190000e-06	2.445967e-06	1.487084e-09	1.945292e+01	9.879309e+01
2.200000e-06	2.452505e-06	1.490436e-09	1.950491e+01	9.905492e+01
2.210000e-06	2.458636e-06	1.496152e-09	1.955367e+01	9.929883e+01
2.220000e-06	2.464317e-06	1.500864e-09	1.959885e+01	9.952488e+01
2.230000e-06	2.469559e-06	1.503349e-09	1.964055e+01	9.973300e+01
2.240000e-06	2.474397e-06	1.506229e-09	1.967902e+01	9.992303e+01
2.250000e-06	2.478857e-06	1.512085e-09	1.971449e+01	1.000947e+02
2.260000e-06	2.483042e-06	1.518342e-09	1.974778e+01	1.002476e+02
2.270000e-06	2.486932e-06	1.521334e-09	1.977871e+01	1.003815e+02
2.280000e-06	2.490452e-06	1.522910e-09	1.980671e+01	1.004959e+02
2.290000e-06	2.493514e-06	1.525627e-09	1.983106e+01	1.005906e+02
2.300000e-06	2.495899e-06	1.528646e-09	1.985003e+01	1.006651e+02
2.310000e-06	2.497590e-06	1.530962e-09	1.986348e+01	1.007193e+02
2.320000e-06	2.498675e-06	1.532472e-09	1.987211e+01	1.007532e+02
2.330000e-06	2.499255e-06	1.532818e-09	1.987672e+01	1.007667e+02
2.340000e-06	2.499479e-06	1.531973e-09	1.987850e+01	1.007600e+02
2.350000e-06	2.499404e-06	1.531302e-09	1.987790e+01	1.007334e+02
2.360000e-06	2.499016e-06	1.532264e-09	1.987482e+01	1.006871e+02
2.370000e-06	2.498226e-06	1.531968e-09	1.986854e+01	1.006216e+02
2.380000e-06	2.496986e-06	1.530532e-09	1.985867e+01	1.005374e+02
2.390000e-06	2.495359e-06	1.539091e-09	1.984573e+01	1.004350e+02
2.400000e-06	2.493378e-06	1.553294e-09	1.982997e+01	1.003149e+02
2.410000e-06	2.490986e-06	1.516548e-09	1.981096e+01	1.001775e+02
2.420000e-06	2.488123e-06	1.458551e-09	1.978818e+01	1.000234e+02
2.430000e-06	2.484787e-06	1.515447e-09	1.976165e+01	9.985272e+01
2.440000e-06	2.481079e-06	1.561490e-09	1.973216e+01	9.966593e+01
2.450000e-06	2.477122e-06	1.511784e-09	1.970070e+01	9.946323e+01
2.460000e-06	2.472871e-06	1.482222e-09	1.966688e+01	9.924481e+01
2.470000e-06	2.468055e-06	1.531965e-09	1.962858e+01	9.901079e+01
2.480000e-06	2.462708e-06	1.535780e-09	1.958606e+01	9.876131e+01
2.490000e-06	2.456860e-06	1.494459e-09	1.953955e+01	9.849645e+01
2.500000e-06	2.450389e-06	1.512659e-09	1.948809e+01	9.821634e+01
2.510000e-06	2.443300e-06	1.500999e-09	1.943170e+01	9.792112e+01
2.520000e-06	2.435714e-06	1.460063e-09	1.937138e+01	9.761098e+01
2.530000e-06	2.427810e-06	1.501744e-09	1.930851e+01	9.728617e+01
2.540000e-06	2.419559e-06	1.558443e-09	1.924289e+01	9.694697e+01
2.550000e-06	2.410886e-06	1.444619e-09	1.917392e+01	9.659372e+01
2.560000e-06	2.401879e-06	1.372993e-09	1.910228e+01	9.622681e+01
2.570000e-06	2.392514e-06	1.517798e-09	1.902780e+01	9.584663e+01
2.580000e-06	2.382718e-06	1.566467e-09	1.894989e+01	9.545358e+01
2.590000e-06	2.372494e-06	1.372450e-09	1.886858e+01	9.504802e+01
2.600000e-06	2.361848e-06	1.349046e-09	1.878391e+01	9.463027e+01
2.610000e-06	2.350801e-06	1.557584e-09	1.869605e+01	9.420059e+01
2.620000e-06	2.339336e-06	1.514686e-09	1.860487e+01	9.375913e+01
2.630000e-06	2.327412e-06	1.292856e-09	1.851004e+01	9.330596e+01
2.640000e-06	2.315067e-06	1.379138e-09	1.841186e+01	9.284104e+01
2.650000e-06	2.302223e-06	1.557930e-09	1.830971e+01	9.236424e+01
2.660000e-06	2.288612e-06	1.400248e-09	1.820146e+01	9.187533e+01
2.670000e-06	2.274276e-06	1.252472e-09	1.808744e+01	9.137402e+01
2.680000e-06	2.259389e-06	1.421642e-09	1.796905e+01	9.086001e+01
2.690000e-06	2.244036e-06	1.499624e-09	1.784695e+01	9.033295e+01
2.700000e-06	2.228356e-06	1.320743e-09	1.772224e+01	8.979255e+01
2.710000e-06	2.212405e-06	1.273851e-09	1.759538e+01	8.923857e+01
2.720000e-06	2.196196e-06	1.400426e-09	1.746648e+01	8.867085e+01
2.730000e-06	2.179705e-06	1.398660e-09	1.733532e+01	8.808933e+01
2.740000e-06	2.162791e-06	1.299099e-09	1.720080e+01	8.749407e+01
2.750000e-06	2.145426e-06	1.287266e-09	1.706270e+01	8.688526e+01
2.760000e-06	2.127693e-06	1.326078e-09	1.692166e+01	8.626318e+01
2.770000e-06	2.109677e-06	1.325079e-09	1.677838e+01	8.562822e+01
2.780000e-06	2.091378e-06	1.289855e-09	1.663285e+01	8.498082e+01
2.790000e-06	2.072640e-06	1.274423e-09	1.648383e+01	8.432145e+01
2.800000e-06	2.053459e-06	1.280946e-09	1.633127e+01	8.365057e+01
2.810000e-06	2.033975e-06	1.268200e-09	1.617632e+01	8.296857e+01
2.820000e-06	2.014252e-06	1.253713e-09	1.601946e+01	8.227575e+01
2.830000e-06	1.994342e-06	1.265443e-09	1.586111e+01	8.157227e+01
2.840000e-06	1.974242e-06	1.249178e-09	1.570126e+01	8.085814e+01
2.850000e-06	1.953857e-06	1.209283e-09	1.553914e+01	8.013318e+01
2.860000e-06	1.933111e-06	1.217148e-09	1.537414e+01	7.939703e+01
2.870000e-06	1.911935e-06	1.227967e-09	1.520573e+01	7.864915e+01
2.880000e-06	1.890076e-06	1.189855e-09	1.503188e+01	7.788886e+01
2.890000e-06	1.867520e-06	1.173275e-09	1.485249e+01	7.711538e+01
2.900000e-06	1.844459e-06	1.181219e-09	1.466909e+01	7.632785e+01
2.910000e-06	1.821030e-06	1.156289e-09	1.448275e+01	7.552540e+01
2.920000e-06	1.797346e-06	1.137652e-09	1.429440e+01	7.470722e+01
2.930000e-06	1.773466e-06	1.154339e-09	1.410448e+01	7.387260e+01
2.940000e-06	1.749441e-06	1.147275e-09	1.391341e+01	7.302100e+01
2.950000e-06	1.725232e-06	1.100490e-09	1.372087e+01	7.215208e+01
