# Temperatura_=_20.0
# Concentracion g/m^3_=_12600.0
# C_Vs_to_Am_M_A/Vsm_=_65563218390.804596
# pendiente_HvsI_1/m_=_3716.3
# ordenada_HvsI_A/m_=_1297.0
# frecuencia_Hz_=_213038.88495251577

Tiempo_(s)	Campo_(V.s)	Magnetizacion_(V.s)	Campo_(kA/m)	Magnetizacion_(A/m)
0.000000e+00	-2.495999e-06	-1.417587e-09	-1.982628e+01	-9.216601e+01
1.000000e-08	-2.495838e-06	-1.415465e-09	-1.982500e+01	-9.215396e+01
2.000000e-08	-2.495425e-06	-1.412505e-09	-1.982172e+01	-9.212420e+01
3.000000e-08	-2.494621e-06	-1.410220e-09	-1.981533e+01	-9.207685e+01
4.000000e-08	-2.493255e-06	-1.408099e-09	-1.980448e+01	-9.201207e+01
5.000000e-08	-2.491259e-06	-1.406739e-09	-1.978863e+01	-9.193005e+01
6.000000e-08	-2.488635e-06	-1.395991e-09	-1.976779e+01	-9.183105e+01
7.000000e-08	-2.485437e-06	-1.382802e-09	-1.974238e+01	-9.171530e+01
8.000000e-08	-2.481721e-06	-1.410411e-09	-1.971287e+01	-9.158312e+01
9.000000e-08	-2.477631e-06	-1.413995e-09	-1.968038e+01	-9.143482e+01
1.000000e-07	-2.473245e-06	-1.382684e-09	-1.964554e+01	-9.127075e+01
1.100000e-07	-2.468579e-06	-1.371681e-09	-1.960847e+01	-9.109132e+01
1.200000e-07	-2.463550e-06	-1.406271e-09	-1.956853e+01	-9.089694e+01
1.300000e-07	-2.457975e-06	-1.396559e-09	-1.952424e+01	-9.068806e+01
1.400000e-07	-2.451958e-06	-1.375168e-09	-1.947645e+01	-9.046517e+01
1.500000e-07	-2.445557e-06	-1.372942e-09	-1.942561e+01	-9.022876e+01
1.600000e-07	-2.438666e-06	-1.351758e-09	-1.937087e+01	-8.997935e+01
1.700000e-07	-2.431323e-06	-1.350492e-09	-1.931254e+01	-8.971744e+01
1.800000e-07	-2.423680e-06	-1.374219e-09	-1.925183e+01	-8.944350e+01
1.900000e-07	-2.415773e-06	-1.376861e-09	-1.918903e+01	-8.915798e+01
2.000000e-07	-2.407512e-06	-1.314336e-09	-1.912341e+01	-8.886126e+01
2.100000e-07	-2.398823e-06	-1.302253e-09	-1.905439e+01	-8.855365e+01
2.200000e-07	-2.389666e-06	-1.362986e-09	-1.898165e+01	-8.823534e+01
2.300000e-07	-2.379785e-06	-1.379380e-09	-1.890317e+01	-8.790643e+01
2.400000e-07	-2.369119e-06	-1.293835e-09	-1.881844e+01	-8.756691e+01
2.500000e-07	-2.357930e-06	-1.265759e-09	-1.872957e+01	-8.721662e+01
2.600000e-07	-2.346259e-06	-1.334667e-09	-1.863686e+01	-8.685531e+01
2.700000e-07	-2.334175e-06	-1.358463e-09	-1.854087e+01	-8.648259e+01
2.800000e-07	-2.321711e-06	-1.304237e-09	-1.844187e+01	-8.609802e+01
2.900000e-07	-2.308805e-06	-1.266925e-09	-1.833935e+01	-8.570105e+01
3.000000e-07	-2.295439e-06	-1.269093e-09	-1.823319e+01	-8.529112e+01
3.100000e-07	-2.281589e-06	-1.291044e-09	-1.812317e+01	-8.486767e+01
3.200000e-07	-2.267275e-06	-1.320511e-09	-1.800947e+01	-8.443017e+01
3.300000e-07	-2.252473e-06	-1.287315e-09	-1.789190e+01	-8.397813e+01
3.400000e-07	-2.237100e-06	-1.205714e-09	-1.776979e+01	-8.351120e+01
3.500000e-07	-2.221154e-06	-1.213016e-09	-1.764312e+01	-8.302915e+01
3.600000e-07	-2.204716e-06	-1.308245e-09	-1.751255e+01	-8.253189e+01
3.700000e-07	-2.187837e-06	-1.300592e-09	-1.737848e+01	-8.201950e+01
3.800000e-07	-2.170515e-06	-1.181874e-09	-1.724089e+01	-8.149222e+01
3.900000e-07	-2.152889e-06	-1.151833e-09	-1.710088e+01	-8.095049e+01
4.000000e-07	-2.135023e-06	-1.249287e-09	-1.695897e+01	-8.039484e+01
4.100000e-07	-2.116817e-06	-1.289730e-09	-1.681435e+01	-7.982597e+01
4.200000e-07	-2.098174e-06	-1.196747e-09	-1.666626e+01	-7.924464e+01
4.300000e-07	-2.079096e-06	-1.120113e-09	-1.651473e+01	-7.865165e+01
4.400000e-07	-2.059691e-06	-1.170946e-09	-1.636058e+01	-7.804784e+01
4.500000e-07	-2.040002e-06	-1.240633e-09	-1.620419e+01	-7.743396e+01
4.600000e-07	-2.020061e-06	-1.202598e-09	-1.604580e+01	-7.681072e+01
4.700000e-07	-1.999886e-06	-1.119305e-09	-1.588554e+01	-7.617869e+01
4.800000e-07	-1.979464e-06	-1.107380e-09	-1.572332e+01	-7.553827e+01
4.900000e-07	-1.958771e-06	-1.152454e-09	-1.555895e+01	-7.488972e+01
5.000000e-07	-1.937759e-06	-1.171280e-09	-1.539206e+01	-7.423309e+01
5.100000e-07	-1.916382e-06	-1.129853e-09	-1.522225e+01	-7.356824e+01
5.200000e-07	-1.894651e-06	-1.070502e-09	-1.504964e+01	-7.289486e+01
5.300000e-07	-1.872547e-06	-1.068490e-09	-1.487406e+01	-7.221248e+01
5.400000e-07	-1.850200e-06	-1.111680e-09	-1.469655e+01	-7.152052e+01
5.500000e-07	-1.827555e-06	-1.110773e-09	-1.451668e+01	-7.081828e+01
5.600000e-07	-1.804420e-06	-1.057129e-09	-1.433291e+01	-7.010504e+01
5.700000e-07	-1.781005e-06	-1.027193e-09	-1.414692e+01	-6.938006e+01
5.800000e-07	-1.757408e-06	-1.043013e-09	-1.395948e+01	-6.864265e+01
5.900000e-07	-1.733555e-06	-1.056172e-09	-1.377001e+01	-6.789220e+01
6.000000e-07	-1.709504e-06	-1.039786e-09	-1.357897e+01	-6.712821e+01
6.100000e-07	-1.685243e-06	-1.009051e-09	-1.338626e+01	-6.635032e+01
6.200000e-07	-1.660752e-06	-9.870489e-10	-1.319173e+01	-6.555833e+01
6.300000e-07	-1.635963e-06	-9.835581e-10	-1.299482e+01	-6.475220e+01
6.400000e-07	-1.610763e-06	-9.880730e-10	-1.279465e+01	-6.393205e+01
6.500000e-07	-1.585090e-06	-9.787453e-10	-1.259073e+01	-6.309815e+01
6.600000e-07	-1.558922e-06	-9.463620e-10	-1.238286e+01	-6.225089e+01
6.700000e-07	-1.532290e-06	-9.160321e-10	-1.217132e+01	-6.139076e+01
6.800000e-07	-1.505233e-06	-9.164423e-10	-1.195640e+01	-6.051830e+01
6.900000e-07	-1.477856e-06	-9.280969e-10	-1.173894e+01	-5.963409e+01
7.000000e-07	-1.450212e-06	-9.083410e-10	-1.151936e+01	-5.873872e+01
7.100000e-07	-1.422368e-06	-8.654590e-10	-1.129819e+01	-5.783274e+01
7.200000e-07	-1.394362e-06	-8.440353e-10	-1.107573e+01	-5.691661e+01
7.300000e-07	-1.366221e-06	-8.503557e-10	-1.085220e+01	-5.599077e+01
7.400000e-07	-1.337976e-06	-8.478616e-10	-1.062785e+01	-5.505551e+01
7.500000e-07	-1.309576e-06	-8.178555e-10	-1.040226e+01	-5.411108e+01
7.600000e-07	-1.280907e-06	-7.844025e-10	-1.017453e+01	-5.315761e+01
7.700000e-07	-1.252011e-06	-7.733281e-10	-9.945007e+00	-5.219516e+01
7.800000e-07	-1.222924e-06	-7.776293e-10	-9.713955e+00	-5.122374e+01
7.900000e-07	-1.193580e-06	-7.686973e-10	-9.480871e+00	-5.024331e+01
8.000000e-07	-1.164019e-06	-7.421041e-10	-9.246060e+00	-4.925380e+01
8.100000e-07	-1.134206e-06	-7.181372e-10	-9.009254e+00	-4.825518e+01
8.200000e-07	-1.104157e-06	-7.074711e-10	-8.770564e+00	-4.724742e+01
8.300000e-07	-1.073990e-06	-6.997664e-10	-8.530943e+00	-4.623051e+01
8.400000e-07	-1.043733e-06	-6.805002e-10	-8.290603e+00	-4.520454e+01
8.500000e-07	-1.013305e-06	-6.535641e-10	-8.048906e+00	-4.416961e+01
8.600000e-07	-9.827034e-07	-6.328009e-10	-7.805833e+00	-4.312590e+01
8.700000e-07	-9.519453e-07	-6.207874e-10	-7.561514e+00	-4.207363e+01
8.800000e-07	-9.209761e-07	-6.099542e-10	-7.315519e+00	-4.101304e+01
8.900000e-07	-8.898208e-07	-5.946992e-10	-7.068045e+00	-3.994441e+01
9.000000e-07	-8.585080e-07	-5.742647e-10	-6.819321e+00	-3.886800e+01
9.100000e-07	-8.270543e-07	-5.539769e-10	-6.569477e+00	-3.778406e+01
9.200000e-07	-7.955036e-07	-5.401371e-10	-6.318863e+00	-3.669281e+01
9.300000e-07	-7.638264e-07	-5.301959e-10	-6.067244e+00	-3.559439e+01
9.400000e-07	-7.320112e-07	-5.132436e-10	-5.814529e+00	-3.448890e+01
9.500000e-07	-7.000839e-07	-4.882728e-10	-5.560923e+00	-3.337636e+01
9.600000e-07	-6.681030e-07	-4.668469e-10	-5.306892e+00	-3.225674e+01
9.700000e-07	-6.360695e-07	-4.556087e-10	-5.052442e+00	-3.112994e+01
9.800000e-07	-6.039599e-07	-4.456679e-10	-4.797388e+00	-2.999580e+01
9.900000e-07	-5.718201e-07	-4.248165e-10	-4.542095e+00	-2.885417e+01
1.000000e-06	-5.396371e-07	-3.975887e-10	-4.286458e+00	-2.770486e+01
1.010000e-06	-5.073987e-07	-3.778626e-10	-4.030381e+00	-2.654772e+01
1.020000e-06	-4.750808e-07	-3.661802e-10	-3.773673e+00	-2.538263e+01
1.030000e-06	-4.427328e-07	-3.526887e-10	-3.516725e+00	-2.420955e+01
1.040000e-06	-4.103481e-07	-3.322352e-10	-3.259486e+00	-2.302849e+01
1.050000e-06	-3.779145e-07	-3.091909e-10	-3.001859e+00	-2.183957e+01
1.060000e-06	-3.454602e-07	-2.923936e-10	-2.744068e+00	-2.064299e+01
1.070000e-06	-3.129337e-07	-2.819529e-10	-2.485702e+00	-1.943906e+01
1.080000e-06	-2.802982e-07	-2.702555e-10	-2.226471e+00	-1.822814e+01
1.090000e-06	-2.475908e-07	-2.507488e-10	-1.966669e+00	-1.701068e+01
1.100000e-06	-2.148797e-07	-2.289535e-10	-1.706838e+00	-1.578716e+01
1.110000e-06	-1.820538e-07	-2.112445e-10	-1.446094e+00	-1.455806e+01
1.120000e-06	-1.491152e-07	-1.963298e-10	-1.184455e+00	-1.332389e+01
1.130000e-06	-1.161552e-07	-1.776052e-10	-9.226467e-01	-1.208507e+01
1.140000e-06	-8.321396e-08	-1.534770e-10	-6.609871e-01	-1.084201e+01
1.150000e-06	-5.025726e-08	-1.323735e-10	-3.992047e-01	-9.595016e+00
1.160000e-06	-1.723096e-08	-1.173524e-10	-1.368693e-01	-8.344300e+00
1.170000e-06	1.580705e-08	-1.033994e-10	1.255589e-01	-7.089994e+00
1.180000e-06	4.876174e-08	-8.411508e-11	3.873254e-01	-5.832135e+00
1.190000e-06	8.167465e-08	-6.194879e-11	6.487600e-01	-4.570687e+00
1.200000e-06	1.145929e-07	-4.292170e-11	9.102372e-01	-3.305563e+00
1.210000e-06	1.475045e-07	-2.805041e-11	1.171662e+00	-2.036650e+00
1.220000e-06	1.804526e-07	-1.196695e-11	1.433375e+00	-7.638422e-01
1.230000e-06	2.133835e-07	8.358094e-12	1.694953e+00	5.129210e-01
1.240000e-06	2.462615e-07	2.960098e-11	1.956110e+00	1.793623e+00
1.250000e-06	2.790413e-07	4.839851e-11	2.216487e+00	3.078137e+00
1.260000e-06	3.116965e-07	6.606185e-11	2.475875e+00	4.366200e+00
1.270000e-06	3.442881e-07	8.550406e-11	2.734757e+00	5.657394e+00
1.280000e-06	3.767934e-07	1.070234e-10	2.992955e+00	6.951137e+00
1.290000e-06	4.091940e-07	1.265666e-10	3.250320e+00	8.246685e+00
1.300000e-06	4.415172e-07	1.431067e-10	3.507070e+00	9.543144e+00
1.310000e-06	4.737990e-07	1.601167e-10	3.763491e+00	1.083949e+01
1.320000e-06	5.060692e-07	1.804690e-10	4.019821e+00	1.213462e+01
1.330000e-06	5.382711e-07	2.029239e-10	4.275608e+00	1.342734e+01
1.340000e-06	5.704121e-07	2.243257e-10	4.530911e+00	1.471650e+01
1.350000e-06	6.025230e-07	2.440287e-10	4.785975e+00	1.600094e+01
1.360000e-06	6.345858e-07	2.615305e-10	5.040657e+00	1.727961e+01
1.370000e-06	6.666355e-07	2.789189e-10	5.295235e+00	1.855158e+01
1.380000e-06	6.986615e-07	2.989531e-10	5.549624e+00	1.981609e+01
1.390000e-06	7.306177e-07	3.212740e-10	5.803460e+00	2.107258e+01
1.400000e-06	7.624950e-07	3.408293e-10	6.056668e+00	2.232069e+01
1.410000e-06	7.942742e-07	3.567941e-10	6.309098e+00	2.356026e+01
1.420000e-06	8.259297e-07	3.728102e-10	6.560544e+00	2.479137e+01
1.430000e-06	8.574369e-07	3.931683e-10	6.810813e+00	2.601427e+01
1.440000e-06	8.887608e-07	4.148523e-10	7.059626e+00	2.722936e+01
1.450000e-06	9.198548e-07	4.326180e-10	7.306612e+00	2.843719e+01
1.460000e-06	9.507004e-07	4.476115e-10	7.551626e+00	2.963837e+01
1.470000e-06	9.813483e-07	4.654215e-10	7.795069e+00	3.083355e+01
1.480000e-06	1.011807e-06	4.872262e-10	8.037008e+00	3.202334e+01
1.490000e-06	1.042084e-06	5.055540e-10	8.277509e+00	3.320834e+01
1.500000e-06	1.072262e-06	5.198950e-10	8.517220e+00	3.438901e+01
1.510000e-06	1.102311e-06	5.361067e-10	8.755899e+00	3.556571e+01
1.520000e-06	1.132239e-06	5.561824e-10	8.993628e+00	3.673864e+01
1.530000e-06	1.162017e-06	5.764311e-10	9.230158e+00	3.790787e+01
1.540000e-06	1.191552e-06	5.937805e-10	9.464768e+00	3.907330e+01
1.550000e-06	1.220887e-06	6.104251e-10	9.697782e+00	4.023468e+01
1.560000e-06	1.250015e-06	6.284461e-10	9.929148e+00	4.139167e+01
1.570000e-06	1.278869e-06	6.468743e-10	1.015834e+01	4.254383e+01
1.580000e-06	1.307419e-06	6.637222e-10	1.038512e+01	4.369065e+01
1.590000e-06	1.335732e-06	6.784786e-10	1.061002e+01	4.483162e+01
1.600000e-06	1.363925e-06	6.940302e-10	1.083396e+01	4.596623e+01
1.610000e-06	1.392059e-06	7.103774e-10	1.105744e+01	4.709402e+01
1.620000e-06	1.420104e-06	7.258410e-10	1.128020e+01	4.821459e+01
1.630000e-06	1.448043e-06	7.425259e-10	1.150213e+01	4.932765e+01
1.640000e-06	1.475838e-06	7.609029e-10	1.172291e+01	5.043298e+01
1.650000e-06	1.503378e-06	7.770641e-10	1.194167e+01	5.153047e+01
1.660000e-06	1.530541e-06	7.908915e-10	1.215743e+01	5.262008e+01
1.670000e-06	1.557252e-06	8.061398e-10	1.236960e+01	5.370185e+01
1.680000e-06	1.583449e-06	8.234470e-10	1.257769e+01	5.477586e+01
1.690000e-06	1.609094e-06	8.402371e-10	1.278140e+01	5.584220e+01
1.700000e-06	1.634214e-06	8.530410e-10	1.298093e+01	5.690092e+01
1.710000e-06	1.658908e-06	8.657367e-10	1.317708e+01	5.795205e+01
1.720000e-06	1.683341e-06	8.824046e-10	1.337115e+01	5.899550e+01
1.730000e-06	1.707558e-06	9.003901e-10	1.356352e+01	6.003109e+01
1.740000e-06	1.731559e-06	9.153298e-10	1.375416e+01	6.105852e+01
1.750000e-06	1.755331e-06	9.273402e-10	1.394299e+01	6.207733e+01
1.760000e-06	1.778790e-06	9.413435e-10	1.412933e+01	6.308693e+01
1.770000e-06	1.801956e-06	9.582427e-10	1.431334e+01	6.408660e+01
1.780000e-06	1.824849e-06	9.738194e-10	1.449518e+01	6.507549e+01
1.790000e-06	1.847395e-06	9.862955e-10	1.467427e+01	6.605268e+01
1.800000e-06	1.869611e-06	9.992675e-10	1.485074e+01	6.701717e+01
1.810000e-06	1.891553e-06	1.014005e-09	1.502503e+01	6.796792e+01
1.820000e-06	1.913220e-06	1.028444e-09	1.519714e+01	6.890391e+01
1.830000e-06	1.934560e-06	1.041104e-09	1.536664e+01	6.982416e+01
1.840000e-06	1.955540e-06	1.053748e-09	1.553329e+01	7.072774e+01
1.850000e-06	1.976136e-06	1.067438e-09	1.569689e+01	7.161383e+01
1.860000e-06	1.996470e-06	1.081265e-09	1.585841e+01	7.248171e+01
1.870000e-06	2.016657e-06	1.093970e-09	1.601875e+01	7.333081e+01
1.880000e-06	2.036648e-06	1.106244e-09	1.617755e+01	7.416066e+01
1.890000e-06	2.056340e-06	1.118696e-09	1.633397e+01	7.497093e+01
1.900000e-06	2.075720e-06	1.129293e-09	1.648790e+01	7.576143e+01
1.910000e-06	2.094725e-06	1.140201e-09	1.663887e+01	7.653204e+01
1.920000e-06	2.113184e-06	1.154144e-09	1.678549e+01	7.728275e+01
1.930000e-06	2.131209e-06	1.168458e-09	1.692867e+01	7.801359e+01
1.940000e-06	2.148961e-06	1.179048e-09	1.706967e+01	7.872464e+01
1.950000e-06	2.166420e-06	1.188942e-09	1.720836e+01	7.941601e+01
1.960000e-06	2.183526e-06	1.200115e-09	1.734423e+01	8.008778e+01
1.970000e-06	2.200278e-06	1.211032e-09	1.747730e+01	8.074006e+01
1.980000e-06	2.216584e-06	1.222464e-09	1.760682e+01	8.137288e+01
1.990000e-06	2.232413e-06	1.233329e-09	1.773256e+01	8.198630e+01
2.000000e-06	2.247789e-06	1.242245e-09	1.785469e+01	8.258033e+01
2.010000e-06	2.262608e-06	1.250963e-09	1.797240e+01	8.315496e+01
2.020000e-06	2.276974e-06	1.261237e-09	1.808651e+01	8.371019e+01
2.030000e-06	2.290964e-06	1.270985e-09	1.819764e+01	8.424602e+01
2.040000e-06	2.304520e-06	1.278517e-09	1.830532e+01	8.476247e+01
2.050000e-06	2.317673e-06	1.285097e-09	1.840979e+01	8.525962e+01
2.060000e-06	2.330446e-06	1.292913e-09	1.851126e+01	8.573759e+01
2.070000e-06	2.342798e-06	1.302082e-09	1.860937e+01	8.619654e+01
2.080000e-06	2.354680e-06	1.310494e-09	1.870375e+01	8.663673e+01
2.090000e-06	2.366076e-06	1.317290e-09	1.879427e+01	8.705847e+01
2.100000e-06	2.376926e-06	1.322356e-09	1.888045e+01	8.746213e+01
2.110000e-06	2.387141e-06	1.327968e-09	1.896159e+01	8.784815e+01
2.120000e-06	2.396744e-06	1.334591e-09	1.903788e+01	8.821697e+01
2.130000e-06	2.405774e-06	1.339383e-09	1.910960e+01	8.856909e+01
2.140000e-06	2.414315e-06	1.342926e-09	1.917744e+01	8.890498e+01
2.150000e-06	2.422514e-06	1.347768e-09	1.924257e+01	8.922508e+01
2.160000e-06	2.430428e-06	1.353841e-09	1.930543e+01	8.952981e+01
2.170000e-06	2.438026e-06	1.358912e-09	1.936579e+01	8.981952e+01
2.180000e-06	2.445257e-06	1.362631e-09	1.942322e+01	9.009445e+01
2.190000e-06	2.451996e-06	1.365704e-09	1.947675e+01	9.035479e+01
2.200000e-06	2.458261e-06	1.369560e-09	1.952652e+01	9.060061e+01
2.210000e-06	2.464132e-06	1.374850e-09	1.957315e+01	9.083188e+01
2.220000e-06	2.469614e-06	1.379483e-09	1.961670e+01	9.104850e+01
2.230000e-06	2.474722e-06	1.381754e-09	1.965727e+01	9.125026e+01
2.240000e-06	2.479423e-06	1.384709e-09	1.969461e+01	9.143689e+01
2.250000e-06	2.483783e-06	1.388284e-09	1.972924e+01	9.160809e+01
2.260000e-06	2.487859e-06	1.390151e-09	1.976162e+01	9.176349e+01
2.270000e-06	2.491584e-06	1.392731e-09	1.979121e+01	9.190273e+01
2.280000e-06	2.494925e-06	1.395856e-09	1.981775e+01	9.202546e+01
2.290000e-06	2.497735e-06	1.397867e-09	1.984007e+01	9.213134e+01
2.300000e-06	2.499824e-06	1.400245e-09	1.985666e+01	9.222007e+01
2.310000e-06	2.501225e-06	1.402547e-09	1.986779e+01	9.229141e+01
2.320000e-06	2.502065e-06	1.404332e-09	1.987446e+01	9.234514e+01
2.330000e-06	2.502493e-06	1.404701e-09	1.987787e+01	9.238116e+01
2.340000e-06	2.502573e-06	1.403390e-09	1.987850e+01	9.239937e+01
2.350000e-06	2.502348e-06	1.402327e-09	1.987671e+01	9.239977e+01
2.360000e-06	2.501814e-06	1.402597e-09	1.987247e+01	9.238239e+01
2.370000e-06	2.500860e-06	1.403750e-09	1.986489e+01	9.234734e+01
2.380000e-06	2.499468e-06	1.403727e-09	1.985383e+01	9.229474e+01
2.390000e-06	2.497676e-06	1.402368e-09	1.983960e+01	9.222477e+01
2.400000e-06	2.495423e-06	1.407460e-09	1.982171e+01	9.213763e+01
2.410000e-06	2.492775e-06	1.421203e-09	1.980067e+01	9.203358e+01
2.420000e-06	2.489742e-06	1.394520e-09	1.977657e+01	9.191287e+01
2.430000e-06	2.486291e-06	1.389795e-09	1.974916e+01	9.177581e+01
2.440000e-06	2.482504e-06	1.409383e-09	1.971909e+01	9.162275e+01
2.450000e-06	2.478378e-06	1.404754e-09	1.968631e+01	9.145403e+01
2.460000e-06	2.473903e-06	1.386116e-09	1.965076e+01	9.127007e+01
2.470000e-06	2.468948e-06	1.395391e-09	1.961141e+01	9.107129e+01
2.480000e-06	2.463379e-06	1.399553e-09	1.956717e+01	9.085816e+01
2.490000e-06	2.457254e-06	1.382450e-09	1.951852e+01	9.063116e+01
2.500000e-06	2.450551e-06	1.386127e-09	1.946527e+01	9.039080e+01
2.510000e-06	2.443234e-06	1.394532e-09	1.940716e+01	9.013759e+01
2.520000e-06	2.435430e-06	1.373983e-09	1.934516e+01	8.987202e+01
2.530000e-06	2.427299e-06	1.355816e-09	1.928058e+01	8.959456e+01
2.540000e-06	2.418902e-06	1.396041e-09	1.921388e+01	8.930565e+01
2.550000e-06	2.410138e-06	1.396823e-09	1.914426e+01	8.900563e+01
2.560000e-06	2.400942e-06	1.333862e-09	1.907122e+01	8.869479e+01
2.570000e-06	2.391306e-06	1.319285e-09	1.899468e+01	8.837330e+01
2.580000e-06	2.381287e-06	1.388764e-09	1.891510e+01	8.804122e+01
2.590000e-06	2.370844e-06	1.389975e-09	1.883214e+01	8.769849e+01
2.600000e-06	2.359958e-06	1.314338e-09	1.874568e+01	8.734493e+01
2.610000e-06	2.348685e-06	1.304623e-09	1.865613e+01	8.698024e+01
2.620000e-06	2.337060e-06	1.349372e-09	1.856379e+01	8.660402e+01
2.630000e-06	2.325022e-06	1.342182e-09	1.846817e+01	8.621578e+01
2.640000e-06	2.312431e-06	1.317586e-09	1.836816e+01	8.581499e+01
2.650000e-06	2.299235e-06	1.315296e-09	1.826333e+01	8.540107e+01
2.660000e-06	2.285436e-06	1.286375e-09	1.815373e+01	8.497345e+01
2.670000e-06	2.270995e-06	1.281607e-09	1.803902e+01	8.453163e+01
2.680000e-06	2.255932e-06	1.339714e-09	1.791938e+01	8.407517e+01
2.690000e-06	2.240452e-06	1.325845e-09	1.779641e+01	8.360372e+01
2.700000e-06	2.224654e-06	1.227447e-09	1.767092e+01	8.311711e+01
2.710000e-06	2.208599e-06	1.234566e-09	1.754339e+01	8.261529e+01
2.720000e-06	2.192243e-06	1.327593e-09	1.741347e+01	8.209840e+01
2.730000e-06	2.175509e-06	1.302680e-09	1.728055e+01	8.156674e+01
2.740000e-06	2.158383e-06	1.198563e-09	1.714452e+01	8.102077e+01
2.750000e-06	2.140860e-06	1.195660e-09	1.700533e+01	8.046108e+01
2.760000e-06	2.122964e-06	1.262676e-09	1.686318e+01	7.988839e+01
2.770000e-06	2.104724e-06	1.265528e-09	1.671830e+01	7.930347e+01
2.780000e-06	2.086161e-06	1.201230e-09	1.657084e+01	7.870715e+01
2.790000e-06	2.067259e-06	1.171449e-09	1.642070e+01	7.810024e+01
2.800000e-06	2.047961e-06	1.208469e-09	1.626741e+01	7.748349e+01
2.810000e-06	2.028395e-06	1.223240e-09	1.611200e+01	7.685756e+01
2.820000e-06	2.008675e-06	1.181047e-09	1.595535e+01	7.622298e+01
2.830000e-06	1.988673e-06	1.156085e-09	1.579647e+01	7.558011e+01
2.840000e-06	1.968385e-06	1.162019e-09	1.563532e+01	7.492913e+01
2.850000e-06	1.947815e-06	1.153358e-09	1.547193e+01	7.427006e+01
2.860000e-06	1.926831e-06	1.143139e-09	1.530525e+01	7.360269e+01
2.870000e-06	1.905205e-06	1.138639e-09	1.513347e+01	7.292667e+01
2.880000e-06	1.882929e-06	1.115063e-09	1.495653e+01	7.224148e+01
2.890000e-06	1.860142e-06	1.098905e-09	1.477552e+01	7.154651e+01
2.900000e-06	1.836936e-06	1.103106e-09	1.459119e+01	7.084105e+01
2.910000e-06	1.813425e-06	1.094521e-09	1.440444e+01	7.012437e+01
2.920000e-06	1.789666e-06	1.075827e-09	1.421571e+01	6.939573e+01
2.930000e-06	1.765742e-06	1.062445e-09	1.402568e+01	6.865447e+01
2.940000e-06	1.741631e-06	1.048457e-09	1.383416e+01	6.790000e+01
2.950000e-06	1.717267e-06	1.040370e-09	1.364064e+01	6.713188e+01
