# Temperatura_=_20.0
# Concentracion g/m^3_=_12600.0
# C_Vs_to_Am_M_A/Vsm_=_65563218390.804596
# pendiente_HvsI_1/m_=_3716.3
# ordenada_HvsI_A/m_=_1297.0
# frecuencia_Hz_=_302065.4647469883

Tiempo_(s)	Campo_(V.s)	Magnetizacion_(V.s)	Campo_(kA/m)	Magnetizacion_(A/m)
0.000000e+00	-6.783283e-06	-3.695237e-09	-4.745676e+01	-2.428679e+02
1.000000e-08	-6.781277e-06	-3.697377e-09	-4.744273e+01	-2.427697e+02
2.000000e-08	-6.776840e-06	-3.694046e-09	-4.741168e+01	-2.426306e+02
3.000000e-08	-6.770282e-06	-3.690270e-09	-4.736581e+01	-2.424521e+02
4.000000e-08	-6.761584e-06	-3.688597e-09	-4.730495e+01	-2.422351e+02
5.000000e-08	-6.750518e-06	-3.684273e-09	-4.722753e+01	-2.419797e+02
6.000000e-08	-6.736911e-06	-3.679761e-09	-4.713233e+01	-2.416861e+02
7.000000e-08	-6.720818e-06	-3.663664e-09	-4.701974e+01	-2.413541e+02
8.000000e-08	-6.702541e-06	-3.645341e-09	-4.689188e+01	-2.409837e+02
9.000000e-08	-6.682168e-06	-3.697289e-09	-4.674935e+01	-2.405756e+02
1.000000e-07	-6.659248e-06	-3.733935e-09	-4.658900e+01	-2.401308e+02
1.100000e-07	-6.633480e-06	-3.681830e-09	-4.640872e+01	-2.396518e+02
1.200000e-07	-6.605155e-06	-3.643458e-09	-4.621055e+01	-2.391413e+02
1.300000e-07	-6.574705e-06	-3.631289e-09	-4.599752e+01	-2.386034e+02
1.400000e-07	-6.542332e-06	-3.577610e-09	-4.577104e+01	-2.380421e+02
1.500000e-07	-6.508074e-06	-3.613238e-09	-4.553136e+01	-2.374616e+02
1.600000e-07	-6.471872e-06	-3.737345e-09	-4.527809e+01	-2.368656e+02
1.700000e-07	-6.433658e-06	-3.566117e-09	-4.501074e+01	-2.362567e+02
1.800000e-07	-6.393370e-06	-3.552108e-09	-4.472888e+01	-2.356356e+02
1.900000e-07	-6.350637e-06	-3.637016e-09	-4.442991e+01	-2.350012e+02
2.000000e-07	-6.305410e-06	-3.542206e-09	-4.411350e+01	-2.343501e+02
2.100000e-07	-6.257888e-06	-3.628223e-09	-4.378103e+01	-2.336765e+02
2.200000e-07	-6.207712e-06	-3.569896e-09	-4.342999e+01	-2.329726e+02
2.300000e-07	-6.154930e-06	-3.467678e-09	-4.306072e+01	-2.322292e+02
2.400000e-07	-6.099771e-06	-3.494015e-09	-4.267482e+01	-2.314363e+02
2.500000e-07	-6.042204e-06	-3.496722e-09	-4.227207e+01	-2.305839e+02
2.600000e-07	-5.982378e-06	-3.529774e-09	-4.185352e+01	-2.296630e+02
2.700000e-07	-5.920433e-06	-3.511716e-09	-4.142014e+01	-2.286665e+02
2.800000e-07	-5.856313e-06	-3.452771e-09	-4.097155e+01	-2.275895e+02
2.900000e-07	-5.789981e-06	-3.410864e-09	-4.050748e+01	-2.264304e+02
3.000000e-07	-5.721532e-06	-3.437712e-09	-4.002861e+01	-2.251905e+02
3.100000e-07	-5.651006e-06	-3.476616e-09	-3.953520e+01	-2.238739e+02
3.200000e-07	-5.578234e-06	-3.382039e-09	-3.902608e+01	-2.224871e+02
3.300000e-07	-5.503131e-06	-3.338551e-09	-3.850064e+01	-2.210383e+02
3.400000e-07	-5.425812e-06	-3.332344e-09	-3.795971e+01	-2.195362e+02
3.500000e-07	-5.346367e-06	-3.324023e-09	-3.740390e+01	-2.179892e+02
3.600000e-07	-5.264874e-06	-3.316055e-09	-3.683377e+01	-2.164047e+02
3.700000e-07	-5.181574e-06	-3.248183e-09	-3.625099e+01	-2.147875e+02
3.800000e-07	-5.096653e-06	-3.200142e-09	-3.565687e+01	-2.131404e+02
3.900000e-07	-5.010163e-06	-3.195415e-09	-3.505178e+01	-2.114632e+02
4.000000e-07	-4.921990e-06	-3.233320e-09	-3.443490e+01	-2.097530e+02
4.100000e-07	-4.831964e-06	-3.208254e-09	-3.380507e+01	-2.080049e+02
4.200000e-07	-4.740123e-06	-3.123932e-09	-3.316254e+01	-2.062123e+02
4.300000e-07	-4.646634e-06	-3.070328e-09	-3.250847e+01	-2.043682e+02
4.400000e-07	-4.551605e-06	-3.083168e-09	-3.184364e+01	-2.024655e+02
4.500000e-07	-4.454914e-06	-3.110877e-09	-3.116718e+01	-2.004982e+02
4.600000e-07	-4.356530e-06	-3.055059e-09	-3.047887e+01	-1.984617e+02
4.700000e-07	-4.256597e-06	-2.962708e-09	-2.977973e+01	-1.963531e+02
4.800000e-07	-4.155203e-06	-2.919795e-09	-2.907036e+01	-1.941716e+02
4.900000e-07	-4.052369e-06	-2.939842e-09	-2.835092e+01	-1.919178e+02
5.000000e-07	-3.948104e-06	-2.940659e-09	-2.762146e+01	-1.895931e+02
5.100000e-07	-3.842343e-06	-2.868557e-09	-2.688155e+01	-1.871995e+02
5.200000e-07	-3.735080e-06	-2.776579e-09	-2.613112e+01	-1.847388e+02
5.300000e-07	-3.626443e-06	-2.744225e-09	-2.537109e+01	-1.822115e+02
5.400000e-07	-3.516590e-06	-2.760276e-09	-2.460253e+01	-1.796167e+02
5.500000e-07	-3.405504e-06	-2.733819e-09	-2.382536e+01	-1.769518e+02
5.600000e-07	-3.293046e-06	-2.647423e-09	-2.303859e+01	-1.742125e+02
5.700000e-07	-3.179104e-06	-2.572254e-09	-2.224144e+01	-1.713931e+02
5.800000e-07	-3.063727e-06	-2.559215e-09	-2.143425e+01	-1.684868e+02
5.900000e-07	-2.947111e-06	-2.559895e-09	-2.061838e+01	-1.654868e+02
6.000000e-07	-2.829452e-06	-2.512092e-09	-1.979523e+01	-1.623865e+02
6.100000e-07	-2.710866e-06	-2.420816e-09	-1.896559e+01	-1.591808e+02
6.200000e-07	-2.591232e-06	-2.351712e-09	-1.812861e+01	-1.558659e+02
6.300000e-07	-2.470541e-06	-2.332362e-09	-1.728424e+01	-1.524400e+02
6.400000e-07	-2.348898e-06	-2.310976e-09	-1.643321e+01	-1.489033e+02
6.500000e-07	-2.226351e-06	-2.236620e-09	-1.557585e+01	-1.452574e+02
6.600000e-07	-2.102968e-06	-2.137702e-09	-1.471264e+01	-1.415053e+02
6.700000e-07	-1.978830e-06	-2.076043e-09	-1.384416e+01	-1.376499e+02
6.800000e-07	-1.854044e-06	-2.047364e-09	-1.297114e+01	-1.336941e+02
6.900000e-07	-1.728712e-06	-2.001744e-09	-1.209430e+01	-1.296396e+02
7.000000e-07	-1.602894e-06	-1.918459e-09	-1.121406e+01	-1.254864e+02
7.100000e-07	-1.476550e-06	-1.835614e-09	-1.033014e+01	-1.212328e+02
7.200000e-07	-1.349649e-06	-1.781068e-09	-9.442328e+00	-1.168750e+02
7.300000e-07	-1.222301e-06	-1.736075e-09	-8.551379e+00	-1.124077e+02
7.400000e-07	-1.094574e-06	-1.670218e-09	-7.657787e+00	-1.078242e+02
7.500000e-07	-9.665003e-07	-1.581318e-09	-6.761766e+00	-1.031177e+02
7.600000e-07	-8.380854e-07	-1.497399e-09	-5.863358e+00	-9.828123e+01
7.700000e-07	-7.093323e-07	-1.431909e-09	-4.962584e+00	-9.330908e+01
7.800000e-07	-5.803397e-07	-1.365078e-09	-4.060135e+00	-8.819683e+01
7.900000e-07	-4.511942e-07	-1.278756e-09	-3.156616e+00	-8.294176e+01
8.000000e-07	-3.218853e-07	-1.182546e-09	-2.251953e+00	-7.754280e+01
8.100000e-07	-1.923872e-07	-1.093580e-09	-1.345967e+00	-7.200015e+01
8.200000e-07	-6.277266e-08	-1.014310e-09	-4.391660e-01	-6.631475e+01
8.300000e-07	6.686489e-08	-9.319100e-10	4.677958e-01	-6.048749e+01
8.400000e-07	1.964774e-07	-8.381783e-10	1.374583e+00	-5.451849e+01
8.500000e-07	3.260530e-07	-7.391791e-10	2.281111e+00	-4.840642e+01
8.600000e-07	4.555572e-07	-6.434186e-10	3.187140e+00	-4.214806e+01
8.700000e-07	5.849333e-07	-5.491513e-10	4.092272e+00	-3.573833e+01
8.800000e-07	7.141533e-07	-4.514226e-10	4.996312e+00	-2.917055e+01
8.900000e-07	8.431655e-07	-3.486178e-10	5.898899e+00	-2.243728e+01
9.000000e-07	9.719382e-07	-2.424217e-10	6.799811e+00	-1.553149e+01
9.100000e-07	1.100388e-06	-1.351080e-10	7.698461e+00	-8.447955e+00
9.200000e-07	1.228374e-06	-2.430193e-11	8.593872e+00	-1.184848e+00
9.300000e-07	1.355853e-06	8.854645e-11	9.485733e+00	6.254753e+00
9.400000e-07	1.482792e-06	2.028010e-10	1.037381e+01	1.386159e+01
9.500000e-07	1.609180e-06	3.215545e-10	1.125804e+01	2.161935e+01
9.600000e-07	1.735065e-06	4.459596e-10	1.213874e+01	2.950430e+01
9.700000e-07	1.860446e-06	5.701660e-10	1.301593e+01	3.748556e+01
9.800000e-07	1.985226e-06	6.901285e-10	1.388891e+01	4.552594e+01
9.900000e-07	2.109302e-06	8.107904e-10	1.475696e+01	5.358342e+01
1.000000e-06	2.232589e-06	9.367449e-10	1.561949e+01	6.161294e+01
1.010000e-06	2.354999e-06	1.066007e-09	1.647589e+01	6.956861e+01
1.020000e-06	2.476478e-06	1.187852e-09	1.732577e+01	7.740587e+01
1.030000e-06	2.596978e-06	1.300301e-09	1.816881e+01	8.508367e+01
1.040000e-06	2.716432e-06	1.409614e-09	1.900452e+01	9.256619e+01
1.050000e-06	2.834853e-06	1.521287e-09	1.983301e+01	9.982423e+01
1.060000e-06	2.952324e-06	1.631048e-09	2.065485e+01	1.068360e+02
1.070000e-06	3.068755e-06	1.733447e-09	2.146942e+01	1.135874e+02
1.080000e-06	3.183957e-06	1.829157e-09	2.227539e+01	1.200715e+02
1.090000e-06	3.297855e-06	1.923329e-09	2.307224e+01	1.262879e+02
1.100000e-06	3.410437e-06	2.018159e-09	2.385988e+01	1.322413e+02
1.110000e-06	3.521699e-06	2.110434e-09	2.463828e+01	1.379404e+02
1.120000e-06	3.631754e-06	2.195787e-09	2.540824e+01	1.433963e+02
1.130000e-06	3.740693e-06	2.273046e-09	2.617039e+01	1.486210e+02
1.140000e-06	3.848488e-06	2.349409e-09	2.692454e+01	1.536265e+02
1.150000e-06	3.954946e-06	2.427870e-09	2.766933e+01	1.584239e+02
1.160000e-06	4.059854e-06	2.502507e-09	2.840329e+01	1.630229e+02
1.170000e-06	4.163191e-06	2.565856e-09	2.912625e+01	1.674315e+02
1.180000e-06	4.265047e-06	2.623181e-09	2.983884e+01	1.716564e+02
1.190000e-06	4.365503e-06	2.683530e-09	3.054164e+01	1.757032e+02
1.200000e-06	4.464458e-06	2.747136e-09	3.123395e+01	1.795767e+02
1.210000e-06	4.561665e-06	2.806386e-09	3.191402e+01	1.832817e+02
1.220000e-06	4.657112e-06	2.857046e-09	3.258178e+01	1.868231e+02
1.230000e-06	4.750951e-06	2.903843e-09	3.323829e+01	1.902064e+02
1.240000e-06	4.843281e-06	2.953706e-09	3.388424e+01	1.934377e+02
1.250000e-06	4.934022e-06	3.006443e-09	3.451908e+01	1.965238e+02
1.260000e-06	5.022888e-06	3.053727e-09	3.514080e+01	1.994719e+02
1.270000e-06	5.109828e-06	3.091543e-09	3.574905e+01	2.022892e+02
1.280000e-06	5.194984e-06	3.128518e-09	3.634481e+01	2.049826e+02
1.290000e-06	5.278389e-06	3.170762e-09	3.692832e+01	2.075585e+02
1.300000e-06	5.359881e-06	3.213664e-09	3.749845e+01	2.100222e+02
1.310000e-06	5.439370e-06	3.249893e-09	3.805456e+01	2.123780e+02
1.320000e-06	5.516873e-06	3.278497e-09	3.859678e+01	2.146289e+02
1.330000e-06	5.592295e-06	3.307818e-09	3.912445e+01	2.167769e+02
1.340000e-06	5.665501e-06	3.342337e-09	3.963661e+01	2.188228e+02
1.350000e-06	5.736582e-06	3.375244e-09	4.013390e+01	2.207671e+02
1.360000e-06	5.805708e-06	3.400812e-09	4.061751e+01	2.226100e+02
1.370000e-06	5.872794e-06	3.421198e-09	4.108686e+01	2.243517e+02
1.380000e-06	5.937628e-06	3.444579e-09	4.154045e+01	2.259932e+02
1.390000e-06	6.000326e-06	3.473420e-09	4.197909e+01	2.275361e+02
1.400000e-06	6.061154e-06	3.499291e-09	4.240465e+01	2.289828e+02
1.410000e-06	6.119971e-06	3.517381e-09	4.281614e+01	2.303369e+02
1.420000e-06	6.176512e-06	3.531221e-09	4.321171e+01	2.316031e+02
1.430000e-06	6.230780e-06	3.548017e-09	4.359137e+01	2.327864e+02
1.440000e-06	6.282692e-06	3.568425e-09	4.395456e+01	2.338928e+02
1.450000e-06	6.331968e-06	3.585917e-09	4.429930e+01	2.349281e+02
1.460000e-06	6.378805e-06	3.597955e-09	4.462698e+01	2.358982e+02
1.470000e-06	6.423521e-06	3.608812e-09	4.493982e+01	2.368083e+02
1.480000e-06	6.466035e-06	3.623534e-09	4.523725e+01	2.376630e+02
1.490000e-06	6.506121e-06	3.639731e-09	4.551770e+01	2.384659e+02
1.500000e-06	6.543912e-06	3.652431e-09	4.578209e+01	2.392194e+02
1.510000e-06	6.579556e-06	3.659785e-09	4.603146e+01	2.399247e+02
1.520000e-06	6.612840e-06	3.667508e-09	4.626432e+01	2.405822e+02
1.530000e-06	6.643699e-06	3.678808e-09	4.648021e+01	2.411912e+02
1.540000e-06	6.672323e-06	3.689708e-09	4.668047e+01	2.417503e+02
1.550000e-06	6.698680e-06	3.696646e-09	4.686486e+01	2.422577e+02
1.560000e-06	6.722475e-06	3.700139e-09	4.703134e+01	2.427115e+02
1.570000e-06	6.743783e-06	3.704708e-09	4.718041e+01	2.431100e+02
1.580000e-06	6.762830e-06	3.711394e-09	4.731367e+01	2.434519e+02
1.590000e-06	6.779424e-06	3.718342e-09	4.742976e+01	2.437367e+02
1.600000e-06	6.793469e-06	3.723641e-09	4.752802e+01	2.439643e+02
1.610000e-06	6.804933e-06	3.727716e-09	4.760823e+01	2.441358e+02
1.620000e-06	6.813624e-06	3.731036e-09	4.766903e+01	2.442528e+02
1.630000e-06	6.819826e-06	3.733854e-09	4.771242e+01	2.443176e+02
1.640000e-06	6.823799e-06	3.735470e-09	4.774022e+01	2.443327e+02
1.650000e-06	6.825305e-06	3.737534e-09	4.775075e+01	2.443010e+02
1.660000e-06	6.824369e-06	3.736613e-09	4.774421e+01	2.442251e+02
1.670000e-06	6.821279e-06	3.727437e-09	4.772258e+01	2.441073e+02
1.680000e-06	6.815955e-06	3.724213e-09	4.768534e+01	2.439493e+02
1.690000e-06	6.808286e-06	3.722784e-09	4.763168e+01	2.437524e+02
1.700000e-06	6.798440e-06	3.721796e-09	4.756280e+01	2.435171e+02
1.710000e-06	6.786381e-06	3.722165e-09	4.747844e+01	2.432436e+02
1.720000e-06	6.771897e-06	3.729605e-09	4.737710e+01	2.429318e+02
1.730000e-06	6.755177e-06	3.739188e-09	4.726013e+01	2.425815e+02
1.740000e-06	6.736402e-06	3.659754e-09	4.712877e+01	2.421930e+02
1.750000e-06	6.714951e-06	3.615201e-09	4.697870e+01	2.417673e+02
1.760000e-06	6.690210e-06	3.660749e-09	4.680561e+01	2.413058e+02
1.770000e-06	6.662648e-06	3.671884e-09	4.661278e+01	2.408113e+02
1.780000e-06	6.632812e-06	3.704396e-09	4.640405e+01	2.402872e+02
1.790000e-06	6.601128e-06	3.760506e-09	4.618238e+01	2.397374e+02
1.800000e-06	6.568021e-06	3.573811e-09	4.595076e+01	2.391663e+02
1.810000e-06	6.532958e-06	3.555377e-09	4.570545e+01	2.385778e+02
1.820000e-06	6.495365e-06	3.687195e-09	4.544244e+01	2.379752e+02
1.830000e-06	6.455604e-06	3.564733e-09	4.516427e+01	2.373602e+02
1.840000e-06	6.413721e-06	3.666307e-09	4.487125e+01	2.367328e+02
1.850000e-06	6.369637e-06	3.576185e-09	4.456284e+01	2.360908e+02
1.860000e-06	6.323414e-06	3.448776e-09	4.423945e+01	2.354296e+02
1.870000e-06	6.274767e-06	3.652978e-09	4.389911e+01	2.347426e+02
1.880000e-06	6.223867e-06	3.630439e-09	4.354301e+01	2.340212e+02
1.890000e-06	6.170453e-06	3.646432e-09	4.316932e+01	2.332556e+02
1.900000e-06	6.114305e-06	3.549229e-09	4.277650e+01	2.324359e+02
1.910000e-06	6.055903e-06	3.420485e-09	4.236791e+01	2.315523e+02
1.920000e-06	5.995245e-06	3.523782e-09	4.194354e+01	2.305966e+02
1.930000e-06	5.932306e-06	3.506545e-09	4.150321e+01	2.295627e+02
1.940000e-06	5.867153e-06	3.562991e-09	4.104739e+01	2.284472e+02
1.950000e-06	5.799876e-06	3.463527e-09	4.057671e+01	2.272498e+02
1.960000e-06	5.730482e-06	3.370318e-09	4.009122e+01	2.259732e+02
1.970000e-06	5.658735e-06	3.421864e-09	3.958927e+01	2.246227e+02
1.980000e-06	5.584867e-06	3.404215e-09	3.907248e+01	2.232056e+02
1.990000e-06	5.508881e-06	3.471438e-09	3.854087e+01	2.217305e+02
2.000000e-06	5.430683e-06	3.348561e-09	3.799379e+01	2.202061e+02
2.010000e-06	5.350463e-06	3.271954e-09	3.743256e+01	2.186405e+02
2.020000e-06	5.268326e-06	3.320246e-09	3.685792e+01	2.170399e+02
2.030000e-06	5.184440e-06	3.358497e-09	3.627104e+01	2.154083e+02
2.040000e-06	5.098627e-06	3.333297e-09	3.567068e+01	2.137470e+02
2.050000e-06	5.010849e-06	3.161812e-09	3.505658e+01	2.120545e+02
2.060000e-06	4.921390e-06	3.138999e-09	3.443071e+01	2.103270e+02
2.070000e-06	4.830434e-06	3.202533e-09	3.379437e+01	2.085587e+02
2.080000e-06	4.737864e-06	3.243137e-09	3.314673e+01	2.067427e+02
2.090000e-06	4.643513e-06	3.135168e-09	3.248664e+01	2.048718e+02
2.100000e-06	4.547432e-06	2.998029e-09	3.181445e+01	2.029393e+02
2.110000e-06	4.449755e-06	3.009271e-09	3.113109e+01	2.009399e+02
2.120000e-06	4.350745e-06	3.072419e-09	3.043840e+01	1.988698e+02
2.130000e-06	4.250317e-06	3.075602e-09	2.973579e+01	1.967270e+02
2.140000e-06	4.148238e-06	2.943522e-09	2.902163e+01	1.945113e+02
2.150000e-06	4.044446e-06	2.849213e-09	2.829549e+01	1.922239e+02
2.160000e-06	3.939138e-06	2.872183e-09	2.755874e+01	1.898665e+02
2.170000e-06	3.832599e-06	2.928568e-09	2.681338e+01	1.874412e+02
2.180000e-06	3.724815e-06	2.868040e-09	2.605931e+01	1.849491e+02
2.190000e-06	3.615731e-06	2.732354e-09	2.529614e+01	1.823903e+02
2.200000e-06	3.505267e-06	2.680206e-09	2.452332e+01	1.797629e+02
2.210000e-06	3.393418e-06	2.721000e-09	2.374081e+01	1.770637e+02
2.220000e-06	3.280176e-06	2.723844e-09	2.294855e+01	1.742876e+02
2.230000e-06	3.165615e-06	2.614936e-09	2.214707e+01	1.714283e+02
2.240000e-06	3.049792e-06	2.500560e-09	2.133675e+01	1.684789e+02
2.250000e-06	2.932709e-06	2.478331e-09	2.051763e+01	1.654327e+02
2.260000e-06	2.814463e-06	2.512016e-09	1.969036e+01	1.622836e+02
2.270000e-06	2.695054e-06	2.467606e-09	1.885496e+01	1.590271e+02
2.280000e-06	2.574579e-06	2.343950e-09	1.801210e+01	1.556603e+02
2.290000e-06	2.453167e-06	2.253077e-09	1.716269e+01	1.521824e+02
2.300000e-06	2.330993e-06	2.252080e-09	1.630794e+01	1.485943e+02
2.310000e-06	2.208127e-06	2.255162e-09	1.544835e+01	1.448983e+02
2.320000e-06	2.084514e-06	2.178557e-09	1.458354e+01	1.410974e+02
2.330000e-06	1.960158e-06	2.064286e-09	1.371353e+01	1.371947e+02
2.340000e-06	1.835103e-06	1.997792e-09	1.283863e+01	1.331925e+02
2.350000e-06	1.709388e-06	1.980886e-09	1.195911e+01	1.290919e+02
2.360000e-06	1.583062e-06	1.937550e-09	1.107532e+01	1.248920e+02
2.370000e-06	1.456249e-06	1.839588e-09	1.018812e+01	1.205902e+02
2.380000e-06	1.328939e-06	1.733850e-09	9.297433e+00	1.161819e+02
2.390000e-06	1.201137e-06	1.674906e-09	8.403316e+00	1.116610e+02
2.400000e-06	1.072956e-06	1.639706e-09	7.506546e+00	1.070209e+02
2.410000e-06	9.443843e-07	1.573580e-09	6.607040e+00	1.022544e+02
2.420000e-06	8.154736e-07	1.471823e-09	5.705163e+00	9.735516e+01
2.430000e-06	6.863023e-07	1.377616e-09	4.801463e+00	9.231799e+01
2.440000e-06	5.569007e-07	1.316626e-09	3.896152e+00	8.713924e+01
2.450000e-06	4.273331e-07	1.259769e-09	2.989680e+00	8.181698e+01
2.460000e-06	2.976000e-07	1.174107e-09	2.082049e+00	7.635079e+01
2.470000e-06	1.677431e-07	1.069114e-09	1.173553e+00	7.074130e+01
2.480000e-06	3.783223e-08	9.745697e-10	2.646794e-01	6.498954e+01
2.490000e-06	-9.208001e-08	8.963748e-10	-6.442042e-01	5.909611e+01
2.500000e-06	-2.219422e-07	8.141358e-10	-1.552738e+00	5.306053e+01
2.510000e-06	-3.517375e-07	7.169212e-10	-2.460803e+00	4.688063e+01
2.520000e-06	-4.814287e-07	6.120279e-10	-3.368140e+00	4.055231e+01
2.530000e-06	-6.109922e-07	5.099422e-10	-4.274584e+00	3.406967e+01
2.540000e-06	-7.403979e-07	4.117713e-10	-5.179923e+00	2.742556e+01
2.550000e-06	-8.695885e-07	3.102860e-10	-6.083758e+00	2.061257e+01
2.560000e-06	-9.985009e-07	2.032370e-10	-6.985646e+00	1.362431e+01
2.570000e-06	-1.127044e-06	9.054103e-11	-7.884953e+00	6.456941e+00
2.580000e-06	-1.255134e-06	-2.516627e-11	-8.781083e+00	-8.892669e-01
2.590000e-06	-1.382717e-06	-1.400422e-10	-9.673675e+00	-8.408504e+00
2.600000e-06	-1.509781e-06	-2.553999e-10	-1.056263e+01	-1.608832e+01
2.610000e-06	-1.636282e-06	-3.701467e-10	-1.144765e+01	-2.390895e+01
2.620000e-06	-1.762176e-06	-4.886082e-10	-1.232842e+01	-3.184329e+01
2.630000e-06	-1.887381e-06	-6.136128e-10	-1.320437e+01	-3.985738e+01
2.640000e-06	-2.011763e-06	-7.375585e-10	-1.407456e+01	-4.791159e+01
2.650000e-06	-2.135315e-06	-8.555326e-10	-1.493895e+01	-5.596222e+01
2.660000e-06	-2.258042e-06	-9.710219e-10	-1.579756e+01	-6.396355e+01
2.670000e-06	-2.379940e-06	-1.093858e-09	-1.665038e+01	-7.187004e+01
2.680000e-06	-2.501013e-06	-1.219668e-09	-1.749742e+01	-7.963852e+01
2.690000e-06	-2.621155e-06	-1.337549e-09	-1.833795e+01	-8.723015e+01
2.700000e-06	-2.740251e-06	-1.445415e-09	-1.917116e+01	-9.461207e+01
2.710000e-06	-2.858250e-06	-1.548339e-09	-1.999670e+01	-1.017585e+02
2.720000e-06	-2.975076e-06	-1.654899e-09	-2.081403e+01	-1.086511e+02
2.730000e-06	-3.090670e-06	-1.762090e-09	-2.162275e+01	-1.152792e+02
2.740000e-06	-3.205011e-06	-1.860749e-09	-2.242268e+01	-1.216391e+02
2.750000e-06	-3.318026e-06	-1.948527e-09	-2.321335e+01	-1.277330e+02
2.760000e-06	-3.429694e-06	-2.030925e-09	-2.399460e+01	-1.335675e+02
2.770000e-06	-3.540024e-06	-2.116393e-09	-2.476649e+01	-1.391526e+02
2.780000e-06	-3.649134e-06	-2.203942e-09	-2.552983e+01	-1.445001e+02
2.790000e-06	-3.757130e-06	-2.283881e-09	-2.628538e+01	-1.496220e+02
2.800000e-06	-3.863965e-06	-2.352654e-09	-2.703282e+01	-1.545300e+02
2.810000e-06	-3.969485e-06	-2.417421e-09	-2.777105e+01	-1.592346e+02
2.820000e-06	-4.073611e-06	-2.487203e-09	-2.849953e+01	-1.637448e+02
2.830000e-06	-4.176225e-06	-2.561172e-09	-2.921743e+01	-1.680678e+02
2.840000e-06	-4.277195e-06	-2.627781e-09	-2.992383e+01	-1.722098e+02
2.850000e-06	-4.376624e-06	-2.682185e-09	-3.061945e+01	-1.761759e+02
2.860000e-06	-4.474631e-06	-2.735656e-09	-3.130512e+01	-1.799710e+02
2.870000e-06	-4.571190e-06	-2.797953e-09	-3.198066e+01	-1.835998e+02
2.880000e-06	-4.666164e-06	-2.861024e-09	-3.264511e+01	-1.870675e+02
2.890000e-06	-4.759382e-06	-2.910108e-09	-3.329727e+01	-1.903799e+02
2.900000e-06	-4.850846e-06	-2.947447e-09	-3.393717e+01	-1.935433e+02
2.910000e-06	-4.940620e-06	-2.989138e-09	-3.456524e+01	-1.965649e+02
2.920000e-06	-5.028649e-06	-3.040369e-09	-3.518110e+01	-1.994518e+02
2.930000e-06	-5.114767e-06	-3.089004e-09	-3.578360e+01	-2.022111e+02
2.940000e-06	-5.198942e-06	-3.123653e-09	-3.637250e+01	-2.048497e+02
