# Temperatura_=_20.0
# Concentracion g/m^3_=_12600.0
# C_Vs_to_Am_M_A/Vsm_=_65563218390.804596
# pendiente_HvsI_1/m_=_3716.3
# ordenada_HvsI_A/m_=_1297.0
# frecuencia_Hz_=_302062.93965607055

Tiempo_(s)	Campo_(V.s)	Magnetizacion_(V.s)	Campo_(kA/m)	Magnetizacion_(A/m)
0.000000e+00	-6.773301e-06	-3.722191e-09	-4.745593e+01	-2.439674e+02
1.000000e-08	-6.771038e-06	-3.726452e-09	-4.744007e+01	-2.438693e+02
2.000000e-08	-6.766408e-06	-3.724606e-09	-4.740763e+01	-2.437126e+02
3.000000e-08	-6.759710e-06	-3.721754e-09	-4.736070e+01	-2.434940e+02
4.000000e-08	-6.750804e-06	-3.716442e-09	-4.729830e+01	-2.432135e+02
5.000000e-08	-6.739448e-06	-3.706754e-09	-4.721874e+01	-2.428748e+02
6.000000e-08	-6.725585e-06	-3.701235e-09	-4.712161e+01	-2.424859e+02
7.000000e-08	-6.709315e-06	-3.683459e-09	-4.700762e+01	-2.420585e+02
8.000000e-08	-6.690918e-06	-3.666105e-09	-4.687872e+01	-2.416076e+02
9.000000e-08	-6.670369e-06	-3.736932e-09	-4.673475e+01	-2.411497e+02
1.000000e-07	-6.647219e-06	-3.767575e-09	-4.657255e+01	-2.407016e+02
1.100000e-07	-6.621238e-06	-3.704834e-09	-4.639052e+01	-2.402779e+02
1.200000e-07	-6.592728e-06	-3.669451e-09	-4.619078e+01	-2.398896e+02
1.300000e-07	-6.562124e-06	-3.651671e-09	-4.597635e+01	-2.395426e+02
1.400000e-07	-6.529616e-06	-3.581219e-09	-4.574859e+01	-2.392366e+02
1.500000e-07	-6.495277e-06	-3.650181e-09	-4.550800e+01	-2.389648e+02
1.600000e-07	-6.459018e-06	-3.779681e-09	-4.525396e+01	-2.387140e+02
1.700000e-07	-6.420743e-06	-3.555715e-09	-4.498579e+01	-2.384659e+02
1.800000e-07	-6.380277e-06	-3.600129e-09	-4.470227e+01	-2.381988e+02
1.900000e-07	-6.337252e-06	-3.676604e-09	-4.440083e+01	-2.378892e+02
2.000000e-07	-6.291854e-06	-3.571763e-09	-4.408275e+01	-2.375144e+02
2.100000e-07	-6.244162e-06	-3.690592e-09	-4.374860e+01	-2.370541e+02
2.200000e-07	-6.193779e-06	-3.591238e-09	-4.339561e+01	-2.364926e+02
2.300000e-07	-6.140876e-06	-3.506819e-09	-4.302495e+01	-2.358198e+02
2.400000e-07	-6.085677e-06	-3.545111e-09	-4.263821e+01	-2.350318e+02
2.500000e-07	-6.028143e-06	-3.534398e-09	-4.223511e+01	-2.341307e+02
2.600000e-07	-5.968326e-06	-3.570518e-09	-4.181601e+01	-2.331239e+02
2.700000e-07	-5.906297e-06	-3.537534e-09	-4.138141e+01	-2.320230e+02
2.800000e-07	-5.842152e-06	-3.476174e-09	-4.093200e+01	-2.308416e+02
2.900000e-07	-5.775777e-06	-3.444628e-09	-4.046695e+01	-2.295942e+02
3.000000e-07	-5.707169e-06	-3.479417e-09	-3.998626e+01	-2.282938e+02
3.100000e-07	-5.636515e-06	-3.501557e-09	-3.949123e+01	-2.269512e+02
3.200000e-07	-5.563755e-06	-3.408990e-09	-3.898146e+01	-2.255733e+02
3.300000e-07	-5.488747e-06	-3.398841e-09	-3.845592e+01	-2.241635e+02
3.400000e-07	-5.411477e-06	-3.378331e-09	-3.791455e+01	-2.227209e+02
3.500000e-07	-5.332037e-06	-3.360428e-09	-3.735797e+01	-2.212418e+02
3.600000e-07	-5.250534e-06	-3.354430e-09	-3.678693e+01	-2.197202e+02
3.700000e-07	-5.167195e-06	-3.291191e-09	-3.620303e+01	-2.181489e+02
3.800000e-07	-5.082184e-06	-3.253925e-09	-3.560741e+01	-2.165209e+02
3.900000e-07	-4.995535e-06	-3.242635e-09	-3.500033e+01	-2.148305e+02
4.000000e-07	-4.907256e-06	-3.268087e-09	-3.438182e+01	-2.130738e+02
4.100000e-07	-4.817222e-06	-3.237060e-09	-3.375101e+01	-2.112493e+02
4.200000e-07	-4.725420e-06	-3.165882e-09	-3.310781e+01	-2.093577e+02
4.300000e-07	-4.631997e-06	-3.115581e-09	-3.245326e+01	-2.074016e+02
4.400000e-07	-4.536948e-06	-3.119332e-09	-3.178732e+01	-2.053847e+02
4.500000e-07	-4.440327e-06	-3.138867e-09	-3.111036e+01	-2.033111e+02
4.600000e-07	-4.341998e-06	-3.085602e-09	-3.042144e+01	-2.011843e+02
4.700000e-07	-4.242027e-06	-3.005159e-09	-2.972101e+01	-1.990062e+02
4.800000e-07	-4.140641e-06	-2.956404e-09	-2.901066e+01	-1.967770e+02
4.900000e-07	-4.037761e-06	-2.962971e-09	-2.828986e+01	-1.944943e+02
5.000000e-07	-3.933446e-06	-2.962263e-09	-2.755899e+01	-1.921538e+02
5.100000e-07	-3.827684e-06	-2.903657e-09	-2.681799e+01	-1.897492e+02
5.200000e-07	-3.720389e-06	-2.818423e-09	-2.606624e+01	-1.872728e+02
5.300000e-07	-3.611708e-06	-2.776777e-09	-2.530479e+01	-1.847166e+02
5.400000e-07	-3.501805e-06	-2.783051e-09	-2.453477e+01	-1.820729e+02
5.500000e-07	-3.390621e-06	-2.759116e-09	-2.375578e+01	-1.793348e+02
5.600000e-07	-3.278108e-06	-2.682885e-09	-2.296748e+01	-1.764973e+02
5.700000e-07	-3.164223e-06	-2.605485e-09	-2.216956e+01	-1.735571e+02
5.800000e-07	-3.048941e-06	-2.580193e-09	-2.136186e+01	-1.705130e+02
5.900000e-07	-2.932392e-06	-2.571626e-09	-2.054528e+01	-1.673656e+02
6.000000e-07	-2.814777e-06	-2.526957e-09	-1.972123e+01	-1.641169e+02
6.100000e-07	-2.696172e-06	-2.441753e-09	-1.889025e+01	-1.607698e+02
6.200000e-07	-2.576505e-06	-2.370150e-09	-1.805182e+01	-1.573275e+02
6.300000e-07	-2.455906e-06	-2.341919e-09	-1.720687e+01	-1.537926e+02
6.400000e-07	-2.334478e-06	-2.317089e-09	-1.635611e+01	-1.501671e+02
6.500000e-07	-2.212175e-06	-2.248905e-09	-1.549921e+01	-1.464516e+02
6.600000e-07	-2.088996e-06	-2.154218e-09	-1.463618e+01	-1.426454e+02
6.700000e-07	-1.965013e-06	-2.088636e-09	-1.376752e+01	-1.387463e+02
6.800000e-07	-1.840353e-06	-2.053519e-09	-1.289411e+01	-1.347510e+02
6.900000e-07	-1.715148e-06	-2.005719e-09	-1.201688e+01	-1.306554e+02
7.000000e-07	-1.589451e-06	-1.923937e-09	-1.113621e+01	-1.264546e+02
7.100000e-07	-1.463214e-06	-1.842084e-09	-1.025174e+01	-1.221438e+02
7.200000e-07	-1.336438e-06	-1.783767e-09	-9.363518e+00	-1.177186e+02
7.300000e-07	-1.209192e-06	-1.735361e-09	-8.471989e+00	-1.131747e+02
7.400000e-07	-1.081538e-06	-1.668306e-09	-7.577602e+00	-1.085091e+02
7.500000e-07	-9.535333e-07	-1.579685e-09	-6.680761e+00	-1.037194e+02
7.600000e-07	-8.252377e-07	-1.497254e-09	-5.781881e+00	-9.880386e+01
7.700000e-07	-6.966821e-07	-1.431225e-09	-4.881179e+00	-9.376169e+01
7.800000e-07	-5.679012e-07	-1.363742e-09	-3.978899e+00	-8.859246e+01
7.900000e-07	-4.389753e-07	-1.276569e-09	-3.075602e+00	-8.329597e+01
8.000000e-07	-3.099495e-07	-1.181202e-09	-2.171606e+00	-7.787193e+01
8.100000e-07	-1.808093e-07	-1.096577e-09	-1.266808e+00	-7.231972e+01
8.200000e-07	-5.160512e-08	-1.020462e-09	-3.615620e-01	-6.663811e+01
8.300000e-07	7.760653e-08	-9.346735e-10	5.437363e-01	-6.082503e+01
8.400000e-07	2.068099e-07	-8.355791e-10	1.448977e+00	-5.487743e+01
8.500000e-07	3.360190e-07	-7.380931e-10	2.354257e+00	-4.879129e+01
8.600000e-07	4.651705e-07	-6.474111e-10	3.259134e+00	-4.256164e+01
8.700000e-07	5.941739e-07	-5.544442e-10	4.162974e+00	-3.618284e+01
8.800000e-07	7.230545e-07	-4.525653e-10	5.065952e+00	-2.964893e+01
8.900000e-07	8.518035e-07	-3.479571e-10	5.968009e+00	-2.295422e+01
9.000000e-07	9.803605e-07	-2.472576e-10	6.868721e+00	-1.609402e+01
9.100000e-07	1.108567e-06	-1.465435e-10	7.766975e+00	-9.065455e+00
9.200000e-07	1.236351e-06	-3.701292e-11	8.662274e+00	-1.868464e+00
9.300000e-07	1.363693e-06	7.934256e-11	9.554475e+00	5.493262e+00
9.400000e-07	1.490472e-06	1.941914e-10	1.044272e+01	1.301137e+01
9.500000e-07	1.616674e-06	3.086093e-10	1.132694e+01	2.067210e+01
9.600000e-07	1.742342e-06	4.283840e-10	1.220741e+01	2.845586e+01
9.700000e-07	1.867489e-06	5.534043e-10	1.308423e+01	3.633705e+01
9.800000e-07	1.992066e-06	6.768732e-10	1.395706e+01	4.428441e+01
9.900000e-07	2.116002e-06	7.967272e-10	1.482539e+01	5.226177e+01
1.000000e-06	2.239165e-06	9.170599e-10	1.568831e+01	6.022922e+01
1.010000e-06	2.361339e-06	1.043369e-09	1.654430e+01	6.814468e+01
1.020000e-06	2.482548e-06	1.168225e-09	1.739353e+01	7.596573e+01
1.030000e-06	2.602859e-06	1.284937e-09	1.823646e+01	8.365155e+01
1.040000e-06	2.722127e-06	1.394658e-09	1.907210e+01	9.116483e+01
1.050000e-06	2.840334e-06	1.502630e-09	1.990030e+01	9.847350e+01
1.060000e-06	2.957550e-06	1.611393e-09	2.072155e+01	1.055520e+02
1.070000e-06	3.073744e-06	1.716594e-09	2.153564e+01	1.123820e+02
1.080000e-06	3.188685e-06	1.815285e-09	2.234095e+01	1.189530e+02
1.090000e-06	3.302244e-06	1.909609e-09	2.313658e+01	1.252616e+02
1.100000e-06	3.414532e-06	2.003493e-09	2.392331e+01	1.313109e+02
1.110000e-06	3.525551e-06	2.095574e-09	2.470114e+01	1.371088e+02
1.120000e-06	3.635369e-06	2.182266e-09	2.547056e+01	1.426670e+02
1.130000e-06	3.744101e-06	2.262934e-09	2.623238e+01	1.479988e+02
1.140000e-06	3.851680e-06	2.341800e-09	2.698611e+01	1.531178e+02
1.150000e-06	3.957834e-06	2.420016e-09	2.772986e+01	1.580364e+02
1.160000e-06	4.062461e-06	2.493900e-09	2.846290e+01	1.627648e+02
1.170000e-06	4.165604e-06	2.558896e-09	2.918556e+01	1.673107e+02
1.180000e-06	4.267290e-06	2.619819e-09	2.989801e+01	1.716791e+02
1.190000e-06	4.367595e-06	2.681819e-09	3.060077e+01	1.758727e+02
1.200000e-06	4.466294e-06	2.744206e-09	3.129229e+01	1.798928e+02
1.210000e-06	4.563197e-06	2.803241e-09	3.197123e+01	1.837400e+02
1.220000e-06	4.658385e-06	2.858180e-09	3.263815e+01	1.874154e+02
1.230000e-06	4.751966e-06	2.909955e-09	3.329380e+01	1.909211e+02
1.240000e-06	4.844046e-06	2.960902e-09	3.393894e+01	1.942611e+02
1.250000e-06	4.934492e-06	3.011280e-09	3.457264e+01	1.974413e+02
1.260000e-06	5.023022e-06	3.057154e-09	3.519291e+01	2.004693e+02
1.270000e-06	5.109659e-06	3.098458e-09	3.579991e+01	2.033544e+02
1.280000e-06	5.194539e-06	3.138900e-09	3.639461e+01	2.061063e+02
1.290000e-06	5.277643e-06	3.180721e-09	3.697687e+01	2.087346e+02
1.300000e-06	5.358812e-06	3.221349e-09	3.754556e+01	2.112478e+02
1.310000e-06	5.437988e-06	3.257478e-09	3.810029e+01	2.136529e+02
1.320000e-06	5.515189e-06	3.289297e-09	3.864119e+01	2.159545e+02
1.330000e-06	5.590310e-06	3.320744e-09	3.916751e+01	2.181552e+02
1.340000e-06	5.663228e-06	3.354339e-09	3.967839e+01	2.202552e+02
1.350000e-06	5.734015e-06	3.385357e-09	4.017435e+01	2.222535e+02
1.360000e-06	5.802846e-06	3.409888e-09	4.065661e+01	2.241480e+02
1.370000e-06	5.869676e-06	3.432890e-09	4.112484e+01	2.259368e+02
1.380000e-06	5.934319e-06	3.459150e-09	4.157775e+01	2.276188e+02
1.390000e-06	5.996828e-06	3.486433e-09	4.201571e+01	2.291944e+02
1.400000e-06	6.057405e-06	3.509568e-09	4.244013e+01	2.306659e+02
1.410000e-06	6.115921e-06	3.529022e-09	4.285011e+01	2.320376e+02
1.420000e-06	6.172164e-06	3.548340e-09	4.324416e+01	2.333155e+02
1.430000e-06	6.226210e-06	3.569480e-09	4.362283e+01	2.345070e+02
1.440000e-06	6.277890e-06	3.589953e-09	4.398492e+01	2.356196e+02
1.450000e-06	6.326862e-06	3.605288e-09	4.432803e+01	2.366610e+02
1.460000e-06	6.373388e-06	3.617168e-09	4.465401e+01	2.376374e+02
1.470000e-06	6.417869e-06	3.629671e-09	4.496566e+01	2.385536e+02
1.480000e-06	6.460130e-06	3.643334e-09	4.526175e+01	2.394124e+02
1.490000e-06	6.499918e-06	3.656348e-09	4.554052e+01	2.402145e+02
1.500000e-06	6.537416e-06	3.666169e-09	4.580324e+01	2.409591e+02
1.510000e-06	6.572769e-06	3.673539e-09	4.605093e+01	2.416442e+02
1.520000e-06	6.605737e-06	3.683181e-09	4.628192e+01	2.422675e+02
1.530000e-06	6.636282e-06	3.694740e-09	4.649592e+01	2.428271e+02
1.540000e-06	6.664645e-06	3.703822e-09	4.669465e+01	2.433223e+02
1.550000e-06	6.690692e-06	3.709239e-09	4.687714e+01	2.437538e+02
1.560000e-06	6.714193e-06	3.713272e-09	4.704179e+01	2.441242e+02
1.570000e-06	6.735300e-06	3.718360e-09	4.718967e+01	2.444377e+02
1.580000e-06	6.754161e-06	3.723492e-09	4.732182e+01	2.446994e+02
1.590000e-06	6.770549e-06	3.726382e-09	4.743664e+01	2.449149e+02
1.600000e-06	6.784395e-06	3.727734e-09	4.753366e+01	2.450893e+02
1.610000e-06	6.795651e-06	3.730107e-09	4.761252e+01	2.452261e+02
1.620000e-06	6.804199e-06	3.734196e-09	4.767241e+01	2.453272e+02
1.630000e-06	6.810289e-06	3.737521e-09	4.771508e+01	2.453919e+02
1.640000e-06	6.814092e-06	3.737827e-09	4.774172e+01	2.454172e+02
1.650000e-06	6.815381e-06	3.739829e-09	4.775075e+01	2.453982e+02
1.660000e-06	6.814209e-06	3.738388e-09	4.774254e+01	2.453290e+02
1.670000e-06	6.810923e-06	3.728165e-09	4.771952e+01	2.452038e+02
1.680000e-06	6.805393e-06	3.724047e-09	4.768077e+01	2.450183e+02
1.690000e-06	6.797548e-06	3.720437e-09	4.762581e+01	2.447703e+02
1.700000e-06	6.787509e-06	3.717822e-09	4.755547e+01	2.444617e+02
1.710000e-06	6.775206e-06	3.718840e-09	4.746927e+01	2.440980e+02
1.720000e-06	6.760486e-06	3.732140e-09	4.736614e+01	2.436892e+02
1.730000e-06	6.743587e-06	3.740734e-09	4.724774e+01	2.432485e+02
1.740000e-06	6.724701e-06	3.636324e-09	4.711542e+01	2.427919e+02
1.750000e-06	6.703066e-06	3.604354e-09	4.696383e+01	2.423362e+02
1.760000e-06	6.678140e-06	3.662371e-09	4.678920e+01	2.418973e+02
1.770000e-06	6.650445e-06	3.665405e-09	4.659515e+01	2.414886e+02
1.780000e-06	6.620490e-06	3.716160e-09	4.638528e+01	2.411187e+02
1.790000e-06	6.588740e-06	3.767761e-09	4.616283e+01	2.407909e+02
1.800000e-06	6.555546e-06	3.523632e-09	4.593026e+01	2.405016e+02
1.810000e-06	6.520330e-06	3.572808e-09	4.568353e+01	2.402411e+02
1.820000e-06	6.482619e-06	3.738454e-09	4.541931e+01	2.399937e+02
1.830000e-06	6.442783e-06	3.603305e-09	4.514021e+01	2.397393e+02
1.840000e-06	6.400795e-06	3.753166e-09	4.484603e+01	2.394550e+02
1.850000e-06	6.356596e-06	3.595722e-09	4.453635e+01	2.391175e+02
1.860000e-06	6.310189e-06	3.512490e-09	4.421121e+01	2.387049e+02
1.870000e-06	6.261357e-06	3.758164e-09	4.386908e+01	2.381989e+02
1.880000e-06	6.210311e-06	3.679571e-09	4.351144e+01	2.375862e+02
1.890000e-06	6.156684e-06	3.716920e-09	4.313571e+01	2.368596e+02
1.900000e-06	6.100354e-06	3.589445e-09	4.274104e+01	2.360181e+02
1.910000e-06	6.041845e-06	3.486372e-09	4.233111e+01	2.350663e+02
1.920000e-06	5.981134e-06	3.616853e-09	4.190575e+01	2.340139e+02
1.930000e-06	5.918198e-06	3.550247e-09	4.146480e+01	2.328734e+02
1.940000e-06	5.853014e-06	3.615630e-09	4.100810e+01	2.316593e+02
1.950000e-06	5.785660e-06	3.510359e-09	4.053619e+01	2.303854e+02
1.960000e-06	5.716144e-06	3.460825e-09	4.004914e+01	2.290639e+02
1.970000e-06	5.644261e-06	3.487391e-09	3.954551e+01	2.277039e+02
1.980000e-06	5.570250e-06	3.434035e-09	3.902696e+01	2.263106e+02
1.990000e-06	5.494152e-06	3.522629e-09	3.849379e+01	2.248854e+02
2.000000e-06	5.415875e-06	3.396999e-09	3.794536e+01	2.234262e+02
2.010000e-06	5.335565e-06	3.354666e-09	3.738268e+01	2.219278e+02
2.020000e-06	5.253424e-06	3.374225e-09	3.680718e+01	2.203836e+02
2.030000e-06	5.169509e-06	3.389021e-09	3.621924e+01	2.187864e+02
2.040000e-06	5.083637e-06	3.374492e-09	3.561760e+01	2.171297e+02
2.050000e-06	4.995881e-06	3.228920e-09	3.500275e+01	2.154085e+02
2.060000e-06	4.906453e-06	3.222672e-09	3.437619e+01	2.136200e+02
2.070000e-06	4.815484e-06	3.248517e-09	3.373883e+01	2.117637e+02
2.080000e-06	4.722899e-06	3.278667e-09	3.309015e+01	2.098414e+02
2.090000e-06	4.628534e-06	3.184893e-09	3.242900e+01	2.078562e+02
2.100000e-06	4.532447e-06	3.075882e-09	3.175578e+01	2.058121e+02
2.110000e-06	4.434835e-06	3.072697e-09	3.107188e+01	2.037131e+02
2.120000e-06	4.335785e-06	3.103505e-09	3.037791e+01	2.015619e+02
2.130000e-06	4.235221e-06	3.108788e-09	2.967332e+01	1.993599e+02
2.140000e-06	4.133102e-06	2.998575e-09	2.895784e+01	1.971059e+02
2.150000e-06	4.029381e-06	2.917070e-09	2.823114e+01	1.947966e+02
2.160000e-06	3.924204e-06	2.917938e-09	2.749423e+01	1.924269e+02
2.170000e-06	3.817733e-06	2.959197e-09	2.674827e+01	1.899895e+02
2.180000e-06	3.709899e-06	2.910094e-09	2.599275e+01	1.874767e+02
2.190000e-06	3.600766e-06	2.798412e-09	2.522813e+01	1.848804e+02
2.200000e-06	3.490311e-06	2.741459e-09	2.445424e+01	1.821933e+02
2.210000e-06	3.378465e-06	2.759472e-09	2.367061e+01	1.794092e+02
2.220000e-06	3.265294e-06	2.752937e-09	2.287770e+01	1.765239e+02
2.230000e-06	3.150784e-06	2.658068e-09	2.207541e+01	1.735351e+02
2.240000e-06	3.034993e-06	2.555123e-09	2.126413e+01	1.704424e+02
2.250000e-06	2.918049e-06	2.522227e-09	2.044479e+01	1.672473e+02
2.260000e-06	2.799864e-06	2.539342e-09	1.961675e+01	1.639522e+02
2.270000e-06	2.680424e-06	2.494149e-09	1.877991e+01	1.605601e+02
2.280000e-06	2.559943e-06	2.383070e-09	1.793578e+01	1.570741e+02
2.290000e-06	2.438642e-06	2.293489e-09	1.708591e+01	1.534966e+02
2.300000e-06	2.316638e-06	2.283118e-09	1.623111e+01	1.498289e+02
2.310000e-06	2.193892e-06	2.277812e-09	1.537111e+01	1.460711e+02
2.320000e-06	2.070338e-06	2.202426e-09	1.450546e+01	1.422217e+02
2.330000e-06	1.946006e-06	2.089269e-09	1.363435e+01	1.382781e+02
2.340000e-06	1.821078e-06	2.021193e-09	1.275906e+01	1.342364e+02
2.350000e-06	1.695573e-06	2.003766e-09	1.187973e+01	1.300922e+02
2.360000e-06	1.569477e-06	1.962481e-09	1.099626e+01	1.258405e+02
2.370000e-06	1.442852e-06	1.865082e-09	1.010909e+01	1.214768e+02
2.380000e-06	1.315734e-06	1.756775e-09	9.218453e+00	1.169965e+02
2.390000e-06	1.188142e-06	1.698070e-09	8.324505e+00	1.123961e+02
2.400000e-06	1.060129e-06	1.664348e-09	7.427602e+00	1.076728e+02
2.410000e-06	9.317176e-07	1.594833e-09	6.527913e+00	1.028244e+02
2.420000e-06	8.029798e-07	1.484079e-09	5.625935e+00	9.784975e+01
2.430000e-06	6.740002e-07	1.386649e-09	4.722262e+00	9.274825e+01
2.440000e-06	5.448251e-07	1.331513e-09	3.817220e+00	8.751957e+01
2.450000e-06	4.155089e-07	1.277679e-09	2.911189e+00	8.216352e+01
2.460000e-06	2.860362e-07	1.183901e-09	2.004062e+00	7.667971e+01
2.470000e-06	1.564590e-07	1.069442e-09	1.096202e+00	7.106724e+01
2.480000e-06	2.681262e-08	9.783279e-10	1.878578e-01	6.532452e+01
2.490000e-06	-1.028636e-07	9.106057e-10	-7.206956e-01	5.944904e+01
2.500000e-06	-2.325234e-07	8.295390e-10	-1.629134e+00	5.343730e+01
2.510000e-06	-3.621411e-07	7.219417e-10	-2.537277e+00	4.728482e+01
2.520000e-06	-4.916668e-07	6.105350e-10	-3.444775e+00	4.098627e+01
2.530000e-06	-6.210655e-07	5.171451e-10	-4.351385e+00	3.453581e+01
2.540000e-06	-7.502767e-07	4.292166e-10	-5.256680e+00	2.792753e+01
2.550000e-06	-8.792704e-07	3.238860e-10	-6.160451e+00	2.115610e+01
2.560000e-06	-1.007972e-06	2.061303e-10	-7.062179e+00	1.421755e+01
2.570000e-06	-1.136267e-06	9.447383e-11	-7.961049e+00	7.110211e+00
2.580000e-06	-1.264109e-06	-8.625725e-12	-8.856755e+00	-1.643685e-01
2.590000e-06	-1.391462e-06	-1.187263e-10	-9.749029e+00	-7.600432e+00
2.600000e-06	-1.518246e-06	-2.406678e-10	-1.063732e+01	-1.518720e+01
2.610000e-06	-1.644382e-06	-3.611101e-10	-1.152107e+01	-2.290824e+01
2.620000e-06	-1.769885e-06	-4.743727e-10	-1.240039e+01	-3.074115e+01
2.630000e-06	-1.894774e-06	-5.890932e-10	-1.327540e+01	-3.865765e+01
2.640000e-06	-2.019005e-06	-7.122417e-10	-1.414580e+01	-4.662408e+01
2.650000e-06	-2.142365e-06	-8.374611e-10	-1.501010e+01	-5.460236e+01
2.660000e-06	-2.264795e-06	-9.557186e-10	-1.586788e+01	-6.255135e+01
2.670000e-06	-2.386439e-06	-1.072273e-09	-1.672016e+01	-7.042858e+01
2.680000e-06	-2.507279e-06	-1.193716e-09	-1.756680e+01	-7.819213e+01
2.690000e-06	-2.627159e-06	-1.315580e-09	-1.840672e+01	-8.580258e+01
2.700000e-06	-2.745908e-06	-1.429134e-09	-1.923871e+01	-9.322487e+01
2.710000e-06	-2.863559e-06	-1.532386e-09	-2.006301e+01	-1.004298e+02
2.720000e-06	-2.980099e-06	-1.633638e-09	-2.087953e+01	-1.073951e+02
2.730000e-06	-3.095395e-06	-1.739454e-09	-2.168733e+01	-1.141061e+02
2.740000e-06	-3.209445e-06	-1.842173e-09	-2.248640e+01	-1.205557e+02
2.750000e-06	-3.322127e-06	-1.932565e-09	-2.327589e+01	-1.267436e+02
2.760000e-06	-3.433451e-06	-2.015303e-09	-2.405586e+01	-1.326752e+02
2.770000e-06	-3.543537e-06	-2.102097e-09	-2.482716e+01	-1.383606e+02
2.780000e-06	-3.652441e-06	-2.192481e-09	-2.559018e+01	-1.438124e+02
2.790000e-06	-3.760207e-06	-2.275441e-09	-2.634522e+01	-1.490442e+02
2.800000e-06	-3.866719e-06	-2.348299e-09	-2.709148e+01	-1.540691e+02
2.810000e-06	-3.971948e-06	-2.418351e-09	-2.782875e+01	-1.588986e+02
2.820000e-06	-4.075787e-06	-2.490755e-09	-2.855627e+01	-1.635419e+02
2.830000e-06	-4.178050e-06	-2.563239e-09	-2.927276e+01	-1.680053e+02
2.840000e-06	-4.278749e-06	-2.629560e-09	-2.997829e+01	-1.722927e+02
2.850000e-06	-4.377960e-06	-2.687549e-09	-3.067340e+01	-1.764060e+02
2.860000e-06	-4.475727e-06	-2.743950e-09	-3.135838e+01	-1.803461e+02
2.870000e-06	-4.572040e-06	-2.803529e-09	-3.203318e+01	-1.841137e+02
2.880000e-06	-4.666711e-06	-2.863350e-09	-3.269648e+01	-1.877103e+02
2.890000e-06	-4.759628e-06	-2.917389e-09	-3.334748e+01	-1.911389e+02
2.900000e-06	-4.850865e-06	-2.965195e-09	-3.398672e+01	-1.944042e+02
2.910000e-06	-4.940403e-06	-3.012396e-09	-3.461405e+01	-1.975131e+02
2.920000e-06	-5.028158e-06	-3.060984e-09	-3.522889e+01	-2.004740e+02
2.930000e-06	-5.113955e-06	-3.107566e-09	-3.583001e+01	-2.032964e+02
2.940000e-06	-5.197836e-06	-3.147660e-09	-3.641771e+01	-2.059901e+02
