# Temperatura_=_20.0
# Concentracion g/m^3_=_12600.0
# C_Vs_to_Am_M_A/Vsm_=_65563218390.804596
# pendiente_HvsI_1/m_=_3716.3
# ordenada_HvsI_A/m_=_1297.0
# frecuencia_Hz_=_302061.9073583109

Tiempo_(s)	Campo_(V.s)	Magnetizacion_(V.s)	Campo_(kA/m)	Magnetizacion_(A/m)
0.000000e+00	-6.768372e-06	-3.780895e-09	-4.745533e+01	-2.470303e+02
1.000000e-08	-6.766454e-06	-3.785428e-09	-4.744189e+01	-2.468948e+02
2.000000e-08	-6.762164e-06	-3.784711e-09	-4.741181e+01	-2.467285e+02
3.000000e-08	-6.755731e-06	-3.778099e-09	-4.736671e+01	-2.465332e+02
4.000000e-08	-6.747209e-06	-3.769884e-09	-4.730695e+01	-2.463089e+02
5.000000e-08	-6.736285e-06	-3.762721e-09	-4.723037e+01	-2.460540e+02
6.000000e-08	-6.722745e-06	-3.759301e-09	-4.713543e+01	-2.457654e+02
7.000000e-08	-6.706726e-06	-3.745805e-09	-4.702312e+01	-2.454391e+02
8.000000e-08	-6.688516e-06	-3.720947e-09	-4.689544e+01	-2.450708e+02
9.000000e-08	-6.668252e-06	-3.740850e-09	-4.675336e+01	-2.446564e+02
1.000000e-07	-6.645499e-06	-3.767773e-09	-4.659383e+01	-2.441928e+02
1.100000e-07	-6.619901e-06	-3.747487e-09	-4.641436e+01	-2.436788e+02
1.200000e-07	-6.591717e-06	-3.720072e-09	-4.621675e+01	-2.431147e+02
1.300000e-07	-6.561384e-06	-3.698325e-09	-4.600408e+01	-2.425032e+02
1.400000e-07	-6.529154e-06	-3.662170e-09	-4.577810e+01	-2.418489e+02
1.500000e-07	-6.495040e-06	-3.684785e-09	-4.553892e+01	-2.411579e+02
1.600000e-07	-6.458968e-06	-3.778142e-09	-4.528600e+01	-2.404367e+02
1.700000e-07	-6.420856e-06	-3.666461e-09	-4.501878e+01	-2.396920e+02
1.800000e-07	-6.380620e-06	-3.617941e-09	-4.473668e+01	-2.389293e+02
1.900000e-07	-6.337971e-06	-3.642216e-09	-4.443765e+01	-2.381522e+02
2.000000e-07	-6.292908e-06	-3.596843e-09	-4.412170e+01	-2.373617e+02
2.100000e-07	-6.245567e-06	-3.658754e-09	-4.378977e+01	-2.365562e+02
2.200000e-07	-6.195549e-06	-3.582259e-09	-4.343908e+01	-2.357309e+02
2.300000e-07	-6.142890e-06	-3.508500e-09	-4.306987e+01	-2.348788e+02
2.400000e-07	-6.087913e-06	-3.529629e-09	-4.268441e+01	-2.339912e+02
2.500000e-07	-6.030593e-06	-3.518503e-09	-4.228252e+01	-2.330583e+02
2.600000e-07	-5.970983e-06	-3.553917e-09	-4.186457e+01	-2.320708e+02
2.700000e-07	-5.909235e-06	-3.550517e-09	-4.143164e+01	-2.310206e+02
2.800000e-07	-5.845380e-06	-3.481552e-09	-4.098393e+01	-2.299018e+02
2.900000e-07	-5.779282e-06	-3.441778e-09	-4.052049e+01	-2.287114e+02
3.000000e-07	-5.710986e-06	-3.481648e-09	-4.004165e+01	-2.274492e+02
3.100000e-07	-5.640581e-06	-3.508009e-09	-3.954801e+01	-2.261179e+02
3.200000e-07	-5.567992e-06	-3.411395e-09	-3.903907e+01	-2.247229e+02
3.300000e-07	-5.493210e-06	-3.362374e-09	-3.851475e+01	-2.232706e+02
3.400000e-07	-5.416198e-06	-3.356325e-09	-3.797479e+01	-2.217683e+02
3.500000e-07	-5.337013e-06	-3.347327e-09	-3.741960e+01	-2.202225e+02
3.600000e-07	-5.255808e-06	-3.331849e-09	-3.685024e+01	-2.186384e+02
3.700000e-07	-5.172792e-06	-3.270153e-09	-3.626819e+01	-2.170190e+02
3.800000e-07	-5.088042e-06	-3.225065e-09	-3.567398e+01	-2.153646e+02
3.900000e-07	-5.001614e-06	-3.212520e-09	-3.506800e+01	-2.136729e+02
4.000000e-07	-4.913582e-06	-3.236137e-09	-3.445078e+01	-2.119392e+02
4.100000e-07	-4.823777e-06	-3.218251e-09	-3.382112e+01	-2.101575e+02
4.200000e-07	-4.732156e-06	-3.149562e-09	-3.317874e+01	-2.083209e+02
4.300000e-07	-4.638925e-06	-3.098869e-09	-3.252507e+01	-2.064225e+02
4.400000e-07	-4.544148e-06	-3.100548e-09	-3.186055e+01	-2.044566e+02
4.500000e-07	-4.447759e-06	-3.115757e-09	-3.118474e+01	-2.024192e+02
4.600000e-07	-4.349694e-06	-3.067129e-09	-3.049717e+01	-2.003082e+02
4.700000e-07	-4.249991e-06	-2.990823e-09	-2.979812e+01	-1.981237e+02
4.800000e-07	-4.148788e-06	-2.945076e-09	-2.908855e+01	-1.958675e+02
4.900000e-07	-4.046181e-06	-2.940357e-09	-2.836914e+01	-1.935423e+02
5.000000e-07	-3.942169e-06	-2.929138e-09	-2.763988e+01	-1.911512e+02
5.100000e-07	-3.836681e-06	-2.869483e-09	-2.690026e+01	-1.886969e+02
5.200000e-07	-3.729675e-06	-2.789332e-09	-2.615001e+01	-1.861805e+02
5.300000e-07	-3.621303e-06	-2.746548e-09	-2.539018e+01	-1.836011e+02
5.400000e-07	-3.511700e-06	-2.744425e-09	-2.462171e+01	-1.809558e+02
5.500000e-07	-3.400780e-06	-2.717158e-09	-2.384402e+01	-1.782396e+02
5.600000e-07	-3.288543e-06	-2.649276e-09	-2.305708e+01	-1.754456e+02
5.700000e-07	-3.174938e-06	-2.586361e-09	-2.226056e+01	-1.725659e+02
5.800000e-07	-3.059861e-06	-2.560853e-09	-2.145371e+01	-1.695926e+02
5.900000e-07	-2.943475e-06	-2.542141e-09	-2.063770e+01	-1.665185e+02
6.000000e-07	-2.826012e-06	-2.495525e-09	-1.981412e+01	-1.633381e+02
6.100000e-07	-2.707616e-06	-2.425415e-09	-1.898401e+01	-1.600480e+02
6.200000e-07	-2.588244e-06	-2.364449e-09	-1.814705e+01	-1.566472e+02
6.300000e-07	-2.467898e-06	-2.327012e-09	-1.730327e+01	-1.531369e+02
6.400000e-07	-2.346650e-06	-2.287066e-09	-1.645315e+01	-1.495206e+02
6.500000e-07	-2.224428e-06	-2.218777e-09	-1.559622e+01	-1.458023e+02
6.600000e-07	-2.101294e-06	-2.135539e-09	-1.473288e+01	-1.419865e+02
6.700000e-07	-1.977409e-06	-2.071801e-09	-1.386428e+01	-1.380767e+02
6.800000e-07	-1.852874e-06	-2.024179e-09	-1.299112e+01	-1.340748e+02
6.900000e-07	-1.727784e-06	-1.965883e-09	-1.211407e+01	-1.299801e+02
7.000000e-07	-1.602217e-06	-1.890715e-09	-1.123369e+01	-1.257894e+02
7.100000e-07	-1.476156e-06	-1.820835e-09	-1.034982e+01	-1.214971e+02
7.200000e-07	-1.349547e-06	-1.764917e-09	-9.462128e+00	-1.170955e+02
7.300000e-07	-1.222526e-06	-1.707420e-09	-8.571542e+00	-1.125756e+02
7.400000e-07	-1.095106e-06	-1.637035e-09	-7.678160e+00	-1.079285e+02
7.500000e-07	-9.672742e-07	-1.561441e-09	-6.781885e+00	-1.031460e+02
7.600000e-07	-8.391151e-07	-1.490464e-09	-5.883319e+00	-9.822158e+01
7.700000e-07	-7.106388e-07	-1.417049e-09	-4.982528e+00	-9.315134e+01
7.800000e-07	-5.819339e-07	-1.332832e-09	-4.080135e+00	-8.793393e+01
7.900000e-07	-4.530797e-07	-1.242680e-09	-3.176694e+00	-8.257049e+01
8.000000e-07	-3.240561e-07	-1.157886e-09	-2.272067e+00	-7.706402e+01
8.100000e-07	-1.949068e-07	-1.076665e-09	-1.366557e+00	-7.141844e+01
8.200000e-07	-6.568597e-08	-9.867774e-10	-4.605465e-01	-6.563740e+01
8.300000e-07	6.363802e-08	-8.880636e-10	4.461876e-01	-5.972317e+01
8.400000e-07	1.929792e-07	-7.938050e-10	1.353042e+00	-5.367555e+01
8.500000e-07	3.222325e-07	-7.100963e-10	2.259281e+00	-4.749128e+01
8.600000e-07	4.513888e-07	-6.220433e-10	3.164839e+00	-4.116384e+01
8.700000e-07	5.804399e-07	-5.169736e-10	4.069660e+00	-3.468384e+01
8.800000e-07	7.093349e-07	-4.072002e-10	4.973386e+00	-2.803999e+01
8.900000e-07	8.380484e-07	-3.094201e-10	5.875840e+00	-2.122054e+01
9.000000e-07	9.665106e-07	-2.177472e-10	6.776531e+00	-1.421514e+01
9.100000e-07	1.094640e-06	-1.113966e-10	7.674891e+00	-7.016746e+00
9.200000e-07	1.222318e-06	1.375524e-11	8.570087e+00	3.764412e-01
9.300000e-07	1.349497e-06	1.361382e-10	9.461776e+00	7.959377e+00
9.400000e-07	1.476211e-06	2.434222e-10	1.035021e+01	1.571908e+01
9.500000e-07	1.602414e-06	3.524955e-10	1.123506e+01	2.363415e+01
9.600000e-07	1.728068e-06	4.818865e-10	1.211606e+01	3.167505e+01
9.700000e-07	1.853171e-06	6.231944e-10	1.299321e+01	3.980504e+01
9.800000e-07	1.977726e-06	7.512977e-10	1.386650e+01	4.798181e+01
9.900000e-07	2.101597e-06	8.631961e-10	1.473500e+01	5.615949e+01
1.000000e-06	2.224592e-06	9.799930e-10	1.559736e+01	6.429102e+01
1.010000e-06	2.346673e-06	1.113131e-09	1.645331e+01	7.233049e+01
1.020000e-06	2.467893e-06	1.244192e-09	1.730323e+01	8.023535e+01
1.030000e-06	2.588174e-06	1.354240e-09	1.814656e+01	8.796821e+01
1.040000e-06	2.707415e-06	1.451204e-09	1.898260e+01	9.549812e+01
1.050000e-06	2.825688e-06	1.557121e-09	1.981185e+01	1.028013e+02
1.060000e-06	2.942991e-06	1.675673e-09	2.063430e+01	1.098611e+02
1.070000e-06	3.059189e-06	1.787879e-09	2.144901e+01	1.166679e+02
1.080000e-06	3.174087e-06	1.880667e-09	2.225459e+01	1.232176e+02
1.090000e-06	3.287667e-06	1.965816e-09	2.305094e+01	1.295113e+02
1.100000e-06	3.400042e-06	2.061527e-09	2.383884e+01	1.355532e+02
1.110000e-06	3.511148e-06	2.164242e-09	2.461784e+01	1.413500e+02
1.120000e-06	3.621038e-06	2.255195e-09	2.538832e+01	1.469092e+02
1.130000e-06	3.729842e-06	2.327868e-09	2.615118e+01	1.522388e+02
1.140000e-06	3.837427e-06	2.395509e-09	2.690550e+01	1.573467e+02
1.150000e-06	3.943536e-06	2.473001e-09	2.764946e+01	1.622401e+02
1.160000e-06	4.048177e-06	2.554405e-09	2.838314e+01	1.669260e+02
1.170000e-06	4.151374e-06	2.622928e-09	2.910669e+01	1.714110e+02
1.180000e-06	4.253131e-06	2.677152e-09	2.982013e+01	1.757015e+02
1.190000e-06	4.353525e-06	2.733210e-09	3.052403e+01	1.798047e+02
1.200000e-06	4.452355e-06	2.799535e-09	3.121696e+01	1.837277e+02
1.210000e-06	4.549414e-06	2.864430e-09	3.189747e+01	1.874785e+02
1.220000e-06	4.644714e-06	2.916021e-09	3.256566e+01	1.910653e+02
1.230000e-06	4.738419e-06	2.957326e-09	3.322265e+01	1.944966e+02
1.240000e-06	4.830621e-06	3.003190e-09	3.386911e+01	1.977808e+02
1.250000e-06	4.921097e-06	3.057938e-09	3.450347e+01	2.009259e+02
1.260000e-06	5.009703e-06	3.109786e-09	3.512472e+01	2.039390e+02
1.270000e-06	5.096479e-06	3.148913e-09	3.573313e+01	2.068259e+02
1.280000e-06	5.181479e-06	3.181658e-09	3.632910e+01	2.095915e+02
1.290000e-06	5.264736e-06	3.221871e-09	3.691284e+01	2.122391e+02
1.300000e-06	5.346099e-06	3.270764e-09	3.748330e+01	2.147710e+02
1.310000e-06	5.425442e-06	3.313106e-09	3.803960e+01	2.171884e+02
1.320000e-06	5.502799e-06	3.341740e-09	3.858198e+01	2.194921e+02
1.330000e-06	5.578052e-06	3.366162e-09	3.910960e+01	2.216824e+02
1.340000e-06	5.651068e-06	3.396849e-09	3.962155e+01	2.237599e+02
1.350000e-06	5.722000e-06	3.430667e-09	4.011887e+01	2.257254e+02
1.360000e-06	5.790985e-06	3.459198e-09	4.060255e+01	2.275806e+02
1.370000e-06	5.857950e-06	3.479805e-09	4.107206e+01	2.293277e+02
1.380000e-06	5.922780e-06	3.500210e-09	4.152661e+01	2.309700e+02
1.390000e-06	5.985495e-06	3.527393e-09	4.196632e+01	2.325113e+02
1.400000e-06	6.046231e-06	3.556428e-09	4.239217e+01	2.339562e+02
1.410000e-06	6.104919e-06	3.577674e-09	4.280364e+01	2.353096e+02
1.420000e-06	6.161353e-06	3.591168e-09	4.319932e+01	2.365768e+02
1.430000e-06	6.215558e-06	3.605909e-09	4.357937e+01	2.377630e+02
1.440000e-06	6.267415e-06	3.625640e-09	4.394296e+01	2.388734e+02
1.450000e-06	6.316648e-06	3.645089e-09	4.428815e+01	2.399128e+02
1.460000e-06	6.363431e-06	3.657976e-09	4.461616e+01	2.408856e+02
1.470000e-06	6.408091e-06	3.667001e-09	4.492929e+01	2.417957e+02
1.480000e-06	6.450528e-06	3.678194e-09	4.522683e+01	2.426464e+02
1.490000e-06	6.490570e-06	3.693755e-09	4.550757e+01	2.434402e+02
1.500000e-06	6.528383e-06	3.708786e-09	4.577270e+01	2.441790e+02
1.510000e-06	6.564088e-06	3.717247e-09	4.602303e+01	2.448637e+02
1.520000e-06	6.597421e-06	3.722238e-09	4.625675e+01	2.454946e+02
1.530000e-06	6.628281e-06	3.729838e-09	4.647311e+01	2.460712e+02
1.540000e-06	6.656889e-06	3.740299e-09	4.667369e+01	2.465925e+02
1.550000e-06	6.683223e-06	3.748996e-09	4.685833e+01	2.470572e+02
1.560000e-06	6.707054e-06	3.752645e-09	4.702541e+01	2.474636e+02
1.570000e-06	6.728459e-06	3.754151e-09	4.717549e+01	2.478104e+02
1.580000e-06	6.747610e-06	3.757487e-09	4.730977e+01	2.480967e+02
1.590000e-06	6.764278e-06	3.762478e-09	4.742664e+01	2.483224e+02
1.600000e-06	6.778348e-06	3.767430e-09	4.752528e+01	2.484884e+02
1.610000e-06	6.789829e-06	3.771046e-09	4.760578e+01	2.485969e+02
1.620000e-06	6.798634e-06	3.772387e-09	4.766751e+01	2.486510e+02
1.630000e-06	6.804933e-06	3.773029e-09	4.771168e+01	2.486548e+02
1.640000e-06	6.808928e-06	3.773901e-09	4.773969e+01	2.486129e+02
1.650000e-06	6.810506e-06	3.775569e-09	4.775075e+01	2.485305e+02
1.660000e-06	6.809640e-06	3.774897e-09	4.774468e+01	2.484120e+02
1.670000e-06	6.806578e-06	3.765776e-09	4.772321e+01	2.482613e+02
1.680000e-06	6.801293e-06	3.759954e-09	4.768616e+01	2.480807e+02
1.690000e-06	6.793681e-06	3.758907e-09	4.763278e+01	2.478714e+02
1.700000e-06	6.783891e-06	3.760692e-09	4.756415e+01	2.476325e+02
1.710000e-06	6.771906e-06	3.761845e-09	4.748011e+01	2.473617e+02
1.720000e-06	6.757542e-06	3.765216e-09	4.737941e+01	2.470555e+02
1.730000e-06	6.740955e-06	3.780117e-09	4.726311e+01	2.467096e+02
1.740000e-06	6.722290e-06	3.739833e-09	4.713224e+01	2.463197e+02
1.750000e-06	6.700996e-06	3.700446e-09	4.698294e+01	2.458821e+02
1.760000e-06	6.676475e-06	3.712495e-09	4.681102e+01	2.453945e+02
1.770000e-06	6.649086e-06	3.719228e-09	4.661898e+01	2.448563e+02
1.780000e-06	6.619376e-06	3.739874e-09	4.641068e+01	2.442691e+02
1.790000e-06	6.587759e-06	3.778933e-09	4.618900e+01	2.436365e+02
1.800000e-06	6.554714e-06	3.638986e-09	4.595731e+01	2.429636e+02
1.810000e-06	6.519839e-06	3.586174e-09	4.571279e+01	2.422571e+02
1.820000e-06	6.482453e-06	3.691195e-09	4.545066e+01	2.415235e+02
1.830000e-06	6.442820e-06	3.638647e-09	4.517278e+01	2.407692e+02
1.840000e-06	6.401057e-06	3.698271e-09	4.487997e+01	2.399989e+02
1.850000e-06	6.357126e-06	3.623465e-09	4.457195e+01	2.392149e+02
1.860000e-06	6.311014e-06	3.530088e-09	4.424865e+01	2.384172e+02
1.870000e-06	6.262460e-06	3.674401e-09	4.390822e+01	2.376025e+02
1.880000e-06	6.211610e-06	3.668417e-09	4.355169e+01	2.367652e+02
1.890000e-06	6.158188e-06	3.677027e-09	4.317713e+01	2.358971e+02
1.900000e-06	6.102072e-06	3.595619e-09	4.278368e+01	2.349890e+02
1.910000e-06	6.043794e-06	3.480108e-09	4.237508e+01	2.340312e+02
1.920000e-06	5.983363e-06	3.558787e-09	4.195138e+01	2.330148e+02
1.930000e-06	5.920655e-06	3.561062e-09	4.151171e+01	2.319327e+02
1.940000e-06	5.855691e-06	3.559250e-09	4.105623e+01	2.307802e+02
1.950000e-06	5.788608e-06	3.461551e-09	4.058589e+01	2.295556e+02
1.960000e-06	5.719419e-06	3.407569e-09	4.010078e+01	2.282602e+02
1.970000e-06	5.647908e-06	3.466495e-09	3.959939e+01	2.268979e+02
1.980000e-06	5.574251e-06	3.447960e-09	3.908295e+01	2.254747e+02
1.990000e-06	5.498461e-06	3.479776e-09	3.855156e+01	2.239976e+02
2.000000e-06	5.420455e-06	3.387237e-09	3.800464e+01	2.224737e+02
2.010000e-06	5.340388e-06	3.328394e-09	3.744326e+01	2.209090e+02
2.020000e-06	5.258460e-06	3.366430e-09	3.686883e+01	2.193077e+02
2.030000e-06	5.174828e-06	3.387116e-09	3.628246e+01	2.176714e+02
2.040000e-06	5.089281e-06	3.352935e-09	3.568267e+01	2.159995e+02
2.050000e-06	5.001810e-06	3.220578e-09	3.506937e+01	2.142883e+02
2.060000e-06	4.912664e-06	3.205525e-09	3.444435e+01	2.125325e+02
2.070000e-06	4.821978e-06	3.245413e-09	3.380852e+01	2.107255e+02
2.080000e-06	4.729676e-06	3.249798e-09	3.316135e+01	2.088603e+02
2.090000e-06	4.635620e-06	3.160705e-09	3.250189e+01	2.069305e+02
2.100000e-06	4.539808e-06	3.067349e-09	3.183012e+01	2.049311e+02
2.110000e-06	4.442409e-06	3.071018e-09	3.114723e+01	2.028590e+02
2.120000e-06	4.343621e-06	3.090807e-09	3.045459e+01	2.007132e+02
2.130000e-06	4.243359e-06	3.074531e-09	2.975162e+01	1.984944e+02
2.140000e-06	4.141524e-06	2.982691e-09	2.903762e+01	1.962051e+02
2.150000e-06	4.038028e-06	2.916485e-09	2.831198e+01	1.938483e+02
2.160000e-06	3.933015e-06	2.918796e-09	2.757569e+01	1.914270e+02
2.170000e-06	3.826724e-06	2.939844e-09	2.683045e+01	1.889431e+02
2.180000e-06	3.719154e-06	2.893520e-09	2.607624e+01	1.863970e+02
2.190000e-06	3.610302e-06	2.800145e-09	2.531304e+01	1.837869e+02
2.200000e-06	3.500100e-06	2.750141e-09	2.454038e+01	1.811088e+02
2.210000e-06	3.388501e-06	2.750128e-09	2.375792e+01	1.783567e+02
2.220000e-06	3.275530e-06	2.730633e-09	2.296584e+01	1.755232e+02
2.230000e-06	3.161266e-06	2.646451e-09	2.216470e+01	1.726003e+02
2.240000e-06	3.045738e-06	2.560007e-09	2.135470e+01	1.695804e+02
2.250000e-06	2.928941e-06	2.523921e-09	2.053580e+01	1.664569e+02
2.260000e-06	2.811023e-06	2.519261e-09	1.970903e+01	1.632252e+02
2.270000e-06	2.691949e-06	2.468574e-09	1.887416e+01	1.598829e+02
2.280000e-06	2.571716e-06	2.376114e-09	1.803117e+01	1.564304e+02
2.290000e-06	2.450575e-06	2.307003e-09	1.718181e+01	1.528697e+02
2.300000e-06	2.328679e-06	2.286741e-09	1.632715e+01	1.492048e+02
2.310000e-06	2.206041e-06	2.259919e-09	1.546730e+01	1.454400e+02
2.320000e-06	2.082669e-06	2.184823e-09	1.460229e+01	1.415796e+02
2.330000e-06	1.958590e-06	2.097026e-09	1.373233e+01	1.376263e+02
2.340000e-06	1.833839e-06	2.041750e-09	1.285766e+01	1.335808e+02
2.350000e-06	1.708463e-06	2.006307e-09	1.197861e+01	1.294415e+02
2.360000e-06	1.582531e-06	1.942840e-09	1.109566e+01	1.252038e+02
2.370000e-06	1.456132e-06	1.852131e-09	1.020943e+01	1.208612e+02
2.380000e-06	1.329226e-06	1.770253e-09	9.319654e+00	1.164051e+02
2.390000e-06	1.201745e-06	1.714971e-09	8.425836e+00	1.118266e+02
2.400000e-06	1.073778e-06	1.654872e-09	7.528620e+00	1.071169e+02
2.410000e-06	9.453749e-07	1.565925e-09	6.628342e+00	1.022685e+02
2.420000e-06	8.166474e-07	1.470961e-09	5.725790e+00	9.727603e+01
2.430000e-06	6.877433e-07	1.399195e-09	4.822000e+00	9.213680e+01
2.440000e-06	5.586786e-07	1.339204e-09	3.917084e+00	8.685065e+01
2.450000e-06	4.294991e-07	1.256298e-09	3.011363e+00	8.141969e+01
2.460000e-06	3.001435e-07	1.152056e-09	2.104407e+00	7.584747e+01
2.470000e-06	1.706588e-07	1.062437e-09	1.196547e+00	7.013794e+01
2.480000e-06	4.112753e-08	9.952267e-10	2.883590e-01	6.429424e+01
2.490000e-06	-8.845321e-08	9.150099e-10	-6.201752e-01	5.831761e+01
2.500000e-06	-2.180363e-07	8.016213e-10	-1.528726e+00	5.220649e+01
2.510000e-06	-3.475869e-07	6.885839e-10	-2.437049e+00	4.595609e+01
2.520000e-06	-4.770202e-07	6.054304e-10	-3.344549e+00	3.955847e+01
2.530000e-06	-6.063150e-07	5.260947e-10	-4.251079e+00	3.300320e+01
2.540000e-06	-7.354626e-07	4.119595e-10	-5.156576e+00	2.627858e+01
2.550000e-06	-8.643757e-07	2.752065e-10	-6.060429e+00	1.937327e+01
2.560000e-06	-9.930466e-07	1.632188e-10	-6.962584e+00	1.227820e+01
2.570000e-06	-1.121369e-06	7.937830e-11	-7.862295e+00	4.988539e+00
2.580000e-06	-1.249202e-06	-2.233092e-11	-8.758578e+00	-2.494499e+00
2.590000e-06	-1.376524e-06	-1.616877e-10	-9.651271e+00	-1.016229e+01
2.600000e-06	-1.503281e-06	-3.031616e-10	-1.054001e+01	-1.799796e+01
2.610000e-06	-1.629459e-06	-4.095687e-10	-1.142469e+01	-2.597626e+01
2.620000e-06	-1.755074e-06	-5.017932e-10	-1.230541e+01	-3.406414e+01
2.630000e-06	-1.880009e-06	-6.250846e-10	-1.318138e+01	-4.222204e+01
2.640000e-06	-2.004129e-06	-7.765356e-10	-1.405162e+01	-5.040573e+01
2.650000e-06	-2.127441e-06	-9.119510e-10	-1.491621e+01	-5.856848e+01
2.660000e-06	-2.249915e-06	-1.013210e-09	-1.577491e+01	-6.666348e+01
2.670000e-06	-2.371560e-06	-1.114190e-09	-1.662780e+01	-7.464614e+01
2.680000e-06	-2.492470e-06	-1.245242e-09	-1.747555e+01	-8.247609e+01
2.690000e-06	-2.612485e-06	-1.387411e-09	-1.831702e+01	-9.011881e+01
2.700000e-06	-2.731333e-06	-1.503813e-09	-1.915030e+01	-9.754662e+01
2.710000e-06	-2.849049e-06	-1.591879e-09	-1.997564e+01	-1.047391e+02
2.720000e-06	-2.965644e-06	-1.686505e-09	-2.079313e+01	-1.116829e+02
2.730000e-06	-3.080982e-06	-1.806322e-09	-2.160180e+01	-1.183712e+02
2.740000e-06	-3.195045e-06	-1.923920e-09	-2.240153e+01	-1.248024e+02
2.750000e-06	-3.307750e-06	-2.011597e-09	-2.319175e+01	-1.309792e+02
2.760000e-06	-3.419103e-06	-2.078330e-09	-2.397249e+01	-1.369070e+02
2.770000e-06	-3.529143e-06	-2.157627e-09	-2.474401e+01	-1.425931e+02
2.780000e-06	-3.638071e-06	-2.257211e-09	-2.550774e+01	-1.480454e+02
2.790000e-06	-3.745917e-06	-2.349278e-09	-2.626389e+01	-1.532718e+02
2.800000e-06	-3.852539e-06	-2.414844e-09	-2.701145e+01	-1.582799e+02
2.810000e-06	-3.957902e-06	-2.469571e-09	-2.775018e+01	-1.630768e+02
2.820000e-06	-4.061821e-06	-2.540354e-09	-2.847880e+01	-1.676693e+02
2.830000e-06	-4.164198e-06	-2.625506e-09	-2.919660e+01	-1.720638e+02
2.840000e-06	-4.265053e-06	-2.699636e-09	-2.990372e+01	-1.762671e+02
2.850000e-06	-4.364391e-06	-2.750195e-09	-3.060022e+01	-1.802863e+02
2.860000e-06	-4.462232e-06	-2.795273e-09	-3.128621e+01	-1.841290e+02
2.870000e-06	-4.558593e-06	-2.856337e-09	-3.196183e+01	-1.878033e+02
2.880000e-06	-4.653307e-06	-2.926935e-09	-3.262591e+01	-1.913175e+02
2.890000e-06	-4.746369e-06	-2.983083e-09	-3.327839e+01	-1.946802e+02
2.900000e-06	-4.837748e-06	-3.019596e-09	-3.391908e+01	-1.978996e+02
2.910000e-06	-4.927373e-06	-3.056117e-09	-3.454747e+01	-2.009832e+02
2.920000e-06	-5.015201e-06	-3.108923e-09	-3.516327e+01	-2.039377e+02
2.930000e-06	-5.101107e-06	-3.165881e-09	-3.576558e+01	-2.067684e+02
2.940000e-06	-5.185128e-06	-3.205354e-09	-3.635468e+01	-2.094795e+02
