# Temperatura_=_20.0
# Concentracion g/m^3_=_12600.0
# C_Vs_to_Am_M_A/Vsm_=_65563218390.804596
# pendiente_HvsI_1/m_=_3716.3
# ordenada_HvsI_A/m_=_1297.0
# frecuencia_Hz_=_302065.31211360585

Tiempo_(s)	Campo_(V.s)	Magnetizacion_(V.s)	Campo_(kA/m)	Magnetizacion_(A/m)
0.000000e+00	-6.805539e-06	-3.696717e-09	-4.745281e+01	-2.430543e+02
1.000000e-08	-6.803415e-06	-3.703491e-09	-4.743800e+01	-2.429268e+02
2.000000e-08	-6.798955e-06	-3.702928e-09	-4.740690e+01	-2.427414e+02
3.000000e-08	-6.792341e-06	-3.698551e-09	-4.736079e+01	-2.424980e+02
4.000000e-08	-6.783501e-06	-3.694851e-09	-4.729915e+01	-2.421995e+02
5.000000e-08	-6.772214e-06	-3.689211e-09	-4.722045e+01	-2.418528e+02
6.000000e-08	-6.758427e-06	-3.683527e-09	-4.712432e+01	-2.414686e+02
7.000000e-08	-6.742239e-06	-3.665088e-09	-4.701144e+01	-2.410609e+02
8.000000e-08	-6.723870e-06	-3.647843e-09	-4.688336e+01	-2.406456e+02
9.000000e-08	-6.703377e-06	-3.708645e-09	-4.674047e+01	-2.402394e+02
1.000000e-07	-6.680300e-06	-3.745276e-09	-4.657956e+01	-2.398577e+02
1.100000e-07	-6.654398e-06	-3.693315e-09	-4.639895e+01	-2.395130e+02
1.200000e-07	-6.625938e-06	-3.654254e-09	-4.620051e+01	-2.392130e+02
1.300000e-07	-6.595302e-06	-3.623302e-09	-4.598690e+01	-2.389593e+02
1.400000e-07	-6.562752e-06	-3.551662e-09	-4.575994e+01	-2.387472e+02
1.500000e-07	-6.528321e-06	-3.616828e-09	-4.551986e+01	-2.385653e+02
1.600000e-07	-6.491933e-06	-3.765064e-09	-4.526614e+01	-2.383963e+02
1.700000e-07	-6.453503e-06	-3.580395e-09	-4.499818e+01	-2.382190e+02
1.800000e-07	-6.412888e-06	-3.582250e-09	-4.471498e+01	-2.380091e+02
1.900000e-07	-6.369790e-06	-3.660426e-09	-4.441448e+01	-2.377426e+02
2.000000e-07	-6.324329e-06	-3.568376e-09	-4.409749e+01	-2.373971e+02
2.100000e-07	-6.276549e-06	-3.675808e-09	-4.376434e+01	-2.369544e+02
2.200000e-07	-6.226004e-06	-3.616585e-09	-4.341190e+01	-2.364014e+02
2.300000e-07	-6.172861e-06	-3.520077e-09	-4.304135e+01	-2.357317e+02
2.400000e-07	-6.117410e-06	-3.532517e-09	-4.265471e+01	-2.349453e+02
2.500000e-07	-6.059603e-06	-3.537743e-09	-4.225164e+01	-2.340481e+02
2.600000e-07	-5.999524e-06	-3.584583e-09	-4.183273e+01	-2.330509e+02
2.700000e-07	-5.937302e-06	-3.543739e-09	-4.139888e+01	-2.319675e+02
2.800000e-07	-5.872886e-06	-3.467144e-09	-4.094972e+01	-2.308134e+02
2.900000e-07	-5.806231e-06	-3.433328e-09	-4.048496e+01	-2.296030e+02
3.000000e-07	-5.737423e-06	-3.473945e-09	-4.000519e+01	-2.283488e+02
3.100000e-07	-5.666554e-06	-3.509669e-09	-3.951104e+01	-2.270597e+02
3.200000e-07	-5.593486e-06	-3.417937e-09	-3.900156e+01	-2.257405e+02
3.300000e-07	-5.518111e-06	-3.387468e-09	-3.847599e+01	-2.243917e+02
3.400000e-07	-5.440497e-06	-3.378552e-09	-3.793481e+01	-2.230098e+02
3.500000e-07	-5.360701e-06	-3.384294e-09	-3.737843e+01	-2.215885e+02
3.600000e-07	-5.278908e-06	-3.388435e-09	-3.680811e+01	-2.201200e+02
3.700000e-07	-5.195326e-06	-3.316734e-09	-3.622532e+01	-2.185958e+02
3.800000e-07	-5.110035e-06	-3.266179e-09	-3.563062e+01	-2.170084e+02
3.900000e-07	-5.023092e-06	-3.257578e-09	-3.502439e+01	-2.153523e+02
4.000000e-07	-4.934475e-06	-3.287997e-09	-3.440649e+01	-2.136244e+02
4.100000e-07	-4.844124e-06	-3.258851e-09	-3.377650e+01	-2.118243e+02
4.200000e-07	-4.752025e-06	-3.183134e-09	-3.313432e+01	-2.099540e+02
4.300000e-07	-4.658250e-06	-3.127469e-09	-3.248046e+01	-2.080173e+02
4.400000e-07	-4.562876e-06	-3.130124e-09	-3.181545e+01	-2.060192e+02
4.500000e-07	-4.465773e-06	-3.155899e-09	-3.113839e+01	-2.039643e+02
4.600000e-07	-4.367000e-06	-3.105301e-09	-3.044967e+01	-2.018566e+02
4.700000e-07	-4.266727e-06	-3.020909e-09	-2.975050e+01	-1.996980e+02
4.800000e-07	-4.164960e-06	-2.977165e-09	-2.904091e+01	-1.974883e+02
4.900000e-07	-4.061773e-06	-2.986380e-09	-2.832143e+01	-1.952250e+02
5.000000e-07	-3.957045e-06	-2.979344e-09	-2.759119e+01	-1.929033e+02
5.100000e-07	-3.850739e-06	-2.919414e-09	-2.684995e+01	-1.905167e+02
5.200000e-07	-3.743024e-06	-2.845811e-09	-2.609889e+01	-1.880576e+02
5.300000e-07	-3.633977e-06	-2.809345e-09	-2.533854e+01	-1.855184e+02
5.400000e-07	-3.523725e-06	-2.805891e-09	-2.456979e+01	-1.828918e+02
5.500000e-07	-3.412213e-06	-2.777711e-09	-2.379225e+01	-1.801720e+02
5.600000e-07	-3.299267e-06	-2.708840e-09	-2.300472e+01	-1.773547e+02
5.700000e-07	-3.184787e-06	-2.636789e-09	-2.220649e+01	-1.744375e+02
5.800000e-07	-3.068853e-06	-2.605514e-09	-2.139812e+01	-1.714198e+02
5.900000e-07	-2.951748e-06	-2.587386e-09	-2.058158e+01	-1.683025e+02
6.000000e-07	-2.833660e-06	-2.538298e-09	-1.975819e+01	-1.650875e+02
6.100000e-07	-2.714628e-06	-2.459845e-09	-1.892822e+01	-1.617769e+02
6.200000e-07	-2.594538e-06	-2.397276e-09	-1.809087e+01	-1.583729e+02
6.300000e-07	-2.473397e-06	-2.364103e-09	-1.724619e+01	-1.548768e+02
6.400000e-07	-2.351358e-06	-2.327769e-09	-1.639526e+01	-1.512890e+02
6.500000e-07	-2.228456e-06	-2.265542e-09	-1.553830e+01	-1.476086e+02
6.600000e-07	-2.104686e-06	-2.189466e-09	-1.467529e+01	-1.438335e+02
6.700000e-07	-1.980135e-06	-2.126364e-09	-1.380684e+01	-1.399606e+02
6.800000e-07	-1.854962e-06	-2.078512e-09	-1.293405e+01	-1.359861e+02
6.900000e-07	-1.729246e-06	-2.026924e-09	-1.205747e+01	-1.319058e+02
7.000000e-07	-1.602998e-06	-1.955531e-09	-1.117718e+01	-1.277155e+02
7.100000e-07	-1.476228e-06	-1.880689e-09	-1.029326e+01	-1.234116e+02
7.200000e-07	-1.348965e-06	-1.815405e-09	-9.405893e+00	-1.189908e+02
7.300000e-07	-1.221278e-06	-1.753335e-09	-8.515576e+00	-1.144507e+02
7.400000e-07	-1.093146e-06	-1.683216e-09	-7.622148e+00	-1.097895e+02
7.500000e-07	-9.645031e-07	-1.606600e-09	-6.725166e+00	-1.050062e+02
7.600000e-07	-8.354515e-07	-1.530308e-09	-5.825332e+00	-1.001000e+02
7.700000e-07	-7.061310e-07	-1.452527e-09	-4.923622e+00	-9.507074e+01
7.800000e-07	-5.765916e-07	-1.374311e-09	-4.020386e+00	-8.991787e+01
7.900000e-07	-4.468866e-07	-1.294792e-09	-3.115995e+00	-8.464081e+01
8.000000e-07	-3.170726e-07	-1.211500e-09	-2.210844e+00	-7.923853e+01
8.100000e-07	-1.871869e-07	-1.124348e-09	-1.305194e+00	-7.370938e+01
8.200000e-07	-5.725713e-08	-1.037325e-09	-3.992353e-01	-6.805104e+01
8.300000e-07	7.272153e-08	-9.503848e-10	5.070636e-01	-6.226045e+01
8.400000e-07	2.027471e-07	-8.622802e-10	1.413690e+00	-5.633378e+01
8.500000e-07	3.327339e-07	-7.726829e-10	2.320045e+00	-5.026648e+01
8.600000e-07	4.625953e-07	-6.772713e-10	3.225527e+00	-4.405346e+01
8.700000e-07	5.923747e-07	-5.756680e-10	4.130437e+00	-3.768922e+01
8.800000e-07	7.220904e-07	-4.748090e-10	5.034902e+00	-3.116827e+01
8.900000e-07	8.516354e-07	-3.782551e-10	5.938177e+00	-2.448551e+01
9.000000e-07	9.809182e-07	-2.780691e-10	6.839624e+00	-1.763688e+01
9.100000e-07	1.109887e-06	-1.676941e-10	7.738881e+00	-1.062007e+01
9.200000e-07	1.238407e-06	-5.179293e-11	8.635011e+00	-3.435334e+00
9.300000e-07	1.366308e-06	5.959095e-11	9.526825e+00	3.913592e+00
9.400000e-07	1.493564e-06	1.653915e-10	1.041413e+01	1.141868e+01
9.500000e-07	1.620277e-06	2.764975e-10	1.129767e+01	1.906684e+01
9.600000e-07	1.746510e-06	3.991809e-10	1.217785e+01	2.683946e+01
9.700000e-07	1.872213e-06	5.251521e-10	1.305433e+01	3.471216e+01
9.800000e-07	1.997300e-06	6.432904e-10	1.392652e+01	4.265498e+01
9.900000e-07	2.121733e-06	7.569357e-10	1.479415e+01	5.063306e+01
1.000000e-06	2.245404e-06	8.786096e-10	1.565648e+01	5.860767e+01
1.010000e-06	2.368133e-06	1.011965e-09	1.651222e+01	6.653764e+01
1.020000e-06	2.489987e-06	1.141252e-09	1.736187e+01	7.438113e+01
1.030000e-06	2.610979e-06	1.255946e-09	1.820551e+01	8.209752e+01
1.040000e-06	2.730832e-06	1.361892e-09	1.904121e+01	8.964930e+01
1.050000e-06	2.849612e-06	1.471215e-09	1.986942e+01	9.700378e+01
1.060000e-06	2.967464e-06	1.585691e-09	2.069116e+01	1.041344e+02
1.070000e-06	3.084217e-06	1.695237e-09	2.150525e+01	1.110219e+02
1.080000e-06	3.199756e-06	1.790848e-09	2.231086e+01	1.176541e+02
1.090000e-06	3.314040e-06	1.878659e-09	2.310773e+01	1.240263e+02
1.100000e-06	3.427016e-06	1.973129e-09	2.389547e+01	1.301400e+02
1.110000e-06	3.538597e-06	2.073306e-09	2.467348e+01	1.360021e+02
1.120000e-06	3.648954e-06	2.165085e-09	2.544297e+01	1.416229e+02
1.130000e-06	3.758223e-06	2.240985e-09	2.620487e+01	1.470149e+02
1.140000e-06	3.866274e-06	2.312669e-09	2.695827e+01	1.521911e+02
1.150000e-06	3.972965e-06	2.392328e-09	2.770220e+01	1.571636e+02
1.160000e-06	4.078184e-06	2.473478e-09	2.843585e+01	1.619426e+02
1.170000e-06	4.181847e-06	2.542354e-09	2.915866e+01	1.665362e+02
1.180000e-06	4.284040e-06	2.600050e-09	2.987122e+01	1.709498e+02
1.190000e-06	4.384865e-06	2.659600e-09	3.057424e+01	1.751870e+02
1.200000e-06	4.484130e-06	2.727745e-09	3.126638e+01	1.792498e+02
1.210000e-06	4.581721e-06	2.795179e-09	3.194685e+01	1.831397e+02
1.220000e-06	4.677528e-06	2.850455e-09	3.261488e+01	1.868586e+02
1.230000e-06	4.771612e-06	2.895571e-09	3.327090e+01	1.904090e+02
1.240000e-06	4.864152e-06	2.944200e-09	3.391615e+01	1.937952e+02
1.250000e-06	4.955029e-06	2.998937e-09	3.454980e+01	1.970229e+02
1.260000e-06	5.044079e-06	3.050637e-09	3.517072e+01	2.000993e+02
1.270000e-06	5.131206e-06	3.090804e-09	3.577823e+01	2.030324e+02
1.280000e-06	5.216495e-06	3.126000e-09	3.637292e+01	2.058308e+02
1.290000e-06	5.300048e-06	3.168882e-09	3.695551e+01	2.085021e+02
1.300000e-06	5.381726e-06	3.217736e-09	3.752503e+01	2.110533e+02
1.310000e-06	5.461396e-06	3.260357e-09	3.808054e+01	2.134890e+02
1.320000e-06	5.539086e-06	3.289913e-09	3.862225e+01	2.158122e+02
1.330000e-06	5.614681e-06	3.316293e-09	3.914935e+01	2.180239e+02
1.340000e-06	5.687982e-06	3.349331e-09	3.966045e+01	2.201231e+02
1.350000e-06	5.759136e-06	3.384042e-09	4.015659e+01	2.221082e+02
1.360000e-06	5.828375e-06	3.412111e-09	4.063937e+01	2.239773e+02
1.370000e-06	5.895605e-06	3.433025e-09	4.110814e+01	2.257291e+02
1.380000e-06	5.960629e-06	3.455240e-09	4.156153e+01	2.273639e+02
1.390000e-06	6.023517e-06	3.483645e-09	4.200003e+01	2.288840e+02
1.400000e-06	6.084420e-06	3.511908e-09	4.242468e+01	2.302940e+02
1.410000e-06	6.143271e-06	3.533609e-09	4.283504e+01	2.316007e+02
1.420000e-06	6.199878e-06	3.548492e-09	4.322973e+01	2.328127e+02
1.430000e-06	6.254223e-06	3.564129e-09	4.360866e+01	2.339398e+02
1.440000e-06	6.306208e-06	3.583736e-09	4.397114e+01	2.349920e+02
1.450000e-06	6.355532e-06	3.601053e-09	4.431506e+01	2.359785e+02
1.460000e-06	6.402362e-06	3.611806e-09	4.464159e+01	2.369070e+02
1.470000e-06	6.447069e-06	3.620312e-09	4.495332e+01	2.377831e+02
1.480000e-06	6.489654e-06	3.632108e-09	4.525025e+01	2.386099e+02
1.490000e-06	6.529867e-06	3.647128e-09	4.553064e+01	2.393882e+02
1.500000e-06	6.567707e-06	3.660965e-09	4.579448e+01	2.401166e+02
1.510000e-06	6.603357e-06	3.670235e-09	4.604306e+01	2.407924e+02
1.520000e-06	6.636624e-06	3.677856e-09	4.627502e+01	2.414124e+02
1.530000e-06	6.667470e-06	3.686796e-09	4.649010e+01	2.419736e+02
1.540000e-06	6.696129e-06	3.697008e-09	4.668993e+01	2.424741e+02
1.550000e-06	6.722443e-06	3.705644e-09	4.687341e+01	2.429133e+02
1.560000e-06	6.746152e-06	3.709476e-09	4.703872e+01	2.432927e+02
1.570000e-06	6.767380e-06	3.711266e-09	4.718674e+01	2.436148e+02
1.580000e-06	6.786352e-06	3.715684e-09	4.731903e+01	2.438837e+02
1.590000e-06	6.802896e-06	3.722123e-09	4.743438e+01	2.441035e+02
1.600000e-06	6.816853e-06	3.727223e-09	4.753170e+01	2.442782e+02
1.610000e-06	6.828210e-06	3.729486e-09	4.761089e+01	2.444104e+02
1.620000e-06	6.836880e-06	3.730524e-09	4.767134e+01	2.445013e+02
1.630000e-06	6.843046e-06	3.731855e-09	4.771434e+01	2.445499e+02
1.640000e-06	6.846900e-06	3.733516e-09	4.774121e+01	2.445537e+02
1.650000e-06	6.848268e-06	3.736145e-09	4.775075e+01	2.445087e+02
1.660000e-06	6.847214e-06	3.733667e-09	4.774340e+01	2.444106e+02
1.670000e-06	6.844049e-06	3.721257e-09	4.772133e+01	2.442559e+02
1.680000e-06	6.838626e-06	3.715744e-09	4.768351e+01	2.440429e+02
1.690000e-06	6.830832e-06	3.713733e-09	4.762917e+01	2.437727e+02
1.700000e-06	6.820809e-06	3.712238e-09	4.755928e+01	2.434502e+02
1.710000e-06	6.808517e-06	3.713391e-09	4.747358e+01	2.430840e+02
1.720000e-06	6.793800e-06	3.723647e-09	4.737096e+01	2.426865e+02
1.730000e-06	6.776853e-06	3.730020e-09	4.725279e+01	2.422726e+02
1.740000e-06	6.757870e-06	3.639085e-09	4.712043e+01	2.418590e+02
1.750000e-06	6.736152e-06	3.597291e-09	4.696900e+01	2.414619e+02
1.760000e-06	6.711182e-06	3.644093e-09	4.679489e+01	2.410955e+02
1.770000e-06	6.683456e-06	3.650078e-09	4.660157e+01	2.407704e+02
1.780000e-06	6.653458e-06	3.702225e-09	4.639240e+01	2.404915e+02
1.790000e-06	6.621619e-06	3.776856e-09	4.617039e+01	2.402576e+02
1.800000e-06	6.588322e-06	3.579779e-09	4.593822e+01	2.400607e+02
1.810000e-06	6.553038e-06	3.583846e-09	4.569220e+01	2.398867e+02
1.820000e-06	6.515187e-06	3.733055e-09	4.542828e+01	2.397162e+02
1.830000e-06	6.475201e-06	3.618780e-09	4.514948e+01	2.395263e+02
1.840000e-06	6.433119e-06	3.739340e-09	4.485605e+01	2.392925e+02
1.850000e-06	6.388767e-06	3.630023e-09	4.454680e+01	2.389914e+02
1.860000e-06	6.342178e-06	3.507926e-09	4.422195e+01	2.386022e+02
1.870000e-06	6.293158e-06	3.706044e-09	4.388015e+01	2.381089e+02
1.880000e-06	6.241893e-06	3.680693e-09	4.352269e+01	2.375016e+02
1.890000e-06	6.188074e-06	3.720808e-09	4.314743e+01	2.367768e+02
1.900000e-06	6.131576e-06	3.591406e-09	4.275349e+01	2.359374e+02
1.910000e-06	6.072881e-06	3.470782e-09	4.234422e+01	2.349916e+02
1.920000e-06	6.011947e-06	3.612729e-09	4.191935e+01	2.339520e+02
1.930000e-06	5.948747e-06	3.589162e-09	4.147868e+01	2.328333e+02
1.940000e-06	5.883325e-06	3.625999e-09	4.102251e+01	2.316508e+02
1.950000e-06	5.815761e-06	3.504192e-09	4.055141e+01	2.304182e+02
1.960000e-06	5.745955e-06	3.439151e-09	4.006468e+01	2.291464e+02
1.970000e-06	5.673779e-06	3.500138e-09	3.956141e+01	2.278425e+02
1.980000e-06	5.599540e-06	3.473090e-09	3.904377e+01	2.265091e+02
1.990000e-06	5.523102e-06	3.524843e-09	3.851079e+01	2.251450e+02
2.000000e-06	5.444410e-06	3.376411e-09	3.796210e+01	2.237452e+02
2.010000e-06	5.363751e-06	3.329686e-09	3.739969e+01	2.223025e+02
2.020000e-06	5.281304e-06	3.396384e-09	3.682481e+01	2.208086e+02
2.030000e-06	5.197141e-06	3.421904e-09	3.623798e+01	2.192553e+02
2.040000e-06	5.111005e-06	3.371028e-09	3.563738e+01	2.176361e+02
2.050000e-06	5.022921e-06	3.212774e-09	3.502320e+01	2.159463e+02
2.060000e-06	4.933153e-06	3.225168e-09	3.439728e+01	2.141842e+02
2.070000e-06	4.841899e-06	3.274286e-09	3.376099e+01	2.123506e+02
2.080000e-06	4.749034e-06	3.291531e-09	3.311347e+01	2.104484e+02
2.090000e-06	4.654319e-06	3.182606e-09	3.245305e+01	2.084820e+02
2.100000e-06	4.557892e-06	3.076945e-09	3.178070e+01	2.064564e+02
2.110000e-06	4.459965e-06	3.098225e-09	3.109789e+01	2.043761e+02
2.120000e-06	4.360688e-06	3.137624e-09	3.040566e+01	2.022441e+02
2.130000e-06	4.259797e-06	3.120008e-09	2.970218e+01	2.000614e+02
2.140000e-06	4.157160e-06	2.997383e-09	2.898653e+01	1.978267e+02
2.150000e-06	4.052942e-06	2.930646e-09	2.825985e+01	1.955365e+02
2.160000e-06	3.947284e-06	2.944105e-09	2.752313e+01	1.931850e+02
2.170000e-06	3.840346e-06	2.967605e-09	2.677748e+01	1.907652e+02
2.180000e-06	3.732151e-06	2.900441e-09	2.602307e+01	1.882693e+02
2.190000e-06	3.622603e-06	2.795172e-09	2.525924e+01	1.856898e+02
2.200000e-06	3.511641e-06	2.755826e-09	2.448553e+01	1.830200e+02
2.210000e-06	3.399264e-06	2.774506e-09	2.370196e+01	1.802548e+02
2.220000e-06	3.285511e-06	2.756573e-09	2.290880e+01	1.773907e+02
2.230000e-06	3.170479e-06	2.661737e-09	2.210672e+01	1.744263e+02
2.240000e-06	3.054120e-06	2.576854e-09	2.129538e+01	1.713617e+02
2.250000e-06	2.936430e-06	2.553029e-09	2.047477e+01	1.681982e+02
2.260000e-06	2.817572e-06	2.553093e-09	1.964601e+01	1.649380e+02
2.270000e-06	2.697659e-06	2.494228e-09	1.880990e+01	1.615832e+02
2.280000e-06	2.576722e-06	2.400268e-09	1.796665e+01	1.581358e+02
2.290000e-06	2.454907e-06	2.330015e-09	1.711727e+01	1.545967e+02
2.300000e-06	2.332364e-06	2.302941e-09	1.626281e+01	1.509655e+02
2.310000e-06	2.209083e-06	2.270355e-09	1.540322e+01	1.472409e+02
2.320000e-06	2.085072e-06	2.199810e-09	1.453853e+01	1.434203e+02
2.330000e-06	1.960269e-06	2.115359e-09	1.366832e+01	1.395001e+02
2.340000e-06	1.834691e-06	2.052893e-09	1.279271e+01	1.354765e+02
2.350000e-06	1.708501e-06	2.008477e-09	1.191282e+01	1.313451e+02
2.360000e-06	1.581786e-06	1.947716e-09	1.102928e+01	1.271020e+02
2.370000e-06	1.454567e-06	1.869298e-09	1.014222e+01	1.227436e+02
2.380000e-06	1.326875e-06	1.792591e-09	9.251866e+00	1.182672e+02
2.390000e-06	1.198713e-06	1.730604e-09	8.358234e+00	1.136705e+02
2.400000e-06	1.070085e-06	1.666075e-09	7.461357e+00	1.089521e+02
2.410000e-06	9.410351e-07	1.590041e-09	6.561532e+00	1.041113e+02
2.420000e-06	8.116459e-07	1.510985e-09	5.659343e+00	9.914745e+01
2.430000e-06	6.820603e-07	1.432901e-09	4.755785e+00	9.406029e+01
2.440000e-06	5.523435e-07	1.354670e-09	3.851312e+00	8.884931e+01
2.450000e-06	4.224781e-07	1.271064e-09	2.945802e+00	8.351373e+01
2.460000e-06	2.924079e-07	1.184046e-09	2.038865e+00	7.805224e+01
2.470000e-06	1.621830e-07	1.099403e-09	1.130849e+00	7.246290e+01
2.480000e-06	3.193945e-08	1.014871e-09	2.227034e-01	6.674305e+01
2.490000e-06	-9.828204e-08	9.234849e-10	-6.852888e-01	6.088925e+01
2.500000e-06	-2.284858e-07	8.256708e-10	-1.593157e+00	5.489735e+01
2.510000e-06	-3.586542e-07	7.338360e-10	-2.500779e+00	4.876251e+01
2.520000e-06	-4.887517e-07	6.474813e-10	-3.407907e+00	4.247943e+01
2.530000e-06	-6.187054e-07	5.522011e-10	-4.314031e+00	3.604256e+01
2.540000e-06	-7.485035e-07	4.418144e-10	-5.219072e+00	2.944652e+01
2.550000e-06	-8.781238e-07	3.289922e-10	-6.122872e+00	2.268663e+01
2.560000e-06	-1.007409e-06	2.273109e-10	-7.024338e+00	1.575952e+01
2.570000e-06	-1.136265e-06	1.290604e-10	-7.922805e+00	8.663977e+00
2.580000e-06	-1.264745e-06	1.886957e-11	-8.818655e+00	1.401762e+00
2.590000e-06	-1.392769e-06	-1.057115e-10	-9.711325e+00	-6.021500e+00
2.600000e-06	-1.520204e-06	-2.301031e-10	-1.059989e+01	-1.359552e+01
2.610000e-06	-1.647012e-06	-3.395418e-10	-1.148408e+01	-2.130467e+01
2.620000e-06	-1.773225e-06	-4.441763e-10	-1.236412e+01	-2.912768e+01
2.630000e-06	-1.898886e-06	-5.653768e-10	-1.324032e+01	-3.703752e+01
2.640000e-06	-2.023814e-06	-7.013284e-10	-1.411140e+01	-4.500186e+01
2.650000e-06	-2.147827e-06	-8.272384e-10	-1.497610e+01	-5.298388e+01
2.660000e-06	-2.270899e-06	-9.329505e-10	-1.583424e+01	-6.094350e+01
2.670000e-06	-2.393114e-06	-1.039826e-09	-1.668640e+01	-6.883904e+01
2.680000e-06	-2.514557e-06	-1.165721e-09	-1.753319e+01	-7.662897e+01
2.690000e-06	-2.635090e-06	-1.298359e-09	-1.837362e+01	-8.427389e+01
2.700000e-06	-2.754495e-06	-1.413551e-09	-1.920620e+01	-9.173833e+01
2.710000e-06	-2.872821e-06	-1.507212e-09	-2.003125e+01	-9.899232e+01
2.720000e-06	-2.990082e-06	-1.602449e-09	-2.084887e+01	-1.060126e+02
2.730000e-06	-3.106068e-06	-1.716031e-09	-2.165760e+01	-1.127831e+02
2.740000e-06	-3.220692e-06	-1.830965e-09	-2.245684e+01	-1.192953e+02
2.750000e-06	-3.334004e-06	-1.923375e-09	-2.324692e+01	-1.255475e+02
2.760000e-06	-3.446051e-06	-1.995817e-09	-2.402819e+01	-1.315438e+02
2.770000e-06	-3.556739e-06	-2.076517e-09	-2.479998e+01	-1.372929e+02
2.780000e-06	-3.666151e-06	-2.176890e-09	-2.556288e+01	-1.428065e+02
2.790000e-06	-3.774416e-06	-2.272562e-09	-2.631778e+01	-1.480973e+02
2.800000e-06	-3.881426e-06	-2.341881e-09	-2.706393e+01	-1.531780e+02
2.810000e-06	-3.987144e-06	-2.397847e-09	-2.780106e+01	-1.580601e+02
2.820000e-06	-4.091457e-06	-2.467885e-09	-2.852840e+01	-1.627527e+02
2.830000e-06	-4.194231e-06	-2.553429e-09	-2.924501e+01	-1.672627e+02
2.840000e-06	-4.295489e-06	-2.628547e-09	-2.995105e+01	-1.715946e+02
2.850000e-06	-4.395200e-06	-2.679003e-09	-3.064630e+01	-1.757512e+02
2.860000e-06	-4.493436e-06	-2.725223e-09	-3.133127e+01	-1.797341e+02
2.870000e-06	-4.590223e-06	-2.789861e-09	-3.200613e+01	-1.835449e+02
2.880000e-06	-4.685355e-06	-2.862480e-09	-3.266946e+01	-1.871856e+02
2.890000e-06	-4.778764e-06	-2.917332e-09	-3.332077e+01	-1.906598e+02
2.900000e-06	-4.870434e-06	-2.953349e-09	-3.395995e+01	-1.939721e+02
2.910000e-06	-4.960350e-06	-2.993562e-09	-3.458691e+01	-1.971291e+02
2.920000e-06	-5.048520e-06	-3.050662e-09	-3.520169e+01	-2.001385e+02
2.930000e-06	-5.134841e-06	-3.107687e-09	-3.580358e+01	-2.030086e+02
2.940000e-06	-5.219217e-06	-3.145737e-09	-3.639190e+01	-2.057476e+02
