# Temperatura_=_20.0
# Concentracion g/m^3_=_12600.0
# C_Vs_to_Am_M_A/Vsm_=_65563218390.804596
# pendiente_HvsI_1/m_=_3716.3
# ordenada_HvsI_A/m_=_1297.0
# frecuencia_Hz_=_302063.1854632489

Tiempo_(s)	Campo_(V.s)	Magnetizacion_(V.s)	Campo_(kA/m)	Magnetizacion_(A/m)
0.000000e+00	-6.763217e-06	-3.733930e-09	-4.745331e+01	-2.463130e+02
1.000000e-08	-6.761212e-06	-3.742902e-09	-4.743924e+01	-2.461971e+02
2.000000e-08	-6.756878e-06	-3.746631e-09	-4.740883e+01	-2.460478e+02
3.000000e-08	-6.750430e-06	-3.741242e-09	-4.736359e+01	-2.458644e+02
4.000000e-08	-6.741790e-06	-3.733542e-09	-4.730297e+01	-2.456452e+02
5.000000e-08	-6.730753e-06	-3.726857e-09	-4.722553e+01	-2.453873e+02
6.000000e-08	-6.717209e-06	-3.723975e-09	-4.713050e+01	-2.450875e+02
7.000000e-08	-6.701181e-06	-3.707778e-09	-4.701803e+01	-2.447426e+02
8.000000e-08	-6.682944e-06	-3.681921e-09	-4.689008e+01	-2.443503e+02
9.000000e-08	-6.662640e-06	-3.727834e-09	-4.674762e+01	-2.439092e+02
1.000000e-07	-6.639854e-06	-3.774352e-09	-4.658774e+01	-2.434195e+02
1.100000e-07	-6.614263e-06	-3.732271e-09	-4.640819e+01	-2.428830e+02
1.200000e-07	-6.586059e-06	-3.692392e-09	-4.621030e+01	-2.423034e+02
1.300000e-07	-6.555701e-06	-3.664629e-09	-4.599730e+01	-2.416855e+02
1.400000e-07	-6.523464e-06	-3.581063e-09	-4.577111e+01	-2.410353e+02
1.500000e-07	-6.489354e-06	-3.609217e-09	-4.553178e+01	-2.403587e+02
1.600000e-07	-6.453298e-06	-3.789460e-09	-4.527879e+01	-2.396616e+02
1.700000e-07	-6.415230e-06	-3.634636e-09	-4.501170e+01	-2.389484e+02
1.800000e-07	-6.375053e-06	-3.578811e-09	-4.472980e+01	-2.382221e+02
1.900000e-07	-6.332378e-06	-3.645412e-09	-4.443038e+01	-2.374833e+02
2.000000e-07	-6.287292e-06	-3.563097e-09	-4.411404e+01	-2.367305e+02
2.100000e-07	-6.239994e-06	-3.678607e-09	-4.378217e+01	-2.359597e+02
2.200000e-07	-6.190005e-06	-3.627672e-09	-4.343143e+01	-2.351650e+02
2.300000e-07	-6.137367e-06	-3.524714e-09	-4.306210e+01	-2.343393e+02
2.400000e-07	-6.082408e-06	-3.524362e-09	-4.267649e+01	-2.334746e+02
2.500000e-07	-6.025130e-06	-3.503327e-09	-4.227461e+01	-2.325629e+02
2.600000e-07	-5.965546e-06	-3.580934e-09	-4.185654e+01	-2.315973e+02
2.700000e-07	-5.903756e-06	-3.576859e-09	-4.142300e+01	-2.305719e+02
2.800000e-07	-5.839845e-06	-3.465852e-09	-4.097458e+01	-2.294830e+02
2.900000e-07	-5.773705e-06	-3.404753e-09	-4.051051e+01	-2.283290e+02
3.000000e-07	-5.705387e-06	-3.451823e-09	-4.003117e+01	-2.271102e+02
3.100000e-07	-5.635062e-06	-3.518797e-09	-3.953774e+01	-2.258285e+02
3.200000e-07	-5.562639e-06	-3.431172e-09	-3.902960e+01	-2.244872e+02
3.300000e-07	-5.487915e-06	-3.374776e-09	-3.850530e+01	-2.230903e+02
3.400000e-07	-5.410970e-06	-3.350997e-09	-3.796542e+01	-2.216416e+02
3.500000e-07	-5.331895e-06	-3.351165e-09	-3.741061e+01	-2.201443e+02
3.600000e-07	-5.250660e-06	-3.376890e-09	-3.684063e+01	-2.186004e+02
3.700000e-07	-5.167598e-06	-3.316145e-09	-3.625783e+01	-2.170108e+02
3.800000e-07	-5.082911e-06	-3.250563e-09	-3.566364e+01	-2.153747e+02
3.900000e-07	-4.996570e-06	-3.217089e-09	-3.505784e+01	-2.136900e+02
4.000000e-07	-4.908613e-06	-3.248276e-09	-3.444070e+01	-2.119538e+02
4.100000e-07	-4.818921e-06	-3.249546e-09	-3.381139e+01	-2.101626e+02
4.200000e-07	-4.727421e-06	-3.179807e-09	-3.316939e+01	-2.083129e+02
4.300000e-07	-4.634257e-06	-3.103004e-09	-3.251571e+01	-2.064016e+02
4.400000e-07	-4.539532e-06	-3.087739e-09	-3.185108e+01	-2.044265e+02
4.500000e-07	-4.443207e-06	-3.125157e-09	-3.117523e+01	-2.023863e+02
4.600000e-07	-4.345175e-06	-3.096423e-09	-3.048740e+01	-2.002806e+02
4.700000e-07	-4.245512e-06	-3.012718e-09	-2.978813e+01	-1.981100e+02
4.800000e-07	-4.144369e-06	-2.949188e-09	-2.907847e+01	-1.958751e+02
4.900000e-07	-4.041816e-06	-2.946345e-09	-2.835892e+01	-1.935769e+02
5.000000e-07	-3.937838e-06	-2.954686e-09	-2.762937e+01	-1.912154e+02
5.100000e-07	-3.832352e-06	-2.909998e-09	-2.688924e+01	-1.887898e+02
5.200000e-07	-3.725322e-06	-2.829324e-09	-2.613827e+01	-1.862981e+02
5.300000e-07	-3.616881e-06	-2.774720e-09	-2.537741e+01	-1.837366e+02
5.400000e-07	-3.507266e-06	-2.767341e-09	-2.460831e+01	-1.811004e+02
5.500000e-07	-3.396531e-06	-2.752521e-09	-2.383136e+01	-1.783834e+02
5.600000e-07	-3.284514e-06	-2.696027e-09	-2.304540e+01	-1.755791e+02
5.700000e-07	-3.171031e-06	-2.618957e-09	-2.224916e+01	-1.726809e+02
5.800000e-07	-3.056008e-06	-2.571892e-09	-2.144211e+01	-1.696828e+02
5.900000e-07	-2.939642e-06	-2.551456e-09	-2.062565e+01	-1.665800e+02
6.000000e-07	-2.822240e-06	-2.515744e-09	-1.980191e+01	-1.633693e+02
6.100000e-07	-2.703930e-06	-2.445762e-09	-1.897180e+01	-1.600492e+02
6.200000e-07	-2.584642e-06	-2.375297e-09	-1.813483e+01	-1.566204e+02
6.300000e-07	-2.464334e-06	-2.331040e-09	-1.729070e+01	-1.530847e+02
6.400000e-07	-2.343135e-06	-2.293533e-09	-1.644033e+01	-1.494453e+02
6.500000e-07	-2.221053e-06	-2.237917e-09	-1.558376e+01	-1.457058e+02
6.600000e-07	-2.098058e-06	-2.165954e-09	-1.472078e+01	-1.418697e+02
6.700000e-07	-1.974281e-06	-2.099523e-09	-1.385231e+01	-1.379395e+02
6.800000e-07	-1.849829e-06	-2.044424e-09	-1.297910e+01	-1.339165e+02
6.900000e-07	-1.724802e-06	-1.988916e-09	-1.210187e+01	-1.298002e+02
7.000000e-07	-1.599254e-06	-1.920916e-09	-1.122098e+01	-1.255883e+02
7.100000e-07	-1.473224e-06	-1.852016e-09	-1.033670e+01	-1.212768e+02
7.200000e-07	-1.346752e-06	-1.789813e-09	-9.449326e+00	-1.168606e+02
7.300000e-07	-1.219850e-06	-1.724065e-09	-8.558934e+00	-1.123336e+02
7.400000e-07	-1.092547e-06	-1.647624e-09	-7.665728e+00	-1.076897e+02
7.500000e-07	-9.648310e-07	-1.572832e-09	-6.769622e+00	-1.029235e+02
7.600000e-07	-8.367079e-07	-1.506377e-09	-5.870662e+00	-9.803055e+01
7.700000e-07	-7.083016e-07	-1.431478e-09	-4.969714e+00	-9.300782e+01
7.800000e-07	-5.796945e-07	-1.342675e-09	-4.067358e+00	-8.785391e+01
7.900000e-07	-4.509223e-07	-1.255110e-09	-3.163843e+00	-8.256880e+01
8.000000e-07	-3.220358e-07	-1.180039e-09	-2.259526e+00	-7.715350e+01
8.100000e-07	-1.930186e-07	-1.107320e-09	-1.354292e+00	-7.160944e+01
8.200000e-07	-6.388783e-08	-1.021714e-09	-4.482613e-01	-6.593777e+01
8.300000e-07	6.535470e-08	-9.229204e-10	4.585535e-01	-6.013869e+01
8.400000e-07	1.946266e-07	-8.279472e-10	1.365574e+00	-5.421086e+01
8.500000e-07	3.238033e-07	-7.480826e-10	2.271927e+00	-4.815103e+01
8.600000e-07	4.528520e-07	-6.651811e-10	3.177382e+00	-4.195399e+01
8.700000e-07	5.817957e-07	-5.579990e-10	4.082100e+00	-3.561283e+01
8.800000e-07	7.106068e-07	-4.400281e-10	4.985888e+00	-2.911962e+01
8.900000e-07	8.392312e-07	-3.408142e-10	5.888366e+00	-2.246632e+01
9.000000e-07	9.675855e-07	-2.564603e-10	6.788948e+00	-1.564599e+01
9.100000e-07	1.095604e-06	-1.568536e-10	7.687178e+00	-8.654077e+00
9.200000e-07	1.223221e-06	-3.180521e-11	8.582583e+00	-1.489713e+00
9.300000e-07	1.350319e-06	9.308722e-11	9.474351e+00	5.843129e+00
9.400000e-07	1.476889e-06	1.972317e-10	1.036241e+01	1.333477e+01
9.500000e-07	1.602980e-06	2.961215e-10	1.124712e+01	2.096935e+01
9.600000e-07	1.728617e-06	4.161601e-10	1.212864e+01	2.872474e+01
9.700000e-07	1.853738e-06	5.570766e-10	1.300653e+01	3.657298e+01
9.800000e-07	1.978214e-06	6.878645e-10	1.387990e+01	4.448113e+01
9.900000e-07	2.101961e-06	7.956397e-10	1.474816e+01	5.241248e+01
1.000000e-06	2.224893e-06	9.018704e-10	1.561070e+01	6.032806e+01
1.010000e-06	2.346920e-06	1.030008e-09	1.646688e+01	6.818829e+01
1.020000e-06	2.468046e-06	1.168291e-09	1.731675e+01	7.595464e+01
1.030000e-06	2.588244e-06	1.288436e-09	1.816010e+01	8.359117e+01
1.040000e-06	2.707426e-06	1.386393e-09	1.899633e+01	9.106585e+01
1.050000e-06	2.825584e-06	1.486071e-09	1.982537e+01	9.835158e+01
1.060000e-06	2.942806e-06	1.603218e-09	2.064785e+01	1.054268e+02
1.070000e-06	3.058937e-06	1.724393e-09	2.146266e+01	1.122757e+02
1.080000e-06	3.173776e-06	1.826140e-09	2.226842e+01	1.188882e+02
1.090000e-06	3.287319e-06	1.909001e-09	2.306508e+01	1.252594e+02
1.100000e-06	3.399558e-06	1.996223e-09	2.385260e+01	1.313888e+02
1.110000e-06	3.510561e-06	2.098951e-09	2.463143e+01	1.372797e+02
1.120000e-06	3.620400e-06	2.199704e-09	2.540211e+01	1.429380e+02
1.130000e-06	3.729083e-06	2.278336e-09	2.616466e+01	1.483714e+02
1.140000e-06	3.836532e-06	2.343559e-09	2.691857e+01	1.535885e+02
1.150000e-06	3.942625e-06	2.418525e-09	2.766296e+01	1.585981e+02
1.160000e-06	4.047241e-06	2.504576e-09	2.839698e+01	1.634086e+02
1.170000e-06	4.150358e-06	2.581913e-09	2.912049e+01	1.680279e+02
1.180000e-06	4.252038e-06	2.641659e-09	2.983391e+01	1.724628e+02
1.190000e-06	4.352316e-06	2.695892e-09	3.053751e+01	1.767193e+02
1.200000e-06	4.451031e-06	2.760546e-09	3.123013e+01	1.808024e+02
1.210000e-06	4.548010e-06	2.831291e-09	3.191057e+01	1.847166e+02
1.220000e-06	4.643308e-06	2.892118e-09	3.257922e+01	1.884661e+02
1.230000e-06	4.736953e-06	2.937196e-09	3.323627e+01	1.920545e+02
1.240000e-06	4.828978e-06	2.980364e-09	3.388195e+01	1.954857e+02
1.250000e-06	4.919338e-06	3.033684e-09	3.451595e+01	1.987636e+02
1.260000e-06	5.007877e-06	3.091009e-09	3.513717e+01	2.018923e+02
1.270000e-06	5.094555e-06	3.135915e-09	3.574534e+01	2.048761e+02
1.280000e-06	5.179511e-06	3.168840e-09	3.634142e+01	2.077197e+02
1.290000e-06	5.262753e-06	3.205881e-09	3.692548e+01	2.104277e+02
1.300000e-06	5.344063e-06	3.253129e-09	3.749598e+01	2.130048e+02
1.310000e-06	5.423359e-06	3.298890e-09	3.805235e+01	2.154557e+02
1.320000e-06	5.500685e-06	3.331255e-09	3.859490e+01	2.177849e+02
1.330000e-06	5.575853e-06	3.355783e-09	3.912231e+01	2.199967e+02
1.340000e-06	5.648747e-06	3.385960e-09	3.963376e+01	2.220950e+02
1.350000e-06	5.719592e-06	3.422518e-09	4.013083e+01	2.240836e+02
1.360000e-06	5.788518e-06	3.455557e-09	4.061445e+01	2.259660e+02
1.370000e-06	5.855365e-06	3.479215e-09	4.108347e+01	2.277456e+02
1.380000e-06	5.919994e-06	3.499031e-09	4.153693e+01	2.294258e+02
1.390000e-06	5.982547e-06	3.525168e-09	4.197583e+01	2.310101e+02
1.400000e-06	6.043185e-06	3.555585e-09	4.240129e+01	2.325020e+02
1.410000e-06	6.101778e-06	3.580586e-09	4.281240e+01	2.339055e+02
1.420000e-06	6.158188e-06	3.596975e-09	4.320819e+01	2.352246e+02
1.430000e-06	6.212400e-06	3.610555e-09	4.358856e+01	2.364635e+02
1.440000e-06	6.264179e-06	3.628293e-09	4.395187e+01	2.376266e+02
1.450000e-06	6.313317e-06	3.649208e-09	4.429664e+01	2.387182e+02
1.460000e-06	6.359998e-06	3.666339e-09	4.462417e+01	2.397420e+02
1.470000e-06	6.404587e-06	3.678271e-09	4.493702e+01	2.407017e+02
1.480000e-06	6.447001e-06	3.689471e-09	4.523461e+01	2.416000e+02
1.490000e-06	6.486977e-06	3.704013e-09	4.551510e+01	2.424388e+02
1.500000e-06	6.524658e-06	3.720658e-09	4.577949e+01	2.432193e+02
1.510000e-06	6.560213e-06	3.732759e-09	4.602895e+01	2.439416e+02
1.520000e-06	6.593376e-06	3.740048e-09	4.626164e+01	2.446052e+02
1.530000e-06	6.624107e-06	3.747328e-09	4.647725e+01	2.452090e+02
1.540000e-06	6.652685e-06	3.756539e-09	4.667777e+01	2.457515e+02
1.550000e-06	6.678927e-06	3.766207e-09	4.686190e+01	2.462313e+02
1.560000e-06	6.702615e-06	3.772709e-09	4.702810e+01	2.466475e+02
1.570000e-06	6.723916e-06	3.776097e-09	4.717755e+01	2.469997e+02
1.580000e-06	6.742977e-06	3.779519e-09	4.731130e+01	2.472886e+02
1.590000e-06	6.759575e-06	3.784360e-09	4.742775e+01	2.475160e+02
1.600000e-06	6.773618e-06	3.790361e-09	4.752628e+01	2.476846e+02
1.610000e-06	6.785100e-06	3.795108e-09	4.760685e+01	2.477981e+02
1.620000e-06	6.793869e-06	3.796989e-09	4.766837e+01	2.478608e+02
1.630000e-06	6.800108e-06	3.796649e-09	4.771215e+01	2.478773e+02
1.640000e-06	6.804071e-06	3.796767e-09	4.773995e+01	2.478521e+02
1.650000e-06	6.805610e-06	3.800792e-09	4.775075e+01	2.477889e+02
1.660000e-06	6.804730e-06	3.802035e-09	4.774457e+01	2.476906e+02
1.670000e-06	6.801674e-06	3.790862e-09	4.772313e+01	2.475586e+02
1.680000e-06	6.796342e-06	3.784719e-09	4.768572e+01	2.473930e+02
1.690000e-06	6.788672e-06	3.782587e-09	4.763191e+01	2.471928e+02
1.700000e-06	6.778832e-06	3.782792e-09	4.756287e+01	2.469554e+02
1.710000e-06	6.766759e-06	3.785260e-09	4.747816e+01	2.466779e+02
1.720000e-06	6.752220e-06	3.793399e-09	4.737615e+01	2.463570e+02
1.730000e-06	6.735468e-06	3.809044e-09	4.725861e+01	2.459898e+02
1.740000e-06	6.716801e-06	3.729828e-09	4.712763e+01	2.455744e+02
1.750000e-06	6.695530e-06	3.670101e-09	4.697839e+01	2.451100e+02
1.760000e-06	6.670920e-06	3.711606e-09	4.680571e+01	2.445977e+02
1.770000e-06	6.643429e-06	3.722535e-09	4.661283e+01	2.440401e+02
1.780000e-06	6.613644e-06	3.757173e-09	4.640384e+01	2.434415e+02
1.790000e-06	6.582021e-06	3.855692e-09	4.618197e+01	2.428073e+02
1.800000e-06	6.549015e-06	3.670528e-09	4.595038e+01	2.421436e+02
1.810000e-06	6.514087e-06	3.589762e-09	4.570532e+01	2.414562e+02
1.820000e-06	6.476596e-06	3.719259e-09	4.544226e+01	2.407506e+02
1.830000e-06	6.436928e-06	3.611189e-09	4.516394e+01	2.400306e+02
1.840000e-06	6.395206e-06	3.734230e-09	4.487120e+01	2.392980e+02
1.850000e-06	6.351290e-06	3.643720e-09	4.456307e+01	2.385525e+02
1.860000e-06	6.305171e-06	3.458864e-09	4.423948e+01	2.377913e+02
1.870000e-06	6.256624e-06	3.640821e-09	4.389886e+01	2.370097e+02
1.880000e-06	6.205874e-06	3.618109e-09	4.354277e+01	2.362011e+02
1.890000e-06	6.152580e-06	3.690486e-09	4.316885e+01	2.353577e+02
1.900000e-06	6.096544e-06	3.607932e-09	4.277567e+01	2.344716e+02
1.910000e-06	6.038340e-06	3.409567e-09	4.236729e+01	2.335351e+02
1.920000e-06	5.977941e-06	3.536166e-09	4.194351e+01	2.325418e+02
1.930000e-06	5.915246e-06	3.549592e-09	4.150362e+01	2.314867e+02
1.940000e-06	5.850289e-06	3.606818e-09	4.104786e+01	2.303672e+02
1.950000e-06	5.783219e-06	3.503851e-09	4.057727e+01	2.291824e+02
1.960000e-06	5.714062e-06	3.378592e-09	4.009203e+01	2.279334e+02
1.970000e-06	5.642581e-06	3.430260e-09	3.959049e+01	2.266231e+02
1.980000e-06	5.569002e-06	3.415855e-09	3.907424e+01	2.252550e+02
1.990000e-06	5.493288e-06	3.521134e-09	3.854300e+01	2.238330e+02
2.000000e-06	5.415254e-06	3.391553e-09	3.799549e+01	2.223608e+02
2.010000e-06	5.335170e-06	3.260356e-09	3.743358e+01	2.208411e+02
2.020000e-06	5.253271e-06	3.311895e-09	3.685895e+01	2.192755e+02
2.030000e-06	5.169661e-06	3.378301e-09	3.627231e+01	2.176639e+02
2.040000e-06	5.084169e-06	3.385799e-09	3.567247e+01	2.160050e+02
2.050000e-06	4.996714e-06	3.196554e-09	3.505885e+01	2.142963e+02
2.060000e-06	4.907532e-06	3.157294e-09	3.443311e+01	2.125344e+02
2.070000e-06	4.816877e-06	3.216268e-09	3.379704e+01	2.107159e+02
2.080000e-06	4.724658e-06	3.260897e-09	3.315000e+01	2.088374e+02
2.090000e-06	4.630612e-06	3.179659e-09	3.249014e+01	2.068962e+02
2.100000e-06	4.534785e-06	3.043002e-09	3.181778e+01	2.048904e+02
2.110000e-06	4.437411e-06	3.031422e-09	3.113456e+01	2.028193e+02
2.120000e-06	4.338692e-06	3.066359e-09	3.044192e+01	2.006828e+02
2.130000e-06	4.238537e-06	3.092054e-09	2.973919e+01	1.984817e+02
2.140000e-06	4.136680e-06	2.992923e-09	2.902452e+01	1.962168e+02
2.150000e-06	4.033068e-06	2.892385e-09	2.829754e+01	1.938886e+02
2.160000e-06	3.928003e-06	2.874678e-09	2.756036e+01	1.914970e+02
2.170000e-06	3.821731e-06	2.911833e-09	2.681472e+01	1.890405e+02
2.180000e-06	3.714213e-06	2.888672e-09	2.606033e+01	1.865164e+02
2.190000e-06	3.605454e-06	2.784311e-09	2.529724e+01	1.839203e+02
2.200000e-06	3.495334e-06	2.710336e-09	2.452459e+01	1.812469e+02
2.210000e-06	3.383834e-06	2.707516e-09	2.374227e+01	1.784896e+02
2.220000e-06	3.271016e-06	2.714416e-09	2.295069e+01	1.756420e+02
2.230000e-06	3.156856e-06	2.644786e-09	2.214971e+01	1.726976e+02
2.240000e-06	3.041365e-06	2.552192e-09	2.133938e+01	1.696508e+02
2.250000e-06	2.924647e-06	2.504577e-09	2.052044e+01	1.664976e+02
2.260000e-06	2.806802e-06	2.502876e-09	1.969359e+01	1.632356e+02
2.270000e-06	2.687729e-06	2.462184e-09	1.885813e+01	1.598644e+02
2.280000e-06	2.567561e-06	2.376949e-09	1.801499e+01	1.563850e+02
2.290000e-06	2.446544e-06	2.301197e-09	1.716588e+01	1.528002e+02
2.300000e-06	2.324768e-06	2.263765e-09	1.631146e+01	1.491133e+02
2.310000e-06	2.202269e-06	2.230800e-09	1.545195e+01	1.453280e+02
2.320000e-06	2.079067e-06	2.163945e-09	1.458753e+01	1.414474e+02
2.330000e-06	1.955087e-06	2.082918e-09	1.371764e+01	1.374736e+02
2.340000e-06	1.830398e-06	2.021058e-09	1.284277e+01	1.334069e+02
2.350000e-06	1.705123e-06	1.977042e-09	1.196379e+01	1.292460e+02
2.360000e-06	1.579336e-06	1.911080e-09	1.108122e+01	1.249879e+02
2.370000e-06	1.453020e-06	1.827369e-09	1.019494e+01	1.206280e+02
2.380000e-06	1.326090e-06	1.754621e-09	9.304351e+00	1.161605e+02
2.390000e-06	1.198619e-06	1.701769e-09	8.409969e+00	1.115794e+02
2.400000e-06	1.070713e-06	1.637002e-09	7.512529e+00	1.068789e+02
2.410000e-06	9.424246e-07	1.544721e-09	6.612410e+00	1.020537e+02
2.420000e-06	8.138167e-07	1.455677e-09	5.710048e+00	9.710024e+01
2.430000e-06	6.850314e-07	1.391584e-09	4.806441e+00	9.201614e+01
2.440000e-06	5.561050e-07	1.332464e-09	3.901845e+00	8.680069e+01
2.450000e-06	4.270184e-07	1.244413e-09	2.996123e+00	8.145443e+01
2.460000e-06	2.977619e-07	1.135086e-09	2.089211e+00	7.597862e+01
2.470000e-06	1.683440e-07	1.044749e-09	1.181166e+00	7.037466e+01
2.480000e-06	3.885634e-08	9.822335e-10	2.726309e-01	6.464334e+01
2.490000e-06	-9.060735e-08	9.055757e-10	-6.357357e-01	5.878421e+01
2.500000e-06	-2.200555e-07	7.889916e-10	-1.543993e+00	5.279507e+01
2.510000e-06	-3.495089e-07	6.721538e-10	-2.452288e+00	4.667175e+01
2.520000e-06	-4.788762e-07	5.926713e-10	-3.359978e+00	4.040818e+01
2.530000e-06	-6.081245e-07	5.241073e-10	-4.266833e+00	3.399690e+01
2.540000e-06	-7.372537e-07	4.199129e-10	-5.172853e+00	2.742978e+01
2.550000e-06	-8.661703e-07	2.857886e-10	-6.077381e+00	2.069913e+01
2.560000e-06	-9.947881e-07	1.697558e-10	-6.979812e+00	1.379895e+01
2.570000e-06	-1.122987e-06	8.649686e-11	-7.879302e+00	6.726261e+00
2.580000e-06	-1.250696e-06	-2.234561e-12	-8.775358e+00	-5.176978e-01
2.590000e-06	-1.377880e-06	-1.310907e-10	-9.667733e+00	-7.926392e+00
2.600000e-06	-1.504548e-06	-2.788253e-10	-1.055648e+01	-1.548731e+01
2.610000e-06	-1.630653e-06	-3.946502e-10	-1.144128e+01	-2.318165e+01
2.620000e-06	-1.756109e-06	-4.781127e-10	-1.232153e+01	-3.098450e+01
2.630000e-06	-1.880917e-06	-5.812263e-10	-1.319723e+01	-3.886546e+01
2.640000e-06	-2.004971e-06	-7.247952e-10	-1.406764e+01	-4.678967e+01
2.650000e-06	-2.128137e-06	-8.700583e-10	-1.493182e+01	-5.471917e+01
2.660000e-06	-2.250442e-06	-9.766315e-10	-1.578995e+01	-6.261450e+01
2.670000e-06	-2.371972e-06	-1.064815e-09	-1.664266e+01	-7.043636e+01
2.680000e-06	-2.492713e-06	-1.180971e-09	-1.748982e+01	-7.814724e+01
2.690000e-06	-2.612553e-06	-1.325263e-09	-1.833067e+01	-8.571288e+01
2.700000e-06	-2.731332e-06	-1.454973e-09	-1.916407e+01	-9.310343e+01
2.710000e-06	-2.848959e-06	-1.544285e-09	-1.998938e+01	-1.002943e+02
2.720000e-06	-2.965395e-06	-1.621781e-09	-2.080634e+01	-1.072666e+02
2.730000e-06	-3.080629e-06	-1.727959e-09	-2.161487e+01	-1.140072e+02
2.740000e-06	-3.194625e-06	-1.853943e-09	-2.241471e+01	-1.205086e+02
2.750000e-06	-3.307254e-06	-1.956303e-09	-2.320495e+01	-1.267678e+02
2.760000e-06	-3.418483e-06	-2.022661e-09	-2.398538e+01	-1.327865e+02
2.770000e-06	-3.528396e-06	-2.089502e-09	-2.475657e+01	-1.385691e+02
2.780000e-06	-3.637169e-06	-2.187108e-09	-2.551976e+01	-1.441225e+02
2.790000e-06	-3.744872e-06	-2.295163e-09	-2.627545e+01	-1.494549e+02
2.800000e-06	-3.851371e-06	-2.374157e-09	-2.702268e+01	-1.545751e+02
2.810000e-06	-3.956575e-06	-2.424954e-09	-2.776084e+01	-1.594918e+02
2.820000e-06	-4.060346e-06	-2.482902e-09	-2.848893e+01	-1.642132e+02
2.830000e-06	-4.162548e-06	-2.568239e-09	-2.920602e+01	-1.687467e+02
2.840000e-06	-4.263208e-06	-2.655401e-09	-2.991229e+01	-1.730986e+02
2.850000e-06	-4.362410e-06	-2.712084e-09	-3.060833e+01	-1.772745e+02
2.860000e-06	-4.460176e-06	-2.750195e-09	-3.129429e+01	-1.812792e+02
2.870000e-06	-4.556460e-06	-2.804545e-09	-3.196986e+01	-1.851170e+02
2.880000e-06	-4.651149e-06	-2.881633e-09	-3.263423e+01	-1.887918e+02
2.890000e-06	-4.744130e-06	-2.949248e-09	-3.328662e+01	-1.923073e+02
2.900000e-06	-4.835376e-06	-2.988126e-09	-3.392684e+01	-1.956674e+02
2.910000e-06	-4.924936e-06	-3.018017e-09	-3.455522e+01	-1.988760e+02
2.920000e-06	-5.012732e-06	-3.066998e-09	-3.517124e+01	-2.019374e+02
2.930000e-06	-5.098574e-06	-3.130877e-09	-3.577354e+01	-2.048561e+02
2.940000e-06	-5.182485e-06	-3.180643e-09	-3.636229e+01	-2.076367e+02
