# Temperatura_=_20.0
# Concentracion g/m^3_=_9000.0
# C_Vs_to_Am_M_A/Vsm_=_65563218390.804596
# pendiente_HvsI_1/m_=_3716.3
# ordenada_HvsI_A/m_=_1297.0
# frecuencia_Hz_=_300868.23210981296

Tiempo_(s)	Campo_(V.s)	Magnetizacion_(V.s)	Campo_(kA/m)	Magnetizacion_(A/m)
0.000000e+00	-5.326706e-06	-8.767900e-09	-3.829729e+01	-5.748980e+02
1.000000e-08	-5.324968e-06	-8.769848e-09	-3.828479e+01	-5.747959e+02
2.000000e-08	-5.321388e-06	-8.768047e-09	-3.825906e+01	-5.746376e+02
3.000000e-08	-5.316143e-06	-8.764665e-09	-3.822134e+01	-5.744259e+02
4.000000e-08	-5.309287e-06	-8.758757e-09	-3.817205e+01	-5.741646e+02
5.000000e-08	-5.300752e-06	-8.752701e-09	-3.811069e+01	-5.738572e+02
6.000000e-08	-5.290168e-06	-8.748959e-09	-3.803459e+01	-5.735069e+02
7.000000e-08	-5.277644e-06	-8.736342e-09	-3.794455e+01	-5.731158e+02
8.000000e-08	-5.263201e-06	-8.721463e-09	-3.784071e+01	-5.726847e+02
9.000000e-08	-5.246550e-06	-8.762638e-09	-3.772100e+01	-5.722124e+02
1.000000e-07	-5.227844e-06	-8.789660e-09	-3.758650e+01	-5.716959e+02
1.100000e-07	-5.207243e-06	-8.757167e-09	-3.743839e+01	-5.711308e+02
1.200000e-07	-5.184806e-06	-8.719255e-09	-3.727707e+01	-5.705116e+02
1.300000e-07	-5.160769e-06	-8.636543e-09	-3.710425e+01	-5.698325e+02
1.400000e-07	-5.135122e-06	-8.612147e-09	-3.691986e+01	-5.690881e+02
1.500000e-07	-5.107854e-06	-8.756028e-09	-3.672382e+01	-5.682741e+02
1.600000e-07	-5.079101e-06	-8.686451e-09	-3.651709e+01	-5.673879e+02
1.700000e-07	-5.048874e-06	-8.578299e-09	-3.629977e+01	-5.664289e+02
1.800000e-07	-5.016861e-06	-8.633457e-09	-3.606960e+01	-5.653985e+02
1.900000e-07	-4.982758e-06	-8.577896e-09	-3.582441e+01	-5.642997e+02
2.000000e-07	-4.947107e-06	-8.637479e-09	-3.556809e+01	-5.631364e+02
2.100000e-07	-4.909910e-06	-8.664766e-09	-3.530066e+01	-5.619130e+02
2.200000e-07	-4.870833e-06	-8.489153e-09	-3.501971e+01	-5.606329e+02
2.300000e-07	-4.829905e-06	-8.492139e-09	-3.472545e+01	-5.592983e+02
2.400000e-07	-4.787081e-06	-8.575609e-09	-3.441756e+01	-5.579092e+02
2.500000e-07	-4.742532e-06	-8.535623e-09	-3.409727e+01	-5.564632e+02
2.600000e-07	-4.696305e-06	-8.477090e-09	-3.376491e+01	-5.549558e+02
2.700000e-07	-4.648157e-06	-8.381286e-09	-3.341874e+01	-5.533804e+02
2.800000e-07	-4.597923e-06	-8.407640e-09	-3.305758e+01	-5.517294e+02
2.900000e-07	-4.545797e-06	-8.448596e-09	-3.268281e+01	-5.499950e+02
3.000000e-07	-4.492004e-06	-8.374351e-09	-3.229605e+01	-5.481702e+02
3.100000e-07	-4.436683e-06	-8.300027e-09	-3.189831e+01	-5.462496e+02
3.200000e-07	-4.379666e-06	-8.281991e-09	-3.148838e+01	-5.442304e+02
3.300000e-07	-4.320895e-06	-8.286256e-09	-3.106584e+01	-5.421123e+02
3.400000e-07	-4.260686e-06	-8.244611e-09	-3.063295e+01	-5.398979e+02
3.500000e-07	-4.199077e-06	-8.210306e-09	-3.019001e+01	-5.375917e+02
3.600000e-07	-4.136033e-06	-8.144180e-09	-2.973674e+01	-5.351998e+02
3.700000e-07	-4.071438e-06	-8.093215e-09	-2.927232e+01	-5.327285e+02
3.800000e-07	-4.005201e-06	-8.120172e-09	-2.879610e+01	-5.301835e+02
3.900000e-07	-3.937502e-06	-8.079111e-09	-2.830937e+01	-5.275685e+02
4.000000e-07	-3.868371e-06	-7.981562e-09	-2.781234e+01	-5.248849e+02
4.100000e-07	-3.797915e-06	-7.949617e-09	-2.730578e+01	-5.221309e+02
4.200000e-07	-3.726418e-06	-7.949719e-09	-2.679173e+01	-5.193018e+02
4.300000e-07	-3.653592e-06	-7.903368e-09	-2.626814e+01	-5.163901e+02
4.400000e-07	-3.579016e-06	-7.815648e-09	-2.573197e+01	-5.133865e+02
4.500000e-07	-3.502854e-06	-7.769809e-09	-2.518438e+01	-5.102806e+02
4.600000e-07	-3.425386e-06	-7.739753e-09	-2.462741e+01	-5.070619e+02
4.700000e-07	-3.346557e-06	-7.685911e-09	-2.406066e+01	-5.037209e+02
4.800000e-07	-3.266322e-06	-7.630367e-09	-2.348380e+01	-5.002495e+02
4.900000e-07	-3.184819e-06	-7.569738e-09	-2.289782e+01	-4.966416e+02
5.000000e-07	-3.102201e-06	-7.517332e-09	-2.230382e+01	-4.928928e+02
5.100000e-07	-3.018737e-06	-7.463184e-09	-2.170374e+01	-4.890001e+02
5.200000e-07	-2.934476e-06	-7.406428e-09	-2.109794e+01	-4.849615e+02
5.300000e-07	-2.849200e-06	-7.333449e-09	-2.048482e+01	-4.807744e+02
5.400000e-07	-2.762869e-06	-7.257116e-09	-1.986413e+01	-4.764356e+02
5.500000e-07	-2.675732e-06	-7.196276e-09	-1.923765e+01	-4.719399e+02
5.600000e-07	-2.587825e-06	-7.133545e-09	-1.860562e+01	-4.672798e+02
5.700000e-07	-2.498817e-06	-7.054583e-09	-1.796569e+01	-4.624452e+02
5.800000e-07	-2.408572e-06	-6.962817e-09	-1.731685e+01	-4.574241e+02
5.900000e-07	-2.317368e-06	-6.890511e-09	-1.666113e+01	-4.522024e+02
6.000000e-07	-2.225510e-06	-6.816710e-09	-1.600070e+01	-4.467653e+02
6.100000e-07	-2.133041e-06	-6.720235e-09	-1.533587e+01	-4.410973e+02
6.200000e-07	-2.039823e-06	-6.618383e-09	-1.466566e+01	-4.351838e+02
6.300000e-07	-1.945795e-06	-6.530051e-09	-1.398963e+01	-4.290109e+02
6.400000e-07	-1.851119e-06	-6.439139e-09	-1.330894e+01	-4.225657e+02
6.500000e-07	-1.755932e-06	-6.330824e-09	-1.262458e+01	-4.158358e+02
6.600000e-07	-1.660172e-06	-6.221799e-09	-1.193610e+01	-4.088086e+02
6.700000e-07	-1.563616e-06	-6.113818e-09	-1.124189e+01	-4.014704e+02
6.800000e-07	-1.466257e-06	-5.999412e-09	-1.054191e+01	-3.938044e+02
6.900000e-07	-1.368287e-06	-5.874491e-09	-9.837541e+00	-3.857901e+02
7.000000e-07	-1.269780e-06	-5.745701e-09	-9.129310e+00	-3.774013e+02
7.100000e-07	-1.170803e-06	-5.607844e-09	-8.417698e+00	-3.686059e+02
7.200000e-07	-1.071491e-06	-5.463697e-09	-7.703675e+00	-3.593651e+02
7.300000e-07	-9.719131e-07	-5.318205e-09	-6.987740e+00	-3.496336e+02
7.400000e-07	-8.720635e-07	-5.160752e-09	-6.269854e+00	-3.393607e+02
7.500000e-07	-7.719638e-07	-4.988173e-09	-5.550169e+00	-3.284909e+02
7.600000e-07	-6.716277e-07	-4.808260e-09	-4.828785e+00	-3.169658e+02
7.700000e-07	-5.710852e-07	-4.624399e-09	-4.105918e+00	-3.047254e+02
7.800000e-07	-4.703350e-07	-4.424621e-09	-3.381556e+00	-2.917103e+02
7.900000e-07	-3.693795e-07	-4.208827e-09	-2.655719e+00	-2.778625e+02
8.000000e-07	-2.682847e-07	-3.984637e-09	-1.928880e+00	-2.631269e+02
8.100000e-07	-1.670896e-07	-3.750789e-09	-1.201320e+00	-2.474520e+02
8.200000e-07	-6.579858e-08	-3.496288e-09	-4.730705e-01	-2.307905e+02
8.300000e-07	3.554823e-08	-3.219787e-09	2.555802e-01	-2.131002e+02
8.400000e-07	1.368414e-07	-2.931728e-09	9.838455e-01	-1.943443e+02
8.500000e-07	2.380794e-07	-2.630372e-09	1.711714e+00	-1.744927e+02
8.600000e-07	3.392290e-07	-2.309254e-09	2.438946e+00	-1.535238e+02
8.700000e-07	4.402241e-07	-1.968484e-09	3.165069e+00	-1.314264e+02
8.800000e-07	5.411024e-07	-1.612111e-09	3.890351e+00	-1.082034e+02
8.900000e-07	6.417874e-07	-1.238868e-09	4.614244e+00	-8.387474e+01
9.000000e-07	7.422357e-07	-8.499824e-10	5.336434e+00	-5.848212e+01
9.100000e-07	8.424418e-07	-4.471139e-10	6.056884e+00	-3.209244e+01
9.200000e-07	9.423844e-07	-3.133632e-11	6.775439e+00	-4.801476e+00
9.300000e-07	1.042063e-06	3.957264e-10	7.492092e+00	2.326376e+01
9.400000e-07	1.141402e-06	8.304282e-10	8.206314e+00	5.194416e+01
9.500000e-07	1.240389e-06	1.268902e-09	8.917993e+00	8.104963e+01
9.600000e-07	1.339011e-06	1.714790e-09	9.627053e+00	1.103623e+02
9.700000e-07	1.437061e-06	2.163376e-09	1.033200e+01	1.396422e+02
9.800000e-07	1.534447e-06	2.603726e-09	1.103218e+01	1.686349e+02
9.900000e-07	1.631103e-06	3.033469e-09	1.172710e+01	1.970805e+02
1.000000e-06	1.726979e-06	3.456608e-09	1.241642e+01	2.247248e+02
1.010000e-06	1.822243e-06	3.865592e-09	1.310134e+01	2.513295e+02
1.020000e-06	1.916947e-06	4.252313e-09	1.378223e+01	2.766826e+02
1.030000e-06	2.011014e-06	4.617014e-09	1.445854e+01	3.006077e+02
1.040000e-06	2.104370e-06	4.956960e-09	1.512974e+01	3.229709e+02
1.050000e-06	2.197038e-06	5.270736e-09	1.579599e+01	3.436849e+02
1.060000e-06	2.289022e-06	5.555948e-09	1.645733e+01	3.627112e+02
1.070000e-06	2.380329e-06	5.813982e-09	1.711380e+01	3.800578e+02
1.080000e-06	2.470946e-06	6.046038e-09	1.776530e+01	3.957757e+02
1.090000e-06	2.560587e-06	6.257368e-09	1.840979e+01	4.099519e+02
1.100000e-06	2.649007e-06	6.451197e-09	1.904550e+01	4.227012e+02
1.110000e-06	2.736370e-06	6.623606e-09	1.967362e+01	4.341571e+02
1.120000e-06	2.822875e-06	6.777519e-09	2.029556e+01	4.444624e+02
1.130000e-06	2.908449e-06	6.918925e-09	2.091081e+01	4.537608e+02
1.140000e-06	2.993045e-06	7.051883e-09	2.151903e+01	4.621889e+02
1.150000e-06	3.076771e-06	7.173402e-09	2.212099e+01	4.698714e+02
1.160000e-06	3.159617e-06	7.281364e-09	2.271662e+01	4.769164e+02
1.170000e-06	3.241244e-06	7.377326e-09	2.330349e+01	4.834148e+02
1.180000e-06	3.321510e-06	7.468053e-09	2.388058e+01	4.894396e+02
1.190000e-06	3.400566e-06	7.553645e-09	2.444896e+01	4.950476e+02
1.200000e-06	3.478460e-06	7.631727e-09	2.500900e+01	5.002826e+02
1.210000e-06	3.555167e-06	7.703890e-09	2.556050e+01	5.051780e+02
1.220000e-06	3.630595e-06	7.771966e-09	2.610280e+01	5.097599e+02
1.230000e-06	3.704570e-06	7.835639e-09	2.663466e+01	5.140505e+02
1.240000e-06	3.776931e-06	7.894324e-09	2.715491e+01	5.180699e+02
1.250000e-06	3.847820e-06	7.950054e-09	2.766458e+01	5.218376e+02
1.260000e-06	3.917438e-06	8.001444e-09	2.816511e+01	5.253732e+02
1.270000e-06	3.985774e-06	8.048294e-09	2.865642e+01	5.286963e+02
1.280000e-06	4.052831e-06	8.091349e-09	2.913854e+01	5.318261e+02
1.290000e-06	4.118341e-06	8.133138e-09	2.960953e+01	5.347805e+02
1.300000e-06	4.182169e-06	8.172850e-09	3.006844e+01	5.375753e+02
1.310000e-06	4.244576e-06	8.210341e-09	3.051713e+01	5.402236e+02
1.320000e-06	4.305635e-06	8.246431e-09	3.095612e+01	5.427358e+02
1.330000e-06	4.365373e-06	8.281456e-09	3.138562e+01	5.451192e+02
1.340000e-06	4.423652e-06	8.315800e-09	3.180463e+01	5.473788e+02
1.350000e-06	4.480138e-06	8.347499e-09	3.221074e+01	5.495182e+02
1.360000e-06	4.534904e-06	8.376454e-09	3.260449e+01	5.515400e+02
1.370000e-06	4.588109e-06	8.402718e-09	3.298702e+01	5.534473e+02
1.380000e-06	4.639552e-06	8.427219e-09	3.335687e+01	5.552438e+02
1.390000e-06	4.688944e-06	8.451045e-09	3.371199e+01	5.569346e+02
1.400000e-06	4.736399e-06	8.474644e-09	3.405317e+01	5.585264e+02
1.410000e-06	4.782216e-06	8.498102e-09	3.438258e+01	5.600269e+02
1.420000e-06	4.826450e-06	8.520508e-09	3.470061e+01	5.614444e+02
1.430000e-06	4.869028e-06	8.541362e-09	3.500673e+01	5.627874e+02
1.440000e-06	4.909721e-06	8.560686e-09	3.529930e+01	5.640635e+02
1.450000e-06	4.948629e-06	8.578631e-09	3.557904e+01	5.652790e+02
1.460000e-06	4.985952e-06	8.595443e-09	3.584738e+01	5.664383e+02
1.470000e-06	5.021639e-06	8.611637e-09	3.610396e+01	5.675437e+02
1.480000e-06	5.055566e-06	8.627058e-09	3.634788e+01	5.685956e+02
1.490000e-06	5.087578e-06	8.642556e-09	3.657804e+01	5.695928e+02
1.500000e-06	5.117762e-06	8.657876e-09	3.679505e+01	5.705329e+02
1.510000e-06	5.146300e-06	8.672431e-09	3.700023e+01	5.714131e+02
1.520000e-06	5.173178e-06	8.685806e-09	3.719347e+01	5.722308e+02
1.530000e-06	5.198064e-06	8.698399e-09	3.737240e+01	5.729840e+02
1.540000e-06	5.220935e-06	8.710034e-09	3.753683e+01	5.736716e+02
1.550000e-06	5.242082e-06	8.719910e-09	3.768887e+01	5.742937e+02
1.560000e-06	5.261561e-06	8.728615e-09	3.782892e+01	5.748513e+02
1.570000e-06	5.279156e-06	8.736053e-09	3.795542e+01	5.753461e+02
1.580000e-06	5.294742e-06	8.744103e-09	3.806748e+01	5.757799e+02
1.590000e-06	5.308423e-06	8.752341e-09	3.816584e+01	5.761546e+02
1.600000e-06	5.320154e-06	8.758815e-09	3.825018e+01	5.764713e+02
1.610000e-06	5.329740e-06	8.763979e-09	3.831911e+01	5.767308e+02
1.620000e-06	5.337275e-06	8.768713e-09	3.837328e+01	5.769328e+02
1.630000e-06	5.343017e-06	8.772750e-09	3.841456e+01	5.770769e+02
1.640000e-06	5.347053e-06	8.773767e-09	3.844358e+01	5.771622e+02
1.650000e-06	5.349222e-06	8.775329e-09	3.845917e+01	5.771881e+02
1.660000e-06	5.349337e-06	8.777095e-09	3.846000e+01	5.771545e+02
1.670000e-06	5.347613e-06	8.773334e-09	3.844761e+01	5.770624e+02
1.680000e-06	5.344321e-06	8.770060e-09	3.842394e+01	5.769137e+02
1.690000e-06	5.339376e-06	8.767792e-09	3.838838e+01	5.767111e+02
1.700000e-06	5.332507e-06	8.767279e-09	3.833900e+01	5.764581e+02
1.710000e-06	5.323882e-06	8.765242e-09	3.827699e+01	5.761584e+02
1.720000e-06	5.313719e-06	8.760782e-09	3.820392e+01	5.758153e+02
1.730000e-06	5.301919e-06	8.767847e-09	3.811908e+01	5.754312e+02
1.740000e-06	5.288266e-06	8.745934e-09	3.802092e+01	5.750071e+02
1.750000e-06	5.272413e-06	8.674348e-09	3.790694e+01	5.745420e+02
1.760000e-06	5.254089e-06	8.667920e-09	3.777519e+01	5.740334e+02
1.770000e-06	5.233233e-06	8.679491e-09	3.762525e+01	5.734771e+02
1.780000e-06	5.210200e-06	8.739267e-09	3.745965e+01	5.728678e+02
1.790000e-06	5.185942e-06	8.812624e-09	3.728525e+01	5.721996e+02
1.800000e-06	5.160909e-06	8.629744e-09	3.710527e+01	5.714669e+02
1.810000e-06	5.134263e-06	8.607381e-09	3.691369e+01	5.706654e+02
1.820000e-06	5.105515e-06	8.718535e-09	3.670700e+01	5.697919e+02
1.830000e-06	5.075180e-06	8.623546e-09	3.648890e+01	5.688457e+02
1.840000e-06	5.043152e-06	8.693243e-09	3.625863e+01	5.678276e+02
1.850000e-06	5.008939e-06	8.638568e-09	3.601265e+01	5.667405e+02
1.860000e-06	4.973044e-06	8.464602e-09	3.575458e+01	5.655882e+02
1.870000e-06	4.935576e-06	8.640322e-09	3.548519e+01	5.643749e+02
1.880000e-06	4.896199e-06	8.633011e-09	3.520208e+01	5.631045e+02
1.890000e-06	4.855046e-06	8.480936e-09	3.490620e+01	5.617793e+02
1.900000e-06	4.812108e-06	8.514683e-09	3.459750e+01	5.603998e+02
1.910000e-06	4.767735e-06	8.497244e-09	3.427847e+01	5.589640e+02
1.920000e-06	4.721799e-06	8.576952e-09	3.394820e+01	5.574677e+02
1.930000e-06	4.673850e-06	8.513019e-09	3.360347e+01	5.559048e+02
1.940000e-06	4.624215e-06	8.376838e-09	3.324661e+01	5.542676e+02
1.950000e-06	4.573010e-06	8.456414e-09	3.287846e+01	5.525484e+02
1.960000e-06	4.519958e-06	8.398953e-09	3.249703e+01	5.507400e+02
1.970000e-06	4.464888e-06	8.381808e-09	3.210110e+01	5.488365e+02
1.980000e-06	4.408133e-06	8.371347e-09	3.169305e+01	5.468348e+02
1.990000e-06	4.349926e-06	8.268173e-09	3.127456e+01	5.447340e+02
2.000000e-06	4.290199e-06	8.258009e-09	3.084514e+01	5.425363e+02
2.010000e-06	4.229149e-06	8.244303e-09	3.040621e+01	5.402458e+02
2.020000e-06	4.166521e-06	8.261578e-09	2.995593e+01	5.378685e+02
2.030000e-06	4.102115e-06	8.138156e-09	2.949288e+01	5.354107e+02
2.040000e-06	4.036199e-06	8.071124e-09	2.901896e+01	5.328782e+02
2.050000e-06	3.968909e-06	8.135135e-09	2.853517e+01	5.302754e+02
2.060000e-06	3.900356e-06	8.057797e-09	2.804229e+01	5.276038e+02
2.070000e-06	3.830208e-06	7.993958e-09	2.753796e+01	5.248624e+02
2.080000e-06	3.758399e-06	7.930273e-09	2.702167e+01	5.220469e+02
2.090000e-06	3.685343e-06	7.924323e-09	2.649642e+01	5.191504e+02
2.100000e-06	3.611025e-06	7.888712e-09	2.596210e+01	5.161637e+02
2.110000e-06	3.535343e-06	7.803512e-09	2.541797e+01	5.130766e+02
2.120000e-06	3.458187e-06	7.786173e-09	2.486324e+01	5.098785e+02
2.130000e-06	3.379551e-06	7.722777e-09	2.429788e+01	5.065598e+02
2.140000e-06	3.299671e-06	7.669859e-09	2.372356e+01	5.031119e+02
2.150000e-06	3.218610e-06	7.615404e-09	2.314076e+01	4.995285e+02
2.160000e-06	3.136421e-06	7.566826e-09	2.254985e+01	4.958049e+02
2.170000e-06	3.053180e-06	7.499408e-09	2.195138e+01	4.919378e+02
2.180000e-06	2.969016e-06	7.424305e-09	2.134626e+01	4.879251e+02
2.190000e-06	2.883886e-06	7.387841e-09	2.073421e+01	4.837646e+02
2.200000e-06	2.797488e-06	7.317605e-09	2.011303e+01	4.794530e+02
2.210000e-06	2.709877e-06	7.238325e-09	1.948314e+01	4.749855e+02
2.220000e-06	2.621331e-06	7.171902e-09	1.884652e+01	4.703551e+02
2.230000e-06	2.531953e-06	7.121634e-09	1.820392e+01	4.655523e+02
2.240000e-06	2.441750e-06	7.039568e-09	1.755539e+01	4.605652e+02
2.250000e-06	2.350780e-06	6.942819e-09	1.690134e+01	4.553802e+02
2.260000e-06	2.259128e-06	6.873995e-09	1.624240e+01	4.499824e+02
2.270000e-06	2.166819e-06	6.794266e-09	1.557873e+01	4.443565e+02
2.280000e-06	2.073698e-06	6.695866e-09	1.490922e+01	4.384877e+02
2.290000e-06	1.979628e-06	6.598104e-09	1.423288e+01	4.323618e+02
2.300000e-06	1.884679e-06	6.511407e-09	1.355023e+01	4.259659e+02
2.310000e-06	1.789006e-06	6.409466e-09	1.286237e+01	4.192875e+02
2.320000e-06	1.692765e-06	6.296771e-09	1.217043e+01	4.123141e+02
2.330000e-06	1.596024e-06	6.190627e-09	1.147490e+01	4.050323e+02
2.340000e-06	1.498759e-06	6.079954e-09	1.077559e+01	3.974260e+02
2.350000e-06	1.400951e-06	5.957696e-09	1.007239e+01	3.894754e+02
2.360000e-06	1.302696e-06	5.833569e-09	9.365960e+00	3.811554e+02
2.370000e-06	1.204094e-06	5.707897e-09	8.657048e+00	3.724350e+02
2.380000e-06	1.105103e-06	5.564303e-09	7.945330e+00	3.632766e+02
2.390000e-06	1.005753e-06	5.411591e-09	7.231036e+00	3.536361e+02
2.400000e-06	9.061334e-07	5.260702e-09	6.514805e+00	3.434636e+02
2.410000e-06	8.062506e-07	5.099288e-09	5.796681e+00	3.327044e+02
2.420000e-06	7.061427e-07	4.921930e-09	5.076937e+00	3.213004e+02
2.430000e-06	6.058357e-07	4.738889e-09	4.355762e+00	3.091919e+02
2.440000e-06	5.053736e-07	4.551729e-09	3.633473e+00	2.963192e+02
2.450000e-06	4.047893e-07	4.345164e-09	2.910304e+00	2.826240e+02
2.460000e-06	3.040361e-07	4.117461e-09	2.185921e+00	2.680506e+02
2.470000e-06	2.031584e-07	3.882554e-09	1.460643e+00	2.525467e+02
2.480000e-06	1.022723e-07	3.637296e-09	7.353045e-01	2.360644e+02
2.490000e-06	1.349178e-09	3.371634e-09	9.700156e-03	2.185605e+02
2.500000e-06	-9.958942e-08	3.088071e-09	-7.160157e-01	1.999970e+02
2.510000e-06	-2.004966e-07	2.791317e-09	-1.441506e+00	1.803427e+02
2.520000e-06	-3.013494e-07	2.478900e-09	-2.166605e+00	1.595742e+02
2.530000e-06	-4.020736e-07	2.147418e-09	-2.890779e+00	1.376784e+02
2.540000e-06	-5.026484e-07	1.795909e-09	-3.613879e+00	1.146552e+02
2.550000e-06	-6.030034e-07	1.425442e-09	-4.335399e+00	9.052135e+01
2.560000e-06	-7.031477e-07	1.038238e-09	-5.055405e+00	6.531435e+01
2.570000e-06	-8.031288e-07	6.381400e-10	-5.774236e+00	3.909632e+01
2.580000e-06	-9.029016e-07	2.266526e-10	-6.491570e+00	1.195767e+01
2.590000e-06	-1.002327e-06	-2.012082e-10	-7.206409e+00	-1.598029e+01
2.600000e-06	-1.101360e-06	-6.424258e-10	-7.918424e+00	-4.456417e+01
2.610000e-06	-1.200037e-06	-1.084957e-09	-8.627878e+00	-7.360921e+01
2.620000e-06	-1.298319e-06	-1.526098e-09	-9.334495e+00	-1.029022e+02
2.630000e-06	-1.396152e-06	-1.971168e-09	-1.003788e+01	-1.322066e+02
2.640000e-06	-1.493516e-06	-2.417545e-09	-1.073790e+01	-1.612698e+02
2.650000e-06	-1.590476e-06	-2.854010e-09	-1.143500e+01	-1.898323e+02
2.660000e-06	-1.686992e-06	-3.275690e-09	-1.212893e+01	-2.176380e+02
2.670000e-06	-1.783012e-06	-3.684267e-09	-1.281928e+01	-2.444450e+02
2.680000e-06	-1.878453e-06	-4.078289e-09	-1.350547e+01	-2.700359e+02
2.690000e-06	-1.973091e-06	-4.454353e-09	-1.418589e+01	-2.942274e+02
2.700000e-06	-2.066764e-06	-4.806231e-09	-1.485936e+01	-3.168775e+02
2.710000e-06	-2.159511e-06	-5.127201e-09	-1.552618e+01	-3.378905e+02
2.720000e-06	-2.251514e-06	-5.419809e-09	-1.618765e+01	-3.572191e+02
2.730000e-06	-2.342815e-06	-5.689030e-09	-1.684408e+01	-3.748634e+02
2.740000e-06	-2.433302e-06	-5.934033e-09	-1.749465e+01	-3.908669e+02
2.750000e-06	-2.522852e-06	-6.155209e-09	-1.813849e+01	-4.053109e+02
2.760000e-06	-2.611547e-06	-6.354812e-09	-1.877617e+01	-4.183059e+02
2.770000e-06	-2.699528e-06	-6.536478e-09	-1.940873e+01	-4.299826e+02
2.780000e-06	-2.786592e-06	-6.701365e-09	-2.003470e+01	-4.404831e+02
2.790000e-06	-2.872485e-06	-6.848257e-09	-2.065224e+01	-4.499512e+02
2.800000e-06	-2.957231e-06	-6.980146e-09	-2.126154e+01	-4.585254e+02
2.810000e-06	-3.040965e-06	-7.100687e-09	-2.186356e+01	-4.663328e+02
2.820000e-06	-3.123680e-06	-7.210792e-09	-2.245825e+01	-4.734848e+02
2.830000e-06	-3.205316e-06	-7.309728e-09	-2.304518e+01	-4.800752e+02
2.840000e-06	-3.285901e-06	-7.399818e-09	-2.362456e+01	-4.861801e+02
2.850000e-06	-3.365427e-06	-7.485316e-09	-2.419633e+01	-4.918593e+02
2.860000e-06	-3.443603e-06	-7.565713e-09	-2.475839e+01	-4.971585e+02
2.870000e-06	-3.520285e-06	-7.641712e-09	-2.530971e+01	-5.021126e+02
2.880000e-06	-3.595528e-06	-7.714522e-09	-2.585068e+01	-5.067490e+02
2.890000e-06	-3.669367e-06	-7.783387e-09	-2.638156e+01	-5.110904e+02
2.900000e-06	-3.742002e-06	-7.848230e-09	-2.690378e+01	-5.151570e+02
2.910000e-06	-3.813361e-06	-7.908829e-09	-2.741683e+01	-5.189685e+02
2.920000e-06	-3.883156e-06	-7.966208e-09	-2.791864e+01	-5.225443e+02
2.930000e-06	-3.951451e-06	-8.020437e-09	-2.840965e+01	-5.259042e+02
2.940000e-06	-4.018397e-06	-8.071413e-09	-2.889097e+01	-5.290674e+02
