# Temperatura_=_20.0
# Concentracion g/m^3_=_9000.0
# C_Vs_to_Am_M_A/Vsm_=_65563218390.804596
# pendiente_HvsI_1/m_=_3716.3
# ordenada_HvsI_A/m_=_1297.0
# frecuencia_Hz_=_300869.2609869738

Tiempo_(s)	Campo_(V.s)	Magnetizacion_(V.s)	Campo_(kA/m)	Magnetizacion_(A/m)
0.000000e+00	-5.331155e-06	-8.807049e-09	-3.829584e+01	-5.766198e+02
1.000000e-08	-5.329533e-06	-8.807771e-09	-3.828420e+01	-5.765564e+02
2.000000e-08	-5.326045e-06	-8.807106e-09	-3.825913e+01	-5.764424e+02
3.000000e-08	-5.320893e-06	-8.803321e-09	-3.822213e+01	-5.762783e+02
4.000000e-08	-5.314137e-06	-8.798170e-09	-3.817360e+01	-5.760645e+02
5.000000e-08	-5.305659e-06	-8.795581e-09	-3.811269e+01	-5.758006e+02
6.000000e-08	-5.295187e-06	-8.793789e-09	-3.803747e+01	-5.754858e+02
7.000000e-08	-5.282747e-06	-8.784349e-09	-3.794811e+01	-5.751186e+02
8.000000e-08	-5.268321e-06	-8.776472e-09	-3.784448e+01	-5.746971e+02
9.000000e-08	-5.251756e-06	-8.800801e-09	-3.772549e+01	-5.742187e+02
1.000000e-07	-5.233135e-06	-8.809891e-09	-3.759173e+01	-5.736811e+02
1.100000e-07	-5.212627e-06	-8.791727e-09	-3.744441e+01	-5.730820e+02
1.200000e-07	-5.190320e-06	-8.764180e-09	-3.728417e+01	-5.724196e+02
1.300000e-07	-5.166310e-06	-8.693804e-09	-3.711169e+01	-5.716930e+02
1.400000e-07	-5.140720e-06	-8.683516e-09	-3.692787e+01	-5.709024e+02
1.500000e-07	-5.113610e-06	-8.769141e-09	-3.673313e+01	-5.700489e+02
1.600000e-07	-5.084962e-06	-8.702144e-09	-3.652734e+01	-5.691348e+02
1.700000e-07	-5.054765e-06	-8.654020e-09	-3.631042e+01	-5.681629e+02
1.800000e-07	-5.022754e-06	-8.675956e-09	-3.608048e+01	-5.671365e+02
1.900000e-07	-4.988740e-06	-8.621358e-09	-3.583614e+01	-5.660584e+02
2.000000e-07	-4.953131e-06	-8.674040e-09	-3.558034e+01	-5.649307e+02
2.100000e-07	-4.915966e-06	-8.666419e-09	-3.531337e+01	-5.637539e+02
2.200000e-07	-4.877028e-06	-8.551189e-09	-3.503367e+01	-5.625269e+02
2.300000e-07	-4.836300e-06	-8.557414e-09	-3.474110e+01	-5.612464e+02
2.400000e-07	-4.793631e-06	-8.592374e-09	-3.443459e+01	-5.599072e+02
2.500000e-07	-4.749138e-06	-8.564225e-09	-3.411498e+01	-5.585023e+02
2.600000e-07	-4.702943e-06	-8.510711e-09	-3.378315e+01	-5.570237e+02
2.700000e-07	-4.654773e-06	-8.442795e-09	-3.343712e+01	-5.554630e+02
2.800000e-07	-4.604570e-06	-8.462797e-09	-3.307649e+01	-5.538121e+02
2.900000e-07	-4.552550e-06	-8.463436e-09	-3.270281e+01	-5.520645e+02
3.000000e-07	-4.498822e-06	-8.403140e-09	-3.231686e+01	-5.502153e+02
3.100000e-07	-4.443449e-06	-8.354013e-09	-3.191909e+01	-5.482625e+02
3.200000e-07	-4.386405e-06	-8.331184e-09	-3.150932e+01	-5.462062e+02
3.300000e-07	-4.327700e-06	-8.319119e-09	-3.108762e+01	-5.440495e+02
3.400000e-07	-4.267496e-06	-8.279499e-09	-3.065515e+01	-5.417973e+02
3.500000e-07	-4.205882e-06	-8.245352e-09	-3.021255e+01	-5.394555e+02
3.600000e-07	-4.142788e-06	-8.179914e-09	-2.975932e+01	-5.370308e+02
3.700000e-07	-4.078143e-06	-8.144663e-09	-2.929495e+01	-5.345289e+02
3.800000e-07	-4.011950e-06	-8.151181e-09	-2.881946e+01	-5.319543e+02
3.900000e-07	-3.944197e-06	-8.096390e-09	-2.833276e+01	-5.293089e+02
4.000000e-07	-3.875026e-06	-8.019028e-09	-2.783588e+01	-5.265923e+02
4.100000e-07	-3.804697e-06	-7.987279e-09	-2.733068e+01	-5.238013e+02
4.200000e-07	-3.733209e-06	-7.973500e-09	-2.681715e+01	-5.209300e+02
4.300000e-07	-3.660300e-06	-7.918581e-09	-2.629342e+01	-5.179711e+02
4.400000e-07	-3.585702e-06	-7.845683e-09	-2.575755e+01	-5.149156e+02
4.500000e-07	-3.509557e-06	-7.801458e-09	-2.521057e+01	-5.117545e+02
4.600000e-07	-3.432033e-06	-7.762038e-09	-2.465368e+01	-5.084792e+02
4.700000e-07	-3.353115e-06	-7.710651e-09	-2.408678e+01	-5.050821e+02
4.800000e-07	-3.272887e-06	-7.656324e-09	-2.351047e+01	-5.015572e+02
4.900000e-07	-3.191418e-06	-7.592760e-09	-2.292525e+01	-4.978998e+02
5.000000e-07	-3.108924e-06	-7.534019e-09	-2.233266e+01	-4.941067e+02
5.100000e-07	-3.025509e-06	-7.482092e-09	-2.173345e+01	-4.901752e+02
5.200000e-07	-2.941206e-06	-7.426117e-09	-2.112787e+01	-4.861030e+02
5.300000e-07	-2.855941e-06	-7.351293e-09	-2.051538e+01	-4.818868e+02
5.400000e-07	-2.769628e-06	-7.275421e-09	-1.989536e+01	-4.775222e+02
5.500000e-07	-2.682487e-06	-7.215418e-09	-1.926939e+01	-4.730029e+02
5.600000e-07	-2.594490e-06	-7.151854e-09	-1.863727e+01	-4.683203e+02
5.700000e-07	-2.505376e-06	-7.072879e-09	-1.799713e+01	-4.634640e+02
5.800000e-07	-2.415147e-06	-6.982104e-09	-1.734898e+01	-4.584217e+02
5.900000e-07	-2.323987e-06	-6.903822e-09	-1.669414e+01	-4.531798e+02
6.000000e-07	-2.232113e-06	-6.825134e-09	-1.603417e+01	-4.477240e+02
6.100000e-07	-2.139607e-06	-6.732899e-09	-1.536966e+01	-4.420402e+02
6.200000e-07	-2.046337e-06	-6.635272e-09	-1.469967e+01	-4.361145e+02
6.300000e-07	-1.952262e-06	-6.540780e-09	-1.402389e+01	-4.299337e+02
6.400000e-07	-1.857532e-06	-6.444659e-09	-1.334341e+01	-4.234851e+02
6.500000e-07	-1.762311e-06	-6.339885e-09	-1.265940e+01	-4.167558e+02
6.600000e-07	-1.666495e-06	-6.233722e-09	-1.197111e+01	-4.097325e+02
6.700000e-07	-1.569845e-06	-6.122677e-09	-1.127683e+01	-4.023999e+02
6.800000e-07	-1.472414e-06	-6.005714e-09	-1.057695e+01	-3.947396e+02
6.900000e-07	-1.374399e-06	-5.883153e-09	-9.872865e+00	-3.867296e+02
7.000000e-07	-1.275909e-06	-5.757492e-09	-9.165372e+00	-3.783426e+02
7.100000e-07	-1.176976e-06	-5.621543e-09	-8.454694e+00	-3.695461e+02
7.200000e-07	-1.077623e-06	-5.477123e-09	-7.741004e+00	-3.603019e+02
7.300000e-07	-9.779635e-07	-5.328540e-09	-7.025108e+00	-3.505664e+02
7.400000e-07	-8.780585e-07	-5.168733e-09	-6.307450e+00	-3.402913e+02
7.500000e-07	-7.779000e-07	-4.999243e-09	-5.587971e+00	-3.294246e+02
7.600000e-07	-6.774642e-07	-4.822829e-09	-4.866499e+00	-3.179115e+02
7.700000e-07	-5.767383e-07	-4.636155e-09	-4.142945e+00	-3.056959e+02
7.800000e-07	-4.757885e-07	-4.433218e-09	-3.417781e+00	-2.927212e+02
7.900000e-07	-3.747103e-07	-4.220412e-09	-2.691696e+00	-2.789318e+02
8.000000e-07	-2.734899e-07	-4.001257e-09	-1.964589e+00	-2.642733e+02
8.100000e-07	-1.721644e-07	-3.768362e-09	-1.236726e+00	-2.486934e+02
8.200000e-07	-7.073820e-08	-3.512943e-09	-5.081411e-01	-2.321425e+02
8.300000e-07	3.078737e-08	-3.239645e-09	2.211582e-01	-2.145747e+02
8.400000e-07	1.322481e-07	-2.955336e-09	9.499915e-01	-1.959485e+02
8.500000e-07	2.336039e-07	-2.655055e-09	1.678071e+00	-1.762284e+02
8.600000e-07	3.348558e-07	-2.335335e-09	2.405405e+00	-1.553875e+02
8.700000e-07	4.360416e-07	-1.995231e-09	3.132263e+00	-1.334097e+02
8.800000e-07	5.370873e-07	-1.639419e-09	3.858116e+00	-1.102939e+02
8.900000e-07	6.378560e-07	-1.269161e-09	4.581978e+00	-8.605713e+01
9.000000e-07	7.384100e-07	-8.838818e-10	5.304298e+00	-6.073951e+01
9.100000e-07	8.386922e-07	-4.817136e-10	6.024666e+00	-3.440754e+01
9.200000e-07	9.386647e-07	-6.431363e-11	6.742808e+00	-7.157517e+00
9.300000e-07	1.038388e-06	3.625329e-10	7.459163e+00	2.088245e+01
9.400000e-07	1.137842e-06	7.958882e-10	8.173580e+00	4.955204e+01
9.500000e-07	1.236994e-06	1.234732e-09	8.885832e+00	7.866020e+01
9.600000e-07	1.335751e-06	1.682211e-09	9.595243e+00	1.079887e+02
9.700000e-07	1.433972e-06	2.129918e-09	1.030080e+01	1.372982e+02
9.800000e-07	1.531462e-06	2.567793e-09	1.100111e+01	1.663352e+02
9.900000e-07	1.628110e-06	2.997488e-09	1.169537e+01	1.948421e+02
1.000000e-06	1.724083e-06	3.421743e-09	1.238479e+01	2.225666e+02
1.010000e-06	1.819490e-06	3.833190e-09	1.307013e+01	2.492727e+02
1.020000e-06	1.914281e-06	4.222393e-09	1.375106e+01	2.747500e+02
1.030000e-06	2.008434e-06	4.590001e-09	1.442740e+01	2.988225e+02
1.040000e-06	2.101912e-06	4.935076e-09	1.509889e+01	3.213553e+02
1.050000e-06	2.194631e-06	5.254053e-09	1.576492e+01	3.422591e+02
1.060000e-06	2.286648e-06	5.542384e-09	1.642592e+01	3.614913e+02
1.070000e-06	2.378089e-06	5.801759e-09	1.708278e+01	3.790550e+02
1.080000e-06	2.468816e-06	6.037468e-09	1.773450e+01	3.949951e+02
1.090000e-06	2.558508e-06	6.252996e-09	1.837880e+01	4.093924e+02
1.100000e-06	2.646986e-06	6.450888e-09	1.901437e+01	4.223560e+02
1.110000e-06	2.734407e-06	6.628530e-09	1.964235e+01	4.340141e+02
1.120000e-06	2.820964e-06	6.786850e-09	2.026413e+01	4.445060e+02
1.130000e-06	2.906638e-06	6.932961e-09	2.087956e+01	4.539730e+02
1.140000e-06	2.991340e-06	7.069536e-09	2.148801e+01	4.625517e+02
1.150000e-06	3.075127e-06	7.192236e-09	2.208988e+01	4.703676e+02
1.160000e-06	3.158026e-06	7.300255e-09	2.268538e+01	4.775315e+02
1.170000e-06	3.239788e-06	7.398171e-09	2.327271e+01	4.841372e+02
1.180000e-06	3.320255e-06	7.490303e-09	2.385074e+01	4.902611e+02
1.190000e-06	3.399473e-06	7.577303e-09	2.441979e+01	4.959634e+02
1.200000e-06	3.477445e-06	7.658090e-09	2.497990e+01	5.012898e+02
1.210000e-06	3.554160e-06	7.732295e-09	2.553097e+01	5.062749e+02
1.220000e-06	3.629664e-06	7.800788e-09	2.607335e+01	5.109452e+02
1.230000e-06	3.703746e-06	7.866352e-09	2.660551e+01	5.153216e+02
1.240000e-06	3.776187e-06	7.928270e-09	2.712588e+01	5.194222e+02
1.250000e-06	3.847228e-06	7.984872e-09	2.763619e+01	5.232643e+02
1.260000e-06	3.916983e-06	8.037486e-09	2.813727e+01	5.268653e+02
1.270000e-06	3.985400e-06	8.086616e-09	2.862874e+01	5.302428e+02
1.280000e-06	4.052587e-06	8.132431e-09	2.911137e+01	5.334152e+02
1.290000e-06	4.118271e-06	8.176280e-09	2.958321e+01	5.364005e+02
1.300000e-06	4.182254e-06	8.216446e-09	3.004282e+01	5.392159e+02
1.310000e-06	4.244755e-06	8.252270e-09	3.049180e+01	5.418769e+02
1.320000e-06	4.305877e-06	8.288418e-09	3.093086e+01	5.443966e+02
1.330000e-06	4.365725e-06	8.325661e-09	3.136077e+01	5.467859e+02
1.340000e-06	4.424180e-06	8.360616e-09	3.178067e+01	5.490528e+02
1.350000e-06	4.480870e-06	8.390554e-09	3.218790e+01	5.512032e+02
1.360000e-06	4.535785e-06	8.418844e-09	3.258238e+01	5.532412e+02
1.370000e-06	4.589124e-06	8.448209e-09	3.296554e+01	5.551700e+02
1.380000e-06	4.640698e-06	8.475317e-09	3.333601e+01	5.569922e+02
1.390000e-06	4.690199e-06	8.497740e-09	3.369159e+01	5.587106e+02
1.400000e-06	4.737787e-06	8.519361e-09	3.403344e+01	5.603289e+02
1.410000e-06	4.783747e-06	8.543663e-09	3.436359e+01	5.618515e+02
1.420000e-06	4.828148e-06	8.567265e-09	3.468254e+01	5.632836e+02
1.430000e-06	4.870907e-06	8.587274e-09	3.498969e+01	5.646313e+02
1.440000e-06	4.911791e-06	8.604929e-09	3.528338e+01	5.659006e+02
1.450000e-06	4.950860e-06	8.622114e-09	3.556403e+01	5.670979e+02
1.460000e-06	4.988303e-06	8.639130e-09	3.583300e+01	5.682286e+02
1.470000e-06	5.024136e-06	8.654483e-09	3.609040e+01	5.692976e+02
1.480000e-06	5.058151e-06	8.668184e-09	3.633475e+01	5.703083e+02
1.490000e-06	5.090208e-06	8.682523e-09	3.656502e+01	5.712632e+02
1.500000e-06	5.120501e-06	8.697062e-09	3.678263e+01	5.721636e+02
1.510000e-06	5.149187e-06	8.710279e-09	3.698869e+01	5.730098e+02
1.520000e-06	5.176214e-06	8.721309e-09	3.718284e+01	5.738013e+02
1.530000e-06	5.201253e-06	8.731423e-09	3.736271e+01	5.745373e+02
1.540000e-06	5.224253e-06	8.742550e-09	3.752793e+01	5.752166e+02
1.550000e-06	5.245474e-06	8.753249e-09	3.768037e+01	5.758384e+02
1.560000e-06	5.265038e-06	8.763039e-09	3.782090e+01	5.764019e+02
1.570000e-06	5.282812e-06	8.770750e-09	3.794858e+01	5.769067e+02
1.580000e-06	5.298585e-06	8.777334e-09	3.806188e+01	5.773525e+02
1.590000e-06	5.312413e-06	8.785438e-09	3.816121e+01	5.777398e+02
1.600000e-06	5.324311e-06	8.793477e-09	3.824668e+01	5.780688e+02
1.610000e-06	5.334058e-06	8.798841e-09	3.831670e+01	5.783403e+02
1.620000e-06	5.341706e-06	8.802695e-09	3.837163e+01	5.785551e+02
1.630000e-06	5.347501e-06	8.807014e-09	3.841327e+01	5.787140e+02
1.640000e-06	5.351534e-06	8.809989e-09	3.844223e+01	5.788180e+02
1.650000e-06	5.353748e-06	8.812802e-09	3.845814e+01	5.788682e+02
1.660000e-06	5.354007e-06	8.814315e-09	3.846000e+01	5.788656e+02
1.670000e-06	5.352414e-06	8.811601e-09	3.844856e+01	5.788112e+02
1.680000e-06	5.349188e-06	8.808870e-09	3.842539e+01	5.787061e+02
1.690000e-06	5.344360e-06	8.806517e-09	3.839070e+01	5.785508e+02
1.700000e-06	5.337647e-06	8.805216e-09	3.834248e+01	5.783458e+02
1.710000e-06	5.329058e-06	8.802282e-09	3.828078e+01	5.780908e+02
1.720000e-06	5.318872e-06	8.798494e-09	3.820761e+01	5.777851e+02
1.730000e-06	5.307096e-06	8.802203e-09	3.812302e+01	5.774273e+02
1.740000e-06	5.293481e-06	8.779482e-09	3.802521e+01	5.770155e+02
1.750000e-06	5.277680e-06	8.737596e-09	3.791171e+01	5.765473e+02
1.760000e-06	5.259452e-06	8.729220e-09	3.778077e+01	5.760204e+02
1.770000e-06	5.238729e-06	8.725452e-09	3.763191e+01	5.754323e+02
1.780000e-06	5.215797e-06	8.773817e-09	3.746718e+01	5.747812e+02
1.790000e-06	5.191514e-06	8.806256e-09	3.729274e+01	5.740660e+02
1.800000e-06	5.166459e-06	8.680415e-09	3.711277e+01	5.732866e+02
1.810000e-06	5.139891e-06	8.693244e-09	3.692192e+01	5.724441e+02
1.820000e-06	5.111284e-06	8.725962e-09	3.671642e+01	5.715405e+02
1.830000e-06	5.081184e-06	8.668664e-09	3.650020e+01	5.705786e+02
1.840000e-06	5.049357e-06	8.731290e-09	3.627158e+01	5.695616e+02
1.850000e-06	5.015285e-06	8.642548e-09	3.602682e+01	5.684924e+02
1.860000e-06	4.979441e-06	8.562667e-09	3.576934e+01	5.673733e+02
1.870000e-06	4.941991e-06	8.673477e-09	3.550032e+01	5.662053e+02
1.880000e-06	4.902697e-06	8.611478e-09	3.521805e+01	5.649873e+02
1.890000e-06	4.861642e-06	8.536588e-09	3.492314e+01	5.637166e+02
1.900000e-06	4.818819e-06	8.548574e-09	3.461553e+01	5.623882e+02
1.910000e-06	4.774436e-06	8.533779e-09	3.429671e+01	5.609955e+02
1.920000e-06	4.728450e-06	8.589505e-09	3.396637e+01	5.595305e+02
1.930000e-06	4.680565e-06	8.502805e-09	3.362239e+01	5.579850e+02
1.940000e-06	4.631026e-06	8.442990e-09	3.326653e+01	5.563506e+02
1.950000e-06	4.579891e-06	8.478451e-09	3.289921e+01	5.546206e+02
1.960000e-06	4.526892e-06	8.413600e-09	3.251850e+01	5.527897e+02
1.970000e-06	4.471890e-06	8.411901e-09	3.212339e+01	5.508553e+02
1.980000e-06	4.415188e-06	8.371630e-09	3.171608e+01	5.488173e+02
1.990000e-06	4.357048e-06	8.301777e-09	3.129844e+01	5.466781e+02
2.000000e-06	4.297396e-06	8.288301e-09	3.086993e+01	5.444423e+02
2.010000e-06	4.236351e-06	8.279956e-09	3.043142e+01	5.421160e+02
2.020000e-06	4.173688e-06	8.265646e-09	2.998129e+01	5.397055e+02
2.030000e-06	4.109255e-06	8.149912e-09	2.951844e+01	5.372170e+02
2.040000e-06	4.043346e-06	8.129072e-09	2.904499e+01	5.346550e+02
2.050000e-06	3.976084e-06	8.145734e-09	2.856182e+01	5.320221e+02
2.060000e-06	3.907497e-06	8.072783e-09	2.806913e+01	5.293182e+02
2.070000e-06	3.837348e-06	8.017262e-09	2.756522e+01	5.265407e+02
2.080000e-06	3.765594e-06	7.959705e-09	2.704979e+01	5.236842e+02
2.090000e-06	3.692555e-06	7.948789e-09	2.652512e+01	5.207414e+02
2.100000e-06	3.618278e-06	7.897149e-09	2.599155e+01	5.177037e+02
2.110000e-06	3.542615e-06	7.839467e-09	2.544803e+01	5.145620e+02
2.120000e-06	3.465433e-06	7.803536e-09	2.489361e+01	5.113076e+02
2.130000e-06	3.386811e-06	7.735218e-09	2.432883e+01	5.079326e+02
2.140000e-06	3.306838e-06	7.689597e-09	2.375436e+01	5.044308e+02
2.150000e-06	3.225648e-06	7.639934e-09	2.317114e+01	5.007972e+02
2.160000e-06	3.143434e-06	7.588570e-09	2.258056e+01	4.970284e+02
2.170000e-06	3.060236e-06	7.508663e-09	2.198291e+01	4.931218e+02
2.180000e-06	2.976065e-06	7.444814e-09	2.137828e+01	4.890748e+02
2.190000e-06	2.890838e-06	7.400798e-09	2.076606e+01	4.848845e+02
2.200000e-06	2.804502e-06	7.330336e-09	2.014587e+01	4.805467e+02
2.210000e-06	2.716976e-06	7.255068e-09	1.951714e+01	4.760554e+02
2.220000e-06	2.628388e-06	7.186913e-09	1.888077e+01	4.714026e+02
2.230000e-06	2.538972e-06	7.128604e-09	1.823846e+01	4.665781e+02
2.240000e-06	2.448733e-06	7.044698e-09	1.759024e+01	4.615698e+02
2.250000e-06	2.357734e-06	6.962373e-09	1.693656e+01	4.563645e+02
2.260000e-06	2.266053e-06	6.889644e-09	1.627798e+01	4.509478e+02
2.270000e-06	2.173620e-06	6.803045e-09	1.561399e+01	4.453057e+02
2.280000e-06	2.080310e-06	6.706011e-09	1.494371e+01	4.394241e+02
2.290000e-06	1.986192e-06	6.616704e-09	1.426762e+01	4.332896e+02
2.300000e-06	1.891314e-06	6.530292e-09	1.358608e+01	4.268896e+02
2.310000e-06	1.795677e-06	6.423543e-09	1.289908e+01	4.202113e+02
2.320000e-06	1.699385e-06	6.312589e-09	1.220737e+01	4.132415e+02
2.330000e-06	1.602533e-06	6.206141e-09	1.151165e+01	4.059652e+02
2.340000e-06	1.505172e-06	6.094508e-09	1.081226e+01	3.983649e+02
2.350000e-06	1.407314e-06	5.972709e-09	1.010930e+01	3.904190e+02
2.360000e-06	1.309005e-06	5.848878e-09	9.403114e+00	3.821014e+02
2.370000e-06	1.210282e-06	5.718244e-09	8.693948e+00	3.733806e+02
2.380000e-06	1.111192e-06	5.574781e-09	7.982144e+00	3.642193e+02
2.390000e-06	1.011803e-06	5.427251e-09	7.268187e+00	3.545748e+02
2.400000e-06	9.121384e-07	5.275911e-09	6.552259e+00	3.443997e+02
2.410000e-06	8.121920e-07	5.111011e-09	5.834304e+00	3.336425e+02
2.420000e-06	7.119927e-07	4.933202e-09	5.114532e+00	3.222488e+02
2.430000e-06	6.115789e-07	4.753199e-09	4.393219e+00	3.101626e+02
2.440000e-06	5.110271e-07	4.565141e-09	3.670914e+00	2.973276e+02
2.450000e-06	4.103593e-07	4.356853e-09	2.947777e+00	2.836876e+02
2.460000e-06	3.094748e-07	4.132331e-09	2.223083e+00	2.691880e+02
2.470000e-06	2.084407e-07	3.900122e-09	1.497314e+00	2.537762e+02
2.480000e-06	1.073647e-07	3.655935e-09	7.712444e-01	2.374021e+02
2.490000e-06	6.264828e-09	3.392201e-09	4.500279e-02	2.200190e+02
2.500000e-06	-9.488120e-08	3.112108e-09	-6.815700e-01	2.015845e+02
2.510000e-06	-1.960141e-07	2.817708e-09	-1.408049e+00	1.820619e+02
2.520000e-06	-2.969821e-07	2.504617e-09	-2.133343e+00	1.614226e+02
2.530000e-06	-3.978014e-07	2.173268e-09	-2.857569e+00	1.396483e+02
2.540000e-06	-4.984893e-07	1.823799e-09	-3.580850e+00	1.167348e+02
2.550000e-06	-5.990034e-07	1.454953e-09	-4.302884e+00	9.269592e+01
2.560000e-06	-6.993030e-07	1.068941e-09	-5.023376e+00	6.756713e+01
2.570000e-06	-7.993701e-07	6.713087e-10	-5.742199e+00	4.141001e+01
2.580000e-06	-8.991407e-07	2.618107e-10	-6.458892e+00	1.431536e+01
2.590000e-06	-9.985809e-07	-1.649742e-10	-7.173210e+00	-1.359450e+01
2.600000e-06	-1.097765e-06	-6.049285e-10	-7.885689e+00	-4.216493e+01
2.610000e-06	-1.196610e-06	-1.048243e-09	-8.595732e+00	-7.121016e+01
2.620000e-06	-1.295015e-06	-1.493467e-09	-9.302616e+00	-1.005165e+02
2.630000e-06	-1.392952e-06	-1.942186e-09	-1.000614e+01	-1.298477e+02
2.640000e-06	-1.490385e-06	-2.389720e-09	-1.070604e+01	-1.589524e+02
2.650000e-06	-1.587361e-06	-2.827352e-09	-1.140265e+01	-1.875729e+02
2.660000e-06	-1.683963e-06	-3.251446e-09	-1.209659e+01	-2.154552e+02
2.670000e-06	-1.780158e-06	-3.661566e-09	-1.278760e+01	-2.423595e+02
2.680000e-06	-1.875766e-06	-4.055910e-09	-1.347438e+01	-2.680703e+02
2.690000e-06	-1.970492e-06	-4.432754e-09	-1.415484e+01	-2.924049e+02
2.700000e-06	-2.064210e-06	-4.786317e-09	-1.482806e+01	-3.152207e+02
2.710000e-06	-2.157070e-06	-5.110422e-09	-1.549511e+01	-3.364200e+02
2.720000e-06	-2.249211e-06	-5.407704e-09	-1.615699e+01	-3.559519e+02
2.730000e-06	-2.340654e-06	-5.682140e-09	-1.681386e+01	-3.738114e+02
2.740000e-06	-2.431286e-06	-5.931455e-09	-1.746491e+01	-3.900366e+02
2.750000e-06	-2.520969e-06	-6.155575e-09	-1.810914e+01	-4.047023e+02
2.760000e-06	-2.609823e-06	-6.355825e-09	-1.874741e+01	-4.179130e+02
2.770000e-06	-2.697987e-06	-6.538366e-09	-1.938073e+01	-4.297943e+02
2.780000e-06	-2.785278e-06	-6.705687e-09	-2.000778e+01	-4.404841e+02
2.790000e-06	-2.871352e-06	-6.854478e-09	-2.062608e+01	-4.501241e+02
2.800000e-06	-2.956157e-06	-6.987851e-09	-2.123527e+01	-4.588519e+02
2.810000e-06	-3.039952e-06	-7.110318e-09	-2.183721e+01	-4.667955e+02
2.820000e-06	-3.122783e-06	-7.223570e-09	-2.243221e+01	-4.740686e+02
2.830000e-06	-3.204568e-06	-7.325590e-09	-2.301971e+01	-4.807680e+02
2.840000e-06	-3.285348e-06	-7.418667e-09	-2.359999e+01	-4.869732e+02
2.850000e-06	-3.365040e-06	-7.505547e-09	-2.417244e+01	-4.927471e+02
2.860000e-06	-3.443300e-06	-7.586119e-09	-2.473462e+01	-4.981379e+02
2.870000e-06	-3.520005e-06	-7.662922e-09	-2.528562e+01	-5.031820e+02
2.880000e-06	-3.595298e-06	-7.736603e-09	-2.582648e+01	-5.079070e+02
2.890000e-06	-3.669262e-06	-7.804925e-09	-2.635779e+01	-5.123345e+02
2.900000e-06	-3.742015e-06	-7.869727e-09	-2.688041e+01	-5.164832e+02
2.910000e-06	-3.813503e-06	-7.932476e-09	-2.739394e+01	-5.203704e+02
2.920000e-06	-3.883457e-06	-7.991234e-09	-2.789645e+01	-5.240132e+02
2.930000e-06	-3.951905e-06	-8.046223e-09	-2.838813e+01	-5.274294e+02
2.940000e-06	-4.019056e-06	-8.098340e-09	-2.887050e+01	-5.306372e+02
