# Temperatura_=_20.0
# Concentracion g/m^3_=_9000.0
# C_Vs_to_Am_M_A/Vsm_=_65563218390.804596
# pendiente_HvsI_1/m_=_3716.3
# ordenada_HvsI_A/m_=_1297.0
# frecuencia_Hz_=_300877.70273253997

Tiempo_(s)	Campo_(V.s)	Magnetizacion_(V.s)	Campo_(kA/m)	Magnetizacion_(A/m)
0.000000e+00	-5.349591e-06	-8.794948e-09	-3.828123e+01	-5.765050e+02
1.000000e-08	-5.346632e-06	-8.791761e-09	-3.826005e+01	-5.763543e+02
2.000000e-08	-5.341924e-06	-8.786071e-09	-3.822637e+01	-5.761434e+02
3.000000e-08	-5.335577e-06	-8.780979e-09	-3.818095e+01	-5.758726e+02
4.000000e-08	-5.327582e-06	-8.780297e-09	-3.812373e+01	-5.755434e+02
5.000000e-08	-5.317760e-06	-8.779384e-09	-3.805345e+01	-5.751583e+02
6.000000e-08	-5.305919e-06	-8.776639e-09	-3.796871e+01	-5.747203e+02
7.000000e-08	-5.292139e-06	-8.783834e-09	-3.787011e+01	-5.742323e+02
8.000000e-08	-5.276317e-06	-8.763571e-09	-3.775689e+01	-5.736970e+02
9.000000e-08	-5.258342e-06	-8.732408e-09	-3.762826e+01	-5.731166e+02
1.000000e-07	-5.238358e-06	-8.753861e-09	-3.748525e+01	-5.724922e+02
1.100000e-07	-5.216527e-06	-8.751998e-09	-3.732904e+01	-5.718238e+02
1.200000e-07	-5.192950e-06	-8.724584e-09	-3.716032e+01	-5.711107e+02
1.300000e-07	-5.167706e-06	-8.742751e-09	-3.697967e+01	-5.703513e+02
1.400000e-07	-5.140943e-06	-8.639845e-09	-3.678816e+01	-5.695438e+02
1.500000e-07	-5.112708e-06	-8.616919e-09	-3.658611e+01	-5.686859e+02
1.600000e-07	-5.082918e-06	-8.743351e-09	-3.637294e+01	-5.677760e+02
1.700000e-07	-5.051434e-06	-8.644693e-09	-3.614764e+01	-5.668123e+02
1.800000e-07	-5.017969e-06	-8.614019e-09	-3.590817e+01	-5.657937e+02
1.900000e-07	-4.982712e-06	-8.653924e-09	-3.565587e+01	-5.647193e+02
2.000000e-07	-4.945934e-06	-8.552240e-09	-3.539269e+01	-5.635881e+02
2.100000e-07	-4.907365e-06	-8.613872e-09	-3.511670e+01	-5.623990e+02
2.200000e-07	-4.866958e-06	-8.612607e-09	-3.482755e+01	-5.611504e+02
2.300000e-07	-4.824737e-06	-8.494294e-09	-3.452542e+01	-5.598397e+02
2.400000e-07	-4.780695e-06	-8.516307e-09	-3.421026e+01	-5.584635e+02
2.500000e-07	-4.734879e-06	-8.506947e-09	-3.388240e+01	-5.570175e+02
2.600000e-07	-4.687142e-06	-8.497374e-09	-3.354080e+01	-5.554969e+02
2.700000e-07	-4.637360e-06	-8.465776e-09	-3.318456e+01	-5.538964e+02
2.800000e-07	-4.585670e-06	-8.382680e-09	-3.281467e+01	-5.522110e+02
2.900000e-07	-4.532283e-06	-8.378860e-09	-3.243264e+01	-5.504365e+02
3.000000e-07	-4.477232e-06	-8.395438e-09	-3.203870e+01	-5.485697e+02
3.100000e-07	-4.420537e-06	-8.349570e-09	-3.163299e+01	-5.466091e+02
3.200000e-07	-4.362156e-06	-8.274324e-09	-3.121523e+01	-5.445549e+02
3.300000e-07	-4.302195e-06	-8.264035e-09	-3.078615e+01	-5.424087e+02
3.400000e-07	-4.240866e-06	-8.260916e-09	-3.034729e+01	-5.401734e+02
3.500000e-07	-4.178065e-06	-8.191231e-09	-2.989788e+01	-5.378527e+02
3.600000e-07	-4.113664e-06	-8.174173e-09	-2.943703e+01	-5.354503e+02
3.700000e-07	-4.047748e-06	-8.131698e-09	-2.896535e+01	-5.329692e+02
3.800000e-07	-3.980294e-06	-8.070254e-09	-2.848265e+01	-5.304109e+02
3.900000e-07	-3.911347e-06	-8.067458e-09	-2.798928e+01	-5.277753e+02
4.000000e-07	-3.841148e-06	-8.027044e-09	-2.748694e+01	-5.250599e+02
4.100000e-07	-3.769735e-06	-7.962571e-09	-2.697591e+01	-5.222604e+02
4.200000e-07	-3.696968e-06	-7.902370e-09	-2.645520e+01	-5.193702e+02
4.300000e-07	-3.622584e-06	-7.890283e-09	-2.592291e+01	-5.163816e+02
4.400000e-07	-3.546614e-06	-7.846482e-09	-2.537927e+01	-5.132859e+02
4.500000e-07	-3.469216e-06	-7.765747e-09	-2.482542e+01	-5.100745e+02
4.600000e-07	-3.390435e-06	-7.716557e-09	-2.426167e+01	-5.067393e+02
4.700000e-07	-3.310320e-06	-7.682664e-09	-2.368838e+01	-5.032731e+02
4.800000e-07	-3.228907e-06	-7.636168e-09	-2.310579e+01	-4.996701e+02
4.900000e-07	-3.146419e-06	-7.558200e-09	-2.251551e+01	-4.959258e+02
5.000000e-07	-3.062949e-06	-7.499525e-09	-2.191821e+01	-4.920364e+02
5.100000e-07	-2.978583e-06	-7.453926e-09	-2.131449e+01	-4.879990e+02
5.200000e-07	-2.893331e-06	-7.391821e-09	-2.070443e+01	-4.838102e+02
5.300000e-07	-2.807128e-06	-7.315026e-09	-2.008758e+01	-4.794663e+02
5.400000e-07	-2.719987e-06	-7.242680e-09	-1.946400e+01	-4.749620e+02
5.500000e-07	-2.631892e-06	-7.173003e-09	-1.883360e+01	-4.702906e+02
5.600000e-07	-2.542817e-06	-7.101395e-09	-1.819619e+01	-4.654436e+02
5.700000e-07	-2.452659e-06	-7.027810e-09	-1.755102e+01	-4.604108e+02
5.800000e-07	-2.361466e-06	-6.941258e-09	-1.689845e+01	-4.551808e+02
5.900000e-07	-2.269467e-06	-6.847936e-09	-1.624012e+01	-4.497413e+02
6.000000e-07	-2.176801e-06	-6.764374e-09	-1.557700e+01	-4.440797e+02
6.100000e-07	-2.083396e-06	-6.684270e-09	-1.490861e+01	-4.381837e+02
6.200000e-07	-1.989232e-06	-6.582967e-09	-1.423478e+01	-4.320409e+02
6.300000e-07	-1.894438e-06	-6.474380e-09	-1.355644e+01	-4.256397e+02
6.400000e-07	-1.799007e-06	-6.376252e-09	-1.287354e+01	-4.189680e+02
6.500000e-07	-1.702899e-06	-6.282082e-09	-1.218580e+01	-4.120130e+02
6.600000e-07	-1.606090e-06	-6.169117e-09	-1.149305e+01	-4.047605e+02
6.700000e-07	-1.508588e-06	-6.044939e-09	-1.079533e+01	-3.971931e+02
6.800000e-07	-1.410468e-06	-5.928308e-09	-1.009319e+01	-3.892899e+02
6.900000e-07	-1.311814e-06	-5.808996e-09	-9.387232e+00	-3.810248e+02
7.000000e-07	-1.212674e-06	-5.675300e-09	-8.677793e+00	-3.723667e+02
7.100000e-07	-1.113088e-06	-5.530079e-09	-7.965168e+00	-3.632784e+02
7.200000e-07	-1.013171e-06	-5.382370e-09	-7.250165e+00	-3.537174e+02
7.300000e-07	-9.130233e-07	-5.225884e-09	-6.533519e+00	-3.436360e+02
7.400000e-07	-8.126514e-07	-5.061905e-09	-5.815266e+00	-3.329826e+02
7.500000e-07	-7.119777e-07	-4.889199e-09	-5.094853e+00	-3.217029e+02
7.600000e-07	-6.110160e-07	-4.701886e-09	-4.372380e+00	-3.097408e+02
7.700000e-07	-5.098110e-07	-4.502843e-09	-3.648165e+00	-2.970400e+02
7.800000e-07	-4.083950e-07	-4.299388e-09	-2.922440e+00	-2.835452e+02
7.900000e-07	-3.068111e-07	-4.085997e-09	-2.195514e+00	-2.692024e+02
8.000000e-07	-2.051011e-07	-3.849319e-09	-1.467686e+00	-2.539603e+02
8.100000e-07	-1.032934e-07	-3.597113e-09	-7.391592e-01	-2.377703e+02
8.200000e-07	-1.421582e-09	-3.336921e-09	-1.017272e-02	-2.205875e+02
8.300000e-07	1.004117e-07	-3.061760e-09	7.185374e-01	-2.023711e+02
8.400000e-07	2.022095e-07	-2.762943e-09	1.446994e+00	-1.830855e+02
8.500000e-07	3.039838e-07	-2.447672e-09	2.175283e+00	-1.627024e+02
8.600000e-07	4.056027e-07	-2.120375e-09	2.902459e+00	-1.412029e+02
8.700000e-07	5.070090e-07	-1.774965e-09	3.628114e+00	-1.185809e+02
8.800000e-07	6.082374e-07	-1.410650e-09	4.352497e+00	-9.484610e+01
8.900000e-07	7.092252e-07	-1.029466e-09	5.075157e+00	-7.002899e+01
9.000000e-07	8.099137e-07	-6.354495e-10	5.795675e+00	-4.418419e+01
9.100000e-07	9.103493e-07	-2.271535e-10	6.514384e+00	-1.739432e+01
9.200000e-07	1.010492e-06	1.927797e-10	7.230997e+00	1.022736e+01
9.300000e-07	1.110315e-06	6.241203e-10	7.945322e+00	3.853568e+01
9.400000e-07	1.209831e-06	1.061883e-09	8.657448e+00	6.735415e+01
9.500000e-07	1.309010e-06	1.503085e-09	9.367169e+00	9.647751e+01
9.600000e-07	1.407804e-06	1.946510e-09	1.007413e+01	1.256766e+02
9.700000e-07	1.506084e-06	2.386758e-09	1.077741e+01	1.547051e+02
9.800000e-07	1.603604e-06	2.822548e-09	1.147525e+01	1.833084e+02
9.900000e-07	1.700228e-06	3.249033e-09	1.216669e+01	2.112331e+02
1.000000e-06	1.796146e-06	3.661673e-09	1.285307e+01	2.382377e+02
1.010000e-06	1.891496e-06	4.056319e-09	1.353539e+01	2.641025e+02
1.020000e-06	1.986197e-06	4.432390e-09	1.421306e+01	2.886392e+02
1.030000e-06	2.080198e-06	4.784704e-09	1.488572e+01	3.116979e+02
1.040000e-06	2.173457e-06	5.109617e-09	1.555307e+01	3.331728e+02
1.050000e-06	2.265975e-06	5.408009e-09	1.621513e+01	3.530043e+02
1.060000e-06	2.357830e-06	5.679333e-09	1.687243e+01	3.711793e+02
1.070000e-06	2.449064e-06	5.925786e-09	1.752530e+01	3.877274e+02
1.080000e-06	2.539529e-06	6.148058e-09	1.817266e+01	4.027165e+02
1.090000e-06	2.628843e-06	6.353368e-09	1.881178e+01	4.162446e+02
1.100000e-06	2.716887e-06	6.539781e-09	1.944182e+01	4.284323e+02
1.110000e-06	2.803980e-06	6.705846e-09	2.006505e+01	4.394134e+02
1.120000e-06	2.890244e-06	6.856931e-09	2.068234e+01	4.493265e+02
1.130000e-06	2.975542e-06	6.996997e-09	2.129273e+01	4.583074e+02
1.140000e-06	3.059836e-06	7.124737e-09	2.189593e+01	4.664831e+02
1.150000e-06	3.143267e-06	7.238913e-09	2.249296e+01	4.739672e+02
1.160000e-06	3.225797e-06	7.344527e-09	2.308354e+01	4.808573e+02
1.170000e-06	3.307028e-06	7.441436e-09	2.366482e+01	4.872344e+02
1.180000e-06	3.386886e-06	7.531030e-09	2.423628e+01	4.931635e+02
1.190000e-06	3.465532e-06	7.613714e-09	2.479906e+01	4.986956e+02
1.200000e-06	3.543014e-06	7.692588e-09	2.535351e+01	5.038702e+02
1.210000e-06	3.619266e-06	7.765338e-09	2.589917e+01	5.087181e+02
1.220000e-06	3.694162e-06	7.831479e-09	2.643512e+01	5.132646e+02
1.230000e-06	3.767480e-06	7.892600e-09	2.695978e+01	5.175311e+02
1.240000e-06	3.839218e-06	7.951598e-09	2.747313e+01	5.215376e+02
1.250000e-06	3.909608e-06	8.008032e-09	2.797683e+01	5.253030e+02
1.260000e-06	3.978633e-06	8.059396e-09	2.847077e+01	5.288459e+02
1.270000e-06	4.046426e-06	8.106505e-09	2.895589e+01	5.321841e+02
1.280000e-06	4.112907e-06	8.150664e-09	2.943162e+01	5.353343e+02
1.290000e-06	4.177715e-06	8.194852e-09	2.989538e+01	5.383115e+02
1.300000e-06	4.240934e-06	8.236310e-09	3.034777e+01	5.411284e+02
1.310000e-06	4.302737e-06	8.274465e-09	3.079003e+01	5.437952e+02
1.320000e-06	4.363152e-06	8.310461e-09	3.122235e+01	5.463194e+02
1.330000e-06	4.422252e-06	8.346395e-09	3.164527e+01	5.487067e+02
1.340000e-06	4.479770e-06	8.380259e-09	3.205686e+01	5.509610e+02
1.350000e-06	4.535470e-06	8.410911e-09	3.245545e+01	5.530855e+02
1.360000e-06	4.589494e-06	8.439237e-09	3.284204e+01	5.550837e+02
1.370000e-06	4.641861e-06	8.465693e-09	3.321677e+01	5.569599e+02
1.380000e-06	4.692309e-06	8.492162e-09	3.357777e+01	5.587194e+02
1.390000e-06	4.740690e-06	8.516368e-09	3.392398e+01	5.603693e+02
1.400000e-06	4.787286e-06	8.539791e-09	3.425742e+01	5.619177e+02
1.410000e-06	4.832318e-06	8.562880e-09	3.457966e+01	5.633737e+02
1.420000e-06	4.875780e-06	8.583966e-09	3.489068e+01	5.647464e+02
1.430000e-06	4.917449e-06	8.602401e-09	3.518885e+01	5.660445e+02
1.440000e-06	4.957215e-06	8.620351e-09	3.547342e+01	5.672753e+02
1.450000e-06	4.995279e-06	8.639323e-09	3.574580e+01	5.684441e+02
1.460000e-06	5.031757e-06	8.656143e-09	3.600683e+01	5.695542e+02
1.470000e-06	5.066589e-06	8.670780e-09	3.625609e+01	5.706066e+02
1.480000e-06	5.099503e-06	8.685891e-09	3.649162e+01	5.716006e+02
1.490000e-06	5.130503e-06	8.701579e-09	3.671345e+01	5.725339e+02
1.500000e-06	5.159833e-06	8.715623e-09	3.692334e+01	5.734036e+02
1.510000e-06	5.187490e-06	8.727227e-09	3.712125e+01	5.742066e+02
1.520000e-06	5.213233e-06	8.737856e-09	3.730546e+01	5.749408e+02
1.530000e-06	5.236970e-06	8.749956e-09	3.747532e+01	5.756050e+02
1.540000e-06	5.258839e-06	8.760591e-09	3.763181e+01	5.761996e+02
1.550000e-06	5.279013e-06	8.768612e-09	3.777618e+01	5.767261e+02
1.560000e-06	5.297482e-06	8.776264e-09	3.790834e+01	5.771877e+02
1.570000e-06	5.313992e-06	8.783095e-09	3.802649e+01	5.775878e+02
1.580000e-06	5.328492e-06	8.790177e-09	3.813025e+01	5.779302e+02
1.590000e-06	5.341053e-06	8.796895e-09	3.822013e+01	5.782185e+02
1.600000e-06	5.351553e-06	8.801858e-09	3.829527e+01	5.784552e+02
1.610000e-06	5.359904e-06	8.806284e-09	3.835503e+01	5.786416e+02
1.620000e-06	5.366290e-06	8.811551e-09	3.840072e+01	5.787780e+02
1.630000e-06	5.370921e-06	8.814132e-09	3.843386e+01	5.788632e+02
1.640000e-06	5.373755e-06	8.813537e-09	3.845414e+01	5.788954e+02
1.650000e-06	5.374573e-06	8.812101e-09	3.846000e+01	5.788721e+02
1.660000e-06	5.373472e-06	8.814243e-09	3.845212e+01	5.787912e+02
1.670000e-06	5.370711e-06	8.813818e-09	3.843236e+01	5.786509e+02
1.680000e-06	5.366375e-06	8.809079e-09	3.840133e+01	5.784503e+02
1.690000e-06	5.360277e-06	8.805279e-09	3.835770e+01	5.781897e+02
1.700000e-06	5.352282e-06	8.801082e-09	3.830049e+01	5.778704e+02
1.710000e-06	5.342590e-06	8.795458e-09	3.823113e+01	5.774947e+02
1.720000e-06	5.331288e-06	8.781732e-09	3.815025e+01	5.770654e+02
1.730000e-06	5.318163e-06	8.752793e-09	3.805634e+01	5.765857e+02
1.740000e-06	5.303007e-06	8.784937e-09	3.794787e+01	5.760583e+02
1.750000e-06	5.285554e-06	8.765621e-09	3.782298e+01	5.754854e+02
1.760000e-06	5.265515e-06	8.726320e-09	3.767959e+01	5.748684e+02
1.770000e-06	5.243092e-06	8.742247e-09	3.751913e+01	5.742074e+02
1.780000e-06	5.219054e-06	8.675625e-09	3.734712e+01	5.735020e+02
1.790000e-06	5.194132e-06	8.736062e-09	3.716878e+01	5.727506e+02
1.800000e-06	5.167993e-06	8.812553e-09	3.698173e+01	5.719514e+02
1.810000e-06	5.139853e-06	8.630461e-09	3.678036e+01	5.711022e+02
1.820000e-06	5.109886e-06	8.691361e-09	3.656592e+01	5.702013e+02
1.830000e-06	5.078380e-06	8.726953e-09	3.634047e+01	5.692469e+02
1.840000e-06	5.044871e-06	8.580863e-09	3.610068e+01	5.682377e+02
1.850000e-06	5.009421e-06	8.734015e-09	3.584700e+01	5.671729e+02
1.860000e-06	4.972395e-06	8.658282e-09	3.558204e+01	5.660515e+02
1.870000e-06	4.933594e-06	8.497324e-09	3.530439e+01	5.648725e+02
1.880000e-06	4.892939e-06	8.636691e-09	3.501347e+01	5.636342e+02
1.890000e-06	4.850489e-06	8.588953e-09	3.470970e+01	5.623344e+02
1.900000e-06	4.806431e-06	8.544343e-09	3.439442e+01	5.609697e+02
1.910000e-06	4.760830e-06	8.523940e-09	3.406810e+01	5.595361e+02
1.920000e-06	4.713370e-06	8.446848e-09	3.372848e+01	5.580288e+02
1.930000e-06	4.664123e-06	8.570983e-09	3.337607e+01	5.564425e+02
1.940000e-06	4.613245e-06	8.454003e-09	3.301200e+01	5.547722e+02
1.950000e-06	4.560582e-06	8.384341e-09	3.263515e+01	5.530134e+02
1.960000e-06	4.505969e-06	8.437087e-09	3.224434e+01	5.511629e+02
1.970000e-06	4.449530e-06	8.351357e-09	3.184047e+01	5.492187e+02
1.980000e-06	4.391616e-06	8.353875e-09	3.142604e+01	5.471806e+02
1.990000e-06	4.332242e-06	8.289991e-09	3.100117e+01	5.450502e+02
2.000000e-06	4.271354e-06	8.287798e-09	3.056546e+01	5.428302e+02
2.010000e-06	4.208934e-06	8.229109e-09	3.011878e+01	5.405241e+02
2.020000e-06	4.144856e-06	8.166363e-09	2.966024e+01	5.381356e+02
2.030000e-06	4.079186e-06	8.221627e-09	2.919032e+01	5.356679e+02
2.040000e-06	4.012130e-06	8.100182e-09	2.871047e+01	5.331229e+02
2.050000e-06	3.943679e-06	8.065735e-09	2.822064e+01	5.305008e+02
2.060000e-06	3.873730e-06	8.056412e-09	2.772009e+01	5.277996e+02
2.070000e-06	3.802244e-06	8.018169e-09	2.720854e+01	5.250150e+02
2.080000e-06	3.729352e-06	7.964575e-09	2.668693e+01	5.221411e+02
2.090000e-06	3.655110e-06	7.869896e-09	2.615566e+01	5.191703e+02
2.100000e-06	3.579539e-06	7.894655e-09	2.561488e+01	5.160939e+02
2.110000e-06	3.502548e-06	7.832165e-09	2.506394e+01	5.129034e+02
2.120000e-06	3.424095e-06	7.753237e-09	2.450254e+01	5.095904e+02
2.130000e-06	3.344286e-06	7.702332e-09	2.393143e+01	5.061477e+02
2.140000e-06	3.263216e-06	7.662334e-09	2.335130e+01	5.025691e+02
2.150000e-06	3.181042e-06	7.620757e-09	2.276327e+01	4.988498e+02
2.160000e-06	3.097882e-06	7.526327e-09	2.216819e+01	4.949862e+02
2.170000e-06	3.013723e-06	7.484864e-09	2.156595e+01	4.909750e+02
2.180000e-06	2.928420e-06	7.420890e-09	2.095553e+01	4.868131e+02
2.190000e-06	2.842049e-06	7.354194e-09	2.033747e+01	4.824968e+02
2.200000e-06	2.754586e-06	7.289518e-09	1.971159e+01	4.780212e+02
2.210000e-06	2.666011e-06	7.220972e-09	1.907775e+01	4.733798e+02
2.220000e-06	2.576552e-06	7.146682e-09	1.843759e+01	4.685644e+02
2.230000e-06	2.486270e-06	7.061393e-09	1.779154e+01	4.635651e+02
2.240000e-06	2.395236e-06	7.007490e-09	1.714011e+01	4.583708e+02
2.250000e-06	2.303557e-06	6.918813e-09	1.648406e+01	4.529692e+02
2.260000e-06	2.211110e-06	6.817789e-09	1.582252e+01	4.473478e+02
2.270000e-06	2.117740e-06	6.732077e-09	1.515437e+01	4.414941e+02
2.280000e-06	2.023464e-06	6.659403e-09	1.447974e+01	4.353959e+02
2.290000e-06	1.928398e-06	6.561010e-09	1.379945e+01	4.290412e+02
2.300000e-06	1.832585e-06	6.440271e-09	1.311383e+01	4.224182e+02
2.310000e-06	1.736113e-06	6.339729e-09	1.242348e+01	4.155145e+02
2.320000e-06	1.639143e-06	6.239311e-09	1.172957e+01	4.083158e+02
2.330000e-06	1.541672e-06	6.125514e-09	1.103207e+01	4.008057e+02
2.340000e-06	1.443591e-06	5.999986e-09	1.033022e+01	3.929637e+02
2.350000e-06	1.345016e-06	5.880738e-09	9.624822e+00	3.847650e+02
2.360000e-06	1.246146e-06	5.753543e-09	8.917318e+00	3.761792e+02
2.370000e-06	1.146931e-06	5.617002e-09	8.207343e+00	3.671703e+02
2.380000e-06	1.047380e-06	5.476024e-09	7.494967e+00	3.576966e+02
2.390000e-06	9.475624e-07	5.318549e-09	6.780678e+00	3.477113e+02
2.400000e-06	8.474481e-07	5.150689e-09	6.064268e+00	3.371636e+02
2.410000e-06	7.470135e-07	4.982754e-09	5.345567e+00	3.259994e+02
2.420000e-06	6.462571e-07	4.811219e-09	4.624562e+00	3.141629e+02
2.430000e-06	5.452089e-07	4.618917e-09	3.901470e+00	3.015977e+02
2.440000e-06	4.439965e-07	4.410727e-09	3.177202e+00	2.882482e+02
2.450000e-06	3.426873e-07	4.200838e-09	2.452242e+00	2.740602e+02
2.460000e-06	2.411998e-07	3.980446e-09	1.726006e+00	2.589820e+02
2.470000e-06	1.396060e-07	3.735025e-09	9.990088e-01	2.429643e+02
2.480000e-06	3.802692e-08	3.471536e-09	2.721175e-01	2.259615e+02
2.490000e-06	-6.357354e-08	3.200807e-09	-4.549269e-01	2.079319e+02
2.500000e-06	-1.651489e-07	2.914668e-09	-1.181792e+00	1.888391e+02
2.510000e-06	-2.666136e-07	2.605254e-09	-1.907865e+00	1.686533e+02
2.520000e-06	-3.679407e-07	2.278857e-09	-2.632953e+00	1.473537e+02
2.530000e-06	-4.691210e-07	1.938153e-09	-3.356991e+00	1.249314e+02
2.540000e-06	-5.700978e-07	1.578454e-09	-4.079573e+00	1.013933e+02
2.550000e-06	-6.707779e-07	1.201975e-09	-4.800031e+00	7.676582e+01
2.560000e-06	-7.712277e-07	8.113920e-10	-5.518842e+00	5.109889e+01
2.570000e-06	-8.714614e-07	4.063453e-10	-6.236105e+00	2.446997e+01
2.580000e-06	-9.713897e-07	-1.310184e-11	-6.951184e+00	-3.013321e+00
2.590000e-06	-1.071027e-06	-4.433404e-10	-7.664181e+00	-3.121152e+01
2.600000e-06	-1.170337e-06	-8.813209e-10	-8.374831e+00	-5.995359e+01
2.610000e-06	-1.269243e-06	-1.327029e-09	-9.082595e+00	-8.903913e+01
2.620000e-06	-1.367740e-06	-1.772222e-09	-9.787437e+00	-1.182428e+02
2.630000e-06	-1.465760e-06	-2.212493e-09	-1.048886e+01	-1.473207e+02
2.640000e-06	-1.563218e-06	-2.649789e-09	-1.118626e+01	-1.760191e+02
2.650000e-06	-1.660121e-06	-3.079271e-09	-1.187969e+01	-2.040836e+02
2.660000e-06	-1.756581e-06	-3.493919e-09	-1.256995e+01	-2.312698e+02
2.670000e-06	-1.852678e-06	-3.890924e-09	-1.325761e+01	-2.573534e+02
2.680000e-06	-1.948239e-06	-4.272580e-09	-1.394144e+01	-2.821399e+02
2.690000e-06	-2.042884e-06	-4.635152e-09	-1.461871e+01	-3.054720e+02
2.700000e-06	-2.136354e-06	-4.970647e-09	-1.528757e+01	-3.272359e+02
2.710000e-06	-2.228902e-06	-5.277729e-09	-1.594983e+01	-3.473636e+02
2.720000e-06	-2.320838e-06	-5.560101e-09	-1.660772e+01	-3.658338e+02
2.730000e-06	-2.412095e-06	-5.816969e-09	-1.726075e+01	-3.826689e+02
2.740000e-06	-2.502455e-06	-6.049693e-09	-1.790736e+01	-3.979303e+02
2.750000e-06	-2.591818e-06	-6.261734e-09	-1.854683e+01	-4.117115e+02
2.760000e-06	-2.680367e-06	-6.453098e-09	-1.918049e+01	-4.241294e+02
2.770000e-06	-2.768197e-06	-6.624122e-09	-1.980899e+01	-4.353163e+02
2.780000e-06	-2.855001e-06	-6.777910e-09	-2.043015e+01	-4.454103e+02
2.790000e-06	-2.940541e-06	-6.920520e-09	-2.104227e+01	-4.545485e+02
2.800000e-06	-3.024991e-06	-7.051504e-09	-2.164658e+01	-4.628597e+02
2.810000e-06	-3.108463e-06	-7.168615e-09	-2.224390e+01	-4.704600e+02
2.820000e-06	-3.190890e-06	-7.274815e-09	-2.283374e+01	-4.774502e+02
2.830000e-06	-3.272227e-06	-7.372454e-09	-2.341578e+01	-4.839142e+02
2.840000e-06	-3.352519e-06	-7.462649e-09	-2.399034e+01	-4.899196e+02
2.850000e-06	-3.431577e-06	-7.546511e-09	-2.455608e+01	-4.955198e+02
2.860000e-06	-3.509142e-06	-7.624940e-09	-2.511113e+01	-5.007562e+02
2.870000e-06	-3.585272e-06	-7.700154e-09	-2.565591e+01	-5.056609e+02
2.880000e-06	-3.659977e-06	-7.772110e-09	-2.619049e+01	-5.102599e+02
2.890000e-06	-3.733321e-06	-7.840574e-09	-2.671534e+01	-5.145754e+02
2.900000e-06	-3.805509e-06	-7.906902e-09	-2.723191e+01	-5.186274e+02
2.910000e-06	-3.876310e-06	-7.968794e-09	-2.773855e+01	-5.224349e+02
2.920000e-06	-3.945469e-06	-8.025028e-09	-2.823345e+01	-5.260166e+02
2.930000e-06	-4.013187e-06	-8.079302e-09	-2.871803e+01	-5.293905e+02
2.940000e-06	-4.079542e-06	-8.133074e-09	-2.919286e+01	-5.325735e+02
