# Temperatura_=_20.0
# Concentracion g/m^3_=_9000.0
# C_Vs_to_Am_M_A/Vsm_=_65563218390.804596
# pendiente_HvsI_1/m_=_3716.3
# ordenada_HvsI_A/m_=_1297.0
# frecuencia_Hz_=_300869.279325401

Tiempo_(s)	Campo_(V.s)	Magnetizacion_(V.s)	Campo_(kA/m)	Magnetizacion_(A/m)
0.000000e+00	-5.348347e-06	-8.801622e-09	-3.829335e+01	-5.770490e+02
1.000000e-08	-5.346532e-06	-8.803240e-09	-3.828035e+01	-5.769256e+02
2.000000e-08	-5.342841e-06	-8.799772e-09	-3.825393e+01	-5.767446e+02
3.000000e-08	-5.337536e-06	-8.796711e-09	-3.821594e+01	-5.765085e+02
4.000000e-08	-5.330631e-06	-8.792315e-09	-3.816650e+01	-5.762210e+02
5.000000e-08	-5.322046e-06	-8.785785e-09	-3.810503e+01	-5.758856e+02
6.000000e-08	-5.311442e-06	-8.780723e-09	-3.802912e+01	-5.755059e+02
7.000000e-08	-5.298875e-06	-8.764677e-09	-3.793913e+01	-5.750843e+02
8.000000e-08	-5.284357e-06	-8.746772e-09	-3.783519e+01	-5.746223e+02
9.000000e-08	-5.267645e-06	-8.804223e-09	-3.771553e+01	-5.741197e+02
1.000000e-07	-5.248894e-06	-8.831700e-09	-3.758128e+01	-5.735748e+02
1.100000e-07	-5.228241e-06	-8.784727e-09	-3.743341e+01	-5.729847e+02
1.200000e-07	-5.205730e-06	-8.745855e-09	-3.727223e+01	-5.723457e+02
1.300000e-07	-5.181546e-06	-8.647660e-09	-3.709908e+01	-5.716537e+02
1.400000e-07	-5.155755e-06	-8.619136e-09	-3.691442e+01	-5.709048e+02
1.500000e-07	-5.128436e-06	-8.815180e-09	-3.671882e+01	-5.700961e+02
1.600000e-07	-5.099585e-06	-8.720180e-09	-3.651225e+01	-5.692258e+02
1.700000e-07	-5.069204e-06	-8.593373e-09	-3.629472e+01	-5.682935e+02
1.800000e-07	-5.037000e-06	-8.683540e-09	-3.606415e+01	-5.673001e+02
1.900000e-07	-5.002697e-06	-8.595821e-09	-3.581855e+01	-5.662471e+02
2.000000e-07	-4.966892e-06	-8.670395e-09	-3.556219e+01	-5.651364e+02
2.100000e-07	-4.929499e-06	-8.710135e-09	-3.529446e+01	-5.639696e+02
2.200000e-07	-4.890228e-06	-8.496679e-09	-3.501329e+01	-5.627471e+02
2.300000e-07	-4.849196e-06	-8.522219e-09	-3.471950e+01	-5.614677e+02
2.400000e-07	-4.806259e-06	-8.625390e-09	-3.441208e+01	-5.601283e+02
2.500000e-07	-4.761515e-06	-8.567313e-09	-3.409172e+01	-5.587240e+02
2.600000e-07	-4.715067e-06	-8.511950e-09	-3.375916e+01	-5.572481e+02
2.700000e-07	-4.666650e-06	-8.404349e-09	-3.341250e+01	-5.556932e+02
2.800000e-07	-4.616129e-06	-8.441091e-09	-3.305078e+01	-5.540517e+02
2.900000e-07	-4.563806e-06	-8.491846e-09	-3.267615e+01	-5.523167e+02
3.000000e-07	-4.509837e-06	-8.409201e-09	-3.228975e+01	-5.504831e+02
3.100000e-07	-4.454279e-06	-8.321546e-09	-3.189195e+01	-5.485480e+02
3.200000e-07	-4.396984e-06	-8.311498e-09	-3.148173e+01	-5.465114e+02
3.300000e-07	-4.337944e-06	-8.337599e-09	-3.105902e+01	-5.443759e+02
3.400000e-07	-4.277472e-06	-8.277769e-09	-3.062604e+01	-5.421464e+02
3.500000e-07	-4.215599e-06	-8.245509e-09	-3.018304e+01	-5.398292e+02
3.600000e-07	-4.152264e-06	-8.184523e-09	-2.972958e+01	-5.374314e+02
3.700000e-07	-4.087342e-06	-8.125640e-09	-2.926474e+01	-5.349592e+02
3.800000e-07	-4.020797e-06	-8.160626e-09	-2.878830e+01	-5.324172e+02
3.900000e-07	-3.952773e-06	-8.116032e-09	-2.830125e+01	-5.298073e+02
4.000000e-07	-3.883348e-06	-8.007681e-09	-2.780418e+01	-5.271284e+02
4.100000e-07	-3.812702e-06	-7.978317e-09	-2.729836e+01	-5.243758e+02
4.200000e-07	-3.740928e-06	-7.988703e-09	-2.678447e+01	-5.215420e+02
4.300000e-07	-3.667683e-06	-7.941022e-09	-2.626005e+01	-5.186172e+02
4.400000e-07	-3.592685e-06	-7.844731e-09	-2.572308e+01	-5.155901e+02
4.500000e-07	-3.516173e-06	-7.804081e-09	-2.517526e+01	-5.124493e+02
4.600000e-07	-3.438347e-06	-7.779714e-09	-2.461804e+01	-5.091842e+02
4.700000e-07	-3.359129e-06	-7.722863e-09	-2.405085e+01	-5.057862e+02
4.800000e-07	-3.278595e-06	-7.659970e-09	-2.347424e+01	-5.022486e+02
4.900000e-07	-3.196830e-06	-7.593849e-09	-2.288882e+01	-4.985676e+02
5.000000e-07	-3.114004e-06	-7.548079e-09	-2.229580e+01	-4.947412e+02
5.100000e-07	-3.030338e-06	-7.495542e-09	-2.169676e+01	-4.907691e+02
5.200000e-07	-2.945778e-06	-7.435702e-09	-2.109132e+01	-4.866513e+02
5.300000e-07	-2.860188e-06	-7.360466e-09	-2.047851e+01	-4.823873e+02
5.400000e-07	-2.773598e-06	-7.286216e-09	-1.985854e+01	-4.779750e+02
5.500000e-07	-2.686223e-06	-7.228786e-09	-1.923294e+01	-4.734096e+02
5.600000e-07	-2.597963e-06	-7.162763e-09	-1.860102e+01	-4.686837e+02
5.700000e-07	-2.508482e-06	-7.079283e-09	-1.796035e+01	-4.637866e+02
5.800000e-07	-2.417808e-06	-6.983140e-09	-1.731114e+01	-4.587051e+02
5.900000e-07	-2.326271e-06	-6.911962e-09	-1.665574e+01	-4.534237e+02
6.000000e-07	-2.234055e-06	-6.838373e-09	-1.599550e+01	-4.479263e+02
6.100000e-07	-2.141188e-06	-6.739346e-09	-1.533058e+01	-4.421963e+02
6.200000e-07	-2.047550e-06	-6.634208e-09	-1.466015e+01	-4.362182e+02
6.300000e-07	-1.953088e-06	-6.546196e-09	-1.398381e+01	-4.299773e+02
6.400000e-07	-1.858053e-06	-6.458954e-09	-1.330337e+01	-4.234607e+02
6.500000e-07	-1.762569e-06	-6.348975e-09	-1.261973e+01	-4.166560e+02
6.600000e-07	-1.666424e-06	-6.234096e-09	-1.193134e+01	-4.095512e+02
6.700000e-07	-1.569358e-06	-6.122975e-09	-1.123637e+01	-4.021330e+02
6.800000e-07	-1.471465e-06	-6.010294e-09	-1.053547e+01	-3.943855e+02
6.900000e-07	-1.373080e-06	-5.885052e-09	-9.831045e+00	-3.862886e+02
7.000000e-07	-1.274319e-06	-5.755338e-09	-9.123930e+00	-3.778170e+02
7.100000e-07	-1.175123e-06	-5.615610e-09	-8.413699e+00	-3.689390e+02
7.200000e-07	-1.075504e-06	-5.470945e-09	-7.700442e+00	-3.596162e+02
7.300000e-07	-9.755314e-07	-5.327086e-09	-6.984656e+00	-3.498036e+02
7.400000e-07	-8.752625e-07	-5.169168e-09	-6.266746e+00	-3.394505e+02
7.500000e-07	-7.747606e-07	-4.993405e-09	-5.547168e+00	-3.285015e+02
7.600000e-07	-6.739973e-07	-4.810125e-09	-4.825718e+00	-3.168980e+02
7.700000e-07	-5.729725e-07	-4.626575e-09	-4.102396e+00	-3.045802e+02
7.800000e-07	-4.717710e-07	-4.426585e-09	-3.377809e+00	-2.914881e+02
7.900000e-07	-3.703719e-07	-4.208281e-09	-2.651806e+00	-2.775633e+02
8.000000e-07	-2.687730e-07	-3.980785e-09	-1.924374e+00	-2.627499e+02
8.100000e-07	-1.670750e-07	-3.746388e-09	-1.196231e+00	-2.469955e+02
8.200000e-07	-6.529756e-08	-3.492270e-09	-4.675206e-01	-2.302516e+02
8.300000e-07	3.653613e-08	-3.214761e-09	2.615931e-01	-2.124743e+02
8.400000e-07	1.383007e-07	-2.923715e-09	9.902121e-01	-1.936250e+02
8.500000e-07	2.399473e-07	-2.620160e-09	1.717986e+00	-1.736718e+02
8.600000e-07	3.414968e-07	-2.299990e-09	2.445065e+00	-1.525912e+02
8.700000e-07	4.429345e-07	-1.957901e-09	3.171343e+00	-1.303707e+02
8.800000e-07	5.441891e-07	-1.597829e-09	3.896311e+00	-1.070118e+02
8.900000e-07	6.452365e-07	-1.220610e-09	4.619795e+00	-8.253443e+01
9.000000e-07	7.460956e-07	-8.307586e-10	5.341930e+00	-5.698065e+01
9.100000e-07	8.467228e-07	-4.262789e-10	6.062406e+00	-3.041895e+01
9.200000e-07	9.470806e-07	-5.351247e-12	6.780952e+00	-2.947646e+00
9.300000e-07	1.047166e-06	4.271210e-10	7.497550e+00	2.530275e+01
9.400000e-07	1.146914e-06	8.648672e-10	8.211729e+00	5.416883e+01
9.500000e-07	1.246243e-06	1.304278e-09	8.922911e+00	8.345564e+01
9.600000e-07	1.345102e-06	1.752911e-09	9.630727e+00	1.129403e+02
9.700000e-07	1.443456e-06	2.203522e-09	1.033493e+01	1.423777e+02
9.800000e-07	1.541272e-06	2.644808e-09	1.103527e+01	1.715090e+02
9.900000e-07	1.638413e-06	3.075291e-09	1.173079e+01	2.000707e+02
1.000000e-06	1.734757e-06	3.499398e-09	1.242060e+01	2.278058e+02
1.010000e-06	1.830349e-06	3.911315e-09	1.310502e+01	2.544745e+02
1.020000e-06	1.925347e-06	4.300833e-09	1.378519e+01	2.798648e+02
1.030000e-06	2.019781e-06	4.666502e-09	1.446133e+01	3.038013e+02
1.040000e-06	2.113515e-06	5.006758e-09	1.513244e+01	3.261523e+02
1.050000e-06	2.206534e-06	5.321471e-09	1.579845e+01	3.468340e+02
1.060000e-06	2.298864e-06	5.606629e-09	1.645952e+01	3.658114e+02
1.070000e-06	2.390507e-06	5.863549e-09	1.711566e+01	3.830970e+02
1.080000e-06	2.481445e-06	6.094100e-09	1.776677e+01	3.987460e+02
1.090000e-06	2.571469e-06	6.303689e-09	1.841133e+01	4.128496e+02
1.100000e-06	2.660310e-06	6.496443e-09	1.904741e+01	4.255262e+02
1.110000e-06	2.748012e-06	6.668346e-09	1.967535e+01	4.369125e+02
1.120000e-06	2.834824e-06	6.824054e-09	2.029690e+01	4.471540e+02
1.130000e-06	2.920750e-06	6.966047e-09	2.091212e+01	4.563958e+02
1.140000e-06	3.005654e-06	7.097778e-09	2.152002e+01	4.647761e+02
1.150000e-06	3.089576e-06	7.217143e-09	2.212089e+01	4.724197e+02
1.160000e-06	3.172600e-06	7.323250e-09	2.271533e+01	4.794352e+02
1.170000e-06	3.254535e-06	7.419010e-09	2.330198e+01	4.859129e+02
1.180000e-06	3.335151e-06	7.510363e-09	2.387918e+01	4.919251e+02
1.190000e-06	3.414527e-06	7.595721e-09	2.444749e+01	4.975278e+02
1.200000e-06	3.492722e-06	7.673125e-09	2.500735e+01	5.027637e+02
1.210000e-06	3.569674e-06	7.745919e-09	2.555832e+01	5.076651e+02
1.220000e-06	3.645385e-06	7.814851e-09	2.610040e+01	5.122570e+02
1.230000e-06	3.719669e-06	7.879593e-09	2.663226e+01	5.165605e+02
1.240000e-06	3.792364e-06	7.937914e-09	2.715275e+01	5.205946e+02
1.250000e-06	3.863569e-06	7.993703e-09	2.766257e+01	5.243780e+02
1.260000e-06	3.933444e-06	8.045246e-09	2.816286e+01	5.279295e+02
1.270000e-06	4.002068e-06	8.092287e-09	2.865419e+01	5.312684e+02
1.280000e-06	4.069385e-06	8.136981e-09	2.913617e+01	5.344137e+02
1.290000e-06	4.135167e-06	8.181007e-09	2.960717e+01	5.373832e+02
1.300000e-06	4.199303e-06	8.221831e-09	3.006637e+01	5.401932e+02
1.310000e-06	4.261974e-06	8.260659e-09	3.051508e+01	5.428575e+02
1.320000e-06	4.323253e-06	8.299504e-09	3.095383e+01	5.453870e+02
1.330000e-06	4.383168e-06	8.335831e-09	3.138281e+01	5.477897e+02
1.340000e-06	4.441663e-06	8.368646e-09	3.180163e+01	5.500716e+02
1.350000e-06	4.498414e-06	8.399595e-09	3.220796e+01	5.522363e+02
1.360000e-06	4.553387e-06	8.429926e-09	3.260155e+01	5.542868e+02
1.370000e-06	4.606784e-06	8.457622e-09	3.298387e+01	5.562257e+02
1.380000e-06	4.658461e-06	8.483977e-09	3.335387e+01	5.580559e+02
1.390000e-06	4.708075e-06	8.509173e-09	3.370910e+01	5.597813e+02
1.400000e-06	4.755739e-06	8.533196e-09	3.405037e+01	5.614066e+02
1.410000e-06	4.801749e-06	8.557111e-09	3.437979e+01	5.629377e+02
1.420000e-06	4.846200e-06	8.580242e-09	3.469805e+01	5.643807e+02
1.430000e-06	4.889075e-06	8.601725e-09	3.500503e+01	5.657419e+02
1.440000e-06	4.930028e-06	8.620375e-09	3.529825e+01	5.670272e+02
1.450000e-06	4.969115e-06	8.637478e-09	3.557811e+01	5.682414e+02
1.460000e-06	5.006576e-06	8.654754e-09	3.584632e+01	5.693882e+02
1.470000e-06	5.042406e-06	8.671556e-09	3.610285e+01	5.704699e+02
1.480000e-06	5.076435e-06	8.686692e-09	3.634650e+01	5.714873e+02
1.490000e-06	5.108490e-06	8.701200e-09	3.657601e+01	5.724406e+02
1.500000e-06	5.138785e-06	8.716197e-09	3.679291e+01	5.733291e+02
1.510000e-06	5.167484e-06	8.731033e-09	3.699840e+01	5.741524e+02
1.520000e-06	5.194504e-06	8.744125e-09	3.719186e+01	5.749100e+02
1.530000e-06	5.219493e-06	8.755859e-09	3.737077e+01	5.756025e+02
1.540000e-06	5.242449e-06	8.765943e-09	3.753514e+01	5.762308e+02
1.550000e-06	5.263656e-06	8.774192e-09	3.768697e+01	5.767969e+02
1.560000e-06	5.283207e-06	8.781786e-09	3.782696e+01	5.773031e+02
1.570000e-06	5.300938e-06	8.787947e-09	3.795391e+01	5.777517e+02
1.580000e-06	5.316668e-06	8.794240e-09	3.806653e+01	5.781451e+02
1.590000e-06	5.330499e-06	8.801343e-09	3.816556e+01	5.784847e+02
1.600000e-06	5.342393e-06	8.808267e-09	3.825072e+01	5.787712e+02
1.610000e-06	5.352057e-06	8.813848e-09	3.831991e+01	5.790044e+02
1.620000e-06	5.359602e-06	8.818887e-09	3.837393e+01	5.791833e+02
1.630000e-06	5.365319e-06	8.823008e-09	3.841487e+01	5.793063e+02
1.640000e-06	5.369333e-06	8.823033e-09	3.844361e+01	5.793716e+02
1.650000e-06	5.371481e-06	8.823882e-09	3.845898e+01	5.793777e+02
1.660000e-06	5.371623e-06	8.825746e-09	3.846000e+01	5.793241e+02
1.670000e-06	5.369974e-06	8.821183e-09	3.844820e+01	5.792109e+02
1.680000e-06	5.366675e-06	8.817459e-09	3.842457e+01	5.790396e+02
1.690000e-06	5.361754e-06	8.813365e-09	3.838934e+01	5.788129e+02
1.700000e-06	5.354929e-06	8.812095e-09	3.834048e+01	5.785339e+02
1.710000e-06	5.346218e-06	8.811733e-09	3.827810e+01	5.782065e+02
1.720000e-06	5.335925e-06	8.808557e-09	3.820441e+01	5.778342e+02
1.730000e-06	5.324001e-06	8.821736e-09	3.811903e+01	5.774196e+02
1.740000e-06	5.310171e-06	8.791387e-09	3.802001e+01	5.769644e+02
1.750000e-06	5.294161e-06	8.700357e-09	3.790539e+01	5.764688e+02
1.760000e-06	5.275725e-06	8.705426e-09	3.777339e+01	5.759313e+02
1.770000e-06	5.254633e-06	8.719695e-09	3.762237e+01	5.753493e+02
1.780000e-06	5.231337e-06	8.790572e-09	3.745557e+01	5.747190e+02
1.790000e-06	5.206929e-06	8.895599e-09	3.728082e+01	5.740364e+02
1.800000e-06	5.181821e-06	8.652965e-09	3.710105e+01	5.732976e+02
1.810000e-06	5.155143e-06	8.638219e-09	3.691004e+01	5.724994e+02
1.820000e-06	5.126242e-06	8.780166e-09	3.670311e+01	5.716399e+02
1.830000e-06	5.095663e-06	8.629298e-09	3.648417e+01	5.707183e+02
1.840000e-06	5.063419e-06	8.748930e-09	3.625331e+01	5.697354e+02
1.850000e-06	5.029084e-06	8.692253e-09	3.600747e+01	5.686925e+02
1.860000e-06	4.993160e-06	8.455454e-09	3.575026e+01	5.675917e+02
1.870000e-06	4.955629e-06	8.702439e-09	3.548155e+01	5.664346e+02
1.880000e-06	4.916158e-06	8.682841e-09	3.519894e+01	5.652217e+02
1.890000e-06	4.874884e-06	8.488561e-09	3.490342e+01	5.639523e+02
1.900000e-06	4.831790e-06	8.558884e-09	3.459488e+01	5.626236e+02
1.910000e-06	4.787285e-06	8.522593e-09	3.427623e+01	5.612310e+02
1.920000e-06	4.741229e-06	8.629143e-09	3.394648e+01	5.597681e+02
1.930000e-06	4.693102e-06	8.546489e-09	3.360190e+01	5.582276e+02
1.940000e-06	4.643240e-06	8.386038e-09	3.324489e+01	5.566017e+02
1.950000e-06	4.591810e-06	8.504399e-09	3.287666e+01	5.548835e+02
1.960000e-06	4.538504e-06	8.427538e-09	3.249499e+01	5.530675e+02
1.970000e-06	4.483171e-06	8.421683e-09	3.209882e+01	5.511503e+02
1.980000e-06	4.426186e-06	8.394463e-09	3.169082e+01	5.491314e+02
1.990000e-06	4.367774e-06	8.288250e-09	3.127259e+01	5.470129e+02
2.000000e-06	4.307878e-06	8.303629e-09	3.084375e+01	5.447994e+02
2.010000e-06	4.246596e-06	8.266481e-09	3.040498e+01	5.424971e+02
2.020000e-06	4.183660e-06	8.306714e-09	2.995437e+01	5.401128e+02
2.030000e-06	4.118970e-06	8.156640e-09	2.949120e+01	5.376532e+02
2.040000e-06	4.052815e-06	8.094517e-09	2.901753e+01	5.351231e+02
2.050000e-06	3.985345e-06	8.188208e-09	2.853446e+01	5.325250e+02
2.060000e-06	3.916524e-06	8.085692e-09	2.804171e+01	5.298583e+02
2.070000e-06	3.845965e-06	8.025494e-09	2.753652e+01	5.271191e+02
2.080000e-06	3.773844e-06	7.947887e-09	2.702015e+01	5.243001e+02
2.090000e-06	3.700561e-06	7.964988e-09	2.649545e+01	5.213920e+02
2.100000e-06	3.625921e-06	7.930689e-09	2.596104e+01	5.183837e+02
2.110000e-06	3.549843e-06	7.825692e-09	2.541633e+01	5.152637e+02
2.120000e-06	3.472190e-06	7.811002e-09	2.486035e+01	5.120212e+02
2.130000e-06	3.393061e-06	7.747188e-09	2.429380e+01	5.086472e+02
2.140000e-06	3.312725e-06	7.709088e-09	2.371861e+01	5.051346e+02
2.150000e-06	3.231247e-06	7.637302e-09	2.313523e+01	5.014790e+02
2.160000e-06	3.148731e-06	7.587258e-09	2.254443e+01	4.976783e+02
2.170000e-06	3.065243e-06	7.521845e-09	2.194667e+01	4.937319e+02
2.180000e-06	2.980835e-06	7.443647e-09	2.134232e+01	4.896398e+02
2.190000e-06	2.895305e-06	7.409016e-09	2.072994e+01	4.854017e+02
2.200000e-06	2.808536e-06	7.331953e-09	2.010869e+01	4.810158e+02
2.210000e-06	2.720633e-06	7.252020e-09	1.947932e+01	4.764779e+02
2.220000e-06	2.631776e-06	7.181060e-09	1.884312e+01	4.717811e+02
2.230000e-06	2.542082e-06	7.136798e-09	1.820092e+01	4.669151e+02
2.240000e-06	2.451519e-06	7.048996e-09	1.755250e+01	4.618672e+02
2.250000e-06	2.360192e-06	6.945551e-09	1.689862e+01	4.566224e+02
2.260000e-06	2.268249e-06	6.880356e-09	1.624032e+01	4.511645e+02
2.270000e-06	2.175641e-06	6.805547e-09	1.557725e+01	4.454769e+02
2.280000e-06	2.082110e-06	6.705447e-09	1.490759e+01	4.395439e+02
2.290000e-06	1.987573e-06	6.599370e-09	1.423072e+01	4.333506e+02
2.300000e-06	1.892222e-06	6.514686e-09	1.354802e+01	4.268838e+02
2.310000e-06	1.796270e-06	6.416912e-09	1.286102e+01	4.201311e+02
2.320000e-06	1.699734e-06	6.303567e-09	1.216983e+01	4.130805e+02
2.330000e-06	1.602644e-06	6.189749e-09	1.147469e+01	4.057190e+02
2.340000e-06	1.505056e-06	6.076169e-09	1.077597e+01	3.980313e+02
2.350000e-06	1.406924e-06	5.954108e-09	1.007336e+01	3.899982e+02
2.360000e-06	1.308323e-06	5.829897e-09	9.367390e+00	3.815953e+02
2.370000e-06	1.209303e-06	5.702218e-09	8.658422e+00	3.727922e+02
2.380000e-06	1.109935e-06	5.553502e-09	7.946964e+00	3.635516e+02
2.390000e-06	1.010335e-06	5.399660e-09	7.233847e+00	3.538297e+02
2.400000e-06	9.105233e-07	5.251814e-09	6.519208e+00	3.435767e+02
2.410000e-06	8.104874e-07	5.092624e-09	5.802966e+00	3.327380e+02
2.420000e-06	7.101099e-07	4.910336e-09	5.084278e+00	3.212555e+02
2.430000e-06	6.093841e-07	4.720691e-09	4.363097e+00	3.090693e+02
2.440000e-06	5.084667e-07	4.531664e-09	3.640544e+00	2.961195e+02
2.450000e-06	4.072705e-07	4.327665e-09	2.915995e+00	2.823472e+02
2.460000e-06	3.057971e-07	4.099570e-09	2.189461e+00	2.676962e+02
2.470000e-06	2.042026e-07	3.861921e-09	1.462059e+00	2.521132e+02
2.480000e-06	1.025593e-07	3.616481e-09	7.343088e-01	2.355490e+02
2.490000e-06	8.968958e-10	3.351426e-09	6.421637e-03	2.179589e+02
2.500000e-06	-1.007429e-07	3.066748e-09	-7.213035e-01	1.993033e+02
2.510000e-06	-2.023334e-07	2.768713e-09	-1.448676e+00	1.795489e+02
2.520000e-06	-3.038478e-07	2.454063e-09	-2.175504e+00	1.586706e+02
2.530000e-06	-4.051771e-07	2.118217e-09	-2.901006e+00	1.366536e+02
2.540000e-06	-5.062586e-07	1.764101e-09	-3.624735e+00	1.134968e+02
2.550000e-06	-6.071022e-07	1.392709e-09	-4.346759e+00	8.921644e+01
2.560000e-06	-7.076954e-07	1.003742e-09	-5.066991e+00	6.385034e+01
2.570000e-06	-8.079731e-07	6.000112e-10	-5.784964e+00	3.746199e+01
2.580000e-06	-9.079585e-07	1.858635e-10	-6.500844e+00	1.014416e+01
2.590000e-06	-1.007669e-06	-2.417921e-10	-7.214757e+00	-1.797847e+01
2.600000e-06	-1.107126e-06	-6.832644e-10	-7.926852e+00	-4.674835e+01
2.610000e-06	-1.206299e-06	-1.129658e-09	-8.636919e+00	-7.597597e+01
2.620000e-06	-1.305062e-06	-1.574737e-09	-9.344047e+00	-1.054430e+02
2.630000e-06	-1.403332e-06	-2.021934e-09	-1.004764e+01	-1.349079e+02
2.640000e-06	-1.501094e-06	-2.469363e-09	-1.074760e+01	-1.641136e+02
2.650000e-06	-1.598367e-06	-2.906728e-09	-1.144406e+01	-1.927965e+02
2.660000e-06	-1.695169e-06	-3.330762e-09	-1.213715e+01	-2.206977e+02
2.670000e-06	-1.791470e-06	-3.742015e-09	-1.282665e+01	-2.475736e+02
2.680000e-06	-1.887212e-06	-4.137291e-09	-1.351215e+01	-2.732065e+02
2.690000e-06	-1.982287e-06	-4.512409e-09	-1.419287e+01	-2.974140e+02
2.700000e-06	-2.076543e-06	-4.863320e-09	-1.486773e+01	-3.200560e+02
2.710000e-06	-2.169825e-06	-5.184332e-09	-1.553561e+01	-3.410401e+02
2.720000e-06	-2.262158e-06	-5.476263e-09	-1.619671e+01	-3.603225e+02
2.730000e-06	-2.353799e-06	-5.742799e-09	-1.685284e+01	-3.779077e+02
2.740000e-06	-2.444683e-06	-5.985651e-09	-1.750355e+01	-3.938435e+02
2.750000e-06	-2.534581e-06	-6.204843e-09	-1.814721e+01	-4.082153e+02
2.760000e-06	-2.623598e-06	-6.401802e-09	-1.878456e+01	-4.211375e+02
2.770000e-06	-2.711848e-06	-6.581869e-09	-1.941642e+01	-4.327440e+02
2.780000e-06	-2.799270e-06	-6.745220e-09	-2.004235e+01	-4.431794e+02
2.790000e-06	-2.885641e-06	-6.889804e-09	-2.066075e+01	-4.525897e+02
2.800000e-06	-2.970757e-06	-7.019454e-09	-2.127016e+01	-4.611145e+02
2.810000e-06	-3.054749e-06	-7.140886e-09	-2.187154e+01	-4.688816e+02
2.820000e-06	-3.137765e-06	-7.252627e-09	-2.246592e+01	-4.760024e+02
2.830000e-06	-3.219744e-06	-7.352226e-09	-2.305287e+01	-4.825706e+02
2.840000e-06	-3.300598e-06	-7.443109e-09	-2.363178e+01	-4.886617e+02
2.850000e-06	-3.380381e-06	-7.528676e-09	-2.420301e+01	-4.943344e+02
2.860000e-06	-3.458931e-06	-7.609883e-09	-2.476542e+01	-4.996335e+02
2.870000e-06	-3.535876e-06	-7.686357e-09	-2.531633e+01	-5.045930e+02
2.880000e-06	-3.611324e-06	-7.757662e-09	-2.585653e+01	-5.092388e+02
2.890000e-06	-3.685496e-06	-7.824988e-09	-2.638759e+01	-5.135927e+02
2.900000e-06	-3.758418e-06	-7.889635e-09	-2.690970e+01	-5.176739e+02
2.910000e-06	-3.830080e-06	-7.951302e-09	-2.742279e+01	-5.215010e+02
2.920000e-06	-3.900214e-06	-8.008542e-09	-2.792494e+01	-5.250929e+02
2.930000e-06	-3.968791e-06	-8.061052e-09	-2.841594e+01	-5.284686e+02
2.940000e-06	-4.036029e-06	-8.110571e-09	-2.889735e+01	-5.316474e+02
