# Temperatura_=_20.0
# Concentracion g/m^3_=_9000.0
# C_Vs_to_Am_M_A/Vsm_=_65563218390.804596
# pendiente_HvsI_1/m_=_3716.3
# ordenada_HvsI_A/m_=_1297.0
# frecuencia_Hz_=_300878.5278227982

Tiempo_(s)	Campo_(V.s)	Magnetizacion_(V.s)	Campo_(kA/m)	Magnetizacion_(A/m)
0.000000e+00	-5.330919e-06	-8.740773e-09	-3.829435e+01	-5.728071e+02
1.000000e-08	-5.329464e-06	-8.739873e-09	-3.828390e+01	-5.726954e+02
2.000000e-08	-5.326093e-06	-8.738324e-09	-3.825968e+01	-5.725266e+02
3.000000e-08	-5.321065e-06	-8.735074e-09	-3.822356e+01	-5.723029e+02
4.000000e-08	-5.314399e-06	-8.728504e-09	-3.817568e+01	-5.720274e+02
5.000000e-08	-5.306067e-06	-8.721679e-09	-3.811583e+01	-5.717038e+02
6.000000e-08	-5.295801e-06	-8.717428e-09	-3.804209e+01	-5.713357e+02
7.000000e-08	-5.283546e-06	-8.708487e-09	-3.795405e+01	-5.709257e+02
8.000000e-08	-5.269395e-06	-8.697035e-09	-3.785240e+01	-5.704753e+02
9.000000e-08	-5.253095e-06	-8.718036e-09	-3.773531e+01	-5.699843e+02
1.000000e-07	-5.234701e-06	-8.737601e-09	-3.760317e+01	-5.694505e+02
1.100000e-07	-5.214425e-06	-8.720160e-09	-3.745753e+01	-5.688702e+02
1.200000e-07	-5.192344e-06	-8.685879e-09	-3.729891e+01	-5.682385e+02
1.300000e-07	-5.168591e-06	-8.621265e-09	-3.712828e+01	-5.675497e+02
1.400000e-07	-5.143218e-06	-8.589386e-09	-3.694601e+01	-5.667984e+02
1.500000e-07	-5.116245e-06	-8.669547e-09	-3.675226e+01	-5.659800e+02
1.600000e-07	-5.087737e-06	-8.646445e-09	-3.654747e+01	-5.650915e+02
1.700000e-07	-5.057726e-06	-8.573001e-09	-3.633189e+01	-5.641320e+02
1.800000e-07	-5.025956e-06	-8.581906e-09	-3.610367e+01	-5.631023e+02
1.900000e-07	-4.992072e-06	-8.546891e-09	-3.586026e+01	-5.620053e+02
2.000000e-07	-4.956600e-06	-8.577366e-09	-3.560545e+01	-5.608451e+02
2.100000e-07	-4.919712e-06	-8.596418e-09	-3.534047e+01	-5.596263e+02
2.200000e-07	-4.880935e-06	-8.486313e-09	-3.506192e+01	-5.583534e+02
2.300000e-07	-4.840289e-06	-8.455476e-09	-3.476994e+01	-5.570295e+02
2.400000e-07	-4.797813e-06	-8.496248e-09	-3.446482e+01	-5.556562e+02
2.500000e-07	-4.753508e-06	-8.487919e-09	-3.414656e+01	-5.542324e+02
2.600000e-07	-4.707460e-06	-8.442738e-09	-3.381577e+01	-5.527549e+02
2.700000e-07	-4.659546e-06	-8.361055e-09	-3.347158e+01	-5.512183e+02
2.800000e-07	-4.609577e-06	-8.361357e-09	-3.311263e+01	-5.496155e+02
2.900000e-07	-4.557686e-06	-8.381784e-09	-3.273988e+01	-5.479386e+02
3.000000e-07	-4.504140e-06	-8.335012e-09	-3.235523e+01	-5.461801e+02
3.100000e-07	-4.448985e-06	-8.283128e-09	-3.195903e+01	-5.443331e+02
3.200000e-07	-4.392142e-06	-8.251158e-09	-3.155070e+01	-5.423927e+02
3.300000e-07	-4.333572e-06	-8.230915e-09	-3.112997e+01	-5.403563e+02
3.400000e-07	-4.273462e-06	-8.209760e-09	-3.069817e+01	-5.382235e+02
3.500000e-07	-4.211962e-06	-8.186173e-09	-3.025639e+01	-5.359962e+02
3.600000e-07	-4.149046e-06	-8.121489e-09	-2.980443e+01	-5.336778e+02
3.700000e-07	-4.084604e-06	-8.069279e-09	-2.934152e+01	-5.312725e+02
3.800000e-07	-4.018546e-06	-8.075373e-09	-2.886700e+01	-5.287843e+02
3.900000e-07	-3.950947e-06	-8.045502e-09	-2.838140e+01	-5.262166e+02
4.000000e-07	-3.881911e-06	-7.969905e-09	-2.788549e+01	-5.235706e+02
4.100000e-07	-3.811568e-06	-7.925166e-09	-2.738018e+01	-5.208455e+02
4.200000e-07	-3.740081e-06	-7.908431e-09	-2.686666e+01	-5.180382e+02
4.300000e-07	-3.667323e-06	-7.871427e-09	-2.634401e+01	-5.151433e+02
4.400000e-07	-3.592948e-06	-7.804708e-09	-2.580973e+01	-5.121537e+02
4.500000e-07	-3.516936e-06	-7.754170e-09	-2.526371e+01	-5.090613e+02
4.600000e-07	-3.439508e-06	-7.711186e-09	-2.470751e+01	-5.058576e+02
4.700000e-07	-3.360710e-06	-7.659866e-09	-2.414147e+01	-5.025347e+02
4.800000e-07	-3.280573e-06	-7.614258e-09	-2.356581e+01	-4.990854e+02
4.900000e-07	-3.199181e-06	-7.557939e-09	-2.298113e+01	-4.955039e+02
5.000000e-07	-3.116724e-06	-7.492894e-09	-2.238881e+01	-4.917857e+02
5.100000e-07	-3.033401e-06	-7.437642e-09	-2.179026e+01	-4.879268e+02
5.200000e-07	-2.949189e-06	-7.394488e-09	-2.118533e+01	-4.839240e+02
5.300000e-07	-2.864017e-06	-7.328109e-09	-2.057350e+01	-4.797734e+02
5.400000e-07	-2.777857e-06	-7.247007e-09	-1.995458e+01	-4.754703e+02
5.500000e-07	-2.690867e-06	-7.183229e-09	-1.932969e+01	-4.710082e+02
5.600000e-07	-2.603018e-06	-7.125149e-09	-1.869863e+01	-4.663786e+02
5.700000e-07	-2.514043e-06	-7.050179e-09	-1.805949e+01	-4.615711e+02
5.800000e-07	-2.423931e-06	-6.961109e-09	-1.741217e+01	-4.565734e+02
5.900000e-07	-2.332902e-06	-6.882455e-09	-1.675827e+01	-4.513716e+02
6.000000e-07	-2.241110e-06	-6.805247e-09	-1.609889e+01	-4.459515e+02
6.100000e-07	-2.148636e-06	-6.716916e-09	-1.543461e+01	-4.402988e+02
6.200000e-07	-2.055435e-06	-6.621856e-09	-1.476510e+01	-4.343998e+02
6.300000e-07	-1.961416e-06	-6.527818e-09	-1.408972e+01	-4.282418e+02
6.400000e-07	-1.866736e-06	-6.430870e-09	-1.340959e+01	-4.218131e+02
6.500000e-07	-1.771544e-06	-6.328551e-09	-1.272579e+01	-4.151028e+02
6.600000e-07	-1.675767e-06	-6.223380e-09	-1.203778e+01	-4.080996e+02
6.700000e-07	-1.579223e-06	-6.109997e-09	-1.134426e+01	-4.007912e+02
6.800000e-07	-1.481908e-06	-5.991040e-09	-1.064520e+01	-3.931626e+02
6.900000e-07	-1.384021e-06	-5.869926e-09	-9.942039e+00	-3.851953e+02
7.000000e-07	-1.285626e-06	-5.745862e-09	-9.235218e+00	-3.768654e+02
7.100000e-07	-1.186762e-06	-5.610038e-09	-8.525034e+00	-3.681435e+02
7.200000e-07	-1.087479e-06	-5.465827e-09	-7.811841e+00	-3.589940e+02
7.300000e-07	-9.878062e-07	-5.320308e-09	-7.095849e+00	-3.493752e+02
7.400000e-07	-8.878686e-07	-5.166801e-09	-6.377954e+00	-3.392400e+02
7.500000e-07	-7.876641e-07	-4.998926e-09	-5.658140e+00	-3.285368e+02
7.600000e-07	-6.872122e-07	-4.821094e-09	-4.936550e+00	-3.172111e+02
7.700000e-07	-5.865645e-07	-4.637351e-09	-4.213553e+00	-3.052070e+02
7.800000e-07	-4.857121e-07	-4.441812e-09	-3.489085e+00	-2.924682e+02
7.900000e-07	-3.847194e-07	-4.233825e-09	-2.763610e+00	-2.789400e+02
8.000000e-07	-2.835924e-07	-4.015368e-09	-2.037170e+00	-2.645696e+02
8.100000e-07	-1.822981e-07	-3.785090e-09	-1.309528e+00	-2.493076e+02
8.200000e-07	-8.090423e-08	-3.537742e-09	-5.811709e-01	-2.331079e+02
8.300000e-07	2.053873e-08	-3.273380e-09	1.475388e-01	-2.159286e+02
8.400000e-07	1.219941e-07	-2.994823e-09	8.763377e-01	-1.977325e+02
8.500000e-07	2.233301e-07	-2.700527e-09	1.604279e+00	-1.784881e+02
8.600000e-07	3.245141e-07	-2.388245e-09	2.331128e+00	-1.581715e+02
8.700000e-07	4.255878e-07	-2.060398e-09	3.057186e+00	-1.367677e+02
8.800000e-07	5.265518e-07	-1.716520e-09	3.782455e+00	-1.142744e+02
8.900000e-07	6.273556e-07	-1.352633e-09	4.506573e+00	-9.070508e+01
9.000000e-07	7.279600e-07	-9.743166e-10	5.229259e+00	-6.609278e+01
9.100000e-07	8.283096e-07	-5.845809e-10	5.950115e+00	-4.049413e+01
9.200000e-07	9.283777e-07	-1.817129e-10	6.668948e+00	-1.399268e+01
9.300000e-07	1.028198e-06	2.348264e-10	7.385999e+00	1.329848e+01
9.400000e-07	1.127735e-06	6.610525e-10	8.101017e+00	4.123563e+01
9.500000e-07	1.226915e-06	1.091437e-09	8.813474e+00	6.964502e+01
9.600000e-07	1.325660e-06	1.527006e-09	9.522806e+00	9.832557e+01
9.700000e-07	1.423870e-06	1.964394e-09	1.022829e+01	1.270536e+02
9.800000e-07	1.521454e-06	2.397819e-09	1.092928e+01	1.555897e+02
9.900000e-07	1.618308e-06	2.825857e-09	1.162502e+01	1.836872e+02
1.000000e-06	1.714417e-06	3.245046e-09	1.231542e+01	2.111015e+02
1.010000e-06	1.809900e-06	3.648913e-09	1.300132e+01	2.376007e+02
1.020000e-06	1.904803e-06	4.035459e-09	1.368304e+01	2.629749e+02
1.030000e-06	1.999080e-06	4.403996e-09	1.436028e+01	2.870452e+02
1.040000e-06	2.092649e-06	4.749588e-09	1.503243e+01	3.096704e+02
1.050000e-06	2.185487e-06	5.069793e-09	1.569932e+01	3.307522e+02
1.060000e-06	2.277640e-06	5.363761e-09	1.636130e+01	3.502372e+02
1.070000e-06	2.369159e-06	5.629755e-09	1.701872e+01	3.681158e+02
1.080000e-06	2.459929e-06	5.871123e-09	1.767076e+01	3.844197e+02
1.090000e-06	2.549697e-06	6.092022e-09	1.831561e+01	3.992161e+02
1.100000e-06	2.638344e-06	6.294087e-09	1.895240e+01	4.126006e+02
1.110000e-06	2.725936e-06	6.475182e-09	1.958161e+01	4.246891e+02
1.120000e-06	2.812630e-06	6.639496e-09	2.020436e+01	4.356093e+02
1.130000e-06	2.898423e-06	6.792064e-09	2.082065e+01	4.454930e+02
1.140000e-06	2.983240e-06	6.932871e-09	2.142994e+01	4.544687e+02
1.150000e-06	3.067134e-06	7.059518e-09	2.203258e+01	4.626560e+02
1.160000e-06	3.150111e-06	7.172115e-09	2.262864e+01	4.701620e+02
1.170000e-06	3.231947e-06	7.276061e-09	2.321651e+01	4.770786e+02
1.180000e-06	3.312519e-06	7.374457e-09	2.379529e+01	4.834826e+02
1.190000e-06	3.391880e-06	7.464001e-09	2.436537e+01	4.894361e+02
1.200000e-06	3.470004e-06	7.544759e-09	2.492658e+01	4.949883e+02
1.210000e-06	3.546912e-06	7.621900e-09	2.547904e+01	5.001782e+02
1.220000e-06	3.622580e-06	7.694826e-09	2.602260e+01	5.050372e+02
1.230000e-06	3.696865e-06	7.762218e-09	2.655622e+01	5.095912e+02
1.240000e-06	3.769560e-06	7.824954e-09	2.707842e+01	5.138627e+02
1.250000e-06	3.840785e-06	7.885114e-09	2.759006e+01	5.178725e+02
1.260000e-06	3.910695e-06	7.941667e-09	2.809225e+01	5.216402e+02
1.270000e-06	3.979232e-06	7.993661e-09	2.858459e+01	5.251844e+02
1.280000e-06	4.046464e-06	8.040574e-09	2.906754e+01	5.285227e+02
1.290000e-06	4.112219e-06	8.086012e-09	2.953989e+01	5.316715e+02
1.300000e-06	4.176328e-06	8.129057e-09	3.000042e+01	5.346450e+02
1.310000e-06	4.238984e-06	8.168184e-09	3.045050e+01	5.374554e+02
1.320000e-06	4.300325e-06	8.206159e-09	3.089114e+01	5.401127e+02
1.330000e-06	4.360304e-06	8.242946e-09	3.132200e+01	5.426249e+02
1.340000e-06	4.418868e-06	8.277099e-09	3.174269e+01	5.449982e+02
1.350000e-06	4.475683e-06	8.308308e-09	3.215082e+01	5.472380e+02
1.360000e-06	4.530727e-06	8.339736e-09	3.254622e+01	5.493493e+02
1.370000e-06	4.584210e-06	8.370466e-09	3.293041e+01	5.513373e+02
1.380000e-06	4.635935e-06	8.397958e-09	3.330198e+01	5.532079e+02
1.390000e-06	4.685679e-06	8.423003e-09	3.365931e+01	5.549681e+02
1.400000e-06	4.733471e-06	8.447010e-09	3.400262e+01	5.566256e+02
1.410000e-06	4.779534e-06	8.471379e-09	3.433351e+01	5.581885e+02
1.420000e-06	4.824009e-06	8.494956e-09	3.465299e+01	5.596650e+02
1.430000e-06	4.866941e-06	8.516129e-09	3.496140e+01	5.610626e+02
1.440000e-06	4.908031e-06	8.535327e-09	3.525656e+01	5.623878e+02
1.450000e-06	4.947204e-06	8.554944e-09	3.553796e+01	5.636451e+02
1.460000e-06	4.984768e-06	8.574952e-09	3.580780e+01	5.648373e+02
1.470000e-06	5.020789e-06	8.592271e-09	3.606655e+01	5.659655e+02
1.480000e-06	5.055023e-06	8.607242e-09	3.631247e+01	5.670288e+02
1.490000e-06	5.087257e-06	8.622394e-09	3.654402e+01	5.680256e+02
1.500000e-06	5.117685e-06	8.638080e-09	3.676260e+01	5.689535e+02
1.510000e-06	5.146525e-06	8.651513e-09	3.696977e+01	5.698107e+02
1.520000e-06	5.173720e-06	8.662415e-09	3.716513e+01	5.705958e+02
1.530000e-06	5.198955e-06	8.673110e-09	3.734640e+01	5.713086e+02
1.540000e-06	5.222164e-06	8.685056e-09	3.751312e+01	5.719503e+02
1.550000e-06	5.243559e-06	8.696517e-09	3.766681e+01	5.725234e+02
1.560000e-06	5.263257e-06	8.706421e-09	3.780831e+01	5.730313e+02
1.570000e-06	5.281194e-06	8.714728e-09	3.793716e+01	5.734778e+02
1.580000e-06	5.297172e-06	8.721633e-09	3.805193e+01	5.738666e+02
1.590000e-06	5.311169e-06	8.728471e-09	3.815248e+01	5.742009e+02
1.600000e-06	5.323235e-06	8.733450e-09	3.823916e+01	5.744828e+02
1.610000e-06	5.333184e-06	8.736727e-09	3.831062e+01	5.747133e+02
1.620000e-06	5.340981e-06	8.739566e-09	3.836663e+01	5.748921e+02
1.630000e-06	5.346920e-06	8.742724e-09	3.840929e+01	5.750179e+02
1.640000e-06	5.351178e-06	8.745297e-09	3.843988e+01	5.750890e+02
1.650000e-06	5.353588e-06	8.748366e-09	3.845719e+01	5.751036e+02
1.660000e-06	5.353979e-06	8.751915e-09	3.846000e+01	5.750602e+02
1.670000e-06	5.352549e-06	8.751286e-09	3.844973e+01	5.749586e+02
1.680000e-06	5.349504e-06	8.749166e-09	3.842786e+01	5.747996e+02
1.690000e-06	5.344825e-06	8.745675e-09	3.839425e+01	5.745851e+02
1.700000e-06	5.338270e-06	8.741627e-09	3.834716e+01	5.743183e+02
1.710000e-06	5.329822e-06	8.737613e-09	3.828647e+01	5.740028e+02
1.720000e-06	5.319791e-06	8.733078e-09	3.821442e+01	5.736421e+02
1.730000e-06	5.308200e-06	8.734443e-09	3.813115e+01	5.732392e+02
1.740000e-06	5.294762e-06	8.717724e-09	3.803462e+01	5.727957e+02
1.750000e-06	5.279165e-06	8.670045e-09	3.792258e+01	5.723117e+02
1.760000e-06	5.261195e-06	8.654204e-09	3.779349e+01	5.717855e+02
1.770000e-06	5.240714e-06	8.655381e-09	3.764637e+01	5.712136e+02
1.780000e-06	5.217916e-06	8.696213e-09	3.748261e+01	5.705912e+02
1.790000e-06	5.193722e-06	8.749357e-09	3.730880e+01	5.699127e+02
1.800000e-06	5.168776e-06	8.640343e-09	3.712961e+01	5.691727e+02
1.810000e-06	5.142410e-06	8.598313e-09	3.694021e+01	5.683663e+02
1.820000e-06	5.113957e-06	8.650467e-09	3.673582e+01	5.674902e+02
1.830000e-06	5.083870e-06	8.607834e-09	3.651969e+01	5.665430e+02
1.840000e-06	5.052123e-06	8.647635e-09	3.629163e+01	5.655254e+02
1.850000e-06	5.018195e-06	8.607086e-09	3.604792e+01	5.644399e+02
1.860000e-06	4.982543e-06	8.495614e-09	3.579182e+01	5.632903e+02
1.870000e-06	4.945298e-06	8.584460e-09	3.552427e+01	5.620814e+02
1.880000e-06	4.906112e-06	8.584511e-09	3.524278e+01	5.608176e+02
1.890000e-06	4.865159e-06	8.497961e-09	3.494860e+01	5.595024e+02
1.900000e-06	4.822494e-06	8.494577e-09	3.464211e+01	5.581376e+02
1.910000e-06	4.778370e-06	8.473224e-09	3.432515e+01	5.567227e+02
1.920000e-06	4.732705e-06	8.522123e-09	3.399712e+01	5.552549e+02
1.930000e-06	4.685035e-06	8.484106e-09	3.365468e+01	5.537290e+02
1.940000e-06	4.635672e-06	8.395290e-09	3.330009e+01	5.521383e+02
1.950000e-06	4.584749e-06	8.419584e-09	3.293428e+01	5.504750e+02
1.960000e-06	4.531983e-06	8.372352e-09	3.255524e+01	5.487313e+02
1.970000e-06	4.477225e-06	8.360045e-09	3.216189e+01	5.469002e+02
1.980000e-06	4.420672e-06	8.352769e-09	3.175564e+01	5.449765e+02
1.990000e-06	4.362617e-06	8.268767e-09	3.133861e+01	5.429571e+02
2.000000e-06	4.303084e-06	8.234792e-09	3.091096e+01	5.408412e+02
2.010000e-06	4.242208e-06	8.228739e-09	3.047366e+01	5.386302e+02
2.020000e-06	4.179743e-06	8.229664e-09	3.002495e+01	5.363275e+02
2.030000e-06	4.115496e-06	8.133683e-09	2.956343e+01	5.339371e+02
2.040000e-06	4.049739e-06	8.074538e-09	2.909107e+01	5.314632e+02
2.050000e-06	3.982641e-06	8.097101e-09	2.860907e+01	5.289092e+02
2.060000e-06	3.914233e-06	8.046894e-09	2.811767e+01	5.262769e+02
2.070000e-06	3.844194e-06	7.992870e-09	2.761455e+01	5.235658e+02
2.080000e-06	3.772533e-06	7.936863e-09	2.709978e+01	5.207733e+02
2.090000e-06	3.699606e-06	7.908054e-09	2.657591e+01	5.178942e+02
2.100000e-06	3.625391e-06	7.865467e-09	2.604279e+01	5.149218e+02
2.110000e-06	3.549806e-06	7.811111e-09	2.549983e+01	5.118481e+02
2.120000e-06	3.472742e-06	7.781053e-09	2.494624e+01	5.086646e+02
2.130000e-06	3.394196e-06	7.709107e-09	2.438202e+01	5.053633e+02
2.140000e-06	3.314368e-06	7.651069e-09	2.380857e+01	5.019367e+02
2.150000e-06	3.233378e-06	7.613164e-09	2.322679e+01	4.983790e+02
2.160000e-06	3.151324e-06	7.565964e-09	2.263736e+01	4.946851e+02
2.170000e-06	3.068236e-06	7.487857e-09	2.204050e+01	4.908514e+02
2.180000e-06	2.984199e-06	7.417050e-09	2.143682e+01	4.868742e+02
2.190000e-06	2.899136e-06	7.375758e-09	2.082578e+01	4.827501e+02
2.200000e-06	2.812863e-06	7.309855e-09	2.020604e+01	4.784744e+02
2.210000e-06	2.725363e-06	7.231333e-09	1.957749e+01	4.740409e+02
2.220000e-06	2.636809e-06	7.163303e-09	1.894137e+01	4.694417e+02
2.230000e-06	2.547468e-06	7.103754e-09	1.829959e+01	4.646665e+02
2.240000e-06	2.457341e-06	7.025118e-09	1.765217e+01	4.597034e+02
2.250000e-06	2.366406e-06	6.941507e-09	1.699894e+01	4.545389e+02
2.260000e-06	2.274745e-06	6.865973e-09	1.634050e+01	4.491586e+02
2.270000e-06	2.182434e-06	6.778697e-09	1.567739e+01	4.435481e+02
2.280000e-06	2.089380e-06	6.684148e-09	1.500894e+01	4.376938e+02
2.290000e-06	1.995389e-06	6.594069e-09	1.433377e+01	4.315826e+02
2.300000e-06	1.900535e-06	6.503329e-09	1.365238e+01	4.252028e+02
2.310000e-06	1.804935e-06	6.397168e-09	1.296565e+01	4.185433e+02
2.320000e-06	1.708721e-06	6.288862e-09	1.227450e+01	4.115930e+02
2.330000e-06	1.611970e-06	6.184543e-09	1.157949e+01	4.043398e+02
2.340000e-06	1.514683e-06	6.071575e-09	1.088064e+01	3.967694e+02
2.350000e-06	1.416898e-06	5.948456e-09	1.017821e+01	3.888638e+02
2.360000e-06	1.318643e-06	5.825677e-09	9.472397e+00	3.806004e+02
2.370000e-06	1.220016e-06	5.701112e-09	8.763912e+00	3.719507e+02
2.380000e-06	1.121059e-06	5.560722e-09	8.053060e+00	3.628801e+02
2.390000e-06	1.021791e-06	5.411805e-09	7.339979e+00	3.533482e+02
2.400000e-06	9.222557e-07	5.261833e-09	6.624972e+00	3.433085e+02
2.410000e-06	8.224072e-07	5.102387e-09	5.907716e+00	3.327104e+02
2.420000e-06	7.222509e-07	4.929377e-09	5.188248e+00	3.214997e+02
2.430000e-06	6.217991e-07	4.748688e-09	4.466658e+00	3.096206e+02
2.440000e-06	5.211217e-07	4.560176e-09	3.743448e+00	2.970168e+02
2.450000e-06	4.203723e-07	4.355477e-09	3.019721e+00	2.836332e+02
2.460000e-06	3.195245e-07	4.137514e-09	2.295286e+00	2.694167e+02
2.470000e-06	2.185122e-07	3.910986e-09	1.569670e+00	2.543171e+02
2.480000e-06	1.174065e-07	3.669135e-09	8.433828e-01	2.382877e+02
2.490000e-06	1.626432e-08	3.409774e-09	1.168338e-01	2.212859e+02
2.500000e-06	-8.486591e-08	3.138264e-09	-6.096295e-01	2.032736e+02
2.510000e-06	-1.859708e-07	2.851970e-09	-1.335911e+00	1.842182e+02
2.520000e-06	-2.870177e-07	2.543628e-09	-2.061776e+00	1.640941e+02
2.530000e-06	-3.879156e-07	2.217328e-09	-2.786570e+00	1.428847e+02
2.540000e-06	-4.886618e-07	1.878312e-09	-3.510275e+00	1.205853e+02
2.550000e-06	-5.892346e-07	1.523179e-09	-4.232733e+00	9.720601e+01
2.560000e-06	-6.895929e-07	1.148434e-09	-4.953652e+00	7.277625e+01
2.570000e-06	-7.896869e-07	7.591854e-10	-5.672671e+00	4.734814e+01
2.580000e-06	-8.894598e-07	3.597238e-10	-6.389384e+00	2.100021e+01
2.590000e-06	-9.889254e-07	-5.340049e-11	-7.103889e+00	-6.159866e+00
2.600000e-06	-1.088111e-06	-4.795860e-10	-7.816383e+00	-3.399384e+01
2.610000e-06	-1.187002e-06	-9.126186e-10	-8.526763e+00	-6.233320e+01
2.620000e-06	-1.285508e-06	-1.348229e-09	-9.234374e+00	-9.098144e+01
2.630000e-06	-1.383529e-06	-1.785565e-09	-9.938505e+00	-1.197185e+02
2.640000e-06	-1.481074e-06	-2.221608e-09	-1.063921e+01	-1.483071e+02
2.650000e-06	-1.578138e-06	-2.651922e-09	-1.133646e+01	-1.765013e+02
2.660000e-06	-1.674749e-06	-3.072295e-09	-1.203046e+01	-2.040554e+02
2.670000e-06	-1.770962e-06	-3.479992e-09	-1.272160e+01	-2.307345e+02
2.680000e-06	-1.866605e-06	-3.872548e-09	-1.340865e+01	-2.563240e+02
2.690000e-06	-1.961444e-06	-4.248533e-09	-1.408992e+01	-2.806389e+02
2.700000e-06	-2.055324e-06	-4.604242e-09	-1.476430e+01	-3.035309e+02
2.710000e-06	-2.148271e-06	-4.931932e-09	-1.543198e+01	-3.248939e+02
2.720000e-06	-2.240417e-06	-5.231904e-09	-1.609391e+01	-3.446662e+02
2.730000e-06	-2.331849e-06	-5.509535e-09	-1.675070e+01	-3.628307e+02
2.740000e-06	-2.422541e-06	-5.763618e-09	-1.740219e+01	-3.794122e+02
2.750000e-06	-2.512356e-06	-5.993643e-09	-1.804736e+01	-3.944718e+02
2.760000e-06	-2.601293e-06	-6.203362e-09	-1.868624e+01	-4.081006e+02
2.770000e-06	-2.689420e-06	-6.395715e-09	-1.931929e+01	-4.204116e+02
2.780000e-06	-2.776682e-06	-6.569016e-09	-1.994613e+01	-4.315311e+02
2.790000e-06	-2.862836e-06	-6.723753e-09	-2.056502e+01	-4.415906e+02
2.800000e-06	-2.947790e-06	-6.863608e-09	-2.117528e+01	-4.507196e+02
2.810000e-06	-3.031714e-06	-6.991329e-09	-2.177815e+01	-4.590398e+02
2.820000e-06	-3.114660e-06	-7.108934e-09	-2.237398e+01	-4.666605e+02
2.830000e-06	-3.196567e-06	-7.216637e-09	-2.296236e+01	-4.736766e+02
2.840000e-06	-3.277396e-06	-7.314696e-09	-2.354299e+01	-4.801674e+02
2.850000e-06	-3.357157e-06	-7.405322e-09	-2.411595e+01	-4.861977e+02
2.860000e-06	-3.435591e-06	-7.490765e-09	-2.467937e+01	-4.918187e+02
2.870000e-06	-3.512477e-06	-7.571515e-09	-2.523168e+01	-4.970711e+02
2.880000e-06	-3.587939e-06	-7.648189e-09	-2.577375e+01	-5.019875e+02
2.890000e-06	-3.662076e-06	-7.719721e-09	-2.630631e+01	-5.065944e+02
2.900000e-06	-3.734964e-06	-7.786622e-09	-2.682990e+01	-5.109151e+02
2.910000e-06	-3.806569e-06	-7.850476e-09	-2.734427e+01	-5.149705e+02
2.920000e-06	-3.876626e-06	-7.911306e-09	-2.784753e+01	-5.187802e+02
2.930000e-06	-3.945151e-06	-7.967724e-09	-2.833977e+01	-5.223633e+02
2.940000e-06	-4.012365e-06	-8.020165e-09	-2.882259e+01	-5.257375e+02
