# Temperatura_=_20.0
# Concentracion g/m^3_=_9000.0
# C_Vs_to_Am_M_A/Vsm_=_65563218390.804596
# pendiente_HvsI_1/m_=_3716.3
# ordenada_HvsI_A/m_=_1297.0
# frecuencia_Hz_=_300868.996675947

Tiempo_(s)	Campo_(V.s)	Magnetizacion_(V.s)	Campo_(kA/m)	Magnetizacion_(A/m)
0.000000e+00	-5.345726e-06	-8.855116e-09	-3.829359e+01	-5.787773e+02
1.000000e-08	-5.344184e-06	-8.852311e-09	-3.828254e+01	-5.786737e+02
2.000000e-08	-5.340735e-06	-8.850709e-09	-3.825784e+01	-5.784927e+02
3.000000e-08	-5.335654e-06	-8.848396e-09	-3.822144e+01	-5.782354e+02
4.000000e-08	-5.328956e-06	-8.843900e-09	-3.817346e+01	-5.779066e+02
5.000000e-08	-5.320554e-06	-8.838560e-09	-3.811328e+01	-5.775149e+02
6.000000e-08	-5.310183e-06	-8.833326e-09	-3.803898e+01	-5.770716e+02
7.000000e-08	-5.297851e-06	-8.824154e-09	-3.795064e+01	-5.765895e+02
8.000000e-08	-5.283612e-06	-8.809825e-09	-3.784865e+01	-5.760810e+02
9.000000e-08	-5.267171e-06	-8.815161e-09	-3.773087e+01	-5.755566e+02
1.000000e-07	-5.248617e-06	-8.825320e-09	-3.759796e+01	-5.750236e+02
1.100000e-07	-5.228176e-06	-8.813927e-09	-3.745154e+01	-5.744844e+02
1.200000e-07	-5.205924e-06	-8.790313e-09	-3.729213e+01	-5.739365e+02
1.300000e-07	-5.181979e-06	-8.748036e-09	-3.712061e+01	-5.733723e+02
1.400000e-07	-5.156402e-06	-8.727033e-09	-3.693739e+01	-5.727801e+02
1.500000e-07	-5.129244e-06	-8.771786e-09	-3.674285e+01	-5.721448e+02
1.600000e-07	-5.100598e-06	-8.743544e-09	-3.653764e+01	-5.714501e+02
1.700000e-07	-5.070448e-06	-8.676794e-09	-3.632166e+01	-5.706799e+02
1.800000e-07	-5.038464e-06	-8.670487e-09	-3.609255e+01	-5.698202e+02
1.900000e-07	-5.004386e-06	-8.665738e-09	-3.584844e+01	-5.688602e+02
2.000000e-07	-4.968753e-06	-8.687380e-09	-3.559318e+01	-5.677936e+02
2.100000e-07	-4.931675e-06	-8.665729e-09	-3.532758e+01	-5.666185e+02
2.200000e-07	-4.892687e-06	-8.590575e-09	-3.504829e+01	-5.653375e+02
2.300000e-07	-4.851811e-06	-8.579317e-09	-3.475548e+01	-5.639568e+02
2.400000e-07	-4.809073e-06	-8.594708e-09	-3.444933e+01	-5.624850e+02
2.500000e-07	-4.764563e-06	-8.591546e-09	-3.413048e+01	-5.609315e+02
2.600000e-07	-4.718364e-06	-8.538584e-09	-3.379955e+01	-5.593055e+02
2.700000e-07	-4.670181e-06	-8.448727e-09	-3.345439e+01	-5.576146e+02
2.800000e-07	-4.619900e-06	-8.468698e-09	-3.309420e+01	-5.558636e+02
2.900000e-07	-4.567783e-06	-8.492832e-09	-3.272087e+01	-5.540545e+02
3.000000e-07	-4.513988e-06	-8.417645e-09	-3.233552e+01	-5.521863e+02
3.100000e-07	-4.458576e-06	-8.358762e-09	-3.193858e+01	-5.502554e+02
3.200000e-07	-4.401484e-06	-8.354207e-09	-3.152961e+01	-5.482562e+02
3.300000e-07	-4.342673e-06	-8.341048e-09	-3.110832e+01	-5.461823e+02
3.400000e-07	-4.282336e-06	-8.300340e-09	-3.067610e+01	-5.440274e+02
3.500000e-07	-4.220618e-06	-8.263750e-09	-3.023399e+01	-5.417858e+02
3.600000e-07	-4.157520e-06	-8.206709e-09	-2.978199e+01	-5.394534e+02
3.700000e-07	-4.092881e-06	-8.163904e-09	-2.931896e+01	-5.370274e+02
3.800000e-07	-4.026644e-06	-8.165309e-09	-2.884448e+01	-5.345069e+02
3.900000e-07	-3.958917e-06	-8.123703e-09	-2.835932e+01	-5.318918e+02
4.000000e-07	-3.889724e-06	-8.042507e-09	-2.786366e+01	-5.291830e+02
4.100000e-07	-3.819251e-06	-8.005879e-09	-2.735883e+01	-5.263809e+02
4.200000e-07	-3.747617e-06	-7.997221e-09	-2.684569e+01	-5.234853e+02
4.300000e-07	-3.674543e-06	-7.950263e-09	-2.632223e+01	-5.204950e+02
4.400000e-07	-3.599808e-06	-7.873527e-09	-2.578687e+01	-5.174068e+02
4.500000e-07	-3.523541e-06	-7.824093e-09	-2.524055e+01	-5.142162e+02
4.600000e-07	-3.445907e-06	-7.790443e-09	-2.468442e+01	-5.109172e+02
4.700000e-07	-3.366885e-06	-7.742030e-09	-2.411835e+01	-5.075027e+02
4.800000e-07	-3.286477e-06	-7.680765e-09	-2.354236e+01	-5.039650e+02
4.900000e-07	-3.204789e-06	-7.615583e-09	-2.295719e+01	-5.002964e+02
5.000000e-07	-3.122065e-06	-7.561064e-09	-2.236461e+01	-4.964895e+02
5.100000e-07	-3.038419e-06	-7.508795e-09	-2.176542e+01	-4.925374e+02
5.200000e-07	-2.953888e-06	-7.448789e-09	-2.115989e+01	-4.884338e+02
5.300000e-07	-2.868430e-06	-7.377200e-09	-2.054772e+01	-4.841731e+02
5.400000e-07	-2.781976e-06	-7.306319e-09	-1.992841e+01	-4.797496e+02
5.500000e-07	-2.694657e-06	-7.242541e-09	-1.930292e+01	-4.751577e+02
5.600000e-07	-2.606468e-06	-7.174809e-09	-1.867118e+01	-4.703912e+02
5.700000e-07	-2.517201e-06	-7.096270e-09	-1.803172e+01	-4.654430e+02
5.800000e-07	-2.426786e-06	-7.009823e-09	-1.738404e+01	-4.603047e+02
5.900000e-07	-2.335389e-06	-6.928826e-09	-1.672933e+01	-4.549670e+02
6.000000e-07	-2.243266e-06	-6.846050e-09	-1.606942e+01	-4.494192e+02
6.100000e-07	-2.150558e-06	-6.751715e-09	-1.540532e+01	-4.436498e+02
6.200000e-07	-2.057119e-06	-6.652669e-09	-1.473597e+01	-4.376462e+02
6.300000e-07	-1.962899e-06	-6.560211e-09	-1.406104e+01	-4.313955e+02
6.400000e-07	-1.868030e-06	-6.465243e-09	-1.338145e+01	-4.248841e+02
6.500000e-07	-1.772570e-06	-6.356036e-09	-1.269763e+01	-4.180976e+02
6.600000e-07	-1.676462e-06	-6.244717e-09	-1.200918e+01	-4.110202e+02
6.700000e-07	-1.579606e-06	-6.136005e-09	-1.131535e+01	-4.036346e+02
6.800000e-07	-1.481987e-06	-6.020384e-09	-1.061607e+01	-3.959206e+02
6.900000e-07	-1.383764e-06	-5.893463e-09	-9.912461e+00	-3.878549e+02
7.000000e-07	-1.285062e-06	-5.762118e-09	-9.205414e+00	-3.794097e+02
7.100000e-07	-1.185907e-06	-5.626154e-09	-8.495130e+00	-3.705524e+02
7.200000e-07	-1.086296e-06	-5.484948e-09	-7.781575e+00	-3.612449e+02
7.300000e-07	-9.863437e-07	-5.336602e-09	-7.065578e+00	-3.514440e+02
7.400000e-07	-8.861701e-07	-5.173718e-09	-6.347994e+00	-3.411014e+02
7.500000e-07	-7.857406e-07	-5.000226e-09	-5.628577e+00	-3.301646e+02
7.600000e-07	-6.850459e-07	-4.822832e-09	-4.907260e+00	-3.185777e+02
7.700000e-07	-5.841059e-07	-4.636721e-09	-4.184186e+00	-3.062827e+02
7.800000e-07	-4.829408e-07	-4.434008e-09	-3.459500e+00	-2.932208e+02
7.900000e-07	-3.815804e-07	-4.216801e-09	-2.733414e+00	-2.793334e+02
8.000000e-07	-2.800895e-07	-3.991120e-09	-2.006394e+00	-2.645638e+02
8.100000e-07	-1.784878e-07	-3.756492e-09	-1.278580e+00	-2.488577e+02
8.200000e-07	-7.677469e-08	-3.503558e-09	-5.499681e-01	-2.321645e+02
8.300000e-07	2.497995e-08	-3.227700e-09	1.789415e-01	-2.144380e+02
8.400000e-07	1.266833e-07	-2.936150e-09	9.074837e-01	-1.956380e+02
8.500000e-07	2.283124e-07	-2.635254e-09	1.635494e+00	-1.757314e+02
8.600000e-07	3.298882e-07	-2.318368e-09	2.363122e+00	-1.546945e+02
8.700000e-07	4.313017e-07	-1.976945e-09	3.089588e+00	-1.325149e+02
8.800000e-07	5.324859e-07	-1.615482e-09	3.814411e+00	-1.091953e+02
8.900000e-07	6.334977e-07	-1.240625e-09	4.537999e+00	-8.475670e+01
9.000000e-07	7.343003e-07	-8.520886e-10	5.260089e+00	-5.924186e+01
9.100000e-07	8.348719e-07	-4.474247e-10	5.980524e+00	-3.271945e+01
9.200000e-07	9.352233e-07	-2.778347e-11	6.699381e+00	-5.286988e+00
9.300000e-07	1.035306e-06	4.024941e-10	7.416314e+00	2.292700e+01
9.400000e-07	1.135024e-06	8.383514e-10	8.130636e+00	5.176221e+01
9.500000e-07	1.234352e-06	1.277116e-09	8.842164e+00	8.102768e+01
9.600000e-07	1.333317e-06	1.723692e-09	9.551085e+00	1.105050e+02
9.700000e-07	1.431760e-06	2.174212e-09	1.025627e+01	1.399536e+02
9.800000e-07	1.529572e-06	2.617385e-09	1.095694e+01	1.691184e+02
9.900000e-07	1.626680e-06	3.050686e-09	1.165257e+01	1.977388e+02
1.000000e-06	1.723023e-06	3.474969e-09	1.234271e+01	2.255587e+02
1.010000e-06	1.818682e-06	3.885699e-09	1.302795e+01	2.523380e+02
1.020000e-06	1.913720e-06	4.276222e-09	1.370875e+01	2.778621e+02
1.030000e-06	2.008142e-06	4.643096e-09	1.438513e+01	3.019517e+02
1.040000e-06	2.101902e-06	4.984558e-09	1.505677e+01	3.244699e+02
1.050000e-06	2.194936e-06	5.301294e-09	1.572321e+01	3.453267e+02
1.060000e-06	2.287293e-06	5.589639e-09	1.638480e+01	3.644814e+02
1.070000e-06	2.379012e-06	5.848772e-09	1.704182e+01	3.819410e+02
1.080000e-06	2.469963e-06	6.081690e-09	1.769334e+01	3.977561e+02
1.090000e-06	2.559990e-06	6.294116e-09	1.833824e+01	4.120149e+02
1.100000e-06	2.648944e-06	6.489493e-09	1.897545e+01	4.248341e+02
1.110000e-06	2.736758e-06	6.664203e-09	1.960450e+01	4.363501e+02
1.120000e-06	2.823593e-06	6.820689e-09	2.022653e+01	4.467091e+02
1.130000e-06	2.909544e-06	6.963537e-09	2.084223e+01	4.560580e+02
1.140000e-06	2.994511e-06	7.094895e-09	2.145089e+01	4.645368e+02
1.150000e-06	3.078510e-06	7.214455e-09	2.205261e+01	4.722724e+02
1.160000e-06	3.161606e-06	7.322572e-09	2.264786e+01	4.793746e+02
1.170000e-06	3.243624e-06	7.421178e-09	2.323538e+01	4.859348e+02
1.180000e-06	3.324378e-06	7.512552e-09	2.381386e+01	4.920255e+02
1.190000e-06	3.403886e-06	7.597597e-09	2.438341e+01	4.977028e+02
1.200000e-06	3.482169e-06	7.675222e-09	2.494418e+01	5.030088e+02
1.210000e-06	3.559206e-06	7.747769e-09	2.549603e+01	5.079753e+02
1.220000e-06	3.635016e-06	7.816051e-09	2.603909e+01	5.126274e+02
1.230000e-06	3.709485e-06	7.879522e-09	2.657253e+01	5.169863e+02
1.240000e-06	3.782366e-06	7.939663e-09	2.709461e+01	5.210723e+02
1.250000e-06	3.853714e-06	7.996085e-09	2.760571e+01	5.249054e+02
1.260000e-06	3.923717e-06	8.048632e-09	2.810716e+01	5.285064e+02
1.270000e-06	3.992379e-06	8.098295e-09	2.859902e+01	5.318964e+02
1.280000e-06	4.059735e-06	8.144851e-09	2.908152e+01	5.350960e+02
1.290000e-06	4.125718e-06	8.188768e-09	2.955418e+01	5.381240e+02
1.300000e-06	4.190110e-06	8.229536e-09	3.001545e+01	5.409967e+02
1.310000e-06	4.252904e-06	8.266318e-09	3.046527e+01	5.437266e+02
1.320000e-06	4.314281e-06	8.302361e-09	3.090493e+01	5.463225e+02
1.330000e-06	4.374328e-06	8.338295e-09	3.133507e+01	5.487895e+02
1.340000e-06	4.432969e-06	8.371971e-09	3.175514e+01	5.511298e+02
1.350000e-06	4.489905e-06	8.402405e-09	3.216300e+01	5.533440e+02
1.360000e-06	4.545061e-06	8.431562e-09	3.255811e+01	5.554322e+02
1.370000e-06	4.598629e-06	8.460498e-09	3.294184e+01	5.573951e+02
1.380000e-06	4.650503e-06	8.488255e-09	3.331343e+01	5.592356e+02
1.390000e-06	4.700403e-06	8.513670e-09	3.367088e+01	5.609588e+02
1.400000e-06	4.748297e-06	8.536173e-09	3.401396e+01	5.625727e+02
1.410000e-06	4.794459e-06	8.558152e-09	3.434465e+01	5.640870e+02
1.420000e-06	4.839083e-06	8.580144e-09	3.466430e+01	5.655130e+02
1.430000e-06	4.882113e-06	8.600435e-09	3.497254e+01	5.668619e+02
1.440000e-06	4.923277e-06	8.618880e-09	3.526742e+01	5.681439e+02
1.450000e-06	4.962547e-06	8.637038e-09	3.554872e+01	5.693669e+02
1.460000e-06	5.000139e-06	8.654605e-09	3.581801e+01	5.705359e+02
1.470000e-06	5.036155e-06	8.670545e-09	3.607601e+01	5.716527e+02
1.480000e-06	5.070447e-06	8.685462e-09	3.632166e+01	5.727157e+02
1.490000e-06	5.102723e-06	8.699529e-09	3.655287e+01	5.737211e+02
1.500000e-06	5.133182e-06	8.712122e-09	3.677105e+01	5.746636e+02
1.510000e-06	5.162070e-06	8.724962e-09	3.697799e+01	5.755374e+02
1.520000e-06	5.189238e-06	8.737258e-09	3.717261e+01	5.763380e+02
1.530000e-06	5.214409e-06	8.747824e-09	3.735292e+01	5.770626e+02
1.540000e-06	5.237561e-06	8.758805e-09	3.751876e+01	5.777111e+02
1.550000e-06	5.258924e-06	8.769118e-09	3.767179e+01	5.782860e+02
1.560000e-06	5.278631e-06	8.777477e-09	3.781297e+01	5.787923e+02
1.570000e-06	5.296543e-06	8.783882e-09	3.794127e+01	5.792366e+02
1.580000e-06	5.312435e-06	8.790817e-09	3.805512e+01	5.796259e+02
1.590000e-06	5.326410e-06	8.797671e-09	3.815523e+01	5.799666e+02
1.600000e-06	5.338441e-06	8.801737e-09	3.824141e+01	5.802635e+02
1.610000e-06	5.348292e-06	8.804524e-09	3.831197e+01	5.805185e+02
1.620000e-06	5.356075e-06	8.808585e-09	3.836773e+01	5.807305e+02
1.630000e-06	5.362011e-06	8.812774e-09	3.841025e+01	5.808958e+02
1.640000e-06	5.366211e-06	8.813666e-09	3.844033e+01	5.810080e+02
1.650000e-06	5.368594e-06	8.814435e-09	3.845741e+01	5.810597e+02
1.660000e-06	5.368956e-06	8.816878e-09	3.846000e+01	5.810435e+02
1.670000e-06	5.367439e-06	8.816751e-09	3.844913e+01	5.809533e+02
1.680000e-06	5.364270e-06	8.813127e-09	3.842643e+01	5.807860e+02
1.690000e-06	5.359481e-06	8.808419e-09	3.839212e+01	5.805419e+02
1.700000e-06	5.352832e-06	8.804732e-09	3.834450e+01	5.802251e+02
1.710000e-06	5.344334e-06	8.800910e-09	3.828362e+01	5.798436e+02
1.720000e-06	5.334285e-06	8.796136e-09	3.821164e+01	5.794085e+02
1.730000e-06	5.322602e-06	8.796011e-09	3.812794e+01	5.789321e+02
1.740000e-06	5.309041e-06	8.788606e-09	3.803080e+01	5.784273e+02
1.750000e-06	5.293389e-06	8.759781e-09	3.791868e+01	5.779049e+02
1.760000e-06	5.275351e-06	8.741077e-09	3.778947e+01	5.773729e+02
1.770000e-06	5.254686e-06	8.734080e-09	3.764144e+01	5.768346e+02
1.780000e-06	5.231660e-06	8.752567e-09	3.747649e+01	5.762885e+02
1.790000e-06	5.207306e-06	8.773444e-09	3.730203e+01	5.757278e+02
1.800000e-06	5.182257e-06	8.706464e-09	3.712260e+01	5.751414e+02
1.810000e-06	5.155800e-06	8.690384e-09	3.693308e+01	5.745148e+02
1.820000e-06	5.127224e-06	8.755495e-09	3.672838e+01	5.738317e+02
1.830000e-06	5.096866e-06	8.765237e-09	3.651091e+01	5.730760e+02
1.840000e-06	5.064839e-06	8.749869e-09	3.628148e+01	5.722329e+02
1.850000e-06	5.030744e-06	8.679128e-09	3.603725e+01	5.712912e+02
1.860000e-06	4.994955e-06	8.629270e-09	3.578087e+01	5.702437e+02
1.870000e-06	4.957613e-06	8.710321e-09	3.551338e+01	5.690877e+02
1.880000e-06	4.918353e-06	8.723841e-09	3.523215e+01	5.678251e+02
1.890000e-06	4.877279e-06	8.633706e-09	3.493791e+01	5.664614e+02
1.900000e-06	4.834453e-06	8.563123e-09	3.463114e+01	5.650050e+02
1.910000e-06	4.790128e-06	8.572576e-09	3.431362e+01	5.634652e+02
1.920000e-06	4.744224e-06	8.643304e-09	3.398479e+01	5.618513e+02
1.930000e-06	4.696314e-06	8.562859e-09	3.364159e+01	5.601713e+02
1.940000e-06	4.646690e-06	8.466279e-09	3.328612e+01	5.584306e+02
1.950000e-06	4.595517e-06	8.503544e-09	3.291954e+01	5.566317e+02
1.960000e-06	4.542455e-06	8.484839e-09	3.253943e+01	5.547741e+02
1.970000e-06	4.487363e-06	8.449434e-09	3.214479e+01	5.528545e+02
1.980000e-06	4.430592e-06	8.417206e-09	3.173812e+01	5.508677e+02
1.990000e-06	4.372403e-06	8.356700e-09	3.132129e+01	5.488075e+02
2.000000e-06	4.312727e-06	8.327812e-09	3.089380e+01	5.466673e+02
2.010000e-06	4.251637e-06	8.325191e-09	3.045619e+01	5.444414e+02
2.020000e-06	4.188945e-06	8.312050e-09	3.000710e+01	5.421252e+02
2.030000e-06	4.124519e-06	8.216078e-09	2.954559e+01	5.397158e+02
2.040000e-06	4.058552e-06	8.165779e-09	2.907304e+01	5.372120e+02
2.050000e-06	3.991227e-06	8.186278e-09	2.859077e+01	5.346136e+02
2.060000e-06	3.922586e-06	8.141138e-09	2.809907e+01	5.319212e+02
2.070000e-06	3.852284e-06	8.068381e-09	2.759546e+01	5.291356e+02
2.080000e-06	3.780369e-06	8.011424e-09	2.708031e+01	5.262566e+02
2.090000e-06	3.707227e-06	7.994609e-09	2.655636e+01	5.232831e+02
2.100000e-06	3.632794e-06	7.957632e-09	2.602317e+01	5.202125e+02
2.110000e-06	3.556948e-06	7.892788e-09	2.547985e+01	5.170404e+02
2.120000e-06	3.479553e-06	7.844430e-09	2.492544e+01	5.137610e+02
2.130000e-06	3.400664e-06	7.793002e-09	2.436033e+01	5.103675e+02
2.140000e-06	3.320526e-06	7.746165e-09	2.378626e+01	5.068522e+02
2.150000e-06	3.239264e-06	7.686088e-09	2.320416e+01	5.032074e+02
2.160000e-06	3.156926e-06	7.626469e-09	2.261433e+01	4.994255e+02
2.170000e-06	3.073544e-06	7.564359e-09	2.201704e+01	4.954996e+02
2.180000e-06	2.989214e-06	7.499591e-09	2.141295e+01	4.914233e+02
2.190000e-06	2.903803e-06	7.441033e-09	2.080111e+01	4.871908e+02
2.200000e-06	2.817203e-06	7.370656e-09	2.018076e+01	4.827966e+02
2.210000e-06	2.729477e-06	7.299984e-09	1.955234e+01	4.782350e+02
2.220000e-06	2.640764e-06	7.233425e-09	1.891685e+01	4.735000e+02
2.230000e-06	2.551203e-06	7.166022e-09	1.827530e+01	4.685846e+02
2.240000e-06	2.460766e-06	7.085450e-09	1.762746e+01	4.634807e+02
2.250000e-06	2.369551e-06	7.001484e-09	1.697405e+01	4.581792e+02
2.260000e-06	2.277711e-06	6.924882e-09	1.631616e+01	4.526695e+02
2.270000e-06	2.185176e-06	6.841920e-09	1.565330e+01	4.469403e+02
2.280000e-06	2.091715e-06	6.743556e-09	1.498380e+01	4.409793e+02
2.290000e-06	1.997297e-06	6.644839e-09	1.430745e+01	4.347736e+02
2.300000e-06	1.902109e-06	6.556557e-09	1.362558e+01	4.283095e+02
2.310000e-06	1.806228e-06	6.457426e-09	1.293874e+01	4.215730e+02
2.320000e-06	1.709762e-06	6.343217e-09	1.224771e+01	4.145486e+02
2.330000e-06	1.612777e-06	6.228834e-09	1.155297e+01	4.072192e+02
2.340000e-06	1.515255e-06	6.118995e-09	1.085438e+01	3.995653e+02
2.350000e-06	1.417172e-06	6.004378e-09	1.015177e+01	3.915641e+02
2.360000e-06	1.318639e-06	5.878404e-09	9.445943e+00	3.831887e+02
2.370000e-06	1.219736e-06	5.742919e-09	8.737463e+00	3.744074e+02
2.380000e-06	1.120472e-06	5.600263e-09	8.026396e+00	3.651831e+02
2.390000e-06	1.020943e-06	5.455603e-09	7.313428e+00	3.554735e+02
2.400000e-06	9.211944e-07	5.304412e-09	6.598887e+00	3.452312e+02
2.410000e-06	8.212033e-07	5.136592e-09	5.882610e+00	3.344044e+02
2.420000e-06	7.208773e-07	4.954959e-09	5.163935e+00	3.229376e+02
2.430000e-06	6.202137e-07	4.771673e-09	4.442841e+00	3.107731e+02
2.440000e-06	5.192843e-07	4.584658e-09	3.719843e+00	2.978522e+02
2.450000e-06	4.181296e-07	4.379093e-09	2.995231e+00	2.841163e+02
2.460000e-06	3.167428e-07	4.152521e-09	2.268957e+00	2.695081e+02
2.470000e-06	2.152134e-07	3.914028e-09	1.541661e+00	2.539729e+02
2.480000e-06	1.136362e-07	3.667571e-09	8.140221e-01	2.374593e+02
2.490000e-06	1.200538e-08	3.406095e-09	8.599935e-02	2.199202e+02
2.500000e-06	-8.958359e-08	3.122505e-09	-6.417234e-01	2.013144e+02
2.510000e-06	-1.910301e-07	2.819130e-09	-1.368426e+00	1.816072e+02
2.520000e-06	-2.923958e-07	2.502477e-09	-2.094549e+00	1.607732e+02
2.530000e-06	-3.937143e-07	2.172091e-09	-2.820334e+00	1.387977e+02
2.540000e-06	-4.948971e-07	1.819715e-09	-3.545147e+00	1.156806e+02
2.550000e-06	-5.958189e-07	1.445267e-09	-4.268091e+00	9.143914e+01
2.560000e-06	-6.964615e-07	1.054965e-09	-4.989035e+00	6.611203e+01
2.570000e-06	-7.968164e-07	6.538963e-10	-5.707917e+00	3.976306e+01
2.580000e-06	-8.967559e-07	2.413380e-10	-6.423824e+00	1.248440e+01
2.590000e-06	-9.963508e-07	-1.879181e-10	-7.137263e+00	-1.560108e+01
2.600000e-06	-1.095711e-06	-6.306192e-10	-7.849018e+00	-4.433871e+01
2.610000e-06	-1.194829e-06	-1.077458e-09	-8.559041e+00	-7.354283e+01
2.620000e-06	-1.293563e-06	-1.523537e-09	-9.266314e+00	-1.029996e+02
2.630000e-06	-1.391798e-06	-1.971660e-09	-9.970014e+00	-1.324719e+02
2.640000e-06	-1.489533e-06	-2.420850e-09	-1.067012e+01	-1.617067e+02
2.650000e-06	-1.586842e-06	-2.862227e-09	-1.136719e+01	-1.904435e+02
2.660000e-06	-1.683721e-06	-3.288157e-09	-1.206117e+01	-2.184248e+02
2.670000e-06	-1.780018e-06	-3.699568e-09	-1.275099e+01	-2.454068e+02
2.680000e-06	-1.875722e-06	-4.096863e-09	-1.343656e+01	-2.711695e+02
2.690000e-06	-1.970752e-06	-4.475695e-09	-1.411729e+01	-2.955268e+02
2.700000e-06	-2.064969e-06	-4.828784e-09	-1.479220e+01	-3.183338e+02
2.710000e-06	-2.158299e-06	-5.151266e-09	-1.546077e+01	-3.394919e+02
2.720000e-06	-2.250692e-06	-5.447050e-09	-1.612261e+01	-3.589515e+02
2.730000e-06	-2.342288e-06	-5.717970e-09	-1.677875e+01	-3.767115e+02
2.740000e-06	-2.433165e-06	-5.963445e-09	-1.742974e+01	-3.928150e+02
2.750000e-06	-2.523168e-06	-6.185614e-09	-1.807447e+01	-4.073440e+02
2.760000e-06	-2.612290e-06	-6.386817e-09	-1.871289e+01	-4.204109e+02
2.770000e-06	-2.700553e-06	-6.569170e-09	-1.934515e+01	-4.321492e+02
2.780000e-06	-2.787949e-06	-6.734025e-09	-1.997120e+01	-4.427042e+02
2.790000e-06	-2.874348e-06	-6.881855e-09	-2.059011e+01	-4.522231e+02
2.800000e-06	-2.959514e-06	-7.015438e-09	-2.120019e+01	-4.608478e+02
2.810000e-06	-3.043548e-06	-7.138635e-09	-2.180216e+01	-4.687077e+02
2.820000e-06	-3.126627e-06	-7.251485e-09	-2.239729e+01	-4.759160e+02
2.830000e-06	-3.208716e-06	-7.353074e-09	-2.298533e+01	-4.825673e+02
2.840000e-06	-3.289709e-06	-7.445249e-09	-2.356551e+01	-4.887375e+02
2.850000e-06	-3.369574e-06	-7.531552e-09	-2.413762e+01	-4.944854e+02
2.860000e-06	-3.448201e-06	-7.613486e-09	-2.470085e+01	-4.998553e+02
2.870000e-06	-3.525308e-06	-7.691195e-09	-2.525320e+01	-5.048806e+02
2.880000e-06	-3.600879e-06	-7.764692e-09	-2.579455e+01	-5.095874e+02
2.890000e-06	-3.675089e-06	-7.834348e-09	-2.632615e+01	-5.139974e+02
2.900000e-06	-3.748042e-06	-7.900997e-09	-2.684874e+01	-5.181309e+02
2.910000e-06	-3.819774e-06	-7.963854e-09	-2.736258e+01	-5.220078e+02
2.920000e-06	-3.890078e-06	-8.021702e-09	-2.786620e+01	-5.256489e+02
2.930000e-06	-3.958828e-06	-8.075905e-09	-2.835868e+01	-5.290753e+02
2.940000e-06	-4.026167e-06	-8.129017e-09	-2.884106e+01	-5.323076e+02
