# Temperatura_=_20.0
# Concentracion g/m^3_=_9000.0
# C_Vs_to_Am_M_A/Vsm_=_65563218390.804596
# pendiente_HvsI_1/m_=_3716.3
# ordenada_HvsI_A/m_=_1297.0
# frecuencia_Hz_=_135312.87991417918

Tiempo_(s)	Campo_(V.s)	Magnetizacion_(V.s)	Campo_(kA/m)	Magnetizacion_(A/m)
0.000000e+00	-6.499520e-06	-4.936697e-09	-4.761716e+01	-2.761030e+02
1.000000e-08	-6.499529e-06	-4.939937e-09	-4.761723e+01	-2.763764e+02
2.000000e-08	-6.499273e-06	-4.943393e-09	-4.761535e+01	-2.766629e+02
3.000000e-08	-6.498598e-06	-4.948005e-09	-4.761040e+01	-2.769614e+02
4.000000e-08	-6.497307e-06	-4.950701e-09	-4.760095e+01	-2.772709e+02
5.000000e-08	-6.495361e-06	-4.952789e-09	-4.758669e+01	-2.775902e+02
6.000000e-08	-6.492741e-06	-4.953361e-09	-4.756750e+01	-2.779180e+02
7.000000e-08	-6.489497e-06	-4.950516e-09	-4.754373e+01	-2.782530e+02
8.000000e-08	-6.485866e-06	-4.964271e-09	-4.751713e+01	-2.785938e+02
9.000000e-08	-6.481859e-06	-4.976015e-09	-4.748778e+01	-2.789393e+02
1.000000e-07	-6.477318e-06	-4.978958e-09	-4.745450e+01	-2.792879e+02
1.100000e-07	-6.471998e-06	-4.981776e-09	-4.741553e+01	-2.796384e+02
1.200000e-07	-6.466173e-06	-5.034478e-09	-4.737285e+01	-2.799896e+02
1.300000e-07	-6.460152e-06	-5.025335e-09	-4.732874e+01	-2.803401e+02
1.400000e-07	-6.453885e-06	-4.936355e-09	-4.728283e+01	-2.806887e+02
1.500000e-07	-6.447173e-06	-4.938069e-09	-4.723366e+01	-2.810343e+02
1.600000e-07	-6.439867e-06	-5.102850e-09	-4.718013e+01	-2.813758e+02
1.700000e-07	-6.432194e-06	-5.148717e-09	-4.712391e+01	-2.817121e+02
1.800000e-07	-6.424233e-06	-4.970772e-09	-4.706559e+01	-2.820423e+02
1.900000e-07	-6.416050e-06	-4.959452e-09	-4.700564e+01	-2.823654e+02
2.000000e-07	-6.407673e-06	-5.115241e-09	-4.694427e+01	-2.826807e+02
2.100000e-07	-6.398737e-06	-5.239271e-09	-4.687880e+01	-2.829874e+02
2.200000e-07	-6.388846e-06	-5.174210e-09	-4.680634e+01	-2.832849e+02
2.300000e-07	-6.378083e-06	-5.002248e-09	-4.672748e+01	-2.835724e+02
2.400000e-07	-6.366848e-06	-4.759521e-09	-4.664518e+01	-2.838495e+02
2.500000e-07	-6.355261e-06	-4.729752e-09	-4.656028e+01	-2.841158e+02
2.600000e-07	-6.343005e-06	-4.907115e-09	-4.647050e+01	-2.843707e+02
2.700000e-07	-6.330148e-06	-4.760278e-09	-4.637630e+01	-2.846139e+02
2.800000e-07	-6.317014e-06	-4.226849e-09	-4.628007e+01	-2.848451e+02
2.900000e-07	-6.303424e-06	-4.080842e-09	-4.618051e+01	-2.850640e+02
3.000000e-07	-6.289179e-06	-4.367118e-09	-4.607615e+01	-2.852703e+02
3.100000e-07	-6.274298e-06	-4.182195e-09	-4.596713e+01	-2.854638e+02
3.200000e-07	-6.258835e-06	-3.668091e-09	-4.585384e+01	-2.856442e+02
3.300000e-07	-6.242660e-06	-3.686591e-09	-4.573534e+01	-2.858113e+02
3.400000e-07	-6.225837e-06	-3.875006e-09	-4.561209e+01	-2.859649e+02
3.500000e-07	-6.208676e-06	-3.723678e-09	-4.548637e+01	-2.861047e+02
3.600000e-07	-6.191242e-06	-3.676968e-09	-4.535864e+01	-2.862304e+02
3.700000e-07	-6.173500e-06	-3.759481e-09	-4.522866e+01	-2.863419e+02
3.800000e-07	-6.155497e-06	-3.674858e-09	-4.509676e+01	-2.864387e+02
3.900000e-07	-6.136875e-06	-3.638329e-09	-4.496033e+01	-2.865206e+02
4.000000e-07	-6.117603e-06	-3.789451e-09	-4.481914e+01	-2.865871e+02
4.100000e-07	-6.097942e-06	-3.677652e-09	-4.467510e+01	-2.866379e+02
4.200000e-07	-6.077997e-06	-3.536176e-09	-4.452898e+01	-2.866726e+02
4.300000e-07	-6.057919e-06	-3.671973e-09	-4.438188e+01	-2.866906e+02
4.400000e-07	-6.037582e-06	-3.764813e-09	-4.423289e+01	-2.866914e+02
4.500000e-07	-6.016831e-06	-3.589431e-09	-4.408086e+01	-2.866746e+02
4.600000e-07	-5.995684e-06	-3.541308e-09	-4.392593e+01	-2.866396e+02
4.700000e-07	-5.974128e-06	-3.707385e-09	-4.376801e+01	-2.865858e+02
4.800000e-07	-5.952098e-06	-3.742765e-09	-4.360660e+01	-2.865126e+02
4.900000e-07	-5.929684e-06	-3.589724e-09	-4.344239e+01	-2.864194e+02
5.000000e-07	-5.906923e-06	-3.564847e-09	-4.327565e+01	-2.863058e+02
5.100000e-07	-5.883681e-06	-3.671424e-09	-4.310537e+01	-2.861710e+02
5.200000e-07	-5.859996e-06	-3.675455e-09	-4.293185e+01	-2.860146e+02
5.300000e-07	-5.836081e-06	-3.593369e-09	-4.275664e+01	-2.858360e+02
5.400000e-07	-5.811934e-06	-3.593984e-09	-4.257973e+01	-2.856348e+02
5.500000e-07	-5.787388e-06	-3.641636e-09	-4.239990e+01	-2.854106e+02
5.600000e-07	-5.762188e-06	-3.632305e-09	-4.221528e+01	-2.851630e+02
5.700000e-07	-5.736212e-06	-3.627836e-09	-4.202497e+01	-2.848917e+02
5.800000e-07	-5.709585e-06	-3.629590e-09	-4.182990e+01	-2.845965e+02
5.900000e-07	-5.682436e-06	-3.603920e-09	-4.163100e+01	-2.842773e+02
6.000000e-07	-5.654854e-06	-3.606878e-09	-4.142892e+01	-2.839340e+02
6.100000e-07	-5.627025e-06	-3.656878e-09	-4.122504e+01	-2.835668e+02
6.200000e-07	-5.598972e-06	-3.626200e-09	-4.101951e+01	-2.831757e+02
6.300000e-07	-5.570606e-06	-3.565417e-09	-4.081170e+01	-2.827612e+02
6.400000e-07	-5.541840e-06	-3.591581e-09	-4.060095e+01	-2.823236e+02
6.500000e-07	-5.512589e-06	-3.652004e-09	-4.038665e+01	-2.818634e+02
6.600000e-07	-5.482982e-06	-3.618170e-09	-4.016974e+01	-2.813813e+02
6.700000e-07	-5.453074e-06	-3.562392e-09	-3.995063e+01	-2.808779e+02
6.800000e-07	-5.422800e-06	-3.583567e-09	-3.972883e+01	-2.803543e+02
6.900000e-07	-5.392124e-06	-3.639535e-09	-3.950409e+01	-2.798112e+02
7.000000e-07	-5.360987e-06	-3.618803e-09	-3.927598e+01	-2.792497e+02
7.100000e-07	-5.329440e-06	-3.565202e-09	-3.904485e+01	-2.786711e+02
7.200000e-07	-5.297630e-06	-3.567586e-09	-3.881181e+01	-2.780765e+02
7.300000e-07	-5.265684e-06	-3.605325e-09	-3.857776e+01	-2.774671e+02
7.400000e-07	-5.233570e-06	-3.599301e-09	-3.834249e+01	-2.768443e+02
7.500000e-07	-5.201172e-06	-3.571441e-09	-3.810513e+01	-2.762096e+02
7.600000e-07	-5.168340e-06	-3.557245e-09	-3.786460e+01	-2.755642e+02
7.700000e-07	-5.134987e-06	-3.559452e-09	-3.762024e+01	-2.749095e+02
7.800000e-07	-5.100900e-06	-3.573238e-09	-3.737051e+01	-2.742471e+02
7.900000e-07	-5.066224e-06	-3.576460e-09	-3.711647e+01	-2.735782e+02
8.000000e-07	-5.031147e-06	-3.540384e-09	-3.685948e+01	-2.729042e+02
8.100000e-07	-4.995642e-06	-3.510526e-09	-3.659936e+01	-2.722263e+02
8.200000e-07	-4.959851e-06	-3.541971e-09	-3.633715e+01	-2.715458e+02
8.300000e-07	-4.923881e-06	-3.565387e-09	-3.607363e+01	-2.708638e+02
8.400000e-07	-4.887679e-06	-3.528022e-09	-3.580840e+01	-2.701812e+02
8.500000e-07	-4.851109e-06	-3.496700e-09	-3.554048e+01	-2.694989e+02
8.600000e-07	-4.814167e-06	-3.517180e-09	-3.526983e+01	-2.688177e+02
8.700000e-07	-4.776865e-06	-3.534443e-09	-3.499655e+01	-2.681381e+02
8.800000e-07	-4.739246e-06	-3.514556e-09	-3.472094e+01	-2.674607e+02
8.900000e-07	-4.701268e-06	-3.486863e-09	-3.444270e+01	-2.667855e+02
9.000000e-07	-4.663015e-06	-3.486403e-09	-3.416245e+01	-2.661129e+02
9.100000e-07	-4.624531e-06	-3.496150e-09	-3.388051e+01	-2.654425e+02
9.200000e-07	-4.585666e-06	-3.492457e-09	-3.359577e+01	-2.647742e+02
9.300000e-07	-4.546501e-06	-3.475384e-09	-3.330884e+01	-2.641075e+02
9.400000e-07	-4.507068e-06	-3.467777e-09	-3.301994e+01	-2.634418e+02
9.500000e-07	-4.467364e-06	-3.464880e-09	-3.272906e+01	-2.627762e+02
9.600000e-07	-4.427439e-06	-3.464296e-09	-3.243656e+01	-2.621097e+02
9.700000e-07	-4.387254e-06	-3.451169e-09	-3.214216e+01	-2.614411e+02
9.800000e-07	-4.346823e-06	-3.431274e-09	-3.184595e+01	-2.607692e+02
9.900000e-07	-4.306040e-06	-3.418870e-09	-3.154716e+01	-2.600925e+02
1.000000e-06	-4.264787e-06	-3.422420e-09	-3.124493e+01	-2.594093e+02
1.010000e-06	-4.223148e-06	-3.418778e-09	-3.093987e+01	-2.587180e+02
1.020000e-06	-4.181103e-06	-3.402064e-09	-3.063184e+01	-2.580167e+02
1.030000e-06	-4.138501e-06	-3.390960e-09	-3.031973e+01	-2.573037e+02
1.040000e-06	-4.095377e-06	-3.387896e-09	-3.000379e+01	-2.565769e+02
1.050000e-06	-4.051904e-06	-3.375089e-09	-2.968529e+01	-2.558344e+02
1.060000e-06	-4.008272e-06	-3.357506e-09	-2.936564e+01	-2.550743e+02
1.070000e-06	-3.964449e-06	-3.348444e-09	-2.904458e+01	-2.542946e+02
1.080000e-06	-3.920317e-06	-3.342294e-09	-2.872125e+01	-2.534934e+02
1.090000e-06	-3.876035e-06	-3.329958e-09	-2.839684e+01	-2.526689e+02
1.100000e-06	-3.831514e-06	-3.317670e-09	-2.807066e+01	-2.518193e+02
1.110000e-06	-3.786639e-06	-3.314730e-09	-2.774189e+01	-2.509430e+02
1.120000e-06	-3.741655e-06	-3.309040e-09	-2.741233e+01	-2.500384e+02
1.130000e-06	-3.696454e-06	-3.294487e-09	-2.708118e+01	-2.491041e+02
1.140000e-06	-3.650892e-06	-3.276937e-09	-2.674738e+01	-2.481390e+02
1.150000e-06	-3.605065e-06	-3.266814e-09	-2.641164e+01	-2.471420e+02
1.160000e-06	-3.559014e-06	-3.257747e-09	-2.607425e+01	-2.461123e+02
1.170000e-06	-3.512771e-06	-3.244226e-09	-2.573547e+01	-2.450492e+02
1.180000e-06	-3.466425e-06	-3.225460e-09	-2.539593e+01	-2.439523e+02
1.190000e-06	-3.419741e-06	-3.213238e-09	-2.505391e+01	-2.428215e+02
1.200000e-06	-3.372602e-06	-3.206274e-09	-2.470856e+01	-2.416567e+02
1.210000e-06	-3.325233e-06	-3.200056e-09	-2.436151e+01	-2.404581e+02
1.220000e-06	-3.277689e-06	-3.186572e-09	-2.401319e+01	-2.392263e+02
1.230000e-06	-3.229934e-06	-3.168777e-09	-2.366333e+01	-2.379619e+02
1.240000e-06	-3.182055e-06	-3.153998e-09	-2.331255e+01	-2.366657e+02
1.250000e-06	-3.133995e-06	-3.144060e-09	-2.296046e+01	-2.353387e+02
1.260000e-06	-3.085559e-06	-3.127901e-09	-2.260560e+01	-2.339822e+02
1.270000e-06	-3.036961e-06	-3.104484e-09	-2.224956e+01	-2.325974e+02
1.280000e-06	-2.988357e-06	-3.080556e-09	-2.189348e+01	-2.311859e+02
1.290000e-06	-2.939475e-06	-3.066220e-09	-2.153536e+01	-2.297492e+02
1.300000e-06	-2.890115e-06	-3.053098e-09	-2.117373e+01	-2.282889e+02
1.310000e-06	-2.840418e-06	-3.036557e-09	-2.080964e+01	-2.268067e+02
1.320000e-06	-2.790423e-06	-3.020263e-09	-2.044336e+01	-2.253041e+02
1.330000e-06	-2.740107e-06	-3.003718e-09	-2.007473e+01	-2.237828e+02
1.340000e-06	-2.689557e-06	-2.987562e-09	-1.970439e+01	-2.222443e+02
1.350000e-06	-2.638640e-06	-2.969449e-09	-1.933136e+01	-2.206901e+02
1.360000e-06	-2.587379e-06	-2.947861e-09	-1.895581e+01	-2.191215e+02
1.370000e-06	-2.535957e-06	-2.924139e-09	-1.857908e+01	-2.175395e+02
1.380000e-06	-2.484310e-06	-2.902025e-09	-1.820070e+01	-2.159451e+02
1.390000e-06	-2.432371e-06	-2.880810e-09	-1.782018e+01	-2.143388e+02
1.400000e-06	-2.380239e-06	-2.861702e-09	-1.743824e+01	-2.127211e+02
1.410000e-06	-2.328021e-06	-2.842457e-09	-1.705568e+01	-2.110919e+02
1.420000e-06	-2.275722e-06	-2.822879e-09	-1.667252e+01	-2.094511e+02
1.430000e-06	-2.223297e-06	-2.800766e-09	-1.628844e+01	-2.077978e+02
1.440000e-06	-2.170749e-06	-2.778837e-09	-1.590347e+01	-2.061310e+02
1.450000e-06	-2.118121e-06	-2.755240e-09	-1.551790e+01	-2.044493e+02
1.460000e-06	-2.065293e-06	-2.730178e-09	-1.513087e+01	-2.027506e+02
1.470000e-06	-2.012265e-06	-2.702708e-09	-1.474238e+01	-2.010327e+02
1.480000e-06	-1.959061e-06	-2.678827e-09	-1.435258e+01	-1.992927e+02
1.490000e-06	-1.905679e-06	-2.657085e-09	-1.396150e+01	-1.975273e+02
1.500000e-06	-1.852167e-06	-2.632059e-09	-1.356946e+01	-1.957329e+02
1.510000e-06	-1.798619e-06	-2.603166e-09	-1.317714e+01	-1.939052e+02
1.520000e-06	-1.744984e-06	-2.576015e-09	-1.278420e+01	-1.920398e+02
1.530000e-06	-1.691158e-06	-2.548685e-09	-1.238986e+01	-1.901315e+02
1.540000e-06	-1.637236e-06	-2.514707e-09	-1.199482e+01	-1.881750e+02
1.550000e-06	-1.583186e-06	-2.478999e-09	-1.159883e+01	-1.861645e+02
1.560000e-06	-1.529027e-06	-2.445118e-09	-1.120205e+01	-1.840941e+02
1.570000e-06	-1.474777e-06	-2.413416e-09	-1.080460e+01	-1.819572e+02
1.580000e-06	-1.420373e-06	-2.384180e-09	-1.040602e+01	-1.797474e+02
1.590000e-06	-1.365857e-06	-2.354098e-09	-1.000662e+01	-1.774577e+02
1.600000e-06	-1.311334e-06	-2.315699e-09	-9.607172e+00	-1.750814e+02
1.610000e-06	-1.256717e-06	-2.273466e-09	-9.207032e+00	-1.726112e+02
1.620000e-06	-1.201961e-06	-2.237043e-09	-8.805880e+00	-1.700402e+02
1.630000e-06	-1.147138e-06	-2.201605e-09	-8.404231e+00	-1.673613e+02
1.640000e-06	-1.092240e-06	-2.165650e-09	-8.002032e+00	-1.645675e+02
1.650000e-06	-1.037289e-06	-2.127150e-09	-7.599448e+00	-1.616520e+02
1.660000e-06	-9.822632e-07	-2.084392e-09	-7.196314e+00	-1.586082e+02
1.670000e-06	-9.271713e-07	-2.040495e-09	-6.792696e+00	-1.554299e+02
1.680000e-06	-8.719955e-07	-1.994250e-09	-6.388464e+00	-1.521109e+02
1.690000e-06	-8.167891e-07	-1.946852e-09	-5.984008e+00	-1.486459e+02
1.700000e-06	-7.615718e-07	-1.897541e-09	-5.579472e+00	-1.450295e+02
1.710000e-06	-7.062901e-07	-1.845470e-09	-5.174464e+00	-1.412574e+02
1.720000e-06	-6.509774e-07	-1.790549e-09	-4.769229e+00	-1.373255e+02
1.730000e-06	-5.955641e-07	-1.737217e-09	-4.363257e+00	-1.332305e+02
1.740000e-06	-5.400654e-07	-1.681799e-09	-3.956659e+00	-1.289698e+02
1.750000e-06	-4.845515e-07	-1.618827e-09	-3.549949e+00	-1.245414e+02
1.760000e-06	-4.290101e-07	-1.555167e-09	-3.143039e+00	-1.199443e+02
1.770000e-06	-3.734949e-07	-1.494207e-09	-2.736320e+00	-1.151780e+02
1.780000e-06	-3.180382e-07	-1.429046e-09	-2.330030e+00	-1.102432e+02
1.790000e-06	-2.625663e-07	-1.359618e-09	-1.923629e+00	-1.051413e+02
1.800000e-06	-2.070516e-07	-1.288154e-09	-1.516913e+00	-9.987444e+01
1.810000e-06	-1.514905e-07	-1.214157e-09	-1.109858e+00	-9.444590e+01
1.820000e-06	-9.590551e-08	-1.138496e-09	-7.026285e-01	-8.885972e+01
1.830000e-06	-4.040052e-08	-1.056785e-09	-2.959847e-01	-8.312086e+01
1.840000e-06	1.509409e-08	-9.731565e-10	1.105832e-01	-7.723515e+01
1.850000e-06	7.065045e-08	-8.861572e-10	5.176035e-01	-7.120929e+01
1.860000e-06	1.262205e-07	-8.014706e-10	9.247239e-01	-6.505080e+01
1.870000e-06	1.817318e-07	-7.168552e-10	1.331414e+00	-5.876803e+01
1.880000e-06	2.372579e-07	-6.267986e-10	1.738212e+00	-5.237006e+01
1.890000e-06	2.928316e-07	-5.328893e-10	2.145360e+00	-4.586672e+01
1.900000e-06	3.482868e-07	-4.343562e-10	2.551639e+00	-3.926847e+01
1.910000e-06	4.037415e-07	-3.367775e-10	2.957915e+00	-3.258640e+01
1.920000e-06	4.592305e-07	-2.333140e-10	3.364441e+00	-2.583214e+01
1.930000e-06	5.146420e-07	-1.263305e-10	3.770401e+00	-1.901780e+01
1.940000e-06	5.701054e-07	-2.074540e-11	4.176739e+00	-1.215588e+01
1.950000e-06	6.255426e-07	8.155648e-11	4.582887e+00	-5.259231e+00
1.960000e-06	6.808157e-07	1.800855e-10	4.987831e+00	1.659068e+00
1.970000e-06	7.360441e-07	2.795599e-10	5.392449e+00	8.585753e+00
1.980000e-06	7.912834e-07	3.828915e-10	5.797147e+00	1.550748e+01
1.990000e-06	8.464132e-07	4.904486e-10	6.201042e+00	2.241089e+01
2.000000e-06	9.014635e-07	5.998959e-10	6.604355e+00	2.928272e+01
2.010000e-06	9.565673e-07	7.068953e-10	7.008059e+00	3.610986e+01
2.020000e-06	1.011649e-06	8.135796e-10	7.411599e+00	4.287944e+01
2.030000e-06	1.066653e-06	9.165753e-10	7.814572e+00	4.957893e+01
2.040000e-06	1.121508e-06	1.015815e-09	8.216457e+00	5.619617e+01
2.050000e-06	1.176247e-06	1.111328e-09	8.617491e+00	6.271952e+01
2.060000e-06	1.230986e-06	1.201041e-09	9.018520e+00	6.913786e+01
2.070000e-06	1.285663e-06	1.286286e-09	9.419099e+00	7.544067e+01
2.080000e-06	1.340249e-06	1.372359e-09	9.819008e+00	8.161812e+01
2.090000e-06	1.394733e-06	1.458269e-09	1.021818e+01	8.766111e+01
2.100000e-06	1.449049e-06	1.541204e-09	1.061611e+01	9.356129e+01
2.110000e-06	1.503268e-06	1.620972e-09	1.101333e+01	9.931116e+01
2.120000e-06	1.557402e-06	1.698289e-09	1.140993e+01	1.049041e+02
2.130000e-06	1.611371e-06	1.773466e-09	1.180532e+01	1.103342e+02
2.140000e-06	1.665207e-06	1.844077e-09	1.219974e+01	1.155967e+02
2.150000e-06	1.718946e-06	1.910311e-09	1.259344e+01	1.206877e+02
2.160000e-06	1.772530e-06	1.974612e-09	1.298601e+01	1.256040e+02
2.170000e-06	1.825977e-06	2.040841e-09	1.337758e+01	1.303436e+02
2.180000e-06	1.879379e-06	2.101201e-09	1.376882e+01	1.349053e+02
2.190000e-06	1.932682e-06	2.157388e-09	1.415933e+01	1.392888e+02
2.200000e-06	1.985836e-06	2.209272e-09	1.454874e+01	1.434947e+02
2.210000e-06	2.038807e-06	2.260095e-09	1.493683e+01	1.475245e+02
2.220000e-06	2.091589e-06	2.305843e-09	1.532352e+01	1.513804e+02
2.230000e-06	2.144287e-06	2.348507e-09	1.570960e+01	1.550655e+02
2.240000e-06	2.196846e-06	2.390877e-09	1.609466e+01	1.585835e+02
2.250000e-06	2.249152e-06	2.432345e-09	1.647787e+01	1.619389e+02
2.260000e-06	2.301260e-06	2.472976e-09	1.685962e+01	1.651367e+02
2.270000e-06	2.353292e-06	2.513882e-09	1.724082e+01	1.681827e+02
2.280000e-06	2.405130e-06	2.548916e-09	1.762060e+01	1.710829e+02
2.290000e-06	2.456687e-06	2.579432e-09	1.799833e+01	1.738439e+02
2.300000e-06	2.508113e-06	2.608023e-09	1.837508e+01	1.764727e+02
2.310000e-06	2.559403e-06	2.635461e-09	1.875084e+01	1.789765e+02
2.320000e-06	2.610440e-06	2.663687e-09	1.912476e+01	1.813627e+02
2.330000e-06	2.661149e-06	2.690441e-09	1.949627e+01	1.836391e+02
2.340000e-06	2.711530e-06	2.717626e-09	1.986537e+01	1.858133e+02
2.350000e-06	2.761634e-06	2.746918e-09	2.023245e+01	1.878931e+02
2.360000e-06	2.811471e-06	2.779584e-09	2.059757e+01	1.898862e+02
2.370000e-06	2.861002e-06	2.806826e-09	2.096044e+01	1.918003e+02
2.380000e-06	2.910161e-06	2.830877e-09	2.132059e+01	1.936426e+02
2.390000e-06	2.959052e-06	2.854195e-09	2.167878e+01	1.954206e+02
2.400000e-06	3.007657e-06	2.876986e-09	2.203487e+01	1.971411e+02
2.410000e-06	3.055977e-06	2.896157e-09	2.238887e+01	1.988108e+02
2.420000e-06	3.104171e-06	2.917121e-09	2.274196e+01	2.004359e+02
2.430000e-06	3.152242e-06	2.939618e-09	2.309414e+01	2.020222e+02
2.440000e-06	3.200129e-06	2.964916e-09	2.344497e+01	2.035753e+02
2.450000e-06	3.247807e-06	2.987113e-09	2.379427e+01	2.051001e+02
2.460000e-06	3.295268e-06	3.006385e-09	2.414199e+01	2.066010e+02
2.470000e-06	3.342465e-06	3.025606e-09	2.448776e+01	2.080820e+02
2.480000e-06	3.389443e-06	3.042865e-09	2.483194e+01	2.095467e+02
2.490000e-06	3.436153e-06	3.055350e-09	2.517415e+01	2.109979e+02
2.500000e-06	3.482605e-06	3.067390e-09	2.551446e+01	2.124380e+02
2.510000e-06	3.528881e-06	3.082227e-09	2.585349e+01	2.138691e+02
2.520000e-06	3.574919e-06	3.094866e-09	2.619078e+01	2.152926e+02
2.530000e-06	3.620700e-06	3.110427e-09	2.652619e+01	2.167094e+02
2.540000e-06	3.666280e-06	3.127049e-09	2.686012e+01	2.181200e+02
2.550000e-06	3.711586e-06	3.142116e-09	2.719204e+01	2.195245e+02
2.560000e-06	3.756600e-06	3.158226e-09	2.752182e+01	2.209225e+02
2.570000e-06	3.801306e-06	3.175277e-09	2.784935e+01	2.223134e+02
2.580000e-06	3.845775e-06	3.189932e-09	2.817514e+01	2.236961e+02
2.590000e-06	3.890104e-06	3.203974e-09	2.849990e+01	2.250692e+02
2.600000e-06	3.934283e-06	3.217230e-09	2.882358e+01	2.264313e+02
2.610000e-06	3.978333e-06	3.228219e-09	2.914629e+01	2.277804e+02
2.620000e-06	4.022223e-06	3.238708e-09	2.946784e+01	2.291147e+02
2.630000e-06	4.065889e-06	3.252215e-09	2.978775e+01	2.304319e+02
2.640000e-06	4.109222e-06	3.265547e-09	3.010522e+01	2.317301e+02
2.650000e-06	4.152165e-06	3.275915e-09	3.041983e+01	2.330068e+02
2.660000e-06	4.194649e-06	3.285428e-09	3.073109e+01	2.342600e+02
2.670000e-06	4.236552e-06	3.297575e-09	3.103807e+01	2.354873e+02
2.680000e-06	4.278005e-06	3.307352e-09	3.134177e+01	2.366868e+02
2.690000e-06	4.319077e-06	3.314530e-09	3.164267e+01	2.378564e+02
2.700000e-06	4.359697e-06	3.323799e-09	3.194026e+01	2.389942e+02
2.710000e-06	4.399962e-06	3.334997e-09	3.223526e+01	2.400987e+02
2.720000e-06	4.440024e-06	3.346958e-09	3.252876e+01	2.411683e+02
2.730000e-06	4.479899e-06	3.357759e-09	3.282090e+01	2.422018e+02
2.740000e-06	4.519526e-06	3.367831e-09	3.311121e+01	2.431982e+02
2.750000e-06	4.558944e-06	3.377431e-09	3.340000e+01	2.441568e+02
2.760000e-06	4.598074e-06	3.384442e-09	3.368668e+01	2.450771e+02
2.770000e-06	4.636777e-06	3.391196e-09	3.397023e+01	2.459589e+02
2.780000e-06	4.675125e-06	3.397793e-09	3.425117e+01	2.468023e+02
2.790000e-06	4.713171e-06	3.406260e-09	3.452991e+01	2.476078e+02
2.800000e-06	4.750861e-06	3.416420e-09	3.480604e+01	2.483759e+02
2.810000e-06	4.788222e-06	3.425676e-09	3.507975e+01	2.491076e+02
2.820000e-06	4.825269e-06	3.431025e-09	3.535117e+01	2.498040e+02
2.830000e-06	4.861984e-06	3.437562e-09	3.562015e+01	2.504667e+02
2.840000e-06	4.898404e-06	3.446743e-09	3.588697e+01	2.510971e+02
2.850000e-06	4.934593e-06	3.453617e-09	3.615210e+01	2.516973e+02
2.860000e-06	4.970599e-06	3.459221e-09	3.641589e+01	2.522692e+02
2.870000e-06	5.006385e-06	3.465139e-09	3.667807e+01	2.528150e+02
2.880000e-06	5.041949e-06	3.471490e-09	3.693862e+01	2.533370e+02
2.890000e-06	5.077118e-06	3.477906e-09	3.719628e+01	2.538376e+02
2.900000e-06	5.111695e-06	3.484167e-09	3.744960e+01	2.543193e+02
