# Temperatura_=_20.0
# Concentracion g/m^3_=_9000.0
# C_Vs_to_Am_M_A/Vsm_=_65563218390.804596
# pendiente_HvsI_1/m_=_3716.3
# ordenada_HvsI_A/m_=_1297.0
# frecuencia_Hz_=_135312.72968794545

Tiempo_(s)	Campo_(V.s)	Magnetizacion_(V.s)	Campo_(kA/m)	Magnetizacion_(A/m)
0.000000e+00	-6.519508e-06	-4.558460e-09	-4.761789e+01	-2.932075e+02
1.000000e-08	-6.519659e-06	-4.557505e-09	-4.761900e+01	-2.932535e+02
2.000000e-08	-6.519706e-06	-4.559640e-09	-4.761934e+01	-2.932729e+02
3.000000e-08	-6.519433e-06	-4.561627e-09	-4.761735e+01	-2.932634e+02
4.000000e-08	-6.518615e-06	-4.563391e-09	-4.761137e+01	-2.932227e+02
5.000000e-08	-6.517139e-06	-4.566741e-09	-4.760059e+01	-2.931488e+02
6.000000e-08	-6.514965e-06	-4.563391e-09	-4.758471e+01	-2.930400e+02
7.000000e-08	-6.512166e-06	-4.551107e-09	-4.756427e+01	-2.928945e+02
8.000000e-08	-6.508832e-06	-4.540194e-09	-4.753992e+01	-2.927111e+02
9.000000e-08	-6.505065e-06	-4.549798e-09	-4.751241e+01	-2.924887e+02
1.000000e-07	-6.500867e-06	-4.572261e-09	-4.748175e+01	-2.922264e+02
1.100000e-07	-6.496062e-06	-4.566422e-09	-4.744665e+01	-2.919239e+02
1.200000e-07	-6.490656e-06	-4.549441e-09	-4.740716e+01	-2.915808e+02
1.300000e-07	-6.484866e-06	-4.541737e-09	-4.736487e+01	-2.911974e+02
1.400000e-07	-6.478770e-06	-4.538928e-09	-4.732035e+01	-2.907741e+02
1.500000e-07	-6.472331e-06	-4.456814e-09	-4.727332e+01	-2.903117e+02
1.600000e-07	-6.465411e-06	-4.435675e-09	-4.722277e+01	-2.898112e+02
1.700000e-07	-6.458014e-06	-4.536722e-09	-4.716875e+01	-2.892742e+02
1.800000e-07	-6.450223e-06	-4.574764e-09	-4.711185e+01	-2.887022e+02
1.900000e-07	-6.442111e-06	-4.431025e-09	-4.705259e+01	-2.880972e+02
2.000000e-07	-6.433828e-06	-4.457328e-09	-4.699209e+01	-2.874615e+02
2.100000e-07	-6.425236e-06	-4.552013e-09	-4.692934e+01	-2.867976e+02
2.200000e-07	-6.415840e-06	-4.549050e-09	-4.686071e+01	-2.861081e+02
2.300000e-07	-6.405622e-06	-4.425040e-09	-4.678608e+01	-2.853959e+02
2.400000e-07	-6.394901e-06	-4.348550e-09	-4.670778e+01	-2.846641e+02
2.500000e-07	-6.383711e-06	-4.364940e-09	-4.662604e+01	-2.839158e+02
2.600000e-07	-6.371892e-06	-4.463615e-09	-4.653972e+01	-2.831543e+02
2.700000e-07	-6.359383e-06	-4.490324e-09	-4.644836e+01	-2.823829e+02
2.800000e-07	-6.346361e-06	-4.279952e-09	-4.635325e+01	-2.816050e+02
2.900000e-07	-6.332814e-06	-4.113312e-09	-4.625430e+01	-2.808240e+02
3.000000e-07	-6.318739e-06	-4.217221e-09	-4.615149e+01	-2.800431e+02
3.100000e-07	-6.304218e-06	-4.350391e-09	-4.604544e+01	-2.792656e+02
3.200000e-07	-6.289132e-06	-4.179141e-09	-4.593525e+01	-2.784947e+02
3.300000e-07	-6.273214e-06	-3.992731e-09	-4.581898e+01	-2.777332e+02
3.400000e-07	-6.256826e-06	-4.143891e-09	-4.569929e+01	-2.769842e+02
3.500000e-07	-6.240114e-06	-4.278680e-09	-4.557722e+01	-2.762502e+02
3.600000e-07	-6.222892e-06	-4.088265e-09	-4.545144e+01	-2.755336e+02
3.700000e-07	-6.205313e-06	-4.067797e-09	-4.532304e+01	-2.748366e+02
3.800000e-07	-6.187441e-06	-4.165868e-09	-4.519250e+01	-2.741610e+02
3.900000e-07	-6.169135e-06	-4.095813e-09	-4.505880e+01	-2.735086e+02
4.000000e-07	-6.150241e-06	-4.027944e-09	-4.492080e+01	-2.728806e+02
4.100000e-07	-6.130922e-06	-4.176742e-09	-4.477970e+01	-2.722780e+02
4.200000e-07	-6.111237e-06	-4.099514e-09	-4.463592e+01	-2.717016e+02
4.300000e-07	-6.091235e-06	-3.957703e-09	-4.448983e+01	-2.711517e+02
4.400000e-07	-6.070925e-06	-4.064412e-09	-4.434148e+01	-2.706284e+02
4.500000e-07	-6.050341e-06	-4.166641e-09	-4.419114e+01	-2.701314e+02
4.600000e-07	-6.029424e-06	-4.022240e-09	-4.403837e+01	-2.696602e+02
4.700000e-07	-6.008137e-06	-3.992387e-09	-4.388289e+01	-2.692139e+02
4.800000e-07	-5.986449e-06	-4.132739e-09	-4.372448e+01	-2.687914e+02
4.900000e-07	-5.964257e-06	-4.133838e-09	-4.356240e+01	-2.683912e+02
5.000000e-07	-5.941722e-06	-3.996734e-09	-4.339780e+01	-2.680119e+02
5.100000e-07	-5.918787e-06	-4.002727e-09	-4.323028e+01	-2.676514e+02
5.200000e-07	-5.895303e-06	-4.107643e-09	-4.305876e+01	-2.673077e+02
5.300000e-07	-5.871529e-06	-4.087366e-09	-4.288511e+01	-2.669787e+02
5.400000e-07	-5.847478e-06	-4.008612e-09	-4.270945e+01	-2.666619e+02
5.500000e-07	-5.823006e-06	-4.018156e-09	-4.253071e+01	-2.663549e+02
5.600000e-07	-5.798067e-06	-4.059855e-09	-4.234856e+01	-2.660552e+02
5.700000e-07	-5.772571e-06	-4.031157e-09	-4.216233e+01	-2.657600e+02
5.800000e-07	-5.746381e-06	-4.020004e-09	-4.197104e+01	-2.654669e+02
5.900000e-07	-5.719437e-06	-4.005729e-09	-4.177425e+01	-2.651732e+02
6.000000e-07	-5.692066e-06	-3.978252e-09	-4.157433e+01	-2.648764e+02
6.100000e-07	-5.664439e-06	-3.991517e-09	-4.137255e+01	-2.645739e+02
6.200000e-07	-5.636520e-06	-4.029216e-09	-4.116863e+01	-2.642635e+02
6.300000e-07	-5.608352e-06	-3.976479e-09	-4.096289e+01	-2.639429e+02
6.400000e-07	-5.579839e-06	-3.935227e-09	-4.075464e+01	-2.636099e+02
6.500000e-07	-5.550862e-06	-3.968785e-09	-4.054299e+01	-2.632628e+02
6.600000e-07	-5.521497e-06	-4.001995e-09	-4.032851e+01	-2.628997e+02
6.700000e-07	-5.491840e-06	-3.959380e-09	-4.011190e+01	-2.625191e+02
6.800000e-07	-5.461758e-06	-3.920520e-09	-3.989219e+01	-2.621198e+02
6.900000e-07	-5.431180e-06	-3.929026e-09	-3.966885e+01	-2.617008e+02
7.000000e-07	-5.400261e-06	-3.963997e-09	-3.944301e+01	-2.612611e+02
7.100000e-07	-5.368981e-06	-3.945724e-09	-3.921455e+01	-2.608003e+02
7.200000e-07	-5.337406e-06	-3.899440e-09	-3.898393e+01	-2.603180e+02
7.300000e-07	-5.305572e-06	-3.889944e-09	-3.875142e+01	-2.598141e+02
7.400000e-07	-5.273500e-06	-3.914370e-09	-3.851716e+01	-2.592888e+02
7.500000e-07	-5.241184e-06	-3.905575e-09	-3.828113e+01	-2.587424e+02
7.600000e-07	-5.208400e-06	-3.881563e-09	-3.804168e+01	-2.581756e+02
7.700000e-07	-5.175099e-06	-3.865280e-09	-3.779846e+01	-2.575890e+02
7.800000e-07	-5.141311e-06	-3.856258e-09	-3.755167e+01	-2.569837e+02
7.900000e-07	-5.106997e-06	-3.859607e-09	-3.730104e+01	-2.563607e+02
8.000000e-07	-5.072090e-06	-3.860304e-09	-3.704609e+01	-2.557214e+02
8.100000e-07	-5.036805e-06	-3.831890e-09	-3.678837e+01	-2.550669e+02
8.200000e-07	-5.001219e-06	-3.805609e-09	-3.652845e+01	-2.543988e+02
8.300000e-07	-4.965215e-06	-3.819489e-09	-3.626548e+01	-2.537186e+02
8.400000e-07	-4.928920e-06	-3.825192e-09	-3.600038e+01	-2.530277e+02
8.500000e-07	-4.892352e-06	-3.798033e-09	-3.573330e+01	-2.523276e+02
8.600000e-07	-4.855467e-06	-3.772715e-09	-3.546389e+01	-2.516199e+02
8.700000e-07	-4.818300e-06	-3.773828e-09	-3.519243e+01	-2.509060e+02
8.800000e-07	-4.780934e-06	-3.768439e-09	-3.491951e+01	-2.501872e+02
8.900000e-07	-4.743298e-06	-3.750847e-09	-3.464462e+01	-2.494648e+02
9.000000e-07	-4.705238e-06	-3.730834e-09	-3.436663e+01	-2.487400e+02
9.100000e-07	-4.666784e-06	-3.725246e-09	-3.408577e+01	-2.480136e+02
9.200000e-07	-4.627918e-06	-3.721608e-09	-3.380189e+01	-2.472866e+02
9.300000e-07	-4.588747e-06	-3.713202e-09	-3.351579e+01	-2.465594e+02
9.400000e-07	-4.549384e-06	-3.696773e-09	-3.322829e+01	-2.458327e+02
9.500000e-07	-4.509753e-06	-3.687353e-09	-3.293883e+01	-2.451067e+02
9.600000e-07	-4.469842e-06	-3.675545e-09	-3.264732e+01	-2.443812e+02
9.700000e-07	-4.429742e-06	-3.660203e-09	-3.235443e+01	-2.436563e+02
9.800000e-07	-4.389332e-06	-3.638808e-09	-3.205928e+01	-2.429314e+02
9.900000e-07	-4.348485e-06	-3.623928e-09	-3.176094e+01	-2.422060e+02
1.000000e-06	-4.307254e-06	-3.613358e-09	-3.145979e+01	-2.414791e+02
1.010000e-06	-4.265622e-06	-3.606731e-09	-3.115572e+01	-2.407499e+02
1.020000e-06	-4.223566e-06	-3.593934e-09	-3.084854e+01	-2.400170e+02
1.030000e-06	-4.181098e-06	-3.577307e-09	-3.053836e+01	-2.392791e+02
1.040000e-06	-4.138289e-06	-3.568368e-09	-3.022569e+01	-2.385346e+02
1.050000e-06	-4.095098e-06	-3.562707e-09	-2.991022e+01	-2.377819e+02
1.060000e-06	-4.051601e-06	-3.542753e-09	-2.959252e+01	-2.370192e+02
1.070000e-06	-4.007871e-06	-3.516796e-09	-2.927312e+01	-2.362445e+02
1.080000e-06	-3.963900e-06	-3.504103e-09	-2.895197e+01	-2.354560e+02
1.090000e-06	-3.919775e-06	-3.498936e-09	-2.862968e+01	-2.346517e+02
1.100000e-06	-3.875415e-06	-3.483016e-09	-2.830568e+01	-2.338296e+02
1.110000e-06	-3.830708e-06	-3.462578e-09	-2.797915e+01	-2.329876e+02
1.120000e-06	-3.785670e-06	-3.454628e-09	-2.765019e+01	-2.321240e+02
1.130000e-06	-3.740408e-06	-3.450064e-09	-2.731960e+01	-2.312367e+02
1.140000e-06	-3.694927e-06	-3.435695e-09	-2.698741e+01	-2.303242e+02
1.150000e-06	-3.649213e-06	-3.410763e-09	-2.665352e+01	-2.293847e+02
1.160000e-06	-3.603281e-06	-3.393429e-09	-2.631804e+01	-2.284167e+02
1.170000e-06	-3.557131e-06	-3.380572e-09	-2.598096e+01	-2.274190e+02
1.180000e-06	-3.510768e-06	-3.367169e-09	-2.564233e+01	-2.263904e+02
1.190000e-06	-3.464047e-06	-3.346682e-09	-2.530108e+01	-2.253300e+02
1.200000e-06	-3.417009e-06	-3.328164e-09	-2.495752e+01	-2.242371e+02
1.210000e-06	-3.369828e-06	-3.314937e-09	-2.461292e+01	-2.231111e+02
1.220000e-06	-3.322451e-06	-3.306008e-09	-2.426688e+01	-2.219519e+02
1.230000e-06	-3.274816e-06	-3.292272e-09	-2.391896e+01	-2.207593e+02
1.240000e-06	-3.227000e-06	-3.271571e-09	-2.356972e+01	-2.195337e+02
1.250000e-06	-3.179024e-06	-3.249571e-09	-2.321931e+01	-2.182753e+02
1.260000e-06	-3.130738e-06	-3.232943e-09	-2.286663e+01	-2.169850e+02
1.270000e-06	-3.082093e-06	-3.215491e-09	-2.251133e+01	-2.156634e+02
1.280000e-06	-3.033135e-06	-3.189762e-09	-2.215374e+01	-2.143116e+02
1.290000e-06	-2.983993e-06	-3.160731e-09	-2.179482e+01	-2.129309e+02
1.300000e-06	-2.934723e-06	-3.140806e-09	-2.143495e+01	-2.115225e+02
1.310000e-06	-2.885140e-06	-3.126100e-09	-2.107280e+01	-2.100878e+02
1.320000e-06	-2.835232e-06	-3.107818e-09	-2.070828e+01	-2.086284e+02
1.330000e-06	-2.785024e-06	-3.088269e-09	-2.034156e+01	-2.071459e+02
1.340000e-06	-2.734535e-06	-3.068773e-09	-1.997280e+01	-2.056418e+02
1.350000e-06	-2.683736e-06	-3.047271e-09	-1.960177e+01	-2.041176e+02
1.360000e-06	-2.632579e-06	-3.024739e-09	-1.922812e+01	-2.025748e+02
1.370000e-06	-2.581174e-06	-2.999429e-09	-1.885266e+01	-2.010147e+02
1.380000e-06	-2.529528e-06	-2.972096e-09	-1.847544e+01	-1.994387e+02
1.390000e-06	-2.477609e-06	-2.946232e-09	-1.809623e+01	-1.978477e+02
1.400000e-06	-2.425515e-06	-2.923592e-09	-1.771574e+01	-1.962425e+02
1.410000e-06	-2.373378e-06	-2.902813e-09	-1.733494e+01	-1.946237e+02
1.420000e-06	-2.321070e-06	-2.880227e-09	-1.695288e+01	-1.929915e+02
1.430000e-06	-2.268548e-06	-2.857045e-09	-1.656927e+01	-1.913458e+02
1.440000e-06	-2.215901e-06	-2.831453e-09	-1.618474e+01	-1.896862e+02
1.450000e-06	-2.163144e-06	-2.804257e-09	-1.579940e+01	-1.880117e+02
1.460000e-06	-2.110328e-06	-2.774865e-09	-1.541364e+01	-1.863212e+02
1.470000e-06	-2.057323e-06	-2.744433e-09	-1.502650e+01	-1.846128e+02
1.480000e-06	-2.004029e-06	-2.713082e-09	-1.463725e+01	-1.828844e+02
1.490000e-06	-1.950618e-06	-2.684505e-09	-1.424714e+01	-1.811334e+02
1.500000e-06	-1.897093e-06	-2.657457e-09	-1.385620e+01	-1.793566e+02
1.510000e-06	-1.843408e-06	-2.629019e-09	-1.346408e+01	-1.775505e+02
1.520000e-06	-1.789587e-06	-2.598088e-09	-1.307098e+01	-1.757109e+02
1.530000e-06	-1.735548e-06	-2.563628e-09	-1.267628e+01	-1.738335e+02
1.540000e-06	-1.681356e-06	-2.526920e-09	-1.228047e+01	-1.719131e+02
1.550000e-06	-1.627111e-06	-2.493338e-09	-1.188427e+01	-1.699445e+02
1.560000e-06	-1.572860e-06	-2.458985e-09	-1.148803e+01	-1.679218e+02
1.570000e-06	-1.518562e-06	-2.420022e-09	-1.109144e+01	-1.658390e+02
1.580000e-06	-1.464117e-06	-2.383416e-09	-1.069378e+01	-1.636896e+02
1.590000e-06	-1.409545e-06	-2.349663e-09	-1.029519e+01	-1.614668e+02
1.600000e-06	-1.354903e-06	-2.312892e-09	-9.896089e+00	-1.591638e+02
1.610000e-06	-1.300132e-06	-2.271019e-09	-9.496044e+00	-1.567735e+02
1.620000e-06	-1.245308e-06	-2.226439e-09	-9.095620e+00	-1.542886e+02
1.630000e-06	-1.190445e-06	-2.181203e-09	-8.694904e+00	-1.517018e+02
1.640000e-06	-1.135413e-06	-2.140386e-09	-8.292956e+00	-1.490060e+02
1.650000e-06	-1.080296e-06	-2.099126e-09	-7.890382e+00	-1.461939e+02
1.660000e-06	-1.025127e-06	-2.049511e-09	-7.487433e+00	-1.432586e+02
1.670000e-06	-9.698965e-07	-1.999943e-09	-7.084036e+00	-1.401931e+02
1.680000e-06	-9.145761e-07	-1.954158e-09	-6.679981e+00	-1.369910e+02
1.690000e-06	-8.591555e-07	-1.907604e-09	-6.275194e+00	-1.336462e+02
1.700000e-06	-8.036627e-07	-1.856660e-09	-5.869880e+00	-1.301529e+02
1.710000e-06	-7.481678e-07	-1.802538e-09	-5.464550e+00	-1.265058e+02
1.720000e-06	-6.926811e-07	-1.748931e-09	-5.059280e+00	-1.227003e+02
1.730000e-06	-6.371448e-07	-1.693618e-09	-4.653648e+00	-1.187323e+02
1.740000e-06	-5.816068e-07	-1.631985e-09	-4.248003e+00	-1.145984e+02
1.750000e-06	-5.260849e-07	-1.566283e-09	-3.842476e+00	-1.102959e+02
1.760000e-06	-4.705201e-07	-1.501352e-09	-3.436636e+00	-1.058230e+02
1.770000e-06	-4.148676e-07	-1.436682e-09	-3.030155e+00	-1.011786e+02
1.780000e-06	-3.591838e-07	-1.370453e-09	-2.623446e+00	-9.636246e+01
1.790000e-06	-3.035645e-07	-1.299575e-09	-2.217207e+00	-9.137529e+01
1.800000e-06	-2.479563e-07	-1.226991e-09	-1.811050e+00	-8.621866e+01
1.810000e-06	-1.922596e-07	-1.153491e-09	-1.404247e+00	-8.089508e+01
1.820000e-06	-1.365251e-07	-1.075116e-09	-9.971670e-01	-7.540802e+01
1.830000e-06	-8.084241e-08	-9.928295e-10	-5.904656e-01	-6.976185e+01
1.840000e-06	-2.513691e-08	-9.079240e-10	-1.835977e-01	-6.396188e+01
1.850000e-06	3.062195e-08	-8.205851e-10	2.236600e-01	-5.801436e+01
1.860000e-06	8.632587e-08	-7.295504e-10	6.305164e-01	-5.192639e+01
1.870000e-06	1.419868e-07	-6.364244e-10	1.037059e+00	-4.570596e+01
1.880000e-06	1.975822e-07	-5.428148e-10	1.443122e+00	-3.936190e+01
1.890000e-06	2.531358e-07	-4.465729e-10	1.848881e+00	-3.290377e+01
1.900000e-06	3.087453e-07	-3.484368e-10	2.255047e+00	-2.634192e+01
1.910000e-06	3.643574e-07	-2.499748e-10	2.661233e+00	-1.968732e+01
1.920000e-06	4.199461e-07	-1.477666e-10	3.067248e+00	-1.295157e+01
1.930000e-06	4.755480e-07	-4.110864e-11	3.473360e+00	-6.146825e+00
1.940000e-06	5.311187e-07	6.629014e-11	3.879243e+00	7.143286e-01
1.950000e-06	5.866889e-07	1.721783e-10	4.285122e+00	7.618899e+00
1.960000e-06	6.421411e-07	2.795333e-10	4.690140e+00	1.455359e+01
1.970000e-06	6.975001e-07	3.891934e-10	5.094477e+00	2.150491e+01
1.980000e-06	7.529166e-07	4.994127e-10	5.499235e+00	2.845919e+01
1.990000e-06	8.083461e-07	6.093070e-10	5.904086e+00	3.540275e+01
2.000000e-06	8.636344e-07	7.183852e-10	6.307907e+00	4.232195e+01
2.010000e-06	9.187297e-07	8.287050e-10	6.710318e+00	4.920328e+01
2.020000e-06	9.738179e-07	9.385981e-10	7.112678e+00	5.603344e+01
2.030000e-06	1.028963e-06	1.046360e-09	7.515455e+00	6.279944e+01
2.040000e-06	1.084087e-06	1.150591e-09	7.918074e+00	6.948867e+01
2.050000e-06	1.139073e-06	1.254447e-09	8.319682e+00	7.608900e+01
2.060000e-06	1.193919e-06	1.355831e-09	8.720277e+00	8.258883e+01
2.070000e-06	1.248772e-06	1.450854e-09	9.120917e+00	8.897717e+01
2.080000e-06	1.303562e-06	1.547864e-09	9.521102e+00	9.524371e+01
2.090000e-06	1.358216e-06	1.642971e-09	9.920287e+00	1.013789e+02
2.100000e-06	1.412814e-06	1.730982e-09	1.031907e+01	1.073739e+02
2.110000e-06	1.467307e-06	1.811960e-09	1.071708e+01	1.132208e+02
2.120000e-06	1.521680e-06	1.894185e-09	1.111422e+01	1.189125e+02
2.130000e-06	1.575904e-06	1.976526e-09	1.151026e+01	1.244428e+02
2.140000e-06	1.629980e-06	2.050863e-09	1.190522e+01	1.298065e+02
2.150000e-06	1.683931e-06	2.122847e-09	1.229928e+01	1.349992e+02
2.160000e-06	1.737702e-06	2.195933e-09	1.269202e+01	1.400177e+02
2.170000e-06	1.791430e-06	2.268949e-09	1.308444e+01	1.448595e+02
2.180000e-06	1.845119e-06	2.335685e-09	1.347658e+01	1.495231e+02
2.190000e-06	1.898698e-06	2.397981e-09	1.386792e+01	1.540081e+02
2.200000e-06	1.952091e-06	2.459745e-09	1.425790e+01	1.583148e+02
2.210000e-06	2.005210e-06	2.519802e-09	1.464587e+01	1.624444e+02
2.220000e-06	2.058288e-06	2.576774e-09	1.503355e+01	1.663991e+02
2.230000e-06	2.111248e-06	2.627237e-09	1.542036e+01	1.701817e+02
2.240000e-06	2.164071e-06	2.674020e-09	1.580618e+01	1.737959e+02
2.250000e-06	2.216806e-06	2.722046e-09	1.619135e+01	1.772460e+02
2.260000e-06	2.269295e-06	2.768688e-09	1.657472e+01	1.805370e+02
2.270000e-06	2.321603e-06	2.812773e-09	1.695678e+01	1.836744e+02
2.280000e-06	2.373670e-06	2.854404e-09	1.733707e+01	1.866644e+02
2.290000e-06	2.425548e-06	2.895809e-09	1.771599e+01	1.895133e+02
2.300000e-06	2.477248e-06	2.934122e-09	1.809360e+01	1.922280e+02
2.310000e-06	2.528721e-06	2.969260e-09	1.846955e+01	1.948158e+02
2.320000e-06	2.580075e-06	3.003296e-09	1.884463e+01	1.972840e+02
2.330000e-06	2.631185e-06	3.036516e-09	1.921794e+01	1.996401e+02
2.340000e-06	2.682029e-06	3.068044e-09	1.958929e+01	2.018919e+02
2.350000e-06	2.732608e-06	3.098733e-09	1.995872e+01	2.040470e+02
2.360000e-06	2.782850e-06	3.129422e-09	2.032568e+01	2.061129e+02
2.370000e-06	2.832799e-06	3.160489e-09	2.069050e+01	2.080972e+02
2.380000e-06	2.882491e-06	3.191751e-09	2.105345e+01	2.100072e+02
2.390000e-06	2.931774e-06	3.221999e-09	2.141341e+01	2.118500e+02
2.400000e-06	2.980726e-06	3.250681e-09	2.177095e+01	2.136324e+02
2.410000e-06	3.029447e-06	3.276759e-09	2.212680e+01	2.153609e+02
2.420000e-06	3.077869e-06	3.300509e-09	2.248048e+01	2.170415e+02
2.430000e-06	3.126064e-06	3.323881e-09	2.283249e+01	2.186801e+02
2.440000e-06	3.174084e-06	3.349375e-09	2.318322e+01	2.202818e+02
2.450000e-06	3.221998e-06	3.373942e-09	2.353318e+01	2.218515e+02
2.460000e-06	3.269770e-06	3.396476e-09	2.388211e+01	2.233935e+02
2.470000e-06	3.317339e-06	3.419007e-09	2.422954e+01	2.249115e+02
2.480000e-06	3.364630e-06	3.444136e-09	2.457496e+01	2.264090e+02
2.490000e-06	3.411687e-06	3.466271e-09	2.491865e+01	2.278887e+02
2.500000e-06	3.458507e-06	3.484008e-09	2.526062e+01	2.293529e+02
2.510000e-06	3.505040e-06	3.503321e-09	2.560050e+01	2.308035e+02
2.520000e-06	3.551310e-06	3.523509e-09	2.593845e+01	2.322418e+02
2.530000e-06	3.597306e-06	3.540732e-09	2.627440e+01	2.336687e+02
2.540000e-06	3.643088e-06	3.556532e-09	2.660879e+01	2.350848e+02
2.550000e-06	3.688695e-06	3.573103e-09	2.694190e+01	2.364900e+02
2.560000e-06	3.734031e-06	3.592109e-09	2.727302e+01	2.378840e+02
2.570000e-06	3.779087e-06	3.613588e-09	2.760211e+01	2.392663e+02
2.580000e-06	3.823887e-06	3.633957e-09	2.792933e+01	2.406358e+02
2.590000e-06	3.868388e-06	3.652339e-09	2.825436e+01	2.419915e+02
2.600000e-06	3.912655e-06	3.671863e-09	2.857768e+01	2.433319e+02
2.610000e-06	3.956751e-06	3.690681e-09	2.889975e+01	2.446555e+02
2.620000e-06	4.000740e-06	3.706841e-09	2.922104e+01	2.459605e+02
2.630000e-06	4.044622e-06	3.722126e-09	2.954155e+01	2.472451e+02
2.640000e-06	4.088353e-06	3.739317e-09	2.986096e+01	2.485076e+02
2.650000e-06	4.131845e-06	3.756811e-09	3.017862e+01	2.497461e+02
2.660000e-06	4.174888e-06	3.771808e-09	3.049301e+01	2.509588e+02
2.670000e-06	4.217510e-06	3.785958e-09	3.080431e+01	2.521440e+02
2.680000e-06	4.259610e-06	3.801101e-09	3.111180e+01	2.533001e+02
2.690000e-06	4.301127e-06	3.816936e-09	3.141504e+01	2.544255e+02
2.700000e-06	4.342159e-06	3.830743e-09	3.171473e+01	2.555190e+02
2.710000e-06	4.382727e-06	3.844388e-09	3.201104e+01	2.565795e+02
2.720000e-06	4.422947e-06	3.859260e-09	3.230481e+01	2.576060e+02
2.730000e-06	4.462915e-06	3.872888e-09	3.259673e+01	2.585978e+02
2.740000e-06	4.502753e-06	3.886318e-09	3.288770e+01	2.595546e+02
2.750000e-06	4.542431e-06	3.900044e-09	3.317750e+01	2.604761e+02
2.760000e-06	4.581943e-06	3.913284e-09	3.346609e+01	2.613624e+02
2.770000e-06	4.621214e-06	3.927758e-09	3.375293e+01	2.622138e+02
2.780000e-06	4.659997e-06	3.940744e-09	3.403619e+01	2.630310e+02
2.790000e-06	4.698386e-06	3.952074e-09	3.431659e+01	2.638146e+02
2.800000e-06	4.736507e-06	3.963613e-09	3.459502e+01	2.645659e+02
2.810000e-06	4.774287e-06	3.975680e-09	3.487096e+01	2.652860e+02
2.820000e-06	4.811739e-06	3.986723e-09	3.514450e+01	2.659765e+02
2.830000e-06	4.848811e-06	3.994498e-09	3.541528e+01	2.666390e+02
2.840000e-06	4.885524e-06	4.002845e-09	3.568342e+01	2.672753e+02
2.850000e-06	4.921979e-06	4.013974e-09	3.594969e+01	2.678875e+02
2.860000e-06	4.958233e-06	4.024356e-09	3.621449e+01	2.684776e+02
2.870000e-06	4.994237e-06	4.036227e-09	3.647745e+01	2.690477e+02
2.880000e-06	5.029979e-06	4.047773e-09	3.673851e+01	2.696001e+02
2.890000e-06	5.065518e-06	4.057438e-09	3.699808e+01	2.701369e+02
2.900000e-06	5.100700e-06	4.068867e-09	3.725505e+01	2.706606e+02
