# Temperatura_=_20.0
# Concentracion g/m^3_=_9000.0
# C_Vs_to_Am_M_A/Vsm_=_65563218390.804596
# pendiente_HvsI_1/m_=_3716.3
# ordenada_HvsI_A/m_=_1297.0
# frecuencia_Hz_=_135312.96269054714

Tiempo_(s)	Campo_(V.s)	Magnetizacion_(V.s)	Campo_(kA/m)	Magnetizacion_(A/m)
0.000000e+00	-6.524478e-06	-4.440186e-09	-4.762450e+01	-2.852875e+02
1.000000e-08	-6.524635e-06	-4.443853e-09	-4.762564e+01	-2.854840e+02
2.000000e-08	-6.524560e-06	-4.445797e-09	-4.762510e+01	-2.856740e+02
3.000000e-08	-6.524127e-06	-4.445763e-09	-4.762194e+01	-2.858554e+02
4.000000e-08	-6.523150e-06	-4.447874e-09	-4.761480e+01	-2.860261e+02
5.000000e-08	-6.521567e-06	-4.449919e-09	-4.760325e+01	-2.861843e+02
6.000000e-08	-6.519153e-06	-4.447207e-09	-4.758563e+01	-2.863279e+02
7.000000e-08	-6.515993e-06	-4.434416e-09	-4.756256e+01	-2.864551e+02
8.000000e-08	-6.512452e-06	-4.420380e-09	-4.753671e+01	-2.865643e+02
9.000000e-08	-6.508550e-06	-4.431353e-09	-4.750823e+01	-2.866539e+02
1.000000e-07	-6.504240e-06	-4.487660e-09	-4.747677e+01	-2.867226e+02
1.100000e-07	-6.499278e-06	-4.564660e-09	-4.744055e+01	-2.867692e+02
1.200000e-07	-6.493614e-06	-4.568242e-09	-4.739921e+01	-2.867926e+02
1.300000e-07	-6.487566e-06	-4.448500e-09	-4.735506e+01	-2.867921e+02
1.400000e-07	-6.481334e-06	-4.301714e-09	-4.730957e+01	-2.867671e+02
1.500000e-07	-6.474819e-06	-4.347545e-09	-4.726202e+01	-2.867173e+02
1.600000e-07	-6.467802e-06	-4.632291e-09	-4.721079e+01	-2.866425e+02
1.700000e-07	-6.460275e-06	-4.700877e-09	-4.715586e+01	-2.865429e+02
1.800000e-07	-6.452424e-06	-4.458473e-09	-4.709854e+01	-2.864188e+02
1.900000e-07	-6.444328e-06	-4.377815e-09	-4.703945e+01	-2.862706e+02
2.000000e-07	-6.435937e-06	-4.572585e-09	-4.697820e+01	-2.860992e+02
2.100000e-07	-6.427328e-06	-4.763015e-09	-4.691536e+01	-2.859055e+02
2.200000e-07	-6.418069e-06	-4.592886e-09	-4.684777e+01	-2.856906e+02
2.300000e-07	-6.407673e-06	-4.348477e-09	-4.677189e+01	-2.854557e+02
2.400000e-07	-6.396618e-06	-4.201309e-09	-4.669120e+01	-2.852024e+02
2.500000e-07	-6.385337e-06	-4.439171e-09	-4.660886e+01	-2.849322e+02
2.600000e-07	-6.373478e-06	-4.576510e-09	-4.652229e+01	-2.846467e+02
2.700000e-07	-6.360760e-06	-4.327129e-09	-4.642946e+01	-2.843477e+02
2.800000e-07	-6.347656e-06	-4.023735e-09	-4.633381e+01	-2.840370e+02
2.900000e-07	-6.334254e-06	-4.195344e-09	-4.623598e+01	-2.837165e+02
3.000000e-07	-6.320245e-06	-4.414656e-09	-4.613372e+01	-2.833881e+02
3.100000e-07	-6.305613e-06	-4.187303e-09	-4.602692e+01	-2.830535e+02
3.200000e-07	-6.290345e-06	-3.923309e-09	-4.591547e+01	-2.827146e+02
3.300000e-07	-6.274242e-06	-4.089334e-09	-4.579793e+01	-2.823732e+02
3.400000e-07	-6.257533e-06	-4.278977e-09	-4.567597e+01	-2.820309e+02
3.500000e-07	-6.240598e-06	-4.090536e-09	-4.555235e+01	-2.816893e+02
3.600000e-07	-6.223247e-06	-4.024844e-09	-4.542570e+01	-2.813498e+02
3.700000e-07	-6.205458e-06	-4.062176e-09	-4.529585e+01	-2.810138e+02
3.800000e-07	-6.187489e-06	-4.058941e-09	-4.516469e+01	-2.806823e+02
3.900000e-07	-6.169176e-06	-4.103674e-09	-4.503102e+01	-2.803564e+02
4.000000e-07	-6.150169e-06	-4.215371e-09	-4.489228e+01	-2.800368e+02
4.100000e-07	-6.130577e-06	-4.036490e-09	-4.474927e+01	-2.797241e+02
4.200000e-07	-6.110764e-06	-3.979353e-09	-4.460465e+01	-2.794188e+02
4.300000e-07	-6.090748e-06	-4.208253e-09	-4.445854e+01	-2.791209e+02
4.400000e-07	-6.070355e-06	-4.267037e-09	-4.430969e+01	-2.788306e+02
4.500000e-07	-6.049587e-06	-4.019846e-09	-4.415810e+01	-2.785475e+02
4.600000e-07	-6.028498e-06	-4.066769e-09	-4.400416e+01	-2.782713e+02
4.700000e-07	-6.007000e-06	-4.293114e-09	-4.384724e+01	-2.780013e+02
4.800000e-07	-5.985033e-06	-4.252181e-09	-4.368689e+01	-2.777368e+02
4.900000e-07	-5.962736e-06	-4.043201e-09	-4.352414e+01	-2.774769e+02
5.000000e-07	-5.940145e-06	-4.096805e-09	-4.335924e+01	-2.772203e+02
5.100000e-07	-5.916939e-06	-4.212550e-09	-4.318985e+01	-2.769660e+02
5.200000e-07	-5.893232e-06	-4.192570e-09	-4.301680e+01	-2.767124e+02
5.300000e-07	-5.869374e-06	-4.115158e-09	-4.284265e+01	-2.764581e+02
5.400000e-07	-5.845214e-06	-4.114798e-09	-4.266631e+01	-2.762017e+02
5.500000e-07	-5.820552e-06	-4.131334e-09	-4.248629e+01	-2.759414e+02
5.600000e-07	-5.795401e-06	-4.169835e-09	-4.230270e+01	-2.756756e+02
5.700000e-07	-5.769650e-06	-4.180278e-09	-4.211473e+01	-2.754028e+02
5.800000e-07	-5.743050e-06	-4.098936e-09	-4.192057e+01	-2.751211e+02
5.900000e-07	-5.715785e-06	-4.051818e-09	-4.172156e+01	-2.748292e+02
6.000000e-07	-5.688196e-06	-4.135830e-09	-4.152017e+01	-2.745252e+02
6.100000e-07	-5.660392e-06	-4.178043e-09	-4.131722e+01	-2.742079e+02
6.200000e-07	-5.632384e-06	-4.072112e-09	-4.111278e+01	-2.738758e+02
6.300000e-07	-5.604067e-06	-4.026949e-09	-4.090608e+01	-2.735276e+02
6.400000e-07	-5.575381e-06	-4.097993e-09	-4.069670e+01	-2.731621e+02
6.500000e-07	-5.546294e-06	-4.147665e-09	-4.048438e+01	-2.727785e+02
6.600000e-07	-5.516804e-06	-4.079989e-09	-4.026912e+01	-2.723758e+02
6.700000e-07	-5.487006e-06	-4.028625e-09	-4.005161e+01	-2.719535e+02
6.800000e-07	-5.456835e-06	-4.048068e-09	-3.983139e+01	-2.715109e+02
6.900000e-07	-5.426201e-06	-4.105640e-09	-3.960777e+01	-2.710477e+02
7.000000e-07	-5.395112e-06	-4.073142e-09	-3.938085e+01	-2.705639e+02
7.100000e-07	-5.363678e-06	-4.020367e-09	-3.915140e+01	-2.700595e+02
7.200000e-07	-5.331990e-06	-4.008238e-09	-3.892010e+01	-2.695348e+02
7.300000e-07	-5.300087e-06	-4.047870e-09	-3.868723e+01	-2.689900e+02
7.400000e-07	-5.268036e-06	-4.046567e-09	-3.845328e+01	-2.684259e+02
7.500000e-07	-5.235725e-06	-4.018784e-09	-3.821742e+01	-2.678431e+02
7.600000e-07	-5.202876e-06	-3.980377e-09	-3.797765e+01	-2.672426e+02
7.700000e-07	-5.169389e-06	-3.988231e-09	-3.773322e+01	-2.666253e+02
7.800000e-07	-5.135287e-06	-4.009419e-09	-3.748429e+01	-2.659923e+02
7.900000e-07	-5.100647e-06	-3.996823e-09	-3.723144e+01	-2.653448e+02
8.000000e-07	-5.065475e-06	-3.938796e-09	-3.697471e+01	-2.646842e+02
8.100000e-07	-5.029943e-06	-3.928044e-09	-3.671535e+01	-2.640118e+02
8.200000e-07	-4.994201e-06	-3.962395e-09	-3.645446e+01	-2.633289e+02
8.300000e-07	-4.958193e-06	-3.963060e-09	-3.619162e+01	-2.626368e+02
8.400000e-07	-4.921932e-06	-3.915341e-09	-3.592693e+01	-2.619371e+02
8.500000e-07	-4.885360e-06	-3.896779e-09	-3.565999e+01	-2.612308e+02
8.600000e-07	-4.848374e-06	-3.917632e-09	-3.539001e+01	-2.605194e+02
8.700000e-07	-4.811063e-06	-3.914938e-09	-3.511767e+01	-2.598040e+02
8.800000e-07	-4.773518e-06	-3.884468e-09	-3.484361e+01	-2.590856e+02
8.900000e-07	-4.735608e-06	-3.855645e-09	-3.456689e+01	-2.583652e+02
9.000000e-07	-4.697306e-06	-3.856288e-09	-3.428732e+01	-2.576435e+02
9.100000e-07	-4.658716e-06	-3.858294e-09	-3.400563e+01	-2.569213e+02
9.200000e-07	-4.619853e-06	-3.844888e-09	-3.372196e+01	-2.561990e+02
9.300000e-07	-4.580733e-06	-3.812925e-09	-3.343640e+01	-2.554769e+02
9.400000e-07	-4.541295e-06	-3.804371e-09	-3.314854e+01	-2.547551e+02
9.500000e-07	-4.501548e-06	-3.805604e-09	-3.285841e+01	-2.540335e+02
9.600000e-07	-4.461641e-06	-3.800007e-09	-3.256711e+01	-2.533118e+02
9.700000e-07	-4.421506e-06	-3.767071e-09	-3.227415e+01	-2.525896e+02
9.800000e-07	-4.381086e-06	-3.741303e-09	-3.197911e+01	-2.518660e+02
9.900000e-07	-4.340262e-06	-3.733227e-09	-3.168112e+01	-2.511404e+02
1.000000e-06	-4.298837e-06	-3.735545e-09	-3.137874e+01	-2.504115e+02
1.010000e-06	-4.257027e-06	-3.714206e-09	-3.107356e+01	-2.496782e+02
1.020000e-06	-4.214853e-06	-3.690010e-09	-3.076571e+01	-2.489391e+02
1.030000e-06	-4.172196e-06	-3.681438e-09	-3.045434e+01	-2.481927e+02
1.040000e-06	-4.129100e-06	-3.686065e-09	-3.013977e+01	-2.474373e+02
1.050000e-06	-4.085591e-06	-3.667322e-09	-2.982219e+01	-2.466711e+02
1.060000e-06	-4.041886e-06	-3.640176e-09	-2.950317e+01	-2.458924e+02
1.070000e-06	-3.998010e-06	-3.621748e-09	-2.918290e+01	-2.450992e+02
1.080000e-06	-3.953937e-06	-3.614788e-09	-2.886120e+01	-2.442896e+02
1.090000e-06	-3.909627e-06	-3.601703e-09	-2.853776e+01	-2.434618e+02
1.100000e-06	-3.865048e-06	-3.582250e-09	-2.821237e+01	-2.426137e+02
1.110000e-06	-3.820262e-06	-3.564528e-09	-2.788545e+01	-2.417436e+02
1.120000e-06	-3.775138e-06	-3.556435e-09	-2.755608e+01	-2.408496e+02
1.130000e-06	-3.729742e-06	-3.551897e-09	-2.722472e+01	-2.399301e+02
1.140000e-06	-3.684124e-06	-3.535834e-09	-2.689174e+01	-2.389834e+02
1.150000e-06	-3.638250e-06	-3.513903e-09	-2.655688e+01	-2.380082e+02
1.160000e-06	-3.592176e-06	-3.496650e-09	-2.622058e+01	-2.370032e+02
1.170000e-06	-3.545795e-06	-3.487921e-09	-2.588203e+01	-2.359673e+02
1.180000e-06	-3.499166e-06	-3.469360e-09	-2.554166e+01	-2.348995e+02
1.190000e-06	-3.452368e-06	-3.448015e-09	-2.520006e+01	-2.337993e+02
1.200000e-06	-3.405391e-06	-3.431253e-09	-2.485716e+01	-2.326661e+02
1.210000e-06	-3.358170e-06	-3.426250e-09	-2.451248e+01	-2.314997e+02
1.220000e-06	-3.310669e-06	-3.415760e-09	-2.416575e+01	-2.303001e+02
1.230000e-06	-3.262946e-06	-3.398386e-09	-2.381741e+01	-2.290674e+02
1.240000e-06	-3.214945e-06	-3.375393e-09	-2.346703e+01	-2.278021e+02
1.250000e-06	-3.166733e-06	-3.358469e-09	-2.311511e+01	-2.265049e+02
1.260000e-06	-3.118390e-06	-3.342826e-09	-2.276224e+01	-2.251765e+02
1.270000e-06	-3.069762e-06	-3.321736e-09	-2.240729e+01	-2.238180e+02
1.280000e-06	-3.020923e-06	-3.291797e-09	-2.205079e+01	-2.224306e+02
1.290000e-06	-2.971789e-06	-3.266965e-09	-2.169215e+01	-2.210156e+02
1.300000e-06	-2.922272e-06	-3.250290e-09	-2.133071e+01	-2.195744e+02
1.310000e-06	-2.872506e-06	-3.239339e-09	-2.096745e+01	-2.181087e+02
1.320000e-06	-2.822502e-06	-3.221086e-09	-2.060245e+01	-2.166199e+02
1.330000e-06	-2.772276e-06	-3.201352e-09	-2.023583e+01	-2.151097e+02
1.340000e-06	-2.721679e-06	-3.180663e-09	-1.986651e+01	-2.135797e+02
1.350000e-06	-2.670653e-06	-3.161966e-09	-1.949405e+01	-2.120315e+02
1.360000e-06	-2.619297e-06	-3.137990e-09	-1.911918e+01	-2.104664e+02
1.370000e-06	-2.567764e-06	-3.108088e-09	-1.874302e+01	-2.088860e+02
1.380000e-06	-2.516058e-06	-3.078740e-09	-1.836561e+01	-2.072912e+02
1.390000e-06	-2.464107e-06	-3.055831e-09	-1.798640e+01	-2.056830e+02
1.400000e-06	-2.411929e-06	-3.037199e-09	-1.760553e+01	-2.040623e+02
1.410000e-06	-2.359646e-06	-3.017480e-09	-1.722389e+01	-2.024293e+02
1.420000e-06	-2.307273e-06	-2.998410e-09	-1.684161e+01	-2.007843e+02
1.430000e-06	-2.254678e-06	-2.975795e-09	-1.645770e+01	-1.991269e+02
1.440000e-06	-2.201892e-06	-2.950519e-09	-1.607239e+01	-1.974566e+02
1.450000e-06	-2.148952e-06	-2.923596e-09	-1.568597e+01	-1.957724e+02
1.460000e-06	-2.095859e-06	-2.892800e-09	-1.529843e+01	-1.940728e+02
1.470000e-06	-2.042676e-06	-2.860586e-09	-1.491022e+01	-1.923559e+02
1.480000e-06	-1.989329e-06	-2.832604e-09	-1.452082e+01	-1.906193e+02
1.490000e-06	-1.935839e-06	-2.806791e-09	-1.413038e+01	-1.888603e+02
1.500000e-06	-1.882257e-06	-2.780983e-09	-1.373926e+01	-1.870756e+02
1.510000e-06	-1.828458e-06	-2.751769e-09	-1.334657e+01	-1.852614e+02
1.520000e-06	-1.774496e-06	-2.721256e-09	-1.295268e+01	-1.834135e+02
1.530000e-06	-1.720457e-06	-2.682579e-09	-1.255823e+01	-1.815272e+02
1.540000e-06	-1.666255e-06	-2.644980e-09	-1.216259e+01	-1.795974e+02
1.550000e-06	-1.611915e-06	-2.607487e-09	-1.176594e+01	-1.776186e+02
1.560000e-06	-1.557571e-06	-2.571505e-09	-1.136927e+01	-1.755849e+02
1.570000e-06	-1.503139e-06	-2.531840e-09	-1.097195e+01	-1.734901e+02
1.580000e-06	-1.448548e-06	-2.496042e-09	-1.057347e+01	-1.713276e+02
1.590000e-06	-1.393910e-06	-2.464320e-09	-1.017465e+01	-1.690907e+02
1.600000e-06	-1.339198e-06	-2.429699e-09	-9.775285e+00	-1.667723e+02
1.610000e-06	-1.284355e-06	-2.387317e-09	-9.374965e+00	-1.643654e+02
1.620000e-06	-1.229474e-06	-2.343668e-09	-8.974369e+00	-1.618626e+02
1.630000e-06	-1.174499e-06	-2.301784e-09	-8.573090e+00	-1.592567e+02
1.640000e-06	-1.119322e-06	-2.261303e-09	-8.170329e+00	-1.565405e+02
1.650000e-06	-1.064097e-06	-2.216187e-09	-7.767225e+00	-1.537067e+02
1.660000e-06	-1.008821e-06	-2.164477e-09	-7.363748e+00	-1.507485e+02
1.670000e-06	-9.534206e-07	-2.112268e-09	-6.959357e+00	-1.476590e+02
1.680000e-06	-8.979478e-07	-2.063215e-09	-6.554441e+00	-1.444318e+02
1.690000e-06	-8.424847e-07	-2.016591e-09	-6.149596e+00	-1.410609e+02
1.700000e-06	-7.870780e-07	-1.966742e-09	-5.745163e+00	-1.375406e+02
1.710000e-06	-7.316617e-07	-1.915356e-09	-5.340660e+00	-1.338657e+02
1.720000e-06	-6.761557e-07	-1.861621e-09	-4.935502e+00	-1.300317e+02
1.730000e-06	-6.205698e-07	-1.804518e-09	-4.529760e+00	-1.260347e+02
1.740000e-06	-5.650058e-07	-1.744282e-09	-4.124179e+00	-1.218714e+02
1.750000e-06	-5.094870e-07	-1.679733e-09	-3.718927e+00	-1.175393e+02
1.760000e-06	-4.539185e-07	-1.613215e-09	-3.313313e+00	-1.130366e+02
1.770000e-06	-3.982710e-07	-1.549748e-09	-2.907122e+00	-1.083625e+02
1.780000e-06	-3.425939e-07	-1.482629e-09	-2.500715e+00	-1.035169e+02
1.790000e-06	-2.869229e-07	-1.412499e-09	-2.094353e+00	-9.850065e+01
1.800000e-06	-2.313092e-07	-1.341067e-09	-1.688409e+00	-9.331548e+01
1.810000e-06	-1.756668e-07	-1.267971e-09	-1.282255e+00	-8.796408e+01
1.820000e-06	-1.199396e-07	-1.190755e-09	-8.754820e-01	-8.245006e+01
1.830000e-06	-6.428486e-08	-1.110170e-09	-4.692381e-01	-7.677795e+01
1.840000e-06	-8.648296e-09	-1.024410e-09	-6.312700e-02	-7.095323e+01
1.850000e-06	4.705127e-08	-9.363253e-10	3.434440e-01	-6.498227e+01
1.860000e-06	1.027502e-07	-8.461446e-10	7.500106e-01	-5.887235e+01
1.870000e-06	1.584449e-07	-7.534665e-10	1.156546e+00	-5.263158e+01
1.880000e-06	2.140546e-07	-6.581916e-10	1.562461e+00	-4.626889e+01
1.890000e-06	2.697017e-07	-5.630362e-10	1.968649e+00	-3.979401e+01
1.900000e-06	3.253801e-07	-4.654372e-10	2.375065e+00	-3.321736e+01
1.910000e-06	3.810069e-07	-3.662472e-10	2.781106e+00	-2.655004e+01
1.920000e-06	4.366507e-07	-2.645543e-10	3.187269e+00	-1.980373e+01
1.930000e-06	4.922713e-07	-1.585730e-10	3.593264e+00	-1.299067e+01
1.940000e-06	5.478739e-07	-5.206073e-11	3.999127e+00	-6.123519e+00
1.950000e-06	6.034531e-07	5.314457e-11	4.404820e+00	7.846671e-01
1.960000e-06	6.590018e-07	1.616897e-10	4.810289e+00	7.720546e+00
1.970000e-06	7.144861e-07	2.721510e-10	5.215289e+00	1.467056e+01
1.980000e-06	7.698394e-07	3.794594e-10	5.619332e+00	2.162105e+01
1.990000e-06	8.251146e-07	4.878637e-10	6.022806e+00	2.855828e+01
2.000000e-06	8.803682e-07	5.975112e-10	6.426122e+00	3.546862e+01
2.010000e-06	9.355584e-07	7.063545e-10	6.828975e+00	4.233854e+01
2.020000e-06	9.907340e-07	8.131787e-10	7.231721e+00	4.915477e+01
2.030000e-06	1.045909e-06	9.190540e-10	7.634462e+00	5.590432e+01
2.040000e-06	1.101089e-06	1.022813e-09	8.037241e+00	6.257464e+01
2.050000e-06	1.156234e-06	1.127573e-09	8.439765e+00	6.915361e+01
2.060000e-06	1.211253e-06	1.228132e-09	8.841371e+00	7.562969e+01
2.070000e-06	1.266163e-06	1.324387e-09	9.242178e+00	8.199196e+01
2.080000e-06	1.320979e-06	1.417212e-09	9.642297e+00	8.823016e+01
2.090000e-06	1.375656e-06	1.505430e-09	1.004141e+01	9.433481e+01
2.100000e-06	1.430176e-06	1.591475e-09	1.043937e+01	1.002972e+02
2.110000e-06	1.484684e-06	1.675875e-09	1.083724e+01	1.061095e+02
2.120000e-06	1.539143e-06	1.759894e-09	1.123475e+01	1.117647e+02
2.130000e-06	1.593401e-06	1.841343e-09	1.163081e+01	1.172567e+02
2.140000e-06	1.647531e-06	1.917901e-09	1.202592e+01	1.225804e+02
2.150000e-06	1.701562e-06	1.993180e-09	1.242031e+01	1.277317e+02
2.160000e-06	1.755521e-06	2.066098e-09	1.281418e+01	1.327074e+02
2.170000e-06	1.809359e-06	2.133245e-09	1.320716e+01	1.375051e+02
2.180000e-06	1.863011e-06	2.196056e-09	1.359878e+01	1.421235e+02
2.190000e-06	1.916515e-06	2.257121e-09	1.398933e+01	1.465624e+02
2.200000e-06	1.969853e-06	2.318250e-09	1.437866e+01	1.508222e+02
2.210000e-06	2.023013e-06	2.378099e-09	1.476669e+01	1.549045e+02
2.220000e-06	2.075996e-06	2.432299e-09	1.515344e+01	1.588113e+02
2.230000e-06	2.128798e-06	2.481370e-09	1.553886e+01	1.625459e+02
2.240000e-06	2.181439e-06	2.530934e-09	1.592310e+01	1.661121e+02
2.250000e-06	2.233953e-06	2.578129e-09	1.630642e+01	1.695144e+02
2.260000e-06	2.286373e-06	2.621191e-09	1.668905e+01	1.727579e+02
2.270000e-06	2.338689e-06	2.662877e-09	1.707093e+01	1.758485e+02
2.280000e-06	2.390793e-06	2.703725e-09	1.745125e+01	1.787923e+02
2.290000e-06	2.442742e-06	2.743173e-09	1.783044e+01	1.815962e+02
2.300000e-06	2.494517e-06	2.779787e-09	1.820837e+01	1.842670e+02
2.310000e-06	2.546009e-06	2.813413e-09	1.858423e+01	1.868123e+02
2.320000e-06	2.597370e-06	2.845786e-09	1.895913e+01	1.892397e+02
2.330000e-06	2.648528e-06	2.877663e-09	1.933255e+01	1.915568e+02
2.340000e-06	2.699411e-06	2.909854e-09	1.970397e+01	1.937715e+02
2.350000e-06	2.750054e-06	2.939557e-09	2.007362e+01	1.958916e+02
2.360000e-06	2.800300e-06	2.968789e-09	2.044039e+01	1.979250e+02
2.370000e-06	2.850214e-06	2.999449e-09	2.080473e+01	1.998793e+02
2.380000e-06	2.899839e-06	3.030534e-09	2.116696e+01	2.017619e+02
2.390000e-06	2.949115e-06	3.059784e-09	2.152664e+01	2.035801e+02
2.400000e-06	2.998088e-06	3.086741e-09	2.188411e+01	2.053409e+02
2.410000e-06	3.046762e-06	3.112992e-09	2.223940e+01	2.070508e+02
2.420000e-06	3.095140e-06	3.138078e-09	2.259253e+01	2.087160e+02
2.430000e-06	3.143314e-06	3.162800e-09	2.294417e+01	2.103423e+02
2.440000e-06	3.191379e-06	3.185876e-09	2.329501e+01	2.119350e+02
2.450000e-06	3.239314e-06	3.211451e-09	2.364491e+01	2.134990e+02
2.460000e-06	3.286999e-06	3.232974e-09	2.399298e+01	2.150386e+02
2.470000e-06	3.334464e-06	3.252527e-09	2.433944e+01	2.165576e+02
2.480000e-06	3.381791e-06	3.275872e-09	2.468490e+01	2.180592e+02
2.490000e-06	3.428783e-06	3.298793e-09	2.502791e+01	2.195463e+02
2.500000e-06	3.475552e-06	3.321472e-09	2.536929e+01	2.210210e+02
2.510000e-06	3.522111e-06	3.341705e-09	2.570914e+01	2.224852e+02
2.520000e-06	3.568372e-06	3.360272e-09	2.604682e+01	2.239400e+02
2.530000e-06	3.614390e-06	3.379397e-09	2.638273e+01	2.253862e+02
2.540000e-06	3.660135e-06	3.397642e-09	2.671663e+01	2.268240e+02
2.550000e-06	3.705651e-06	3.414092e-09	2.704887e+01	2.282534e+02
2.560000e-06	3.750907e-06	3.430897e-09	2.737921e+01	2.296738e+02
2.570000e-06	3.795898e-06	3.449571e-09	2.770761e+01	2.310844e+02
2.580000e-06	3.840647e-06	3.468630e-09	2.803425e+01	2.324840e+02
2.590000e-06	3.885144e-06	3.487425e-09	2.835905e+01	2.338711e+02
2.600000e-06	3.929407e-06	3.507603e-09	2.868214e+01	2.352441e+02
2.610000e-06	3.973481e-06	3.526542e-09	2.900385e+01	2.366011e+02
2.620000e-06	4.017390e-06	3.543505e-09	2.932436e+01	2.379402e+02
2.630000e-06	4.061147e-06	3.558989e-09	2.964376e+01	2.392591e+02
2.640000e-06	4.104633e-06	3.574811e-09	2.996118e+01	2.405558e+02
2.650000e-06	4.147848e-06	3.588962e-09	3.027663e+01	2.418282e+02
2.660000e-06	4.190704e-06	3.601324e-09	3.058945e+01	2.430741e+02
2.670000e-06	4.233067e-06	3.614318e-09	3.089866e+01	2.442916e+02
2.680000e-06	4.275017e-06	3.629282e-09	3.120487e+01	2.454786e+02
2.690000e-06	4.316388e-06	3.643298e-09	3.150686e+01	2.466335e+02
2.700000e-06	4.357274e-06	3.656008e-09	3.180530e+01	2.477546e+02
2.710000e-06	4.397861e-06	3.671509e-09	3.210156e+01	2.488405e+02
2.720000e-06	4.438127e-06	3.688387e-09	3.239548e+01	2.498902e+02
2.730000e-06	4.478199e-06	3.702371e-09	3.268797e+01	2.509028e+02
2.740000e-06	4.518083e-06	3.712584e-09	3.297910e+01	2.518775e+02
2.750000e-06	4.557738e-06	3.723467e-09	3.326856e+01	2.528141e+02
2.760000e-06	4.597110e-06	3.737359e-09	3.355594e+01	2.537125e+02
2.770000e-06	4.636153e-06	3.752037e-09	3.384093e+01	2.545729e+02
2.780000e-06	4.674869e-06	3.765488e-09	3.412353e+01	2.553958e+02
2.790000e-06	4.713277e-06	3.780193e-09	3.440389e+01	2.561821e+02
2.800000e-06	4.751386e-06	3.794130e-09	3.468206e+01	2.569327e+02
2.810000e-06	4.789147e-06	3.807321e-09	3.495769e+01	2.576491e+02
2.820000e-06	4.826500e-06	3.818083e-09	3.523035e+01	2.583326e+02
2.830000e-06	4.863515e-06	3.825183e-09	3.550053e+01	2.589852e+02
2.840000e-06	4.900221e-06	3.834478e-09	3.576846e+01	2.596088e+02
2.850000e-06	4.936634e-06	3.845191e-09	3.603425e+01	2.602056e+02
2.860000e-06	4.972775e-06	3.856622e-09	3.629806e+01	2.607777e+02
2.870000e-06	5.008718e-06	3.870880e-09	3.656042e+01	2.613277e+02
2.880000e-06	5.044495e-06	3.881582e-09	3.682157e+01	2.618580e+02
2.890000e-06	5.079981e-06	3.891172e-09	3.708059e+01	2.623710e+02
2.900000e-06	5.115035e-06	3.904984e-09	3.733646e+01	2.628695e+02
