# Temperatura_=_20.0
# Concentracion g/m^3_=_9000.0
# C_Vs_to_Am_M_A/Vsm_=_65563218390.804596
# pendiente_HvsI_1/m_=_3716.3
# ordenada_HvsI_A/m_=_1297.0
# frecuencia_Hz_=_135310.58933362568

Tiempo_(s)	Campo_(V.s)	Magnetizacion_(V.s)	Campo_(kA/m)	Magnetizacion_(A/m)
0.000000e+00	-6.507131e-06	-5.025079e-09	-4.761357e+01	-2.770394e+02
1.000000e-08	-6.507293e-06	-5.031976e-09	-4.761475e+01	-2.772714e+02
2.000000e-08	-6.507208e-06	-5.036726e-09	-4.761412e+01	-2.775155e+02
3.000000e-08	-6.506804e-06	-5.039231e-09	-4.761117e+01	-2.777711e+02
4.000000e-08	-6.505902e-06	-5.043621e-09	-4.760457e+01	-2.780374e+02
5.000000e-08	-6.504429e-06	-5.049114e-09	-4.759380e+01	-2.783136e+02
6.000000e-08	-6.502371e-06	-5.050432e-09	-4.757874e+01	-2.785989e+02
7.000000e-08	-6.499628e-06	-5.045519e-09	-4.755866e+01	-2.788922e+02
8.000000e-08	-6.496272e-06	-5.042084e-09	-4.753411e+01	-2.791926e+02
9.000000e-08	-6.492543e-06	-5.050493e-09	-4.750682e+01	-2.794993e+02
1.000000e-07	-6.488427e-06	-5.063713e-09	-4.747670e+01	-2.798111e+02
1.100000e-07	-6.483707e-06	-5.096351e-09	-4.744217e+01	-2.801272e+02
1.200000e-07	-6.478364e-06	-5.131302e-09	-4.740307e+01	-2.804464e+02
1.300000e-07	-6.472531e-06	-5.128296e-09	-4.736039e+01	-2.807679e+02
1.400000e-07	-6.466378e-06	-5.015680e-09	-4.731537e+01	-2.810907e+02
1.500000e-07	-6.459998e-06	-4.965307e-09	-4.726869e+01	-2.814139e+02
1.600000e-07	-6.453164e-06	-5.109240e-09	-4.721868e+01	-2.817365e+02
1.700000e-07	-6.445844e-06	-5.265591e-09	-4.716512e+01	-2.820578e+02
1.800000e-07	-6.438220e-06	-5.125671e-09	-4.710933e+01	-2.823770e+02
1.900000e-07	-6.430264e-06	-4.987839e-09	-4.705112e+01	-2.826931e+02
2.000000e-07	-6.421989e-06	-5.082402e-09	-4.699056e+01	-2.830055e+02
2.100000e-07	-6.413429e-06	-5.276877e-09	-4.692793e+01	-2.833135e+02
2.200000e-07	-6.404293e-06	-5.291390e-09	-4.686108e+01	-2.836164e+02
2.300000e-07	-6.394200e-06	-5.131198e-09	-4.678723e+01	-2.839136e+02
2.400000e-07	-6.383316e-06	-4.917613e-09	-4.670759e+01	-2.842045e+02
2.500000e-07	-6.372059e-06	-4.865849e-09	-4.662522e+01	-2.844885e+02
2.600000e-07	-6.360330e-06	-4.980524e-09	-4.653940e+01	-2.847650e+02
2.700000e-07	-6.347814e-06	-4.886682e-09	-4.644782e+01	-2.850335e+02
2.800000e-07	-6.334719e-06	-4.480316e-09	-4.635200e+01	-2.852936e+02
2.900000e-07	-6.321255e-06	-4.243119e-09	-4.625349e+01	-2.855446e+02
3.000000e-07	-6.307269e-06	-4.393888e-09	-4.615115e+01	-2.857861e+02
3.100000e-07	-6.292750e-06	-4.319934e-09	-4.604491e+01	-2.860176e+02
3.200000e-07	-6.277742e-06	-3.872444e-09	-4.593509e+01	-2.862386e+02
3.300000e-07	-6.262101e-06	-3.689295e-09	-4.582064e+01	-2.864485e+02
3.400000e-07	-6.245757e-06	-3.890269e-09	-4.570105e+01	-2.866467e+02
3.500000e-07	-6.228937e-06	-3.826272e-09	-4.557798e+01	-2.868328e+02
3.600000e-07	-6.211686e-06	-3.656405e-09	-4.545175e+01	-2.870061e+02
3.700000e-07	-6.193990e-06	-3.659579e-09	-4.532227e+01	-2.871660e+02
3.800000e-07	-6.176106e-06	-3.709540e-09	-4.519141e+01	-2.873118e+02
3.900000e-07	-6.157883e-06	-3.674710e-09	-4.505807e+01	-2.874429e+02
4.000000e-07	-6.139040e-06	-3.748794e-09	-4.492019e+01	-2.875586e+02
4.100000e-07	-6.119626e-06	-3.696574e-09	-4.477814e+01	-2.876582e+02
4.200000e-07	-6.099932e-06	-3.541361e-09	-4.463404e+01	-2.877409e+02
4.300000e-07	-6.079998e-06	-3.619502e-09	-4.448817e+01	-2.878059e+02
4.400000e-07	-6.059661e-06	-3.773416e-09	-4.433936e+01	-2.878524e+02
4.500000e-07	-6.039114e-06	-3.629816e-09	-4.418902e+01	-2.878797e+02
4.600000e-07	-6.018266e-06	-3.467615e-09	-4.403647e+01	-2.878870e+02
4.700000e-07	-5.996918e-06	-3.611026e-09	-4.388026e+01	-2.878734e+02
4.800000e-07	-5.975121e-06	-3.760817e-09	-4.372077e+01	-2.878383e+02
4.900000e-07	-5.952806e-06	-3.622545e-09	-4.355749e+01	-2.877807e+02
5.000000e-07	-5.930115e-06	-3.474277e-09	-4.339146e+01	-2.877000e+02
5.100000e-07	-5.907069e-06	-3.578989e-09	-4.322283e+01	-2.875955e+02
5.200000e-07	-5.883588e-06	-3.688657e-09	-4.305101e+01	-2.874666e+02
5.300000e-07	-5.859819e-06	-3.623966e-09	-4.287709e+01	-2.873126e+02
5.400000e-07	-5.835771e-06	-3.538254e-09	-4.270113e+01	-2.871330e+02
5.500000e-07	-5.811329e-06	-3.567340e-09	-4.252229e+01	-2.869274e+02
5.600000e-07	-5.786371e-06	-3.604230e-09	-4.233967e+01	-2.866955e+02
5.700000e-07	-5.760860e-06	-3.629860e-09	-4.215300e+01	-2.864369e+02
5.800000e-07	-5.734684e-06	-3.609527e-09	-4.196147e+01	-2.861515e+02
5.900000e-07	-5.707780e-06	-3.544787e-09	-4.176460e+01	-2.858392e+02
6.000000e-07	-5.680382e-06	-3.540603e-09	-4.156413e+01	-2.855002e+02
6.100000e-07	-5.652668e-06	-3.639285e-09	-4.136134e+01	-2.851345e+02
6.200000e-07	-5.624696e-06	-3.632581e-09	-4.115667e+01	-2.847425e+02
6.300000e-07	-5.596531e-06	-3.534913e-09	-4.095058e+01	-2.843247e+02
6.400000e-07	-5.568048e-06	-3.527944e-09	-4.074217e+01	-2.838815e+02
6.500000e-07	-5.539085e-06	-3.614560e-09	-4.053024e+01	-2.834137e+02
6.600000e-07	-5.509705e-06	-3.619881e-09	-4.031526e+01	-2.829220e+02
6.700000e-07	-5.479971e-06	-3.553478e-09	-4.009769e+01	-2.824074e+02
6.800000e-07	-5.449892e-06	-3.523838e-09	-3.987760e+01	-2.818710e+02
6.900000e-07	-5.419435e-06	-3.570370e-09	-3.965475e+01	-2.813138e+02
7.000000e-07	-5.388557e-06	-3.597240e-09	-3.942880e+01	-2.807371e+02
7.100000e-07	-5.357287e-06	-3.555875e-09	-3.920000e+01	-2.801421e+02
7.200000e-07	-5.325685e-06	-3.518652e-09	-3.896876e+01	-2.795305e+02
7.300000e-07	-5.293808e-06	-3.541094e-09	-3.873551e+01	-2.789034e+02
7.400000e-07	-5.261764e-06	-3.562315e-09	-3.850105e+01	-2.782626e+02
7.500000e-07	-5.229518e-06	-3.545079e-09	-3.826510e+01	-2.776095e+02
7.600000e-07	-5.196816e-06	-3.522233e-09	-3.802581e+01	-2.769456e+02
7.700000e-07	-5.163573e-06	-3.508871e-09	-3.778257e+01	-2.762726e+02
7.800000e-07	-5.129785e-06	-3.517508e-09	-3.753533e+01	-2.755920e+02
7.900000e-07	-5.095403e-06	-3.529133e-09	-3.728376e+01	-2.749052e+02
8.000000e-07	-5.060483e-06	-3.507284e-09	-3.702825e+01	-2.742138e+02
8.100000e-07	-5.025110e-06	-3.471896e-09	-3.676941e+01	-2.735191e+02
8.200000e-07	-4.989459e-06	-3.488874e-09	-3.650855e+01	-2.728224e+02
8.300000e-07	-4.953590e-06	-3.515470e-09	-3.624610e+01	-2.721248e+02
8.400000e-07	-4.917441e-06	-3.494948e-09	-3.598158e+01	-2.714275e+02
8.500000e-07	-4.881041e-06	-3.460520e-09	-3.571524e+01	-2.707315e+02
8.600000e-07	-4.844264e-06	-3.471371e-09	-3.544614e+01	-2.700374e+02
8.700000e-07	-4.807113e-06	-3.488524e-09	-3.517430e+01	-2.693459e+02
8.800000e-07	-4.769723e-06	-3.475376e-09	-3.490071e+01	-2.686575e+02
8.900000e-07	-4.732068e-06	-3.445394e-09	-3.462519e+01	-2.679724e+02
9.000000e-07	-4.694098e-06	-3.442697e-09	-3.434736e+01	-2.672908e+02
9.100000e-07	-4.655744e-06	-3.457092e-09	-3.406671e+01	-2.666125e+02
9.200000e-07	-4.617032e-06	-3.458829e-09	-3.378345e+01	-2.659374e+02
9.300000e-07	-4.578011e-06	-3.436367e-09	-3.349793e+01	-2.652648e+02
9.400000e-07	-4.538667e-06	-3.422815e-09	-3.321005e+01	-2.645941e+02
9.500000e-07	-4.498990e-06	-3.428365e-09	-3.291972e+01	-2.639245e+02
9.600000e-07	-4.459116e-06	-3.432291e-09	-3.262796e+01	-2.632550e+02
9.700000e-07	-4.419053e-06	-3.411592e-09	-3.233482e+01	-2.625843e+02
9.800000e-07	-4.378667e-06	-3.382627e-09	-3.203930e+01	-2.619111e+02
9.900000e-07	-4.337990e-06	-3.373718e-09	-3.174166e+01	-2.612339e+02
1.000000e-06	-4.296921e-06	-3.384770e-09	-3.144115e+01	-2.605511e+02
1.010000e-06	-4.255454e-06	-3.384504e-09	-3.113774e+01	-2.598609e+02
1.020000e-06	-4.213601e-06	-3.360513e-09	-3.083149e+01	-2.591615e+02
1.030000e-06	-4.171163e-06	-3.345837e-09	-3.052097e+01	-2.584510e+02
1.040000e-06	-4.128224e-06	-3.354413e-09	-3.020678e+01	-2.577275e+02
1.050000e-06	-4.084991e-06	-3.356288e-09	-2.989043e+01	-2.569889e+02
1.060000e-06	-4.041504e-06	-3.329895e-09	-2.957224e+01	-2.562333e+02
1.070000e-06	-3.997759e-06	-3.305395e-09	-2.925215e+01	-2.554586e+02
1.080000e-06	-3.953773e-06	-3.304140e-09	-2.893029e+01	-2.546630e+02
1.090000e-06	-3.909591e-06	-3.308637e-09	-2.860701e+01	-2.538447e+02
1.100000e-06	-3.865271e-06	-3.294876e-09	-2.828271e+01	-2.530017e+02
1.110000e-06	-3.820787e-06	-3.274363e-09	-2.795722e+01	-2.521325e+02
1.120000e-06	-3.775979e-06	-3.265264e-09	-2.762936e+01	-2.512354e+02
1.130000e-06	-3.730837e-06	-3.266919e-09	-2.729904e+01	-2.503092e+02
1.140000e-06	-3.685338e-06	-3.260465e-09	-2.696612e+01	-2.493525e+02
1.150000e-06	-3.639581e-06	-3.242999e-09	-2.663131e+01	-2.483644e+02
1.160000e-06	-3.593612e-06	-3.222384e-09	-2.629495e+01	-2.473439e+02
1.170000e-06	-3.547326e-06	-3.212734e-09	-2.595626e+01	-2.462905e+02
1.180000e-06	-3.500815e-06	-3.206741e-09	-2.561594e+01	-2.452037e+02
1.190000e-06	-3.454105e-06	-3.192442e-09	-2.527416e+01	-2.440832e+02
1.200000e-06	-3.407163e-06	-3.174209e-09	-2.493067e+01	-2.429290e+02
1.210000e-06	-3.359983e-06	-3.165933e-09	-2.458545e+01	-2.417415e+02
1.220000e-06	-3.312616e-06	-3.164937e-09	-2.423886e+01	-2.405209e+02
1.230000e-06	-3.265038e-06	-3.157727e-09	-2.389073e+01	-2.392680e+02
1.240000e-06	-3.217211e-06	-3.139100e-09	-2.354077e+01	-2.379836e+02
1.250000e-06	-3.169165e-06	-3.121134e-09	-2.318921e+01	-2.366686e+02
1.260000e-06	-3.120856e-06	-3.109980e-09	-2.283573e+01	-2.353243e+02
1.270000e-06	-3.072336e-06	-3.095671e-09	-2.248070e+01	-2.339520e+02
1.280000e-06	-3.023663e-06	-3.072421e-09	-2.212456e+01	-2.325530e+02
1.290000e-06	-2.974738e-06	-3.049297e-09	-2.176656e+01	-2.311290e+02
1.300000e-06	-2.925618e-06	-3.031783e-09	-2.140714e+01	-2.296814e+02
1.310000e-06	-2.876221e-06	-3.017202e-09	-2.104570e+01	-2.282120e+02
1.320000e-06	-2.826401e-06	-3.003189e-09	-2.068116e+01	-2.267223e+02
1.330000e-06	-2.776205e-06	-2.987908e-09	-2.031387e+01	-2.252139e+02
1.340000e-06	-2.725709e-06	-2.970027e-09	-1.994438e+01	-2.236884e+02
1.350000e-06	-2.674853e-06	-2.951512e-09	-1.957227e+01	-2.221472e+02
1.360000e-06	-2.623646e-06	-2.933410e-09	-1.919757e+01	-2.205915e+02
1.370000e-06	-2.572178e-06	-2.912574e-09	-1.882098e+01	-2.190224e+02
1.380000e-06	-2.520444e-06	-2.890722e-09	-1.844244e+01	-2.174409e+02
1.390000e-06	-2.468617e-06	-2.869091e-09	-1.806320e+01	-2.158476e+02
1.400000e-06	-2.416751e-06	-2.848198e-09	-1.768369e+01	-2.142428e+02
1.410000e-06	-2.364701e-06	-2.827116e-09	-1.730284e+01	-2.126267e+02
1.420000e-06	-2.312527e-06	-2.811388e-09	-1.692108e+01	-2.109989e+02
1.430000e-06	-2.260183e-06	-2.794965e-09	-1.653807e+01	-2.093587e+02
1.440000e-06	-2.207550e-06	-2.771312e-09	-1.615294e+01	-2.077053e+02
1.450000e-06	-2.154808e-06	-2.746284e-09	-1.576702e+01	-2.060371e+02
1.460000e-06	-2.101976e-06	-2.724948e-09	-1.538045e+01	-2.043522e+02
1.470000e-06	-2.048930e-06	-2.702049e-09	-1.499230e+01	-2.026485e+02
1.480000e-06	-1.995677e-06	-2.676290e-09	-1.460264e+01	-2.009231e+02
1.490000e-06	-1.942339e-06	-2.649695e-09	-1.421236e+01	-1.991729e+02
1.500000e-06	-1.888881e-06	-2.624072e-09	-1.382120e+01	-1.973942e+02
1.510000e-06	-1.835236e-06	-2.602297e-09	-1.342867e+01	-1.955830e+02
1.520000e-06	-1.781479e-06	-2.578166e-09	-1.303533e+01	-1.937349e+02
1.530000e-06	-1.727692e-06	-2.544649e-09	-1.264176e+01	-1.918449e+02
1.540000e-06	-1.673812e-06	-2.507064e-09	-1.224751e+01	-1.899078e+02
1.550000e-06	-1.619756e-06	-2.472130e-09	-1.185197e+01	-1.879179e+02
1.560000e-06	-1.565553e-06	-2.439887e-09	-1.145537e+01	-1.858694e+02
1.570000e-06	-1.511222e-06	-2.407431e-09	-1.105781e+01	-1.837560e+02
1.580000e-06	-1.456814e-06	-2.374078e-09	-1.065971e+01	-1.815712e+02
1.590000e-06	-1.402370e-06	-2.343787e-09	-1.026133e+01	-1.793083e+02
1.600000e-06	-1.347872e-06	-2.313628e-09	-9.862562e+00	-1.769606e+02
1.610000e-06	-1.293235e-06	-2.274005e-09	-9.462774e+00	-1.745210e+02
1.620000e-06	-1.238453e-06	-2.230775e-09	-9.061932e+00	-1.719827e+02
1.630000e-06	-1.183629e-06	-2.195584e-09	-8.660778e+00	-1.693387e+02
1.640000e-06	-1.128690e-06	-2.164336e-09	-8.258781e+00	-1.665820e+02
1.650000e-06	-1.073557e-06	-2.128057e-09	-7.855361e+00	-1.637059e+02
1.660000e-06	-1.018405e-06	-2.084862e-09	-7.451806e+00	-1.607040e+02
1.670000e-06	-9.633084e-07	-2.041217e-09	-7.048659e+00	-1.575698e+02
1.680000e-06	-9.080184e-07	-1.998146e-09	-6.644094e+00	-1.542975e+02
1.690000e-06	-8.526439e-07	-1.953608e-09	-6.238911e+00	-1.508814e+02
1.700000e-06	-7.973466e-07	-1.906246e-09	-5.834293e+00	-1.473165e+02
1.710000e-06	-7.420287e-07	-1.857178e-09	-5.429525e+00	-1.435981e+02
1.720000e-06	-6.866407e-07	-1.805674e-09	-5.024243e+00	-1.397222e+02
1.730000e-06	-6.311777e-07	-1.751858e-09	-4.618413e+00	-1.356853e+02
1.740000e-06	-5.756691e-07	-1.694304e-09	-4.212249e+00	-1.314846e+02
1.750000e-06	-5.201113e-07	-1.634222e-09	-3.805726e+00	-1.271181e+02
1.760000e-06	-4.645702e-07	-1.574811e-09	-3.399323e+00	-1.225844e+02
1.770000e-06	-4.090165e-07	-1.517573e-09	-2.992829e+00	-1.178830e+02
1.780000e-06	-3.533781e-07	-1.459478e-09	-2.585716e+00	-1.130143e+02
1.790000e-06	-2.977040e-07	-1.396009e-09	-2.178341e+00	-1.079793e+02
1.800000e-06	-2.420477e-07	-1.327842e-09	-1.771096e+00	-1.027799e+02
1.810000e-06	-1.864092e-07	-1.255637e-09	-1.363981e+00	-9.741910e+01
1.820000e-06	-1.307897e-07	-1.181206e-09	-9.570059e-01	-9.190055e+01
1.830000e-06	-7.517082e-08	-1.101639e-09	-5.500352e-01	-8.622883e+01
1.840000e-06	-1.956461e-08	-1.019130e-09	-1.431569e-01	-8.040939e+01
1.850000e-06	3.602749e-08	-9.323157e-10	2.636180e-01	-7.444853e+01
1.860000e-06	9.161748e-08	-8.454761e-10	6.703776e-01	-6.835336e+01
1.870000e-06	1.471832e-07	-7.610185e-10	1.076960e+00	-6.213177e+01
1.880000e-06	2.027698e-07	-6.746194e-10	1.483694e+00	-5.579242e+01
1.890000e-06	2.583536e-07	-5.841195e-10	1.890408e+00	-4.934470e+01
1.900000e-06	3.139557e-07	-4.899680e-10	2.297257e+00	-4.279862e+01
1.910000e-06	3.695652e-07	-3.941766e-10	2.704159e+00	-3.616484e+01
1.920000e-06	4.251577e-07	-2.943775e-10	3.110937e+00	-2.945456e+01
1.930000e-06	4.807487e-07	-1.893424e-10	3.517703e+00	-2.267946e+01
1.940000e-06	5.362251e-07	-8.127713e-11	3.923632e+00	-1.585165e+01
1.950000e-06	5.916713e-07	2.454899e-11	4.329340e+00	-8.983571e+00
1.960000e-06	6.471568e-07	1.293449e-10	4.735335e+00	-2.087956e+00
1.970000e-06	7.025653e-07	2.332774e-10	5.140766e+00	4.822275e+00
1.980000e-06	7.578906e-07	3.362239e-10	5.545589e+00	1.173408e+01
1.990000e-06	8.131458e-07	4.398761e-10	5.949898e+00	1.863440e+01
2.000000e-06	8.682977e-07	5.440702e-10	6.353453e+00	2.551018e+01
2.010000e-06	9.233561e-07	6.494476e-10	6.756322e+00	3.234853e+01
2.020000e-06	9.783551e-07	7.544321e-10	7.158758e+00	3.913673e+01
2.030000e-06	1.033310e-06	8.567536e-10	7.560871e+00	4.586237e+01
2.040000e-06	1.088239e-06	9.585698e-10	7.962796e+00	5.251337e+01
2.050000e-06	1.143184e-06	1.060083e-09	8.364831e+00	5.907809e+01
2.060000e-06	1.198065e-06	1.156554e-09	8.766405e+00	6.554539e+01
2.070000e-06	1.252759e-06	1.247135e-09	9.166612e+00	7.190467e+01
2.080000e-06	1.307412e-06	1.335807e-09	9.566511e+00	7.814599e+01
2.090000e-06	1.362089e-06	1.423183e-09	9.966591e+00	8.426006e+01
2.100000e-06	1.416620e-06	1.507665e-09	1.036560e+01	9.023831e+01
2.110000e-06	1.471021e-06	1.588307e-09	1.076366e+01	9.607295e+01
2.120000e-06	1.525279e-06	1.665990e-09	1.116067e+01	1.017570e+02
2.130000e-06	1.579373e-06	1.742977e-09	1.155648e+01	1.072843e+02
2.140000e-06	1.633324e-06	1.817627e-09	1.195125e+01	1.126497e+02
2.150000e-06	1.687240e-06	1.887002e-09	1.234577e+01	1.178486e+02
2.160000e-06	1.741066e-06	1.953097e-09	1.273961e+01	1.228775e+02
2.170000e-06	1.794766e-06	2.016936e-09	1.313254e+01	1.277340e+02
2.180000e-06	1.848323e-06	2.077419e-09	1.352443e+01	1.324161e+02
2.190000e-06	1.901677e-06	2.134833e-09	1.391483e+01	1.369230e+02
2.200000e-06	1.954991e-06	2.189413e-09	1.430494e+01	1.412549e+02
2.210000e-06	2.008244e-06	2.243230e-09	1.469459e+01	1.454123e+02
2.220000e-06	2.061305e-06	2.292925e-09	1.508285e+01	1.493972e+02
2.230000e-06	2.114216e-06	2.337541e-09	1.547001e+01	1.532117e+02
2.240000e-06	2.166926e-06	2.381050e-09	1.585570e+01	1.568591e+02
2.250000e-06	2.219384e-06	2.425678e-09	1.623953e+01	1.603432e+02
2.260000e-06	2.271773e-06	2.467092e-09	1.662287e+01	1.636685e+02
2.270000e-06	2.324012e-06	2.505911e-09	1.700511e+01	1.668399e+02
2.280000e-06	2.376009e-06	2.543381e-09	1.738558e+01	1.698631e+02
2.290000e-06	2.427844e-06	2.579129e-09	1.776486e+01	1.727440e+02
2.300000e-06	2.479493e-06	2.611184e-09	1.814279e+01	1.754890e+02
2.310000e-06	2.530925e-06	2.635673e-09	1.851913e+01	1.781050e+02
2.320000e-06	2.582152e-06	2.661739e-09	1.889396e+01	1.805988e+02
2.330000e-06	2.633162e-06	2.690222e-09	1.926720e+01	1.829777e+02
2.340000e-06	2.683812e-06	2.718496e-09	1.963782e+01	1.852490e+02
2.350000e-06	2.734082e-06	2.745691e-09	2.000565e+01	1.874202e+02
2.360000e-06	2.784036e-06	2.774782e-09	2.037117e+01	1.894987e+02
2.370000e-06	2.833741e-06	2.802469e-09	2.073487e+01	1.914918e+02
2.380000e-06	2.883181e-06	2.827985e-09	2.109663e+01	1.934069e+02
2.390000e-06	2.932332e-06	2.851684e-09	2.145627e+01	1.952509e+02
2.400000e-06	2.981215e-06	2.872232e-09	2.181395e+01	1.970308e+02
2.410000e-06	3.029764e-06	2.890593e-09	2.216920e+01	1.987532e+02
2.420000e-06	3.078004e-06	2.908505e-09	2.252218e+01	2.004244e+02
2.430000e-06	3.126126e-06	2.928069e-09	2.287429e+01	2.020503e+02
2.440000e-06	3.174154e-06	2.948461e-09	2.322571e+01	2.036365e+02
2.450000e-06	3.221913e-06	2.968677e-09	2.357518e+01	2.051882e+02
2.460000e-06	3.269530e-06	2.989287e-09	2.392360e+01	2.067101e+02
2.470000e-06	3.317016e-06	3.010455e-09	2.427106e+01	2.082064e+02
2.480000e-06	3.364219e-06	3.028274e-09	2.461645e+01	2.096809e+02
2.490000e-06	3.411205e-06	3.042557e-09	2.496025e+01	2.111371e+02
2.500000e-06	3.457966e-06	3.056299e-09	2.530241e+01	2.125776e+02
2.510000e-06	3.504353e-06	3.070208e-09	2.564183e+01	2.140050e+02
2.520000e-06	3.550466e-06	3.082611e-09	2.597924e+01	2.154210e+02
2.530000e-06	3.596334e-06	3.097097e-09	2.631487e+01	2.168271e+02
2.540000e-06	3.641923e-06	3.112641e-09	2.664845e+01	2.182243e+02
2.550000e-06	3.687274e-06	3.127369e-09	2.698029e+01	2.196133e+02
2.560000e-06	3.732400e-06	3.141830e-09	2.731048e+01	2.209941e+02
2.570000e-06	3.777387e-06	3.158329e-09	2.763966e+01	2.223666e+02
2.580000e-06	3.822102e-06	3.174804e-09	2.796684e+01	2.237302e+02
2.590000e-06	3.866499e-06	3.189686e-09	2.829170e+01	2.250843e+02
2.600000e-06	3.910698e-06	3.201836e-09	2.861511e+01	2.264275e+02
2.610000e-06	3.954686e-06	3.214161e-09	2.893698e+01	2.277587e+02
2.620000e-06	3.998521e-06	3.227739e-09	2.925772e+01	2.290763e+02
2.630000e-06	4.042248e-06	3.240434e-09	2.957768e+01	2.303786e+02
2.640000e-06	4.085759e-06	3.251678e-09	2.989606e+01	2.316638e+02
2.650000e-06	4.128846e-06	3.262556e-09	3.021133e+01	2.329301e+02
2.660000e-06	4.171558e-06	3.274117e-09	3.052386e+01	2.341756e+02
2.670000e-06	4.213904e-06	3.287448e-09	3.083371e+01	2.353984e+02
2.680000e-06	4.255747e-06	3.299303e-09	3.113988e+01	2.365965e+02
2.690000e-06	4.297086e-06	3.311224e-09	3.144237e+01	2.377683e+02
2.700000e-06	4.337991e-06	3.320603e-09	3.174167e+01	2.389119e+02
2.710000e-06	4.378554e-06	3.328604e-09	3.203847e+01	2.400259e+02
2.720000e-06	4.418791e-06	3.336786e-09	3.233290e+01	2.411087e+02
2.730000e-06	4.458799e-06	3.342454e-09	3.262564e+01	2.421593e+02
2.740000e-06	4.498628e-06	3.351307e-09	3.291707e+01	2.431765e+02
2.750000e-06	4.538263e-06	3.362097e-09	3.320709e+01	2.441596e+02
2.760000e-06	4.577649e-06	3.370788e-09	3.349528e+01	2.451078e+02
2.770000e-06	4.616676e-06	3.380205e-09	3.378085e+01	2.460210e+02
2.780000e-06	4.655377e-06	3.390320e-09	3.406403e+01	2.468989e+02
2.790000e-06	4.693718e-06	3.397672e-09	3.434457e+01	2.477418e+02
2.800000e-06	4.731681e-06	3.403117e-09	3.462236e+01	2.485499e+02
2.810000e-06	4.769380e-06	3.408074e-09	3.489820e+01	2.493239e+02
2.820000e-06	4.806802e-06	3.413184e-09	3.517203e+01	2.500647e+02
2.830000e-06	4.843852e-06	3.418428e-09	3.544313e+01	2.507734e+02
2.840000e-06	4.880526e-06	3.424869e-09	3.571147e+01	2.514512e+02
2.850000e-06	4.916928e-06	3.430999e-09	3.597783e+01	2.520995e+02
2.860000e-06	4.953105e-06	3.439359e-09	3.624255e+01	2.527201e+02
2.870000e-06	4.989023e-06	3.449895e-09	3.650536e+01	2.533147e+02
2.880000e-06	5.024740e-06	3.458141e-09	3.676671e+01	2.538852e+02
2.890000e-06	5.060220e-06	3.461494e-09	3.702632e+01	2.544337e+02
2.900000e-06	5.095303e-06	3.466174e-09	3.728302e+01	2.549623e+02
