# Temperatura_=_20.0
# Concentracion g/m^3_=_9000.0
# C_Vs_to_Am_M_A/Vsm_=_65563218390.804596
# pendiente_HvsI_1/m_=_3716.3
# ordenada_HvsI_A/m_=_1297.0
# frecuencia_Hz_=_135310.84026461266

Tiempo_(s)	Campo_(V.s)	Magnetizacion_(V.s)	Campo_(kA/m)	Magnetizacion_(A/m)
0.000000e+00	-6.551229e-06	3.485392e-10	-4.762793e+01	-4.053088e-01
1.000000e-08	-6.551398e-06	3.526581e-10	-4.762916e+01	-4.044751e-01
2.000000e-08	-6.551225e-06	3.550260e-10	-4.762790e+01	-4.035759e-01
3.000000e-08	-6.550653e-06	3.523960e-10	-4.762375e+01	-4.026344e-01
4.000000e-08	-6.549371e-06	3.574454e-10	-4.761442e+01	-4.016759e-01
5.000000e-08	-6.547405e-06	3.607931e-10	-4.760013e+01	-4.007277e-01
6.000000e-08	-6.544790e-06	3.571829e-10	-4.758112e+01	-3.998186e-01
7.000000e-08	-6.541593e-06	3.527068e-10	-4.755788e+01	-3.989781e-01
8.000000e-08	-6.538008e-06	3.745482e-10	-4.753181e+01	-3.982361e-01
9.000000e-08	-6.533975e-06	3.712011e-10	-4.750250e+01	-3.976224e-01
1.000000e-07	-6.529480e-06	3.081663e-10	-4.746982e+01	-3.971662e-01
1.100000e-07	-6.524383e-06	2.900027e-10	-4.743276e+01	-3.968954e-01
1.200000e-07	-6.518659e-06	4.275686e-10	-4.739115e+01	-3.968366e-01
1.300000e-07	-6.512518e-06	4.775444e-10	-4.734650e+01	-3.970141e-01
1.400000e-07	-6.506143e-06	2.472864e-10	-4.730015e+01	-3.974498e-01
1.500000e-07	-6.499404e-06	8.015305e-11	-4.725116e+01	-3.981626e-01
1.600000e-07	-6.492209e-06	3.836930e-10	-4.719885e+01	-3.991685e-01
1.700000e-07	-6.484636e-06	5.932953e-10	-4.714380e+01	-4.004798e-01
1.800000e-07	-6.476755e-06	2.933467e-10	-4.708650e+01	-4.021051e-01
1.900000e-07	-6.468578e-06	1.406764e-10	-4.702705e+01	-4.040491e-01
2.000000e-07	-6.459967e-06	1.987672e-10	-4.696445e+01	-4.063125e-01
2.100000e-07	-6.450829e-06	4.194704e-10	-4.689801e+01	-4.088918e-01
2.200000e-07	-6.441019e-06	4.318234e-10	-4.682670e+01	-4.117797e-01
2.300000e-07	-6.430424e-06	4.160803e-10	-4.674967e+01	-4.149646e-01
2.400000e-07	-6.419192e-06	8.196638e-11	-4.666801e+01	-4.184310e-01
2.500000e-07	-6.407545e-06	5.242665e-11	-4.658333e+01	-4.221599e-01
2.600000e-07	-6.395351e-06	4.082561e-10	-4.649469e+01	-4.261286e-01
2.700000e-07	-6.382517e-06	4.602115e-10	-4.640138e+01	-4.303115e-01
2.800000e-07	-6.369150e-06	-1.580688e-10	-4.630420e+01	-4.346798e-01
2.900000e-07	-6.355401e-06	-3.586392e-10	-4.620425e+01	-4.392027e-01
3.000000e-07	-6.341092e-06	1.565758e-10	-4.610022e+01	-4.438469e-01
3.100000e-07	-6.326157e-06	1.421769e-10	-4.599164e+01	-4.485782e-01
3.200000e-07	-6.310702e-06	-4.596198e-10	-4.587928e+01	-4.533608e-01
3.300000e-07	-6.294580e-06	-4.077728e-10	-4.576207e+01	-4.581586e-01
3.400000e-07	-6.277933e-06	-5.274882e-11	-4.564105e+01	-4.629357e-01
3.500000e-07	-6.260942e-06	-2.889305e-10	-4.551752e+01	-4.676565e-01
3.600000e-07	-6.243644e-06	-3.151232e-10	-4.539177e+01	-4.722867e-01
3.700000e-07	-6.225919e-06	-1.896008e-10	-4.526290e+01	-4.767934e-01
3.800000e-07	-6.207764e-06	-3.617999e-10	-4.513091e+01	-4.811461e-01
3.900000e-07	-6.189245e-06	-4.322683e-10	-4.499628e+01	-4.853168e-01
4.000000e-07	-6.170167e-06	-4.404176e-11	-4.485758e+01	-4.892805e-01
4.100000e-07	-6.150557e-06	-2.878520e-10	-4.471502e+01	-4.930160e-01
4.200000e-07	-6.130697e-06	-6.296074e-10	-4.457063e+01	-4.965057e-01
4.300000e-07	-6.110554e-06	-3.463157e-10	-4.442419e+01	-4.997364e-01
4.400000e-07	-6.089955e-06	-4.794456e-11	-4.427444e+01	-5.026993e-01
4.500000e-07	-6.068901e-06	-4.401914e-10	-4.412137e+01	-5.053903e-01
4.600000e-07	-6.047559e-06	-5.903092e-10	-4.396622e+01	-5.078101e-01
4.700000e-07	-6.025917e-06	-2.652975e-10	-4.380887e+01	-5.099645e-01
4.800000e-07	-6.003847e-06	-1.114462e-10	-4.364842e+01	-5.118642e-01
4.900000e-07	-5.981339e-06	-4.157256e-10	-4.348479e+01	-5.135246e-01
5.000000e-07	-5.958512e-06	-4.724342e-10	-4.331883e+01	-5.149661e-01
5.100000e-07	-5.935282e-06	-2.847391e-10	-4.314995e+01	-5.162136e-01
5.200000e-07	-5.911627e-06	-2.579715e-10	-4.297798e+01	-5.172962e-01
5.300000e-07	-5.887695e-06	-3.819011e-10	-4.280399e+01	-5.182471e-01
5.400000e-07	-5.863365e-06	-3.598262e-10	-4.262710e+01	-5.191032e-01
5.500000e-07	-5.838443e-06	-3.424436e-10	-4.244592e+01	-5.199043e-01
5.600000e-07	-5.812885e-06	-3.841142e-10	-4.226011e+01	-5.206931e-01
5.700000e-07	-5.786620e-06	-3.043880e-10	-4.206917e+01	-5.215143e-01
5.800000e-07	-5.759637e-06	-2.770385e-10	-4.187300e+01	-5.224142e-01
5.900000e-07	-5.732256e-06	-4.049679e-10	-4.167394e+01	-5.234400e-01
6.000000e-07	-5.704692e-06	-4.029863e-10	-4.147354e+01	-5.246392e-01
6.100000e-07	-5.676894e-06	-2.339776e-10	-4.127145e+01	-5.260590e-01
6.200000e-07	-5.648761e-06	-2.841624e-10	-4.106692e+01	-5.277456e-01
6.300000e-07	-5.620258e-06	-4.101640e-10	-4.085970e+01	-5.297435e-01
6.400000e-07	-5.591364e-06	-3.788863e-10	-4.064964e+01	-5.320948e-01
6.500000e-07	-5.562121e-06	-2.567746e-10	-4.043704e+01	-5.348388e-01
6.600000e-07	-5.532535e-06	-2.962089e-10	-4.022195e+01	-5.380113e-01
6.700000e-07	-5.502475e-06	-3.617026e-10	-4.000341e+01	-5.416439e-01
6.800000e-07	-5.472034e-06	-3.652390e-10	-3.978210e+01	-5.457636e-01
6.900000e-07	-5.441258e-06	-2.755108e-10	-3.955836e+01	-5.503923e-01
7.000000e-07	-5.410105e-06	-2.835763e-10	-3.933187e+01	-5.555464e-01
7.100000e-07	-5.378682e-06	-3.316900e-10	-3.910343e+01	-5.612366e-01
7.200000e-07	-5.347015e-06	-3.478617e-10	-3.887321e+01	-5.674672e-01
7.300000e-07	-5.315067e-06	-2.989367e-10	-3.864094e+01	-5.742366e-01
7.400000e-07	-5.282810e-06	-3.024699e-10	-3.840643e+01	-5.815363e-01
7.500000e-07	-5.250107e-06	-2.991918e-10	-3.816868e+01	-5.893516e-01
7.600000e-07	-5.216791e-06	-3.169428e-10	-3.792646e+01	-5.976615e-01
7.700000e-07	-5.182972e-06	-3.332345e-10	-3.768060e+01	-6.064385e-01
7.800000e-07	-5.148548e-06	-3.101286e-10	-3.743033e+01	-6.156490e-01
7.900000e-07	-5.113492e-06	-2.619459e-10	-3.717548e+01	-6.252538e-01
8.000000e-07	-5.078086e-06	-3.053967e-10	-3.691807e+01	-6.352082e-01
8.100000e-07	-5.042450e-06	-3.526268e-10	-3.665899e+01	-6.454628e-01
8.200000e-07	-5.006602e-06	-3.049106e-10	-3.639837e+01	-6.559635e-01
8.300000e-07	-4.970417e-06	-2.575700e-10	-3.613531e+01	-6.666526e-01
8.400000e-07	-4.933938e-06	-2.968176e-10	-3.587010e+01	-6.774693e-01
8.500000e-07	-4.897085e-06	-3.340240e-10	-3.560218e+01	-6.883504e-01
8.600000e-07	-4.859862e-06	-2.995847e-10	-3.533157e+01	-6.992310e-01
8.700000e-07	-4.822400e-06	-2.735923e-10	-3.505921e+01	-7.100455e-01
8.800000e-07	-4.784681e-06	-2.841984e-10	-3.478499e+01	-7.207281e-01
8.900000e-07	-4.746596e-06	-3.115938e-10	-3.450811e+01	-7.312142e-01
9.000000e-07	-4.708045e-06	-3.016212e-10	-3.422784e+01	-7.414406e-01
9.100000e-07	-4.669178e-06	-2.837249e-10	-3.394527e+01	-7.513468e-01
9.200000e-07	-4.630060e-06	-2.684495e-10	-3.366089e+01	-7.608757e-01
9.300000e-07	-4.590738e-06	-2.857360e-10	-3.337502e+01	-7.699744e-01
9.400000e-07	-4.551189e-06	-2.871909e-10	-3.308749e+01	-7.785951e-01
9.500000e-07	-4.511315e-06	-2.824630e-10	-3.279760e+01	-7.866957e-01
9.600000e-07	-4.471163e-06	-2.591375e-10	-3.250570e+01	-7.942404e-01
9.700000e-07	-4.430766e-06	-2.630077e-10	-3.221200e+01	-8.012007e-01
9.800000e-07	-4.389972e-06	-2.779448e-10	-3.191543e+01	-8.075555e-01
9.900000e-07	-4.348714e-06	-2.853923e-10	-3.161548e+01	-8.132917e-01
1.000000e-06	-4.306928e-06	-2.555231e-10	-3.131169e+01	-8.184047e-01
1.010000e-06	-4.264679e-06	-2.452759e-10	-3.100454e+01	-8.228987e-01
1.020000e-06	-4.222079e-06	-2.591796e-10	-3.069483e+01	-8.267864e-01
1.030000e-06	-4.179088e-06	-2.651808e-10	-3.038228e+01	-8.300897e-01
1.040000e-06	-4.135769e-06	-2.443618e-10	-3.006735e+01	-8.328393e-01
1.050000e-06	-4.092214e-06	-2.410422e-10	-2.975071e+01	-8.350746e-01
1.060000e-06	-4.048485e-06	-2.509447e-10	-2.943279e+01	-8.368436e-01
1.070000e-06	-4.004599e-06	-2.525449e-10	-2.911374e+01	-8.382020e-01
1.080000e-06	-3.960419e-06	-2.403799e-10	-2.879255e+01	-8.392135e-01
1.090000e-06	-3.915872e-06	-2.326329e-10	-2.846869e+01	-8.399486e-01
1.100000e-06	-3.871039e-06	-2.328471e-10	-2.814275e+01	-8.404841e-01
1.110000e-06	-3.825947e-06	-2.303034e-10	-2.781492e+01	-8.409024e-01
1.120000e-06	-3.780632e-06	-2.271936e-10	-2.748548e+01	-8.412904e-01
1.130000e-06	-3.735061e-06	-2.206119e-10	-2.715418e+01	-8.417390e-01
1.140000e-06	-3.689191e-06	-2.183838e-10	-2.682070e+01	-8.423415e-01
1.150000e-06	-3.643127e-06	-2.164161e-10	-2.648581e+01	-8.431929e-01
1.160000e-06	-3.596813e-06	-2.191614e-10	-2.614910e+01	-8.443887e-01
1.170000e-06	-3.550150e-06	-2.125546e-10	-2.580986e+01	-8.460236e-01
1.180000e-06	-3.503300e-06	-2.109677e-10	-2.546926e+01	-8.481906e-01
1.190000e-06	-3.456230e-06	-2.106365e-10	-2.512705e+01	-8.509795e-01
1.200000e-06	-3.408925e-06	-2.124931e-10	-2.478314e+01	-8.544757e-01
1.210000e-06	-3.361368e-06	-2.028448e-10	-2.443740e+01	-8.587593e-01
1.220000e-06	-3.313580e-06	-1.974477e-10	-2.408998e+01	-8.639037e-01
1.230000e-06	-3.265647e-06	-1.951240e-10	-2.374150e+01	-8.699746e-01
1.240000e-06	-3.217466e-06	-2.007223e-10	-2.339122e+01	-8.770289e-01
1.250000e-06	-3.169059e-06	-1.989926e-10	-2.303930e+01	-8.851136e-01
1.260000e-06	-3.120372e-06	-1.957243e-10	-2.268534e+01	-8.942651e-01
1.270000e-06	-3.071346e-06	-1.974579e-10	-2.232892e+01	-9.045083e-01
1.280000e-06	-3.021896e-06	-2.057203e-10	-2.196941e+01	-9.158559e-01
1.290000e-06	-2.972046e-06	-2.065308e-10	-2.160700e+01	-9.283076e-01
1.300000e-06	-2.922018e-06	-2.044636e-10	-2.124329e+01	-9.418499e-01
1.310000e-06	-2.871703e-06	-2.034626e-10	-2.087750e+01	-9.564557e-01
1.320000e-06	-2.820976e-06	-2.027200e-10	-2.050871e+01	-9.720839e-01
1.330000e-06	-2.769907e-06	-2.027823e-10	-2.013743e+01	-9.886795e-01
1.340000e-06	-2.718667e-06	-2.037246e-10	-1.976491e+01	-1.006174e+00
1.350000e-06	-2.667248e-06	-1.999893e-10	-1.939110e+01	-1.024484e+00
1.360000e-06	-2.615678e-06	-1.964048e-10	-1.901617e+01	-1.043514e+00
1.370000e-06	-2.563893e-06	-1.962476e-10	-1.863970e+01	-1.063155e+00
1.380000e-06	-2.511852e-06	-1.975353e-10	-1.826135e+01	-1.083287e+00
1.390000e-06	-2.459649e-06	-1.958478e-10	-1.788184e+01	-1.103776e+00
1.400000e-06	-2.407180e-06	-1.913362e-10	-1.750038e+01	-1.124480e+00
1.410000e-06	-2.354550e-06	-1.900719e-10	-1.711776e+01	-1.145247e+00
1.420000e-06	-2.301710e-06	-1.865522e-10	-1.673360e+01	-1.165916e+00
1.430000e-06	-2.248682e-06	-1.856364e-10	-1.634809e+01	-1.186319e+00
1.440000e-06	-2.195614e-06	-1.839244e-10	-1.596228e+01	-1.206282e+00
1.450000e-06	-2.142423e-06	-1.823149e-10	-1.557558e+01	-1.225627e+00
1.460000e-06	-2.089093e-06	-1.787615e-10	-1.518787e+01	-1.244175e+00
1.470000e-06	-2.035660e-06	-1.763010e-10	-1.479940e+01	-1.261742e+00
1.480000e-06	-1.982071e-06	-1.714319e-10	-1.440981e+01	-1.278147e+00
1.490000e-06	-1.928347e-06	-1.682777e-10	-1.401923e+01	-1.293211e+00
1.500000e-06	-1.874524e-06	-1.705750e-10	-1.362793e+01	-1.306756e+00
1.510000e-06	-1.820584e-06	-1.717925e-10	-1.323578e+01	-1.318612e+00
1.520000e-06	-1.766478e-06	-1.685023e-10	-1.284243e+01	-1.328615e+00
1.530000e-06	-1.712199e-06	-1.660353e-10	-1.244782e+01	-1.336609e+00
1.540000e-06	-1.657825e-06	-1.674512e-10	-1.205252e+01	-1.342446e+00
1.550000e-06	-1.603327e-06	-1.698061e-10	-1.165631e+01	-1.345993e+00
1.560000e-06	-1.548664e-06	-1.669199e-10	-1.125891e+01	-1.347126e+00
1.570000e-06	-1.493952e-06	-1.631888e-10	-1.086114e+01	-1.345737e+00
1.580000e-06	-1.439148e-06	-1.588328e-10	-1.046271e+01	-1.341732e+00
1.590000e-06	-1.384248e-06	-1.513584e-10	-1.006359e+01	-1.335034e+00
1.600000e-06	-1.329241e-06	-1.467998e-10	-9.663684e+00	-1.325581e+00
1.610000e-06	-1.274052e-06	-1.498526e-10	-9.262453e+00	-1.313329e+00
1.620000e-06	-1.218777e-06	-1.514824e-10	-8.860604e+00	-1.298254e+00
1.630000e-06	-1.163428e-06	-1.481901e-10	-8.458210e+00	-1.280349e+00
1.640000e-06	-1.108014e-06	-1.428318e-10	-8.055346e+00	-1.259625e+00
1.650000e-06	-1.052584e-06	-1.394019e-10	-7.652367e+00	-1.236113e+00
1.660000e-06	-9.971565e-07	-1.360562e-10	-7.249403e+00	-1.209863e+00
1.670000e-06	-9.416381e-07	-1.331124e-10	-6.845781e+00	-1.180944e+00
1.680000e-06	-8.860450e-07	-1.315936e-10	-6.441614e+00	-1.149441e+00
1.690000e-06	-8.305157e-07	-1.293977e-10	-6.037912e+00	-1.115458e+00
1.700000e-06	-7.750151e-07	-1.276345e-10	-5.634419e+00	-1.079117e+00
1.710000e-06	-7.194667e-07	-1.279604e-10	-5.230577e+00	-1.040554e+00
1.720000e-06	-6.638235e-07	-1.275597e-10	-4.826047e+00	-9.999202e-01
1.730000e-06	-6.081188e-07	-1.258118e-10	-4.421070e+00	-9.573817e-01
1.740000e-06	-5.524100e-07	-1.249167e-10	-4.016063e+00	-9.131162e-01
1.750000e-06	-4.966585e-07	-1.246778e-10	-3.610745e+00	-8.673128e-01
1.760000e-06	-4.409097e-07	-1.232056e-10	-3.205447e+00	-8.201701e-01
1.770000e-06	-3.851870e-07	-1.184636e-10	-2.800338e+00	-7.718946e-01
1.780000e-06	-3.294580e-07	-1.141706e-10	-2.395185e+00	-7.226996e-01
1.790000e-06	-2.737344e-07	-1.101125e-10	-1.990070e+00	-6.728027e-01
1.800000e-06	-2.179652e-07	-1.062345e-10	-1.584624e+00	-6.224247e-01
1.810000e-06	-1.621458e-07	-1.035844e-10	-1.178813e+00	-5.717874e-01
1.820000e-06	-1.063198e-07	-1.019106e-10	-7.729529e-01	-5.211122e-01
1.830000e-06	-5.052903e-08	-1.011746e-10	-3.673499e-01	-4.706182e-01
1.840000e-06	5.219160e-09	-1.005474e-10	3.794369e-02	-4.205206e-01
1.850000e-06	6.101262e-08	-9.931039e-11	4.435664e-01	-3.710287e-01
1.860000e-06	1.168079e-07	-9.858511e-11	8.492026e-01	-3.223447e-01
1.870000e-06	1.725509e-07	-9.687672e-11	1.254458e+00	-2.746622e-01
1.880000e-06	2.283121e-07	-9.553121e-11	1.659846e+00	-2.281643e-01
1.890000e-06	2.840917e-07	-9.344132e-11	2.065368e+00	-1.830227e-01
1.900000e-06	3.398460e-07	-9.018875e-11	2.470706e+00	-1.393963e-01
1.910000e-06	3.955569e-07	-8.788174e-11	2.875729e+00	-9.743023e-02
1.920000e-06	4.513095e-07	-8.740637e-11	3.281054e+00	-5.725482e-02
1.930000e-06	5.070530e-07	-8.715000e-11	3.686314e+00	-1.898480e-02
1.940000e-06	5.626890e-07	-8.655629e-11	4.090792e+00	1.728132e-02
1.950000e-06	6.183256e-07	-8.708462e-11	4.495274e+00	5.146179e-02
1.960000e-06	6.739997e-07	-8.494756e-11	4.900029e+00	8.349189e-02
1.970000e-06	7.296529e-07	-7.926394e-11	5.304632e+00	1.133242e-01
1.980000e-06	7.852744e-07	-7.720471e-11	5.709005e+00	1.409285e-01
1.990000e-06	8.408103e-07	-7.777398e-11	6.112754e+00	1.662917e-01
2.000000e-06	8.963071e-07	-7.638491e-11	6.516220e+00	1.894176e-01
2.010000e-06	9.518165e-07	-7.543447e-11	6.919778e+00	2.103264e-01
2.020000e-06	1.007254e-06	-7.663519e-11	7.322809e+00	2.290538e-01
2.030000e-06	1.062654e-06	-7.684518e-11	7.725573e+00	2.456509e-01
2.040000e-06	1.118073e-06	-7.658420e-11	8.128472e+00	2.601828e-01
2.050000e-06	1.173385e-06	-7.651951e-11	8.530601e+00	2.727278e-01
2.060000e-06	1.228572e-06	-7.247651e-11	8.931813e+00	2.833763e-01
2.070000e-06	1.283724e-06	-6.884241e-11	9.332769e+00	2.922298e-01
2.080000e-06	1.338723e-06	-6.685060e-11	9.732619e+00	2.993992e-01
2.090000e-06	1.393543e-06	-6.684847e-11	1.013116e+01	3.050039e-01
2.100000e-06	1.448261e-06	-6.631876e-11	1.052897e+01	3.091704e-01
2.110000e-06	1.502934e-06	-6.249331e-11	1.092644e+01	3.120305e-01
2.120000e-06	1.557471e-06	-5.940573e-11	1.132293e+01	3.137202e-01
2.130000e-06	1.611780e-06	-5.986080e-11	1.171776e+01	3.143783e-01
2.140000e-06	1.666024e-06	-5.912674e-11	1.211212e+01	3.141446e-01
2.150000e-06	1.720208e-06	-5.590004e-11	1.250605e+01	3.131587e-01
2.160000e-06	1.774197e-06	-5.225072e-11	1.289855e+01	3.115589e-01
2.170000e-06	1.828141e-06	-4.996508e-11	1.329073e+01	3.094803e-01
2.180000e-06	1.882056e-06	-4.705900e-11	1.368269e+01	3.070538e-01
2.190000e-06	1.935826e-06	-4.382345e-11	1.407360e+01	3.044052e-01
2.200000e-06	1.989443e-06	-4.056407e-11	1.446340e+01	3.016534e-01
2.210000e-06	2.042919e-06	-3.801572e-11	1.485218e+01	2.989101e-01
2.220000e-06	2.096339e-06	-3.454019e-11	1.524054e+01	2.962785e-01
2.230000e-06	2.149576e-06	-2.996153e-11	1.562758e+01	2.938525e-01
2.240000e-06	2.202666e-06	-2.590703e-11	1.601355e+01	2.917163e-01
2.250000e-06	2.255643e-06	-2.140781e-11	1.639870e+01	2.899435e-01
2.260000e-06	2.308343e-06	-1.837434e-11	1.678183e+01	2.885970e-01
2.270000e-06	2.360834e-06	-1.689791e-11	1.716344e+01	2.877283e-01
2.280000e-06	2.413123e-06	-1.462597e-11	1.754358e+01	2.873777e-01
2.290000e-06	2.465193e-06	-1.192178e-11	1.792214e+01	2.875744e-01
2.300000e-06	2.517061e-06	-7.638521e-12	1.829922e+01	2.883360e-01
2.310000e-06	2.568783e-06	-2.663357e-12	1.867525e+01	2.896692e-01
2.320000e-06	2.620385e-06	-7.903209e-14	1.905040e+01	2.915700e-01
2.330000e-06	2.671815e-06	4.156413e-12	1.942430e+01	2.940241e-01
2.340000e-06	2.723077e-06	7.773251e-12	1.979697e+01	2.970076e-01
2.350000e-06	2.773967e-06	9.271879e-12	2.016695e+01	3.004876e-01
2.360000e-06	2.824463e-06	1.058198e-11	2.053406e+01	3.044225e-01
2.370000e-06	2.874603e-06	1.357721e-11	2.089858e+01	3.087638e-01
2.380000e-06	2.924456e-06	1.516848e-11	2.126102e+01	3.134559e-01
2.390000e-06	2.973992e-06	1.631999e-11	2.162114e+01	3.184377e-01
2.400000e-06	3.023055e-06	1.717709e-11	2.197784e+01	3.236436e-01
2.410000e-06	3.071733e-06	2.013815e-11	2.233173e+01	3.290039e-01
2.420000e-06	3.120168e-06	2.574092e-11	2.268385e+01	3.344466e-01
2.430000e-06	3.168402e-06	2.943662e-11	2.303452e+01	3.398980e-01
2.440000e-06	3.216453e-06	3.002513e-11	2.338385e+01	3.452837e-01
2.450000e-06	3.264346e-06	3.258340e-11	2.373204e+01	3.505299e-01
2.460000e-06	3.312120e-06	3.899501e-11	2.407937e+01	3.555640e-01
2.470000e-06	3.359741e-06	4.252902e-11	2.442557e+01	3.603160e-01
2.480000e-06	3.407150e-06	4.270742e-11	2.477024e+01	3.647190e-01
2.490000e-06	3.454420e-06	4.755354e-11	2.511389e+01	3.687101e-01
2.500000e-06	3.501402e-06	5.246165e-11	2.545546e+01	3.722315e-01
2.510000e-06	3.548024e-06	5.447125e-11	2.579440e+01	3.752307e-01
2.520000e-06	3.594348e-06	5.891910e-11	2.613118e+01	3.776615e-01
2.530000e-06	3.640442e-06	6.141231e-11	2.646629e+01	3.794841e-01
2.540000e-06	3.686311e-06	6.253006e-11	2.679976e+01	3.806661e-01
2.550000e-06	3.731907e-06	6.412953e-11	2.713125e+01	3.811824e-01
2.560000e-06	3.777327e-06	6.529769e-11	2.746146e+01	3.810153e-01
2.570000e-06	3.822615e-06	6.519597e-11	2.779070e+01	3.801552e-01
2.580000e-06	3.867627e-06	6.528157e-11	2.811794e+01	3.786001e-01
2.590000e-06	3.912274e-06	6.614585e-11	2.844253e+01	3.763556e-01
2.600000e-06	3.956563e-06	6.757232e-11	2.876451e+01	3.734352e-01
2.610000e-06	4.000578e-06	7.008532e-11	2.908450e+01	3.698593e-01
2.620000e-06	4.044463e-06	7.354328e-11	2.940355e+01	3.656556e-01
2.630000e-06	4.088260e-06	7.502974e-11	2.972196e+01	3.608581e-01
2.640000e-06	4.131954e-06	7.636541e-11	3.003962e+01	3.555070e-01
2.650000e-06	4.175435e-06	7.944603e-11	3.035573e+01	3.496479e-01
2.660000e-06	4.218597e-06	8.072650e-11	3.066952e+01	3.433313e-01
2.670000e-06	4.261269e-06	8.073993e-11	3.097975e+01	3.366118e-01
2.680000e-06	4.303371e-06	8.221782e-11	3.128583e+01	3.295478e-01
2.690000e-06	4.344966e-06	8.549263e-11	3.158823e+01	3.222000e-01
2.700000e-06	4.386028e-06	8.692095e-11	3.188676e+01	3.146314e-01
2.710000e-06	4.426597e-06	8.692954e-11	3.218169e+01	3.069062e-01
2.720000e-06	4.466774e-06	8.853980e-11	3.247378e+01	2.990889e-01
2.730000e-06	4.506696e-06	9.174368e-11	3.276402e+01	2.912439e-01
2.740000e-06	4.546493e-06	9.410057e-11	3.305335e+01	2.834344e-01
2.750000e-06	4.586127e-06	9.733343e-11	3.334149e+01	2.757219e-01
2.760000e-06	4.625515e-06	1.002897e-10	3.362785e+01	2.681653e-01
2.770000e-06	4.664581e-06	1.009420e-10	3.391185e+01	2.608207e-01
2.780000e-06	4.703326e-06	1.048880e-10	3.419354e+01	2.537403e-01
2.790000e-06	4.741751e-06	1.072625e-10	3.447289e+01	2.469721e-01
2.800000e-06	4.779853e-06	1.083030e-10	3.474989e+01	2.405595e-01
2.810000e-06	4.817715e-06	1.120667e-10	3.502515e+01	2.345409e-01
2.820000e-06	4.855228e-06	1.172297e-10	3.529788e+01	2.289492e-01
2.830000e-06	4.892336e-06	1.208483e-10	3.556765e+01	2.238117e-01
2.840000e-06	4.929069e-06	1.245524e-10	3.583471e+01	2.191500e-01
2.850000e-06	4.965395e-06	1.296542e-10	3.609880e+01	2.149796e-01
2.860000e-06	5.001402e-06	1.312617e-10	3.636057e+01	2.113102e-01
2.870000e-06	5.037227e-06	1.309710e-10	3.662102e+01	2.081457e-01
2.880000e-06	5.072878e-06	1.336030e-10	3.688020e+01	2.054842e-01
2.890000e-06	5.108385e-06	1.375922e-10	3.713834e+01	2.033182e-01
2.900000e-06	5.143647e-06	1.394714e-10	3.739470e+01	2.016352e-01
