# Temperatura_=_20.0
# Concentracion g/m^3_=_9000.0
# C_Vs_to_Am_M_A/Vsm_=_65563218390.804596
# pendiente_HvsI_1/m_=_3716.3
# ordenada_HvsI_A/m_=_1297.0
# frecuencia_Hz_=_135309.8349104133

Tiempo_(s)	Campo_(V.s)	Magnetizacion_(V.s)	Campo_(kA/m)	Magnetizacion_(A/m)
0.000000e+00	-6.503224e-06	-4.758748e-09	-4.762542e+01	-2.885838e+02
1.000000e-08	-6.503198e-06	-4.763301e-09	-4.762523e+01	-2.885714e+02
2.000000e-08	-6.502889e-06	-4.764805e-09	-4.762297e+01	-2.885350e+02
3.000000e-08	-6.502189e-06	-4.765284e-09	-4.761784e+01	-2.884730e+02
4.000000e-08	-6.500902e-06	-4.769334e-09	-4.760841e+01	-2.883841e+02
5.000000e-08	-6.498757e-06	-4.773417e-09	-4.759271e+01	-2.882672e+02
6.000000e-08	-6.495965e-06	-4.769278e-09	-4.757226e+01	-2.881215e+02
7.000000e-08	-6.492753e-06	-4.767071e-09	-4.754874e+01	-2.879462e+02
8.000000e-08	-6.489060e-06	-4.779252e-09	-4.752169e+01	-2.877410e+02
9.000000e-08	-6.484955e-06	-4.782092e-09	-4.749163e+01	-2.875055e+02
1.000000e-07	-6.480215e-06	-4.755929e-09	-4.745692e+01	-2.872399e+02
1.100000e-07	-6.474810e-06	-4.741800e-09	-4.741733e+01	-2.869446e+02
1.200000e-07	-6.469026e-06	-4.782961e-09	-4.737498e+01	-2.866200e+02
1.300000e-07	-6.462994e-06	-4.771518e-09	-4.733080e+01	-2.862672e+02
1.400000e-07	-6.456594e-06	-4.667740e-09	-4.728393e+01	-2.858871e+02
1.500000e-07	-6.449697e-06	-4.639553e-09	-4.723342e+01	-2.854811e+02
1.600000e-07	-6.442329e-06	-4.783885e-09	-4.717946e+01	-2.850509e+02
1.700000e-07	-6.434639e-06	-4.820049e-09	-4.712314e+01	-2.845982e+02
1.800000e-07	-6.426611e-06	-4.651259e-09	-4.706435e+01	-2.841251e+02
1.900000e-07	-6.418245e-06	-4.613558e-09	-4.700309e+01	-2.836337e+02
2.000000e-07	-6.409698e-06	-4.705666e-09	-4.694049e+01	-2.831264e+02
2.100000e-07	-6.400633e-06	-4.805035e-09	-4.687411e+01	-2.826057e+02
2.200000e-07	-6.390617e-06	-4.795985e-09	-4.680076e+01	-2.820742e+02
2.300000e-07	-6.379896e-06	-4.704997e-09	-4.672224e+01	-2.815345e+02
2.400000e-07	-6.368712e-06	-4.514416e-09	-4.664034e+01	-2.809894e+02
2.500000e-07	-6.356961e-06	-4.549593e-09	-4.655428e+01	-2.804416e+02
2.600000e-07	-6.344624e-06	-4.754004e-09	-4.646393e+01	-2.798938e+02
2.700000e-07	-6.331777e-06	-4.595356e-09	-4.636985e+01	-2.793487e+02
2.800000e-07	-6.318457e-06	-4.132384e-09	-4.627230e+01	-2.788089e+02
2.900000e-07	-6.304603e-06	-4.108185e-09	-4.617085e+01	-2.782770e+02
3.000000e-07	-6.290182e-06	-4.437628e-09	-4.606524e+01	-2.777553e+02
3.100000e-07	-6.275282e-06	-4.272580e-09	-4.595612e+01	-2.772460e+02
3.200000e-07	-6.259802e-06	-3.858400e-09	-4.584275e+01	-2.767511e+02
3.300000e-07	-6.243567e-06	-3.936215e-09	-4.572386e+01	-2.762725e+02
3.400000e-07	-6.226879e-06	-4.118459e-09	-4.560165e+01	-2.758118e+02
3.500000e-07	-6.209794e-06	-3.966071e-09	-4.547652e+01	-2.753703e+02
3.600000e-07	-6.192247e-06	-3.908380e-09	-4.534802e+01	-2.749491e+02
3.700000e-07	-6.174379e-06	-3.957778e-09	-4.521717e+01	-2.745490e+02
3.800000e-07	-6.156175e-06	-3.880705e-09	-4.508386e+01	-2.741705e+02
3.900000e-07	-6.137494e-06	-3.867191e-09	-4.494705e+01	-2.738139e+02
4.000000e-07	-6.118277e-06	-3.986228e-09	-4.480631e+01	-2.734791e+02
4.100000e-07	-6.098663e-06	-3.845996e-09	-4.466267e+01	-2.731657e+02
4.200000e-07	-6.078759e-06	-3.715678e-09	-4.451691e+01	-2.728731e+02
4.300000e-07	-6.058554e-06	-3.869316e-09	-4.436895e+01	-2.726004e+02
4.400000e-07	-6.037958e-06	-3.958267e-09	-4.421811e+01	-2.723464e+02
4.500000e-07	-6.017031e-06	-3.768581e-09	-4.406485e+01	-2.721096e+02
4.600000e-07	-5.995701e-06	-3.724241e-09	-4.390865e+01	-2.718883e+02
4.700000e-07	-5.973989e-06	-3.900126e-09	-4.374964e+01	-2.716807e+02
4.800000e-07	-5.951947e-06	-3.941659e-09	-4.358822e+01	-2.714846e+02
4.900000e-07	-5.929502e-06	-3.783344e-09	-4.342385e+01	-2.712978e+02
5.000000e-07	-5.906551e-06	-3.748902e-09	-4.325577e+01	-2.711179e+02
5.100000e-07	-5.883198e-06	-3.848564e-09	-4.308475e+01	-2.709424e+02
5.200000e-07	-5.859524e-06	-3.858778e-09	-4.291138e+01	-2.707686e+02
5.300000e-07	-5.835424e-06	-3.788602e-09	-4.273488e+01	-2.705939e+02
5.400000e-07	-5.811022e-06	-3.779484e-09	-4.255618e+01	-2.704157e+02
5.500000e-07	-5.786249e-06	-3.791265e-09	-4.237475e+01	-2.702313e+02
5.600000e-07	-5.760768e-06	-3.773281e-09	-4.218815e+01	-2.700380e+02
5.700000e-07	-5.734568e-06	-3.798689e-09	-4.199628e+01	-2.698333e+02
5.800000e-07	-5.707798e-06	-3.803306e-09	-4.180024e+01	-2.696147e+02
5.900000e-07	-5.680524e-06	-3.745619e-09	-4.160049e+01	-2.693800e+02
6.000000e-07	-5.652923e-06	-3.744315e-09	-4.139836e+01	-2.691271e+02
6.100000e-07	-5.625140e-06	-3.813127e-09	-4.119490e+01	-2.688538e+02
6.200000e-07	-5.597123e-06	-3.785249e-09	-4.098972e+01	-2.685584e+02
6.300000e-07	-5.568745e-06	-3.720077e-09	-4.078190e+01	-2.682395e+02
6.400000e-07	-5.539955e-06	-3.739343e-09	-4.057106e+01	-2.678957e+02
6.500000e-07	-5.510737e-06	-3.786333e-09	-4.035708e+01	-2.675258e+02
6.600000e-07	-5.481173e-06	-3.750815e-09	-4.014058e+01	-2.671292e+02
6.700000e-07	-5.451251e-06	-3.711038e-09	-3.992145e+01	-2.667053e+02
6.800000e-07	-5.420894e-06	-3.725851e-09	-3.969913e+01	-2.662539e+02
6.900000e-07	-5.390148e-06	-3.754656e-09	-3.947397e+01	-2.657749e+02
7.000000e-07	-5.358953e-06	-3.732157e-09	-3.924551e+01	-2.652686e+02
7.100000e-07	-5.327414e-06	-3.702118e-09	-3.901454e+01	-2.647355e+02
7.200000e-07	-5.295707e-06	-3.705893e-09	-3.878234e+01	-2.641765e+02
7.300000e-07	-5.263767e-06	-3.721152e-09	-3.854844e+01	-2.635926e+02
7.400000e-07	-5.231477e-06	-3.703982e-09	-3.831196e+01	-2.629849e+02
7.500000e-07	-5.198839e-06	-3.686486e-09	-3.807294e+01	-2.623549e+02
7.600000e-07	-5.165793e-06	-3.677386e-09	-3.783094e+01	-2.617043e+02
7.700000e-07	-5.132166e-06	-3.667183e-09	-3.758468e+01	-2.610346e+02
7.800000e-07	-5.097927e-06	-3.669421e-09	-3.733393e+01	-2.603479e+02
7.900000e-07	-5.063153e-06	-3.672372e-09	-3.707927e+01	-2.596460e+02
8.000000e-07	-5.027960e-06	-3.640776e-09	-3.682154e+01	-2.589309e+02
8.100000e-07	-4.992423e-06	-3.618025e-09	-3.656129e+01	-2.582048e+02
8.200000e-07	-4.956594e-06	-3.643826e-09	-3.629890e+01	-2.574697e+02
8.300000e-07	-4.920553e-06	-3.651597e-09	-3.603496e+01	-2.567275e+02
8.400000e-07	-4.884283e-06	-3.611346e-09	-3.576934e+01	-2.559803e+02
8.500000e-07	-4.847650e-06	-3.586438e-09	-3.550106e+01	-2.552298e+02
8.600000e-07	-4.810600e-06	-3.603820e-09	-3.522973e+01	-2.544780e+02
8.700000e-07	-4.773174e-06	-3.607856e-09	-3.495565e+01	-2.537262e+02
8.800000e-07	-4.735395e-06	-3.584441e-09	-3.467898e+01	-2.529761e+02
8.900000e-07	-4.697342e-06	-3.560829e-09	-3.440030e+01	-2.522288e+02
9.000000e-07	-4.659110e-06	-3.560995e-09	-3.412032e+01	-2.514853e+02
9.100000e-07	-4.620538e-06	-3.564797e-09	-3.383784e+01	-2.507465e+02
9.200000e-07	-4.581585e-06	-3.555970e-09	-3.355257e+01	-2.500128e+02
9.300000e-07	-4.542352e-06	-3.534253e-09	-3.326526e+01	-2.492847e+02
9.400000e-07	-4.502834e-06	-3.520400e-09	-3.297585e+01	-2.485621e+02
9.500000e-07	-4.463040e-06	-3.515583e-09	-3.268442e+01	-2.478449e+02
9.600000e-07	-4.422993e-06	-3.512909e-09	-3.239115e+01	-2.471324e+02
9.700000e-07	-4.382744e-06	-3.490993e-09	-3.209639e+01	-2.464241e+02
9.800000e-07	-4.342228e-06	-3.463185e-09	-3.179968e+01	-2.457188e+02
9.900000e-07	-4.301228e-06	-3.453278e-09	-3.149942e+01	-2.450153e+02
1.000000e-06	-4.259723e-06	-3.461201e-09	-3.119546e+01	-2.443122e+02
1.010000e-06	-4.217864e-06	-3.453472e-09	-3.088892e+01	-2.436077e+02
1.020000e-06	-4.175613e-06	-3.430309e-09	-3.057950e+01	-2.429001e+02
1.030000e-06	-4.133000e-06	-3.415834e-09	-3.026742e+01	-2.421871e+02
1.040000e-06	-4.090021e-06	-3.413398e-09	-2.995268e+01	-2.414668e+02
1.050000e-06	-4.046668e-06	-3.399493e-09	-2.963518e+01	-2.407368e+02
1.060000e-06	-4.002975e-06	-3.379420e-09	-2.931521e+01	-2.399947e+02
1.070000e-06	-3.959001e-06	-3.366615e-09	-2.899317e+01	-2.392381e+02
1.080000e-06	-3.914881e-06	-3.360889e-09	-2.867006e+01	-2.384646e+02
1.090000e-06	-3.870513e-06	-3.353116e-09	-2.834514e+01	-2.376717e+02
1.100000e-06	-3.825872e-06	-3.337061e-09	-2.801822e+01	-2.368570e+02
1.110000e-06	-3.780993e-06	-3.323331e-09	-2.768955e+01	-2.360183e+02
1.120000e-06	-3.735804e-06	-3.311474e-09	-2.735862e+01	-2.351534e+02
1.130000e-06	-3.690366e-06	-3.299993e-09	-2.702586e+01	-2.342601e+02
1.140000e-06	-3.644689e-06	-3.285019e-09	-2.669135e+01	-2.333366e+02
1.150000e-06	-3.598778e-06	-3.270277e-09	-2.635513e+01	-2.323812e+02
1.160000e-06	-3.552697e-06	-3.255748e-09	-2.601766e+01	-2.313925e+02
1.170000e-06	-3.506433e-06	-3.245491e-09	-2.567886e+01	-2.303690e+02
1.180000e-06	-3.459897e-06	-3.230635e-09	-2.533806e+01	-2.293099e+02
1.190000e-06	-3.412980e-06	-3.211421e-09	-2.499447e+01	-2.282145e+02
1.200000e-06	-3.365828e-06	-3.191924e-09	-2.464916e+01	-2.270821e+02
1.210000e-06	-3.318509e-06	-3.179181e-09	-2.430262e+01	-2.259127e+02
1.220000e-06	-3.270956e-06	-3.163773e-09	-2.395437e+01	-2.247063e+02
1.230000e-06	-3.223252e-06	-3.144466e-09	-2.360502e+01	-2.234633e+02
1.240000e-06	-3.175297e-06	-3.125479e-09	-2.325383e+01	-2.221842e+02
1.250000e-06	-3.127176e-06	-3.112195e-09	-2.290142e+01	-2.208701e+02
1.260000e-06	-3.078938e-06	-3.097790e-09	-2.254816e+01	-2.195220e+02
1.270000e-06	-3.030438e-06	-3.075885e-09	-2.219297e+01	-2.181412e+02
1.280000e-06	-2.981721e-06	-3.050276e-09	-2.183620e+01	-2.167292e+02
1.290000e-06	-2.932648e-06	-3.031439e-09	-2.147682e+01	-2.152878e+02
1.300000e-06	-2.883126e-06	-3.015684e-09	-2.111415e+01	-2.138188e+02
1.310000e-06	-2.833333e-06	-2.995843e-09	-2.074950e+01	-2.123240e+02
1.320000e-06	-2.783305e-06	-2.974804e-09	-2.038313e+01	-2.108054e+02
1.330000e-06	-2.732928e-06	-2.955820e-09	-2.001421e+01	-2.092651e+02
1.340000e-06	-2.682194e-06	-2.938099e-09	-1.964266e+01	-2.077050e+02
1.350000e-06	-2.631274e-06	-2.919468e-09	-1.926976e+01	-2.061270e+02
1.360000e-06	-2.580074e-06	-2.898481e-09	-1.889480e+01	-2.045328e+02
1.370000e-06	-2.528543e-06	-2.876801e-09	-1.851742e+01	-2.029242e+02
1.380000e-06	-2.476834e-06	-2.853523e-09	-1.813873e+01	-2.013024e+02
1.390000e-06	-2.424953e-06	-2.829563e-09	-1.775879e+01	-1.996688e+02
1.400000e-06	-2.372970e-06	-2.805840e-09	-1.737810e+01	-1.980241e+02
1.410000e-06	-2.320820e-06	-2.781657e-09	-1.699619e+01	-1.963690e+02
1.420000e-06	-2.268475e-06	-2.761525e-09	-1.661285e+01	-1.947036e+02
1.430000e-06	-2.215962e-06	-2.740550e-09	-1.622828e+01	-1.930277e+02
1.440000e-06	-2.163355e-06	-2.715280e-09	-1.584302e+01	-1.913408e+02
1.450000e-06	-2.110609e-06	-2.688835e-09	-1.545674e+01	-1.896417e+02
1.460000e-06	-2.057657e-06	-2.666901e-09	-1.506895e+01	-1.879289e+02
1.470000e-06	-2.004561e-06	-2.642371e-09	-1.468011e+01	-1.862002e+02
1.480000e-06	-1.951294e-06	-2.616040e-09	-1.429002e+01	-1.844532e+02
1.490000e-06	-1.897872e-06	-2.587700e-09	-1.389879e+01	-1.826848e+02
1.500000e-06	-1.844297e-06	-2.558693e-09	-1.350644e+01	-1.808913e+02
1.510000e-06	-1.790591e-06	-2.530107e-09	-1.311314e+01	-1.790687e+02
1.520000e-06	-1.736771e-06	-2.500853e-09	-1.271899e+01	-1.772123e+02
1.530000e-06	-1.682828e-06	-2.466538e-09	-1.232395e+01	-1.753171e+02
1.540000e-06	-1.628737e-06	-2.429474e-09	-1.192782e+01	-1.733776e+02
1.550000e-06	-1.574544e-06	-2.392810e-09	-1.153094e+01	-1.713878e+02
1.560000e-06	-1.520379e-06	-2.355069e-09	-1.113427e+01	-1.693413e+02
1.570000e-06	-1.466159e-06	-2.319788e-09	-1.073720e+01	-1.672316e+02
1.580000e-06	-1.411776e-06	-2.288993e-09	-1.033894e+01	-1.650515e+02
1.590000e-06	-1.357328e-06	-2.257015e-09	-9.940196e+00	-1.627938e+02
1.600000e-06	-1.302780e-06	-2.216742e-09	-9.540723e+00	-1.604512e+02
1.610000e-06	-1.248033e-06	-2.168658e-09	-9.139786e+00	-1.580161e+02
1.620000e-06	-1.193206e-06	-2.124490e-09	-8.738271e+00	-1.554809e+02
1.630000e-06	-1.138258e-06	-2.085599e-09	-8.335870e+00	-1.528379e+02
1.640000e-06	-1.083202e-06	-2.046661e-09	-7.932673e+00	-1.500797e+02
1.650000e-06	-1.028062e-06	-2.003705e-09	-7.528865e+00	-1.471988e+02
1.660000e-06	-9.728340e-07	-1.958180e-09	-7.124409e+00	-1.441881e+02
1.670000e-06	-9.176185e-07	-1.913855e-09	-6.720046e+00	-1.410407e+02
1.680000e-06	-8.623994e-07	-1.869704e-09	-6.315657e+00	-1.377501e+02
1.690000e-06	-8.070976e-07	-1.822011e-09	-5.910662e+00	-1.343103e+02
1.700000e-06	-7.517501e-07	-1.769233e-09	-5.505333e+00	-1.307156e+02
1.710000e-06	-6.964595e-07	-1.715017e-09	-5.100420e+00	-1.269611e+02
1.720000e-06	-6.411553e-07	-1.656574e-09	-4.695408e+00	-1.230423e+02
1.730000e-06	-5.857502e-07	-1.597198e-09	-4.289657e+00	-1.189558e+02
1.740000e-06	-5.302843e-07	-1.535945e-09	-3.883460e+00	-1.146984e+02
1.750000e-06	-4.748074e-07	-1.473718e-09	-3.477183e+00	-1.102682e+02
1.760000e-06	-4.193210e-07	-1.412717e-09	-3.070837e+00	-1.056639e+02
1.770000e-06	-3.638092e-07	-1.351146e-09	-2.664304e+00	-1.008850e+02
1.780000e-06	-3.082759e-07	-1.286418e-09	-2.257614e+00	-9.593215e+01
1.790000e-06	-2.527110e-07	-1.216934e-09	-1.850693e+00	-9.080682e+01
1.800000e-06	-1.970849e-07	-1.142700e-09	-1.443322e+00	-8.551142e+01
1.810000e-06	-1.414432e-07	-1.064083e-09	-1.035839e+00	-8.004936e+01
1.820000e-06	-8.579949e-08	-9.824399e-10	-6.283401e-01	-7.442498e+01
1.830000e-06	-3.018855e-08	-8.976303e-10	-2.210815e-01	-6.864361e+01
1.840000e-06	2.541186e-08	-8.121695e-10	1.861000e-01	-6.271150e+01
1.850000e-06	8.101954e-08	-7.244777e-10	5.933349e-01	-5.663582e+01
1.860000e-06	1.366189e-07	-6.349346e-10	1.000509e+00	-5.042465e+01
1.870000e-06	1.922183e-07	-5.447301e-10	1.407683e+00	-4.408689e+01
1.880000e-06	2.477711e-07	-4.525511e-10	1.814516e+00	-3.763225e+01
1.890000e-06	3.032657e-07	-3.557824e-10	2.220923e+00	-3.107118e+01
1.900000e-06	3.587823e-07	-2.555494e-10	2.627490e+00	-2.441483e+01
1.910000e-06	4.143154e-07	-1.548395e-10	3.034179e+00	-1.767498e+01
1.920000e-06	4.698610e-07	-5.216625e-11	3.440959e+00	-1.086394e+01
1.930000e-06	5.253478e-07	5.328502e-11	3.847308e+00	-3.994489e+00
1.940000e-06	5.808271e-07	1.603158e-10	4.253603e+00	2.920173e+00
1.950000e-06	6.363237e-07	2.661828e-10	4.660025e+00	9.866557e+00
1.960000e-06	6.917538e-07	3.702215e-10	5.065959e+00	1.683095e+01
1.970000e-06	7.470905e-07	4.751581e-10	5.471209e+00	2.379949e+01
1.980000e-06	8.023178e-07	5.840372e-10	5.875658e+00	3.075830e+01
1.990000e-06	8.574691e-07	6.933278e-10	6.279551e+00	3.769352e+01
2.000000e-06	9.125394e-07	8.017666e-10	6.682850e+00	4.459146e+01
2.010000e-06	9.676503e-07	9.088993e-10	7.086447e+00	5.143861e+01
2.020000e-06	1.022735e-06	1.015281e-09	7.489851e+00	5.822182e+01
2.030000e-06	1.077770e-06	1.121988e-09	7.892890e+00	6.492830e+01
2.040000e-06	1.132679e-06	1.224923e-09	8.295014e+00	7.154577e+01
2.050000e-06	1.187420e-06	1.323500e-09	8.695901e+00	7.806247e+01
2.060000e-06	1.242170e-06	1.419160e-09	9.096852e+00	8.446728e+01
2.070000e-06	1.296921e-06	1.512598e-09	9.497812e+00	9.074978e+01
2.080000e-06	1.351537e-06	1.604214e-09	9.897783e+00	9.690028e+01
2.090000e-06	1.405998e-06	1.690517e-09	1.029662e+01	1.029099e+02
2.100000e-06	1.460262e-06	1.772850e-09	1.069402e+01	1.087706e+02
2.110000e-06	1.514387e-06	1.854671e-09	1.109039e+01	1.144753e+02
2.120000e-06	1.568452e-06	1.935007e-09	1.148633e+01	1.200177e+02
2.130000e-06	1.622423e-06	2.010419e-09	1.188158e+01	1.253926e+02
2.140000e-06	1.676272e-06	2.083294e-09	1.227593e+01	1.305955e+02
2.150000e-06	1.729996e-06	2.154543e-09	1.266938e+01	1.356233e+02
2.160000e-06	1.783592e-06	2.222308e-09	1.306188e+01	1.404735e+02
2.170000e-06	1.837069e-06	2.285407e-09	1.345351e+01	1.451445e+02
2.180000e-06	1.890478e-06	2.344454e-09	1.384464e+01	1.496361e+02
2.190000e-06	1.943739e-06	2.403047e-09	1.423469e+01	1.539485e+02
2.200000e-06	1.996865e-06	2.460355e-09	1.462375e+01	1.580830e+02
2.210000e-06	2.049924e-06	2.512362e-09	1.501232e+01	1.620419e+02
2.220000e-06	2.102854e-06	2.559058e-09	1.539995e+01	1.658281e+02
2.230000e-06	2.155559e-06	2.605797e-09	1.578592e+01	1.694453e+02
2.240000e-06	2.208035e-06	2.653015e-09	1.617022e+01	1.728979e+02
2.250000e-06	2.260333e-06	2.696773e-09	1.655322e+01	1.761909e+02
2.260000e-06	2.312455e-06	2.736348e-09	1.693493e+01	1.793300e+02
2.270000e-06	2.364467e-06	2.777863e-09	1.731583e+01	1.823213e+02
2.280000e-06	2.416383e-06	2.819096e-09	1.769603e+01	1.851715e+02
2.290000e-06	2.468107e-06	2.854818e-09	1.807482e+01	1.878874e+02
2.300000e-06	2.519618e-06	2.887206e-09	1.845206e+01	1.904763e+02
2.310000e-06	2.570882e-06	2.921163e-09	1.882748e+01	1.929457e+02
2.320000e-06	2.621933e-06	2.957474e-09	1.920134e+01	1.953033e+02
2.330000e-06	2.672708e-06	2.990172e-09	1.957319e+01	1.975566e+02
2.340000e-06	2.723147e-06	3.016724e-09	1.994257e+01	1.997136e+02
2.350000e-06	2.773156e-06	3.044635e-09	2.030880e+01	2.017818e+02
2.360000e-06	2.822806e-06	3.075283e-09	2.067241e+01	2.037688e+02
2.370000e-06	2.872221e-06	3.103620e-09	2.103429e+01	2.056820e+02
2.380000e-06	2.921289e-06	3.129620e-09	2.139364e+01	2.075285e+02
2.390000e-06	2.970010e-06	3.155672e-09	2.175044e+01	2.093153e+02
2.400000e-06	3.018538e-06	3.181742e-09	2.210582e+01	2.110487e+02
2.410000e-06	3.066889e-06	3.206962e-09	2.245992e+01	2.127351e+02
2.420000e-06	3.115014e-06	3.229549e-09	2.281235e+01	2.143800e+02
2.430000e-06	3.162937e-06	3.250404e-09	2.316331e+01	2.159888e+02
2.440000e-06	3.210749e-06	3.271231e-09	2.351346e+01	2.175664e+02
2.450000e-06	3.258431e-06	3.292507e-09	2.386264e+01	2.191170e+02
2.460000e-06	3.305865e-06	3.313780e-09	2.421002e+01	2.206445e+02
2.470000e-06	3.353187e-06	3.333867e-09	2.455658e+01	2.221523e+02
2.480000e-06	3.400269e-06	3.353582e-09	2.490138e+01	2.236431e+02
2.490000e-06	3.446883e-06	3.374398e-09	2.524275e+01	2.251192e+02
2.500000e-06	3.493189e-06	3.396690e-09	2.558187e+01	2.265825e+02
2.510000e-06	3.539327e-06	3.415069e-09	2.591975e+01	2.280344e+02
2.520000e-06	3.585283e-06	3.430574e-09	2.625630e+01	2.294757e+02
2.530000e-06	3.631012e-06	3.449514e-09	2.659119e+01	2.309069e+02
2.540000e-06	3.676477e-06	3.466171e-09	2.692415e+01	2.323279e+02
2.550000e-06	3.721684e-06	3.481450e-09	2.725521e+01	2.337386e+02
2.560000e-06	3.766645e-06	3.499453e-09	2.758448e+01	2.351383e+02
2.570000e-06	3.811363e-06	3.519896e-09	2.791197e+01	2.365259e+02
2.580000e-06	3.855805e-06	3.539248e-09	2.823743e+01	2.379003e+02
2.590000e-06	3.900040e-06	3.555866e-09	2.856138e+01	2.392600e+02
2.600000e-06	3.944135e-06	3.571224e-09	2.888430e+01	2.406035e+02
2.610000e-06	3.988085e-06	3.586254e-09	2.920617e+01	2.419290e+02
2.620000e-06	4.031877e-06	3.601159e-09	2.952687e+01	2.432346e+02
2.630000e-06	4.075438e-06	3.614667e-09	2.984588e+01	2.445185e+02
2.640000e-06	4.118705e-06	3.626929e-09	3.016274e+01	2.457788e+02
2.650000e-06	4.161597e-06	3.637118e-09	3.047685e+01	2.470136e+02
2.660000e-06	4.204030e-06	3.650225e-09	3.078760e+01	2.482212e+02
2.670000e-06	4.245937e-06	3.664813e-09	3.109450e+01	2.493998e+02
2.680000e-06	4.287269e-06	3.676450e-09	3.139719e+01	2.505480e+02
2.690000e-06	4.328210e-06	3.687341e-09	3.169702e+01	2.516642e+02
2.700000e-06	4.368846e-06	3.700336e-09	3.199461e+01	2.527473e+02
2.710000e-06	4.409178e-06	3.713632e-09	3.228998e+01	2.537963e+02
2.720000e-06	4.449278e-06	3.724167e-09	3.258365e+01	2.548105e+02
2.730000e-06	4.489075e-06	3.732029e-09	3.287509e+01	2.557893e+02
2.740000e-06	4.528629e-06	3.741826e-09	3.316476e+01	2.567323e+02
2.750000e-06	4.567947e-06	3.752862e-09	3.345270e+01	2.576397e+02
2.760000e-06	4.606955e-06	3.763641e-09	3.373837e+01	2.585116e+02
2.770000e-06	4.645656e-06	3.771797e-09	3.402179e+01	2.593484e+02
2.780000e-06	4.683958e-06	3.780836e-09	3.430228e+01	2.601509e+02
2.790000e-06	4.721912e-06	3.791928e-09	3.458024e+01	2.609201e+02
2.800000e-06	4.759562e-06	3.801168e-09	3.485596e+01	2.616571e+02
2.810000e-06	4.796926e-06	3.808542e-09	3.512959e+01	2.623634e+02
2.820000e-06	4.833980e-06	3.816648e-09	3.540095e+01	2.630404e+02
2.830000e-06	4.870679e-06	3.825691e-09	3.566971e+01	2.636899e+02
2.840000e-06	4.907088e-06	3.834017e-09	3.593635e+01	2.643138e+02
2.850000e-06	4.943246e-06	3.843298e-09	3.620115e+01	2.649141e+02
2.860000e-06	4.979200e-06	3.854913e-09	3.646445e+01	2.654928e+02
2.870000e-06	5.014969e-06	3.865037e-09	3.672640e+01	2.660522e+02
2.880000e-06	5.050507e-06	3.872082e-09	3.698665e+01	2.665943e+02
2.890000e-06	5.085612e-06	3.878916e-09	3.724374e+01	2.671214e+02
2.900000e-06	5.120058e-06	3.885677e-09	3.749600e+01	2.676355e+02
