# Temperatura_=_20.0
# Concentracion g/m^3_=_9000.0
# C_Vs_to_Am_M_A/Vsm_=_65563218390.804596
# pendiente_HvsI_1/m_=_3716.3
# ordenada_HvsI_A/m_=_1297.0
# frecuencia_Hz_=_135310.37569957515

Tiempo_(s)	Campo_(V.s)	Magnetizacion_(V.s)	Campo_(kA/m)	Magnetizacion_(A/m)
0.000000e+00	-6.517455e-06	-4.889102e-09	-4.761741e+01	-2.939684e+02
1.000000e-08	-6.517582e-06	-4.893141e-09	-4.761835e+01	-2.939165e+02
2.000000e-08	-6.517339e-06	-4.896167e-09	-4.761656e+01	-2.938399e+02
3.000000e-08	-6.516728e-06	-4.896221e-09	-4.761210e+01	-2.937374e+02
4.000000e-08	-6.515592e-06	-4.899169e-09	-4.760380e+01	-2.936077e+02
5.000000e-08	-6.513798e-06	-4.901971e-09	-4.759069e+01	-2.934501e+02
6.000000e-08	-6.511323e-06	-4.898709e-09	-4.757261e+01	-2.932636e+02
7.000000e-08	-6.508287e-06	-4.896593e-09	-4.755043e+01	-2.930478e+02
8.000000e-08	-6.504819e-06	-4.927661e-09	-4.752509e+01	-2.928023e+02
9.000000e-08	-6.500859e-06	-4.943846e-09	-4.749616e+01	-2.925271e+02
1.000000e-07	-6.496339e-06	-4.868044e-09	-4.746314e+01	-2.922222e+02
1.100000e-07	-6.491255e-06	-4.772417e-09	-4.742599e+01	-2.918880e+02
1.200000e-07	-6.485700e-06	-4.875576e-09	-4.738541e+01	-2.915253e+02
1.300000e-07	-6.479804e-06	-5.053860e-09	-4.734233e+01	-2.911348e+02
1.400000e-07	-6.473546e-06	-4.946806e-09	-4.729661e+01	-2.907176e+02
1.500000e-07	-6.466892e-06	-4.618631e-09	-4.724800e+01	-2.902752e+02
1.600000e-07	-6.459837e-06	-4.730699e-09	-4.719645e+01	-2.898090e+02
1.700000e-07	-6.452370e-06	-5.065882e-09	-4.714189e+01	-2.893208e+02
1.800000e-07	-6.444453e-06	-4.983360e-09	-4.708405e+01	-2.888126e+02
1.900000e-07	-6.436266e-06	-4.731238e-09	-4.702424e+01	-2.882864e+02
2.000000e-07	-6.427936e-06	-4.602174e-09	-4.696338e+01	-2.877446e+02
2.100000e-07	-6.419066e-06	-4.774839e-09	-4.689857e+01	-2.871894e+02
2.200000e-07	-6.409284e-06	-4.915795e-09	-4.682710e+01	-2.866235e+02
2.300000e-07	-6.398787e-06	-5.015954e-09	-4.675041e+01	-2.860492e+02
2.400000e-07	-6.387732e-06	-4.673184e-09	-4.666964e+01	-2.854693e+02
2.500000e-07	-6.376135e-06	-4.473176e-09	-4.658491e+01	-2.848863e+02
2.600000e-07	-6.364029e-06	-4.756363e-09	-4.649646e+01	-2.843029e+02
2.700000e-07	-6.351382e-06	-5.014666e-09	-4.640406e+01	-2.837216e+02
2.800000e-07	-6.338228e-06	-4.580269e-09	-4.630796e+01	-2.831449e+02
2.900000e-07	-6.324575e-06	-4.194787e-09	-4.620820e+01	-2.825751e+02
3.000000e-07	-6.310456e-06	-4.477513e-09	-4.610505e+01	-2.820147e+02
3.100000e-07	-6.295797e-06	-4.641654e-09	-4.599795e+01	-2.814656e+02
3.200000e-07	-6.280507e-06	-4.176320e-09	-4.588624e+01	-2.809300e+02
3.300000e-07	-6.264494e-06	-3.981610e-09	-4.576925e+01	-2.804094e+02
3.400000e-07	-6.247945e-06	-4.202495e-09	-4.564834e+01	-2.799055e+02
3.500000e-07	-6.231119e-06	-4.067482e-09	-4.552541e+01	-2.794195e+02
3.600000e-07	-6.213816e-06	-3.982192e-09	-4.539899e+01	-2.789526e+02
3.700000e-07	-6.196078e-06	-4.078481e-09	-4.526939e+01	-2.785056e+02
3.800000e-07	-6.177962e-06	-3.959815e-09	-4.513703e+01	-2.780789e+02
3.900000e-07	-6.159406e-06	-3.803340e-09	-4.500146e+01	-2.776729e+02
4.000000e-07	-6.140387e-06	-4.147760e-09	-4.486251e+01	-2.772876e+02
4.100000e-07	-6.120890e-06	-4.120932e-09	-4.472005e+01	-2.769227e+02
4.200000e-07	-6.101082e-06	-3.710652e-09	-4.457534e+01	-2.765776e+02
4.300000e-07	-6.081007e-06	-3.743293e-09	-4.442867e+01	-2.762515e+02
4.400000e-07	-6.060542e-06	-4.150740e-09	-4.427915e+01	-2.759434e+02
4.500000e-07	-6.039729e-06	-3.982885e-09	-4.412709e+01	-2.756519e+02
4.600000e-07	-6.018601e-06	-3.631577e-09	-4.397272e+01	-2.753755e+02
4.700000e-07	-5.997079e-06	-3.735378e-09	-4.381548e+01	-2.751126e+02
4.800000e-07	-5.975176e-06	-4.031626e-09	-4.365545e+01	-2.748611e+02
4.900000e-07	-5.952795e-06	-3.881245e-09	-4.349193e+01	-2.746190e+02
5.000000e-07	-5.930030e-06	-3.684516e-09	-4.332561e+01	-2.743841e+02
5.100000e-07	-5.906918e-06	-3.761256e-09	-4.315675e+01	-2.741541e+02
5.200000e-07	-5.883389e-06	-3.882948e-09	-4.298484e+01	-2.739266e+02
5.300000e-07	-5.859443e-06	-3.806494e-09	-4.280989e+01	-2.736990e+02
5.400000e-07	-5.835135e-06	-3.782528e-09	-4.263229e+01	-2.734690e+02
5.500000e-07	-5.810483e-06	-3.793132e-09	-4.245218e+01	-2.732341e+02
5.600000e-07	-5.785222e-06	-3.740955e-09	-4.226762e+01	-2.729918e+02
5.700000e-07	-5.759188e-06	-3.778894e-09	-4.207741e+01	-2.727397e+02
5.800000e-07	-5.732540e-06	-3.862265e-09	-4.188272e+01	-2.724757e+02
5.900000e-07	-5.705519e-06	-3.762266e-09	-4.168530e+01	-2.721975e+02
6.000000e-07	-5.678213e-06	-3.665833e-09	-4.148580e+01	-2.719031e+02
6.100000e-07	-5.650516e-06	-3.798422e-09	-4.128344e+01	-2.715907e+02
6.200000e-07	-5.622481e-06	-3.859597e-09	-4.107861e+01	-2.712585e+02
6.300000e-07	-5.594172e-06	-3.740835e-09	-4.087178e+01	-2.709052e+02
6.400000e-07	-5.565536e-06	-3.675562e-09	-4.066256e+01	-2.705296e+02
6.500000e-07	-5.536512e-06	-3.780125e-09	-4.045051e+01	-2.701304e+02
6.600000e-07	-5.507102e-06	-3.806988e-09	-4.023564e+01	-2.697072e+02
6.700000e-07	-5.477315e-06	-3.739191e-09	-4.001801e+01	-2.692592e+02
6.800000e-07	-5.447063e-06	-3.679225e-09	-3.979698e+01	-2.687862e+02
6.900000e-07	-5.416441e-06	-3.738992e-09	-3.957325e+01	-2.682882e+02
7.000000e-07	-5.385481e-06	-3.762117e-09	-3.934706e+01	-2.677654e+02
7.100000e-07	-5.354122e-06	-3.730269e-09	-3.911795e+01	-2.672183e+02
7.200000e-07	-5.322547e-06	-3.690394e-09	-3.888726e+01	-2.666475e+02
7.300000e-07	-5.290746e-06	-3.714752e-09	-3.865491e+01	-2.660539e+02
7.400000e-07	-5.258575e-06	-3.715848e-09	-3.841986e+01	-2.654387e+02
7.500000e-07	-5.225939e-06	-3.723207e-09	-3.818142e+01	-2.648031e+02
7.600000e-07	-5.192795e-06	-3.705184e-09	-3.793927e+01	-2.641486e+02
7.700000e-07	-5.159261e-06	-3.670395e-09	-3.769427e+01	-2.634766e+02
7.800000e-07	-5.125190e-06	-3.657289e-09	-3.744534e+01	-2.627889e+02
7.900000e-07	-5.090487e-06	-3.704579e-09	-3.719179e+01	-2.620872e+02
8.000000e-07	-5.055383e-06	-3.685676e-09	-3.693532e+01	-2.613734e+02
8.100000e-07	-5.019971e-06	-3.617334e-09	-3.667659e+01	-2.606492e+02
8.200000e-07	-4.984321e-06	-3.619706e-09	-3.641613e+01	-2.599166e+02
8.300000e-07	-4.948368e-06	-3.676151e-09	-3.615345e+01	-2.591773e+02
8.400000e-07	-4.912063e-06	-3.660100e-09	-3.588820e+01	-2.584330e+02
8.500000e-07	-4.875452e-06	-3.602725e-09	-3.562071e+01	-2.576854e+02
8.600000e-07	-4.838431e-06	-3.601836e-09	-3.535024e+01	-2.569361e+02
8.700000e-07	-4.801099e-06	-3.628908e-09	-3.507748e+01	-2.561865e+02
8.800000e-07	-4.763502e-06	-3.623507e-09	-3.480280e+01	-2.554378e+02
8.900000e-07	-4.725616e-06	-3.579229e-09	-3.452599e+01	-2.546911e+02
9.000000e-07	-4.687333e-06	-3.558630e-09	-3.424629e+01	-2.539472e+02
9.100000e-07	-4.648657e-06	-3.561390e-09	-3.396372e+01	-2.532067e+02
9.200000e-07	-4.609693e-06	-3.571039e-09	-3.367905e+01	-2.524702e+02
9.300000e-07	-4.570514e-06	-3.550351e-09	-3.339279e+01	-2.517378e+02
9.400000e-07	-4.531116e-06	-3.530029e-09	-3.310495e+01	-2.510094e+02
9.500000e-07	-4.491458e-06	-3.517057e-09	-3.281520e+01	-2.502847e+02
9.600000e-07	-4.451572e-06	-3.526653e-09	-3.252379e+01	-2.495632e+02
9.700000e-07	-4.411350e-06	-3.514560e-09	-3.222993e+01	-2.488439e+02
9.800000e-07	-4.370749e-06	-3.485309e-09	-3.193329e+01	-2.481260e+02
9.900000e-07	-4.329752e-06	-3.451171e-09	-3.163376e+01	-2.474082e+02
1.000000e-06	-4.288336e-06	-3.457832e-09	-3.133117e+01	-2.466889e+02
1.010000e-06	-4.246399e-06	-3.459424e-09	-3.102477e+01	-2.459665e+02
1.020000e-06	-4.204000e-06	-3.437109e-09	-3.071499e+01	-2.452391e+02
1.030000e-06	-4.161279e-06	-3.407122e-09	-3.040287e+01	-2.445049e+02
1.040000e-06	-4.118232e-06	-3.411061e-09	-3.008837e+01	-2.437616e+02
1.050000e-06	-4.074985e-06	-3.412911e-09	-2.977240e+01	-2.430070e+02
1.060000e-06	-4.031499e-06	-3.394788e-09	-2.945468e+01	-2.422389e+02
1.070000e-06	-3.987613e-06	-3.368389e-09	-2.913405e+01	-2.414549e+02
1.080000e-06	-3.943418e-06	-3.354523e-09	-2.881115e+01	-2.406526e+02
1.090000e-06	-3.899057e-06	-3.344049e-09	-2.848704e+01	-2.398298e+02
1.100000e-06	-3.854457e-06	-3.328507e-09	-2.816119e+01	-2.389842e+02
1.110000e-06	-3.809618e-06	-3.309971e-09	-2.783359e+01	-2.381135e+02
1.120000e-06	-3.764561e-06	-3.294083e-09	-2.750439e+01	-2.372158e+02
1.130000e-06	-3.719162e-06	-3.286392e-09	-2.717270e+01	-2.362890e+02
1.140000e-06	-3.673500e-06	-3.279494e-09	-2.683909e+01	-2.353314e+02
1.150000e-06	-3.627580e-06	-3.271781e-09	-2.650359e+01	-2.343413e+02
1.160000e-06	-3.581496e-06	-3.254707e-09	-2.616690e+01	-2.333174e+02
1.170000e-06	-3.535282e-06	-3.239354e-09	-2.582925e+01	-2.322586e+02
1.180000e-06	-3.488794e-06	-3.222082e-09	-2.548961e+01	-2.311639e+02
1.190000e-06	-3.442019e-06	-3.205710e-09	-2.514786e+01	-2.300326e+02
1.200000e-06	-3.394966e-06	-3.183782e-09	-2.480408e+01	-2.288644e+02
1.210000e-06	-3.347695e-06	-3.169238e-09	-2.445872e+01	-2.276591e+02
1.220000e-06	-3.300154e-06	-3.155846e-09	-2.411137e+01	-2.264170e+02
1.230000e-06	-3.252433e-06	-3.145495e-09	-2.376272e+01	-2.251383e+02
1.240000e-06	-3.204540e-06	-3.125189e-09	-2.341280e+01	-2.238238e+02
1.250000e-06	-3.156405e-06	-3.108205e-09	-2.306113e+01	-2.224743e+02
1.260000e-06	-3.108059e-06	-3.093885e-09	-2.270790e+01	-2.210911e+02
1.270000e-06	-3.059356e-06	-3.074017e-09	-2.235207e+01	-2.196755e+02
1.280000e-06	-3.010273e-06	-3.047797e-09	-2.199346e+01	-2.182289e+02
1.290000e-06	-2.960940e-06	-3.027680e-09	-2.163303e+01	-2.167531e+02
1.300000e-06	-2.911361e-06	-3.006170e-09	-2.127080e+01	-2.152499e+02
1.310000e-06	-2.861441e-06	-2.985009e-09	-2.090608e+01	-2.137212e+02
1.320000e-06	-2.811227e-06	-2.966704e-09	-2.053921e+01	-2.121689e+02
1.330000e-06	-2.760809e-06	-2.948828e-09	-2.017085e+01	-2.105951e+02
1.340000e-06	-2.710009e-06	-2.927035e-09	-1.979969e+01	-2.090017e+02
1.350000e-06	-2.658938e-06	-2.907470e-09	-1.942656e+01	-2.073904e+02
1.360000e-06	-2.607734e-06	-2.891110e-09	-1.905246e+01	-2.057632e+02
1.370000e-06	-2.556246e-06	-2.870707e-09	-1.867628e+01	-2.041216e+02
1.380000e-06	-2.504531e-06	-2.843954e-09	-1.829845e+01	-2.024670e+02
1.390000e-06	-2.452660e-06	-2.820024e-09	-1.791947e+01	-2.008007e+02
1.400000e-06	-2.400621e-06	-2.798518e-09	-1.753926e+01	-1.991234e+02
1.410000e-06	-2.348403e-06	-2.773033e-09	-1.715775e+01	-1.974357e+02
1.420000e-06	-2.296051e-06	-2.748752e-09	-1.677526e+01	-1.957379e+02
1.430000e-06	-2.243568e-06	-2.728497e-09	-1.639181e+01	-1.940298e+02
1.440000e-06	-2.190841e-06	-2.708445e-09	-1.600658e+01	-1.923108e+02
1.450000e-06	-2.137973e-06	-2.684732e-09	-1.562032e+01	-1.905798e+02
1.460000e-06	-2.084984e-06	-2.660311e-09	-1.523318e+01	-1.888354e+02
1.470000e-06	-2.031787e-06	-2.634010e-09	-1.484451e+01	-1.870754e+02
1.480000e-06	-1.978477e-06	-2.607780e-09	-1.445503e+01	-1.852975e+02
1.490000e-06	-1.925047e-06	-2.578252e-09	-1.406465e+01	-1.834987e+02
1.500000e-06	-1.871451e-06	-2.547110e-09	-1.367307e+01	-1.816753e+02
1.510000e-06	-1.817716e-06	-2.515905e-09	-1.328048e+01	-1.798235e+02
1.520000e-06	-1.763810e-06	-2.487333e-09	-1.288664e+01	-1.779387e+02
1.530000e-06	-1.709809e-06	-2.456403e-09	-1.249210e+01	-1.760159e+02
1.540000e-06	-1.655711e-06	-2.422891e-09	-1.209685e+01	-1.740498e+02
1.550000e-06	-1.601503e-06	-2.386384e-09	-1.170080e+01	-1.720346e+02
1.560000e-06	-1.547211e-06	-2.347788e-09	-1.130414e+01	-1.699639e+02
1.570000e-06	-1.492819e-06	-2.304870e-09	-1.090674e+01	-1.678313e+02
1.580000e-06	-1.438317e-06	-2.264756e-09	-1.050854e+01	-1.656299e+02
1.590000e-06	-1.383687e-06	-2.231102e-09	-1.010941e+01	-1.633526e+02
1.600000e-06	-1.328950e-06	-2.195514e-09	-9.709489e+00	-1.609921e+02
1.610000e-06	-1.274134e-06	-2.150586e-09	-9.308996e+00	-1.585410e+02
1.620000e-06	-1.219255e-06	-2.105269e-09	-8.908042e+00	-1.559917e+02
1.630000e-06	-1.164307e-06	-2.065544e-09	-8.506587e+00	-1.533368e+02
1.640000e-06	-1.109257e-06	-2.026865e-09	-8.104382e+00	-1.505688e+02
1.650000e-06	-1.054110e-06	-1.983482e-09	-7.701468e+00	-1.476804e+02
1.660000e-06	-9.988628e-07	-1.938625e-09	-7.297828e+00	-1.446645e+02
1.670000e-06	-9.435742e-07	-1.897279e-09	-6.893882e+00	-1.415142e+02
1.680000e-06	-8.883336e-07	-1.852541e-09	-6.490286e+00	-1.382232e+02
1.690000e-06	-8.330527e-07	-1.801576e-09	-6.086396e+00	-1.347852e+02
1.700000e-06	-7.777150e-07	-1.749835e-09	-5.682092e+00	-1.311947e+02
1.710000e-06	-7.223719e-07	-1.698523e-09	-5.277748e+00	-1.274468e+02
1.720000e-06	-6.669902e-07	-1.643958e-09	-4.873121e+00	-1.235369e+02
1.730000e-06	-6.115491e-07	-1.587532e-09	-4.468061e+00	-1.194613e+02
1.740000e-06	-5.560695e-07	-1.529893e-09	-4.062720e+00	-1.152170e+02
1.750000e-06	-5.005691e-07	-1.469110e-09	-3.657226e+00	-1.108018e+02
1.760000e-06	-4.450541e-07	-1.404590e-09	-3.251626e+00	-1.062142e+02
1.770000e-06	-3.895308e-07	-1.341191e-09	-2.845965e+00	-1.014537e+02
1.780000e-06	-3.339816e-07	-1.275495e-09	-2.440115e+00	-9.652058e+01
1.790000e-06	-2.783324e-07	-1.205954e-09	-2.033534e+00	-9.141616e+01
1.800000e-06	-2.226781e-07	-1.132915e-09	-1.626917e+00	-8.614259e+01
1.810000e-06	-1.670400e-07	-1.056947e-09	-1.220417e+00	-8.070299e+01
1.820000e-06	-1.113744e-07	-9.802649e-10	-8.137163e-01	-7.510146e+01
1.830000e-06	-5.569540e-08	-9.001517e-10	-4.069182e-01	-6.934300e+01
1.840000e-06	-6.434002e-11	-8.173585e-10	-4.700770e-04	-6.343357e+01
1.850000e-06	5.541554e-08	-7.317506e-10	4.048735e-01	-5.738001e+01
1.860000e-06	1.109237e-07	-6.420757e-10	8.104234e-01	-5.119005e+01
1.870000e-06	1.665529e-07	-5.505125e-10	1.216858e+00	-4.487228e+01
1.880000e-06	2.221766e-07	-4.566225e-10	1.623253e+00	-3.843606e+01
1.890000e-06	2.777820e-07	-3.606944e-10	2.029513e+00	-3.189151e+01
1.900000e-06	3.334066e-07	-2.625618e-10	2.435914e+00	-2.524945e+01
1.910000e-06	3.890059e-07	-1.619377e-10	2.842130e+00	-1.852130e+01
1.920000e-06	4.445325e-07	-5.947682e-11	3.247815e+00	-1.171907e+01
1.930000e-06	5.000882e-07	4.383458e-11	3.653712e+00	-4.855237e+00
1.940000e-06	5.556610e-07	1.472699e-10	4.059735e+00	2.057305e+00
1.950000e-06	6.111156e-07	2.502747e-10	4.464894e+00	9.005337e+00
1.960000e-06	6.665474e-07	3.564369e-10	4.869886e+00	1.597540e+01
1.970000e-06	7.219131e-07	4.633892e-10	5.274395e+00	2.295388e+01
1.980000e-06	7.771232e-07	5.708333e-10	5.677768e+00	2.992708e+01
1.990000e-06	8.323266e-07	6.795580e-10	6.081091e+00	3.688135e+01
2.000000e-06	8.875651e-07	7.862100e-10	6.484672e+00	4.380313e+01
2.010000e-06	9.427951e-07	8.930047e-10	6.888190e+00	5.067904e+01
2.020000e-06	9.979990e-07	9.986817e-10	7.291516e+00	5.749602e+01
2.030000e-06	1.053139e-06	1.100904e-09	7.694374e+00	6.424133e+01
2.040000e-06	1.108156e-06	1.200465e-09	8.096337e+00	7.090270e+01
2.050000e-06	1.163096e-06	1.299244e-09	8.497739e+00	7.746838e+01
2.060000e-06	1.217998e-06	1.396511e-09	8.898860e+00	8.392720e+01
2.070000e-06	1.272860e-06	1.492311e-09	9.299692e+00	9.026864e+01
2.080000e-06	1.327632e-06	1.583381e-09	9.699862e+00	9.648291e+01
2.090000e-06	1.382295e-06	1.671181e-09	1.009923e+01	1.025610e+02
2.100000e-06	1.436818e-06	1.758414e-09	1.049758e+01	1.084946e+02
2.110000e-06	1.491138e-06	1.842366e-09	1.089445e+01	1.142766e+02
2.120000e-06	1.545354e-06	1.923555e-09	1.129057e+01	1.199003e+02
2.130000e-06	1.599567e-06	1.999938e-09	1.168666e+01	1.253602e+02
2.140000e-06	1.653662e-06	2.071795e-09	1.208188e+01	1.306518e+02
2.150000e-06	1.707543e-06	2.142128e-09	1.247554e+01	1.357713e+02
2.160000e-06	1.761281e-06	2.211537e-09	1.286816e+01	1.407161e+02
2.170000e-06	1.814896e-06	2.278901e-09	1.325988e+01	1.454844e+02
2.180000e-06	1.868402e-06	2.340591e-09	1.365080e+01	1.500753e+02
2.190000e-06	1.921854e-06	2.399811e-09	1.404132e+01	1.544888e+02
2.200000e-06	1.975253e-06	2.459742e-09	1.443147e+01	1.587260e+02
2.210000e-06	2.028502e-06	2.516627e-09	1.482051e+01	1.627886e+02
2.220000e-06	2.081566e-06	2.565270e-09	1.520821e+01	1.666792e+02
2.230000e-06	2.134494e-06	2.608634e-09	1.559491e+01	1.704011e+02
2.240000e-06	2.187241e-06	2.652778e-09	1.598028e+01	1.739585e+02
2.250000e-06	2.239786e-06	2.699195e-09	1.636418e+01	1.773559e+02
2.260000e-06	2.292096e-06	2.742029e-09	1.674636e+01	1.805987e+02
2.270000e-06	2.344282e-06	2.781076e-09	1.712765e+01	1.836927e+02
2.280000e-06	2.396350e-06	2.818510e-09	1.750806e+01	1.866442e+02
2.290000e-06	2.448254e-06	2.858230e-09	1.788728e+01	1.894599e+02
2.300000e-06	2.499955e-06	2.893611e-09	1.826501e+01	1.921468e+02
2.310000e-06	2.551437e-06	2.922900e-09	1.864115e+01	1.947122e+02
2.320000e-06	2.602792e-06	2.954140e-09	1.901635e+01	1.971634e+02
2.330000e-06	2.653801e-06	2.986917e-09	1.938903e+01	1.995080e+02
2.340000e-06	2.704464e-06	3.018740e-09	1.975918e+01	2.017537e+02
2.350000e-06	2.754914e-06	3.048302e-09	2.012778e+01	2.039079e+02
2.360000e-06	2.805043e-06	3.078794e-09	2.049403e+01	2.059782e+02
2.370000e-06	2.854927e-06	3.109139e-09	2.085848e+01	2.079720e+02
2.380000e-06	2.904441e-06	3.139787e-09	2.122024e+01	2.098962e+02
2.390000e-06	2.953435e-06	3.168957e-09	2.157820e+01	2.117579e+02
2.400000e-06	3.002186e-06	3.195380e-09	2.193438e+01	2.135635e+02
2.410000e-06	3.050727e-06	3.220359e-09	2.228903e+01	2.153194e+02
2.420000e-06	3.099005e-06	3.243637e-09	2.264176e+01	2.170312e+02
2.430000e-06	3.147039e-06	3.265487e-09	2.299270e+01	2.187045e+02
2.440000e-06	3.194928e-06	3.288031e-09	2.334258e+01	2.203443e+02
2.450000e-06	3.242702e-06	3.310193e-09	2.369162e+01	2.219549e+02
2.460000e-06	3.290286e-06	3.331766e-09	2.403928e+01	2.235404e+02
2.470000e-06	3.337647e-06	3.352933e-09	2.438530e+01	2.251043e+02
2.480000e-06	3.384844e-06	3.374329e-09	2.473013e+01	2.266497e+02
2.490000e-06	3.431845e-06	3.394651e-09	2.507353e+01	2.281791e+02
2.500000e-06	3.478517e-06	3.415112e-09	2.541452e+01	2.296945e+02
2.510000e-06	3.524949e-06	3.434351e-09	2.575376e+01	2.311975e+02
2.520000e-06	3.571117e-06	3.449108e-09	2.609107e+01	2.326892e+02
2.530000e-06	3.617011e-06	3.465061e-09	2.642638e+01	2.341702e+02
2.540000e-06	3.662677e-06	3.483253e-09	2.676002e+01	2.356409e+02
2.550000e-06	3.708152e-06	3.500420e-09	2.709227e+01	2.371010e+02
2.560000e-06	3.753408e-06	3.517233e-09	2.742291e+01	2.385502e+02
2.570000e-06	3.798356e-06	3.536691e-09	2.775131e+01	2.399876e+02
2.580000e-06	3.842975e-06	3.557323e-09	2.807730e+01	2.414122e+02
2.590000e-06	3.887285e-06	3.576572e-09	2.840103e+01	2.428227e+02
2.600000e-06	3.931454e-06	3.593458e-09	2.872374e+01	2.442175e+02
2.610000e-06	3.975472e-06	3.608458e-09	2.904534e+01	2.455950e+02
2.620000e-06	4.019317e-06	3.621875e-09	2.936568e+01	2.469535e+02
2.630000e-06	4.063033e-06	3.635887e-09	2.968507e+01	2.482912e+02
2.640000e-06	4.106551e-06	3.650059e-09	3.000302e+01	2.496060e+02
2.650000e-06	4.149792e-06	3.662243e-09	3.031894e+01	2.508963e+02
2.660000e-06	4.192758e-06	3.675063e-09	3.063286e+01	2.521601e+02
2.670000e-06	4.235385e-06	3.689110e-09	3.094430e+01	2.533957e+02
2.680000e-06	4.277442e-06	3.702971e-09	3.125158e+01	2.546015e+02
2.690000e-06	4.318882e-06	3.715249e-09	3.155434e+01	2.557760e+02
2.700000e-06	4.359699e-06	3.726122e-09	3.185256e+01	2.569178e+02
2.710000e-06	4.400006e-06	3.737324e-09	3.214704e+01	2.580258e+02
2.720000e-06	4.440048e-06	3.748996e-09	3.243960e+01	2.590991e+02
2.730000e-06	4.479953e-06	3.759323e-09	3.273114e+01	2.601369e+02
2.740000e-06	4.519665e-06	3.769393e-09	3.302129e+01	2.611387e+02
2.750000e-06	4.559191e-06	3.779448e-09	3.331007e+01	2.621044e+02
2.760000e-06	4.598467e-06	3.792800e-09	3.359703e+01	2.630339e+02
2.770000e-06	4.637377e-06	3.806804e-09	3.388131e+01	2.639274e+02
2.780000e-06	4.675981e-06	3.815292e-09	3.416335e+01	2.647855e+02
2.790000e-06	4.714364e-06	3.824152e-09	3.444379e+01	2.656089e+02
2.800000e-06	4.752442e-06	3.835383e-09	3.472199e+01	2.663985e+02
2.810000e-06	4.790115e-06	3.846879e-09	3.499723e+01	2.671555e+02
2.820000e-06	4.827359e-06	3.853525e-09	3.526934e+01	2.678813e+02
2.830000e-06	4.864225e-06	3.858793e-09	3.553869e+01	2.685773e+02
2.840000e-06	4.900824e-06	3.867837e-09	3.580608e+01	2.692453e+02
2.850000e-06	4.937119e-06	3.880514e-09	3.607127e+01	2.698870e+02
2.860000e-06	4.973149e-06	3.895651e-09	3.633451e+01	2.705045e+02
2.870000e-06	5.008987e-06	3.908813e-09	3.659634e+01	2.710996e+02
2.880000e-06	5.044651e-06	3.917850e-09	3.685691e+01	2.716745e+02
2.890000e-06	5.080090e-06	3.926875e-09	3.711583e+01	2.722313e+02
2.900000e-06	5.115158e-06	3.936759e-09	3.737204e+01	2.727720e+02
