# Temperatura_=_20.0
# Concentracion g/m^3_=_9000.0
# C_Vs_to_Am_M_A/Vsm_=_65563218390.804596
# pendiente_HvsI_1/m_=_3716.3
# ordenada_HvsI_A/m_=_1297.0
# frecuencia_Hz_=_135313.9241054026

Tiempo_(s)	Campo_(V.s)	Magnetizacion_(V.s)	Campo_(kA/m)	Magnetizacion_(A/m)
0.000000e+00	-6.510694e-06	-4.896302e-09	-4.762256e+01	-2.839487e+02
1.000000e-08	-6.510741e-06	-4.901642e-09	-4.762290e+01	-2.840137e+02
2.000000e-08	-6.510559e-06	-4.905488e-09	-4.762157e+01	-2.840710e+02
3.000000e-08	-6.509832e-06	-4.910566e-09	-4.761625e+01	-2.841196e+02
4.000000e-08	-6.508459e-06	-4.914316e-09	-4.760622e+01	-2.841588e+02
5.000000e-08	-6.506432e-06	-4.914577e-09	-4.759138e+01	-2.841875e+02
6.000000e-08	-6.503684e-06	-4.910420e-09	-4.757128e+01	-2.842052e+02
7.000000e-08	-6.500306e-06	-4.910539e-09	-4.754658e+01	-2.842112e+02
8.000000e-08	-6.496527e-06	-4.914575e-09	-4.751893e+01	-2.842049e+02
9.000000e-08	-6.492363e-06	-4.915111e-09	-4.748848e+01	-2.841860e+02
1.000000e-07	-6.487592e-06	-4.904472e-09	-4.745358e+01	-2.841542e+02
1.100000e-07	-6.482129e-06	-4.943862e-09	-4.741362e+01	-2.841094e+02
1.200000e-07	-6.476167e-06	-4.963462e-09	-4.737001e+01	-2.840516e+02
1.300000e-07	-6.470017e-06	-4.922095e-09	-4.732503e+01	-2.839808e+02
1.400000e-07	-6.463648e-06	-4.756557e-09	-4.727844e+01	-2.838975e+02
1.500000e-07	-6.456822e-06	-4.864346e-09	-4.722851e+01	-2.838020e+02
1.600000e-07	-6.449509e-06	-5.049318e-09	-4.717502e+01	-2.836949e+02
1.700000e-07	-6.441812e-06	-5.047724e-09	-4.711873e+01	-2.835767e+02
1.800000e-07	-6.433791e-06	-4.806126e-09	-4.706006e+01	-2.834484e+02
1.900000e-07	-6.425555e-06	-4.776135e-09	-4.699981e+01	-2.833107e+02
2.000000e-07	-6.417006e-06	-4.949894e-09	-4.693728e+01	-2.831647e+02
2.100000e-07	-6.407895e-06	-5.069941e-09	-4.687064e+01	-2.830114e+02
2.200000e-07	-6.397898e-06	-5.042453e-09	-4.679751e+01	-2.828520e+02
2.300000e-07	-6.387145e-06	-4.848739e-09	-4.671886e+01	-2.826874e+02
2.400000e-07	-6.375955e-06	-4.734176e-09	-4.663701e+01	-2.825190e+02
2.500000e-07	-6.364216e-06	-4.778217e-09	-4.655115e+01	-2.823480e+02
2.600000e-07	-6.351791e-06	-4.888378e-09	-4.646026e+01	-2.821754e+02
2.700000e-07	-6.338821e-06	-4.707044e-09	-4.636539e+01	-2.820025e+02
2.800000e-07	-6.325427e-06	-4.386692e-09	-4.626742e+01	-2.818304e+02
2.900000e-07	-6.311623e-06	-4.327535e-09	-4.616645e+01	-2.816601e+02
3.000000e-07	-6.297262e-06	-4.440103e-09	-4.606141e+01	-2.814925e+02
3.100000e-07	-6.282218e-06	-4.217873e-09	-4.595137e+01	-2.813286e+02
3.200000e-07	-6.266578e-06	-3.930183e-09	-4.583697e+01	-2.811691e+02
3.300000e-07	-6.250166e-06	-3.931388e-09	-4.571693e+01	-2.810147e+02
3.400000e-07	-6.233314e-06	-3.991859e-09	-4.559366e+01	-2.808657e+02
3.500000e-07	-6.216122e-06	-3.832489e-09	-4.546791e+01	-2.807226e+02
3.600000e-07	-6.198466e-06	-3.828806e-09	-4.533877e+01	-2.805856e+02
3.700000e-07	-6.180467e-06	-3.821505e-09	-4.520711e+01	-2.804547e+02
3.800000e-07	-6.162222e-06	-3.810423e-09	-4.507366e+01	-2.803297e+02
3.900000e-07	-6.143573e-06	-3.842696e-09	-4.493725e+01	-2.802103e+02
4.000000e-07	-6.124285e-06	-3.882195e-09	-4.479617e+01	-2.800961e+02
4.100000e-07	-6.104598e-06	-3.693722e-09	-4.465216e+01	-2.799863e+02
4.200000e-07	-6.084625e-06	-3.683003e-09	-4.450607e+01	-2.798802e+02
4.300000e-07	-6.064317e-06	-3.883345e-09	-4.435753e+01	-2.797769e+02
4.400000e-07	-6.043681e-06	-3.839749e-09	-4.420659e+01	-2.796752e+02
4.500000e-07	-6.022731e-06	-3.629597e-09	-4.405335e+01	-2.795738e+02
4.600000e-07	-6.001470e-06	-3.665207e-09	-4.389784e+01	-2.794714e+02
4.700000e-07	-5.979706e-06	-3.849781e-09	-4.373865e+01	-2.793666e+02
4.800000e-07	-5.957480e-06	-3.791945e-09	-4.357607e+01	-2.792577e+02
4.900000e-07	-5.935045e-06	-3.640504e-09	-4.341197e+01	-2.791432e+02
5.000000e-07	-5.912207e-06	-3.655119e-09	-4.324492e+01	-2.790213e+02
5.100000e-07	-5.888906e-06	-3.773508e-09	-4.307448e+01	-2.788903e+02
5.200000e-07	-5.865290e-06	-3.742725e-09	-4.290174e+01	-2.787486e+02
5.300000e-07	-5.841347e-06	-3.678439e-09	-4.272661e+01	-2.785944e+02
5.400000e-07	-5.817035e-06	-3.658340e-09	-4.254879e+01	-2.784260e+02
5.500000e-07	-5.792205e-06	-3.691101e-09	-4.236716e+01	-2.782417e+02
5.600000e-07	-5.766756e-06	-3.697270e-09	-4.218102e+01	-2.780401e+02
5.700000e-07	-5.740628e-06	-3.718120e-09	-4.198990e+01	-2.778197e+02
5.800000e-07	-5.713892e-06	-3.658394e-09	-4.179434e+01	-2.775791e+02
5.900000e-07	-5.686711e-06	-3.632486e-09	-4.159553e+01	-2.773171e+02
6.000000e-07	-5.659139e-06	-3.686686e-09	-4.139385e+01	-2.770326e+02
6.100000e-07	-5.631255e-06	-3.738753e-09	-4.118989e+01	-2.767248e+02
6.200000e-07	-5.603067e-06	-3.660691e-09	-4.098371e+01	-2.763928e+02
6.300000e-07	-5.574592e-06	-3.617804e-09	-4.077543e+01	-2.760362e+02
6.400000e-07	-5.545790e-06	-3.674319e-09	-4.056476e+01	-2.756545e+02
6.500000e-07	-5.516515e-06	-3.713994e-09	-4.035062e+01	-2.752476e+02
6.600000e-07	-5.486829e-06	-3.661283e-09	-4.013349e+01	-2.748156e+02
6.700000e-07	-5.456861e-06	-3.619499e-09	-3.991428e+01	-2.743585e+02
6.800000e-07	-5.426517e-06	-3.646968e-09	-3.969233e+01	-2.738770e+02
6.900000e-07	-5.395751e-06	-3.682465e-09	-3.946729e+01	-2.733715e+02
7.000000e-07	-5.364609e-06	-3.661636e-09	-3.923950e+01	-2.728429e+02
7.100000e-07	-5.333180e-06	-3.621356e-09	-3.900962e+01	-2.722922e+02
7.200000e-07	-5.301473e-06	-3.625957e-09	-3.877770e+01	-2.717204e+02
7.300000e-07	-5.269534e-06	-3.646892e-09	-3.854408e+01	-2.711289e+02
7.400000e-07	-5.237269e-06	-3.649172e-09	-3.830808e+01	-2.705191e+02
7.500000e-07	-5.204611e-06	-3.628252e-09	-3.806920e+01	-2.698925e+02
7.600000e-07	-5.171528e-06	-3.614244e-09	-3.782721e+01	-2.692506e+02
7.700000e-07	-5.137775e-06	-3.610180e-09	-3.758032e+01	-2.685952e+02
7.800000e-07	-5.103508e-06	-3.627903e-09	-3.732968e+01	-2.679280e+02
7.900000e-07	-5.068831e-06	-3.613484e-09	-3.707604e+01	-2.672507e+02
8.000000e-07	-5.033713e-06	-3.578074e-09	-3.681916e+01	-2.665651e+02
8.100000e-07	-4.998181e-06	-3.567140e-09	-3.655927e+01	-2.658727e+02
8.200000e-07	-4.962267e-06	-3.600177e-09	-3.629657e+01	-2.651754e+02
8.300000e-07	-4.926065e-06	-3.593756e-09	-3.603177e+01	-2.644746e+02
8.400000e-07	-4.889660e-06	-3.562221e-09	-3.576548e+01	-2.637718e+02
8.500000e-07	-4.852926e-06	-3.551427e-09	-3.549679e+01	-2.630685e+02
8.600000e-07	-4.815788e-06	-3.572219e-09	-3.522514e+01	-2.623656e+02
8.700000e-07	-4.778457e-06	-3.566495e-09	-3.495209e+01	-2.616644e+02
8.800000e-07	-4.740825e-06	-3.540925e-09	-3.467683e+01	-2.609656e+02
8.900000e-07	-4.702657e-06	-3.522252e-09	-3.439765e+01	-2.602700e+02
9.000000e-07	-4.664146e-06	-3.528256e-09	-3.411596e+01	-2.595779e+02
9.100000e-07	-4.625411e-06	-3.531346e-09	-3.383263e+01	-2.588896e+02
9.200000e-07	-4.586365e-06	-3.518579e-09	-3.354703e+01	-2.582051e+02
9.300000e-07	-4.547041e-06	-3.496950e-09	-3.325939e+01	-2.575242e+02
9.400000e-07	-4.507422e-06	-3.493186e-09	-3.296960e+01	-2.568465e+02
9.500000e-07	-4.467569e-06	-3.497659e-09	-3.267809e+01	-2.561712e+02
9.600000e-07	-4.427498e-06	-3.488409e-09	-3.238500e+01	-2.554974e+02
9.700000e-07	-4.387089e-06	-3.461409e-09	-3.208942e+01	-2.548241e+02
9.800000e-07	-4.346400e-06	-3.440670e-09	-3.179180e+01	-2.541499e+02
9.900000e-07	-4.305367e-06	-3.442135e-09	-3.149166e+01	-2.534733e+02
1.000000e-06	-4.263910e-06	-3.445421e-09	-3.118843e+01	-2.527925e+02
1.010000e-06	-4.222016e-06	-3.431253e-09	-3.088200e+01	-2.521059e+02
1.020000e-06	-4.179740e-06	-3.410298e-09	-3.057277e+01	-2.514113e+02
1.030000e-06	-4.137001e-06	-3.406503e-09	-3.026015e+01	-2.507067e+02
1.040000e-06	-4.093806e-06	-3.407145e-09	-2.994420e+01	-2.499899e+02
1.050000e-06	-4.050347e-06	-3.395297e-09	-2.962632e+01	-2.492586e+02
1.060000e-06	-4.006598e-06	-3.372084e-09	-2.930631e+01	-2.485107e+02
1.070000e-06	-3.962588e-06	-3.361507e-09	-2.898441e+01	-2.477439e+02
1.080000e-06	-3.918342e-06	-3.355562e-09	-2.866076e+01	-2.469558e+02
1.090000e-06	-3.873957e-06	-3.345794e-09	-2.833611e+01	-2.461444e+02
1.100000e-06	-3.829301e-06	-3.325767e-09	-2.800948e+01	-2.453075e+02
1.110000e-06	-3.784269e-06	-3.315770e-09	-2.768009e+01	-2.444431e+02
1.120000e-06	-3.739071e-06	-3.306753e-09	-2.734948e+01	-2.435494e+02
1.130000e-06	-3.693720e-06	-3.296497e-09	-2.701776e+01	-2.426247e+02
1.140000e-06	-3.648118e-06	-3.281016e-09	-2.668421e+01	-2.416674e+02
1.150000e-06	-3.602234e-06	-3.266271e-09	-2.634859e+01	-2.406762e+02
1.160000e-06	-3.556017e-06	-3.252866e-09	-2.601054e+01	-2.396501e+02
1.170000e-06	-3.509578e-06	-3.242465e-09	-2.567086e+01	-2.385883e+02
1.180000e-06	-3.463060e-06	-3.225208e-09	-2.533060e+01	-2.374900e+02
1.190000e-06	-3.416265e-06	-3.207095e-09	-2.498832e+01	-2.363549e+02
1.200000e-06	-3.369001e-06	-3.193759e-09	-2.464261e+01	-2.351830e+02
1.210000e-06	-3.321550e-06	-3.186109e-09	-2.429552e+01	-2.339744e+02
1.220000e-06	-3.274008e-06	-3.174741e-09	-2.394778e+01	-2.327296e+02
1.230000e-06	-3.226151e-06	-3.156108e-09	-2.359772e+01	-2.314491e+02
1.240000e-06	-3.178042e-06	-3.137384e-09	-2.324583e+01	-2.301340e+02
1.250000e-06	-3.129775e-06	-3.124492e-09	-2.289278e+01	-2.287853e+02
1.260000e-06	-3.081352e-06	-3.110069e-09	-2.253859e+01	-2.274044e+02
1.270000e-06	-3.032763e-06	-3.088613e-09	-2.218319e+01	-2.259927e+02
1.280000e-06	-2.983914e-06	-3.064327e-09	-2.182588e+01	-2.245520e+02
1.290000e-06	-2.934785e-06	-3.045904e-09	-2.146652e+01	-2.230841e+02
1.300000e-06	-2.885306e-06	-3.030639e-09	-2.110461e+01	-2.215908e+02
1.310000e-06	-2.835580e-06	-3.012776e-09	-2.074089e+01	-2.200740e+02
1.320000e-06	-2.785466e-06	-2.994399e-09	-2.037433e+01	-2.185357e+02
1.330000e-06	-2.734975e-06	-2.976244e-09	-2.000501e+01	-2.169780e+02
1.340000e-06	-2.684285e-06	-2.961353e-09	-1.963424e+01	-2.154025e+02
1.350000e-06	-2.633195e-06	-2.943244e-09	-1.926054e+01	-2.138112e+02
1.360000e-06	-2.581764e-06	-2.922335e-09	-1.888435e+01	-2.122056e+02
1.370000e-06	-2.530155e-06	-2.897788e-09	-1.850685e+01	-2.105873e+02
1.380000e-06	-2.478456e-06	-2.875186e-09	-1.812870e+01	-2.089574e+02
1.390000e-06	-2.426556e-06	-2.852791e-09	-1.774908e+01	-2.073169e+02
1.400000e-06	-2.374474e-06	-2.832379e-09	-1.736812e+01	-2.056665e+02
1.410000e-06	-2.322264e-06	-2.812647e-09	-1.698623e+01	-2.040065e+02
1.420000e-06	-2.269860e-06	-2.792738e-09	-1.660292e+01	-2.023368e+02
1.430000e-06	-2.217342e-06	-2.768951e-09	-1.621878e+01	-2.006570e+02
1.440000e-06	-2.164610e-06	-2.744420e-09	-1.583307e+01	-1.989662e+02
1.450000e-06	-2.111723e-06	-2.721589e-09	-1.544623e+01	-1.972630e+02
1.460000e-06	-2.058778e-06	-2.699552e-09	-1.505896e+01	-1.955457e+02
1.470000e-06	-2.005642e-06	-2.673416e-09	-1.467030e+01	-1.938120e+02
1.480000e-06	-1.952381e-06	-2.647474e-09	-1.428072e+01	-1.920591e+02
1.490000e-06	-1.898968e-06	-2.622130e-09	-1.389003e+01	-1.902836e+02
1.500000e-06	-1.845359e-06	-2.595724e-09	-1.349790e+01	-1.884819e+02
1.510000e-06	-1.791609e-06	-2.565969e-09	-1.310475e+01	-1.866497e+02
1.520000e-06	-1.737682e-06	-2.535953e-09	-1.271030e+01	-1.847823e+02
1.530000e-06	-1.683680e-06	-2.506139e-09	-1.231530e+01	-1.828744e+02
1.540000e-06	-1.629567e-06	-2.475479e-09	-1.191949e+01	-1.809204e+02
1.550000e-06	-1.575315e-06	-2.443412e-09	-1.152267e+01	-1.789145e+02
1.560000e-06	-1.521128e-06	-2.408389e-09	-1.112631e+01	-1.768501e+02
1.570000e-06	-1.466859e-06	-2.370243e-09	-1.072936e+01	-1.747207e+02
1.580000e-06	-1.412419e-06	-2.334720e-09	-1.033116e+01	-1.725193e+02
1.590000e-06	-1.357915e-06	-2.301188e-09	-9.932486e+00	-1.702387e+02
1.600000e-06	-1.303269e-06	-2.264755e-09	-9.532779e+00	-1.678717e+02
1.610000e-06	-1.248419e-06	-2.221449e-09	-9.131580e+00	-1.654107e+02
1.620000e-06	-1.193492e-06	-2.181374e-09	-8.729811e+00	-1.628484e+02
1.630000e-06	-1.138537e-06	-2.144807e-09	-8.327841e+00	-1.601772e+02
1.640000e-06	-1.083510e-06	-2.104009e-09	-7.925347e+00	-1.573899e+02
1.650000e-06	-1.028377e-06	-2.061117e-09	-7.522075e+00	-1.544792e+02
1.660000e-06	-9.731355e-07	-2.016059e-09	-7.118013e+00	-1.514383e+02
1.670000e-06	-9.178489e-07	-1.971192e-09	-6.713618e+00	-1.482603e+02
1.680000e-06	-8.625693e-07	-1.921344e-09	-6.309275e+00	-1.449391e+02
1.690000e-06	-8.072505e-07	-1.872141e-09	-5.904645e+00	-1.414687e+02
1.700000e-06	-7.518720e-07	-1.822948e-09	-5.499578e+00	-1.378439e+02
1.710000e-06	-6.964697e-07	-1.771608e-09	-5.094337e+00	-1.340599e+02
1.720000e-06	-6.410540e-07	-1.718155e-09	-4.688998e+00	-1.301124e+02
1.730000e-06	-5.856173e-07	-1.663251e-09	-4.283506e+00	-1.259981e+02
1.740000e-06	-5.301132e-07	-1.605862e-09	-3.877520e+00	-1.217142e+02
1.750000e-06	-4.745235e-07	-1.545915e-09	-3.470909e+00	-1.172587e+02
1.760000e-06	-4.188763e-07	-1.482148e-09	-3.063876e+00	-1.126305e+02
1.770000e-06	-3.632102e-07	-1.416674e-09	-2.656706e+00	-1.078294e+02
1.780000e-06	-3.075665e-07	-1.350555e-09	-2.249699e+00	-1.028560e+02
1.790000e-06	-2.519311e-07	-1.282770e-09	-1.842754e+00	-9.771174e+01
1.800000e-06	-1.963076e-07	-1.210604e-09	-1.435895e+00	-9.239918e+01
1.810000e-06	-1.406848e-07	-1.134594e-09	-1.029041e+00	-8.692170e+01
1.820000e-06	-8.506487e-08	-1.056914e-09	-6.222081e-01	-8.128363e+01
1.830000e-06	-2.948927e-08	-9.775058e-10	-2.156997e-01	-7.549022e+01
1.840000e-06	2.606810e-08	-8.926815e-10	1.906755e-01	-6.954766e+01
1.850000e-06	8.168332e-08	-8.037682e-10	5.974737e-01	-6.346300e+01
1.860000e-06	1.373371e-07	-7.135048e-10	1.004554e+00	-5.724418e+01
1.870000e-06	1.929706e-07	-6.224655e-10	1.411486e+00	-5.089993e+01
1.880000e-06	2.486130e-07	-5.270820e-10	1.818483e+00	-4.443980e+01
1.890000e-06	3.042531e-07	-4.271596e-10	2.225464e+00	-3.787403e+01
1.900000e-06	3.599017e-07	-3.280147e-10	2.632506e+00	-3.121355e+01
1.910000e-06	4.155381e-07	-2.282154e-10	3.039459e+00	-2.446989e+01
1.920000e-06	4.710584e-07	-1.285514e-10	3.445563e+00	-1.765513e+01
1.930000e-06	5.265370e-07	-2.155156e-11	3.851362e+00	-1.078181e+01
1.940000e-06	5.820610e-07	8.104470e-11	4.257494e+00	-3.862862e+00
1.950000e-06	6.375922e-07	1.806940e-10	4.663677e+00	3.088479e+00
1.960000e-06	6.931289e-07	2.831628e-10	5.069901e+00	1.005875e+01
1.970000e-06	7.485908e-07	3.891544e-10	5.475578e+00	1.703434e+01
1.980000e-06	8.039183e-07	4.976324e-10	5.880271e+00	2.400158e+01
1.990000e-06	8.591173e-07	6.034322e-10	6.284026e+00	3.094686e+01
2.000000e-06	9.143578e-07	7.119013e-10	6.688083e+00	3.785666e+01
2.010000e-06	9.695685e-07	8.221486e-10	7.091922e+00	4.471769e+01
2.020000e-06	1.024632e-06	9.297894e-10	7.494685e+00	5.151692e+01
2.030000e-06	1.079626e-06	1.032785e-09	7.896942e+00	5.824170e+01
2.040000e-06	1.134632e-06	1.130302e-09	8.299278e+00	6.487986e+01
2.050000e-06	1.189596e-06	1.227760e-09	8.701314e+00	7.141970e+01
2.060000e-06	1.244441e-06	1.324701e-09	9.102484e+00	7.785016e+01
2.070000e-06	1.299116e-06	1.415981e-09	9.502402e+00	8.416080e+01
2.080000e-06	1.353566e-06	1.505980e-09	9.900678e+00	9.034193e+01
2.090000e-06	1.407977e-06	1.595128e-09	1.029867e+01	9.638460e+01
2.100000e-06	1.462307e-06	1.682512e-09	1.069606e+01	1.022807e+02
2.110000e-06	1.516532e-06	1.762502e-09	1.109270e+01	1.080230e+02
2.120000e-06	1.570708e-06	1.838642e-09	1.148896e+01	1.136050e+02
2.130000e-06	1.624762e-06	1.912392e-09	1.188434e+01	1.190213e+02
2.140000e-06	1.678709e-06	1.983568e-09	1.227894e+01	1.242675e+02
2.150000e-06	1.732532e-06	2.050657e-09	1.267263e+01	1.293398e+02
2.160000e-06	1.786269e-06	2.115379e-09	1.306569e+01	1.342357e+02
2.170000e-06	1.839968e-06	2.179913e-09	1.345847e+01	1.389533e+02
2.180000e-06	1.893514e-06	2.242745e-09	1.385014e+01	1.434920e+02
2.190000e-06	1.946872e-06	2.301847e-09	1.424042e+01	1.478519e+02
2.200000e-06	2.000103e-06	2.357845e-09	1.462978e+01	1.520338e+02
2.210000e-06	2.053093e-06	2.409480e-09	1.501737e+01	1.560397e+02
2.220000e-06	2.106025e-06	2.456896e-09	1.540455e+01	1.598722e+02
2.230000e-06	2.158849e-06	2.500826e-09	1.579093e+01	1.635347e+02
2.240000e-06	2.211391e-06	2.542437e-09	1.617525e+01	1.670312e+02
2.250000e-06	2.263832e-06	2.582159e-09	1.655883e+01	1.703666e+02
2.260000e-06	2.316091e-06	2.621691e-09	1.694108e+01	1.735462e+02
2.270000e-06	2.368132e-06	2.662080e-09	1.732173e+01	1.765758e+02
2.280000e-06	2.420014e-06	2.699157e-09	1.770122e+01	1.794617e+02
2.290000e-06	2.471749e-06	2.734736e-09	1.807964e+01	1.822108e+02
2.300000e-06	2.523319e-06	2.768637e-09	1.845685e+01	1.848301e+02
2.310000e-06	2.574663e-06	2.801254e-09	1.883241e+01	1.873268e+02
2.320000e-06	2.625772e-06	2.833349e-09	1.920625e+01	1.897086e+02
2.330000e-06	2.676628e-06	2.861853e-09	1.957823e+01	1.919830e+02
2.340000e-06	2.727124e-06	2.888976e-09	1.994759e+01	1.941576e+02
2.350000e-06	2.777255e-06	2.917606e-09	2.031427e+01	1.962402e+02
2.360000e-06	2.827064e-06	2.945077e-09	2.067860e+01	1.982384e+02
2.370000e-06	2.876553e-06	2.971513e-09	2.104059e+01	2.001595e+02
2.380000e-06	2.925640e-06	2.998176e-09	2.139964e+01	2.020107e+02
2.390000e-06	2.974421e-06	3.024978e-09	2.175644e+01	2.037992e+02
2.400000e-06	3.022999e-06	3.049896e-09	2.211177e+01	2.055315e+02
2.410000e-06	3.071389e-06	3.072445e-09	2.246572e+01	2.072140e+02
2.420000e-06	3.119585e-06	3.093855e-09	2.281824e+01	2.088527e+02
2.430000e-06	3.167585e-06	3.115532e-09	2.316935e+01	2.104530e+02
2.440000e-06	3.215477e-06	3.136383e-09	2.351965e+01	2.120201e+02
2.450000e-06	3.263225e-06	3.155688e-09	2.386891e+01	2.135587e+02
2.460000e-06	3.310763e-06	3.174092e-09	2.421662e+01	2.150727e+02
2.470000e-06	3.358057e-06	3.194784e-09	2.456255e+01	2.165660e+02
2.480000e-06	3.405082e-06	3.215554e-09	2.490652e+01	2.180415e+02
2.490000e-06	3.451853e-06	3.233414e-09	2.524863e+01	2.195021e+02
2.500000e-06	3.498376e-06	3.250337e-09	2.558892e+01	2.209498e+02
2.510000e-06	3.544576e-06	3.267476e-09	2.592685e+01	2.223863e+02
2.520000e-06	3.590453e-06	3.284189e-09	2.626242e+01	2.238128e+02
2.530000e-06	3.636154e-06	3.300573e-09	2.659670e+01	2.252300e+02
2.540000e-06	3.681740e-06	3.316272e-09	2.693014e+01	2.266384e+02
2.550000e-06	3.727107e-06	3.331374e-09	2.726198e+01	2.280378e+02
2.560000e-06	3.772158e-06	3.349091e-09	2.759150e+01	2.294278e+02
2.570000e-06	3.816924e-06	3.366701e-09	2.791894e+01	2.308077e+02
2.580000e-06	3.861450e-06	3.380618e-09	2.824463e+01	2.321764e+02
2.590000e-06	3.905696e-06	3.395520e-09	2.856827e+01	2.335327e+02
2.600000e-06	3.949741e-06	3.410670e-09	2.889043e+01	2.348751e+02
2.610000e-06	3.993667e-06	3.421222e-09	2.921173e+01	2.362019e+02
2.620000e-06	4.037449e-06	3.432093e-09	2.953198e+01	2.375113e+02
2.630000e-06	4.081071e-06	3.446341e-09	2.985105e+01	2.388014e+02
2.640000e-06	4.124466e-06	3.457240e-09	3.016846e+01	2.400703e+02
2.650000e-06	4.167553e-06	3.467988e-09	3.048362e+01	2.413161e+02
2.660000e-06	4.210108e-06	3.479461e-09	3.079489e+01	2.425369e+02
2.670000e-06	4.251978e-06	3.491686e-09	3.110115e+01	2.437309e+02
2.680000e-06	4.293221e-06	3.501011e-09	3.140282e+01	2.448963e+02
2.690000e-06	4.334035e-06	3.507299e-09	3.170136e+01	2.460315e+02
2.700000e-06	4.374547e-06	3.518747e-09	3.199768e+01	2.471351e+02
2.710000e-06	4.414792e-06	3.529808e-09	3.229205e+01	2.482058e+02
2.720000e-06	4.454842e-06	3.539217e-09	3.258500e+01	2.492427e+02
2.730000e-06	4.494742e-06	3.546710e-09	3.287686e+01	2.502448e+02
2.740000e-06	4.534462e-06	3.557615e-09	3.316739e+01	2.512116e+02
2.750000e-06	4.573899e-06	3.566958e-09	3.345585e+01	2.521428e+02
2.760000e-06	4.612946e-06	3.574448e-09	3.374146e+01	2.530382e+02
2.770000e-06	4.651645e-06	3.583257e-09	3.402452e+01	2.538980e+02
2.780000e-06	4.689987e-06	3.590252e-09	3.430498e+01	2.547227e+02
2.790000e-06	4.727904e-06	3.598279e-09	3.458232e+01	2.555128e+02
2.800000e-06	4.765478e-06	3.608545e-09	3.485716e+01	2.562694e+02
2.810000e-06	4.802719e-06	3.617162e-09	3.512955e+01	2.569935e+02
2.820000e-06	4.839708e-06	3.624295e-09	3.540011e+01	2.576864e+02
2.830000e-06	4.876478e-06	3.631832e-09	3.566906e+01	2.583497e+02
2.840000e-06	4.912901e-06	3.642374e-09	3.593548e+01	2.589851e+02
2.850000e-06	4.949028e-06	3.647717e-09	3.619973e+01	2.595944e+02
2.860000e-06	4.985016e-06	3.652810e-09	3.646297e+01	2.601797e+02
2.870000e-06	5.020815e-06	3.660237e-09	3.672482e+01	2.607430e+02
2.880000e-06	5.056344e-06	3.667054e-09	3.698470e+01	2.612864e+02
2.890000e-06	5.091485e-06	3.674458e-09	3.724174e+01	2.618122e+02
2.900000e-06	5.126030e-06	3.683506e-09	3.749442e+01	2.623226e+02
