# Temperatura_=_20.0
# Concentracion g/m^3_=_9000.0
# C_Vs_to_Am_M_A/Vsm_=_65563218390.804596
# pendiente_HvsI_1/m_=_3716.3
# ordenada_HvsI_A/m_=_1297.0
# frecuencia_Hz_=_135308.93652923458

Tiempo_(s)	Campo_(V.s)	Magnetizacion_(V.s)	Campo_(kA/m)	Magnetizacion_(A/m)
0.000000e+00	-6.518626e-06	-4.620876e-09	-4.763378e+01	-2.875703e+02
1.000000e-08	-6.518636e-06	-4.624772e-09	-4.763385e+01	-2.876259e+02
2.000000e-08	-6.518350e-06	-4.626161e-09	-4.763176e+01	-2.876697e+02
3.000000e-08	-6.517596e-06	-4.625452e-09	-4.762625e+01	-2.877007e+02
4.000000e-08	-6.516341e-06	-4.629914e-09	-4.761708e+01	-2.877177e+02
5.000000e-08	-6.514368e-06	-4.633746e-09	-4.760266e+01	-2.877200e+02
6.000000e-08	-6.511696e-06	-4.632279e-09	-4.758314e+01	-2.877065e+02
7.000000e-08	-6.508546e-06	-4.632282e-09	-4.756012e+01	-2.876768e+02
8.000000e-08	-6.504891e-06	-4.643131e-09	-4.753341e+01	-2.876301e+02
9.000000e-08	-6.500809e-06	-4.632104e-09	-4.750358e+01	-2.875660e+02
1.000000e-07	-6.496184e-06	-4.583821e-09	-4.746978e+01	-2.874843e+02
1.100000e-07	-6.490957e-06	-4.587140e-09	-4.743159e+01	-2.873848e+02
1.200000e-07	-6.485186e-06	-4.691197e-09	-4.738942e+01	-2.872676e+02
1.300000e-07	-6.479078e-06	-4.737499e-09	-4.734478e+01	-2.871329e+02
1.400000e-07	-6.472744e-06	-4.528444e-09	-4.729850e+01	-2.869810e+02
1.500000e-07	-6.466012e-06	-4.390639e-09	-4.724931e+01	-2.868125e+02
1.600000e-07	-6.458802e-06	-4.645584e-09	-4.719662e+01	-2.866280e+02
1.700000e-07	-6.451236e-06	-4.873860e-09	-4.714133e+01	-2.864283e+02
1.800000e-07	-6.443366e-06	-4.666194e-09	-4.708383e+01	-2.862144e+02
1.900000e-07	-6.435162e-06	-4.499540e-09	-4.702388e+01	-2.859873e+02
2.000000e-07	-6.426644e-06	-4.542458e-09	-4.696163e+01	-2.857482e+02
2.100000e-07	-6.417627e-06	-4.706071e-09	-4.689574e+01	-2.854985e+02
2.200000e-07	-6.407778e-06	-4.765511e-09	-4.682377e+01	-2.852393e+02
2.300000e-07	-6.397108e-06	-4.735575e-09	-4.674580e+01	-2.849722e+02
2.400000e-07	-6.385928e-06	-4.523265e-09	-4.666411e+01	-2.846986e+02
2.500000e-07	-6.374279e-06	-4.520968e-09	-4.657899e+01	-2.844199e+02
2.600000e-07	-6.361980e-06	-4.714793e-09	-4.648911e+01	-2.841377e+02
2.700000e-07	-6.349021e-06	-4.652091e-09	-4.639441e+01	-2.838533e+02
2.800000e-07	-6.335698e-06	-4.313204e-09	-4.629706e+01	-2.835683e+02
2.900000e-07	-6.321958e-06	-4.310115e-09	-4.619666e+01	-2.832840e+02
3.000000e-07	-6.307638e-06	-4.606740e-09	-4.609201e+01	-2.830015e+02
3.100000e-07	-6.292627e-06	-4.486381e-09	-4.598232e+01	-2.827223e+02
3.200000e-07	-6.277038e-06	-4.084143e-09	-4.586841e+01	-2.824472e+02
3.300000e-07	-6.260894e-06	-4.138598e-09	-4.575044e+01	-2.821773e+02
3.400000e-07	-6.244096e-06	-4.349169e-09	-4.562770e+01	-2.819134e+02
3.500000e-07	-6.226927e-06	-4.123991e-09	-4.550223e+01	-2.816561e+02
3.600000e-07	-6.209458e-06	-4.066801e-09	-4.537458e+01	-2.814059e+02
3.700000e-07	-6.191592e-06	-4.130314e-09	-4.524403e+01	-2.811631e+02
3.800000e-07	-6.173351e-06	-4.024196e-09	-4.511073e+01	-2.809279e+02
3.900000e-07	-6.154713e-06	-4.008123e-09	-4.497454e+01	-2.807002e+02
4.000000e-07	-6.135574e-06	-4.277412e-09	-4.483468e+01	-2.804798e+02
4.100000e-07	-6.115944e-06	-4.098612e-09	-4.469125e+01	-2.802663e+02
4.200000e-07	-6.096004e-06	-3.828959e-09	-4.454554e+01	-2.800591e+02
4.300000e-07	-6.075859e-06	-4.063301e-09	-4.439833e+01	-2.798574e+02
4.400000e-07	-6.055397e-06	-4.317883e-09	-4.424881e+01	-2.796602e+02
4.500000e-07	-6.034585e-06	-4.037096e-09	-4.409673e+01	-2.794666e+02
4.600000e-07	-6.013432e-06	-3.870629e-09	-4.394216e+01	-2.792753e+02
4.700000e-07	-5.991812e-06	-4.108370e-09	-4.378417e+01	-2.790849e+02
4.800000e-07	-5.969726e-06	-4.237497e-09	-4.362278e+01	-2.788939e+02
4.900000e-07	-5.947290e-06	-4.010905e-09	-4.345883e+01	-2.787009e+02
5.000000e-07	-5.924451e-06	-3.916486e-09	-4.329194e+01	-2.785041e+02
5.100000e-07	-5.901057e-06	-4.074233e-09	-4.312100e+01	-2.783020e+02
5.200000e-07	-5.877226e-06	-4.123970e-09	-4.294686e+01	-2.780927e+02
5.300000e-07	-5.853134e-06	-4.007900e-09	-4.277080e+01	-2.778746e+02
5.400000e-07	-5.828741e-06	-3.989295e-09	-4.259255e+01	-2.776459e+02
5.500000e-07	-5.804026e-06	-4.034246e-09	-4.241195e+01	-2.774050e+02
5.600000e-07	-5.778753e-06	-4.006156e-09	-4.222728e+01	-2.771502e+02
5.700000e-07	-5.752729e-06	-4.031535e-09	-4.203711e+01	-2.768800e+02
5.800000e-07	-5.726065e-06	-4.044234e-09	-4.184227e+01	-2.765930e+02
5.900000e-07	-5.698889e-06	-3.955889e-09	-4.164368e+01	-2.762878e+02
6.000000e-07	-5.671298e-06	-3.940350e-09	-4.144206e+01	-2.759631e+02
6.100000e-07	-5.643448e-06	-4.057189e-09	-4.123856e+01	-2.756180e+02
6.200000e-07	-5.615390e-06	-4.023956e-09	-4.103353e+01	-2.752516e+02
6.300000e-07	-5.587034e-06	-3.908088e-09	-4.082633e+01	-2.748631e+02
6.400000e-07	-5.558234e-06	-3.929350e-09	-4.061587e+01	-2.744519e+02
6.500000e-07	-5.528926e-06	-4.032233e-09	-4.040171e+01	-2.740178e+02
6.600000e-07	-5.499288e-06	-3.993935e-09	-4.018514e+01	-2.735606e+02
6.700000e-07	-5.469370e-06	-3.910124e-09	-3.996651e+01	-2.730804e+02
6.800000e-07	-5.439074e-06	-3.912424e-09	-3.974513e+01	-2.725773e+02
6.900000e-07	-5.408440e-06	-3.983198e-09	-3.952127e+01	-2.720518e+02
7.000000e-07	-5.377449e-06	-3.964808e-09	-3.929482e+01	-2.715045e+02
7.100000e-07	-5.346056e-06	-3.902727e-09	-3.906541e+01	-2.709362e+02
7.200000e-07	-5.314376e-06	-3.892838e-09	-3.883392e+01	-2.703479e+02
7.300000e-07	-5.282462e-06	-3.932538e-09	-3.860071e+01	-2.697407e+02
7.400000e-07	-5.250296e-06	-3.926468e-09	-3.836567e+01	-2.691158e+02
7.500000e-07	-5.217796e-06	-3.910465e-09	-3.812817e+01	-2.684746e+02
7.600000e-07	-5.184797e-06	-3.890428e-09	-3.788705e+01	-2.678186e+02
7.700000e-07	-5.151281e-06	-3.871996e-09	-3.764213e+01	-2.671492e+02
7.800000e-07	-5.117211e-06	-3.884368e-09	-3.739317e+01	-2.664682e+02
7.900000e-07	-5.082492e-06	-3.905441e-09	-3.713946e+01	-2.657770e+02
8.000000e-07	-5.047177e-06	-3.857546e-09	-3.688141e+01	-2.650774e+02
8.100000e-07	-5.011505e-06	-3.807458e-09	-3.662074e+01	-2.643710e+02
8.200000e-07	-4.975636e-06	-3.843654e-09	-3.635863e+01	-2.636593e+02
8.300000e-07	-4.939558e-06	-3.875555e-09	-3.609500e+01	-2.629439e+02
8.400000e-07	-4.903232e-06	-3.828723e-09	-3.582955e+01	-2.622262e+02
8.500000e-07	-4.866591e-06	-3.785774e-09	-3.556181e+01	-2.615075e+02
8.600000e-07	-4.829601e-06	-3.807993e-09	-3.529150e+01	-2.607889e+02
8.700000e-07	-4.792271e-06	-3.823656e-09	-3.501872e+01	-2.600716e+02
8.800000e-07	-4.754570e-06	-3.797635e-09	-3.474323e+01	-2.593563e+02
8.900000e-07	-4.716485e-06	-3.758404e-09	-3.446493e+01	-2.586438e+02
9.000000e-07	-4.678100e-06	-3.755867e-09	-3.418444e+01	-2.579345e+02
9.100000e-07	-4.639459e-06	-3.761997e-09	-3.390207e+01	-2.572287e+02
9.200000e-07	-4.600507e-06	-3.752858e-09	-3.361744e+01	-2.565264e+02
9.300000e-07	-4.561160e-06	-3.724702e-09	-3.332992e+01	-2.558275e+02
9.400000e-07	-4.521432e-06	-3.713414e-09	-3.303962e+01	-2.551316e+02
9.500000e-07	-4.481525e-06	-3.708171e-09	-3.274800e+01	-2.544380e+02
9.600000e-07	-4.441536e-06	-3.708478e-09	-3.245578e+01	-2.537459e+02
9.700000e-07	-4.401270e-06	-3.688392e-09	-3.216155e+01	-2.530542e+02
9.800000e-07	-4.360685e-06	-3.658679e-09	-3.186498e+01	-2.523618e+02
9.900000e-07	-4.319734e-06	-3.639830e-09	-3.156574e+01	-2.516670e+02
1.000000e-06	-4.278263e-06	-3.647899e-09	-3.126270e+01	-2.509684e+02
1.010000e-06	-4.236379e-06	-3.643173e-09	-3.095664e+01	-2.502642e+02
1.020000e-06	-4.194070e-06	-3.615638e-09	-3.064747e+01	-2.495524e+02
1.030000e-06	-4.151323e-06	-3.597875e-09	-3.033510e+01	-2.488310e+02
1.040000e-06	-4.108161e-06	-3.603281e-09	-3.001970e+01	-2.480979e+02
1.050000e-06	-4.064646e-06	-3.593686e-09	-2.970173e+01	-2.473508e+02
1.060000e-06	-4.020994e-06	-3.566787e-09	-2.938274e+01	-2.465877e+02
1.070000e-06	-3.977178e-06	-3.546480e-09	-2.906256e+01	-2.458063e+02
1.080000e-06	-3.933097e-06	-3.539158e-09	-2.874046e+01	-2.450043e+02
1.090000e-06	-3.888710e-06	-3.528692e-09	-2.841610e+01	-2.441796e+02
1.100000e-06	-3.844032e-06	-3.510636e-09	-2.808963e+01	-2.433301e+02
1.110000e-06	-3.799167e-06	-3.499238e-09	-2.776178e+01	-2.424539e+02
1.120000e-06	-3.754048e-06	-3.490616e-09	-2.743208e+01	-2.415491e+02
1.130000e-06	-3.708512e-06	-3.481958e-09	-2.709934e+01	-2.406139e+02
1.140000e-06	-3.662761e-06	-3.465562e-09	-2.676502e+01	-2.396470e+02
1.150000e-06	-3.616909e-06	-3.448958e-09	-2.642996e+01	-2.386470e+02
1.160000e-06	-3.570790e-06	-3.429734e-09	-2.609295e+01	-2.376127e+02
1.170000e-06	-3.524408e-06	-3.415495e-09	-2.575402e+01	-2.365433e+02
1.180000e-06	-3.477793e-06	-3.397868e-09	-2.541339e+01	-2.354382e+02
1.190000e-06	-3.430840e-06	-3.379330e-09	-2.507029e+01	-2.342970e+02
1.200000e-06	-3.383580e-06	-3.361035e-09	-2.472495e+01	-2.331196e+02
1.210000e-06	-3.336164e-06	-3.350234e-09	-2.437847e+01	-2.319060e+02
1.220000e-06	-3.288521e-06	-3.339796e-09	-2.403032e+01	-2.306568e+02
1.230000e-06	-3.240654e-06	-3.323090e-09	-2.368054e+01	-2.293724e+02
1.240000e-06	-3.192630e-06	-3.298576e-09	-2.332961e+01	-2.280539e+02
1.250000e-06	-3.144419e-06	-3.280351e-09	-2.297732e+01	-2.267023e+02
1.260000e-06	-3.095980e-06	-3.265633e-09	-2.262336e+01	-2.253188e+02
1.270000e-06	-3.047291e-06	-3.243087e-09	-2.226757e+01	-2.239050e+02
1.280000e-06	-2.998299e-06	-3.213837e-09	-2.190957e+01	-2.224626e+02
1.290000e-06	-2.949120e-06	-3.191589e-09	-2.155021e+01	-2.209932e+02
1.300000e-06	-2.899682e-06	-3.173729e-09	-2.118894e+01	-2.194988e+02
1.310000e-06	-2.849852e-06	-3.156455e-09	-2.082482e+01	-2.179812e+02
1.320000e-06	-2.799729e-06	-3.136400e-09	-2.045855e+01	-2.164425e+02
1.330000e-06	-2.749316e-06	-3.113743e-09	-2.009017e+01	-2.148846e+02
1.340000e-06	-2.698611e-06	-3.091192e-09	-1.971965e+01	-2.133093e+02
1.350000e-06	-2.647554e-06	-3.071761e-09	-1.934656e+01	-2.117184e+02
1.360000e-06	-2.596216e-06	-3.050661e-09	-1.897142e+01	-2.101137e+02
1.370000e-06	-2.544748e-06	-3.025162e-09	-1.859532e+01	-2.084965e+02
1.380000e-06	-2.493037e-06	-2.998353e-09	-1.821745e+01	-2.068682e+02
1.390000e-06	-2.441061e-06	-2.973339e-09	-1.783765e+01	-2.052297e+02
1.400000e-06	-2.388944e-06	-2.951349e-09	-1.745681e+01	-2.035818e+02
1.410000e-06	-2.336661e-06	-2.929168e-09	-1.707476e+01	-2.019248e+02
1.420000e-06	-2.284196e-06	-2.906682e-09	-1.669138e+01	-2.002587e+02
1.430000e-06	-2.231665e-06	-2.883060e-09	-1.630752e+01	-1.985831e+02
1.440000e-06	-2.178999e-06	-2.859294e-09	-1.592268e+01	-1.968973e+02
1.450000e-06	-2.126133e-06	-2.832380e-09	-1.553636e+01	-1.951999e+02
1.460000e-06	-2.073196e-06	-2.806849e-09	-1.514953e+01	-1.934891e+02
1.470000e-06	-2.020068e-06	-2.778807e-09	-1.476131e+01	-1.917629e+02
1.480000e-06	-1.966772e-06	-2.751349e-09	-1.437186e+01	-1.900183e+02
1.490000e-06	-1.913341e-06	-2.722320e-09	-1.398142e+01	-1.882524e+02
1.500000e-06	-1.859756e-06	-2.691987e-09	-1.358985e+01	-1.864613e+02
1.510000e-06	-1.806043e-06	-2.662639e-09	-1.319736e+01	-1.846408e+02
1.520000e-06	-1.752174e-06	-2.633809e-09	-1.280372e+01	-1.827863e+02
1.530000e-06	-1.698183e-06	-2.602191e-09	-1.240919e+01	-1.808926e+02
1.540000e-06	-1.644055e-06	-2.571322e-09	-1.201366e+01	-1.789543e+02
1.550000e-06	-1.589844e-06	-2.540074e-09	-1.161752e+01	-1.769653e+02
1.560000e-06	-1.535582e-06	-2.507704e-09	-1.122101e+01	-1.749193e+02
1.570000e-06	-1.481156e-06	-2.470388e-09	-1.082330e+01	-1.728096e+02
1.580000e-06	-1.426591e-06	-2.434584e-09	-1.042458e+01	-1.706294e+02
1.590000e-06	-1.371919e-06	-2.401601e-09	-1.002507e+01	-1.683715e+02
1.600000e-06	-1.317151e-06	-2.362999e-09	-9.624863e+00	-1.660286e+02
1.610000e-06	-1.262354e-06	-2.316458e-09	-9.224442e+00	-1.635931e+02
1.620000e-06	-1.207411e-06	-2.272612e-09	-8.822958e+00	-1.610577e+02
1.630000e-06	-1.152331e-06	-2.235109e-09	-8.420465e+00	-1.584148e+02
1.640000e-06	-1.097195e-06	-2.195469e-09	-8.017569e+00	-1.556570e+02
1.650000e-06	-1.042084e-06	-2.150050e-09	-7.614853e+00	-1.527770e+02
1.660000e-06	-9.869034e-07	-2.102916e-09	-7.211633e+00	-1.497679e+02
1.670000e-06	-9.315709e-07	-2.058552e-09	-6.807299e+00	-1.466228e+02
1.680000e-06	-8.762206e-07	-2.010485e-09	-6.402836e+00	-1.433354e+02
1.690000e-06	-8.208802e-07	-1.959269e-09	-5.998446e+00	-1.398996e+02
1.700000e-06	-7.655695e-07	-1.907119e-09	-5.594272e+00	-1.363101e+02
1.710000e-06	-7.102050e-07	-1.853936e-09	-5.189705e+00	-1.325618e+02
1.720000e-06	-6.547437e-07	-1.796891e-09	-4.784431e+00	-1.286505e+02
1.730000e-06	-5.992447e-07	-1.737630e-09	-4.378881e+00	-1.245725e+02
1.740000e-06	-5.438078e-07	-1.675861e-09	-3.973785e+00	-1.203249e+02
1.750000e-06	-4.883454e-07	-1.611829e-09	-3.568503e+00	-1.159056e+02
1.760000e-06	-4.327570e-07	-1.546785e-09	-3.162300e+00	-1.113133e+02
1.770000e-06	-3.771525e-07	-1.481687e-09	-2.755979e+00	-1.065476e+02
1.780000e-06	-3.215166e-07	-1.413211e-09	-2.349429e+00	-1.016087e+02
1.790000e-06	-2.658932e-07	-1.342361e-09	-1.942970e+00	-9.649825e+01
1.800000e-06	-2.101870e-07	-1.268836e-09	-1.535907e+00	-9.121832e+01
1.810000e-06	-1.544431e-07	-1.191819e-09	-1.128567e+00	-8.577218e+01
1.820000e-06	-9.882188e-08	-1.111639e-09	-7.221244e-01	-8.016396e+01
1.830000e-06	-4.313203e-08	-1.029282e-09	-3.151802e-01	-7.439874e+01
1.840000e-06	1.262802e-08	-9.443028e-10	9.227712e-02	-6.848252e+01
1.850000e-06	6.835188e-08	-8.560734e-10	4.994700e-01	-6.242220e+01
1.860000e-06	1.239681e-07	-7.647527e-10	9.058764e-01	-5.622553e+01
1.870000e-06	1.795138e-07	-6.717456e-10	1.311768e+00	-4.990112e+01
1.880000e-06	2.350768e-07	-5.789547e-10	1.717785e+00	-4.345835e+01
1.890000e-06	2.906849e-07	-4.836071e-10	2.124131e+00	-3.690734e+01
1.900000e-06	3.463264e-07	-3.832803e-10	2.530723e+00	-3.025893e+01
1.910000e-06	4.019169e-07	-2.793085e-10	2.936941e+00	-2.352453e+01
1.920000e-06	4.574991e-07	-1.733206e-10	3.343099e+00	-1.671615e+01
1.930000e-06	5.130783e-07	-6.550460e-11	3.749234e+00	-9.846248e+00
1.940000e-06	5.686111e-07	4.266478e-11	4.155031e+00	-2.927719e+00
1.950000e-06	6.240600e-07	1.530357e-10	4.560215e+00	4.026232e+00
1.960000e-06	6.794886e-07	2.624004e-10	4.965250e+00	1.100215e+01
1.970000e-06	7.349415e-07	3.683552e-10	5.370463e+00	1.798643e+01
1.980000e-06	7.903906e-07	4.762206e-10	5.775648e+00	2.496538e+01
1.990000e-06	8.457230e-07	5.865257e-10	6.179981e+00	3.192534e+01
2.000000e-06	9.009529e-07	6.954433e-10	6.583564e+00	3.885273e+01
2.010000e-06	9.561511e-07	8.023477e-10	6.986915e+00	4.573417e+01
2.020000e-06	1.011212e-06	9.085401e-10	7.389263e+00	5.255656e+01
2.030000e-06	1.066302e-06	1.014103e-09	7.791825e+00	5.930714e+01
2.040000e-06	1.121380e-06	1.117864e-09	8.194299e+00	6.597359e+01
2.050000e-06	1.176297e-06	1.217860e-09	8.595591e+00	7.254410e+01
2.060000e-06	1.231185e-06	1.313098e-09	8.996680e+00	7.900744e+01
2.070000e-06	1.285957e-06	1.406553e-09	9.396918e+00	8.535302e+01
2.080000e-06	1.340611e-06	1.498260e-09	9.796295e+00	9.157095e+01
2.090000e-06	1.395216e-06	1.587233e-09	1.019531e+01	9.765212e+01
2.100000e-06	1.449701e-06	1.671921e-09	1.059345e+01	1.035882e+02
2.110000e-06	1.504012e-06	1.754721e-09	1.099032e+01	1.093718e+02
2.120000e-06	1.558235e-06	1.836142e-09	1.138654e+01	1.149962e+02
2.130000e-06	1.612430e-06	1.914903e-09	1.178257e+01	1.204559e+02
2.140000e-06	1.666470e-06	1.989009e-09	1.217746e+01	1.257460e+02
2.150000e-06	1.720346e-06	2.060608e-09	1.257114e+01	1.308628e+02
2.160000e-06	1.774154e-06	2.129108e-09	1.296433e+01	1.358034e+02
2.170000e-06	1.827848e-06	2.194694e-09	1.335669e+01	1.405659e+02
2.180000e-06	1.881400e-06	2.257593e-09	1.374802e+01	1.451493e+02
2.190000e-06	1.934769e-06	2.317841e-09	1.413800e+01	1.495536e+02
2.200000e-06	1.987928e-06	2.378704e-09	1.452645e+01	1.537795e+02
2.210000e-06	2.041003e-06	2.437655e-09	1.491429e+01	1.578287e+02
2.220000e-06	2.093991e-06	2.489502e-09	1.530149e+01	1.617037e+02
2.230000e-06	2.146798e-06	2.537569e-09	1.568737e+01	1.654077e+02
2.240000e-06	2.199425e-06	2.585851e-09	1.607193e+01	1.689447e+02
2.250000e-06	2.251852e-06	2.631917e-09	1.645504e+01	1.723193e+02
2.260000e-06	2.304187e-06	2.674041e-09	1.683746e+01	1.755368e+02
2.270000e-06	2.356454e-06	2.714057e-09	1.721939e+01	1.786028e+02
2.280000e-06	2.408467e-06	2.753725e-09	1.759947e+01	1.815238e+02
2.290000e-06	2.460288e-06	2.791823e-09	1.797814e+01	1.843064e+02
2.300000e-06	2.511972e-06	2.826059e-09	1.835581e+01	1.869575e+02
2.310000e-06	2.563432e-06	2.857896e-09	1.873186e+01	1.894845e+02
2.320000e-06	2.614626e-06	2.891804e-09	1.910594e+01	1.918948e+02
2.330000e-06	2.665555e-06	2.924018e-09	1.947810e+01	1.941962e+02
2.340000e-06	2.716186e-06	2.953813e-09	1.984808e+01	1.963962e+02
2.350000e-06	2.766467e-06	2.983057e-09	2.021549e+01	1.985026e+02
2.360000e-06	2.816366e-06	3.013654e-09	2.058012e+01	2.005229e+02
2.370000e-06	2.865946e-06	3.042280e-09	2.094242e+01	2.024648e+02
2.380000e-06	2.915273e-06	3.070749e-09	2.130287e+01	2.043354e+02
2.390000e-06	2.964228e-06	3.100579e-09	2.166060e+01	2.061419e+02
2.400000e-06	3.012875e-06	3.128819e-09	2.201608e+01	2.078910e+02
2.410000e-06	3.061370e-06	3.154937e-09	2.237045e+01	2.095892e+02
2.420000e-06	3.109702e-06	3.178040e-09	2.272363e+01	2.112426e+02
2.430000e-06	3.157832e-06	3.200040e-09	2.307534e+01	2.128567e+02
2.440000e-06	3.205821e-06	3.222639e-09	2.342600e+01	2.144369e+02
2.450000e-06	3.253594e-06	3.244915e-09	2.377510e+01	2.159878e+02
2.460000e-06	3.301150e-06	3.266517e-09	2.412260e+01	2.175138e+02
2.470000e-06	3.348584e-06	3.286870e-09	2.446922e+01	2.190186e+02
2.480000e-06	3.395778e-06	3.309849e-09	2.481409e+01	2.205055e+02
2.490000e-06	3.442687e-06	3.333642e-09	2.515686e+01	2.219773e+02
2.500000e-06	3.489306e-06	3.356315e-09	2.549752e+01	2.234363e+02
2.510000e-06	3.535707e-06	3.375626e-09	2.583659e+01	2.248842e+02
2.520000e-06	3.581884e-06	3.390443e-09	2.617402e+01	2.263224e+02
2.530000e-06	3.627721e-06	3.407272e-09	2.650897e+01	2.277518e+02
2.540000e-06	3.673286e-06	3.425781e-09	2.684192e+01	2.291727e+02
2.550000e-06	3.718647e-06	3.442734e-09	2.717339e+01	2.305853e+02
2.560000e-06	3.763731e-06	3.459250e-09	2.750284e+01	2.319892e+02
2.570000e-06	3.808601e-06	3.478064e-09	2.783072e+01	2.333837e+02
2.580000e-06	3.853239e-06	3.498391e-09	2.815691e+01	2.347679e+02
2.590000e-06	3.897647e-06	3.516242e-09	2.848141e+01	2.361406e+02
2.600000e-06	3.941938e-06	3.532425e-09	2.880505e+01	2.375003e+02
2.610000e-06	3.986059e-06	3.549060e-09	2.912746e+01	2.388454e+02
2.620000e-06	4.029971e-06	3.565589e-09	2.944835e+01	2.401740e+02
2.630000e-06	4.073640e-06	3.581657e-09	2.976745e+01	2.414844e+02
2.640000e-06	4.117047e-06	3.595825e-09	3.008463e+01	2.427747e+02
2.650000e-06	4.160114e-06	3.610351e-09	3.039934e+01	2.440428e+02
2.660000e-06	4.202629e-06	3.624861e-09	3.071001e+01	2.452868e+02
2.670000e-06	4.244611e-06	3.639838e-09	3.101679e+01	2.465049e+02
2.680000e-06	4.286148e-06	3.654790e-09	3.132031e+01	2.476953e+02
2.690000e-06	4.327245e-06	3.668308e-09	3.162062e+01	2.488564e+02
2.700000e-06	4.367907e-06	3.683189e-09	3.191776e+01	2.499866e+02
2.710000e-06	4.408241e-06	3.697800e-09	3.221249e+01	2.510845e+02
2.720000e-06	4.448480e-06	3.711169e-09	3.250653e+01	2.521491e+02
2.730000e-06	4.488477e-06	3.722588e-09	3.279880e+01	2.531795e+02
2.740000e-06	4.528133e-06	3.733056e-09	3.308858e+01	2.541748e+02
2.750000e-06	4.567557e-06	3.740877e-09	3.337666e+01	2.551348e+02
2.760000e-06	4.606695e-06	3.749752e-09	3.366266e+01	2.560591e+02
2.770000e-06	4.645471e-06	3.762306e-09	3.394601e+01	2.569479e+02
2.780000e-06	4.683836e-06	3.773751e-09	3.422635e+01	2.578013e+02
2.790000e-06	4.721905e-06	3.786906e-09	3.450454e+01	2.586200e+02
2.800000e-06	4.759770e-06	3.798358e-09	3.478123e+01	2.594046e+02
2.810000e-06	4.797371e-06	3.809479e-09	3.505599e+01	2.601563e+02
2.820000e-06	4.834612e-06	3.819783e-09	3.532813e+01	2.608762e+02
2.830000e-06	4.871477e-06	3.827873e-09	3.559751e+01	2.615657e+02
2.840000e-06	4.908012e-06	3.835416e-09	3.586448e+01	2.622264e+02
2.850000e-06	4.944297e-06	3.843840e-09	3.612963e+01	2.628600e+02
2.860000e-06	4.980403e-06	3.856617e-09	3.639347e+01	2.634684e+02
2.870000e-06	5.016251e-06	3.869011e-09	3.665542e+01	2.640535e+02
2.880000e-06	5.051866e-06	3.878718e-09	3.691567e+01	2.646175e+02
2.890000e-06	5.087157e-06	3.888649e-09	3.717355e+01	2.651625e+02
2.900000e-06	5.121863e-06	3.899048e-09	3.742716e+01	2.656904e+02
