# Temperatura_=_20.0
# Concentracion g/m^3_=_9000.0
# C_Vs_to_Am_M_A/Vsm_=_65563218390.804596
# pendiente_HvsI_1/m_=_3716.3
# ordenada_HvsI_A/m_=_1297.0
# frecuencia_Hz_=_135308.63842151302

Tiempo_(s)	Campo_(V.s)	Magnetizacion_(V.s)	Campo_(kA/m)	Magnetizacion_(A/m)
0.000000e+00	-6.510376e-06	-6.918888e-10	-4.762377e+01	-1.805452e+00
1.000000e-08	-6.510586e-06	-6.951894e-10	-4.762530e+01	-1.958535e+00
2.000000e-08	-6.510472e-06	-6.992542e-10	-4.762447e+01	-2.125979e+00
3.000000e-08	-6.509883e-06	-7.029532e-10	-4.762016e+01	-2.307761e+00
4.000000e-08	-6.508718e-06	-7.062549e-10	-4.761164e+01	-2.503773e+00
5.000000e-08	-6.506997e-06	-7.095774e-10	-4.759905e+01	-2.713825e+00
6.000000e-08	-6.504651e-06	-7.084278e-10	-4.758189e+01	-2.937643e+00
7.000000e-08	-6.501668e-06	-7.043400e-10	-4.756007e+01	-3.174871e+00
8.000000e-08	-6.498220e-06	-7.157166e-10	-4.753484e+01	-3.425076e+00
9.000000e-08	-6.494376e-06	-7.205317e-10	-4.750673e+01	-3.687750e+00
1.000000e-07	-6.489980e-06	-7.088160e-10	-4.747457e+01	-3.962310e+00
1.100000e-07	-6.484943e-06	-6.933378e-10	-4.743772e+01	-4.248107e+00
1.200000e-07	-6.479327e-06	-7.609110e-10	-4.739664e+01	-4.544427e+00
1.300000e-07	-6.473340e-06	-7.989697e-10	-4.735285e+01	-4.850501e+00
1.400000e-07	-6.467110e-06	-7.302651e-10	-4.730727e+01	-5.165503e+00
1.500000e-07	-6.460571e-06	-6.323648e-10	-4.725944e+01	-5.488565e+00
1.600000e-07	-6.453568e-06	-7.558596e-10	-4.720822e+01	-5.818775e+00
1.700000e-07	-6.446105e-06	-8.739422e-10	-4.715362e+01	-6.155190e+00
1.800000e-07	-6.438301e-06	-7.906244e-10	-4.709653e+01	-6.496838e+00
1.900000e-07	-6.430149e-06	-6.590629e-10	-4.703690e+01	-6.842729e+00
2.000000e-07	-6.421759e-06	-7.110621e-10	-4.697553e+01	-7.191860e+00
2.100000e-07	-6.412956e-06	-8.349743e-10	-4.691113e+01	-7.543222e+00
2.200000e-07	-6.403337e-06	-8.692786e-10	-4.684077e+01	-7.895804e+00
2.300000e-07	-6.392869e-06	-8.154613e-10	-4.676420e+01	-8.248609e+00
2.400000e-07	-6.381856e-06	-5.967765e-10	-4.668364e+01	-8.600648e+00
2.500000e-07	-6.370421e-06	-5.077555e-10	-4.659999e+01	-8.950958e+00
2.600000e-07	-6.358317e-06	-6.344468e-10	-4.651145e+01	-9.298601e+00
2.700000e-07	-6.345596e-06	-6.437174e-10	-4.641839e+01	-9.642671e+00
2.800000e-07	-6.332522e-06	-2.247154e-10	-4.632275e+01	-9.982301e+00
2.900000e-07	-6.319104e-06	1.661155e-11	-4.622460e+01	-1.031667e+01
3.000000e-07	-6.305011e-06	-1.729974e-10	-4.612151e+01	-1.064500e+01
3.100000e-07	-6.290201e-06	-1.933447e-10	-4.601317e+01	-1.096656e+01
3.200000e-07	-6.274858e-06	2.039492e-10	-4.590094e+01	-1.128069e+01
3.300000e-07	-6.258831e-06	3.416097e-10	-4.578370e+01	-1.158677e+01
3.400000e-07	-6.242268e-06	2.021651e-10	-4.566254e+01	-1.188425e+01
3.500000e-07	-6.225343e-06	2.439570e-10	-4.553873e+01	-1.217265e+01
3.600000e-07	-6.208097e-06	3.349923e-10	-4.541258e+01	-1.245153e+01
3.700000e-07	-6.190549e-06	2.798672e-10	-4.528422e+01	-1.272052e+01
3.800000e-07	-6.172557e-06	3.330979e-10	-4.515260e+01	-1.297934e+01
3.900000e-07	-6.154141e-06	3.884071e-10	-4.501789e+01	-1.322773e+01
4.000000e-07	-6.135195e-06	2.673004e-10	-4.487930e+01	-1.346553e+01
4.100000e-07	-6.115810e-06	2.998410e-10	-4.473750e+01	-1.369261e+01
4.200000e-07	-6.096170e-06	5.023255e-10	-4.459382e+01	-1.390893e+01
4.300000e-07	-6.076183e-06	4.642517e-10	-4.444762e+01	-1.411447e+01
4.400000e-07	-6.055718e-06	2.932240e-10	-4.429792e+01	-1.430930e+01
4.500000e-07	-6.034948e-06	3.987019e-10	-4.414599e+01	-1.449350e+01
4.600000e-07	-6.013858e-06	5.554438e-10	-4.399171e+01	-1.466723e+01
4.700000e-07	-5.992277e-06	4.508882e-10	-4.383384e+01	-1.483067e+01
4.800000e-07	-5.970333e-06	3.173855e-10	-4.367332e+01	-1.498406e+01
4.900000e-07	-5.948081e-06	4.305741e-10	-4.351055e+01	-1.512765e+01
5.000000e-07	-5.925361e-06	5.072949e-10	-4.334435e+01	-1.526173e+01
5.100000e-07	-5.902163e-06	4.277856e-10	-4.317466e+01	-1.538663e+01
5.200000e-07	-5.878652e-06	3.846903e-10	-4.300267e+01	-1.550267e+01
5.300000e-07	-5.854827e-06	4.495419e-10	-4.282839e+01	-1.561021e+01
5.400000e-07	-5.830612e-06	4.405807e-10	-4.265126e+01	-1.570963e+01
5.500000e-07	-5.805884e-06	4.232200e-10	-4.247037e+01	-1.580129e+01
5.600000e-07	-5.780635e-06	4.390967e-10	-4.228567e+01	-1.588557e+01
5.700000e-07	-5.754730e-06	4.142496e-10	-4.209617e+01	-1.596286e+01
5.800000e-07	-5.728247e-06	3.715659e-10	-4.190245e+01	-1.603352e+01
5.900000e-07	-5.701317e-06	4.270741e-10	-4.170546e+01	-1.609795e+01
6.000000e-07	-5.673966e-06	4.389209e-10	-4.150538e+01	-1.615648e+01
6.100000e-07	-5.646277e-06	3.675763e-10	-4.130284e+01	-1.620948e+01
6.200000e-07	-5.618294e-06	3.641949e-10	-4.109814e+01	-1.625728e+01
6.300000e-07	-5.590089e-06	4.321765e-10	-4.089182e+01	-1.630021e+01
6.400000e-07	-5.561484e-06	4.187696e-10	-4.068257e+01	-1.633855e+01
6.500000e-07	-5.532470e-06	3.535296e-10	-4.047033e+01	-1.637261e+01
6.600000e-07	-5.503069e-06	3.546118e-10	-4.025526e+01	-1.640263e+01
6.700000e-07	-5.473273e-06	3.927310e-10	-4.003730e+01	-1.642887e+01
6.800000e-07	-5.443118e-06	3.905523e-10	-3.981671e+01	-1.645155e+01
6.900000e-07	-5.412497e-06	3.458716e-10	-3.959272e+01	-1.647087e+01
7.000000e-07	-5.381502e-06	3.370010e-10	-3.936599e+01	-1.648701e+01
7.100000e-07	-5.350223e-06	3.647826e-10	-3.913718e+01	-1.650014e+01
7.200000e-07	-5.318679e-06	3.769239e-10	-3.890643e+01	-1.651040e+01
7.300000e-07	-5.286914e-06	3.510831e-10	-3.867407e+01	-1.651792e+01
7.400000e-07	-5.254939e-06	3.383067e-10	-3.844018e+01	-1.652282e+01
7.500000e-07	-5.222567e-06	3.379045e-10	-3.820337e+01	-1.652518e+01
7.600000e-07	-5.189628e-06	3.496548e-10	-3.796242e+01	-1.652511e+01
7.700000e-07	-5.156070e-06	3.535461e-10	-3.771694e+01	-1.652267e+01
7.800000e-07	-5.121898e-06	3.365738e-10	-3.746697e+01	-1.651793e+01
7.900000e-07	-5.087275e-06	3.071906e-10	-3.721371e+01	-1.651096e+01
8.000000e-07	-5.052210e-06	3.259192e-10	-3.695720e+01	-1.650182e+01
8.100000e-07	-5.016832e-06	3.530540e-10	-3.669841e+01	-1.649055e+01
8.200000e-07	-4.981259e-06	3.319325e-10	-3.643819e+01	-1.647721e+01
8.300000e-07	-4.945393e-06	2.928812e-10	-3.617582e+01	-1.646187e+01
8.400000e-07	-4.909183e-06	3.039301e-10	-3.591095e+01	-1.644457e+01
8.500000e-07	-4.872583e-06	3.258550e-10	-3.564322e+01	-1.642539e+01
8.600000e-07	-4.835590e-06	3.158423e-10	-3.537261e+01	-1.640440e+01
8.700000e-07	-4.798265e-06	2.914668e-10	-3.509958e+01	-1.638166e+01
8.800000e-07	-4.760649e-06	2.883218e-10	-3.482442e+01	-1.635728e+01
8.900000e-07	-4.722800e-06	2.980804e-10	-3.454755e+01	-1.633134e+01
9.000000e-07	-4.684665e-06	3.007597e-10	-3.426858e+01	-1.630394e+01
9.100000e-07	-4.646160e-06	2.888897e-10	-3.398692e+01	-1.627521e+01
9.200000e-07	-4.607314e-06	2.760460e-10	-3.370276e+01	-1.624527e+01
9.300000e-07	-4.568171e-06	2.730210e-10	-3.341643e+01	-1.621425e+01
9.400000e-07	-4.528744e-06	2.758971e-10	-3.312802e+01	-1.618229e+01
9.500000e-07	-4.489061e-06	2.742742e-10	-3.283774e+01	-1.614956e+01
9.600000e-07	-4.449180e-06	2.608498e-10	-3.254600e+01	-1.611620e+01
9.700000e-07	-4.409061e-06	2.563654e-10	-3.225253e+01	-1.608239e+01
9.800000e-07	-4.368513e-06	2.622847e-10	-3.195592e+01	-1.604830e+01
9.900000e-07	-4.327574e-06	2.654442e-10	-3.165645e+01	-1.601411e+01
1.000000e-06	-4.286352e-06	2.505963e-10	-3.135491e+01	-1.598000e+01
1.010000e-06	-4.244706e-06	2.385258e-10	-3.105026e+01	-1.594615e+01
1.020000e-06	-4.202604e-06	2.381900e-10	-3.074229e+01	-1.591274e+01
1.030000e-06	-4.159975e-06	2.384765e-10	-3.043045e+01	-1.587995e+01
1.040000e-06	-4.116955e-06	2.273914e-10	-3.011575e+01	-1.584795e+01
1.050000e-06	-4.073682e-06	2.222945e-10	-2.979921e+01	-1.581692e+01
1.060000e-06	-4.030113e-06	2.240421e-10	-2.948051e+01	-1.578700e+01
1.070000e-06	-3.986328e-06	2.253294e-10	-2.916021e+01	-1.575834e+01
1.080000e-06	-3.942315e-06	2.180299e-10	-2.883825e+01	-1.573110e+01
1.090000e-06	-3.898094e-06	2.130142e-10	-2.851478e+01	-1.570538e+01
1.100000e-06	-3.853622e-06	2.079109e-10	-2.818946e+01	-1.568129e+01
1.110000e-06	-3.808844e-06	1.996637e-10	-2.786191e+01	-1.565893e+01
1.120000e-06	-3.763824e-06	1.894512e-10	-2.753259e+01	-1.563837e+01
1.130000e-06	-3.718515e-06	1.823071e-10	-2.720114e+01	-1.561966e+01
1.140000e-06	-3.672877e-06	1.799998e-10	-2.686730e+01	-1.560284e+01
1.150000e-06	-3.627042e-06	1.786870e-10	-2.653202e+01	-1.558792e+01
1.160000e-06	-3.581016e-06	1.754000e-10	-2.619533e+01	-1.557489e+01
1.170000e-06	-3.534746e-06	1.718909e-10	-2.585686e+01	-1.556372e+01
1.180000e-06	-3.488294e-06	1.696443e-10	-2.551707e+01	-1.555436e+01
1.190000e-06	-3.441642e-06	1.667221e-10	-2.517580e+01	-1.554674e+01
1.200000e-06	-3.394685e-06	1.590729e-10	-2.483231e+01	-1.554076e+01
1.210000e-06	-3.347432e-06	1.475814e-10	-2.448666e+01	-1.553632e+01
1.220000e-06	-3.299972e-06	1.402136e-10	-2.413948e+01	-1.553327e+01
1.230000e-06	-3.252243e-06	1.376121e-10	-2.379034e+01	-1.553146e+01
1.240000e-06	-3.204323e-06	1.401817e-10	-2.343980e+01	-1.553073e+01
1.250000e-06	-3.156351e-06	1.383292e-10	-2.308888e+01	-1.553089e+01
1.260000e-06	-3.108231e-06	1.331704e-10	-2.273689e+01	-1.553173e+01
1.270000e-06	-3.059773e-06	1.327882e-10	-2.238241e+01	-1.553306e+01
1.280000e-06	-3.010893e-06	1.368484e-10	-2.202485e+01	-1.553464e+01
1.290000e-06	-2.961651e-06	1.347520e-10	-2.166465e+01	-1.553623e+01
1.300000e-06	-2.912118e-06	1.284052e-10	-2.130231e+01	-1.553761e+01
1.310000e-06	-2.862244e-06	1.211636e-10	-2.093747e+01	-1.553853e+01
1.320000e-06	-2.812071e-06	1.154591e-10	-2.057046e+01	-1.553873e+01
1.330000e-06	-2.761656e-06	1.119155e-10	-2.020167e+01	-1.553797e+01
1.340000e-06	-2.711011e-06	1.099144e-10	-1.983119e+01	-1.553600e+01
1.350000e-06	-2.660003e-06	1.050280e-10	-1.945807e+01	-1.553257e+01
1.360000e-06	-2.608639e-06	1.005605e-10	-1.908234e+01	-1.552745e+01
1.370000e-06	-2.557074e-06	9.869495e-11	-1.870514e+01	-1.552039e+01
1.380000e-06	-2.505255e-06	9.929648e-11	-1.832608e+01	-1.551117e+01
1.390000e-06	-2.453301e-06	9.672554e-11	-1.794604e+01	-1.549957e+01
1.400000e-06	-2.401184e-06	9.065300e-11	-1.756480e+01	-1.548538e+01
1.410000e-06	-2.348963e-06	8.428124e-11	-1.718279e+01	-1.546840e+01
1.420000e-06	-2.296649e-06	7.960098e-11	-1.680012e+01	-1.544844e+01
1.430000e-06	-2.244139e-06	7.722068e-11	-1.641600e+01	-1.542533e+01
1.440000e-06	-2.191530e-06	7.521850e-11	-1.603116e+01	-1.539891e+01
1.450000e-06	-2.138786e-06	7.232124e-11	-1.564534e+01	-1.536904e+01
1.460000e-06	-2.085930e-06	7.016260e-11	-1.525870e+01	-1.533558e+01
1.470000e-06	-2.032832e-06	6.999129e-11	-1.487028e+01	-1.529841e+01
1.480000e-06	-1.979457e-06	6.703634e-11	-1.447984e+01	-1.525742e+01
1.490000e-06	-1.926027e-06	6.256361e-11	-1.408899e+01	-1.521252e+01
1.500000e-06	-1.872515e-06	6.002776e-11	-1.369756e+01	-1.516364e+01
1.510000e-06	-1.818893e-06	5.652962e-11	-1.330530e+01	-1.511069e+01
1.520000e-06	-1.765095e-06	5.219675e-11	-1.291177e+01	-1.505363e+01
1.530000e-06	-1.711149e-06	4.993468e-11	-1.251715e+01	-1.499239e+01
1.540000e-06	-1.657123e-06	5.124724e-11	-1.212195e+01	-1.492695e+01
1.550000e-06	-1.603038e-06	5.456460e-11	-1.172631e+01	-1.485725e+01
1.560000e-06	-1.548844e-06	5.581205e-11	-1.132988e+01	-1.478329e+01
1.570000e-06	-1.494513e-06	5.406569e-11	-1.093245e+01	-1.470502e+01
1.580000e-06	-1.440139e-06	4.893141e-11	-1.053470e+01	-1.462244e+01
1.590000e-06	-1.385659e-06	4.048014e-11	-1.013617e+01	-1.453552e+01
1.600000e-06	-1.331030e-06	3.519199e-11	-9.736559e+00	-1.444425e+01
1.610000e-06	-1.276266e-06	3.258085e-11	-9.335957e+00	-1.434862e+01
1.620000e-06	-1.221314e-06	2.939402e-11	-8.933980e+00	-1.424859e+01
1.630000e-06	-1.166286e-06	2.475669e-11	-8.531447e+00	-1.414417e+01
1.640000e-06	-1.111311e-06	2.003987e-11	-8.129306e+00	-1.403532e+01
1.650000e-06	-1.056223e-06	1.860884e-11	-7.726333e+00	-1.392202e+01
1.660000e-06	-1.001042e-06	1.814973e-11	-7.322680e+00	-1.380425e+01
1.670000e-06	-9.457835e-07	1.717355e-11	-6.918460e+00	-1.368198e+01
1.680000e-06	-8.904164e-07	1.485757e-11	-6.513446e+00	-1.355516e+01
1.690000e-06	-8.351323e-07	1.291669e-11	-6.109040e+00	-1.342377e+01
1.700000e-06	-7.798481e-07	7.932848e-12	-5.704633e+00	-1.328776e+01
1.710000e-06	-7.245087e-07	7.866489e-13	-5.299822e+00	-1.314710e+01
1.720000e-06	-6.691387e-07	-2.007213e-12	-4.894787e+00	-1.300173e+01
1.730000e-06	-6.137564e-07	-2.093315e-12	-4.489662e+00	-1.285161e+01
1.740000e-06	-5.583423e-07	-6.169782e-12	-4.084305e+00	-1.269670e+01
1.750000e-06	-5.028537e-07	-8.618050e-12	-3.678403e+00	-1.253696e+01
1.760000e-06	-4.473777e-07	-8.081088e-12	-3.272593e+00	-1.237235e+01
1.770000e-06	-3.917914e-07	-9.145287e-12	-2.865976e+00	-1.220283e+01
1.780000e-06	-3.361212e-07	-1.343408e-11	-2.458746e+00	-1.202838e+01
1.790000e-06	-2.804937e-07	-1.694758e-11	-2.051827e+00	-1.184898e+01
1.800000e-06	-2.249286e-07	-2.003897e-11	-1.645366e+00	-1.166462e+01
1.810000e-06	-1.693591e-07	-2.269707e-11	-1.238871e+00	-1.147530e+01
1.820000e-06	-1.137489e-07	-2.587096e-11	-8.320795e-01	-1.128104e+01
1.830000e-06	-5.822421e-08	-2.561230e-11	-4.259134e-01	-1.108189e+01
1.840000e-06	-2.728297e-09	-2.323230e-11	-1.995765e-02	-1.087788e+01
1.850000e-06	5.275865e-08	-2.304478e-11	3.859325e-01	-1.066910e+01
1.860000e-06	1.082357e-07	-2.286834e-11	7.917500e-01	-1.045563e+01
1.870000e-06	1.637865e-07	-2.167830e-11	1.198108e+00	-1.023759e+01
1.880000e-06	2.193921e-07	-1.878256e-11	1.604866e+00	-1.001513e+01
1.890000e-06	2.750314e-07	-1.798016e-11	2.011870e+00	-9.788415e+00
1.900000e-06	3.306266e-07	-2.129135e-11	2.418552e+00	-9.557631e+00
1.910000e-06	3.862373e-07	-2.280779e-11	2.825348e+00	-9.323002e+00
1.920000e-06	4.418255e-07	-2.090034e-11	3.231979e+00	-9.084775e+00
1.930000e-06	4.972851e-07	-1.774019e-11	3.637669e+00	-8.843227e+00
1.940000e-06	5.527667e-07	-1.697040e-11	4.043520e+00	-8.598662e+00
1.950000e-06	6.082800e-07	-1.691636e-11	4.449602e+00	-8.351409e+00
1.960000e-06	6.637369e-07	-1.674227e-11	4.855273e+00	-8.101827e+00
1.970000e-06	7.191041e-07	-1.557030e-11	5.260287e+00	-7.850297e+00
1.980000e-06	7.743009e-07	-1.400179e-11	5.664055e+00	-7.597228e+00
1.990000e-06	8.294299e-07	-1.454826e-11	6.067326e+00	-7.343047e+00
2.000000e-06	8.845231e-07	-1.355089e-11	6.470336e+00	-7.088204e+00
2.010000e-06	9.396044e-07	-1.254814e-11	6.873259e+00	-6.833167e+00
2.020000e-06	9.947471e-07	-1.100398e-11	7.276631e+00	-6.578419e+00
2.030000e-06	1.049843e-06	-1.178603e-11	7.679659e+00	-6.324454e+00
2.040000e-06	1.104852e-06	-9.877854e-12	8.082054e+00	-6.071780e+00
2.050000e-06	1.159806e-06	-4.847326e-12	8.484045e+00	-5.820906e+00
2.060000e-06	1.214693e-06	-2.476150e-12	8.885550e+00	-5.572348e+00
2.070000e-06	1.269429e-06	-2.027028e-12	9.285947e+00	-5.326619e+00
2.080000e-06	1.323973e-06	-1.834606e-12	9.684936e+00	-5.084229e+00
2.090000e-06	1.378404e-06	-2.949726e-12	1.008310e+01	-4.845679e+00
2.100000e-06	1.432743e-06	-4.892295e-12	1.048059e+01	-4.611458e+00
2.110000e-06	1.486967e-06	-5.407540e-12	1.087725e+01	-4.382040e+00
2.120000e-06	1.541177e-06	-5.457494e-12	1.127380e+01	-4.157879e+00
2.130000e-06	1.595378e-06	-5.805286e-12	1.167028e+01	-3.939406e+00
2.140000e-06	1.649449e-06	-5.000211e-12	1.206581e+01	-3.727025e+00
2.150000e-06	1.703398e-06	-6.915135e-12	1.246045e+01	-3.521111e+00
2.160000e-06	1.757265e-06	-8.603323e-12	1.285449e+01	-3.322005e+00
2.170000e-06	1.811052e-06	-9.501694e-12	1.324795e+01	-3.130012e+00
2.180000e-06	1.864676e-06	-1.223620e-11	1.364021e+01	-2.945399e+00
2.190000e-06	1.918182e-06	-1.677529e-11	1.403161e+01	-2.768391e+00
2.200000e-06	1.971552e-06	-2.074856e-11	1.442201e+01	-2.599170e+00
2.210000e-06	2.024725e-06	-2.211539e-11	1.481098e+01	-2.437876e+00
2.220000e-06	2.077822e-06	-2.415561e-11	1.519939e+01	-2.284600e+00
2.230000e-06	2.130730e-06	-2.851272e-11	1.558641e+01	-2.139388e+00
2.240000e-06	2.183470e-06	-3.330483e-11	1.597220e+01	-2.002241e+00
2.250000e-06	2.236096e-06	-3.568225e-11	1.635717e+01	-1.873109e+00
2.260000e-06	2.288494e-06	-3.864927e-11	1.674046e+01	-1.751899e+00
2.270000e-06	2.340751e-06	-4.270631e-11	1.712272e+01	-1.638473e+00
2.280000e-06	2.392926e-06	-4.727251e-11	1.750439e+01	-1.532646e+00
2.290000e-06	2.444882e-06	-5.098333e-11	1.788445e+01	-1.434194e+00
2.300000e-06	2.496556e-06	-5.533593e-11	1.826245e+01	-1.342851e+00
2.310000e-06	2.548075e-06	-6.141952e-11	1.863931e+01	-1.258315e+00
2.320000e-06	2.599403e-06	-6.783851e-11	1.901478e+01	-1.180250e+00
2.330000e-06	2.650415e-06	-7.392163e-11	1.938793e+01	-1.108286e+00
2.340000e-06	2.701162e-06	-7.839875e-11	1.975916e+01	-1.042029e+00
2.350000e-06	2.751690e-06	-8.117681e-11	2.012877e+01	-9.810587e-01
2.360000e-06	2.801952e-06	-8.395117e-11	2.049644e+01	-9.249377e-01
2.370000e-06	2.851789e-06	-8.811887e-11	2.086100e+01	-8.732115e-01
2.380000e-06	2.901239e-06	-9.069085e-11	2.122273e+01	-8.254156e-01
2.390000e-06	2.950392e-06	-9.210131e-11	2.158229e+01	-7.810787e-01
2.400000e-06	2.999176e-06	-9.708879e-11	2.193914e+01	-7.397283e-01
2.410000e-06	3.047716e-06	-1.034414e-10	2.229422e+01	-7.008941e-01
2.420000e-06	3.096115e-06	-1.084948e-10	2.264826e+01	-6.641135e-01
2.430000e-06	3.144242e-06	-1.131749e-10	2.300031e+01	-6.289356e-01
2.440000e-06	3.192241e-06	-1.178962e-10	2.335142e+01	-5.949252e-01
2.450000e-06	3.240089e-06	-1.231318e-10	2.370143e+01	-5.616673e-01
2.460000e-06	3.287673e-06	-1.280647e-10	2.404952e+01	-5.287707e-01
2.470000e-06	3.335059e-06	-1.308376e-10	2.439615e+01	-4.958718e-01
2.480000e-06	3.382213e-06	-1.332695e-10	2.474108e+01	-4.626373e-01
2.490000e-06	3.429175e-06	-1.382558e-10	2.508461e+01	-4.287676e-01
2.500000e-06	3.475883e-06	-1.429570e-10	2.542628e+01	-3.939991e-01
2.510000e-06	3.522275e-06	-1.457963e-10	2.576564e+01	-3.581061e-01
2.520000e-06	3.568407e-06	-1.495503e-10	2.610310e+01	-3.209026e-01
2.530000e-06	3.614326e-06	-1.542973e-10	2.643900e+01	-2.822436e-01
2.540000e-06	3.659909e-06	-1.584851e-10	2.677244e+01	-2.420254e-01
2.550000e-06	3.705184e-06	-1.618705e-10	2.710363e+01	-2.001863e-01
2.560000e-06	3.750278e-06	-1.624100e-10	2.743350e+01	-1.567060e-01
2.570000e-06	3.795191e-06	-1.620164e-10	2.776204e+01	-1.116051e-01
2.580000e-06	3.839809e-06	-1.648213e-10	2.808842e+01	-6.494370e-02
2.590000e-06	3.884142e-06	-1.668969e-10	2.841272e+01	-1.681989e-02
2.600000e-06	3.928285e-06	-1.669394e-10	2.873562e+01	3.263229e-02
2.610000e-06	3.972221e-06	-1.701239e-10	2.905702e+01	8.324546e-02
2.620000e-06	4.016026e-06	-1.754598e-10	2.937746e+01	1.348217e-01
2.630000e-06	4.059690e-06	-1.779807e-10	2.969686e+01	1.871356e-01
2.640000e-06	4.103004e-06	-1.796549e-10	3.001370e+01	2.399382e-01
2.650000e-06	4.145954e-06	-1.842997e-10	3.032789e+01	2.929602e-01
2.660000e-06	4.188518e-06	-1.890329e-10	3.063924e+01	3.459165e-01
2.670000e-06	4.230673e-06	-1.898331e-10	3.094761e+01	3.985101e-01
2.680000e-06	4.272450e-06	-1.910983e-10	3.125321e+01	4.504362e-01
2.690000e-06	4.313827e-06	-1.942170e-10	3.155589e+01	5.013870e-01
2.700000e-06	4.354730e-06	-1.975407e-10	3.185509e+01	5.510557e-01
2.710000e-06	4.395132e-06	-2.003854e-10	3.215064e+01	5.991413e-01
2.720000e-06	4.435236e-06	-2.019589e-10	3.244400e+01	6.453523e-01
2.730000e-06	4.475110e-06	-2.063368e-10	3.273569e+01	6.894112e-01
2.740000e-06	4.514762e-06	-2.120097e-10	3.302574e+01	7.310584e-01
2.750000e-06	4.554195e-06	-2.173893e-10	3.331419e+01	7.700559e-01
2.760000e-06	4.593352e-06	-2.201828e-10	3.360063e+01	8.061906e-01
2.770000e-06	4.632165e-06	-2.227830e-10	3.388455e+01	8.392776e-01
2.780000e-06	4.670691e-06	-2.276621e-10	3.416637e+01	8.691627e-01
2.790000e-06	4.708948e-06	-2.315691e-10	3.444622e+01	8.957249e-01
2.800000e-06	4.746746e-06	-2.348927e-10	3.472272e+01	9.188785e-01
2.810000e-06	4.784161e-06	-2.382515e-10	3.499640e+01	9.385742e-01
2.820000e-06	4.821387e-06	-2.457920e-10	3.526872e+01	9.548003e-01
2.830000e-06	4.858337e-06	-2.549465e-10	3.553901e+01	9.675833e-01
2.840000e-06	4.894970e-06	-2.591470e-10	3.580698e+01	9.769878e-01
2.850000e-06	4.931316e-06	-2.604300e-10	3.607286e+01	9.831162e-01
2.860000e-06	4.967362e-06	-2.636007e-10	3.633653e+01	9.861074e-01
2.870000e-06	5.003121e-06	-2.672712e-10	3.659811e+01	9.861357e-01
2.880000e-06	5.038621e-06	-2.696899e-10	3.685780e+01	9.834091e-01
2.890000e-06	5.073825e-06	-2.727614e-10	3.711532e+01	9.781663e-01
2.900000e-06	5.108659e-06	-2.773253e-10	3.737013e+01	9.706746e-01
