# Temperatura_=_20.0
# Concentracion g/m^3_=_9000.0
# C_Vs_to_Am_M_A/Vsm_=_65563218390.804596
# pendiente_HvsI_1/m_=_3716.3
# ordenada_HvsI_A/m_=_1297.0
# frecuencia_Hz_=_135312.5401658898

Tiempo_(s)	Campo_(V.s)	Magnetizacion_(V.s)	Campo_(kA/m)	Magnetizacion_(A/m)
0.000000e+00	-6.503852e-06	-4.690029e-09	-4.762121e+01	-2.883779e+02
1.000000e-08	-6.503966e-06	-4.694742e-09	-4.762205e+01	-2.884554e+02
2.000000e-08	-6.503788e-06	-4.697820e-09	-4.762074e+01	-2.885144e+02
3.000000e-08	-6.503147e-06	-4.697938e-09	-4.761606e+01	-2.885533e+02
4.000000e-08	-6.502069e-06	-4.704294e-09	-4.760816e+01	-2.885706e+02
5.000000e-08	-6.500312e-06	-4.709581e-09	-4.759530e+01	-2.885648e+02
6.000000e-08	-6.497789e-06	-4.703229e-09	-4.757682e+01	-2.885348e+02
7.000000e-08	-6.494656e-06	-4.690438e-09	-4.755388e+01	-2.884795e+02
8.000000e-08	-6.491060e-06	-4.698804e-09	-4.752755e+01	-2.883982e+02
9.000000e-08	-6.487039e-06	-4.731250e-09	-4.749811e+01	-2.882901e+02
1.000000e-07	-6.482458e-06	-4.715225e-09	-4.746457e+01	-2.881549e+02
1.100000e-07	-6.477395e-06	-4.676592e-09	-4.742750e+01	-2.879925e+02
1.200000e-07	-6.471761e-06	-4.702919e-09	-4.738625e+01	-2.878028e+02
1.300000e-07	-6.465714e-06	-4.799433e-09	-4.734197e+01	-2.875863e+02
1.400000e-07	-6.459424e-06	-4.669327e-09	-4.729591e+01	-2.873434e+02
1.500000e-07	-6.452708e-06	-4.512789e-09	-4.724674e+01	-2.870750e+02
1.600000e-07	-6.445586e-06	-4.660320e-09	-4.719459e+01	-2.867821e+02
1.700000e-07	-6.438107e-06	-4.939169e-09	-4.713983e+01	-2.864658e+02
1.800000e-07	-6.430248e-06	-4.729357e-09	-4.708228e+01	-2.861276e+02
1.900000e-07	-6.422075e-06	-4.561379e-09	-4.702244e+01	-2.857692e+02
2.000000e-07	-6.413664e-06	-4.597280e-09	-4.696086e+01	-2.853922e+02
2.100000e-07	-6.404921e-06	-4.788863e-09	-4.689684e+01	-2.849986e+02
2.200000e-07	-6.395335e-06	-4.785669e-09	-4.682665e+01	-2.845904e+02
2.300000e-07	-6.385000e-06	-4.714536e-09	-4.675098e+01	-2.841699e+02
2.400000e-07	-6.374186e-06	-4.481982e-09	-4.667180e+01	-2.837392e+02
2.500000e-07	-6.362756e-06	-4.389681e-09	-4.658811e+01	-2.833007e+02
2.600000e-07	-6.350663e-06	-4.651349e-09	-4.649956e+01	-2.828566e+02
2.700000e-07	-6.338032e-06	-4.756516e-09	-4.640708e+01	-2.824093e+02
2.800000e-07	-6.324958e-06	-4.359764e-09	-4.631136e+01	-2.819611e+02
2.900000e-07	-6.311347e-06	-4.048338e-09	-4.621169e+01	-2.815141e+02
3.000000e-07	-6.297302e-06	-4.330276e-09	-4.610886e+01	-2.810705e+02
3.100000e-07	-6.282744e-06	-4.437629e-09	-4.600226e+01	-2.806323e+02
3.200000e-07	-6.267478e-06	-4.019475e-09	-4.589048e+01	-2.802015e+02
3.300000e-07	-6.251439e-06	-3.878558e-09	-4.577305e+01	-2.797798e+02
3.400000e-07	-6.234772e-06	-4.197999e-09	-4.565101e+01	-2.793688e+02
3.500000e-07	-6.217720e-06	-4.061158e-09	-4.552616e+01	-2.789698e+02
3.600000e-07	-6.200324e-06	-3.985408e-09	-4.539879e+01	-2.785840e+02
3.700000e-07	-6.182582e-06	-4.063475e-09	-4.526888e+01	-2.782124e+02
3.800000e-07	-6.164550e-06	-4.019053e-09	-4.513684e+01	-2.778556e+02
3.900000e-07	-6.146041e-06	-3.862178e-09	-4.500132e+01	-2.775141e+02
4.000000e-07	-6.126987e-06	-4.146952e-09	-4.486181e+01	-2.771881e+02
4.100000e-07	-6.107527e-06	-4.084280e-09	-4.471932e+01	-2.768777e+02
4.200000e-07	-6.087743e-06	-3.761035e-09	-4.457447e+01	-2.765824e+02
4.300000e-07	-6.067707e-06	-3.853577e-09	-4.442776e+01	-2.763018e+02
4.400000e-07	-6.047406e-06	-4.169748e-09	-4.427912e+01	-2.760350e+02
4.500000e-07	-6.026759e-06	-3.979410e-09	-4.412794e+01	-2.757812e+02
4.600000e-07	-6.005737e-06	-3.740042e-09	-4.397402e+01	-2.755390e+02
4.700000e-07	-5.984196e-06	-3.893614e-09	-4.381629e+01	-2.753072e+02
4.800000e-07	-5.962195e-06	-4.079709e-09	-4.365520e+01	-2.750840e+02
4.900000e-07	-5.939801e-06	-3.931357e-09	-4.349124e+01	-2.748677e+02
5.000000e-07	-5.917049e-06	-3.798533e-09	-4.332464e+01	-2.746564e+02
5.100000e-07	-5.893864e-06	-3.909334e-09	-4.315488e+01	-2.744482e+02
5.200000e-07	-5.870142e-06	-3.968306e-09	-4.298119e+01	-2.742409e+02
5.300000e-07	-5.846168e-06	-3.891212e-09	-4.280565e+01	-2.740324e+02
5.400000e-07	-5.821966e-06	-3.871070e-09	-4.262844e+01	-2.738204e+02
5.500000e-07	-5.797357e-06	-3.919372e-09	-4.244826e+01	-2.736029e+02
5.600000e-07	-5.772187e-06	-3.854719e-09	-4.226396e+01	-2.733775e+02
5.700000e-07	-5.746317e-06	-3.873147e-09	-4.207454e+01	-2.731422e+02
5.800000e-07	-5.719765e-06	-3.920641e-09	-4.188013e+01	-2.728949e+02
5.900000e-07	-5.692651e-06	-3.860700e-09	-4.168160e+01	-2.726337e+02
6.000000e-07	-5.665121e-06	-3.781945e-09	-4.148002e+01	-2.723566e+02
6.100000e-07	-5.637288e-06	-3.892426e-09	-4.127623e+01	-2.720621e+02
6.200000e-07	-5.609243e-06	-3.908428e-09	-4.107089e+01	-2.717485e+02
6.300000e-07	-5.581031e-06	-3.815571e-09	-4.086432e+01	-2.714145e+02
6.400000e-07	-5.552481e-06	-3.793531e-09	-4.065528e+01	-2.710589e+02
6.500000e-07	-5.523412e-06	-3.881036e-09	-4.044243e+01	-2.706808e+02
6.600000e-07	-5.493933e-06	-3.863823e-09	-4.022659e+01	-2.702795e+02
6.700000e-07	-5.464118e-06	-3.805832e-09	-4.000828e+01	-2.698545e+02
6.800000e-07	-5.433871e-06	-3.785892e-09	-3.978681e+01	-2.694054e+02
6.900000e-07	-5.403232e-06	-3.837630e-09	-3.956247e+01	-2.689323e+02
7.000000e-07	-5.372187e-06	-3.836078e-09	-3.933516e+01	-2.684353e+02
7.100000e-07	-5.340746e-06	-3.794741e-09	-3.910495e+01	-2.679149e+02
7.200000e-07	-5.309059e-06	-3.770429e-09	-3.887294e+01	-2.673715e+02
7.300000e-07	-5.277219e-06	-3.799632e-09	-3.863981e+01	-2.668062e+02
7.400000e-07	-5.245102e-06	-3.799094e-09	-3.840464e+01	-2.662198e+02
7.500000e-07	-5.212635e-06	-3.780957e-09	-3.816692e+01	-2.656136e+02
7.600000e-07	-5.179766e-06	-3.763252e-09	-3.792625e+01	-2.649888e+02
7.700000e-07	-5.146501e-06	-3.741313e-09	-3.768269e+01	-2.643470e+02
7.800000e-07	-5.112665e-06	-3.743821e-09	-3.743494e+01	-2.636896e+02
7.900000e-07	-5.078061e-06	-3.772088e-09	-3.718157e+01	-2.630184e+02
8.000000e-07	-5.042838e-06	-3.747911e-09	-3.692367e+01	-2.623351e+02
8.100000e-07	-5.007181e-06	-3.687840e-09	-3.666259e+01	-2.616413e+02
8.200000e-07	-4.971350e-06	-3.709699e-09	-3.640023e+01	-2.609388e+02
8.300000e-07	-4.935333e-06	-3.751257e-09	-3.613652e+01	-2.602292e+02
8.400000e-07	-4.899079e-06	-3.720621e-09	-3.587106e+01	-2.595144e+02
8.500000e-07	-4.862549e-06	-3.662016e-09	-3.560359e+01	-2.587957e+02
8.600000e-07	-4.825636e-06	-3.671949e-09	-3.533332e+01	-2.580747e+02
8.700000e-07	-4.788374e-06	-3.688482e-09	-3.506048e+01	-2.573527e+02
8.800000e-07	-4.750825e-06	-3.678717e-09	-3.478555e+01	-2.566309e+02
8.900000e-07	-4.712974e-06	-3.645153e-09	-3.450841e+01	-2.559104e+02
9.000000e-07	-4.674797e-06	-3.636621e-09	-3.422887e+01	-2.551918e+02
9.100000e-07	-4.636349e-06	-3.637585e-09	-3.394736e+01	-2.544760e+02
9.200000e-07	-4.597595e-06	-3.644924e-09	-3.366360e+01	-2.537632e+02
9.300000e-07	-4.558418e-06	-3.625221e-09	-3.337674e+01	-2.530536e+02
9.400000e-07	-4.518903e-06	-3.605002e-09	-3.308741e+01	-2.523472e+02
9.500000e-07	-4.479154e-06	-3.588764e-09	-3.279637e+01	-2.516437e+02
9.600000e-07	-4.439191e-06	-3.597815e-09	-3.250376e+01	-2.509426e+02
9.700000e-07	-4.399063e-06	-3.587170e-09	-3.220995e+01	-2.502431e+02
9.800000e-07	-4.358663e-06	-3.559156e-09	-3.191414e+01	-2.495442e+02
9.900000e-07	-4.317952e-06	-3.533573e-09	-3.161605e+01	-2.488447e+02
1.000000e-06	-4.276875e-06	-3.541000e-09	-3.131529e+01	-2.481433e+02
1.010000e-06	-4.235251e-06	-3.546458e-09	-3.101052e+01	-2.474383e+02
1.020000e-06	-4.193290e-06	-3.523409e-09	-3.070328e+01	-2.467279e+02
1.030000e-06	-4.150930e-06	-3.496918e-09	-3.039312e+01	-2.460103e+02
1.040000e-06	-4.107976e-06	-3.493959e-09	-3.007861e+01	-2.452835e+02
1.050000e-06	-4.064566e-06	-3.487810e-09	-2.976076e+01	-2.445452e+02
1.060000e-06	-4.020825e-06	-3.464211e-09	-2.944049e+01	-2.437934e+02
1.070000e-06	-3.976922e-06	-3.445703e-09	-2.911903e+01	-2.430258e+02
1.080000e-06	-3.932882e-06	-3.435522e-09	-2.879657e+01	-2.422401e+02
1.090000e-06	-3.888633e-06	-3.425277e-09	-2.847257e+01	-2.414341e+02
1.100000e-06	-3.844115e-06	-3.409606e-09	-2.814662e+01	-2.406057e+02
1.110000e-06	-3.799352e-06	-3.398333e-09	-2.781886e+01	-2.397527e+02
1.120000e-06	-3.754353e-06	-3.385715e-09	-2.748938e+01	-2.388731e+02
1.130000e-06	-3.709019e-06	-3.377042e-09	-2.715744e+01	-2.379651e+02
1.140000e-06	-3.663379e-06	-3.362145e-09	-2.682327e+01	-2.370269e+02
1.150000e-06	-3.617581e-06	-3.350341e-09	-2.648793e+01	-2.360571e+02
1.160000e-06	-3.571608e-06	-3.332895e-09	-2.615132e+01	-2.350543e+02
1.170000e-06	-3.525393e-06	-3.319367e-09	-2.581294e+01	-2.340174e+02
1.180000e-06	-3.478920e-06	-3.300336e-09	-2.547266e+01	-2.329455e+02
1.190000e-06	-3.432237e-06	-3.284643e-09	-2.513085e+01	-2.318381e+02
1.200000e-06	-3.385349e-06	-3.269524e-09	-2.478753e+01	-2.306947e+02
1.210000e-06	-3.338157e-06	-3.260415e-09	-2.444199e+01	-2.295152e+02
1.220000e-06	-3.290734e-06	-3.247462e-09	-2.409476e+01	-2.282999e+02
1.230000e-06	-3.243072e-06	-3.232054e-09	-2.374578e+01	-2.270491e+02
1.240000e-06	-3.195200e-06	-3.213182e-09	-2.339526e+01	-2.257635e+02
1.250000e-06	-3.147252e-06	-3.196200e-09	-2.304418e+01	-2.244441e+02
1.260000e-06	-3.099180e-06	-3.180601e-09	-2.269220e+01	-2.230918e+02
1.270000e-06	-3.050812e-06	-3.159522e-09	-2.233805e+01	-2.217081e+02
1.280000e-06	-3.002106e-06	-3.131478e-09	-2.198142e+01	-2.202945e+02
1.290000e-06	-2.953152e-06	-3.110652e-09	-2.162298e+01	-2.188526e+02
1.300000e-06	-2.904000e-06	-3.092209e-09	-2.126309e+01	-2.173843e+02
1.310000e-06	-2.854471e-06	-3.071884e-09	-2.090044e+01	-2.158913e+02
1.320000e-06	-2.804435e-06	-3.053756e-09	-2.053408e+01	-2.143755e+02
1.330000e-06	-2.754182e-06	-3.037163e-09	-2.016612e+01	-2.128390e+02
1.340000e-06	-2.703722e-06	-3.018290e-09	-1.979666e+01	-2.112836e+02
1.350000e-06	-2.652858e-06	-2.997357e-09	-1.942423e+01	-2.097111e+02
1.360000e-06	-2.601560e-06	-2.976592e-09	-1.904862e+01	-2.081233e+02
1.370000e-06	-2.550029e-06	-2.953633e-09	-1.867132e+01	-2.065217e+02
1.380000e-06	-2.498333e-06	-2.925787e-09	-1.829280e+01	-2.049076e+02
1.390000e-06	-2.446477e-06	-2.899069e-09	-1.791311e+01	-2.032823e+02
1.400000e-06	-2.394517e-06	-2.879083e-09	-1.753266e+01	-2.016465e+02
1.410000e-06	-2.342355e-06	-2.857744e-09	-1.715073e+01	-2.000007e+02
1.420000e-06	-2.290041e-06	-2.838061e-09	-1.676768e+01	-1.983451e+02
1.430000e-06	-2.237604e-06	-2.817297e-09	-1.638374e+01	-1.966796e+02
1.440000e-06	-2.185067e-06	-2.793919e-09	-1.599906e+01	-1.950034e+02
1.450000e-06	-2.132398e-06	-2.767183e-09	-1.561342e+01	-1.933155e+02
1.460000e-06	-2.079510e-06	-2.741534e-09	-1.522618e+01	-1.916143e+02
1.470000e-06	-2.026445e-06	-2.711299e-09	-1.483763e+01	-1.898978e+02
1.480000e-06	-1.973265e-06	-2.680599e-09	-1.444825e+01	-1.881635e+02
1.490000e-06	-1.919952e-06	-2.653352e-09	-1.405789e+01	-1.864083e+02
1.500000e-06	-1.866456e-06	-2.625753e-09	-1.366620e+01	-1.846287e+02
1.510000e-06	-1.812775e-06	-2.593428e-09	-1.327314e+01	-1.828208e+02
1.520000e-06	-1.758987e-06	-2.559917e-09	-1.287931e+01	-1.809798e+02
1.530000e-06	-1.705063e-06	-2.526081e-09	-1.248447e+01	-1.791010e+02
1.540000e-06	-1.651023e-06	-2.494634e-09	-1.208879e+01	-1.771788e+02
1.550000e-06	-1.596909e-06	-2.459074e-09	-1.169257e+01	-1.752074e+02
1.560000e-06	-1.542757e-06	-2.422520e-09	-1.129607e+01	-1.731806e+02
1.570000e-06	-1.488564e-06	-2.385134e-09	-1.089927e+01	-1.710918e+02
1.580000e-06	-1.434324e-06	-2.350562e-09	-1.050212e+01	-1.689341e+02
1.590000e-06	-1.379945e-06	-2.315112e-09	-1.010396e+01	-1.667005e+02
1.600000e-06	-1.325373e-06	-2.275781e-09	-9.704387e+00	-1.643835e+02
1.610000e-06	-1.270741e-06	-2.231033e-09	-9.304371e+00	-1.619757e+02
1.620000e-06	-1.216060e-06	-2.187307e-09	-8.903996e+00	-1.594696e+02
1.630000e-06	-1.161188e-06	-2.150984e-09	-8.502222e+00	-1.568578e+02
1.640000e-06	-1.106132e-06	-2.112302e-09	-8.099100e+00	-1.541326e+02
1.650000e-06	-1.051136e-06	-2.067150e-09	-7.696419e+00	-1.512868e+02
1.660000e-06	-9.961383e-07	-2.020258e-09	-7.293726e+00	-1.483132e+02
1.670000e-06	-9.409971e-07	-1.978918e-09	-6.889983e+00	-1.452050e+02
1.680000e-06	-8.857056e-07	-1.932801e-09	-6.485138e+00	-1.419557e+02
1.690000e-06	-8.304326e-07	-1.880974e-09	-6.080429e+00	-1.385591e+02
1.700000e-06	-7.751775e-07	-1.829702e-09	-5.675851e+00	-1.350097e+02
1.710000e-06	-7.198487e-07	-1.779137e-09	-5.270733e+00	-1.313023e+02
1.720000e-06	-6.644624e-07	-1.723220e-09	-4.865195e+00	-1.274325e+02
1.730000e-06	-6.089397e-07	-1.665728e-09	-4.458658e+00	-1.233965e+02
1.740000e-06	-5.533998e-07	-1.609360e-09	-4.051995e+00	-1.191912e+02
1.750000e-06	-4.979023e-07	-1.549127e-09	-3.645641e+00	-1.148144e+02
1.760000e-06	-4.423388e-07	-1.486908e-09	-3.238806e+00	-1.102647e+02
1.770000e-06	-3.867388e-07	-1.424157e-09	-2.831702e+00	-1.055413e+02
1.780000e-06	-3.311211e-07	-1.355899e-09	-2.424469e+00	-1.006447e+02
1.790000e-06	-2.755497e-07	-1.284564e-09	-2.017575e+00	-9.557596e+01
1.800000e-06	-2.199863e-07	-1.212935e-09	-1.610740e+00	-9.033730e+01
1.810000e-06	-1.643587e-07	-1.136793e-09	-1.203435e+00	-8.493181e+01
1.820000e-06	-1.087146e-07	-1.058188e-09	-7.960084e-01	-7.936354e+01
1.830000e-06	-5.306253e-08	-9.774673e-10	-3.885240e-01	-7.363746e+01
1.840000e-06	2.541577e-09	-8.927999e-10	1.860943e-02	-6.775952e+01
1.850000e-06	5.811045e-08	-8.048942e-10	4.254848e-01	-6.173653e+01
1.860000e-06	1.136961e-07	-7.144764e-10	8.324828e-01	-5.557621e+01
1.870000e-06	1.692893e-07	-6.234070e-10	1.239536e+00	-4.928713e+01
1.880000e-06	2.249223e-07	-5.295577e-10	1.646882e+00	-4.287866e+01
1.890000e-06	2.805598e-07	-4.313491e-10	2.054259e+00	-3.636091e+01
1.900000e-06	3.361663e-07	-3.335541e-10	2.461410e+00	-2.974470e+01
1.910000e-06	3.917298e-07	-2.367534e-10	2.868246e+00	-2.304148e+01
1.920000e-06	4.472912e-07	-1.368081e-10	3.275067e+00	-1.626325e+01
1.930000e-06	5.028898e-07	-2.923754e-11	3.682160e+00	-9.422534e+00
1.940000e-06	5.584457e-07	8.121096e-11	4.088941e+00	-2.532242e+00
1.950000e-06	6.139171e-07	1.868964e-10	4.495102e+00	4.394374e+00
1.960000e-06	6.693472e-07	2.926594e-10	4.900961e+00	1.134381e+01
1.970000e-06	7.246989e-07	4.045525e-10	5.306247e+00	1.830242e+01
1.980000e-06	7.799556e-07	5.181349e-10	5.710836e+00	2.525646e+01
1.990000e-06	8.352427e-07	6.250505e-10	6.115648e+00	3.219220e+01
2.000000e-06	8.904492e-07	7.303789e-10	6.519870e+00	3.909605e+01
2.010000e-06	9.455521e-07	8.391961e-10	6.923334e+00	4.595458e+01
2.020000e-06	1.000593e-06	9.466630e-10	7.326342e+00	5.275463e+01
2.030000e-06	1.055631e-06	1.049029e-09	7.729330e+00	5.948344e+01
2.040000e-06	1.110689e-06	1.153231e-09	8.132465e+00	6.612865e+01
2.050000e-06	1.165579e-06	1.255923e-09	8.534369e+00	7.267844e+01
2.060000e-06	1.220330e-06	1.354490e-09	8.935260e+00	7.912158e+01
2.070000e-06	1.274953e-06	1.450370e-09	9.335205e+00	8.544748e+01
2.080000e-06	1.329418e-06	1.540311e-09	9.733999e+00	9.164630e+01
2.090000e-06	1.383835e-06	1.626569e-09	1.013244e+01	9.770893e+01
2.100000e-06	1.438192e-06	1.712103e-09	1.053044e+01	1.036271e+02
2.110000e-06	1.492463e-06	1.795781e-09	1.092782e+01	1.093934e+02
2.120000e-06	1.546660e-06	1.874728e-09	1.132465e+01	1.150014e+02
2.130000e-06	1.600743e-06	1.951536e-09	1.172064e+01	1.204453e+02
2.140000e-06	1.654728e-06	2.027311e-09	1.211592e+01	1.257207e+02
2.150000e-06	1.708650e-06	2.100188e-09	1.251074e+01	1.308237e+02
2.160000e-06	1.762448e-06	2.165509e-09	1.290465e+01	1.357516e+02
2.170000e-06	1.816036e-06	2.228924e-09	1.329702e+01	1.405026e+02
2.180000e-06	1.869440e-06	2.290830e-09	1.368804e+01	1.450758e+02
2.190000e-06	1.922785e-06	2.349702e-09	1.407864e+01	1.494713e+02
2.200000e-06	1.976006e-06	2.406044e-09	1.446832e+01	1.536899e+02
2.210000e-06	2.029056e-06	2.459924e-09	1.485675e+01	1.577335e+02
2.220000e-06	2.081879e-06	2.510946e-09	1.524352e+01	1.616047e+02
2.230000e-06	2.134546e-06	2.557218e-09	1.562915e+01	1.653067e+02
2.240000e-06	2.187108e-06	2.599526e-09	1.601401e+01	1.688436e+02
2.250000e-06	2.239465e-06	2.642051e-09	1.639737e+01	1.722202e+02
2.260000e-06	2.291690e-06	2.685773e-09	1.677976e+01	1.754417e+02
2.270000e-06	2.343782e-06	2.728995e-09	1.716117e+01	1.785140e+02
2.280000e-06	2.395640e-06	2.767586e-09	1.754088e+01	1.814434e+02
2.290000e-06	2.447353e-06	2.802868e-09	1.791952e+01	1.842366e+02
2.300000e-06	2.498932e-06	2.839007e-09	1.829719e+01	1.869007e+02
2.310000e-06	2.550304e-06	2.873791e-09	1.867333e+01	1.894428e+02
2.320000e-06	2.601478e-06	2.907490e-09	1.904802e+01	1.918705e+02
2.330000e-06	2.652356e-06	2.938537e-09	1.942056e+01	1.941913e+02
2.340000e-06	2.702859e-06	2.968751e-09	1.979034e+01	1.964129e+02
2.350000e-06	2.753048e-06	3.001944e-09	2.015782e+01	1.985428e+02
2.360000e-06	2.803027e-06	3.032818e-09	2.052377e+01	2.005886e+02
2.370000e-06	2.852552e-06	3.058031e-09	2.088639e+01	2.025575e+02
2.380000e-06	2.901677e-06	3.084573e-09	2.124609e+01	2.044568e+02
2.390000e-06	2.950562e-06	3.114510e-09	2.160402e+01	2.062933e+02
2.400000e-06	2.999136e-06	3.142379e-09	2.195968e+01	2.080736e+02
2.410000e-06	3.047479e-06	3.165025e-09	2.231364e+01	2.098040e+02
2.420000e-06	3.095620e-06	3.187444e-09	2.266614e+01	2.114901e+02
2.430000e-06	3.143677e-06	3.214713e-09	2.301801e+01	2.131376e+02
2.440000e-06	3.191579e-06	3.241739e-09	2.336875e+01	2.147512e+02
2.450000e-06	3.239221e-06	3.266490e-09	2.371758e+01	2.163356e+02
2.460000e-06	3.286700e-06	3.288052e-09	2.406522e+01	2.178946e+02
2.470000e-06	3.334054e-06	3.309980e-09	2.441195e+01	2.194318e+02
2.480000e-06	3.381211e-06	3.332277e-09	2.475723e+01	2.209502e+02
2.490000e-06	3.428102e-06	3.347257e-09	2.510057e+01	2.224523e+02
2.500000e-06	3.474646e-06	3.361315e-09	2.544137e+01	2.239400e+02
2.510000e-06	3.520825e-06	3.380095e-09	2.577949e+01	2.254150e+02
2.520000e-06	3.566766e-06	3.400198e-09	2.611586e+01	2.268782e+02
2.530000e-06	3.612549e-06	3.419240e-09	2.645109e+01	2.283303e+02
2.540000e-06	3.658137e-06	3.435950e-09	2.678489e+01	2.297716e+02
2.550000e-06	3.703515e-06	3.452507e-09	2.711714e+01	2.312018e+02
2.560000e-06	3.748626e-06	3.472946e-09	2.744745e+01	2.326205e+02
2.570000e-06	3.793408e-06	3.490172e-09	2.777534e+01	2.340268e+02
2.580000e-06	3.837915e-06	3.503062e-09	2.810122e+01	2.354196e+02
2.590000e-06	3.882180e-06	3.516922e-09	2.842533e+01	2.367977e+02
2.600000e-06	3.926246e-06	3.534740e-09	2.874798e+01	2.381594e+02
2.610000e-06	3.970225e-06	3.551182e-09	2.906999e+01	2.395031e+02
2.620000e-06	4.014089e-06	3.563680e-09	2.939117e+01	2.408271e+02
2.630000e-06	4.057771e-06	3.577825e-09	2.971101e+01	2.421295e+02
2.640000e-06	4.101158e-06	3.593980e-09	3.002869e+01	2.434085e+02
2.650000e-06	4.144193e-06	3.606087e-09	3.034379e+01	2.446622e+02
2.660000e-06	4.186832e-06	3.618166e-09	3.065599e+01	2.458887e+02
2.670000e-06	4.228978e-06	3.631804e-09	3.096459e+01	2.470865e+02
2.680000e-06	4.270576e-06	3.644230e-09	3.126917e+01	2.482539e+02
2.690000e-06	4.311684e-06	3.656430e-09	3.157015e+01	2.493894e+02
2.700000e-06	4.352375e-06	3.669445e-09	3.186810e+01	2.504919e+02
2.710000e-06	4.392724e-06	3.681116e-09	3.216353e+01	2.515602e+02
2.720000e-06	4.432789e-06	3.693195e-09	3.245689e+01	2.525936e+02
2.730000e-06	4.472606e-06	3.704904e-09	3.274843e+01	2.535913e+02
2.740000e-06	4.512275e-06	3.716481e-09	3.303889e+01	2.545531e+02
2.750000e-06	4.551642e-06	3.725033e-09	3.332713e+01	2.554788e+02
2.760000e-06	4.590764e-06	3.733556e-09	3.361358e+01	2.563686e+02
2.770000e-06	4.629602e-06	3.745830e-09	3.389795e+01	2.572228e+02
2.780000e-06	4.668023e-06	3.756403e-09	3.417927e+01	2.580422e+02
2.790000e-06	4.706154e-06	3.768423e-09	3.445847e+01	2.588276e+02
2.800000e-06	4.744000e-06	3.780055e-09	3.473558e+01	2.595800e+02
2.810000e-06	4.781561e-06	3.789726e-09	3.501060e+01	2.603009e+02
2.820000e-06	4.818749e-06	3.796322e-09	3.528289e+01	2.609918e+02
2.830000e-06	4.855514e-06	3.802837e-09	3.555208e+01	2.616544e+02
2.840000e-06	4.892014e-06	3.811571e-09	3.581934e+01	2.622905e+02
2.850000e-06	4.928322e-06	3.823197e-09	3.608518e+01	2.629022e+02
2.860000e-06	4.964372e-06	3.835492e-09	3.634914e+01	2.634914e+02
2.870000e-06	5.000217e-06	3.846683e-09	3.661159e+01	2.640604e+02
2.880000e-06	5.035826e-06	3.855552e-09	3.687232e+01	2.646114e+02
2.890000e-06	5.071137e-06	3.866170e-09	3.713087e+01	2.651466e+02
2.900000e-06	5.105928e-06	3.876620e-09	3.738561e+01	2.656683e+02
