# Temperatura_=_20.0
# Concentracion g/m^3_=_9000.0
# C_Vs_to_Am_M_A/Vsm_=_65563218390.804596
# pendiente_HvsI_1/m_=_3716.3
# ordenada_HvsI_A/m_=_1297.0
# frecuencia_Hz_=_300878.80585398496

Tiempo_(s)	Campo_(V.s)	Magnetizacion_(V.s)	Campo_(kA/m)	Magnetizacion_(A/m)
0.000000e+00	-5.375925e-06	-4.346392e-09	-3.829733e+01	-2.848461e+02
1.000000e-08	-5.374575e-06	-4.347075e-09	-3.828771e+01	-2.847857e+02
2.000000e-08	-5.371302e-06	-4.347555e-09	-3.826440e+01	-2.846807e+02
3.000000e-08	-5.366387e-06	-4.346797e-09	-3.822939e+01	-2.845323e+02
4.000000e-08	-5.359875e-06	-4.344621e-09	-3.818300e+01	-2.843429e+02
5.000000e-08	-5.351618e-06	-4.340030e-09	-3.812417e+01	-2.841153e+02
6.000000e-08	-5.341302e-06	-4.332983e-09	-3.805069e+01	-2.838527e+02
7.000000e-08	-5.329041e-06	-4.325215e-09	-3.796334e+01	-2.835587e+02
8.000000e-08	-5.314932e-06	-4.326416e-09	-3.786283e+01	-2.832368e+02
9.000000e-08	-5.298657e-06	-4.337178e-09	-3.774689e+01	-2.828904e+02
1.000000e-07	-5.280259e-06	-4.344941e-09	-3.761582e+01	-2.825223e+02
1.100000e-07	-5.259985e-06	-4.343894e-09	-3.747139e+01	-2.821349e+02
1.200000e-07	-5.237856e-06	-4.325599e-09	-3.731375e+01	-2.817298e+02
1.300000e-07	-5.213917e-06	-4.287771e-09	-3.714321e+01	-2.813078e+02
1.400000e-07	-5.188270e-06	-4.275673e-09	-3.696051e+01	-2.808688e+02
1.500000e-07	-5.161114e-06	-4.282490e-09	-3.676705e+01	-2.804118e+02
1.600000e-07	-5.132470e-06	-4.285072e-09	-3.656299e+01	-2.799346e+02
1.700000e-07	-5.102313e-06	-4.286638e-09	-3.634816e+01	-2.794344e+02
1.800000e-07	-5.070406e-06	-4.253490e-09	-3.612086e+01	-2.789075e+02
1.900000e-07	-5.036394e-06	-4.236732e-09	-3.587856e+01	-2.783496e+02
2.000000e-07	-5.000774e-06	-4.255782e-09	-3.562481e+01	-2.777561e+02
2.100000e-07	-4.963697e-06	-4.244478e-09	-3.536068e+01	-2.771224e+02
2.200000e-07	-4.924713e-06	-4.225916e-09	-3.508296e+01	-2.764440e+02
2.300000e-07	-4.883764e-06	-4.203132e-09	-3.479125e+01	-2.757171e+02
2.400000e-07	-4.840939e-06	-4.185546e-09	-3.448617e+01	-2.749387e+02
2.500000e-07	-4.796365e-06	-4.194972e-09	-3.416863e+01	-2.741067e+02
2.600000e-07	-4.750019e-06	-4.178826e-09	-3.383847e+01	-2.732203e+02
2.700000e-07	-4.701662e-06	-4.147527e-09	-3.349398e+01	-2.722801e+02
2.800000e-07	-4.651244e-06	-4.123092e-09	-3.313481e+01	-2.712876e+02
2.900000e-07	-4.599063e-06	-4.114428e-09	-3.276308e+01	-2.702453e+02
3.000000e-07	-4.545266e-06	-4.116316e-09	-3.237984e+01	-2.691564e+02
3.100000e-07	-4.489759e-06	-4.093202e-09	-3.198442e+01	-2.680246e+02
3.200000e-07	-4.432489e-06	-4.056408e-09	-3.157643e+01	-2.668532e+02
3.300000e-07	-4.373562e-06	-4.040050e-09	-3.115664e+01	-2.656452e+02
3.400000e-07	-4.313146e-06	-4.037145e-09	-3.072625e+01	-2.644027e+02
3.500000e-07	-4.251307e-06	-4.025007e-09	-3.028571e+01	-2.631268e+02
3.600000e-07	-4.188039e-06	-3.988553e-09	-2.983500e+01	-2.618173e+02
3.700000e-07	-4.123145e-06	-3.959913e-09	-2.937271e+01	-2.604726e+02
3.800000e-07	-4.056614e-06	-3.949070e-09	-2.889875e+01	-2.590901e+02
3.900000e-07	-3.988631e-06	-3.937004e-09	-2.841445e+01	-2.576660e+02
4.000000e-07	-3.919221e-06	-3.915348e-09	-2.791998e+01	-2.561958e+02
4.100000e-07	-3.848573e-06	-3.879637e-09	-2.741669e+01	-2.546748e+02
4.200000e-07	-3.776671e-06	-3.855396e-09	-2.690447e+01	-2.530981e+02
4.300000e-07	-3.703194e-06	-3.836836e-09	-2.638104e+01	-2.514608e+02
4.400000e-07	-3.628080e-06	-3.817935e-09	-2.584594e+01	-2.497589e+02
4.500000e-07	-3.551487e-06	-3.783442e-09	-2.530029e+01	-2.479886e+02
4.600000e-07	-3.473435e-06	-3.745064e-09	-2.474427e+01	-2.461469e+02
4.700000e-07	-3.393959e-06	-3.722672e-09	-2.417809e+01	-2.442314e+02
4.800000e-07	-3.313192e-06	-3.699632e-09	-2.360271e+01	-2.422399e+02
4.900000e-07	-3.231229e-06	-3.665840e-09	-2.301882e+01	-2.401705e+02
5.000000e-07	-3.148326e-06	-3.626671e-09	-2.242823e+01	-2.380213e+02
5.100000e-07	-3.064520e-06	-3.595270e-09	-2.183121e+01	-2.357902e+02
5.200000e-07	-2.979752e-06	-3.564056e-09	-2.122734e+01	-2.334746e+02
5.300000e-07	-2.894033e-06	-3.526481e-09	-2.061668e+01	-2.310712e+02
5.400000e-07	-2.807389e-06	-3.482685e-09	-1.999944e+01	-2.285765e+02
5.500000e-07	-2.719842e-06	-3.442211e-09	-1.937577e+01	-2.259862e+02
5.600000e-07	-2.631116e-06	-3.404418e-09	-1.874370e+01	-2.232954e+02
5.700000e-07	-2.541200e-06	-3.362852e-09	-1.810315e+01	-2.204989e+02
5.800000e-07	-2.450345e-06	-3.316804e-09	-1.745592e+01	-2.175914e+02
5.900000e-07	-2.358649e-06	-3.268023e-09	-1.680269e+01	-2.145671e+02
6.000000e-07	-2.266229e-06	-3.220859e-09	-1.614430e+01	-2.114202e+02
6.100000e-07	-2.173096e-06	-3.173341e-09	-1.548083e+01	-2.081446e+02
6.200000e-07	-2.079195e-06	-3.119801e-09	-1.481189e+01	-2.047342e+02
6.300000e-07	-1.984637e-06	-3.058265e-09	-1.413828e+01	-2.011822e+02
6.400000e-07	-1.889500e-06	-3.000493e-09	-1.346053e+01	-1.974812e+02
6.500000e-07	-1.793654e-06	-2.944500e-09	-1.277774e+01	-1.936229e+02
6.600000e-07	-1.696913e-06	-2.881267e-09	-1.208857e+01	-1.895979e+02
6.700000e-07	-1.599316e-06	-2.812688e-09	-1.139330e+01	-1.853949e+02
6.800000e-07	-1.501085e-06	-2.744368e-09	-1.069352e+01	-1.810011e+02
6.900000e-07	-1.402404e-06	-2.677262e-09	-9.990527e+00	-1.764011e+02
7.000000e-07	-1.303349e-06	-2.605299e-09	-9.284875e+00	-1.715774e+02
7.100000e-07	-1.203821e-06	-2.525589e-09	-8.575855e+00	-1.665096e+02
7.200000e-07	-1.103826e-06	-2.441441e-09	-7.863502e+00	-1.611745e+02
7.300000e-07	-1.003460e-06	-2.358331e-09	-7.148508e+00	-1.555462e+02
7.400000e-07	-9.027804e-07	-2.270101e-09	-6.431281e+00	-1.495960e+02
7.500000e-07	-8.018346e-07	-2.171089e-09	-5.712157e+00	-1.432930e+02
7.600000e-07	-7.005878e-07	-2.064343e-09	-4.990889e+00	-1.366041e+02
7.700000e-07	-5.990836e-07	-1.955919e-09	-4.267788e+00	-1.294954e+02
7.800000e-07	-4.973978e-07	-1.844631e-09	-3.543392e+00	-1.219326e+02
7.900000e-07	-3.955425e-07	-1.722439e-09	-2.817790e+00	-1.138829e+02
8.000000e-07	-2.934998e-07	-1.588640e-09	-2.090851e+00	-1.053163e+02
8.100000e-07	-1.913281e-07	-1.448466e-09	-1.362994e+00	-9.620757e+01
8.200000e-07	-8.910113e-08	-1.303623e-09	-6.347440e-01	-8.653850e+01
8.300000e-07	1.316902e-08	-1.146790e-09	9.381424e-02	-7.629980e+01
8.400000e-07	1.154487e-07	-9.772319e-10	8.224406e-01	-6.549335e+01
8.500000e-07	2.176745e-07	-8.003217e-10	1.550682e+00	-5.413411e+01
8.600000e-07	3.197908e-07	-6.210269e-10	2.278145e+00	-4.225156e+01
8.700000e-07	4.217643e-07	-4.355002e-10	3.004590e+00	-2.989064e+01
8.800000e-07	5.235979e-07	-2.407213e-10	3.730038e+00	-1.711200e+01
8.900000e-07	6.252564e-07	-4.075719e-11	4.454239e+00	-3.991318e+00
9.000000e-07	7.266610e-07	1.627933e-10	5.176631e+00	9.382125e+00
9.100000e-07	8.277729e-07	3.670525e-10	5.896938e+00	2.290788e+01
9.200000e-07	9.285791e-07	5.716436e-10	6.615067e+00	3.647746e+01
9.300000e-07	1.029108e-06	7.773076e-10	7.331221e+00	4.997817e+01
9.400000e-07	1.129296e-06	9.836415e-10	8.044944e+00	6.329730e+01
9.500000e-07	1.229077e-06	1.183839e-09	8.755775e+00	7.632651e+01
9.600000e-07	1.328476e-06	1.375568e-09	9.463879e+00	8.896604e+01
9.700000e-07	1.427484e-06	1.560000e-09	1.016920e+01	1.011285e+02
9.800000e-07	1.526003e-06	1.737160e-09	1.087103e+01	1.127420e+02
9.900000e-07	1.623946e-06	1.904996e-09	1.156877e+01	1.237522e+02
1.000000e-06	1.721164e-06	2.060768e-09	1.226133e+01	1.341235e+02
1.010000e-06	1.817531e-06	2.207985e-09	1.294784e+01	1.438391e+02
1.020000e-06	1.913163e-06	2.346434e-09	1.362910e+01	1.528998e+02
1.030000e-06	2.008158e-06	2.476284e-09	1.430583e+01	1.613219e+02
1.040000e-06	2.102512e-06	2.596166e-09	1.497800e+01	1.691347e+02
1.050000e-06	2.196168e-06	2.704374e-09	1.564519e+01	1.763771e+02
1.060000e-06	2.289058e-06	2.804516e-09	1.630693e+01	1.830939e+02
1.070000e-06	2.381177e-06	2.898594e-09	1.696317e+01	1.893328e+02
1.080000e-06	2.472609e-06	2.986268e-09	1.761452e+01	1.951411e+02
1.090000e-06	2.563341e-06	3.067107e-09	1.826088e+01	2.005631e+02
1.100000e-06	2.653052e-06	3.143342e-09	1.889997e+01	2.056384e+02
1.110000e-06	2.741514e-06	3.216289e-09	1.953016e+01	2.104011e+02
1.120000e-06	2.828898e-06	3.285785e-09	2.015267e+01	2.148788e+02
1.130000e-06	2.915386e-06	3.349812e-09	2.076880e+01	2.190936e+02
1.140000e-06	3.000928e-06	3.408950e-09	2.137819e+01	2.230625e+02
1.150000e-06	3.085429e-06	3.463290e-09	2.198016e+01	2.267987e+02
1.160000e-06	3.168979e-06	3.515907e-09	2.257536e+01	2.303130e+02
1.170000e-06	3.251625e-06	3.566973e-09	2.316412e+01	2.336151e+02
1.180000e-06	3.333055e-06	3.611426e-09	2.374422e+01	2.367143e+02
1.190000e-06	3.413132e-06	3.651058e-09	2.431467e+01	2.396211e+02
1.200000e-06	3.491999e-06	3.688649e-09	2.487651e+01	2.423469e+02
1.210000e-06	3.569637e-06	3.727653e-09	2.542959e+01	2.449043e+02
1.220000e-06	3.646013e-06	3.764471e-09	2.597368e+01	2.473073e+02
1.230000e-06	3.721114e-06	3.797374e-09	2.650869e+01	2.495700e+02
1.240000e-06	3.794677e-06	3.826644e-09	2.703275e+01	2.517069e+02
1.250000e-06	3.866606e-06	3.856255e-09	2.754516e+01	2.537314e+02
1.260000e-06	3.937100e-06	3.886807e-09	2.804735e+01	2.556558e+02
1.270000e-06	4.006206e-06	3.913302e-09	2.853965e+01	2.574904e+02
1.280000e-06	4.074054e-06	3.934777e-09	2.902299e+01	2.592438e+02
1.290000e-06	4.140652e-06	3.957329e-09	2.949742e+01	2.609220e+02
1.300000e-06	4.205581e-06	3.984715e-09	2.995997e+01	2.625294e+02
1.310000e-06	4.268826e-06	4.009404e-09	3.041051e+01	2.640687e+02
1.320000e-06	4.330642e-06	4.029633e-09	3.085088e+01	2.655411e+02
1.330000e-06	4.391064e-06	4.049564e-09	3.128132e+01	2.669474e+02
1.340000e-06	4.450113e-06	4.071735e-09	3.170198e+01	2.682876e+02
1.350000e-06	4.507562e-06	4.092634e-09	3.211124e+01	2.695622e+02
1.360000e-06	4.563249e-06	4.110488e-09	3.250795e+01	2.707716e+02
1.370000e-06	4.617347e-06	4.127452e-09	3.289333e+01	2.719169e+02
1.380000e-06	4.669825e-06	4.144140e-09	3.326718e+01	2.729996e+02
1.390000e-06	4.720319e-06	4.159055e-09	3.362689e+01	2.740215e+02
1.400000e-06	4.768666e-06	4.173983e-09	3.397130e+01	2.749849e+02
1.410000e-06	4.815209e-06	4.189106e-09	3.430287e+01	2.758921e+02
1.420000e-06	4.860168e-06	4.202733e-09	3.462315e+01	2.767456e+02
1.430000e-06	4.903573e-06	4.215309e-09	3.493237e+01	2.775476e+02
1.440000e-06	4.945229e-06	4.226965e-09	3.522912e+01	2.783003e+02
1.450000e-06	4.984879e-06	4.238754e-09	3.551158e+01	2.790058e+02
1.460000e-06	5.022814e-06	4.248848e-09	3.578183e+01	2.796663e+02
1.470000e-06	5.059214e-06	4.257337e-09	3.604113e+01	2.802838e+02
1.480000e-06	5.093949e-06	4.266866e-09	3.628858e+01	2.808605e+02
1.490000e-06	5.126778e-06	4.276521e-09	3.652245e+01	2.813987e+02
1.500000e-06	5.157704e-06	4.284240e-09	3.674276e+01	2.819009e+02
1.510000e-06	5.186905e-06	4.290811e-09	3.695079e+01	2.823698e+02
1.520000e-06	5.214405e-06	4.298237e-09	3.714669e+01	2.828078e+02
1.530000e-06	5.240063e-06	4.305839e-09	3.732948e+01	2.832174e+02
1.540000e-06	5.263651e-06	4.312456e-09	3.749751e+01	2.836005e+02
1.550000e-06	5.285325e-06	4.319128e-09	3.765191e+01	2.839588e+02
1.560000e-06	5.305352e-06	4.326051e-09	3.779458e+01	2.842928e+02
1.570000e-06	5.323630e-06	4.331628e-09	3.792479e+01	2.846025e+02
1.580000e-06	5.339911e-06	4.335706e-09	3.804078e+01	2.848870e+02
1.590000e-06	5.354213e-06	4.340204e-09	3.814266e+01	2.851447e+02
1.600000e-06	5.366608e-06	4.345565e-09	3.823096e+01	2.853729e+02
1.610000e-06	5.376887e-06	4.349305e-09	3.830419e+01	2.855689e+02
1.620000e-06	5.384990e-06	4.350713e-09	3.836191e+01	2.857296e+02
1.630000e-06	5.391141e-06	4.352800e-09	3.840573e+01	2.858518e+02
1.640000e-06	5.395539e-06	4.355935e-09	3.843706e+01	2.859329e+02
1.650000e-06	5.398162e-06	4.358219e-09	3.845575e+01	2.859706e+02
1.660000e-06	5.398759e-06	4.357958e-09	3.846000e+01	2.859635e+02
1.670000e-06	5.397418e-06	4.355932e-09	3.845045e+01	2.859112e+02
1.680000e-06	5.394411e-06	4.352890e-09	3.842902e+01	2.858139e+02
1.690000e-06	5.389822e-06	4.349753e-09	3.839634e+01	2.856731e+02
1.700000e-06	5.383448e-06	4.347129e-09	3.835093e+01	2.854907e+02
1.710000e-06	5.375160e-06	4.343986e-09	3.829188e+01	2.852695e+02
1.720000e-06	5.365206e-06	4.340142e-09	3.822098e+01	2.850128e+02
1.730000e-06	5.353637e-06	4.337580e-09	3.813856e+01	2.847241e+02
1.740000e-06	5.340215e-06	4.321003e-09	3.804294e+01	2.844068e+02
1.750000e-06	5.324656e-06	4.303899e-09	3.793210e+01	2.840644e+02
1.760000e-06	5.306693e-06	4.282700e-09	3.780414e+01	2.836998e+02
1.770000e-06	5.286164e-06	4.276561e-09	3.765789e+01	2.833156e+02
1.780000e-06	5.263319e-06	4.308989e-09	3.749514e+01	2.829135e+02
1.790000e-06	5.239035e-06	4.323458e-09	3.732215e+01	2.824944e+02
1.800000e-06	5.213965e-06	4.309169e-09	3.714356e+01	2.820584e+02
1.810000e-06	5.187538e-06	4.293107e-09	3.695530e+01	2.816046e+02
1.820000e-06	5.158974e-06	4.259607e-09	3.675180e+01	2.811311e+02
1.830000e-06	5.128703e-06	4.276666e-09	3.653616e+01	2.806351e+02
1.840000e-06	5.096829e-06	4.297455e-09	3.630909e+01	2.801131e+02
1.850000e-06	5.062814e-06	4.260679e-09	3.606678e+01	2.795610e+02
1.860000e-06	5.027019e-06	4.257599e-09	3.581178e+01	2.789741e+02
1.870000e-06	4.989665e-06	4.243900e-09	3.554567e+01	2.783478e+02
1.880000e-06	4.950433e-06	4.227235e-09	3.526619e+01	2.776776e+02
1.890000e-06	4.909381e-06	4.246401e-09	3.497374e+01	2.769595e+02
1.900000e-06	4.866539e-06	4.211680e-09	3.466854e+01	2.761903e+02
1.910000e-06	4.822116e-06	4.176715e-09	3.435207e+01	2.753678e+02
1.920000e-06	4.776185e-06	4.182151e-09	3.402487e+01	2.744911e+02
1.930000e-06	4.728241e-06	4.173667e-09	3.368333e+01	2.735603e+02
1.940000e-06	4.678486e-06	4.174603e-09	3.332888e+01	2.725768e+02
1.950000e-06	4.627199e-06	4.124361e-09	3.296352e+01	2.715431e+02
1.960000e-06	4.574052e-06	4.101775e-09	3.258491e+01	2.704622e+02
1.970000e-06	4.518859e-06	4.119144e-09	3.219172e+01	2.693376e+02
1.980000e-06	4.461901e-06	4.090160e-09	3.178596e+01	2.681729e+02
1.990000e-06	4.403515e-06	4.071119e-09	3.137003e+01	2.669712e+02
2.000000e-06	4.343643e-06	4.039220e-09	3.094350e+01	2.657346e+02
2.010000e-06	4.282313e-06	4.027983e-09	3.050660e+01	2.644646e+02
2.020000e-06	4.219460e-06	4.021914e-09	3.005884e+01	2.631610e+02
2.030000e-06	4.154853e-06	3.992278e-09	2.959859e+01	2.618227e+02
2.040000e-06	4.088604e-06	3.973233e-09	2.912664e+01	2.604470e+02
2.050000e-06	4.021034e-06	3.935659e-09	2.864528e+01	2.590305e+02
2.060000e-06	3.952186e-06	3.925312e-09	2.815482e+01	2.575689e+02
2.070000e-06	3.881711e-06	3.911399e-09	2.765276e+01	2.560572e+02
2.080000e-06	3.809625e-06	3.878348e-09	2.713923e+01	2.544906e+02
2.090000e-06	3.736254e-06	3.846433e-09	2.661655e+01	2.528644e+02
2.100000e-06	3.661581e-06	3.818852e-09	2.608459e+01	2.511742e+02
2.110000e-06	3.585503e-06	3.814626e-09	2.554262e+01	2.494162e+02
2.120000e-06	3.507832e-06	3.776941e-09	2.498931e+01	2.475874e+02
2.130000e-06	3.428657e-06	3.736024e-09	2.442527e+01	2.456851e+02
2.140000e-06	3.348255e-06	3.710943e-09	2.385250e+01	2.437072e+02
2.150000e-06	3.266670e-06	3.684065e-09	2.327130e+01	2.416517e+02
2.160000e-06	3.184001e-06	3.656219e-09	2.268238e+01	2.395168e+02
2.170000e-06	3.100362e-06	3.617309e-09	2.208655e+01	2.373004e+02
2.180000e-06	3.015728e-06	3.584229e-09	2.148362e+01	2.350000e+02
2.190000e-06	2.929873e-06	3.547309e-09	2.087200e+01	2.326124e+02
2.200000e-06	2.842820e-06	3.513757e-09	2.025185e+01	2.301342e+02
2.210000e-06	2.754757e-06	3.475269e-09	1.962450e+01	2.275612e+02
2.220000e-06	2.665704e-06	3.427496e-09	1.899010e+01	2.248885e+02
2.230000e-06	2.575760e-06	3.383885e-09	1.834935e+01	2.221112e+02
2.240000e-06	2.484963e-06	3.341920e-09	1.770253e+01	2.192238e+02
2.250000e-06	2.393389e-06	3.301335e-09	1.705017e+01	2.162207e+02
2.260000e-06	2.301231e-06	3.249476e-09	1.639365e+01	2.130960e+02
2.270000e-06	2.208382e-06	3.200855e-09	1.573220e+01	2.098438e+02
2.280000e-06	2.114503e-06	3.157955e-09	1.506342e+01	2.064578e+02
2.290000e-06	2.019596e-06	3.109370e-09	1.438732e+01	2.029315e+02
2.300000e-06	1.923958e-06	3.051303e-09	1.370601e+01	1.992575e+02
2.310000e-06	1.827692e-06	2.990805e-09	1.302022e+01	1.954279e+02
2.320000e-06	1.730785e-06	2.932554e-09	1.232987e+01	1.914333e+02
2.330000e-06	1.633313e-06	2.868493e-09	1.163549e+01	1.872629e+02
2.340000e-06	1.535353e-06	2.800108e-09	1.093764e+01	1.829041e+02
2.350000e-06	1.436810e-06	2.730066e-09	1.023564e+01	1.783420e+02
2.360000e-06	1.337781e-06	2.661227e-09	9.530166e+00	1.735596e+02
2.370000e-06	1.238425e-06	2.587904e-09	8.822368e+00	1.685368e+02
2.380000e-06	1.138728e-06	2.506483e-09	8.112140e+00	1.632511e+02
2.390000e-06	1.038716e-06	2.420255e-09	7.399668e+00	1.576771e+02
2.400000e-06	9.384562e-07	2.331100e-09	6.685430e+00	1.517865e+02
2.410000e-06	8.379313e-07	2.239038e-09	5.969305e+00	1.455488e+02
2.420000e-06	7.371165e-07	2.138706e-09	5.251114e+00	1.389311e+02
2.430000e-06	6.359614e-07	2.028252e-09	4.530500e+00	1.318998e+02
2.440000e-06	5.344546e-07	1.913252e-09	3.807379e+00	1.244204e+02
2.450000e-06	4.326485e-07	1.794960e-09	3.082127e+00	1.164599e+02
2.460000e-06	3.306684e-07	1.668039e-09	2.355635e+00	1.079875e+02
2.470000e-06	2.285735e-07	1.529833e-09	1.628325e+00	9.897702e+01
2.480000e-06	1.263277e-07	1.383882e-09	8.999411e-01	8.940888e+01
2.490000e-06	2.397059e-08	1.232542e-09	1.707632e-01	7.927198e+01
2.500000e-06	-7.832155e-08	1.072751e-09	-5.579517e-01	6.856611e+01
2.510000e-06	-1.804748e-07	8.983028e-10	-1.285677e+00	5.730374e+01
2.520000e-06	-2.825000e-07	7.122402e-10	-2.012490e+00	4.551168e+01
2.530000e-06	-3.843700e-07	5.241797e-10	-2.738198e+00	3.323207e+01
2.540000e-06	-4.861144e-07	3.333658e-10	-3.463011e+00	2.052277e+01
2.550000e-06	-5.875564e-07	1.339562e-10	-4.185669e+00	7.456876e+00
2.560000e-06	-6.886237e-07	-7.187800e-11	-4.905659e+00	-5.878627e+00
2.570000e-06	-7.893761e-07	-2.795784e-10	-5.623404e+00	-1.938507e+01
2.580000e-06	-8.898501e-07	-4.868617e-10	-6.339167e+00	-3.295513e+01
2.590000e-06	-9.900626e-07	-6.908400e-10	-7.053067e+00	-4.647658e+01
2.600000e-06	-1.089990e-06	-8.932805e-10	-7.764936e+00	-5.983638e+01
2.610000e-06	-1.189654e-06	-1.095720e-09	-8.474927e+00	-7.292509e+01
2.620000e-06	-1.288993e-06	-1.291709e-09	-9.182602e+00	-8.564114e+01
2.630000e-06	-1.387849e-06	-1.476083e-09	-9.886843e+00	-9.789467e+01
2.640000e-06	-1.486125e-06	-1.653162e-09	-1.058695e+01	-1.096108e+02
2.650000e-06	-1.583918e-06	-1.824197e-09	-1.128361e+01	-1.207320e+02
2.660000e-06	-1.681244e-06	-1.985298e-09	-1.197695e+01	-1.312193e+02
2.670000e-06	-1.778021e-06	-2.135457e-09	-1.266637e+01	-1.410525e+02
2.680000e-06	-1.874306e-06	-2.275716e-09	-1.335229e+01	-1.502295e+02
2.690000e-06	-1.970032e-06	-2.407431e-09	-1.403423e+01	-1.587639e+02
2.700000e-06	-2.065010e-06	-2.531651e-09	-1.471084e+01	-1.666830e+02
2.710000e-06	-2.159030e-06	-2.647013e-09	-1.538063e+01	-1.740242e+02
2.720000e-06	-2.252033e-06	-2.751027e-09	-1.604317e+01	-1.808316e+02
2.730000e-06	-2.344217e-06	-2.846057e-09	-1.669987e+01	-1.871524e+02
2.740000e-06	-2.435657e-06	-2.936017e-09	-1.735128e+01	-1.930343e+02
2.750000e-06	-2.526221e-06	-3.020692e-09	-1.799644e+01	-1.985223e+02
2.760000e-06	-2.615873e-06	-3.099357e-09	-1.863511e+01	-2.036570e+02
2.770000e-06	-2.704665e-06	-3.172899e-09	-1.926766e+01	-2.084734e+02
2.780000e-06	-2.792686e-06	-3.242205e-09	-1.989470e+01	-2.130004e+02
2.790000e-06	-2.879733e-06	-3.309026e-09	-2.051482e+01	-2.172609e+02
2.800000e-06	-2.965477e-06	-3.373462e-09	-2.112564e+01	-2.212727e+02
2.810000e-06	-3.050014e-06	-3.433233e-09	-2.172787e+01	-2.250497e+02
2.820000e-06	-3.133582e-06	-3.488113e-09	-2.232320e+01	-2.286031e+02
2.830000e-06	-3.216226e-06	-3.539127e-09	-2.291194e+01	-2.319424e+02
2.840000e-06	-3.297819e-06	-3.587970e-09	-2.349320e+01	-2.350773e+02
2.850000e-06	-3.378358e-06	-3.635112e-09	-2.406695e+01	-2.380178e+02
2.860000e-06	-3.457754e-06	-3.678875e-09	-2.463256e+01	-2.407751e+02
2.870000e-06	-3.535660e-06	-3.717628e-09	-2.518755e+01	-2.433617e+02
2.880000e-06	-3.611994e-06	-3.753828e-09	-2.573134e+01	-2.457914e+02
2.890000e-06	-3.686886e-06	-3.790735e-09	-2.626486e+01	-2.480782e+02
2.900000e-06	-3.760408e-06	-3.826362e-09	-2.678862e+01	-2.502366e+02
2.910000e-06	-3.832686e-06	-3.858037e-09	-2.730352e+01	-2.522804e+02
2.920000e-06	-3.903496e-06	-3.888354e-09	-2.780796e+01	-2.542219e+02
2.930000e-06	-3.972673e-06	-3.920440e-09	-2.830076e+01	-2.560720e+02
2.940000e-06	-4.040485e-06	-3.949534e-09	-2.878385e+01	-2.578395e+02
