# Temperatura_=_20.0
# Concentracion g/m^3_=_9000.0
# C_Vs_to_Am_M_A/Vsm_=_65563218390.804596
# pendiente_HvsI_1/m_=_3716.3
# ordenada_HvsI_A/m_=_1297.0
# frecuencia_Hz_=_300879.73956134834

Tiempo_(s)	Campo_(V.s)	Magnetizacion_(V.s)	Campo_(kA/m)	Magnetizacion_(A/m)
0.000000e+00	-5.359519e-06	-4.370924e-09	-3.829820e+01	-2.865934e+02
1.000000e-08	-5.358086e-06	-4.373354e-09	-3.828796e+01	-2.865427e+02
2.000000e-08	-5.354782e-06	-4.374404e-09	-3.826434e+01	-2.864561e+02
3.000000e-08	-5.349829e-06	-4.373450e-09	-3.822896e+01	-2.863326e+02
4.000000e-08	-5.343230e-06	-4.369261e-09	-3.818180e+01	-2.861713e+02
5.000000e-08	-5.334963e-06	-4.361499e-09	-3.812273e+01	-2.859716e+02
6.000000e-08	-5.324731e-06	-4.353486e-09	-3.804961e+01	-2.857333e+02
7.000000e-08	-5.312507e-06	-4.343775e-09	-3.796225e+01	-2.854569e+02
8.000000e-08	-5.298350e-06	-4.341435e-09	-3.786109e+01	-2.851437e+02
9.000000e-08	-5.282020e-06	-4.368491e-09	-3.774441e+01	-2.847962e+02
1.000000e-07	-5.263613e-06	-4.383416e-09	-3.761287e+01	-2.844177e+02
1.100000e-07	-5.243256e-06	-4.366955e-09	-3.746740e+01	-2.840122e+02
1.200000e-07	-5.221042e-06	-4.343075e-09	-3.730867e+01	-2.835843e+02
1.300000e-07	-5.197149e-06	-4.290183e-09	-3.713793e+01	-2.831386e+02
1.400000e-07	-5.171625e-06	-4.278720e-09	-3.695554e+01	-2.826791e+02
1.500000e-07	-5.144550e-06	-4.344563e-09	-3.676207e+01	-2.822090e+02
1.600000e-07	-5.115943e-06	-4.310289e-09	-3.655765e+01	-2.817298e+02
1.700000e-07	-5.085842e-06	-4.270898e-09	-3.634255e+01	-2.812413e+02
1.800000e-07	-5.053983e-06	-4.282851e-09	-3.611489e+01	-2.807412e+02
1.900000e-07	-5.020031e-06	-4.251059e-09	-3.587228e+01	-2.802252e+02
2.000000e-07	-4.984511e-06	-4.288317e-09	-3.561846e+01	-2.796873e+02
2.100000e-07	-4.947492e-06	-4.293253e-09	-3.535393e+01	-2.791202e+02
2.200000e-07	-4.908606e-06	-4.217137e-09	-3.507605e+01	-2.785161e+02
2.300000e-07	-4.867873e-06	-4.214942e-09	-3.478498e+01	-2.778669e+02
2.400000e-07	-4.825203e-06	-4.244814e-09	-3.448007e+01	-2.771654e+02
2.500000e-07	-4.780740e-06	-4.238163e-09	-3.416235e+01	-2.764058e+02
2.600000e-07	-4.734591e-06	-4.201916e-09	-3.383257e+01	-2.755839e+02
2.700000e-07	-4.686457e-06	-4.148256e-09	-3.348861e+01	-2.746979e+02
2.800000e-07	-4.636218e-06	-4.160049e-09	-3.312962e+01	-2.737479e+02
2.900000e-07	-4.584160e-06	-4.173015e-09	-3.275762e+01	-2.727357e+02
3.000000e-07	-4.530432e-06	-4.142325e-09	-3.237368e+01	-2.716650e+02
3.100000e-07	-4.475046e-06	-4.111634e-09	-3.197791e+01	-2.705401e+02
3.200000e-07	-4.417913e-06	-4.090299e-09	-3.156964e+01	-2.693655e+02
3.300000e-07	-4.359077e-06	-4.087869e-09	-3.114921e+01	-2.681455e+02
3.400000e-07	-4.298789e-06	-4.077121e-09	-3.071840e+01	-2.668832e+02
3.500000e-07	-4.237126e-06	-4.057192e-09	-3.027777e+01	-2.655807e+02
3.600000e-07	-4.174019e-06	-4.013043e-09	-2.982682e+01	-2.642383e+02
3.700000e-07	-4.109237e-06	-3.987498e-09	-2.936390e+01	-2.628550e+02
3.800000e-07	-4.042827e-06	-3.996282e-09	-2.888934e+01	-2.614284e+02
3.900000e-07	-3.974981e-06	-3.971453e-09	-2.840452e+01	-2.599552e+02
4.000000e-07	-3.905715e-06	-3.927798e-09	-2.790957e+01	-2.584318e+02
4.100000e-07	-3.835180e-06	-3.906362e-09	-2.740553e+01	-2.568542e+02
4.200000e-07	-3.763493e-06	-3.902275e-09	-2.689327e+01	-2.552191e+02
4.300000e-07	-3.690289e-06	-3.878752e-09	-2.637017e+01	-2.535236e+02
4.400000e-07	-3.615300e-06	-3.837860e-09	-2.583431e+01	-2.517657e+02
4.500000e-07	-3.538810e-06	-3.809997e-09	-2.528773e+01	-2.499437e+02
4.600000e-07	-3.461012e-06	-3.786393e-09	-2.473179e+01	-2.480569e+02
4.700000e-07	-3.381793e-06	-3.756370e-09	-2.416571e+01	-2.461041e+02
4.800000e-07	-3.301246e-06	-3.725353e-09	-2.359013e+01	-2.440842e+02
4.900000e-07	-3.219520e-06	-3.689393e-09	-2.300613e+01	-2.419954e+02
5.000000e-07	-3.136726e-06	-3.655734e-09	-2.241450e+01	-2.398348e+02
5.100000e-07	-3.053075e-06	-3.627414e-09	-2.181675e+01	-2.375984e+02
5.200000e-07	-2.968537e-06	-3.595198e-09	-2.121265e+01	-2.352809e+02
5.300000e-07	-2.882970e-06	-3.551286e-09	-2.060121e+01	-2.328761e+02
5.400000e-07	-2.796408e-06	-3.508440e-09	-1.998265e+01	-2.303770e+02
5.500000e-07	-2.709038e-06	-3.476443e-09	-1.935832e+01	-2.277759e+02
5.600000e-07	-2.620735e-06	-3.439585e-09	-1.872732e+01	-2.250653e+02
5.700000e-07	-2.531190e-06	-3.391051e-09	-1.808745e+01	-2.222380e+02
5.800000e-07	-2.440478e-06	-3.337892e-09	-1.743923e+01	-2.192876e+02
5.900000e-07	-2.348996e-06	-3.294501e-09	-1.678552e+01	-2.162082e+02
6.000000e-07	-2.256861e-06	-3.251204e-09	-1.612714e+01	-2.129950e+02
6.100000e-07	-2.163988e-06	-3.196916e-09	-1.546349e+01	-2.096438e+02
6.200000e-07	-2.070317e-06	-3.135543e-09	-1.479413e+01	-2.061508e+02
6.300000e-07	-1.975861e-06	-3.076967e-09	-1.411916e+01	-2.025122e+02
6.400000e-07	-1.880843e-06	-3.023667e-09	-1.344018e+01	-1.987234e+02
6.500000e-07	-1.785352e-06	-2.965556e-09	-1.275782e+01	-1.947789e+02
6.600000e-07	-1.689201e-06	-2.899286e-09	-1.207074e+01	-1.906713e+02
6.700000e-07	-1.592038e-06	-2.827927e-09	-1.137643e+01	-1.863914e+02
6.800000e-07	-1.493911e-06	-2.759531e-09	-1.067523e+01	-1.819273e+02
6.900000e-07	-1.395230e-06	-2.691389e-09	-9.970073e+00	-1.772644e+02
7.000000e-07	-1.296228e-06	-2.617106e-09	-9.262624e+00	-1.723853e+02
7.100000e-07	-1.196914e-06	-2.534287e-09	-8.552942e+00	-1.672696e+02
7.200000e-07	-1.097274e-06	-2.450083e-09	-7.840928e+00	-1.618939e+02
7.300000e-07	-9.973035e-07	-2.370909e-09	-7.126559e+00	-1.562320e+02
7.400000e-07	-8.969969e-07	-2.284193e-09	-6.409785e+00	-1.502550e+02
7.500000e-07	-7.963706e-07	-2.181879e-09	-5.690727e+00	-1.439316e+02
7.600000e-07	-6.954316e-07	-2.073644e-09	-4.969434e+00	-1.372288e+02
7.700000e-07	-5.942472e-07	-1.966957e-09	-4.246388e+00	-1.301122e+02
7.800000e-07	-4.928887e-07	-1.853785e-09	-3.522098e+00	-1.225471e+02
7.900000e-07	-3.913675e-07	-1.728623e-09	-2.796645e+00	-1.144999e+02
8.000000e-07	-2.896503e-07	-1.595259e-09	-2.069791e+00	-1.059396e+02
8.100000e-07	-1.877729e-07	-1.457084e-09	-1.341793e+00	-9.683942e+01
8.200000e-07	-8.579435e-08	-1.311625e-09	-6.130716e-01	-8.717928e+01
8.300000e-07	1.619693e-08	-1.154694e-09	1.157405e-01	-7.694796e+01
8.400000e-07	1.181799e-07	-9.875558e-10	8.444929e-01	-6.614541e+01
8.500000e-07	2.201230e-07	-8.131112e-10	1.572961e+00	-5.478484e+01
8.600000e-07	3.219182e-07	-6.334513e-10	2.300372e+00	-4.289450e+01
8.700000e-07	4.235292e-07	-4.468590e-10	3.026467e+00	-3.051875e+01
8.800000e-07	5.249640e-07	-2.525913e-10	3.751302e+00	-1.771840e+01
8.900000e-07	6.262677e-07	-5.108770e-11	4.475201e+00	-4.570167e+00
9.000000e-07	7.274078e-07	1.539012e-10	5.197931e+00	8.834928e+00
9.100000e-07	8.282913e-07	3.598997e-10	5.918827e+00	2.239411e+01
9.200000e-07	9.288661e-07	5.668239e-10	6.637517e+00	3.599629e+01
9.300000e-07	1.029075e-06	7.727247e-10	7.353593e+00	4.952616e+01
9.400000e-07	1.128886e-06	9.759300e-10	8.066827e+00	6.286879e+01
9.500000e-07	1.228381e-06	1.172855e-09	8.777797e+00	7.591425e+01
9.600000e-07	1.327632e-06	1.364195e-09	9.487030e+00	8.856213e+01
9.700000e-07	1.426559e-06	1.547978e-09	1.019395e+01	1.007254e+02
9.800000e-07	1.524989e-06	1.723933e-09	1.089731e+01	1.123335e+02
9.900000e-07	1.622630e-06	1.892110e-09	1.159504e+01	1.233344e+02
1.000000e-06	1.719308e-06	2.050547e-09	1.228588e+01	1.336956e+02
1.010000e-06	1.815129e-06	2.199954e-09	1.297060e+01	1.434034e+02
1.020000e-06	1.910348e-06	2.338524e-09	1.365101e+01	1.524621e+02
1.030000e-06	2.005083e-06	2.466352e-09	1.432798e+01	1.608910e+02
1.040000e-06	2.099175e-06	2.583922e-09	1.500034e+01	1.687217e+02
1.050000e-06	2.192520e-06	2.692221e-09	1.566737e+01	1.759943e+02
1.060000e-06	2.285092e-06	2.793960e-09	1.632887e+01	1.827543e+02
1.070000e-06	2.376944e-06	2.888174e-09	1.698523e+01	1.890487e+02
1.080000e-06	2.468230e-06	2.975108e-09	1.763755e+01	1.949234e+02
1.090000e-06	2.558717e-06	3.057400e-09	1.828415e+01	2.004209e+02
1.100000e-06	2.647955e-06	3.137097e-09	1.892183e+01	2.055786e+02
1.110000e-06	2.735979e-06	3.213186e-09	1.955083e+01	2.104280e+02
1.120000e-06	2.823096e-06	3.283416e-09	2.017336e+01	2.149949e+02
1.130000e-06	2.909348e-06	3.347105e-09	2.078970e+01	2.192995e+02
1.140000e-06	2.994625e-06	3.406469e-09	2.139907e+01	2.233578e+02
1.150000e-06	3.078877e-06	3.462798e-09	2.200113e+01	2.271824e+02
1.160000e-06	3.162217e-06	3.516173e-09	2.259666e+01	2.307839e+02
1.170000e-06	3.244583e-06	3.566062e-09	2.318523e+01	2.341720e+02
1.180000e-06	3.325696e-06	3.611568e-09	2.376485e+01	2.373564e+02
1.190000e-06	3.405559e-06	3.654433e-09	2.433553e+01	2.403474e+02
1.200000e-06	3.484205e-06	3.695846e-09	2.489753e+01	2.431562e+02
1.210000e-06	3.561591e-06	3.736332e-09	2.545052e+01	2.457950e+02
1.220000e-06	3.637719e-06	3.773203e-09	2.599451e+01	2.482765e+02
1.230000e-06	3.712526e-06	3.806850e-09	2.652907e+01	2.506137e+02
1.240000e-06	3.785722e-06	3.839050e-09	2.705211e+01	2.528196e+02
1.250000e-06	3.857330e-06	3.871189e-09	2.756381e+01	2.549062e+02
1.260000e-06	3.927576e-06	3.901404e-09	2.806578e+01	2.568846e+02
1.270000e-06	3.996489e-06	3.927912e-09	2.855822e+01	2.587647e+02
1.280000e-06	4.064167e-06	3.952226e-09	2.904183e+01	2.605548e+02
1.290000e-06	4.130502e-06	3.976977e-09	2.951585e+01	2.622619e+02
1.300000e-06	4.195119e-06	4.003391e-09	2.997760e+01	2.638917e+02
1.310000e-06	4.258132e-06	4.028218e-09	3.042788e+01	2.654489e+02
1.320000e-06	4.319780e-06	4.049763e-09	3.086840e+01	2.669372e+02
1.330000e-06	4.380059e-06	4.070794e-09	3.129915e+01	2.683597e+02
1.340000e-06	4.438999e-06	4.092539e-09	3.172032e+01	2.697189e+02
1.350000e-06	4.496293e-06	4.112601e-09	3.212973e+01	2.710170e+02
1.360000e-06	4.551784e-06	4.130570e-09	3.252627e+01	2.722558e+02
1.370000e-06	4.605639e-06	4.147382e-09	3.291110e+01	2.734369e+02
1.380000e-06	4.657849e-06	4.163619e-09	3.328419e+01	2.745615e+02
1.390000e-06	4.708101e-06	4.179734e-09	3.364328e+01	2.756304e+02
1.400000e-06	4.756264e-06	4.196121e-09	3.398744e+01	2.766443e+02
1.410000e-06	4.802657e-06	4.211663e-09	3.431896e+01	2.776038e+02
1.420000e-06	4.847465e-06	4.226284e-09	3.463915e+01	2.785093e+02
1.430000e-06	4.890752e-06	4.240273e-09	3.494847e+01	2.793612e+02
1.440000e-06	4.932253e-06	4.253819e-09	3.524503e+01	2.801603e+02
1.450000e-06	4.971800e-06	4.266849e-09	3.552762e+01	2.809077e+02
1.460000e-06	5.009617e-06	4.277629e-09	3.579786e+01	2.816048e+02
1.470000e-06	5.045826e-06	4.287212e-09	3.605660e+01	2.822534e+02
1.480000e-06	5.080362e-06	4.297952e-09	3.630339e+01	2.828558e+02
1.490000e-06	5.112954e-06	4.308244e-09	3.653629e+01	2.834147e+02
1.500000e-06	5.143693e-06	4.315714e-09	3.675594e+01	2.839327e+02
1.510000e-06	5.172752e-06	4.322978e-09	3.696359e+01	2.844126e+02
1.520000e-06	5.200102e-06	4.331958e-09	3.715903e+01	2.848567e+02
1.530000e-06	5.225523e-06	4.339809e-09	3.734069e+01	2.852671e+02
1.540000e-06	5.248881e-06	4.345955e-09	3.750760e+01	2.856454e+02
1.550000e-06	5.270381e-06	4.352391e-09	3.766123e+01	2.859926e+02
1.560000e-06	5.290214e-06	4.359176e-09	3.780296e+01	2.863092e+02
1.570000e-06	5.308278e-06	4.364350e-09	3.793204e+01	2.865950e+02
1.580000e-06	5.324365e-06	4.368814e-09	3.804700e+01	2.868500e+02
1.590000e-06	5.338496e-06	4.373878e-09	3.814797e+01	2.870734e+02
1.600000e-06	5.350694e-06	4.378216e-09	3.823514e+01	2.872648e+02
1.610000e-06	5.360761e-06	4.381646e-09	3.830707e+01	2.874236e+02
1.620000e-06	5.368713e-06	4.383591e-09	3.836389e+01	2.875494e+02
1.630000e-06	5.374792e-06	4.385961e-09	3.840734e+01	2.876419e+02
1.640000e-06	5.379114e-06	4.389894e-09	3.843822e+01	2.877007e+02
1.650000e-06	5.381625e-06	4.393203e-09	3.845616e+01	2.877256e+02
1.660000e-06	5.382162e-06	4.394117e-09	3.846000e+01	2.877160e+02
1.670000e-06	5.380872e-06	4.391387e-09	3.845078e+01	2.876716e+02
1.680000e-06	5.377914e-06	4.389868e-09	3.842965e+01	2.875913e+02
1.690000e-06	5.373280e-06	4.387302e-09	3.839653e+01	2.874744e+02
1.700000e-06	5.366793e-06	4.383956e-09	3.835018e+01	2.873198e+02
1.710000e-06	5.358444e-06	4.382042e-09	3.829052e+01	2.871269e+02
1.720000e-06	5.348492e-06	4.379492e-09	3.821940e+01	2.868954e+02
1.730000e-06	5.336901e-06	4.383425e-09	3.813658e+01	2.866256e+02
1.740000e-06	5.323494e-06	4.366404e-09	3.804077e+01	2.863187e+02
1.750000e-06	5.308032e-06	4.328071e-09	3.793028e+01	2.859770e+02
1.760000e-06	5.290147e-06	4.316387e-09	3.780248e+01	2.856036e+02
1.770000e-06	5.269645e-06	4.321958e-09	3.765597e+01	2.852025e+02
1.780000e-06	5.246810e-06	4.367226e-09	3.749280e+01	2.847782e+02
1.790000e-06	5.222544e-06	4.403753e-09	3.731940e+01	2.843353e+02
1.800000e-06	5.197558e-06	4.317501e-09	3.714086e+01	2.838779e+02
1.810000e-06	5.171189e-06	4.305512e-09	3.695242e+01	2.834094e+02
1.820000e-06	5.142679e-06	4.338884e-09	3.674870e+01	2.829317e+02
1.830000e-06	5.112463e-06	4.313774e-09	3.653278e+01	2.824449e+02
1.840000e-06	5.080596e-06	4.357514e-09	3.630506e+01	2.819470e+02
1.850000e-06	5.046548e-06	4.314072e-09	3.606176e+01	2.814341e+02
1.860000e-06	5.010725e-06	4.246875e-09	3.580577e+01	2.809005e+02
1.870000e-06	4.973393e-06	4.316575e-09	3.553901e+01	2.803391e+02
1.880000e-06	4.934164e-06	4.297757e-09	3.525869e+01	2.797421e+02
1.890000e-06	4.893112e-06	4.241594e-09	3.496533e+01	2.791014e+02
1.900000e-06	4.850301e-06	4.233104e-09	3.465942e+01	2.784096e+02
1.910000e-06	4.805984e-06	4.209781e-09	3.434273e+01	2.776606e+02
1.920000e-06	4.760087e-06	4.253163e-09	3.401476e+01	2.768500e+02
1.930000e-06	4.712189e-06	4.211686e-09	3.367249e+01	2.759754e+02
1.940000e-06	4.662602e-06	4.160162e-09	3.331815e+01	2.750366e+02
1.950000e-06	4.611409e-06	4.182610e-09	3.295233e+01	2.740352e+02
1.960000e-06	4.558332e-06	4.145571e-09	3.257305e+01	2.729746e+02
1.970000e-06	4.503253e-06	4.151306e-09	3.217947e+01	2.718589e+02
1.980000e-06	4.446426e-06	4.139091e-09	3.177339e+01	2.706927e+02
1.990000e-06	4.388138e-06	4.087137e-09	3.135688e+01	2.694804e+02
2.000000e-06	4.328351e-06	4.072720e-09	3.092965e+01	2.682254e+02
2.010000e-06	4.267204e-06	4.068281e-09	3.049271e+01	2.669299e+02
2.020000e-06	4.204458e-06	4.073312e-09	3.004433e+01	2.655945e+02
2.030000e-06	4.139908e-06	4.008176e-09	2.958307e+01	2.642186e+02
2.040000e-06	4.073807e-06	3.981683e-09	2.911072e+01	2.627998e+02
2.050000e-06	4.006332e-06	3.998970e-09	2.862856e+01	2.613352e+02
2.060000e-06	3.937605e-06	3.963239e-09	2.813745e+01	2.598209e+02
2.070000e-06	3.867300e-06	3.931717e-09	2.763506e+01	2.582531e+02
2.080000e-06	3.795355e-06	3.896802e-09	2.712095e+01	2.566284e+02
2.090000e-06	3.722164e-06	3.886289e-09	2.659794e+01	2.549438e+02
2.100000e-06	3.647695e-06	3.857918e-09	2.606580e+01	2.531970e+02
2.110000e-06	3.571782e-06	3.821535e-09	2.552334e+01	2.513865e+02
2.120000e-06	3.494261e-06	3.802354e-09	2.496938e+01	2.495112e+02
2.130000e-06	3.415204e-06	3.762578e-09	2.440446e+01	2.475701e+02
2.140000e-06	3.334899e-06	3.738639e-09	2.383061e+01	2.455623e+02
2.150000e-06	3.253492e-06	3.712117e-09	2.324889e+01	2.434859e+02
2.160000e-06	3.171032e-06	3.681547e-09	2.265964e+01	2.413382e+02
2.170000e-06	3.087505e-06	3.642435e-09	2.206278e+01	2.391156e+02
2.180000e-06	3.003069e-06	3.608714e-09	2.145941e+01	2.368129e+02
2.190000e-06	2.917549e-06	3.582462e-09	2.084830e+01	2.344241e+02
2.200000e-06	2.830741e-06	3.536812e-09	2.022799e+01	2.319422e+02
2.210000e-06	2.742837e-06	3.492213e-09	1.959984e+01	2.293598e+02
2.220000e-06	2.654018e-06	3.452500e-09	1.896515e+01	2.266692e+02
2.230000e-06	2.564331e-06	3.418449e-09	1.832427e+01	2.238632e+02
2.240000e-06	2.473773e-06	3.370061e-09	1.767716e+01	2.209351e+02
2.250000e-06	2.382402e-06	3.316129e-09	1.702423e+01	2.178790e+02
2.260000e-06	2.290359e-06	3.271974e-09	1.636651e+01	2.146899e+02
2.270000e-06	2.197778e-06	3.229806e-09	1.570494e+01	2.113635e+02
2.280000e-06	2.104340e-06	3.181252e-09	1.503725e+01	2.078961e+02
2.290000e-06	2.009695e-06	3.124440e-09	1.436094e+01	2.042837e+02
2.300000e-06	1.914122e-06	3.067299e-09	1.367798e+01	2.005220e+02
2.310000e-06	1.817978e-06	3.007863e-09	1.299096e+01	1.966056e+02
2.320000e-06	1.721297e-06	2.948499e-09	1.230009e+01	1.925277e+02
2.330000e-06	1.624083e-06	2.885299e-09	1.160541e+01	1.882792e+02
2.340000e-06	1.526361e-06	2.814314e-09	1.090711e+01	1.838489e+02
2.350000e-06	1.428094e-06	2.741070e-09	1.020491e+01	1.792226e+02
2.360000e-06	1.329377e-06	2.674024e-09	9.499496e+00	1.743834e+02
2.370000e-06	1.230220e-06	2.604615e-09	8.790943e+00	1.693115e+02
2.380000e-06	1.130596e-06	2.519672e-09	8.079042e+00	1.639839e+02
2.390000e-06	1.030666e-06	2.428424e-09	7.364960e+00	1.583751e+02
2.400000e-06	9.305671e-07	2.340444e-09	6.649672e+00	1.524565e+02
2.410000e-06	8.302947e-07	2.249529e-09	5.933143e+00	1.461972e+02
2.420000e-06	7.298043e-07	2.146723e-09	5.215055e+00	1.395646e+02
2.430000e-06	6.291232e-07	2.036880e-09	4.495606e+00	1.325243e+02
2.440000e-06	5.282477e-07	1.924600e-09	3.774767e+00	1.250417e+02
2.450000e-06	4.270999e-07	1.804615e-09	3.051982e+00	1.170829e+02
2.460000e-06	3.257400e-07	1.675243e-09	2.327682e+00	1.086162e+02
2.470000e-06	2.242088e-07	1.539306e-09	1.602157e+00	9.961400e+01
2.480000e-06	1.224323e-07	1.396064e-09	8.748797e-01	9.005486e+01
2.490000e-06	2.051466e-08	1.242950e-09	1.465942e-01	7.992578e+01
2.500000e-06	-8.133022e-08	1.079235e-09	-5.811717e-01	6.922457e+01
2.510000e-06	-1.830075e-07	9.060435e-10	-1.307740e+00	5.796193e+01
2.520000e-06	-2.844759e-07	7.242944e-10	-2.032815e+00	4.616331e+01
2.530000e-06	-3.857233e-07	5.350825e-10	-2.756312e+00	3.387014e+01
2.540000e-06	-4.867925e-07	3.408508e-10	-3.478535e+00	2.114033e+01
2.550000e-06	-5.876295e-07	1.407417e-10	-4.199099e+00	8.047823e+00
2.560000e-06	-6.881768e-07	-6.311356e-11	-4.917593e+00	-5.318746e+00
2.570000e-06	-7.885323e-07	-2.686327e-10	-5.634716e+00	-1.885848e+01
2.580000e-06	-8.887502e-07	-4.751854e-10	-6.350855e+00	-3.246147e+01
2.590000e-06	-9.887683e-07	-6.828909e-10	-7.065567e+00	-4.601286e+01
2.600000e-06	-1.088547e-06	-8.900393e-10	-7.778568e+00	-5.939730e+01
2.610000e-06	-1.188014e-06	-1.090601e-09	-8.489344e+00	-7.250362e+01
2.620000e-06	-1.287023e-06	-1.282856e-09	-9.196845e+00	-8.522941e+01
2.630000e-06	-1.385538e-06	-1.468892e-09	-9.900817e+00	-9.748499e+01
2.640000e-06	-1.483614e-06	-1.649948e-09	-1.060165e+01	-1.091967e+02
2.650000e-06	-1.581144e-06	-1.821572e-09	-1.129858e+01	-1.203091e+02
2.660000e-06	-1.678065e-06	-1.979839e-09	-1.199117e+01	-1.307861e+02
2.670000e-06	-1.774539e-06	-2.128173e-09	-1.268055e+01	-1.406110e+02
2.680000e-06	-1.870677e-06	-2.270550e-09	-1.336753e+01	-1.497847e+02
2.690000e-06	-1.966293e-06	-2.405219e-09	-1.405079e+01	-1.583241e+02
2.700000e-06	-2.060943e-06	-2.528488e-09	-1.472715e+01	-1.662589e+02
2.710000e-06	-2.154420e-06	-2.640026e-09	-1.539511e+01	-1.736281e+02
2.720000e-06	-2.247001e-06	-2.743539e-09	-1.605668e+01	-1.804763e+02
2.730000e-06	-2.338938e-06	-2.842030e-09	-1.671365e+01	-1.868505e+02
2.740000e-06	-2.430130e-06	-2.934976e-09	-1.736529e+01	-1.927970e+02
2.750000e-06	-2.520430e-06	-3.019407e-09	-1.801056e+01	-1.983591e+02
2.760000e-06	-2.609788e-06	-3.096469e-09	-1.864910e+01	-2.035751e+02
2.770000e-06	-2.698339e-06	-3.172219e-09	-1.928187e+01	-2.084776e+02
2.780000e-06	-2.786204e-06	-3.246587e-09	-1.990973e+01	-2.130934e+02
2.790000e-06	-2.873018e-06	-3.315056e-09	-2.053009e+01	-2.174436e+02
2.800000e-06	-2.958475e-06	-3.378334e-09	-2.114075e+01	-2.215450e+02
2.810000e-06	-3.042804e-06	-3.439454e-09	-2.174335e+01	-2.254107e+02
2.820000e-06	-3.126164e-06	-3.498002e-09	-2.233903e+01	-2.290514e+02
2.830000e-06	-3.208515e-06	-3.552055e-09	-2.292749e+01	-2.324770e+02
2.840000e-06	-3.289820e-06	-3.602659e-09	-2.350849e+01	-2.356971e+02
2.850000e-06	-3.370107e-06	-3.649641e-09	-2.408220e+01	-2.387219e+02
2.860000e-06	-3.449147e-06	-3.691889e-09	-2.464701e+01	-2.415625e+02
2.870000e-06	-3.526619e-06	-3.733383e-09	-2.520061e+01	-2.442309e+02
2.880000e-06	-3.602617e-06	-3.775480e-09	-2.574368e+01	-2.467396e+02
2.890000e-06	-3.677238e-06	-3.814808e-09	-2.627691e+01	-2.491018e+02
2.900000e-06	-3.750526e-06	-3.849157e-09	-2.680061e+01	-2.513303e+02
2.910000e-06	-3.822606e-06	-3.880655e-09	-2.731568e+01	-2.534374e+02
2.920000e-06	-3.893243e-06	-3.913196e-09	-2.782044e+01	-2.554345e+02
2.930000e-06	-3.962246e-06	-3.944508e-09	-2.831353e+01	-2.573316e+02
2.940000e-06	-4.029882e-06	-3.971386e-09	-2.879684e+01	-2.591373e+02
