# Temperatura_=_20.0
# Concentracion g/m^3_=_9000.0
# C_Vs_to_Am_M_A/Vsm_=_65563218390.804596
# pendiente_HvsI_1/m_=_3716.3
# ordenada_HvsI_A/m_=_1297.0
# frecuencia_Hz_=_300884.84524283826

Tiempo_(s)	Campo_(V.s)	Magnetizacion_(V.s)	Campo_(kA/m)	Magnetizacion_(A/m)
0.000000e+00	-5.319246e-06	-3.131455e-11	-3.828446e+01	-1.128636e+00
1.000000e-08	-5.316636e-06	-3.250512e-11	-3.826567e+01	-1.108320e+00
2.000000e-08	-5.312285e-06	-3.194935e-11	-3.823436e+01	-1.082136e+00
3.000000e-08	-5.306323e-06	-3.250000e-11	-3.819144e+01	-1.050637e+00
4.000000e-08	-5.298748e-06	-3.188391e-11	-3.813692e+01	-1.014980e+00
5.000000e-08	-5.289262e-06	-2.759275e-11	-3.806865e+01	-9.770071e-01
6.000000e-08	-5.277788e-06	-2.176934e-11	-3.798607e+01	-9.392755e-01
7.000000e-08	-5.264456e-06	-1.545036e-11	-3.789011e+01	-9.049887e-01
8.000000e-08	-5.249027e-06	-1.762009e-11	-3.777907e+01	-8.778398e-01
9.000000e-08	-5.231404e-06	-3.585643e-11	-3.765223e+01	-8.617565e-01
1.000000e-07	-5.211824e-06	-3.827455e-11	-3.751130e+01	-8.605679e-01
1.100000e-07	-5.190434e-06	-2.427571e-11	-3.735735e+01	-8.776195e-01
1.200000e-07	-5.167341e-06	-9.798386e-12	-3.719114e+01	-9.153805e-01
1.300000e-07	-5.142661e-06	9.848530e-12	-3.701351e+01	-9.750849e-01
1.400000e-07	-5.116393e-06	-2.235748e-11	-3.682445e+01	-1.056459e+00
1.500000e-07	-5.088559e-06	-6.386054e-11	-3.662412e+01	-1.157570e+00
1.600000e-07	-5.059244e-06	-1.925682e-11	-3.641313e+01	-1.274836e+00
1.700000e-07	-5.028324e-06	-9.672502e-12	-3.619059e+01	-1.403196e+00
1.800000e-07	-4.995353e-06	-2.234884e-11	-3.595329e+01	-1.536442e+00
1.900000e-07	-4.960576e-06	-1.773556e-13	-3.570299e+01	-1.667697e+00
2.000000e-07	-4.924361e-06	-4.243171e-11	-3.544233e+01	-1.789966e+00
2.100000e-07	-4.886363e-06	-3.637167e-11	-3.516885e+01	-1.896736e+00
2.200000e-07	-4.846569e-06	2.356098e-11	-3.488243e+01	-1.982539e+00
2.300000e-07	-4.804953e-06	-1.241628e-11	-3.458291e+01	-2.043427e+00
2.400000e-07	-4.761423e-06	-4.474209e-11	-3.426961e+01	-2.077300e+00
2.500000e-07	-4.716161e-06	-2.637565e-11	-3.394385e+01	-2.084057e+00
2.600000e-07	-4.669126e-06	-1.086757e-11	-3.360532e+01	-2.065545e+00
2.700000e-07	-4.620141e-06	6.616905e-12	-3.325276e+01	-2.025321e+00
2.800000e-07	-4.569219e-06	-1.904164e-11	-3.288625e+01	-1.968246e+00
2.900000e-07	-4.516462e-06	-4.076844e-11	-3.250654e+01	-1.899969e+00
3.000000e-07	-4.462007e-06	-2.220957e-11	-3.211461e+01	-1.826354e+00
3.100000e-07	-4.405918e-06	-5.833655e-12	-3.171092e+01	-1.752918e+00
3.200000e-07	-4.348109e-06	-1.398383e-11	-3.129485e+01	-1.684338e+00
3.300000e-07	-4.288725e-06	-2.631521e-11	-3.086744e+01	-1.624091e+00
3.400000e-07	-4.227939e-06	-2.304224e-11	-3.042994e+01	-1.574244e+00
3.500000e-07	-4.165740e-06	-2.025843e-11	-2.998227e+01	-1.535425e+00
3.600000e-07	-4.102099e-06	-1.259197e-12	-2.952423e+01	-1.506950e+00
3.700000e-07	-4.036898e-06	-1.863483e-12	-2.905495e+01	-1.487099e+00
3.800000e-07	-3.970074e-06	-3.231474e-11	-2.857400e+01	-1.473472e+00
3.900000e-07	-3.901717e-06	-2.066802e-11	-2.808201e+01	-1.463389e+00
4.000000e-07	-3.832020e-06	3.782371e-12	-2.758037e+01	-1.454276e+00
4.100000e-07	-3.761243e-06	-7.550905e-12	-2.707097e+01	-1.443982e+00
4.200000e-07	-3.689292e-06	-2.730225e-11	-2.655311e+01	-1.430997e+00
4.300000e-07	-3.615716e-06	-2.567402e-11	-2.602356e+01	-1.414541e+00
4.400000e-07	-3.540463e-06	-1.008313e-11	-2.548194e+01	-1.394532e+00
4.500000e-07	-3.463822e-06	-1.240064e-11	-2.493033e+01	-1.371448e+00
4.600000e-07	-3.385865e-06	-2.041730e-11	-2.436924e+01	-1.346109e+00
4.700000e-07	-3.306451e-06	-2.035277e-11	-2.379767e+01	-1.319420e+00
4.800000e-07	-3.225650e-06	-1.559431e-11	-2.321612e+01	-1.292129e+00
4.900000e-07	-3.143723e-06	-1.119476e-11	-2.262646e+01	-1.264631e+00
5.000000e-07	-3.060844e-06	-1.435436e-11	-2.202995e+01	-1.236848e+00
5.100000e-07	-2.977169e-06	-1.752587e-11	-2.142772e+01	-1.208212e+00
5.200000e-07	-2.892600e-06	-1.857051e-11	-2.081904e+01	-1.177747e+00
5.300000e-07	-2.807045e-06	-1.086313e-11	-2.020328e+01	-1.144232e+00
5.400000e-07	-2.720580e-06	-5.078360e-12	-1.958095e+01	-1.106419e+00
5.500000e-07	-2.633262e-06	-1.244721e-11	-1.895250e+01	-1.063282e+00
5.600000e-07	-2.544981e-06	-1.813930e-11	-1.831711e+01	-1.014233e+00
5.700000e-07	-2.455442e-06	-9.839964e-12	-1.767267e+01	-9.592955e-01
5.800000e-07	-2.364780e-06	-5.569712e-13	-1.702014e+01	-8.991853e-01
5.900000e-07	-2.273473e-06	-7.221229e-12	-1.636298e+01	-8.352996e-01
6.000000e-07	-2.181620e-06	-1.594613e-11	-1.570188e+01	-7.696034e-01
6.100000e-07	-2.089003e-06	-1.138648e-11	-1.503528e+01	-7.044327e-01
6.200000e-07	-1.995510e-06	-7.579226e-13	-1.436237e+01	-6.422382e-01
6.300000e-07	-1.901309e-06	3.098947e-13	-1.368438e+01	-5.853047e-01
6.400000e-07	-1.806575e-06	-4.565471e-12	-1.300254e+01	-5.354849e-01
6.500000e-07	-1.711339e-06	-4.600858e-12	-1.231710e+01	-4.939815e-01
6.600000e-07	-1.615498e-06	-8.606101e-13	-1.162730e+01	-4.612077e-01
6.700000e-07	-1.518937e-06	2.198274e-12	-1.093231e+01	-4.367413e-01
6.800000e-07	-1.421623e-06	2.066648e-12	-1.023191e+01	-4.193776e-01
6.900000e-07	-1.323577e-06	-2.471903e-13	-9.526245e+00	-4.072717e-01
7.000000e-07	-1.224918e-06	-8.482326e-13	-8.816157e+00	-3.981471e-01
7.100000e-07	-1.125834e-06	3.584744e-12	-8.103018e+00	-3.895445e-01
7.200000e-07	-1.026505e-06	5.855065e-12	-7.388114e+00	-3.790753e-01
7.300000e-07	-9.269968e-07	9.197260e-13	-6.671917e+00	-3.646508e-01
7.400000e-07	-8.272651e-07	-3.450844e-12	-5.954114e+00	-3.446579e-01
7.500000e-07	-7.272448e-07	-4.079038e-13	-5.234233e+00	-3.180686e-01
7.600000e-07	-6.268465e-07	4.396280e-12	-4.511631e+00	-2.844727e-01
7.700000e-07	-5.261732e-07	3.166263e-12	-3.787051e+00	-2.440423e-01
7.800000e-07	-4.254109e-07	6.566286e-13	-3.061829e+00	-1.974394e-01
7.900000e-07	-3.245174e-07	1.380609e-12	-2.335664e+00	-1.456888e-01
8.000000e-07	-2.234829e-07	2.308972e-12	-1.608484e+00	-9.003919e-02
8.100000e-07	-1.223455e-07	2.217232e-12	-8.805627e-01	-3.183406e-02
8.200000e-07	-2.115703e-08	3.735520e-12	-1.522745e-01	2.759013e-02
8.300000e-07	8.005734e-08	5.486716e-12	5.762004e-01	8.696874e-02
8.400000e-07	1.813308e-07	5.764970e-12	1.305101e+00	1.451354e-01
8.500000e-07	2.825587e-07	5.782955e-12	2.033673e+00	2.010168e-01
8.600000e-07	3.836221e-07	6.613334e-12	2.761061e+00	2.536091e-01
8.700000e-07	4.844628e-07	7.442769e-12	3.486847e+00	3.019521e-01
8.800000e-07	5.851431e-07	6.340103e-12	4.211477e+00	3.451181e-01
8.900000e-07	6.856365e-07	5.222352e-12	4.934764e+00	3.822281e-01
9.000000e-07	7.857966e-07	4.434094e-12	5.655651e+00	4.125021e-01
9.100000e-07	8.856449e-07	4.573669e-12	6.374293e+00	4.353433e-01
9.200000e-07	9.852716e-07	5.964648e-12	7.091341e+00	4.504453e-01
9.300000e-07	1.084725e-06	6.739358e-12	7.807144e+00	4.579082e-01
9.400000e-07	1.183910e-06	4.931278e-12	8.521012e+00	4.583402e-01
9.500000e-07	1.282709e-06	3.755871e-12	9.232105e+00	4.529254e-01
9.600000e-07	1.380986e-06	4.974287e-12	9.939435e+00	4.434362e-01
9.700000e-07	1.478629e-06	5.334528e-12	1.064220e+01	4.321788e-01
9.800000e-07	1.575543e-06	3.963325e-12	1.133973e+01	4.218657e-01
9.900000e-07	1.671688e-06	1.008995e-12	1.203171e+01	4.154234e-01
1.000000e-06	1.767216e-06	9.683643e-13	1.271927e+01	4.157490e-01
1.010000e-06	1.862204e-06	3.404692e-12	1.340293e+01	4.254413e-01
1.020000e-06	1.956583e-06	4.317037e-12	1.408220e+01	4.465367e-01
1.030000e-06	2.050303e-06	3.979697e-12	1.475674e+01	4.802811e-01
1.040000e-06	2.143311e-06	3.146496e-12	1.542615e+01	5.269658e-01
1.050000e-06	2.235598e-06	4.321437e-12	1.609037e+01	5.858515e-01
1.060000e-06	2.327237e-06	5.064022e-12	1.674993e+01	6.551902e-01
1.070000e-06	2.418217e-06	3.785846e-12	1.740475e+01	7.323475e-01
1.080000e-06	2.508297e-06	2.399314e-12	1.805308e+01	8.140126e-01
1.090000e-06	2.597222e-06	3.420672e-12	1.869311e+01	8.964753e-01
1.100000e-06	2.685034e-06	6.996163e-12	1.932512e+01	9.759392e-01
1.110000e-06	2.771930e-06	1.095051e-11	1.995054e+01	1.048838e+00
1.120000e-06	2.857966e-06	1.266626e-11	2.056977e+01	1.112123e+00
1.130000e-06	2.943072e-06	1.145793e-11	2.118231e+01	1.163491e+00
1.140000e-06	3.027215e-06	1.059717e-11	2.178792e+01	1.201534e+00
1.150000e-06	3.110483e-06	1.262053e-11	2.238722e+01	1.225798e+00
1.160000e-06	3.192768e-06	1.481684e-11	2.297946e+01	1.236753e+00
1.170000e-06	3.273827e-06	1.182195e-11	2.356287e+01	1.235686e+00
1.180000e-06	3.353605e-06	8.292417e-12	2.413706e+01	1.224528e+00
1.190000e-06	3.432140e-06	8.360970e-12	2.470230e+01	1.205649e+00
1.200000e-06	3.509485e-06	1.040626e-11	2.525898e+01	1.181638e+00
1.210000e-06	3.585584e-06	1.128883e-11	2.580669e+01	1.155096e+00
1.220000e-06	3.660326e-06	1.064740e-11	2.634464e+01	1.128460e+00
1.230000e-06	3.733547e-06	1.024292e-11	2.687163e+01	1.103864e+00
1.240000e-06	3.805242e-06	1.220252e-11	2.738764e+01	1.083054e+00
1.250000e-06	3.875545e-06	1.420059e-11	2.789364e+01	1.067344e+00
1.260000e-06	3.944516e-06	1.160983e-11	2.839005e+01	1.057608e+00
1.270000e-06	4.012225e-06	6.548960e-12	2.887737e+01	1.054305e+00
1.280000e-06	4.078554e-06	4.935495e-12	2.935476e+01	1.057510e+00
1.290000e-06	4.143286e-06	7.801594e-12	2.982066e+01	1.066961e+00
1.300000e-06	4.206486e-06	9.268613e-12	3.027554e+01	1.082091e+00
1.310000e-06	4.268291e-06	8.769290e-12	3.072037e+01	1.102070e+00
1.320000e-06	4.328724e-06	9.281881e-12	3.115533e+01	1.125831e+00
1.330000e-06	4.387733e-06	1.113855e-11	3.158004e+01	1.152107e+00
1.340000e-06	4.445084e-06	1.211446e-11	3.199281e+01	1.179471e+00
1.350000e-06	4.500736e-06	9.531747e-12	3.239335e+01	1.206386e+00
1.360000e-06	4.554808e-06	6.500342e-12	3.278253e+01	1.231286e+00
1.370000e-06	4.607180e-06	5.891856e-12	3.315947e+01	1.252657e+00
1.380000e-06	4.657563e-06	5.628450e-12	3.352210e+01	1.269143e+00
1.390000e-06	4.705915e-06	4.910030e-12	3.387010e+01	1.279652e+00
1.400000e-06	4.752445e-06	5.104317e-12	3.420499e+01	1.283458e+00
1.410000e-06	4.797391e-06	6.242155e-12	3.452848e+01	1.280275e+00
1.420000e-06	4.840870e-06	5.888835e-12	3.484142e+01	1.270308e+00
1.430000e-06	4.882604e-06	5.135187e-12	3.514179e+01	1.254253e+00
1.440000e-06	4.922466e-06	4.707861e-12	3.542869e+01	1.233255e+00
1.450000e-06	4.960619e-06	2.860936e-12	3.570329e+01	1.208816e+00
1.460000e-06	4.997145e-06	7.565072e-13	3.596618e+01	1.182668e+00
1.470000e-06	5.032014e-06	-2.643066e-13	3.621715e+01	1.156622e+00
1.480000e-06	5.064985e-06	-3.690721e-13	3.645445e+01	1.132407e+00
1.490000e-06	5.096074e-06	-1.241543e-12	3.667821e+01	1.111519e+00
1.500000e-06	5.125456e-06	-2.446901e-12	3.688968e+01	1.095105e+00
1.510000e-06	5.153191e-06	-2.306671e-12	3.708930e+01	1.083877e+00
1.520000e-06	5.179093e-06	-1.924559e-12	3.727573e+01	1.078089e+00
1.530000e-06	5.202977e-06	-2.438572e-12	3.744762e+01	1.077550e+00
1.540000e-06	5.225014e-06	-3.038181e-12	3.760623e+01	1.081689e+00
1.550000e-06	5.245383e-06	-2.535679e-12	3.775284e+01	1.089645e+00
1.560000e-06	5.264087e-06	-2.573074e-12	3.788746e+01	1.100376e+00
1.570000e-06	5.280861e-06	-3.570207e-12	3.800819e+01	1.112762e+00
1.580000e-06	5.295595e-06	-3.711725e-12	3.811423e+01	1.125689e+00
1.590000e-06	5.308414e-06	-2.119373e-12	3.820649e+01	1.138113e+00
1.600000e-06	5.319188e-06	-9.046102e-13	3.828404e+01	1.149085e+00
1.610000e-06	5.327807e-06	-1.728696e-12	3.834607e+01	1.157752e+00
1.620000e-06	5.334437e-06	-2.952170e-12	3.839379e+01	1.163339e+00
1.630000e-06	5.339287e-06	-3.493711e-12	3.842870e+01	1.165125e+00
1.640000e-06	5.342430e-06	-2.969023e-12	3.845132e+01	1.162434e+00
1.650000e-06	5.343636e-06	-2.349215e-12	3.846000e+01	1.154646e+00
1.660000e-06	5.342877e-06	-3.591214e-12	3.845453e+01	1.141252e+00
1.670000e-06	5.340416e-06	-6.335660e-12	3.843683e+01	1.121941e+00
1.680000e-06	5.336379e-06	-6.575537e-12	3.840777e+01	1.096717e+00
1.690000e-06	5.330600e-06	-5.663915e-12	3.836618e+01	1.066038e+00
1.700000e-06	5.322953e-06	-5.139840e-12	3.831114e+01	1.030946e+00
1.710000e-06	5.313633e-06	-4.214971e-12	3.824406e+01	9.931568e-01
1.720000e-06	5.302762e-06	-1.707818e-13	3.816582e+01	9.551015e-01
1.730000e-06	5.290167e-06	9.644203e-12	3.807516e+01	9.198772e-01
1.740000e-06	5.275521e-06	-1.427450e-13	3.796975e+01	8.911055e-01
1.750000e-06	5.258547e-06	-2.115283e-11	3.784758e+01	8.726950e-01
1.760000e-06	5.239049e-06	-1.354398e-11	3.770725e+01	8.685192e-01
1.770000e-06	5.217080e-06	-2.676999e-12	3.754913e+01	8.820395e-01
1.780000e-06	5.193320e-06	2.952421e-11	3.737812e+01	9.159092e-01
1.790000e-06	5.168721e-06	3.113338e-11	3.720108e+01	9.716063e-01
1.800000e-06	5.143111e-06	-3.132722e-11	3.701675e+01	1.049141e+00
1.810000e-06	5.115609e-06	2.735469e-12	3.681881e+01	1.146882e+00
1.820000e-06	5.086366e-06	2.688562e-11	3.660834e+01	1.261532e+00
1.830000e-06	5.055555e-06	3.861476e-12	3.638658e+01	1.388275e+00
1.840000e-06	5.022582e-06	7.759915e-11	3.614926e+01	1.521078e+00
1.850000e-06	4.987621e-06	4.499458e-11	3.589764e+01	1.653143e+00
1.860000e-06	4.951134e-06	-1.967683e-11	3.563503e+01	1.777453e+00
1.870000e-06	4.912847e-06	6.490926e-11	3.535946e+01	1.887366e+00
1.880000e-06	4.872732e-06	5.404924e-11	3.507074e+01	1.977189e+00
1.890000e-06	4.830787e-06	1.491920e-11	3.476885e+01	2.042674e+00
1.900000e-06	4.787134e-06	4.473965e-11	3.445466e+01	2.081374e+00
1.910000e-06	4.742112e-06	3.769784e-11	3.413063e+01	2.092829e+00
1.920000e-06	4.695337e-06	7.168684e-11	3.379397e+01	2.078550e+00
1.930000e-06	4.646720e-06	4.566639e-11	3.344406e+01	2.041815e+00
1.940000e-06	4.596516e-06	1.780679e-11	3.308272e+01	1.987287e+00
1.950000e-06	4.544601e-06	6.224269e-11	3.270907e+01	1.920516e+00
1.960000e-06	4.490686e-06	3.126975e-11	3.232103e+01	1.847370e+00
1.970000e-06	4.434880e-06	3.908564e-11	3.191937e+01	1.773467e+00
1.980000e-06	4.377546e-06	4.924651e-11	3.150672e+01	1.703664e+00
1.990000e-06	4.318670e-06	2.477308e-11	3.108296e+01	1.641672e+00
2.000000e-06	4.258395e-06	3.126865e-11	3.064915e+01	1.589819e+00
2.010000e-06	4.196741e-06	3.838106e-11	3.020540e+01	1.548982e+00
2.020000e-06	4.133348e-06	5.920580e-11	2.974914e+01	1.518698e+00
2.030000e-06	4.068325e-06	1.191003e-11	2.928115e+01	1.497406e+00
2.040000e-06	4.001883e-06	1.730325e-11	2.880294e+01	1.482798e+00
2.050000e-06	3.934151e-06	6.860417e-11	2.831545e+01	1.472216e+00
2.060000e-06	3.865058e-06	4.238969e-11	2.781816e+01	1.463040e+00
2.070000e-06	3.794190e-06	2.625986e-11	2.730810e+01	1.453026e+00
2.080000e-06	3.721833e-06	1.559341e-11	2.678732e+01	1.440538e+00
2.090000e-06	3.648293e-06	4.354469e-11	2.625803e+01	1.424663e+00
2.100000e-06	3.573466e-06	4.379106e-11	2.571947e+01	1.405204e+00
2.110000e-06	3.497302e-06	1.656714e-11	2.517130e+01	1.382553e+00
2.120000e-06	3.419728e-06	2.485065e-11	2.461297e+01	1.357486e+00
2.130000e-06	3.340652e-06	2.377782e-11	2.404383e+01	1.330913e+00
2.140000e-06	3.260235e-06	3.355016e-11	2.346504e+01	1.303626e+00
2.150000e-06	3.178778e-06	3.406558e-11	2.287877e+01	1.276094e+00
2.160000e-06	3.096223e-06	3.580249e-11	2.228459e+01	1.248326e+00
2.170000e-06	3.012646e-06	2.425758e-11	2.168306e+01	1.219842e+00
2.180000e-06	2.928172e-06	1.960099e-11	2.107506e+01	1.189726e+00
2.190000e-06	2.842673e-06	3.951384e-11	2.045970e+01	1.156786e+00
2.200000e-06	2.755953e-06	3.376389e-11	1.983555e+01	1.119763e+00
2.210000e-06	2.668061e-06	1.732076e-11	1.920296e+01	1.077572e+00
2.220000e-06	2.579262e-06	1.346734e-11	1.856384e+01	1.029533e+00
2.230000e-06	2.489613e-06	3.028664e-11	1.791861e+01	9.755523e-01
2.240000e-06	2.399102e-06	3.010734e-11	1.726717e+01	9.162193e-01
2.250000e-06	2.307781e-06	1.647783e-11	1.660990e+01	8.528151e-01
2.260000e-06	2.215792e-06	1.701909e-11	1.594782e+01	7.872156e-01
2.270000e-06	2.123265e-06	2.288957e-11	1.528187e+01	7.217082e-01
2.280000e-06	2.030021e-06	2.494655e-11	1.461077e+01	6.587433e-01
2.290000e-06	1.935908e-06	2.141352e-11	1.393340e+01	6.006560e-01
2.300000e-06	1.840839e-06	2.151438e-11	1.324915e+01	5.493938e-01
2.310000e-06	1.744913e-06	1.666482e-11	1.255874e+01	5.062883e-01
2.320000e-06	1.648428e-06	1.417279e-11	1.186431e+01	4.718999e-01
2.330000e-06	1.551537e-06	1.904140e-11	1.116695e+01	4.459543e-01
2.340000e-06	1.454203e-06	2.035896e-11	1.046640e+01	4.273788e-01
2.350000e-06	1.356287e-06	1.582236e-11	9.761671e+00	4.144289e-01
2.360000e-06	1.257901e-06	1.578308e-11	9.053549e+00	4.048876e-01
2.370000e-06	1.159143e-06	2.170819e-11	8.342755e+00	3.963093e-01
2.380000e-06	1.059954e-06	2.079489e-11	7.628858e+00	3.862752e-01
2.390000e-06	9.603911e-07	1.610438e-11	6.912267e+00	3.726280e-01
2.400000e-06	8.605971e-07	1.647669e-11	6.194016e+00	3.536598e-01
2.410000e-06	7.605858e-07	1.896614e-11	5.474199e+00	3.282333e-01
2.420000e-06	6.603332e-07	1.703049e-11	4.752646e+00	2.958290e-01
2.430000e-06	5.599536e-07	1.592632e-11	4.030180e+00	2.565203e-01
2.440000e-06	4.594580e-07	1.718257e-11	3.306878e+00	2.108903e-01
2.450000e-06	3.587674e-07	1.505194e-11	2.582173e+00	1.599092e-01
2.460000e-06	2.579640e-07	9.892167e-12	1.856657e+00	1.047957e-01
2.470000e-06	1.571514e-07	1.005421e-11	1.131073e+00	4.688477e-02
2.480000e-06	5.629453e-08	1.480320e-11	4.051713e-01	-1.247993e-02
2.490000e-06	-4.464169e-08	1.315105e-11	-3.213017e-01	-7.201796e-02
2.500000e-06	-1.455259e-07	6.685657e-12	-1.047400e+00	-1.305450e-01
2.510000e-06	-2.462362e-07	3.655002e-12	-1.772247e+00	-1.869725e-01
2.520000e-06	-3.468849e-07	5.430351e-12	-2.496651e+00	-2.402864e-01
2.530000e-06	-4.475633e-07	5.959908e-12	-3.221268e+00	-2.895200e-01
2.540000e-06	-5.481477e-07	2.684995e-12	-3.945209e+00	-3.337397e-01
2.550000e-06	-6.484865e-07	-3.523792e-13	-4.667382e+00	-3.720549e-01
2.560000e-06	-7.485631e-07	-5.050859e-13	-5.387668e+00	-4.036628e-01
2.570000e-06	-8.483203e-07	2.428909e-12	-6.105655e+00	-4.279264e-01
2.580000e-06	-9.477454e-07	4.405694e-12	-6.821252e+00	-4.444791e-01
2.590000e-06	-1.046909e-06	1.830486e-12	-7.534968e+00	-4.533401e-01
2.600000e-06	-1.145729e-06	-1.575036e-12	-8.246211e+00	-4.550207e-01
2.610000e-06	-1.244157e-06	-2.820570e-13	-8.954626e+00	-4.505995e-01
2.620000e-06	-1.342172e-06	4.530314e-12	-9.660076e+00	-4.417457e-01
2.630000e-06	-1.439733e-06	3.890461e-12	-1.036225e+01	-4.306774e-01
2.640000e-06	-1.536820e-06	-2.669746e-12	-1.106102e+01	-4.200470e-01
2.650000e-06	-1.633489e-06	-4.412361e-12	-1.175679e+01	-4.127596e-01
2.660000e-06	-1.729814e-06	-3.948786e-13	-1.245007e+01	-4.117367e-01
2.670000e-06	-1.825597e-06	1.280653e-12	-1.313945e+01	-4.196503e-01
2.680000e-06	-1.920469e-06	-1.447156e-13	-1.382228e+01	-4.386556e-01
2.690000e-06	-2.014290e-06	-1.950326e-12	-1.449755e+01	-4.701536e-01
2.700000e-06	-2.107243e-06	-2.802922e-12	-1.516656e+01	-5.146146e-01
2.710000e-06	-2.199530e-06	-1.920481e-12	-1.583078e+01	-5.714846e-01
2.720000e-06	-2.291078e-06	-1.722016e-12	-1.648968e+01	-6.391895e-01
2.730000e-06	-2.381805e-06	-5.990981e-12	-1.714268e+01	-7.152400e-01
2.740000e-06	-2.471690e-06	-1.114217e-11	-1.778961e+01	-7.964275e-01
2.750000e-06	-2.560722e-06	-1.143302e-11	-1.843040e+01	-8.790908e-01
2.760000e-06	-2.649031e-06	-9.741096e-12	-1.906599e+01	-9.594252e-01
2.770000e-06	-2.736559e-06	-1.097088e-11	-1.969596e+01	-1.033801e+00
2.780000e-06	-2.822911e-06	-1.403406e-11	-2.031747e+01	-1.099059e+00
2.790000e-06	-2.908037e-06	-1.622277e-11	-2.093015e+01	-1.152748e+00
2.800000e-06	-2.992193e-06	-1.640947e-11	-2.153585e+01	-1.193294e+00
2.810000e-06	-3.075372e-06	-1.486905e-11	-2.213451e+01	-1.220073e+00
2.820000e-06	-3.157460e-06	-1.434542e-11	-2.272533e+01	-1.233394e+00
2.830000e-06	-3.238527e-06	-1.613689e-11	-2.330880e+01	-1.234411e+00
2.840000e-06	-3.318650e-06	-1.730368e-11	-2.388548e+01	-1.224954e+00
2.850000e-06	-3.397502e-06	-1.547518e-11	-2.445300e+01	-1.207330e+00
2.860000e-06	-3.474823e-06	-1.381506e-11	-2.500950e+01	-1.184105e+00
2.870000e-06	-3.550682e-06	-1.425784e-11	-2.555548e+01	-1.157892e+00
2.880000e-06	-3.625165e-06	-1.558461e-11	-2.609157e+01	-1.131169e+00
2.890000e-06	-3.698414e-06	-1.532512e-11	-2.661877e+01	-1.106132e+00
2.900000e-06	-3.770449e-06	-1.236697e-11	-2.713723e+01	-1.084599e+00
2.910000e-06	-3.840997e-06	-1.055279e-11	-2.764499e+01	-1.067965e+00
2.920000e-06	-3.910007e-06	-1.258374e-11	-2.814168e+01	-1.057180e+00
2.930000e-06	-3.977676e-06	-1.647090e-11	-2.862871e+01	-1.052775e+00
2.940000e-06	-4.044011e-06	-1.712386e-11	-2.910615e+01	-1.054891e+00
