# Temperatura_=_20.0
# Concentracion g/m^3_=_9000.0
# C_Vs_to_Am_M_A/Vsm_=_65563218390.804596
# pendiente_HvsI_1/m_=_3716.3
# ordenada_HvsI_A/m_=_1297.0
# frecuencia_Hz_=_300882.6478118155

Tiempo_(s)	Campo_(V.s)	Magnetizacion_(V.s)	Campo_(kA/m)	Magnetizacion_(A/m)
0.000000e+00	-5.350507e-06	-4.380890e-09	-3.829961e+01	-2.874490e+02
1.000000e-08	-5.349242e-06	-4.381039e-09	-3.829056e+01	-2.873738e+02
2.000000e-08	-5.346065e-06	-4.382875e-09	-3.826781e+01	-2.872622e+02
3.000000e-08	-5.341269e-06	-4.381576e-09	-3.823349e+01	-2.871158e+02
4.000000e-08	-5.334889e-06	-4.378237e-09	-3.818782e+01	-2.869363e+02
5.000000e-08	-5.326821e-06	-4.374920e-09	-3.813007e+01	-2.867255e+02
6.000000e-08	-5.316804e-06	-4.370768e-09	-3.805837e+01	-2.864846e+02
7.000000e-08	-5.304851e-06	-4.364764e-09	-3.797280e+01	-2.862150e+02
8.000000e-08	-5.290936e-06	-4.358171e-09	-3.787320e+01	-2.859179e+02
9.000000e-08	-5.274778e-06	-4.366374e-09	-3.775754e+01	-2.855945e+02
1.000000e-07	-5.256565e-06	-4.385402e-09	-3.762717e+01	-2.852463e+02
1.100000e-07	-5.236523e-06	-4.383645e-09	-3.748370e+01	-2.848746e+02
1.200000e-07	-5.214627e-06	-4.361599e-09	-3.732697e+01	-2.844809e+02
1.300000e-07	-5.190979e-06	-4.323067e-09	-3.715769e+01	-2.840668e+02
1.400000e-07	-5.165657e-06	-4.292435e-09	-3.697644e+01	-2.836335e+02
1.500000e-07	-5.138769e-06	-4.326979e-09	-3.678396e+01	-2.831821e+02
1.600000e-07	-5.110376e-06	-4.342860e-09	-3.658073e+01	-2.827128e+02
1.700000e-07	-5.080501e-06	-4.300797e-09	-3.636688e+01	-2.822252e+02
1.800000e-07	-5.048898e-06	-4.286948e-09	-3.614066e+01	-2.817178e+02
1.900000e-07	-5.015174e-06	-4.279389e-09	-3.589926e+01	-2.811882e+02
2.000000e-07	-4.979783e-06	-4.284559e-09	-3.564592e+01	-2.806328e+02
2.100000e-07	-4.942998e-06	-4.303131e-09	-3.538261e+01	-2.800473e+02
2.200000e-07	-4.904359e-06	-4.257124e-09	-3.510603e+01	-2.794269e+02
2.300000e-07	-4.863837e-06	-4.219287e-09	-3.481597e+01	-2.787664e+02
2.400000e-07	-4.821413e-06	-4.247383e-09	-3.451229e+01	-2.780607e+02
2.500000e-07	-4.777140e-06	-4.257322e-09	-3.419538e+01	-2.773054e+02
2.600000e-07	-4.731147e-06	-4.224425e-09	-3.386615e+01	-2.764969e+02
2.700000e-07	-4.683206e-06	-4.177779e-09	-3.352299e+01	-2.756325e+02
2.800000e-07	-4.633216e-06	-4.169063e-09	-3.316515e+01	-2.747108e+02
2.900000e-07	-4.581399e-06	-4.183399e-09	-3.279424e+01	-2.737317e+02
3.000000e-07	-4.527870e-06	-4.168866e-09	-3.241107e+01	-2.726959e+02
3.100000e-07	-4.472717e-06	-4.135687e-09	-3.201628e+01	-2.716050e+02
3.200000e-07	-4.415945e-06	-4.103884e-09	-3.160990e+01	-2.704611e+02
3.300000e-07	-4.357408e-06	-4.096848e-09	-3.119089e+01	-2.692663e+02
3.400000e-07	-4.297349e-06	-4.098545e-09	-3.076097e+01	-2.680226e+02
3.500000e-07	-4.235976e-06	-4.072370e-09	-3.032166e+01	-2.667313e+02
3.600000e-07	-4.173178e-06	-4.032898e-09	-2.987214e+01	-2.653933e+02
3.700000e-07	-4.108755e-06	-4.006768e-09	-2.941099e+01	-2.640085e+02
3.800000e-07	-4.042652e-06	-4.006735e-09	-2.893782e+01	-2.625764e+02
3.900000e-07	-3.975051e-06	-3.995611e-09	-2.845393e+01	-2.610955e+02
4.000000e-07	-3.906050e-06	-3.950898e-09	-2.796001e+01	-2.595642e+02
4.100000e-07	-3.835750e-06	-3.921580e-09	-2.745679e+01	-2.579805e+02
4.200000e-07	-3.764287e-06	-3.914911e-09	-2.694524e+01	-2.563423e+02
4.300000e-07	-3.691418e-06	-3.899087e-09	-2.642364e+01	-2.546475e+02
4.400000e-07	-3.616803e-06	-3.859977e-09	-2.588954e+01	-2.528941e+02
4.500000e-07	-3.540568e-06	-3.821532e-09	-2.534384e+01	-2.510801e+02
4.600000e-07	-3.463021e-06	-3.797516e-09	-2.478875e+01	-2.492031e+02
4.700000e-07	-3.384114e-06	-3.775265e-09	-2.422392e+01	-2.472608e+02
4.800000e-07	-3.303824e-06	-3.747131e-09	-2.364920e+01	-2.452502e+02
4.900000e-07	-3.222349e-06	-3.707427e-09	-2.306598e+01	-2.431677e+02
5.000000e-07	-3.139833e-06	-3.671649e-09	-2.247532e+01	-2.410089e+02
5.100000e-07	-3.056394e-06	-3.646405e-09	-2.187806e+01	-2.387689e+02
5.200000e-07	-2.972092e-06	-3.618241e-09	-2.127461e+01	-2.364420e+02
5.300000e-07	-2.886806e-06	-3.576223e-09	-2.066412e+01	-2.340220e+02
5.400000e-07	-2.800467e-06	-3.528956e-09	-2.004610e+01	-2.315028e+02
5.500000e-07	-2.713199e-06	-3.490701e-09	-1.942143e+01	-2.288781e+02
5.600000e-07	-2.625046e-06	-3.456523e-09	-1.879041e+01	-2.261418e+02
5.700000e-07	-2.535772e-06	-3.412307e-09	-1.815138e+01	-2.232888e+02
5.800000e-07	-2.445276e-06	-3.357606e-09	-1.750360e+01	-2.203142e+02
5.900000e-07	-2.353942e-06	-3.308768e-09	-1.684982e+01	-2.172141e+02
6.000000e-07	-2.261975e-06	-3.267484e-09	-1.619151e+01	-2.139850e+02
6.100000e-07	-2.169284e-06	-3.219177e-09	-1.552802e+01	-2.106235e+02
6.200000e-07	-2.075900e-06	-3.159134e-09	-1.485956e+01	-2.071262e+02
6.300000e-07	-1.981770e-06	-3.096830e-09	-1.418576e+01	-2.034891e+02
6.400000e-07	-1.886911e-06	-3.040014e-09	-1.350675e+01	-1.997069e+02
6.500000e-07	-1.791459e-06	-2.983192e-09	-1.282349e+01	-1.957731e+02
6.600000e-07	-1.695434e-06	-2.919228e-09	-1.213613e+01	-1.916788e+02
6.700000e-07	-1.598645e-06	-2.850991e-09	-1.144331e+01	-1.874131e+02
6.800000e-07	-1.501024e-06	-2.782216e-09	-1.074452e+01	-1.829625e+02
6.900000e-07	-1.402766e-06	-2.712872e-09	-1.004118e+01	-1.783108e+02
7.000000e-07	-1.303996e-06	-2.639987e-09	-9.334171e+00	-1.734393e+02
7.100000e-07	-1.204763e-06	-2.561161e-09	-8.623850e+00	-1.683267e+02
7.200000e-07	-1.105173e-06	-2.477384e-09	-7.910972e+00	-1.629494e+02
7.300000e-07	-1.005366e-06	-2.392110e-09	-7.196537e+00	-1.572813e+02
7.400000e-07	-9.052841e-07	-2.303636e-09	-6.480139e+00	-1.512948e+02
7.500000e-07	-8.048403e-07	-2.205043e-09	-5.761150e+00	-1.449604e+02
7.600000e-07	-7.041159e-07	-2.097612e-09	-5.040152e+00	-1.382474e+02
7.700000e-07	-6.031353e-07	-1.987099e-09	-4.317320e+00	-1.311247e+02
7.800000e-07	-5.019057e-07	-1.873101e-09	-3.592705e+00	-1.235614e+02
7.900000e-07	-4.005339e-07	-1.748873e-09	-2.867073e+00	-1.155276e+02
8.000000e-07	-2.990211e-07	-1.616510e-09	-2.140431e+00	-1.069962e+02
8.100000e-07	-1.973606e-07	-1.481234e-09	-1.412732e+00	-9.794400e+01
8.200000e-07	-9.567977e-08	-1.336681e-09	-6.848880e-01	-8.835387e+01
8.300000e-07	6.013679e-09	-1.179855e-09	4.304668e-02	-7.821654e+01
8.400000e-07	1.077824e-07	-1.015078e-09	7.715200e-01	-6.753268e+01
8.500000e-07	2.095109e-07	-8.436583e-10	1.499706e+00	-5.631477e+01
8.600000e-07	3.111063e-07	-6.648162e-10	2.226939e+00	-4.458869e+01
8.700000e-07	4.126249e-07	-4.768904e-10	2.953622e+00	-3.239490e+01
8.800000e-07	5.139720e-07	-2.827450e-10	3.679077e+00	-1.978883e+01
8.900000e-07	6.151262e-07	-8.557096e-11	4.403152e+00	-6.840578e+00
9.000000e-07	7.161552e-07	1.134828e-10	5.126331e+00	6.366268e+00
9.100000e-07	8.169184e-07	3.163162e-10	5.847607e+00	1.973676e+01
9.200000e-07	9.172993e-07	5.216878e-10	6.566146e+00	3.316750e+01
9.300000e-07	1.017279e-06	7.243780e-10	7.281811e+00	4.655021e+01
9.400000e-07	1.116929e-06	9.248448e-10	7.995121e+00	5.977579e+01
9.500000e-07	1.216336e-06	1.122054e-09	8.706688e+00	7.273862e+01
9.600000e-07	1.315455e-06	1.315225e-09	9.416198e+00	8.534066e+01
9.700000e-07	1.414154e-06	1.501998e-09	1.012269e+01	9.749528e+01
9.800000e-07	1.512311e-06	1.679191e-09	1.082531e+01	1.091303e+02
9.900000e-07	1.609761e-06	1.846003e-09	1.152288e+01	1.201904e+02
1.000000e-06	1.706405e-06	2.004102e-09	1.221467e+01	1.306379e+02
1.010000e-06	1.802272e-06	2.155888e-09	1.290089e+01	1.404535e+02
1.020000e-06	1.897444e-06	2.297329e-09	1.358215e+01	1.496347e+02
1.030000e-06	1.992020e-06	2.425570e-09	1.425913e+01	1.581946e+02
1.040000e-06	2.085960e-06	2.543396e-09	1.493157e+01	1.661588e+02
1.050000e-06	2.179179e-06	2.653775e-09	1.559884e+01	1.735625e+02
1.060000e-06	2.271651e-06	2.758843e-09	1.626077e+01	1.804474e+02
1.070000e-06	2.363409e-06	2.855661e-09	1.691758e+01	1.868584e+02
1.080000e-06	2.454564e-06	2.943364e-09	1.757008e+01	1.928405e+02
1.090000e-06	2.544965e-06	3.026770e-09	1.821719e+01	1.984369e+02
1.100000e-06	2.634179e-06	3.107325e-09	1.885579e+01	2.036866e+02
1.110000e-06	2.722132e-06	3.184446e-09	1.948537e+01	2.086238e+02
1.120000e-06	2.809120e-06	3.255132e-09	2.010804e+01	2.132770e+02
1.130000e-06	2.895250e-06	3.320025e-09	2.072457e+01	2.176696e+02
1.140000e-06	2.980471e-06	3.380542e-09	2.133459e+01	2.218201e+02
1.150000e-06	3.064691e-06	3.439109e-09	2.193745e+01	2.257431e+02
1.160000e-06	3.147995e-06	3.495683e-09	2.253375e+01	2.294504e+02
1.170000e-06	3.230349e-06	3.547922e-09	2.312325e+01	2.329520e+02
1.180000e-06	3.311379e-06	3.596643e-09	2.370327e+01	2.362570e+02
1.190000e-06	3.391128e-06	3.643152e-09	2.427413e+01	2.393743e+02
1.200000e-06	3.469726e-06	3.686450e-09	2.483674e+01	2.423129e+02
1.210000e-06	3.547081e-06	3.727089e-09	2.539046e+01	2.450826e+02
1.220000e-06	3.623213e-06	3.765803e-09	2.593542e+01	2.476934e+02
1.230000e-06	3.698071e-06	3.800253e-09	2.647126e+01	2.501559e+02
1.240000e-06	3.771296e-06	3.832246e-09	2.699542e+01	2.524806e+02
1.250000e-06	3.842877e-06	3.864876e-09	2.750781e+01	2.546779e+02
1.260000e-06	3.913153e-06	3.896967e-09	2.801085e+01	2.567578e+02
1.270000e-06	3.982069e-06	3.925427e-09	2.850416e+01	2.587294e+02
1.280000e-06	4.049687e-06	3.949785e-09	2.898818e+01	2.606013e+02
1.290000e-06	4.116017e-06	3.975093e-09	2.946298e+01	2.623811e+02
1.300000e-06	4.180646e-06	4.004003e-09	2.992560e+01	2.640756e+02
1.310000e-06	4.243651e-06	4.030476e-09	3.037660e+01	2.656907e+02
1.320000e-06	4.305317e-06	4.051817e-09	3.081801e+01	2.672317e+02
1.330000e-06	4.365625e-06	4.071254e-09	3.124970e+01	2.687032e+02
1.340000e-06	4.424621e-06	4.093897e-09	3.167200e+01	2.701089e+02
1.350000e-06	4.481975e-06	4.116951e-09	3.208255e+01	2.714522e+02
1.360000e-06	4.537515e-06	4.135431e-09	3.248011e+01	2.727355e+02
1.370000e-06	4.591471e-06	4.151485e-09	3.286633e+01	2.739606e+02
1.380000e-06	4.643761e-06	4.169513e-09	3.324064e+01	2.751288e+02
1.390000e-06	4.694114e-06	4.188220e-09	3.360107e+01	2.762403e+02
1.400000e-06	4.742406e-06	4.205098e-09	3.394675e+01	2.772952e+02
1.410000e-06	4.788862e-06	4.219910e-09	3.427929e+01	2.782931e+02
1.420000e-06	4.833708e-06	4.234138e-09	3.460030e+01	2.792335e+02
1.430000e-06	4.877028e-06	4.248604e-09	3.491039e+01	2.801159e+02
1.440000e-06	4.918541e-06	4.263024e-09	3.520755e+01	2.809405e+02
1.450000e-06	4.958143e-06	4.276317e-09	3.549102e+01	2.817077e+02
1.460000e-06	4.996070e-06	4.286592e-09	3.576251e+01	2.824190e+02
1.470000e-06	5.032370e-06	4.296494e-09	3.602235e+01	2.830766e+02
1.480000e-06	5.067079e-06	4.307417e-09	3.627080e+01	2.836836e+02
1.490000e-06	5.099911e-06	4.318069e-09	3.650582e+01	2.842436e+02
1.500000e-06	5.130802e-06	4.327071e-09	3.672694e+01	2.847608e+02
1.510000e-06	5.159991e-06	4.335385e-09	3.693587e+01	2.852393e+02
1.520000e-06	5.187512e-06	4.342600e-09	3.713287e+01	2.856828e+02
1.530000e-06	5.213090e-06	4.348549e-09	3.731597e+01	2.860948e+02
1.540000e-06	5.236629e-06	4.354025e-09	3.748446e+01	2.864777e+02
1.550000e-06	5.258366e-06	4.359906e-09	3.764006e+01	2.868328e+02
1.560000e-06	5.278376e-06	4.366707e-09	3.778329e+01	2.871604e+02
1.570000e-06	5.296650e-06	4.372009e-09	3.791410e+01	2.874599e+02
1.580000e-06	5.313002e-06	4.375621e-09	3.803115e+01	2.877297e+02
1.590000e-06	5.327357e-06	4.379665e-09	3.813391e+01	2.879678e+02
1.600000e-06	5.339808e-06	4.385005e-09	3.822303e+01	2.881718e+02
1.610000e-06	5.350253e-06	4.389296e-09	3.829779e+01	2.883394e+02
1.620000e-06	5.358526e-06	4.389688e-09	3.835701e+01	2.884687e+02
1.630000e-06	5.364795e-06	4.389328e-09	3.840189e+01	2.885583e+02
1.640000e-06	5.369289e-06	4.392617e-09	3.843406e+01	2.886077e+02
1.650000e-06	5.372094e-06	4.395567e-09	3.845414e+01	2.886169e+02
1.660000e-06	5.372913e-06	4.395861e-09	3.846000e+01	2.885865e+02
1.670000e-06	5.371725e-06	4.393342e-09	3.845149e+01	2.885178e+02
1.680000e-06	5.368871e-06	4.389647e-09	3.843107e+01	2.884124e+02
1.690000e-06	5.364450e-06	4.387697e-09	3.839942e+01	2.882719e+02
1.700000e-06	5.358274e-06	4.384872e-09	3.835521e+01	2.880980e+02
1.710000e-06	5.350194e-06	4.381744e-09	3.829737e+01	2.878925e+02
1.720000e-06	5.340470e-06	4.379503e-09	3.822777e+01	2.876567e+02
1.730000e-06	5.329096e-06	4.378055e-09	3.814635e+01	2.873919e+02
1.740000e-06	5.315954e-06	4.371287e-09	3.805228e+01	2.870994e+02
1.750000e-06	5.300801e-06	4.339512e-09	3.794381e+01	2.867805e+02
1.760000e-06	5.283199e-06	4.311388e-09	3.781781e+01	2.864364e+02
1.770000e-06	5.262982e-06	4.311179e-09	3.767310e+01	2.860686e+02
1.780000e-06	5.240359e-06	4.337382e-09	3.751116e+01	2.856785e+02
1.790000e-06	5.216164e-06	4.380116e-09	3.733797e+01	2.852678e+02
1.800000e-06	5.191236e-06	4.349744e-09	3.715953e+01	2.848376e+02
1.810000e-06	5.165073e-06	4.294237e-09	3.697225e+01	2.843892e+02
1.820000e-06	5.136840e-06	4.317430e-09	3.677016e+01	2.839229e+02
1.830000e-06	5.106906e-06	4.325252e-09	3.655589e+01	2.834385e+02
1.840000e-06	5.075341e-06	4.324718e-09	3.632994e+01	2.829346e+02
1.850000e-06	5.041590e-06	4.322978e-09	3.608835e+01	2.824089e+02
1.860000e-06	5.006027e-06	4.268074e-09	3.583378e+01	2.818583e+02
1.870000e-06	4.968946e-06	4.269664e-09	3.556835e+01	2.812783e+02
1.880000e-06	4.929964e-06	4.303220e-09	3.528931e+01	2.806643e+02
1.890000e-06	4.889164e-06	4.270409e-09	3.499726e+01	2.800112e+02
1.900000e-06	4.846560e-06	4.243946e-09	3.469230e+01	2.793137e+02
1.910000e-06	4.802367e-06	4.243313e-09	3.437596e+01	2.785674e+02
1.920000e-06	4.756794e-06	4.258820e-09	3.404974e+01	2.777684e+02
1.930000e-06	4.709314e-06	4.260166e-09	3.370987e+01	2.769139e+02
1.940000e-06	4.660000e-06	4.203155e-09	3.335688e+01	2.760023e+02
1.950000e-06	4.609080e-06	4.193415e-09	3.299239e+01	2.750332e+02
1.960000e-06	4.556378e-06	4.196666e-09	3.261514e+01	2.740072e+02
1.970000e-06	4.501683e-06	4.177370e-09	3.222362e+01	2.729259e+02
1.980000e-06	4.445185e-06	4.172426e-09	3.181920e+01	2.717911e+02
1.990000e-06	4.387186e-06	4.124185e-09	3.140404e+01	2.706051e+02
2.000000e-06	4.327593e-06	4.100719e-09	3.097746e+01	2.693698e+02
2.010000e-06	4.266663e-06	4.107983e-09	3.054132e+01	2.680867e+02
2.020000e-06	4.204324e-06	4.096346e-09	3.009509e+01	2.667568e+02
2.030000e-06	4.140124e-06	4.059619e-09	2.963554e+01	2.653802e+02
2.040000e-06	4.074302e-06	4.006977e-09	2.916438e+01	2.639564e+02
2.050000e-06	4.007127e-06	4.016826e-09	2.868353e+01	2.624841e+02
2.060000e-06	3.938655e-06	4.010997e-09	2.819340e+01	2.609618e+02
2.070000e-06	3.868669e-06	3.963303e-09	2.769243e+01	2.593874e+02
2.080000e-06	3.796972e-06	3.929541e-09	2.717921e+01	2.577589e+02
2.090000e-06	3.723965e-06	3.901355e-09	2.665662e+01	2.560742e+02
2.100000e-06	3.649744e-06	3.894497e-09	2.612534e+01	2.543312e+02
2.110000e-06	3.574142e-06	3.865099e-09	2.558417e+01	2.525280e+02
2.120000e-06	3.497055e-06	3.828463e-09	2.503237e+01	2.506623e+02
2.130000e-06	3.418471e-06	3.790985e-09	2.446985e+01	2.487316e+02
2.140000e-06	3.338501e-06	3.760261e-09	2.389742e+01	2.467333e+02
2.150000e-06	3.257305e-06	3.747197e-09	2.331620e+01	2.446637e+02
2.160000e-06	3.175057e-06	3.710955e-09	2.272747e+01	2.425186e+02
2.170000e-06	3.091742e-06	3.671488e-09	2.213108e+01	2.402933e+02
2.180000e-06	3.007436e-06	3.630606e-09	2.152761e+01	2.379822e+02
2.190000e-06	2.922187e-06	3.600646e-09	2.091739e+01	2.355792e+02
2.200000e-06	2.835830e-06	3.569219e-09	2.029924e+01	2.330779e+02
2.210000e-06	2.748182e-06	3.522909e-09	1.967184e+01	2.304723e+02
2.220000e-06	2.659467e-06	3.477412e-09	1.903681e+01	2.277562e+02
2.230000e-06	2.570019e-06	3.434472e-09	1.839653e+01	2.249241e+02
2.240000e-06	2.479724e-06	3.398017e-09	1.775018e+01	2.219714e+02
2.250000e-06	2.388607e-06	3.349824e-09	1.709795e+01	2.188938e+02
2.260000e-06	2.296767e-06	3.298401e-09	1.644055e+01	2.156878e+02
2.270000e-06	2.204246e-06	3.246608e-09	1.577828e+01	2.123500e+02
2.280000e-06	2.110978e-06	3.195733e-09	1.511065e+01	2.088770e+02
2.290000e-06	2.016767e-06	3.145619e-09	1.443627e+01	2.052650e+02
2.300000e-06	1.921646e-06	3.088828e-09	1.375539e+01	2.015090e+02
2.310000e-06	1.825729e-06	3.028667e-09	1.306881e+01	1.976026e+02
2.320000e-06	1.729151e-06	2.964277e-09	1.237748e+01	1.935375e+02
2.330000e-06	1.632075e-06	2.901897e-09	1.168260e+01	1.893032e+02
2.340000e-06	1.534558e-06	2.837240e-09	1.098456e+01	1.848865e+02
2.350000e-06	1.436501e-06	2.766785e-09	1.028266e+01	1.802718e+02
2.360000e-06	1.337980e-06	2.691691e-09	9.577435e+00	1.754409e+02
2.370000e-06	1.239096e-06	2.615553e-09	8.869607e+00	1.703728e+02
2.380000e-06	1.139803e-06	2.535476e-09	8.158857e+00	1.650444e+02
2.390000e-06	1.040142e-06	2.448908e-09	7.445467e+00	1.594300e+02
2.400000e-06	9.401773e-07	2.357933e-09	6.729910e+00	1.535023e+02
2.410000e-06	8.399464e-07	2.261747e-09	6.012444e+00	1.472320e+02
2.420000e-06	7.394672e-07	2.160280e-09	5.293201e+00	1.405887e+02
2.430000e-06	6.387556e-07	2.054338e-09	4.572295e+00	1.335413e+02
2.440000e-06	5.378489e-07	1.944616e-09	3.849991e+00	1.260587e+02
2.450000e-06	4.367279e-07	1.823361e-09	3.126154e+00	1.181109e+02
2.460000e-06	3.354130e-07	1.689943e-09	2.400929e+00	1.096699e+02
2.470000e-06	2.339958e-07	1.550938e-09	1.674972e+00	1.007120e+02
2.480000e-06	1.324734e-07	1.409610e-09	9.482616e-01	9.121868e+01
2.490000e-06	3.090076e-08	1.261416e-09	2.211916e-01	8.117914e+01
2.500000e-06	-7.055728e-08	1.100086e-09	-5.050580e-01	7.059213e+01
2.510000e-06	-1.719066e-07	9.276932e-10	-1.230530e+00	5.946789e+01
2.520000e-06	-2.731855e-07	7.493881e-10	-1.955497e+00	4.782983e+01
2.530000e-06	-3.743737e-07	5.671743e-10	-2.679815e+00	3.571573e+01
2.540000e-06	-4.754667e-07	3.754356e-10	-3.403452e+00	2.317836e+01
2.550000e-06	-5.763898e-07	1.734796e-10	-4.125872e+00	1.028526e+01
2.560000e-06	-6.770819e-07	-3.100224e-11	-4.846639e+00	-2.882274e+00
2.570000e-06	-7.775001e-07	-2.333073e-10	-5.565445e+00	-1.623112e+01
2.580000e-06	-8.776446e-07	-4.342318e-10	-6.282292e+00	-2.965915e+01
2.590000e-06	-9.775280e-07	-6.379358e-10	-6.997271e+00	-4.305866e+01
2.600000e-06	-1.077118e-06	-8.431142e-10	-7.710149e+00	-5.632040e+01
2.610000e-06	-1.176376e-06	-1.042977e-09	-8.420648e+00	-6.933780e+01
2.620000e-06	-1.275232e-06	-1.232581e-09	-9.128274e+00	-8.201118e+01
2.630000e-06	-1.373658e-06	-1.416747e-09	-9.832818e+00	-9.425163e+01
2.640000e-06	-1.471577e-06	-1.600102e-09	-1.053374e+01	-1.059842e+02
2.650000e-06	-1.568973e-06	-1.775137e-09	-1.123091e+01	-1.171504e+02
2.660000e-06	-1.665938e-06	-1.934943e-09	-1.192500e+01	-1.277094e+02
2.670000e-06	-1.762489e-06	-2.082589e-09	-1.261612e+01	-1.376387e+02
2.680000e-06	-1.858560e-06	-2.223359e-09	-1.330381e+01	-1.469329e+02
2.690000e-06	-1.953904e-06	-2.357942e-09	-1.398630e+01	-1.556024e+02
2.700000e-06	-2.048267e-06	-2.483870e-09	-1.466176e+01	-1.636708e+02
2.710000e-06	-2.141657e-06	-2.598309e-09	-1.533025e+01	-1.711718e+02
2.720000e-06	-2.234193e-06	-2.703345e-09	-1.599264e+01	-1.781463e+02
2.730000e-06	-2.326046e-06	-2.803381e-09	-1.665014e+01	-1.846388e+02
2.740000e-06	-2.417192e-06	-2.900394e-09	-1.730257e+01	-1.906945e+02
2.750000e-06	-2.507433e-06	-2.989437e-09	-1.794853e+01	-1.963570e+02
2.760000e-06	-2.596772e-06	-3.068501e-09	-1.858803e+01	-2.016661e+02
2.770000e-06	-2.685355e-06	-3.142347e-09	-1.922211e+01	-2.066570e+02
2.780000e-06	-2.773148e-06	-3.214688e-09	-1.985055e+01	-2.113593e+02
2.790000e-06	-2.859789e-06	-3.284927e-09	-2.047074e+01	-2.157971e+02
2.800000e-06	-2.945126e-06	-3.348106e-09	-2.108159e+01	-2.199898e+02
2.810000e-06	-3.029400e-06	-3.407321e-09	-2.168483e+01	-2.239527e+02
2.820000e-06	-3.112727e-06	-3.465986e-09	-2.228130e+01	-2.276980e+02
2.830000e-06	-3.195047e-06	-3.523013e-09	-2.287055e+01	-2.312358e+02
2.840000e-06	-3.276312e-06	-3.578258e-09	-2.345226e+01	-2.345755e+02
2.850000e-06	-3.356574e-06	-3.628349e-09	-2.402679e+01	-2.377258e+02
2.860000e-06	-3.435634e-06	-3.673487e-09	-2.459271e+01	-2.406959e+02
2.870000e-06	-3.513146e-06	-3.716611e-09	-2.514755e+01	-2.434952e+02
2.880000e-06	-3.589125e-06	-3.759752e-09	-2.569142e+01	-2.461338e+02
2.890000e-06	-3.663730e-06	-3.800380e-09	-2.622545e+01	-2.486222e+02
2.900000e-06	-3.737068e-06	-3.836184e-09	-2.675041e+01	-2.509709e+02
2.910000e-06	-3.809141e-06	-3.869358e-09	-2.726632e+01	-2.531904e+02
2.920000e-06	-3.879697e-06	-3.902811e-09	-2.777137e+01	-2.552907e+02
2.930000e-06	-3.948674e-06	-3.937168e-09	-2.826511e+01	-2.572812e+02
2.940000e-06	-4.016339e-06	-3.968111e-09	-2.874947e+01	-2.591706e+02
