# Temperatura_=_20.0
# Concentracion g/m^3_=_9000.0
# C_Vs_to_Am_M_A/Vsm_=_65563218390.804596
# pendiente_HvsI_1/m_=_3716.3
# ordenada_HvsI_A/m_=_1297.0
# frecuencia_Hz_=_300877.5367555539

Tiempo_(s)	Campo_(V.s)	Magnetizacion_(V.s)	Campo_(kA/m)	Magnetizacion_(A/m)
0.000000e+00	-5.359113e-06	-4.321908e-09	-3.829800e+01	-2.831550e+02
1.000000e-08	-5.357777e-06	-4.323368e-09	-3.828845e+01	-2.831286e+02
2.000000e-08	-5.354546e-06	-4.323992e-09	-3.826536e+01	-2.830649e+02
3.000000e-08	-5.349707e-06	-4.322264e-09	-3.823078e+01	-2.829628e+02
4.000000e-08	-5.343255e-06	-4.318961e-09	-3.818467e+01	-2.828210e+02
5.000000e-08	-5.335176e-06	-4.314748e-09	-3.812693e+01	-2.826393e+02
6.000000e-08	-5.325111e-06	-4.310012e-09	-3.805501e+01	-2.824182e+02
7.000000e-08	-5.312979e-06	-4.303266e-09	-3.796831e+01	-2.821591e+02
8.000000e-08	-5.298922e-06	-4.296834e-09	-3.786785e+01	-2.818648e+02
9.000000e-08	-5.282687e-06	-4.321315e-09	-3.775183e+01	-2.815390e+02
1.000000e-07	-5.264355e-06	-4.346338e-09	-3.762083e+01	-2.811862e+02
1.100000e-07	-5.244160e-06	-4.331353e-09	-3.747651e+01	-2.808115e+02
1.200000e-07	-5.222132e-06	-4.303188e-09	-3.731909e+01	-2.804199e+02
1.300000e-07	-5.198349e-06	-4.251603e-09	-3.714912e+01	-2.800158e+02
1.400000e-07	-5.172850e-06	-4.219472e-09	-3.696690e+01	-2.796024e+02
1.500000e-07	-5.145773e-06	-4.296317e-09	-3.677340e+01	-2.791815e+02
1.600000e-07	-5.117231e-06	-4.290581e-09	-3.656943e+01	-2.787527e+02
1.700000e-07	-5.087241e-06	-4.228692e-09	-3.635511e+01	-2.783136e+02
1.800000e-07	-5.055483e-06	-4.247492e-09	-3.612815e+01	-2.778593e+02
1.900000e-07	-5.021546e-06	-4.219885e-09	-3.588563e+01	-2.773833e+02
2.000000e-07	-4.986010e-06	-4.236032e-09	-3.563168e+01	-2.768777e+02
2.100000e-07	-4.949002e-06	-4.263638e-09	-3.536721e+01	-2.763337e+02
2.200000e-07	-4.910128e-06	-4.177504e-09	-3.508940e+01	-2.757426e+02
2.300000e-07	-4.869466e-06	-4.157334e-09	-3.479882e+01	-2.750964e+02
2.400000e-07	-4.826940e-06	-4.199083e-09	-3.449491e+01	-2.743889e+02
2.500000e-07	-4.782582e-06	-4.189097e-09	-3.417792e+01	-2.736155e+02
2.600000e-07	-4.736456e-06	-4.168858e-09	-3.384828e+01	-2.727746e+02
2.700000e-07	-4.688358e-06	-4.111720e-09	-3.350456e+01	-2.718665e+02
2.800000e-07	-4.638168e-06	-4.101593e-09	-3.314588e+01	-2.708943e+02
2.900000e-07	-4.586110e-06	-4.129662e-09	-3.277386e+01	-2.698626e+02
3.000000e-07	-4.532413e-06	-4.115084e-09	-3.239012e+01	-2.687775e+02
3.100000e-07	-4.477130e-06	-4.070780e-09	-3.199505e+01	-2.676454e+02
3.200000e-07	-4.420130e-06	-4.039952e-09	-3.158772e+01	-2.664724e+02
3.300000e-07	-4.361392e-06	-4.042431e-09	-3.116795e+01	-2.652637e+02
3.400000e-07	-4.301188e-06	-4.027944e-09	-3.073772e+01	-2.640228e+02
3.500000e-07	-4.239570e-06	-4.007051e-09	-3.029737e+01	-2.627513e+02
3.600000e-07	-4.176493e-06	-3.974802e-09	-2.984660e+01	-2.614489e+02
3.700000e-07	-4.111825e-06	-3.940493e-09	-2.938446e+01	-2.601132e+02
3.800000e-07	-4.045491e-06	-3.950028e-09	-2.891042e+01	-2.587403e+02
3.900000e-07	-3.977661e-06	-3.942735e-09	-2.842568e+01	-2.573252e+02
4.000000e-07	-3.908393e-06	-3.893401e-09	-2.793067e+01	-2.558626e+02
4.100000e-07	-3.837858e-06	-3.861829e-09	-2.742661e+01	-2.543469e+02
4.200000e-07	-3.766192e-06	-3.857521e-09	-2.691446e+01	-2.527734e+02
4.300000e-07	-3.693111e-06	-3.845323e-09	-2.639220e+01	-2.511380e+02
4.400000e-07	-3.618323e-06	-3.801348e-09	-2.585774e+01	-2.494377e+02
4.500000e-07	-3.542040e-06	-3.764878e-09	-2.531259e+01	-2.476705e+02
4.600000e-07	-3.464409e-06	-3.746564e-09	-2.475782e+01	-2.458352e+02
4.700000e-07	-3.385320e-06	-3.728208e-09	-2.419262e+01	-2.439308e+02
4.800000e-07	-3.304833e-06	-3.700720e-09	-2.361743e+01	-2.419563e+02
4.900000e-07	-3.223124e-06	-3.658201e-09	-2.303351e+01	-2.399104e+02
5.000000e-07	-3.140409e-06	-3.624152e-09	-2.244240e+01	-2.377909e+02
5.100000e-07	-3.056847e-06	-3.596454e-09	-2.184524e+01	-2.355946e+02
5.200000e-07	-2.972378e-06	-3.566537e-09	-2.124160e+01	-2.333173e+02
5.300000e-07	-2.886827e-06	-3.522415e-09	-2.063022e+01	-2.309535e+02
5.400000e-07	-2.800308e-06	-3.473284e-09	-2.001193e+01	-2.284974e+02
5.500000e-07	-2.712999e-06	-3.439267e-09	-1.938799e+01	-2.259424e+02
5.600000e-07	-2.624755e-06	-3.411248e-09	-1.875737e+01	-2.232821e+02
5.700000e-07	-2.535302e-06	-3.368849e-09	-1.811811e+01	-2.205102e+02
5.800000e-07	-2.444617e-06	-3.310892e-09	-1.747005e+01	-2.176211e+02
5.900000e-07	-2.353040e-06	-3.264586e-09	-1.681560e+01	-2.146098e+02
6.000000e-07	-2.260816e-06	-3.228894e-09	-1.615654e+01	-2.114718e+02
6.100000e-07	-2.167925e-06	-3.182389e-09	-1.549271e+01	-2.082032e+02
6.200000e-07	-2.074291e-06	-3.117424e-09	-1.482357e+01	-2.048001e+02
6.300000e-07	-1.979916e-06	-3.051736e-09	-1.414913e+01	-2.012581e+02
6.400000e-07	-1.884904e-06	-2.997871e-09	-1.347015e+01	-1.975719e+02
6.500000e-07	-1.789342e-06	-2.946265e-09	-1.278723e+01	-1.937346e+02
6.600000e-07	-1.693126e-06	-2.883438e-09	-1.209964e+01	-1.897374e+02
6.700000e-07	-1.596083e-06	-2.811556e-09	-1.140614e+01	-1.855693e+02
6.800000e-07	-1.498219e-06	-2.743142e-09	-1.070677e+01	-1.812161e+02
6.900000e-07	-1.399728e-06	-2.678874e-09	-1.000292e+01	-1.766615e+02
7.000000e-07	-1.300798e-06	-2.611826e-09	-9.295934e+00	-1.718857e+02
7.100000e-07	-1.201449e-06	-2.531401e-09	-8.585951e+00	-1.668666e+02
7.200000e-07	-1.101731e-06	-2.442644e-09	-7.873333e+00	-1.615795e+02
7.300000e-07	-1.001752e-06	-2.359662e-09	-7.158849e+00	-1.559970e+02
7.400000e-07	-9.014949e-07	-2.276834e-09	-6.442381e+00	-1.500902e+02
7.500000e-07	-8.009057e-07	-2.179482e-09	-5.723538e+00	-1.438282e+02
7.600000e-07	-7.000057e-07	-2.069708e-09	-5.002473e+00	-1.371790e+02
7.700000e-07	-5.988518e-07	-1.959654e-09	-4.279593e+00	-1.301101e+02
7.800000e-07	-4.974735e-07	-1.848885e-09	-3.555110e+00	-1.225894e+02
7.900000e-07	-3.958707e-07	-1.728609e-09	-2.829023e+00	-1.145860e+02
8.000000e-07	-2.941387e-07	-1.597464e-09	-2.102013e+00	-1.060718e+02
8.100000e-07	-1.923602e-07	-1.459741e-09	-1.374670e+00	-9.702287e+01
8.200000e-07	-9.052428e-08	-1.313925e-09	-6.469165e-01	-8.742156e+01
8.300000e-07	1.137706e-08	-1.156931e-09	8.130423e-02	-7.725836e+01
8.400000e-07	1.133016e-07	-9.898657e-10	8.096906e-01	-6.653403e+01
8.500000e-07	2.151791e-07	-8.167814e-10	1.537741e+00	-5.526157e+01
8.600000e-07	3.170493e-07	-6.391088e-10	2.265740e+00	-4.346788e+01
8.700000e-07	4.187982e-07	-4.529120e-10	2.992871e+00	-3.119492e+01
8.800000e-07	5.202814e-07	-2.602415e-10	3.718103e+00	-1.850025e+01
8.900000e-07	6.215674e-07	-6.279739e-11	4.441926e+00	-5.456705e+00
9.000000e-07	7.226827e-07	1.386216e-10	5.164530e+00	7.848842e+00
9.100000e-07	8.235502e-07	3.446089e-10	5.885362e+00	2.131763e+01
9.200000e-07	9.241228e-07	5.515647e-10	6.604088e+00	3.484205e+01
9.300000e-07	1.024385e-06	7.565783e-10	7.320592e+00	4.830938e+01
9.400000e-07	1.124295e-06	9.598495e-10	8.034583e+00	6.160604e+01
9.500000e-07	1.223845e-06	1.158185e-09	8.746002e+00	7.462213e+01
9.600000e-07	1.323001e-06	1.351147e-09	9.454604e+00	8.725577e+01
9.700000e-07	1.421769e-06	1.535397e-09	1.016044e+01	9.941717e+01
9.800000e-07	1.520113e-06	1.711216e-09	1.086323e+01	1.110319e+02
9.900000e-07	1.617772e-06	1.877253e-09	1.156113e+01	1.220433e+02
1.000000e-06	1.714529e-06	2.034130e-09	1.225259e+01	1.324139e+02
1.010000e-06	1.810414e-06	2.183747e-09	1.293782e+01	1.421253e+02
1.020000e-06	1.905656e-06	2.323543e-09	1.361845e+01	1.511773e+02
1.030000e-06	2.000355e-06	2.452147e-09	1.429520e+01	1.595862e+02
1.040000e-06	2.094411e-06	2.569926e-09	1.496735e+01	1.673816e+02
1.050000e-06	2.187757e-06	2.678070e-09	1.563444e+01	1.746030e+02
1.060000e-06	2.280358e-06	2.778067e-09	1.629619e+01	1.812969e+02
1.070000e-06	2.372248e-06	2.870785e-09	1.695287e+01	1.875124e+02
1.080000e-06	2.463494e-06	2.954433e-09	1.760495e+01	1.932987e+02
1.090000e-06	2.553970e-06	3.035170e-09	1.825151e+01	1.987019e+02
1.100000e-06	2.643297e-06	3.113506e-09	1.888988e+01	2.037634e+02
1.110000e-06	2.731324e-06	3.186461e-09	1.951894e+01	2.085186e+02
1.120000e-06	2.818392e-06	3.254914e-09	2.014116e+01	2.129964e+02
1.130000e-06	2.904625e-06	3.319390e-09	2.075741e+01	2.172193e+02
1.140000e-06	2.989920e-06	3.379838e-09	2.136696e+01	2.212043e+02
1.150000e-06	3.074245e-06	3.435627e-09	2.196958e+01	2.249642e+02
1.160000e-06	3.157649e-06	3.488612e-09	2.256560e+01	2.285087e+02
1.170000e-06	3.240128e-06	3.537607e-09	2.315503e+01	2.318458e+02
1.180000e-06	3.321317e-06	3.581972e-09	2.373523e+01	2.349830e+02
1.190000e-06	3.401185e-06	3.623660e-09	2.430599e+01	2.379283e+02
1.200000e-06	3.479897e-06	3.663912e-09	2.486850e+01	2.406909e+02
1.210000e-06	3.557347e-06	3.702904e-09	2.542198e+01	2.432813e+02
1.220000e-06	3.633531e-06	3.738337e-09	2.596642e+01	2.457113e+02
1.230000e-06	3.708423e-06	3.771858e-09	2.650162e+01	2.479938e+02
1.240000e-06	3.781678e-06	3.805030e-09	2.702512e+01	2.501421e+02
1.250000e-06	3.853294e-06	3.835962e-09	2.753692e+01	2.521696e+02
1.260000e-06	3.923622e-06	3.864247e-09	2.803950e+01	2.540891e+02
1.270000e-06	3.992655e-06	3.889722e-09	2.853284e+01	2.559119e+02
1.280000e-06	4.060367e-06	3.912823e-09	2.901673e+01	2.576481e+02
1.290000e-06	4.126698e-06	3.937346e-09	2.949075e+01	2.593059e+02
1.300000e-06	4.191362e-06	3.963775e-09	2.995286e+01	2.608916e+02
1.310000e-06	4.254487e-06	3.987391e-09	3.040398e+01	2.624098e+02
1.320000e-06	4.316257e-06	4.008341e-09	3.084541e+01	2.638634e+02
1.330000e-06	4.376581e-06	4.029697e-09	3.127650e+01	2.652542e+02
1.340000e-06	4.435552e-06	4.051387e-09	3.169792e+01	2.665831e+02
1.350000e-06	4.492899e-06	4.070234e-09	3.210774e+01	2.678505e+02
1.360000e-06	4.548413e-06	4.086259e-09	3.250446e+01	2.690563e+02
1.370000e-06	4.602336e-06	4.101895e-09	3.288982e+01	2.702007e+02
1.380000e-06	4.654623e-06	4.118922e-09	3.326348e+01	2.712842e+02
1.390000e-06	4.704874e-06	4.135151e-09	3.362259e+01	2.723076e+02
1.400000e-06	4.753030e-06	4.149393e-09	3.396672e+01	2.732722e+02
1.410000e-06	4.799452e-06	4.163881e-09	3.429847e+01	2.741796e+02
1.420000e-06	4.844300e-06	4.180147e-09	3.461897e+01	2.750323e+02
1.430000e-06	4.887617e-06	4.194213e-09	3.492853e+01	2.758326e+02
1.440000e-06	4.929116e-06	4.205047e-09	3.522510e+01	2.765837e+02
1.450000e-06	4.968705e-06	4.216374e-09	3.550801e+01	2.772884e+02
1.460000e-06	5.006634e-06	4.227450e-09	3.577907e+01	2.779497e+02
1.470000e-06	5.042962e-06	4.236708e-09	3.603867e+01	2.785706e+02
1.480000e-06	5.077625e-06	4.245399e-09	3.628639e+01	2.791538e+02
1.490000e-06	5.110315e-06	4.255087e-09	3.652000e+01	2.797015e+02
1.500000e-06	5.141119e-06	4.263537e-09	3.674014e+01	2.802158e+02
1.510000e-06	5.170286e-06	4.271825e-09	3.694858e+01	2.806980e+02
1.520000e-06	5.197769e-06	4.280741e-09	3.714498e+01	2.811493e+02
1.530000e-06	5.223259e-06	4.286983e-09	3.732714e+01	2.815702e+02
1.540000e-06	5.246666e-06	4.292009e-09	3.749441e+01	2.819610e+02
1.550000e-06	5.268298e-06	4.298214e-09	3.764901e+01	2.823218e+02
1.560000e-06	5.288274e-06	4.306072e-09	3.779176e+01	2.826523e+02
1.570000e-06	5.306456e-06	4.311107e-09	3.792169e+01	2.829524e+02
1.580000e-06	5.322635e-06	4.314062e-09	3.803732e+01	2.832219e+02
1.590000e-06	5.336910e-06	4.318408e-09	3.813933e+01	2.834606e+02
1.600000e-06	5.349330e-06	4.323459e-09	3.822808e+01	2.836684e+02
1.610000e-06	5.359649e-06	4.327233e-09	3.830183e+01	2.838452e+02
1.620000e-06	5.367808e-06	4.329283e-09	3.836014e+01	2.839908e+02
1.630000e-06	5.373998e-06	4.331240e-09	3.840437e+01	2.841050e+02
1.640000e-06	5.378415e-06	4.333482e-09	3.843594e+01	2.841872e+02
1.650000e-06	5.381090e-06	4.334834e-09	3.845505e+01	2.842366e+02
1.660000e-06	5.381782e-06	4.335441e-09	3.846000e+01	2.842519e+02
1.670000e-06	5.380520e-06	4.333775e-09	3.845098e+01	2.842319e+02
1.680000e-06	5.377609e-06	4.332249e-09	3.843017e+01	2.841751e+02
1.690000e-06	5.373117e-06	4.331545e-09	3.839808e+01	2.840799e+02
1.700000e-06	5.366742e-06	4.330109e-09	3.835252e+01	2.839452e+02
1.710000e-06	5.358476e-06	4.328292e-09	3.829344e+01	2.837707e+02
1.720000e-06	5.348605e-06	4.326316e-09	3.822291e+01	2.835565e+02
1.730000e-06	5.337123e-06	4.329678e-09	3.814085e+01	2.833040e+02
1.740000e-06	5.323801e-06	4.320876e-09	3.804565e+01	2.830157e+02
1.750000e-06	5.308363e-06	4.271377e-09	3.793532e+01	2.826952e+02
1.760000e-06	5.290552e-06	4.252621e-09	3.780803e+01	2.823469e+02
1.770000e-06	5.270161e-06	4.263324e-09	3.766231e+01	2.819758e+02
1.780000e-06	5.247335e-06	4.297264e-09	3.749919e+01	2.815868e+02
1.790000e-06	5.223035e-06	4.363539e-09	3.732554e+01	2.811846e+02
1.800000e-06	5.198067e-06	4.289717e-09	3.714711e+01	2.807727e+02
1.810000e-06	5.171806e-06	4.234520e-09	3.695944e+01	2.803531e+02
1.820000e-06	5.143409e-06	4.293618e-09	3.675650e+01	2.799258e+02
1.830000e-06	5.113217e-06	4.253153e-09	3.654074e+01	2.794888e+02
1.840000e-06	5.081400e-06	4.281240e-09	3.631337e+01	2.790376e+02
1.850000e-06	5.047452e-06	4.303140e-09	3.607077e+01	2.785661e+02
1.860000e-06	5.011754e-06	4.196750e-09	3.581566e+01	2.780664e+02
1.870000e-06	4.974471e-06	4.246275e-09	3.554922e+01	2.775299e+02
1.880000e-06	4.935306e-06	4.274620e-09	3.526933e+01	2.769478e+02
1.890000e-06	4.894433e-06	4.197732e-09	3.497724e+01	2.763120e+02
1.900000e-06	4.851736e-06	4.197423e-09	3.467212e+01	2.756158e+02
1.910000e-06	4.807509e-06	4.158328e-09	3.435605e+01	2.748544e+02
1.920000e-06	4.761822e-06	4.184682e-09	3.402956e+01	2.740255e+02
1.930000e-06	4.714090e-06	4.201923e-09	3.368845e+01	2.731293e+02
1.940000e-06	4.664567e-06	4.113280e-09	3.333454e+01	2.721682e+02
1.950000e-06	4.613497e-06	4.130897e-09	3.296958e+01	2.711467e+02
1.960000e-06	4.560604e-06	4.121305e-09	3.259159e+01	2.700707e+02
1.970000e-06	4.505656e-06	4.099610e-09	3.219891e+01	2.689465e+02
1.980000e-06	4.448927e-06	4.095864e-09	3.179350e+01	2.677803e+02
1.990000e-06	4.390730e-06	4.048640e-09	3.137761e+01	2.665777e+02
2.000000e-06	4.330989e-06	4.041309e-09	3.095069e+01	2.653424e+02
2.010000e-06	4.269872e-06	4.021490e-09	3.051392e+01	2.640763e+02
2.020000e-06	4.207204e-06	4.034475e-09	3.006607e+01	2.627796e+02
2.030000e-06	4.142721e-06	3.988769e-09	2.960526e+01	2.614500e+02
2.040000e-06	4.076706e-06	3.928190e-09	2.913350e+01	2.600841e+02
2.050000e-06	4.009399e-06	3.964098e-09	2.865250e+01	2.586770e+02
2.060000e-06	3.940845e-06	3.944300e-09	2.816258e+01	2.572232e+02
2.070000e-06	3.870652e-06	3.904504e-09	2.766096e+01	2.557174e+02
2.080000e-06	3.798804e-06	3.852948e-09	2.714751e+01	2.541545e+02
2.090000e-06	3.725717e-06	3.835074e-09	2.662521e+01	2.525304e+02
2.100000e-06	3.651289e-06	3.839087e-09	2.609332e+01	2.508418e+02
2.110000e-06	3.575426e-06	3.794142e-09	2.555118e+01	2.490867e+02
2.120000e-06	3.498003e-06	3.760851e-09	2.499789e+01	2.472636e+02
2.130000e-06	3.419065e-06	3.721016e-09	2.443377e+01	2.453716e+02
2.140000e-06	3.338870e-06	3.703987e-09	2.386067e+01	2.434097e+02
2.150000e-06	3.257575e-06	3.686577e-09	2.327971e+01	2.413767e+02
2.160000e-06	3.175211e-06	3.653407e-09	2.269111e+01	2.392706e+02
2.170000e-06	3.091754e-06	3.612342e-09	2.209470e+01	2.370883e+02
2.180000e-06	3.007358e-06	3.566378e-09	2.149158e+01	2.348257e+02
2.190000e-06	2.921852e-06	3.548351e-09	2.088052e+01	2.324778e+02
2.200000e-06	2.835101e-06	3.515130e-09	2.026057e+01	2.300386e+02
2.210000e-06	2.747272e-06	3.463811e-09	1.963292e+01	2.275018e+02
2.220000e-06	2.658481e-06	3.413798e-09	1.899839e+01	2.248607e+02
2.230000e-06	2.568860e-06	3.383210e-09	1.835793e+01	2.221092e+02
2.240000e-06	2.478342e-06	3.352154e-09	1.771106e+01	2.192414e+02
2.250000e-06	2.387010e-06	3.298038e-09	1.705837e+01	2.162522e+02
2.260000e-06	2.295069e-06	3.244217e-09	1.640132e+01	2.131372e+02
2.270000e-06	2.202521e-06	3.197456e-09	1.573995e+01	2.098922e+02
2.280000e-06	2.109084e-06	3.156834e-09	1.507221e+01	2.065134e+02
2.290000e-06	2.014575e-06	3.106155e-09	1.439682e+01	2.029965e+02
2.300000e-06	1.919237e-06	3.046065e-09	1.371551e+01	1.993365e+02
2.310000e-06	1.823209e-06	2.985228e-09	1.302926e+01	1.955268e+02
2.320000e-06	1.726589e-06	2.926475e-09	1.233878e+01	1.915589e+02
2.330000e-06	1.629459e-06	2.869664e-09	1.164465e+01	1.874222e+02
2.340000e-06	1.531818e-06	2.805692e-09	1.094688e+01	1.831032e+02
2.350000e-06	1.433584e-06	2.733475e-09	1.024487e+01	1.785859e+02
2.360000e-06	1.334798e-06	2.661204e-09	9.538912e+00	1.738512e+02
2.370000e-06	1.235660e-06	2.592255e-09	8.830433e+00	1.688773e+02
2.380000e-06	1.136186e-06	2.513142e-09	8.119559e+00	1.636399e+02
2.390000e-06	1.036403e-06	2.421995e-09	7.406478e+00	1.581123e+02
2.400000e-06	9.363899e-07	2.329741e-09	6.691753e+00	1.522656e+02
2.410000e-06	8.361205e-07	2.239399e-09	5.975194e+00	1.460693e+02
2.420000e-06	7.356433e-07	2.142869e-09	5.257151e+00	1.394916e+02
2.430000e-06	6.349577e-07	2.036332e-09	4.537618e+00	1.325001e+02
2.440000e-06	5.339709e-07	1.924139e-09	3.815933e+00	1.250624e+02
2.450000e-06	4.326905e-07	1.805313e-09	3.092149e+00	1.171473e+02
2.460000e-06	3.312120e-07	1.677407e-09	2.366950e+00	1.087262e+02
2.470000e-06	2.295733e-07	1.539979e-09	1.640607e+00	9.977425e+01
2.480000e-06	1.277336e-07	1.395412e-09	9.128265e-01	9.027253e+01
2.490000e-06	2.580994e-08	1.243379e-09	1.844464e-01	8.020993e+01
2.500000e-06	-7.603713e-08	1.082011e-09	-5.433865e-01	6.958522e+01
2.510000e-06	-1.777737e-07	9.093668e-10	-1.270430e+00	5.840908e+01
2.520000e-06	-2.792902e-07	7.279990e-10	-1.995900e+00	4.670582e+01
2.530000e-06	-3.805592e-07	5.417143e-10	-2.719602e+00	3.451467e+01
2.540000e-06	-4.817211e-07	3.485421e-10	-3.442539e+00	2.189038e+01
2.550000e-06	-5.827313e-07	1.483857e-10	-4.164391e+00	8.903143e+00
2.560000e-06	-6.834639e-07	-5.450794e-11	-4.884259e+00	-4.362562e+00
2.570000e-06	-7.839291e-07	-2.586186e-10	-5.602217e+00	-1.780989e+01
2.580000e-06	-8.841298e-07	-4.632030e-10	-6.318285e+00	-3.133256e+01
2.590000e-06	-9.840560e-07	-6.689188e-10	-7.032390e+00	-4.481845e+01
2.600000e-06	-1.083754e-06	-8.758396e-10	-7.744864e+00	-5.815383e+01
2.610000e-06	-1.183179e-06	-1.077356e-09	-8.455387e+00	-7.122778e+01
2.620000e-06	-1.282258e-06	-1.268014e-09	-9.163439e+00	-8.393671e+01
2.630000e-06	-1.380867e-06	-1.451050e-09	-9.868131e+00	-9.618838e+01
2.640000e-06	-1.478936e-06	-1.632137e-09	-1.056897e+01	-1.079054e+02
2.650000e-06	-1.576479e-06	-1.806595e-09	-1.126604e+01	-1.190279e+02
2.660000e-06	-1.673475e-06	-1.966547e-09	-1.195921e+01	-1.295148e+02
2.670000e-06	-1.770002e-06	-2.114229e-09	-1.264902e+01	-1.393444e+02
2.680000e-06	-1.866094e-06	-2.255235e-09	-1.333573e+01	-1.485135e+02
2.690000e-06	-1.961677e-06	-2.389098e-09	-1.401879e+01	-1.570354e+02
2.700000e-06	-2.056459e-06	-2.512660e-09	-1.469614e+01	-1.649376e+02
2.710000e-06	-2.150122e-06	-2.624524e-09	-1.536548e+01	-1.722583e+02
2.720000e-06	-2.242768e-06	-2.726113e-09	-1.602757e+01	-1.790428e+02
2.730000e-06	-2.334704e-06	-2.822360e-09	-1.668457e+01	-1.853401e+02
2.740000e-06	-2.425914e-06	-2.915232e-09	-1.733638e+01	-1.911996e+02
2.750000e-06	-2.516252e-06	-3.000554e-09	-1.798197e+01	-1.966680e+02
2.760000e-06	-2.605645e-06	-3.076883e-09	-1.862080e+01	-2.017878e+02
2.770000e-06	-2.694143e-06	-3.149030e-09	-1.925324e+01	-2.065954e+02
2.780000e-06	-2.781915e-06	-3.220593e-09	-1.988048e+01	-2.111209e+02
2.790000e-06	-2.868726e-06	-3.288341e-09	-2.050086e+01	-2.153879e+02
2.800000e-06	-2.954248e-06	-3.350517e-09	-2.111203e+01	-2.194144e+02
2.810000e-06	-3.038607e-06	-3.409662e-09	-2.171490e+01	-2.232137e+02
2.820000e-06	-3.122028e-06	-3.466659e-09	-2.231105e+01	-2.267960e+02
2.830000e-06	-3.204450e-06	-3.520020e-09	-2.290006e+01	-2.301696e+02
2.840000e-06	-3.285788e-06	-3.569858e-09	-2.348133e+01	-2.333419e+02
2.850000e-06	-3.366117e-06	-3.616149e-09	-2.405539e+01	-2.363209e+02
2.860000e-06	-3.445224e-06	-3.659842e-09	-2.462071e+01	-2.391154e+02
2.870000e-06	-3.522774e-06	-3.701686e-09	-2.517491e+01	-2.417358e+02
2.880000e-06	-3.598885e-06	-3.740653e-09	-2.571882e+01	-2.441935e+02
2.890000e-06	-3.673617e-06	-3.777050e-09	-2.625288e+01	-2.465013e+02
2.900000e-06	-3.746982e-06	-3.811068e-09	-2.677717e+01	-2.486726e+02
2.910000e-06	-3.819152e-06	-3.841798e-09	-2.729293e+01	-2.507208e+02
2.920000e-06	-3.889875e-06	-3.870582e-09	-2.779834e+01	-2.526586e+02
2.930000e-06	-3.958936e-06	-3.899260e-09	-2.829187e+01	-2.544979e+02
2.940000e-06	-4.026605e-06	-3.927268e-09	-2.877546e+01	-2.562490e+02
