# Temperatura_=_20.0
# Concentracion g/m^3_=_9000.0
# C_Vs_to_Am_M_A/Vsm_=_65563218390.804596
# pendiente_HvsI_1/m_=_3716.3
# ordenada_HvsI_A/m_=_1297.0
# frecuencia_Hz_=_300876.980182825

Tiempo_(s)	Campo_(V.s)	Magnetizacion_(V.s)	Campo_(kA/m)	Magnetizacion_(A/m)
0.000000e+00	-5.338288e-06	-4.383351e-09	-3.828698e+01	-2.850815e+02
1.000000e-08	-5.335445e-06	-4.383876e-09	-3.826659e+01	-2.849456e+02
2.000000e-08	-5.330888e-06	-4.380571e-09	-3.823391e+01	-2.847517e+02
3.000000e-08	-5.324706e-06	-4.376964e-09	-3.818957e+01	-2.845054e+02
4.000000e-08	-5.316882e-06	-4.373845e-09	-3.813346e+01	-2.842168e+02
5.000000e-08	-5.307100e-06	-4.368232e-09	-3.806330e+01	-2.838995e+02
6.000000e-08	-5.295298e-06	-4.359845e-09	-3.797865e+01	-2.835702e+02
7.000000e-08	-5.281633e-06	-4.344800e-09	-3.788065e+01	-2.832462e+02
8.000000e-08	-5.265856e-06	-4.342216e-09	-3.776749e+01	-2.829436e+02
9.000000e-08	-5.247959e-06	-4.368113e-09	-3.763913e+01	-2.826755e+02
1.000000e-07	-5.228145e-06	-4.374508e-09	-3.749702e+01	-2.824500e+02
1.100000e-07	-5.206442e-06	-4.353516e-09	-3.734136e+01	-2.822688e+02
1.200000e-07	-5.182987e-06	-4.328324e-09	-3.717315e+01	-2.821265e+02
1.300000e-07	-5.157866e-06	-4.285520e-09	-3.699297e+01	-2.820106e+02
1.400000e-07	-5.131148e-06	-4.303371e-09	-3.680135e+01	-2.819026e+02
1.500000e-07	-5.102925e-06	-4.351764e-09	-3.659893e+01	-2.817792e+02
1.600000e-07	-5.073215e-06	-4.296780e-09	-3.638584e+01	-2.816150e+02
1.700000e-07	-5.041850e-06	-4.258224e-09	-3.616089e+01	-2.813845e+02
1.800000e-07	-5.008383e-06	-4.275517e-09	-3.592086e+01	-2.810649e+02
1.900000e-07	-4.973221e-06	-4.258728e-09	-3.566867e+01	-2.806386e+02
2.000000e-07	-4.936665e-06	-4.259844e-09	-3.540649e+01	-2.800945e+02
2.100000e-07	-4.898249e-06	-4.243415e-09	-3.513096e+01	-2.794292e+02
2.200000e-07	-4.857943e-06	-4.198431e-09	-3.484188e+01	-2.786471e+02
2.300000e-07	-4.815792e-06	-4.196282e-09	-3.453956e+01	-2.777599e+02
2.400000e-07	-4.771877e-06	-4.224275e-09	-3.422460e+01	-2.767847e+02
2.500000e-07	-4.726261e-06	-4.220030e-09	-3.389743e+01	-2.757420e+02
2.600000e-07	-4.678690e-06	-4.138268e-09	-3.355625e+01	-2.746536e+02
2.700000e-07	-4.629014e-06	-4.105010e-09	-3.319997e+01	-2.735396e+02
2.800000e-07	-4.577438e-06	-4.160900e-09	-3.283006e+01	-2.724169e+02
2.900000e-07	-4.524182e-06	-4.149034e-09	-3.244809e+01	-2.712967e+02
3.000000e-07	-4.469335e-06	-4.098046e-09	-3.205473e+01	-2.701843e+02
3.100000e-07	-4.412829e-06	-4.083636e-09	-3.164946e+01	-2.690785e+02
3.200000e-07	-4.354553e-06	-4.072263e-09	-3.123149e+01	-2.679721e+02
3.300000e-07	-4.294766e-06	-4.053576e-09	-3.080269e+01	-2.668535e+02
3.400000e-07	-4.233598e-06	-4.039569e-09	-3.036398e+01	-2.657083e+02
3.500000e-07	-4.170993e-06	-4.020284e-09	-2.991497e+01	-2.645209e+02
3.600000e-07	-4.106855e-06	-3.972324e-09	-2.945496e+01	-2.632766e+02
3.700000e-07	-4.041028e-06	-3.962715e-09	-2.898285e+01	-2.619635e+02
3.800000e-07	-3.973665e-06	-3.978675e-09	-2.849971e+01	-2.605732e+02
3.900000e-07	-3.904882e-06	-3.933555e-09	-2.800638e+01	-2.591013e+02
4.000000e-07	-3.834764e-06	-3.881706e-09	-2.750349e+01	-2.575477e+02
4.100000e-07	-3.763522e-06	-3.875435e-09	-2.699253e+01	-2.559155e+02
4.200000e-07	-3.691039e-06	-3.876030e-09	-2.647267e+01	-2.542104e+02
4.300000e-07	-3.616901e-06	-3.834613e-09	-2.594094e+01	-2.524386e+02
4.400000e-07	-3.541073e-06	-3.786619e-09	-2.539709e+01	-2.506060e+02
4.500000e-07	-3.463881e-06	-3.771644e-09	-2.484346e+01	-2.487170e+02
4.600000e-07	-3.385299e-06	-3.758261e-09	-2.427986e+01	-2.467730e+02
4.700000e-07	-3.305335e-06	-3.723604e-09	-2.370635e+01	-2.447724e+02
4.800000e-07	-3.224165e-06	-3.675477e-09	-2.312419e+01	-2.427106e+02
4.900000e-07	-3.141857e-06	-3.638984e-09	-2.253386e+01	-2.405801e+02
5.000000e-07	-3.058632e-06	-3.615897e-09	-2.193696e+01	-2.383717e+02
5.100000e-07	-2.974567e-06	-3.586490e-09	-2.133403e+01	-2.360754e+02
5.200000e-07	-2.889480e-06	-3.541459e-09	-2.072378e+01	-2.336814e+02
5.300000e-07	-2.803337e-06	-3.493587e-09	-2.010594e+01	-2.311811e+02
5.400000e-07	-2.716358e-06	-3.459671e-09	-1.948212e+01	-2.285677e+02
5.500000e-07	-2.628591e-06	-3.429902e-09	-1.885264e+01	-2.258367e+02
5.600000e-07	-2.539701e-06	-3.386693e-09	-1.821511e+01	-2.229855e+02
5.700000e-07	-2.449519e-06	-3.329189e-09	-1.756831e+01	-2.200135e+02
5.800000e-07	-2.358415e-06	-3.275950e-09	-1.691490e+01	-2.169206e+02
5.900000e-07	-2.266682e-06	-3.239742e-09	-1.625698e+01	-2.137070e+02
6.000000e-07	-2.174295e-06	-3.200211e-09	-1.559436e+01	-2.103720e+02
6.100000e-07	-2.081158e-06	-3.135368e-09	-1.492637e+01	-2.069131e+02
6.200000e-07	-1.987169e-06	-3.063148e-09	-1.425227e+01	-2.033255e+02
6.300000e-07	-1.892494e-06	-3.009905e-09	-1.357324e+01	-1.996018e+02
6.400000e-07	-1.797364e-06	-2.963190e-09	-1.289096e+01	-1.957320e+02
6.500000e-07	-1.701767e-06	-2.898893e-09	-1.220532e+01	-1.917033e+02
6.600000e-07	-1.605359e-06	-2.823163e-09	-1.151387e+01	-1.875010e+02
6.700000e-07	-1.507967e-06	-2.753167e-09	-1.081536e+01	-1.831090e+02
6.800000e-07	-1.409848e-06	-2.689300e-09	-1.011164e+01	-1.785097e+02
6.900000e-07	-1.311212e-06	-2.618788e-09	-9.404208e+00	-1.736845e+02
7.000000e-07	-1.212164e-06	-2.535589e-09	-8.693820e+00	-1.686142e+02
7.100000e-07	-1.112817e-06	-2.447529e-09	-7.981288e+00	-1.632783e+02
7.200000e-07	-1.013186e-06	-2.363903e-09	-7.266720e+00	-1.576550e+02
7.300000e-07	-9.132782e-07	-2.282566e-09	-6.550165e+00	-1.517205e+02
7.400000e-07	-8.131059e-07	-2.189573e-09	-5.831715e+00	-1.454487e+02
7.500000e-07	-7.126372e-07	-2.081784e-09	-5.111139e+00	-1.388110e+02
7.600000e-07	-6.119163e-07	-1.970545e-09	-4.388753e+00	-1.317762e+02
7.700000e-07	-5.109816e-07	-1.860163e-09	-3.664835e+00	-1.243111e+02
7.800000e-07	-4.098517e-07	-1.741259e-09	-2.939517e+00	-1.163820e+02
7.900000e-07	-3.085232e-07	-1.607808e-09	-2.212774e+00	-1.079559e+02
8.000000e-07	-2.071040e-07	-1.468269e-09	-1.485380e+00	-9.900287e+01
8.100000e-07	-1.056562e-07	-1.326225e-09	-7.577818e-01	-8.949895e+01
8.200000e-07	-4.128176e-09	-1.173122e-09	-2.960789e-02	-7.942858e+01
8.300000e-07	9.743840e-08	-1.006495e-09	6.988425e-01	-6.878761e+01
8.400000e-07	1.989755e-07	-8.339120e-10	1.427081e+00	-5.758563e+01
8.500000e-07	3.004141e-07	-6.588850e-10	2.154614e+00	-4.584793e+01
8.600000e-07	4.017143e-07	-4.750608e-10	2.881154e+00	-3.361661e+01
8.700000e-07	5.028672e-07	-2.825224e-10	3.606637e+00	-2.095069e+01
8.800000e-07	6.038453e-07	-8.531738e-11	4.330867e+00	-7.925322e+00
8.900000e-07	7.046357e-07	1.154351e-10	5.053750e+00	5.370158e+00
9.000000e-07	8.052010e-07	3.199033e-10	5.775019e+00	1.883498e+01
9.100000e-07	9.054577e-07	5.251101e-10	6.494075e+00	3.236054e+01
9.200000e-07	1.005412e-06	7.281878e-10	7.210962e+00	4.583445e+01
9.300000e-07	1.105100e-06	9.302124e-10	7.925936e+00	5.914485e+01
9.400000e-07	1.204462e-06	1.128602e-09	8.638577e+00	7.218472e+01
9.500000e-07	1.303474e-06	1.321365e-09	9.348710e+00	8.485577e+01
9.600000e-07	1.402118e-06	1.507615e-09	1.005620e+01	9.707187e+01
9.700000e-07	1.500171e-06	1.686456e-09	1.075944e+01	1.087616e+02
9.800000e-07	1.597456e-06	1.854352e-09	1.145719e+01	1.198703e+02
9.900000e-07	1.693920e-06	2.009846e-09	1.214904e+01	1.303602e+02
1.000000e-06	1.789578e-06	2.157930e-09	1.283512e+01	1.402112e+02
1.010000e-06	1.884584e-06	2.299072e-09	1.351651e+01	1.494192e+02
1.020000e-06	1.979100e-06	2.429497e-09	1.419440e+01	1.579950e+02
1.030000e-06	2.073019e-06	2.548693e-09	1.486799e+01	1.659615e+02
1.040000e-06	2.166206e-06	2.656791e-09	1.553635e+01	1.733516e+02
1.050000e-06	2.258655e-06	2.758228e-09	1.619941e+01	1.802052e+02
1.060000e-06	2.350417e-06	2.854188e-09	1.685754e+01	1.865665e+02
1.070000e-06	2.441553e-06	2.942353e-09	1.751118e+01	1.924812e+02
1.080000e-06	2.531822e-06	3.024758e-09	1.815860e+01	1.979942e+02
1.090000e-06	2.620895e-06	3.101906e-09	1.879745e+01	2.031480e+02
1.100000e-06	2.708749e-06	3.175696e-09	1.942754e+01	2.079808e+02
1.110000e-06	2.795666e-06	3.245934e-09	2.005092e+01	2.125256e+02
1.120000e-06	2.881727e-06	3.310474e-09	2.066817e+01	2.168100e+02
1.130000e-06	2.966856e-06	3.368206e-09	2.127873e+01	2.208562e+02
1.140000e-06	3.051066e-06	3.423058e-09	2.188270e+01	2.246813e+02
1.150000e-06	3.134385e-06	3.477957e-09	2.248027e+01	2.282982e+02
1.160000e-06	3.216696e-06	3.529105e-09	2.307062e+01	2.317167e+02
1.170000e-06	3.297739e-06	3.574260e-09	2.365187e+01	2.349445e+02
1.180000e-06	3.377530e-06	3.616794e-09	2.422414e+01	2.379883e+02
1.190000e-06	3.456064e-06	3.659023e-09	2.478740e+01	2.408550e+02
1.200000e-06	3.533301e-06	3.699442e-09	2.534135e+01	2.435524e+02
1.210000e-06	3.609343e-06	3.735248e-09	2.588674e+01	2.460894e+02
1.220000e-06	3.684110e-06	3.767961e-09	2.642298e+01	2.484768e+02
1.230000e-06	3.757285e-06	3.800084e-09	2.694780e+01	2.507264e+02
1.240000e-06	3.828880e-06	3.832111e-09	2.746129e+01	2.528511e+02
1.250000e-06	3.899148e-06	3.862562e-09	2.796526e+01	2.548641e+02
1.260000e-06	3.968068e-06	3.889012e-09	2.845956e+01	2.567781e+02
1.270000e-06	4.035744e-06	3.913135e-09	2.894494e+01	2.586045e+02
1.280000e-06	4.102102e-06	3.937873e-09	2.942088e+01	2.603531e+02
1.290000e-06	4.166768e-06	3.964883e-09	2.988467e+01	2.620310e+02
1.300000e-06	4.229829e-06	3.990190e-09	3.033696e+01	2.636428e+02
1.310000e-06	4.291550e-06	4.011945e-09	3.077963e+01	2.651909e+02
1.320000e-06	4.351943e-06	4.032467e-09	3.121277e+01	2.666752e+02
1.330000e-06	4.410986e-06	4.053651e-09	3.163624e+01	2.680944e+02
1.340000e-06	4.468391e-06	4.074151e-09	3.204795e+01	2.694462e+02
1.350000e-06	4.524007e-06	4.091045e-09	3.244684e+01	2.707284e+02
1.360000e-06	4.577993e-06	4.106111e-09	3.283403e+01	2.719396e+02
1.370000e-06	4.630384e-06	4.122597e-09	3.320979e+01	2.730794e+02
1.380000e-06	4.680893e-06	4.139128e-09	3.357205e+01	2.741494e+02
1.390000e-06	4.729263e-06	4.154662e-09	3.391897e+01	2.751525e+02
1.400000e-06	4.775762e-06	4.169663e-09	3.425246e+01	2.760933e+02
1.410000e-06	4.820678e-06	4.183488e-09	3.457461e+01	2.769773e+02
1.420000e-06	4.864107e-06	4.194933e-09	3.488609e+01	2.778102e+02
1.430000e-06	4.905708e-06	4.205853e-09	3.518445e+01	2.785975e+02
1.440000e-06	4.945347e-06	4.217428e-09	3.546875e+01	2.793435e+02
1.450000e-06	4.983357e-06	4.228105e-09	3.574137e+01	2.800513e+02
1.460000e-06	5.019819e-06	4.237624e-09	3.600288e+01	2.807223e+02
1.470000e-06	5.054622e-06	4.247873e-09	3.625249e+01	2.813561e+02
1.480000e-06	5.087460e-06	4.259161e-09	3.648801e+01	2.819513e+02
1.490000e-06	5.118386e-06	4.268907e-09	3.670981e+01	2.825053e+02
1.500000e-06	5.147646e-06	4.276761e-09	3.691967e+01	2.830158e+02
1.510000e-06	5.175301e-06	4.283175e-09	3.711802e+01	2.834810e+02
1.520000e-06	5.201038e-06	4.288572e-09	3.730260e+01	2.839001e+02
1.530000e-06	5.224675e-06	4.292969e-09	3.747214e+01	2.842741e+02
1.540000e-06	5.246484e-06	4.297422e-09	3.762855e+01	2.846055e+02
1.550000e-06	5.266599e-06	4.303357e-09	3.777282e+01	2.848983e+02
1.560000e-06	5.284948e-06	4.308205e-09	3.790442e+01	2.851573e+02
1.570000e-06	5.301410e-06	4.311452e-09	3.802249e+01	2.853877e+02
1.580000e-06	5.315948e-06	4.316257e-09	3.812676e+01	2.855938e+02
1.590000e-06	5.328553e-06	4.322945e-09	3.821716e+01	2.857783e+02
1.600000e-06	5.339076e-06	4.327069e-09	3.829264e+01	2.859417e+02
1.610000e-06	5.347438e-06	4.326994e-09	3.835261e+01	2.860822e+02
1.620000e-06	5.353872e-06	4.326686e-09	3.839876e+01	2.861952e+02
1.630000e-06	5.358560e-06	4.329343e-09	3.843238e+01	2.862743e+02
1.640000e-06	5.361489e-06	4.330425e-09	3.845338e+01	2.863118e+02
1.650000e-06	5.362411e-06	4.328362e-09	3.846000e+01	2.863002e+02
1.660000e-06	5.361386e-06	4.323910e-09	3.845265e+01	2.862332e+02
1.670000e-06	5.358644e-06	4.319337e-09	3.843298e+01	2.861075e+02
1.680000e-06	5.354336e-06	4.319716e-09	3.840208e+01	2.859234e+02
1.690000e-06	5.348293e-06	4.320371e-09	3.835874e+01	2.856855e+02
1.700000e-06	5.340319e-06	4.318118e-09	3.830155e+01	2.854031e+02
1.710000e-06	5.330683e-06	4.314689e-09	3.823244e+01	2.850894e+02
1.720000e-06	5.319447e-06	4.317862e-09	3.815185e+01	2.847606e+02
1.730000e-06	5.306485e-06	4.332002e-09	3.805889e+01	2.844340e+02
1.740000e-06	5.291498e-06	4.305507e-09	3.795140e+01	2.841261e+02
1.750000e-06	5.274078e-06	4.260548e-09	3.782646e+01	2.838508e+02
1.760000e-06	5.254116e-06	4.255254e-09	3.768329e+01	2.836170e+02
1.770000e-06	5.231748e-06	4.262476e-09	3.752286e+01	2.834277e+02
1.780000e-06	5.207723e-06	4.314228e-09	3.735055e+01	2.832788e+02
1.790000e-06	5.182951e-06	4.326546e-09	3.717289e+01	2.831591e+02
1.800000e-06	5.157044e-06	4.245216e-09	3.698708e+01	2.830509e+02
1.810000e-06	5.129091e-06	4.294794e-09	3.678659e+01	2.829317e+02
1.820000e-06	5.099317e-06	4.346360e-09	3.657305e+01	2.827763e+02
1.830000e-06	5.067927e-06	4.309696e-09	3.634791e+01	2.825590e+02
1.840000e-06	5.034429e-06	4.357404e-09	3.610766e+01	2.822565e+02
1.850000e-06	4.999103e-06	4.310289e-09	3.585430e+01	2.818499e+02
1.860000e-06	4.962305e-06	4.272719e-09	3.559038e+01	2.813269e+02
1.870000e-06	4.923604e-06	4.377177e-09	3.531281e+01	2.806827e+02
1.880000e-06	4.883075e-06	4.341280e-09	3.502213e+01	2.799205e+02
1.890000e-06	4.840780e-06	4.232719e-09	3.471878e+01	2.790506e+02
1.900000e-06	4.796825e-06	4.198671e-09	3.440353e+01	2.780892e+02
1.910000e-06	4.751466e-06	4.243601e-09	3.407821e+01	2.770566e+02
1.920000e-06	4.704242e-06	4.286298e-09	3.373951e+01	2.759745e+02
1.930000e-06	4.655196e-06	4.170244e-09	3.338775e+01	2.748634e+02
1.940000e-06	4.604561e-06	4.159943e-09	3.302458e+01	2.737408e+02
1.950000e-06	4.552170e-06	4.210644e-09	3.264883e+01	2.726192e+02
1.960000e-06	4.497711e-06	4.129786e-09	3.225825e+01	2.715050e+02
1.970000e-06	4.441362e-06	4.130181e-09	3.185410e+01	2.703980e+02
1.980000e-06	4.383558e-06	4.137180e-09	3.143952e+01	2.692921e+02
1.990000e-06	4.324278e-06	4.102135e-09	3.101436e+01	2.681763e+02
2.000000e-06	4.263677e-06	4.077460e-09	3.057971e+01	2.670366e+02
2.010000e-06	4.201597e-06	4.081507e-09	3.013447e+01	2.658575e+02
2.020000e-06	4.137687e-06	4.081241e-09	2.967610e+01	2.646240e+02
2.030000e-06	4.072130e-06	3.990138e-09	2.920592e+01	2.633235e+02
2.040000e-06	4.005173e-06	3.997593e-09	2.872569e+01	2.619471e+02
2.050000e-06	3.937003e-06	4.035689e-09	2.823676e+01	2.604895e+02
2.060000e-06	3.867343e-06	3.980557e-09	2.773715e+01	2.589499e+02
2.070000e-06	3.795913e-06	3.921151e-09	2.722484e+01	2.573311e+02
2.080000e-06	3.723123e-06	3.895991e-09	2.670279e+01	2.556381e+02
2.090000e-06	3.649120e-06	3.922545e-09	2.617202e+01	2.538774e+02
2.100000e-06	3.573779e-06	3.874915e-09	2.563167e+01	2.520550e+02
2.110000e-06	3.497013e-06	3.807280e-09	2.508109e+01	2.501755e+02
2.120000e-06	3.418708e-06	3.788973e-09	2.451948e+01	2.482409e+02
2.130000e-06	3.338976e-06	3.777933e-09	2.394763e+01	2.462503e+02
2.140000e-06	3.258024e-06	3.760738e-09	2.336703e+01	2.441995e+02
2.150000e-06	3.176036e-06	3.714986e-09	2.277900e+01	2.420815e+02
2.160000e-06	3.092996e-06	3.681631e-09	2.218342e+01	2.398874e+02
2.170000e-06	3.009018e-06	3.640236e-09	2.158112e+01	2.376072e+02
2.180000e-06	2.924160e-06	3.608720e-09	2.097250e+01	2.352310e+02
2.190000e-06	2.838133e-06	3.582275e-09	2.035551e+01	2.327498e+02
2.200000e-06	2.750776e-06	3.534059e-09	1.972897e+01	2.301567e+02
2.210000e-06	2.662363e-06	3.479905e-09	1.909485e+01	2.274465e+02
2.220000e-06	2.573117e-06	3.437525e-09	1.845477e+01	2.246166e+02
2.230000e-06	2.482972e-06	3.417743e-09	1.780824e+01	2.216657e+02
2.240000e-06	2.392022e-06	3.365063e-09	1.715593e+01	2.185940e+02
2.250000e-06	2.300357e-06	3.293256e-09	1.649850e+01	2.154016e+02
2.260000e-06	2.208109e-06	3.246795e-09	1.583688e+01	2.120880e+02
2.270000e-06	2.115256e-06	3.217219e-09	1.517092e+01	2.086512e+02
2.280000e-06	2.021466e-06	3.165820e-09	1.449825e+01	2.050867e+02
2.290000e-06	1.926627e-06	3.096411e-09	1.381805e+01	2.013876e+02
2.300000e-06	1.830969e-06	3.039204e-09	1.313198e+01	1.975443e+02
2.310000e-06	1.734685e-06	2.983278e-09	1.244141e+01	1.935447e+02
2.320000e-06	1.637903e-06	2.920153e-09	1.174728e+01	1.893742e+02
2.330000e-06	1.540690e-06	2.851798e-09	1.105005e+01	1.850170e+02
2.340000e-06	1.442907e-06	2.782186e-09	1.034874e+01	1.804556e+02
2.350000e-06	1.344582e-06	2.707037e-09	9.643537e+00	1.756718e+02
2.360000e-06	1.245836e-06	2.634688e-09	8.935321e+00	1.706464e+02
2.370000e-06	1.146608e-06	2.562035e-09	8.223640e+00	1.653591e+02
2.380000e-06	1.046969e-06	2.472865e-09	7.509012e+00	1.597884e+02
2.390000e-06	9.471242e-07	2.374514e-09	6.792914e+00	1.539109e+02
2.400000e-06	8.471149e-07	2.282986e-09	6.075632e+00	1.477010e+02
2.410000e-06	7.468909e-07	2.191888e-09	5.356811e+00	1.411305e+02
2.420000e-06	6.465091e-07	2.084545e-09	4.636858e+00	1.341686e+02
2.430000e-06	5.459736e-07	1.967365e-09	3.915803e+00	1.267825e+02
2.440000e-06	4.452258e-07	1.849219e-09	3.193225e+00	1.189384e+02
2.450000e-06	3.442999e-07	1.723784e-09	2.469369e+00	1.106029e+02
2.460000e-06	2.432885e-07	1.584604e-09	1.744901e+00	1.017456e+02
2.470000e-06	1.421686e-07	1.441427e-09	1.019654e+00	9.234110e+01
2.480000e-06	4.094125e-08	1.296378e-09	2.936367e-01	8.237219e+01
2.490000e-06	-6.027408e-08	1.136554e-09	-4.322945e-01	7.183246e+01
2.500000e-06	-1.614074e-07	9.609577e-10	-1.157637e+00	6.072890e+01
2.510000e-06	-2.624122e-07	7.816805e-10	-1.882059e+00	4.908391e+01
2.520000e-06	-3.633232e-07	5.999210e-10	-2.605807e+00	3.693652e+01
2.530000e-06	-4.641160e-07	4.048919e-10	-3.328708e+00	2.434277e+01
2.540000e-06	-5.647186e-07	2.004467e-10	-4.050245e+00	1.137504e+01
2.550000e-06	-6.651321e-07	-4.048015e-12	-4.770425e+00	-1.879676e+00
2.560000e-06	-7.653630e-07	-2.081327e-10	-5.489296e+00	-1.532242e+01
2.570000e-06	-8.653986e-07	-4.125579e-10	-6.206766e+00	-2.884570e+01
2.580000e-06	-9.651827e-07	-6.170425e-10	-6.922432e+00	-4.233747e+01
2.590000e-06	-1.064709e-06	-8.225985e-10	-7.636248e+00	-5.568548e+01
2.600000e-06	-1.163874e-06	-1.027173e-09	-8.347474e+00	-6.878154e+01
2.610000e-06	-1.262615e-06	-1.220323e-09	-9.055657e+00	-8.152552e+01
2.620000e-06	-1.360912e-06	-1.401846e-09	-9.760660e+00	-9.382892e+01
2.630000e-06	-1.458717e-06	-1.584630e-09	-1.046213e+01	-1.056176e+02
2.640000e-06	-1.556049e-06	-1.764403e-09	-1.116021e+01	-1.168336e+02
2.650000e-06	-1.652896e-06	-1.927597e-09	-1.185481e+01	-1.274363e+02
2.660000e-06	-1.749293e-06	-2.076247e-09	-1.254618e+01	-1.374025e+02
2.670000e-06	-1.845236e-06	-2.219133e-09	-1.323430e+01	-1.467254e+02
2.680000e-06	-1.940481e-06	-2.356509e-09	-1.391742e+01	-1.554130e+02
2.690000e-06	-2.034713e-06	-2.482768e-09	-1.459326e+01	-1.634865e+02
2.700000e-06	-2.127908e-06	-2.597604e-09	-1.526167e+01	-1.709772e+02
2.710000e-06	-2.220310e-06	-2.702676e-09	-1.592439e+01	-1.779238e+02
2.720000e-06	-2.312073e-06	-2.800701e-09	-1.658253e+01	-1.843701e+02
2.730000e-06	-2.403097e-06	-2.894447e-09	-1.723536e+01	-1.903615e+02
2.740000e-06	-2.493207e-06	-2.983398e-09	-1.788165e+01	-1.959435e+02
2.750000e-06	-2.582436e-06	-3.064266e-09	-1.852161e+01	-2.011588e+02
2.760000e-06	-2.670943e-06	-3.137194e-09	-1.915639e+01	-2.060467e+02
2.770000e-06	-2.758687e-06	-3.208736e-09	-1.978571e+01	-2.106411e+02
2.780000e-06	-2.845356e-06	-3.278629e-09	-2.040731e+01	-2.149706e+02
2.790000e-06	-2.930765e-06	-3.343704e-09	-2.101987e+01	-2.190583e+02
2.800000e-06	-3.015057e-06	-3.403729e-09	-2.162443e+01	-2.229222e+02
2.810000e-06	-3.098323e-06	-3.460729e-09	-2.222162e+01	-2.265759e+02
2.820000e-06	-3.180601e-06	-3.516120e-09	-2.281173e+01	-2.300296e+02
2.830000e-06	-3.261901e-06	-3.568889e-09	-2.339483e+01	-2.332913e+02
2.840000e-06	-3.342161e-06	-3.618001e-09	-2.397047e+01	-2.363678e+02
2.850000e-06	-3.421168e-06	-3.663405e-09	-2.453712e+01	-2.392660e+02
2.860000e-06	-3.498641e-06	-3.705373e-09	-2.509277e+01	-2.419934e+02
2.870000e-06	-3.574643e-06	-3.745876e-09	-2.563786e+01	-2.445587e+02
2.880000e-06	-3.649309e-06	-3.785653e-09	-2.617338e+01	-2.469723e+02
2.890000e-06	-3.722655e-06	-3.822934e-09	-2.669943e+01	-2.492459e+02
2.900000e-06	-3.794786e-06	-3.856279e-09	-2.721676e+01	-2.513923e+02
2.910000e-06	-3.865483e-06	-3.887321e-09	-2.772381e+01	-2.534247e+02
2.920000e-06	-3.934534e-06	-3.920832e-09	-2.821905e+01	-2.553558e+02
2.930000e-06	-4.002172e-06	-3.953820e-09	-2.870417e+01	-2.571975e+02
2.940000e-06	-4.068493e-06	-3.982855e-09	-2.917983e+01	-2.589598e+02
