# Temperatura_=_20.0
# Concentracion g/m^3_=_9000.0
# C_Vs_to_Am_M_A/Vsm_=_65563218390.804596
# pendiente_HvsI_1/m_=_3716.3
# ordenada_HvsI_A/m_=_1297.0
# frecuencia_Hz_=_135000.51335805573

Tiempo_(s)	Campo_(V.s)	Magnetizacion_(V.s)	Campo_(kA/m)	Magnetizacion_(A/m)
0.000000e+00	-3.900709e-06	-3.520630e-09	-2.915197e+01	-2.313758e+02
1.000000e-08	-3.900761e-06	-3.519471e-09	-2.915236e+01	-2.313815e+02
2.000000e-08	-3.900682e-06	-3.518407e-09	-2.915178e+01	-2.313805e+02
3.000000e-08	-3.900403e-06	-3.520665e-09	-2.914969e+01	-2.313730e+02
4.000000e-08	-3.899939e-06	-3.522659e-09	-2.914622e+01	-2.313589e+02
5.000000e-08	-3.899208e-06	-3.524140e-09	-2.914076e+01	-2.313383e+02
6.000000e-08	-3.897982e-06	-3.511177e-09	-2.913159e+01	-2.313113e+02
7.000000e-08	-3.896243e-06	-3.502205e-09	-2.911860e+01	-2.312778e+02
8.000000e-08	-3.894068e-06	-3.489857e-09	-2.910235e+01	-2.312380e+02
9.000000e-08	-3.891375e-06	-3.504704e-09	-2.908222e+01	-2.311917e+02
1.000000e-07	-3.888235e-06	-3.530184e-09	-2.905875e+01	-2.311392e+02
1.100000e-07	-3.884788e-06	-3.556560e-09	-2.903299e+01	-2.310803e+02
1.200000e-07	-3.881185e-06	-3.521644e-09	-2.900606e+01	-2.310152e+02
1.300000e-07	-3.877466e-06	-3.511332e-09	-2.897827e+01	-2.309439e+02
1.400000e-07	-3.873542e-06	-3.440135e-09	-2.894894e+01	-2.308664e+02
1.500000e-07	-3.869433e-06	-3.425670e-09	-2.891823e+01	-2.307829e+02
1.600000e-07	-3.865149e-06	-3.533504e-09	-2.888622e+01	-2.306932e+02
1.700000e-07	-3.860663e-06	-3.542384e-09	-2.885269e+01	-2.305976e+02
1.800000e-07	-3.855906e-06	-3.499414e-09	-2.881714e+01	-2.304959e+02
1.900000e-07	-3.850836e-06	-3.445540e-09	-2.877925e+01	-2.303884e+02
2.000000e-07	-3.845461e-06	-3.496754e-09	-2.873908e+01	-2.302751e+02
2.100000e-07	-3.839875e-06	-3.521048e-09	-2.869733e+01	-2.301560e+02
2.200000e-07	-3.834051e-06	-3.542515e-09	-2.865381e+01	-2.300312e+02
2.300000e-07	-3.827914e-06	-3.496057e-09	-2.860795e+01	-2.299008e+02
2.400000e-07	-3.821501e-06	-3.455026e-09	-2.856002e+01	-2.297649e+02
2.500000e-07	-3.814811e-06	-3.455858e-09	-2.851001e+01	-2.296234e+02
2.600000e-07	-3.807855e-06	-3.554458e-09	-2.845803e+01	-2.294765e+02
2.700000e-07	-3.800574e-06	-3.554605e-09	-2.840362e+01	-2.293242e+02
2.800000e-07	-3.793062e-06	-3.417393e-09	-2.834747e+01	-2.291667e+02
2.900000e-07	-3.785366e-06	-3.397363e-09	-2.828996e+01	-2.290039e+02
3.000000e-07	-3.777418e-06	-3.539724e-09	-2.823056e+01	-2.288359e+02
3.100000e-07	-3.769372e-06	-3.571453e-09	-2.817042e+01	-2.286627e+02
3.200000e-07	-3.761109e-06	-3.431114e-09	-2.810868e+01	-2.284844e+02
3.300000e-07	-3.752616e-06	-3.401776e-09	-2.804520e+01	-2.283011e+02
3.400000e-07	-3.743946e-06	-3.495940e-09	-2.798041e+01	-2.281127e+02
3.500000e-07	-3.734921e-06	-3.541682e-09	-2.791296e+01	-2.279192e+02
3.600000e-07	-3.725491e-06	-3.456032e-09	-2.784249e+01	-2.277207e+02
3.700000e-07	-3.715619e-06	-3.412013e-09	-2.776870e+01	-2.275171e+02
3.800000e-07	-3.705261e-06	-3.439050e-09	-2.769130e+01	-2.273084e+02
3.900000e-07	-3.694370e-06	-3.496023e-09	-2.760990e+01	-2.270945e+02
4.000000e-07	-3.683018e-06	-3.478004e-09	-2.752506e+01	-2.268755e+02
4.100000e-07	-3.671402e-06	-3.442626e-09	-2.743825e+01	-2.266512e+02
4.200000e-07	-3.659514e-06	-3.412215e-09	-2.734941e+01	-2.264216e+02
4.300000e-07	-3.647319e-06	-3.439768e-09	-2.725827e+01	-2.261866e+02
4.400000e-07	-3.634935e-06	-3.469931e-09	-2.716571e+01	-2.259460e+02
4.500000e-07	-3.622364e-06	-3.461097e-09	-2.707176e+01	-2.256997e+02
4.600000e-07	-3.609531e-06	-3.394947e-09	-2.697585e+01	-2.254477e+02
4.700000e-07	-3.596423e-06	-3.386329e-09	-2.687789e+01	-2.251898e+02
4.800000e-07	-3.583050e-06	-3.445316e-09	-2.677795e+01	-2.249257e+02
4.900000e-07	-3.569467e-06	-3.454181e-09	-2.667644e+01	-2.246554e+02
5.000000e-07	-3.555592e-06	-3.374111e-09	-2.657274e+01	-2.243786e+02
5.100000e-07	-3.541478e-06	-3.353900e-09	-2.646726e+01	-2.240953e+02
5.200000e-07	-3.527101e-06	-3.424618e-09	-2.635981e+01	-2.238051e+02
5.300000e-07	-3.512334e-06	-3.435538e-09	-2.624945e+01	-2.235079e+02
5.400000e-07	-3.497224e-06	-3.367040e-09	-2.613653e+01	-2.232035e+02
5.500000e-07	-3.481758e-06	-3.347217e-09	-2.602094e+01	-2.228917e+02
5.600000e-07	-3.465814e-06	-3.392233e-09	-2.590179e+01	-2.225723e+02
5.700000e-07	-3.449493e-06	-3.386032e-09	-2.577981e+01	-2.222451e+02
5.800000e-07	-3.432803e-06	-3.347438e-09	-2.565508e+01	-2.219099e+02
5.900000e-07	-3.415920e-06	-3.336783e-09	-2.552890e+01	-2.215665e+02
6.000000e-07	-3.398872e-06	-3.349184e-09	-2.540149e+01	-2.212146e+02
6.100000e-07	-3.381597e-06	-3.342382e-09	-2.527239e+01	-2.208542e+02
6.200000e-07	-3.364194e-06	-3.343092e-09	-2.514233e+01	-2.204851e+02
6.300000e-07	-3.346576e-06	-3.330724e-09	-2.501066e+01	-2.201070e+02
6.400000e-07	-3.328806e-06	-3.308851e-09	-2.487786e+01	-2.197199e+02
6.500000e-07	-3.310858e-06	-3.305798e-09	-2.474372e+01	-2.193236e+02
6.600000e-07	-3.292637e-06	-3.325649e-09	-2.460754e+01	-2.189179e+02
6.700000e-07	-3.274110e-06	-3.303140e-09	-2.446909e+01	-2.185029e+02
6.800000e-07	-3.255232e-06	-3.269229e-09	-2.432800e+01	-2.180783e+02
6.900000e-07	-3.236152e-06	-3.277329e-09	-2.418540e+01	-2.176441e+02
7.000000e-07	-3.216945e-06	-3.298104e-09	-2.404186e+01	-2.172002e+02
7.100000e-07	-3.197450e-06	-3.273028e-09	-2.389616e+01	-2.167466e+02
7.200000e-07	-3.177777e-06	-3.245092e-09	-2.374914e+01	-2.162832e+02
7.300000e-07	-3.157987e-06	-3.249060e-09	-2.360124e+01	-2.158101e+02
7.400000e-07	-3.138042e-06	-3.258591e-09	-2.345218e+01	-2.153272e+02
7.500000e-07	-3.117973e-06	-3.239908e-09	-2.330219e+01	-2.148346e+02
7.600000e-07	-3.097827e-06	-3.217255e-09	-2.315163e+01	-2.143322e+02
7.700000e-07	-3.077537e-06	-3.211024e-09	-2.300000e+01	-2.138201e+02
7.800000e-07	-3.057034e-06	-3.211165e-09	-2.284676e+01	-2.132984e+02
7.900000e-07	-3.036325e-06	-3.205063e-09	-2.269200e+01	-2.127670e+02
8.000000e-07	-3.015364e-06	-3.190465e-09	-2.253534e+01	-2.122262e+02
8.100000e-07	-2.994114e-06	-3.174739e-09	-2.237653e+01	-2.116758e+02
8.200000e-07	-2.972609e-06	-3.167908e-09	-2.221581e+01	-2.111161e+02
8.300000e-07	-2.950931e-06	-3.171346e-09	-2.205381e+01	-2.105470e+02
8.400000e-07	-2.929093e-06	-3.161784e-09	-2.189059e+01	-2.099686e+02
8.500000e-07	-2.907034e-06	-3.138614e-09	-2.172574e+01	-2.093811e+02
8.600000e-07	-2.884827e-06	-3.125983e-09	-2.155977e+01	-2.087845e+02
8.700000e-07	-2.862488e-06	-3.135071e-09	-2.139283e+01	-2.081788e+02
8.800000e-07	-2.839844e-06	-3.131839e-09	-2.122360e+01	-2.075641e+02
8.900000e-07	-2.817004e-06	-3.109209e-09	-2.105290e+01	-2.069405e+02
9.000000e-07	-2.794065e-06	-3.090469e-09	-2.088147e+01	-2.063079e+02
9.100000e-07	-2.770859e-06	-3.091730e-09	-2.070803e+01	-2.056664e+02
9.200000e-07	-2.747370e-06	-3.085663e-09	-2.053249e+01	-2.050159e+02
9.300000e-07	-2.723771e-06	-3.065127e-09	-2.035612e+01	-2.043566e+02
9.400000e-07	-2.700074e-06	-3.045481e-09	-2.017902e+01	-2.036883e+02
9.500000e-07	-2.676225e-06	-3.040870e-09	-2.000078e+01	-2.030109e+02
9.600000e-07	-2.652268e-06	-3.033706e-09	-1.982174e+01	-2.023245e+02
9.700000e-07	-2.628165e-06	-3.018490e-09	-1.964161e+01	-2.016289e+02
9.800000e-07	-2.603953e-06	-3.002172e-09	-1.946066e+01	-2.009240e+02
9.900000e-07	-2.579652e-06	-2.990653e-09	-1.927905e+01	-2.002097e+02
1.000000e-06	-2.555150e-06	-2.981839e-09	-1.909593e+01	-1.994858e+02
1.010000e-06	-2.530433e-06	-2.972074e-09	-1.891121e+01	-1.987521e+02
1.020000e-06	-2.505496e-06	-2.953814e-09	-1.872484e+01	-1.980085e+02
1.030000e-06	-2.480306e-06	-2.936106e-09	-1.853658e+01	-1.972548e+02
1.040000e-06	-2.454804e-06	-2.928131e-09	-1.834600e+01	-1.964906e+02
1.050000e-06	-2.428900e-06	-2.920950e-09	-1.815240e+01	-1.957159e+02
1.060000e-06	-2.402692e-06	-2.904943e-09	-1.795654e+01	-1.949302e+02
1.070000e-06	-2.376166e-06	-2.886726e-09	-1.775829e+01	-1.941333e+02
1.080000e-06	-2.349356e-06	-2.877913e-09	-1.755793e+01	-1.933249e+02
1.090000e-06	-2.322378e-06	-2.870296e-09	-1.735631e+01	-1.925048e+02
1.100000e-06	-2.295173e-06	-2.855363e-09	-1.715299e+01	-1.916725e+02
1.110000e-06	-2.267661e-06	-2.837555e-09	-1.694738e+01	-1.908278e+02
1.120000e-06	-2.239888e-06	-2.824048e-09	-1.673982e+01	-1.899704e+02
1.130000e-06	-2.212081e-06	-2.810985e-09	-1.653201e+01	-1.890998e+02
1.140000e-06	-2.184222e-06	-2.794526e-09	-1.632380e+01	-1.882158e+02
1.150000e-06	-2.156245e-06	-2.776060e-09	-1.611471e+01	-1.873181e+02
1.160000e-06	-2.128218e-06	-2.763257e-09	-1.590525e+01	-1.864062e+02
1.170000e-06	-2.100125e-06	-2.751893e-09	-1.569530e+01	-1.854798e+02
1.180000e-06	-2.072001e-06	-2.739077e-09	-1.548512e+01	-1.845387e+02
1.190000e-06	-2.043862e-06	-2.724788e-09	-1.527482e+01	-1.835824e+02
1.200000e-06	-2.015593e-06	-2.712254e-09	-1.506355e+01	-1.826106e+02
1.210000e-06	-1.987112e-06	-2.697147e-09	-1.485070e+01	-1.816230e+02
1.220000e-06	-1.958498e-06	-2.679129e-09	-1.463685e+01	-1.806192e+02
1.230000e-06	-1.929793e-06	-2.658371e-09	-1.442232e+01	-1.795990e+02
1.240000e-06	-1.900904e-06	-2.639680e-09	-1.420642e+01	-1.785620e+02
1.250000e-06	-1.871863e-06	-2.622576e-09	-1.398938e+01	-1.775078e+02
1.260000e-06	-1.842644e-06	-2.607954e-09	-1.377101e+01	-1.764363e+02
1.270000e-06	-1.813268e-06	-2.595243e-09	-1.355147e+01	-1.753470e+02
1.280000e-06	-1.783849e-06	-2.580189e-09	-1.333161e+01	-1.742396e+02
1.290000e-06	-1.754323e-06	-2.564449e-09	-1.311095e+01	-1.731138e+02
1.300000e-06	-1.724664e-06	-2.548233e-09	-1.288928e+01	-1.719692e+02
1.310000e-06	-1.694875e-06	-2.527878e-09	-1.266666e+01	-1.708056e+02
1.320000e-06	-1.664996e-06	-2.505158e-09	-1.244336e+01	-1.696226e+02
1.330000e-06	-1.634969e-06	-2.483217e-09	-1.221895e+01	-1.684197e+02
1.340000e-06	-1.604772e-06	-2.461915e-09	-1.199328e+01	-1.671967e+02
1.350000e-06	-1.574568e-06	-2.440125e-09	-1.176755e+01	-1.659531e+02
1.360000e-06	-1.544361e-06	-2.419213e-09	-1.154179e+01	-1.646885e+02
1.370000e-06	-1.514002e-06	-2.401165e-09	-1.131490e+01	-1.634025e+02
1.380000e-06	-1.483551e-06	-2.381267e-09	-1.108733e+01	-1.620945e+02
1.390000e-06	-1.453083e-06	-2.359006e-09	-1.085962e+01	-1.607640e+02
1.400000e-06	-1.422479e-06	-2.337529e-09	-1.063091e+01	-1.594105e+02
1.410000e-06	-1.391681e-06	-2.316516e-09	-1.040074e+01	-1.580333e+02
1.420000e-06	-1.360699e-06	-2.291359e-09	-1.016919e+01	-1.566319e+02
1.430000e-06	-1.329694e-06	-2.267179e-09	-9.937480e+00	-1.552056e+02
1.440000e-06	-1.298686e-06	-2.246284e-09	-9.705739e+00	-1.537535e+02
1.450000e-06	-1.267544e-06	-2.225776e-09	-9.472997e+00	-1.522750e+02
1.460000e-06	-1.236220e-06	-2.203289e-09	-9.238898e+00	-1.507692e+02
1.470000e-06	-1.204827e-06	-2.180316e-09	-9.004285e+00	-1.492352e+02
1.480000e-06	-1.173373e-06	-2.157753e-09	-8.769210e+00	-1.476721e+02
1.490000e-06	-1.141839e-06	-2.138772e-09	-8.533543e+00	-1.460788e+02
1.500000e-06	-1.110257e-06	-2.119965e-09	-8.297511e+00	-1.444543e+02
1.510000e-06	-1.078549e-06	-2.096932e-09	-8.060543e+00	-1.427976e+02
1.520000e-06	-1.046750e-06	-2.071464e-09	-7.822895e+00	-1.411074e+02
1.530000e-06	-1.014914e-06	-2.045859e-09	-7.584964e+00	-1.393826e+02
1.540000e-06	-9.830545e-07	-2.020231e-09	-7.346864e+00	-1.376219e+02
1.550000e-06	-9.511730e-07	-1.992625e-09	-7.108598e+00	-1.358240e+02
1.560000e-06	-9.192602e-07	-1.961745e-09	-6.870098e+00	-1.339877e+02
1.570000e-06	-8.873091e-07	-1.931452e-09	-6.631311e+00	-1.321115e+02
1.580000e-06	-8.553409e-07	-1.905858e-09	-6.392396e+00	-1.301941e+02
1.590000e-06	-8.233431e-07	-1.881204e-09	-6.153261e+00	-1.282341e+02
1.600000e-06	-7.913136e-07	-1.852652e-09	-5.913888e+00	-1.262300e+02
1.610000e-06	-7.592575e-07	-1.821561e-09	-5.674316e+00	-1.241806e+02
1.620000e-06	-7.271729e-07	-1.788461e-09	-5.434532e+00	-1.220842e+02
1.630000e-06	-6.950629e-07	-1.754708e-09	-5.194557e+00	-1.199396e+02
1.640000e-06	-6.629326e-07	-1.719096e-09	-4.954431e+00	-1.177454e+02
1.650000e-06	-6.307607e-07	-1.684356e-09	-4.713994e+00	-1.155003e+02
1.660000e-06	-5.985235e-07	-1.651579e-09	-4.473070e+00	-1.132028e+02
1.670000e-06	-5.662523e-07	-1.616000e-09	-4.231890e+00	-1.108518e+02
1.680000e-06	-5.340234e-07	-1.581365e-09	-3.991028e+00	-1.084462e+02
1.690000e-06	-5.017862e-07	-1.548536e-09	-3.750103e+00	-1.059847e+02
1.700000e-06	-4.695142e-07	-1.513593e-09	-3.508918e+00	-1.034663e+02
1.710000e-06	-4.371773e-07	-1.474634e-09	-3.267247e+00	-1.008902e+02
1.720000e-06	-4.047682e-07	-1.435885e-09	-3.025038e+00	-9.825542e+01
1.730000e-06	-3.723787e-07	-1.398633e-09	-2.782975e+00	-9.556133e+01
1.740000e-06	-3.400043e-07	-1.357242e-09	-2.541024e+00	-9.280731e+01
1.750000e-06	-3.076019e-07	-1.312153e-09	-2.298865e+00	-8.999290e+01
1.760000e-06	-2.751880e-07	-1.268347e-09	-2.056619e+00	-8.711781e+01
1.770000e-06	-2.427941e-07	-1.227203e-09	-1.814523e+00	-8.418187e+01
1.780000e-06	-2.103198e-07	-1.187262e-09	-1.571826e+00	-8.118508e+01
1.790000e-06	-1.778262e-07	-1.144896e-09	-1.328985e+00	-7.812762e+01
1.800000e-06	-1.453702e-07	-1.100967e-09	-1.086425e+00	-7.500982e+01
1.810000e-06	-1.128187e-07	-1.055870e-09	-8.431511e-01	-7.183222e+01
1.820000e-06	-8.026114e-08	-1.010648e-09	-5.998322e-01	-6.859552e+01
1.830000e-06	-4.776652e-08	-9.636934e-10	-3.569834e-01	-6.530062e+01
1.840000e-06	-1.529516e-08	-9.114659e-10	-1.143085e-01	-6.194861e+01
1.850000e-06	1.721313e-08	-8.595353e-10	1.286425e-01	-5.854077e+01
1.860000e-06	4.972973e-08	-8.134032e-10	3.716555e-01	-5.507857e+01
1.870000e-06	8.217847e-08	-7.668007e-10	6.141614e-01	-5.156367e+01
1.880000e-06	1.146393e-07	-7.156007e-10	8.567574e-01	-4.799793e+01
1.890000e-06	1.471312e-07	-6.611062e-10	1.099586e+00	-4.438340e+01
1.900000e-06	1.796096e-07	-6.076971e-10	1.342314e+00	-4.072229e+01
1.910000e-06	2.121036e-07	-5.552854e-10	1.585157e+00	-3.701700e+01
1.920000e-06	2.445569e-07	-5.002740e-10	1.827698e+00	-3.327012e+01
1.930000e-06	2.769634e-07	-4.434641e-10	2.069888e+00	-2.948437e+01
1.940000e-06	3.093267e-07	-3.874877e-10	2.311755e+00	-2.566264e+01
1.950000e-06	3.416498e-07	-3.309876e-10	2.553322e+00	-2.180796e+01
1.960000e-06	3.739650e-07	-2.723456e-10	2.794830e+00	-1.792351e+01
1.970000e-06	4.062611e-07	-2.142987e-10	3.036195e+00	-1.401258e+01
1.980000e-06	4.384987e-07	-1.586561e-10	3.277123e+00	-1.007856e+01
1.990000e-06	4.707802e-07	-1.031998e-10	3.518379e+00	-6.124958e+00
2.000000e-06	5.030541e-07	-4.472700e-11	3.759578e+00	-2.155350e+00
2.010000e-06	5.352015e-07	1.522648e-11	3.999832e+00	1.826613e+00
2.020000e-06	5.674089e-07	7.180707e-11	4.240534e+00	5.817226e+00
2.030000e-06	5.996395e-07	1.274572e-10	4.481410e+00	9.812747e+00
2.040000e-06	6.317965e-07	1.872400e-10	4.721735e+00	1.380941e+01
2.050000e-06	6.639288e-07	2.473594e-10	4.961877e+00	1.780344e+01
2.060000e-06	6.960627e-07	3.045228e-10	5.202029e+00	2.179106e+01
2.070000e-06	7.281785e-07	3.613396e-10	5.442047e+00	2.576855e+01
2.080000e-06	7.602534e-07	4.198989e-10	5.681759e+00	2.973218e+01
2.090000e-06	7.922841e-07	4.781851e-10	5.921140e+00	3.367832e+01
2.100000e-06	8.242902e-07	5.353947e-10	6.160338e+00	3.760337e+01
2.110000e-06	8.562446e-07	5.921129e-10	6.399150e+00	4.150385e+01
2.120000e-06	8.881840e-07	6.481835e-10	6.637849e+00	4.537635e+01
2.130000e-06	9.201362e-07	7.035618e-10	6.876644e+00	4.921758e+01
2.140000e-06	9.520747e-07	7.588274e-10	7.115337e+00	5.302436e+01
2.150000e-06	9.839827e-07	8.124107e-10	7.353801e+00	5.679368e+01
2.160000e-06	1.015856e-06	8.640255e-10	7.592008e+00	6.052263e+01
2.170000e-06	1.047715e-06	9.171727e-10	7.830107e+00	6.420848e+01
2.180000e-06	1.079474e-06	9.717996e-10	8.067453e+00	6.784867e+01
2.190000e-06	1.111153e-06	1.022454e-09	8.304209e+00	7.144078e+01
2.200000e-06	1.142806e-06	1.071987e-09	8.540765e+00	7.498260e+01
2.210000e-06	1.174310e-06	1.124251e-09	8.776212e+00	7.847209e+01
2.220000e-06	1.205678e-06	1.175486e-09	9.010641e+00	8.190739e+01
2.230000e-06	1.236947e-06	1.224476e-09	9.244330e+00	8.528684e+01
2.240000e-06	1.268159e-06	1.270108e-09	9.477596e+00	8.860896e+01
2.250000e-06	1.299272e-06	1.316869e-09	9.710118e+00	9.187249e+01
2.260000e-06	1.330253e-06	1.364364e-09	9.941657e+00	9.507634e+01
2.270000e-06	1.361127e-06	1.408178e-09	1.017240e+01	9.821960e+01
2.280000e-06	1.391965e-06	1.450216e-09	1.040286e+01	1.013016e+02
2.290000e-06	1.422751e-06	1.493051e-09	1.063294e+01	1.043218e+02
2.300000e-06	1.453314e-06	1.534845e-09	1.086135e+01	1.072798e+02
2.310000e-06	1.483677e-06	1.574799e-09	1.108827e+01	1.101755e+02
2.320000e-06	1.513923e-06	1.616250e-09	1.131431e+01	1.130089e+02
2.330000e-06	1.544097e-06	1.658308e-09	1.153982e+01	1.157802e+02
2.340000e-06	1.574239e-06	1.699083e-09	1.176509e+01	1.184896e+02
2.350000e-06	1.604347e-06	1.738105e-09	1.199010e+01	1.211377e+02
2.360000e-06	1.634409e-06	1.778299e-09	1.221477e+01	1.237250e+02
2.370000e-06	1.664380e-06	1.817840e-09	1.243876e+01	1.262522e+02
2.380000e-06	1.694209e-06	1.854697e-09	1.266168e+01	1.287202e+02
2.390000e-06	1.723922e-06	1.890609e-09	1.288374e+01	1.311300e+02
2.400000e-06	1.753585e-06	1.926218e-09	1.310543e+01	1.334825e+02
2.410000e-06	1.783186e-06	1.960288e-09	1.332665e+01	1.357789e+02
2.420000e-06	1.812586e-06	1.992291e-09	1.354638e+01	1.380203e+02
2.430000e-06	1.841868e-06	2.024612e-09	1.376522e+01	1.402081e+02
2.440000e-06	1.870994e-06	2.058623e-09	1.398289e+01	1.423435e+02
2.450000e-06	1.899907e-06	2.091767e-09	1.419896e+01	1.444279e+02
2.460000e-06	1.928679e-06	2.121122e-09	1.441400e+01	1.464626e+02
2.470000e-06	1.957235e-06	2.149573e-09	1.462741e+01	1.484491e+02
2.480000e-06	1.985661e-06	2.178740e-09	1.483985e+01	1.503887e+02
2.490000e-06	2.013998e-06	2.205682e-09	1.505163e+01	1.522830e+02
2.500000e-06	2.042213e-06	2.231554e-09	1.526249e+01	1.541332e+02
2.510000e-06	2.070381e-06	2.261284e-09	1.547301e+01	1.559407e+02
2.520000e-06	2.098511e-06	2.289447e-09	1.568324e+01	1.577070e+02
2.530000e-06	2.126550e-06	2.315215e-09	1.589278e+01	1.594335e+02
2.540000e-06	2.154542e-06	2.342248e-09	1.610198e+01	1.611213e+02
2.550000e-06	2.182512e-06	2.369746e-09	1.631102e+01	1.627718e+02
2.560000e-06	2.210384e-06	2.395802e-09	1.651932e+01	1.643862e+02
2.570000e-06	2.238069e-06	2.418980e-09	1.672622e+01	1.659657e+02
2.580000e-06	2.265645e-06	2.443922e-09	1.693231e+01	1.675114e+02
2.590000e-06	2.293133e-06	2.470530e-09	1.713774e+01	1.690244e+02
2.600000e-06	2.320409e-06	2.497304e-09	1.734159e+01	1.705058e+02
2.610000e-06	2.347451e-06	2.521953e-09	1.754369e+01	1.719565e+02
2.620000e-06	2.374255e-06	2.542705e-09	1.774401e+01	1.733774e+02
2.630000e-06	2.400741e-06	2.562658e-09	1.794196e+01	1.747695e+02
2.640000e-06	2.426831e-06	2.584348e-09	1.813694e+01	1.761334e+02
2.650000e-06	2.452463e-06	2.606837e-09	1.832850e+01	1.774700e+02
2.660000e-06	2.477743e-06	2.627435e-09	1.851743e+01	1.787800e+02
2.670000e-06	2.502825e-06	2.648467e-09	1.870488e+01	1.800639e+02
2.680000e-06	2.527698e-06	2.670141e-09	1.889077e+01	1.813226e+02
2.690000e-06	2.552281e-06	2.692805e-09	1.907449e+01	1.825564e+02
2.700000e-06	2.576567e-06	2.715664e-09	1.925599e+01	1.837659e+02
2.710000e-06	2.600753e-06	2.736732e-09	1.943675e+01	1.849516e+02
2.720000e-06	2.624900e-06	2.755184e-09	1.961721e+01	1.861140e+02
2.730000e-06	2.648910e-06	2.771873e-09	1.979665e+01	1.872534e+02
2.740000e-06	2.672789e-06	2.787156e-09	1.997511e+01	1.883704e+02
2.750000e-06	2.696562e-06	2.804731e-09	2.015278e+01	1.894651e+02
2.760000e-06	2.720166e-06	2.824061e-09	2.032918e+01	1.905380e+02
2.770000e-06	2.743629e-06	2.840052e-09	2.050453e+01	1.915895e+02
2.780000e-06	2.766953e-06	2.856774e-09	2.067885e+01	1.926198e+02
2.790000e-06	2.790025e-06	2.877304e-09	2.085127e+01	1.936292e+02
2.800000e-06	2.812821e-06	2.895061e-09	2.102164e+01	1.946181e+02
2.810000e-06	2.835363e-06	2.910277e-09	2.119011e+01	1.955868e+02
2.820000e-06	2.857784e-06	2.926589e-09	2.135767e+01	1.965354e+02
2.830000e-06	2.880076e-06	2.944928e-09	2.152426e+01	1.974645e+02
2.840000e-06	2.902171e-06	2.963240e-09	2.168939e+01	1.983742e+02
2.850000e-06	2.924078e-06	2.975306e-09	2.185312e+01	1.992649e+02
2.860000e-06	2.945739e-06	2.988151e-09	2.201500e+01	2.001368e+02
2.870000e-06	2.967161e-06	3.004418e-09	2.217510e+01	2.009904e+02
2.880000e-06	2.988474e-06	3.020558e-09	2.233438e+01	2.018258e+02
2.890000e-06	3.009659e-06	3.036328e-09	2.249271e+01	2.026435e+02
2.900000e-06	3.030577e-06	3.050950e-09	2.264904e+01	2.034439e+02
