# Temperatura_=_20.0
# Concentracion g/m^3_=_9000.0
# C_Vs_to_Am_M_A/Vsm_=_65563218390.804596
# pendiente_HvsI_1/m_=_3716.3
# ordenada_HvsI_A/m_=_1297.0
# frecuencia_Hz_=_135001.09743394237

Tiempo_(s)	Campo_(V.s)	Magnetizacion_(V.s)	Campo_(kA/m)	Magnetizacion_(A/m)
0.000000e+00	-3.901577e-06	-3.511548e-09	-2.915089e+01	-2.303152e+02
1.000000e-08	-3.901654e-06	-3.509108e-09	-2.915147e+01	-2.302973e+02
2.000000e-08	-3.901633e-06	-3.508846e-09	-2.915131e+01	-2.302722e+02
3.000000e-08	-3.901458e-06	-3.514348e-09	-2.915000e+01	-2.302400e+02
4.000000e-08	-3.901055e-06	-3.525582e-09	-2.914699e+01	-2.302007e+02
5.000000e-08	-3.900304e-06	-3.517172e-09	-2.914138e+01	-2.301546e+02
6.000000e-08	-3.899264e-06	-3.474679e-09	-2.913361e+01	-2.301017e+02
7.000000e-08	-3.897924e-06	-3.449244e-09	-2.912360e+01	-2.300423e+02
8.000000e-08	-3.895913e-06	-3.477843e-09	-2.910857e+01	-2.299763e+02
9.000000e-08	-3.893215e-06	-3.482733e-09	-2.908841e+01	-2.299040e+02
1.000000e-07	-3.890072e-06	-3.588967e-09	-2.906493e+01	-2.298254e+02
1.100000e-07	-3.886640e-06	-3.521934e-09	-2.903929e+01	-2.297406e+02
1.200000e-07	-3.883013e-06	-3.447169e-09	-2.901219e+01	-2.296498e+02
1.300000e-07	-3.879302e-06	-3.403038e-09	-2.898446e+01	-2.295530e+02
1.400000e-07	-3.875449e-06	-3.368774e-09	-2.895567e+01	-2.294503e+02
1.500000e-07	-3.871413e-06	-3.420895e-09	-2.892552e+01	-2.293418e+02
1.600000e-07	-3.867195e-06	-3.506982e-09	-2.889400e+01	-2.292276e+02
1.700000e-07	-3.862817e-06	-3.545424e-09	-2.886129e+01	-2.291078e+02
1.800000e-07	-3.858248e-06	-3.417773e-09	-2.882716e+01	-2.289824e+02
1.900000e-07	-3.853268e-06	-3.410587e-09	-2.878994e+01	-2.288516e+02
2.000000e-07	-3.847856e-06	-3.444713e-09	-2.874951e+01	-2.287153e+02
2.100000e-07	-3.842278e-06	-3.536855e-09	-2.870783e+01	-2.285736e+02
2.200000e-07	-3.836562e-06	-3.472549e-09	-2.866512e+01	-2.284267e+02
2.300000e-07	-3.830570e-06	-3.427416e-09	-2.862036e+01	-2.282745e+02
2.400000e-07	-3.824325e-06	-3.402862e-09	-2.857369e+01	-2.281172e+02
2.500000e-07	-3.817796e-06	-3.461797e-09	-2.852492e+01	-2.279547e+02
2.600000e-07	-3.810924e-06	-3.506567e-09	-2.847357e+01	-2.277872e+02
2.700000e-07	-3.803757e-06	-3.488141e-09	-2.842002e+01	-2.276146e+02
2.800000e-07	-3.796331e-06	-3.368920e-09	-2.836454e+01	-2.274370e+02
2.900000e-07	-3.788655e-06	-3.376217e-09	-2.830718e+01	-2.272544e+02
3.000000e-07	-3.780792e-06	-3.505819e-09	-2.824844e+01	-2.270669e+02
3.100000e-07	-3.772748e-06	-3.520097e-09	-2.818834e+01	-2.268744e+02
3.200000e-07	-3.764477e-06	-3.380271e-09	-2.812654e+01	-2.266771e+02
3.300000e-07	-3.756070e-06	-3.343673e-09	-2.806373e+01	-2.264748e+02
3.400000e-07	-3.747468e-06	-3.464261e-09	-2.799946e+01	-2.262677e+02
3.500000e-07	-3.738422e-06	-3.489290e-09	-2.793186e+01	-2.260557e+02
3.600000e-07	-3.728889e-06	-3.410250e-09	-2.786064e+01	-2.258388e+02
3.700000e-07	-3.718898e-06	-3.335671e-09	-2.778599e+01	-2.256169e+02
3.800000e-07	-3.708463e-06	-3.404127e-09	-2.770802e+01	-2.253902e+02
3.900000e-07	-3.697630e-06	-3.445594e-09	-2.762709e+01	-2.251585e+02
4.000000e-07	-3.686379e-06	-3.439740e-09	-2.754303e+01	-2.249217e+02
4.100000e-07	-3.674810e-06	-3.363204e-09	-2.745658e+01	-2.246800e+02
4.200000e-07	-3.663002e-06	-3.372633e-09	-2.736836e+01	-2.244331e+02
4.300000e-07	-3.651001e-06	-3.398658e-09	-2.727869e+01	-2.241811e+02
4.400000e-07	-3.638786e-06	-3.429995e-09	-2.718743e+01	-2.239239e+02
4.500000e-07	-3.626267e-06	-3.382068e-09	-2.709389e+01	-2.236614e+02
4.600000e-07	-3.613471e-06	-3.349331e-09	-2.699829e+01	-2.233936e+02
4.700000e-07	-3.600438e-06	-3.345545e-09	-2.690091e+01	-2.231203e+02
4.800000e-07	-3.587131e-06	-3.394900e-09	-2.680148e+01	-2.228415e+02
4.900000e-07	-3.573479e-06	-3.382779e-09	-2.669949e+01	-2.225570e+02
5.000000e-07	-3.559546e-06	-3.323077e-09	-2.659538e+01	-2.222668e+02
5.100000e-07	-3.545365e-06	-3.306385e-09	-2.648943e+01	-2.219708e+02
5.200000e-07	-3.530922e-06	-3.367810e-09	-2.638151e+01	-2.216689e+02
5.300000e-07	-3.516156e-06	-3.377671e-09	-2.627119e+01	-2.213609e+02
5.400000e-07	-3.501045e-06	-3.313878e-09	-2.615829e+01	-2.210467e+02
5.500000e-07	-3.485523e-06	-3.293607e-09	-2.604231e+01	-2.207263e+02
5.600000e-07	-3.469599e-06	-3.337581e-09	-2.592334e+01	-2.203995e+02
5.700000e-07	-3.453311e-06	-3.342795e-09	-2.580164e+01	-2.200662e+02
5.800000e-07	-3.436744e-06	-3.291922e-09	-2.567786e+01	-2.197263e+02
5.900000e-07	-3.419967e-06	-3.282461e-09	-2.555251e+01	-2.193797e+02
6.000000e-07	-3.402966e-06	-3.300242e-09	-2.542548e+01	-2.190263e+02
6.100000e-07	-3.385705e-06	-3.303010e-09	-2.529652e+01	-2.186659e+02
6.200000e-07	-3.368301e-06	-3.281384e-09	-2.516648e+01	-2.182985e+02
6.300000e-07	-3.350777e-06	-3.275679e-09	-2.503555e+01	-2.179239e+02
6.400000e-07	-3.333021e-06	-3.260306e-09	-2.490289e+01	-2.175421e+02
6.500000e-07	-3.315080e-06	-3.265385e-09	-2.476884e+01	-2.171530e+02
6.600000e-07	-3.296796e-06	-3.268946e-09	-2.463223e+01	-2.167565e+02
6.700000e-07	-3.278222e-06	-3.259010e-09	-2.449345e+01	-2.163525e+02
6.800000e-07	-3.259415e-06	-3.228627e-09	-2.435294e+01	-2.159408e+02
6.900000e-07	-3.240407e-06	-3.240751e-09	-2.421091e+01	-2.155216e+02
7.000000e-07	-3.221173e-06	-3.252418e-09	-2.406721e+01	-2.150946e+02
7.100000e-07	-3.201632e-06	-3.234478e-09	-2.392121e+01	-2.146598e+02
7.200000e-07	-3.181951e-06	-3.203129e-09	-2.377415e+01	-2.142172e+02
7.300000e-07	-3.162190e-06	-3.211370e-09	-2.362651e+01	-2.137666e+02
7.400000e-07	-3.142318e-06	-3.219416e-09	-2.347804e+01	-2.133081e+02
7.500000e-07	-3.122357e-06	-3.203834e-09	-2.332889e+01	-2.128416e+02
7.600000e-07	-3.102275e-06	-3.178485e-09	-2.317885e+01	-2.123670e+02
7.700000e-07	-3.082003e-06	-3.176892e-09	-2.302739e+01	-2.118843e+02
7.800000e-07	-3.061510e-06	-3.180647e-09	-2.287427e+01	-2.113934e+02
7.900000e-07	-3.040779e-06	-3.176654e-09	-2.271938e+01	-2.108942e+02
8.000000e-07	-3.019833e-06	-3.162598e-09	-2.256288e+01	-2.103868e+02
8.100000e-07	-2.998705e-06	-3.149174e-09	-2.240502e+01	-2.098710e+02
8.200000e-07	-2.977287e-06	-3.141640e-09	-2.224500e+01	-2.093467e+02
8.300000e-07	-2.955608e-06	-3.139532e-09	-2.208302e+01	-2.088140e+02
8.400000e-07	-2.933771e-06	-3.129931e-09	-2.191986e+01	-2.082727e+02
8.500000e-07	-2.911700e-06	-3.107137e-09	-2.175496e+01	-2.077228e+02
8.600000e-07	-2.889509e-06	-3.096875e-09	-2.158916e+01	-2.071640e+02
8.700000e-07	-2.867211e-06	-3.099613e-09	-2.142256e+01	-2.065965e+02
8.800000e-07	-2.844741e-06	-3.097465e-09	-2.125467e+01	-2.060199e+02
8.900000e-07	-2.822099e-06	-3.077105e-09	-2.108550e+01	-2.054343e+02
9.000000e-07	-2.799187e-06	-3.066620e-09	-2.091431e+01	-2.048395e+02
9.100000e-07	-2.775946e-06	-3.066377e-09	-2.074067e+01	-2.042353e+02
9.200000e-07	-2.752464e-06	-3.061893e-09	-2.056521e+01	-2.036215e+02
9.300000e-07	-2.728880e-06	-3.039276e-09	-2.038901e+01	-2.029981e+02
9.400000e-07	-2.705157e-06	-3.023334e-09	-2.021176e+01	-2.023648e+02
9.500000e-07	-2.681300e-06	-3.015388e-09	-2.003351e+01	-2.017214e+02
9.600000e-07	-2.657392e-06	-3.008124e-09	-1.985488e+01	-2.010677e+02
9.700000e-07	-2.633315e-06	-2.991520e-09	-1.967499e+01	-2.004036e+02
9.800000e-07	-2.609078e-06	-2.978377e-09	-1.949390e+01	-1.997287e+02
9.900000e-07	-2.584778e-06	-2.966029e-09	-1.931234e+01	-1.990429e+02
1.000000e-06	-2.560272e-06	-2.958284e-09	-1.912924e+01	-1.983460e+02
1.010000e-06	-2.535598e-06	-2.946465e-09	-1.894489e+01	-1.976375e+02
1.020000e-06	-2.510785e-06	-2.929887e-09	-1.875950e+01	-1.969174e+02
1.030000e-06	-2.485731e-06	-2.913540e-09	-1.857230e+01	-1.961853e+02
1.040000e-06	-2.460314e-06	-2.906129e-09	-1.838240e+01	-1.954410e+02
1.050000e-06	-2.434477e-06	-2.896346e-09	-1.818935e+01	-1.946842e+02
1.060000e-06	-2.408318e-06	-2.878673e-09	-1.799391e+01	-1.939145e+02
1.070000e-06	-2.381840e-06	-2.859627e-09	-1.779608e+01	-1.931319e+02
1.080000e-06	-2.354983e-06	-2.849071e-09	-1.759541e+01	-1.923359e+02
1.090000e-06	-2.327776e-06	-2.842755e-09	-1.739213e+01	-1.915263e+02
1.100000e-06	-2.300406e-06	-2.829508e-09	-1.718763e+01	-1.907029e+02
1.110000e-06	-2.272977e-06	-2.812128e-09	-1.698270e+01	-1.898653e+02
1.120000e-06	-2.245404e-06	-2.799175e-09	-1.677668e+01	-1.890133e+02
1.130000e-06	-2.217687e-06	-2.789100e-09	-1.656960e+01	-1.881467e+02
1.140000e-06	-2.189870e-06	-2.772280e-09	-1.636176e+01	-1.872652e+02
1.150000e-06	-2.161979e-06	-2.754147e-09	-1.615337e+01	-1.863686e+02
1.160000e-06	-2.134007e-06	-2.740131e-09	-1.594437e+01	-1.854567e+02
1.170000e-06	-2.105968e-06	-2.730161e-09	-1.573488e+01	-1.845292e+02
1.180000e-06	-2.077884e-06	-2.717574e-09	-1.552505e+01	-1.835859e+02
1.190000e-06	-2.049710e-06	-2.705142e-09	-1.531454e+01	-1.826267e+02
1.200000e-06	-2.021411e-06	-2.690530e-09	-1.510310e+01	-1.816513e+02
1.210000e-06	-1.992932e-06	-2.676822e-09	-1.489032e+01	-1.806595e+02
1.220000e-06	-1.964371e-06	-2.659666e-09	-1.467693e+01	-1.796513e+02
1.230000e-06	-1.935688e-06	-2.640781e-09	-1.446262e+01	-1.786263e+02
1.240000e-06	-1.906796e-06	-2.619592e-09	-1.424675e+01	-1.775844e+02
1.250000e-06	-1.877765e-06	-2.602934e-09	-1.402984e+01	-1.765255e+02
1.260000e-06	-1.848574e-06	-2.586780e-09	-1.381174e+01	-1.754494e+02
1.270000e-06	-1.819220e-06	-2.574907e-09	-1.359242e+01	-1.743559e+02
1.280000e-06	-1.789746e-06	-2.560484e-09	-1.337220e+01	-1.732448e+02
1.290000e-06	-1.760178e-06	-2.546969e-09	-1.315128e+01	-1.721159e+02
1.300000e-06	-1.730471e-06	-2.532799e-09	-1.292933e+01	-1.709691e+02
1.310000e-06	-1.700650e-06	-2.512381e-09	-1.270652e+01	-1.698041e+02
1.320000e-06	-1.670751e-06	-2.489474e-09	-1.248312e+01	-1.686206e+02
1.330000e-06	-1.640741e-06	-2.468328e-09	-1.225890e+01	-1.674183e+02
1.340000e-06	-1.610625e-06	-2.449524e-09	-1.203389e+01	-1.661971e+02
1.350000e-06	-1.580423e-06	-2.426857e-09	-1.180824e+01	-1.649566e+02
1.360000e-06	-1.550150e-06	-2.404177e-09	-1.158205e+01	-1.636963e+02
1.370000e-06	-1.519779e-06	-2.389256e-09	-1.135513e+01	-1.624160e+02
1.380000e-06	-1.489401e-06	-2.375976e-09	-1.112816e+01	-1.611151e+02
1.390000e-06	-1.458942e-06	-2.355368e-09	-1.090058e+01	-1.597933e+02
1.400000e-06	-1.428242e-06	-2.333761e-09	-1.067121e+01	-1.584498e+02
1.410000e-06	-1.397361e-06	-2.312255e-09	-1.044048e+01	-1.570842e+02
1.420000e-06	-1.366462e-06	-2.290652e-09	-1.020961e+01	-1.556959e+02
1.430000e-06	-1.335546e-06	-2.266581e-09	-9.978621e+00	-1.542840e+02
1.440000e-06	-1.304463e-06	-2.243224e-09	-9.746382e+00	-1.528479e+02
1.450000e-06	-1.273239e-06	-2.217220e-09	-9.513090e+00	-1.513868e+02
1.460000e-06	-1.241874e-06	-2.193912e-09	-9.278746e+00	-1.498997e+02
1.470000e-06	-1.210397e-06	-2.169076e-09	-9.043560e+00	-1.483857e+02
1.480000e-06	-1.178863e-06	-2.143471e-09	-8.807951e+00	-1.468438e+02
1.490000e-06	-1.147226e-06	-2.119393e-09	-8.571571e+00	-1.452730e+02
1.500000e-06	-1.115553e-06	-2.097103e-09	-8.334927e+00	-1.436721e+02
1.510000e-06	-1.083858e-06	-2.075439e-09	-8.098114e+00	-1.420399e+02
1.520000e-06	-1.052131e-06	-2.050916e-09	-7.861069e+00	-1.403752e+02
1.530000e-06	-1.020433e-06	-2.024162e-09	-7.624229e+00	-1.386767e+02
1.540000e-06	-9.886976e-07	-1.996639e-09	-7.387120e+00	-1.369431e+02
1.550000e-06	-9.568258e-07	-1.968332e-09	-7.148987e+00	-1.351730e+02
1.560000e-06	-9.248983e-07	-1.939820e-09	-6.910439e+00	-1.333649e+02
1.570000e-06	-8.930031e-07	-1.910998e-09	-6.672132e+00	-1.315174e+02
1.580000e-06	-8.610790e-07	-1.887012e-09	-6.433609e+00	-1.296291e+02
1.590000e-06	-8.290996e-07	-1.862859e-09	-6.194673e+00	-1.276984e+02
1.600000e-06	-7.971150e-07	-1.834516e-09	-5.955697e+00	-1.257238e+02
1.610000e-06	-7.650912e-07	-1.804004e-09	-5.716429e+00	-1.237038e+02
1.620000e-06	-7.329607e-07	-1.771207e-09	-5.476364e+00	-1.216369e+02
1.630000e-06	-7.008242e-07	-1.737093e-09	-5.236254e+00	-1.195217e+02
1.640000e-06	-6.687290e-07	-1.701162e-09	-4.996453e+00	-1.173566e+02
1.650000e-06	-6.365287e-07	-1.667429e-09	-4.755866e+00	-1.151404e+02
1.660000e-06	-6.043412e-07	-1.635269e-09	-4.515375e+00	-1.128714e+02
1.670000e-06	-5.721973e-07	-1.600755e-09	-4.275210e+00	-1.105486e+02
1.680000e-06	-5.400203e-07	-1.566833e-09	-4.034797e+00	-1.081706e+02
1.690000e-06	-5.077626e-07	-1.532940e-09	-3.793782e+00	-1.057363e+02
1.700000e-06	-4.754381e-07	-1.495697e-09	-3.552267e+00	-1.032446e+02
1.710000e-06	-4.432046e-07	-1.457197e-09	-3.311432e+00	-1.006944e+02
1.720000e-06	-4.109138e-07	-1.419482e-09	-3.070169e+00	-9.808511e+01
1.730000e-06	-3.785217e-07	-1.382999e-09	-2.828150e+00	-9.541581e+01
1.740000e-06	-3.461349e-07	-1.342187e-09	-2.586169e+00	-9.268594e+01
1.750000e-06	-3.137005e-07	-1.299663e-09	-2.343834e+00	-8.989504e+01
1.760000e-06	-2.812630e-07	-1.257850e-09	-2.101475e+00	-8.704280e+01
1.770000e-06	-2.488394e-07	-1.216629e-09	-1.859220e+00	-8.412908e+01
1.780000e-06	-2.164188e-07	-1.174785e-09	-1.616987e+00	-8.115388e+01
1.790000e-06	-1.839548e-07	-1.131955e-09	-1.374430e+00	-7.811740e+01
1.800000e-06	-1.515129e-07	-1.087838e-09	-1.132039e+00	-7.502000e+01
1.810000e-06	-1.191455e-07	-1.042696e-09	-8.902036e-01	-7.186224e+01
1.820000e-06	-8.662875e-08	-9.980991e-10	-6.472524e-01	-6.864485e+01
1.830000e-06	-5.406481e-08	-9.548208e-10	-4.039488e-01	-6.536878e+01
1.840000e-06	-2.157752e-08	-9.078035e-10	-1.612179e-01	-6.203515e+01
1.850000e-06	1.084533e-08	-8.584312e-10	8.103157e-02	-5.864527e+01
1.860000e-06	4.329794e-08	-8.106172e-10	3.235034e-01	-5.520066e+01
1.870000e-06	7.586964e-08	-7.634941e-10	5.668650e-01	-5.170303e+01
1.880000e-06	1.083852e-07	-7.140213e-10	8.098075e-01	-4.815427e+01
1.890000e-06	1.407940e-07	-6.597752e-10	1.051952e+00	-4.455648e+01
1.900000e-06	1.731720e-07	-6.057473e-10	1.293866e+00	-4.091191e+01
1.910000e-06	2.056237e-07	-5.540550e-10	1.536331e+00	-3.722300e+01
1.920000e-06	2.380839e-07	-5.016178e-10	1.778860e+00	-3.349237e+01
1.930000e-06	2.704185e-07	-4.477165e-10	2.020450e+00	-2.972280e+01
1.940000e-06	3.027535e-07	-3.935093e-10	2.262043e+00	-2.591719e+01
1.950000e-06	3.350762e-07	-3.392427e-10	2.503544e+00	-2.207862e+01
1.960000e-06	3.673677e-07	-2.823719e-10	2.744812e+00	-1.821028e+01
1.970000e-06	3.996347e-07	-2.253165e-10	2.985897e+00	-1.431549e+01
1.980000e-06	4.318727e-07	-1.701792e-10	3.226765e+00	-1.039767e+01
1.990000e-06	4.641335e-07	-1.139590e-10	3.467804e+00	-6.460331e+00
2.000000e-06	4.963656e-07	-5.516497e-11	3.708628e+00	-2.507069e+00
2.010000e-06	5.285740e-07	2.975014e-12	3.949276e+00	1.458458e+00
2.020000e-06	5.607167e-07	5.744981e-11	4.189431e+00	5.432541e+00
2.030000e-06	5.927895e-07	1.122347e-10	4.429066e+00	9.411436e+00
2.040000e-06	6.248760e-07	1.702447e-10	4.668802e+00	1.339138e+01
2.050000e-06	6.569753e-07	2.304610e-10	4.908634e+00	1.736861e+01
2.060000e-06	6.890847e-07	2.884574e-10	5.148542e+00	2.133936e+01
2.070000e-06	7.211865e-07	3.444750e-10	5.388392e+00	2.529991e+01
2.080000e-06	7.532657e-07	4.009740e-10	5.628074e+00	2.924656e+01
2.090000e-06	7.852896e-07	4.578275e-10	5.867343e+00	3.317569e+01
2.100000e-06	8.172387e-07	5.151226e-10	6.106053e+00	3.708374e+01
2.110000e-06	8.491638e-07	5.748446e-10	6.344583e+00	4.096722e+01
2.120000e-06	8.811078e-07	6.337326e-10	6.583255e+00	4.482277e+01
2.130000e-06	9.130279e-07	6.894012e-10	6.821748e+00	4.864712e+01
2.140000e-06	9.449206e-07	7.435915e-10	7.060037e+00	5.243713e+01
2.150000e-06	9.768239e-07	7.973698e-10	7.298404e+00	5.618978e+01
2.160000e-06	1.008707e-06	8.490989e-10	7.536621e+00	5.990223e+01
2.170000e-06	1.040571e-06	9.002434e-10	7.774691e+00	6.357174e+01
2.180000e-06	1.072359e-06	9.525057e-10	8.012200e+00	6.719579e+01
2.190000e-06	1.104020e-06	1.001337e-09	8.248761e+00	7.077199e+01
2.200000e-06	1.135631e-06	1.050574e-09	8.484939e+00	7.429815e+01
2.210000e-06	1.167189e-06	1.102477e-09	8.720731e+00	7.777223e+01
2.220000e-06	1.198625e-06	1.153342e-09	8.955609e+00	8.119242e+01
2.230000e-06	1.229964e-06	1.201710e-09	9.189758e+00	8.455705e+01
2.240000e-06	1.261210e-06	1.247587e-09	9.423216e+00	8.786467e+01
2.250000e-06	1.292294e-06	1.294307e-09	9.655457e+00	9.111401e+01
2.260000e-06	1.323296e-06	1.340614e-09	9.887092e+00	9.430400e+01
2.270000e-06	1.354242e-06	1.384435e-09	1.011831e+01	9.743373e+01
2.280000e-06	1.385037e-06	1.427505e-09	1.034840e+01	1.005025e+02
2.290000e-06	1.415698e-06	1.472809e-09	1.057748e+01	1.035098e+02
2.300000e-06	1.446303e-06	1.515291e-09	1.080615e+01	1.064553e+02
2.310000e-06	1.476861e-06	1.553850e-09	1.103447e+01	1.093387e+02
2.320000e-06	1.507216e-06	1.594619e-09	1.126126e+01	1.121602e+02
2.330000e-06	1.537442e-06	1.635830e-09	1.148710e+01	1.149197e+02
2.340000e-06	1.567572e-06	1.674126e-09	1.171221e+01	1.176177e+02
2.350000e-06	1.597584e-06	1.709478e-09	1.193645e+01	1.202546e+02
2.360000e-06	1.627576e-06	1.748369e-09	1.216054e+01	1.228308e+02
2.370000e-06	1.657518e-06	1.787022e-09	1.238426e+01	1.253472e+02
2.380000e-06	1.687422e-06	1.822590e-09	1.260769e+01	1.278045e+02
2.390000e-06	1.717262e-06	1.855681e-09	1.283064e+01	1.302036e+02
2.400000e-06	1.746974e-06	1.888110e-09	1.305263e+01	1.325455e+02
2.410000e-06	1.776485e-06	1.922135e-09	1.327312e+01	1.348314e+02
2.420000e-06	1.805845e-06	1.954707e-09	1.349249e+01	1.370622e+02
2.430000e-06	1.835133e-06	1.985081e-09	1.371131e+01	1.392394e+02
2.440000e-06	1.864307e-06	2.017027e-09	1.392929e+01	1.413641e+02
2.450000e-06	1.893352e-06	2.052728e-09	1.414630e+01	1.434376e+02
2.460000e-06	1.922243e-06	2.083558e-09	1.436217e+01	1.454613e+02
2.470000e-06	1.950954e-06	2.109302e-09	1.457668e+01	1.474366e+02
2.480000e-06	1.979484e-06	2.135907e-09	1.478984e+01	1.493647e+02
2.490000e-06	2.007908e-06	2.161877e-09	1.500222e+01	1.512471e+02
2.500000e-06	2.036205e-06	2.187988e-09	1.521364e+01	1.530852e+02
2.510000e-06	2.064354e-06	2.215940e-09	1.542395e+01	1.548802e+02
2.520000e-06	2.092455e-06	2.241878e-09	1.563392e+01	1.566336e+02
2.530000e-06	2.120468e-06	2.267936e-09	1.584321e+01	1.583467e+02
2.540000e-06	2.148410e-06	2.296404e-09	1.605199e+01	1.600207e+02
2.550000e-06	2.176335e-06	2.323358e-09	1.626063e+01	1.616569e+02
2.560000e-06	2.204219e-06	2.347892e-09	1.646897e+01	1.632565e+02
2.570000e-06	2.232021e-06	2.371192e-09	1.667669e+01	1.648207e+02
2.580000e-06	2.259709e-06	2.396679e-09	1.688356e+01	1.663506e+02
2.590000e-06	2.287246e-06	2.421313e-09	1.708931e+01	1.678472e+02
2.600000e-06	2.314577e-06	2.445090e-09	1.729351e+01	1.693116e+02
2.610000e-06	2.341661e-06	2.470090e-09	1.749587e+01	1.707448e+02
2.620000e-06	2.368449e-06	2.492083e-09	1.769602e+01	1.721476e+02
2.630000e-06	2.394939e-06	2.511467e-09	1.789394e+01	1.735210e+02
2.640000e-06	2.421142e-06	2.534994e-09	1.808972e+01	1.748657e+02
2.650000e-06	2.447064e-06	2.560284e-09	1.828340e+01	1.761826e+02
2.660000e-06	2.472648e-06	2.581396e-09	1.847455e+01	1.774723e+02
2.670000e-06	2.497847e-06	2.601433e-09	1.866283e+01	1.787355e+02
2.680000e-06	2.522747e-06	2.621479e-09	1.884887e+01	1.799729e+02
2.690000e-06	2.547351e-06	2.642112e-09	1.903270e+01	1.811851e+02
2.700000e-06	2.571626e-06	2.664094e-09	1.921407e+01	1.823725e+02
2.710000e-06	2.595738e-06	2.685963e-09	1.939423e+01	1.835358e+02
2.720000e-06	2.619785e-06	2.703281e-09	1.957390e+01	1.846754e+02
2.730000e-06	2.643772e-06	2.719586e-09	1.975311e+01	1.857918e+02
2.740000e-06	2.667715e-06	2.733891e-09	1.993201e+01	1.868855e+02
2.750000e-06	2.691572e-06	2.749541e-09	2.011026e+01	1.879567e+02
2.760000e-06	2.715293e-06	2.767340e-09	2.028749e+01	1.890061e+02
2.770000e-06	2.738867e-06	2.785826e-09	2.046363e+01	1.900339e+02
2.780000e-06	2.762183e-06	2.805221e-09	2.063783e+01	1.910405e+02
2.790000e-06	2.785334e-06	2.827569e-09	2.081081e+01	1.920263e+02
2.800000e-06	2.808252e-06	2.846451e-09	2.098204e+01	1.929917e+02
2.810000e-06	2.830900e-06	2.862409e-09	2.115126e+01	1.939370e+02
2.820000e-06	2.853389e-06	2.878306e-09	2.131929e+01	1.948626e+02
2.830000e-06	2.875630e-06	2.895278e-09	2.148546e+01	1.957690e+02
2.840000e-06	2.897723e-06	2.910327e-09	2.165053e+01	1.966564e+02
2.850000e-06	2.919606e-06	2.919433e-09	2.181403e+01	1.975252e+02
2.860000e-06	2.941302e-06	2.930911e-09	2.197613e+01	1.983759e+02
2.870000e-06	2.962900e-06	2.945692e-09	2.213750e+01	1.992088e+02
2.880000e-06	2.984261e-06	2.961664e-09	2.229710e+01	2.000243e+02
2.890000e-06	3.005404e-06	2.975269e-09	2.245508e+01	2.008229e+02
2.900000e-06	3.026338e-06	2.990212e-09	2.261148e+01	2.016049e+02
