# Temperatura_=_20.0
# Concentracion g/m^3_=_9000.0
# C_Vs_to_Am_M_A/Vsm_=_65563218390.804596
# pendiente_HvsI_1/m_=_3716.3
# ordenada_HvsI_A/m_=_1297.0
# frecuencia_Hz_=_134998.4496382813

Tiempo_(s)	Campo_(V.s)	Magnetizacion_(V.s)	Campo_(kA/m)	Magnetizacion_(A/m)
0.000000e+00	-3.913421e-06	-3.549513e-09	-2.915477e+01	-2.319926e+02
1.000000e-08	-3.913607e-06	-3.546190e-09	-2.915615e+01	-2.320137e+02
2.000000e-08	-3.913633e-06	-3.545195e-09	-2.915634e+01	-2.320280e+02
3.000000e-08	-3.913469e-06	-3.545339e-09	-2.915512e+01	-2.320355e+02
4.000000e-08	-3.913073e-06	-3.543927e-09	-2.915217e+01	-2.320365e+02
5.000000e-08	-3.912376e-06	-3.538117e-09	-2.914698e+01	-2.320311e+02
6.000000e-08	-3.911239e-06	-3.530068e-09	-2.913851e+01	-2.320194e+02
7.000000e-08	-3.909615e-06	-3.510818e-09	-2.912641e+01	-2.320016e+02
8.000000e-08	-3.907416e-06	-3.535711e-09	-2.911003e+01	-2.319778e+02
9.000000e-08	-3.904630e-06	-3.560659e-09	-2.908927e+01	-2.319481e+02
1.000000e-07	-3.901470e-06	-3.623834e-09	-2.906573e+01	-2.319126e+02
1.100000e-07	-3.898135e-06	-3.598427e-09	-2.904089e+01	-2.318715e+02
1.200000e-07	-3.894628e-06	-3.536634e-09	-2.901476e+01	-2.318248e+02
1.300000e-07	-3.890916e-06	-3.494425e-09	-2.898711e+01	-2.317726e+02
1.400000e-07	-3.887036e-06	-3.428164e-09	-2.895820e+01	-2.317150e+02
1.500000e-07	-3.882980e-06	-3.449946e-09	-2.892798e+01	-2.316521e+02
1.600000e-07	-3.878687e-06	-3.540068e-09	-2.889600e+01	-2.315840e+02
1.700000e-07	-3.874182e-06	-3.577488e-09	-2.886243e+01	-2.315107e+02
1.800000e-07	-3.869434e-06	-3.492142e-09	-2.882707e+01	-2.314322e+02
1.900000e-07	-3.864411e-06	-3.464973e-09	-2.878964e+01	-2.313485e+02
2.000000e-07	-3.859081e-06	-3.494276e-09	-2.874994e+01	-2.312598e+02
2.100000e-07	-3.853429e-06	-3.558304e-09	-2.870783e+01	-2.311661e+02
2.200000e-07	-3.847571e-06	-3.553715e-09	-2.866419e+01	-2.310672e+02
2.300000e-07	-3.841457e-06	-3.512156e-09	-2.861864e+01	-2.309633e+02
2.400000e-07	-3.835073e-06	-3.459350e-09	-2.857108e+01	-2.308543e+02
2.500000e-07	-3.828420e-06	-3.489599e-09	-2.852151e+01	-2.307403e+02
2.600000e-07	-3.821476e-06	-3.569071e-09	-2.846978e+01	-2.306211e+02
2.700000e-07	-3.814268e-06	-3.565542e-09	-2.841608e+01	-2.304967e+02
2.800000e-07	-3.806829e-06	-3.426500e-09	-2.836066e+01	-2.303671e+02
2.900000e-07	-3.799151e-06	-3.411785e-09	-2.830346e+01	-2.302322e+02
3.000000e-07	-3.791231e-06	-3.545058e-09	-2.824446e+01	-2.300920e+02
3.100000e-07	-3.783185e-06	-3.578828e-09	-2.818451e+01	-2.299464e+02
3.200000e-07	-3.774980e-06	-3.443299e-09	-2.812339e+01	-2.297953e+02
3.300000e-07	-3.766439e-06	-3.391947e-09	-2.805976e+01	-2.296385e+02
3.400000e-07	-3.757628e-06	-3.497601e-09	-2.799412e+01	-2.294761e+02
3.500000e-07	-3.748593e-06	-3.546171e-09	-2.792680e+01	-2.293079e+02
3.600000e-07	-3.739038e-06	-3.476350e-09	-2.785562e+01	-2.291338e+02
3.700000e-07	-3.728990e-06	-3.400948e-09	-2.778077e+01	-2.289537e+02
3.800000e-07	-3.718534e-06	-3.443973e-09	-2.770287e+01	-2.287674e+02
3.900000e-07	-3.707697e-06	-3.495662e-09	-2.762213e+01	-2.285749e+02
4.000000e-07	-3.696468e-06	-3.493991e-09	-2.753848e+01	-2.283760e+02
4.100000e-07	-3.684813e-06	-3.431910e-09	-2.745165e+01	-2.281705e+02
4.200000e-07	-3.672945e-06	-3.416860e-09	-2.736323e+01	-2.279583e+02
4.300000e-07	-3.660874e-06	-3.440061e-09	-2.727330e+01	-2.277394e+02
4.400000e-07	-3.648581e-06	-3.482314e-09	-2.718172e+01	-2.275135e+02
4.500000e-07	-3.636047e-06	-3.456358e-09	-2.708835e+01	-2.272805e+02
4.600000e-07	-3.623180e-06	-3.398721e-09	-2.699248e+01	-2.270402e+02
4.700000e-07	-3.609997e-06	-3.383124e-09	-2.689427e+01	-2.267926e+02
4.800000e-07	-3.596598e-06	-3.445618e-09	-2.679445e+01	-2.265375e+02
4.900000e-07	-3.582978e-06	-3.451473e-09	-2.669298e+01	-2.262747e+02
5.000000e-07	-3.569086e-06	-3.379880e-09	-2.658949e+01	-2.260042e+02
5.100000e-07	-3.554969e-06	-3.352644e-09	-2.648432e+01	-2.257257e+02
5.200000e-07	-3.540504e-06	-3.416813e-09	-2.637655e+01	-2.254392e+02
5.300000e-07	-3.525649e-06	-3.430610e-09	-2.626589e+01	-2.251446e+02
5.400000e-07	-3.510333e-06	-3.369627e-09	-2.615178e+01	-2.248417e+02
5.500000e-07	-3.494604e-06	-3.346578e-09	-2.603460e+01	-2.245305e+02
5.600000e-07	-3.478630e-06	-3.384413e-09	-2.591560e+01	-2.242108e+02
5.700000e-07	-3.462382e-06	-3.386537e-09	-2.579455e+01	-2.238825e+02
5.800000e-07	-3.445864e-06	-3.351149e-09	-2.567149e+01	-2.235456e+02
5.900000e-07	-3.429092e-06	-3.341801e-09	-2.554654e+01	-2.232001e+02
6.000000e-07	-3.412048e-06	-3.347856e-09	-2.541956e+01	-2.228457e+02
6.100000e-07	-3.394826e-06	-3.346314e-09	-2.529126e+01	-2.224826e+02
6.200000e-07	-3.377524e-06	-3.342032e-09	-2.516236e+01	-2.221106e+02
6.300000e-07	-3.359949e-06	-3.335183e-09	-2.503143e+01	-2.217297e+02
6.400000e-07	-3.342096e-06	-3.313360e-09	-2.489842e+01	-2.213399e+02
6.500000e-07	-3.324082e-06	-3.316131e-09	-2.476422e+01	-2.209412e+02
6.600000e-07	-3.305846e-06	-3.327015e-09	-2.462836e+01	-2.205335e+02
6.700000e-07	-3.287328e-06	-3.310623e-09	-2.449041e+01	-2.201169e+02
6.800000e-07	-3.268446e-06	-3.279359e-09	-2.434974e+01	-2.196914e+02
6.900000e-07	-3.249289e-06	-3.291093e-09	-2.420702e+01	-2.192570e+02
7.000000e-07	-3.229954e-06	-3.303690e-09	-2.406297e+01	-2.188136e+02
7.100000e-07	-3.210390e-06	-3.281710e-09	-2.391722e+01	-2.183614e+02
7.200000e-07	-3.190660e-06	-3.254169e-09	-2.377023e+01	-2.179004e+02
7.300000e-07	-3.170801e-06	-3.262173e-09	-2.362229e+01	-2.174306e+02
7.400000e-07	-3.150848e-06	-3.266142e-09	-2.347364e+01	-2.169521e+02
7.500000e-07	-3.130827e-06	-3.249079e-09	-2.332448e+01	-2.164648e+02
7.600000e-07	-3.110679e-06	-3.227644e-09	-2.317438e+01	-2.159689e+02
7.700000e-07	-3.090375e-06	-3.225418e-09	-2.302312e+01	-2.154643e+02
7.800000e-07	-3.069832e-06	-3.226904e-09	-2.287007e+01	-2.149512e+02
7.900000e-07	-3.049010e-06	-3.222539e-09	-2.271495e+01	-2.144295e+02
8.000000e-07	-3.027983e-06	-3.207025e-09	-2.255830e+01	-2.138993e+02
8.100000e-07	-3.006692e-06	-3.193207e-09	-2.239969e+01	-2.133605e+02
8.200000e-07	-2.985117e-06	-3.189116e-09	-2.223896e+01	-2.128133e+02
8.300000e-07	-2.963389e-06	-3.190556e-09	-2.207708e+01	-2.122576e+02
8.400000e-07	-2.941528e-06	-3.178963e-09	-2.191422e+01	-2.116935e+02
8.500000e-07	-2.919463e-06	-3.155507e-09	-2.174984e+01	-2.111208e+02
8.600000e-07	-2.897257e-06	-3.145114e-09	-2.158440e+01	-2.105396e+02
8.700000e-07	-2.874849e-06	-3.150795e-09	-2.141746e+01	-2.099499e+02
8.800000e-07	-2.852260e-06	-3.147976e-09	-2.124917e+01	-2.093516e+02
8.900000e-07	-2.829513e-06	-3.126049e-09	-2.107971e+01	-2.087446e+02
9.000000e-07	-2.806504e-06	-3.112700e-09	-2.090829e+01	-2.081288e+02
9.100000e-07	-2.783223e-06	-3.112604e-09	-2.073485e+01	-2.075043e+02
9.200000e-07	-2.759709e-06	-3.107491e-09	-2.055967e+01	-2.068708e+02
9.300000e-07	-2.736083e-06	-3.086916e-09	-2.038366e+01	-2.062282e+02
9.400000e-07	-2.712372e-06	-3.068493e-09	-2.020701e+01	-2.055764e+02
9.500000e-07	-2.688525e-06	-3.059301e-09	-2.002936e+01	-2.049152e+02
9.600000e-07	-2.664533e-06	-3.054004e-09	-1.985062e+01	-2.042445e+02
9.700000e-07	-2.640378e-06	-3.042536e-09	-1.967067e+01	-2.035641e+02
9.800000e-07	-2.616119e-06	-3.028729e-09	-1.948994e+01	-2.028738e+02
9.900000e-07	-2.591796e-06	-3.013250e-09	-1.930874e+01	-2.021733e+02
1.000000e-06	-2.567259e-06	-3.003395e-09	-1.912593e+01	-2.014624e+02
1.010000e-06	-2.542375e-06	-2.992904e-09	-1.894055e+01	-2.007410e+02
1.020000e-06	-2.517242e-06	-2.977872e-09	-1.875331e+01	-2.000087e+02
1.030000e-06	-2.491955e-06	-2.959294e-09	-1.856492e+01	-1.992653e+02
1.040000e-06	-2.466363e-06	-2.948688e-09	-1.837426e+01	-1.985105e+02
1.050000e-06	-2.440494e-06	-2.940024e-09	-1.818154e+01	-1.977440e+02
1.060000e-06	-2.414371e-06	-2.926253e-09	-1.798692e+01	-1.969656e+02
1.070000e-06	-2.387871e-06	-2.908189e-09	-1.778950e+01	-1.961751e+02
1.080000e-06	-2.361019e-06	-2.894166e-09	-1.758946e+01	-1.953720e+02
1.090000e-06	-2.333858e-06	-2.883739e-09	-1.738711e+01	-1.945561e+02
1.100000e-06	-2.306483e-06	-2.871724e-09	-1.718317e+01	-1.937271e+02
1.110000e-06	-2.278939e-06	-2.856770e-09	-1.697796e+01	-1.928848e+02
1.120000e-06	-2.251253e-06	-2.842639e-09	-1.677171e+01	-1.920288e+02
1.130000e-06	-2.223470e-06	-2.831427e-09	-1.656473e+01	-1.911589e+02
1.140000e-06	-2.195623e-06	-2.818158e-09	-1.635726e+01	-1.902747e+02
1.150000e-06	-2.167735e-06	-2.800861e-09	-1.614951e+01	-1.893760e+02
1.160000e-06	-2.139770e-06	-2.784951e-09	-1.594116e+01	-1.884626e+02
1.170000e-06	-2.111685e-06	-2.771868e-09	-1.573194e+01	-1.875341e+02
1.180000e-06	-2.083477e-06	-2.757341e-09	-1.552179e+01	-1.865903e+02
1.190000e-06	-2.055181e-06	-2.742410e-09	-1.531098e+01	-1.856310e+02
1.200000e-06	-2.026802e-06	-2.726704e-09	-1.509956e+01	-1.846558e+02
1.210000e-06	-1.998268e-06	-2.712278e-09	-1.488698e+01	-1.836645e+02
1.220000e-06	-1.969575e-06	-2.695943e-09	-1.467322e+01	-1.826569e+02
1.230000e-06	-1.940789e-06	-2.680226e-09	-1.445877e+01	-1.816327e+02
1.240000e-06	-1.911852e-06	-2.662649e-09	-1.424319e+01	-1.805917e+02
1.250000e-06	-1.882705e-06	-2.645964e-09	-1.402605e+01	-1.795337e+02
1.260000e-06	-1.853367e-06	-2.630553e-09	-1.380748e+01	-1.784583e+02
1.270000e-06	-1.823924e-06	-2.615660e-09	-1.358813e+01	-1.773653e+02
1.280000e-06	-1.794357e-06	-2.597102e-09	-1.336786e+01	-1.762544e+02
1.290000e-06	-1.764656e-06	-2.580214e-09	-1.314659e+01	-1.751254e+02
1.300000e-06	-1.734889e-06	-2.564054e-09	-1.292482e+01	-1.739780e+02
1.310000e-06	-1.705037e-06	-2.546513e-09	-1.270243e+01	-1.728119e+02
1.320000e-06	-1.675105e-06	-2.526657e-09	-1.247944e+01	-1.716267e+02
1.330000e-06	-1.645120e-06	-2.506002e-09	-1.225605e+01	-1.704221e+02
1.340000e-06	-1.615036e-06	-2.486413e-09	-1.203192e+01	-1.691977e+02
1.350000e-06	-1.584817e-06	-2.467684e-09	-1.180680e+01	-1.679531e+02
1.360000e-06	-1.554510e-06	-2.447534e-09	-1.158101e+01	-1.666879e+02
1.370000e-06	-1.524125e-06	-2.427137e-09	-1.135464e+01	-1.654015e+02
1.380000e-06	-1.493600e-06	-2.407426e-09	-1.112724e+01	-1.640936e+02
1.390000e-06	-1.462916e-06	-2.386979e-09	-1.089864e+01	-1.627635e+02
1.400000e-06	-1.432045e-06	-2.367839e-09	-1.066865e+01	-1.614107e+02
1.410000e-06	-1.401127e-06	-2.345679e-09	-1.043832e+01	-1.600344e+02
1.420000e-06	-1.370214e-06	-2.321506e-09	-1.020802e+01	-1.586341e+02
1.430000e-06	-1.339190e-06	-2.297302e-09	-9.976893e+00	-1.572089e+02
1.440000e-06	-1.308055e-06	-2.274252e-09	-9.744936e+00	-1.557581e+02
1.450000e-06	-1.276793e-06	-2.248939e-09	-9.512036e+00	-1.542809e+02
1.460000e-06	-1.245396e-06	-2.224242e-09	-9.278127e+00	-1.527763e+02
1.470000e-06	-1.213885e-06	-2.200659e-09	-9.043372e+00	-1.512434e+02
1.480000e-06	-1.182337e-06	-2.176936e-09	-8.808343e+00	-1.496812e+02
1.490000e-06	-1.150766e-06	-2.155712e-09	-8.573142e+00	-1.480886e+02
1.500000e-06	-1.119111e-06	-2.131864e-09	-8.337313e+00	-1.464645e+02
1.510000e-06	-1.087373e-06	-2.106725e-09	-8.100869e+00	-1.448078e+02
1.520000e-06	-1.055578e-06	-2.083719e-09	-7.864000e+00	-1.431173e+02
1.530000e-06	-1.023755e-06	-2.059635e-09	-7.626915e+00	-1.413916e+02
1.540000e-06	-9.919548e-07	-2.031869e-09	-7.390007e+00	-1.396296e+02
1.550000e-06	-9.601392e-07	-2.001325e-09	-7.152982e+00	-1.378299e+02
1.560000e-06	-9.282405e-07	-1.972187e-09	-6.915339e+00	-1.359911e+02
1.570000e-06	-8.962836e-07	-1.943734e-09	-6.677262e+00	-1.341119e+02
1.580000e-06	-8.643387e-07	-1.916460e-09	-6.439274e+00	-1.321909e+02
1.590000e-06	-8.324046e-07	-1.886817e-09	-6.201367e+00	-1.302266e+02
1.600000e-06	-8.004033e-07	-1.855919e-09	-5.962959e+00	-1.282177e+02
1.610000e-06	-7.683453e-07	-1.827604e-09	-5.724129e+00	-1.261628e+02
1.620000e-06	-7.362363e-07	-1.797311e-09	-5.484919e+00	-1.240604e+02
1.630000e-06	-7.040596e-07	-1.761384e-09	-5.245204e+00	-1.219092e+02
1.640000e-06	-6.718185e-07	-1.724526e-09	-5.005009e+00	-1.197079e+02
1.650000e-06	-6.395420e-07	-1.692167e-09	-4.764551e+00	-1.174550e+02
1.660000e-06	-6.073119e-07	-1.660681e-09	-4.524439e+00	-1.151495e+02
1.670000e-06	-5.750949e-07	-1.624767e-09	-4.284425e+00	-1.127900e+02
1.680000e-06	-5.427984e-07	-1.589120e-09	-4.043817e+00	-1.103755e+02
1.690000e-06	-5.104723e-07	-1.553971e-09	-3.802989e+00	-1.079049e+02
1.700000e-06	-4.781239e-07	-1.517690e-09	-3.561996e+00	-1.053772e+02
1.710000e-06	-4.457499e-07	-1.479953e-09	-3.320811e+00	-1.027916e+02
1.720000e-06	-4.133215e-07	-1.441041e-09	-3.079222e+00	-1.001473e+02
1.730000e-06	-3.808378e-07	-1.402902e-09	-2.837220e+00	-9.744374e+01
1.740000e-06	-3.484543e-07	-1.362923e-09	-2.595965e+00	-9.468031e+01
1.750000e-06	-3.160373e-07	-1.321675e-09	-2.354460e+00	-9.185667e+01
1.760000e-06	-2.834794e-07	-1.280843e-09	-2.111905e+00	-8.897259e+01
1.770000e-06	-2.508393e-07	-1.238822e-09	-1.868738e+00	-8.602798e+01
1.780000e-06	-2.181575e-07	-1.196396e-09	-1.625261e+00	-8.302293e+01
1.790000e-06	-1.855084e-07	-1.154935e-09	-1.382027e+00	-7.995766e+01
1.800000e-06	-1.528945e-07	-1.110580e-09	-1.139055e+00	-7.683260e+01
1.810000e-06	-1.202363e-07	-1.063289e-09	-8.957532e-01	-7.364832e+01
1.820000e-06	-8.753000e-08	-1.015584e-09	-6.520935e-01	-7.040558e+01
1.830000e-06	-5.480309e-08	-9.676260e-10	-4.082799e-01	-6.710534e+01
1.840000e-06	-2.208348e-08	-9.180078e-10	-1.645206e-01	-6.374872e+01
1.850000e-06	1.058234e-08	-8.676801e-10	7.883783e-02	-6.033702e+01
1.860000e-06	4.321009e-08	-8.199230e-10	3.219127e-01	-5.687175e+01
1.870000e-06	7.586999e-08	-7.723074e-10	5.652271e-01	-5.335458e+01
1.880000e-06	1.086645e-07	-7.210349e-10	8.095443e-01	-4.978738e+01
1.890000e-06	1.414169e-07	-6.694552e-10	1.053548e+00	-4.617217e+01
1.900000e-06	1.740532e-07	-6.189495e-10	1.296686e+00	-4.251118e+01
1.910000e-06	2.067200e-07	-5.660933e-10	1.540052e+00	-3.880679e+01
1.920000e-06	2.393007e-07	-5.103886e-10	1.782777e+00	-3.506152e+01
1.930000e-06	2.718369e-07	-4.545193e-10	2.025170e+00	-3.127809e+01
1.940000e-06	3.044332e-07	-3.989935e-10	2.268010e+00	-2.745933e+01
1.950000e-06	3.370040e-07	-3.433266e-10	2.510661e+00	-2.360823e+01
1.960000e-06	3.694508e-07	-2.874900e-10	2.752387e+00	-1.972789e+01
1.970000e-06	4.018978e-07	-2.326697e-10	2.994116e+00	-1.582153e+01
1.980000e-06	4.343350e-07	-1.785706e-10	3.235771e+00	-1.189248e+01
1.990000e-06	4.667274e-07	-1.230622e-10	3.477092e+00	-7.944176e+00
2.000000e-06	4.990911e-07	-6.549479e-11	3.718200e+00	-3.980102e+00
2.010000e-06	5.313224e-07	-7.674001e-12	3.958322e+00	-3.828980e-03
2.020000e-06	5.635418e-07	4.895347e-11	4.198355e+00	3.981024e+00
2.030000e-06	5.957539e-07	1.062949e-10	4.438332e+00	7.970801e+00
2.040000e-06	6.279213e-07	1.670348e-10	4.677978e+00	1.196182e+01
2.050000e-06	6.600808e-07	2.272731e-10	4.917565e+00	1.595040e+01
2.060000e-06	6.921677e-07	2.828305e-10	5.156610e+00	1.993284e+01
2.070000e-06	7.242091e-07	3.376729e-10	5.395317e+00	2.390550e+01
2.080000e-06	7.562623e-07	3.922905e-10	5.634111e+00	2.786474e+01
2.090000e-06	7.883205e-07	4.475092e-10	5.872943e+00	3.180698e+01
2.100000e-06	8.203743e-07	5.050415e-10	6.111742e+00	3.572872e+01
2.110000e-06	8.523735e-07	5.623676e-10	6.350134e+00	3.962650e+01
2.120000e-06	8.843297e-07	6.174539e-10	6.588206e+00	4.349700e+01
2.130000e-06	9.162756e-07	6.742313e-10	6.826201e+00	4.733695e+01
2.140000e-06	9.481993e-07	7.310435e-10	7.064031e+00	5.114324e+01
2.150000e-06	9.801022e-07	7.830630e-10	7.301705e+00	5.491286e+01
2.160000e-06	1.012007e-06	8.339222e-10	7.539398e+00	5.864294e+01
2.170000e-06	1.043852e-06	8.862911e-10	7.776638e+00	6.233076e+01
2.180000e-06	1.075617e-06	9.382848e-10	8.013284e+00	6.597376e+01
2.190000e-06	1.107329e-06	9.882474e-10	8.249537e+00	6.956953e+01
2.200000e-06	1.138999e-06	1.038213e-09	8.485476e+00	7.311585e+01
2.210000e-06	1.170596e-06	1.088857e-09	8.720872e+00	7.661064e+01
2.220000e-06	1.202053e-06	1.140174e-09	8.955225e+00	8.005203e+01
2.230000e-06	1.233468e-06	1.191756e-09	9.189266e+00	8.343832e+01
2.240000e-06	1.264858e-06	1.240641e-09	9.423120e+00	8.676799e+01
2.250000e-06	1.296121e-06	1.287544e-09	9.656030e+00	9.003973e+01
2.260000e-06	1.327263e-06	1.331564e-09	9.888035e+00	9.325240e+01
2.270000e-06	1.358313e-06	1.373348e-09	1.011936e+01	9.640503e+01
2.280000e-06	1.389190e-06	1.416923e-09	1.034939e+01	9.949687e+01
2.290000e-06	1.419933e-06	1.463150e-09	1.057842e+01	1.025273e+02
2.300000e-06	1.450638e-06	1.505757e-09	1.080717e+01	1.054960e+02
2.310000e-06	1.481202e-06	1.545100e-09	1.103487e+01	1.084026e+02
2.320000e-06	1.511606e-06	1.588427e-09	1.126138e+01	1.112472e+02
2.330000e-06	1.541913e-06	1.632662e-09	1.148717e+01	1.140297e+02
2.340000e-06	1.572102e-06	1.672580e-09	1.171207e+01	1.167505e+02
2.350000e-06	1.602227e-06	1.709318e-09	1.193650e+01	1.194100e+02
2.360000e-06	1.632313e-06	1.748914e-09	1.216064e+01	1.220086e+02
2.370000e-06	1.662338e-06	1.788520e-09	1.238432e+01	1.245470e+02
2.380000e-06	1.692278e-06	1.824911e-09	1.260738e+01	1.270261e+02
2.390000e-06	1.722083e-06	1.859106e-09	1.282942e+01	1.294467e+02
2.400000e-06	1.751818e-06	1.893802e-09	1.305094e+01	1.318098e+02
2.410000e-06	1.781510e-06	1.929428e-09	1.327215e+01	1.341165e+02
2.420000e-06	1.811098e-06	1.964147e-09	1.349258e+01	1.363679e+02
2.430000e-06	1.840531e-06	1.997069e-09	1.371185e+01	1.385653e+02
2.440000e-06	1.869767e-06	2.030759e-09	1.392966e+01	1.407100e+02
2.450000e-06	1.898810e-06	2.066652e-09	1.414603e+01	1.428033e+02
2.460000e-06	1.927723e-06	2.098776e-09	1.436143e+01	1.448465e+02
2.470000e-06	1.956539e-06	2.126014e-09	1.457610e+01	1.468412e+02
2.480000e-06	1.985194e-06	2.151650e-09	1.478958e+01	1.487887e+02
2.490000e-06	2.013662e-06	2.177362e-09	1.500166e+01	1.506904e+02
2.500000e-06	2.041944e-06	2.203274e-09	1.521237e+01	1.525478e+02
2.510000e-06	2.070079e-06	2.230888e-09	1.542197e+01	1.543623e+02
2.520000e-06	2.098171e-06	2.259426e-09	1.563125e+01	1.561353e+02
2.530000e-06	2.126218e-06	2.287471e-09	1.584020e+01	1.578682e+02
2.540000e-06	2.154212e-06	2.317662e-09	1.604876e+01	1.595624e+02
2.550000e-06	2.182132e-06	2.346506e-09	1.625676e+01	1.612192e+02
2.560000e-06	2.210011e-06	2.369681e-09	1.646446e+01	1.628399e+02
2.570000e-06	2.237847e-06	2.392469e-09	1.667183e+01	1.644257e+02
2.580000e-06	2.265622e-06	2.417057e-09	1.687875e+01	1.659778e+02
2.590000e-06	2.293254e-06	2.440899e-09	1.708461e+01	1.674974e+02
2.600000e-06	2.320734e-06	2.464384e-09	1.728934e+01	1.689855e+02
2.610000e-06	2.348076e-06	2.488686e-09	1.749303e+01	1.704432e+02
2.620000e-06	2.375081e-06	2.512069e-09	1.769422e+01	1.718714e+02
2.630000e-06	2.401667e-06	2.535566e-09	1.789228e+01	1.732711e+02
2.640000e-06	2.427885e-06	2.559733e-09	1.808760e+01	1.746431e+02
2.650000e-06	2.453815e-06	2.582349e-09	1.828078e+01	1.759883e+02
2.660000e-06	2.479409e-06	2.602477e-09	1.847146e+01	1.773072e+02
2.670000e-06	2.504643e-06	2.622232e-09	1.865945e+01	1.786008e+02
2.680000e-06	2.529605e-06	2.640128e-09	1.884542e+01	1.798694e+02
2.690000e-06	2.554384e-06	2.657021e-09	1.903002e+01	1.811139e+02
2.700000e-06	2.578965e-06	2.675876e-09	1.921314e+01	1.823346e+02
2.710000e-06	2.603325e-06	2.695340e-09	1.939462e+01	1.835321e+02
2.720000e-06	2.627509e-06	2.712481e-09	1.957479e+01	1.847068e+02
2.730000e-06	2.651586e-06	2.730241e-09	1.975417e+01	1.858591e+02
2.740000e-06	2.675578e-06	2.750149e-09	1.993290e+01	1.869894e+02
2.750000e-06	2.699456e-06	2.769297e-09	2.011079e+01	1.880980e+02
2.760000e-06	2.723209e-06	2.789646e-09	2.028775e+01	1.891853e+02
2.770000e-06	2.746749e-06	2.806575e-09	2.046313e+01	1.902516e+02
2.780000e-06	2.770094e-06	2.820391e-09	2.063704e+01	1.912970e+02
2.790000e-06	2.793339e-06	2.836091e-09	2.081022e+01	1.923219e+02
2.800000e-06	2.816390e-06	2.850895e-09	2.098195e+01	1.933266e+02
2.810000e-06	2.839131e-06	2.864574e-09	2.115136e+01	1.943111e+02
2.820000e-06	2.861649e-06	2.878208e-09	2.131912e+01	1.952759e+02
2.830000e-06	2.883982e-06	2.896297e-09	2.148550e+01	1.962211e+02
2.840000e-06	2.906102e-06	2.915661e-09	2.165030e+01	1.971469e+02
2.850000e-06	2.928042e-06	2.930109e-09	2.181374e+01	1.980536e+02
2.860000e-06	2.949826e-06	2.944469e-09	2.197604e+01	1.989415e+02
2.870000e-06	2.971508e-06	2.957139e-09	2.213756e+01	1.998107e+02
2.880000e-06	2.993041e-06	2.967459e-09	2.229798e+01	2.006615e+02
2.890000e-06	3.014358e-06	2.977837e-09	2.245680e+01	2.014943e+02
2.900000e-06	3.035429e-06	2.989756e-09	2.261377e+01	2.023092e+02
