# Temperatura_=_20.0
# Concentracion g/m^3_=_9000.0
# C_Vs_to_Am_M_A/Vsm_=_65563218390.804596
# pendiente_HvsI_1/m_=_3716.3
# ordenada_HvsI_A/m_=_1297.0
# frecuencia_Hz_=_134998.73855566853

Tiempo_(s)	Campo_(V.s)	Magnetizacion_(V.s)	Campo_(kA/m)	Magnetizacion_(A/m)
0.000000e+00	-3.905505e-06	-3.537516e-09	-2.915383e+01	-2.307528e+02
1.000000e-08	-3.905702e-06	-3.534870e-09	-2.915530e+01	-2.307707e+02
2.000000e-08	-3.905767e-06	-3.532008e-09	-2.915579e+01	-2.307813e+02
3.000000e-08	-3.905622e-06	-3.534930e-09	-2.915470e+01	-2.307843e+02
4.000000e-08	-3.905288e-06	-3.548354e-09	-2.915221e+01	-2.307799e+02
5.000000e-08	-3.904722e-06	-3.547171e-09	-2.914798e+01	-2.307679e+02
6.000000e-08	-3.903809e-06	-3.513084e-09	-2.914117e+01	-2.307484e+02
7.000000e-08	-3.902383e-06	-3.487685e-09	-2.913053e+01	-2.307214e+02
8.000000e-08	-3.900370e-06	-3.505401e-09	-2.911550e+01	-2.306868e+02
9.000000e-08	-3.897770e-06	-3.587727e-09	-2.909609e+01	-2.306446e+02
1.000000e-07	-3.894797e-06	-3.607397e-09	-2.907389e+01	-2.305948e+02
1.100000e-07	-3.891633e-06	-3.563688e-09	-2.905028e+01	-2.305375e+02
1.200000e-07	-3.888210e-06	-3.527815e-09	-2.902473e+01	-2.304727e+02
1.300000e-07	-3.884518e-06	-3.449767e-09	-2.899717e+01	-2.304003e+02
1.400000e-07	-3.880634e-06	-3.419042e-09	-2.896817e+01	-2.303204e+02
1.500000e-07	-3.876591e-06	-3.469937e-09	-2.893799e+01	-2.302331e+02
1.600000e-07	-3.872382e-06	-3.568926e-09	-2.890658e+01	-2.301384e+02
1.700000e-07	-3.867977e-06	-3.544675e-09	-2.887369e+01	-2.300364e+02
1.800000e-07	-3.863288e-06	-3.466290e-09	-2.883869e+01	-2.299271e+02
1.900000e-07	-3.858322e-06	-3.440644e-09	-2.880162e+01	-2.298106e+02
2.000000e-07	-3.853070e-06	-3.498820e-09	-2.876241e+01	-2.296871e+02
2.100000e-07	-3.847511e-06	-3.567961e-09	-2.872092e+01	-2.295565e+02
2.200000e-07	-3.841723e-06	-3.541782e-09	-2.867771e+01	-2.294191e+02
2.300000e-07	-3.835613e-06	-3.454138e-09	-2.863210e+01	-2.292749e+02
2.400000e-07	-3.829220e-06	-3.414908e-09	-2.858438e+01	-2.291241e+02
2.500000e-07	-3.822645e-06	-3.520681e-09	-2.853530e+01	-2.289668e+02
2.600000e-07	-3.815766e-06	-3.590565e-09	-2.848394e+01	-2.288032e+02
2.700000e-07	-3.808542e-06	-3.500213e-09	-2.843002e+01	-2.286333e+02
2.800000e-07	-3.801044e-06	-3.370310e-09	-2.837405e+01	-2.284574e+02
2.900000e-07	-3.793391e-06	-3.450076e-09	-2.831692e+01	-2.282756e+02
3.000000e-07	-3.785582e-06	-3.581394e-09	-2.825863e+01	-2.280880e+02
3.100000e-07	-3.777548e-06	-3.533639e-09	-2.819866e+01	-2.278948e+02
3.200000e-07	-3.769362e-06	-3.385177e-09	-2.813755e+01	-2.276962e+02
3.300000e-07	-3.761021e-06	-3.404843e-09	-2.807528e+01	-2.274923e+02
3.400000e-07	-3.752390e-06	-3.518916e-09	-2.801085e+01	-2.272832e+02
3.500000e-07	-3.743463e-06	-3.529284e-09	-2.794422e+01	-2.270691e+02
3.600000e-07	-3.734181e-06	-3.428920e-09	-2.787493e+01	-2.268501e+02
3.700000e-07	-3.724419e-06	-3.385002e-09	-2.780206e+01	-2.266263e+02
3.800000e-07	-3.714139e-06	-3.442973e-09	-2.772532e+01	-2.263979e+02
3.900000e-07	-3.703458e-06	-3.497683e-09	-2.764559e+01	-2.261649e+02
4.000000e-07	-3.692417e-06	-3.470781e-09	-2.756317e+01	-2.259275e+02
4.100000e-07	-3.680938e-06	-3.399160e-09	-2.747748e+01	-2.256856e+02
4.200000e-07	-3.669179e-06	-3.387671e-09	-2.738970e+01	-2.254393e+02
4.300000e-07	-3.657223e-06	-3.439985e-09	-2.730045e+01	-2.251888e+02
4.400000e-07	-3.645035e-06	-3.472633e-09	-2.720947e+01	-2.249339e+02
4.500000e-07	-3.632604e-06	-3.409899e-09	-2.711668e+01	-2.246747e+02
4.600000e-07	-3.619901e-06	-3.353990e-09	-2.702185e+01	-2.244111e+02
4.700000e-07	-3.606962e-06	-3.390442e-09	-2.692527e+01	-2.241432e+02
4.800000e-07	-3.593743e-06	-3.454440e-09	-2.682659e+01	-2.238708e+02
4.900000e-07	-3.580161e-06	-3.407549e-09	-2.672520e+01	-2.235938e+02
5.000000e-07	-3.566251e-06	-3.333479e-09	-2.662137e+01	-2.233122e+02
5.100000e-07	-3.552072e-06	-3.352070e-09	-2.651552e+01	-2.230259e+02
5.200000e-07	-3.537619e-06	-3.417162e-09	-2.640763e+01	-2.227346e+02
5.300000e-07	-3.522892e-06	-3.389289e-09	-2.629770e+01	-2.224382e+02
5.400000e-07	-3.507869e-06	-3.331011e-09	-2.618555e+01	-2.221366e+02
5.500000e-07	-3.492457e-06	-3.333791e-09	-2.607051e+01	-2.218295e+02
5.600000e-07	-3.476667e-06	-3.371904e-09	-2.595264e+01	-2.215167e+02
5.700000e-07	-3.460406e-06	-3.361950e-09	-2.583125e+01	-2.211980e+02
5.800000e-07	-3.443886e-06	-3.332192e-09	-2.570793e+01	-2.208731e+02
5.900000e-07	-3.427289e-06	-3.319283e-09	-2.558404e+01	-2.205418e+02
6.000000e-07	-3.410405e-06	-3.326625e-09	-2.545801e+01	-2.202038e+02
6.100000e-07	-3.393263e-06	-3.333675e-09	-2.533005e+01	-2.198589e+02
6.200000e-07	-3.376000e-06	-3.327055e-09	-2.520118e+01	-2.195067e+02
6.300000e-07	-3.358474e-06	-3.301471e-09	-2.507035e+01	-2.191470e+02
6.400000e-07	-3.340687e-06	-3.289625e-09	-2.493758e+01	-2.187795e+02
6.500000e-07	-3.322749e-06	-3.309201e-09	-2.480367e+01	-2.184039e+02
6.600000e-07	-3.304489e-06	-3.312077e-09	-2.466736e+01	-2.180199e+02
6.700000e-07	-3.285974e-06	-3.278214e-09	-2.452916e+01	-2.176273e+02
6.800000e-07	-3.267280e-06	-3.256663e-09	-2.438960e+01	-2.172257e+02
6.900000e-07	-3.248310e-06	-3.276583e-09	-2.424800e+01	-2.168149e+02
7.000000e-07	-3.229014e-06	-3.279936e-09	-2.410396e+01	-2.163947e+02
7.100000e-07	-3.209491e-06	-3.252342e-09	-2.395822e+01	-2.159647e+02
7.200000e-07	-3.189838e-06	-3.231524e-09	-2.381152e+01	-2.155248e+02
7.300000e-07	-3.170011e-06	-3.241994e-09	-2.366351e+01	-2.150748e+02
7.400000e-07	-3.150021e-06	-3.245304e-09	-2.351429e+01	-2.146144e+02
7.500000e-07	-3.129920e-06	-3.229298e-09	-2.336424e+01	-2.141434e+02
7.600000e-07	-3.109736e-06	-3.208180e-09	-2.321357e+01	-2.136618e+02
7.700000e-07	-3.089408e-06	-3.205072e-09	-2.306183e+01	-2.131693e+02
7.800000e-07	-3.068923e-06	-3.209134e-09	-2.290891e+01	-2.126657e+02
7.900000e-07	-3.048212e-06	-3.204883e-09	-2.275430e+01	-2.121511e+02
8.000000e-07	-3.027206e-06	-3.183493e-09	-2.259750e+01	-2.116252e+02
8.100000e-07	-3.006028e-06	-3.169380e-09	-2.243941e+01	-2.110881e+02
8.200000e-07	-2.984653e-06	-3.170728e-09	-2.227985e+01	-2.105396e+02
8.300000e-07	-2.963019e-06	-3.173192e-09	-2.211836e+01	-2.099798e+02
8.400000e-07	-2.941171e-06	-3.155760e-09	-2.195527e+01	-2.094085e+02
8.500000e-07	-2.919173e-06	-3.134458e-09	-2.179105e+01	-2.088259e+02
8.600000e-07	-2.896983e-06	-3.130669e-09	-2.162541e+01	-2.082318e+02
8.700000e-07	-2.874608e-06	-3.137549e-09	-2.145839e+01	-2.076264e+02
8.800000e-07	-2.852073e-06	-3.128112e-09	-2.129016e+01	-2.070097e+02
8.900000e-07	-2.829353e-06	-3.104238e-09	-2.112056e+01	-2.063817e+02
9.000000e-07	-2.806425e-06	-3.094089e-09	-2.094942e+01	-2.057425e+02
9.100000e-07	-2.783260e-06	-3.097888e-09	-2.077649e+01	-2.050921e+02
9.200000e-07	-2.759884e-06	-3.090226e-09	-2.060199e+01	-2.044307e+02
9.300000e-07	-2.736354e-06	-3.065584e-09	-2.042635e+01	-2.037583e+02
9.400000e-07	-2.712676e-06	-3.048546e-09	-2.024959e+01	-2.030750e+02
9.500000e-07	-2.688881e-06	-3.043887e-09	-2.007197e+01	-2.023809e+02
9.600000e-07	-2.664970e-06	-3.037698e-09	-1.989348e+01	-2.016761e+02
9.700000e-07	-2.640880e-06	-3.021310e-09	-1.971365e+01	-2.009606e+02
9.800000e-07	-2.616640e-06	-3.004628e-09	-1.953270e+01	-2.002346e+02
9.900000e-07	-2.592344e-06	-2.993547e-09	-1.935134e+01	-1.994981e+02
1.000000e-06	-2.567899e-06	-2.986735e-09	-1.916886e+01	-1.987512e+02
1.010000e-06	-2.543157e-06	-2.974255e-09	-1.898417e+01	-1.979939e+02
1.020000e-06	-2.518214e-06	-2.955472e-09	-1.879797e+01	-1.972263e+02
1.030000e-06	-2.493059e-06	-2.938571e-09	-1.861020e+01	-1.964485e+02
1.040000e-06	-2.467609e-06	-2.932056e-09	-1.842022e+01	-1.956604e+02
1.050000e-06	-2.441734e-06	-2.921940e-09	-1.822707e+01	-1.948620e+02
1.060000e-06	-2.415505e-06	-2.901807e-09	-1.803127e+01	-1.940533e+02
1.070000e-06	-2.389141e-06	-2.881496e-09	-1.783447e+01	-1.932343e+02
1.080000e-06	-2.362498e-06	-2.871566e-09	-1.763559e+01	-1.924050e+02
1.090000e-06	-2.335464e-06	-2.862180e-09	-1.743378e+01	-1.915653e+02
1.100000e-06	-2.308201e-06	-2.846433e-09	-1.723027e+01	-1.907150e+02
1.110000e-06	-2.280866e-06	-2.828636e-09	-1.702622e+01	-1.898542e+02
1.120000e-06	-2.253353e-06	-2.814691e-09	-1.682084e+01	-1.889825e+02
1.130000e-06	-2.225556e-06	-2.803455e-09	-1.661334e+01	-1.881000e+02
1.140000e-06	-2.197646e-06	-2.789165e-09	-1.640500e+01	-1.872064e+02
1.150000e-06	-2.169716e-06	-2.770620e-09	-1.619651e+01	-1.863016e+02
1.160000e-06	-2.141707e-06	-2.752595e-09	-1.598742e+01	-1.853852e+02
1.170000e-06	-2.113623e-06	-2.738681e-09	-1.577778e+01	-1.844571e+02
1.180000e-06	-2.085484e-06	-2.725965e-09	-1.556773e+01	-1.835170e+02
1.190000e-06	-2.057256e-06	-2.710348e-09	-1.535702e+01	-1.825647e+02
1.200000e-06	-2.028901e-06	-2.692397e-09	-1.514535e+01	-1.815998e+02
1.210000e-06	-2.000448e-06	-2.676423e-09	-1.493295e+01	-1.806219e+02
1.220000e-06	-1.971842e-06	-2.660787e-09	-1.471941e+01	-1.796308e+02
1.230000e-06	-1.943103e-06	-2.644909e-09	-1.450488e+01	-1.786261e+02
1.240000e-06	-1.914283e-06	-2.627916e-09	-1.428975e+01	-1.776073e+02
1.250000e-06	-1.885283e-06	-2.610486e-09	-1.407327e+01	-1.765741e+02
1.260000e-06	-1.856103e-06	-2.593157e-09	-1.385545e+01	-1.755260e+02
1.270000e-06	-1.826802e-06	-2.577355e-09	-1.363672e+01	-1.744625e+02
1.280000e-06	-1.797374e-06	-2.560075e-09	-1.341705e+01	-1.733833e+02
1.290000e-06	-1.767787e-06	-2.543415e-09	-1.319618e+01	-1.722876e+02
1.300000e-06	-1.738076e-06	-2.527142e-09	-1.297440e+01	-1.711751e+02
1.310000e-06	-1.708274e-06	-2.509205e-09	-1.275193e+01	-1.700451e+02
1.320000e-06	-1.678320e-06	-2.490219e-09	-1.252833e+01	-1.688971e+02
1.330000e-06	-1.648261e-06	-2.471276e-09	-1.230395e+01	-1.677305e+02
1.340000e-06	-1.618222e-06	-2.451195e-09	-1.207971e+01	-1.665447e+02
1.350000e-06	-1.588094e-06	-2.430043e-09	-1.185481e+01	-1.653388e+02
1.360000e-06	-1.557817e-06	-2.410084e-09	-1.162880e+01	-1.641124e+02
1.370000e-06	-1.527476e-06	-2.392527e-09	-1.140231e+01	-1.628647e+02
1.380000e-06	-1.497072e-06	-2.373809e-09	-1.117535e+01	-1.615949e+02
1.390000e-06	-1.466602e-06	-2.352141e-09	-1.094790e+01	-1.603022e+02
1.400000e-06	-1.436014e-06	-2.330341e-09	-1.071956e+01	-1.589858e+02
1.410000e-06	-1.405221e-06	-2.309190e-09	-1.048970e+01	-1.576450e+02
1.420000e-06	-1.374322e-06	-2.287865e-09	-1.025905e+01	-1.562788e+02
1.430000e-06	-1.343366e-06	-2.267151e-09	-1.002796e+01	-1.548864e+02
1.440000e-06	-1.312347e-06	-2.245444e-09	-9.796415e+00	-1.534668e+02
1.450000e-06	-1.281210e-06	-2.222172e-09	-9.563983e+00	-1.520191e+02
1.460000e-06	-1.249914e-06	-2.200313e-09	-9.330362e+00	-1.505422e+02
1.470000e-06	-1.218529e-06	-2.178930e-09	-9.096079e+00	-1.490351e+02
1.480000e-06	-1.187059e-06	-2.154976e-09	-8.861164e+00	-1.474969e+02
1.490000e-06	-1.155455e-06	-2.129163e-09	-8.625248e+00	-1.459264e+02
1.500000e-06	-1.123729e-06	-2.103625e-09	-8.388417e+00	-1.443224e+02
1.510000e-06	-1.091988e-06	-2.081138e-09	-8.151473e+00	-1.426840e+02
1.520000e-06	-1.060222e-06	-2.060735e-09	-7.914346e+00	-1.410099e+02
1.530000e-06	-1.028420e-06	-2.036946e-09	-7.676953e+00	-1.392989e+02
1.540000e-06	-9.965816e-07	-2.011537e-09	-7.439286e+00	-1.375499e+02
1.550000e-06	-9.646169e-07	-1.983210e-09	-7.200676e+00	-1.357616e+02
1.560000e-06	-9.325811e-07	-1.954142e-09	-6.961535e+00	-1.339329e+02
1.570000e-06	-9.005680e-07	-1.925256e-09	-6.722564e+00	-1.320624e+02
1.580000e-06	-8.685292e-07	-1.897391e-09	-6.483400e+00	-1.301490e+02
1.590000e-06	-8.364726e-07	-1.867202e-09	-6.244104e+00	-1.281915e+02
1.600000e-06	-8.043907e-07	-1.835716e-09	-6.004619e+00	-1.261886e+02
1.610000e-06	-7.722513e-07	-1.806415e-09	-5.764704e+00	-1.241391e+02
1.620000e-06	-7.400832e-07	-1.775820e-09	-5.524576e+00	-1.220418e+02
1.630000e-06	-7.078841e-07	-1.741502e-09	-5.284216e+00	-1.198956e+02
1.640000e-06	-6.756818e-07	-1.706731e-09	-5.043833e+00	-1.176994e+02
1.650000e-06	-6.434982e-07	-1.673524e-09	-4.803588e+00	-1.154520e+02
1.660000e-06	-6.112827e-07	-1.640632e-09	-4.563106e+00	-1.131524e+02
1.670000e-06	-5.790355e-07	-1.605307e-09	-4.322387e+00	-1.107997e+02
1.680000e-06	-5.467746e-07	-1.568353e-09	-4.081565e+00	-1.083929e+02
1.690000e-06	-5.145186e-07	-1.531532e-09	-3.840781e+00	-1.059312e+02
1.700000e-06	-4.822648e-07	-1.495796e-09	-3.600012e+00	-1.034138e+02
1.710000e-06	-4.499461e-07	-1.459341e-09	-3.358760e+00	-1.008400e+02
1.720000e-06	-4.175581e-07	-1.420225e-09	-3.116989e+00	-9.820918e+01
1.730000e-06	-3.852074e-07	-1.382146e-09	-2.875498e+00	-9.552090e+01
1.740000e-06	-3.528904e-07	-1.343258e-09	-2.634258e+00	-9.277476e+01
1.750000e-06	-3.205219e-07	-1.302482e-09	-2.392633e+00	-8.997049e+01
1.760000e-06	-2.880757e-07	-1.259747e-09	-2.150429e+00	-8.710795e+01
1.770000e-06	-2.555614e-07	-1.217623e-09	-1.907716e+00	-8.418712e+01
1.780000e-06	-2.230418e-07	-1.177060e-09	-1.664964e+00	-8.120813e+01
1.790000e-06	-1.904992e-07	-1.136475e-09	-1.422039e+00	-7.817123e+01
1.800000e-06	-1.579107e-07	-1.091525e-09	-1.178773e+00	-7.507685e+01
1.810000e-06	-1.252898e-07	-1.043643e-09	-9.352636e-01	-7.192554e+01
1.820000e-06	-9.265270e-08	-9.960471e-10	-6.916342e-01	-6.871802e+01
1.830000e-06	-6.006832e-08	-9.492771e-10	-4.483983e-01	-6.545517e+01
1.840000e-06	-2.755651e-08	-9.001885e-10	-2.057040e-01	-6.213803e+01
1.850000e-06	4.917504e-09	-8.493648e-10	3.670820e-02	-5.876780e+01
1.860000e-06	3.744053e-08	-8.003678e-10	2.794863e-01	-5.534584e+01
1.870000e-06	6.999056e-08	-7.532485e-10	5.224658e-01	-5.187369e+01
1.880000e-06	1.025339e-07	-7.042579e-10	7.653956e-01	-4.835305e+01
1.890000e-06	1.350890e-07	-6.523358e-10	1.008413e+00	-4.478576e+01
1.900000e-06	1.676245e-07	-6.007318e-10	1.251284e+00	-4.117385e+01
1.910000e-06	2.001186e-07	-5.482926e-10	1.493846e+00	-3.751948e+01
1.920000e-06	2.325916e-07	-4.938320e-10	1.736251e+00	-3.382499e+01
1.930000e-06	2.650663e-07	-4.386611e-10	1.978668e+00	-3.009283e+01
1.940000e-06	2.975155e-07	-3.833492e-10	2.220895e+00	-2.632561e+01
1.950000e-06	3.299033e-07	-3.271888e-10	2.462664e+00	-2.252608e+01
1.960000e-06	3.623034e-07	-2.706161e-10	2.704524e+00	-1.869710e+01
1.970000e-06	3.947379e-07	-2.143452e-10	2.946641e+00	-1.484166e+01
1.980000e-06	4.271019e-07	-1.570696e-10	3.188232e+00	-1.096284e+01
1.990000e-06	4.594266e-07	-9.929360e-11	3.429529e+00	-7.063820e+00
2.000000e-06	4.917189e-07	-4.207739e-11	3.670585e+00	-3.147881e+00
2.010000e-06	5.240230e-07	1.587727e-11	3.911729e+00	7.816369e-01
2.020000e-06	5.563041e-07	7.307981e-11	4.152701e+00	4.721328e+00
2.030000e-06	5.885108e-07	1.279017e-10	4.393118e+00	8.667736e+00
2.040000e-06	6.207229e-07	1.839754e-10	4.633575e+00	1.261737e+01
2.050000e-06	6.529932e-07	2.439587e-10	4.874466e+00	1.656671e+01
2.060000e-06	6.852276e-07	3.025126e-10	5.115090e+00	2.051223e+01
2.070000e-06	7.173751e-07	3.578195e-10	5.355065e+00	2.445041e+01
2.080000e-06	7.495088e-07	4.125949e-10	5.594937e+00	2.837774e+01
2.090000e-06	7.816151e-07	4.667295e-10	5.834604e+00	3.229074e+01
2.100000e-06	8.137093e-07	5.208244e-10	6.074181e+00	3.618598e+01
2.110000e-06	8.457993e-07	5.779138e-10	6.313726e+00	4.006008e+01
2.120000e-06	8.778607e-07	6.346625e-10	6.553058e+00	4.390974e+01
2.130000e-06	9.099305e-07	6.889916e-10	6.792453e+00	4.773172e+01
2.140000e-06	9.419348e-07	7.451411e-10	7.031359e+00	5.152290e+01
2.150000e-06	9.738631e-07	8.000053e-10	7.269698e+00	5.528024e+01
2.160000e-06	1.005809e-06	8.506799e-10	7.508167e+00	5.900084e+01
2.170000e-06	1.037665e-06	9.023210e-10	7.745962e+00	6.268192e+01
2.180000e-06	1.069450e-06	9.552344e-10	7.983232e+00	6.632081e+01
2.190000e-06	1.101242e-06	1.005649e-09	8.220559e+00	6.991503e+01
2.200000e-06	1.132956e-06	1.055741e-09	8.457293e+00	7.346221e+01
2.210000e-06	1.164567e-06	1.107750e-09	8.693263e+00	7.696017e+01
2.220000e-06	1.196107e-06	1.158453e-09	8.928704e+00	8.040687e+01
2.230000e-06	1.227541e-06	1.208420e-09	9.163355e+00	8.380046e+01
2.240000e-06	1.258870e-06	1.257036e-09	9.397215e+00	8.713926e+01
2.250000e-06	1.290055e-06	1.304369e-09	9.630007e+00	9.042175e+01
2.260000e-06	1.321094e-06	1.349882e-09	9.861706e+00	9.364660e+01
2.270000e-06	1.352037e-06	1.393725e-09	1.009269e+01	9.681269e+01
2.280000e-06	1.382834e-06	1.437240e-09	1.032259e+01	9.991902e+01
2.290000e-06	1.413459e-06	1.481026e-09	1.055120e+01	1.029648e+02
2.300000e-06	1.444010e-06	1.525846e-09	1.077925e+01	1.059495e+02
2.310000e-06	1.474473e-06	1.569716e-09	1.100665e+01	1.088725e+02
2.320000e-06	1.504874e-06	1.612705e-09	1.123359e+01	1.117338e+02
2.330000e-06	1.535245e-06	1.655991e-09	1.146030e+01	1.145330e+02
2.340000e-06	1.565462e-06	1.698152e-09	1.168587e+01	1.172704e+02
2.350000e-06	1.595549e-06	1.735216e-09	1.191046e+01	1.199461e+02
2.360000e-06	1.625611e-06	1.771297e-09	1.213486e+01	1.225605e+02
2.370000e-06	1.655643e-06	1.810050e-09	1.235905e+01	1.251140e+02
2.380000e-06	1.685548e-06	1.848984e-09	1.258229e+01	1.276074e+02
2.390000e-06	1.715361e-06	1.885606e-09	1.280483e+01	1.300413e+02
2.400000e-06	1.745154e-06	1.921969e-09	1.302723e+01	1.324166e+02
2.410000e-06	1.774835e-06	1.957417e-09	1.324879e+01	1.347343e+02
2.420000e-06	1.804353e-06	1.991935e-09	1.346914e+01	1.369955e+02
2.430000e-06	1.833739e-06	2.025497e-09	1.368850e+01	1.392013e+02
2.440000e-06	1.862888e-06	2.057511e-09	1.390609e+01	1.413529e+02
2.450000e-06	1.891881e-06	2.089299e-09	1.412252e+01	1.434517e+02
2.460000e-06	1.920840e-06	2.119811e-09	1.433870e+01	1.454988e+02
2.470000e-06	1.949639e-06	2.149121e-09	1.455367e+01	1.474959e+02
2.480000e-06	1.978270e-06	2.176843e-09	1.476740e+01	1.494442e+02
2.490000e-06	2.006756e-06	2.203846e-09	1.498004e+01	1.513451e+02
2.500000e-06	2.035082e-06	2.231650e-09	1.519149e+01	1.532003e+02
2.510000e-06	2.063288e-06	2.261023e-09	1.540204e+01	1.550111e+02
2.520000e-06	2.091432e-06	2.290185e-09	1.561213e+01	1.567789e+02
2.530000e-06	2.119499e-06	2.318374e-09	1.582164e+01	1.585053e+02
2.540000e-06	2.147514e-06	2.345471e-09	1.603077e+01	1.601917e+02
2.550000e-06	2.175492e-06	2.372222e-09	1.623962e+01	1.618395e+02
2.560000e-06	2.203415e-06	2.396807e-09	1.644806e+01	1.634501e+02
2.570000e-06	2.231300e-06	2.418375e-09	1.665622e+01	1.650248e+02
2.580000e-06	2.259043e-06	2.442007e-09	1.686331e+01	1.665649e+02
2.590000e-06	2.286650e-06	2.468983e-09	1.706940e+01	1.680717e+02
2.600000e-06	2.314076e-06	2.495377e-09	1.727413e+01	1.695464e+02
2.610000e-06	2.341278e-06	2.518880e-09	1.747718e+01	1.709902e+02
2.620000e-06	2.368148e-06	2.540027e-09	1.767776e+01	1.724041e+02
2.630000e-06	2.394639e-06	2.560778e-09	1.787551e+01	1.737892e+02
2.640000e-06	2.420759e-06	2.582766e-09	1.807049e+01	1.751464e+02
2.650000e-06	2.446453e-06	2.603947e-09	1.826229e+01	1.764768e+02
2.660000e-06	2.471786e-06	2.622519e-09	1.845140e+01	1.777811e+02
2.670000e-06	2.496857e-06	2.642637e-09	1.863855e+01	1.790602e+02
2.680000e-06	2.521755e-06	2.662186e-09	1.882441e+01	1.803148e+02
2.690000e-06	2.546554e-06	2.680694e-09	1.900953e+01	1.815456e+02
2.700000e-06	2.571210e-06	2.700613e-09	1.919358e+01	1.827532e+02
2.710000e-06	2.595662e-06	2.721263e-09	1.937611e+01	1.839382e+02
2.720000e-06	2.619943e-06	2.740166e-09	1.955736e+01	1.851011e+02
2.730000e-06	2.644048e-06	2.756253e-09	1.973730e+01	1.862425e+02
2.740000e-06	2.668035e-06	2.771827e-09	1.991636e+01	1.873627e+02
2.750000e-06	2.691925e-06	2.790224e-09	2.009469e+01	1.884621e+02
2.760000e-06	2.715658e-06	2.810955e-09	2.027186e+01	1.895412e+02
2.770000e-06	2.739229e-06	2.828007e-09	2.044781e+01	1.906001e+02
2.780000e-06	2.762609e-06	2.843957e-09	2.062233e+01	1.916393e+02
2.790000e-06	2.785738e-06	2.862399e-09	2.079499e+01	1.926589e+02
2.800000e-06	2.808719e-06	2.882216e-09	2.096654e+01	1.936593e+02
2.810000e-06	2.831468e-06	2.899178e-09	2.113635e+01	1.946405e+02
2.820000e-06	2.853949e-06	2.912221e-09	2.130417e+01	1.956029e+02
2.830000e-06	2.876295e-06	2.926912e-09	2.147098e+01	1.965467e+02
2.840000e-06	2.898510e-06	2.944474e-09	2.163681e+01	1.974719e+02
2.850000e-06	2.920518e-06	2.957659e-09	2.180110e+01	1.983789e+02
2.860000e-06	2.942336e-06	2.969031e-09	2.196397e+01	1.992677e+02
2.870000e-06	2.963979e-06	2.982455e-09	2.212552e+01	2.001385e+02
2.880000e-06	2.985361e-06	2.995778e-09	2.228514e+01	2.009916e+02
2.890000e-06	3.006558e-06	3.011403e-09	2.244337e+01	2.018270e+02
2.900000e-06	3.027601e-06	3.028374e-09	2.260045e+01	2.026450e+02
