# Temperatura_=_20.0
# Concentracion g/m^3_=_9000.0
# C_Vs_to_Am_M_A/Vsm_=_65563218390.804596
# pendiente_HvsI_1/m_=_3716.3
# ordenada_HvsI_A/m_=_1297.0
# frecuencia_Hz_=_134999.9787398454

Tiempo_(s)	Campo_(V.s)	Magnetizacion_(V.s)	Campo_(kA/m)	Magnetizacion_(A/m)
0.000000e+00	-3.905698e-06	-3.546194e-09	-2.915193e+01	-2.316198e+02
1.000000e-08	-3.905915e-06	-3.543121e-09	-2.915355e+01	-2.316311e+02
2.000000e-08	-3.905897e-06	-3.541755e-09	-2.915341e+01	-2.316357e+02
3.000000e-08	-3.905689e-06	-3.541242e-09	-2.915186e+01	-2.316336e+02
4.000000e-08	-3.905281e-06	-3.542636e-09	-2.914882e+01	-2.316248e+02
5.000000e-08	-3.904728e-06	-3.545349e-09	-2.914469e+01	-2.316095e+02
6.000000e-08	-3.903805e-06	-3.546182e-09	-2.913780e+01	-2.315877e+02
7.000000e-08	-3.902328e-06	-3.527735e-09	-2.912678e+01	-2.315593e+02
8.000000e-08	-3.900324e-06	-3.500422e-09	-2.911182e+01	-2.315245e+02
9.000000e-08	-3.897838e-06	-3.464481e-09	-2.909326e+01	-2.314833e+02
1.000000e-07	-3.894948e-06	-3.529370e-09	-2.907169e+01	-2.314358e+02
1.100000e-07	-3.891639e-06	-3.614447e-09	-2.904700e+01	-2.313818e+02
1.200000e-07	-3.888076e-06	-3.577388e-09	-2.902040e+01	-2.313216e+02
1.300000e-07	-3.884400e-06	-3.590297e-09	-2.899296e+01	-2.312550e+02
1.400000e-07	-3.880513e-06	-3.528061e-09	-2.896395e+01	-2.311822e+02
1.500000e-07	-3.876459e-06	-3.437151e-09	-2.893369e+01	-2.311031e+02
1.600000e-07	-3.872270e-06	-3.496223e-09	-2.890242e+01	-2.310178e+02
1.700000e-07	-3.867901e-06	-3.583396e-09	-2.886982e+01	-2.309263e+02
1.800000e-07	-3.863308e-06	-3.571120e-09	-2.883553e+01	-2.308286e+02
1.900000e-07	-3.858390e-06	-3.480698e-09	-2.879882e+01	-2.307249e+02
2.000000e-07	-3.853188e-06	-3.466528e-09	-2.876000e+01	-2.306150e+02
2.100000e-07	-3.847723e-06	-3.514753e-09	-2.871920e+01	-2.304991e+02
2.200000e-07	-3.842003e-06	-3.557087e-09	-2.867651e+01	-2.303772e+02
2.300000e-07	-3.836065e-06	-3.529300e-09	-2.863219e+01	-2.302494e+02
2.400000e-07	-3.829821e-06	-3.487395e-09	-2.858559e+01	-2.301156e+02
2.500000e-07	-3.823258e-06	-3.443627e-09	-2.853660e+01	-2.299760e+02
2.600000e-07	-3.816300e-06	-3.493228e-09	-2.848467e+01	-2.298306e+02
2.700000e-07	-3.809085e-06	-3.597115e-09	-2.843082e+01	-2.296794e+02
2.800000e-07	-3.801740e-06	-3.532648e-09	-2.837599e+01	-2.295225e+02
2.900000e-07	-3.794118e-06	-3.391390e-09	-2.831910e+01	-2.293599e+02
3.000000e-07	-3.786230e-06	-3.446800e-09	-2.826022e+01	-2.291918e+02
3.100000e-07	-3.778133e-06	-3.605906e-09	-2.819979e+01	-2.290181e+02
3.200000e-07	-3.769930e-06	-3.543470e-09	-2.813856e+01	-2.288388e+02
3.300000e-07	-3.761629e-06	-3.403056e-09	-2.807661e+01	-2.286541e+02
3.400000e-07	-3.753036e-06	-3.425882e-09	-2.801247e+01	-2.284639e+02
3.500000e-07	-3.744045e-06	-3.538762e-09	-2.794536e+01	-2.282683e+02
3.600000e-07	-3.734711e-06	-3.526021e-09	-2.787569e+01	-2.280673e+02
3.700000e-07	-3.724988e-06	-3.436354e-09	-2.780312e+01	-2.278608e+02
3.800000e-07	-3.714816e-06	-3.412381e-09	-2.772720e+01	-2.276490e+02
3.900000e-07	-3.704268e-06	-3.468538e-09	-2.764846e+01	-2.274317e+02
4.000000e-07	-3.693294e-06	-3.496859e-09	-2.756655e+01	-2.272089e+02
4.100000e-07	-3.681795e-06	-3.465625e-09	-2.748073e+01	-2.269807e+02
4.200000e-07	-3.669951e-06	-3.420886e-09	-2.739232e+01	-2.267469e+02
4.300000e-07	-3.657930e-06	-3.417449e-09	-2.730260e+01	-2.265075e+02
4.400000e-07	-3.645701e-06	-3.453350e-09	-2.721132e+01	-2.262624e+02
4.500000e-07	-3.633242e-06	-3.478915e-09	-2.711833e+01	-2.260116e+02
4.600000e-07	-3.620493e-06	-3.439794e-09	-2.702317e+01	-2.257548e+02
4.700000e-07	-3.607442e-06	-3.381164e-09	-2.692576e+01	-2.254921e+02
4.800000e-07	-3.594082e-06	-3.407139e-09	-2.682604e+01	-2.252233e+02
4.900000e-07	-3.580508e-06	-3.469192e-09	-2.672472e+01	-2.249483e+02
5.000000e-07	-3.566768e-06	-3.433749e-09	-2.662217e+01	-2.246669e+02
5.100000e-07	-3.552729e-06	-3.345677e-09	-2.651739e+01	-2.243790e+02
5.200000e-07	-3.538354e-06	-3.369672e-09	-2.641009e+01	-2.240843e+02
5.300000e-07	-3.523635e-06	-3.440437e-09	-2.630023e+01	-2.237828e+02
5.400000e-07	-3.508645e-06	-3.412601e-09	-2.618835e+01	-2.234743e+02
5.500000e-07	-3.493374e-06	-3.338491e-09	-2.607436e+01	-2.231586e+02
5.600000e-07	-3.477646e-06	-3.357525e-09	-2.595697e+01	-2.228354e+02
5.700000e-07	-3.461402e-06	-3.399127e-09	-2.583572e+01	-2.225048e+02
5.800000e-07	-3.444814e-06	-3.377610e-09	-2.571191e+01	-2.221663e+02
5.900000e-07	-3.428066e-06	-3.340881e-09	-2.558691e+01	-2.218200e+02
6.000000e-07	-3.411185e-06	-3.346495e-09	-2.546091e+01	-2.214655e+02
6.100000e-07	-3.394084e-06	-3.348970e-09	-2.533327e+01	-2.211029e+02
6.200000e-07	-3.376789e-06	-3.346367e-09	-2.520418e+01	-2.207318e+02
6.300000e-07	-3.359337e-06	-3.343633e-09	-2.507392e+01	-2.203521e+02
6.400000e-07	-3.341662e-06	-3.322593e-09	-2.494199e+01	-2.199637e+02
6.500000e-07	-3.323716e-06	-3.299956e-09	-2.480805e+01	-2.195665e+02
6.600000e-07	-3.305569e-06	-3.318042e-09	-2.467260e+01	-2.191604e+02
6.700000e-07	-3.287251e-06	-3.329643e-09	-2.453587e+01	-2.187452e+02
6.800000e-07	-3.268636e-06	-3.294041e-09	-2.439693e+01	-2.183209e+02
6.900000e-07	-3.249689e-06	-3.268096e-09	-2.425551e+01	-2.178873e+02
7.000000e-07	-3.230481e-06	-3.288748e-09	-2.411215e+01	-2.174445e+02
7.100000e-07	-3.211016e-06	-3.298302e-09	-2.396686e+01	-2.169924e+02
7.200000e-07	-3.191366e-06	-3.267793e-09	-2.382019e+01	-2.165310e+02
7.300000e-07	-3.171591e-06	-3.249643e-09	-2.367259e+01	-2.160602e+02
7.400000e-07	-3.151695e-06	-3.260592e-09	-2.352409e+01	-2.155800e+02
7.500000e-07	-3.131723e-06	-3.260603e-09	-2.337502e+01	-2.150906e+02
7.600000e-07	-3.111619e-06	-3.238636e-09	-2.322496e+01	-2.145918e+02
7.700000e-07	-3.091312e-06	-3.225197e-09	-2.307340e+01	-2.140838e+02
7.800000e-07	-3.070855e-06	-3.221739e-09	-2.292071e+01	-2.135665e+02
7.900000e-07	-3.050238e-06	-3.218693e-09	-2.276682e+01	-2.130401e+02
8.000000e-07	-3.029414e-06	-3.208592e-09	-2.261139e+01	-2.125046e+02
8.100000e-07	-3.008394e-06	-3.195552e-09	-2.245450e+01	-2.119602e+02
8.200000e-07	-2.987060e-06	-3.179776e-09	-2.229526e+01	-2.114067e+02
8.300000e-07	-2.965433e-06	-3.174225e-09	-2.213384e+01	-2.108445e+02
8.400000e-07	-2.943661e-06	-3.170846e-09	-2.197133e+01	-2.102734e+02
8.500000e-07	-2.921693e-06	-3.157838e-09	-2.180736e+01	-2.096937e+02
8.600000e-07	-2.899514e-06	-3.139189e-09	-2.164182e+01	-2.091053e+02
8.700000e-07	-2.877184e-06	-3.135879e-09	-2.147515e+01	-2.085083e+02
8.800000e-07	-2.854654e-06	-3.137626e-09	-2.130699e+01	-2.079028e+02
8.900000e-07	-2.831925e-06	-3.125007e-09	-2.113734e+01	-2.072888e+02
9.000000e-07	-2.808999e-06	-3.105265e-09	-2.096622e+01	-2.066664e+02
9.100000e-07	-2.785852e-06	-3.098780e-09	-2.079345e+01	-2.060355e+02
9.200000e-07	-2.762504e-06	-3.096801e-09	-2.061919e+01	-2.053961e+02
9.300000e-07	-2.738945e-06	-3.083836e-09	-2.044335e+01	-2.047483e+02
9.400000e-07	-2.715154e-06	-3.063522e-09	-2.026577e+01	-2.040919e+02
9.500000e-07	-2.691264e-06	-3.052101e-09	-2.008745e+01	-2.034269e+02
9.600000e-07	-2.667331e-06	-3.047308e-09	-1.990882e+01	-2.027533e+02
9.700000e-07	-2.643279e-06	-3.036647e-09	-1.972930e+01	-2.020708e+02
9.800000e-07	-2.619095e-06	-3.022175e-09	-1.954879e+01	-2.013794e+02
9.900000e-07	-2.594755e-06	-3.007645e-09	-1.936712e+01	-2.006788e+02
1.000000e-06	-2.570248e-06	-2.995289e-09	-1.918420e+01	-1.999690e+02
1.010000e-06	-2.545636e-06	-2.985125e-09	-1.900050e+01	-1.992496e+02
1.020000e-06	-2.520800e-06	-2.972550e-09	-1.881512e+01	-1.985205e+02
1.030000e-06	-2.495603e-06	-2.954574e-09	-1.862706e+01	-1.977813e+02
1.040000e-06	-2.470113e-06	-2.940095e-09	-1.843680e+01	-1.970319e+02
1.050000e-06	-2.444338e-06	-2.931922e-09	-1.824441e+01	-1.962719e+02
1.060000e-06	-2.418226e-06	-2.922841e-09	-1.804951e+01	-1.955009e+02
1.070000e-06	-2.391773e-06	-2.906229e-09	-1.785207e+01	-1.947187e+02
1.080000e-06	-2.365035e-06	-2.889274e-09	-1.765250e+01	-1.939249e+02
1.090000e-06	-2.338028e-06	-2.877631e-09	-1.745092e+01	-1.931191e+02
1.100000e-06	-2.310808e-06	-2.867191e-09	-1.724775e+01	-1.923010e+02
1.110000e-06	-2.283395e-06	-2.851088e-09	-1.704314e+01	-1.914700e+02
1.120000e-06	-2.255879e-06	-2.832752e-09	-1.683777e+01	-1.906260e+02
1.130000e-06	-2.228252e-06	-2.817980e-09	-1.663156e+01	-1.897684e+02
1.140000e-06	-2.200398e-06	-2.805225e-09	-1.642365e+01	-1.888968e+02
1.150000e-06	-2.172453e-06	-2.789566e-09	-1.621507e+01	-1.880109e+02
1.160000e-06	-2.144468e-06	-2.775088e-09	-1.600620e+01	-1.871103e+02
1.170000e-06	-2.116414e-06	-2.761420e-09	-1.579680e+01	-1.861944e+02
1.180000e-06	-2.088280e-06	-2.748591e-09	-1.558681e+01	-1.852631e+02
1.190000e-06	-2.060044e-06	-2.736632e-09	-1.537606e+01	-1.843157e+02
1.200000e-06	-2.031723e-06	-2.723275e-09	-1.516468e+01	-1.833521e+02
1.210000e-06	-2.003270e-06	-2.706077e-09	-1.495230e+01	-1.823717e+02
1.220000e-06	-1.974673e-06	-2.688167e-09	-1.473886e+01	-1.813743e+02
1.230000e-06	-1.946017e-06	-2.670406e-09	-1.452497e+01	-1.803594e+02
1.240000e-06	-1.917253e-06	-2.653423e-09	-1.431028e+01	-1.793268e+02
1.250000e-06	-1.888312e-06	-2.636288e-09	-1.409427e+01	-1.782761e+02
1.260000e-06	-1.859108e-06	-2.619307e-09	-1.387629e+01	-1.772070e+02
1.270000e-06	-1.829780e-06	-2.604749e-09	-1.365738e+01	-1.761191e+02
1.280000e-06	-1.800374e-06	-2.588801e-09	-1.343790e+01	-1.750121e+02
1.290000e-06	-1.770770e-06	-2.571298e-09	-1.321694e+01	-1.738858e+02
1.300000e-06	-1.741064e-06	-2.553507e-09	-1.299521e+01	-1.727398e+02
1.310000e-06	-1.711233e-06	-2.534456e-09	-1.277256e+01	-1.715738e+02
1.320000e-06	-1.681285e-06	-2.513626e-09	-1.254903e+01	-1.703876e+02
1.330000e-06	-1.651264e-06	-2.492825e-09	-1.232495e+01	-1.691807e+02
1.340000e-06	-1.621191e-06	-2.472715e-09	-1.210049e+01	-1.679529e+02
1.350000e-06	-1.591009e-06	-2.453078e-09	-1.187521e+01	-1.667038e+02
1.360000e-06	-1.560717e-06	-2.431357e-09	-1.164911e+01	-1.654331e+02
1.370000e-06	-1.530419e-06	-2.411091e-09	-1.142297e+01	-1.641405e+02
1.380000e-06	-1.500059e-06	-2.393643e-09	-1.119637e+01	-1.628254e+02
1.390000e-06	-1.469477e-06	-2.375470e-09	-1.096810e+01	-1.614875e+02
1.400000e-06	-1.438742e-06	-2.353974e-09	-1.073869e+01	-1.601264e+02
1.410000e-06	-1.407984e-06	-2.331754e-09	-1.050912e+01	-1.587415e+02
1.420000e-06	-1.377178e-06	-2.309608e-09	-1.027919e+01	-1.573323e+02
1.430000e-06	-1.346232e-06	-2.286927e-09	-1.004820e+01	-1.558982e+02
1.440000e-06	-1.315104e-06	-2.263809e-09	-9.815866e+00	-1.544387e+02
1.450000e-06	-1.283849e-06	-2.239482e-09	-9.582580e+00	-1.529530e+02
1.460000e-06	-1.252548e-06	-2.213629e-09	-9.348954e+00	-1.514404e+02
1.470000e-06	-1.221137e-06	-2.189286e-09	-9.114501e+00	-1.499001e+02
1.480000e-06	-1.189563e-06	-2.167326e-09	-8.878839e+00	-1.483314e+02
1.490000e-06	-1.157999e-06	-2.145680e-09	-8.643245e+00	-1.467333e+02
1.500000e-06	-1.126428e-06	-2.123034e-09	-8.407602e+00	-1.451050e+02
1.510000e-06	-1.094759e-06	-2.100711e-09	-8.171225e+00	-1.434453e+02
1.520000e-06	-1.063010e-06	-2.077761e-09	-7.934253e+00	-1.417532e+02
1.530000e-06	-1.031206e-06	-2.051314e-09	-7.696867e+00	-1.400277e+02
1.540000e-06	-9.993419e-07	-2.022608e-09	-7.459036e+00	-1.382676e+02
1.550000e-06	-9.674332e-07	-1.992633e-09	-7.220872e+00	-1.364716e+02
1.560000e-06	-9.355103e-07	-1.963506e-09	-6.982601e+00	-1.346385e+02
1.570000e-06	-9.035743e-07	-1.934583e-09	-6.744232e+00	-1.327671e+02
1.580000e-06	-8.715956e-07	-1.906664e-09	-6.505545e+00	-1.308559e+02
1.590000e-06	-8.395967e-07	-1.879468e-09	-6.266706e+00	-1.289036e+02
1.600000e-06	-8.075651e-07	-1.851214e-09	-6.027624e+00	-1.269090e+02
1.610000e-06	-7.754975e-07	-1.819484e-09	-5.788274e+00	-1.248704e+02
1.620000e-06	-7.434217e-07	-1.785769e-09	-5.548861e+00	-1.227866e+02
1.630000e-06	-7.113328e-07	-1.752476e-09	-5.309351e+00	-1.206562e+02
1.640000e-06	-6.792061e-07	-1.717468e-09	-5.069559e+00	-1.184777e+02
1.650000e-06	-6.470210e-07	-1.683411e-09	-4.829331e+00	-1.162498e+02
1.660000e-06	-6.148579e-07	-1.650773e-09	-4.589268e+00	-1.139712e+02
1.670000e-06	-5.826599e-07	-1.615353e-09	-4.348944e+00	-1.116405e+02
1.680000e-06	-5.504220e-07	-1.577984e-09	-4.108321e+00	-1.092566e+02
1.690000e-06	-5.181552e-07	-1.541437e-09	-3.867484e+00	-1.068182e+02
1.700000e-06	-4.858306e-07	-1.505856e-09	-3.626214e+00	-1.043242e+02
1.710000e-06	-4.534637e-07	-1.467828e-09	-3.384629e+00	-1.017737e+02
1.720000e-06	-4.210568e-07	-1.427841e-09	-3.142746e+00	-9.916572e+01
1.730000e-06	-3.886228e-07	-1.390059e-09	-2.900660e+00	-9.649945e+01
1.740000e-06	-3.562000e-07	-1.351748e-09	-2.658659e+00	-9.377421e+01
1.750000e-06	-3.238028e-07	-1.310019e-09	-2.416848e+00	-9.098945e+01
1.760000e-06	-2.913172e-07	-1.267674e-09	-2.174377e+00	-8.814476e+01
1.770000e-06	-2.587843e-07	-1.226315e-09	-1.931552e+00	-8.523988e+01
1.780000e-06	-2.262158e-07	-1.183792e-09	-1.688463e+00	-8.227470e+01
1.790000e-06	-1.935327e-07	-1.141816e-09	-1.444518e+00	-7.924929e+01
1.800000e-06	-1.608077e-07	-1.099215e-09	-1.200260e+00	-7.616389e+01
1.810000e-06	-1.281618e-07	-1.052972e-09	-9.565934e-01	-7.301893e+01
1.820000e-06	-9.562379e-08	-1.005510e-09	-7.137310e-01	-6.981501e+01
1.830000e-06	-6.310229e-08	-9.584841e-10	-4.709922e-01	-6.655293e+01
1.840000e-06	-3.053446e-08	-9.094991e-10	-2.279076e-01	-6.323370e+01
1.850000e-06	2.000844e-09	-8.589278e-10	1.493419e-02	-5.985851e+01
1.860000e-06	3.455760e-08	-8.094381e-10	2.579361e-01	-5.642874e+01
1.870000e-06	6.721146e-08	-7.598419e-10	5.016629e-01	-5.294599e+01
1.880000e-06	9.983609e-08	-7.096453e-10	7.451714e-01	-4.941205e+01
1.890000e-06	1.323470e-07	-6.595551e-10	9.878310e-01	-4.582890e+01
1.900000e-06	1.648490e-07	-6.086126e-10	1.230424e+00	-4.219871e+01
1.910000e-06	1.973760e-07	-5.551002e-10	1.473204e+00	-3.852383e+01
1.920000e-06	2.298755e-07	-5.002689e-10	1.715779e+00	-3.480681e+01
1.930000e-06	2.623813e-07	-4.438702e-10	1.958401e+00	-3.105034e+01
1.940000e-06	2.948299e-07	-3.866416e-10	2.200595e+00	-2.725731e+01
1.950000e-06	3.272428e-07	-3.308114e-10	2.442524e+00	-2.343072e+01
1.960000e-06	3.596661e-07	-2.758217e-10	2.684529e+00	-1.957374e+01
1.970000e-06	3.920127e-07	-2.216821e-10	2.925963e+00	-1.568967e+01
1.980000e-06	4.243314e-07	-1.670347e-10	3.167188e+00	-1.178191e+01
1.990000e-06	4.566283e-07	-1.103661e-10	3.408250e+00	-7.853975e+00
2.000000e-06	4.889066e-07	-5.518704e-11	3.649174e+00	-3.909464e+00
2.010000e-06	5.211772e-07	-1.076653e-12	3.890040e+00	4.794927e-02
2.020000e-06	5.534085e-07	5.656463e-11	4.130612e+00	4.014533e+00
2.030000e-06	5.856390e-07	1.153591e-10	4.371180e+00	7.986514e+00
2.040000e-06	6.178283e-07	1.740567e-10	4.611439e+00	1.196009e+01
2.050000e-06	6.499713e-07	2.331192e-10	4.851352e+00	1.593146e+01
2.060000e-06	6.821029e-07	2.918846e-10	5.091181e+00	1.989682e+01
2.070000e-06	7.142030e-07	3.470584e-10	5.330774e+00	2.385239e+01
2.080000e-06	7.462867e-07	4.004084e-10	5.570245e+00	2.779444e+01
2.090000e-06	7.783424e-07	4.555309e-10	5.809508e+00	3.171929e+01
2.100000e-06	8.103348e-07	5.112681e-10	6.048297e+00	3.562333e+01
2.110000e-06	8.422815e-07	5.695467e-10	6.286746e+00	3.950305e+01
2.120000e-06	8.742415e-07	6.288733e-10	6.525294e+00	4.335502e+01
2.130000e-06	9.062355e-07	6.867828e-10	6.764095e+00	4.717594e+01
2.140000e-06	9.381831e-07	7.428295e-10	7.002550e+00	5.096264e+01
2.150000e-06	9.700872e-07	7.984132e-10	7.240681e+00	5.471209e+01
2.160000e-06	1.001993e-06	8.513354e-10	7.478825e+00	5.842142e+01
2.170000e-06	1.033867e-06	9.020990e-10	7.716730e+00	6.208789e+01
2.180000e-06	1.065638e-06	9.517227e-10	7.953868e+00	6.570898e+01
2.190000e-06	1.097350e-06	1.001203e-09	8.190563e+00	6.928230e+01
2.200000e-06	1.129050e-06	1.052126e-09	8.427170e+00	7.280569e+01
2.210000e-06	1.160711e-06	1.103546e-09	8.663484e+00	7.627715e+01
2.220000e-06	1.192271e-06	1.153286e-09	8.899046e+00	7.969488e+01
2.230000e-06	1.223701e-06	1.202850e-09	9.133640e+00	8.305730e+01
2.240000e-06	1.255042e-06	1.252347e-09	9.367570e+00	8.636300e+01
2.250000e-06	1.286256e-06	1.299839e-09	9.600549e+00	8.961078e+01
2.260000e-06	1.317363e-06	1.345363e-09	9.832729e+00	9.279966e+01
2.270000e-06	1.348393e-06	1.389815e-09	1.006433e+01	9.592881e+01
2.280000e-06	1.379266e-06	1.433821e-09	1.029477e+01	9.899765e+01
2.290000e-06	1.409983e-06	1.477568e-09	1.052404e+01	1.020057e+02
2.300000e-06	1.440645e-06	1.519819e-09	1.075290e+01	1.049528e+02
2.310000e-06	1.471210e-06	1.560043e-09	1.098103e+01	1.078389e+02
2.320000e-06	1.501601e-06	1.600898e-09	1.120788e+01	1.106640e+02
2.330000e-06	1.531876e-06	1.643111e-09	1.143385e+01	1.134284e+02
2.340000e-06	1.562086e-06	1.684325e-09	1.165933e+01	1.161326e+02
2.350000e-06	1.592271e-06	1.721631e-09	1.188463e+01	1.187771e+02
2.360000e-06	1.622408e-06	1.759139e-09	1.210957e+01	1.213626e+02
2.370000e-06	1.652411e-06	1.798546e-09	1.233351e+01	1.238899e+02
2.380000e-06	1.682321e-06	1.837675e-09	1.255676e+01	1.263599e+02
2.390000e-06	1.712183e-06	1.872934e-09	1.277965e+01	1.287736e+02
2.400000e-06	1.741921e-06	1.907154e-09	1.300161e+01	1.311322e+02
2.410000e-06	1.771552e-06	1.941689e-09	1.322277e+01	1.334368e+02
2.420000e-06	1.801096e-06	1.975154e-09	1.344329e+01	1.356886e+02
2.430000e-06	1.830513e-06	2.007982e-09	1.366286e+01	1.378890e+02
2.440000e-06	1.859796e-06	2.041197e-09	1.388142e+01	1.400392e+02
2.450000e-06	1.888930e-06	2.074881e-09	1.409887e+01	1.421406e+02
2.460000e-06	1.917859e-06	2.107612e-09	1.431480e+01	1.441946e+02
2.470000e-06	1.946630e-06	2.138260e-09	1.452955e+01	1.462025e+02
2.480000e-06	1.975196e-06	2.167237e-09	1.474276e+01	1.481657e+02
2.490000e-06	2.003577e-06	2.193785e-09	1.495460e+01	1.500857e+02
2.500000e-06	2.031880e-06	2.219181e-09	1.516584e+01	1.519636e+02
2.510000e-06	2.060068e-06	2.244974e-09	1.537624e+01	1.538009e+02
2.520000e-06	2.088172e-06	2.271846e-09	1.558601e+01	1.555987e+02
2.530000e-06	2.116238e-06	2.299240e-09	1.579549e+01	1.573585e+02
2.540000e-06	2.144243e-06	2.325990e-09	1.600452e+01	1.590812e+02
2.550000e-06	2.172173e-06	2.352884e-09	1.621299e+01	1.607681e+02
2.560000e-06	2.200037e-06	2.379397e-09	1.642096e+01	1.624203e+02
2.570000e-06	2.227841e-06	2.404990e-09	1.662849e+01	1.640387e+02
2.580000e-06	2.255571e-06	2.428460e-09	1.683547e+01	1.656244e+02
2.590000e-06	2.283154e-06	2.451971e-09	1.704134e+01	1.671783e+02
2.600000e-06	2.310533e-06	2.477307e-09	1.724570e+01	1.687011e+02
2.610000e-06	2.337678e-06	2.502340e-09	1.744831e+01	1.701937e+02
2.620000e-06	2.364508e-06	2.523976e-09	1.764856e+01	1.716568e+02
2.630000e-06	2.391062e-06	2.544064e-09	1.784676e+01	1.730911e+02
2.640000e-06	2.417330e-06	2.566224e-09	1.804283e+01	1.744972e+02
2.650000e-06	2.443245e-06	2.590671e-09	1.823625e+01	1.758756e+02
2.660000e-06	2.468863e-06	2.614007e-09	1.842747e+01	1.772268e+02
2.670000e-06	2.494195e-06	2.636478e-09	1.861654e+01	1.785514e+02
2.680000e-06	2.519285e-06	2.656395e-09	1.880381e+01	1.798496e+02
2.690000e-06	2.544123e-06	2.675191e-09	1.898920e+01	1.811220e+02
2.700000e-06	2.568745e-06	2.694481e-09	1.917298e+01	1.823689e+02
2.710000e-06	2.593155e-06	2.711222e-09	1.935517e+01	1.835905e+02
2.720000e-06	2.617389e-06	2.726864e-09	1.953606e+01	1.847873e+02
2.730000e-06	2.641507e-06	2.745097e-09	1.971607e+01	1.859594e+02
2.740000e-06	2.665521e-06	2.763181e-09	1.989531e+01	1.871071e+02
2.750000e-06	2.689459e-06	2.780330e-09	2.007398e+01	1.882307e+02
2.760000e-06	2.713215e-06	2.799874e-09	2.025130e+01	1.893305e+02
2.770000e-06	2.736766e-06	2.819037e-09	2.042708e+01	1.904067e+02
2.780000e-06	2.760179e-06	2.835241e-09	2.060183e+01	1.914595e+02
2.790000e-06	2.783354e-06	2.852166e-09	2.077481e+01	1.924893e+02
2.800000e-06	2.806273e-06	2.868610e-09	2.094588e+01	1.934963e+02
2.810000e-06	2.829042e-06	2.883550e-09	2.111582e+01	1.944808e+02
2.820000e-06	2.851667e-06	2.898081e-09	2.128470e+01	1.954431e+02
2.830000e-06	2.874023e-06	2.914116e-09	2.145156e+01	1.963836e+02
2.840000e-06	2.896117e-06	2.931597e-09	2.161646e+01	1.973025e+02
2.850000e-06	2.918108e-06	2.946673e-09	2.178061e+01	1.982003e+02
2.860000e-06	2.939961e-06	2.961999e-09	2.194372e+01	1.990774e+02
2.870000e-06	2.961636e-06	2.977398e-09	2.210550e+01	1.999342e+02
2.880000e-06	2.983179e-06	2.991093e-09	2.226630e+01	2.007710e+02
2.890000e-06	3.004448e-06	3.002684e-09	2.242504e+01	2.015885e+02
2.900000e-06	3.025410e-06	3.016277e-09	2.258150e+01	2.023870e+02
