# Temperatura_=_20.0
# Concentracion g/m^3_=_9000.0
# C_Vs_to_Am_M_A/Vsm_=_65563218390.804596
# pendiente_HvsI_1/m_=_3716.3
# ordenada_HvsI_A/m_=_1297.0
# frecuencia_Hz_=_134997.9627178596

Tiempo_(s)	Campo_(V.s)	Magnetizacion_(V.s)	Campo_(kA/m)	Magnetizacion_(A/m)
0.000000e+00	-3.912537e-06	-3.530447e-09	-2.915739e+01	-2.309273e+02
1.000000e-08	-3.912674e-06	-3.526946e-09	-2.915841e+01	-2.309573e+02
2.000000e-08	-3.912717e-06	-3.522686e-09	-2.915873e+01	-2.309800e+02
3.000000e-08	-3.912577e-06	-3.523882e-09	-2.915769e+01	-2.309953e+02
4.000000e-08	-3.912105e-06	-3.530580e-09	-2.915417e+01	-2.310031e+02
5.000000e-08	-3.911242e-06	-3.518460e-09	-2.914774e+01	-2.310035e+02
6.000000e-08	-3.910114e-06	-3.495313e-09	-2.913934e+01	-2.309964e+02
7.000000e-08	-3.908615e-06	-3.476003e-09	-2.912816e+01	-2.309818e+02
8.000000e-08	-3.906452e-06	-3.505440e-09	-2.911204e+01	-2.309597e+02
9.000000e-08	-3.903661e-06	-3.504575e-09	-2.909125e+01	-2.309302e+02
1.000000e-07	-3.900491e-06	-3.585946e-09	-2.906762e+01	-2.308931e+02
1.100000e-07	-3.897077e-06	-3.587641e-09	-2.904218e+01	-2.308486e+02
1.200000e-07	-3.893453e-06	-3.542477e-09	-2.901517e+01	-2.307966e+02
1.300000e-07	-3.889644e-06	-3.483548e-09	-2.898679e+01	-2.307372e+02
1.400000e-07	-3.885717e-06	-3.426641e-09	-2.895752e+01	-2.306704e+02
1.500000e-07	-3.881663e-06	-3.483608e-09	-2.892731e+01	-2.305964e+02
1.600000e-07	-3.877431e-06	-3.547132e-09	-2.889578e+01	-2.305151e+02
1.700000e-07	-3.873011e-06	-3.577887e-09	-2.886284e+01	-2.304266e+02
1.800000e-07	-3.868289e-06	-3.469917e-09	-2.882764e+01	-2.303311e+02
1.900000e-07	-3.863198e-06	-3.462003e-09	-2.878970e+01	-2.302286e+02
2.000000e-07	-3.857813e-06	-3.502098e-09	-2.874957e+01	-2.301193e+02
2.100000e-07	-3.852202e-06	-3.592030e-09	-2.870776e+01	-2.300033e+02
2.200000e-07	-3.846409e-06	-3.536549e-09	-2.866459e+01	-2.298806e+02
2.300000e-07	-3.840334e-06	-3.461739e-09	-2.861931e+01	-2.297516e+02
2.400000e-07	-3.833840e-06	-3.460428e-09	-2.857092e+01	-2.296162e+02
2.500000e-07	-3.827111e-06	-3.541967e-09	-2.852078e+01	-2.294747e+02
2.600000e-07	-3.820246e-06	-3.578025e-09	-2.846961e+01	-2.293272e+02
2.700000e-07	-3.812922e-06	-3.503397e-09	-2.841503e+01	-2.291738e+02
2.800000e-07	-3.805304e-06	-3.420024e-09	-2.835826e+01	-2.290148e+02
2.900000e-07	-3.797610e-06	-3.460311e-09	-2.830093e+01	-2.288503e+02
3.000000e-07	-3.789702e-06	-3.575749e-09	-2.824199e+01	-2.286805e+02
3.100000e-07	-3.781650e-06	-3.544158e-09	-2.818198e+01	-2.285054e+02
3.200000e-07	-3.773475e-06	-3.428412e-09	-2.812106e+01	-2.283253e+02
3.300000e-07	-3.765127e-06	-3.419588e-09	-2.805885e+01	-2.281404e+02
3.400000e-07	-3.756419e-06	-3.532865e-09	-2.799395e+01	-2.279506e+02
3.500000e-07	-3.747281e-06	-3.534843e-09	-2.792586e+01	-2.277563e+02
3.600000e-07	-3.737693e-06	-3.452249e-09	-2.785441e+01	-2.275574e+02
3.700000e-07	-3.727687e-06	-3.398082e-09	-2.777984e+01	-2.273540e+02
3.800000e-07	-3.717322e-06	-3.470637e-09	-2.770259e+01	-2.271463e+02
3.900000e-07	-3.706394e-06	-3.513242e-09	-2.762115e+01	-2.269344e+02
4.000000e-07	-3.695012e-06	-3.490928e-09	-2.753633e+01	-2.267181e+02
4.100000e-07	-3.683400e-06	-3.418917e-09	-2.744979e+01	-2.264977e+02
4.200000e-07	-3.671582e-06	-3.430979e-09	-2.736172e+01	-2.262730e+02
4.300000e-07	-3.659587e-06	-3.473238e-09	-2.727234e+01	-2.260441e+02
4.400000e-07	-3.647354e-06	-3.490505e-09	-2.718117e+01	-2.258110e+02
4.500000e-07	-3.634780e-06	-3.432256e-09	-2.708746e+01	-2.255735e+02
4.600000e-07	-3.621982e-06	-3.397722e-09	-2.699209e+01	-2.253316e+02
4.700000e-07	-3.608905e-06	-3.423349e-09	-2.689463e+01	-2.250852e+02
4.800000e-07	-3.595407e-06	-3.459982e-09	-2.679404e+01	-2.248342e+02
4.900000e-07	-3.581689e-06	-3.427519e-09	-2.669181e+01	-2.245784e+02
5.000000e-07	-3.567807e-06	-3.371951e-09	-2.658836e+01	-2.243177e+02
5.100000e-07	-3.553543e-06	-3.385836e-09	-2.648206e+01	-2.240519e+02
5.200000e-07	-3.538961e-06	-3.432303e-09	-2.637339e+01	-2.237808e+02
5.300000e-07	-3.524237e-06	-3.425158e-09	-2.626367e+01	-2.235041e+02
5.400000e-07	-3.509027e-06	-3.371104e-09	-2.615031e+01	-2.232216e+02
5.500000e-07	-3.493271e-06	-3.367214e-09	-2.603290e+01	-2.229332e+02
5.600000e-07	-3.477273e-06	-3.395413e-09	-2.591367e+01	-2.226385e+02
5.700000e-07	-3.460880e-06	-3.397659e-09	-2.579151e+01	-2.223373e+02
5.800000e-07	-3.444232e-06	-3.358793e-09	-2.566745e+01	-2.220293e+02
5.900000e-07	-3.427483e-06	-3.349548e-09	-2.554263e+01	-2.217142e+02
6.000000e-07	-3.410415e-06	-3.361789e-09	-2.541543e+01	-2.213917e+02
6.100000e-07	-3.393183e-06	-3.369632e-09	-2.528702e+01	-2.210617e+02
6.200000e-07	-3.375836e-06	-3.346867e-09	-2.515774e+01	-2.207237e+02
6.300000e-07	-3.358186e-06	-3.333787e-09	-2.502621e+01	-2.203776e+02
6.400000e-07	-3.340281e-06	-3.326786e-09	-2.489277e+01	-2.200230e+02
6.500000e-07	-3.322211e-06	-3.334364e-09	-2.475811e+01	-2.196597e+02
6.600000e-07	-3.303911e-06	-3.327180e-09	-2.462173e+01	-2.192874e+02
6.700000e-07	-3.285277e-06	-3.308150e-09	-2.448286e+01	-2.189059e+02
6.800000e-07	-3.266322e-06	-3.287874e-09	-2.434161e+01	-2.185150e+02
6.900000e-07	-3.247159e-06	-3.297559e-09	-2.419880e+01	-2.181144e+02
7.000000e-07	-3.227789e-06	-3.301280e-09	-2.405444e+01	-2.177040e+02
7.100000e-07	-3.208168e-06	-3.282774e-09	-2.390822e+01	-2.172836e+02
7.200000e-07	-3.188430e-06	-3.264056e-09	-2.376113e+01	-2.168530e+02
7.300000e-07	-3.168586e-06	-3.267679e-09	-2.361325e+01	-2.164121e+02
7.400000e-07	-3.148662e-06	-3.268865e-09	-2.346477e+01	-2.159607e+02
7.500000e-07	-3.128697e-06	-3.249935e-09	-2.331598e+01	-2.154987e+02
7.600000e-07	-3.108570e-06	-3.228952e-09	-2.316599e+01	-2.150261e+02
7.700000e-07	-3.088249e-06	-3.224665e-09	-2.301455e+01	-2.145428e+02
7.800000e-07	-3.067790e-06	-3.228645e-09	-2.286209e+01	-2.140487e+02
7.900000e-07	-3.047039e-06	-3.220627e-09	-2.270744e+01	-2.135437e+02
8.000000e-07	-3.025887e-06	-3.204594e-09	-2.254981e+01	-2.130280e+02
8.100000e-07	-3.004542e-06	-3.191742e-09	-2.239075e+01	-2.125015e+02
8.200000e-07	-2.982999e-06	-3.189083e-09	-2.223020e+01	-2.119641e+02
8.300000e-07	-2.961283e-06	-3.184358e-09	-2.206836e+01	-2.114159e+02
8.400000e-07	-2.939439e-06	-3.170137e-09	-2.190557e+01	-2.108571e+02
8.500000e-07	-2.917449e-06	-3.149661e-09	-2.174170e+01	-2.102875e+02
8.600000e-07	-2.895342e-06	-3.146202e-09	-2.157696e+01	-2.097072e+02
8.700000e-07	-2.873071e-06	-3.149282e-09	-2.141098e+01	-2.091164e+02
8.800000e-07	-2.850547e-06	-3.143519e-09	-2.124313e+01	-2.085150e+02
8.900000e-07	-2.827674e-06	-3.120872e-09	-2.107267e+01	-2.079032e+02
9.000000e-07	-2.804611e-06	-3.109507e-09	-2.090080e+01	-2.072810e+02
9.100000e-07	-2.781310e-06	-3.109078e-09	-2.072716e+01	-2.066484e+02
9.200000e-07	-2.757761e-06	-3.103307e-09	-2.055166e+01	-2.060056e+02
9.300000e-07	-2.734061e-06	-3.080990e-09	-2.037504e+01	-2.053525e+02
9.400000e-07	-2.710229e-06	-3.062801e-09	-2.019744e+01	-2.046893e+02
9.500000e-07	-2.686361e-06	-3.056851e-09	-2.001956e+01	-2.040158e+02
9.600000e-07	-2.662430e-06	-3.053133e-09	-1.984123e+01	-2.033323e+02
9.700000e-07	-2.638362e-06	-3.037392e-09	-1.966186e+01	-2.026386e+02
9.800000e-07	-2.614148e-06	-3.018377e-09	-1.948141e+01	-2.019347e+02
9.900000e-07	-2.589820e-06	-3.006334e-09	-1.930011e+01	-2.012206e+02
1.000000e-06	-2.565352e-06	-3.001073e-09	-1.911777e+01	-2.004964e+02
1.010000e-06	-2.540645e-06	-2.990259e-09	-1.893365e+01	-1.997618e+02
1.020000e-06	-2.515683e-06	-2.969960e-09	-1.874762e+01	-1.990169e+02
1.030000e-06	-2.490454e-06	-2.953189e-09	-1.855961e+01	-1.982615e+02
1.040000e-06	-2.464830e-06	-2.949268e-09	-1.836865e+01	-1.974956e+02
1.050000e-06	-2.438778e-06	-2.944358e-09	-1.817450e+01	-1.967189e+02
1.060000e-06	-2.412377e-06	-2.925124e-09	-1.797776e+01	-1.959313e+02
1.070000e-06	-2.385793e-06	-2.904288e-09	-1.777964e+01	-1.951327e+02
1.080000e-06	-2.358923e-06	-2.893643e-09	-1.757940e+01	-1.943228e+02
1.090000e-06	-2.331678e-06	-2.886268e-09	-1.737636e+01	-1.935015e+02
1.100000e-06	-2.304205e-06	-2.869909e-09	-1.717162e+01	-1.926685e+02
1.110000e-06	-2.276597e-06	-2.849780e-09	-1.696588e+01	-1.918236e+02
1.120000e-06	-2.248946e-06	-2.834801e-09	-1.675982e+01	-1.909665e+02
1.130000e-06	-2.221235e-06	-2.827985e-09	-1.655331e+01	-1.900970e+02
1.140000e-06	-2.193396e-06	-2.815266e-09	-1.634584e+01	-1.892146e+02
1.150000e-06	-2.165466e-06	-2.795243e-09	-1.613770e+01	-1.883193e+02
1.160000e-06	-2.137481e-06	-2.777434e-09	-1.592915e+01	-1.874106e+02
1.170000e-06	-2.109424e-06	-2.767459e-09	-1.572006e+01	-1.864882e+02
1.180000e-06	-2.081292e-06	-2.756726e-09	-1.551041e+01	-1.855518e+02
1.190000e-06	-2.053109e-06	-2.740617e-09	-1.530038e+01	-1.846011e+02
1.200000e-06	-2.024821e-06	-2.719476e-09	-1.508957e+01	-1.836357e+02
1.210000e-06	-1.996326e-06	-2.705052e-09	-1.487722e+01	-1.826553e+02
1.220000e-06	-1.967614e-06	-2.692595e-09	-1.466324e+01	-1.816595e+02
1.230000e-06	-1.938745e-06	-2.674880e-09	-1.444810e+01	-1.806479e+02
1.240000e-06	-1.909699e-06	-2.654776e-09	-1.423164e+01	-1.796203e+02
1.250000e-06	-1.880462e-06	-2.637850e-09	-1.401376e+01	-1.785761e+02
1.260000e-06	-1.851065e-06	-2.622394e-09	-1.379469e+01	-1.775151e+02
1.270000e-06	-1.821595e-06	-2.605134e-09	-1.357507e+01	-1.764367e+02
1.280000e-06	-1.792038e-06	-2.585375e-09	-1.335480e+01	-1.753407e+02
1.290000e-06	-1.762361e-06	-2.569329e-09	-1.313364e+01	-1.742267e+02
1.300000e-06	-1.732616e-06	-2.554557e-09	-1.291197e+01	-1.730941e+02
1.310000e-06	-1.702708e-06	-2.532788e-09	-1.268909e+01	-1.719426e+02
1.320000e-06	-1.672661e-06	-2.509574e-09	-1.246517e+01	-1.707718e+02
1.330000e-06	-1.642609e-06	-2.490354e-09	-1.224122e+01	-1.695811e+02
1.340000e-06	-1.612496e-06	-2.476671e-09	-1.201680e+01	-1.683701e+02
1.350000e-06	-1.582354e-06	-2.456780e-09	-1.179218e+01	-1.671383e+02
1.360000e-06	-1.552111e-06	-2.432602e-09	-1.156680e+01	-1.658852e+02
1.370000e-06	-1.521662e-06	-2.414275e-09	-1.133988e+01	-1.646102e+02
1.380000e-06	-1.491118e-06	-2.398197e-09	-1.111225e+01	-1.633128e+02
1.390000e-06	-1.460494e-06	-2.374790e-09	-1.088403e+01	-1.619923e+02
1.400000e-06	-1.429893e-06	-2.347887e-09	-1.065599e+01	-1.606482e+02
1.410000e-06	-1.399126e-06	-2.324184e-09	-1.042670e+01	-1.592797e+02
1.420000e-06	-1.368056e-06	-2.304396e-09	-1.019516e+01	-1.578862e+02
1.430000e-06	-1.336878e-06	-2.283424e-09	-9.962814e+00	-1.564669e+02
1.440000e-06	-1.305670e-06	-2.262706e-09	-9.730240e+00	-1.550210e+02
1.450000e-06	-1.274380e-06	-2.241360e-09	-9.497059e+00	-1.535478e+02
1.460000e-06	-1.242948e-06	-2.221030e-09	-9.262823e+00	-1.520464e+02
1.470000e-06	-1.211446e-06	-2.195061e-09	-9.028055e+00	-1.505158e+02
1.480000e-06	-1.179854e-06	-2.165303e-09	-8.792625e+00	-1.489551e+02
1.490000e-06	-1.148202e-06	-2.138413e-09	-8.556746e+00	-1.473634e+02
1.500000e-06	-1.116568e-06	-2.116517e-09	-8.320997e+00	-1.457395e+02
1.510000e-06	-1.084894e-06	-2.095215e-09	-8.084954e+00	-1.440825e+02
1.520000e-06	-1.053095e-06	-2.070001e-09	-7.847981e+00	-1.423912e+02
1.530000e-06	-1.021232e-06	-2.045358e-09	-7.610524e+00	-1.406645e+02
1.540000e-06	-9.893576e-07	-2.022803e-09	-7.372988e+00	-1.389011e+02
1.550000e-06	-9.574794e-07	-1.999535e-09	-7.135423e+00	-1.370999e+02
1.560000e-06	-9.255787e-07	-1.970178e-09	-6.897689e+00	-1.352595e+02
1.570000e-06	-8.935976e-07	-1.938677e-09	-6.659356e+00	-1.333788e+02
1.580000e-06	-8.615575e-07	-1.911304e-09	-6.420584e+00	-1.314565e+02
1.590000e-06	-8.295377e-07	-1.885875e-09	-6.181962e+00	-1.294912e+02
1.600000e-06	-7.975506e-07	-1.857455e-09	-5.943585e+00	-1.274816e+02
1.610000e-06	-7.655634e-07	-1.826964e-09	-5.705207e+00	-1.254264e+02
1.620000e-06	-7.335528e-07	-1.795498e-09	-5.466655e+00	-1.233244e+02
1.630000e-06	-7.014574e-07	-1.764985e-09	-5.227470e+00	-1.211742e+02
1.640000e-06	-6.693018e-07	-1.731824e-09	-4.987837e+00	-1.189745e+02
1.650000e-06	-6.370928e-07	-1.696840e-09	-4.747806e+00	-1.167242e+02
1.660000e-06	-6.048948e-07	-1.663777e-09	-4.507857e+00	-1.144220e+02
1.670000e-06	-5.726427e-07	-1.631416e-09	-4.267504e+00	-1.120668e+02
1.680000e-06	-5.403168e-07	-1.598004e-09	-4.026602e+00	-1.096576e+02
1.690000e-06	-5.080220e-07	-1.560677e-09	-3.785931e+00	-1.071932e+02
1.700000e-06	-4.756734e-07	-1.520994e-09	-3.544860e+00	-1.046728e+02
1.710000e-06	-4.432139e-07	-1.482035e-09	-3.302962e+00	-1.020955e+02
1.720000e-06	-4.106914e-07	-1.441941e-09	-3.060595e+00	-9.946062e+01
1.730000e-06	-3.781440e-07	-1.404196e-09	-2.818042e+00	-9.676745e+01
1.740000e-06	-3.456522e-07	-1.359511e-09	-2.575903e+00	-9.401549e+01
1.750000e-06	-3.132270e-07	-1.319003e-09	-2.334261e+00	-9.120435e+01
1.760000e-06	-2.806927e-07	-1.279111e-09	-2.091806e+00	-8.833375e+01
1.770000e-06	-2.480102e-07	-1.238182e-09	-1.848246e+00	-8.540359e+01
1.780000e-06	-2.152767e-07	-1.195753e-09	-1.604306e+00	-8.241388e+01
1.790000e-06	-1.825747e-07	-1.150686e-09	-1.360601e+00	-7.936482e+01
1.800000e-06	-1.499545e-07	-1.104174e-09	-1.117505e+00	-7.625676e+01
1.810000e-06	-1.173253e-07	-1.054375e-09	-8.743432e-01	-7.309021e+01
1.820000e-06	-8.471474e-08	-1.005233e-09	-6.313195e-01	-6.986587e+01
1.830000e-06	-5.212438e-08	-9.573796e-10	-3.884464e-01	-6.658461e+01
1.840000e-06	-1.944868e-08	-9.089823e-10	-1.449373e-01	-6.324748e+01
1.850000e-06	1.326920e-08	-8.612878e-10	9.888602e-02	-5.985571e+01
1.860000e-06	4.592178e-08	-8.124902e-10	3.422228e-01	-5.641072e+01
1.870000e-06	7.856739e-08	-7.648251e-10	5.855076e-01	-5.291410e+01
1.880000e-06	1.111681e-07	-7.172103e-10	8.284576e-01	-4.936764e+01
1.890000e-06	1.437936e-07	-6.644032e-10	1.071593e+00	-4.577329e+01
1.900000e-06	1.764753e-07	-6.083784e-10	1.315146e+00	-4.213318e+01
1.910000e-06	2.090272e-07	-5.505658e-10	1.557733e+00	-3.844963e+01
1.920000e-06	2.415674e-07	-4.997474e-10	1.800232e+00	-3.472509e+01
1.930000e-06	2.742388e-07	-4.466490e-10	2.043710e+00	-3.096221e+01
1.940000e-06	3.069047e-07	-3.886255e-10	2.287146e+00	-2.716376e+01
1.950000e-06	3.393943e-07	-3.295689e-10	2.529267e+00	-2.333266e+01
1.960000e-06	3.718328e-07	-2.766583e-10	2.771009e+00	-1.947197e+01
1.970000e-06	4.042003e-07	-2.234974e-10	3.012221e+00	-1.558486e+01
1.980000e-06	4.365318e-07	-1.675593e-10	3.253166e+00	-1.167463e+01
1.990000e-06	4.689052e-07	-1.071198e-10	3.494421e+00	-7.744655e+00
2.000000e-06	5.012507e-07	-4.734441e-11	3.735470e+00	-3.798413e+00
2.010000e-06	5.335363e-07	1.070080e-11	3.976072e+00	1.605517e-01
2.020000e-06	5.657527e-07	6.983358e-11	4.216158e+00	4.128637e+00
2.030000e-06	5.979394e-07	1.296902e-10	4.456023e+00	8.102194e+00
2.040000e-06	6.301037e-07	1.879119e-10	4.695721e+00	1.207755e+01
2.050000e-06	6.622608e-07	2.456206e-10	4.935365e+00	1.605100e+01
2.060000e-06	6.943462e-07	3.045878e-10	5.174475e+00	2.001887e+01
2.070000e-06	7.263757e-07	3.635171e-10	5.413169e+00	2.397748e+01
2.080000e-06	7.584859e-07	4.185236e-10	5.652464e+00	2.792318e+01
2.090000e-06	7.905865e-07	4.722011e-10	5.891686e+00	3.185238e+01
2.100000e-06	8.226123e-07	5.278463e-10	6.130353e+00	3.576152e+01
2.110000e-06	8.545838e-07	5.867199e-10	6.368613e+00	3.964716e+01
2.120000e-06	8.865102e-07	6.456249e-10	6.606539e+00	4.350591e+01
2.130000e-06	9.184320e-07	7.016592e-10	6.844430e+00	4.733449e+01
2.140000e-06	9.503374e-07	7.558679e-10	7.082198e+00	5.112974e+01
2.150000e-06	9.822127e-07	8.064870e-10	7.319743e+00	5.488862e+01
2.160000e-06	1.014098e-06	8.590501e-10	7.557363e+00	5.860823e+01
2.170000e-06	1.046009e-06	9.110530e-10	7.795170e+00	6.228582e+01
2.180000e-06	1.077859e-06	9.594385e-10	8.032529e+00	6.591879e+01
2.190000e-06	1.109611e-06	1.007464e-09	8.269150e+00	6.950469e+01
2.200000e-06	1.141328e-06	1.060224e-09	8.505520e+00	7.304126e+01
2.210000e-06	1.173080e-06	1.111865e-09	8.742139e+00	7.652642e+01
2.220000e-06	1.204720e-06	1.161196e-09	8.977935e+00	7.995825e+01
2.230000e-06	1.236170e-06	1.211811e-09	9.212307e+00	8.333504e+01
2.240000e-06	1.267488e-06	1.261000e-09	9.445699e+00	8.665524e+01
2.250000e-06	1.298657e-06	1.307929e-09	9.677979e+00	8.991752e+01
2.260000e-06	1.329641e-06	1.351467e-09	9.908881e+00	9.312072e+01
2.270000e-06	1.360557e-06	1.392357e-09	1.013927e+01	9.626388e+01
2.280000e-06	1.391419e-06	1.434613e-09	1.036927e+01	9.934622e+01
2.290000e-06	1.422155e-06	1.477451e-09	1.059832e+01	1.023671e+02
2.300000e-06	1.452806e-06	1.517792e-09	1.082674e+01	1.053263e+02
2.310000e-06	1.483399e-06	1.555565e-09	1.105473e+01	1.082233e+02
2.320000e-06	1.513872e-06	1.596773e-09	1.128183e+01	1.110582e+02
2.330000e-06	1.544213e-06	1.640030e-09	1.150794e+01	1.138312e+02
2.340000e-06	1.574462e-06	1.679606e-09	1.173336e+01	1.165423e+02
2.350000e-06	1.604548e-06	1.714824e-09	1.195757e+01	1.191921e+02
2.360000e-06	1.634517e-06	1.753653e-09	1.218091e+01	1.217811e+02
2.370000e-06	1.664478e-06	1.791500e-09	1.240419e+01	1.243100e+02
2.380000e-06	1.694391e-06	1.825326e-09	1.262711e+01	1.267796e+02
2.390000e-06	1.724141e-06	1.857938e-09	1.284881e+01	1.291907e+02
2.400000e-06	1.753798e-06	1.891407e-09	1.306983e+01	1.315444e+02
2.410000e-06	1.783384e-06	1.928431e-09	1.329031e+01	1.338419e+02
2.420000e-06	1.812966e-06	1.963035e-09	1.351076e+01	1.360842e+02
2.430000e-06	1.842500e-06	1.992986e-09	1.373086e+01	1.382726e+02
2.440000e-06	1.871860e-06	2.026352e-09	1.394966e+01	1.404085e+02
2.450000e-06	1.901051e-06	2.063777e-09	1.416720e+01	1.424932e+02
2.460000e-06	1.930032e-06	2.094850e-09	1.438317e+01	1.445280e+02
2.470000e-06	1.958888e-06	2.121704e-09	1.459822e+01	1.465145e+02
2.480000e-06	1.987619e-06	2.148600e-09	1.481233e+01	1.484540e+02
2.490000e-06	2.016134e-06	2.175376e-09	1.502484e+01	1.503481e+02
2.500000e-06	2.044434e-06	2.202325e-09	1.523573e+01	1.521980e+02
2.510000e-06	2.072555e-06	2.231354e-09	1.544530e+01	1.540054e+02
2.520000e-06	2.100591e-06	2.259021e-09	1.565423e+01	1.557715e+02
2.530000e-06	2.128582e-06	2.286919e-09	1.586283e+01	1.574979e+02
2.540000e-06	2.156520e-06	2.313931e-09	1.607103e+01	1.591858e+02
2.550000e-06	2.184398e-06	2.339633e-09	1.627878e+01	1.608366e+02
2.560000e-06	2.212177e-06	2.365736e-09	1.648580e+01	1.624516e+02
2.570000e-06	2.239936e-06	2.391527e-09	1.669267e+01	1.640321e+02
2.580000e-06	2.267649e-06	2.417670e-09	1.689919e+01	1.655791e+02
2.590000e-06	2.295188e-06	2.442771e-09	1.710443e+01	1.670939e+02
2.600000e-06	2.322602e-06	2.467775e-09	1.730872e+01	1.685776e+02
2.610000e-06	2.349862e-06	2.492694e-09	1.751188e+01	1.700312e+02
2.620000e-06	2.376922e-06	2.515807e-09	1.771354e+01	1.714556e+02
2.630000e-06	2.403652e-06	2.536544e-09	1.791273e+01	1.728517e+02
2.640000e-06	2.429959e-06	2.558410e-09	1.810878e+01	1.742205e+02
2.650000e-06	2.455885e-06	2.583663e-09	1.830199e+01	1.755627e+02
2.660000e-06	2.481422e-06	2.607259e-09	1.849230e+01	1.768790e+02
2.670000e-06	2.506695e-06	2.626685e-09	1.868064e+01	1.781701e+02
2.680000e-06	2.531643e-06	2.643022e-09	1.886656e+01	1.794367e+02
2.690000e-06	2.556294e-06	2.665037e-09	1.905027e+01	1.806794e+02
2.700000e-06	2.580820e-06	2.689867e-09	1.923304e+01	1.818986e+02
2.710000e-06	2.605174e-06	2.709442e-09	1.941453e+01	1.830949e+02
2.720000e-06	2.629338e-06	2.724357e-09	1.959461e+01	1.842686e+02
2.730000e-06	2.653389e-06	2.739105e-09	1.977385e+01	1.854203e+02
2.740000e-06	2.677374e-06	2.757129e-09	1.995259e+01	1.865503e+02
2.750000e-06	2.701249e-06	2.775813e-09	2.013051e+01	1.876590e+02
2.760000e-06	2.725018e-06	2.795623e-09	2.030765e+01	1.887466e+02
2.770000e-06	2.748616e-06	2.813085e-09	2.048351e+01	1.898134e+02
2.780000e-06	2.772020e-06	2.829732e-09	2.065792e+01	1.908598e+02
2.790000e-06	2.795210e-06	2.849058e-09	2.083074e+01	1.918860e+02
2.800000e-06	2.818139e-06	2.864712e-09	2.100161e+01	1.928922e+02
2.810000e-06	2.840890e-06	2.878353e-09	2.117116e+01	1.938787e+02
2.820000e-06	2.863395e-06	2.893754e-09	2.133887e+01	1.948457e+02
2.830000e-06	2.885660e-06	2.911567e-09	2.150480e+01	1.957935e+02
2.840000e-06	2.907790e-06	2.928185e-09	2.166972e+01	1.967223e+02
2.850000e-06	2.929742e-06	2.938161e-09	2.183331e+01	1.976323e+02
2.860000e-06	2.951566e-06	2.950993e-09	2.199595e+01	1.985238e+02
2.870000e-06	2.973247e-06	2.966834e-09	2.215752e+01	1.993970e+02
2.880000e-06	2.994669e-06	2.980214e-09	2.231717e+01	2.002521e+02
2.890000e-06	3.015816e-06	2.992637e-09	2.247476e+01	2.010894e+02
2.900000e-06	3.036734e-06	3.008954e-09	2.263065e+01	2.019092e+02
