# Temperatura_=_20.0
# Concentracion g/m^3_=_9000.0
# C_Vs_to_Am_M_A/Vsm_=_65563218390.804596
# pendiente_HvsI_1/m_=_3716.3
# ordenada_HvsI_A/m_=_1297.0
# frecuencia_Hz_=_134995.54958704062

Tiempo_(s)	Campo_(V.s)	Magnetizacion_(V.s)	Campo_(kA/m)	Magnetizacion_(A/m)
0.000000e+00	-3.911744e-06	-3.531239e-09	-2.915284e+01	-2.304326e+02
1.000000e-08	-3.911905e-06	-3.529271e-09	-2.915404e+01	-2.304454e+02
2.000000e-08	-3.911935e-06	-3.527473e-09	-2.915426e+01	-2.304523e+02
3.000000e-08	-3.911760e-06	-3.526278e-09	-2.915296e+01	-2.304533e+02
4.000000e-08	-3.911401e-06	-3.525492e-09	-2.915028e+01	-2.304484e+02
5.000000e-08	-3.910706e-06	-3.521565e-09	-2.914510e+01	-2.304375e+02
6.000000e-08	-3.909599e-06	-3.522324e-09	-2.913686e+01	-2.304205e+02
7.000000e-08	-3.908082e-06	-3.524911e-09	-2.912555e+01	-2.303976e+02
8.000000e-08	-3.906084e-06	-3.513010e-09	-2.911066e+01	-2.303685e+02
9.000000e-08	-3.903560e-06	-3.523468e-09	-2.909185e+01	-2.303332e+02
1.000000e-07	-3.900658e-06	-3.560328e-09	-2.907022e+01	-2.302918e+02
1.100000e-07	-3.897393e-06	-3.558301e-09	-2.904589e+01	-2.302440e+02
1.200000e-07	-3.893813e-06	-3.522244e-09	-2.901921e+01	-2.301899e+02
1.300000e-07	-3.890123e-06	-3.527126e-09	-2.899170e+01	-2.301294e+02
1.400000e-07	-3.886281e-06	-3.474838e-09	-2.896307e+01	-2.300624e+02
1.500000e-07	-3.882273e-06	-3.421521e-09	-2.893320e+01	-2.299889e+02
1.600000e-07	-3.878093e-06	-3.505948e-09	-2.890205e+01	-2.299088e+02
1.700000e-07	-3.873626e-06	-3.545323e-09	-2.886876e+01	-2.298222e+02
1.800000e-07	-3.868906e-06	-3.509685e-09	-2.883358e+01	-2.297289e+02
1.900000e-07	-3.863919e-06	-3.450170e-09	-2.879642e+01	-2.296289e+02
2.000000e-07	-3.858599e-06	-3.467185e-09	-2.875677e+01	-2.295222e+02
2.100000e-07	-3.853027e-06	-3.503132e-09	-2.871524e+01	-2.294088e+02
2.200000e-07	-3.847251e-06	-3.515713e-09	-2.867219e+01	-2.292887e+02
2.300000e-07	-3.841214e-06	-3.501436e-09	-2.862720e+01	-2.291619e+02
2.400000e-07	-3.834881e-06	-3.458556e-09	-2.858001e+01	-2.290284e+02
2.500000e-07	-3.828237e-06	-3.438329e-09	-2.853049e+01	-2.288882e+02
2.600000e-07	-3.821329e-06	-3.501657e-09	-2.847901e+01	-2.287414e+02
2.700000e-07	-3.814091e-06	-3.566375e-09	-2.842506e+01	-2.285880e+02
2.800000e-07	-3.806526e-06	-3.450531e-09	-2.836868e+01	-2.284281e+02
2.900000e-07	-3.798825e-06	-3.378356e-09	-2.831129e+01	-2.282617e+02
3.000000e-07	-3.790969e-06	-3.484411e-09	-2.825275e+01	-2.280889e+02
3.100000e-07	-3.782962e-06	-3.572253e-09	-2.819307e+01	-2.279097e+02
3.200000e-07	-3.774828e-06	-3.453937e-09	-2.813246e+01	-2.277243e+02
3.300000e-07	-3.766446e-06	-3.380153e-09	-2.806998e+01	-2.275328e+02
3.400000e-07	-3.757802e-06	-3.449301e-09	-2.800557e+01	-2.273351e+02
3.500000e-07	-3.748873e-06	-3.520191e-09	-2.793902e+01	-2.271315e+02
3.600000e-07	-3.739415e-06	-3.467631e-09	-2.786853e+01	-2.269219e+02
3.700000e-07	-3.729537e-06	-3.401586e-09	-2.779492e+01	-2.267066e+02
3.800000e-07	-3.719217e-06	-3.412453e-09	-2.771801e+01	-2.264855e+02
3.900000e-07	-3.708340e-06	-3.464335e-09	-2.763694e+01	-2.262587e+02
4.000000e-07	-3.697088e-06	-3.469554e-09	-2.755309e+01	-2.260264e+02
4.100000e-07	-3.685600e-06	-3.427582e-09	-2.746747e+01	-2.257887e+02
4.200000e-07	-3.673852e-06	-3.397478e-09	-2.737992e+01	-2.255455e+02
4.300000e-07	-3.661870e-06	-3.405356e-09	-2.729062e+01	-2.252969e+02
4.400000e-07	-3.649671e-06	-3.440555e-09	-2.719970e+01	-2.250430e+02
4.500000e-07	-3.637171e-06	-3.439641e-09	-2.710654e+01	-2.247839e+02
4.600000e-07	-3.624376e-06	-3.394301e-09	-2.701119e+01	-2.245196e+02
4.700000e-07	-3.611306e-06	-3.360418e-09	-2.691378e+01	-2.242500e+02
4.800000e-07	-3.597976e-06	-3.409241e-09	-2.681444e+01	-2.239753e+02
4.900000e-07	-3.584437e-06	-3.434877e-09	-2.671354e+01	-2.236953e+02
5.000000e-07	-3.570660e-06	-3.375747e-09	-2.661086e+01	-2.234102e+02
5.100000e-07	-3.556590e-06	-3.321418e-09	-2.650600e+01	-2.231197e+02
5.200000e-07	-3.542304e-06	-3.375196e-09	-2.639953e+01	-2.228240e+02
5.300000e-07	-3.527630e-06	-3.408049e-09	-2.629018e+01	-2.225229e+02
5.400000e-07	-3.512572e-06	-3.356165e-09	-2.617796e+01	-2.222164e+02
5.500000e-07	-3.497087e-06	-3.314136e-09	-2.606255e+01	-2.219044e+02
5.600000e-07	-3.481141e-06	-3.355456e-09	-2.594371e+01	-2.215867e+02
5.700000e-07	-3.465006e-06	-3.369813e-09	-2.582346e+01	-2.212634e+02
5.800000e-07	-3.448528e-06	-3.336496e-09	-2.570066e+01	-2.209341e+02
5.900000e-07	-3.431803e-06	-3.315298e-09	-2.557601e+01	-2.205989e+02
6.000000e-07	-3.414980e-06	-3.324991e-09	-2.545063e+01	-2.202576e+02
6.100000e-07	-3.397877e-06	-3.320662e-09	-2.532317e+01	-2.199100e+02
6.200000e-07	-3.380530e-06	-3.317729e-09	-2.519389e+01	-2.195559e+02
6.300000e-07	-3.362984e-06	-3.310964e-09	-2.506312e+01	-2.191952e+02
6.400000e-07	-3.345199e-06	-3.289433e-09	-2.493058e+01	-2.188278e+02
6.500000e-07	-3.327200e-06	-3.281916e-09	-2.479644e+01	-2.184533e+02
6.600000e-07	-3.308987e-06	-3.300624e-09	-2.466071e+01	-2.180716e+02
6.700000e-07	-3.290531e-06	-3.295432e-09	-2.452316e+01	-2.176826e+02
6.800000e-07	-3.271726e-06	-3.258528e-09	-2.438301e+01	-2.172861e+02
6.900000e-07	-3.252582e-06	-3.256093e-09	-2.424034e+01	-2.168817e+02
7.000000e-07	-3.233206e-06	-3.276829e-09	-2.409594e+01	-2.164695e+02
7.100000e-07	-3.213623e-06	-3.265835e-09	-2.394999e+01	-2.160490e+02
7.200000e-07	-3.193900e-06	-3.231285e-09	-2.380300e+01	-2.156203e+02
7.300000e-07	-3.174069e-06	-3.229018e-09	-2.365521e+01	-2.151830e+02
7.400000e-07	-3.154157e-06	-3.237841e-09	-2.350682e+01	-2.147370e+02
7.500000e-07	-3.134129e-06	-3.230172e-09	-2.335755e+01	-2.142821e+02
7.600000e-07	-3.113956e-06	-3.208821e-09	-2.320721e+01	-2.138181e+02
7.700000e-07	-3.093636e-06	-3.201686e-09	-2.305577e+01	-2.133448e+02
7.800000e-07	-3.073177e-06	-3.200269e-09	-2.290329e+01	-2.128622e+02
7.900000e-07	-3.052494e-06	-3.200033e-09	-2.274916e+01	-2.123699e+02
8.000000e-07	-3.031532e-06	-3.189399e-09	-2.259293e+01	-2.118679e+02
8.100000e-07	-3.010320e-06	-3.174819e-09	-2.243485e+01	-2.113561e+02
8.200000e-07	-2.988928e-06	-3.160925e-09	-2.227542e+01	-2.108342e+02
8.300000e-07	-2.967354e-06	-3.160806e-09	-2.211464e+01	-2.103021e+02
8.400000e-07	-2.945554e-06	-3.156324e-09	-2.195217e+01	-2.097598e+02
8.500000e-07	-2.923478e-06	-3.138529e-09	-2.178765e+01	-2.092071e+02
8.600000e-07	-2.901200e-06	-3.121019e-09	-2.162162e+01	-2.086438e+02
8.700000e-07	-2.878808e-06	-3.122937e-09	-2.145473e+01	-2.080699e+02
8.800000e-07	-2.856220e-06	-3.124415e-09	-2.128639e+01	-2.074853e+02
8.900000e-07	-2.833436e-06	-3.107565e-09	-2.111659e+01	-2.068899e+02
9.000000e-07	-2.810374e-06	-3.088510e-09	-2.094472e+01	-2.062835e+02
9.100000e-07	-2.787020e-06	-3.085612e-09	-2.077067e+01	-2.056661e+02
9.200000e-07	-2.763491e-06	-3.084735e-09	-2.059532e+01	-2.050377e+02
9.300000e-07	-2.739844e-06	-3.067980e-09	-2.041908e+01	-2.043980e+02
9.400000e-07	-2.716103e-06	-3.048328e-09	-2.024215e+01	-2.037471e+02
9.500000e-07	-2.692261e-06	-3.038270e-09	-2.006446e+01	-2.030849e+02
9.600000e-07	-2.668286e-06	-3.032426e-09	-1.988579e+01	-2.024113e+02
9.700000e-07	-2.644202e-06	-3.020690e-09	-1.970630e+01	-2.017262e+02
9.800000e-07	-2.620012e-06	-3.005614e-09	-1.952602e+01	-2.010295e+02
9.900000e-07	-2.595699e-06	-2.989985e-09	-1.934483e+01	-2.003212e+02
1.000000e-06	-2.571203e-06	-2.980380e-09	-1.916226e+01	-1.996013e+02
1.010000e-06	-2.546459e-06	-2.972206e-09	-1.897786e+01	-1.988695e+02
1.020000e-06	-2.521476e-06	-2.959740e-09	-1.879167e+01	-1.981259e+02
1.030000e-06	-2.496194e-06	-2.941020e-09	-1.860325e+01	-1.973703e+02
1.040000e-06	-2.470526e-06	-2.930123e-09	-1.841196e+01	-1.966028e+02
1.050000e-06	-2.444545e-06	-2.923828e-09	-1.821833e+01	-1.958231e+02
1.060000e-06	-2.418235e-06	-2.911429e-09	-1.802225e+01	-1.950313e+02
1.070000e-06	-2.391656e-06	-2.891673e-09	-1.782416e+01	-1.942272e+02
1.080000e-06	-2.364916e-06	-2.878205e-09	-1.762488e+01	-1.934107e+02
1.090000e-06	-2.337855e-06	-2.869820e-09	-1.742321e+01	-1.925817e+02
1.100000e-06	-2.310516e-06	-2.858292e-09	-1.721946e+01	-1.917401e+02
1.110000e-06	-2.283027e-06	-2.840094e-09	-1.701459e+01	-1.908859e+02
1.120000e-06	-2.255416e-06	-2.824768e-09	-1.680881e+01	-1.900189e+02
1.130000e-06	-2.227648e-06	-2.814928e-09	-1.660187e+01	-1.891389e+02
1.140000e-06	-2.199758e-06	-2.802706e-09	-1.639402e+01	-1.882459e+02
1.150000e-06	-2.171838e-06	-2.783321e-09	-1.618594e+01	-1.873397e+02
1.160000e-06	-2.143855e-06	-2.765276e-09	-1.597739e+01	-1.864201e+02
1.170000e-06	-2.115829e-06	-2.751586e-09	-1.576853e+01	-1.854871e+02
1.180000e-06	-2.087731e-06	-2.738283e-09	-1.555912e+01	-1.845404e+02
1.190000e-06	-2.059539e-06	-2.720918e-09	-1.534901e+01	-1.835799e+02
1.200000e-06	-2.031230e-06	-2.702281e-09	-1.513804e+01	-1.826055e+02
1.210000e-06	-2.002705e-06	-2.687510e-09	-1.492545e+01	-1.816168e+02
1.220000e-06	-1.974031e-06	-2.674808e-09	-1.471175e+01	-1.806137e+02
1.230000e-06	-1.945197e-06	-2.660717e-09	-1.449687e+01	-1.795959e+02
1.240000e-06	-1.916189e-06	-2.641446e-09	-1.428068e+01	-1.785633e+02
1.250000e-06	-1.887099e-06	-2.621755e-09	-1.406388e+01	-1.775155e+02
1.260000e-06	-1.857864e-06	-2.603538e-09	-1.384600e+01	-1.764524e+02
1.270000e-06	-1.828463e-06	-2.588294e-09	-1.362689e+01	-1.753735e+02
1.280000e-06	-1.798902e-06	-2.569220e-09	-1.340658e+01	-1.742785e+02
1.290000e-06	-1.769223e-06	-2.550089e-09	-1.318539e+01	-1.731671e+02
1.300000e-06	-1.739500e-06	-2.533543e-09	-1.296387e+01	-1.720390e+02
1.310000e-06	-1.709685e-06	-2.515013e-09	-1.274168e+01	-1.708936e+02
1.320000e-06	-1.679741e-06	-2.492425e-09	-1.251851e+01	-1.697306e+02
1.330000e-06	-1.649673e-06	-2.472418e-09	-1.229443e+01	-1.685495e+02
1.340000e-06	-1.619585e-06	-2.456262e-09	-1.207019e+01	-1.673498e+02
1.350000e-06	-1.589451e-06	-2.438980e-09	-1.184562e+01	-1.661309e+02
1.360000e-06	-1.559198e-06	-2.417180e-09	-1.162015e+01	-1.648923e+02
1.370000e-06	-1.528847e-06	-2.396213e-09	-1.139395e+01	-1.636333e+02
1.380000e-06	-1.498319e-06	-2.376838e-09	-1.116644e+01	-1.623532e+02
1.390000e-06	-1.467638e-06	-2.356448e-09	-1.093778e+01	-1.610513e+02
1.400000e-06	-1.436902e-06	-2.335859e-09	-1.070872e+01	-1.597269e+02
1.410000e-06	-1.406052e-06	-2.314492e-09	-1.047881e+01	-1.583792e+02
1.420000e-06	-1.375101e-06	-2.291917e-09	-1.024814e+01	-1.570073e+02
1.430000e-06	-1.344085e-06	-2.269861e-09	-1.001699e+01	-1.556103e+02
1.440000e-06	-1.313021e-06	-2.248316e-09	-9.785479e+00	-1.541873e+02
1.450000e-06	-1.281882e-06	-2.223406e-09	-9.553415e+00	-1.527372e+02
1.460000e-06	-1.250571e-06	-2.198355e-09	-9.320065e+00	-1.512591e+02
1.470000e-06	-1.219145e-06	-2.173924e-09	-9.085852e+00	-1.497518e+02
1.480000e-06	-1.187602e-06	-2.149041e-09	-8.850779e+00	-1.482142e+02
1.490000e-06	-1.155965e-06	-2.125461e-09	-8.615001e+00	-1.466451e+02
1.500000e-06	-1.124308e-06	-2.101898e-09	-8.379069e+00	-1.450433e+02
1.510000e-06	-1.092579e-06	-2.077127e-09	-8.142607e+00	-1.434077e+02
1.520000e-06	-1.060747e-06	-2.051848e-09	-7.905368e+00	-1.417368e+02
1.530000e-06	-1.028884e-06	-2.025712e-09	-7.667910e+00	-1.400293e+02
1.540000e-06	-9.970009e-07	-2.000403e-09	-7.430294e+00	-1.382840e+02
1.550000e-06	-9.650993e-07	-1.973034e-09	-7.192542e+00	-1.364995e+02
1.560000e-06	-9.331732e-07	-1.942888e-09	-6.954609e+00	-1.346744e+02
1.570000e-06	-9.012090e-07	-1.911581e-09	-6.716391e+00	-1.328073e+02
1.580000e-06	-8.692160e-07	-1.883719e-09	-6.477958e+00	-1.308968e+02
1.590000e-06	-8.371776e-07	-1.856753e-09	-6.239187e+00	-1.289416e+02
1.600000e-06	-8.051138e-07	-1.828303e-09	-6.000228e+00	-1.269402e+02
1.610000e-06	-7.730177e-07	-1.799047e-09	-5.761026e+00	-1.248914e+02
1.620000e-06	-7.408683e-07	-1.768817e-09	-5.521429e+00	-1.227938e+02
1.630000e-06	-7.086613e-07	-1.736655e-09	-5.281401e+00	-1.206460e+02
1.640000e-06	-6.764106e-07	-1.703293e-09	-5.041048e+00	-1.184469e+02
1.650000e-06	-6.441452e-07	-1.670484e-09	-4.800586e+00	-1.161953e+02
1.660000e-06	-6.118864e-07	-1.635967e-09	-4.560172e+00	-1.138900e+02
1.670000e-06	-5.796422e-07	-1.598547e-09	-4.319867e+00	-1.115299e+02
1.680000e-06	-5.473556e-07	-1.562218e-09	-4.079247e+00	-1.091141e+02
1.690000e-06	-5.150282e-07	-1.526986e-09	-3.838322e+00	-1.066417e+02
1.700000e-06	-4.826833e-07	-1.490427e-09	-3.597268e+00	-1.041118e+02
1.710000e-06	-4.502910e-07	-1.453812e-09	-3.355859e+00	-1.015237e+02
1.720000e-06	-4.178474e-07	-1.416841e-09	-3.114068e+00	-9.887686e+01
1.730000e-06	-3.853576e-07	-1.378483e-09	-2.871933e+00	-9.617081e+01
1.740000e-06	-3.528636e-07	-1.337322e-09	-2.629767e+00	-9.340517e+01
1.750000e-06	-3.203880e-07	-1.294874e-09	-2.387738e+00	-9.057976e+01
1.760000e-06	-2.878943e-07	-1.251838e-09	-2.145574e+00	-8.769450e+01
1.770000e-06	-2.553024e-07	-1.208073e-09	-1.902678e+00	-8.474947e+01
1.780000e-06	-2.227034e-07	-1.165358e-09	-1.659729e+00	-8.174491e+01
1.790000e-06	-1.901606e-07	-1.124218e-09	-1.417199e+00	-7.868122e+01
1.800000e-06	-1.575799e-07	-1.080684e-09	-1.174387e+00	-7.555895e+01
1.810000e-06	-1.249628e-07	-1.033520e-09	-9.313037e-01	-7.237883e+01
1.820000e-06	-9.238781e-08	-9.852461e-10	-6.885336e-01	-6.914175e+01
1.830000e-06	-5.984948e-08	-9.381699e-10	-4.460370e-01	-6.584878e+01
1.840000e-06	-2.723008e-08	-8.903241e-10	-2.029361e-01	-6.250115e+01
1.850000e-06	5.412552e-09	-8.401587e-10	4.033783e-02	-5.910029e+01
1.860000e-06	3.800540e-08	-7.903761e-10	2.832408e-01	-5.564776e+01
1.870000e-06	7.061523e-08	-7.423894e-10	5.262702e-01	-5.214532e+01
1.880000e-06	1.032228e-07	-6.932507e-10	7.692831e-01	-4.859490e+01
1.890000e-06	1.358898e-07	-6.413208e-10	1.012739e+00	-4.499856e+01
1.900000e-06	1.685532e-07	-5.892087e-10	1.256167e+00	-4.135855e+01
1.910000e-06	2.011371e-07	-5.367731e-10	1.499003e+00	-3.767726e+01
1.920000e-06	2.336818e-07	-4.822527e-10	1.741548e+00	-3.395723e+01
1.930000e-06	2.661847e-07	-4.261018e-10	1.983780e+00	-3.020113e+01
1.940000e-06	2.986969e-07	-3.696850e-10	2.226082e+00	-2.641177e+01
1.950000e-06	3.311547e-07	-3.138795e-10	2.467978e+00	-2.259209e+01
1.960000e-06	3.635765e-07	-2.598824e-10	2.709607e+00	-1.874511e+01
1.970000e-06	3.960497e-07	-2.066662e-10	2.951618e+00	-1.487398e+01
1.980000e-06	4.285041e-07	-1.504133e-10	3.193489e+00	-1.098192e+01
1.990000e-06	4.608329e-07	-9.208947e-11	3.434424e+00	-7.072260e+00
2.000000e-06	4.930993e-07	-3.569122e-11	3.674894e+00	-3.148358e+00
2.010000e-06	5.253791e-07	1.940575e-11	3.915464e+00	7.863539e-01
2.020000e-06	5.576771e-07	7.539657e-11	4.156170e+00	4.728408e+00
2.030000e-06	5.899819e-07	1.322967e-10	4.396926e+00	8.674308e+00
2.040000e-06	6.222283e-07	1.902671e-10	4.637247e+00	1.262054e+01
2.050000e-06	6.544457e-07	2.462459e-10	4.877352e+00	1.656361e+01
2.060000e-06	6.866455e-07	3.018884e-10	5.117325e+00	2.050000e+01
2.070000e-06	7.187876e-07	3.587620e-10	5.356869e+00	2.442626e+01
2.080000e-06	7.508702e-07	4.155765e-10	5.595969e+00	2.833895e+01
2.090000e-06	7.829292e-07	4.711452e-10	5.834894e+00	3.223469e+01
2.100000e-06	8.150219e-07	5.265285e-10	6.074069e+00	3.611017e+01
2.110000e-06	8.470988e-07	5.832975e-10	6.313127e+00	3.996216e+01
2.120000e-06	8.790855e-07	6.399710e-10	6.551512e+00	4.378751e+01
2.130000e-06	9.110364e-07	6.950813e-10	6.789631e+00	4.758317e+01
2.140000e-06	9.429586e-07	7.482586e-10	7.027536e+00	5.134622e+01
2.150000e-06	9.748354e-07	7.991266e-10	7.265102e+00	5.507384e+01
2.160000e-06	1.006740e-06	8.480313e-10	7.502875e+00	5.876335e+01
2.170000e-06	1.038643e-06	8.981499e-10	7.740634e+00	6.241220e+01
2.180000e-06	1.070511e-06	9.493566e-10	7.978139e+00	6.601799e+01
2.190000e-06	1.102329e-06	9.986452e-10	8.215264e+00	6.957847e+01
2.200000e-06	1.134091e-06	1.048407e-09	8.451977e+00	7.309156e+01
2.210000e-06	1.165747e-06	1.100328e-09	8.687898e+00	7.655532e+01
2.220000e-06	1.197311e-06	1.151246e-09	8.923132e+00	7.996800e+01
2.230000e-06	1.228774e-06	1.200539e-09	9.157614e+00	8.332800e+01
2.240000e-06	1.260149e-06	1.247428e-09	9.391440e+00	8.663389e+01
2.250000e-06	1.291476e-06	1.292842e-09	9.624910e+00	8.988442e+01
2.260000e-06	1.322666e-06	1.336723e-09	9.857359e+00	9.307852e+01
2.270000e-06	1.353739e-06	1.379691e-09	1.008893e+01	9.621526e+01
2.280000e-06	1.384707e-06	1.422001e-09	1.031973e+01	9.929390e+01
2.290000e-06	1.415543e-06	1.466492e-09	1.054954e+01	1.023139e+02
2.300000e-06	1.446262e-06	1.511389e-09	1.077847e+01	1.052747e+02
2.310000e-06	1.476794e-06	1.553279e-09	1.100602e+01	1.081762e+02
2.320000e-06	1.507138e-06	1.595824e-09	1.123216e+01	1.110183e+02
2.330000e-06	1.537422e-06	1.639827e-09	1.145786e+01	1.138008e+02
2.340000e-06	1.567623e-06	1.680184e-09	1.168294e+01	1.165242e+02
2.350000e-06	1.597693e-06	1.715508e-09	1.190704e+01	1.191885e+02
2.360000e-06	1.627699e-06	1.752017e-09	1.213067e+01	1.217943e+02
2.370000e-06	1.657626e-06	1.789079e-09	1.235370e+01	1.243420e+02
2.380000e-06	1.687511e-06	1.823438e-09	1.257642e+01	1.268324e+02
2.390000e-06	1.717372e-06	1.858805e-09	1.279896e+01	1.292662e+02
2.400000e-06	1.747087e-06	1.894496e-09	1.302042e+01	1.316442e+02
2.410000e-06	1.776688e-06	1.930052e-09	1.324103e+01	1.339673e+02
2.420000e-06	1.806172e-06	1.965005e-09	1.346076e+01	1.362365e+02
2.430000e-06	1.835550e-06	1.997305e-09	1.367970e+01	1.384529e+02
2.440000e-06	1.864821e-06	2.028848e-09	1.389785e+01	1.406176e+02
2.450000e-06	1.893967e-06	2.060965e-09	1.411507e+01	1.427316e+02
2.460000e-06	1.922957e-06	2.091337e-09	1.433111e+01	1.447963e+02
2.470000e-06	1.951689e-06	2.118269e-09	1.454525e+01	1.468127e+02
2.480000e-06	1.980201e-06	2.145189e-09	1.475774e+01	1.487822e+02
2.490000e-06	2.008594e-06	2.172698e-09	1.496934e+01	1.507059e+02
2.500000e-06	2.036936e-06	2.201057e-09	1.518056e+01	1.525851e+02
2.510000e-06	2.065205e-06	2.230332e-09	1.539124e+01	1.544210e+02
2.520000e-06	2.093333e-06	2.259119e-09	1.560087e+01	1.562150e+02
2.530000e-06	2.121356e-06	2.286921e-09	1.580971e+01	1.579681e+02
2.540000e-06	2.149346e-06	2.313324e-09	1.601831e+01	1.596816e+02
2.550000e-06	2.177316e-06	2.337747e-09	1.622676e+01	1.613566e+02
2.560000e-06	2.205233e-06	2.361112e-09	1.643482e+01	1.629944e+02
2.570000e-06	2.233062e-06	2.384298e-09	1.664222e+01	1.645960e+02
2.580000e-06	2.260842e-06	2.409266e-09	1.684926e+01	1.661624e+02
2.590000e-06	2.288471e-06	2.435062e-09	1.705516e+01	1.676948e+02
2.600000e-06	2.315887e-06	2.460624e-09	1.725949e+01	1.691941e+02
2.610000e-06	2.343181e-06	2.486119e-09	1.746290e+01	1.706613e+02
2.620000e-06	2.370210e-06	2.511042e-09	1.766433e+01	1.720973e+02
2.630000e-06	2.396852e-06	2.534195e-09	1.786289e+01	1.735029e+02
2.640000e-06	2.423152e-06	2.555464e-09	1.805889e+01	1.748790e+02
2.650000e-06	2.449144e-06	2.576995e-09	1.825260e+01	1.762264e+02
2.660000e-06	2.474881e-06	2.599230e-09	1.844441e+01	1.775459e+02
2.670000e-06	2.500280e-06	2.622082e-09	1.863370e+01	1.788381e+02
2.680000e-06	2.525333e-06	2.642508e-09	1.882041e+01	1.801037e+02
2.690000e-06	2.550169e-06	2.660419e-09	1.900551e+01	1.813433e+02
2.700000e-06	2.574814e-06	2.680309e-09	1.918917e+01	1.825576e+02
2.710000e-06	2.599265e-06	2.700232e-09	1.937140e+01	1.837471e+02
2.720000e-06	2.623530e-06	2.716726e-09	1.955224e+01	1.849124e+02
2.730000e-06	2.647673e-06	2.734186e-09	1.973217e+01	1.860539e+02
2.740000e-06	2.671738e-06	2.753144e-09	1.991151e+01	1.871722e+02
2.750000e-06	2.695668e-06	2.771359e-09	2.008986e+01	1.882677e+02
2.760000e-06	2.719429e-06	2.789699e-09	2.026694e+01	1.893408e+02
2.770000e-06	2.743040e-06	2.807268e-09	2.044290e+01	1.903921e+02
2.780000e-06	2.766536e-06	2.822285e-09	2.061801e+01	1.914219e+02
2.790000e-06	2.789857e-06	2.838958e-09	2.079181e+01	1.924306e+02
2.800000e-06	2.812897e-06	2.855266e-09	2.096352e+01	1.934186e+02
2.810000e-06	2.835642e-06	2.869944e-09	2.113304e+01	1.943864e+02
2.820000e-06	2.858181e-06	2.885194e-09	2.130101e+01	1.953343e+02
2.830000e-06	2.880584e-06	2.903144e-09	2.146797e+01	1.962626e+02
2.840000e-06	2.902835e-06	2.922367e-09	2.163380e+01	1.971718e+02
2.850000e-06	2.924894e-06	2.935613e-09	2.179820e+01	1.980623e+02
2.860000e-06	2.946737e-06	2.946857e-09	2.196099e+01	1.989344e+02
2.870000e-06	2.968419e-06	2.959617e-09	2.212257e+01	1.997885e+02
2.880000e-06	2.989903e-06	2.971611e-09	2.228269e+01	2.006249e+02
2.890000e-06	3.011112e-06	2.984312e-09	2.244075e+01	2.014441e+02
2.900000e-06	3.032092e-06	2.998741e-09	2.259711e+01	2.022465e+02
