# Temperatura_=_20.0
# Concentracion g/m^3_=_9000.0
# C_Vs_to_Am_M_A/Vsm_=_65563218390.804596
# pendiente_HvsI_1/m_=_3716.3
# ordenada_HvsI_A/m_=_1297.0
# frecuencia_Hz_=_134995.45277976026

Tiempo_(s)	Campo_(V.s)	Magnetizacion_(V.s)	Campo_(kA/m)	Magnetizacion_(A/m)
0.000000e+00	-3.899570e-06	-3.527375e-09	-2.914810e+01	-2.317353e+02
1.000000e-08	-3.899652e-06	-3.526792e-09	-2.914872e+01	-2.317314e+02
2.000000e-08	-3.899588e-06	-3.525732e-09	-2.914823e+01	-2.317205e+02
3.000000e-08	-3.899332e-06	-3.525404e-09	-2.914632e+01	-2.317027e+02
4.000000e-08	-3.898916e-06	-3.517385e-09	-2.914321e+01	-2.316779e+02
5.000000e-08	-3.898134e-06	-3.505875e-09	-2.913736e+01	-2.316461e+02
6.000000e-08	-3.896823e-06	-3.510886e-09	-2.912757e+01	-2.316071e+02
7.000000e-08	-3.895016e-06	-3.522624e-09	-2.911406e+01	-2.315610e+02
8.000000e-08	-3.892684e-06	-3.506114e-09	-2.909663e+01	-2.315076e+02
9.000000e-08	-3.889850e-06	-3.550599e-09	-2.907545e+01	-2.314471e+02
1.000000e-07	-3.886671e-06	-3.542104e-09	-2.905169e+01	-2.313793e+02
1.100000e-07	-3.883334e-06	-3.476180e-09	-2.902674e+01	-2.313042e+02
1.200000e-07	-3.879774e-06	-3.480997e-09	-2.900013e+01	-2.312219e+02
1.300000e-07	-3.875949e-06	-3.464400e-09	-2.897154e+01	-2.311323e+02
1.400000e-07	-3.871954e-06	-3.429173e-09	-2.894168e+01	-2.310354e+02
1.500000e-07	-3.867779e-06	-3.460122e-09	-2.891047e+01	-2.309313e+02
1.600000e-07	-3.863453e-06	-3.522493e-09	-2.887813e+01	-2.308201e+02
1.700000e-07	-3.858879e-06	-3.485483e-09	-2.884395e+01	-2.307016e+02
1.800000e-07	-3.853989e-06	-3.454222e-09	-2.880739e+01	-2.305762e+02
1.900000e-07	-3.848906e-06	-3.454521e-09	-2.876940e+01	-2.304437e+02
2.000000e-07	-3.843586e-06	-3.495074e-09	-2.872964e+01	-2.303044e+02
2.100000e-07	-3.837872e-06	-3.488699e-09	-2.868693e+01	-2.301582e+02
2.200000e-07	-3.831840e-06	-3.479449e-09	-2.864184e+01	-2.300054e+02
2.300000e-07	-3.825607e-06	-3.476548e-09	-2.859525e+01	-2.298461e+02
2.400000e-07	-3.819135e-06	-3.449114e-09	-2.854688e+01	-2.296804e+02
2.500000e-07	-3.812426e-06	-3.463315e-09	-2.849672e+01	-2.295084e+02
2.600000e-07	-3.805491e-06	-3.514205e-09	-2.844489e+01	-2.293303e+02
2.700000e-07	-3.798257e-06	-3.486135e-09	-2.839081e+01	-2.291462e+02
2.800000e-07	-3.790707e-06	-3.381068e-09	-2.833438e+01	-2.289563e+02
2.900000e-07	-3.782933e-06	-3.431549e-09	-2.827628e+01	-2.287609e+02
3.000000e-07	-3.774951e-06	-3.522238e-09	-2.821661e+01	-2.285599e+02
3.100000e-07	-3.766876e-06	-3.480285e-09	-2.815625e+01	-2.283537e+02
3.200000e-07	-3.758649e-06	-3.381043e-09	-2.809476e+01	-2.281423e+02
3.300000e-07	-3.750205e-06	-3.415169e-09	-2.803164e+01	-2.279259e+02
3.400000e-07	-3.741405e-06	-3.479497e-09	-2.796587e+01	-2.277047e+02
3.500000e-07	-3.732217e-06	-3.462029e-09	-2.789719e+01	-2.274788e+02
3.600000e-07	-3.722814e-06	-3.396126e-09	-2.782690e+01	-2.272483e+02
3.700000e-07	-3.712875e-06	-3.398384e-09	-2.775261e+01	-2.270134e+02
3.800000e-07	-3.702235e-06	-3.438871e-09	-2.767308e+01	-2.267742e+02
3.900000e-07	-3.691133e-06	-3.450048e-09	-2.759010e+01	-2.265307e+02
4.000000e-07	-3.679819e-06	-3.419067e-09	-2.750553e+01	-2.262830e+02
4.100000e-07	-3.668260e-06	-3.401944e-09	-2.741912e+01	-2.260313e+02
4.200000e-07	-3.656389e-06	-3.401593e-09	-2.733039e+01	-2.257755e+02
4.300000e-07	-3.644299e-06	-3.409098e-09	-2.724003e+01	-2.255157e+02
4.400000e-07	-3.631969e-06	-3.418735e-09	-2.714786e+01	-2.252519e+02
4.500000e-07	-3.619402e-06	-3.401716e-09	-2.705393e+01	-2.249840e+02
4.600000e-07	-3.606514e-06	-3.366010e-09	-2.695760e+01	-2.247122e+02
4.700000e-07	-3.593324e-06	-3.368506e-09	-2.685901e+01	-2.244362e+02
4.800000e-07	-3.579920e-06	-3.411197e-09	-2.675881e+01	-2.241561e+02
4.900000e-07	-3.566229e-06	-3.388233e-09	-2.665648e+01	-2.238718e+02
5.000000e-07	-3.552236e-06	-3.333868e-09	-2.655188e+01	-2.235832e+02
5.100000e-07	-3.537993e-06	-3.347632e-09	-2.644542e+01	-2.232901e+02
5.200000e-07	-3.523388e-06	-3.402262e-09	-2.633625e+01	-2.229925e+02
5.300000e-07	-3.508419e-06	-3.371875e-09	-2.622437e+01	-2.226902e+02
5.400000e-07	-3.493175e-06	-3.323832e-09	-2.611042e+01	-2.223830e+02
5.500000e-07	-3.477482e-06	-3.340455e-09	-2.599312e+01	-2.220708e+02
5.600000e-07	-3.461349e-06	-3.372289e-09	-2.587253e+01	-2.217534e+02
5.700000e-07	-3.444927e-06	-3.340140e-09	-2.574978e+01	-2.214305e+02
5.800000e-07	-3.428274e-06	-3.318366e-09	-2.562530e+01	-2.211021e+02
5.900000e-07	-3.411350e-06	-3.329730e-09	-2.549881e+01	-2.207679e+02
6.000000e-07	-3.394195e-06	-3.334281e-09	-2.537057e+01	-2.204277e+02
6.100000e-07	-3.376964e-06	-3.319335e-09	-2.524178e+01	-2.200812e+02
6.200000e-07	-3.359543e-06	-3.318154e-09	-2.511156e+01	-2.197283e+02
6.300000e-07	-3.341865e-06	-3.307218e-09	-2.497942e+01	-2.193688e+02
6.400000e-07	-3.324020e-06	-3.292207e-09	-2.484604e+01	-2.190023e+02
6.500000e-07	-3.306008e-06	-3.299463e-09	-2.471141e+01	-2.186288e+02
6.600000e-07	-3.287728e-06	-3.307115e-09	-2.457477e+01	-2.182479e+02
6.700000e-07	-3.269173e-06	-3.279677e-09	-2.443608e+01	-2.178595e+02
6.800000e-07	-3.250362e-06	-3.259953e-09	-2.429547e+01	-2.174634e+02
6.900000e-07	-3.231245e-06	-3.277259e-09	-2.415257e+01	-2.170593e+02
7.000000e-07	-3.211847e-06	-3.278323e-09	-2.400758e+01	-2.166471e+02
7.100000e-07	-3.192235e-06	-3.247449e-09	-2.386098e+01	-2.162266e+02
7.200000e-07	-3.172470e-06	-3.230796e-09	-2.371325e+01	-2.157975e+02
7.300000e-07	-3.152567e-06	-3.243024e-09	-2.356448e+01	-2.153598e+02
7.400000e-07	-3.132600e-06	-3.238547e-09	-2.341523e+01	-2.149133e+02
7.500000e-07	-3.112569e-06	-3.218101e-09	-2.326550e+01	-2.144577e+02
7.600000e-07	-3.092401e-06	-3.203826e-09	-2.311476e+01	-2.139929e+02
7.700000e-07	-3.072024e-06	-3.205569e-09	-2.296245e+01	-2.135189e+02
7.800000e-07	-3.051399e-06	-3.200819e-09	-2.280828e+01	-2.130354e+02
7.900000e-07	-3.030606e-06	-3.190947e-09	-2.265286e+01	-2.125423e+02
8.000000e-07	-3.009563e-06	-3.175723e-09	-2.249557e+01	-2.120395e+02
8.100000e-07	-2.988207e-06	-3.163819e-09	-2.233594e+01	-2.115268e+02
8.200000e-07	-2.966665e-06	-3.156177e-09	-2.217492e+01	-2.110042e+02
8.300000e-07	-2.944930e-06	-3.153464e-09	-2.201246e+01	-2.104716e+02
8.400000e-07	-2.922966e-06	-3.139754e-09	-2.184828e+01	-2.099287e+02
8.500000e-07	-2.900873e-06	-3.122934e-09	-2.168315e+01	-2.093755e+02
8.600000e-07	-2.878717e-06	-3.117848e-09	-2.151753e+01	-2.088120e+02
8.700000e-07	-2.856417e-06	-3.120834e-09	-2.135084e+01	-2.082379e+02
8.800000e-07	-2.833810e-06	-3.110439e-09	-2.118187e+01	-2.076531e+02
8.900000e-07	-2.810913e-06	-3.092609e-09	-2.101072e+01	-2.070577e+02
9.000000e-07	-2.787854e-06	-3.084419e-09	-2.083836e+01	-2.064513e+02
9.100000e-07	-2.764609e-06	-3.085194e-09	-2.066461e+01	-2.058340e+02
9.200000e-07	-2.741098e-06	-3.074584e-09	-2.048888e+01	-2.052056e+02
9.300000e-07	-2.717375e-06	-3.052413e-09	-2.031155e+01	-2.045660e+02
9.400000e-07	-2.693577e-06	-3.038405e-09	-2.013367e+01	-2.039150e+02
9.500000e-07	-2.669716e-06	-3.034334e-09	-1.995532e+01	-2.032525e+02
9.600000e-07	-2.645735e-06	-3.022196e-09	-1.977607e+01	-2.025783e+02
9.700000e-07	-2.621597e-06	-3.004840e-09	-1.959564e+01	-2.018924e+02
9.800000e-07	-2.597327e-06	-2.992202e-09	-1.941423e+01	-2.011946e+02
9.900000e-07	-2.572896e-06	-2.982751e-09	-1.923161e+01	-2.004847e+02
1.000000e-06	-2.548304e-06	-2.972510e-09	-1.904780e+01	-1.997626e+02
1.010000e-06	-2.523481e-06	-2.958984e-09	-1.886225e+01	-1.990281e+02
1.020000e-06	-2.498393e-06	-2.943244e-09	-1.867473e+01	-1.982811e+02
1.030000e-06	-2.473039e-06	-2.927870e-09	-1.848522e+01	-1.975213e+02
1.040000e-06	-2.447438e-06	-2.920635e-09	-1.829385e+01	-1.967487e+02
1.050000e-06	-2.421531e-06	-2.907826e-09	-1.810021e+01	-1.959630e+02
1.060000e-06	-2.395250e-06	-2.889304e-09	-1.790376e+01	-1.951641e+02
1.070000e-06	-2.368696e-06	-2.874773e-09	-1.770528e+01	-1.943519e+02
1.080000e-06	-2.341857e-06	-2.868295e-09	-1.750467e+01	-1.935261e+02
1.090000e-06	-2.314679e-06	-2.857134e-09	-1.730152e+01	-1.926866e+02
1.100000e-06	-2.287192e-06	-2.839091e-09	-1.709607e+01	-1.918332e+02
1.110000e-06	-2.259581e-06	-2.821372e-09	-1.688968e+01	-1.909658e+02
1.120000e-06	-2.231955e-06	-2.808277e-09	-1.668319e+01	-1.900843e+02
1.130000e-06	-2.204193e-06	-2.793463e-09	-1.647567e+01	-1.891884e+02
1.140000e-06	-2.176278e-06	-2.775859e-09	-1.626702e+01	-1.882780e+02
1.150000e-06	-2.148347e-06	-2.758884e-09	-1.605824e+01	-1.873530e+02
1.160000e-06	-2.120386e-06	-2.747426e-09	-1.584924e+01	-1.864133e+02
1.170000e-06	-2.092348e-06	-2.734473e-09	-1.563967e+01	-1.854586e+02
1.180000e-06	-2.064207e-06	-2.719935e-09	-1.542932e+01	-1.844889e+02
1.190000e-06	-2.035926e-06	-2.704224e-09	-1.521793e+01	-1.835041e+02
1.200000e-06	-2.007480e-06	-2.692320e-09	-1.500530e+01	-1.825039e+02
1.210000e-06	-1.978958e-06	-2.680136e-09	-1.479211e+01	-1.814883e+02
1.220000e-06	-1.950287e-06	-2.663419e-09	-1.457780e+01	-1.804571e+02
1.230000e-06	-1.921465e-06	-2.646088e-09	-1.436237e+01	-1.794102e+02
1.240000e-06	-1.892539e-06	-2.630396e-09	-1.414615e+01	-1.783474e+02
1.250000e-06	-1.863399e-06	-2.614141e-09	-1.392834e+01	-1.772686e+02
1.260000e-06	-1.834145e-06	-2.596136e-09	-1.370968e+01	-1.761737e+02
1.270000e-06	-1.804723e-06	-2.581829e-09	-1.348976e+01	-1.750623e+02
1.280000e-06	-1.775230e-06	-2.565778e-09	-1.326930e+01	-1.739344e+02
1.290000e-06	-1.745693e-06	-2.549434e-09	-1.304852e+01	-1.727896e+02
1.300000e-06	-1.715957e-06	-2.531570e-09	-1.282626e+01	-1.716279e+02
1.310000e-06	-1.686176e-06	-2.512601e-09	-1.260365e+01	-1.704488e+02
1.320000e-06	-1.656271e-06	-2.494985e-09	-1.238012e+01	-1.692521e+02
1.330000e-06	-1.626209e-06	-2.478841e-09	-1.215542e+01	-1.680375e+02
1.340000e-06	-1.596126e-06	-2.458735e-09	-1.193056e+01	-1.668046e+02
1.350000e-06	-1.565912e-06	-2.435978e-09	-1.170472e+01	-1.655530e+02
1.360000e-06	-1.535589e-06	-2.414880e-09	-1.147806e+01	-1.642821e+02
1.370000e-06	-1.505229e-06	-2.396301e-09	-1.125113e+01	-1.629917e+02
1.380000e-06	-1.474746e-06	-2.374364e-09	-1.102328e+01	-1.616810e+02
1.390000e-06	-1.444187e-06	-2.351385e-09	-1.079486e+01	-1.603495e+02
1.400000e-06	-1.413501e-06	-2.330058e-09	-1.056549e+01	-1.589965e+02
1.410000e-06	-1.382680e-06	-2.309507e-09	-1.033511e+01	-1.576214e+02
1.420000e-06	-1.351842e-06	-2.288117e-09	-1.010461e+01	-1.562233e+02
1.430000e-06	-1.320909e-06	-2.266469e-09	-9.873394e+00	-1.548014e+02
1.440000e-06	-1.289748e-06	-2.243562e-09	-9.640474e+00	-1.533548e+02
1.450000e-06	-1.258473e-06	-2.219292e-09	-9.406704e+00	-1.518826e+02
1.460000e-06	-1.227255e-06	-2.195723e-09	-9.173361e+00	-1.503838e+02
1.470000e-06	-1.195881e-06	-2.171424e-09	-8.938843e+00	-1.488573e+02
1.480000e-06	-1.164334e-06	-2.146461e-09	-8.703040e+00	-1.473020e+02
1.490000e-06	-1.132772e-06	-2.124034e-09	-8.467125e+00	-1.457167e+02
1.500000e-06	-1.101159e-06	-2.102887e-09	-8.230831e+00	-1.441000e+02
1.510000e-06	-1.069437e-06	-2.078309e-09	-7.993715e+00	-1.424509e+02
1.520000e-06	-1.037677e-06	-2.050538e-09	-7.756320e+00	-1.407678e+02
1.530000e-06	-1.005969e-06	-2.020502e-09	-7.519312e+00	-1.390495e+02
1.540000e-06	-9.741984e-07	-1.991508e-09	-7.281837e+00	-1.372945e+02
1.550000e-06	-9.423320e-07	-1.961689e-09	-7.043645e+00	-1.355014e+02
1.560000e-06	-9.104068e-07	-1.932371e-09	-6.805014e+00	-1.336686e+02
1.570000e-06	-8.784022e-07	-1.904446e-09	-6.565789e+00	-1.317947e+02
1.580000e-06	-8.464054e-07	-1.878582e-09	-6.326623e+00	-1.298782e+02
1.590000e-06	-8.144197e-07	-1.852326e-09	-6.087540e+00	-1.279176e+02
1.600000e-06	-7.824027e-07	-1.823655e-09	-5.848222e+00	-1.259113e+02
1.610000e-06	-7.503893e-07	-1.794788e-09	-5.608932e+00	-1.238579e+02
1.620000e-06	-7.183094e-07	-1.763234e-09	-5.369144e+00	-1.217559e+02
1.630000e-06	-6.862037e-07	-1.727280e-09	-5.129164e+00	-1.196039e+02
1.640000e-06	-6.541159e-07	-1.691644e-09	-4.889318e+00	-1.174004e+02
1.650000e-06	-6.219183e-07	-1.658263e-09	-4.648650e+00	-1.151443e+02
1.660000e-06	-5.897191e-07	-1.625936e-09	-4.407971e+00	-1.128341e+02
1.670000e-06	-5.575373e-07	-1.590992e-09	-4.167422e+00	-1.104687e+02
1.680000e-06	-5.253240e-07	-1.554962e-09	-3.926637e+00	-1.080469e+02
1.690000e-06	-4.930880e-07	-1.518895e-09	-3.685683e+00	-1.055678e+02
1.700000e-06	-4.607911e-07	-1.481603e-09	-3.444273e+00	-1.030305e+02
1.710000e-06	-4.284619e-07	-1.442489e-09	-3.202623e+00	-1.004341e+02
1.720000e-06	-3.961335e-07	-1.402220e-09	-2.960977e+00	-9.777794e+01
1.730000e-06	-3.638539e-07	-1.362747e-09	-2.719697e+00	-9.506154e+01
1.740000e-06	-3.315067e-07	-1.321878e-09	-2.477912e+00	-9.228447e+01
1.750000e-06	-2.990780e-07	-1.280722e-09	-2.235517e+00	-8.944648e+01
1.760000e-06	-2.666524e-07	-1.239083e-09	-1.993146e+00	-8.654747e+01
1.770000e-06	-2.342472e-07	-1.195620e-09	-1.750927e+00	-8.358753e+01
1.780000e-06	-2.017022e-07	-1.154653e-09	-1.507662e+00	-8.056689e+01
1.790000e-06	-1.690849e-07	-1.115269e-09	-1.263858e+00	-7.748596e+01
1.800000e-06	-1.366012e-07	-1.071079e-09	-1.021053e+00	-7.434533e+01
1.810000e-06	-1.041006e-07	-1.024627e-09	-7.781204e-01	-7.114579e+01
1.820000e-06	-7.160212e-08	-9.783605e-10	-5.352041e-01	-6.788828e+01
1.830000e-06	-3.917191e-08	-9.318964e-10	-2.927981e-01	-6.457395e+01
1.840000e-06	-6.766476e-09	-8.825846e-10	-5.057735e-02	-6.120413e+01
1.850000e-06	2.571096e-08	-8.338295e-10	1.921816e-01	-5.778032e+01
1.860000e-06	5.829608e-08	-7.861478e-10	4.357455e-01	-5.430423e+01
1.870000e-06	9.084781e-08	-7.379995e-10	6.790598e-01	-5.077771e+01
1.880000e-06	1.233265e-07	-6.885717e-10	9.218284e-01	-4.720282e+01
1.890000e-06	1.558027e-07	-6.373092e-10	1.164578e+00	-4.358178e+01
1.900000e-06	1.882533e-07	-5.861212e-10	1.407136e+00	-3.991695e+01
1.910000e-06	2.206430e-07	-5.334303e-10	1.649239e+00	-3.621089e+01
1.920000e-06	2.530188e-07	-4.804251e-10	1.891238e+00	-3.246627e+01
1.930000e-06	2.854553e-07	-4.261749e-10	2.133692e+00	-2.868591e+01
1.940000e-06	3.178981e-07	-3.715960e-10	2.376192e+00	-2.487278e+01
1.950000e-06	3.502591e-07	-3.181381e-10	2.618081e+00	-2.102993e+01
1.960000e-06	3.826122e-07	-2.623752e-10	2.859910e+00	-1.716056e+01
1.970000e-06	4.149369e-07	-2.077088e-10	3.101527e+00	-1.326793e+01
1.980000e-06	4.472320e-07	-1.526425e-10	3.342923e+00	-9.355406e+00
1.990000e-06	4.794844e-07	-9.421036e-11	3.584000e+00	-5.426412e+00
2.000000e-06	5.116589e-07	-3.574425e-11	3.824495e+00	-1.484435e+00
2.010000e-06	5.438422e-07	2.159452e-11	4.065055e+00	2.466999e+00
2.020000e-06	5.759972e-07	7.809835e-11	4.305404e+00	6.424333e+00
2.030000e-06	6.080977e-07	1.360052e-10	4.545346e+00	1.038399e+01
2.040000e-06	6.402342e-07	1.958090e-10	4.785556e+00	1.434241e+01
2.050000e-06	6.723767e-07	2.550455e-10	5.025811e+00	1.829603e+01
2.060000e-06	7.044912e-07	3.114529e-10	5.265857e+00	2.224130e+01
2.070000e-06	7.365935e-07	3.665121e-10	5.505813e+00	2.617475e+01
2.080000e-06	7.686103e-07	4.212363e-10	5.745128e+00	3.009294e+01
2.090000e-06	8.005925e-07	4.763292e-10	5.984186e+00	3.399249e+01
2.100000e-06	8.325631e-07	5.320598e-10	6.223156e+00	3.787011e+01
2.110000e-06	8.645401e-07	5.910961e-10	6.462174e+00	4.172260e+01
2.120000e-06	8.965276e-07	6.518865e-10	6.701271e+00	4.554687e+01
2.130000e-06	9.284911e-07	7.102513e-10	6.940189e+00	4.933992e+01
2.140000e-06	9.604305e-07	7.662223e-10	7.178926e+00	5.309890e+01
2.150000e-06	9.922548e-07	8.207969e-10	7.416803e+00	5.682106e+01
2.160000e-06	1.024053e-06	8.734783e-10	7.654488e+00	6.050383e+01
2.170000e-06	1.055893e-06	9.256484e-10	7.892480e+00	6.414474e+01
2.180000e-06	1.087662e-06	9.771288e-10	8.129942e+00	6.774151e+01
2.190000e-06	1.119346e-06	1.024787e-09	8.366773e+00	7.129199e+01
2.200000e-06	1.150963e-06	1.073421e-09	8.603096e+00	7.479422e+01
2.210000e-06	1.182508e-06	1.125389e-09	8.838884e+00	7.824637e+01
2.220000e-06	1.213937e-06	1.176029e-09	9.073807e+00	8.164680e+01
2.230000e-06	1.245282e-06	1.223834e-09	9.308105e+00	8.499404e+01
2.240000e-06	1.276568e-06	1.269810e-09	9.541957e+00	8.828678e+01
2.250000e-06	1.307634e-06	1.315394e-09	9.774168e+00	9.152388e+01
2.260000e-06	1.338475e-06	1.361090e-09	1.000470e+01	9.470436e+01
2.270000e-06	1.369269e-06	1.403897e-09	1.023487e+01	9.782742e+01
2.280000e-06	1.399939e-06	1.444522e-09	1.046412e+01	1.008924e+02
2.290000e-06	1.430404e-06	1.486373e-09	1.069183e+01	1.038988e+02
2.300000e-06	1.460770e-06	1.529974e-09	1.091881e+01	1.068463e+02
2.310000e-06	1.491071e-06	1.572956e-09	1.114530e+01	1.097347e+02
2.320000e-06	1.521400e-06	1.613780e-09	1.137201e+01	1.125640e+02
2.330000e-06	1.551696e-06	1.654064e-09	1.159846e+01	1.153341e+02
2.340000e-06	1.581864e-06	1.694593e-09	1.182395e+01	1.180454e+02
2.350000e-06	1.611897e-06	1.733510e-09	1.204844e+01	1.206982e+02
2.360000e-06	1.641809e-06	1.772175e-09	1.227203e+01	1.232928e+02
2.370000e-06	1.671712e-06	1.809152e-09	1.249554e+01	1.258299e+02
2.380000e-06	1.701538e-06	1.842209e-09	1.271848e+01	1.283100e+02
2.390000e-06	1.731278e-06	1.874745e-09	1.294077e+01	1.307340e+02
2.400000e-06	1.760904e-06	1.908786e-09	1.316222e+01	1.331025e+02
2.410000e-06	1.790439e-06	1.942591e-09	1.338299e+01	1.354165e+02
2.420000e-06	1.819817e-06	1.975254e-09	1.360258e+01	1.376769e+02
2.430000e-06	1.849023e-06	2.008632e-09	1.382088e+01	1.398847e+02
2.440000e-06	1.878153e-06	2.042224e-09	1.403862e+01	1.420409e+02
2.450000e-06	1.907157e-06	2.074591e-09	1.425542e+01	1.441466e+02
2.460000e-06	1.935992e-06	2.104259e-09	1.447095e+01	1.462030e+02
2.470000e-06	1.964632e-06	2.131323e-09	1.468503e+01	1.482110e+02
2.480000e-06	1.993177e-06	2.156806e-09	1.489839e+01	1.501720e+02
2.490000e-06	2.021562e-06	2.182453e-09	1.511056e+01	1.520869e+02
2.500000e-06	2.049747e-06	2.209499e-09	1.532123e+01	1.539571e+02
2.510000e-06	2.077863e-06	2.237295e-09	1.553140e+01	1.557836e+02
2.520000e-06	2.105933e-06	2.265685e-09	1.574121e+01	1.575676e+02
2.530000e-06	2.133947e-06	2.293668e-09	1.595060e+01	1.593102e+02
2.540000e-06	2.161925e-06	2.319993e-09	1.615973e+01	1.610127e+02
2.550000e-06	2.189824e-06	2.345389e-09	1.636827e+01	1.626760e+02
2.560000e-06	2.217624e-06	2.369179e-09	1.657607e+01	1.643013e+02
2.570000e-06	2.245301e-06	2.392537e-09	1.678294e+01	1.658896e+02
2.580000e-06	2.272911e-06	2.416982e-09	1.698932e+01	1.674421e+02
2.590000e-06	2.300326e-06	2.443402e-09	1.719424e+01	1.689596e+02
2.600000e-06	2.327477e-06	2.469595e-09	1.739718e+01	1.704433e+02
2.610000e-06	2.354514e-06	2.491526e-09	1.759928e+01	1.718940e+02
2.620000e-06	2.381267e-06	2.511140e-09	1.779925e+01	1.733127e+02
2.630000e-06	2.407559e-06	2.532156e-09	1.799577e+01	1.747004e+02
2.640000e-06	2.433436e-06	2.556263e-09	1.818919e+01	1.760578e+02
2.650000e-06	2.459007e-06	2.579357e-09	1.838033e+01	1.773858e+02
2.660000e-06	2.484316e-06	2.600860e-09	1.856951e+01	1.786853e+02
2.670000e-06	2.509445e-06	2.621356e-09	1.875734e+01	1.799570e+02
2.680000e-06	2.534301e-06	2.641920e-09	1.894313e+01	1.812016e+02
2.690000e-06	2.558815e-06	2.665416e-09	1.912636e+01	1.824201e+02
2.700000e-06	2.583107e-06	2.685497e-09	1.930794e+01	1.836130e+02
2.710000e-06	2.607280e-06	2.703459e-09	1.948863e+01	1.847810e+02
2.720000e-06	2.631378e-06	2.721812e-09	1.966875e+01	1.859249e+02
2.730000e-06	2.655355e-06	2.739713e-09	1.984797e+01	1.870452e+02
2.740000e-06	2.679231e-06	2.756698e-09	2.002644e+01	1.881427e+02
2.750000e-06	2.703030e-06	2.774567e-09	2.020433e+01	1.892179e+02
2.760000e-06	2.726718e-06	2.794140e-09	2.038139e+01	1.902714e+02
2.770000e-06	2.750226e-06	2.812379e-09	2.055711e+01	1.913039e+02
2.780000e-06	2.773507e-06	2.831182e-09	2.073112e+01	1.923159e+02
2.790000e-06	2.796538e-06	2.850235e-09	2.090327e+01	1.933079e+02
2.800000e-06	2.819339e-06	2.866095e-09	2.107370e+01	1.942806e+02
2.810000e-06	2.841927e-06	2.880471e-09	2.124254e+01	1.952344e+02
2.820000e-06	2.864336e-06	2.898474e-09	2.141004e+01	1.961699e+02
2.830000e-06	2.886487e-06	2.918112e-09	2.157562e+01	1.970876e+02
2.840000e-06	2.908456e-06	2.936313e-09	2.173983e+01	1.979879e+02
2.850000e-06	2.930301e-06	2.952198e-09	2.190311e+01	1.988714e+02
2.860000e-06	2.952007e-06	2.968037e-09	2.206535e+01	1.997386e+02
2.870000e-06	2.973484e-06	2.983823e-09	2.222589e+01	2.005899e+02
2.880000e-06	2.994685e-06	3.000216e-09	2.238436e+01	2.014257e+02
2.890000e-06	3.015678e-06	3.015157e-09	2.254128e+01	2.022465e+02
2.900000e-06	3.036393e-06	3.029268e-09	2.269612e+01	2.030527e+02
