# Temperatura_=_20.0
# Concentracion g/m^3_=_9000.0
# C_Vs_to_Am_M_A/Vsm_=_65563218390.804596
# pendiente_HvsI_1/m_=_3716.3
# ordenada_HvsI_A/m_=_1297.0
# frecuencia_Hz_=_135002.1921367782

Tiempo_(s)	Campo_(V.s)	Magnetizacion_(V.s)	Campo_(kA/m)	Magnetizacion_(A/m)
0.000000e+00	-3.900230e-06	-3.474480e-09	-2.915796e+01	-2.297670e+02
1.000000e-08	-3.900311e-06	-3.471774e-09	-2.915856e+01	-2.297832e+02
2.000000e-08	-3.900246e-06	-3.471114e-09	-2.915807e+01	-2.297916e+02
3.000000e-08	-3.900015e-06	-3.471872e-09	-2.915635e+01	-2.297923e+02
4.000000e-08	-3.899544e-06	-3.465122e-09	-2.915283e+01	-2.297852e+02
5.000000e-08	-3.898763e-06	-3.447847e-09	-2.914699e+01	-2.297704e+02
6.000000e-08	-3.897515e-06	-3.459719e-09	-2.913765e+01	-2.297480e+02
7.000000e-08	-3.895775e-06	-3.486091e-09	-2.912465e+01	-2.297180e+02
8.000000e-08	-3.893448e-06	-3.492905e-09	-2.910725e+01	-2.296804e+02
9.000000e-08	-3.890615e-06	-3.512978e-09	-2.908608e+01	-2.296354e+02
1.000000e-07	-3.887516e-06	-3.495675e-09	-2.906291e+01	-2.295831e+02
1.100000e-07	-3.884110e-06	-3.442029e-09	-2.903744e+01	-2.295234e+02
1.200000e-07	-3.880443e-06	-3.439775e-09	-2.901003e+01	-2.294567e+02
1.300000e-07	-3.876639e-06	-3.439058e-09	-2.898159e+01	-2.293829e+02
1.400000e-07	-3.872733e-06	-3.449430e-09	-2.895238e+01	-2.293022e+02
1.500000e-07	-3.868700e-06	-3.455142e-09	-2.892224e+01	-2.292147e+02
1.600000e-07	-3.864458e-06	-3.471813e-09	-2.889052e+01	-2.291206e+02
1.700000e-07	-3.859920e-06	-3.476964e-09	-2.885660e+01	-2.290201e+02
1.800000e-07	-3.855094e-06	-3.469087e-09	-2.882052e+01	-2.289133e+02
1.900000e-07	-3.849959e-06	-3.473569e-09	-2.878213e+01	-2.288003e+02
2.000000e-07	-3.844526e-06	-3.485727e-09	-2.874151e+01	-2.286814e+02
2.100000e-07	-3.838852e-06	-3.483176e-09	-2.869910e+01	-2.285566e+02
2.200000e-07	-3.832916e-06	-3.461154e-09	-2.865472e+01	-2.284262e+02
2.300000e-07	-3.826664e-06	-3.486726e-09	-2.860797e+01	-2.282904e+02
2.400000e-07	-3.820221e-06	-3.482022e-09	-2.855981e+01	-2.281492e+02
2.500000e-07	-3.813559e-06	-3.461432e-09	-2.851000e+01	-2.280029e+02
2.600000e-07	-3.806479e-06	-3.455282e-09	-2.845708e+01	-2.278516e+02
2.700000e-07	-3.799105e-06	-3.486285e-09	-2.840195e+01	-2.276955e+02
2.800000e-07	-3.791602e-06	-3.460540e-09	-2.834586e+01	-2.275347e+02
2.900000e-07	-3.783919e-06	-3.450950e-09	-2.828842e+01	-2.273693e+02
3.000000e-07	-3.776067e-06	-3.476865e-09	-2.822971e+01	-2.271995e+02
3.100000e-07	-3.768040e-06	-3.481678e-09	-2.816971e+01	-2.270253e+02
3.200000e-07	-3.759767e-06	-3.452730e-09	-2.810786e+01	-2.268469e+02
3.300000e-07	-3.751199e-06	-3.449294e-09	-2.804380e+01	-2.266643e+02
3.400000e-07	-3.742241e-06	-3.470913e-09	-2.797684e+01	-2.264776e+02
3.500000e-07	-3.732956e-06	-3.464982e-09	-2.790742e+01	-2.262869e+02
3.600000e-07	-3.723207e-06	-3.442610e-09	-2.783454e+01	-2.260920e+02
3.700000e-07	-3.712976e-06	-3.438905e-09	-2.775805e+01	-2.258931e+02
3.800000e-07	-3.702357e-06	-3.459917e-09	-2.767867e+01	-2.256901e+02
3.900000e-07	-3.691351e-06	-3.459468e-09	-2.759639e+01	-2.254831e+02
4.000000e-07	-3.680060e-06	-3.448612e-09	-2.751197e+01	-2.252718e+02
4.100000e-07	-3.668460e-06	-3.439183e-09	-2.742525e+01	-2.250564e+02
4.200000e-07	-3.656629e-06	-3.444079e-09	-2.733680e+01	-2.248365e+02
4.300000e-07	-3.644580e-06	-3.436324e-09	-2.724673e+01	-2.246123e+02
4.400000e-07	-3.632269e-06	-3.432211e-09	-2.715469e+01	-2.243834e+02
4.500000e-07	-3.619663e-06	-3.424619e-09	-2.706045e+01	-2.241498e+02
4.600000e-07	-3.606765e-06	-3.419759e-09	-2.696402e+01	-2.239113e+02
4.700000e-07	-3.593617e-06	-3.406327e-09	-2.686573e+01	-2.236676e+02
4.800000e-07	-3.580203e-06	-3.414915e-09	-2.676545e+01	-2.234187e+02
4.900000e-07	-3.566547e-06	-3.413347e-09	-2.666335e+01	-2.231643e+02
5.000000e-07	-3.552656e-06	-3.394330e-09	-2.655951e+01	-2.229041e+02
5.100000e-07	-3.538548e-06	-3.382314e-09	-2.645403e+01	-2.226380e+02
5.200000e-07	-3.524129e-06	-3.401750e-09	-2.634624e+01	-2.223656e+02
5.300000e-07	-3.509236e-06	-3.399582e-09	-2.623490e+01	-2.220868e+02
5.400000e-07	-3.493954e-06	-3.375735e-09	-2.612066e+01	-2.218012e+02
5.500000e-07	-3.478212e-06	-3.366614e-09	-2.600296e+01	-2.215087e+02
5.600000e-07	-3.461979e-06	-3.378454e-09	-2.588161e+01	-2.212089e+02
5.700000e-07	-3.445552e-06	-3.373047e-09	-2.575880e+01	-2.209017e+02
5.800000e-07	-3.428959e-06	-3.355884e-09	-2.563475e+01	-2.205867e+02
5.900000e-07	-3.412090e-06	-3.350394e-09	-2.550864e+01	-2.202637e+02
6.000000e-07	-3.395038e-06	-3.348456e-09	-2.538116e+01	-2.199325e+02
6.100000e-07	-3.377798e-06	-3.339204e-09	-2.525227e+01	-2.195928e+02
6.200000e-07	-3.360349e-06	-3.332261e-09	-2.512183e+01	-2.192444e+02
6.300000e-07	-3.342716e-06	-3.328021e-09	-2.499001e+01	-2.188872e+02
6.400000e-07	-3.324969e-06	-3.311863e-09	-2.485733e+01	-2.185208e+02
6.500000e-07	-3.307106e-06	-3.304925e-09	-2.472378e+01	-2.181452e+02
6.600000e-07	-3.288879e-06	-3.306778e-09	-2.458752e+01	-2.177601e+02
6.700000e-07	-3.270249e-06	-3.299216e-09	-2.444824e+01	-2.173654e+02
6.800000e-07	-3.251415e-06	-3.279508e-09	-2.430744e+01	-2.169609e+02
6.900000e-07	-3.232366e-06	-3.275256e-09	-2.416503e+01	-2.165466e+02
7.000000e-07	-3.213015e-06	-3.273849e-09	-2.402036e+01	-2.161224e+02
7.100000e-07	-3.193443e-06	-3.264037e-09	-2.387405e+01	-2.156880e+02
7.200000e-07	-3.173705e-06	-3.248495e-09	-2.372648e+01	-2.152436e+02
7.300000e-07	-3.153867e-06	-3.245098e-09	-2.357817e+01	-2.147890e+02
7.400000e-07	-3.133952e-06	-3.237553e-09	-2.342929e+01	-2.143242e+02
7.500000e-07	-3.113952e-06	-3.223752e-09	-2.327977e+01	-2.138492e+02
7.600000e-07	-3.093807e-06	-3.212549e-09	-2.312917e+01	-2.133639e+02
7.700000e-07	-3.073488e-06	-3.210380e-09	-2.297727e+01	-2.128685e+02
7.800000e-07	-3.052991e-06	-3.202962e-09	-2.282403e+01	-2.123628e+02
7.900000e-07	-3.032267e-06	-3.193784e-09	-2.266910e+01	-2.118469e+02
8.000000e-07	-3.011255e-06	-3.185682e-09	-2.251201e+01	-2.113209e+02
8.100000e-07	-2.989986e-06	-3.178648e-09	-2.235301e+01	-2.107848e+02
8.200000e-07	-2.968468e-06	-3.167673e-09	-2.219214e+01	-2.102386e+02
8.300000e-07	-2.946780e-06	-3.159174e-09	-2.203000e+01	-2.096825e+02
8.400000e-07	-2.925024e-06	-3.149697e-09	-2.186736e+01	-2.091164e+02
8.500000e-07	-2.903071e-06	-3.139462e-09	-2.170324e+01	-2.085404e+02
8.600000e-07	-2.880883e-06	-3.132731e-09	-2.153736e+01	-2.079546e+02
8.700000e-07	-2.858395e-06	-3.128612e-09	-2.136924e+01	-2.073590e+02
8.800000e-07	-2.835666e-06	-3.123531e-09	-2.119932e+01	-2.067537e+02
8.900000e-07	-2.812844e-06	-3.112120e-09	-2.102870e+01	-2.061387e+02
9.000000e-07	-2.789842e-06	-3.103106e-09	-2.085674e+01	-2.055141e+02
9.100000e-07	-2.766561e-06	-3.095182e-09	-2.068269e+01	-2.048798e+02
9.200000e-07	-2.743075e-06	-3.082262e-09	-2.050712e+01	-2.042358e+02
9.300000e-07	-2.719456e-06	-3.062744e-09	-2.033054e+01	-2.035822e+02
9.400000e-07	-2.695663e-06	-3.050340e-09	-2.015266e+01	-2.029189e+02
9.500000e-07	-2.671769e-06	-3.044829e-09	-1.997403e+01	-2.022459e+02
9.600000e-07	-2.647833e-06	-3.035366e-09	-1.979509e+01	-2.015632e+02
9.700000e-07	-2.623820e-06	-3.019088e-09	-1.961557e+01	-2.008706e+02
9.800000e-07	-2.599660e-06	-3.008868e-09	-1.943495e+01	-2.001682e+02
9.900000e-07	-2.575269e-06	-2.999718e-09	-1.925260e+01	-1.994557e+02
1.000000e-06	-2.550672e-06	-2.987208e-09	-1.906871e+01	-1.987331e+02
1.010000e-06	-2.525910e-06	-2.972548e-09	-1.888360e+01	-1.980002e+02
1.020000e-06	-2.500857e-06	-2.958722e-09	-1.869630e+01	-1.972569e+02
1.030000e-06	-2.475466e-06	-2.946171e-09	-1.850648e+01	-1.965030e+02
1.040000e-06	-2.449814e-06	-2.935583e-09	-1.831470e+01	-1.957383e+02
1.050000e-06	-2.423928e-06	-2.922102e-09	-1.812119e+01	-1.949626e+02
1.060000e-06	-2.397741e-06	-2.905830e-09	-1.792541e+01	-1.941758e+02
1.070000e-06	-2.371134e-06	-2.891431e-09	-1.772650e+01	-1.933775e+02
1.080000e-06	-2.344098e-06	-2.881644e-09	-1.752437e+01	-1.925675e+02
1.090000e-06	-2.316841e-06	-2.870878e-09	-1.732060e+01	-1.917456e+02
1.100000e-06	-2.289431e-06	-2.856590e-09	-1.711569e+01	-1.909115e+02
1.110000e-06	-2.261870e-06	-2.840190e-09	-1.690964e+01	-1.900650e+02
1.120000e-06	-2.234210e-06	-2.826765e-09	-1.670286e+01	-1.892057e+02
1.130000e-06	-2.206477e-06	-2.814034e-09	-1.649553e+01	-1.883334e+02
1.140000e-06	-2.178709e-06	-2.796733e-09	-1.628794e+01	-1.874477e+02
1.150000e-06	-2.150866e-06	-2.778384e-09	-1.607979e+01	-1.865484e+02
1.160000e-06	-2.122944e-06	-2.764027e-09	-1.587104e+01	-1.856352e+02
1.170000e-06	-2.094958e-06	-2.752171e-09	-1.566182e+01	-1.847077e+02
1.180000e-06	-2.066910e-06	-2.739639e-09	-1.545214e+01	-1.837656e+02
1.190000e-06	-2.038738e-06	-2.726661e-09	-1.524152e+01	-1.828087e+02
1.200000e-06	-2.010430e-06	-2.713095e-09	-1.502989e+01	-1.818365e+02
1.210000e-06	-1.981954e-06	-2.698068e-09	-1.481700e+01	-1.808488e+02
1.220000e-06	-1.953260e-06	-2.680795e-09	-1.460249e+01	-1.798453e+02
1.230000e-06	-1.924391e-06	-2.664572e-09	-1.438667e+01	-1.788256e+02
1.240000e-06	-1.895334e-06	-2.646572e-09	-1.416944e+01	-1.777894e+02
1.250000e-06	-1.866106e-06	-2.628225e-09	-1.395093e+01	-1.767363e+02
1.260000e-06	-1.836828e-06	-2.611784e-09	-1.373205e+01	-1.756660e+02
1.270000e-06	-1.807516e-06	-2.598865e-09	-1.351291e+01	-1.745781e+02
1.280000e-06	-1.778062e-06	-2.583735e-09	-1.329272e+01	-1.734724e+02
1.290000e-06	-1.748490e-06	-2.566199e-09	-1.307164e+01	-1.723483e+02
1.300000e-06	-1.718790e-06	-2.547557e-09	-1.284960e+01	-1.712055e+02
1.310000e-06	-1.689000e-06	-2.528305e-09	-1.262689e+01	-1.700436e+02
1.320000e-06	-1.659144e-06	-2.508559e-09	-1.240369e+01	-1.688623e+02
1.330000e-06	-1.629147e-06	-2.489311e-09	-1.217944e+01	-1.676609e+02
1.340000e-06	-1.599088e-06	-2.469834e-09	-1.195471e+01	-1.664392e+02
1.350000e-06	-1.568992e-06	-2.448844e-09	-1.172972e+01	-1.651965e+02
1.360000e-06	-1.538761e-06	-2.427693e-09	-1.150371e+01	-1.639324e+02
1.370000e-06	-1.508400e-06	-2.408965e-09	-1.127673e+01	-1.626464e+02
1.380000e-06	-1.477951e-06	-2.388883e-09	-1.104910e+01	-1.613377e+02
1.390000e-06	-1.447449e-06	-2.366168e-09	-1.082107e+01	-1.600060e+02
1.400000e-06	-1.416844e-06	-2.344860e-09	-1.059227e+01	-1.586504e+02
1.410000e-06	-1.386036e-06	-2.324394e-09	-1.036195e+01	-1.572704e+02
1.420000e-06	-1.355079e-06	-2.302745e-09	-1.013051e+01	-1.558651e+02
1.430000e-06	-1.324126e-06	-2.279691e-09	-9.899106e+00	-1.544338e+02
1.440000e-06	-1.293083e-06	-2.256949e-09	-9.667037e+00	-1.529758e+02
1.450000e-06	-1.261878e-06	-2.234485e-09	-9.433748e+00	-1.514901e+02
1.460000e-06	-1.230594e-06	-2.210150e-09	-9.199872e+00	-1.499759e+02
1.470000e-06	-1.199187e-06	-2.184310e-09	-8.965068e+00	-1.484322e+02
1.480000e-06	-1.167714e-06	-2.160391e-09	-8.729782e+00	-1.468580e+02
1.490000e-06	-1.136170e-06	-2.138419e-09	-8.493956e+00	-1.452524e+02
1.500000e-06	-1.104539e-06	-2.117052e-09	-8.257489e+00	-1.436142e+02
1.510000e-06	-1.072814e-06	-2.091783e-09	-8.020312e+00	-1.419423e+02
1.520000e-06	-1.041060e-06	-2.065114e-09	-7.782917e+00	-1.402357e+02
1.530000e-06	-1.009308e-06	-2.038485e-09	-7.545541e+00	-1.384931e+02
1.540000e-06	-9.774948e-07	-2.013960e-09	-7.307709e+00	-1.367133e+02
1.550000e-06	-9.456285e-07	-1.986665e-09	-7.069479e+00	-1.348951e+02
1.560000e-06	-9.137359e-07	-1.955455e-09	-6.831051e+00	-1.330373e+02
1.570000e-06	-8.818236e-07	-1.925687e-09	-6.592476e+00	-1.311385e+02
1.580000e-06	-8.499025e-07	-1.899210e-09	-6.353835e+00	-1.291976e+02
1.590000e-06	-8.179430e-07	-1.873255e-09	-6.114907e+00	-1.272132e+02
1.600000e-06	-7.859182e-07	-1.845207e-09	-5.875491e+00	-1.251841e+02
1.610000e-06	-7.538656e-07	-1.815285e-09	-5.635867e+00	-1.231090e+02
1.620000e-06	-7.217988e-07	-1.781538e-09	-5.396137e+00	-1.209867e+02
1.630000e-06	-6.897078e-07	-1.748511e-09	-5.156226e+00	-1.188159e+02
1.640000e-06	-6.575929e-07	-1.714312e-09	-4.916137e+00	-1.165954e+02
1.650000e-06	-6.255046e-07	-1.678405e-09	-4.676246e+00	-1.143242e+02
1.660000e-06	-5.934073e-07	-1.642184e-09	-4.436287e+00	-1.120011e+02
1.670000e-06	-5.612308e-07	-1.606957e-09	-4.195738e+00	-1.096251e+02
1.680000e-06	-5.289916e-07	-1.572874e-09	-3.954719e+00	-1.071953e+02
1.690000e-06	-4.967680e-07	-1.537371e-09	-3.713816e+00	-1.047107e+02
1.700000e-06	-4.644869e-07	-1.500802e-09	-3.472485e+00	-1.021707e+02
1.710000e-06	-4.321298e-07	-1.463173e-09	-3.230584e+00	-9.957436e+01
1.720000e-06	-3.997932e-07	-1.425012e-09	-2.988837e+00	-9.692125e+01
1.730000e-06	-3.674508e-07	-1.385423e-09	-2.747047e+00	-9.421088e+01
1.740000e-06	-3.350523e-07	-1.343351e-09	-2.504837e+00	-9.144286e+01
1.750000e-06	-3.026320e-07	-1.300892e-09	-2.262464e+00	-8.861700e+01
1.760000e-06	-2.702542e-07	-1.259490e-09	-2.020409e+00	-8.573319e+01
1.770000e-06	-2.378373e-07	-1.217216e-09	-1.778062e+00	-8.279149e+01
1.780000e-06	-2.054182e-07	-1.173495e-09	-1.535698e+00	-7.979210e+01
1.790000e-06	-1.730015e-07	-1.132244e-09	-1.293352e+00	-7.673539e+01
1.800000e-06	-1.404901e-07	-1.090807e-09	-1.050298e+00	-7.362187e+01
1.810000e-06	-1.079939e-07	-1.043837e-09	-8.073581e-01	-7.045222e+01
1.820000e-06	-7.555069e-08	-9.949830e-10	-5.648137e-01	-6.722729e+01
1.830000e-06	-4.308912e-08	-9.487698e-10	-3.221325e-01	-6.394810e+01
1.840000e-06	-1.061219e-08	-9.003362e-10	-7.933629e-02	-6.061582e+01
1.850000e-06	2.187794e-08	-8.478818e-10	1.635586e-01	-5.723181e+01
1.860000e-06	5.436299e-08	-7.978963e-10	4.064154e-01	-5.379759e+01
1.870000e-06	8.687805e-08	-7.496427e-10	6.494966e-01	-5.031485e+01
1.880000e-06	1.194724e-07	-7.006667e-10	8.931705e-01	-4.678546e+01
1.890000e-06	1.520154e-07	-6.469191e-10	1.136461e+00	-4.321142e+01
1.900000e-06	1.844834e-07	-5.948193e-10	1.379190e+00	-3.959491e+01
1.910000e-06	2.169557e-07	-5.448392e-10	1.621951e+00	-3.593826e+01
1.920000e-06	2.493825e-07	-4.924756e-10	1.864373e+00	-3.224394e+01
1.930000e-06	2.817940e-07	-4.382176e-10	2.106680e+00	-2.851456e+01
1.940000e-06	3.142645e-07	-3.794359e-10	2.349428e+00	-2.475287e+01
1.950000e-06	3.467277e-07	-3.226213e-10	2.592121e+00	-2.096173e+01
1.960000e-06	3.790789e-07	-2.694474e-10	2.833978e+00	-1.714412e+01
1.970000e-06	4.113631e-07	-2.163085e-10	3.075333e+00	-1.330310e+01
1.980000e-06	4.436721e-07	-1.577893e-10	3.316873e+00	-9.441865e+00
1.990000e-06	4.759431e-07	-1.000796e-10	3.558131e+00	-5.563651e+00
2.000000e-06	5.081457e-07	-4.736397e-11	3.798876e+00	-1.671777e+00
2.010000e-06	5.403220e-07	5.561972e-12	4.039424e+00	2.230384e+00
2.020000e-06	5.724919e-07	6.191787e-11	4.279925e+00	6.139415e+00
2.030000e-06	6.046584e-07	1.192339e-10	4.520400e+00	1.005187e+01
2.040000e-06	6.367741e-07	1.791425e-10	4.760497e+00	1.396430e+01
2.050000e-06	6.688576e-07	2.397317e-10	5.000351e+00	1.787322e+01
2.060000e-06	7.009178e-07	2.978598e-10	5.240032e+00	2.177519e+01
2.070000e-06	7.329302e-07	3.552358e-10	5.479355e+00	2.566678e+01
2.080000e-06	7.649426e-07	4.107420e-10	5.718678e+00	2.954459e+01
2.090000e-06	7.969200e-07	4.642114e-10	5.957740e+00	3.340527e+01
2.100000e-06	8.288528e-07	5.190363e-10	6.196468e+00	3.724556e+01
2.110000e-06	8.607993e-07	5.761630e-10	6.435299e+00	4.106222e+01
2.120000e-06	8.927287e-07	6.316121e-10	6.674002e+00	4.485216e+01
2.130000e-06	9.246212e-07	6.856629e-10	6.912429e+00	4.861233e+01
2.140000e-06	9.564484e-07	7.393368e-10	7.150368e+00	5.233983e+01
2.150000e-06	9.882462e-07	7.928932e-10	7.388087e+00	5.603184e+01
2.160000e-06	1.020064e-06	8.451890e-10	7.625953e+00	5.968570e+01
2.170000e-06	1.051827e-06	8.970198e-10	7.863413e+00	6.329887e+01
2.180000e-06	1.083530e-06	9.467417e-10	8.100422e+00	6.686895e+01
2.190000e-06	1.115175e-06	9.953796e-10	8.337001e+00	7.039368e+01
2.200000e-06	1.146768e-06	1.045868e-09	8.573186e+00	7.387099e+01
2.210000e-06	1.178317e-06	1.095538e-09	8.809050e+00	7.729892e+01
2.220000e-06	1.209769e-06	1.143782e-09	9.044184e+00	8.067572e+01
2.230000e-06	1.241115e-06	1.192952e-09	9.278523e+00	8.399977e+01
2.240000e-06	1.272366e-06	1.239461e-09	9.512155e+00	8.726964e+01
2.250000e-06	1.303437e-06	1.284041e-09	9.744439e+00	9.048406e+01
2.260000e-06	1.334411e-06	1.327253e-09	9.976003e+00	9.364194e+01
2.270000e-06	1.365302e-06	1.369663e-09	1.020694e+01	9.674234e+01
2.280000e-06	1.395994e-06	1.413236e-09	1.043639e+01	9.978450e+01
2.290000e-06	1.426514e-06	1.456284e-09	1.066456e+01	1.027678e+02
2.300000e-06	1.456927e-06	1.495993e-09	1.089192e+01	1.056919e+02
2.310000e-06	1.487250e-06	1.536904e-09	1.111861e+01	1.085564e+02
2.320000e-06	1.517449e-06	1.579276e-09	1.134438e+01	1.113612e+02
2.330000e-06	1.547601e-06	1.620507e-09	1.156980e+01	1.141064e+02
2.340000e-06	1.577739e-06	1.657607e-09	1.179511e+01	1.167920e+02
2.350000e-06	1.607802e-06	1.693249e-09	1.201986e+01	1.194185e+02
2.360000e-06	1.637781e-06	1.734337e-09	1.224398e+01	1.219861e+02
2.370000e-06	1.667667e-06	1.773959e-09	1.246741e+01	1.244956e+02
2.380000e-06	1.697393e-06	1.808368e-09	1.268964e+01	1.269474e+02
2.390000e-06	1.727022e-06	1.840071e-09	1.291115e+01	1.293424e+02
2.400000e-06	1.756688e-06	1.874249e-09	1.313293e+01	1.316813e+02
2.410000e-06	1.786313e-06	1.909489e-09	1.335440e+01	1.339652e+02
2.420000e-06	1.815777e-06	1.941030e-09	1.357467e+01	1.361951e+02
2.430000e-06	1.845041e-06	1.973164e-09	1.379345e+01	1.383720e+02
2.440000e-06	1.874169e-06	2.010225e-09	1.401121e+01	1.404970e+02
2.450000e-06	1.903151e-06	2.046770e-09	1.422788e+01	1.425714e+02
2.460000e-06	1.931909e-06	2.078530e-09	1.444287e+01	1.445963e+02
2.470000e-06	1.960521e-06	2.108355e-09	1.465677e+01	1.465731e+02
2.480000e-06	1.989083e-06	2.137438e-09	1.487030e+01	1.485029e+02
2.490000e-06	2.017454e-06	2.164576e-09	1.508240e+01	1.503872e+02
2.500000e-06	2.045631e-06	2.191029e-09	1.529305e+01	1.522272e+02
2.510000e-06	2.073776e-06	2.217880e-09	1.550346e+01	1.540243e+02
2.520000e-06	2.101841e-06	2.245185e-09	1.571327e+01	1.557797e+02
2.530000e-06	2.129799e-06	2.273044e-09	1.592229e+01	1.574947e+02
2.540000e-06	2.157699e-06	2.300518e-09	1.613087e+01	1.591707e+02
2.550000e-06	2.185568e-06	2.326932e-09	1.633921e+01	1.608089e+02
2.560000e-06	2.213389e-06	2.352141e-09	1.654720e+01	1.624105e+02
2.570000e-06	2.241097e-06	2.377100e-09	1.675435e+01	1.639768e+02
2.580000e-06	2.268684e-06	2.401261e-09	1.696059e+01	1.655089e+02
2.590000e-06	2.296102e-06	2.424969e-09	1.716556e+01	1.670079e+02
2.600000e-06	2.323282e-06	2.451889e-09	1.736876e+01	1.684749e+02
2.610000e-06	2.350272e-06	2.475885e-09	1.757054e+01	1.699111e+02
2.620000e-06	2.377020e-06	2.494757e-09	1.777050e+01	1.713173e+02
2.630000e-06	2.403357e-06	2.513731e-09	1.796740e+01	1.726946e+02
2.640000e-06	2.429347e-06	2.538305e-09	1.816169e+01	1.740439e+02
2.650000e-06	2.455043e-06	2.565078e-09	1.835380e+01	1.753660e+02
2.660000e-06	2.480345e-06	2.587373e-09	1.854296e+01	1.766617e+02
2.670000e-06	2.505315e-06	2.606934e-09	1.872963e+01	1.779319e+02
2.680000e-06	2.530097e-06	2.629002e-09	1.891490e+01	1.791773e+02
2.690000e-06	2.554689e-06	2.653296e-09	1.909875e+01	1.803985e+02
2.700000e-06	2.579040e-06	2.674301e-09	1.928080e+01	1.815963e+02
2.710000e-06	2.603234e-06	2.691878e-09	1.946166e+01	1.827711e+02
2.720000e-06	2.627272e-06	2.709193e-09	1.964137e+01	1.839236e+02
2.730000e-06	2.651215e-06	2.727290e-09	1.982037e+01	1.850543e+02
2.740000e-06	2.675065e-06	2.744809e-09	1.999867e+01	1.861636e+02
2.750000e-06	2.698793e-06	2.763853e-09	2.017607e+01	1.872521e+02
2.760000e-06	2.722423e-06	2.783645e-09	2.035272e+01	1.883202e+02
2.770000e-06	2.745917e-06	2.801950e-09	2.052836e+01	1.893682e+02
2.780000e-06	2.769224e-06	2.820266e-09	2.070260e+01	1.903965e+02
2.790000e-06	2.792304e-06	2.839819e-09	2.087515e+01	1.914056e+02
2.800000e-06	2.815139e-06	2.855926e-09	2.104586e+01	1.923956e+02
2.810000e-06	2.837757e-06	2.870228e-09	2.121495e+01	1.933670e+02
2.820000e-06	2.860197e-06	2.886023e-09	2.138271e+01	1.943200e+02
2.830000e-06	2.882431e-06	2.904295e-09	2.154894e+01	1.952549e+02
2.840000e-06	2.904498e-06	2.921968e-09	2.171390e+01	1.961719e+02
2.850000e-06	2.926387e-06	2.934988e-09	2.187755e+01	1.970714e+02
2.860000e-06	2.948018e-06	2.948881e-09	2.203926e+01	1.979535e+02
2.870000e-06	2.969454e-06	2.964165e-09	2.219951e+01	1.988185e+02
2.880000e-06	2.990750e-06	2.976087e-09	2.235872e+01	1.996667e+02
2.890000e-06	3.011809e-06	2.989167e-09	2.251616e+01	2.004982e+02
2.900000e-06	3.032662e-06	3.006062e-09	2.267205e+01	2.013134e+02
