# Temperatura_=_20.0
# Concentracion g/m^3_=_9000.0
# C_Vs_to_Am_M_A/Vsm_=_65563218390.804596
# pendiente_HvsI_1/m_=_3716.3
# ordenada_HvsI_A/m_=_1297.0
# frecuencia_Hz_=_134996.9009218442

Tiempo_(s)	Campo_(V.s)	Magnetizacion_(V.s)	Campo_(kA/m)	Magnetizacion_(A/m)
0.000000e+00	-3.904256e-06	-3.510422e-09	-2.916012e+01	-2.298018e+02
1.000000e-08	-3.904322e-06	-3.505744e-09	-2.916061e+01	-2.298528e+02
2.000000e-08	-3.904277e-06	-3.504442e-09	-2.916027e+01	-2.298988e+02
3.000000e-08	-3.904095e-06	-3.504664e-09	-2.915892e+01	-2.299399e+02
4.000000e-08	-3.903697e-06	-3.499216e-09	-2.915594e+01	-2.299759e+02
5.000000e-08	-3.903009e-06	-3.482444e-09	-2.915080e+01	-2.300068e+02
6.000000e-08	-3.902003e-06	-3.470781e-09	-2.914329e+01	-2.300325e+02
7.000000e-08	-3.900585e-06	-3.471019e-09	-2.913270e+01	-2.300528e+02
8.000000e-08	-3.898561e-06	-3.495112e-09	-2.911759e+01	-2.300675e+02
9.000000e-08	-3.895950e-06	-3.520099e-09	-2.909808e+01	-2.300767e+02
1.000000e-07	-3.892798e-06	-3.611949e-09	-2.907454e+01	-2.300800e+02
1.100000e-07	-3.889361e-06	-3.547285e-09	-2.904887e+01	-2.300774e+02
1.200000e-07	-3.885704e-06	-3.519402e-09	-2.902155e+01	-2.300688e+02
1.300000e-07	-3.881846e-06	-3.493041e-09	-2.899274e+01	-2.300539e+02
1.400000e-07	-3.877919e-06	-3.426490e-09	-2.896341e+01	-2.300327e+02
1.500000e-07	-3.873838e-06	-3.461029e-09	-2.893293e+01	-2.300050e+02
1.600000e-07	-3.869577e-06	-3.524853e-09	-2.890111e+01	-2.299706e+02
1.700000e-07	-3.865135e-06	-3.550483e-09	-2.886793e+01	-2.299295e+02
1.800000e-07	-3.860489e-06	-3.447096e-09	-2.883323e+01	-2.298815e+02
1.900000e-07	-3.855526e-06	-3.457615e-09	-2.879616e+01	-2.298266e+02
2.000000e-07	-3.850197e-06	-3.483480e-09	-2.875636e+01	-2.297646e+02
2.100000e-07	-3.844661e-06	-3.543355e-09	-2.871502e+01	-2.296955e+02
2.200000e-07	-3.838908e-06	-3.503390e-09	-2.867205e+01	-2.296191e+02
2.300000e-07	-3.832922e-06	-3.482630e-09	-2.862734e+01	-2.295354e+02
2.400000e-07	-3.826688e-06	-3.446540e-09	-2.858078e+01	-2.294444e+02
2.500000e-07	-3.820064e-06	-3.473822e-09	-2.853130e+01	-2.293461e+02
2.600000e-07	-3.813097e-06	-3.536027e-09	-2.847927e+01	-2.292403e+02
2.700000e-07	-3.805812e-06	-3.515349e-09	-2.842486e+01	-2.291272e+02
2.800000e-07	-3.798187e-06	-3.391780e-09	-2.836791e+01	-2.290066e+02
2.900000e-07	-3.790363e-06	-3.401146e-09	-2.830947e+01	-2.288786e+02
3.000000e-07	-3.782458e-06	-3.538427e-09	-2.825043e+01	-2.287433e+02
3.100000e-07	-3.774426e-06	-3.533106e-09	-2.819044e+01	-2.286006e+02
3.200000e-07	-3.766259e-06	-3.402804e-09	-2.812944e+01	-2.284506e+02
3.300000e-07	-3.757890e-06	-3.380870e-09	-2.806694e+01	-2.282933e+02
3.400000e-07	-3.749227e-06	-3.490133e-09	-2.800224e+01	-2.281288e+02
3.500000e-07	-3.740269e-06	-3.498480e-09	-2.793533e+01	-2.279571e+02
3.600000e-07	-3.730956e-06	-3.419863e-09	-2.786577e+01	-2.277783e+02
3.700000e-07	-3.721110e-06	-3.359851e-09	-2.779224e+01	-2.275925e+02
3.800000e-07	-3.710618e-06	-3.424653e-09	-2.771387e+01	-2.273996e+02
3.900000e-07	-3.699628e-06	-3.459963e-09	-2.763179e+01	-2.271998e+02
4.000000e-07	-3.688293e-06	-3.449075e-09	-2.754713e+01	-2.269932e+02
4.100000e-07	-3.676645e-06	-3.388694e-09	-2.746013e+01	-2.267798e+02
4.200000e-07	-3.664770e-06	-3.394044e-09	-2.737144e+01	-2.265596e+02
4.300000e-07	-3.652662e-06	-3.413724e-09	-2.728101e+01	-2.263327e+02
4.400000e-07	-3.640299e-06	-3.442909e-09	-2.718868e+01	-2.260992e+02
4.500000e-07	-3.627701e-06	-3.406788e-09	-2.709458e+01	-2.258590e+02
4.600000e-07	-3.614865e-06	-3.362506e-09	-2.699871e+01	-2.256123e+02
4.700000e-07	-3.601821e-06	-3.359347e-09	-2.690129e+01	-2.253590e+02
4.800000e-07	-3.588418e-06	-3.416055e-09	-2.680118e+01	-2.250993e+02
4.900000e-07	-3.574671e-06	-3.407855e-09	-2.669851e+01	-2.248330e+02
5.000000e-07	-3.560668e-06	-3.337402e-09	-2.659392e+01	-2.245602e+02
5.100000e-07	-3.546411e-06	-3.330040e-09	-2.648744e+01	-2.242809e+02
5.200000e-07	-3.532053e-06	-3.398809e-09	-2.638021e+01	-2.239951e+02
5.300000e-07	-3.517390e-06	-3.400319e-09	-2.627069e+01	-2.237028e+02
5.400000e-07	-3.502182e-06	-3.331178e-09	-2.615710e+01	-2.234039e+02
5.500000e-07	-3.486533e-06	-3.327494e-09	-2.604023e+01	-2.230984e+02
5.600000e-07	-3.470581e-06	-3.372633e-09	-2.592109e+01	-2.227863e+02
5.700000e-07	-3.454371e-06	-3.365616e-09	-2.580001e+01	-2.224676e+02
5.800000e-07	-3.437822e-06	-3.318964e-09	-2.567641e+01	-2.221421e+02
5.900000e-07	-3.420938e-06	-3.320686e-09	-2.555031e+01	-2.218098e+02
6.000000e-07	-3.403872e-06	-3.332076e-09	-2.542284e+01	-2.214707e+02
6.100000e-07	-3.386611e-06	-3.330036e-09	-2.529393e+01	-2.211247e+02
6.200000e-07	-3.369064e-06	-3.319320e-09	-2.516287e+01	-2.207716e+02
6.300000e-07	-3.351383e-06	-3.317659e-09	-2.503082e+01	-2.204115e+02
6.400000e-07	-3.333599e-06	-3.299959e-09	-2.489799e+01	-2.200443e+02
6.500000e-07	-3.315639e-06	-3.306411e-09	-2.476385e+01	-2.196698e+02
6.600000e-07	-3.297492e-06	-3.313556e-09	-2.462832e+01	-2.192880e+02
6.700000e-07	-3.279032e-06	-3.292893e-09	-2.449044e+01	-2.188988e+02
6.800000e-07	-3.260311e-06	-3.260050e-09	-2.435062e+01	-2.185021e+02
6.900000e-07	-3.241374e-06	-3.276210e-09	-2.420918e+01	-2.180979e+02
7.000000e-07	-3.222029e-06	-3.285759e-09	-2.406469e+01	-2.176859e+02
7.100000e-07	-3.202362e-06	-3.257671e-09	-2.391781e+01	-2.172662e+02
7.200000e-07	-3.182589e-06	-3.230992e-09	-2.377013e+01	-2.168386e+02
7.300000e-07	-3.162685e-06	-3.246176e-09	-2.362147e+01	-2.164030e+02
7.400000e-07	-3.142692e-06	-3.252468e-09	-2.347214e+01	-2.159593e+02
7.500000e-07	-3.122658e-06	-3.230596e-09	-2.332252e+01	-2.155075e+02
7.600000e-07	-3.102509e-06	-3.208592e-09	-2.317203e+01	-2.150475e+02
7.700000e-07	-3.082226e-06	-3.208854e-09	-2.302053e+01	-2.145790e+02
7.800000e-07	-3.061776e-06	-3.209407e-09	-2.286780e+01	-2.141021e+02
7.900000e-07	-3.041074e-06	-3.200365e-09	-2.271318e+01	-2.136165e+02
8.000000e-07	-3.020133e-06	-3.184955e-09	-2.255677e+01	-2.131223e+02
8.100000e-07	-2.998953e-06	-3.171473e-09	-2.239858e+01	-2.126192e+02
8.200000e-07	-2.977505e-06	-3.166556e-09	-2.223840e+01	-2.121071e+02
8.300000e-07	-2.955885e-06	-3.165788e-09	-2.207692e+01	-2.115860e+02
8.400000e-07	-2.934042e-06	-3.155512e-09	-2.191378e+01	-2.110556e+02
8.500000e-07	-2.911996e-06	-3.131525e-09	-2.174912e+01	-2.105158e+02
8.600000e-07	-2.889826e-06	-3.122974e-09	-2.158354e+01	-2.099665e+02
8.700000e-07	-2.867518e-06	-3.127271e-09	-2.141692e+01	-2.094076e+02
8.800000e-07	-2.845056e-06	-3.123176e-09	-2.124916e+01	-2.088387e+02
8.900000e-07	-2.822314e-06	-3.099744e-09	-2.107930e+01	-2.082599e+02
9.000000e-07	-2.799206e-06	-3.088141e-09	-2.090672e+01	-2.076709e+02
9.100000e-07	-2.775844e-06	-3.089007e-09	-2.073223e+01	-2.070714e+02
9.200000e-07	-2.752395e-06	-3.085206e-09	-2.055709e+01	-2.064614e+02
9.300000e-07	-2.728754e-06	-3.063890e-09	-2.038053e+01	-2.058405e+02
9.400000e-07	-2.704882e-06	-3.047324e-09	-2.020223e+01	-2.052087e+02
9.500000e-07	-2.680904e-06	-3.039468e-09	-2.002314e+01	-2.045656e+02
9.600000e-07	-2.656812e-06	-3.033962e-09	-1.984320e+01	-2.039110e+02
9.700000e-07	-2.632602e-06	-3.021051e-09	-1.966238e+01	-2.032448e+02
9.800000e-07	-2.608366e-06	-3.009548e-09	-1.948137e+01	-2.025667e+02
9.900000e-07	-2.584077e-06	-2.998719e-09	-1.929996e+01	-2.018763e+02
1.000000e-06	-2.559553e-06	-2.989791e-09	-1.911680e+01	-2.011736e+02
1.010000e-06	-2.534856e-06	-2.978012e-09	-1.893233e+01	-2.004582e+02
1.020000e-06	-2.510031e-06	-2.962668e-09	-1.874692e+01	-1.997299e+02
1.030000e-06	-2.484915e-06	-2.946696e-09	-1.855934e+01	-1.989885e+02
1.040000e-06	-2.459429e-06	-2.936767e-09	-1.836899e+01	-1.982337e+02
1.050000e-06	-2.433555e-06	-2.925746e-09	-1.817574e+01	-1.974653e+02
1.060000e-06	-2.407284e-06	-2.908008e-09	-1.797953e+01	-1.966831e+02
1.070000e-06	-2.380727e-06	-2.891046e-09	-1.778118e+01	-1.958867e+02
1.080000e-06	-2.353925e-06	-2.881706e-09	-1.758100e+01	-1.950761e+02
1.090000e-06	-2.326806e-06	-2.871472e-09	-1.737845e+01	-1.942510e+02
1.100000e-06	-2.299542e-06	-2.854507e-09	-1.717483e+01	-1.934112e+02
1.110000e-06	-2.272146e-06	-2.838286e-09	-1.697021e+01	-1.925565e+02
1.120000e-06	-2.244524e-06	-2.824396e-09	-1.676391e+01	-1.916867e+02
1.130000e-06	-2.216756e-06	-2.810861e-09	-1.655651e+01	-1.908016e+02
1.140000e-06	-2.188885e-06	-2.792306e-09	-1.634835e+01	-1.899012e+02
1.150000e-06	-2.160955e-06	-2.775050e-09	-1.613975e+01	-1.889853e+02
1.160000e-06	-2.132945e-06	-2.760532e-09	-1.593055e+01	-1.880537e+02
1.170000e-06	-2.104849e-06	-2.747889e-09	-1.572070e+01	-1.871064e+02
1.180000e-06	-2.076728e-06	-2.736836e-09	-1.551067e+01	-1.861431e+02
1.190000e-06	-2.048484e-06	-2.724999e-09	-1.529972e+01	-1.851639e+02
1.200000e-06	-2.020108e-06	-2.709518e-09	-1.508779e+01	-1.841687e+02
1.210000e-06	-1.991715e-06	-2.696660e-09	-1.487572e+01	-1.831573e+02
1.220000e-06	-1.963229e-06	-2.680938e-09	-1.466297e+01	-1.821297e+02
1.230000e-06	-1.934564e-06	-2.664217e-09	-1.444888e+01	-1.810859e+02
1.240000e-06	-1.905667e-06	-2.646567e-09	-1.423305e+01	-1.800258e+02
1.250000e-06	-1.876593e-06	-2.631276e-09	-1.401590e+01	-1.789492e+02
1.260000e-06	-1.847369e-06	-2.614112e-09	-1.379763e+01	-1.778562e+02
1.270000e-06	-1.818055e-06	-2.599350e-09	-1.357870e+01	-1.767467e+02
1.280000e-06	-1.788602e-06	-2.583038e-09	-1.335872e+01	-1.756205e+02
1.290000e-06	-1.758897e-06	-2.565853e-09	-1.313685e+01	-1.744776e+02
1.300000e-06	-1.729096e-06	-2.550818e-09	-1.291428e+01	-1.733178e+02
1.310000e-06	-1.699252e-06	-2.534667e-09	-1.269138e+01	-1.721410e+02
1.320000e-06	-1.669341e-06	-2.515236e-09	-1.246798e+01	-1.709470e+02
1.330000e-06	-1.639298e-06	-2.495995e-09	-1.224359e+01	-1.697357e+02
1.340000e-06	-1.609164e-06	-2.480102e-09	-1.201853e+01	-1.685066e+02
1.350000e-06	-1.578969e-06	-2.462548e-09	-1.179300e+01	-1.672597e+02
1.360000e-06	-1.548647e-06	-2.442373e-09	-1.156654e+01	-1.659945e+02
1.370000e-06	-1.518319e-06	-2.421027e-09	-1.134002e+01	-1.647107e+02
1.380000e-06	-1.487975e-06	-2.400849e-09	-1.111339e+01	-1.634078e+02
1.390000e-06	-1.457483e-06	-2.378069e-09	-1.088565e+01	-1.620853e+02
1.400000e-06	-1.426869e-06	-2.358471e-09	-1.065700e+01	-1.607427e+02
1.410000e-06	-1.396196e-06	-2.337646e-09	-1.042792e+01	-1.593794e+02
1.420000e-06	-1.365459e-06	-2.315619e-09	-1.019835e+01	-1.579947e+02
1.430000e-06	-1.334582e-06	-2.294894e-09	-9.967726e+00	-1.565878e+02
1.440000e-06	-1.303517e-06	-2.275360e-09	-9.735710e+00	-1.551579e+02
1.450000e-06	-1.272208e-06	-2.254098e-09	-9.501868e+00	-1.537041e+02
1.460000e-06	-1.240836e-06	-2.229150e-09	-9.267560e+00	-1.522255e+02
1.470000e-06	-1.209464e-06	-2.204425e-09	-9.033245e+00	-1.507209e+02
1.480000e-06	-1.177946e-06	-2.180160e-09	-8.797844e+00	-1.491894e+02
1.490000e-06	-1.146318e-06	-2.158167e-09	-8.561625e+00	-1.476297e+02
1.500000e-06	-1.114588e-06	-2.136439e-09	-8.324638e+00	-1.460406e+02
1.510000e-06	-1.082835e-06	-2.111580e-09	-8.087484e+00	-1.444208e+02
1.520000e-06	-1.051039e-06	-2.084526e-09	-7.850005e+00	-1.427688e+02
1.530000e-06	-1.019184e-06	-2.059780e-09	-7.612087e+00	-1.410833e+02
1.540000e-06	-9.873204e-07	-2.034968e-09	-7.374101e+00	-1.393627e+02
1.550000e-06	-9.554028e-07	-2.007285e-09	-7.135715e+00	-1.376056e+02
1.560000e-06	-9.234391e-07	-1.978622e-09	-6.896984e+00	-1.358104e+02
1.570000e-06	-8.914552e-07	-1.949688e-09	-6.658103e+00	-1.339754e+02
1.580000e-06	-8.594016e-07	-1.922186e-09	-6.418701e+00	-1.320991e+02
1.590000e-06	-8.272841e-07	-1.894033e-09	-6.178821e+00	-1.301798e+02
1.600000e-06	-7.952018e-07	-1.864926e-09	-5.939205e+00	-1.282158e+02
1.610000e-06	-7.631050e-07	-1.835606e-09	-5.699480e+00	-1.262055e+02
1.620000e-06	-7.309706e-07	-1.804572e-09	-5.459475e+00	-1.241473e+02
1.630000e-06	-6.988372e-07	-1.770459e-09	-5.219477e+00	-1.220396e+02
1.640000e-06	-6.666604e-07	-1.736261e-09	-4.979155e+00	-1.198807e+02
1.650000e-06	-6.344585e-07	-1.701994e-09	-4.738645e+00	-1.176692e+02
1.660000e-06	-6.022612e-07	-1.666952e-09	-4.498170e+00	-1.154036e+02
1.670000e-06	-5.700165e-07	-1.630467e-09	-4.257340e+00	-1.130826e+02
1.680000e-06	-5.377766e-07	-1.595796e-09	-4.016547e+00	-1.107046e+02
1.690000e-06	-5.055822e-07	-1.559865e-09	-3.776093e+00	-1.082687e+02
1.700000e-06	-4.732903e-07	-1.521573e-09	-3.534912e+00	-1.057736e+02
1.710000e-06	-4.409021e-07	-1.482040e-09	-3.293010e+00	-1.032184e+02
1.720000e-06	-4.085348e-07	-1.444818e-09	-3.051266e+00	-1.006021e+02
1.730000e-06	-3.761258e-07	-1.407864e-09	-2.809209e+00	-9.792405e+01
1.740000e-06	-3.436478e-07	-1.367300e-09	-2.566637e+00	-9.518366e+01
1.750000e-06	-3.112662e-07	-1.324765e-09	-2.324786e+00	-9.238049e+01
1.760000e-06	-2.789711e-07	-1.283265e-09	-2.083580e+00	-8.951428e+01
1.770000e-06	-2.465873e-07	-1.242956e-09	-1.841712e+00	-8.658493e+01
1.780000e-06	-2.140938e-07	-1.200365e-09	-1.599024e+00	-8.359253e+01
1.790000e-06	-1.816121e-07	-1.157151e-09	-1.356425e+00	-8.053736e+01
1.800000e-06	-1.491498e-07	-1.113161e-09	-1.113970e+00	-7.741988e+01
1.810000e-06	-1.166907e-07	-1.068088e-09	-8.715395e-01	-7.424077e+01
1.820000e-06	-8.420970e-08	-1.021100e-09	-6.289456e-01	-7.100088e+01
1.830000e-06	-5.174897e-08	-9.742113e-10	-3.865028e-01	-6.770129e+01
1.840000e-06	-1.932054e-08	-9.246266e-10	-1.443013e-01	-6.434326e+01
1.850000e-06	1.318919e-08	-8.748454e-10	9.850743e-02	-6.092826e+01
1.860000e-06	4.572498e-08	-8.286697e-10	3.415108e-01	-5.745796e+01
1.870000e-06	7.829773e-08	-7.805834e-10	5.847903e-01	-5.393424e+01
1.880000e-06	1.108962e-07	-7.278293e-10	8.282616e-01	-5.035914e+01
1.890000e-06	1.434657e-07	-6.746445e-10	1.071517e+00	-4.673492e+01
1.900000e-06	1.760008e-07	-6.223770e-10	1.314515e+00	-4.306401e+01
1.910000e-06	2.084767e-07	-5.697130e-10	1.557071e+00	-3.934903e+01
1.920000e-06	2.409516e-07	-5.166837e-10	1.799620e+00	-3.559273e+01
1.930000e-06	2.733847e-07	-4.607822e-10	2.041856e+00	-3.179804e+01
1.940000e-06	3.058027e-07	-4.028851e-10	2.283980e+00	-2.796805e+01
1.950000e-06	3.382785e-07	-3.490567e-10	2.526535e+00	-2.410595e+01
1.960000e-06	3.706813e-07	-2.947647e-10	2.768546e+00	-2.021508e+01
1.970000e-06	4.030473e-07	-2.373671e-10	3.010281e+00	-1.629888e+01
1.980000e-06	4.354163e-07	-1.797717e-10	3.252038e+00	-1.236087e+01
1.990000e-06	4.677221e-07	-1.226062e-10	3.493324e+00	-8.404663e+00
2.000000e-06	5.000388e-07	-6.545154e-11	3.734691e+00	-4.433946e+00
2.010000e-06	5.323256e-07	-6.199173e-12	3.975835e+00	-4.524438e-01
2.020000e-06	5.645827e-07	5.224985e-11	4.216756e+00	3.536082e+00
2.030000e-06	5.968299e-07	1.105758e-10	4.457604e+00	7.527848e+00
2.040000e-06	6.290155e-07	1.690082e-10	4.697992e+00	1.151907e+01
2.050000e-06	6.611658e-07	2.269530e-10	4.938116e+00	1.550598e+01
2.060000e-06	6.932752e-07	2.850880e-10	5.177935e+00	1.948482e+01
2.070000e-06	7.253530e-07	3.409754e-10	5.417518e+00	2.345191e+01
2.080000e-06	7.574504e-07	3.935709e-10	5.657247e+00	2.740359e+01
2.090000e-06	7.895634e-07	4.463670e-10	5.897093e+00	3.133629e+01
2.100000e-06	8.216453e-07	5.019250e-10	6.136706e+00	3.524654e+01
2.110000e-06	8.537017e-07	5.599461e-10	6.376130e+00	3.913094e+01
2.120000e-06	8.857580e-07	6.170692e-10	6.615552e+00	4.298623e+01
2.130000e-06	9.177640e-07	6.728371e-10	6.854598e+00	4.680926e+01
2.140000e-06	9.497327e-07	7.279040e-10	7.093366e+00	5.059702e+01
2.150000e-06	9.816982e-07	7.807800e-10	7.332110e+00	5.434663e+01
2.160000e-06	1.013615e-06	8.321866e-10	7.570493e+00	5.805539e+01
2.170000e-06	1.045442e-06	8.831537e-10	7.808201e+00	6.172074e+01
2.180000e-06	1.077271e-06	9.329076e-10	8.045927e+00	6.534030e+01
2.190000e-06	1.109097e-06	9.825719e-10	8.283627e+00	6.891186e+01
2.200000e-06	1.140851e-06	1.033299e-09	8.520792e+00	7.243337e+01
2.210000e-06	1.172519e-06	1.083207e-09	8.757310e+00	7.590301e+01
2.220000e-06	1.204053e-06	1.132604e-09	8.992837e+00	7.931908e+01
2.230000e-06	1.235389e-06	1.184079e-09	9.226877e+00	8.268012e+01
2.240000e-06	1.266536e-06	1.232765e-09	9.459505e+00	8.598483e+01
2.250000e-06	1.297566e-06	1.276951e-09	9.691265e+00	8.923208e+01
2.260000e-06	1.328563e-06	1.320330e-09	9.922774e+00	9.242096e+01
2.270000e-06	1.359499e-06	1.363095e-09	1.015383e+01	9.555070e+01
2.280000e-06	1.390279e-06	1.407838e-09	1.038372e+01	9.862072e+01
2.290000e-06	1.420917e-06	1.452678e-09	1.061255e+01	1.016306e+02
2.300000e-06	1.451419e-06	1.494142e-09	1.084036e+01	1.045801e+02
2.310000e-06	1.481868e-06	1.534628e-09	1.106778e+01	1.074692e+02
2.320000e-06	1.512238e-06	1.577829e-09	1.129461e+01	1.102979e+02
2.330000e-06	1.542513e-06	1.620636e-09	1.152072e+01	1.130663e+02
2.340000e-06	1.572747e-06	1.659154e-09	1.174654e+01	1.157749e+02
2.350000e-06	1.602934e-06	1.694796e-09	1.197200e+01	1.184240e+02
2.360000e-06	1.632991e-06	1.734288e-09	1.219649e+01	1.210143e+02
2.370000e-06	1.662971e-06	1.773520e-09	1.242040e+01	1.235464e+02
2.380000e-06	1.692897e-06	1.808699e-09	1.264392e+01	1.260211e+02
2.390000e-06	1.722650e-06	1.841093e-09	1.286613e+01	1.284393e+02
2.400000e-06	1.752282e-06	1.874833e-09	1.308745e+01	1.308019e+02
2.410000e-06	1.781794e-06	1.911505e-09	1.330787e+01	1.331098e+02
2.420000e-06	1.811160e-06	1.945160e-09	1.352719e+01	1.353642e+02
2.430000e-06	1.840436e-06	1.977556e-09	1.374585e+01	1.375661e+02
2.440000e-06	1.869538e-06	2.013359e-09	1.396321e+01	1.397167e+02
2.450000e-06	1.898422e-06	2.048519e-09	1.417894e+01	1.418171e+02
2.460000e-06	1.927160e-06	2.077276e-09	1.439358e+01	1.438685e+02
2.470000e-06	1.955845e-06	2.101869e-09	1.460782e+01	1.458722e+02
2.480000e-06	1.984349e-06	2.128273e-09	1.482071e+01	1.478293e+02
2.490000e-06	2.012634e-06	2.155686e-09	1.503197e+01	1.497410e+02
2.500000e-06	2.040836e-06	2.181538e-09	1.524260e+01	1.516086e+02
2.510000e-06	2.068997e-06	2.208670e-09	1.545293e+01	1.534331e+02
2.520000e-06	2.097138e-06	2.237570e-09	1.566311e+01	1.552158e+02
2.530000e-06	2.125237e-06	2.266181e-09	1.587297e+01	1.569579e+02
2.540000e-06	2.153307e-06	2.293074e-09	1.608263e+01	1.586603e+02
2.550000e-06	2.181271e-06	2.318928e-09	1.629148e+01	1.603242e+02
2.560000e-06	2.209148e-06	2.342408e-09	1.649969e+01	1.619506e+02
2.570000e-06	2.236949e-06	2.364965e-09	1.670733e+01	1.635406e+02
2.580000e-06	2.264614e-06	2.388036e-09	1.691395e+01	1.650952e+02
2.590000e-06	2.292131e-06	2.410328e-09	1.711947e+01	1.666151e+02
2.600000e-06	2.319396e-06	2.434542e-09	1.732311e+01	1.681014e+02
2.610000e-06	2.346414e-06	2.461946e-09	1.752490e+01	1.695550e+02
2.620000e-06	2.373160e-06	2.486805e-09	1.772466e+01	1.709766e+02
2.630000e-06	2.399570e-06	2.506970e-09	1.792191e+01	1.723670e+02
2.640000e-06	2.425616e-06	2.529019e-09	1.811645e+01	1.737270e+02
2.650000e-06	2.451371e-06	2.553235e-09	1.830880e+01	1.750574e+02
2.660000e-06	2.476844e-06	2.574544e-09	1.849906e+01	1.763587e+02
2.670000e-06	2.502050e-06	2.594922e-09	1.868732e+01	1.776318e+02
2.680000e-06	2.527060e-06	2.613507e-09	1.887411e+01	1.788771e+02
2.690000e-06	2.551742e-06	2.635104e-09	1.905846e+01	1.800955e+02
2.700000e-06	2.576118e-06	2.655516e-09	1.924052e+01	1.812873e+02
2.710000e-06	2.600340e-06	2.674313e-09	1.942142e+01	1.824533e+02
2.720000e-06	2.624488e-06	2.691342e-09	1.960178e+01	1.835941e+02
2.730000e-06	2.648558e-06	2.705730e-09	1.978155e+01	1.847101e+02
2.740000e-06	2.672490e-06	2.720607e-09	1.996030e+01	1.858019e+02
2.750000e-06	2.696288e-06	2.736918e-09	2.013804e+01	1.868700e+02
2.760000e-06	2.719914e-06	2.755095e-09	2.031450e+01	1.879151e+02
2.770000e-06	2.743384e-06	2.770765e-09	2.048979e+01	1.889376e+02
2.780000e-06	2.766662e-06	2.786117e-09	2.066365e+01	1.899380e+02
2.790000e-06	2.789683e-06	2.806069e-09	2.083559e+01	1.909170e+02
2.800000e-06	2.812438e-06	2.824489e-09	2.100554e+01	1.918750e+02
2.810000e-06	2.835033e-06	2.839395e-09	2.117430e+01	1.928125e+02
2.820000e-06	2.857467e-06	2.855398e-09	2.134186e+01	1.937302e+02
2.830000e-06	2.879711e-06	2.874942e-09	2.150799e+01	1.946284e+02
2.840000e-06	2.901860e-06	2.894017e-09	2.167342e+01	1.955079e+02
2.850000e-06	2.923800e-06	2.905311e-09	2.183728e+01	1.963691e+02
2.860000e-06	2.945515e-06	2.917916e-09	2.199947e+01	1.972126e+02
2.870000e-06	2.967117e-06	2.932288e-09	2.216081e+01	1.980388e+02
2.880000e-06	2.988579e-06	2.946563e-09	2.232110e+01	1.988485e+02
2.890000e-06	3.009709e-06	2.960725e-09	2.247892e+01	1.996420e+02
2.900000e-06	3.030457e-06	2.976669e-09	2.263388e+01	2.004200e+02
