# Temperatura_=_20.0
# Concentracion g/m^3_=_9000.0
# C_Vs_to_Am_M_A/Vsm_=_65563218390.804596
# pendiente_HvsI_1/m_=_3716.3
# ordenada_HvsI_A/m_=_1297.0
# frecuencia_Hz_=_135000.5224611844

Tiempo_(s)	Campo_(V.s)	Magnetizacion_(V.s)	Campo_(kA/m)	Magnetizacion_(A/m)
0.000000e+00	-3.902377e-06	-3.459140e-09	-2.915180e+01	-2.293235e+02
1.000000e-08	-3.902390e-06	-3.456126e-09	-2.915190e+01	-2.293663e+02
2.000000e-08	-3.902283e-06	-3.457856e-09	-2.915110e+01	-2.294019e+02
3.000000e-08	-3.902004e-06	-3.459193e-09	-2.914901e+01	-2.294302e+02
4.000000e-08	-3.901364e-06	-3.446862e-09	-2.914423e+01	-2.294510e+02
5.000000e-08	-3.900371e-06	-3.422657e-09	-2.913682e+01	-2.294641e+02
6.000000e-08	-3.899033e-06	-3.417955e-09	-2.912682e+01	-2.294695e+02
7.000000e-08	-3.897181e-06	-3.449383e-09	-2.911299e+01	-2.294669e+02
8.000000e-08	-3.894810e-06	-3.473097e-09	-2.909527e+01	-2.294565e+02
9.000000e-08	-3.891931e-06	-3.523118e-09	-2.907376e+01	-2.294379e+02
1.000000e-07	-3.888664e-06	-3.546400e-09	-2.904936e+01	-2.294111e+02
1.100000e-07	-3.885166e-06	-3.509103e-09	-2.902323e+01	-2.293761e+02
1.200000e-07	-3.881529e-06	-3.467279e-09	-2.899606e+01	-2.293328e+02
1.300000e-07	-3.877716e-06	-3.413493e-09	-2.896758e+01	-2.292812e+02
1.400000e-07	-3.873734e-06	-3.420778e-09	-2.893783e+01	-2.292212e+02
1.500000e-07	-3.869646e-06	-3.473223e-09	-2.890729e+01	-2.291528e+02
1.600000e-07	-3.865376e-06	-3.519454e-09	-2.887539e+01	-2.290761e+02
1.700000e-07	-3.860852e-06	-3.469202e-09	-2.884159e+01	-2.289911e+02
1.800000e-07	-3.856082e-06	-3.421867e-09	-2.880596e+01	-2.288979e+02
1.900000e-07	-3.850975e-06	-3.453388e-09	-2.876781e+01	-2.287965e+02
2.000000e-07	-3.845477e-06	-3.519202e-09	-2.872675e+01	-2.286870e+02
2.100000e-07	-3.839724e-06	-3.509990e-09	-2.868376e+01	-2.285697e+02
2.200000e-07	-3.833729e-06	-3.452056e-09	-2.863898e+01	-2.284446e+02
2.300000e-07	-3.827478e-06	-3.450049e-09	-2.859228e+01	-2.283119e+02
2.400000e-07	-3.820959e-06	-3.477722e-09	-2.854358e+01	-2.281717e+02
2.500000e-07	-3.814175e-06	-3.511070e-09	-2.849291e+01	-2.280243e+02
2.600000e-07	-3.807127e-06	-3.495847e-09	-2.844026e+01	-2.278698e+02
2.700000e-07	-3.799786e-06	-3.444494e-09	-2.838542e+01	-2.277086e+02
2.800000e-07	-3.792236e-06	-3.408110e-09	-2.832902e+01	-2.275407e+02
2.900000e-07	-3.784493e-06	-3.483360e-09	-2.827118e+01	-2.273665e+02
3.000000e-07	-3.776540e-06	-3.524042e-09	-2.821177e+01	-2.271862e+02
3.100000e-07	-3.768437e-06	-3.459036e-09	-2.815123e+01	-2.270000e+02
3.200000e-07	-3.760199e-06	-3.397779e-09	-2.808970e+01	-2.268081e+02
3.300000e-07	-3.751760e-06	-3.458223e-09	-2.802665e+01	-2.266109e+02
3.400000e-07	-3.742996e-06	-3.504898e-09	-2.796118e+01	-2.264084e+02
3.500000e-07	-3.733735e-06	-3.458041e-09	-2.789200e+01	-2.262009e+02
3.600000e-07	-3.724064e-06	-3.399694e-09	-2.781975e+01	-2.259886e+02
3.700000e-07	-3.713978e-06	-3.422200e-09	-2.774441e+01	-2.257718e+02
3.800000e-07	-3.703244e-06	-3.468726e-09	-2.766423e+01	-2.255504e+02
3.900000e-07	-3.692048e-06	-3.462841e-09	-2.758059e+01	-2.253248e+02
4.000000e-07	-3.680583e-06	-3.427014e-09	-2.749494e+01	-2.250951e+02
4.100000e-07	-3.668904e-06	-3.411308e-09	-2.740769e+01	-2.248613e+02
4.200000e-07	-3.657033e-06	-3.431309e-09	-2.731902e+01	-2.246235e+02
4.300000e-07	-3.644875e-06	-3.443093e-09	-2.722819e+01	-2.243818e+02
4.400000e-07	-3.632401e-06	-3.428377e-09	-2.713501e+01	-2.241361e+02
4.500000e-07	-3.619695e-06	-3.392389e-09	-2.704009e+01	-2.238866e+02
4.600000e-07	-3.606795e-06	-3.387210e-09	-2.694373e+01	-2.236331e+02
4.700000e-07	-3.593623e-06	-3.406045e-09	-2.684533e+01	-2.233757e+02
4.800000e-07	-3.580189e-06	-3.415889e-09	-2.674497e+01	-2.231141e+02
4.900000e-07	-3.566477e-06	-3.378431e-09	-2.664254e+01	-2.228484e+02
5.000000e-07	-3.552543e-06	-3.358229e-09	-2.653845e+01	-2.225784e+02
5.100000e-07	-3.538283e-06	-3.383231e-09	-2.643192e+01	-2.223038e+02
5.200000e-07	-3.523666e-06	-3.410789e-09	-2.632273e+01	-2.220246e+02
5.300000e-07	-3.508711e-06	-3.379155e-09	-2.621101e+01	-2.217405e+02
5.400000e-07	-3.493410e-06	-3.353086e-09	-2.609671e+01	-2.214513e+02
5.500000e-07	-3.477803e-06	-3.367048e-09	-2.598012e+01	-2.211568e+02
5.600000e-07	-3.461848e-06	-3.382164e-09	-2.586093e+01	-2.208566e+02
5.700000e-07	-3.445541e-06	-3.354347e-09	-2.573911e+01	-2.205505e+02
5.800000e-07	-3.428884e-06	-3.334411e-09	-2.561468e+01	-2.202383e+02
5.900000e-07	-3.411989e-06	-3.339609e-09	-2.548847e+01	-2.199196e+02
6.000000e-07	-3.394996e-06	-3.342844e-09	-2.536153e+01	-2.195942e+02
6.100000e-07	-3.377803e-06	-3.332226e-09	-2.523309e+01	-2.192618e+02
6.200000e-07	-3.360313e-06	-3.325969e-09	-2.510244e+01	-2.189220e+02
6.300000e-07	-3.342631e-06	-3.317271e-09	-2.497035e+01	-2.185745e+02
6.400000e-07	-3.324760e-06	-3.307219e-09	-2.483684e+01	-2.182192e+02
6.500000e-07	-3.306662e-06	-3.307643e-09	-2.470165e+01	-2.178557e+02
6.600000e-07	-3.288311e-06	-3.303812e-09	-2.456456e+01	-2.174838e+02
6.700000e-07	-3.269630e-06	-3.286519e-09	-2.442501e+01	-2.171031e+02
6.800000e-07	-3.250695e-06	-3.274989e-09	-2.428356e+01	-2.167136e+02
6.900000e-07	-3.231537e-06	-3.282455e-09	-2.414045e+01	-2.163149e+02
7.000000e-07	-3.212086e-06	-3.277466e-09	-2.399515e+01	-2.159069e+02
7.100000e-07	-3.192475e-06	-3.259925e-09	-2.384864e+01	-2.154894e+02
7.200000e-07	-3.172706e-06	-3.250227e-09	-2.370096e+01	-2.150623e+02
7.300000e-07	-3.152774e-06	-3.254540e-09	-2.355207e+01	-2.146253e+02
7.400000e-07	-3.132766e-06	-3.244435e-09	-2.340260e+01	-2.141785e+02
7.500000e-07	-3.112709e-06	-3.228309e-09	-2.325277e+01	-2.137217e+02
7.600000e-07	-3.092552e-06	-3.219481e-09	-2.310219e+01	-2.132548e+02
7.700000e-07	-3.072204e-06	-3.219261e-09	-2.295019e+01	-2.127779e+02
7.800000e-07	-3.051642e-06	-3.211514e-09	-2.279658e+01	-2.122908e+02
7.900000e-07	-3.030826e-06	-3.203478e-09	-2.264108e+01	-2.117936e+02
8.000000e-07	-3.009756e-06	-3.194924e-09	-2.248369e+01	-2.112862e+02
8.100000e-07	-2.988439e-06	-3.185730e-09	-2.232444e+01	-2.107688e+02
8.200000e-07	-2.966892e-06	-3.176174e-09	-2.216347e+01	-2.102412e+02
8.300000e-07	-2.945196e-06	-3.170205e-09	-2.200140e+01	-2.097037e+02
8.400000e-07	-2.923305e-06	-3.159040e-09	-2.183787e+01	-2.091561e+02
8.500000e-07	-2.901124e-06	-3.147109e-09	-2.167217e+01	-2.085987e+02
8.600000e-07	-2.878814e-06	-3.141412e-09	-2.150551e+01	-2.080314e+02
8.700000e-07	-2.856411e-06	-3.140376e-09	-2.133816e+01	-2.074543e+02
8.800000e-07	-2.833799e-06	-3.129117e-09	-2.116924e+01	-2.068674e+02
8.900000e-07	-2.810982e-06	-3.113836e-09	-2.099879e+01	-2.062709e+02
9.000000e-07	-2.787908e-06	-3.107980e-09	-2.082642e+01	-2.056648e+02
9.100000e-07	-2.764541e-06	-3.104338e-09	-2.065186e+01	-2.050490e+02
9.200000e-07	-2.740942e-06	-3.091582e-09	-2.047557e+01	-2.044236e+02
9.300000e-07	-2.717209e-06	-3.074284e-09	-2.029828e+01	-2.037886e+02
9.400000e-07	-2.693385e-06	-3.064250e-09	-2.012031e+01	-2.031441e+02
9.500000e-07	-2.669447e-06	-3.057775e-09	-1.994148e+01	-2.024899e+02
9.600000e-07	-2.645419e-06	-3.047348e-09	-1.976199e+01	-2.018260e+02
9.700000e-07	-2.621218e-06	-3.031159e-09	-1.958120e+01	-2.011523e+02
9.800000e-07	-2.596890e-06	-3.019190e-09	-1.939946e+01	-2.004687e+02
9.900000e-07	-2.572537e-06	-3.008916e-09	-1.921754e+01	-1.997751e+02
1.000000e-06	-2.547977e-06	-2.998763e-09	-1.903407e+01	-1.990714e+02
1.010000e-06	-2.523188e-06	-2.984507e-09	-1.884889e+01	-1.983573e+02
1.020000e-06	-2.498179e-06	-2.968270e-09	-1.866206e+01	-1.976326e+02
1.030000e-06	-2.472809e-06	-2.954528e-09	-1.847255e+01	-1.968971e+02
1.040000e-06	-2.447085e-06	-2.945635e-09	-1.828038e+01	-1.961506e+02
1.050000e-06	-2.421019e-06	-2.929031e-09	-1.808566e+01	-1.953928e+02
1.060000e-06	-2.394689e-06	-2.908723e-09	-1.788897e+01	-1.946233e+02
1.070000e-06	-2.368049e-06	-2.893118e-09	-1.768996e+01	-1.938419e+02
1.080000e-06	-2.341085e-06	-2.884877e-09	-1.748853e+01	-1.930482e+02
1.090000e-06	-2.313925e-06	-2.876252e-09	-1.728564e+01	-1.922418e+02
1.100000e-06	-2.286521e-06	-2.860336e-09	-1.708092e+01	-1.914224e+02
1.110000e-06	-2.258985e-06	-2.843654e-09	-1.687522e+01	-1.905896e+02
1.120000e-06	-2.231370e-06	-2.831105e-09	-1.666893e+01	-1.897430e+02
1.130000e-06	-2.203600e-06	-2.816915e-09	-1.646148e+01	-1.888822e+02
1.140000e-06	-2.175754e-06	-2.797445e-09	-1.625346e+01	-1.880067e+02
1.150000e-06	-2.147835e-06	-2.779441e-09	-1.604490e+01	-1.871163e+02
1.160000e-06	-2.119783e-06	-2.765366e-09	-1.583535e+01	-1.862104e+02
1.170000e-06	-2.091636e-06	-2.752806e-09	-1.562508e+01	-1.852886e+02
1.180000e-06	-2.063449e-06	-2.742172e-09	-1.541452e+01	-1.843507e+02
1.190000e-06	-2.035248e-06	-2.728258e-09	-1.520385e+01	-1.833961e+02
1.200000e-06	-2.006961e-06	-2.709120e-09	-1.499253e+01	-1.824245e+02
1.210000e-06	-1.978471e-06	-2.692219e-09	-1.477971e+01	-1.814355e+02
1.220000e-06	-1.949771e-06	-2.675115e-09	-1.456531e+01	-1.804288e+02
1.230000e-06	-1.920945e-06	-2.658234e-09	-1.434997e+01	-1.794040e+02
1.240000e-06	-1.892034e-06	-2.639954e-09	-1.413400e+01	-1.783607e+02
1.250000e-06	-1.862991e-06	-2.624493e-09	-1.391704e+01	-1.772987e+02
1.260000e-06	-1.833753e-06	-2.607708e-09	-1.369863e+01	-1.762176e+02
1.270000e-06	-1.804342e-06	-2.589671e-09	-1.347892e+01	-1.751172e+02
1.280000e-06	-1.774793e-06	-2.571110e-09	-1.325818e+01	-1.739971e+02
1.290000e-06	-1.745071e-06	-2.554774e-09	-1.303615e+01	-1.728570e+02
1.300000e-06	-1.715253e-06	-2.536462e-09	-1.281340e+01	-1.716967e+02
1.310000e-06	-1.685386e-06	-2.516043e-09	-1.259029e+01	-1.705159e+02
1.320000e-06	-1.655386e-06	-2.496967e-09	-1.236618e+01	-1.693144e+02
1.330000e-06	-1.625322e-06	-2.480619e-09	-1.214159e+01	-1.680917e+02
1.340000e-06	-1.595176e-06	-2.462419e-09	-1.191639e+01	-1.668478e+02
1.350000e-06	-1.564929e-06	-2.440886e-09	-1.169044e+01	-1.655823e+02
1.360000e-06	-1.534581e-06	-2.420802e-09	-1.146373e+01	-1.642948e+02
1.370000e-06	-1.504181e-06	-2.402495e-09	-1.123663e+01	-1.629851e+02
1.380000e-06	-1.473740e-06	-2.381798e-09	-1.100923e+01	-1.616528e+02
1.390000e-06	-1.443221e-06	-2.358403e-09	-1.078125e+01	-1.602976e+02
1.400000e-06	-1.412608e-06	-2.337926e-09	-1.055256e+01	-1.589190e+02
1.410000e-06	-1.381889e-06	-2.316614e-09	-1.032308e+01	-1.575167e+02
1.420000e-06	-1.350941e-06	-2.294354e-09	-1.009189e+01	-1.560900e+02
1.430000e-06	-1.319889e-06	-2.271737e-09	-9.859924e+00	-1.546386e+02
1.440000e-06	-1.288865e-06	-2.251182e-09	-9.628168e+00	-1.531619e+02
1.450000e-06	-1.257727e-06	-2.228036e-09	-9.395554e+00	-1.516592e+02
1.460000e-06	-1.226478e-06	-2.202439e-09	-9.162116e+00	-1.501299e+02
1.470000e-06	-1.195068e-06	-2.175600e-09	-8.927480e+00	-1.485732e+02
1.480000e-06	-1.163561e-06	-2.152014e-09	-8.692116e+00	-1.469883e+02
1.490000e-06	-1.132029e-06	-2.132151e-09	-8.456557e+00	-1.453745e+02
1.500000e-06	-1.100460e-06	-2.111482e-09	-8.220730e+00	-1.437308e+02
1.510000e-06	-1.068826e-06	-2.086273e-09	-7.984414e+00	-1.420561e+02
1.520000e-06	-1.037092e-06	-2.058815e-09	-7.747358e+00	-1.403496e+02
1.530000e-06	-1.005290e-06	-2.030907e-09	-7.509787e+00	-1.386100e+02
1.540000e-06	-9.734641e-07	-2.005743e-09	-7.272037e+00	-1.368363e+02
1.550000e-06	-9.415976e-07	-1.979046e-09	-7.033986e+00	-1.350271e+02
1.560000e-06	-9.096833e-07	-1.948662e-09	-6.795577e+00	-1.331814e+02
1.570000e-06	-8.777665e-07	-1.918990e-09	-6.557151e+00	-1.312976e+02
1.580000e-06	-8.458064e-07	-1.892495e-09	-6.318400e+00	-1.293746e+02
1.590000e-06	-8.138106e-07	-1.864971e-09	-6.079383e+00	-1.274109e+02
1.600000e-06	-7.818088e-07	-1.833871e-09	-5.840321e+00	-1.254051e+02
1.610000e-06	-7.497801e-07	-1.803428e-09	-5.601058e+00	-1.233557e+02
1.620000e-06	-7.177029e-07	-1.772958e-09	-5.361433e+00	-1.212613e+02
1.630000e-06	-6.855887e-07	-1.739150e-09	-5.121531e+00	-1.191204e+02
1.640000e-06	-6.534057e-07	-1.701869e-09	-4.881115e+00	-1.169316e+02
1.650000e-06	-6.211614e-07	-1.666862e-09	-4.640242e+00	-1.146935e+02
1.660000e-06	-5.889434e-07	-1.633870e-09	-4.399565e+00	-1.124046e+02
1.670000e-06	-5.567347e-07	-1.599599e-09	-4.158957e+00	-1.100637e+02
1.680000e-06	-5.244733e-07	-1.564915e-09	-3.917956e+00	-1.076692e+02
1.690000e-06	-4.921489e-07	-1.529647e-09	-3.676484e+00	-1.052201e+02
1.700000e-06	-4.598617e-07	-1.492731e-09	-3.435290e+00	-1.027152e+02
1.710000e-06	-4.275790e-07	-1.454798e-09	-3.194130e+00	-1.001532e+02
1.720000e-06	-3.952179e-07	-1.415690e-09	-2.952384e+00	-9.753337e+01
1.730000e-06	-3.628184e-07	-1.375496e-09	-2.710350e+00	-9.485469e+01
1.740000e-06	-3.304343e-07	-1.332716e-09	-2.468433e+00	-9.211643e+01
1.750000e-06	-2.980722e-07	-1.290271e-09	-2.226679e+00	-8.931798e+01
1.760000e-06	-2.657123e-07	-1.249494e-09	-1.984942e+00	-8.645887e+01
1.770000e-06	-2.332401e-07	-1.208309e-09	-1.742366e+00	-8.353877e+01
1.780000e-06	-2.006602e-07	-1.166051e-09	-1.498986e+00	-8.055755e+01
1.790000e-06	-1.680765e-07	-1.124746e-09	-1.255577e+00	-7.751521e+01
1.800000e-06	-1.355551e-07	-1.081589e-09	-1.012633e+00	-7.441199e+01
1.810000e-06	-1.030873e-07	-1.033861e-09	-7.700899e-01	-7.124827e+01
1.820000e-06	-7.066767e-08	-9.853146e-10	-5.279064e-01	-6.802465e+01
1.830000e-06	-3.818813e-08	-9.375207e-10	-2.852756e-01	-6.474194e+01
1.840000e-06	-5.585676e-09	-8.889666e-10	-4.172650e-02	-6.140114e+01
1.850000e-06	2.694700e-08	-8.400070e-10	2.013013e-01	-5.800346e+01
1.860000e-06	5.938688e-08	-7.917001e-10	4.436359e-01	-5.455033e+01
1.870000e-06	9.184322e-08	-7.430576e-10	6.860935e-01	-5.104337e+01
1.880000e-06	1.243479e-07	-6.927686e-10	9.289118e-01	-4.748444e+01
1.890000e-06	1.568341e-07	-6.408594e-10	1.171592e+00	-4.387557e+01
1.900000e-06	1.893109e-07	-5.881021e-10	1.414203e+00	-4.021902e+01
1.910000e-06	2.217925e-07	-5.342807e-10	1.656849e+00	-3.651723e+01
1.920000e-06	2.542693e-07	-4.804028e-10	1.899460e+00	-3.277283e+01
1.930000e-06	2.867269e-07	-4.250194e-10	2.141927e+00	-2.898864e+01
1.940000e-06	3.191301e-07	-3.680089e-10	2.383987e+00	-2.516764e+01
1.950000e-06	3.514457e-07	-3.115543e-10	2.625393e+00	-2.131297e+01
1.960000e-06	3.837727e-07	-2.575324e-10	2.866885e+00	-1.742794e+01
1.970000e-06	4.161906e-07	-2.027070e-10	3.109055e+00	-1.351598e+01
1.980000e-06	4.485985e-07	-1.446544e-10	3.351151e+00	-9.580634e+00
1.990000e-06	4.809553e-07	-8.735672e-11	3.592865e+00	-5.625572e+00
2.000000e-06	5.132114e-07	-3.108317e-11	3.833826e+00	-1.654546e+00
2.010000e-06	5.453588e-07	2.588427e-11	4.073976e+00	2.328611e+00
2.020000e-06	5.774866e-07	8.158536e-11	4.313980e+00	6.320010e+00
2.030000e-06	6.096351e-07	1.376052e-10	4.554138e+00	1.031572e+01
2.040000e-06	6.417810e-07	1.937900e-10	4.794276e+00	1.431178e+01
2.050000e-06	6.739178e-07	2.524470e-10	5.034347e+00	1.830422e+01
2.060000e-06	7.060604e-07	3.125402e-10	5.274460e+00	2.228910e+01
2.070000e-06	7.381566e-07	3.687000e-10	5.514227e+00	2.626248e+01
2.080000e-06	7.702043e-07	4.210376e-10	5.753632e+00	3.022049e+01
2.090000e-06	8.022742e-07	4.728787e-10	5.993203e+00	3.415930e+01
2.100000e-06	8.343233e-07	5.314412e-10	6.232618e+00	3.807519e+01
2.110000e-06	8.663151e-07	5.910123e-10	6.471606e+00	4.196450e+01
2.120000e-06	8.982719e-07	6.453227e-10	6.710332e+00	4.582371e+01
2.130000e-06	9.301985e-07	6.986148e-10	6.948832e+00	4.964941e+01
2.140000e-06	9.620457e-07	7.550711e-10	7.186739e+00	5.343834e+01
2.150000e-06	9.939031e-07	8.102563e-10	7.424722e+00	5.718738e+01
2.160000e-06	1.025788e-06	8.616017e-10	7.662911e+00	6.089358e+01
2.170000e-06	1.057556e-06	9.120270e-10	7.900223e+00	6.455417e+01
2.180000e-06	1.089249e-06	9.629616e-10	8.136981e+00	6.816655e+01
2.190000e-06	1.120931e-06	1.014866e-09	8.373658e+00	7.172834e+01
2.200000e-06	1.152548e-06	1.064851e-09	8.609844e+00	7.523732e+01
2.210000e-06	1.184049e-06	1.111706e-09	8.845159e+00	7.869151e+01
2.220000e-06	1.215401e-06	1.160176e-09	9.079371e+00	8.208911e+01
2.230000e-06	1.246640e-06	1.211735e-09	9.312736e+00	8.542854e+01
2.240000e-06	1.277795e-06	1.260752e-09	9.545471e+00	8.870845e+01
2.250000e-06	1.308835e-06	1.304323e-09	9.777346e+00	9.192767e+01
2.260000e-06	1.339790e-06	1.346722e-09	1.000859e+01	9.508526e+01
2.270000e-06	1.370634e-06	1.391298e-09	1.023901e+01	9.818048e+01
2.280000e-06	1.401373e-06	1.435387e-09	1.046863e+01	1.012128e+02
2.290000e-06	1.432063e-06	1.476106e-09	1.069790e+01	1.041819e+02
2.300000e-06	1.462725e-06	1.515258e-09	1.092695e+01	1.070876e+02
2.310000e-06	1.493229e-06	1.557783e-09	1.115482e+01	1.099300e+02
2.320000e-06	1.523557e-06	1.602419e-09	1.138138e+01	1.127093e+02
2.330000e-06	1.553765e-06	1.643597e-09	1.160704e+01	1.154258e+02
2.340000e-06	1.583843e-06	1.679674e-09	1.183173e+01	1.180802e+02
2.350000e-06	1.613886e-06	1.717905e-09	1.205616e+01	1.206731e+02
2.360000e-06	1.643930e-06	1.760076e-09	1.228059e+01	1.232052e+02
2.370000e-06	1.673884e-06	1.797040e-09	1.250436e+01	1.256777e+02
2.380000e-06	1.703708e-06	1.827986e-09	1.272715e+01	1.280915e+02
2.390000e-06	1.733360e-06	1.861766e-09	1.294866e+01	1.304477e+02
2.400000e-06	1.762879e-06	1.897893e-09	1.316918e+01	1.327477e+02
2.410000e-06	1.792273e-06	1.931788e-09	1.338876e+01	1.349927e+02
2.420000e-06	1.821533e-06	1.964274e-09	1.360734e+01	1.371841e+02
2.430000e-06	1.850731e-06	1.997720e-09	1.382546e+01	1.393233e+02
2.440000e-06	1.879789e-06	2.033298e-09	1.404253e+01	1.414119e+02
2.450000e-06	1.908727e-06	2.067590e-09	1.425870e+01	1.434512e+02
2.460000e-06	1.937461e-06	2.096325e-09	1.447335e+01	1.454428e+02
2.470000e-06	1.965927e-06	2.123180e-09	1.468600e+01	1.473881e+02
2.480000e-06	1.994288e-06	2.151594e-09	1.489787e+01	1.492887e+02
2.490000e-06	2.022579e-06	2.178752e-09	1.510921e+01	1.511461e+02
2.500000e-06	2.050728e-06	2.203792e-09	1.531948e+01	1.529616e+02
2.510000e-06	2.078798e-06	2.228093e-09	1.552917e+01	1.547368e+02
2.520000e-06	2.106857e-06	2.255392e-09	1.573879e+01	1.564729e+02
2.530000e-06	2.134850e-06	2.283396e-09	1.594790e+01	1.581714e+02
2.540000e-06	2.162816e-06	2.311622e-09	1.615682e+01	1.598334e+02
2.550000e-06	2.190760e-06	2.337715e-09	1.636556e+01	1.614602e+02
2.560000e-06	2.218566e-06	2.363876e-09	1.657328e+01	1.630530e+02
2.570000e-06	2.246240e-06	2.391336e-09	1.678001e+01	1.646129e+02
2.580000e-06	2.273875e-06	2.417149e-09	1.698646e+01	1.661408e+02
2.590000e-06	2.301378e-06	2.439427e-09	1.719191e+01	1.676378e+02
2.600000e-06	2.328638e-06	2.462243e-09	1.739555e+01	1.691047e+02
2.610000e-06	2.355681e-06	2.484926e-09	1.759757e+01	1.705424e+02
2.620000e-06	2.382346e-06	2.505103e-09	1.779677e+01	1.719517e+02
2.630000e-06	2.408635e-06	2.526553e-09	1.799315e+01	1.733332e+02
2.640000e-06	2.434618e-06	2.550855e-09	1.818725e+01	1.746875e+02
2.650000e-06	2.460255e-06	2.575383e-09	1.837877e+01	1.760154e+02
2.660000e-06	2.485622e-06	2.594717e-09	1.856826e+01	1.773172e+02
2.670000e-06	2.510774e-06	2.612535e-09	1.875616e+01	1.785935e+02
2.680000e-06	2.535616e-06	2.632431e-09	1.894173e+01	1.798447e+02
2.690000e-06	2.560128e-06	2.655765e-09	1.912484e+01	1.810712e+02
2.700000e-06	2.584412e-06	2.678288e-09	1.930625e+01	1.822733e+02
2.710000e-06	2.608589e-06	2.694653e-09	1.948686e+01	1.834514e+02
2.720000e-06	2.632714e-06	2.710428e-09	1.966708e+01	1.846058e+02
2.730000e-06	2.656706e-06	2.731040e-09	1.984631e+01	1.857367e+02
2.740000e-06	2.680594e-06	2.748104e-09	2.002475e+01	1.868445e+02
2.750000e-06	2.704375e-06	2.761578e-09	2.020240e+01	1.879292e+02
2.760000e-06	2.727999e-06	2.778218e-09	2.037888e+01	1.889913e+02
2.770000e-06	2.751442e-06	2.797647e-09	2.055401e+01	1.900308e+02
2.780000e-06	2.774707e-06	2.816214e-09	2.072780e+01	1.910481e+02
2.790000e-06	2.797777e-06	2.832491e-09	2.090014e+01	1.920434e+02
2.800000e-06	2.820583e-06	2.846563e-09	2.107051e+01	1.930169e+02
2.810000e-06	2.843098e-06	2.864990e-09	2.123870e+01	1.939690e+02
2.820000e-06	2.865403e-06	2.887046e-09	2.140533e+01	1.948997e+02
2.830000e-06	2.887561e-06	2.904793e-09	2.157086e+01	1.958096e+02
2.840000e-06	2.909615e-06	2.918682e-09	2.173560e+01	1.966988e+02
2.850000e-06	2.931577e-06	2.933733e-09	2.189966e+01	1.975676e+02
2.860000e-06	2.953313e-06	2.949417e-09	2.206204e+01	1.984165e+02
2.870000e-06	2.974800e-06	2.961108e-09	2.222255e+01	1.992458e+02
2.880000e-06	2.996099e-06	2.972435e-09	2.238166e+01	2.000559e+02
2.890000e-06	3.017124e-06	2.989684e-09	2.253872e+01	2.008471e+02
2.900000e-06	3.037817e-06	3.007820e-09	2.269331e+01	2.016199e+02
