# Temperatura_=_20.0
# Concentracion g/m^3_=_9000.0
# C_Vs_to_Am_M_A/Vsm_=_65563218390.804596
# pendiente_HvsI_1/m_=_3716.3
# ordenada_HvsI_A/m_=_1297.0
# frecuencia_Hz_=_135000.85267182553

Tiempo_(s)	Campo_(V.s)	Magnetizacion_(V.s)	Campo_(kA/m)	Magnetizacion_(A/m)
0.000000e+00	-3.899465e-06	-3.472608e-09	-2.915101e+01	-2.287775e+02
1.000000e-08	-3.899556e-06	-3.470863e-09	-2.915169e+01	-2.288300e+02
2.000000e-08	-3.899461e-06	-3.469585e-09	-2.915098e+01	-2.288749e+02
3.000000e-08	-3.899255e-06	-3.470230e-09	-2.914944e+01	-2.289120e+02
4.000000e-08	-3.898815e-06	-3.466449e-09	-2.914615e+01	-2.289409e+02
5.000000e-08	-3.898087e-06	-3.458480e-09	-2.914071e+01	-2.289614e+02
6.000000e-08	-3.896946e-06	-3.457976e-09	-2.913218e+01	-2.289732e+02
7.000000e-08	-3.895242e-06	-3.427342e-09	-2.911944e+01	-2.289762e+02
8.000000e-08	-3.893008e-06	-3.461802e-09	-2.910274e+01	-2.289700e+02
9.000000e-08	-3.890290e-06	-3.517699e-09	-2.908242e+01	-2.289544e+02
1.000000e-07	-3.887037e-06	-3.591368e-09	-2.905810e+01	-2.289294e+02
1.100000e-07	-3.883618e-06	-3.515714e-09	-2.903254e+01	-2.288946e+02
1.200000e-07	-3.880069e-06	-3.539068e-09	-2.900601e+01	-2.288501e+02
1.300000e-07	-3.876207e-06	-3.433226e-09	-2.897714e+01	-2.287956e+02
1.400000e-07	-3.872306e-06	-3.337818e-09	-2.894798e+01	-2.287312e+02
1.500000e-07	-3.868245e-06	-3.453795e-09	-2.891762e+01	-2.286567e+02
1.600000e-07	-3.863958e-06	-3.514348e-09	-2.888557e+01	-2.285722e+02
1.700000e-07	-3.859437e-06	-3.524764e-09	-2.885177e+01	-2.284777e+02
1.800000e-07	-3.854629e-06	-3.391545e-09	-2.881583e+01	-2.283732e+02
1.900000e-07	-3.849540e-06	-3.427572e-09	-2.877779e+01	-2.282589e+02
2.000000e-07	-3.844033e-06	-3.456537e-09	-2.873662e+01	-2.281348e+02
2.100000e-07	-3.838244e-06	-3.534152e-09	-2.869334e+01	-2.280012e+02
2.200000e-07	-3.832344e-06	-3.477578e-09	-2.864923e+01	-2.278582e+02
2.300000e-07	-3.826276e-06	-3.444948e-09	-2.860387e+01	-2.277059e+02
2.400000e-07	-3.819978e-06	-3.384050e-09	-2.855679e+01	-2.275448e+02
2.500000e-07	-3.813399e-06	-3.473610e-09	-2.850761e+01	-2.273750e+02
2.600000e-07	-3.806568e-06	-3.567233e-09	-2.845654e+01	-2.271967e+02
2.700000e-07	-3.799355e-06	-3.471083e-09	-2.840262e+01	-2.270104e+02
2.800000e-07	-3.791710e-06	-3.303363e-09	-2.834547e+01	-2.268164e+02
2.900000e-07	-3.783873e-06	-3.408752e-09	-2.828688e+01	-2.266149e+02
3.000000e-07	-3.775959e-06	-3.581346e-09	-2.822772e+01	-2.264063e+02
3.100000e-07	-3.767900e-06	-3.484667e-09	-2.816748e+01	-2.261910e+02
3.200000e-07	-3.759624e-06	-3.332038e-09	-2.810560e+01	-2.259692e+02
3.300000e-07	-3.751114e-06	-3.369419e-09	-2.804199e+01	-2.257415e+02
3.400000e-07	-3.742319e-06	-3.513582e-09	-2.797624e+01	-2.255081e+02
3.500000e-07	-3.733218e-06	-3.472389e-09	-2.790820e+01	-2.252693e+02
3.600000e-07	-3.723666e-06	-3.380628e-09	-2.783679e+01	-2.250254e+02
3.700000e-07	-3.713555e-06	-3.336889e-09	-2.776121e+01	-2.247769e+02
3.800000e-07	-3.702961e-06	-3.430881e-09	-2.768202e+01	-2.245239e+02
3.900000e-07	-3.692019e-06	-3.447915e-09	-2.760022e+01	-2.242668e+02
4.000000e-07	-3.680786e-06	-3.428785e-09	-2.751624e+01	-2.240058e+02
4.100000e-07	-3.669134e-06	-3.355451e-09	-2.742913e+01	-2.237411e+02
4.200000e-07	-3.657178e-06	-3.372948e-09	-2.733976e+01	-2.234729e+02
4.300000e-07	-3.645081e-06	-3.405535e-09	-2.724932e+01	-2.232013e+02
4.400000e-07	-3.632774e-06	-3.447380e-09	-2.715732e+01	-2.229266e+02
4.500000e-07	-3.620107e-06	-3.378166e-09	-2.706263e+01	-2.226487e+02
4.600000e-07	-3.607225e-06	-3.322115e-09	-2.696633e+01	-2.223678e+02
4.700000e-07	-3.594140e-06	-3.356102e-09	-2.686851e+01	-2.220839e+02
4.800000e-07	-3.580778e-06	-3.436066e-09	-2.676862e+01	-2.217970e+02
4.900000e-07	-3.567184e-06	-3.377619e-09	-2.666700e+01	-2.215070e+02
5.000000e-07	-3.553301e-06	-3.285073e-09	-2.656321e+01	-2.212138e+02
5.100000e-07	-3.539086e-06	-3.326978e-09	-2.645694e+01	-2.209174e+02
5.200000e-07	-3.524606e-06	-3.414346e-09	-2.634869e+01	-2.206176e+02
5.300000e-07	-3.509739e-06	-3.373660e-09	-2.623756e+01	-2.203142e+02
5.400000e-07	-3.494542e-06	-3.293120e-09	-2.612394e+01	-2.200070e+02
5.500000e-07	-3.478947e-06	-3.324342e-09	-2.600736e+01	-2.196958e+02
5.600000e-07	-3.462872e-06	-3.366141e-09	-2.588719e+01	-2.193803e+02
5.700000e-07	-3.446512e-06	-3.339239e-09	-2.576489e+01	-2.190603e+02
5.800000e-07	-3.429898e-06	-3.297152e-09	-2.564069e+01	-2.187354e+02
5.900000e-07	-3.413138e-06	-3.307427e-09	-2.551540e+01	-2.184053e+02
6.000000e-07	-3.396079e-06	-3.305730e-09	-2.538787e+01	-2.180697e+02
6.100000e-07	-3.378701e-06	-3.313500e-09	-2.525796e+01	-2.177282e+02
6.200000e-07	-3.361174e-06	-3.307714e-09	-2.512693e+01	-2.173806e+02
6.300000e-07	-3.343533e-06	-3.285764e-09	-2.499506e+01	-2.170264e+02
6.400000e-07	-3.325768e-06	-3.256842e-09	-2.486225e+01	-2.166652e+02
6.500000e-07	-3.307791e-06	-3.286687e-09	-2.472787e+01	-2.162968e+02
6.600000e-07	-3.289513e-06	-3.289949e-09	-2.459123e+01	-2.159207e+02
6.700000e-07	-3.270936e-06	-3.250904e-09	-2.445235e+01	-2.155367e+02
6.800000e-07	-3.252119e-06	-3.222978e-09	-2.431168e+01	-2.151444e+02
6.900000e-07	-3.233042e-06	-3.255254e-09	-2.416907e+01	-2.147434e+02
7.000000e-07	-3.213662e-06	-3.255890e-09	-2.402419e+01	-2.143334e+02
7.100000e-07	-3.194084e-06	-3.220778e-09	-2.387783e+01	-2.139143e+02
7.200000e-07	-3.174330e-06	-3.200578e-09	-2.373016e+01	-2.134856e+02
7.300000e-07	-3.154437e-06	-3.218870e-09	-2.358145e+01	-2.130471e+02
7.400000e-07	-3.134493e-06	-3.216840e-09	-2.343235e+01	-2.125987e+02
7.500000e-07	-3.114405e-06	-3.196818e-09	-2.328218e+01	-2.121400e+02
7.600000e-07	-3.094226e-06	-3.178766e-09	-2.313133e+01	-2.116709e+02
7.700000e-07	-3.073918e-06	-3.174777e-09	-2.297951e+01	-2.111912e+02
7.800000e-07	-3.053367e-06	-3.173836e-09	-2.282588e+01	-2.107009e+02
7.900000e-07	-3.032617e-06	-3.168722e-09	-2.267076e+01	-2.101996e+02
8.000000e-07	-3.011568e-06	-3.153249e-09	-2.251341e+01	-2.096875e+02
8.100000e-07	-2.990305e-06	-3.136004e-09	-2.235445e+01	-2.091643e+02
8.200000e-07	-2.968778e-06	-3.134970e-09	-2.219352e+01	-2.086301e+02
8.300000e-07	-2.947055e-06	-3.136361e-09	-2.203113e+01	-2.080848e+02
8.400000e-07	-2.925240e-06	-3.122391e-09	-2.186805e+01	-2.075284e+02
8.500000e-07	-2.903252e-06	-3.097974e-09	-2.170368e+01	-2.069608e+02
8.600000e-07	-2.881053e-06	-3.098107e-09	-2.153773e+01	-2.063822e+02
8.700000e-07	-2.858634e-06	-3.104080e-09	-2.137013e+01	-2.057924e+02
8.800000e-07	-2.836026e-06	-3.095398e-09	-2.120112e+01	-2.051917e+02
8.900000e-07	-2.813261e-06	-3.069821e-09	-2.103093e+01	-2.045799e+02
9.000000e-07	-2.790159e-06	-3.063396e-09	-2.085823e+01	-2.039572e+02
9.100000e-07	-2.766719e-06	-3.063692e-09	-2.068300e+01	-2.033236e+02
9.200000e-07	-2.743127e-06	-3.053058e-09	-2.050664e+01	-2.026792e+02
9.300000e-07	-2.719371e-06	-3.026285e-09	-2.032904e+01	-2.020240e+02
9.400000e-07	-2.695547e-06	-3.014533e-09	-2.015095e+01	-2.013580e+02
9.500000e-07	-2.671676e-06	-3.010420e-09	-1.997250e+01	-2.006815e+02
9.600000e-07	-2.647708e-06	-3.004826e-09	-1.979332e+01	-1.999943e+02
9.700000e-07	-2.623616e-06	-2.988680e-09	-1.961321e+01	-1.992965e+02
9.800000e-07	-2.599429e-06	-2.975430e-09	-1.943240e+01	-1.985882e+02
9.900000e-07	-2.575050e-06	-2.963318e-09	-1.925015e+01	-1.978693e+02
1.000000e-06	-2.550493e-06	-2.955652e-09	-1.906657e+01	-1.971399e+02
1.010000e-06	-2.525891e-06	-2.943923e-09	-1.888266e+01	-1.964000e+02
1.020000e-06	-2.501135e-06	-2.925193e-09	-1.869759e+01	-1.956495e+02
1.030000e-06	-2.476020e-06	-2.908521e-09	-1.850984e+01	-1.948883e+02
1.040000e-06	-2.450609e-06	-2.902161e-09	-1.831987e+01	-1.941166e+02
1.050000e-06	-2.424786e-06	-2.892099e-09	-1.812683e+01	-1.933341e+02
1.060000e-06	-2.398442e-06	-2.872285e-09	-1.792989e+01	-1.925408e+02
1.070000e-06	-2.371798e-06	-2.855200e-09	-1.773072e+01	-1.917365e+02
1.080000e-06	-2.344876e-06	-2.846400e-09	-1.752945e+01	-1.909212e+02
1.090000e-06	-2.317611e-06	-2.838617e-09	-1.732563e+01	-1.900948e+02
1.100000e-06	-2.290183e-06	-2.823344e-09	-1.712059e+01	-1.892570e+02
1.110000e-06	-2.262734e-06	-2.806823e-09	-1.691539e+01	-1.884077e+02
1.120000e-06	-2.235158e-06	-2.791125e-09	-1.670924e+01	-1.875467e+02
1.130000e-06	-2.207378e-06	-2.780195e-09	-1.650157e+01	-1.866738e+02
1.140000e-06	-2.179477e-06	-2.768258e-09	-1.629299e+01	-1.857889e+02
1.150000e-06	-2.151559e-06	-2.753923e-09	-1.608429e+01	-1.848916e+02
1.160000e-06	-2.123642e-06	-2.737175e-09	-1.587559e+01	-1.839818e+02
1.170000e-06	-2.095685e-06	-2.725510e-09	-1.566659e+01	-1.830592e+02
1.180000e-06	-2.067579e-06	-2.714169e-09	-1.545648e+01	-1.821236e+02
1.190000e-06	-2.039289e-06	-2.701266e-09	-1.524500e+01	-1.811746e+02
1.200000e-06	-2.010923e-06	-2.684560e-09	-1.503294e+01	-1.802120e+02
1.210000e-06	-1.982469e-06	-2.669521e-09	-1.482023e+01	-1.792355e+02
1.220000e-06	-1.953903e-06	-2.652400e-09	-1.460668e+01	-1.782449e+02
1.230000e-06	-1.925230e-06	-2.638335e-09	-1.439233e+01	-1.772397e+02
1.240000e-06	-1.896389e-06	-2.619769e-09	-1.417673e+01	-1.762197e+02
1.250000e-06	-1.867389e-06	-2.601144e-09	-1.395994e+01	-1.751845e+02
1.260000e-06	-1.838222e-06	-2.584263e-09	-1.374189e+01	-1.741338e+02
1.270000e-06	-1.808883e-06	-2.569826e-09	-1.352256e+01	-1.730672e+02
1.280000e-06	-1.779421e-06	-2.552789e-09	-1.330231e+01	-1.719843e+02
1.290000e-06	-1.749818e-06	-2.536617e-09	-1.308101e+01	-1.708848e+02
1.300000e-06	-1.720067e-06	-2.521616e-09	-1.285861e+01	-1.697682e+02
1.310000e-06	-1.690221e-06	-2.502670e-09	-1.263549e+01	-1.686341e+02
1.320000e-06	-1.660298e-06	-2.483132e-09	-1.241179e+01	-1.674820e+02
1.330000e-06	-1.630298e-06	-2.465868e-09	-1.218753e+01	-1.663114e+02
1.340000e-06	-1.600214e-06	-2.451008e-09	-1.196263e+01	-1.651219e+02
1.350000e-06	-1.570008e-06	-2.430313e-09	-1.173682e+01	-1.639129e+02
1.360000e-06	-1.539746e-06	-2.408912e-09	-1.151059e+01	-1.626838e+02
1.370000e-06	-1.509445e-06	-2.387878e-09	-1.128407e+01	-1.614341e+02
1.380000e-06	-1.479024e-06	-2.368599e-09	-1.105665e+01	-1.601630e+02
1.390000e-06	-1.448420e-06	-2.347817e-09	-1.082787e+01	-1.588699e+02
1.400000e-06	-1.417698e-06	-2.327573e-09	-1.059821e+01	-1.575542e+02
1.410000e-06	-1.386926e-06	-2.305153e-09	-1.036816e+01	-1.562150e+02
1.420000e-06	-1.356124e-06	-2.283987e-09	-1.013790e+01	-1.548515e+02
1.430000e-06	-1.325304e-06	-2.262703e-09	-9.907501e+00	-1.534629e+02
1.440000e-06	-1.294343e-06	-2.240998e-09	-9.676047e+00	-1.520482e+02
1.450000e-06	-1.263121e-06	-2.216190e-09	-9.442643e+00	-1.506067e+02
1.460000e-06	-1.231774e-06	-2.190798e-09	-9.208302e+00	-1.491372e+02
1.470000e-06	-1.200425e-06	-2.166820e-09	-8.973952e+00	-1.476387e+02
1.480000e-06	-1.168966e-06	-2.143302e-09	-8.738773e+00	-1.461102e+02
1.490000e-06	-1.137470e-06	-2.120591e-09	-8.503321e+00	-1.445505e+02
1.500000e-06	-1.105935e-06	-2.097948e-09	-8.267572e+00	-1.429585e+02
1.510000e-06	-1.074217e-06	-2.076095e-09	-8.030464e+00	-1.413329e+02
1.520000e-06	-1.042376e-06	-2.051386e-09	-7.792429e+00	-1.396725e+02
1.530000e-06	-1.010497e-06	-2.024644e-09	-7.554117e+00	-1.379761e+02
1.540000e-06	-9.786067e-07	-1.997220e-09	-7.315714e+00	-1.362422e+02
1.550000e-06	-9.467234e-07	-1.969202e-09	-7.077366e+00	-1.344695e+02
1.560000e-06	-9.147937e-07	-1.940252e-09	-6.838671e+00	-1.326567e+02
1.570000e-06	-8.828040e-07	-1.911411e-09	-6.599527e+00	-1.308024e+02
1.580000e-06	-8.508052e-07	-1.883131e-09	-6.360316e+00	-1.289052e+02
1.590000e-06	-8.188115e-07	-1.853871e-09	-6.121142e+00	-1.269637e+02
1.600000e-06	-7.867709e-07	-1.825194e-09	-5.881618e+00	-1.249764e+02
1.610000e-06	-7.547209e-07	-1.795657e-09	-5.642024e+00	-1.229421e+02
1.620000e-06	-7.226538e-07	-1.764508e-09	-5.402302e+00	-1.208594e+02
1.630000e-06	-6.905623e-07	-1.730977e-09	-5.162397e+00	-1.187268e+02
1.640000e-06	-6.585187e-07	-1.696757e-09	-4.922850e+00	-1.165432e+02
1.650000e-06	-6.264579e-07	-1.662179e-09	-4.683176e+00	-1.143072e+02
1.660000e-06	-5.943021e-07	-1.626071e-09	-4.442790e+00	-1.120177e+02
1.670000e-06	-5.620705e-07	-1.590046e-09	-4.201838e+00	-1.096736e+02
1.680000e-06	-5.298080e-07	-1.555449e-09	-3.960655e+00	-1.072738e+02
1.690000e-06	-4.975618e-07	-1.520379e-09	-3.719594e+00	-1.048174e+02
1.700000e-06	-4.652783e-07	-1.483943e-09	-3.478254e+00	-1.023034e+02
1.710000e-06	-4.329803e-07	-1.447063e-09	-3.236806e+00	-9.973112e+01
1.720000e-06	-4.006532e-07	-1.410228e-09	-2.995140e+00	-9.709994e+01
1.730000e-06	-3.682913e-07	-1.372210e-09	-2.753214e+00	-9.440932e+01
1.740000e-06	-3.358677e-07	-1.330636e-09	-2.510827e+00	-9.165888e+01
1.750000e-06	-3.033698e-07	-1.289275e-09	-2.267884e+00	-8.884836e+01
1.760000e-06	-2.709015e-07	-1.248961e-09	-2.025163e+00	-8.597768e+01
1.770000e-06	-2.384519e-07	-1.209330e-09	-1.782581e+00	-8.304689e+01
1.780000e-06	-2.059872e-07	-1.170161e-09	-1.539887e+00	-8.005622e+01
1.790000e-06	-1.734022e-07	-1.129168e-09	-1.296293e+00	-7.700605e+01
1.800000e-06	-1.407963e-07	-1.084185e-09	-1.052543e+00	-7.389696e+01
1.810000e-06	-1.082900e-07	-1.037583e-09	-8.095376e-01	-7.072968e+01
1.820000e-06	-7.579008e-08	-9.906836e-10	-5.665796e-01	-6.750513e+01
1.830000e-06	-4.328051e-08	-9.433866e-10	-3.235496e-01	-6.422442e+01
1.840000e-06	-1.090363e-08	-8.951224e-10	-8.151167e-02	-6.088883e+01
1.850000e-06	2.147674e-08	-8.477463e-10	1.605524e-01	-5.749983e+01
1.860000e-06	5.394587e-08	-8.008281e-10	4.032801e-01	-5.405906e+01
1.870000e-06	8.645966e-08	-7.519341e-10	6.463415e-01	-5.056836e+01
1.880000e-06	1.189901e-07	-7.016349e-10	8.895275e-01	-4.702972e+01
1.890000e-06	1.515364e-07	-6.505165e-10	1.132832e+00	-4.344532e+01
1.900000e-06	1.840725e-07	-5.986910e-10	1.376060e+00	-3.981751e+01
1.910000e-06	2.164878e-07	-5.446555e-10	1.618385e+00	-3.614878e+01
1.920000e-06	2.488895e-07	-4.906721e-10	1.860609e+00	-3.244178e+01
1.930000e-06	2.813222e-07	-4.374441e-10	2.103064e+00	-2.869931e+01
1.940000e-06	3.137462e-07	-3.832955e-10	2.345455e+00	-2.492429e+01
1.950000e-06	3.461580e-07	-3.284929e-10	2.587754e+00	-2.111977e+01
1.960000e-06	3.785215e-07	-2.723955e-10	2.829692e+00	-1.728893e+01
1.970000e-06	4.108379e-07	-2.165296e-10	3.071277e+00	-1.343502e+01
1.980000e-06	4.431228e-07	-1.602367e-10	3.312628e+00	-9.561399e+00
1.990000e-06	4.753599e-07	-1.026580e-10	3.553621e+00	-5.671490e+00
2.000000e-06	5.076156e-07	-4.338069e-11	3.794753e+00	-1.768781e+00
2.010000e-06	5.398980e-07	1.532161e-11	4.036085e+00	2.143191e+00
2.020000e-06	5.722162e-07	7.209637e-11	4.277684e+00	6.060857e+00
2.030000e-06	6.044768e-07	1.278101e-10	4.518853e+00	9.980631e+00
2.040000e-06	6.366722e-07	1.870408e-10	4.759534e+00	1.389892e+01
2.050000e-06	6.687902e-07	2.476930e-10	4.999636e+00	1.781214e+01
2.060000e-06	7.008485e-07	3.035486e-10	5.239293e+00	2.171674e+01
2.070000e-06	7.329742e-07	3.571928e-10	5.479453e+00	2.560920e+01
2.080000e-06	7.650544e-07	4.107842e-10	5.719273e+00	2.948606e+01
2.090000e-06	7.970779e-07	4.653202e-10	5.958670e+00	3.334392e+01
2.100000e-06	8.290918e-07	5.202927e-10	6.197994e+00	3.717946e+01
2.110000e-06	8.610876e-07	5.754263e-10	6.437183e+00	4.098946e+01
2.120000e-06	8.930235e-07	6.304390e-10	6.675925e+00	4.477079e+01
2.130000e-06	9.249274e-07	6.846398e-10	6.914427e+00	4.852045e+01
2.140000e-06	9.568429e-07	7.389075e-10	7.153016e+00	5.223556e+01
2.150000e-06	9.887553e-07	7.914739e-10	7.391581e+00	5.591338e+01
2.160000e-06	1.020595e-06	8.422291e-10	7.629603e+00	5.955130e+01
2.170000e-06	1.052394e-06	8.941781e-10	7.867320e+00	6.314687e+01
2.180000e-06	1.084222e-06	9.457173e-10	8.105253e+00	6.669780e+01
2.190000e-06	1.115941e-06	9.950509e-10	8.342375e+00	7.020197e+01
2.200000e-06	1.147516e-06	1.045049e-09	8.578423e+00	7.365740e+01
2.210000e-06	1.179029e-06	1.094723e-09	8.813997e+00	7.706232e+01
2.220000e-06	1.210472e-06	1.144124e-09	9.049060e+00	8.041511e+01
2.230000e-06	1.241834e-06	1.193656e-09	9.283506e+00	8.371433e+01
2.240000e-06	1.273010e-06	1.240858e-09	9.516569e+00	8.695872e+01
2.250000e-06	1.304044e-06	1.287770e-09	9.748569e+00	9.014718e+01
2.260000e-06	1.335140e-06	1.333000e-09	9.981027e+00	9.327881e+01
2.270000e-06	1.366079e-06	1.375185e-09	1.021232e+01	9.635285e+01
2.280000e-06	1.396766e-06	1.416171e-09	1.044172e+01	9.936874e+01
2.290000e-06	1.427376e-06	1.457887e-09	1.067055e+01	1.023261e+02
2.300000e-06	1.457924e-06	1.498031e-09	1.089892e+01	1.052245e+02
2.310000e-06	1.488377e-06	1.536443e-09	1.112657e+01	1.080641e+02
2.320000e-06	1.518675e-06	1.577818e-09	1.135307e+01	1.108447e+02
2.330000e-06	1.548861e-06	1.620572e-09	1.157873e+01	1.135667e+02
2.340000e-06	1.578998e-06	1.658925e-09	1.180403e+01	1.162302e+02
2.350000e-06	1.609083e-06	1.693574e-09	1.202893e+01	1.188357e+02
2.360000e-06	1.639080e-06	1.730171e-09	1.225318e+01	1.213838e+02
2.370000e-06	1.668988e-06	1.767231e-09	1.247676e+01	1.238751e+02
2.380000e-06	1.698845e-06	1.801180e-09	1.269996e+01	1.263103e+02
2.390000e-06	1.728566e-06	1.832744e-09	1.292215e+01	1.286903e+02
2.400000e-06	1.758217e-06	1.866494e-09	1.314380e+01	1.310159e+02
2.410000e-06	1.787746e-06	1.901672e-09	1.336455e+01	1.332882e+02
2.420000e-06	1.817066e-06	1.934701e-09	1.358374e+01	1.355082e+02
2.430000e-06	1.846284e-06	1.966861e-09	1.380216e+01	1.376769e+02
2.440000e-06	1.875426e-06	1.999902e-09	1.402001e+01	1.397954e+02
2.450000e-06	1.904461e-06	2.031820e-09	1.423707e+01	1.418649e+02
2.460000e-06	1.933197e-06	2.059746e-09	1.445189e+01	1.438866e+02
2.470000e-06	1.961726e-06	2.086668e-09	1.466516e+01	1.458617e+02
2.480000e-06	1.990171e-06	2.113547e-09	1.487781e+01	1.477913e+02
2.490000e-06	2.018478e-06	2.140260e-09	1.508942e+01	1.496766e+02
2.500000e-06	2.046696e-06	2.169059e-09	1.530037e+01	1.515189e+02
2.510000e-06	2.074847e-06	2.199377e-09	1.551081e+01	1.533193e+02
2.520000e-06	2.102973e-06	2.227715e-09	1.572107e+01	1.550790e+02
2.530000e-06	2.131085e-06	2.253402e-09	1.593123e+01	1.567992e+02
2.540000e-06	2.159065e-06	2.278949e-09	1.614040e+01	1.584808e+02
2.550000e-06	2.186934e-06	2.304965e-09	1.634874e+01	1.601252e+02
2.560000e-06	2.214744e-06	2.328991e-09	1.655664e+01	1.617332e+02
2.570000e-06	2.242446e-06	2.349596e-09	1.676373e+01	1.633060e+02
2.580000e-06	2.270096e-06	2.373134e-09	1.697043e+01	1.648444e+02
2.590000e-06	2.297596e-06	2.400180e-09	1.717601e+01	1.663496e+02
2.600000e-06	2.324713e-06	2.427025e-09	1.737873e+01	1.678224e+02
2.610000e-06	2.351553e-06	2.451364e-09	1.757937e+01	1.692638e+02
2.620000e-06	2.378138e-06	2.473116e-09	1.777811e+01	1.706744e+02
2.630000e-06	2.404469e-06	2.496034e-09	1.797495e+01	1.720552e+02
2.640000e-06	2.430483e-06	2.519824e-09	1.816942e+01	1.734070e+02
2.650000e-06	2.455978e-06	2.542984e-09	1.836001e+01	1.747305e+02
2.660000e-06	2.481187e-06	2.562661e-09	1.854847e+01	1.760263e+02
2.670000e-06	2.506302e-06	2.582122e-09	1.873622e+01	1.772952e+02
2.680000e-06	2.531192e-06	2.604035e-09	1.892229e+01	1.785379e+02
2.690000e-06	2.555839e-06	2.627399e-09	1.910654e+01	1.797549e+02
2.700000e-06	2.580268e-06	2.649275e-09	1.928916e+01	1.809469e+02
2.710000e-06	2.604481e-06	2.669571e-09	1.947017e+01	1.821144e+02
2.720000e-06	2.628577e-06	2.688690e-09	1.965030e+01	1.832579e+02
2.730000e-06	2.652571e-06	2.706967e-09	1.982968e+01	1.843781e+02
2.740000e-06	2.676453e-06	2.724710e-09	2.000820e+01	1.854755e+02
2.750000e-06	2.700239e-06	2.741362e-09	2.018602e+01	1.865504e+02
2.760000e-06	2.723818e-06	2.758123e-09	2.036229e+01	1.876036e+02
2.770000e-06	2.747162e-06	2.773626e-09	2.053680e+01	1.886353e+02
2.780000e-06	2.770304e-06	2.790638e-09	2.070981e+01	1.896461e+02
2.790000e-06	2.793199e-06	2.809459e-09	2.088096e+01	1.906365e+02
2.800000e-06	2.815920e-06	2.825804e-09	2.105081e+01	1.916069e+02
2.810000e-06	2.838505e-06	2.841398e-09	2.121965e+01	1.925578e+02
2.820000e-06	2.860891e-06	2.859836e-09	2.138700e+01	1.934895e+02
2.830000e-06	2.883115e-06	2.881959e-09	2.155314e+01	1.944026e+02
2.840000e-06	2.905242e-06	2.899660e-09	2.171856e+01	1.952975e+02
2.850000e-06	2.927135e-06	2.910358e-09	2.188222e+01	1.961746e+02
2.860000e-06	2.948768e-06	2.922570e-09	2.204394e+01	1.970343e+02
2.870000e-06	2.970317e-06	2.937336e-09	2.220503e+01	1.978770e+02
2.880000e-06	2.991692e-06	2.953139e-09	2.236482e+01	1.987031e+02
2.890000e-06	3.012773e-06	2.968268e-09	2.252242e+01	1.995131e+02
2.900000e-06	3.033537e-06	2.985032e-09	2.267764e+01	2.003074e+02
