# Temperatura_=_20.0
# Concentracion g/m^3_=_9000.0
# C_Vs_to_Am_M_A/Vsm_=_65563218390.804596
# pendiente_HvsI_1/m_=_3716.3
# ordenada_HvsI_A/m_=_1297.0
# frecuencia_Hz_=_134998.26480664584

Tiempo_(s)	Campo_(V.s)	Magnetizacion_(V.s)	Campo_(kA/m)	Magnetizacion_(A/m)
0.000000e+00	-3.898987e-06	-3.527219e-09	-2.914602e+01	-2.306826e+02
1.000000e-08	-3.899099e-06	-3.525547e-09	-2.914685e+01	-2.307095e+02
2.000000e-08	-3.899077e-06	-3.524035e-09	-2.914668e+01	-2.307280e+02
3.000000e-08	-3.898858e-06	-3.523773e-09	-2.914505e+01	-2.307380e+02
4.000000e-08	-3.898389e-06	-3.522870e-09	-2.914154e+01	-2.307394e+02
5.000000e-08	-3.897711e-06	-3.524616e-09	-2.913648e+01	-2.307319e+02
6.000000e-08	-3.896693e-06	-3.537608e-09	-2.912887e+01	-2.307155e+02
7.000000e-08	-3.895191e-06	-3.534759e-09	-2.911764e+01	-2.306901e+02
8.000000e-08	-3.893190e-06	-3.506672e-09	-2.910268e+01	-2.306555e+02
9.000000e-08	-3.890727e-06	-3.495101e-09	-2.908427e+01	-2.306117e+02
1.000000e-07	-3.887812e-06	-3.538422e-09	-2.906248e+01	-2.305586e+02
1.100000e-07	-3.884523e-06	-3.499495e-09	-2.903789e+01	-2.304961e+02
1.200000e-07	-3.881031e-06	-3.527517e-09	-2.901179e+01	-2.304243e+02
1.300000e-07	-3.877340e-06	-3.536128e-09	-2.898420e+01	-2.303431e+02
1.400000e-07	-3.873428e-06	-3.470572e-09	-2.895495e+01	-2.302526e+02
1.500000e-07	-3.869328e-06	-3.435786e-09	-2.892430e+01	-2.301529e+02
1.600000e-07	-3.865092e-06	-3.486438e-09	-2.889264e+01	-2.300439e+02
1.700000e-07	-3.860662e-06	-3.561607e-09	-2.885952e+01	-2.299258e+02
1.800000e-07	-3.856038e-06	-3.510055e-09	-2.882496e+01	-2.297988e+02
1.900000e-07	-3.851070e-06	-3.466075e-09	-2.878782e+01	-2.296630e+02
2.000000e-07	-3.845783e-06	-3.447867e-09	-2.874830e+01	-2.295185e+02
2.100000e-07	-3.840310e-06	-3.504683e-09	-2.870739e+01	-2.293656e+02
2.200000e-07	-3.834504e-06	-3.513228e-09	-2.866399e+01	-2.292046e+02
2.300000e-07	-3.828398e-06	-3.516058e-09	-2.861834e+01	-2.290356e+02
2.400000e-07	-3.822098e-06	-3.446690e-09	-2.857125e+01	-2.288590e+02
2.500000e-07	-3.815566e-06	-3.414598e-09	-2.852242e+01	-2.286750e+02
2.600000e-07	-3.808730e-06	-3.496718e-09	-2.847132e+01	-2.284839e+02
2.700000e-07	-3.801592e-06	-3.578466e-09	-2.841796e+01	-2.282861e+02
2.800000e-07	-3.794172e-06	-3.458826e-09	-2.836250e+01	-2.280818e+02
2.900000e-07	-3.786510e-06	-3.355270e-09	-2.830522e+01	-2.278715e+02
3.000000e-07	-3.778640e-06	-3.459919e-09	-2.824638e+01	-2.276553e+02
3.100000e-07	-3.770584e-06	-3.563117e-09	-2.818616e+01	-2.274337e+02
3.200000e-07	-3.762414e-06	-3.470093e-09	-2.812509e+01	-2.272070e+02
3.300000e-07	-3.754087e-06	-3.360677e-09	-2.806285e+01	-2.269755e+02
3.400000e-07	-3.745511e-06	-3.421433e-09	-2.799874e+01	-2.267396e+02
3.500000e-07	-3.736698e-06	-3.500743e-09	-2.793286e+01	-2.264994e+02
3.600000e-07	-3.727469e-06	-3.476805e-09	-2.786387e+01	-2.262553e+02
3.700000e-07	-3.717697e-06	-3.391509e-09	-2.779082e+01	-2.260076e+02
3.800000e-07	-3.707424e-06	-3.397971e-09	-2.771403e+01	-2.257565e+02
3.900000e-07	-3.696705e-06	-3.438190e-09	-2.763390e+01	-2.255021e+02
4.000000e-07	-3.685578e-06	-3.463872e-09	-2.755072e+01	-2.252448e+02
4.100000e-07	-3.674133e-06	-3.424944e-09	-2.746517e+01	-2.249846e+02
4.200000e-07	-3.662476e-06	-3.391874e-09	-2.737803e+01	-2.247217e+02
4.300000e-07	-3.650607e-06	-3.378033e-09	-2.728931e+01	-2.244561e+02
4.400000e-07	-3.638418e-06	-3.424601e-09	-2.719819e+01	-2.241880e+02
4.500000e-07	-3.625995e-06	-3.440608e-09	-2.710532e+01	-2.239173e+02
4.600000e-07	-3.613361e-06	-3.393073e-09	-2.701088e+01	-2.236440e+02
4.700000e-07	-3.600398e-06	-3.337695e-09	-2.691398e+01	-2.233681e+02
4.800000e-07	-3.587127e-06	-3.388043e-09	-2.681477e+01	-2.230895e+02
4.900000e-07	-3.573565e-06	-3.432098e-09	-2.671339e+01	-2.228081e+02
5.000000e-07	-3.559770e-06	-3.371355e-09	-2.661027e+01	-2.225237e+02
5.100000e-07	-3.545687e-06	-3.306063e-09	-2.650500e+01	-2.222362e+02
5.200000e-07	-3.531318e-06	-3.354191e-09	-2.639758e+01	-2.219453e+02
5.300000e-07	-3.516657e-06	-3.398632e-09	-2.628799e+01	-2.216507e+02
5.400000e-07	-3.501583e-06	-3.346895e-09	-2.617531e+01	-2.213523e+02
5.500000e-07	-3.486151e-06	-3.303166e-09	-2.605995e+01	-2.210496e+02
5.600000e-07	-3.470369e-06	-3.333891e-09	-2.594198e+01	-2.207425e+02
5.700000e-07	-3.454221e-06	-3.354274e-09	-2.582126e+01	-2.204305e+02
5.800000e-07	-3.437872e-06	-3.321939e-09	-2.569905e+01	-2.201133e+02
5.900000e-07	-3.421316e-06	-3.305613e-09	-2.557529e+01	-2.197905e+02
6.000000e-07	-3.404442e-06	-3.306072e-09	-2.544916e+01	-2.194619e+02
6.100000e-07	-3.387240e-06	-3.305239e-09	-2.532056e+01	-2.191269e+02
6.200000e-07	-3.369896e-06	-3.305371e-09	-2.519091e+01	-2.187852e+02
6.300000e-07	-3.352374e-06	-3.305805e-09	-2.505993e+01	-2.184364e+02
6.400000e-07	-3.334664e-06	-3.278001e-09	-2.492754e+01	-2.180802e+02
6.500000e-07	-3.316773e-06	-3.272292e-09	-2.479380e+01	-2.177161e+02
6.600000e-07	-3.298631e-06	-3.293196e-09	-2.465819e+01	-2.173439e+02
6.700000e-07	-3.280284e-06	-3.291098e-09	-2.452104e+01	-2.169631e+02
6.800000e-07	-3.261617e-06	-3.249365e-09	-2.438150e+01	-2.165735e+02
6.900000e-07	-3.242578e-06	-3.246085e-09	-2.423918e+01	-2.161747e+02
7.000000e-07	-3.223280e-06	-3.269643e-09	-2.409492e+01	-2.157665e+02
7.100000e-07	-3.203823e-06	-3.262014e-09	-2.394947e+01	-2.153485e+02
7.200000e-07	-3.184179e-06	-3.225732e-09	-2.380263e+01	-2.149206e+02
7.300000e-07	-3.164358e-06	-3.222798e-09	-2.365446e+01	-2.144825e+02
7.400000e-07	-3.144402e-06	-3.234962e-09	-2.350529e+01	-2.140340e+02
7.500000e-07	-3.124352e-06	-3.227893e-09	-2.335540e+01	-2.135751e+02
7.600000e-07	-3.104191e-06	-3.204640e-09	-2.320469e+01	-2.131054e+02
7.700000e-07	-3.083894e-06	-3.194514e-09	-2.305296e+01	-2.126250e+02
7.800000e-07	-3.063469e-06	-3.194628e-09	-2.290028e+01	-2.121337e+02
7.900000e-07	-3.042806e-06	-3.194219e-09	-2.274583e+01	-2.116315e+02
8.000000e-07	-3.021896e-06	-3.183332e-09	-2.258951e+01	-2.111184e+02
8.100000e-07	-3.000809e-06	-3.165181e-09	-2.243188e+01	-2.105943e+02
8.200000e-07	-2.979501e-06	-3.151921e-09	-2.227260e+01	-2.100593e+02
8.300000e-07	-2.957931e-06	-3.150689e-09	-2.211136e+01	-2.095133e+02
8.400000e-07	-2.936152e-06	-3.148640e-09	-2.194856e+01	-2.089566e+02
8.500000e-07	-2.914196e-06	-3.128907e-09	-2.178443e+01	-2.083890e+02
8.600000e-07	-2.892030e-06	-3.111550e-09	-2.161873e+01	-2.078108e+02
8.700000e-07	-2.869662e-06	-3.113574e-09	-2.145152e+01	-2.072219e+02
8.800000e-07	-2.847124e-06	-3.119164e-09	-2.128305e+01	-2.066225e+02
8.900000e-07	-2.824392e-06	-3.101379e-09	-2.111312e+01	-2.060127e+02
9.000000e-07	-2.801435e-06	-3.083297e-09	-2.094151e+01	-2.053925e+02
9.100000e-07	-2.778242e-06	-3.080793e-09	-2.076814e+01	-2.047621e+02
9.200000e-07	-2.754853e-06	-3.079742e-09	-2.059330e+01	-2.041216e+02
9.300000e-07	-2.731272e-06	-3.062467e-09	-2.041702e+01	-2.034710e+02
9.400000e-07	-2.707516e-06	-3.045198e-09	-2.023944e+01	-2.028105e+02
9.500000e-07	-2.683653e-06	-3.036247e-09	-2.006105e+01	-2.021400e+02
9.600000e-07	-2.659660e-06	-3.030905e-09	-1.988170e+01	-2.014597e+02
9.700000e-07	-2.635586e-06	-3.018984e-09	-1.970174e+01	-2.007695e+02
9.800000e-07	-2.611405e-06	-3.004093e-09	-1.952098e+01	-2.000695e+02
9.900000e-07	-2.587089e-06	-2.989042e-09	-1.933921e+01	-1.993596e+02
1.000000e-06	-2.562620e-06	-2.980038e-09	-1.915630e+01	-1.986399e+02
1.010000e-06	-2.538023e-06	-2.973366e-09	-1.897243e+01	-1.979102e+02
1.020000e-06	-2.513252e-06	-2.961643e-09	-1.878726e+01	-1.971704e+02
1.030000e-06	-2.488144e-06	-2.942785e-09	-1.859957e+01	-1.964206e+02
1.040000e-06	-2.462751e-06	-2.929613e-09	-1.840975e+01	-1.956605e+02
1.050000e-06	-2.437108e-06	-2.922001e-09	-1.821806e+01	-1.948899e+02
1.060000e-06	-2.411156e-06	-2.908635e-09	-1.802407e+01	-1.941088e+02
1.070000e-06	-2.384925e-06	-2.886854e-09	-1.782798e+01	-1.933168e+02
1.080000e-06	-2.358403e-06	-2.870403e-09	-1.762972e+01	-1.925138e+02
1.090000e-06	-2.331577e-06	-2.862803e-09	-1.742919e+01	-1.916995e+02
1.100000e-06	-2.304487e-06	-2.853443e-09	-1.722668e+01	-1.908737e+02
1.110000e-06	-2.277235e-06	-2.837641e-09	-1.702297e+01	-1.900360e+02
1.120000e-06	-2.249763e-06	-2.822012e-09	-1.681761e+01	-1.891861e+02
1.130000e-06	-2.222038e-06	-2.810114e-09	-1.661036e+01	-1.883238e+02
1.140000e-06	-2.194180e-06	-2.795628e-09	-1.640211e+01	-1.874486e+02
1.150000e-06	-2.166249e-06	-2.778415e-09	-1.619331e+01	-1.865603e+02
1.160000e-06	-2.138263e-06	-2.761419e-09	-1.598411e+01	-1.856585e+02
1.170000e-06	-2.110199e-06	-2.747160e-09	-1.577433e+01	-1.847428e+02
1.180000e-06	-2.082083e-06	-2.733788e-09	-1.556415e+01	-1.838128e+02
1.190000e-06	-2.053919e-06	-2.720911e-09	-1.535361e+01	-1.828682e+02
1.200000e-06	-2.025612e-06	-2.705779e-09	-1.514201e+01	-1.819086e+02
1.210000e-06	-1.997204e-06	-2.690149e-09	-1.492965e+01	-1.809335e+02
1.220000e-06	-1.968694e-06	-2.671805e-09	-1.471654e+01	-1.799427e+02
1.230000e-06	-1.940005e-06	-2.654537e-09	-1.450208e+01	-1.789358e+02
1.240000e-06	-1.911213e-06	-2.636420e-09	-1.428685e+01	-1.779123e+02
1.250000e-06	-1.882279e-06	-2.617240e-09	-1.407056e+01	-1.768719e+02
1.260000e-06	-1.853165e-06	-2.598634e-09	-1.385292e+01	-1.758142e+02
1.270000e-06	-1.823890e-06	-2.583551e-09	-1.363409e+01	-1.747388e+02
1.280000e-06	-1.794474e-06	-2.567187e-09	-1.341419e+01	-1.736454e+02
1.290000e-06	-1.764908e-06	-2.550437e-09	-1.319318e+01	-1.725335e+02
1.300000e-06	-1.735186e-06	-2.534390e-09	-1.297100e+01	-1.714029e+02
1.310000e-06	-1.705389e-06	-2.516778e-09	-1.274826e+01	-1.702530e+02
1.320000e-06	-1.675525e-06	-2.496851e-09	-1.252502e+01	-1.690836e+02
1.330000e-06	-1.645523e-06	-2.475924e-09	-1.230075e+01	-1.678942e+02
1.340000e-06	-1.615406e-06	-2.456021e-09	-1.207561e+01	-1.666845e+02
1.350000e-06	-1.585253e-06	-2.436128e-09	-1.185021e+01	-1.654539e+02
1.360000e-06	-1.555022e-06	-2.415670e-09	-1.162422e+01	-1.642021e+02
1.370000e-06	-1.524691e-06	-2.396719e-09	-1.139749e+01	-1.629287e+02
1.380000e-06	-1.494258e-06	-2.378180e-09	-1.116999e+01	-1.616330e+02
1.390000e-06	-1.463702e-06	-2.357263e-09	-1.094158e+01	-1.603147e+02
1.400000e-06	-1.433052e-06	-2.337401e-09	-1.071246e+01	-1.589732e+02
1.410000e-06	-1.402380e-06	-2.316457e-09	-1.048318e+01	-1.576079e+02
1.420000e-06	-1.371635e-06	-2.294904e-09	-1.025335e+01	-1.562183e+02
1.430000e-06	-1.340738e-06	-2.272976e-09	-1.002239e+01	-1.548037e+02
1.440000e-06	-1.309702e-06	-2.251126e-09	-9.790386e+00	-1.533634e+02
1.450000e-06	-1.278518e-06	-2.227561e-09	-9.557277e+00	-1.518966e+02
1.460000e-06	-1.247281e-06	-2.203199e-09	-9.323775e+00	-1.504027e+02
1.470000e-06	-1.215946e-06	-2.179077e-09	-9.089538e+00	-1.488808e+02
1.480000e-06	-1.184459e-06	-2.157441e-09	-8.854163e+00	-1.473300e+02
1.490000e-06	-1.152906e-06	-2.136830e-09	-8.618290e+00	-1.457494e+02
1.500000e-06	-1.121288e-06	-2.113492e-09	-8.381941e+00	-1.441381e+02
1.510000e-06	-1.089589e-06	-2.089163e-09	-8.144978e+00	-1.424949e+02
1.520000e-06	-1.057797e-06	-2.065987e-09	-7.907324e+00	-1.408189e+02
1.530000e-06	-1.025940e-06	-2.042246e-09	-7.669186e+00	-1.391090e+02
1.540000e-06	-9.940255e-07	-2.015027e-09	-7.430618e+00	-1.373638e+02
1.550000e-06	-9.620510e-07	-1.986340e-09	-7.191600e+00	-1.355823e+02
1.560000e-06	-9.300589e-07	-1.957391e-09	-6.952450e+00	-1.337631e+02
1.570000e-06	-8.980388e-07	-1.927202e-09	-6.713091e+00	-1.319051e+02
1.580000e-06	-8.659930e-07	-1.898509e-09	-6.473539e+00	-1.300067e+02
1.590000e-06	-8.339171e-07	-1.870707e-09	-6.233763e+00	-1.280668e+02
1.600000e-06	-8.018259e-07	-1.843648e-09	-5.993872e+00	-1.260839e+02
1.610000e-06	-7.697308e-07	-1.815199e-09	-5.753952e+00	-1.240567e+02
1.620000e-06	-7.376191e-07	-1.782860e-09	-5.513909e+00	-1.219838e+02
1.630000e-06	-7.054729e-07	-1.748500e-09	-5.273607e+00	-1.198637e+02
1.640000e-06	-6.732639e-07	-1.713832e-09	-5.032836e+00	-1.176952e+02
1.650000e-06	-6.410515e-07	-1.680922e-09	-4.792039e+00	-1.154768e+02
1.660000e-06	-6.088407e-07	-1.647350e-09	-4.551254e+00	-1.132073e+02
1.670000e-06	-5.765888e-07	-1.609373e-09	-4.310162e+00	-1.108854e+02
1.680000e-06	-5.443496e-07	-1.571900e-09	-4.069165e+00	-1.085099e+02
1.690000e-06	-5.120519e-07	-1.537070e-09	-3.827731e+00	-1.060796e+02
1.700000e-06	-4.797023e-07	-1.502768e-09	-3.585908e+00	-1.035934e+02
1.710000e-06	-4.474004e-07	-1.464496e-09	-3.344442e+00	-1.010504e+02
1.720000e-06	-4.150645e-07	-1.424636e-09	-3.102723e+00	-9.844958e+01
1.730000e-06	-3.826588e-07	-1.388123e-09	-2.860481e+00	-9.579028e+01
1.740000e-06	-3.502424e-07	-1.349449e-09	-2.618160e+00	-9.307178e+01
1.750000e-06	-3.178230e-07	-1.305884e-09	-2.375816e+00	-9.029354e+01
1.760000e-06	-2.853939e-07	-1.261841e-09	-2.133399e+00	-8.745516e+01
1.770000e-06	-2.529483e-07	-1.220337e-09	-1.890859e+00	-8.455640e+01
1.780000e-06	-2.205015e-07	-1.178330e-09	-1.648310e+00	-8.159715e+01
1.790000e-06	-1.880079e-07	-1.135918e-09	-1.405412e+00	-7.857749e+01
1.800000e-06	-1.554753e-07	-1.092815e-09	-1.162221e+00	-7.549766e+01
1.810000e-06	-1.229753e-07	-1.048030e-09	-9.192745e-01	-7.235809e+01
1.820000e-06	-9.050145e-08	-1.001726e-09	-6.765236e-01	-6.915938e+01
1.830000e-06	-5.801231e-08	-9.531646e-10	-4.336582e-01	-6.590234e+01
1.840000e-06	-2.544712e-08	-9.026322e-10	-1.902243e-01	-6.258794e+01
1.850000e-06	7.073511e-09	-8.518705e-10	5.287647e-02	-5.921739e+01
1.860000e-06	3.951460e-08	-8.035381e-10	2.953827e-01	-5.579205e+01
1.870000e-06	7.200558e-08	-7.560733e-10	5.382618e-01	-5.231352e+01
1.880000e-06	1.045063e-07	-7.068702e-10	7.812140e-01	-4.878355e+01
1.890000e-06	1.369633e-07	-6.548837e-10	1.023839e+00	-4.520412e+01
1.900000e-06	1.694085e-07	-6.018485e-10	1.266376e+00	-4.157738e+01
1.910000e-06	2.018101e-07	-5.509881e-10	1.508587e+00	-3.790567e+01
1.920000e-06	2.342427e-07	-4.973239e-10	1.751029e+00	-3.419150e+01
1.930000e-06	2.666895e-07	-4.405216e-10	1.993578e+00	-3.043756e+01
1.940000e-06	2.991072e-07	-3.840765e-10	2.235910e+00	-2.664671e+01
1.950000e-06	3.314771e-07	-3.294566e-10	2.477884e+00	-2.282193e+01
1.960000e-06	3.637607e-07	-2.729944e-10	2.719213e+00	-1.896637e+01
1.970000e-06	3.960618e-07	-2.158082e-10	2.960672e+00	-1.508331e+01
1.980000e-06	4.284135e-07	-1.597210e-10	3.202510e+00	-1.117613e+01
1.990000e-06	4.607644e-07	-1.040924e-10	3.444342e+00	-7.248329e+00
2.000000e-06	4.930784e-07	-4.700341e-11	3.685899e+00	-3.303486e+00
2.010000e-06	5.253416e-07	1.155894e-11	3.927075e+00	6.547395e-01
2.020000e-06	5.575890e-07	6.848891e-11	4.168133e+00	4.622629e+00
2.030000e-06	5.898533e-07	1.247760e-10	4.409318e+00	8.596420e+00
2.040000e-06	6.220808e-07	1.830140e-10	4.650227e+00	1.257232e+01
2.050000e-06	6.542663e-07	2.432705e-10	4.890823e+00	1.654654e+01
2.060000e-06	6.864155e-07	3.019120e-10	5.131147e+00	2.051526e+01
2.070000e-06	7.185220e-07	3.587800e-10	5.371152e+00	2.447472e+01
2.080000e-06	7.506286e-07	4.150962e-10	5.611158e+00	2.842117e+01
2.090000e-06	7.827061e-07	4.716086e-10	5.850946e+00	3.235094e+01
2.100000e-06	8.147512e-07	5.288803e-10	6.090493e+00	3.626039e+01
2.110000e-06	8.468082e-07	5.865070e-10	6.330127e+00	4.014600e+01
2.120000e-06	8.788396e-07	6.439459e-10	6.569571e+00	4.400433e+01
2.130000e-06	9.108593e-07	7.012573e-10	6.808927e+00	4.783205e+01
2.140000e-06	9.428718e-07	7.561590e-10	7.048230e+00	5.162597e+01
2.150000e-06	9.748256e-07	8.091686e-10	7.287093e+00	5.538301e+01
2.160000e-06	1.006736e-06	8.625041e-10	7.525631e+00	5.910026e+01
2.170000e-06	1.038601e-06	9.168542e-10	7.763832e+00	6.277496e+01
2.180000e-06	1.070407e-06	9.682122e-10	8.001589e+00	6.640453e+01
2.190000e-06	1.102156e-06	1.015480e-09	8.238922e+00	6.998654e+01
2.200000e-06	1.133801e-06	1.064502e-09	8.475480e+00	7.351876e+01
2.210000e-06	1.165357e-06	1.116740e-09	8.711368e+00	7.699915e+01
2.220000e-06	1.196821e-06	1.168694e-09	8.946574e+00	8.042584e+01
2.230000e-06	1.228117e-06	1.218444e-09	9.180515e+00	8.379717e+01
2.240000e-06	1.259274e-06	1.265980e-09	9.413426e+00	8.711168e+01
2.250000e-06	1.290351e-06	1.314856e-09	9.645736e+00	9.036811e+01
2.260000e-06	1.321376e-06	1.364556e-09	9.877655e+00	9.356536e+01
2.270000e-06	1.352241e-06	1.409058e-09	1.010838e+01	9.670258e+01
2.280000e-06	1.382971e-06	1.450312e-09	1.033809e+01	9.977906e+01
2.290000e-06	1.413658e-06	1.493709e-09	1.056749e+01	1.027943e+02
2.300000e-06	1.444223e-06	1.535848e-09	1.079597e+01	1.057480e+02
2.310000e-06	1.474687e-06	1.574417e-09	1.102370e+01	1.086400e+02
2.320000e-06	1.505021e-06	1.613844e-09	1.125045e+01	1.114704e+02
2.330000e-06	1.535235e-06	1.656923e-09	1.147631e+01	1.142393e+02
2.340000e-06	1.565435e-06	1.699438e-09	1.170207e+01	1.169470e+02
2.350000e-06	1.595584e-06	1.737512e-09	1.192743e+01	1.195941e+02
2.360000e-06	1.625593e-06	1.776282e-09	1.215176e+01	1.221811e+02
2.370000e-06	1.655492e-06	1.815946e-09	1.237526e+01	1.247089e+02
2.380000e-06	1.685340e-06	1.853552e-09	1.259839e+01	1.271782e+02
2.390000e-06	1.715097e-06	1.887118e-09	1.282082e+01	1.295900e+02
2.400000e-06	1.744739e-06	1.918772e-09	1.304241e+01	1.319454e+02
2.410000e-06	1.774247e-06	1.952377e-09	1.326299e+01	1.342454e+02
2.420000e-06	1.803628e-06	1.988972e-09	1.348262e+01	1.364913e+02
2.430000e-06	1.832924e-06	2.023760e-09	1.370162e+01	1.386843e+02
2.440000e-06	1.862047e-06	2.055195e-09	1.391932e+01	1.408257e+02
2.450000e-06	1.891011e-06	2.089433e-09	1.413583e+01	1.429168e+02
2.460000e-06	1.919836e-06	2.123372e-09	1.435131e+01	1.449590e+02
2.470000e-06	1.948544e-06	2.152117e-09	1.456591e+01	1.469536e+02
2.480000e-06	1.977158e-06	2.177798e-09	1.477980e+01	1.489021e+02
2.490000e-06	2.005608e-06	2.201987e-09	1.499248e+01	1.508058e+02
2.500000e-06	2.033954e-06	2.228440e-09	1.520438e+01	1.526660e+02
2.510000e-06	2.062216e-06	2.256367e-09	1.541564e+01	1.544841e+02
2.520000e-06	2.090370e-06	2.283024e-09	1.562610e+01	1.562614e+02
2.530000e-06	2.118470e-06	2.309013e-09	1.583615e+01	1.579991e+02
2.540000e-06	2.146522e-06	2.337658e-09	1.604585e+01	1.596986e+02
2.550000e-06	2.174523e-06	2.366516e-09	1.625516e+01	1.613611e+02
2.560000e-06	2.202465e-06	2.391614e-09	1.646404e+01	1.629876e+02
2.570000e-06	2.230259e-06	2.414552e-09	1.667181e+01	1.645793e+02
2.580000e-06	2.257942e-06	2.437989e-09	1.687874e+01	1.661372e+02
2.590000e-06	2.285502e-06	2.462899e-09	1.708477e+01	1.676624e+02
2.600000e-06	2.312822e-06	2.487886e-09	1.728899e+01	1.691558e+02
2.610000e-06	2.339808e-06	2.509872e-09	1.749072e+01	1.706183e+02
2.620000e-06	2.366455e-06	2.529961e-09	1.768991e+01	1.720507e+02
2.630000e-06	2.392742e-06	2.552063e-09	1.788642e+01	1.734539e+02
2.640000e-06	2.418682e-06	2.576408e-09	1.808032e+01	1.748285e+02
2.650000e-06	2.444329e-06	2.599065e-09	1.827204e+01	1.761752e+02
2.660000e-06	2.469606e-06	2.618599e-09	1.846100e+01	1.774948e+02
2.670000e-06	2.494667e-06	2.638801e-09	1.864833e+01	1.787877e+02
2.680000e-06	2.519569e-06	2.657906e-09	1.883448e+01	1.800545e+02
2.690000e-06	2.544215e-06	2.676354e-09	1.901872e+01	1.812957e+02
2.700000e-06	2.568700e-06	2.694397e-09	1.920175e+01	1.825119e+02
2.710000e-06	2.593085e-06	2.713115e-09	1.938403e+01	1.837035e+02
2.720000e-06	2.617311e-06	2.732551e-09	1.956513e+01	1.848708e+02
2.730000e-06	2.641347e-06	2.751494e-09	1.974480e+01	1.860143e+02
2.740000e-06	2.665333e-06	2.769080e-09	1.992411e+01	1.871344e+02
2.750000e-06	2.689245e-06	2.787888e-09	2.010285e+01	1.882314e+02
2.760000e-06	2.712959e-06	2.806593e-09	2.028013e+01	1.893057e+02
2.770000e-06	2.736478e-06	2.821672e-09	2.045594e+01	1.903576e+02
2.780000e-06	2.759750e-06	2.834631e-09	2.062990e+01	1.913875e+02
2.790000e-06	2.782815e-06	2.850588e-09	2.080232e+01	1.923957e+02
2.800000e-06	2.805741e-06	2.866510e-09	2.097369e+01	1.933825e+02
2.810000e-06	2.828423e-06	2.881632e-09	2.114325e+01	1.943483e+02
2.820000e-06	2.850845e-06	2.895972e-09	2.131086e+01	1.952934e+02
2.830000e-06	2.873087e-06	2.912638e-09	2.147713e+01	1.962182e+02
2.840000e-06	2.895204e-06	2.932512e-09	2.164246e+01	1.971229e+02
2.850000e-06	2.917220e-06	2.948457e-09	2.180703e+01	1.980081e+02
2.860000e-06	2.939043e-06	2.961016e-09	2.197017e+01	1.988740e+02
2.870000e-06	2.960633e-06	2.971257e-09	2.213156e+01	1.997210e+02
2.880000e-06	2.981999e-06	2.982664e-09	2.229127e+01	2.005496e+02
2.890000e-06	3.003224e-06	2.995416e-09	2.244994e+01	2.013601e+02
2.900000e-06	3.024219e-06	3.007427e-09	2.260688e+01	2.021530e+02
