# Temperatura_=_20.0
# Concentracion g/m^3_=_9000.0
# C_Vs_to_Am_M_A/Vsm_=_65563218390.804596
# pendiente_HvsI_1/m_=_3716.3
# ordenada_HvsI_A/m_=_1297.0
# frecuencia_Hz_=_301296.1152790564

Tiempo_(s)	Campo_(V.s)	Magnetizacion_(V.s)	Campo_(kA/m)	Magnetizacion_(A/m)
0.000000e+00	-8.129076e-06	-5.576741e-09	-5.697794e+01	-3.625750e+02
1.000000e-08	-8.126416e-06	-5.576060e-09	-5.695930e+01	-3.625235e+02
2.000000e-08	-8.121127e-06	-5.571627e-09	-5.692223e+01	-3.624558e+02
3.000000e-08	-8.113212e-06	-5.567670e-09	-5.686675e+01	-3.623635e+02
4.000000e-08	-8.102405e-06	-5.565781e-09	-5.679101e+01	-3.622357e+02
5.000000e-08	-8.088641e-06	-5.564322e-09	-5.669453e+01	-3.620618e+02
6.000000e-08	-8.072024e-06	-5.556042e-09	-5.657806e+01	-3.618326e+02
7.000000e-08	-8.052968e-06	-5.541858e-09	-5.644449e+01	-3.615430e+02
8.000000e-08	-8.031598e-06	-5.535920e-09	-5.629471e+01	-3.611930e+02
9.000000e-08	-8.007360e-06	-5.558525e-09	-5.612482e+01	-3.607887e+02
1.000000e-07	-7.979867e-06	-5.532351e-09	-5.593212e+01	-3.603410e+02
1.100000e-07	-7.949290e-06	-5.498498e-09	-5.571780e+01	-3.598651e+02
1.200000e-07	-7.915753e-06	-5.497563e-09	-5.548273e+01	-3.593778e+02
1.300000e-07	-7.879409e-06	-5.524066e-09	-5.522800e+01	-3.588949e+02
1.400000e-07	-7.840780e-06	-5.520083e-09	-5.495724e+01	-3.584288e+02
1.500000e-07	-7.799902e-06	-5.456451e-09	-5.467071e+01	-3.579864e+02
1.600000e-07	-7.756452e-06	-5.474917e-09	-5.436617e+01	-3.575671e+02
1.700000e-07	-7.710233e-06	-5.448089e-09	-5.404221e+01	-3.571631e+02
1.800000e-07	-7.661107e-06	-5.438218e-09	-5.369788e+01	-3.567597e+02
1.900000e-07	-7.608959e-06	-5.445252e-09	-5.333237e+01	-3.563373e+02
2.000000e-07	-7.553845e-06	-5.431707e-09	-5.294606e+01	-3.558741e+02
2.100000e-07	-7.495976e-06	-5.427857e-09	-5.254045e+01	-3.553488e+02
2.200000e-07	-7.435482e-06	-5.377684e-09	-5.211644e+01	-3.547441e+02
2.300000e-07	-7.372493e-06	-5.413308e-09	-5.167494e+01	-3.540485e+02
2.400000e-07	-7.306802e-06	-5.414429e-09	-5.121451e+01	-3.532581e+02
2.500000e-07	-7.238299e-06	-5.335624e-09	-5.073435e+01	-3.523768e+02
2.600000e-07	-7.167184e-06	-5.345057e-09	-5.023590e+01	-3.514154e+02
2.700000e-07	-7.093301e-06	-5.362100e-09	-4.971804e+01	-3.503894e+02
2.800000e-07	-7.016558e-06	-5.320935e-09	-4.918014e+01	-3.493164e+02
2.900000e-07	-6.937064e-06	-5.283021e-09	-4.862295e+01	-3.482129e+02
3.000000e-07	-6.855070e-06	-5.304921e-09	-4.804824e+01	-3.470911e+02
3.100000e-07	-6.770827e-06	-5.286569e-09	-4.745777e+01	-3.459572e+02
3.200000e-07	-6.684289e-06	-5.218519e-09	-4.685121e+01	-3.448095e+02
3.300000e-07	-6.595390e-06	-5.243905e-09	-4.622810e+01	-3.436390e+02
3.400000e-07	-6.504068e-06	-5.230581e-09	-4.558801e+01	-3.424305e+02
3.500000e-07	-6.410424e-06	-5.173387e-09	-4.493165e+01	-3.411650e+02
3.600000e-07	-6.314504e-06	-5.138847e-09	-4.425933e+01	-3.398227e+02
3.700000e-07	-6.216271e-06	-5.153501e-09	-4.357080e+01	-3.383864e+02
3.800000e-07	-6.115802e-06	-5.119763e-09	-4.286660e+01	-3.368444e+02
3.900000e-07	-6.013089e-06	-5.058603e-09	-4.214667e+01	-3.351922e+02
4.000000e-07	-5.908229e-06	-5.065884e-09	-4.141169e+01	-3.334338e+02
4.100000e-07	-5.801349e-06	-5.051113e-09	-4.066255e+01	-3.315804e+02
4.200000e-07	-5.692412e-06	-5.002983e-09	-3.989900e+01	-3.296493e+02
4.300000e-07	-5.581303e-06	-4.960505e-09	-3.912021e+01	-3.276603e+02
4.400000e-07	-5.468024e-06	-4.966480e-09	-3.832623e+01	-3.256324e+02
4.500000e-07	-5.352674e-06	-4.925779e-09	-3.751771e+01	-3.235803e+02
4.600000e-07	-5.235291e-06	-4.867762e-09	-3.669496e+01	-3.215114e+02
4.700000e-07	-5.115911e-06	-4.847378e-09	-3.585821e+01	-3.194243e+02
4.800000e-07	-4.994646e-06	-4.829456e-09	-3.500825e+01	-3.173077e+02
4.900000e-07	-4.871634e-06	-4.780717e-09	-3.414603e+01	-3.151422e+02
5.000000e-07	-4.746937e-06	-4.731789e-09	-3.327201e+01	-3.129024e+02
5.100000e-07	-4.620559e-06	-4.715499e-09	-3.238621e+01	-3.105605e+02
5.200000e-07	-4.492434e-06	-4.673217e-09	-3.148816e+01	-3.080900e+02
5.300000e-07	-4.362707e-06	-4.624494e-09	-3.057889e+01	-3.054699e+02
5.400000e-07	-4.231413e-06	-4.587848e-09	-2.965862e+01	-3.026867e+02
5.500000e-07	-4.098586e-06	-4.552962e-09	-2.872762e+01	-2.997367e+02
5.600000e-07	-3.964374e-06	-4.495257e-09	-2.778691e+01	-2.966251e+02
5.700000e-07	-3.828568e-06	-4.442999e-09	-2.683502e+01	-2.933645e+02
5.800000e-07	-3.691241e-06	-4.406596e-09	-2.587248e+01	-2.899716e+02
5.900000e-07	-3.552648e-06	-4.354719e-09	-2.490105e+01	-2.864626e+02
6.000000e-07	-3.412667e-06	-4.291305e-09	-2.391991e+01	-2.828491e+02
6.100000e-07	-3.271214e-06	-4.232084e-09	-2.292844e+01	-2.791338e+02
6.200000e-07	-3.128477e-06	-4.182675e-09	-2.192798e+01	-2.753082e+02
6.300000e-07	-2.984618e-06	-4.115585e-09	-2.091964e+01	-2.713509e+02
6.400000e-07	-2.839698e-06	-4.043994e-09	-1.990388e+01	-2.672292e+02
6.500000e-07	-2.693780e-06	-3.976965e-09	-1.888112e+01	-2.629013e+02
6.600000e-07	-2.546940e-06	-3.909282e-09	-1.785190e+01	-2.583206e+02
6.700000e-07	-2.399235e-06	-3.831805e-09	-1.681661e+01	-2.534407e+02
6.800000e-07	-2.250723e-06	-3.750808e-09	-1.577566e+01	-2.482198e+02
6.900000e-07	-2.101497e-06	-3.669836e-09	-1.472972e+01	-2.426242e+02
7.000000e-07	-1.951548e-06	-3.576495e-09	-1.367870e+01	-2.366304e+02
7.100000e-07	-1.800847e-06	-3.479485e-09	-1.262241e+01	-2.302234e+02
7.200000e-07	-1.649344e-06	-3.380875e-09	-1.156051e+01	-2.233939e+02
7.300000e-07	-1.497149e-06	-3.277925e-09	-1.049375e+01	-2.161321e+02
7.400000e-07	-1.344493e-06	-3.155874e-09	-9.423757e+00	-2.084204e+02
7.500000e-07	-1.191420e-06	-3.028255e-09	-8.350848e+00	-2.002252e+02
7.600000e-07	-1.037974e-06	-2.899145e-09	-7.275319e+00	-1.914904e+02
7.700000e-07	-8.841909e-07	-2.755583e-09	-6.197431e+00	-1.821318e+02
7.800000e-07	-7.300748e-07	-2.594396e-09	-5.117207e+00	-1.720363e+02
7.900000e-07	-5.756866e-07	-2.420162e-09	-4.035076e+00	-1.610649e+02
8.000000e-07	-4.210488e-07	-2.237352e-09	-2.951196e+00	-1.490602e+02
8.100000e-07	-2.662771e-07	-2.033469e-09	-1.866377e+00	-1.358592e+02
8.200000e-07	-1.114696e-07	-1.809508e-09	-7.813077e-01	-1.213088e+02
8.300000e-07	4.338113e-08	-1.564359e-09	3.040650e-01	-1.052847e+02
8.400000e-07	1.982046e-07	-1.298270e-09	1.389247e+00	-8.770904e+01
8.500000e-07	3.529184e-07	-1.007604e-09	2.473659e+00	-6.856787e+01
8.600000e-07	5.074828e-07	-6.963606e-10	3.557025e+00	-4.792341e+01
8.700000e-07	6.619231e-07	-3.675001e-10	4.639521e+00	-2.592127e+01
8.800000e-07	8.161640e-07	-1.685322e-11	5.720620e+00	-2.790582e+00
8.900000e-07	9.701031e-07	3.488943e-10	6.799602e+00	2.116334e+01
9.000000e-07	1.123690e-06	7.235803e-10	7.876120e+00	4.557355e+01
9.100000e-07	1.276876e-06	1.098966e-09	8.949822e+00	7.003208e+01
9.200000e-07	1.429625e-06	1.471504e-09	1.002046e+01	9.411494e+01
9.300000e-07	1.581875e-06	1.830835e-09	1.108761e+01	1.174090e+02
9.400000e-07	1.733591e-06	2.170529e-09	1.215101e+01	1.395385e+02
9.500000e-07	1.884661e-06	2.487195e-09	1.320988e+01	1.601881e+02
9.600000e-07	2.034972e-06	2.775256e-09	1.426343e+01	1.791215e+02
9.700000e-07	2.184456e-06	3.030823e-09	1.531119e+01	1.961920e+02
9.800000e-07	2.333050e-06	3.254624e-09	1.635271e+01	2.113464e+02
9.900000e-07	2.480814e-06	3.449349e-09	1.738841e+01	2.246202e+02
1.000000e-06	2.627762e-06	3.616773e-09	1.841839e+01	2.361265e+02
1.010000e-06	2.773789e-06	3.763276e-09	1.944191e+01	2.460394e+02
1.020000e-06	2.918840e-06	3.893008e-09	2.045860e+01	2.545729e+02
1.030000e-06	3.062919e-06	4.010299e-09	2.146847e+01	2.619601e+02
1.040000e-06	3.205825e-06	4.113648e-09	2.247012e+01	2.684322e+02
1.050000e-06	3.347372e-06	4.206573e-09	2.346225e+01	2.742011e+02
1.060000e-06	3.487620e-06	4.290631e-09	2.444527e+01	2.794463e+02
1.070000e-06	3.626618e-06	4.367566e-09	2.541952e+01	2.843071e+02
1.080000e-06	3.764317e-06	4.436666e-09	2.638468e+01	2.888807e+02
1.090000e-06	3.900632e-06	4.498881e-09	2.734013e+01	2.932245e+02
1.100000e-06	4.035496e-06	4.557795e-09	2.828541e+01	2.973631e+02
1.110000e-06	4.168852e-06	4.613044e-09	2.922012e+01	3.012975e+02
1.120000e-06	4.300655e-06	4.664660e-09	3.014395e+01	3.050153e+02
1.130000e-06	4.430908e-06	4.713877e-09	3.105692e+01	3.085007e+02
1.140000e-06	4.559665e-06	4.760108e-09	3.195939e+01	3.117420e+02
1.150000e-06	4.686844e-06	4.803091e-09	3.285082e+01	3.147379e+02
1.160000e-06	4.812312e-06	4.843277e-09	3.373024e+01	3.174989e+02
1.170000e-06	4.936041e-06	4.881893e-09	3.459747e+01	3.200475e+02
1.180000e-06	5.058091e-06	4.918255e-09	3.545294e+01	3.224153e+02
1.190000e-06	5.178357e-06	4.950306e-09	3.629590e+01	3.246382e+02
1.200000e-06	5.296663e-06	4.980809e-09	3.712513e+01	3.267518e+02
1.210000e-06	5.412971e-06	5.010341e-09	3.794035e+01	3.287865e+02
1.220000e-06	5.527234e-06	5.039780e-09	3.874123e+01	3.307636e+02
1.230000e-06	5.639434e-06	5.066900e-09	3.952767e+01	3.326939e+02
1.240000e-06	5.749548e-06	5.093314e-09	4.029947e+01	3.345774e+02
1.250000e-06	5.857602e-06	5.117994e-09	4.105684e+01	3.364048e+02
1.260000e-06	5.963660e-06	5.140023e-09	4.180021e+01	3.381611e+02
1.270000e-06	6.067585e-06	5.160769e-09	4.252864e+01	3.398288e+02
1.280000e-06	6.169245e-06	5.180499e-09	4.324119e+01	3.413923e+02
1.290000e-06	6.268672e-06	5.198784e-09	4.393809e+01	3.428412e+02
1.300000e-06	6.365816e-06	5.216231e-09	4.461898e+01	3.441721e+02
1.310000e-06	6.460653e-06	5.233979e-09	4.528371e+01	3.453901e+02
1.320000e-06	6.553224e-06	5.252553e-09	4.593256e+01	3.465075e+02
1.330000e-06	6.643546e-06	5.269637e-09	4.656564e+01	3.475426e+02
1.340000e-06	6.731544e-06	5.285636e-09	4.718243e+01	3.485161e+02
1.350000e-06	6.817151e-06	5.301206e-09	4.778246e+01	3.494489e+02
1.360000e-06	6.900382e-06	5.314291e-09	4.836584e+01	3.503583e+02
1.370000e-06	6.981159e-06	5.325807e-09	4.893202e+01	3.512561e+02
1.380000e-06	7.059429e-06	5.337066e-09	4.948063e+01	3.521472e+02
1.390000e-06	7.135142e-06	5.348861e-09	5.001131e+01	3.530297e+02
1.400000e-06	7.208245e-06	5.358919e-09	5.052370e+01	3.538956e+02
1.410000e-06	7.278695e-06	5.368859e-09	5.101750e+01	3.547333e+02
1.420000e-06	7.346476e-06	5.380048e-09	5.149258e+01	3.555296e+02
1.430000e-06	7.411620e-06	5.390708e-09	5.194919e+01	3.562723e+02
1.440000e-06	7.474191e-06	5.401419e-09	5.238776e+01	3.569529e+02
1.450000e-06	7.534199e-06	5.411701e-09	5.280837e+01	3.575675e+02
1.460000e-06	7.591560e-06	5.420201e-09	5.321041e+01	3.581180e+02
1.470000e-06	7.646171e-06	5.426994e-09	5.359319e+01	3.586109e+02
1.480000e-06	7.697750e-06	5.434669e-09	5.395472e+01	3.590567e+02
1.490000e-06	7.746193e-06	5.442225e-09	5.429426e+01	3.594674e+02
1.500000e-06	7.791769e-06	5.448598e-09	5.461371e+01	3.598548e+02
1.510000e-06	7.834603e-06	5.453868e-09	5.491394e+01	3.602284e+02
1.520000e-06	7.874610e-06	5.458838e-09	5.519436e+01	3.605935e+02
1.530000e-06	7.911839e-06	5.464625e-09	5.545530e+01	3.609510e+02
1.540000e-06	7.946376e-06	5.469900e-09	5.569738e+01	3.612973e+02
1.550000e-06	7.978124e-06	5.473427e-09	5.591990e+01	3.616252e+02
1.560000e-06	8.007131e-06	5.475227e-09	5.612321e+01	3.619255e+02
1.570000e-06	8.033359e-06	5.477095e-09	5.630705e+01	3.621890e+02
1.580000e-06	8.056646e-06	5.477938e-09	5.647028e+01	3.624079e+02
1.590000e-06	8.077166e-06	5.479558e-09	5.661410e+01	3.625780e+02
1.600000e-06	8.094884e-06	5.480991e-09	5.673829e+01	3.626988e+02
1.610000e-06	8.109629e-06	5.481481e-09	5.684164e+01	3.627739e+02
1.620000e-06	8.121280e-06	5.482943e-09	5.692330e+01	3.628102e+02
1.630000e-06	8.129749e-06	5.485713e-09	5.698266e+01	3.628164e+02
1.640000e-06	8.135305e-06	5.489613e-09	5.702160e+01	3.628011e+02
1.650000e-06	8.138128e-06	5.491558e-09	5.704140e+01	3.627714e+02
1.660000e-06	8.138143e-06	5.491356e-09	5.704150e+01	3.627309e+02
1.670000e-06	8.135396e-06	5.487325e-09	5.702225e+01	3.626789e+02
1.680000e-06	8.129928e-06	5.487207e-09	5.698392e+01	3.626105e+02
1.690000e-06	8.121737e-06	5.487071e-09	5.692651e+01	3.625170e+02
1.700000e-06	8.110833e-06	5.484053e-09	5.685008e+01	3.623878e+02
1.710000e-06	8.097041e-06	5.479783e-09	5.675341e+01	3.622120e+02
1.720000e-06	8.080518e-06	5.482183e-09	5.663760e+01	3.619807e+02
1.730000e-06	8.061699e-06	5.498697e-09	5.650569e+01	3.616888e+02
1.740000e-06	8.040382e-06	5.464654e-09	5.635628e+01	3.613368e+02
1.750000e-06	8.015849e-06	5.463688e-09	5.618432e+01	3.609307e+02
1.760000e-06	7.987587e-06	5.484488e-09	5.598623e+01	3.604817e+02
1.770000e-06	7.955878e-06	5.476070e-09	5.576398e+01	3.600051e+02
1.780000e-06	7.921566e-06	5.427376e-09	5.552348e+01	3.595176e+02
1.790000e-06	7.884944e-06	5.414279e-09	5.526679e+01	3.590351e+02
1.800000e-06	7.845935e-06	5.446797e-09	5.499337e+01	3.585698e+02
1.810000e-06	7.804805e-06	5.407201e-09	5.470508e+01	3.581283e+02
1.820000e-06	7.761276e-06	5.490554e-09	5.439998e+01	3.577097e+02
1.830000e-06	7.714904e-06	5.485029e-09	5.407495e+01	3.573060e+02
1.840000e-06	7.665822e-06	5.441689e-09	5.373093e+01	3.569023e+02
1.850000e-06	7.613701e-06	5.428358e-09	5.336561e+01	3.564788e+02
1.860000e-06	7.558591e-06	5.402683e-09	5.297933e+01	3.560136e+02
1.870000e-06	7.500761e-06	5.476591e-09	5.257399e+01	3.554858e+02
1.880000e-06	7.440175e-06	5.370844e-09	5.214934e+01	3.548780e+02
1.890000e-06	7.376970e-06	5.365778e-09	5.170632e+01	3.541790e+02
1.900000e-06	7.311037e-06	5.428403e-09	5.124419e+01	3.533852e+02
1.910000e-06	7.242305e-06	5.364093e-09	5.076243e+01	3.525008e+02
1.920000e-06	7.170721e-06	5.359886e-09	5.026069e+01	3.515368e+02
1.930000e-06	7.096512e-06	5.346455e-09	4.974055e+01	3.505088e+02
1.940000e-06	7.019566e-06	5.371470e-09	4.920122e+01	3.494344e+02
1.950000e-06	6.939761e-06	5.292906e-09	4.864185e+01	3.483300e+02
1.960000e-06	6.857612e-06	5.297126e-09	4.806606e+01	3.472078e+02
1.970000e-06	6.773098e-06	5.334889e-09	4.747369e+01	3.460734e+02
1.980000e-06	6.686010e-06	5.249758e-09	4.686328e+01	3.449251e+02
1.990000e-06	6.596481e-06	5.245453e-09	4.623576e+01	3.437536e+02
2.000000e-06	6.504779e-06	5.239388e-09	4.559300e+01	3.425433e+02
2.010000e-06	6.410804e-06	5.252031e-09	4.493431e+01	3.412754e+02
2.020000e-06	6.314408e-06	5.179521e-09	4.425866e+01	3.399300e+02
2.030000e-06	6.215878e-06	5.178917e-09	4.356805e+01	3.384901e+02
2.040000e-06	6.115170e-06	5.186379e-09	4.286217e+01	3.369441e+02
2.050000e-06	6.012133e-06	5.128026e-09	4.213997e+01	3.352880e+02
2.060000e-06	5.906910e-06	5.088899e-09	4.140245e+01	3.335259e+02
2.070000e-06	5.799736e-06	5.077122e-09	4.065124e+01	3.316695e+02
2.080000e-06	5.690493e-06	5.072695e-09	3.988554e+01	3.297359e+02
2.090000e-06	5.579009e-06	4.999326e-09	3.910414e+01	3.277452e+02
2.100000e-06	5.465458e-06	4.985796e-09	3.830824e+01	3.257162e+02
2.110000e-06	5.349818e-06	4.975311e-09	3.749770e+01	3.236633e+02
2.120000e-06	5.232030e-06	4.940553e-09	3.667210e+01	3.215939e+02
2.130000e-06	5.112231e-06	4.888846e-09	3.583241e+01	3.195060e+02
2.140000e-06	4.990678e-06	4.874442e-09	3.498043e+01	3.173880e+02
2.150000e-06	4.867370e-06	4.845660e-09	3.411615e+01	3.152203e+02
2.160000e-06	4.742225e-06	4.788178e-09	3.323898e+01	3.129773e+02
2.170000e-06	4.615389e-06	4.754242e-09	3.234997e+01	3.106312e+02
2.180000e-06	4.486945e-06	4.726135e-09	3.144969e+01	3.081557e+02
2.190000e-06	4.356980e-06	4.681997e-09	3.053875e+01	3.055299e+02
2.200000e-06	4.225502e-06	4.625067e-09	2.961720e+01	3.027408e+02
2.210000e-06	4.092422e-06	4.596102e-09	2.868442e+01	2.997848e+02
2.220000e-06	3.957826e-06	4.557781e-09	2.774101e+01	2.966676e+02
2.230000e-06	3.821800e-06	4.501727e-09	2.678759e+01	2.934020e+02
2.240000e-06	3.684412e-06	4.443923e-09	2.582461e+01	2.900047e+02
2.250000e-06	3.545630e-06	4.401196e-09	2.485187e+01	2.864918e+02
2.260000e-06	3.405388e-06	4.347192e-09	2.386889e+01	2.828746e+02
2.270000e-06	3.263946e-06	4.283440e-09	2.287750e+01	2.791556e+02
2.280000e-06	3.121374e-06	4.227407e-09	2.187819e+01	2.753257e+02
2.290000e-06	2.977534e-06	4.170862e-09	2.087000e+01	2.713632e+02
2.300000e-06	2.832587e-06	4.101877e-09	1.985404e+01	2.672348e+02
2.310000e-06	2.686750e-06	4.032123e-09	1.883185e+01	2.628987e+02
2.320000e-06	2.539981e-06	3.968193e-09	1.780312e+01	2.583081e+02
2.330000e-06	2.392243e-06	3.891355e-09	1.676760e+01	2.534167e+02
2.340000e-06	2.243575e-06	3.803484e-09	1.572556e+01	2.481829e+02
2.350000e-06	2.094095e-06	3.721993e-09	1.467784e+01	2.425734e+02
2.360000e-06	1.943914e-06	3.639070e-09	1.362519e+01	2.365650e+02
2.370000e-06	1.793077e-06	3.539715e-09	1.256795e+01	2.301431e+02
2.380000e-06	1.641673e-06	3.431877e-09	1.150674e+01	2.232983e+02
2.390000e-06	1.489734e-06	3.326632e-09	1.044178e+01	2.160208e+02
2.400000e-06	1.337267e-06	3.213711e-09	9.373110e+00	2.082925e+02
2.410000e-06	1.184302e-06	3.086359e-09	8.300954e+00	2.000792e+02
2.420000e-06	1.030956e-06	2.953476e-09	7.226130e+00	1.913236e+02
2.430000e-06	8.772782e-07	2.813111e-09	6.148978e+00	1.819408e+02
2.440000e-06	7.232526e-07	2.654127e-09	5.069389e+00	1.718166e+02
2.450000e-06	5.689699e-07	2.478428e-09	3.987997e+00	1.608110e+02
2.460000e-06	4.145372e-07	2.293749e-09	2.905555e+00	1.487664e+02
2.470000e-06	2.599449e-07	2.092683e-09	1.821994e+00	1.355197e+02
2.480000e-06	1.052150e-07	1.867312e-09	7.374682e-01	1.209186e+02
2.490000e-06	-4.955680e-08	1.621369e-09	-3.473513e-01	1.048400e+02
2.500000e-06	-2.042813e-07	1.360756e-09	-1.431839e+00	8.720827e+01
2.510000e-06	-3.588589e-07	1.074645e-09	-2.515297e+00	6.801185e+01
2.520000e-06	-5.132852e-07	7.620637e-10	-3.597695e+00	4.731587e+01
2.530000e-06	-6.675561e-07	4.317219e-10	-4.679003e+00	2.526898e+01
2.540000e-06	-8.215489e-07	8.202674e-11	-5.758363e+00	2.103198e+00
2.550000e-06	-9.752329e-07	-2.853211e-10	-6.835558e+00	-2.187367e+01
2.560000e-06	-1.128585e-06	-6.627365e-10	-7.910425e+00	-4.629281e+01
2.570000e-06	-1.281500e-06	-1.039953e-09	-8.982229e+00	-7.074527e+01
2.580000e-06	-1.433976e-06	-1.412936e-09	-1.005096e+01	-9.480694e+01
2.590000e-06	-1.585927e-06	-1.775818e-09	-1.111600e+01	-1.180656e+02
2.600000e-06	-1.737228e-06	-2.116802e-09	-1.217650e+01	-1.401472e+02
2.610000e-06	-1.887950e-06	-2.431839e-09	-1.323294e+01	-1.607392e+02
2.620000e-06	-2.038076e-06	-2.720038e-09	-1.428519e+01	-1.796080e+02
2.630000e-06	-2.187506e-06	-2.977195e-09	-1.533256e+01	-1.966105e+02
2.640000e-06	-2.336222e-06	-3.201707e-09	-1.637494e+01	-2.116966e+02
2.650000e-06	-2.484113e-06	-3.397927e-09	-1.741153e+01	-2.249049e+02
2.660000e-06	-2.631006e-06	-3.570794e-09	-1.844112e+01	-2.363511e+02
2.670000e-06	-2.776848e-06	-3.721816e-09	-1.946335e+01	-2.462108e+02
2.680000e-06	-2.921712e-06	-3.851117e-09	-2.047873e+01	-2.546994e+02
2.690000e-06	-3.065537e-06	-3.966292e-09	-2.148682e+01	-2.620500e+02
2.700000e-06	-3.208244e-06	-4.071109e-09	-2.248708e+01	-2.684935e+02
2.710000e-06	-3.349826e-06	-4.163616e-09	-2.347945e+01	-2.742408e+02
2.720000e-06	-3.490185e-06	-4.246493e-09	-2.446325e+01	-2.794701e+02
2.730000e-06	-3.629160e-06	-4.322906e-09	-2.543734e+01	-2.843193e+02
2.740000e-06	-3.766701e-06	-4.395013e-09	-2.640139e+01	-2.888840e+02
2.750000e-06	-3.902827e-06	-4.460960e-09	-2.735552e+01	-2.932202e+02
2.760000e-06	-4.037538e-06	-4.521943e-09	-2.829972e+01	-2.973516e+02
2.770000e-06	-4.170889e-06	-4.580962e-09	-2.923441e+01	-3.012786e+02
2.780000e-06	-4.302761e-06	-4.637256e-09	-3.015871e+01	-3.049883e+02
2.790000e-06	-4.433056e-06	-4.689040e-09	-3.107197e+01	-3.084651e+02
2.800000e-06	-4.561810e-06	-4.737456e-09	-3.197443e+01	-3.116977e+02
2.810000e-06	-4.688994e-06	-4.783343e-09	-3.286588e+01	-3.146849e+02
2.820000e-06	-4.814535e-06	-4.827441e-09	-3.374582e+01	-3.174379e+02
2.830000e-06	-4.938298e-06	-4.870575e-09	-3.461329e+01	-3.199795e+02
2.840000e-06	-5.060233e-06	-4.913405e-09	-3.546795e+01	-3.223415e+02
2.850000e-06	-5.180357e-06	-4.954583e-09	-3.630992e+01	-3.245599e+02
2.860000e-06	-5.298585e-06	-4.992019e-09	-3.713860e+01	-3.266703e+02
2.870000e-06	-5.414681e-06	-5.027225e-09	-3.795233e+01	-3.287026e+02
2.880000e-06	-5.528569e-06	-5.060748e-09	-3.875060e+01	-3.306779e+02
2.890000e-06	-5.640400e-06	-5.091459e-09	-3.953443e+01	-3.326066e+02
2.900000e-06	-5.750157e-06	-5.120114e-09	-4.030374e+01	-3.344883e+02
2.910000e-06	-5.857844e-06	-5.147626e-09	-4.105853e+01	-3.363135e+02
2.920000e-06	-5.963514e-06	-5.173841e-09	-4.179919e+01	-3.380670e+02
2.930000e-06	-6.067062e-06	-5.198452e-09	-4.252498e+01	-3.397312e+02
2.940000e-06	-6.168409e-06	-5.222884e-09	-4.323533e+01	-3.412908e+02
