# Temperatura_=_20.0
# Concentracion g/m^3_=_9000.0
# C_Vs_to_Am_M_A/Vsm_=_65563218390.804596
# pendiente_HvsI_1/m_=_3716.3
# ordenada_HvsI_A/m_=_1297.0
# frecuencia_Hz_=_301296.35447051603

Tiempo_(s)	Campo_(V.s)	Magnetizacion_(V.s)	Campo_(kA/m)	Magnetizacion_(A/m)
0.000000e+00	-8.127766e-06	-6.954688e-09	-5.697964e+01	-4.561249e+02
1.000000e-08	-8.125515e-06	-6.956634e-09	-5.696386e+01	-4.560304e+02
2.000000e-08	-8.120587e-06	-6.957061e-09	-5.692931e+01	-4.559362e+02
3.000000e-08	-8.113060e-06	-6.953659e-09	-5.687654e+01	-4.558322e+02
4.000000e-08	-8.102746e-06	-6.949973e-09	-5.680423e+01	-4.557020e+02
5.000000e-08	-8.089430e-06	-6.947137e-09	-5.671088e+01	-4.555258e+02
6.000000e-08	-8.073122e-06	-6.943184e-09	-5.659655e+01	-4.552839e+02
7.000000e-08	-8.054277e-06	-6.941405e-09	-5.646444e+01	-4.549598e+02
8.000000e-08	-8.033142e-06	-6.939851e-09	-5.631627e+01	-4.545433e+02
9.000000e-08	-8.009300e-06	-6.962451e-09	-5.614913e+01	-4.540327e+02
1.000000e-07	-7.982332e-06	-6.971446e-09	-5.596007e+01	-4.534355e+02
1.100000e-07	-7.952206e-06	-6.937014e-09	-5.574888e+01	-4.527672e+02
1.200000e-07	-7.919090e-06	-6.895387e-09	-5.551672e+01	-4.520494e+02
1.300000e-07	-7.883166e-06	-6.877295e-09	-5.526487e+01	-4.513065e+02
1.400000e-07	-7.844775e-06	-6.882038e-09	-5.499573e+01	-4.505619e+02
1.500000e-07	-7.804216e-06	-6.858656e-09	-5.471139e+01	-4.498341e+02
1.600000e-07	-7.761218e-06	-6.842295e-09	-5.440995e+01	-4.491340e+02
1.700000e-07	-7.715354e-06	-6.842490e-09	-5.408842e+01	-4.484624e+02
1.800000e-07	-7.666659e-06	-6.806492e-09	-5.374705e+01	-4.478105e+02
1.900000e-07	-7.615048e-06	-6.835457e-09	-5.338523e+01	-4.471601e+02
2.000000e-07	-7.560371e-06	-6.831700e-09	-5.300192e+01	-4.464871e+02
2.100000e-07	-7.502856e-06	-6.778923e-09	-5.259871e+01	-4.457644e+02
2.200000e-07	-7.442758e-06	-6.768292e-09	-5.217739e+01	-4.449662e+02
2.300000e-07	-7.380123e-06	-6.766547e-09	-5.173829e+01	-4.440717e+02
2.400000e-07	-7.314752e-06	-6.774472e-09	-5.128001e+01	-4.430679e+02
2.500000e-07	-7.246574e-06	-6.723708e-09	-5.080204e+01	-4.419516e+02
2.600000e-07	-7.175719e-06	-6.710341e-09	-5.030532e+01	-4.407290e+02
2.700000e-07	-7.102131e-06	-6.708072e-09	-4.978943e+01	-4.394148e+02
2.800000e-07	-7.025829e-06	-6.684870e-09	-4.925452e+01	-4.380286e+02
2.900000e-07	-6.946845e-06	-6.665209e-09	-4.870080e+01	-4.365920e+02
3.000000e-07	-6.865240e-06	-6.645453e-09	-4.812871e+01	-4.351245e+02
3.100000e-07	-6.781287e-06	-6.622318e-09	-4.754016e+01	-4.336398e+02
3.200000e-07	-6.695005e-06	-6.579239e-09	-4.693527e+01	-4.321436e+02
3.300000e-07	-6.606415e-06	-6.576595e-09	-4.631421e+01	-4.306323e+02
3.400000e-07	-6.515469e-06	-6.559165e-09	-4.567664e+01	-4.290935e+02
3.500000e-07	-6.422154e-06	-6.508885e-09	-4.502246e+01	-4.275084e+02
3.600000e-07	-6.326585e-06	-6.477565e-09	-4.435247e+01	-4.258544e+02
3.700000e-07	-6.228726e-06	-6.470658e-09	-4.366643e+01	-4.241091e+02
3.800000e-07	-6.128603e-06	-6.441136e-09	-4.296452e+01	-4.222543e+02
3.900000e-07	-6.026196e-06	-6.395424e-09	-4.224660e+01	-4.202784e+02
4.000000e-07	-5.921624e-06	-6.375565e-09	-4.151349e+01	-4.181789e+02
4.100000e-07	-5.815025e-06	-6.350844e-09	-4.076618e+01	-4.159625e+02
4.200000e-07	-5.706310e-06	-6.307814e-09	-4.000404e+01	-4.136434e+02
4.300000e-07	-5.595463e-06	-6.271501e-09	-3.922695e+01	-4.112411e+02
4.400000e-07	-5.482565e-06	-6.248264e-09	-3.843548e+01	-4.087759e+02
4.500000e-07	-5.367548e-06	-6.201983e-09	-3.762915e+01	-4.062655e+02
4.600000e-07	-5.250402e-06	-6.150721e-09	-3.680790e+01	-4.037209e+02
4.700000e-07	-5.131274e-06	-6.118852e-09	-3.597275e+01	-4.011437e+02
4.800000e-07	-5.010375e-06	-6.085461e-09	-3.512519e+01	-3.985248e+02
4.900000e-07	-4.887654e-06	-6.032425e-09	-3.426486e+01	-3.958450e+02
5.000000e-07	-4.763128e-06	-5.986688e-09	-3.339187e+01	-3.930774e+02
5.100000e-07	-4.636967e-06	-5.951154e-09	-3.250742e+01	-3.901906e+02
5.200000e-07	-4.509077e-06	-5.900882e-09	-3.161085e+01	-3.871536e+02
5.300000e-07	-4.379575e-06	-5.845670e-09	-3.070297e+01	-3.839396e+02
5.400000e-07	-4.248542e-06	-5.797563e-09	-2.978437e+01	-3.805301e+02
5.500000e-07	-4.115935e-06	-5.747019e-09	-2.885473e+01	-3.769172e+02
5.600000e-07	-3.981854e-06	-5.683037e-09	-2.791475e+01	-3.731033e+02
5.700000e-07	-3.846289e-06	-5.625173e-09	-2.696438e+01	-3.691001e+02
5.800000e-07	-3.709227e-06	-5.569875e-09	-2.600350e+01	-3.649250e+02
5.900000e-07	-3.570784e-06	-5.503957e-09	-2.503295e+01	-3.605958e+02
6.000000e-07	-3.430943e-06	-5.430269e-09	-2.405260e+01	-3.561260e+02
6.100000e-07	-3.289704e-06	-5.362147e-09	-2.306244e+01	-3.515196e+02
6.200000e-07	-3.147231e-06	-5.292751e-09	-2.206364e+01	-3.467674e+02
6.300000e-07	-3.003573e-06	-5.209633e-09	-2.105652e+01	-3.418451e+02
6.400000e-07	-2.858763e-06	-5.124806e-09	-2.004133e+01	-3.367143e+02
6.500000e-07	-2.712980e-06	-5.041748e-09	-1.901932e+01	-3.313246e+02
6.600000e-07	-2.566274e-06	-4.953124e-09	-1.799084e+01	-3.256188e+02
6.700000e-07	-2.418700e-06	-4.855327e-09	-1.695627e+01	-3.195387e+02
6.800000e-07	-2.270302e-06	-4.759441e-09	-1.591593e+01	-3.130304e+02
6.900000e-07	-2.121092e-06	-4.657191e-09	-1.486989e+01	-3.060494e+02
7.000000e-07	-1.971215e-06	-4.541687e-09	-1.381918e+01	-2.985629e+02
7.100000e-07	-1.820616e-06	-4.419760e-09	-1.276341e+01	-2.905491e+02
7.200000e-07	-1.669284e-06	-4.294590e-09	-1.170250e+01	-2.819941e+02
7.300000e-07	-1.517354e-06	-4.158887e-09	-1.063740e+01	-2.728844e+02
7.400000e-07	-1.364927e-06	-4.007440e-09	-9.568810e+00	-2.631987e+02
7.500000e-07	-1.212056e-06	-3.851913e-09	-8.497111e+00	-2.528974e+02
7.600000e-07	-1.058738e-06	-3.687982e-09	-7.422271e+00	-2.419141e+02
7.700000e-07	-9.049968e-07	-3.507245e-09	-6.344473e+00	-2.301484e+02
7.800000e-07	-7.509681e-07	-3.307053e-09	-5.264656e+00	-2.174640e+02
7.900000e-07	-5.966916e-07	-3.091496e-09	-4.183102e+00	-2.036907e+02
8.000000e-07	-4.421523e-07	-2.857790e-09	-3.099705e+00	-1.886341e+02
8.100000e-07	-2.874431e-07	-2.601012e-09	-2.015117e+00	-1.720897e+02
8.200000e-07	-1.326353e-07	-2.320435e-09	-9.298389e-01	-1.538625e+02
8.300000e-07	2.219493e-08	-2.011435e-09	1.555974e-01	-1.337897e+02
8.400000e-07	1.770124e-07	-1.674462e-09	1.240944e+00	-1.117643e+02
8.500000e-07	3.317237e-07	-1.310246e-09	2.325547e+00	-8.775678e+01
8.600000e-07	4.862577e-07	-9.210356e-10	3.408905e+00	-6.183208e+01
8.700000e-07	6.406644e-07	-5.049299e-10	4.491372e+00	-3.416018e+01
8.800000e-07	7.948870e-07	-6.402075e-11	5.572549e+00	-5.017669e+00
8.900000e-07	9.487980e-07	3.956065e-10	6.651540e+00	2.522006e+01
9.000000e-07	1.102326e-06	8.684583e-10	7.727849e+00	5.609589e+01
9.100000e-07	1.255424e-06	1.346032e-09	8.801138e+00	8.709619e+01
9.200000e-07	1.408065e-06	1.819516e-09	9.871225e+00	1.176820e+02
9.300000e-07	1.560260e-06	2.277785e-09	1.093819e+01	1.473232e+02
9.400000e-07	1.711993e-06	2.713389e-09	1.200191e+01	1.755330e+02
9.500000e-07	1.863156e-06	3.118680e-09	1.306164e+01	2.018979e+02
9.600000e-07	2.013546e-06	3.486995e-09	1.411594e+01	2.261026e+02
9.700000e-07	2.163053e-06	3.814155e-09	1.516406e+01	2.479457e+02
9.800000e-07	2.311760e-06	4.100555e-09	1.620657e+01	2.673451e+02
9.900000e-07	2.459657e-06	4.348041e-09	1.724341e+01	2.843340e+02
1.000000e-06	2.606685e-06	4.560776e-09	1.827414e+01	2.990473e+02
1.010000e-06	2.752776e-06	4.746481e-09	1.929831e+01	3.117009e+02
1.020000e-06	2.897911e-06	4.911814e-09	2.031578e+01	3.225654e+02
1.030000e-06	3.042078e-06	5.060189e-09	2.132646e+01	3.319386e+02
1.040000e-06	3.185137e-06	5.192344e-09	2.232938e+01	3.401188e+02
1.050000e-06	3.326940e-06	5.311520e-09	2.332348e+01	3.473809e+02
1.060000e-06	3.467477e-06	5.418698e-09	2.430872e+01	3.539594e+02
1.070000e-06	3.606665e-06	5.516377e-09	2.528449e+01	3.600376e+02
1.080000e-06	3.744419e-06	5.604813e-09	2.625022e+01	3.657437e+02
1.090000e-06	3.880842e-06	5.683677e-09	2.720661e+01	3.711541e+02
1.100000e-06	4.015863e-06	5.756673e-09	2.815318e+01	3.763016e+02
1.110000e-06	4.149376e-06	5.826227e-09	2.908916e+01	3.811880e+02
1.120000e-06	4.281402e-06	5.891568e-09	3.001473e+01	3.857968e+02
1.130000e-06	4.411936e-06	5.952150e-09	3.092984e+01	3.901066e+02
1.140000e-06	4.540930e-06	6.008190e-09	3.183415e+01	3.941017e+02
1.150000e-06	4.668333e-06	6.062144e-09	3.272731e+01	3.977795e+02
1.160000e-06	4.794059e-06	6.113827e-09	3.360871e+01	4.011540e+02
1.170000e-06	4.918073e-06	6.163877e-09	3.447811e+01	4.042553e+02
1.180000e-06	5.040346e-06	6.210528e-09	3.533530e+01	4.071258e+02
1.190000e-06	5.160831e-06	6.250879e-09	3.617997e+01	4.098140e+02
1.200000e-06	5.279431e-06	6.289652e-09	3.701140e+01	4.123684e+02
1.210000e-06	5.396079e-06	6.327976e-09	3.782916e+01	4.148302e+02
1.220000e-06	5.510690e-06	6.363099e-09	3.863264e+01	4.172288e+02
1.230000e-06	5.623152e-06	6.394223e-09	3.942106e+01	4.195790e+02
1.240000e-06	5.733502e-06	6.425095e-09	4.019467e+01	4.218807e+02
1.250000e-06	5.841829e-06	6.455764e-09	4.095409e+01	4.241213e+02
1.260000e-06	5.948100e-06	6.484352e-09	4.169911e+01	4.262799e+02
1.270000e-06	6.052237e-06	6.511014e-09	4.242916e+01	4.283324e+02
1.280000e-06	6.154199e-06	6.536533e-09	4.314396e+01	4.302570e+02
1.290000e-06	6.254025e-06	6.562389e-09	4.384379e+01	4.320392e+02
1.300000e-06	6.351568e-06	6.587569e-09	4.452762e+01	4.336744e+02
1.310000e-06	6.446698e-06	6.609997e-09	4.519452e+01	4.351693e+02
1.320000e-06	6.539586e-06	6.631377e-09	4.584572e+01	4.365412e+02
1.330000e-06	6.630227e-06	6.653636e-09	4.648115e+01	4.378150e+02
1.340000e-06	6.718488e-06	6.675126e-09	4.709990e+01	4.390195e+02
1.350000e-06	6.804376e-06	6.693929e-09	4.770202e+01	4.401826e+02
1.360000e-06	6.887924e-06	6.711359e-09	4.828773e+01	4.413273e+02
1.370000e-06	6.969019e-06	6.728295e-09	4.885625e+01	4.424683e+02
1.380000e-06	7.047636e-06	6.745335e-09	4.940739e+01	4.436102e+02
1.390000e-06	7.123712e-06	6.760837e-09	4.994073e+01	4.447471e+02
1.400000e-06	7.197070e-06	6.774497e-09	5.045500e+01	4.458651e+02
1.410000e-06	7.267767e-06	6.790425e-09	5.095062e+01	4.469441e+02
1.420000e-06	7.335886e-06	6.806791e-09	5.142817e+01	4.479629e+02
1.430000e-06	7.401324e-06	6.822281e-09	5.188692e+01	4.489020e+02
1.440000e-06	7.464145e-06	6.835886e-09	5.232733e+01	4.497481e+02
1.450000e-06	7.524501e-06	6.847793e-09	5.275045e+01	4.504954e+02
1.460000e-06	7.582202e-06	6.859714e-09	5.315496e+01	4.511474e+02
1.470000e-06	7.637145e-06	6.870167e-09	5.354014e+01	4.517158e+02
1.480000e-06	7.689178e-06	6.877869e-09	5.390492e+01	4.522185e+02
1.490000e-06	7.738040e-06	6.885756e-09	5.424747e+01	4.526764e+02
1.500000e-06	7.783940e-06	6.895201e-09	5.456925e+01	4.531100e+02
1.510000e-06	7.827187e-06	6.905152e-09	5.487243e+01	4.535360e+02
1.520000e-06	7.867659e-06	6.913160e-09	5.515616e+01	4.539646e+02
1.530000e-06	7.905313e-06	6.921069e-09	5.542013e+01	4.543982e+02
1.540000e-06	7.940283e-06	6.928883e-09	5.566529e+01	4.548309e+02
1.550000e-06	7.972428e-06	6.934105e-09	5.589064e+01	4.552505e+02
1.560000e-06	8.001785e-06	6.937989e-09	5.609645e+01	4.556403e+02
1.570000e-06	8.028373e-06	6.940929e-09	5.628284e+01	4.559827e+02
1.580000e-06	8.052037e-06	6.944836e-09	5.644874e+01	4.562622e+02
1.590000e-06	8.072914e-06	6.949061e-09	5.659510e+01	4.564685e+02
1.600000e-06	8.090984e-06	6.952423e-09	5.672177e+01	4.565979e+02
1.610000e-06	8.106113e-06	6.956111e-09	5.682784e+01	4.566544e+02
1.620000e-06	8.118249e-06	6.960762e-09	5.691292e+01	4.566487e+02
1.630000e-06	8.127206e-06	6.965899e-09	5.697571e+01	4.565962e+02
1.640000e-06	8.133136e-06	6.968838e-09	5.701728e+01	4.565142e+02
1.650000e-06	8.136282e-06	6.969130e-09	5.703934e+01	4.564187e+02
1.660000e-06	8.136591e-06	6.969163e-09	5.704150e+01	4.563213e+02
1.670000e-06	8.134184e-06	6.963928e-09	5.702463e+01	4.562268e+02
1.680000e-06	8.129156e-06	6.959769e-09	5.698938e+01	4.561325e+02
1.690000e-06	8.121421e-06	6.956251e-09	5.693516e+01	4.560278e+02
1.700000e-06	8.111000e-06	6.952889e-09	5.686210e+01	4.558963e+02
1.710000e-06	8.097672e-06	6.949584e-09	5.676866e+01	4.557181e+02
1.720000e-06	8.081530e-06	6.945407e-09	5.665550e+01	4.554734e+02
1.730000e-06	8.062993e-06	6.938886e-09	5.652554e+01	4.551460e+02
1.740000e-06	8.042016e-06	6.909407e-09	5.637849e+01	4.547261e+02
1.750000e-06	8.017956e-06	6.863727e-09	5.620982e+01	4.542123e+02
1.760000e-06	7.990212e-06	6.870694e-09	5.601532e+01	4.536121e+02
1.770000e-06	7.958965e-06	6.897531e-09	5.579626e+01	4.529416e+02
1.780000e-06	7.924962e-06	6.904352e-09	5.555788e+01	4.522224e+02
1.790000e-06	7.888723e-06	6.887673e-09	5.530382e+01	4.514791e+02
1.800000e-06	7.850131e-06	6.898527e-09	5.503328e+01	4.507348e+02
1.810000e-06	7.809353e-06	6.854696e-09	5.474740e+01	4.500078e+02
1.820000e-06	7.766247e-06	6.828572e-09	5.444521e+01	4.493087e+02
1.830000e-06	7.720289e-06	6.873558e-09	5.412302e+01	4.486380e+02
1.840000e-06	7.671588e-06	6.820115e-09	5.378161e+01	4.479864e+02
1.850000e-06	7.619896e-06	6.831396e-09	5.341922e+01	4.473357e+02
1.860000e-06	7.565148e-06	6.824859e-09	5.303541e+01	4.466613e+02
1.870000e-06	7.507686e-06	6.809269e-09	5.263257e+01	4.459363e+02
1.880000e-06	7.447553e-06	6.799100e-09	5.221101e+01	4.451349e+02
1.890000e-06	7.384800e-06	6.748592e-09	5.177108e+01	4.442366e+02
1.900000e-06	7.319263e-06	6.781749e-09	5.131163e+01	4.432288e+02
1.910000e-06	7.250893e-06	6.735478e-09	5.083232e+01	4.421085e+02
1.920000e-06	7.179688e-06	6.710103e-09	5.033314e+01	4.408823e+02
1.930000e-06	7.105821e-06	6.720410e-09	4.981530e+01	4.395650e+02
1.940000e-06	7.029304e-06	6.687412e-09	4.927887e+01	4.381766e+02
1.950000e-06	6.949886e-06	6.655185e-09	4.872212e+01	4.367386e+02
1.960000e-06	6.867996e-06	6.623739e-09	4.814803e+01	4.352703e+02
1.970000e-06	6.783818e-06	6.642029e-09	4.755790e+01	4.337851e+02
1.980000e-06	6.697099e-06	6.587799e-09	4.694996e+01	4.322884e+02
1.990000e-06	6.607910e-06	6.554630e-09	4.632470e+01	4.307763e+02
2.000000e-06	6.516496e-06	6.560293e-09	4.568384e+01	4.292362e+02
2.010000e-06	6.422843e-06	6.534516e-09	4.502729e+01	4.276490e+02
2.020000e-06	6.326803e-06	6.496562e-09	4.435400e+01	4.259921e+02
2.030000e-06	6.228564e-06	6.467354e-09	4.366529e+01	4.242431e+02
2.040000e-06	6.128181e-06	6.457088e-09	4.296156e+01	4.223840e+02
2.050000e-06	6.025512e-06	6.400847e-09	4.224180e+01	4.204037e+02
2.060000e-06	5.920627e-06	6.364138e-09	4.150651e+01	4.182998e+02
2.070000e-06	5.813751e-06	6.348549e-09	4.075725e+01	4.160794e+02
2.080000e-06	5.704866e-06	6.316691e-09	3.999392e+01	4.137570e+02
2.090000e-06	5.593844e-06	6.261271e-09	3.921560e+01	4.113520e+02
2.100000e-06	5.480659e-06	6.232584e-09	3.842212e+01	4.088849e+02
2.110000e-06	5.365322e-06	6.216118e-09	3.761354e+01	4.063731e+02
2.120000e-06	5.247904e-06	6.168703e-09	3.679039e+01	4.038274e+02
2.130000e-06	5.128466e-06	6.122362e-09	3.595307e+01	4.012488e+02
2.140000e-06	5.007172e-06	6.089446e-09	3.510274e+01	3.986281e+02
2.150000e-06	4.884071e-06	6.047587e-09	3.423974e+01	3.959456e+02
2.160000e-06	4.759198e-06	5.991735e-09	3.336431e+01	3.931743e+02
2.170000e-06	4.632694e-06	5.953040e-09	3.247746e+01	3.902826e+02
2.180000e-06	4.504542e-06	5.908250e-09	3.157905e+01	3.872396e+02
2.190000e-06	4.374758e-06	5.848048e-09	3.066920e+01	3.840188e+02
2.200000e-06	4.243425e-06	5.792618e-09	2.974849e+01	3.806021e+02
2.210000e-06	4.110555e-06	5.752609e-09	2.881701e+01	3.769819e+02
2.220000e-06	3.976256e-06	5.699918e-09	2.787551e+01	3.731609e+02
2.230000e-06	3.840562e-06	5.631323e-09	2.692423e+01	3.691513e+02
2.240000e-06	3.703392e-06	5.569834e-09	2.596260e+01	3.649703e+02
2.250000e-06	3.564772e-06	5.512622e-09	2.499080e+01	3.606358e+02
2.260000e-06	3.424769e-06	5.444548e-09	2.400932e+01	3.561611e+02
2.270000e-06	3.283536e-06	5.370279e-09	2.301920e+01	3.515497e+02
2.280000e-06	3.141141e-06	5.300103e-09	2.202094e+01	3.467919e+02
2.290000e-06	2.997507e-06	5.224311e-09	2.101400e+01	3.418629e+02
2.300000e-06	2.852689e-06	5.140498e-09	1.999876e+01	3.367237e+02
2.310000e-06	2.706958e-06	5.058313e-09	1.897711e+01	3.313237e+02
2.320000e-06	2.560299e-06	4.974812e-09	1.794896e+01	3.256055e+02
2.330000e-06	2.412639e-06	4.876065e-09	1.691379e+01	3.195109e+02
2.340000e-06	2.264103e-06	4.770947e-09	1.587248e+01	3.129864e+02
2.350000e-06	2.114783e-06	4.670267e-09	1.482567e+01	3.059878e+02
2.360000e-06	1.964753e-06	4.562499e-09	1.377388e+01	2.984827e+02
2.370000e-06	1.814065e-06	4.438276e-09	1.271749e+01	2.904498e+02
2.380000e-06	1.662780e-06	4.309528e-09	1.165691e+01	2.818752e+02
2.390000e-06	1.510962e-06	4.178436e-09	1.059259e+01	2.727453e+02
2.400000e-06	1.358614e-06	4.033045e-09	9.524550e+00	2.630384e+02
2.410000e-06	1.205735e-06	3.872869e-09	8.452793e+00	2.527141e+02
2.420000e-06	1.052444e-06	3.705104e-09	7.378151e+00	2.417047e+02
2.430000e-06	8.988259e-07	3.524763e-09	6.301211e+00	2.299087e+02
2.440000e-06	7.448677e-07	3.325362e-09	5.221889e+00	2.171884e+02
2.450000e-06	5.905672e-07	3.110787e-09	4.140166e+00	2.033727e+02
2.460000e-06	4.360601e-07	2.879088e-09	3.056996e+00	1.882665e+02
2.470000e-06	2.814021e-07	2.624518e-09	1.972767e+00	1.716652e+02
2.480000e-06	1.265562e-07	2.345483e-09	8.872209e-01	1.533746e+02
2.490000e-06	-2.834518e-08	2.042746e-09	-1.987137e-01	1.332334e+02
2.500000e-06	-1.831363e-07	1.712731e-09	-1.283876e+00	1.111372e+02
2.510000e-06	-3.377938e-07	1.350122e-09	-2.368101e+00	8.705943e+01
2.520000e-06	-4.923412e-07	9.605921e-10	-3.451554e+00	6.106873e+01
2.530000e-06	-6.466956e-07	5.464932e-10	-4.533654e+00	3.333888e+01
2.540000e-06	-8.007848e-07	1.044472e-10	-5.613895e+00	4.150201e+00
2.550000e-06	-9.545332e-07	-3.588548e-10	-6.691747e+00	-2.611865e+01
2.560000e-06	-1.107885e-06	-8.345549e-10	-7.766817e+00	-5.700806e+01
2.570000e-06	-1.260846e-06	-1.312310e-09	-8.839149e+00	-8.800292e+01
2.580000e-06	-1.413381e-06	-1.785096e-09	-9.908495e+00	-1.185640e+02
2.590000e-06	-1.565385e-06	-2.243630e-09	-1.097412e+01	-1.481622e+02
2.600000e-06	-1.716765e-06	-2.677693e-09	-1.203536e+01	-1.763127e+02
2.610000e-06	-1.867577e-06	-3.083198e-09	-1.309263e+01	-2.026052e+02
2.620000e-06	-2.017760e-06	-3.452507e-09	-1.414549e+01	-2.267285e+02
2.630000e-06	-2.167220e-06	-3.780944e-09	-1.519328e+01	-2.484850e+02
2.640000e-06	-2.315957e-06	-4.069599e-09	-1.623600e+01	-2.677972e+02
2.650000e-06	-2.463913e-06	-4.322643e-09	-1.727324e+01	-2.847019e+02
2.660000e-06	-2.610970e-06	-4.541476e-09	-1.830419e+01	-2.993376e+02
2.670000e-06	-2.756984e-06	-4.731000e-09	-1.932781e+01	-3.119224e+02
2.680000e-06	-2.901944e-06	-4.897589e-09	-2.034405e+01	-3.227285e+02
2.690000e-06	-3.045878e-06	-5.045660e-09	-2.135310e+01	-3.320541e+02
2.700000e-06	-3.188700e-06	-5.175668e-09	-2.235436e+01	-3.401970e+02
2.710000e-06	-3.330359e-06	-5.291002e-09	-2.334746e+01	-3.474310e+02
2.720000e-06	-3.470838e-06	-5.395244e-09	-2.433228e+01	-3.539889e+02
2.730000e-06	-3.610006e-06	-5.490647e-09	-2.530792e+01	-3.600520e+02
2.740000e-06	-3.747721e-06	-5.578890e-09	-2.627337e+01	-3.657465e+02
2.750000e-06	-3.884011e-06	-5.658871e-09	-2.722882e+01	-3.711471e+02
2.760000e-06	-4.018900e-06	-5.734137e-09	-2.817446e+01	-3.762856e+02
2.770000e-06	-4.152332e-06	-5.805634e-09	-2.910989e+01	-3.811624e+02
2.780000e-06	-4.284322e-06	-5.873602e-09	-3.003520e+01	-3.857609e+02
2.790000e-06	-4.414823e-06	-5.936904e-09	-3.095008e+01	-3.900597e+02
2.800000e-06	-4.543763e-06	-5.995414e-09	-3.185401e+01	-3.940434e+02
2.810000e-06	-4.671125e-06	-6.050216e-09	-3.274689e+01	-3.977101e+02
2.820000e-06	-4.796887e-06	-6.104020e-09	-3.362853e+01	-4.010743e+02
2.830000e-06	-4.920940e-06	-6.155568e-09	-3.449821e+01	-4.041667e+02
2.840000e-06	-5.043142e-06	-6.204512e-09	-3.535491e+01	-4.070298e+02
2.850000e-06	-5.163513e-06	-6.251309e-09	-3.619877e+01	-4.097125e+02
2.860000e-06	-5.281989e-06	-6.296132e-09	-3.702934e+01	-4.122630e+02
2.870000e-06	-5.398317e-06	-6.338993e-09	-3.784485e+01	-4.147221e+02
2.880000e-06	-5.512387e-06	-6.377933e-09	-3.864454e+01	-4.171189e+02
2.890000e-06	-5.624297e-06	-6.415955e-09	-3.942909e+01	-4.194675e+02
2.900000e-06	-5.734212e-06	-6.453499e-09	-4.019965e+01	-4.217673e+02
2.910000e-06	-5.842187e-06	-6.487373e-09	-4.095660e+01	-4.240054e+02
2.920000e-06	-5.948129e-06	-6.517837e-09	-4.169931e+01	-4.261607e+02
2.930000e-06	-6.051979e-06	-6.546760e-09	-4.242735e+01	-4.282090e+02
2.940000e-06	-6.153637e-06	-6.574314e-09	-4.314002e+01	-4.301288e+02
