# Temperatura_=_20.0
# Concentracion g/m^3_=_9000.0
# C_Vs_to_Am_M_A/Vsm_=_65563218390.804596
# pendiente_HvsI_1/m_=_3716.3
# ordenada_HvsI_A/m_=_1297.0
# frecuencia_Hz_=_301298.85873548535

Tiempo_(s)	Campo_(V.s)	Magnetizacion_(V.s)	Campo_(kA/m)	Magnetizacion_(A/m)
0.000000e+00	-8.235811e-06	-6.953057e-09	-5.697785e+01	-4.563212e+02
1.000000e-08	-8.233298e-06	-6.956414e-09	-5.696046e+01	-4.562037e+02
2.000000e-08	-8.228073e-06	-6.956625e-09	-5.692431e+01	-4.560723e+02
3.000000e-08	-8.220294e-06	-6.954166e-09	-5.687050e+01	-4.559164e+02
4.000000e-08	-8.209635e-06	-6.949855e-09	-5.679675e+01	-4.557217e+02
5.000000e-08	-8.195886e-06	-6.945227e-09	-5.670164e+01	-4.554732e+02
6.000000e-08	-8.179208e-06	-6.940705e-09	-5.658625e+01	-4.551579e+02
7.000000e-08	-8.160044e-06	-6.935805e-09	-5.645367e+01	-4.547677e+02
8.000000e-08	-8.138546e-06	-6.947395e-09	-5.630494e+01	-4.543017e+02
9.000000e-08	-8.114157e-06	-6.987438e-09	-5.613621e+01	-4.537667e+02
1.000000e-07	-8.086495e-06	-6.963106e-09	-5.594483e+01	-4.531770e+02
1.100000e-07	-8.055686e-06	-6.912161e-09	-5.573169e+01	-4.525523e+02
1.200000e-07	-8.021882e-06	-6.884780e-09	-5.549782e+01	-4.519149e+02
1.300000e-07	-7.985275e-06	-6.885990e-09	-5.524456e+01	-4.512863e+02
1.400000e-07	-7.946275e-06	-6.898914e-09	-5.497475e+01	-4.506831e+02
1.500000e-07	-7.904930e-06	-6.852878e-09	-5.468871e+01	-4.501143e+02
1.600000e-07	-7.860981e-06	-6.842500e-09	-5.438466e+01	-4.495792e+02
1.700000e-07	-7.814191e-06	-6.818047e-09	-5.406095e+01	-4.490668e+02
1.800000e-07	-7.764477e-06	-6.816329e-09	-5.371702e+01	-4.485568e+02
1.900000e-07	-7.711839e-06	-6.857797e-09	-5.335285e+01	-4.480222e+02
2.000000e-07	-7.656172e-06	-6.800284e-09	-5.296773e+01	-4.474328e+02
2.100000e-07	-7.597658e-06	-6.758500e-09	-5.256291e+01	-4.467596e+02
2.200000e-07	-7.536571e-06	-6.768404e-09	-5.214029e+01	-4.459786e+02
2.300000e-07	-7.472865e-06	-6.792462e-09	-5.169956e+01	-4.450746e+02
2.400000e-07	-7.406355e-06	-6.769923e-09	-5.123942e+01	-4.440427e+02
2.500000e-07	-7.337054e-06	-6.703982e-09	-5.075997e+01	-4.428894e+02
2.600000e-07	-7.264996e-06	-6.713431e-09	-5.026146e+01	-4.416306e+02
2.700000e-07	-7.190133e-06	-6.703352e-09	-4.974353e+01	-4.402894e+02
2.800000e-07	-7.112511e-06	-6.689283e-09	-4.920652e+01	-4.388917e+02
2.900000e-07	-7.032146e-06	-6.666102e-09	-4.865052e+01	-4.374621e+02
3.000000e-07	-6.949304e-06	-6.638148e-09	-4.807740e+01	-4.360198e+02
3.100000e-07	-6.864173e-06	-6.613177e-09	-4.748844e+01	-4.345749e+02
3.200000e-07	-6.776634e-06	-6.585082e-09	-4.688281e+01	-4.331271e+02
3.300000e-07	-6.686705e-06	-6.596963e-09	-4.626066e+01	-4.316656e+02
3.400000e-07	-6.594401e-06	-6.552811e-09	-4.562208e+01	-4.301703e+02
3.500000e-07	-6.499724e-06	-6.511759e-09	-4.496707e+01	-4.286159e+02
3.600000e-07	-6.402647e-06	-6.492839e-09	-4.429546e+01	-4.269749e+02
3.700000e-07	-6.303272e-06	-6.482521e-09	-4.360795e+01	-4.252234e+02
3.800000e-07	-6.201623e-06	-6.436490e-09	-4.290471e+01	-4.233437e+02
3.900000e-07	-6.097600e-06	-6.391674e-09	-4.218505e+01	-4.213283e+02
4.000000e-07	-5.991381e-06	-6.383946e-09	-4.145020e+01	-4.191801e+02
4.100000e-07	-5.883141e-06	-6.351544e-09	-4.070136e+01	-4.169126e+02
4.200000e-07	-5.772877e-06	-6.312523e-09	-3.993852e+01	-4.145466e+02
4.300000e-07	-5.660363e-06	-6.276926e-09	-3.916011e+01	-4.121070e+02
4.400000e-07	-5.545547e-06	-6.256775e-09	-3.836579e+01	-4.096179e+02
4.500000e-07	-5.428629e-06	-6.208557e-09	-3.755691e+01	-4.070976e+02
4.600000e-07	-5.309742e-06	-6.166665e-09	-3.673441e+01	-4.045553e+02
4.700000e-07	-5.188833e-06	-6.133464e-09	-3.589793e+01	-4.019884e+02
4.800000e-07	-5.065969e-06	-6.092606e-09	-3.504791e+01	-3.993821e+02
4.900000e-07	-4.941401e-06	-6.044062e-09	-3.418612e+01	-3.967106e+02
5.000000e-07	-4.815184e-06	-6.000355e-09	-3.331291e+01	-3.939410e+02
5.100000e-07	-4.687252e-06	-5.961651e-09	-3.242784e+01	-3.910374e+02
5.200000e-07	-4.557541e-06	-5.906798e-09	-3.153045e+01	-3.879663e+02
5.300000e-07	-4.426164e-06	-5.858971e-09	-3.062155e+01	-3.847013e+02
5.400000e-07	-4.293149e-06	-5.811525e-09	-2.970131e+01	-3.812270e+02
5.500000e-07	-4.158691e-06	-5.757361e-09	-2.877109e+01	-3.775402e+02
5.600000e-07	-4.022837e-06	-5.692301e-09	-2.783121e+01	-3.736501e+02
5.700000e-07	-3.885281e-06	-5.636140e-09	-2.687956e+01	-3.695750e+02
5.800000e-07	-3.746128e-06	-5.581383e-09	-2.591685e+01	-3.653379e+02
5.900000e-07	-3.605575e-06	-5.515503e-09	-2.494446e+01	-3.609607e+02
6.000000e-07	-3.463531e-06	-5.444321e-09	-2.396176e+01	-3.564585e+02
6.100000e-07	-3.320011e-06	-5.373035e-09	-2.296884e+01	-3.518335e+02
6.200000e-07	-3.175298e-06	-5.301806e-09	-2.196768e+01	-3.470727e+02
6.300000e-07	-3.029536e-06	-5.219107e-09	-2.095926e+01	-3.421458e+02
6.400000e-07	-2.882782e-06	-5.135026e-09	-1.994396e+01	-3.370070e+02
6.500000e-07	-2.735128e-06	-5.048730e-09	-1.892245e+01	-3.315994e+02
6.600000e-07	-2.586553e-06	-4.957983e-09	-1.789456e+01	-3.258601e+02
6.700000e-07	-2.437113e-06	-4.863164e-09	-1.686069e+01	-3.197277e+02
6.800000e-07	-2.286924e-06	-4.765507e-09	-1.582164e+01	-3.131481e+02
6.900000e-07	-2.135970e-06	-4.658918e-09	-1.477729e+01	-3.060795e+02
7.000000e-07	-1.984178e-06	-4.542448e-09	-1.372714e+01	-2.984943e+02
7.100000e-07	-1.831496e-06	-4.422380e-09	-1.267085e+01	-2.903775e+02
7.200000e-07	-1.677943e-06	-4.296847e-09	-1.160852e+01	-2.817220e+02
7.300000e-07	-1.523723e-06	-4.160254e-09	-1.054158e+01	-2.725200e+02
7.400000e-07	-1.369099e-06	-4.007768e-09	-9.471845e+00	-2.627528e+02
7.500000e-07	-1.214120e-06	-3.851863e-09	-8.399650e+00	-2.523798e+02
7.600000e-07	-1.058697e-06	-3.685512e-09	-7.324391e+00	-2.413286e+02
7.700000e-07	-9.028384e-07	-3.500841e-09	-6.246111e+00	-2.294888e+02
7.800000e-07	-7.466160e-07	-3.298998e-09	-5.165316e+00	-2.167099e+02
7.900000e-07	-5.901535e-07	-3.080278e-09	-4.082862e+00	-2.028061e+02
8.000000e-07	-4.335046e-07	-2.843266e-09	-2.999117e+00	-1.875664e+02
8.100000e-07	-2.766643e-07	-2.583797e-09	-1.914048e+00	-1.707723e+02
8.200000e-07	-1.197703e-07	-2.299731e-09	-8.286075e-01	-1.522192e+02
8.300000e-07	3.713052e-08	-1.985731e-09	2.568803e-01	-1.317411e+02
8.400000e-07	1.940552e-07	-1.642935e-09	1.342533e+00	-1.092354e+02
8.500000e-07	3.508681e-07	-1.273028e-09	2.427413e+00	-8.468551e+01
8.600000e-07	5.075218e-07	-8.773529e-10	3.511190e+00	-5.817711e+01
8.700000e-07	6.640619e-07	-4.522192e-10	4.594182e+00	-2.990743e+01
8.800000e-07	8.204101e-07	-3.761890e-14	5.675847e+00	-1.846043e-01
8.900000e-07	9.764674e-07	4.701637e-10	6.755499e+00	3.058288e+01
9.000000e-07	1.132153e-06	9.518202e-10	7.832578e+00	6.190637e+01
9.100000e-07	1.287416e-06	1.435878e-09	8.906736e+00	9.324534e+01
9.200000e-07	1.442246e-06	1.913394e-09	9.977894e+00	1.240411e+02
9.300000e-07	1.596656e-06	2.372702e-09	1.104615e+01	1.537530e+02
9.400000e-07	1.750591e-06	2.806984e-09	1.211112e+01	1.818935e+02
9.500000e-07	1.903843e-06	3.208487e-09	1.317137e+01	2.080586e+02
9.600000e-07	2.056130e-06	3.569845e-09	1.422493e+01	2.319514e+02
9.700000e-07	2.207361e-06	3.888842e-09	1.527120e+01	2.533953e+02
9.800000e-07	2.357777e-06	4.166336e-09	1.631182e+01	2.723380e+02
9.900000e-07	2.507412e-06	4.405648e-09	1.734704e+01	2.888433e+02
1.000000e-06	2.656206e-06	4.611468e-09	1.837644e+01	3.030757e+02
1.010000e-06	2.804115e-06	4.793575e-09	1.939972e+01	3.152763e+02
1.020000e-06	2.951097e-06	4.955472e-09	2.041658e+01	3.257351e+02
1.030000e-06	3.097227e-06	5.100917e-09	2.142756e+01	3.347625e+02
1.040000e-06	3.242137e-06	5.228321e-09	2.243009e+01	3.426615e+02
1.050000e-06	3.385637e-06	5.342789e-09	2.342287e+01	3.497055e+02
1.060000e-06	3.527935e-06	5.445681e-09	2.440733e+01	3.561219e+02
1.070000e-06	3.668964e-06	5.539097e-09	2.538301e+01	3.620826e+02
1.080000e-06	3.808689e-06	5.624657e-09	2.634967e+01	3.677030e+02
1.090000e-06	3.947040e-06	5.703765e-09	2.730682e+01	3.730465e+02
1.100000e-06	4.083703e-06	5.777419e-09	2.825230e+01	3.781347e+02
1.110000e-06	4.218707e-06	5.844854e-09	2.918630e+01	3.829607e+02
1.120000e-06	4.352273e-06	5.908895e-09	3.011035e+01	3.875029e+02
1.130000e-06	4.484357e-06	5.969906e-09	3.102415e+01	3.917382e+02
1.140000e-06	4.614973e-06	6.027261e-09	3.192779e+01	3.956521e+02
1.150000e-06	4.743857e-06	6.078730e-09	3.281945e+01	3.992455e+02
1.160000e-06	4.870886e-06	6.128175e-09	3.369827e+01	4.025372e+02
1.170000e-06	4.996309e-06	6.176610e-09	3.456599e+01	4.055620e+02
1.180000e-06	5.120163e-06	6.221399e-09	3.542284e+01	4.083661e+02
1.190000e-06	5.242230e-06	6.260894e-09	3.626735e+01	4.110009e+02
1.200000e-06	5.362261e-06	6.299345e-09	3.709775e+01	4.135153e+02
1.210000e-06	5.480282e-06	6.336983e-09	3.791426e+01	4.159499e+02
1.220000e-06	5.596294e-06	6.372124e-09	3.871687e+01	4.183315e+02
1.230000e-06	5.710049e-06	6.404377e-09	3.950386e+01	4.206716e+02
1.240000e-06	5.821549e-06	6.436168e-09	4.027525e+01	4.229663e+02
1.250000e-06	5.931018e-06	6.467105e-09	4.103259e+01	4.251998e+02
1.260000e-06	6.038545e-06	6.495747e-09	4.177650e+01	4.273481e+02
1.270000e-06	6.143892e-06	6.522534e-09	4.250531e+01	4.293858e+02
1.280000e-06	6.246886e-06	6.549081e-09	4.321786e+01	4.312903e+02
1.290000e-06	6.347719e-06	6.575932e-09	4.391545e+01	4.330474e+02
1.300000e-06	6.446332e-06	6.601404e-09	4.459769e+01	4.346535e+02
1.310000e-06	6.542484e-06	6.623448e-09	4.526289e+01	4.361167e+02
1.320000e-06	6.636258e-06	6.643794e-09	4.591165e+01	4.374553e+02
1.330000e-06	6.727823e-06	6.663831e-09	4.654513e+01	4.386952e+02
1.340000e-06	6.816977e-06	6.683617e-09	4.716193e+01	4.398653e+02
1.350000e-06	6.903713e-06	6.704030e-09	4.776199e+01	4.409933e+02
1.360000e-06	6.988188e-06	6.723303e-09	4.834641e+01	4.421015e+02
1.370000e-06	7.070178e-06	6.740107e-09	4.891364e+01	4.432037e+02
1.380000e-06	7.149565e-06	6.755992e-09	4.946287e+01	4.443038e+02
1.390000e-06	7.226405e-06	6.772848e-09	4.999447e+01	4.453958e+02
1.400000e-06	7.300496e-06	6.787194e-09	5.050705e+01	4.464660e+02
1.410000e-06	7.371850e-06	6.798866e-09	5.100070e+01	4.474959e+02
1.420000e-06	7.440667e-06	6.812429e-09	5.147680e+01	4.484657e+02
1.430000e-06	7.506812e-06	6.827894e-09	5.193441e+01	4.493586e+02
1.440000e-06	7.570179e-06	6.841960e-09	5.237280e+01	4.501634e+02
1.450000e-06	7.630982e-06	6.852795e-09	5.279346e+01	4.508766e+02
1.460000e-06	7.689139e-06	6.863923e-09	5.319581e+01	4.515030e+02
1.470000e-06	7.744518e-06	6.875659e-09	5.357893e+01	4.520546e+02
1.480000e-06	7.796997e-06	6.886473e-09	5.394200e+01	4.525487e+02
1.490000e-06	7.846242e-06	6.896080e-09	5.428269e+01	4.530046e+02
1.500000e-06	7.892432e-06	6.904440e-09	5.460225e+01	4.534402e+02
1.510000e-06	7.935923e-06	6.913267e-09	5.490313e+01	4.538693e+02
1.520000e-06	7.976605e-06	6.922255e-09	5.518458e+01	4.542994e+02
1.530000e-06	8.014441e-06	6.930262e-09	5.544634e+01	4.547304e+02
1.540000e-06	8.049563e-06	6.936527e-09	5.568933e+01	4.551553e+02
1.550000e-06	8.081816e-06	6.940938e-09	5.591246e+01	4.555615e+02
1.560000e-06	8.111276e-06	6.945125e-09	5.611628e+01	4.559333e+02
1.570000e-06	8.137929e-06	6.949461e-09	5.630067e+01	4.562552e+02
1.580000e-06	8.161580e-06	6.953721e-09	5.646429e+01	4.565142e+02
1.590000e-06	8.182441e-06	6.958305e-09	5.660862e+01	4.567024e+02
1.600000e-06	8.200514e-06	6.961656e-09	5.673365e+01	4.568183e+02
1.610000e-06	8.215545e-06	6.964824e-09	5.683764e+01	4.568669e+02
1.620000e-06	8.227428e-06	6.969087e-09	5.691985e+01	4.568584e+02
1.630000e-06	8.236172e-06	6.973125e-09	5.698035e+01	4.568065e+02
1.640000e-06	8.241987e-06	6.975945e-09	5.702058e+01	4.567252e+02
1.650000e-06	8.244959e-06	6.977055e-09	5.704114e+01	4.566265e+02
1.660000e-06	8.245012e-06	6.975108e-09	5.704150e+01	4.565175e+02
1.670000e-06	8.242337e-06	6.967076e-09	5.702300e+01	4.563996e+02
1.680000e-06	8.236957e-06	6.962642e-09	5.698578e+01	4.562674e+02
1.690000e-06	8.228785e-06	6.958983e-09	5.692924e+01	4.561104e+02
1.700000e-06	8.217879e-06	6.955580e-09	5.685379e+01	4.559140e+02
1.710000e-06	8.204041e-06	6.954182e-09	5.675805e+01	4.556632e+02
1.720000e-06	8.187389e-06	6.949391e-09	5.664285e+01	4.553452e+02
1.730000e-06	8.168371e-06	6.939270e-09	5.651127e+01	4.549523e+02
1.740000e-06	8.146851e-06	6.868916e-09	5.636240e+01	4.544836e+02
1.750000e-06	8.122136e-06	6.851703e-09	5.619141e+01	4.539463e+02
1.760000e-06	8.093610e-06	6.885628e-09	5.599406e+01	4.533549e+02
1.770000e-06	8.061555e-06	6.901630e-09	5.577229e+01	4.527294e+02
1.780000e-06	8.026926e-06	6.897176e-09	5.553272e+01	4.520919e+02
1.790000e-06	7.989945e-06	6.887109e-09	5.527687e+01	4.514639e+02
1.800000e-06	7.950521e-06	6.892666e-09	5.500413e+01	4.508618e+02
1.810000e-06	7.909030e-06	6.822498e-09	5.471708e+01	4.502942e+02
1.820000e-06	7.865132e-06	6.881950e-09	5.441338e+01	4.497602e+02
1.830000e-06	7.818335e-06	6.889583e-09	5.408963e+01	4.492482e+02
1.840000e-06	7.768734e-06	6.842559e-09	5.374647e+01	4.487378e+02
1.850000e-06	7.715983e-06	6.894769e-09	5.338152e+01	4.482017e+02
1.860000e-06	7.660224e-06	6.854293e-09	5.299576e+01	4.476097e+02
1.870000e-06	7.601823e-06	6.856699e-09	5.259173e+01	4.469330e+02
1.880000e-06	7.540581e-06	6.786466e-09	5.216803e+01	4.461478e+02
1.890000e-06	7.476626e-06	6.790190e-09	5.172557e+01	4.452391e+02
1.900000e-06	7.409936e-06	6.828680e-09	5.126419e+01	4.442027e+02
1.910000e-06	7.340350e-06	6.746242e-09	5.078278e+01	4.430452e+02
1.920000e-06	7.267913e-06	6.764419e-09	5.028163e+01	4.417831e+02
1.930000e-06	7.192825e-06	6.725339e-09	4.976216e+01	4.404393e+02
1.940000e-06	7.114939e-06	6.717795e-09	4.922332e+01	4.390400e+02
1.950000e-06	7.034238e-06	6.672981e-09	4.866500e+01	4.376097e+02
1.960000e-06	6.951218e-06	6.670253e-09	4.809064e+01	4.361671e+02
1.970000e-06	6.865668e-06	6.675559e-09	4.749878e+01	4.347221e+02
1.980000e-06	6.777451e-06	6.593741e-09	4.688847e+01	4.332741e+02
1.990000e-06	6.686925e-06	6.608600e-09	4.626219e+01	4.318116e+02
2.000000e-06	6.594124e-06	6.583901e-09	4.562016e+01	4.303147e+02
2.010000e-06	6.498899e-06	6.567166e-09	4.496136e+01	4.287575e+02
2.020000e-06	6.401345e-06	6.507006e-09	4.428646e+01	4.271130e+02
2.030000e-06	6.301669e-06	6.504538e-09	4.359686e+01	4.253571e+02
2.040000e-06	6.199682e-06	6.481768e-09	4.289129e+01	4.234726e+02
2.050000e-06	6.095332e-06	6.422084e-09	4.216936e+01	4.214522e+02
2.060000e-06	5.988879e-06	6.394755e-09	4.143289e+01	4.192995e+02
2.070000e-06	5.880463e-06	6.367155e-09	4.068283e+01	4.170280e+02
2.080000e-06	5.769897e-06	6.339243e-09	3.991790e+01	4.146589e+02
2.090000e-06	5.657094e-06	6.278515e-09	3.913750e+01	4.122171e+02
2.100000e-06	5.542160e-06	6.264698e-09	3.834235e+01	4.097265e+02
2.110000e-06	5.424951e-06	6.229240e-09	3.753147e+01	4.072053e+02
2.120000e-06	5.305514e-06	6.187694e-09	3.670516e+01	4.046622e+02
2.130000e-06	5.184188e-06	6.138828e-09	3.586579e+01	4.020942e+02
2.140000e-06	5.061215e-06	6.107841e-09	3.501503e+01	3.994860e+02
2.150000e-06	4.936412e-06	6.058405e-09	3.415160e+01	3.968116e+02
2.160000e-06	4.809702e-06	6.002638e-09	3.327499e+01	3.940378e+02
2.170000e-06	4.681274e-06	5.962325e-09	3.238648e+01	3.911287e+02
2.180000e-06	4.551223e-06	5.914971e-09	3.148675e+01	3.880510e+02
2.190000e-06	4.419617e-06	5.859759e-09	3.057626e+01	3.847787e+02
2.200000e-06	4.286402e-06	5.804322e-09	2.965464e+01	3.812967e+02
2.210000e-06	4.151539e-06	5.762016e-09	2.872161e+01	3.776024e+02
2.220000e-06	4.015198e-06	5.701289e-09	2.777836e+01	3.737053e+02
2.230000e-06	3.877475e-06	5.636571e-09	2.682555e+01	3.696239e+02
2.240000e-06	3.738330e-06	5.574174e-09	2.586291e+01	3.653814e+02
2.250000e-06	3.597621e-06	5.514792e-09	2.488944e+01	3.609996e+02
2.260000e-06	3.455333e-06	5.443554e-09	2.390504e+01	3.564929e+02
2.270000e-06	3.311847e-06	5.371027e-09	2.291236e+01	3.518634e+02
2.280000e-06	3.167312e-06	5.300876e-09	2.191243e+01	3.470972e+02
2.290000e-06	3.021553e-06	5.223459e-09	2.090402e+01	3.421636e+02
2.300000e-06	2.874712e-06	5.137939e-09	1.988813e+01	3.370162e+02
2.310000e-06	2.727139e-06	5.054648e-09	1.886718e+01	3.315977e+02
2.320000e-06	2.578683e-06	4.970338e-09	1.784011e+01	3.258454e+02
2.330000e-06	2.429067e-06	4.873122e-09	1.680503e+01	3.196978e+02
2.340000e-06	2.278423e-06	4.770258e-09	1.576283e+01	3.131014e+02
2.350000e-06	2.126995e-06	4.668567e-09	1.471520e+01	3.060147e+02
2.360000e-06	1.974847e-06	4.557462e-09	1.366260e+01	2.984106e+02
2.370000e-06	1.822039e-06	4.432387e-09	1.260542e+01	2.902746e+02
2.380000e-06	1.668607e-06	4.301723e-09	1.154393e+01	2.815998e+02
2.390000e-06	1.514605e-06	4.166634e-09	1.047850e+01	2.723780e+02
2.400000e-06	1.360170e-06	4.018310e-09	9.410071e+00	2.625899e+02
2.410000e-06	1.205301e-06	3.859113e-09	8.338637e+00	2.521941e+02
2.420000e-06	1.050049e-06	3.692614e-09	7.264556e+00	2.411168e+02
2.430000e-06	8.945108e-07	3.511568e-09	6.188498e+00	2.292462e+02
2.440000e-06	7.386499e-07	3.309997e-09	5.110205e+00	2.164306e+02
2.450000e-06	5.825085e-07	3.091460e-09	4.029971e+00	2.024827e+02
2.460000e-06	4.261709e-07	2.857058e-09	2.948380e+00	1.871912e+02
2.470000e-06	2.696665e-07	2.599050e-09	1.865635e+00	1.703376e+02
2.480000e-06	1.130773e-07	2.313734e-09	7.823031e-01	1.517183e+02
2.490000e-06	-4.362429e-08	2.002095e-09	-3.018061e-01	1.311690e+02
2.500000e-06	-2.003436e-07	1.663698e-09	-1.386038e+00	1.085900e+02
2.510000e-06	-3.568933e-07	1.294965e-09	-2.469096e+00	8.396797e+01
2.520000e-06	-5.132584e-07	8.976476e-10	-3.550878e+00	5.739255e+01
2.530000e-06	-6.693724e-07	4.733991e-10	-4.630922e+00	2.906497e+01
2.540000e-06	-8.252203e-07	2.387245e-11	-5.709125e+00	-7.027875e-01
2.550000e-06	-9.807975e-07	-4.451186e-10	-6.785456e+00	-3.149899e+01
2.560000e-06	-1.136042e-06	-9.273477e-10	-7.859485e+00	-6.283260e+01
2.570000e-06	-1.290980e-06	-1.412168e-09	-8.931392e+00	-9.416183e+01
2.580000e-06	-1.445523e-06	-1.888905e-09	-1.000057e+01	-1.249280e+02
2.590000e-06	-1.599546e-06	-2.347980e-09	-1.106614e+01	-1.545918e+02
2.600000e-06	-1.752974e-06	-2.782870e-09	-1.212761e+01	-1.826682e+02
2.610000e-06	-1.905707e-06	-3.187346e-09	-1.318426e+01	-2.087566e+02
2.620000e-06	-2.057758e-06	-3.552416e-09	-1.423620e+01	-2.325643e+02
2.630000e-06	-2.209187e-06	-3.875116e-09	-1.528383e+01	-2.539191e+02
2.640000e-06	-2.359956e-06	-4.155330e-09	-1.632690e+01	-2.727730e+02
2.650000e-06	-2.509798e-06	-4.396942e-09	-1.736355e+01	-2.891939e+02
2.660000e-06	-2.658473e-06	-4.606255e-09	-1.839213e+01	-3.033492e+02
2.670000e-06	-2.806126e-06	-4.789464e-09	-1.941363e+01	-3.154824e+02
2.680000e-06	-2.952943e-06	-4.948469e-09	-2.042936e+01	-3.258848e+02
2.690000e-06	-3.098808e-06	-5.090345e-09	-2.143850e+01	-3.348668e+02
2.700000e-06	-3.243559e-06	-5.220012e-09	-2.243993e+01	-3.427309e+02
2.710000e-06	-3.387202e-06	-5.336166e-09	-2.343370e+01	-3.497490e+02
2.720000e-06	-3.529600e-06	-5.439550e-09	-2.441885e+01	-3.561464e+02
2.730000e-06	-3.670456e-06	-5.532950e-09	-2.539334e+01	-3.620934e+02
2.740000e-06	-3.809808e-06	-5.620137e-09	-2.635741e+01	-3.677031e+02
2.750000e-06	-3.947782e-06	-5.698908e-09	-2.731196e+01	-3.730374e+02
2.760000e-06	-4.084332e-06	-5.770755e-09	-2.825665e+01	-3.781166e+02
2.770000e-06	-4.219476e-06	-5.838692e-09	-2.919162e+01	-3.829329e+02
2.780000e-06	-4.353088e-06	-5.904653e-09	-3.011599e+01	-3.874646e+02
2.790000e-06	-4.485045e-06	-5.965938e-09	-3.102890e+01	-3.916885e+02
2.800000e-06	-4.615426e-06	-6.022487e-09	-3.193092e+01	-3.955909e+02
2.810000e-06	-4.744279e-06	-6.076820e-09	-3.282237e+01	-3.991732e+02
2.820000e-06	-4.871537e-06	-6.130885e-09	-3.370278e+01	-4.024548e+02
2.830000e-06	-4.996964e-06	-6.184279e-09	-3.457052e+01	-4.054708e+02
2.840000e-06	-5.120572e-06	-6.234710e-09	-3.542568e+01	-4.082680e+02
2.850000e-06	-5.242549e-06	-6.281669e-09	-3.626955e+01	-4.108978e+02
2.860000e-06	-5.362701e-06	-6.324552e-09	-3.710080e+01	-4.134088e+02
2.870000e-06	-5.480682e-06	-6.364903e-09	-3.791703e+01	-4.158411e+02
2.880000e-06	-5.596355e-06	-6.403661e-09	-3.871729e+01	-4.182212e+02
2.890000e-06	-5.709722e-06	-6.440650e-09	-3.950159e+01	-4.205599e+02
2.900000e-06	-5.820807e-06	-6.474361e-09	-4.027011e+01	-4.228528e+02
2.910000e-06	-5.929834e-06	-6.505806e-09	-4.102440e+01	-4.250837e+02
2.920000e-06	-6.036950e-06	-6.536435e-09	-4.176546e+01	-4.272286e+02
2.930000e-06	-6.142088e-06	-6.566071e-09	-4.249283e+01	-4.292619e+02
2.940000e-06	-6.244991e-06	-6.591633e-09	-4.320475e+01	-4.311614e+02
