# Temperatura_=_20.0
# Concentracion g/m^3_=_9000.0
# C_Vs_to_Am_M_A/Vsm_=_65563218390.804596
# pendiente_HvsI_1/m_=_3716.3
# ordenada_HvsI_A/m_=_1297.0
# frecuencia_Hz_=_301294.9599966347

Tiempo_(s)	Campo_(V.s)	Magnetizacion_(V.s)	Campo_(kA/m)	Magnetizacion_(A/m)
0.000000e+00	-8.089276e-06	-6.959357e-09	-5.698099e+01	-4.565744e+02
1.000000e-08	-8.086780e-06	-6.962626e-09	-5.696341e+01	-4.564786e+02
2.000000e-08	-8.081605e-06	-6.961098e-09	-5.692695e+01	-4.563872e+02
3.000000e-08	-8.073872e-06	-6.958649e-09	-5.687248e+01	-4.562893e+02
4.000000e-08	-8.063342e-06	-6.954456e-09	-5.679831e+01	-4.561672e+02
5.000000e-08	-8.049797e-06	-6.949505e-09	-5.670290e+01	-4.559995e+02
6.000000e-08	-8.033379e-06	-6.943696e-09	-5.658724e+01	-4.557646e+02
7.000000e-08	-8.014507e-06	-6.939634e-09	-5.645431e+01	-4.554443e+02
8.000000e-08	-7.993293e-06	-6.939114e-09	-5.630488e+01	-4.550273e+02
9.000000e-08	-7.969276e-06	-6.976293e-09	-5.613570e+01	-4.545108e+02
1.000000e-07	-7.942079e-06	-6.972045e-09	-5.594413e+01	-4.539019e+02
1.100000e-07	-7.911796e-06	-6.932213e-09	-5.573081e+01	-4.532161e+02
1.200000e-07	-7.878550e-06	-6.896871e-09	-5.549663e+01	-4.524756e+02
1.300000e-07	-7.842490e-06	-6.884721e-09	-5.524263e+01	-4.517057e+02
1.400000e-07	-7.804091e-06	-6.887103e-09	-5.497214e+01	-4.509310e+02
1.500000e-07	-7.763534e-06	-6.846427e-09	-5.468646e+01	-4.501714e+02
1.600000e-07	-7.720479e-06	-6.866644e-09	-5.438318e+01	-4.494392e+02
1.700000e-07	-7.674560e-06	-6.834198e-09	-5.405972e+01	-4.487369e+02
1.800000e-07	-7.625814e-06	-6.807222e-09	-5.371635e+01	-4.480570e+02
1.900000e-07	-7.574167e-06	-6.858089e-09	-5.335255e+01	-4.473827e+02
2.000000e-07	-7.519499e-06	-6.805842e-09	-5.296747e+01	-4.466909e+02
2.100000e-07	-7.462082e-06	-6.782653e-09	-5.256302e+01	-4.459554e+02
2.200000e-07	-7.402063e-06	-6.781536e-09	-5.214025e+01	-4.451509e+02
2.300000e-07	-7.339469e-06	-6.770996e-09	-5.169934e+01	-4.442567e+02
2.400000e-07	-7.274179e-06	-6.771243e-09	-5.123943e+01	-4.432598e+02
2.500000e-07	-7.206129e-06	-6.713580e-09	-5.076008e+01	-4.421562e+02
2.600000e-07	-7.135428e-06	-6.721295e-09	-5.026207e+01	-4.409513e+02
2.700000e-07	-7.061963e-06	-6.711992e-09	-4.974458e+01	-4.396581e+02
2.800000e-07	-6.985705e-06	-6.683340e-09	-4.920742e+01	-4.382949e+02
2.900000e-07	-6.906740e-06	-6.656396e-09	-4.865118e+01	-4.368810e+02
3.000000e-07	-6.825227e-06	-6.646668e-09	-4.807701e+01	-4.354340e+02
3.100000e-07	-6.741347e-06	-6.630200e-09	-4.748615e+01	-4.339656e+02
3.200000e-07	-6.655228e-06	-6.571465e-09	-4.687953e+01	-4.324795e+02
3.300000e-07	-6.566883e-06	-6.588861e-09	-4.625722e+01	-4.309707e+02
3.400000e-07	-6.476102e-06	-6.558091e-09	-4.561777e+01	-4.294259e+02
3.500000e-07	-6.382975e-06	-6.506546e-09	-4.496177e+01	-4.278256e+02
3.600000e-07	-6.287607e-06	-6.485449e-09	-4.429001e+01	-4.261472e+02
3.700000e-07	-6.189994e-06	-6.481286e-09	-4.360242e+01	-4.243691e+02
3.800000e-07	-6.090138e-06	-6.437455e-09	-4.289903e+01	-4.224737e+02
3.900000e-07	-5.988018e-06	-6.388786e-09	-4.217970e+01	-4.204509e+02
4.000000e-07	-5.883742e-06	-6.387241e-09	-4.144517e+01	-4.182996e+02
4.100000e-07	-5.777389e-06	-6.351300e-09	-4.069602e+01	-4.160275e+02
4.200000e-07	-5.668973e-06	-6.302865e-09	-3.993233e+01	-4.136502e+02
4.300000e-07	-5.558491e-06	-6.265773e-09	-3.915410e+01	-4.111880e+02
4.400000e-07	-5.445955e-06	-6.252523e-09	-3.836139e+01	-4.086619e+02
4.500000e-07	-5.331291e-06	-6.197969e-09	-3.755370e+01	-4.060900e+02
4.600000e-07	-5.214547e-06	-6.146279e-09	-3.673135e+01	-4.034834e+02
4.700000e-07	-5.095839e-06	-6.120092e-09	-3.589517e+01	-4.008439e+02
4.800000e-07	-4.975272e-06	-6.084455e-09	-3.504589e+01	-3.981627e+02
4.900000e-07	-4.852939e-06	-6.026510e-09	-3.418418e+01	-3.954211e+02
5.000000e-07	-4.728824e-06	-5.979622e-09	-3.330991e+01	-3.925928e+02
5.100000e-07	-4.603030e-06	-5.948977e-09	-3.242382e+01	-3.896476e+02
5.200000e-07	-4.475582e-06	-5.890399e-09	-3.152607e+01	-3.865554e+02
5.300000e-07	-4.346556e-06	-5.835945e-09	-3.061721e+01	-3.832911e+02
5.400000e-07	-4.215943e-06	-5.790871e-09	-2.969717e+01	-3.798371e+02
5.500000e-07	-4.083721e-06	-5.740625e-09	-2.876580e+01	-3.761864e+02
5.600000e-07	-3.950089e-06	-5.670534e-09	-2.782449e+01	-3.723420e+02
5.700000e-07	-3.814984e-06	-5.615909e-09	-2.687281e+01	-3.683150e+02
5.800000e-07	-3.678437e-06	-5.565257e-09	-2.591097e+01	-3.641217e+02
5.900000e-07	-3.540590e-06	-5.495635e-09	-2.493997e+01	-3.597783e+02
6.000000e-07	-3.401386e-06	-5.422842e-09	-2.395941e+01	-3.552956e+02
6.100000e-07	-3.260751e-06	-5.356415e-09	-2.296878e+01	-3.506748e+02
6.200000e-07	-3.118799e-06	-5.287394e-09	-2.196887e+01	-3.459039e+02
6.300000e-07	-2.975719e-06	-5.197708e-09	-2.096101e+01	-3.409561e+02
6.400000e-07	-2.831541e-06	-5.113819e-09	-1.994542e+01	-3.357908e+02
6.500000e-07	-2.686306e-06	-5.032780e-09	-1.892238e+01	-3.303567e+02
6.600000e-07	-2.540131e-06	-4.943362e-09	-1.789272e+01	-3.245968e+02
6.700000e-07	-2.393056e-06	-4.843662e-09	-1.685672e+01	-3.184539e+02
6.800000e-07	-2.245148e-06	-4.747333e-09	-1.581486e+01	-3.118765e+02
6.900000e-07	-2.096541e-06	-4.645135e-09	-1.476807e+01	-3.048229e+02
7.000000e-07	-1.947287e-06	-4.526382e-09	-1.371672e+01	-2.972634e+02
7.100000e-07	-1.797395e-06	-4.405820e-09	-1.266088e+01	-2.891795e+02
7.200000e-07	-1.646851e-06	-4.281316e-09	-1.160044e+01	-2.805592e+02
7.300000e-07	-1.495644e-06	-4.145081e-09	-1.053534e+01	-2.713904e+02
7.400000e-07	-1.343816e-06	-3.990206e-09	-9.465863e+00	-2.616515e+02
7.500000e-07	-1.191523e-06	-3.834184e-09	-8.393109e+00	-2.513015e+02
7.600000e-07	-1.038880e-06	-3.669743e-09	-7.317885e+00	-2.402708e+02
7.700000e-07	-8.858712e-07	-3.486140e-09	-6.240091e+00	-2.284554e+02
7.800000e-07	-7.325349e-07	-3.285421e-09	-5.159987e+00	-2.157143e+02
7.900000e-07	-5.789059e-07	-3.069033e-09	-4.077822e+00	-2.018735e+02
8.000000e-07	-4.250748e-07	-2.833514e-09	-2.994234e+00	-1.867355e+02
8.100000e-07	-2.711030e-07	-2.573500e-09	-1.909653e+00	-1.700943e+02
8.200000e-07	-1.170217e-07	-2.293015e-09	-8.243030e-01	-1.517555e+02
8.300000e-07	3.708896e-08	-1.983884e-09	2.612552e-01	-1.315595e+02
8.400000e-07	1.912389e-07	-1.644869e-09	1.347090e+00	-1.094048e+02
8.500000e-07	3.453013e-07	-1.277554e-09	2.432308e+00	-8.526933e+01
8.600000e-07	4.991771e-07	-8.874655e-10	3.516211e+00	-5.922727e+01
8.700000e-07	6.528385e-07	-4.712116e-10	4.598605e+00	-3.145833e+01
8.800000e-07	8.062604e-07	-2.837887e-11	5.679311e+00	-2.248573e+00
8.900000e-07	9.593879e-07	4.330543e-10	6.757943e+00	2.801845e+01
9.000000e-07	1.112144e-06	9.073939e-10	7.833962e+00	5.887968e+01
9.100000e-07	1.264485e-06	1.383895e-09	8.907055e+00	8.981851e+01
9.200000e-07	1.416410e-06	1.854823e-09	9.977214e+00	1.202964e+02
9.300000e-07	1.567879e-06	2.309465e-09	1.104416e+01	1.497872e+02
9.400000e-07	1.718731e-06	2.743452e-09	1.210677e+01	1.778110e+02
9.500000e-07	1.868882e-06	3.147042e-09	1.316443e+01	2.039642e+02
9.600000e-07	2.018348e-06	3.510738e-09	1.421727e+01	2.279429e+02
9.700000e-07	2.167152e-06	3.832068e-09	1.526545e+01	2.495574e+02
9.800000e-07	2.315234e-06	4.115451e-09	1.630854e+01	2.687372e+02
9.900000e-07	2.462472e-06	4.362621e-09	1.734569e+01	2.855255e+02
1.000000e-06	2.608749e-06	4.573497e-09	1.837607e+01	3.000649e+02
1.010000e-06	2.754070e-06	4.758536e-09	1.939971e+01	3.125759e+02
1.020000e-06	2.898483e-06	4.922626e-09	2.041696e+01	3.233309e+02
1.030000e-06	3.041882e-06	5.069729e-09	2.142706e+01	3.326263e+02
1.040000e-06	3.184174e-06	5.202371e-09	2.242937e+01	3.407562e+02
1.050000e-06	3.325286e-06	5.322514e-09	2.342337e+01	3.479902e+02
1.060000e-06	3.465052e-06	5.427894e-09	2.440788e+01	3.545560e+02
1.070000e-06	3.603428e-06	5.522418e-09	2.538260e+01	3.606299e+02
1.080000e-06	3.740419e-06	5.611272e-09	2.634757e+01	3.663343e+02
1.090000e-06	3.876039e-06	5.691592e-09	2.730288e+01	3.717409e+02
1.100000e-06	4.010231e-06	5.763279e-09	2.824813e+01	3.768800e+02
1.110000e-06	4.143002e-06	5.830509e-09	2.918337e+01	3.817523e+02
1.120000e-06	4.274345e-06	5.896634e-09	3.010856e+01	3.863425e+02
1.130000e-06	4.404096e-06	5.959771e-09	3.102252e+01	3.906316e+02
1.140000e-06	4.532239e-06	6.018099e-09	3.192516e+01	3.946075e+02
1.150000e-06	4.658809e-06	6.072343e-09	3.281672e+01	3.982713e+02
1.160000e-06	4.783797e-06	6.123454e-09	3.369714e+01	4.016404e+02
1.170000e-06	4.907095e-06	6.172892e-09	3.456565e+01	4.047473e+02
1.180000e-06	5.028632e-06	6.218143e-09	3.542176e+01	4.076356e+02
1.190000e-06	5.148360e-06	6.258860e-09	3.626513e+01	4.103539e+02
1.200000e-06	5.266189e-06	6.297472e-09	3.709512e+01	4.129489e+02
1.210000e-06	5.382018e-06	6.334089e-09	3.791102e+01	4.154591e+02
1.220000e-06	5.495699e-06	6.368916e-09	3.871179e+01	4.179106e+02
1.230000e-06	5.607233e-06	6.403230e-09	3.949744e+01	4.203141e+02
1.240000e-06	5.716796e-06	6.436381e-09	4.026920e+01	4.226660e+02
1.250000e-06	5.824491e-06	6.467202e-09	4.102780e+01	4.249506e+02
1.260000e-06	5.930076e-06	6.498586e-09	4.177155e+01	4.271446e+02
1.270000e-06	6.033416e-06	6.529073e-09	4.249948e+01	4.292228e+02
1.280000e-06	6.134659e-06	6.556000e-09	4.321264e+01	4.311632e+02
1.290000e-06	6.233711e-06	6.579678e-09	4.391036e+01	4.329520e+02
1.300000e-06	6.330411e-06	6.602854e-09	4.459151e+01	4.345857e+02
1.310000e-06	6.424825e-06	6.624704e-09	4.525657e+01	4.360729e+02
1.320000e-06	6.517030e-06	6.644814e-09	4.590606e+01	4.374322e+02
1.330000e-06	6.606962e-06	6.664725e-09	4.653954e+01	4.386899e+02
1.340000e-06	6.694522e-06	6.685538e-09	4.715632e+01	4.398756e+02
1.350000e-06	6.779817e-06	6.706828e-09	4.775714e+01	4.410175e+02
1.360000e-06	6.862862e-06	6.727130e-09	4.834211e+01	4.421383e+02
1.370000e-06	6.943433e-06	6.746191e-09	4.890965e+01	4.432520e+02
1.380000e-06	7.021471e-06	6.763049e-09	4.945935e+01	4.443626e+02
1.390000e-06	7.096904e-06	6.778536e-09	4.999071e+01	4.454639e+02
1.400000e-06	7.169578e-06	6.792845e-09	5.050262e+01	4.465415e+02
1.410000e-06	7.239621e-06	6.806642e-09	5.099601e+01	4.475763e+02
1.420000e-06	7.307183e-06	6.819606e-09	5.147191e+01	4.485479e+02
1.430000e-06	7.372117e-06	6.831286e-09	5.192931e+01	4.494389e+02
1.440000e-06	7.434430e-06	6.843966e-09	5.236824e+01	4.502381e+02
1.450000e-06	7.494293e-06	6.857126e-09	5.278992e+01	4.509426e+02
1.460000e-06	7.551540e-06	6.870428e-09	5.319316e+01	4.515583e+02
1.470000e-06	7.606040e-06	6.881891e-09	5.357707e+01	4.520992e+02
1.480000e-06	7.657515e-06	6.891660e-09	5.393965e+01	4.525847e+02
1.490000e-06	7.705749e-06	6.901056e-09	5.427942e+01	4.530362e+02
1.500000e-06	7.751151e-06	6.910165e-09	5.459923e+01	4.534741e+02
1.510000e-06	7.793936e-06	6.918201e-09	5.490061e+01	4.539137e+02
1.520000e-06	7.833910e-06	6.924959e-09	5.518218e+01	4.543631e+02
1.530000e-06	7.871126e-06	6.932711e-09	5.544433e+01	4.548218e+02
1.540000e-06	7.905637e-06	6.940054e-09	5.568743e+01	4.552811e+02
1.550000e-06	7.937324e-06	6.946117e-09	5.591064e+01	4.557257e+02
1.560000e-06	7.966339e-06	6.951607e-09	5.611502e+01	4.561364e+02
1.570000e-06	7.992558e-06	6.957078e-09	5.629971e+01	4.564938e+02
1.580000e-06	8.015795e-06	6.961307e-09	5.646339e+01	4.567814e+02
1.590000e-06	8.036304e-06	6.965394e-09	5.660786e+01	4.569886e+02
1.600000e-06	8.054018e-06	6.969534e-09	5.673263e+01	4.571127e+02
1.610000e-06	8.068795e-06	6.971906e-09	5.683672e+01	4.571590e+02
1.620000e-06	8.080562e-06	6.973312e-09	5.691961e+01	4.571403e+02
1.630000e-06	8.089170e-06	6.974842e-09	5.698024e+01	4.570739e+02
1.640000e-06	8.094868e-06	6.977121e-09	5.702037e+01	4.569794e+02
1.650000e-06	8.097768e-06	6.979902e-09	5.704081e+01	4.568742e+02
1.660000e-06	8.097867e-06	6.982184e-09	5.704150e+01	4.567711e+02
1.670000e-06	8.095318e-06	6.975606e-09	5.702355e+01	4.566754e+02
1.680000e-06	8.090064e-06	6.971235e-09	5.698654e+01	4.565841e+02
1.690000e-06	8.082032e-06	6.967229e-09	5.692996e+01	4.564856e+02
1.700000e-06	8.071333e-06	6.964549e-09	5.685460e+01	4.563622e+02
1.710000e-06	8.057778e-06	6.961874e-09	5.675911e+01	4.561924e+02
1.720000e-06	8.041430e-06	6.957224e-09	5.664396e+01	4.559546e+02
1.730000e-06	8.022749e-06	6.954816e-09	5.651237e+01	4.556310e+02
1.740000e-06	8.001709e-06	6.905025e-09	5.636416e+01	4.552104e+02
1.750000e-06	7.977581e-06	6.871521e-09	5.619421e+01	4.546904e+02
1.760000e-06	7.949620e-06	6.891410e-09	5.599725e+01	4.540784e+02
1.770000e-06	7.918088e-06	6.911395e-09	5.577514e+01	4.533902e+02
1.780000e-06	7.883967e-06	6.914972e-09	5.553479e+01	4.526481e+02
1.790000e-06	7.847639e-06	6.911808e-09	5.527889e+01	4.518776e+02
1.800000e-06	7.808925e-06	6.916566e-09	5.500619e+01	4.511031e+02
1.810000e-06	7.768081e-06	6.821306e-09	5.471848e+01	4.503442e+02
1.820000e-06	7.724893e-06	6.861794e-09	5.441427e+01	4.496131e+02
1.830000e-06	7.678912e-06	6.866696e-09	5.409038e+01	4.489118e+02
1.840000e-06	7.630228e-06	6.806070e-09	5.374745e+01	4.482323e+02
1.850000e-06	7.578529e-06	6.872674e-09	5.338328e+01	4.475578e+02
1.860000e-06	7.523845e-06	6.802010e-09	5.299808e+01	4.468649e+02
1.870000e-06	7.466434e-06	6.819718e-09	5.259368e+01	4.461273e+02
1.880000e-06	7.406292e-06	6.795181e-09	5.217004e+01	4.453198e+02
1.890000e-06	7.343553e-06	6.764955e-09	5.172810e+01	4.444221e+02
1.900000e-06	7.278070e-06	6.804009e-09	5.126684e+01	4.434213e+02
1.910000e-06	7.209769e-06	6.714072e-09	5.078573e+01	4.423140e+02
1.920000e-06	7.138686e-06	6.731401e-09	5.028502e+01	4.411056e+02
1.930000e-06	7.065063e-06	6.717180e-09	4.976642e+01	4.398096e+02
1.940000e-06	6.988769e-06	6.697459e-09	4.922900e+01	4.384441e+02
1.950000e-06	6.909555e-06	6.656374e-09	4.867102e+01	4.370288e+02
1.960000e-06	6.827912e-06	6.634459e-09	4.809592e+01	4.355808e+02
1.970000e-06	6.743871e-06	6.663987e-09	4.750393e+01	4.341116e+02
1.980000e-06	6.657271e-06	6.577656e-09	4.689392e+01	4.326248e+02
1.990000e-06	6.568302e-06	6.582397e-09	4.626723e+01	4.311150e+02
2.000000e-06	6.477148e-06	6.566658e-09	4.562513e+01	4.295685e+02
2.010000e-06	6.383739e-06	6.535664e-09	4.496716e+01	4.279657e+02
2.020000e-06	6.287916e-06	6.491635e-09	4.429218e+01	4.262842e+02
2.030000e-06	6.189899e-06	6.479177e-09	4.360174e+01	4.245021e+02
2.040000e-06	6.089748e-06	6.466252e-09	4.289628e+01	4.226022e+02
2.050000e-06	5.987337e-06	6.395756e-09	4.217489e+01	4.205748e+02
2.060000e-06	5.882754e-06	6.371669e-09	4.143821e+01	4.184188e+02
2.070000e-06	5.776199e-06	6.349678e-09	4.068764e+01	4.161427e+02
2.080000e-06	5.667577e-06	6.317021e-09	3.992250e+01	4.137620e+02
2.090000e-06	5.556826e-06	6.254386e-09	3.914237e+01	4.112970e+02
2.100000e-06	5.444052e-06	6.237523e-09	3.834799e+01	4.087690e+02
2.110000e-06	5.329159e-06	6.211744e-09	3.753868e+01	4.061956e+02
2.120000e-06	5.212131e-06	6.160861e-09	3.671433e+01	4.035879e+02
2.130000e-06	5.093128e-06	6.115443e-09	3.587608e+01	4.009471e+02
2.140000e-06	4.972297e-06	6.085787e-09	3.502494e+01	3.982641e+02
2.150000e-06	4.849638e-06	6.037106e-09	3.416092e+01	3.955198e+02
2.160000e-06	4.725193e-06	5.976646e-09	3.328433e+01	3.926878e+02
2.170000e-06	4.599064e-06	5.943265e-09	3.239588e+01	3.897378e+02
2.180000e-06	4.471310e-06	5.898558e-09	3.149598e+01	3.866398e+02
2.190000e-06	4.341959e-06	5.837397e-09	3.058483e+01	3.833689e+02
2.200000e-06	4.211109e-06	5.779365e-09	2.966311e+01	3.799079e+02
2.210000e-06	4.078750e-06	5.740916e-09	2.873078e+01	3.762502e+02
2.220000e-06	3.944924e-06	5.682597e-09	2.778810e+01	3.723989e+02
2.230000e-06	3.809689e-06	5.614340e-09	2.683551e+01	3.683657e+02
2.240000e-06	3.673027e-06	5.553980e-09	2.587286e+01	3.641667e+02
2.250000e-06	3.535002e-06	5.494871e-09	2.490061e+01	3.598181e+02
2.260000e-06	3.395626e-06	5.422818e-09	2.391884e+01	3.553305e+02
2.270000e-06	3.255035e-06	5.350760e-09	2.292852e+01	3.507046e+02
2.280000e-06	3.113270e-06	5.284859e-09	2.192992e+01	3.459279e+02
2.290000e-06	2.970233e-06	5.206768e-09	2.092237e+01	3.409730e+02
2.300000e-06	2.826019e-06	5.120059e-09	1.990652e+01	3.357990e+02
2.310000e-06	2.680797e-06	5.038546e-09	1.888357e+01	3.303542e+02
2.320000e-06	2.534609e-06	4.955861e-09	1.785383e+01	3.245816e+02
2.330000e-06	2.387577e-06	4.853850e-09	1.681813e+01	3.184240e+02
2.340000e-06	2.239738e-06	4.746585e-09	1.577675e+01	3.118302e+02
2.350000e-06	2.091080e-06	4.645315e-09	1.472960e+01	3.047589e+02
2.360000e-06	1.941721e-06	4.535036e-09	1.367752e+01	2.971809e+02
2.370000e-06	1.791724e-06	4.408937e-09	1.262093e+01	2.890779e+02
2.380000e-06	1.641076e-06	4.279625e-09	1.155977e+01	2.804382e+02
2.390000e-06	1.489803e-06	4.147869e-09	1.049420e+01	2.712495e+02
2.400000e-06	1.338065e-06	4.000875e-09	9.425349e+00	2.614896e+02
2.410000e-06	1.185830e-06	3.841968e-09	8.353005e+00	2.511166e+02
2.420000e-06	1.033077e-06	3.676178e-09	7.277010e+00	2.400599e+02
2.430000e-06	8.800113e-07	3.494509e-09	6.198814e+00	2.282140e+02
2.440000e-06	7.266639e-07	3.292605e-09	5.118632e+00	2.154367e+02
2.450000e-06	5.730483e-07	3.076330e-09	4.036561e+00	2.015531e+02
2.460000e-06	4.192779e-07	2.844749e-09	2.953400e+00	1.863650e+02
2.470000e-06	2.653560e-07	2.589509e-09	1.869172e+00	1.696663e+02
2.480000e-06	1.112988e-07	2.308141e-09	7.839908e-01	1.512636e+02
2.490000e-06	-4.279801e-08	2.002857e-09	-3.014699e-01	1.309989e+02
2.500000e-06	-1.968664e-07	1.670185e-09	-1.386730e+00	1.087732e+02
2.510000e-06	-3.508538e-07	1.305874e-09	-2.471420e+00	8.456775e+01
2.520000e-06	-5.046824e-07	9.144140e-10	-3.554991e+00	5.846023e+01
2.530000e-06	-6.583731e-07	4.987901e-10	-4.637591e+00	3.063425e+01
2.540000e-06	-8.118297e-07	5.542764e-11	-5.718541e+00	1.379544e+00
2.550000e-06	-9.649012e-07	-4.085462e-10	-6.796779e+00	-2.891712e+01
2.560000e-06	-1.117604e-06	-8.820618e-10	-7.872421e+00	-5.979029e+01
2.570000e-06	-1.269827e-06	-1.357206e-09	-8.944684e+00	-9.072201e+01
2.580000e-06	-1.421505e-06	-1.828019e-09	-1.001310e+01	-1.211736e+02
2.590000e-06	-1.572715e-06	-2.286100e-09	-1.107823e+01	-1.506199e+02
2.600000e-06	-1.723400e-06	-2.719473e-09	-1.213965e+01	-1.785834e+02
2.610000e-06	-1.873463e-06	-3.120756e-09	-1.319670e+01	-2.046636e+02
2.620000e-06	-2.022826e-06	-3.485334e-09	-1.424882e+01	-2.285604e+02
2.630000e-06	-2.171481e-06	-3.810651e-09	-1.529594e+01	-2.500885e+02
2.640000e-06	-2.319379e-06	-4.096516e-09	-1.633774e+01	-2.691815e+02
2.650000e-06	-2.466452e-06	-4.344559e-09	-1.737372e+01	-2.858866e+02
2.660000e-06	-2.612735e-06	-4.558511e-09	-1.840414e+01	-3.003494e+02
2.670000e-06	-2.758105e-06	-4.745969e-09	-1.942813e+01	-3.127929e+02
2.680000e-06	-2.902442e-06	-4.909818e-09	-2.044484e+01	-3.234906e+02
2.690000e-06	-3.045634e-06	-5.055824e-09	-2.145349e+01	-3.327394e+02
2.700000e-06	-3.187569e-06	-5.186321e-09	-2.245328e+01	-3.408330e+02
2.710000e-06	-3.328339e-06	-5.301706e-09	-2.344487e+01	-3.480395e+02
2.720000e-06	-3.467861e-06	-5.406233e-09	-2.442767e+01	-3.545850e+02
2.730000e-06	-3.606068e-06	-5.502594e-09	-2.540120e+01	-3.606440e+02
2.740000e-06	-3.743012e-06	-5.591244e-09	-2.636584e+01	-3.663368e+02
2.750000e-06	-3.878551e-06	-5.669858e-09	-2.732058e+01	-3.717336e+02
2.760000e-06	-4.012678e-06	-5.743710e-09	-2.826536e+01	-3.768633e+02
2.770000e-06	-4.145409e-06	-5.815335e-09	-2.920033e+01	-3.817259e+02
2.780000e-06	-4.276631e-06	-5.882719e-09	-3.012466e+01	-3.863057e+02
2.790000e-06	-4.406386e-06	-5.944873e-09	-3.103865e+01	-3.905839e+02
2.800000e-06	-4.534661e-06	-6.002607e-09	-3.194222e+01	-3.945486e+02
2.810000e-06	-4.661263e-06	-6.056994e-09	-3.283401e+01	-3.982015e+02
2.820000e-06	-4.786186e-06	-6.111048e-09	-3.371397e+01	-4.015606e+02
2.830000e-06	-4.909503e-06	-6.164467e-09	-3.458261e+01	-4.046590e+02
2.840000e-06	-5.031102e-06	-6.214015e-09	-3.543916e+01	-4.075404e+02
2.850000e-06	-5.150723e-06	-6.260527e-09	-3.628177e+01	-4.102536e+02
2.860000e-06	-5.268266e-06	-6.306702e-09	-3.710975e+01	-4.128450e+02
2.870000e-06	-5.383731e-06	-6.351390e-09	-3.792308e+01	-4.153528e+02
2.880000e-06	-5.497011e-06	-6.391756e-09	-3.872103e+01	-4.178025e+02
2.890000e-06	-5.608142e-06	-6.428755e-09	-3.950384e+01	-4.202044e+02
2.900000e-06	-5.717320e-06	-6.463907e-09	-4.027289e+01	-4.225542e+02
2.910000e-06	-5.824589e-06	-6.497736e-09	-4.102850e+01	-4.248360e+02
2.920000e-06	-5.929883e-06	-6.528830e-09	-4.177019e+01	-4.270264e+02
2.930000e-06	-6.033052e-06	-6.558450e-09	-4.249692e+01	-4.291000e+02
2.940000e-06	-6.133982e-06	-6.586354e-09	-4.320786e+01	-4.310353e+02
