# Temperatura_=_20.0
# Concentracion g/m^3_=_9000.0
# C_Vs_to_Am_M_A/Vsm_=_65563218390.804596
# pendiente_HvsI_1/m_=_3716.3
# ordenada_HvsI_A/m_=_1297.0
# frecuencia_Hz_=_301291.8330856203

Tiempo_(s)	Campo_(V.s)	Magnetizacion_(V.s)	Campo_(kA/m)	Magnetizacion_(A/m)
0.000000e+00	-8.081623e-06	-6.891183e-09	-5.697986e+01	-4.516630e+02
1.000000e-08	-8.079571e-06	-6.892829e-09	-5.696539e+01	-4.515811e+02
2.000000e-08	-8.074809e-06	-6.893383e-09	-5.693182e+01	-4.514918e+02
3.000000e-08	-8.067514e-06	-6.889343e-09	-5.688038e+01	-4.513875e+02
4.000000e-08	-8.057457e-06	-6.886894e-09	-5.680948e+01	-4.512557e+02
5.000000e-08	-8.044428e-06	-6.883772e-09	-5.671762e+01	-4.510808e+02
6.000000e-08	-8.028419e-06	-6.880109e-09	-5.660474e+01	-4.508470e+02
7.000000e-08	-8.009852e-06	-6.876826e-09	-5.647384e+01	-4.505409e+02
8.000000e-08	-7.989042e-06	-6.861615e-09	-5.632711e+01	-4.501541e+02
9.000000e-08	-7.965547e-06	-6.892616e-09	-5.616146e+01	-4.496855e+02
1.000000e-07	-7.938882e-06	-6.936944e-09	-5.597346e+01	-4.491412e+02
1.100000e-07	-7.909107e-06	-6.894794e-09	-5.576353e+01	-4.485347e+02
1.200000e-07	-7.876404e-06	-6.836511e-09	-5.553295e+01	-4.478847e+02
1.300000e-07	-7.840835e-06	-6.813712e-09	-5.528218e+01	-4.472126e+02
1.400000e-07	-7.802872e-06	-6.823974e-09	-5.501451e+01	-4.465391e+02
1.500000e-07	-7.762739e-06	-6.800627e-09	-5.473155e+01	-4.458809e+02
1.600000e-07	-7.720110e-06	-6.787259e-09	-5.443099e+01	-4.452483e+02
1.700000e-07	-7.674707e-06	-6.822711e-09	-5.411088e+01	-4.446427e+02
1.800000e-07	-7.626590e-06	-6.717240e-09	-5.377163e+01	-4.440567e+02
1.900000e-07	-7.575556e-06	-6.787828e-09	-5.341181e+01	-4.434745e+02
2.000000e-07	-7.521469e-06	-6.808060e-09	-5.303046e+01	-4.428740e+02
2.100000e-07	-7.464585e-06	-6.696039e-09	-5.262940e+01	-4.422301e+02
2.200000e-07	-7.405070e-06	-6.721418e-09	-5.220979e+01	-4.415180e+02
2.300000e-07	-7.343051e-06	-6.713503e-09	-5.177253e+01	-4.407167e+02
2.400000e-07	-7.278334e-06	-6.735315e-09	-5.131623e+01	-4.398117e+02
2.500000e-07	-7.210801e-06	-6.670259e-09	-5.084009e+01	-4.387973e+02
2.600000e-07	-7.140609e-06	-6.658518e-09	-5.034520e+01	-4.376761e+02
2.700000e-07	-7.067697e-06	-6.667401e-09	-4.983113e+01	-4.364589e+02
2.800000e-07	-6.992063e-06	-6.636665e-09	-4.929787e+01	-4.351621e+02
2.900000e-07	-6.913692e-06	-6.617986e-09	-4.874531e+01	-4.338047e+02
3.000000e-07	-6.832608e-06	-6.593372e-09	-4.817362e+01	-4.324048e+02
3.100000e-07	-6.749176e-06	-6.587797e-09	-4.758538e+01	-4.309763e+02
3.200000e-07	-6.663556e-06	-6.534085e-09	-4.698171e+01	-4.295263e+02
3.300000e-07	-6.575624e-06	-6.522291e-09	-4.636174e+01	-4.280543e+02
3.400000e-07	-6.485352e-06	-6.532585e-09	-4.572528e+01	-4.265512e+02
3.500000e-07	-6.392794e-06	-6.468819e-09	-4.507269e+01	-4.250016e+02
3.600000e-07	-6.297966e-06	-6.429594e-09	-4.440410e+01	-4.233857e+02
3.700000e-07	-6.200874e-06	-6.437472e-09	-4.371955e+01	-4.216827e+02
3.800000e-07	-6.101416e-06	-6.412706e-09	-4.301832e+01	-4.198743e+02
3.900000e-07	-5.999687e-06	-6.348206e-09	-4.230107e+01	-4.179472e+02
4.000000e-07	-5.895880e-06	-6.327016e-09	-4.156918e+01	-4.158957e+02
4.100000e-07	-5.790007e-06	-6.324917e-09	-4.082272e+01	-4.137224e+02
4.200000e-07	-5.682068e-06	-6.270329e-09	-4.006169e+01	-4.114369e+02
4.300000e-07	-5.572085e-06	-6.225345e-09	-3.928624e+01	-4.090547e+02
4.400000e-07	-5.459991e-06	-6.208614e-09	-3.849592e+01	-4.065936e+02
4.500000e-07	-5.345743e-06	-6.177643e-09	-3.769041e+01	-4.040705e+02
4.600000e-07	-5.229441e-06	-6.118815e-09	-3.687042e+01	-4.014976e+02
4.700000e-07	-5.111164e-06	-6.079176e-09	-3.603650e+01	-3.988801e+02
4.800000e-07	-4.991022e-06	-6.052892e-09	-3.518943e+01	-3.962144e+02
4.900000e-07	-4.869097e-06	-5.998474e-09	-3.432980e+01	-3.934878e+02
5.000000e-07	-4.745445e-06	-5.947723e-09	-3.345798e+01	-3.906799e+02
5.100000e-07	-4.620108e-06	-5.910556e-09	-3.257429e+01	-3.877654e+02
5.200000e-07	-4.493097e-06	-5.868111e-09	-3.167879e+01	-3.847173e+02
5.300000e-07	-4.364414e-06	-5.806448e-09	-3.077151e+01	-3.815108e+02
5.400000e-07	-4.234154e-06	-5.759728e-09	-2.985310e+01	-3.781266e+02
5.500000e-07	-4.102424e-06	-5.718171e-09	-2.892433e+01	-3.745531e+02
5.600000e-07	-3.969213e-06	-5.652871e-09	-2.798512e+01	-3.707874e+02
5.700000e-07	-3.834534e-06	-5.586105e-09	-2.703556e+01	-3.668346e+02
5.800000e-07	-3.698464e-06	-5.532250e-09	-2.607620e+01	-3.627051e+02
5.900000e-07	-3.561001e-06	-5.476589e-09	-2.510701e+01	-3.584113e+02
6.000000e-07	-3.422115e-06	-5.396387e-09	-2.412778e+01	-3.539632e+02
6.100000e-07	-3.281814e-06	-5.323274e-09	-2.313858e+01	-3.493642e+02
6.200000e-07	-3.140213e-06	-5.257379e-09	-2.214022e+01	-3.446078e+02
6.300000e-07	-2.997403e-06	-5.180558e-09	-2.113333e+01	-3.396752e+02
6.400000e-07	-2.853448e-06	-5.091545e-09	-2.011837e+01	-3.345359e+02
6.500000e-07	-2.708445e-06	-5.006850e-09	-1.909601e+01	-3.291486e+02
6.600000e-07	-2.562412e-06	-4.923886e-09	-1.806641e+01	-3.234650e+02
6.700000e-07	-2.415538e-06	-4.827020e-09	-1.703086e+01	-3.174344e+02
6.800000e-07	-2.267949e-06	-4.728865e-09	-1.599028e+01	-3.110079e+02
6.900000e-07	-2.119649e-06	-4.625388e-09	-1.494469e+01	-3.041427e+02
7.000000e-07	-1.970633e-06	-4.512292e-09	-1.389404e+01	-2.968043e+02
7.100000e-07	-1.820899e-06	-4.389498e-09	-1.283833e+01	-2.889664e+02
7.200000e-07	-1.670472e-06	-4.268225e-09	-1.177774e+01	-2.806086e+02
7.300000e-07	-1.519438e-06	-4.137455e-09	-1.071287e+01	-2.717111e+02
7.400000e-07	-1.367932e-06	-3.988676e-09	-9.644665e+00	-2.622476e+02
7.500000e-07	-1.216012e-06	-3.834769e-09	-8.573549e+00	-2.521769e+02
7.600000e-07	-1.063671e-06	-3.676716e-09	-7.499463e+00	-2.414357e+02
7.700000e-07	-9.109109e-07	-3.503096e-09	-6.422420e+00	-2.299326e+02
7.800000e-07	-7.578327e-07	-3.304711e-09	-5.343135e+00	-2.175451e+02
7.900000e-07	-6.044289e-07	-3.094469e-09	-4.261554e+00	-2.041220e+02
8.000000e-07	-4.507015e-07	-2.868810e-09	-3.177692e+00	-1.894901e+02
8.100000e-07	-2.968108e-07	-2.621150e-09	-2.092679e+00	-1.734663e+02
8.200000e-07	-1.428304e-07	-2.348456e-09	-1.007032e+00	-1.558739e+02
8.300000e-07	1.123677e-08	-2.052665e-09	7.922536e-02	-1.365625e+02
8.400000e-07	1.653079e-07	-1.729511e-09	1.165511e+00	-1.154282e+02
8.500000e-07	3.192167e-07	-1.376446e-09	2.250652e+00	-9.243366e+01
8.600000e-07	4.729033e-07	-1.002465e-09	3.334227e+00	-6.762410e+01
8.700000e-07	6.264558e-07	-6.049073e-10	4.416856e+00	-4.113778e+01
8.800000e-07	7.798220e-07	-1.831045e-10	5.498171e+00	-1.320939e+01
8.900000e-07	9.328551e-07	2.592730e-10	6.577138e+00	1.583495e+01
9.000000e-07	1.085497e-06	7.104087e-10	7.653346e+00	4.559095e+01
9.100000e-07	1.237723e-06	1.168851e-09	8.726624e+00	7.559696e+01
9.200000e-07	1.389528e-06	1.628902e-09	9.796931e+00	1.053606e+02
9.300000e-07	1.540867e-06	2.075827e-09	1.086395e+01	1.343887e+02
9.400000e-07	1.691639e-06	2.503077e-09	1.192698e+01	1.622185e+02
9.500000e-07	1.841734e-06	2.907051e-09	1.298523e+01	1.884455e+02
9.600000e-07	1.991171e-06	3.282188e-09	1.403885e+01	2.127479e+02
9.700000e-07	2.139986e-06	3.617559e-09	1.508807e+01	2.349025e+02
9.800000e-07	2.288055e-06	3.913226e-09	1.613204e+01	2.547932e+02
9.900000e-07	2.435283e-06	4.172632e-09	1.717008e+01	2.724100e+02
1.000000e-06	2.581664e-06	4.397038e-09	1.820214e+01	2.878398e+02
1.010000e-06	2.727095e-06	4.591917e-09	1.922751e+01	3.012497e+02
1.020000e-06	2.871513e-06	4.766977e-09	2.024574e+01	3.128655e+02
1.030000e-06	3.014952e-06	4.924357e-09	2.125706e+01	3.229474e+02
1.040000e-06	3.157269e-06	5.064538e-09	2.226047e+01	3.317657e+02
1.050000e-06	3.298388e-06	5.191344e-09	2.325544e+01	3.395786e+02
1.060000e-06	3.438223e-06	5.305717e-09	2.424135e+01	3.466151e+02
1.070000e-06	3.576621e-06	5.408587e-09	2.521713e+01	3.530624e+02
1.080000e-06	3.713665e-06	5.500428e-09	2.618337e+01	3.590606e+02
1.090000e-06	3.849414e-06	5.584868e-09	2.714048e+01	3.647030e+02
1.100000e-06	3.983720e-06	5.663252e-09	2.808740e+01	3.700416e+02
1.110000e-06	4.116592e-06	5.735963e-09	2.902423e+01	3.750958e+02
1.120000e-06	4.248035e-06	5.804070e-09	2.995097e+01	3.798644e+02
1.130000e-06	4.377869e-06	5.867983e-09	3.086637e+01	3.843362e+02
1.140000e-06	4.506106e-06	5.928585e-09	3.177051e+01	3.885008e+02
1.150000e-06	4.632777e-06	5.984821e-09	3.266361e+01	3.923556e+02
1.160000e-06	4.757912e-06	6.038944e-09	3.354588e+01	3.959105e+02
1.170000e-06	4.881441e-06	6.091689e-09	3.441683e+01	3.991885e+02
1.180000e-06	5.003164e-06	6.139331e-09	3.527504e+01	4.022240e+02
1.190000e-06	5.123071e-06	6.180394e-09	3.612045e+01	4.050584e+02
1.200000e-06	5.241148e-06	6.219140e-09	3.695296e+01	4.077345e+02
1.210000e-06	5.357247e-06	6.257983e-09	3.777152e+01	4.102912e+02
1.220000e-06	5.471200e-06	6.294424e-09	3.857495e+01	4.127583e+02
1.230000e-06	5.583011e-06	6.326828e-09	3.936328e+01	4.151541e+02
1.240000e-06	5.692821e-06	6.358789e-09	4.013750e+01	4.174844e+02
1.250000e-06	5.800729e-06	6.392310e-09	4.089831e+01	4.197432e+02
1.260000e-06	5.906590e-06	6.423833e-09	4.164469e+01	4.219165e+02
1.270000e-06	6.010273e-06	6.452047e-09	4.237571e+01	4.239856e+02
1.280000e-06	6.111861e-06	6.476178e-09	4.309196e+01	4.259324e+02
1.290000e-06	6.211261e-06	6.500916e-09	4.379278e+01	4.277432e+02
1.300000e-06	6.308307e-06	6.525846e-09	4.447701e+01	4.294120e+02
1.310000e-06	6.403009e-06	6.547901e-09	4.514471e+01	4.309419e+02
1.320000e-06	6.495508e-06	6.568211e-09	4.579688e+01	4.323453e+02
1.330000e-06	6.585774e-06	6.588076e-09	4.643331e+01	4.336417e+02
1.340000e-06	6.673685e-06	6.608925e-09	4.705313e+01	4.348553e+02
1.350000e-06	6.759309e-06	6.629503e-09	4.765682e+01	4.360108e+02
1.360000e-06	6.842644e-06	6.648969e-09	4.824438e+01	4.371302e+02
1.370000e-06	6.923560e-06	6.665572e-09	4.881488e+01	4.382292e+02
1.380000e-06	7.001967e-06	6.680408e-09	4.936770e+01	4.393159e+02
1.390000e-06	7.077724e-06	6.695662e-09	4.990183e+01	4.403895e+02
1.400000e-06	7.150748e-06	6.710639e-09	5.041668e+01	4.414419e+02
1.410000e-06	7.221203e-06	6.724670e-09	5.091343e+01	4.424590e+02
1.420000e-06	7.289164e-06	6.736631e-09	5.139259e+01	4.434246e+02
1.430000e-06	7.354496e-06	6.748395e-09	5.185321e+01	4.443228e+02
1.440000e-06	7.417208e-06	6.762680e-09	5.229537e+01	4.451416e+02
1.450000e-06	7.477440e-06	6.777429e-09	5.272004e+01	4.458748e+02
1.460000e-06	7.535013e-06	6.790535e-09	5.312596e+01	4.465233e+02
1.470000e-06	7.589825e-06	6.800785e-09	5.351241e+01	4.470950e+02
1.480000e-06	7.641737e-06	6.809565e-09	5.387842e+01	4.476034e+02
1.490000e-06	7.690516e-06	6.818854e-09	5.422234e+01	4.480652e+02
1.500000e-06	7.736402e-06	6.827317e-09	5.454587e+01	4.484978e+02
1.510000e-06	7.779578e-06	6.833118e-09	5.485028e+01	4.489158e+02
1.520000e-06	7.819985e-06	6.838213e-09	5.513517e+01	4.493296e+02
1.530000e-06	7.857637e-06	6.845958e-09	5.540063e+01	4.497429e+02
1.540000e-06	7.892581e-06	6.854046e-09	5.564701e+01	4.501532e+02
1.550000e-06	7.924722e-06	6.859909e-09	5.587362e+01	4.505519e+02
1.560000e-06	7.954091e-06	6.865104e-09	5.608069e+01	4.509265e+02
1.570000e-06	7.980727e-06	6.870728e-09	5.626849e+01	4.512626e+02
1.580000e-06	8.004445e-06	6.874838e-09	5.643571e+01	4.515470e+02
1.590000e-06	8.025347e-06	6.877530e-09	5.658308e+01	4.517701e+02
1.600000e-06	8.043538e-06	6.879298e-09	5.671134e+01	4.519273e+02
1.610000e-06	8.058838e-06	6.880287e-09	5.681921e+01	4.520198e+02
1.620000e-06	8.071109e-06	6.882495e-09	5.690573e+01	4.520547e+02
1.630000e-06	8.080259e-06	6.886815e-09	5.697025e+01	4.520432e+02
1.640000e-06	8.086442e-06	6.891105e-09	5.701383e+01	4.519985e+02
1.650000e-06	8.089817e-06	6.893153e-09	5.703763e+01	4.519333e+02
1.660000e-06	8.090366e-06	6.895793e-09	5.704150e+01	4.518573e+02
1.670000e-06	8.088203e-06	6.891543e-09	5.702626e+01	4.517752e+02
1.680000e-06	8.083414e-06	6.885460e-09	5.699249e+01	4.516854e+02
1.690000e-06	8.075894e-06	6.881443e-09	5.693947e+01	4.515803e+02
1.700000e-06	8.065630e-06	6.879028e-09	5.686710e+01	4.514473e+02
1.710000e-06	8.052548e-06	6.877747e-09	5.677487e+01	4.512706e+02
1.720000e-06	8.036695e-06	6.877141e-09	5.666309e+01	4.510343e+02
1.730000e-06	8.018405e-06	6.878089e-09	5.653414e+01	4.507254e+02
1.740000e-06	7.997759e-06	6.861022e-09	5.638857e+01	4.503357e+02
1.750000e-06	7.974152e-06	6.772821e-09	5.622213e+01	4.498641e+02
1.760000e-06	7.946818e-06	6.780073e-09	5.602941e+01	4.493173e+02
1.770000e-06	7.915882e-06	6.824579e-09	5.581129e+01	4.487089e+02
1.780000e-06	7.882196e-06	6.832039e-09	5.557379e+01	4.480577e+02
1.790000e-06	7.846241e-06	6.820845e-09	5.532029e+01	4.473852e+02
1.800000e-06	7.807916e-06	6.861541e-09	5.505008e+01	4.467119e+02
1.810000e-06	7.767495e-06	6.773015e-09	5.476509e+01	4.460545e+02
1.820000e-06	7.724873e-06	6.699288e-09	5.446458e+01	4.454228e+02
1.830000e-06	7.679426e-06	6.857408e-09	5.414415e+01	4.448181e+02
1.840000e-06	7.631229e-06	6.740226e-09	5.380434e+01	4.442325e+02
1.850000e-06	7.580158e-06	6.768690e-09	5.344426e+01	4.436500e+02
1.860000e-06	7.526061e-06	6.802178e-09	5.306284e+01	4.430483e+02
1.870000e-06	7.469173e-06	6.729312e-09	5.266176e+01	4.424024e+02
1.880000e-06	7.409566e-06	6.768812e-09	5.224149e+01	4.416874e+02
1.890000e-06	7.347349e-06	6.679900e-09	5.180283e+01	4.408826e+02
1.900000e-06	7.282419e-06	6.747669e-09	5.134504e+01	4.399737e+02
1.910000e-06	7.214675e-06	6.682353e-09	5.086741e+01	4.389553e+02
1.920000e-06	7.144129e-06	6.634811e-09	5.037002e+01	4.378304e+02
1.930000e-06	7.070929e-06	6.706402e-09	4.985392e+01	4.366101e+02
1.940000e-06	6.995047e-06	6.636697e-09	4.931890e+01	4.353108e+02
1.950000e-06	6.916284e-06	6.618083e-09	4.876358e+01	4.339515e+02
1.960000e-06	6.835069e-06	6.563647e-09	4.819097e+01	4.325504e+02
1.970000e-06	6.751531e-06	6.617177e-09	4.760198e+01	4.311209e+02
1.980000e-06	6.665492e-06	6.566277e-09	4.699536e+01	4.296703e+02
1.990000e-06	6.576997e-06	6.497965e-09	4.637142e+01	4.281973e+02
2.000000e-06	6.486256e-06	6.537919e-09	4.573165e+01	4.266928e+02
2.010000e-06	6.393298e-06	6.490415e-09	4.507625e+01	4.251412e+02
2.020000e-06	6.297944e-06	6.462514e-09	4.440395e+01	4.235225e+02
2.030000e-06	6.200419e-06	6.423974e-09	4.371634e+01	4.218160e+02
2.040000e-06	6.100758e-06	6.434630e-09	4.301368e+01	4.200034e+02
2.050000e-06	5.998795e-06	6.367649e-09	4.229479e+01	4.180719e+02
2.060000e-06	5.894571e-06	6.324321e-09	4.155995e+01	4.160160e+02
2.070000e-06	5.788382e-06	6.325147e-09	4.081125e+01	4.138384e+02
2.080000e-06	5.680261e-06	6.288962e-09	4.004894e+01	4.115491e+02
2.090000e-06	5.570060e-06	6.229782e-09	3.927196e+01	4.091638e+02
2.100000e-06	5.457826e-06	6.186790e-09	3.848066e+01	4.067002e+02
2.110000e-06	5.343454e-06	6.187016e-09	3.767427e+01	4.041750e+02
2.120000e-06	5.226864e-06	6.137247e-09	3.685225e+01	4.016005e+02
2.130000e-06	5.108233e-06	6.088384e-09	3.601584e+01	3.989814e+02
2.140000e-06	4.987741e-06	6.048197e-09	3.516630e+01	3.963137e+02
2.150000e-06	4.865483e-06	6.012606e-09	3.430431e+01	3.935845e+02
2.160000e-06	4.741543e-06	5.955129e-09	3.343047e+01	3.907733e+02
2.170000e-06	4.615884e-06	5.913557e-09	3.254450e+01	3.878544e+02
2.180000e-06	4.488543e-06	5.877166e-09	3.164668e+01	3.848010e+02
2.190000e-06	4.359588e-06	5.816131e-09	3.073748e+01	3.815885e+02
2.200000e-06	4.229122e-06	5.752976e-09	2.981762e+01	3.781976e+02
2.210000e-06	4.097170e-06	5.711545e-09	2.888728e+01	3.746172e+02
2.220000e-06	3.963665e-06	5.668808e-09	2.794600e+01	3.708447e+02
2.230000e-06	3.828738e-06	5.596295e-09	2.699470e+01	3.668853e+02
2.240000e-06	3.692478e-06	5.527841e-09	2.603399e+01	3.627497e+02
2.250000e-06	3.554866e-06	5.472313e-09	2.506375e+01	3.584502e+02
2.260000e-06	3.415849e-06	5.409351e-09	2.408360e+01	3.539967e+02
2.270000e-06	3.275550e-06	5.334669e-09	2.309441e+01	3.493923e+02
2.280000e-06	3.134042e-06	5.265698e-09	2.209671e+01	3.446299e+02
2.290000e-06	2.991272e-06	5.193810e-09	2.109010e+01	3.396905e+02
2.300000e-06	2.847355e-06	5.110287e-09	2.007541e+01	3.345430e+02
2.310000e-06	2.702475e-06	5.026284e-09	1.905393e+01	3.291460e+02
2.320000e-06	2.556700e-06	4.946729e-09	1.802613e+01	3.234509e+02
2.330000e-06	2.410002e-06	4.849432e-09	1.699183e+01	3.174069e+02
2.340000e-06	2.262443e-06	4.739566e-09	1.595146e+01	3.109654e+02
2.350000e-06	2.114102e-06	4.638325e-09	1.490558e+01	3.040838e+02
2.360000e-06	1.965038e-06	4.538139e-09	1.385459e+01	2.967279e+02
2.370000e-06	1.815279e-06	4.417775e-09	1.279871e+01	2.888717e+02
2.380000e-06	1.664844e-06	4.286811e-09	1.173806e+01	2.804950e+02
2.390000e-06	1.513842e-06	4.157817e-09	1.067342e+01	2.715778e+02
2.400000e-06	1.362355e-06	4.019010e-09	9.605348e+00	2.620933e+02
2.410000e-06	1.210333e-06	3.863975e-09	8.533513e+00	2.519999e+02
2.420000e-06	1.057835e-06	3.700365e-09	7.458315e+00	2.412333e+02
2.430000e-06	9.049925e-07	3.527104e-09	6.380692e+00	2.297008e+02
2.440000e-06	7.518563e-07	3.333116e-09	5.300998e+00	2.172790e+02
2.450000e-06	5.984730e-07	3.122276e-09	4.219561e+00	2.038158e+02
2.460000e-06	4.449059e-07	2.898247e-09	3.136830e+00	1.891374e+02
2.470000e-06	2.911726e-07	2.652891e-09	2.052926e+00	1.730604e+02
2.480000e-06	1.372767e-07	2.380424e-09	9.678759e-01	1.554090e+02
2.490000e-06	-1.663703e-08	2.086175e-09	-1.173002e-01	1.360339e+02
2.500000e-06	-1.704866e-07	1.771076e-09	-1.202024e+00	1.148333e+02
2.510000e-06	-3.242835e-07	1.425286e-09	-2.286376e+00	9.177264e+01
2.520000e-06	-4.779474e-07	1.048357e-09	-3.369790e+00	6.690021e+01
2.530000e-06	-6.314548e-07	6.493503e-10	-4.452101e+00	4.035774e+01
2.540000e-06	-7.847297e-07	2.280363e-10	-5.532774e+00	1.238333e+01
2.550000e-06	-9.377331e-07	-2.153079e-10	-6.611531e+00	-1.669382e+01
2.560000e-06	-1.090430e-06	-6.729954e-10	-7.688126e+00	-4.646700e+01
2.570000e-06	-1.242644e-06	-1.134837e-09	-8.761320e+00	-7.647296e+01
2.580000e-06	-1.394343e-06	-1.593569e-09	-9.830880e+00	-1.062187e+02
2.590000e-06	-1.545558e-06	-2.043248e-09	-1.089703e+01	-1.352118e+02
2.600000e-06	-1.696207e-06	-2.472579e-09	-1.195919e+01	-1.629909e+02
2.610000e-06	-1.846183e-06	-2.874453e-09	-1.301660e+01	-1.891543e+02
2.620000e-06	-1.995457e-06	-3.247515e-09	-1.406906e+01	-2.133832e+02
2.630000e-06	-2.144105e-06	-3.584971e-09	-1.511711e+01	-2.354583e+02
2.640000e-06	-2.292112e-06	-3.882086e-09	-1.616064e+01	-2.552674e+02
2.650000e-06	-2.439258e-06	-4.143336e-09	-1.719810e+01	-2.728041e+02
2.660000e-06	-2.585470e-06	-4.373128e-09	-1.822898e+01	-2.881585e+02
2.670000e-06	-2.730876e-06	-4.574728e-09	-1.925417e+01	-3.015002e+02
2.680000e-06	-2.875309e-06	-4.749456e-09	-2.027250e+01	-3.130566e+02
2.690000e-06	-3.018586e-06	-4.904448e-09	-2.128268e+01	-3.230888e+02
2.700000e-06	-3.160620e-06	-5.044633e-09	-2.228410e+01	-3.318669e+02
2.710000e-06	-3.301406e-06	-5.169424e-09	-2.327672e+01	-3.396484e+02
2.720000e-06	-3.440962e-06	-5.281052e-09	-2.426066e+01	-3.466609e+02
2.730000e-06	-3.579262e-06	-5.382750e-09	-2.523575e+01	-3.530900e+02
2.740000e-06	-3.716299e-06	-5.475457e-09	-2.620194e+01	-3.590743e+02
2.750000e-06	-3.851959e-06	-5.559212e-09	-2.715842e+01	-3.647052e+02
2.760000e-06	-3.986144e-06	-5.637790e-09	-2.810450e+01	-3.700334e+02
2.770000e-06	-4.118921e-06	-5.712727e-09	-2.904065e+01	-3.750776e+02
2.780000e-06	-4.250316e-06	-5.783013e-09	-2.996705e+01	-3.798358e+02
2.790000e-06	-4.380260e-06	-5.848147e-09	-3.088323e+01	-3.842969e+02
2.800000e-06	-4.508715e-06	-5.909103e-09	-3.178890e+01	-3.884505e+02
2.810000e-06	-4.635492e-06	-5.966795e-09	-3.268275e+01	-3.922943e+02
2.820000e-06	-4.760612e-06	-6.022336e-09	-3.356492e+01	-3.958388e+02
2.830000e-06	-4.884113e-06	-6.076156e-09	-3.443566e+01	-3.991076e+02
2.840000e-06	-5.005876e-06	-6.127100e-09	-3.529417e+01	-4.021352e+02
2.850000e-06	-5.125751e-06	-6.174850e-09	-3.613935e+01	-4.049633e+02
2.860000e-06	-5.243589e-06	-6.220911e-09	-3.697017e+01	-4.076345e+02
2.870000e-06	-5.359341e-06	-6.265312e-09	-3.778628e+01	-4.101875e+02
2.880000e-06	-5.472875e-06	-6.307674e-09	-3.858676e+01	-4.126519e+02
2.890000e-06	-5.584212e-06	-6.346710e-09	-3.937175e+01	-4.150454e+02
2.900000e-06	-5.693592e-06	-6.383148e-09	-4.014294e+01	-4.173733e+02
2.910000e-06	-5.801082e-06	-6.418111e-09	-4.090080e+01	-4.196294e+02
2.920000e-06	-5.906645e-06	-6.449562e-09	-4.164508e+01	-4.217993e+02
2.930000e-06	-6.010103e-06	-6.478850e-09	-4.237451e+01	-4.238644e+02
2.940000e-06	-6.111362e-06	-6.507341e-09	-4.308844e+01	-4.258066e+02
