# Temperatura_=_20.0
# Concentracion g/m^3_=_9000.0
# C_Vs_to_Am_M_A/Vsm_=_65563218390.804596
# pendiente_HvsI_1/m_=_3716.3
# ordenada_HvsI_A/m_=_1297.0
# frecuencia_Hz_=_301295.2158391913

Tiempo_(s)	Campo_(V.s)	Magnetizacion_(V.s)	Campo_(kA/m)	Magnetizacion_(A/m)
0.000000e+00	-8.154961e-06	-6.846363e-09	-5.697627e+01	-4.493264e+02
1.000000e-08	-8.152411e-06	-6.847836e-09	-5.695846e+01	-4.491948e+02
2.000000e-08	-8.147213e-06	-6.846138e-09	-5.692214e+01	-4.490614e+02
3.000000e-08	-8.139402e-06	-6.842904e-09	-5.686757e+01	-4.489179e+02
4.000000e-08	-8.128770e-06	-6.839169e-09	-5.679328e+01	-4.487505e+02
5.000000e-08	-8.115115e-06	-6.834880e-09	-5.669788e+01	-4.485426e+02
6.000000e-08	-8.098477e-06	-6.830779e-09	-5.658164e+01	-4.482777e+02
7.000000e-08	-8.079340e-06	-6.826593e-09	-5.644793e+01	-4.479423e+02
8.000000e-08	-8.057903e-06	-6.834985e-09	-5.629815e+01	-4.475290e+02
9.000000e-08	-8.033649e-06	-6.862271e-09	-5.612870e+01	-4.470376e+02
1.000000e-07	-8.006178e-06	-6.849096e-09	-5.593677e+01	-4.464758e+02
1.100000e-07	-7.975628e-06	-6.814742e-09	-5.572333e+01	-4.458581e+02
1.200000e-07	-7.942131e-06	-6.786405e-09	-5.548929e+01	-4.452037e+02
1.300000e-07	-7.905801e-06	-6.777465e-09	-5.523547e+01	-4.445333e+02
1.400000e-07	-7.867125e-06	-6.780527e-09	-5.496525e+01	-4.438658e+02
1.500000e-07	-7.826218e-06	-6.751915e-09	-5.467944e+01	-4.432152e+02
1.600000e-07	-7.782735e-06	-6.746687e-09	-5.437564e+01	-4.425878e+02
1.700000e-07	-7.736430e-06	-6.721646e-09	-5.405212e+01	-4.419811e+02
1.800000e-07	-7.687196e-06	-6.719373e-09	-5.370814e+01	-4.413838e+02
1.900000e-07	-7.634967e-06	-6.742747e-09	-5.334323e+01	-4.407775e+02
2.000000e-07	-7.579763e-06	-6.699992e-09	-5.295754e+01	-4.401391e+02
2.100000e-07	-7.521817e-06	-6.671182e-09	-5.255268e+01	-4.394446e+02
2.200000e-07	-7.461269e-06	-6.669071e-09	-5.212965e+01	-4.386724e+02
2.300000e-07	-7.398136e-06	-6.678724e-09	-5.168856e+01	-4.378068e+02
2.400000e-07	-7.332248e-06	-6.657716e-09	-5.122822e+01	-4.368400e+02
2.500000e-07	-7.263552e-06	-6.618223e-09	-5.074826e+01	-4.357736e+02
2.600000e-07	-7.192190e-06	-6.622042e-09	-5.024968e+01	-4.346174e+02
2.700000e-07	-7.118062e-06	-6.602521e-09	-4.973177e+01	-4.333878e+02
2.800000e-07	-7.041139e-06	-6.587073e-09	-4.919433e+01	-4.321045e+02
2.900000e-07	-6.961507e-06	-6.571705e-09	-4.863796e+01	-4.307873e+02
3.000000e-07	-6.879356e-06	-6.550258e-09	-4.806400e+01	-4.294518e+02
3.100000e-07	-6.794884e-06	-6.524034e-09	-4.747382e+01	-4.281067e+02
3.200000e-07	-6.708150e-06	-6.498326e-09	-4.686784e+01	-4.267521e+02
3.300000e-07	-6.619068e-06	-6.500802e-09	-4.624545e+01	-4.253785e+02
3.400000e-07	-6.527518e-06	-6.465532e-09	-4.560581e+01	-4.239688e+02
3.500000e-07	-6.433634e-06	-6.429941e-09	-4.494987e+01	-4.225004e+02
3.600000e-07	-6.337443e-06	-6.406898e-09	-4.427782e+01	-4.209485e+02
3.700000e-07	-6.238979e-06	-6.393646e-09	-4.358988e+01	-4.192908e+02
3.800000e-07	-6.138292e-06	-6.358597e-09	-4.288641e+01	-4.175104e+02
3.900000e-07	-6.035298e-06	-6.321842e-09	-4.216682e+01	-4.155992e+02
4.000000e-07	-5.930071e-06	-6.306058e-09	-4.143163e+01	-4.135588e+02
4.100000e-07	-5.822792e-06	-6.272211e-09	-4.068211e+01	-4.114003e+02
4.200000e-07	-5.713542e-06	-6.237904e-09	-3.991881e+01	-4.091424e+02
4.300000e-07	-5.602195e-06	-6.206643e-09	-3.914086e+01	-4.068079e+02
4.400000e-07	-5.488652e-06	-6.182866e-09	-3.834757e+01	-4.044199e+02
4.500000e-07	-5.372946e-06	-6.136375e-09	-3.753917e+01	-4.019970e+02
4.600000e-07	-5.255198e-06	-6.092859e-09	-3.671649e+01	-3.995498e+02
4.700000e-07	-5.135503e-06	-6.059372e-09	-3.588022e+01	-3.970783e+02
4.800000e-07	-5.013941e-06	-6.022547e-09	-3.503090e+01	-3.945710e+02
4.900000e-07	-4.890624e-06	-5.977974e-09	-3.416933e+01	-3.920059e+02
5.000000e-07	-4.765603e-06	-5.933630e-09	-3.329584e+01	-3.893535e+02
5.100000e-07	-4.638920e-06	-5.896375e-09	-3.241074e+01	-3.865801e+02
5.200000e-07	-4.510454e-06	-5.849421e-09	-3.151319e+01	-3.836534e+02
5.300000e-07	-4.380257e-06	-5.802240e-09	-3.060355e+01	-3.805462e+02
5.400000e-07	-4.248455e-06	-5.754161e-09	-2.968268e+01	-3.772407e+02
5.500000e-07	-4.115213e-06	-5.703152e-09	-2.875176e+01	-3.737297e+02
5.600000e-07	-3.980683e-06	-5.642981e-09	-2.781184e+01	-3.700176e+02
5.700000e-07	-3.844600e-06	-5.587271e-09	-2.686107e+01	-3.661172e+02
5.800000e-07	-3.706882e-06	-5.533429e-09	-2.589887e+01	-3.620468e+02
5.900000e-07	-3.567760e-06	-5.469044e-09	-2.492687e+01	-3.578244e+02
6.000000e-07	-3.427268e-06	-5.398090e-09	-2.394529e+01	-3.534628e+02
6.100000e-07	-3.285292e-06	-5.329317e-09	-2.295335e+01	-3.489641e+02
6.200000e-07	-3.141989e-06	-5.263460e-09	-2.195214e+01	-3.443168e+02
6.300000e-07	-2.997538e-06	-5.185429e-09	-2.094290e+01	-3.394938e+02
6.400000e-07	-2.852094e-06	-5.101473e-09	-1.992673e+01	-3.344538e+02
6.500000e-07	-2.705726e-06	-5.016835e-09	-1.890410e+01	-3.291444e+02
6.600000e-07	-2.558419e-06	-4.929364e-09	-1.787491e+01	-3.235074e+02
6.700000e-07	-2.410283e-06	-4.834639e-09	-1.683993e+01	-3.174842e+02
6.800000e-07	-2.261384e-06	-4.735762e-09	-1.579962e+01	-3.110227e+02
6.900000e-07	-2.111718e-06	-4.631436e-09	-1.475394e+01	-3.040808e+02
7.000000e-07	-1.961353e-06	-4.517746e-09	-1.370339e+01	-2.966289e+02
7.100000e-07	-1.810276e-06	-4.399620e-09	-1.264786e+01	-2.886490e+02
7.200000e-07	-1.658462e-06	-4.276364e-09	-1.158718e+01	-2.801304e+02
7.300000e-07	-1.506011e-06	-4.141924e-09	-1.052205e+01	-2.710620e+02
7.400000e-07	-1.352936e-06	-3.991603e-09	-9.452558e+00	-2.614231e+02
7.500000e-07	-1.199284e-06	-3.835886e-09	-8.379042e+00	-2.511733e+02
7.600000e-07	-1.045208e-06	-3.672347e-09	-7.302554e+00	-2.402432e+02
7.700000e-07	-8.907754e-07	-3.491736e-09	-6.223581e+00	-2.285281e+02
7.800000e-07	-7.360576e-07	-3.291574e-09	-5.142614e+00	-2.158858e+02
7.900000e-07	-5.811218e-07	-3.074389e-09	-4.060124e+00	-2.021406e+02
8.000000e-07	-4.259580e-07	-2.840292e-09	-2.976041e+00	-1.870924e+02
8.100000e-07	-2.706138e-07	-2.585725e-09	-1.890697e+00	-1.705330e+02
8.200000e-07	-1.151699e-07	-2.307429e-09	-8.046575e-01	-1.522659e+02
8.300000e-07	4.029402e-08	-1.997873e-09	2.815222e-01	-1.321298e+02
8.400000e-07	1.957410e-07	-1.658935e-09	1.367584e+00	-1.100224e+02
8.500000e-07	3.510945e-07	-1.291982e-09	2.452992e+00	-8.592192e+01
8.600000e-07	5.062990e-07	-8.996181e-10	3.537360e+00	-5.990392e+01
8.700000e-07	6.613671e-07	-4.814799e-10	4.620774e+00	-3.215069e+01
8.800000e-07	8.162539e-07	-3.897486e-11	5.702921e+00	-2.951837e+00
8.900000e-07	9.708481e-07	4.220333e-10	6.783025e+00	2.730479e+01
9.000000e-07	1.125024e-06	8.949217e-10	7.860203e+00	5.815143e+01
9.100000e-07	1.278748e-06	1.369797e-09	8.934231e+00	8.906676e+01
9.200000e-07	1.432010e-06	1.840042e-09	1.000502e+01	1.195079e+02
9.300000e-07	1.584779e-06	2.294910e-09	1.107238e+01	1.489451e+02
9.400000e-07	1.736950e-06	2.728321e-09	1.213555e+01	1.768960e+02
9.500000e-07	1.888340e-06	3.130141e-09	1.319327e+01	2.029556e+02
9.600000e-07	2.038969e-06	3.491784e-09	1.424567e+01	2.268200e+02
9.700000e-07	2.188869e-06	3.812785e-09	1.529297e+01	2.483009e+02
9.800000e-07	2.337940e-06	4.094486e-09	1.633449e+01	2.673302e+02
9.900000e-07	2.486204e-06	4.337802e-09	1.737036e+01	2.839544e+02
1.000000e-06	2.633665e-06	4.545551e-09	1.840063e+01	2.983202e+02
1.010000e-06	2.780235e-06	4.727753e-09	1.942467e+01	3.106520e+02
1.020000e-06	2.925813e-06	4.889854e-09	2.044178e+01	3.212263e+02
1.030000e-06	3.070326e-06	5.035964e-09	2.145145e+01	3.303433e+02
1.040000e-06	3.213656e-06	5.165660e-09	2.245285e+01	3.383001e+02
1.050000e-06	3.355695e-06	5.281823e-09	2.344523e+01	3.453685e+02
1.060000e-06	3.496479e-06	5.384687e-09	2.442885e+01	3.517774e+02
1.070000e-06	3.636023e-06	5.477846e-09	2.540380e+01	3.577037e+02
1.080000e-06	3.774215e-06	5.563681e-09	2.636931e+01	3.632691e+02
1.090000e-06	3.910941e-06	5.640803e-09	2.732458e+01	3.685443e+02
1.100000e-06	4.046213e-06	5.711134e-09	2.826968e+01	3.735577e+02
1.110000e-06	4.179998e-06	5.777015e-09	2.920440e+01	3.783082e+02
1.120000e-06	4.312264e-06	5.840247e-09	3.012850e+01	3.827783e+02
1.130000e-06	4.443062e-06	5.899842e-09	3.104234e+01	3.869470e+02
1.140000e-06	4.572256e-06	5.955275e-09	3.194499e+01	3.908003e+02
1.150000e-06	4.699727e-06	6.007238e-09	3.283559e+01	3.943381e+02
1.160000e-06	4.825557e-06	6.057061e-09	3.371472e+01	3.975769e+02
1.170000e-06	4.949784e-06	6.105958e-09	3.458266e+01	4.005491e+02
1.180000e-06	5.072342e-06	6.150954e-09	3.543893e+01	4.032986e+02
1.190000e-06	5.193038e-06	6.189515e-09	3.628220e+01	4.058747e+02
1.200000e-06	5.311758e-06	6.225587e-09	3.711167e+01	4.083252e+02
1.210000e-06	5.428546e-06	6.259577e-09	3.792762e+01	4.106902e+02
1.220000e-06	5.543297e-06	6.291909e-09	3.872936e+01	4.129972e+02
1.230000e-06	5.655854e-06	6.322968e-09	3.951576e+01	4.152584e+02
1.240000e-06	5.766280e-06	6.353984e-09	4.028727e+01	4.174717e+02
1.250000e-06	5.874725e-06	6.383559e-09	4.104494e+01	4.196222e+02
1.260000e-06	5.981159e-06	6.413172e-09	4.178857e+01	4.216877e+02
1.270000e-06	6.085419e-06	6.442544e-09	4.251700e+01	4.236434e+02
1.280000e-06	6.187453e-06	6.467806e-09	4.322988e+01	4.254674e+02
1.290000e-06	6.287313e-06	6.490142e-09	4.392757e+01	4.271459e+02
1.300000e-06	6.384852e-06	6.512935e-09	4.460905e+01	4.286754e+02
1.310000e-06	6.480015e-06	6.534442e-09	4.527392e+01	4.300642e+02
1.320000e-06	6.572909e-06	6.553008e-09	4.592295e+01	4.313310e+02
1.330000e-06	6.663517e-06	6.572117e-09	4.655600e+01	4.325021e+02
1.340000e-06	6.751752e-06	6.592432e-09	4.717247e+01	4.336075e+02
1.350000e-06	6.837607e-06	6.612815e-09	4.777231e+01	4.346759e+02
1.360000e-06	6.921168e-06	6.631833e-09	4.835613e+01	4.357307e+02
1.370000e-06	7.002326e-06	6.649778e-09	4.892315e+01	4.367867e+02
1.380000e-06	7.080891e-06	6.666045e-09	4.947207e+01	4.378484e+02
1.390000e-06	7.156844e-06	6.681640e-09	5.000272e+01	4.389099e+02
1.400000e-06	7.230096e-06	6.695207e-09	5.051452e+01	4.399569e+02
1.410000e-06	7.300715e-06	6.707346e-09	5.100791e+01	4.409695e+02
1.420000e-06	7.368818e-06	6.720201e-09	5.148372e+01	4.419261e+02
1.430000e-06	7.434228e-06	6.732889e-09	5.194073e+01	4.428076e+02
1.440000e-06	7.496955e-06	6.746260e-09	5.237898e+01	4.436004e+02
1.450000e-06	7.557181e-06	6.759180e-09	5.279976e+01	4.442991e+02
1.460000e-06	7.614728e-06	6.771174e-09	5.320182e+01	4.449070e+02
1.470000e-06	7.669526e-06	6.781652e-09	5.358468e+01	4.454355e+02
1.480000e-06	7.721417e-06	6.791399e-09	5.394723e+01	4.459020e+02
1.490000e-06	7.770090e-06	6.799911e-09	5.428729e+01	4.463269e+02
1.500000e-06	7.815833e-06	6.807657e-09	5.460688e+01	4.467300e+02
1.510000e-06	7.858934e-06	6.814065e-09	5.490802e+01	4.471273e+02
1.520000e-06	7.899223e-06	6.821172e-09	5.518951e+01	4.475283e+02
1.530000e-06	7.936665e-06	6.829536e-09	5.545110e+01	4.479349e+02
1.540000e-06	7.971414e-06	6.836612e-09	5.569388e+01	4.483411e+02
1.550000e-06	8.003345e-06	6.842023e-09	5.591697e+01	4.487344e+02
1.560000e-06	8.032506e-06	6.846526e-09	5.612071e+01	4.490984e+02
1.570000e-06	8.058874e-06	6.851969e-09	5.630494e+01	4.494156e+02
1.580000e-06	8.082264e-06	6.856053e-09	5.646836e+01	4.496708e+02
1.590000e-06	8.102833e-06	6.858166e-09	5.661207e+01	4.498534e+02
1.600000e-06	8.120623e-06	6.859289e-09	5.673636e+01	4.499599e+02
1.610000e-06	8.135493e-06	6.861521e-09	5.684025e+01	4.499936e+02
1.620000e-06	8.147248e-06	6.865639e-09	5.692239e+01	4.499644e+02
1.630000e-06	8.155787e-06	6.869331e-09	5.698204e+01	4.498869e+02
1.640000e-06	8.161404e-06	6.871344e-09	5.702129e+01	4.497775e+02
1.650000e-06	8.164282e-06	6.872492e-09	5.704139e+01	4.496513e+02
1.660000e-06	8.164297e-06	6.872172e-09	5.704150e+01	4.495198e+02
1.670000e-06	8.161598e-06	6.867304e-09	5.702264e+01	4.493881e+02
1.680000e-06	8.156191e-06	6.861959e-09	5.698487e+01	4.492545e+02
1.690000e-06	8.147970e-06	6.856425e-09	5.692743e+01	4.491104e+02
1.700000e-06	8.137045e-06	6.852991e-09	5.685110e+01	4.489418e+02
1.710000e-06	8.123243e-06	6.850531e-09	5.675467e+01	4.487321e+02
1.720000e-06	8.106690e-06	6.845473e-09	5.663902e+01	4.484647e+02
1.730000e-06	8.087787e-06	6.836062e-09	5.650694e+01	4.481266e+02
1.740000e-06	8.066426e-06	6.784595e-09	5.635771e+01	4.477104e+02
1.750000e-06	8.041905e-06	6.765641e-09	5.618638e+01	4.472162e+02
1.760000e-06	8.013580e-06	6.782646e-09	5.598848e+01	4.466521e+02
1.770000e-06	7.981750e-06	6.799876e-09	5.576610e+01	4.460327e+02
1.780000e-06	7.947325e-06	6.804039e-09	5.552558e+01	4.453773e+02
1.790000e-06	7.910642e-06	6.797067e-09	5.526929e+01	4.447066e+02
1.800000e-06	7.871598e-06	6.787722e-09	5.499650e+01	4.440395e+02
1.810000e-06	7.830433e-06	6.735845e-09	5.470889e+01	4.433897e+02
1.820000e-06	7.786836e-06	6.765475e-09	5.440429e+01	4.427630e+02
1.830000e-06	7.740386e-06	6.754587e-09	5.407976e+01	4.421568e+02
1.840000e-06	7.691225e-06	6.731860e-09	5.373629e+01	4.415595e+02
1.850000e-06	7.639040e-06	6.757102e-09	5.337169e+01	4.409524e+02
1.860000e-06	7.583828e-06	6.727282e-09	5.298593e+01	4.403124e+02
1.870000e-06	7.525907e-06	6.734347e-09	5.258126e+01	4.396154e+02
1.880000e-06	7.465234e-06	6.682065e-09	5.215736e+01	4.388400e+02
1.890000e-06	7.401906e-06	6.683845e-09	5.171490e+01	4.379708e+02
1.900000e-06	7.335848e-06	6.696463e-09	5.125337e+01	4.370004e+02
1.910000e-06	7.266903e-06	6.635250e-09	5.077168e+01	4.359305e+02
1.920000e-06	7.195146e-06	6.643693e-09	5.027033e+01	4.347713e+02
1.930000e-06	7.120787e-06	6.617796e-09	4.975081e+01	4.335393e+02
1.940000e-06	7.043679e-06	6.606861e-09	4.921208e+01	4.322545e+02
1.950000e-06	6.963729e-06	6.562415e-09	4.865349e+01	4.309363e+02
1.960000e-06	6.881425e-06	6.559001e-09	4.807846e+01	4.296003e+02
1.970000e-06	6.796638e-06	6.557838e-09	4.748607e+01	4.282549e+02
1.980000e-06	6.709184e-06	6.500355e-09	4.687506e+01	4.268997e+02
1.990000e-06	6.619420e-06	6.504267e-09	4.624791e+01	4.255251e+02
2.000000e-06	6.527504e-06	6.481183e-09	4.560572e+01	4.241137e+02
2.010000e-06	6.433294e-06	6.462426e-09	4.494750e+01	4.226426e+02
2.020000e-06	6.336676e-06	6.412787e-09	4.427246e+01	4.210873e+02
2.030000e-06	6.237932e-06	6.405895e-09	4.358256e+01	4.194254e+02
2.040000e-06	6.136999e-06	6.380514e-09	4.287738e+01	4.176404e+02
2.050000e-06	6.033655e-06	6.328214e-09	4.215534e+01	4.157244e+02
2.060000e-06	5.928113e-06	6.301888e-09	4.141795e+01	4.136795e+02
2.070000e-06	5.820677e-06	6.279341e-09	4.066733e+01	4.115170e+02
2.080000e-06	5.711169e-06	6.248949e-09	3.990223e+01	4.092559e+02
2.090000e-06	5.599444e-06	6.192890e-09	3.912164e+01	4.069191e+02
2.100000e-06	5.485689e-06	6.174826e-09	3.832687e+01	4.045295e+02
2.110000e-06	5.369754e-06	6.144595e-09	3.751686e+01	4.021056e+02
2.120000e-06	5.251625e-06	6.105618e-09	3.669153e+01	3.996575e+02
2.130000e-06	5.131511e-06	6.059187e-09	3.585233e+01	3.971849e+02
2.140000e-06	5.009583e-06	6.025928e-09	3.500046e+01	3.946759e+02
2.150000e-06	4.885862e-06	5.981069e-09	3.413605e+01	3.921082e+02
2.160000e-06	4.760299e-06	5.932396e-09	3.325878e+01	3.894520e+02
2.170000e-06	4.633057e-06	5.894302e-09	3.236978e+01	3.866736e+02
2.180000e-06	4.504234e-06	5.848688e-09	3.146973e+01	3.837408e+02
2.190000e-06	4.373869e-06	5.793506e-09	3.055891e+01	3.806268e+02
2.200000e-06	4.242005e-06	5.739427e-09	2.963762e+01	3.773139e+02
2.210000e-06	4.108481e-06	5.698189e-09	2.870473e+01	3.737956e+02
2.220000e-06	3.973406e-06	5.643212e-09	2.776100e+01	3.700763e+02
2.230000e-06	3.837004e-06	5.579230e-09	2.680800e+01	3.661695e+02
2.240000e-06	3.699224e-06	5.517964e-09	2.584537e+01	3.620933e+02
2.250000e-06	3.560025e-06	5.461799e-09	2.487283e+01	3.578657e+02
2.260000e-06	3.419349e-06	5.395305e-09	2.388997e+01	3.534992e+02
2.270000e-06	3.277325e-06	5.324534e-09	2.289769e+01	3.489954e+02
2.280000e-06	3.134172e-06	5.254392e-09	2.189752e+01	3.443423e+02
2.290000e-06	2.989900e-06	5.179073e-09	2.088953e+01	3.395123e+02
2.300000e-06	2.844501e-06	5.095880e-09	1.987368e+01	3.344636e+02
2.310000e-06	2.698182e-06	5.014183e-09	1.885139e+01	3.291435e+02
2.320000e-06	2.551042e-06	4.932000e-09	1.782337e+01	3.234936e+02
2.330000e-06	2.402996e-06	4.836800e-09	1.678901e+01	3.174556e+02
2.340000e-06	2.253995e-06	4.732961e-09	1.574799e+01	3.109775e+02
2.350000e-06	2.104072e-06	4.631474e-09	1.470052e+01	3.040177e+02
2.360000e-06	1.953342e-06	4.524579e-09	1.364742e+01	2.965472e+02
2.370000e-06	1.801927e-06	4.402935e-09	1.258952e+01	2.885482e+02
2.380000e-06	1.649949e-06	4.272777e-09	1.152770e+01	2.800101e+02
2.390000e-06	1.497481e-06	4.139619e-09	1.046245e+01	2.709217e+02
2.400000e-06	1.344548e-06	3.995291e-09	9.393957e+00	2.612617e+02
2.410000e-06	1.191145e-06	3.838304e-09	8.322170e+00	2.509890e+02
2.420000e-06	1.037369e-06	3.671211e-09	7.247785e+00	2.400328e+02
2.430000e-06	8.832455e-07	3.489416e-09	6.170972e+00	2.282872e+02
2.440000e-06	7.287377e-07	3.291082e-09	5.091472e+00	2.156087e+02
2.450000e-06	5.739840e-07	3.075733e-09	4.010254e+00	2.018204e+02
2.460000e-06	4.190867e-07	2.844336e-09	2.928034e+00	1.867218e+02
2.470000e-06	2.639940e-07	2.591491e-09	1.844447e+00	1.701046e+02
2.480000e-06	1.087409e-07	2.313174e-09	7.597398e-01	1.517732e+02
2.490000e-06	-4.653038e-08	2.008829e-09	-3.250938e-01	1.315680e+02
2.500000e-06	-2.017042e-07	1.677894e-09	-1.409247e+00	1.093892e+02
2.510000e-06	-3.567777e-07	1.315489e-09	-2.492699e+00	8.521823e+01
2.520000e-06	-5.117178e-07	9.224621e-10	-3.575219e+00	5.913441e+01
2.530000e-06	-6.664923e-07	5.048339e-10	-4.656582e+00	3.132389e+01
2.540000e-06	-8.210233e-07	6.271584e-11	-5.736244e+00	2.079980e+00
2.550000e-06	-9.752198e-07	-3.983731e-10	-6.813569e+00	-2.820623e+01
2.560000e-06	-1.129078e-06	-8.719455e-10	-7.888532e+00	-5.906459e+01
2.570000e-06	-1.282524e-06	-1.348416e-09	-8.960611e+00	-8.997241e+01
2.580000e-06	-1.435446e-06	-1.818384e-09	-1.002903e+01	-1.203867e+02
2.590000e-06	-1.587880e-06	-2.272860e-09	-1.109404e+01	-1.497788e+02
2.600000e-06	-1.739824e-06	-2.703874e-09	-1.215563e+01	-1.776686e+02
2.610000e-06	-1.891160e-06	-3.105818e-09	-1.321297e+01	-2.036545e+02
2.620000e-06	-2.041873e-06	-3.470835e-09	-1.426595e+01	-2.274363e+02
2.630000e-06	-2.191875e-06	-3.794488e-09	-1.531398e+01	-2.488302e+02
2.640000e-06	-2.340999e-06	-4.076599e-09	-1.635586e+01	-2.677722e+02
2.650000e-06	-2.489178e-06	-4.321132e-09	-1.739114e+01	-2.843128e+02
2.660000e-06	-2.636432e-06	-4.533092e-09	-1.841996e+01	-2.986017e+02
2.670000e-06	-2.782817e-06	-4.717950e-09	-1.944271e+01	-3.108658e+02
2.680000e-06	-2.928240e-06	-4.877482e-09	-2.045874e+01	-3.213829e+02
2.690000e-06	-3.072609e-06	-5.019057e-09	-2.146740e+01	-3.304535e+02
2.700000e-06	-3.215905e-06	-5.147978e-09	-2.246857e+01	-3.383742e+02
2.710000e-06	-3.357982e-06	-5.262747e-09	-2.346122e+01	-3.454154e+02
2.720000e-06	-3.498709e-06	-5.364040e-09	-2.444443e+01	-3.518044e+02
2.730000e-06	-3.638048e-06	-5.456587e-09	-2.541795e+01	-3.577161e+02
2.740000e-06	-3.775985e-06	-5.545065e-09	-2.638168e+01	-3.632702e+02
2.750000e-06	-3.912516e-06	-5.624710e-09	-2.733558e+01	-3.685358e+02
2.760000e-06	-4.047709e-06	-5.696569e-09	-2.828013e+01	-3.735401e+02
2.770000e-06	-4.181440e-06	-5.764992e-09	-2.921447e+01	-3.782811e+02
2.780000e-06	-4.313551e-06	-5.830772e-09	-3.013749e+01	-3.827408e+02
2.790000e-06	-4.444156e-06	-5.891747e-09	-3.104999e+01	-3.868984e+02
2.800000e-06	-4.573324e-06	-5.947804e-09	-3.195244e+01	-3.907404e+02
2.810000e-06	-4.700954e-06	-5.999615e-09	-3.284416e+01	-3.942672e+02
2.820000e-06	-4.826905e-06	-6.051506e-09	-3.372414e+01	-3.974959e+02
2.830000e-06	-4.951088e-06	-6.102569e-09	-3.459177e+01	-4.004594e+02
2.840000e-06	-5.073540e-06	-6.150589e-09	-3.544730e+01	-4.032019e+02
2.850000e-06	-5.194223e-06	-6.196354e-09	-3.629048e+01	-4.057728e+02
2.860000e-06	-5.312968e-06	-6.238944e-09	-3.712012e+01	-4.082197e+02
2.870000e-06	-5.429512e-06	-6.280714e-09	-3.793437e+01	-4.105823e+02
2.880000e-06	-5.543800e-06	-6.318143e-09	-3.873287e+01	-4.128875e+02
2.890000e-06	-5.655924e-06	-6.353751e-09	-3.951625e+01	-4.151472e+02
2.900000e-06	-5.765913e-06	-6.386637e-09	-4.028471e+01	-4.173586e+02
2.910000e-06	-5.873948e-06	-6.417358e-09	-4.103952e+01	-4.195066e+02
2.920000e-06	-5.980086e-06	-6.447521e-09	-4.178107e+01	-4.215687e+02
2.930000e-06	-6.084195e-06	-6.475289e-09	-4.250845e+01	-4.235200e+02
2.940000e-06	-6.186031e-06	-6.501226e-09	-4.321994e+01	-4.253391e+02
