# Temperatura_=_20.0
# Concentracion g/m^3_=_9000.0
# C_Vs_to_Am_M_A/Vsm_=_65563218390.804596
# pendiente_HvsI_1/m_=_3716.3
# ordenada_HvsI_A/m_=_1297.0
# frecuencia_Hz_=_301289.6220601528

Tiempo_(s)	Campo_(V.s)	Magnetizacion_(V.s)	Campo_(kA/m)	Magnetizacion_(A/m)
0.000000e+00	-8.026853e-06	-6.875661e-09	-5.698335e+01	-4.509038e+02
1.000000e-08	-8.024348e-06	-6.875238e-09	-5.696556e+01	-4.507957e+02
2.000000e-08	-8.019153e-06	-6.874153e-09	-5.692868e+01	-4.506900e+02
3.000000e-08	-8.011391e-06	-6.871106e-09	-5.687358e+01	-4.505812e+02
4.000000e-08	-8.000804e-06	-6.868366e-09	-5.679843e+01	-4.504576e+02
5.000000e-08	-7.987302e-06	-6.866143e-09	-5.670257e+01	-4.503024e+02
6.000000e-08	-7.970965e-06	-6.862906e-09	-5.658659e+01	-4.500970e+02
7.000000e-08	-7.952136e-06	-6.858553e-09	-5.645293e+01	-4.498236e+02
8.000000e-08	-7.931037e-06	-6.858118e-09	-5.630314e+01	-4.494684e+02
9.000000e-08	-7.907154e-06	-6.866917e-09	-5.613360e+01	-4.490235e+02
1.000000e-07	-7.880083e-06	-6.874360e-09	-5.594141e+01	-4.484887e+02
1.100000e-07	-7.849937e-06	-6.859508e-09	-5.572740e+01	-4.478712e+02
1.200000e-07	-7.816859e-06	-6.828447e-09	-5.549258e+01	-4.471849e+02
1.300000e-07	-7.781035e-06	-6.808515e-09	-5.523827e+01	-4.464477e+02
1.400000e-07	-7.742856e-06	-6.796969e-09	-5.496723e+01	-4.456794e+02
1.500000e-07	-7.702523e-06	-6.781789e-09	-5.468090e+01	-4.448977e+02
1.600000e-07	-7.659680e-06	-6.787434e-09	-5.437676e+01	-4.441163e+02
1.700000e-07	-7.614023e-06	-6.770660e-09	-5.405263e+01	-4.433422e+02
1.800000e-07	-7.565705e-06	-6.752983e-09	-5.370962e+01	-4.425747e+02
1.900000e-07	-7.514438e-06	-6.750513e-09	-5.334567e+01	-4.418061e+02
2.000000e-07	-7.460107e-06	-6.734275e-09	-5.295996e+01	-4.410227e+02
2.100000e-07	-7.403016e-06	-6.728038e-09	-5.255468e+01	-4.402069e+02
2.200000e-07	-7.343320e-06	-6.708114e-09	-5.213089e+01	-4.393407e+02
2.300000e-07	-7.281087e-06	-6.685733e-09	-5.168909e+01	-4.384081e+02
2.400000e-07	-7.216177e-06	-6.674327e-09	-5.122829e+01	-4.373976e+02
2.500000e-07	-7.148568e-06	-6.662130e-09	-5.074832e+01	-4.363042e+02
2.600000e-07	-7.078338e-06	-6.645021e-09	-5.024976e+01	-4.351296e+02
2.700000e-07	-7.005400e-06	-6.627517e-09	-4.973197e+01	-4.338815e+02
2.800000e-07	-6.929735e-06	-6.605401e-09	-4.919481e+01	-4.325719e+02
2.900000e-07	-6.851396e-06	-6.585168e-09	-4.863867e+01	-4.312147e+02
3.000000e-07	-6.770444e-06	-6.572290e-09	-4.806399e+01	-4.298224e+02
3.100000e-07	-6.687093e-06	-6.551738e-09	-4.747227e+01	-4.284040e+02
3.200000e-07	-6.601552e-06	-6.518240e-09	-4.686501e+01	-4.269626e+02
3.300000e-07	-6.513781e-06	-6.499319e-09	-4.624192e+01	-4.254942e+02
3.400000e-07	-6.423617e-06	-6.482840e-09	-4.560183e+01	-4.239883e+02
3.500000e-07	-6.331118e-06	-6.453280e-09	-4.494517e+01	-4.224291e+02
3.600000e-07	-6.236404e-06	-6.422515e-09	-4.427279e+01	-4.207976e+02
3.700000e-07	-6.139463e-06	-6.395326e-09	-4.358460e+01	-4.190749e+02
3.800000e-07	-6.040217e-06	-6.369063e-09	-4.288004e+01	-4.172448e+02
3.900000e-07	-5.938766e-06	-6.339590e-09	-4.215983e+01	-4.152970e+02
4.000000e-07	-5.835268e-06	-6.312246e-09	-4.142509e+01	-4.132279e+02
4.100000e-07	-5.729681e-06	-6.277155e-09	-4.067552e+01	-4.110418e+02
4.200000e-07	-5.621986e-06	-6.239221e-09	-3.991098e+01	-4.087500e+02
4.300000e-07	-5.512281e-06	-6.204306e-09	-3.913218e+01	-4.063680e+02
4.400000e-07	-5.400596e-06	-6.172489e-09	-3.833932e+01	-4.039136e+02
4.500000e-07	-5.286805e-06	-6.133230e-09	-3.753151e+01	-4.014027e+02
4.600000e-07	-5.170869e-06	-6.087649e-09	-3.670846e+01	-3.988467e+02
4.700000e-07	-5.052924e-06	-6.049272e-09	-3.587116e+01	-3.962495e+02
4.800000e-07	-4.933124e-06	-6.011792e-09	-3.502069e+01	-3.936064e+02
4.900000e-07	-4.811690e-06	-5.969324e-09	-3.415862e+01	-3.909042e+02
5.000000e-07	-4.688567e-06	-5.923500e-09	-3.328456e+01	-3.881224e+02
5.100000e-07	-4.563677e-06	-5.878639e-09	-3.239795e+01	-3.852362e+02
5.200000e-07	-4.437148e-06	-5.829578e-09	-3.149971e+01	-3.822192e+02
5.300000e-07	-4.309044e-06	-5.778733e-09	-3.059029e+01	-3.790477e+02
5.400000e-07	-4.179448e-06	-5.728776e-09	-2.967028e+01	-3.757034e+02
5.500000e-07	-4.048239e-06	-5.676882e-09	-2.873881e+01	-3.721754e+02
5.600000e-07	-3.915568e-06	-5.620388e-09	-2.779697e+01	-3.684610e+02
5.700000e-07	-3.781555e-06	-5.562493e-09	-2.684560e+01	-3.645649e+02
5.800000e-07	-3.646120e-06	-5.504707e-09	-2.588413e+01	-3.604962e+02
5.900000e-07	-3.509404e-06	-5.441297e-09	-2.491357e+01	-3.562654e+02
6.000000e-07	-3.371419e-06	-5.372528e-09	-2.393401e+01	-3.518800e+02
6.100000e-07	-3.232015e-06	-5.301042e-09	-2.294437e+01	-3.473403e+02
6.200000e-07	-3.091252e-06	-5.229163e-09	-2.194508e+01	-3.426369e+02
6.300000e-07	-2.949289e-06	-5.150006e-09	-2.093727e+01	-3.377481e+02
6.400000e-07	-2.806210e-06	-5.066998e-09	-1.992154e+01	-3.326411e+02
6.500000e-07	-2.662067e-06	-4.983732e-09	-1.889825e+01	-3.272729e+02
6.600000e-07	-2.516924e-06	-4.895444e-09	-1.786787e+01	-3.215944e+02
6.700000e-07	-2.370895e-06	-4.800333e-09	-1.683120e+01	-3.155547e+02
6.800000e-07	-2.224063e-06	-4.702434e-09	-1.578882e+01	-3.091057e+02
6.900000e-07	-2.076490e-06	-4.600264e-09	-1.474119e+01	-3.022053e+02
7.000000e-07	-1.928196e-06	-4.486183e-09	-1.368844e+01	-2.948202e+02
7.100000e-07	-1.779293e-06	-4.364719e-09	-1.263136e+01	-2.869249e+02
7.200000e-07	-1.629827e-06	-4.238944e-09	-1.157029e+01	-2.784992e+02
7.300000e-07	-1.479791e-06	-4.104692e-09	-1.050517e+01	-2.695227e+02
7.400000e-07	-1.329233e-06	-3.958279e-09	-9.436343e+00	-2.599674e+02
7.500000e-07	-1.178215e-06	-3.803624e-09	-8.364251e+00	-2.497900e+02
7.600000e-07	-1.026793e-06	-3.640340e-09	-7.289296e+00	-2.389243e+02
7.700000e-07	-8.749559e-07	-3.463410e-09	-6.211390e+00	-2.272756e+02
7.800000e-07	-7.228157e-07	-3.268530e-09	-5.131334e+00	-2.147188e+02
7.900000e-07	-5.704336e-07	-3.053840e-09	-4.049560e+00	-2.011010e+02
8.000000e-07	-4.177633e-07	-2.820662e-09	-2.965739e+00	-1.862488e+02
8.100000e-07	-2.649017e-07	-2.567804e-09	-1.880561e+00	-1.699810e+02
8.200000e-07	-1.119819e-07	-2.291996e-09	-7.949695e-01	-1.521251e+02
8.300000e-07	4.092585e-08	-1.990044e-09	2.905363e-01	-1.325376e+02
8.400000e-07	1.937812e-07	-1.662541e-09	1.375670e+00	-1.111240e+02
8.500000e-07	3.465337e-07	-1.308225e-09	2.460074e+00	-8.785816e+01
8.600000e-07	4.991726e-07	-9.295990e-10	3.543671e+00	-6.279789e+01
8.700000e-07	6.516599e-07	-5.276911e-10	4.626192e+00	-3.609462e+01
8.800000e-07	8.039121e-07	-1.043139e-10	5.707044e+00	-7.995626e+00
8.900000e-07	9.558027e-07	3.386800e-10	6.785329e+00	2.116189e+01
9.000000e-07	1.107283e-06	7.966562e-10	7.860700e+00	5.096506e+01
9.100000e-07	1.258421e-06	1.256596e-09	8.933640e+00	8.094695e+01
9.200000e-07	1.409166e-06	1.712377e-09	1.000380e+01	1.106137e+02
9.300000e-07	1.559374e-06	2.156638e-09	1.107013e+01	1.394748e+02
9.400000e-07	1.709004e-06	2.582772e-09	1.213237e+01	1.670739e+02
9.500000e-07	1.858068e-06	2.982620e-09	1.319059e+01	1.930165e+02
9.600000e-07	2.006513e-06	3.348404e-09	1.424442e+01	2.169934e+02
9.700000e-07	2.154273e-06	3.677591e-09	1.529337e+01	2.387958e+02
9.800000e-07	2.301195e-06	3.968142e-09	1.633639e+01	2.583225e+02
9.900000e-07	2.447235e-06	4.221909e-09	1.737314e+01	2.755779e+02
1.000000e-06	2.592455e-06	4.442044e-09	1.840407e+01	2.906617e+02
1.010000e-06	2.736737e-06	4.634893e-09	1.942834e+01	3.037511e+02
1.020000e-06	2.880022e-06	4.805131e-09	2.044554e+01	3.150791e+02
1.030000e-06	3.022261e-06	4.958397e-09	2.145530e+01	3.249097e+02
1.040000e-06	3.163364e-06	5.098867e-09	2.245700e+01	3.335136e+02
1.050000e-06	3.303187e-06	5.222771e-09	2.344962e+01	3.411465e+02
1.060000e-06	3.441603e-06	5.331790e-09	2.443225e+01	3.480323e+02
1.070000e-06	3.578745e-06	5.430113e-09	2.540583e+01	3.543518e+02
1.080000e-06	3.714608e-06	5.521139e-09	2.637034e+01	3.602378e+02
1.090000e-06	3.849076e-06	5.604218e-09	2.732494e+01	3.657765e+02
1.100000e-06	3.982228e-06	5.679827e-09	2.827019e+01	3.710137e+02
1.110000e-06	4.114052e-06	5.750456e-09	2.920603e+01	3.759643e+02
1.120000e-06	4.244287e-06	5.816488e-09	3.013058e+01	3.806244e+02
1.130000e-06	4.372932e-06	5.879642e-09	3.104383e+01	3.849821e+02
1.140000e-06	4.500124e-06	5.939246e-09	3.194678e+01	3.890279e+02
1.150000e-06	4.625760e-06	5.994462e-09	3.283869e+01	3.927619e+02
1.160000e-06	4.749835e-06	6.046202e-09	3.371951e+01	3.961976e+02
1.170000e-06	4.872203e-06	6.096411e-09	3.458821e+01	3.993618e+02
1.180000e-06	4.992752e-06	6.142363e-09	3.544399e+01	4.022928e+02
1.190000e-06	5.111568e-06	6.182537e-09	3.628748e+01	4.050347e+02
1.200000e-06	5.228485e-06	6.220007e-09	3.711748e+01	4.076323e+02
1.210000e-06	5.343343e-06	6.256606e-09	3.793287e+01	4.101247e+02
1.220000e-06	5.456112e-06	6.292262e-09	3.873342e+01	4.125410e+02
1.230000e-06	5.566803e-06	6.325406e-09	3.951923e+01	4.148972e+02
1.240000e-06	5.675582e-06	6.357309e-09	4.029146e+01	4.171959e+02
1.250000e-06	5.782410e-06	6.388543e-09	4.104985e+01	4.194276e+02
1.260000e-06	5.887077e-06	6.418472e-09	4.179289e+01	4.215746e+02
1.270000e-06	5.989610e-06	6.446204e-09	4.252078e+01	4.236151e+02
1.280000e-06	6.090097e-06	6.471846e-09	4.323415e+01	4.255284e+02
1.290000e-06	6.188333e-06	6.497239e-09	4.393153e+01	4.272996e+02
1.300000e-06	6.284177e-06	6.520675e-09	4.461193e+01	4.289224e+02
1.310000e-06	6.377806e-06	6.541377e-09	4.527661e+01	4.304009e+02
1.320000e-06	6.469292e-06	6.562073e-09	4.592608e+01	4.317494e+02
1.330000e-06	6.558514e-06	6.581990e-09	4.655948e+01	4.329900e+02
1.340000e-06	6.645369e-06	6.601207e-09	4.717607e+01	4.341498e+02
1.350000e-06	6.729987e-06	6.620989e-09	4.777678e+01	4.352561e+02
1.360000e-06	6.812302e-06	6.639612e-09	4.836114e+01	4.363334e+02
1.370000e-06	6.892103e-06	6.656691e-09	4.892766e+01	4.373990e+02
1.380000e-06	6.969426e-06	6.672900e-09	4.947658e+01	4.384618e+02
1.390000e-06	7.044125e-06	6.688135e-09	5.000687e+01	4.395210e+02
1.400000e-06	7.116149e-06	6.701861e-09	5.051818e+01	4.405675e+02
1.410000e-06	7.185691e-06	6.716160e-09	5.101187e+01	4.415859e+02
1.420000e-06	7.252682e-06	6.731026e-09	5.148744e+01	4.425580e+02
1.430000e-06	7.317053e-06	6.744878e-09	5.194442e+01	4.434661e+02
1.440000e-06	7.378911e-06	6.757612e-09	5.238355e+01	4.442964e+02
1.450000e-06	7.438269e-06	6.769780e-09	5.280494e+01	4.450416e+02
1.460000e-06	7.494959e-06	6.781752e-09	5.320739e+01	4.457020e+02
1.470000e-06	7.548872e-06	6.791942e-09	5.359012e+01	4.462854e+02
1.480000e-06	7.599772e-06	6.800472e-09	5.395146e+01	4.468056e+02
1.490000e-06	7.647618e-06	6.808584e-09	5.429113e+01	4.472803e+02
1.500000e-06	7.692708e-06	6.817484e-09	5.461122e+01	4.477277e+02
1.510000e-06	7.735077e-06	6.826253e-09	5.491200e+01	4.481633e+02
1.520000e-06	7.774649e-06	6.834697e-09	5.519293e+01	4.485978e+02
1.530000e-06	7.811502e-06	6.843093e-09	5.545455e+01	4.490349e+02
1.540000e-06	7.845651e-06	6.850819e-09	5.569698e+01	4.494709e+02
1.550000e-06	7.877013e-06	6.856196e-09	5.591962e+01	4.498960e+02
1.560000e-06	7.905690e-06	6.859608e-09	5.612320e+01	4.502954e+02
1.570000e-06	7.931599e-06	6.862440e-09	5.630713e+01	4.506525e+02
1.580000e-06	7.954568e-06	6.866082e-09	5.647019e+01	4.509518e+02
1.590000e-06	7.974807e-06	6.871217e-09	5.661387e+01	4.511814e+02
1.600000e-06	7.992293e-06	6.875305e-09	5.673800e+01	4.513355e+02
1.610000e-06	8.006859e-06	6.879139e-09	5.684141e+01	4.514150e+02
1.620000e-06	8.018400e-06	6.883217e-09	5.692334e+01	4.514275e+02
1.630000e-06	8.026793e-06	6.887199e-09	5.698292e+01	4.513862e+02
1.640000e-06	8.032272e-06	6.889473e-09	5.702182e+01	4.513070e+02
1.650000e-06	8.035036e-06	6.889316e-09	5.704144e+01	4.512064e+02
1.660000e-06	8.035044e-06	6.888332e-09	5.704150e+01	4.510979e+02
1.670000e-06	8.032383e-06	6.885427e-09	5.702261e+01	4.509899e+02
1.680000e-06	8.027076e-06	6.881509e-09	5.698493e+01	4.508841e+02
1.690000e-06	8.019052e-06	6.878042e-09	5.692797e+01	4.507750e+02
1.700000e-06	8.008353e-06	6.875484e-09	5.685201e+01	4.506505e+02
1.710000e-06	7.994892e-06	6.873148e-09	5.675646e+01	4.504938e+02
1.720000e-06	7.978690e-06	6.869283e-09	5.664143e+01	4.502862e+02
1.730000e-06	7.960021e-06	6.862793e-09	5.650890e+01	4.500101e+02
1.740000e-06	7.938938e-06	6.842751e-09	5.635923e+01	4.496517e+02
1.750000e-06	7.914825e-06	6.812443e-09	5.618805e+01	4.492035e+02
1.760000e-06	7.887057e-06	6.801507e-09	5.599093e+01	4.486655e+02
1.770000e-06	7.855793e-06	6.817344e-09	5.576898e+01	4.480453e+02
1.780000e-06	7.821875e-06	6.828128e-09	5.552819e+01	4.473567e+02
1.790000e-06	7.785771e-06	6.827630e-09	5.527189e+01	4.466181e+02
1.800000e-06	7.747324e-06	6.814057e-09	5.499895e+01	4.458489e+02
1.810000e-06	7.706760e-06	6.776280e-09	5.471098e+01	4.450671e+02
1.820000e-06	7.663848e-06	6.764445e-09	5.440634e+01	4.442858e+02
1.830000e-06	7.618147e-06	6.750101e-09	5.408191e+01	4.435119e+02
1.840000e-06	7.569771e-06	6.750384e-09	5.373848e+01	4.427445e+02
1.850000e-06	7.518507e-06	6.747827e-09	5.337455e+01	4.419756e+02
1.860000e-06	7.464285e-06	6.708081e-09	5.298963e+01	4.411912e+02
1.870000e-06	7.407269e-06	6.703671e-09	5.258487e+01	4.403739e+02
1.880000e-06	7.347571e-06	6.701128e-09	5.216107e+01	4.395056e+02
1.890000e-06	7.285295e-06	6.684662e-09	5.171896e+01	4.385703e+02
1.900000e-06	7.220245e-06	6.666620e-09	5.125717e+01	4.375568e+02
1.910000e-06	7.152439e-06	6.641038e-09	5.077580e+01	4.364605e+02
1.920000e-06	7.081914e-06	6.623489e-09	5.027514e+01	4.352830e+02
1.930000e-06	7.008705e-06	6.615818e-09	4.975542e+01	4.340324e+02
1.940000e-06	6.932833e-06	6.597313e-09	4.921680e+01	4.327209e+02
1.950000e-06	6.854171e-06	6.569197e-09	4.865837e+01	4.313621e+02
1.960000e-06	6.773050e-06	6.543876e-09	4.808249e+01	4.299687e+02
1.970000e-06	6.689565e-06	6.531434e-09	4.748982e+01	4.285495e+02
1.980000e-06	6.603634e-06	6.508078e-09	4.687979e+01	4.271071e+02
1.990000e-06	6.515337e-06	6.481682e-09	4.625296e+01	4.256376e+02
2.000000e-06	6.424749e-06	6.461658e-09	4.560987e+01	4.241301e+02
2.010000e-06	6.331942e-06	6.432334e-09	4.495102e+01	4.225685e+02
2.020000e-06	6.236816e-06	6.411756e-09	4.427572e+01	4.209341e+02
2.030000e-06	6.139501e-06	6.386425e-09	4.358487e+01	4.192077e+02
2.040000e-06	6.040060e-06	6.359730e-09	4.287892e+01	4.173735e+02
2.050000e-06	5.938436e-06	6.323782e-09	4.215749e+01	4.154213e+02
2.060000e-06	5.834602e-06	6.290240e-09	4.142036e+01	4.133479e+02
2.070000e-06	5.728701e-06	6.263284e-09	4.066856e+01	4.111578e+02
2.080000e-06	5.620824e-06	6.227049e-09	3.990273e+01	4.088623e+02
2.090000e-06	5.510951e-06	6.189658e-09	3.912273e+01	4.064774e+02
2.100000e-06	5.399002e-06	6.153362e-09	3.832800e+01	4.040207e+02
2.110000e-06	5.284903e-06	6.123878e-09	3.751800e+01	4.015080e+02
2.120000e-06	5.168794e-06	6.084888e-09	3.669373e+01	3.989505e+02
2.130000e-06	5.050745e-06	6.046620e-09	3.585569e+01	3.963517e+02
2.140000e-06	4.930722e-06	6.005264e-09	3.500364e+01	3.937067e+02
2.150000e-06	4.808824e-06	5.960369e-09	3.413827e+01	3.910020e+02
2.160000e-06	4.685271e-06	5.914658e-09	3.326116e+01	3.882169e+02
2.170000e-06	4.560128e-06	5.872582e-09	3.237276e+01	3.853264e+02
2.180000e-06	4.433445e-06	5.827053e-09	3.147342e+01	3.823043e+02
2.190000e-06	4.305112e-06	5.773028e-09	3.056237e+01	3.791268e+02
2.200000e-06	4.175220e-06	5.719989e-09	2.964026e+01	3.757760e+02
2.210000e-06	4.043892e-06	5.668559e-09	2.870795e+01	3.722413e+02
2.220000e-06	3.911051e-06	5.617260e-09	2.776490e+01	3.685203e+02
2.230000e-06	3.776871e-06	5.558926e-09	2.681235e+01	3.646177e+02
2.240000e-06	3.641317e-06	5.499551e-09	2.585004e+01	3.605430e+02
2.250000e-06	3.504281e-06	5.437263e-09	2.487720e+01	3.563066e+02
2.260000e-06	3.365952e-06	5.372905e-09	2.389519e+01	3.519157e+02
2.270000e-06	3.226501e-06	5.305308e-09	2.290522e+01	3.473704e+02
2.280000e-06	3.085878e-06	5.234460e-09	2.190692e+01	3.426607e+02
2.290000e-06	2.944088e-06	5.157511e-09	2.090034e+01	3.377648e+02
2.300000e-06	2.801136e-06	5.074677e-09	1.988552e+01	3.326491e+02
2.310000e-06	2.657042e-06	4.992111e-09	1.886258e+01	3.272706e+02
2.320000e-06	2.511952e-06	4.908534e-09	1.783257e+01	3.215801e+02
2.330000e-06	2.366033e-06	4.815349e-09	1.679668e+01	3.155265e+02
2.340000e-06	2.219324e-06	4.713866e-09	1.575518e+01	3.090620e+02
2.350000e-06	2.071789e-06	4.611254e-09	1.470781e+01	3.021448e+02
2.360000e-06	1.923459e-06	4.503821e-09	1.365481e+01	2.947418e+02
2.370000e-06	1.774410e-06	4.384906e-09	1.259669e+01	2.868279e+02
2.380000e-06	1.624813e-06	4.257002e-09	1.153469e+01	2.783828e+02
2.390000e-06	1.474811e-06	4.122059e-09	1.046982e+01	2.693861e+02
2.400000e-06	1.324421e-06	3.977159e-09	9.402180e+00	2.598095e+02
2.410000e-06	1.173570e-06	3.822925e-09	8.331280e+00	2.496088e+02
2.420000e-06	1.022176e-06	3.658427e-09	7.256520e+00	2.387168e+02
2.430000e-06	8.703063e-07	3.478852e-09	6.178383e+00	2.270379e+02
2.440000e-06	7.180562e-07	3.283181e-09	5.097545e+00	2.144460e+02
2.450000e-06	5.654969e-07	3.072705e-09	4.014513e+00	2.007872e+02
2.460000e-06	4.127208e-07	2.846142e-09	2.929942e+00	1.858875e+02
2.470000e-06	2.597483e-07	2.599682e-09	1.843976e+00	1.695657e+02
2.480000e-06	1.066940e-07	2.327087e-09	7.574301e-01	1.516502e+02
2.490000e-06	-4.637295e-08	2.027946e-09	-3.292057e-01	1.319987e+02
2.500000e-06	-1.994018e-07	1.703878e-09	-1.415571e+00	1.105189e+02
2.510000e-06	-3.523173e-07	1.353918e-09	-2.501132e+00	8.718739e+01
2.520000e-06	-5.050898e-07	9.768983e-10	-3.585678e+00	6.206522e+01
2.530000e-06	-6.576343e-07	5.736582e-10	-4.668605e+00	3.530723e+01
2.540000e-06	-8.099102e-07	1.481192e-10	-5.749625e+00	7.164083e+00
2.550000e-06	-9.618545e-07	-2.951478e-10	-6.828291e+00	-2.202404e+01
2.560000e-06	-1.113289e-06	-7.515989e-10	-7.903337e+00	-5.184193e+01
2.570000e-06	-1.264206e-06	-1.212849e-09	-8.974711e+00	-8.182119e+01
2.580000e-06	-1.414697e-06	-1.670199e-09	-1.004306e+01	-1.114675e+02
2.590000e-06	-1.564710e-06	-2.117300e-09	-1.110802e+01	-1.402912e+02
2.600000e-06	-1.714194e-06	-2.545407e-09	-1.216922e+01	-1.678375e+02
2.610000e-06	-1.863112e-06	-2.943343e-09	-1.322640e+01	-1.937147e+02
2.620000e-06	-2.011412e-06	-3.307886e-09	-1.427919e+01	-2.176170e+02
2.630000e-06	-2.158988e-06	-3.638214e-09	-1.532685e+01	-2.393392e+02
2.640000e-06	-2.305744e-06	-3.932331e-09	-1.636868e+01	-2.587842e+02
2.650000e-06	-2.451731e-06	-4.188212e-09	-1.740506e+01	-2.759599e+02
2.660000e-06	-2.596964e-06	-4.409288e-09	-1.843608e+01	-2.909690e+02
2.670000e-06	-2.741242e-06	-4.605189e-09	-1.946032e+01	-3.039913e+02
2.680000e-06	-2.884377e-06	-4.778115e-09	-2.047645e+01	-3.152612e+02
2.690000e-06	-3.026327e-06	-4.931565e-09	-2.148417e+01	-3.250434e+02
2.700000e-06	-3.167090e-06	-5.068204e-09	-2.248346e+01	-3.336084e+02
2.710000e-06	-3.306667e-06	-5.190258e-09	-2.347432e+01	-3.412111e+02
2.720000e-06	-3.445040e-06	-5.299392e-09	-2.445665e+01	-3.480739e+02
2.730000e-06	-3.582221e-06	-5.399501e-09	-2.543051e+01	-3.543759e+02
2.740000e-06	-3.718015e-06	-5.491826e-09	-2.639453e+01	-3.602483e+02
2.750000e-06	-3.852333e-06	-5.572931e-09	-2.734806e+01	-3.657757e+02
2.760000e-06	-3.985316e-06	-5.646783e-09	-2.829212e+01	-3.710026e+02
2.770000e-06	-4.116939e-06	-5.719163e-09	-2.922652e+01	-3.759431e+02
2.780000e-06	-4.247171e-06	-5.790613e-09	-3.015105e+01	-3.805926e+02
2.790000e-06	-4.375993e-06	-5.855734e-09	-3.106557e+01	-3.849393e+02
2.800000e-06	-4.503184e-06	-5.914536e-09	-3.196851e+01	-3.889740e+02
2.810000e-06	-4.628723e-06	-5.971218e-09	-3.285972e+01	-3.926971e+02
2.820000e-06	-4.752689e-06	-6.026504e-09	-3.373977e+01	-3.961225e+02
2.830000e-06	-4.874989e-06	-6.077542e-09	-3.460798e+01	-3.992778e+02
2.840000e-06	-4.995518e-06	-6.125532e-09	-3.546363e+01	-4.022013e+02
2.850000e-06	-5.114089e-06	-6.172012e-09	-3.630537e+01	-4.049374e+02
2.860000e-06	-5.230641e-06	-6.216309e-09	-3.713279e+01	-4.075306e+02
2.870000e-06	-5.345107e-06	-6.259751e-09	-3.794539e+01	-4.100199e+02
2.880000e-06	-5.457368e-06	-6.302249e-09	-3.874234e+01	-4.124339e+02
2.890000e-06	-5.567590e-06	-6.340888e-09	-3.952482e+01	-4.147881e+02
2.900000e-06	-5.675975e-06	-6.376541e-09	-4.029425e+01	-4.170847e+02
2.910000e-06	-5.782551e-06	-6.411042e-09	-4.105085e+01	-4.193138e+02
2.920000e-06	-5.887100e-06	-6.443140e-09	-4.179305e+01	-4.214574e+02
2.930000e-06	-5.989387e-06	-6.472521e-09	-4.251920e+01	-4.234937e+02
2.940000e-06	-6.089523e-06	-6.499981e-09	-4.323007e+01	-4.254022e+02
