# Temperatura_=_20.0
# Concentracion g/m^3_=_9000.0
# C_Vs_to_Am_M_A/Vsm_=_65563218390.804596
# pendiente_HvsI_1/m_=_3716.3
# ordenada_HvsI_A/m_=_1297.0
# frecuencia_Hz_=_301294.3602686893

Tiempo_(s)	Campo_(V.s)	Magnetizacion_(V.s)	Campo_(kA/m)	Magnetizacion_(A/m)
0.000000e+00	-8.147640e-06	-6.945804e-09	-5.697960e+01	-4.559648e+02
1.000000e-08	-8.145290e-06	-6.947789e-09	-5.696318e+01	-4.558519e+02
2.000000e-08	-8.140232e-06	-6.947444e-09	-5.692780e+01	-4.557415e+02
3.000000e-08	-8.132626e-06	-6.943042e-09	-5.687461e+01	-4.556261e+02
4.000000e-08	-8.122170e-06	-6.939857e-09	-5.680149e+01	-4.554919e+02
5.000000e-08	-8.108712e-06	-6.936919e-09	-5.670737e+01	-4.553203e+02
6.000000e-08	-8.092364e-06	-6.932914e-09	-5.659304e+01	-4.550914e+02
7.000000e-08	-8.073496e-06	-6.932640e-09	-5.646109e+01	-4.547869e+02
8.000000e-08	-8.052282e-06	-6.933559e-09	-5.631273e+01	-4.543938e+02
9.000000e-08	-8.028272e-06	-6.947528e-09	-5.614482e+01	-4.539063e+02
1.000000e-07	-8.001038e-06	-6.951861e-09	-5.595436e+01	-4.533268e+02
1.100000e-07	-7.970690e-06	-6.923695e-09	-5.574213e+01	-4.526661e+02
1.200000e-07	-7.937383e-06	-6.889199e-09	-5.550920e+01	-4.519416e+02
1.300000e-07	-7.901265e-06	-6.873457e-09	-5.525661e+01	-4.511744e+02
1.400000e-07	-7.862789e-06	-6.878172e-09	-5.498753e+01	-4.503863e+02
1.500000e-07	-7.822094e-06	-6.851543e-09	-5.470294e+01	-4.495964e+02
1.600000e-07	-7.778832e-06	-6.825374e-09	-5.440039e+01	-4.488178e+02
1.700000e-07	-7.732675e-06	-6.845858e-09	-5.407759e+01	-4.480558e+02
1.800000e-07	-7.683665e-06	-6.802128e-09	-5.373485e+01	-4.473071e+02
1.900000e-07	-7.631807e-06	-6.816603e-09	-5.337218e+01	-4.465604e+02
2.000000e-07	-7.576924e-06	-6.815960e-09	-5.298837e+01	-4.457983e+02
2.100000e-07	-7.519213e-06	-6.759622e-09	-5.258477e+01	-4.450000e+02
2.200000e-07	-7.458896e-06	-6.760737e-09	-5.216295e+01	-4.441452e+02
2.300000e-07	-7.395969e-06	-6.754826e-09	-5.172288e+01	-4.432164e+02
2.400000e-07	-7.330330e-06	-6.758297e-09	-5.126384e+01	-4.422023e+02
2.500000e-07	-7.261909e-06	-6.712832e-09	-5.078535e+01	-4.410989e+02
2.600000e-07	-7.190804e-06	-6.699709e-09	-5.028808e+01	-4.399101e+02
2.700000e-07	-7.116951e-06	-6.697793e-09	-4.977160e+01	-4.386461e+02
2.800000e-07	-7.040293e-06	-6.678379e-09	-4.923550e+01	-4.373215e+02
2.900000e-07	-6.960909e-06	-6.653728e-09	-4.868034e+01	-4.359520e+02
3.000000e-07	-6.879033e-06	-6.629264e-09	-4.810775e+01	-4.345515e+02
3.100000e-07	-6.794840e-06	-6.614395e-09	-4.751895e+01	-4.331287e+02
3.200000e-07	-6.708305e-06	-6.577226e-09	-4.691378e+01	-4.316857e+02
3.300000e-07	-6.619442e-06	-6.563435e-09	-4.629233e+01	-4.302166e+02
3.400000e-07	-6.528178e-06	-6.554483e-09	-4.565408e+01	-4.287085e+02
3.500000e-07	-6.434526e-06	-6.513934e-09	-4.499914e+01	-4.271430e+02
3.600000e-07	-6.338551e-06	-6.475557e-09	-4.432795e+01	-4.254994e+02
3.700000e-07	-6.240423e-06	-6.465794e-09	-4.364170e+01	-4.237578e+02
3.800000e-07	-6.140084e-06	-6.439322e-09	-4.293999e+01	-4.219025e+02
3.900000e-07	-6.037319e-06	-6.392769e-09	-4.222132e+01	-4.199244e+02
4.000000e-07	-5.932379e-06	-6.365344e-09	-4.148743e+01	-4.178229e+02
4.100000e-07	-5.825390e-06	-6.346900e-09	-4.073921e+01	-4.156055e+02
4.200000e-07	-5.716331e-06	-6.306278e-09	-3.997652e+01	-4.132866e+02
4.300000e-07	-5.605113e-06	-6.265658e-09	-3.919873e+01	-4.108846e+02
4.400000e-07	-5.491702e-06	-6.242531e-09	-3.840560e+01	-4.084187e+02
4.500000e-07	-5.376272e-06	-6.206495e-09	-3.759836e+01	-4.059047e+02
4.600000e-07	-5.258844e-06	-6.155939e-09	-3.677713e+01	-4.033518e+02
4.700000e-07	-5.139347e-06	-6.115837e-09	-3.594145e+01	-4.007603e+02
4.800000e-07	-5.017969e-06	-6.085615e-09	-3.509260e+01	-3.981203e+02
4.900000e-07	-4.894882e-06	-6.035733e-09	-3.423181e+01	-3.954128e+02
5.000000e-07	-4.770107e-06	-5.984398e-09	-3.335921e+01	-3.926118e+02
5.100000e-07	-4.643592e-06	-5.943361e-09	-3.247444e+01	-3.896879e+02
5.200000e-07	-4.515288e-06	-5.899202e-09	-3.157716e+01	-3.866121e+02
5.300000e-07	-4.385348e-06	-5.845118e-09	-3.066844e+01	-3.833602e+02
5.400000e-07	-4.253864e-06	-5.794349e-09	-2.974892e+01	-3.799161e+02
5.500000e-07	-4.120958e-06	-5.746810e-09	-2.881946e+01	-3.762736e+02
5.600000e-07	-3.986559e-06	-5.685309e-09	-2.787955e+01	-3.724363e+02
5.700000e-07	-3.850551e-06	-5.623378e-09	-2.692840e+01	-3.684161e+02
5.800000e-07	-3.713038e-06	-5.567673e-09	-2.596672e+01	-3.642294e+02
5.900000e-07	-3.574180e-06	-5.507518e-09	-2.499563e+01	-3.598927e+02
6.000000e-07	-3.433984e-06	-5.430439e-09	-2.401518e+01	-3.554170e+02
6.100000e-07	-3.292355e-06	-5.357530e-09	-2.302471e+01	-3.508039e+02
6.200000e-07	-3.149377e-06	-5.290755e-09	-2.202482e+01	-3.460419e+02
6.300000e-07	-3.005260e-06	-5.212534e-09	-2.101695e+01	-3.411047e+02
6.400000e-07	-2.860206e-06	-5.124233e-09	-2.000253e+01	-3.359528e+02
6.500000e-07	-2.714172e-06	-5.037861e-09	-1.898126e+01	-3.305357e+02
6.600000e-07	-2.567082e-06	-4.953502e-09	-1.795260e+01	-3.247972e+02
6.700000e-07	-2.419035e-06	-4.856583e-09	-1.691725e+01	-3.186807e+02
6.800000e-07	-2.270226e-06	-4.755013e-09	-1.587657e+01	-3.121350e+02
6.900000e-07	-2.120728e-06	-4.649673e-09	-1.483107e+01	-3.051187e+02
7.000000e-07	-1.970446e-06	-4.534796e-09	-1.378010e+01	-2.976017e+02
7.100000e-07	-1.819348e-06	-4.411419e-09	-1.272341e+01	-2.895651e+02
7.200000e-07	-1.667493e-06	-4.286795e-09	-1.166143e+01	-2.809963e+02
7.300000e-07	-1.515073e-06	-4.153196e-09	-1.059549e+01	-2.718827e+02
7.400000e-07	-1.362188e-06	-4.001801e-09	-9.526311e+00	-2.622023e+02
7.500000e-07	-1.208853e-06	-3.844896e-09	-8.453977e+00	-2.519137e+02
7.600000e-07	-1.055087e-06	-3.682292e-09	-7.378633e+00	-2.409475e+02
7.700000e-07	-9.009540e-07	-3.503006e-09	-6.300721e+00	-2.291997e+02
7.800000e-07	-7.465284e-07	-3.301488e-09	-5.220763e+00	-2.165297e+02
7.900000e-07	-5.918609e-07	-3.084743e-09	-4.139113e+00	-2.027636e+02
8.000000e-07	-4.370049e-07	-2.850744e-09	-3.056144e+00	-1.877035e+02
8.100000e-07	-2.820006e-07	-2.593549e-09	-1.972140e+00	-1.711426e+02
8.200000e-07	-1.268638e-07	-2.310925e-09	-8.872079e-01	-1.528848e+02
8.300000e-07	2.829279e-08	-2.001242e-09	1.978624e-01	-1.327680e+02
8.400000e-07	1.833926e-07	-1.664635e-09	1.282535e+00	-1.106873e+02
8.500000e-07	3.384523e-07	-1.300111e-09	2.366928e+00	-8.661667e+01
8.600000e-07	4.934173e-07	-9.108749e-10	3.450658e+00	-6.062602e+01
8.700000e-07	6.482311e-07	-4.959582e-10	4.533331e+00	-3.289085e+01
8.800000e-07	8.028493e-07	-5.455795e-11	5.614637e+00	-3.693597e+00
8.900000e-07	9.571652e-07	4.088975e-10	6.693828e+00	2.658468e+01
9.000000e-07	1.111047e-06	8.833058e-10	7.769981e+00	5.748193e+01
9.100000e-07	1.264535e-06	1.361021e-09	8.843383e+00	8.848077e+01
9.200000e-07	1.417648e-06	1.836440e-09	9.914162e+00	1.190400e+02
9.300000e-07	1.570348e-06	2.297084e-09	1.098205e+01	1.486290e+02
9.400000e-07	1.722586e-06	2.731703e-09	1.204671e+01	1.767619e+02
9.500000e-07	1.874234e-06	3.134560e-09	1.310724e+01	2.030284e+02
9.600000e-07	2.025028e-06	3.499422e-09	1.416180e+01	2.271175e+02
9.700000e-07	2.174889e-06	3.822118e-09	1.520984e+01	2.488328e+02
9.800000e-07	2.323927e-06	4.105475e-09	1.625213e+01	2.680985e+02
9.900000e-07	2.472115e-06	4.350860e-09	1.728846e+01	2.849539e+02
1.000000e-06	2.619420e-06	4.562387e-09	1.831862e+01	2.995398e+02
1.010000e-06	2.765818e-06	4.747357e-09	1.934244e+01	3.120772e+02
1.020000e-06	2.911273e-06	4.914060e-09	2.035966e+01	3.228410e+02
1.030000e-06	3.055774e-06	5.064586e-09	2.137022e+01	3.321317e+02
1.040000e-06	3.199155e-06	5.197230e-09	2.237293e+01	3.402488e+02
1.050000e-06	3.341238e-06	5.316781e-09	2.336657e+01	3.474673e+02
1.060000e-06	3.482006e-06	5.422870e-09	2.435102e+01	3.540204e+02
1.070000e-06	3.621415e-06	5.518337e-09	2.532596e+01	3.600887e+02
1.080000e-06	3.759518e-06	5.604347e-09	2.629176e+01	3.657971e+02
1.090000e-06	3.896300e-06	5.684038e-09	2.724833e+01	3.712183e+02
1.100000e-06	4.031545e-06	5.756951e-09	2.819416e+01	3.763817e+02
1.110000e-06	4.165243e-06	5.823745e-09	2.912916e+01	3.812853e+02
1.120000e-06	4.297454e-06	5.889665e-09	3.005376e+01	3.859100e+02
1.130000e-06	4.428175e-06	5.953158e-09	3.096794e+01	3.902322e+02
1.140000e-06	4.557417e-06	6.011976e-09	3.187178e+01	3.942353e+02
1.150000e-06	4.684986e-06	6.066053e-09	3.276393e+01	3.979165e+02
1.160000e-06	4.810846e-06	6.118062e-09	3.364411e+01	4.012906e+02
1.170000e-06	4.935067e-06	6.168828e-09	3.451284e+01	4.043888e+02
1.180000e-06	5.057599e-06	6.214961e-09	3.536975e+01	4.072551e+02
1.190000e-06	5.178378e-06	6.253929e-09	3.621441e+01	4.099399e+02
1.200000e-06	5.297232e-06	6.291154e-09	3.704560e+01	4.124930e+02
1.210000e-06	5.414102e-06	6.327846e-09	3.786292e+01	4.149565e+02
1.220000e-06	5.528956e-06	6.363002e-09	3.866613e+01	4.173602e+02
1.230000e-06	5.641628e-06	6.396227e-09	3.945409e+01	4.197183e+02
1.240000e-06	5.752158e-06	6.429095e-09	4.022707e+01	4.220297e+02
1.250000e-06	5.860692e-06	6.461209e-09	4.098609e+01	4.242800e+02
1.260000e-06	5.967201e-06	6.491454e-09	4.173095e+01	4.264461e+02
1.270000e-06	6.071557e-06	6.520175e-09	4.246076e+01	4.285019e+02
1.280000e-06	6.173702e-06	6.546438e-09	4.317509e+01	4.304237e+02
1.290000e-06	6.273645e-06	6.571873e-09	4.387403e+01	4.321954e+02
1.300000e-06	6.371266e-06	6.597310e-09	4.455673e+01	4.338120e+02
1.310000e-06	6.466530e-06	6.619184e-09	4.522296e+01	4.352803e+02
1.320000e-06	6.559550e-06	6.638868e-09	4.587348e+01	4.366188e+02
1.330000e-06	6.650320e-06	6.659241e-09	4.650827e+01	4.378543e+02
1.340000e-06	6.738691e-06	6.680332e-09	4.712628e+01	4.390182e+02
1.350000e-06	6.824648e-06	6.700225e-09	4.772741e+01	4.401412e+02
1.360000e-06	6.908280e-06	6.717672e-09	4.831228e+01	4.412491e+02
1.370000e-06	6.989496e-06	6.734489e-09	4.888026e+01	4.423590e+02
1.380000e-06	7.068173e-06	6.752404e-09	4.943047e+01	4.434771e+02
1.390000e-06	7.144269e-06	6.768703e-09	4.996264e+01	4.445987e+02
1.400000e-06	7.217656e-06	6.783860e-09	5.047587e+01	4.457094e+02
1.410000e-06	7.288374e-06	6.799069e-09	5.097042e+01	4.467884e+02
1.420000e-06	7.356597e-06	6.812284e-09	5.144754e+01	4.478123e+02
1.430000e-06	7.422226e-06	6.825925e-09	5.190650e+01	4.487595e+02
1.440000e-06	7.485181e-06	6.840756e-09	5.234677e+01	4.496138e+02
1.450000e-06	7.545585e-06	6.854315e-09	5.276921e+01	4.503674e+02
1.460000e-06	7.603354e-06	6.865220e-09	5.317321e+01	4.510217e+02
1.470000e-06	7.658346e-06	6.875811e-09	5.355779e+01	4.515874e+02
1.480000e-06	7.710363e-06	6.886671e-09	5.392156e+01	4.520820e+02
1.490000e-06	7.759212e-06	6.895575e-09	5.426318e+01	4.525274e+02
1.500000e-06	7.805136e-06	6.902965e-09	5.458434e+01	4.529456e+02
1.510000e-06	7.848372e-06	6.910709e-09	5.488671e+01	4.533554e+02
1.520000e-06	7.888788e-06	6.919761e-09	5.516935e+01	4.537694e+02
1.530000e-06	7.926393e-06	6.928682e-09	5.543234e+01	4.541920e+02
1.540000e-06	7.961332e-06	6.935347e-09	5.567668e+01	4.546194e+02
1.550000e-06	7.993483e-06	6.940274e-09	5.590153e+01	4.550399e+02
1.560000e-06	8.022796e-06	6.944768e-09	5.610653e+01	4.554372e+02
1.570000e-06	8.049277e-06	6.948143e-09	5.629172e+01	4.557925e+02
1.580000e-06	8.072828e-06	6.950637e-09	5.645642e+01	4.560886e+02
1.590000e-06	8.093570e-06	6.954904e-09	5.660147e+01	4.563126e+02
1.600000e-06	8.111517e-06	6.959895e-09	5.672699e+01	4.564583e+02
1.610000e-06	8.126500e-06	6.964021e-09	5.683177e+01	4.565271e+02
1.620000e-06	8.138462e-06	6.966910e-09	5.691542e+01	4.565278e+02
1.630000e-06	8.147317e-06	6.969857e-09	5.697735e+01	4.564747e+02
1.640000e-06	8.153199e-06	6.973376e-09	5.701848e+01	4.563850e+02
1.650000e-06	8.156267e-06	6.975359e-09	5.703994e+01	4.562759e+02
1.660000e-06	8.156490e-06	6.975154e-09	5.704150e+01	4.561611e+02
1.670000e-06	8.153990e-06	6.969871e-09	5.702401e+01	4.560483e+02
1.680000e-06	8.148795e-06	6.964765e-09	5.698769e+01	4.559378e+02
1.690000e-06	8.140837e-06	6.960650e-09	5.693203e+01	4.558220e+02
1.700000e-06	8.130204e-06	6.957564e-09	5.685767e+01	4.556868e+02
1.710000e-06	8.116728e-06	6.954363e-09	5.676342e+01	4.555134e+02
1.720000e-06	8.100412e-06	6.948724e-09	5.664932e+01	4.552820e+02
1.730000e-06	8.081664e-06	6.936858e-09	5.651821e+01	4.549745e+02
1.740000e-06	8.060513e-06	6.915269e-09	5.637029e+01	4.545780e+02
1.750000e-06	8.036265e-06	6.878775e-09	5.620072e+01	4.540870e+02
1.760000e-06	8.008269e-06	6.880096e-09	5.600493e+01	4.535044e+02
1.770000e-06	7.976764e-06	6.900804e-09	5.578460e+01	4.528411e+02
1.780000e-06	7.942578e-06	6.906532e-09	5.554553e+01	4.521146e+02
1.790000e-06	7.906107e-06	6.886269e-09	5.529048e+01	4.513462e+02
1.800000e-06	7.867257e-06	6.904374e-09	5.501878e+01	4.505577e+02
1.810000e-06	7.826299e-06	6.868837e-09	5.473234e+01	4.497680e+02
1.820000e-06	7.783034e-06	6.816616e-09	5.442978e+01	4.489899e+02
1.830000e-06	7.736927e-06	6.867561e-09	5.410733e+01	4.482284e+02
1.840000e-06	7.688022e-06	6.818247e-09	5.376532e+01	4.474800e+02
1.850000e-06	7.636109e-06	6.819414e-09	5.340227e+01	4.467330e+02
1.860000e-06	7.581215e-06	6.820863e-09	5.301838e+01	4.459699e+02
1.870000e-06	7.523591e-06	6.786424e-09	5.261539e+01	4.451699e+02
1.880000e-06	7.463142e-06	6.783025e-09	5.219265e+01	4.443126e+02
1.890000e-06	7.400045e-06	6.743436e-09	5.175139e+01	4.433809e+02
1.900000e-06	7.334239e-06	6.773706e-09	5.129118e+01	4.423636e+02
1.910000e-06	7.265540e-06	6.728886e-09	5.081074e+01	4.412570e+02
1.920000e-06	7.194057e-06	6.687723e-09	5.031083e+01	4.400653e+02
1.930000e-06	7.119990e-06	6.703417e-09	4.979285e+01	4.387988e+02
1.940000e-06	7.043216e-06	6.677340e-09	4.925594e+01	4.374723e+02
1.950000e-06	6.963587e-06	6.648393e-09	4.869907e+01	4.361014e+02
1.960000e-06	6.881507e-06	6.615382e-09	4.812504e+01	4.346999e+02
1.970000e-06	6.796984e-06	6.626530e-09	4.753395e+01	4.332764e+02
1.980000e-06	6.709905e-06	6.589368e-09	4.692497e+01	4.318325e+02
1.990000e-06	6.620496e-06	6.550482e-09	4.629970e+01	4.303623e+02
2.000000e-06	6.528822e-06	6.551247e-09	4.565859e+01	4.288524e+02
2.010000e-06	6.434795e-06	6.522688e-09	4.500101e+01	4.272844e+02
2.020000e-06	6.338450e-06	6.485877e-09	4.432724e+01	4.256376e+02
2.030000e-06	6.239901e-06	6.461081e-09	4.363805e+01	4.238921e+02
2.040000e-06	6.139032e-06	6.450084e-09	4.293263e+01	4.220324e+02
2.050000e-06	6.035933e-06	6.397092e-09	4.221162e+01	4.200499e+02
2.060000e-06	5.930746e-06	6.351165e-09	4.147600e+01	4.179440e+02
2.070000e-06	5.823560e-06	6.339529e-09	4.072641e+01	4.157227e+02
2.080000e-06	5.714294e-06	6.312587e-09	3.996227e+01	4.134004e+02
2.090000e-06	5.602821e-06	6.258605e-09	3.918270e+01	4.109958e+02
2.100000e-06	5.489289e-06	6.220184e-09	3.838872e+01	4.085279e+02
2.110000e-06	5.373595e-06	6.200891e-09	3.757963e+01	4.060123e+02
2.120000e-06	5.255735e-06	6.160555e-09	3.675540e+01	4.034581e+02
2.130000e-06	5.135930e-06	6.113315e-09	3.591755e+01	4.008649e+02
2.140000e-06	5.014352e-06	6.076282e-09	3.506731e+01	3.982228e+02
2.150000e-06	4.890881e-06	6.033443e-09	3.420383e+01	3.955125e+02
2.160000e-06	4.765523e-06	5.978154e-09	3.332715e+01	3.927076e+02
2.170000e-06	4.638550e-06	5.932999e-09	3.243918e+01	3.897787e+02
2.180000e-06	4.510038e-06	5.891924e-09	3.154044e+01	3.866969e+02
2.190000e-06	4.379964e-06	5.836198e-09	3.063079e+01	3.834383e+02
2.200000e-06	4.248251e-06	5.776632e-09	2.970967e+01	3.799871e+02
2.210000e-06	4.114919e-06	5.730026e-09	2.877722e+01	3.763375e+02
2.220000e-06	3.980143e-06	5.680997e-09	2.783469e+01	3.724934e+02
2.230000e-06	3.844048e-06	5.615702e-09	2.688292e+01	3.684669e+02
2.240000e-06	3.706562e-06	5.549082e-09	2.592142e+01	3.642745e+02
2.250000e-06	3.567496e-06	5.489057e-09	2.494889e+01	3.599326e+02
2.260000e-06	3.426921e-06	5.423138e-09	2.396579e+01	3.554520e+02
2.270000e-06	3.285167e-06	5.349239e-09	2.297444e+01	3.508339e+02
2.280000e-06	3.142330e-06	5.276994e-09	2.197553e+01	3.460660e+02
2.290000e-06	2.998328e-06	5.201017e-09	2.096847e+01	3.411220e+02
2.300000e-06	2.853218e-06	5.115538e-09	1.995366e+01	3.359614e+02
2.310000e-06	2.707183e-06	5.031480e-09	1.893238e+01	3.305338e+02
2.320000e-06	2.560165e-06	4.951488e-09	1.790423e+01	3.247827e+02
2.330000e-06	2.412023e-06	4.856754e-09	1.686822e+01	3.186516e+02
2.340000e-06	2.262947e-06	4.749598e-09	1.582566e+01	3.120898e+02
2.350000e-06	2.113151e-06	4.646386e-09	1.477808e+01	3.050559e+02
2.360000e-06	1.962642e-06	4.540068e-09	1.372552e+01	2.975206e+02
2.370000e-06	1.811476e-06	4.417361e-09	1.266835e+01	2.894651e+02
2.380000e-06	1.659775e-06	4.284417e-09	1.160745e+01	2.808771e+02
2.390000e-06	1.507543e-06	4.150119e-09	1.054283e+01	2.717437e+02
2.400000e-06	1.354847e-06	4.006625e-09	9.474973e+00	2.620424e+02
2.410000e-06	1.201708e-06	3.849045e-09	8.404007e+00	2.517309e+02
2.420000e-06	1.048105e-06	3.681692e-09	7.329803e+00	2.407387e+02
2.430000e-06	8.941457e-07	3.502588e-09	6.253108e+00	2.289606e+02
2.440000e-06	7.398800e-07	3.304221e-09	5.174268e+00	2.162545e+02
2.450000e-06	5.853349e-07	3.089472e-09	4.093474e+00	2.024457e+02
2.460000e-06	4.305900e-07	2.859473e-09	3.011283e+00	1.873355e+02
2.470000e-06	2.757015e-07	2.605711e-09	1.928087e+00	1.707172e+02
2.480000e-06	1.206706e-07	2.323562e-09	8.438962e-01	1.523955e+02
2.490000e-06	-3.444703e-08	2.015891e-09	-2.409015e-01	1.322098e+02
2.500000e-06	-1.894977e-07	1.684586e-09	-1.325231e+00	1.100579e+02
2.510000e-06	-3.444441e-07	1.323464e-09	-2.408831e+00	8.591691e+01
2.520000e-06	-4.992635e-07	9.321283e-10	-3.491543e+00	5.986024e+01
2.530000e-06	-6.538785e-07	5.165064e-10	-4.572826e+00	3.206731e+01
2.540000e-06	-8.082401e-07	7.756770e-11	-5.652336e+00	2.824298e+00
2.550000e-06	-9.623338e-07	-3.831200e-10	-6.729973e+00	-2.748450e+01
2.560000e-06	-1.116091e-06	-8.583081e-10	-7.805257e+00	-5.839458e+01
2.570000e-06	-1.269397e-06	-1.336715e-09	-8.877389e+00	-8.938713e+01
2.580000e-06	-1.422210e-06	-1.808713e-09	-9.946066e+00	-1.199207e+02
2.590000e-06	-1.574498e-06	-2.267831e-09	-1.101108e+01	-1.494657e+02
2.600000e-06	-1.726232e-06	-2.703546e-09	-1.207221e+01	-1.775386e+02
2.610000e-06	-1.877362e-06	-3.106881e-09	-1.312912e+01	-2.037321e+02
2.620000e-06	-2.027834e-06	-3.474621e-09	-1.418143e+01	-2.277391e+02
2.630000e-06	-2.177685e-06	-3.801776e-09	-1.522940e+01	-2.493676e+02
2.640000e-06	-2.326897e-06	-4.086903e-09	-1.627289e+01	-2.685459e+02
2.650000e-06	-2.475217e-06	-4.333875e-09	-1.731015e+01	-2.853173e+02
2.660000e-06	-2.622565e-06	-4.549022e-09	-1.834061e+01	-2.998259e+02
2.670000e-06	-2.768985e-06	-4.737634e-09	-1.936458e+01	-3.122951e+02
2.680000e-06	-2.914352e-06	-4.900854e-09	-2.038119e+01	-3.230010e+02
2.690000e-06	-3.058630e-06	-5.047067e-09	-2.139019e+01	-3.322448e+02
2.700000e-06	-3.201806e-06	-5.179026e-09	-2.239147e+01	-3.403254e+02
2.710000e-06	-3.343799e-06	-5.294222e-09	-2.338448e+01	-3.475165e+02
2.720000e-06	-3.484520e-06	-5.397180e-09	-2.436860e+01	-3.540495e+02
2.730000e-06	-3.623867e-06	-5.493288e-09	-2.534311e+01	-3.601031e+02
2.740000e-06	-3.761833e-06	-5.581981e-09	-2.630796e+01	-3.658004e+02
2.750000e-06	-3.898332e-06	-5.660421e-09	-2.726255e+01	-3.712122e+02
2.760000e-06	-4.033451e-06	-5.734578e-09	-2.820749e+01	-3.763665e+02
2.770000e-06	-4.167222e-06	-5.806825e-09	-2.914300e+01	-3.812606e+02
2.780000e-06	-4.299452e-06	-5.874866e-09	-3.006773e+01	-3.858749e+02
2.790000e-06	-4.430177e-06	-5.937365e-09	-3.098195e+01	-3.901860e+02
2.800000e-06	-4.559388e-06	-5.996556e-09	-3.188557e+01	-3.941776e+02
2.810000e-06	-4.687005e-06	-6.052951e-09	-3.277804e+01	-3.978475e+02
2.820000e-06	-4.813013e-06	-6.106772e-09	-3.365927e+01	-4.012112e+02
2.830000e-06	-4.937268e-06	-6.157694e-09	-3.452823e+01	-4.043003e+02
2.840000e-06	-5.059689e-06	-6.206733e-09	-3.538437e+01	-4.071593e+02
2.850000e-06	-5.180299e-06	-6.254459e-09	-3.622784e+01	-4.098387e+02
2.860000e-06	-5.299017e-06	-6.298890e-09	-3.705808e+01	-4.123879e+02
2.870000e-06	-5.415575e-06	-6.340362e-09	-3.787322e+01	-4.148489e+02
2.880000e-06	-5.529875e-06	-6.379949e-09	-3.867256e+01	-4.172509e+02
2.890000e-06	-5.642058e-06	-6.418192e-09	-3.945710e+01	-4.196075e+02
2.900000e-06	-5.752160e-06	-6.452551e-09	-4.022709e+01	-4.219171e+02
2.910000e-06	-5.860273e-06	-6.484866e-09	-4.098317e+01	-4.241648e+02
2.920000e-06	-5.966447e-06	-6.515855e-09	-4.172568e+01	-4.263275e+02
2.930000e-06	-6.070574e-06	-6.544602e-09	-4.245388e+01	-4.283789e+02
2.940000e-06	-6.172465e-06	-6.570984e-09	-4.316644e+01	-4.302956e+02
