# Temperatura_=_20.0
# Concentracion g/m^3_=_9000.0
# C_Vs_to_Am_M_A/Vsm_=_65563218390.804596
# pendiente_HvsI_1/m_=_3716.3
# ordenada_HvsI_A/m_=_1297.0
# frecuencia_Hz_=_301293.73937629786

Tiempo_(s)	Campo_(V.s)	Magnetizacion_(V.s)	Campo_(kA/m)	Magnetizacion_(A/m)
0.000000e+00	-8.117672e-06	-6.817113e-09	-5.698266e+01	-4.473587e+02
1.000000e-08	-8.115673e-06	-6.820270e-09	-5.696863e+01	-4.472461e+02
2.000000e-08	-8.110936e-06	-6.821945e-09	-5.693537e+01	-4.471240e+02
3.000000e-08	-8.103669e-06	-6.817113e-09	-5.688436e+01	-4.469883e+02
4.000000e-08	-8.093627e-06	-6.813313e-09	-5.681388e+01	-4.468302e+02
5.000000e-08	-8.080671e-06	-6.809536e-09	-5.672293e+01	-4.466381e+02
6.000000e-08	-8.064759e-06	-6.806215e-09	-5.661123e+01	-4.463999e+02
7.000000e-08	-8.046254e-06	-6.803950e-09	-5.648134e+01	-4.461047e+02
8.000000e-08	-8.025473e-06	-6.791571e-09	-5.633546e+01	-4.457456e+02
9.000000e-08	-8.002018e-06	-6.813936e-09	-5.617082e+01	-4.453211e+02
1.000000e-07	-7.975403e-06	-6.861917e-09	-5.598399e+01	-4.448354e+02
1.100000e-07	-7.945620e-06	-6.821526e-09	-5.577493e+01	-4.442983e+02
1.200000e-07	-7.912838e-06	-6.763429e-09	-5.554481e+01	-4.437234e+02
1.300000e-07	-7.877210e-06	-6.745186e-09	-5.529472e+01	-4.431264e+02
1.400000e-07	-7.839166e-06	-6.758376e-09	-5.502766e+01	-4.425217e+02
1.500000e-07	-7.798941e-06	-6.741264e-09	-5.474530e+01	-4.419207e+02
1.600000e-07	-7.756303e-06	-6.708064e-09	-5.444600e+01	-4.413288e+02
1.700000e-07	-7.710854e-06	-6.759858e-09	-5.412697e+01	-4.407445e+02
1.800000e-07	-7.662532e-06	-6.654349e-09	-5.378777e+01	-4.401594e+02
1.900000e-07	-7.611305e-06	-6.705921e-09	-5.342818e+01	-4.395585e+02
2.000000e-07	-7.557088e-06	-6.749757e-09	-5.304760e+01	-4.389227e+02
2.100000e-07	-7.499974e-06	-6.628857e-09	-5.264668e+01	-4.382314e+02
2.200000e-07	-7.440159e-06	-6.648127e-09	-5.222680e+01	-4.374651e+02
2.300000e-07	-7.377835e-06	-6.650352e-09	-5.178931e+01	-4.366087e+02
2.400000e-07	-7.312845e-06	-6.675690e-09	-5.133311e+01	-4.356534e+02
2.500000e-07	-7.245070e-06	-6.610191e-09	-5.085736e+01	-4.345976e+02
2.600000e-07	-7.174681e-06	-6.581262e-09	-5.036326e+01	-4.334476e+02
2.700000e-07	-7.101544e-06	-6.598002e-09	-4.984986e+01	-4.322156e+02
2.800000e-07	-7.025612e-06	-6.570425e-09	-4.931686e+01	-4.309177e+02
2.900000e-07	-6.946939e-06	-6.552009e-09	-4.876460e+01	-4.295711e+02
3.000000e-07	-6.865615e-06	-6.525338e-09	-4.819374e+01	-4.281911e+02
3.100000e-07	-6.781983e-06	-6.518892e-09	-4.760668e+01	-4.267879e+02
3.200000e-07	-6.696132e-06	-6.479590e-09	-4.700405e+01	-4.253654e+02
3.300000e-07	-6.607966e-06	-6.458111e-09	-4.638516e+01	-4.239198e+02
3.400000e-07	-6.517363e-06	-6.469015e-09	-4.574916e+01	-4.224403e+02
3.500000e-07	-6.424382e-06	-6.404363e-09	-4.509647e+01	-4.209109e+02
3.600000e-07	-6.329130e-06	-6.366205e-09	-4.442784e+01	-4.193126e+02
3.700000e-07	-6.231572e-06	-6.372795e-09	-4.374303e+01	-4.176270e+02
3.800000e-07	-6.131746e-06	-6.354186e-09	-4.304229e+01	-4.158389e+02
3.900000e-07	-6.029720e-06	-6.292360e-09	-4.232611e+01	-4.139391e+02
4.000000e-07	-5.925568e-06	-6.263594e-09	-4.159501e+01	-4.119255e+02
4.100000e-07	-5.819305e-06	-6.269514e-09	-4.084909e+01	-4.098038e+02
4.200000e-07	-5.710921e-06	-6.220527e-09	-4.008828e+01	-4.075858e+02
4.300000e-07	-5.600521e-06	-6.177313e-09	-3.931331e+01	-4.052873e+02
4.400000e-07	-5.488108e-06	-6.150513e-09	-3.852422e+01	-4.029252e+02
4.500000e-07	-5.373515e-06	-6.124434e-09	-3.771983e+01	-4.005135e+02
4.600000e-07	-5.256759e-06	-6.070966e-09	-3.690025e+01	-3.980605e+02
4.700000e-07	-5.138041e-06	-6.031509e-09	-3.606690e+01	-3.955665e+02
4.800000e-07	-5.017408e-06	-6.004000e-09	-3.522011e+01	-3.930225e+02
4.900000e-07	-4.894946e-06	-5.953816e-09	-3.436048e+01	-3.904109e+02
5.000000e-07	-4.770795e-06	-5.908962e-09	-3.348899e+01	-3.877071e+02
5.100000e-07	-4.644992e-06	-5.869763e-09	-3.260590e+01	-3.848829e+02
5.200000e-07	-4.517466e-06	-5.830235e-09	-3.171072e+01	-3.819101e+02
5.300000e-07	-4.388269e-06	-5.769006e-09	-3.080381e+01	-3.787642e+02
5.400000e-07	-4.257552e-06	-5.719509e-09	-2.988623e+01	-3.754278e+02
5.500000e-07	-4.125301e-06	-5.674741e-09	-2.895788e+01	-3.718926e+02
5.600000e-07	-3.991603e-06	-5.614909e-09	-2.801938e+01	-3.681596e+02
5.700000e-07	-3.856487e-06	-5.550123e-09	-2.707092e+01	-3.642383e+02
5.800000e-07	-3.719849e-06	-5.494032e-09	-2.611179e+01	-3.601433e+02
5.900000e-07	-3.581773e-06	-5.440648e-09	-2.514254e+01	-3.558904e+02
6.000000e-07	-3.442285e-06	-5.365241e-09	-2.416340e+01	-3.514919e+02
6.100000e-07	-3.301333e-06	-5.293327e-09	-2.317398e+01	-3.469525e+02
6.200000e-07	-3.159036e-06	-5.223558e-09	-2.217511e+01	-3.422654e+02
6.300000e-07	-3.015595e-06	-5.149043e-09	-2.116822e+01	-3.374105e+02
6.400000e-07	-2.871078e-06	-5.063218e-09	-2.015377e+01	-3.323547e+02
6.500000e-07	-2.725510e-06	-4.979639e-09	-1.913194e+01	-3.270539e+02
6.600000e-07	-2.578998e-06	-4.897118e-09	-1.810349e+01	-3.214565e+02
6.700000e-07	-2.431663e-06	-4.802897e-09	-1.706925e+01	-3.155085e+02
6.800000e-07	-2.283538e-06	-4.706054e-09	-1.602948e+01	-3.091584e+02
6.900000e-07	-2.134673e-06	-4.601804e-09	-1.498451e+01	-3.023613e+02
7.000000e-07	-1.985120e-06	-4.491153e-09	-1.393471e+01	-2.950816e+02
7.100000e-07	-1.834842e-06	-4.369302e-09	-1.287982e+01	-2.872931e+02
7.200000e-07	-1.683865e-06	-4.246754e-09	-1.182003e+01	-2.789761e+02
7.300000e-07	-1.532237e-06	-4.116269e-09	-1.075566e+01	-2.701124e+02
7.400000e-07	-1.380006e-06	-3.969801e-09	-9.687062e+00	-2.606780e+02
7.500000e-07	-1.227244e-06	-3.814561e-09	-8.614742e+00	-2.506347e+02
7.600000e-07	-1.074070e-06	-3.655651e-09	-7.539522e+00	-2.399225e+02
7.700000e-07	-9.205359e-07	-3.484618e-09	-6.461777e+00	-2.284532e+02
7.800000e-07	-7.666677e-07	-3.290020e-09	-5.381686e+00	-2.161081e+02
7.900000e-07	-6.125233e-07	-3.080789e-09	-4.299657e+00	-2.027396e+02
8.000000e-07	-4.581526e-07	-2.854907e-09	-3.216039e+00	-1.881775e+02
8.100000e-07	-3.036262e-07	-2.609108e-09	-2.131329e+00	-1.722419e+02
8.200000e-07	-1.490150e-07	-2.336328e-09	-1.046023e+00	-1.547586e+02
8.300000e-07	5.643530e-09	-2.040878e-09	3.961522e-02	-1.355789e+02
8.400000e-07	1.603458e-07	-1.720321e-09	1.125560e+00	-1.146001e+02
8.500000e-07	3.149671e-07	-1.370887e-09	2.210937e+00	-9.178492e+01
8.600000e-07	4.693946e-07	-9.988624e-10	3.294954e+00	-6.717730e+01
8.700000e-07	6.236684e-07	-6.041345e-10	4.377891e+00	-4.091316e+01
8.800000e-07	7.777967e-07	-1.885863e-10	5.459807e+00	-1.322351e+01
8.900000e-07	9.316987e-07	2.495128e-10	6.540135e+00	1.557044e+01
9.000000e-07	1.085235e-06	6.996479e-10	7.617895e+00	4.507031e+01
9.100000e-07	1.238276e-06	1.155990e-09	8.692179e+00	7.482106e+01
9.200000e-07	1.390797e-06	1.611102e-09	9.762816e+00	1.043372e+02
9.300000e-07	1.542821e-06	2.055753e-09	1.082996e+01	1.331323e+02
9.400000e-07	1.694288e-06	2.482103e-09	1.189319e+01	1.607494e+02
9.500000e-07	1.845168e-06	2.881605e-09	1.295231e+01	1.867891e+02
9.600000e-07	1.995401e-06	3.251127e-09	1.400688e+01	2.109326e+02
9.700000e-07	2.144869e-06	3.583447e-09	1.505609e+01	2.329581e+02
9.800000e-07	2.293504e-06	3.877995e-09	1.609944e+01	2.527490e+02
9.900000e-07	2.441291e-06	4.136444e-09	1.713684e+01	2.702927e+02
1.000000e-06	2.588265e-06	4.361788e-09	1.816854e+01	2.856719e+02
1.010000e-06	2.734406e-06	4.557849e-09	1.919439e+01	2.990483e+02
1.020000e-06	2.879586e-06	4.732274e-09	2.021349e+01	3.106417e+02
1.030000e-06	3.023746e-06	4.889300e-09	2.122543e+01	3.207057e+02
1.040000e-06	3.166726e-06	5.031041e-09	2.222909e+01	3.295049e+02
1.050000e-06	3.308467e-06	5.155841e-09	2.322405e+01	3.372926e+02
1.060000e-06	3.448948e-06	5.265950e-09	2.421017e+01	3.442938e+02
1.070000e-06	3.588070e-06	5.364867e-09	2.518675e+01	3.506938e+02
1.080000e-06	3.725864e-06	5.456754e-09	2.615401e+01	3.566321e+02
1.090000e-06	3.862257e-06	5.542170e-09	2.711143e+01	3.622030e+02
1.100000e-06	3.997148e-06	5.619734e-09	2.805831e+01	3.674605e+02
1.110000e-06	4.130614e-06	5.691970e-09	2.899518e+01	3.724272e+02
1.120000e-06	4.262668e-06	5.759183e-09	2.992215e+01	3.771052e+02
1.130000e-06	4.393127e-06	5.822672e-09	3.083791e+01	3.814870e+02
1.140000e-06	4.521985e-06	5.882116e-09	3.174244e+01	3.855649e+02
1.150000e-06	4.649272e-06	5.936724e-09	3.263595e+01	3.893390e+02
1.160000e-06	4.774947e-06	5.987108e-09	3.351813e+01	3.928205e+02
1.170000e-06	4.899017e-06	6.035849e-09	3.438905e+01	3.960333e+02
1.180000e-06	5.021374e-06	6.081489e-09	3.524795e+01	3.990115e+02
1.190000e-06	5.141894e-06	6.122801e-09	3.609394e+01	4.017956e+02
1.200000e-06	5.260525e-06	6.161898e-09	3.692668e+01	4.044272e+02
1.210000e-06	5.377158e-06	6.200167e-09	3.774540e+01	4.069434e+02
1.220000e-06	5.491701e-06	6.235826e-09	3.854944e+01	4.093726e+02
1.230000e-06	5.604153e-06	6.269624e-09	3.933881e+01	4.117319e+02
1.240000e-06	5.714562e-06	6.302709e-09	4.011383e+01	4.140258e+02
1.250000e-06	5.822993e-06	6.335217e-09	4.087498e+01	4.162479e+02
1.260000e-06	5.929414e-06	6.364061e-09	4.162201e+01	4.183836e+02
1.270000e-06	6.033679e-06	6.391515e-09	4.235390e+01	4.204145e+02
1.280000e-06	6.135703e-06	6.417353e-09	4.307007e+01	4.223227e+02
1.290000e-06	6.235504e-06	6.441675e-09	4.377063e+01	4.240948e+02
1.300000e-06	6.333057e-06	6.465455e-09	4.445541e+01	4.257251e+02
1.310000e-06	6.428285e-06	6.487343e-09	4.512387e+01	4.272172e+02
1.320000e-06	6.521285e-06	6.509422e-09	4.577669e+01	4.285836e+02
1.330000e-06	6.612014e-06	6.530657e-09	4.641357e+01	4.298441e+02
1.340000e-06	6.700329e-06	6.551508e-09	4.703350e+01	4.310231e+02
1.350000e-06	6.786331e-06	6.571005e-09	4.763720e+01	4.321455e+02
1.360000e-06	6.870077e-06	6.589135e-09	4.822507e+01	4.332334e+02
1.370000e-06	6.951413e-06	6.605658e-09	4.879601e+01	4.343030e+02
1.380000e-06	7.030165e-06	6.620903e-09	4.934881e+01	4.353626e+02
1.390000e-06	7.106303e-06	6.636661e-09	4.988328e+01	4.364119e+02
1.400000e-06	7.179817e-06	6.651224e-09	5.039931e+01	4.374430e+02
1.410000e-06	7.250709e-06	6.664646e-09	5.089694e+01	4.384421e+02
1.420000e-06	7.319047e-06	6.679559e-09	5.137665e+01	4.393929e+02
1.430000e-06	7.384744e-06	6.695284e-09	5.183781e+01	4.402793e+02
1.440000e-06	7.447803e-06	6.709118e-09	5.228046e+01	4.410885e+02
1.450000e-06	7.508400e-06	6.720192e-09	5.270583e+01	4.418138e+02
1.460000e-06	7.566389e-06	6.730117e-09	5.311289e+01	4.424549e+02
1.470000e-06	7.621621e-06	6.740261e-09	5.350059e+01	4.430188e+02
1.480000e-06	7.673892e-06	6.749110e-09	5.386751e+01	4.435181e+02
1.490000e-06	7.722947e-06	6.756474e-09	5.421185e+01	4.439688e+02
1.500000e-06	7.769069e-06	6.765136e-09	5.453561e+01	4.443880e+02
1.510000e-06	7.812550e-06	6.774927e-09	5.484083e+01	4.447905e+02
1.520000e-06	7.853252e-06	6.783637e-09	5.512654e+01	4.451872e+02
1.530000e-06	7.891165e-06	6.791468e-09	5.539268e+01	4.455829e+02
1.540000e-06	7.926399e-06	6.798128e-09	5.564000e+01	4.459760e+02
1.550000e-06	7.958787e-06	6.803342e-09	5.586735e+01	4.463592e+02
1.560000e-06	7.988365e-06	6.807050e-09	5.607498e+01	4.467209e+02
1.570000e-06	8.015199e-06	6.810018e-09	5.626334e+01	4.470474e+02
1.580000e-06	8.039113e-06	6.813216e-09	5.643121e+01	4.473255e+02
1.590000e-06	8.060200e-06	6.816796e-09	5.657923e+01	4.475448e+02
1.600000e-06	8.078560e-06	6.819909e-09	5.670811e+01	4.476994e+02
1.610000e-06	8.094025e-06	6.823333e-09	5.681667e+01	4.477892e+02
1.620000e-06	8.106413e-06	6.826986e-09	5.690362e+01	4.478191e+02
1.630000e-06	8.115658e-06	6.830428e-09	5.696852e+01	4.477985e+02
1.640000e-06	8.121912e-06	6.834247e-09	5.701242e+01	4.477393e+02
1.650000e-06	8.125400e-06	6.837202e-09	5.703691e+01	4.476535e+02
1.660000e-06	8.126054e-06	6.839056e-09	5.704150e+01	4.475511e+02
1.670000e-06	8.123923e-06	6.832800e-09	5.702654e+01	4.474381e+02
1.680000e-06	8.119170e-06	6.823989e-09	5.699317e+01	4.473156e+02
1.690000e-06	8.111646e-06	6.821251e-09	5.694036e+01	4.471792e+02
1.700000e-06	8.101399e-06	6.820493e-09	5.686843e+01	4.470200e+02
1.710000e-06	8.088350e-06	6.818123e-09	5.677683e+01	4.468265e+02
1.720000e-06	8.072460e-06	6.815837e-09	5.666529e+01	4.465863e+02
1.730000e-06	8.054174e-06	6.811298e-09	5.653693e+01	4.462889e+02
1.740000e-06	8.033601e-06	6.806620e-09	5.639251e+01	4.459274e+02
1.750000e-06	8.010051e-06	6.715470e-09	5.622720e+01	4.455006e+02
1.760000e-06	7.982804e-06	6.720978e-09	5.603594e+01	4.450128e+02
1.770000e-06	7.951897e-06	6.768116e-09	5.581899e+01	4.444740e+02
1.780000e-06	7.918145e-06	6.772130e-09	5.558207e+01	4.438981e+02
1.790000e-06	7.882181e-06	6.756892e-09	5.532961e+01	4.433005e+02
1.800000e-06	7.843864e-06	6.800332e-09	5.506064e+01	4.426958e+02
1.810000e-06	7.803361e-06	6.742613e-09	5.477633e+01	4.420950e+02
1.820000e-06	7.760624e-06	6.639570e-09	5.447633e+01	4.415033e+02
1.830000e-06	7.715057e-06	6.815548e-09	5.415647e+01	4.409192e+02
1.840000e-06	7.666695e-06	6.702309e-09	5.381699e+01	4.403337e+02
1.850000e-06	7.615476e-06	6.695856e-09	5.345745e+01	4.397319e+02
1.860000e-06	7.561148e-06	6.756898e-09	5.307609e+01	4.390945e+02
1.870000e-06	7.503968e-06	6.666012e-09	5.267471e+01	4.384007e+02
1.880000e-06	7.444187e-06	6.715192e-09	5.225508e+01	4.376314e+02
1.890000e-06	7.381821e-06	6.613456e-09	5.181729e+01	4.367716e+02
1.900000e-06	7.316647e-06	6.678033e-09	5.135980e+01	4.358125e+02
1.910000e-06	7.248674e-06	6.646992e-09	5.088266e+01	4.347533e+02
1.920000e-06	7.177952e-06	6.565363e-09	5.038622e+01	4.336000e+02
1.930000e-06	7.104499e-06	6.643068e-09	4.987061e+01	4.323653e+02
1.940000e-06	7.028334e-06	6.572050e-09	4.933596e+01	4.310653e+02
1.950000e-06	6.949296e-06	6.563396e-09	4.878115e+01	4.297173e+02
1.960000e-06	6.867788e-06	6.501152e-09	4.820900e+01	4.283362e+02
1.970000e-06	6.784036e-06	6.545102e-09	4.762110e+01	4.269323e+02
1.980000e-06	6.697730e-06	6.514073e-09	4.701526e+01	4.255090e+02
1.990000e-06	6.608932e-06	6.425654e-09	4.639194e+01	4.240624e+02
2.000000e-06	6.517902e-06	6.479241e-09	4.575294e+01	4.225814e+02
2.010000e-06	6.424656e-06	6.430166e-09	4.509840e+01	4.210498e+02
2.020000e-06	6.329060e-06	6.406789e-09	4.442735e+01	4.194486e+02
2.030000e-06	6.231210e-06	6.354770e-09	4.374049e+01	4.177596e+02
2.040000e-06	6.131195e-06	6.370313e-09	4.303842e+01	4.159676e+02
2.050000e-06	6.028921e-06	6.314547e-09	4.232050e+01	4.140636e+02
2.060000e-06	5.924369e-06	6.259920e-09	4.158659e+01	4.120460e+02
2.070000e-06	5.817795e-06	6.257997e-09	4.083849e+01	4.099205e+02
2.080000e-06	5.709303e-06	6.221119e-09	4.007692e+01	4.076993e+02
2.090000e-06	5.598688e-06	6.174817e-09	3.930045e+01	4.053983e+02
2.100000e-06	5.485933e-06	6.125116e-09	3.850895e+01	4.030341e+02
2.110000e-06	5.371074e-06	6.129631e-09	3.770269e+01	4.006208e+02
2.120000e-06	5.254091e-06	6.080290e-09	3.688152e+01	3.981664e+02
2.130000e-06	5.135004e-06	6.035068e-09	3.604558e+01	3.956707e+02
2.140000e-06	5.014014e-06	5.997626e-09	3.519628e+01	3.931246e+02
2.150000e-06	4.891330e-06	5.968776e-09	3.433509e+01	3.905101e+02
2.160000e-06	4.766884e-06	5.912354e-09	3.346153e+01	3.878025e+02
2.170000e-06	4.640675e-06	5.862633e-09	3.257559e+01	3.849734e+02
2.180000e-06	4.512814e-06	5.826337e-09	3.167806e+01	3.819948e+02
2.190000e-06	4.383349e-06	5.771755e-09	3.076928e+01	3.788423e+02
2.200000e-06	4.252361e-06	5.712033e-09	2.984980e+01	3.754988e+02
2.210000e-06	4.119883e-06	5.664967e-09	2.891986e+01	3.719564e+02
2.220000e-06	3.985909e-06	5.624060e-09	2.797941e+01	3.682165e+02
2.230000e-06	3.850476e-06	5.555790e-09	2.702873e+01	3.642887e+02
2.240000e-06	3.713613e-06	5.490920e-09	2.606801e+01	3.601877e+02
2.250000e-06	3.575370e-06	5.433765e-09	2.509760e+01	3.559293e+02
2.260000e-06	3.435718e-06	5.371565e-09	2.411730e+01	3.515258e+02
2.270000e-06	3.294765e-06	5.295831e-09	2.312787e+01	3.469813e+02
2.280000e-06	3.152607e-06	5.225112e-09	2.212998e+01	3.422885e+02
2.290000e-06	3.009218e-06	5.153448e-09	2.112345e+01	3.374270e+02
2.300000e-06	2.864642e-06	5.070668e-09	2.010859e+01	3.323633e+02
2.310000e-06	2.719090e-06	4.985492e-09	1.908688e+01	3.270528e+02
2.320000e-06	2.572708e-06	4.905971e-09	1.805934e+01	3.214437e+02
2.330000e-06	2.425418e-06	4.816084e-09	1.702542e+01	3.154822e+02
2.340000e-06	2.277244e-06	4.712435e-09	1.598530e+01	3.091168e+02
2.350000e-06	2.128226e-06	4.610894e-09	1.493925e+01	3.023030e+02
2.360000e-06	1.978429e-06	4.509209e-09	1.388775e+01	2.950055e+02
2.370000e-06	1.827987e-06	4.390672e-09	1.283171e+01	2.871984e+02
2.380000e-06	1.676948e-06	4.260021e-09	1.177147e+01	2.788621e+02
2.390000e-06	1.525340e-06	4.127066e-09	1.070725e+01	2.699785e+02
2.400000e-06	1.373185e-06	3.987214e-09	9.639184e+00	2.605230e+02
2.410000e-06	1.220461e-06	3.833914e-09	8.567124e+00	2.504570e+02
2.420000e-06	1.067266e-06	3.671849e-09	7.491758e+00	2.397193e+02
2.430000e-06	9.137328e-07	3.500421e-09	6.414022e+00	2.282210e+02
2.440000e-06	7.599097e-07	3.308225e-09	5.334248e+00	2.158420e+02
2.450000e-06	6.058414e-07	3.097312e-09	4.252753e+00	2.024338e+02
2.460000e-06	4.516316e-07	2.873174e-09	3.170265e+00	1.878258e+02
2.470000e-06	2.972841e-07	2.631149e-09	2.086810e+00	1.718378e+02
2.480000e-06	1.427754e-07	2.361360e-09	1.002223e+00	1.542962e+02
2.490000e-06	-1.175788e-08	2.067018e-09	-8.253543e-02	1.350536e+02
2.500000e-06	-1.662064e-07	1.752855e-09	-1.166699e+00	1.140094e+02
2.510000e-06	-3.205701e-07	1.409932e-09	-2.250268e+00	9.112885e+01
2.520000e-06	-4.748524e-07	1.036346e-09	-3.333265e+00	6.645912e+01
2.530000e-06	-6.289986e-07	6.411330e-10	-4.415307e+00	4.013950e+01
2.540000e-06	-7.829060e-07	2.252308e-10	-5.495672e+00	1.240432e+01
2.550000e-06	-9.365243e-07	-2.126954e-10	-6.574009e+00	-1.642215e+01
2.560000e-06	-1.089834e-06	-6.673244e-10	-7.650176e+00	-4.593912e+01
2.570000e-06	-1.242740e-06	-1.125143e-09	-8.723514e+00	-7.568999e+01
2.580000e-06	-1.395117e-06	-1.577771e-09	-9.793135e+00	-1.051887e+02
2.590000e-06	-1.546977e-06	-2.023325e-09	-1.085913e+01	-1.339494e+02
2.600000e-06	-1.698315e-06	-2.451188e-09	-1.192146e+01	-1.615167e+02
2.610000e-06	-1.849062e-06	-2.852015e-09	-1.297964e+01	-1.874936e+02
2.620000e-06	-1.999180e-06	-3.221029e-09	-1.403341e+01	-2.115647e+02
2.630000e-06	-2.148586e-06	-3.555516e-09	-1.508217e+01	-2.335119e+02
2.640000e-06	-2.297176e-06	-3.853107e-09	-1.612522e+01	-2.532221e+02
2.650000e-06	-2.444860e-06	-4.114744e-09	-1.716189e+01	-2.706866e+02
2.660000e-06	-2.591682e-06	-4.343334e-09	-1.819252e+01	-2.859912e+02
2.670000e-06	-2.737703e-06	-4.542801e-09	-1.921753e+01	-2.992999e+02
2.680000e-06	-2.882753e-06	-4.717101e-09	-2.023572e+01	-3.108342e+02
2.690000e-06	-3.026695e-06	-4.871990e-09	-2.124613e+01	-3.208486e+02
2.700000e-06	-3.169466e-06	-5.012013e-09	-2.224833e+01	-3.296074e+02
2.710000e-06	-3.310979e-06	-5.136088e-09	-2.324169e+01	-3.373634e+02
2.720000e-06	-3.451204e-06	-5.247321e-09	-2.422600e+01	-3.443402e+02
2.730000e-06	-3.590116e-06	-5.349876e-09	-2.520111e+01	-3.507217e+02
2.740000e-06	-3.727765e-06	-5.442771e-09	-2.616735e+01	-3.566456e+02
2.750000e-06	-3.864081e-06	-5.524925e-09	-2.712423e+01	-3.622046e+02
2.760000e-06	-3.998928e-06	-5.601467e-09	-2.807080e+01	-3.674515e+02
2.770000e-06	-4.132349e-06	-5.675441e-09	-2.900736e+01	-3.724080e+02
2.780000e-06	-4.264300e-06	-5.745381e-09	-2.993360e+01	-3.770756e+02
2.790000e-06	-4.394780e-06	-5.808798e-09	-3.084951e+01	-3.814467e+02
2.800000e-06	-4.523788e-06	-5.866758e-09	-3.175510e+01	-3.855138e+02
2.810000e-06	-4.651138e-06	-5.923089e-09	-3.264905e+01	-3.892771e+02
2.820000e-06	-4.776846e-06	-5.979845e-09	-3.353146e+01	-3.927486e+02
2.830000e-06	-4.900914e-06	-6.034840e-09	-3.440237e+01	-3.959524e+02
2.840000e-06	-5.023232e-06	-6.084866e-09	-3.526099e+01	-3.989231e+02
2.850000e-06	-5.143709e-06	-6.132284e-09	-3.610669e+01	-4.017011e+02
2.860000e-06	-5.262219e-06	-6.177705e-09	-3.693857e+01	-4.043280e+02
2.870000e-06	-5.378618e-06	-6.221339e-09	-3.775565e+01	-4.068407e+02
2.880000e-06	-5.492816e-06	-6.262215e-09	-3.855727e+01	-4.092672e+02
2.890000e-06	-5.604826e-06	-6.298910e-09	-3.934354e+01	-4.116242e+02
2.900000e-06	-5.714747e-06	-6.333458e-09	-4.011513e+01	-4.139157e+02
2.910000e-06	-5.822742e-06	-6.366608e-09	-4.087322e+01	-4.161351e+02
2.920000e-06	-5.928834e-06	-6.399068e-09	-4.161793e+01	-4.182674e+02
2.930000e-06	-6.032883e-06	-6.429811e-09	-4.234831e+01	-4.202943e+02
2.940000e-06	-6.134728e-06	-6.457848e-09	-4.306322e+01	-4.221979e+02
