# Temperatura_=_20.0
# Concentracion g/m^3_=_9000.0
# C_Vs_to_Am_M_A/Vsm_=_65563218390.804596
# pendiente_HvsI_1/m_=_3716.3
# ordenada_HvsI_A/m_=_1297.0
# frecuencia_Hz_=_301291.18963298737

Tiempo_(s)	Campo_(V.s)	Magnetizacion_(V.s)	Campo_(kA/m)	Magnetizacion_(A/m)
0.000000e+00	-8.099793e-06	-6.909747e-09	-5.698129e+01	-4.526776e+02
1.000000e-08	-8.097595e-06	-6.911566e-09	-5.696583e+01	-4.526078e+02
2.000000e-08	-8.092687e-06	-6.911183e-09	-5.693130e+01	-4.525313e+02
3.000000e-08	-8.085205e-06	-6.910300e-09	-5.687866e+01	-4.524375e+02
4.000000e-08	-8.074871e-06	-6.910681e-09	-5.680596e+01	-4.523108e+02
5.000000e-08	-8.061581e-06	-6.909064e-09	-5.671247e+01	-4.521328e+02
6.000000e-08	-8.045387e-06	-6.904276e-09	-5.659855e+01	-4.518859e+02
7.000000e-08	-8.026604e-06	-6.899510e-09	-5.646641e+01	-4.515565e+02
8.000000e-08	-8.005553e-06	-6.893447e-09	-5.631832e+01	-4.511378e+02
9.000000e-08	-7.981799e-06	-6.926418e-09	-5.615121e+01	-4.506312e+02
1.000000e-07	-7.954855e-06	-6.939447e-09	-5.596166e+01	-4.500473e+02
1.100000e-07	-7.924804e-06	-6.898044e-09	-5.575026e+01	-4.494045e+02
1.200000e-07	-7.891829e-06	-6.855298e-09	-5.551828e+01	-4.487264e+02
1.300000e-07	-7.856014e-06	-6.841387e-09	-5.526633e+01	-4.480384e+02
1.400000e-07	-7.817770e-06	-6.847372e-09	-5.499728e+01	-4.473640e+02
1.500000e-07	-7.777315e-06	-6.808357e-09	-5.471269e+01	-4.467209e+02
1.600000e-07	-7.734347e-06	-6.815830e-09	-5.441041e+01	-4.461177e+02
1.700000e-07	-7.688541e-06	-6.812664e-09	-5.408817e+01	-4.455526e+02
1.800000e-07	-7.639949e-06	-6.750076e-09	-5.374633e+01	-4.450129e+02
1.900000e-07	-7.588508e-06	-6.807467e-09	-5.338445e+01	-4.444767e+02
2.000000e-07	-7.534032e-06	-6.790283e-09	-5.300121e+01	-4.439154e+02
2.100000e-07	-7.476728e-06	-6.727147e-09	-5.259809e+01	-4.432981e+02
2.200000e-07	-7.416840e-06	-6.736037e-09	-5.217678e+01	-4.425955e+02
2.300000e-07	-7.354411e-06	-6.731274e-09	-5.173760e+01	-4.417842e+02
2.400000e-07	-7.289291e-06	-6.732463e-09	-5.127948e+01	-4.408496e+02
2.500000e-07	-7.221413e-06	-6.673193e-09	-5.080197e+01	-4.397881e+02
2.600000e-07	-7.150842e-06	-6.674069e-09	-5.030551e+01	-4.386066e+02
2.700000e-07	-7.077570e-06	-6.671007e-09	-4.979005e+01	-4.373216e+02
2.800000e-07	-7.001546e-06	-6.641627e-09	-4.925523e+01	-4.359555e+02
2.900000e-07	-6.922783e-06	-6.623865e-09	-4.870113e+01	-4.345332e+02
3.000000e-07	-6.841439e-06	-6.603305e-09	-4.812889e+01	-4.330778e+02
3.100000e-07	-6.757699e-06	-6.586252e-09	-4.753978e+01	-4.316065e+02
3.200000e-07	-6.671673e-06	-6.535499e-09	-4.693460e+01	-4.301276e+02
3.300000e-07	-6.583373e-06	-6.540748e-09	-4.631341e+01	-4.286398e+02
3.400000e-07	-6.492704e-06	-6.525732e-09	-4.567557e+01	-4.271316e+02
3.500000e-07	-6.399692e-06	-6.470873e-09	-4.502123e+01	-4.255838e+02
3.600000e-07	-6.304386e-06	-6.440739e-09	-4.435077e+01	-4.239724e+02
3.700000e-07	-6.206849e-06	-6.437259e-09	-4.366460e+01	-4.222727e+02
3.800000e-07	-6.107041e-06	-6.403273e-09	-4.296246e+01	-4.204630e+02
3.900000e-07	-6.004981e-06	-6.351005e-09	-4.224448e+01	-4.185285e+02
4.000000e-07	-5.900847e-06	-6.339846e-09	-4.151191e+01	-4.164635e+02
4.100000e-07	-5.794602e-06	-6.316823e-09	-4.076448e+01	-4.142716e+02
4.200000e-07	-5.686240e-06	-6.270670e-09	-4.000217e+01	-4.119655e+02
4.300000e-07	-5.575840e-06	-6.232784e-09	-3.922552e+01	-4.095638e+02
4.400000e-07	-5.463379e-06	-6.215878e-09	-3.843436e+01	-4.070877e+02
4.500000e-07	-5.348763e-06	-6.170661e-09	-3.762805e+01	-4.045568e+02
4.600000e-07	-5.231988e-06	-6.117932e-09	-3.680655e+01	-4.019851e+02
4.700000e-07	-5.113190e-06	-6.085695e-09	-3.597082e+01	-3.993779e+02
4.800000e-07	-4.992523e-06	-6.052498e-09	-3.512194e+01	-3.967301e+02
4.900000e-07	-4.870149e-06	-5.998801e-09	-3.426104e+01	-3.940263e+02
5.000000e-07	-4.746112e-06	-5.949582e-09	-3.338846e+01	-3.912427e+02
5.100000e-07	-4.620370e-06	-5.914125e-09	-3.250387e+01	-3.883502e+02
5.200000e-07	-4.492928e-06	-5.864709e-09	-3.160733e+01	-3.853187e+02
5.300000e-07	-4.363811e-06	-5.811692e-09	-3.069900e+01	-3.821213e+02
5.400000e-07	-4.233149e-06	-5.764717e-09	-2.977981e+01	-3.787383e+02
5.500000e-07	-4.101008e-06	-5.716270e-09	-2.885021e+01	-3.751592e+02
5.600000e-07	-3.967396e-06	-5.651637e-09	-2.791026e+01	-3.713844e+02
5.700000e-07	-3.832347e-06	-5.592668e-09	-2.696020e+01	-3.674228e+02
5.800000e-07	-3.695794e-06	-5.540246e-09	-2.599957e+01	-3.632899e+02
5.900000e-07	-3.557833e-06	-5.476510e-09	-2.502902e+01	-3.590023e+02
6.000000e-07	-3.418562e-06	-5.400200e-09	-2.404927e+01	-3.545735e+02
6.100000e-07	-3.277901e-06	-5.331059e-09	-2.305973e+01	-3.500084e+02
6.200000e-07	-3.135872e-06	-5.266292e-09	-2.206057e+01	-3.452999e+02
6.300000e-07	-2.992666e-06	-5.185989e-09	-2.105313e+01	-3.404264e+02
6.400000e-07	-2.848365e-06	-5.101668e-09	-2.003799e+01	-3.353522e+02
6.500000e-07	-2.702971e-06	-5.018690e-09	-1.901515e+01	-3.300298e+02
6.600000e-07	-2.556624e-06	-4.933054e-09	-1.798561e+01	-3.244038e+02
6.700000e-07	-2.409490e-06	-4.836400e-09	-1.695053e+01	-3.184168e+02
6.800000e-07	-2.261551e-06	-4.739250e-09	-1.590980e+01	-3.120146e+02
6.900000e-07	-2.112804e-06	-4.637521e-09	-1.486338e+01	-3.051511e+02
7.000000e-07	-1.963367e-06	-4.523538e-09	-1.381211e+01	-2.977909e+02
7.100000e-07	-1.813263e-06	-4.404942e-09	-1.275613e+01	-2.899092e+02
7.200000e-07	-1.662511e-06	-4.282536e-09	-1.169561e+01	-2.814890e+02
7.300000e-07	-1.511186e-06	-4.149149e-09	-1.063105e+01	-2.725150e+02
7.400000e-07	-1.359346e-06	-3.997733e-09	-9.562875e+00	-2.629653e+02
7.500000e-07	-1.207007e-06	-3.843564e-09	-8.491184e+00	-2.528019e+02
7.600000e-07	-1.054157e-06	-3.683960e-09	-7.415893e+00	-2.419622e+02
7.700000e-07	-9.008573e-07	-3.507258e-09	-6.337448e+00	-2.303522e+02
7.800000e-07	-7.472486e-07	-3.310568e-09	-5.256824e+00	-2.178437e+02
7.900000e-07	-5.934340e-07	-3.098085e-09	-4.174753e+00	-2.042759e+02
8.000000e-07	-4.394244e-07	-2.868789e-09	-3.091310e+00	-1.894641e+02
8.100000e-07	-2.852235e-07	-2.616603e-09	-2.006521e+00	-1.732123e+02
8.200000e-07	-1.308740e-07	-2.340606e-09	-9.206863e-01	-1.553319e+02
8.300000e-07	2.350311e-08	-2.038177e-09	1.653422e-01	-1.356630e+02
8.400000e-07	1.778189e-07	-1.708250e-09	1.250940e+00	-1.140973e+02
8.500000e-07	3.320167e-07	-1.349562e-09	2.335707e+00	-9.059871e+01
8.600000e-07	4.860792e-07	-9.669810e-10	3.419522e+00	-6.522088e+01
8.700000e-07	6.400251e-07	-5.595013e-10	4.502517e+00	-3.811772e+01
8.800000e-07	7.937385e-07	-1.277392e-10	5.583876e+00	-9.546038e+00
8.900000e-07	9.471505e-07	3.223295e-10	6.663116e+00	2.014095e+01
9.000000e-07	1.100269e-06	7.847392e-10	7.740292e+00	5.050905e+01
9.100000e-07	1.252967e-06	1.253462e-09	8.814509e+00	8.106653e+01
9.200000e-07	1.405132e-06	1.721712e-09	9.884975e+00	1.112935e+02
9.300000e-07	1.556704e-06	2.176818e-09	1.095127e+01	1.406747e+02
9.400000e-07	1.707726e-06	2.611011e-09	1.201369e+01	1.687322e+02
9.500000e-07	1.858246e-06	3.017126e-09	1.307259e+01	1.950556e+02
9.600000e-07	2.008062e-06	3.387601e-09	1.412653e+01	2.193262e+02
9.700000e-07	2.157078e-06	3.716937e-09	1.517484e+01	2.413326e+02
9.800000e-07	2.305351e-06	4.006831e-09	1.621793e+01	2.609782e+02
9.900000e-07	2.452802e-06	4.259814e-09	1.725523e+01	2.782776e+02
1.000000e-06	2.599370e-06	4.478241e-09	1.828633e+01	2.933452e+02
1.010000e-06	2.745074e-06	4.669698e-09	1.931134e+01	3.063753e+02
1.020000e-06	2.889852e-06	4.840231e-09	2.032984e+01	3.176185e+02
1.030000e-06	3.033563e-06	4.993944e-09	2.134084e+01	3.273552e+02
1.040000e-06	3.176044e-06	5.130124e-09	2.234318e+01	3.358693e+02
1.050000e-06	3.317308e-06	5.252956e-09	2.333695e+01	3.434262e+02
1.060000e-06	3.457348e-06	5.363007e-09	2.432212e+01	3.502548e+02
1.070000e-06	3.596036e-06	5.462352e-09	2.529778e+01	3.565371e+02
1.080000e-06	3.733368e-06	5.552397e-09	2.626390e+01	3.624036e+02
1.090000e-06	3.869308e-06	5.633016e-09	2.722022e+01	3.679358e+02
1.100000e-06	4.003758e-06	5.707546e-09	2.816607e+01	3.731734e+02
1.110000e-06	4.136789e-06	5.777394e-09	2.910192e+01	3.781253e+02
1.120000e-06	4.268408e-06	5.844461e-09	3.002785e+01	3.827827e+02
1.130000e-06	4.398441e-06	5.907587e-09	3.094262e+01	3.871304e+02
1.140000e-06	4.526900e-06	5.965962e-09	3.184632e+01	3.911580e+02
1.150000e-06	4.653762e-06	6.020298e-09	3.273878e+01	3.948662e+02
1.160000e-06	4.779014e-06	6.071071e-09	3.361992e+01	3.982711e+02
1.170000e-06	4.902681e-06	6.118934e-09	3.448990e+01	4.014032e+02
1.180000e-06	5.024551e-06	6.162766e-09	3.534725e+01	4.043042e+02
1.190000e-06	5.144577e-06	6.203039e-09	3.619162e+01	4.070218e+02
1.200000e-06	5.262749e-06	6.242271e-09	3.702295e+01	4.096028e+02
1.210000e-06	5.378899e-06	6.279737e-09	3.784005e+01	4.120871e+02
1.220000e-06	5.492898e-06	6.314968e-09	3.864203e+01	4.145030e+02
1.230000e-06	5.604780e-06	6.347984e-09	3.942910e+01	4.168645e+02
1.240000e-06	5.714723e-06	6.380489e-09	4.020254e+01	4.191712e+02
1.250000e-06	5.822724e-06	6.411815e-09	4.096232e+01	4.214105e+02
1.260000e-06	5.928633e-06	6.440863e-09	4.170738e+01	4.235613e+02
1.270000e-06	6.032339e-06	6.468507e-09	4.243694e+01	4.255997e+02
1.280000e-06	6.133881e-06	6.494378e-09	4.315128e+01	4.275039e+02
1.290000e-06	6.233260e-06	6.518865e-09	4.385041e+01	4.292589e+02
1.300000e-06	6.330359e-06	6.542587e-09	4.453349e+01	4.308597e+02
1.310000e-06	6.425167e-06	6.564607e-09	4.520045e+01	4.323125e+02
1.320000e-06	6.517787e-06	6.585767e-09	4.585203e+01	4.336341e+02
1.330000e-06	6.608142e-06	6.605796e-09	4.648766e+01	4.348493e+02
1.340000e-06	6.696082e-06	6.626135e-09	4.710631e+01	4.359870e+02
1.350000e-06	6.781701e-06	6.646093e-09	4.770864e+01	4.370761e+02
1.360000e-06	6.865027e-06	6.662502e-09	4.829482e+01	4.381410e+02
1.370000e-06	6.945880e-06	6.677407e-09	4.886362e+01	4.391983e+02
1.380000e-06	7.024228e-06	6.692760e-09	4.941479e+01	4.402552e+02
1.390000e-06	7.100022e-06	6.706810e-09	4.994799e+01	4.413088e+02
1.400000e-06	7.173074e-06	6.719549e-09	5.046191e+01	4.423478e+02
1.410000e-06	7.243479e-06	6.733810e-09	5.095720e+01	4.433550e+02
1.420000e-06	7.311404e-06	6.748017e-09	5.143504e+01	4.443112e+02
1.430000e-06	7.376684e-06	6.760512e-09	5.189428e+01	4.451987e+02
1.440000e-06	7.439280e-06	6.772463e-09	5.233464e+01	4.460043e+02
1.450000e-06	7.499382e-06	6.784596e-09	5.275745e+01	4.467226e+02
1.460000e-06	7.556894e-06	6.796860e-09	5.316205e+01	4.473559e+02
1.470000e-06	7.611712e-06	6.807825e-09	5.354768e+01	4.479144e+02
1.480000e-06	7.663537e-06	6.817428e-09	5.391227e+01	4.484140e+02
1.490000e-06	7.712121e-06	6.825325e-09	5.425405e+01	4.488736e+02
1.500000e-06	7.757792e-06	6.833044e-09	5.457534e+01	4.493120e+02
1.510000e-06	7.800795e-06	6.841344e-09	5.487786e+01	4.497443e+02
1.520000e-06	7.840979e-06	6.848654e-09	5.516055e+01	4.501798e+02
1.530000e-06	7.878419e-06	6.855513e-09	5.542395e+01	4.506205e+02
1.540000e-06	7.913197e-06	6.862020e-09	5.566861e+01	4.510610e+02
1.550000e-06	7.945143e-06	6.868339e-09	5.589334e+01	4.514896e+02
1.560000e-06	7.974349e-06	6.874409e-09	5.609880e+01	4.518909e+02
1.570000e-06	8.000780e-06	6.879288e-09	5.628474e+01	4.522481e+02
1.580000e-06	8.024303e-06	6.882824e-09	5.645023e+01	4.525470e+02
1.590000e-06	8.045075e-06	6.886252e-09	5.659636e+01	4.527775e+02
1.600000e-06	8.063051e-06	6.889904e-09	5.672281e+01	4.529361e+02
1.610000e-06	8.078074e-06	6.893370e-09	5.682850e+01	4.530263e+02
1.620000e-06	8.090044e-06	6.896124e-09	5.691270e+01	4.530575e+02
1.630000e-06	8.098910e-06	6.899538e-09	5.697508e+01	4.530434e+02
1.640000e-06	8.104883e-06	6.903215e-09	5.701709e+01	4.529993e+02
1.650000e-06	8.108048e-06	6.905516e-09	5.703936e+01	4.529391e+02
1.660000e-06	8.108352e-06	6.907407e-09	5.704150e+01	4.528724e+02
1.670000e-06	8.105975e-06	6.901156e-09	5.702478e+01	4.528025e+02
1.680000e-06	8.100976e-06	6.895971e-09	5.698961e+01	4.527255e+02
1.690000e-06	8.093247e-06	6.891852e-09	5.693524e+01	4.526308e+02
1.700000e-06	8.082826e-06	6.890085e-09	5.686193e+01	4.525025e+02
1.710000e-06	8.069536e-06	6.888957e-09	5.676844e+01	4.523223e+02
1.720000e-06	8.053427e-06	6.884679e-09	5.665511e+01	4.520727e+02
1.730000e-06	8.034920e-06	6.884022e-09	5.652492e+01	4.517402e+02
1.740000e-06	8.013997e-06	6.846533e-09	5.637772e+01	4.513181e+02
1.750000e-06	7.989992e-06	6.792811e-09	5.620885e+01	4.508085e+02
1.760000e-06	7.962297e-06	6.804568e-09	5.601402e+01	4.502222e+02
1.770000e-06	7.931110e-06	6.835021e-09	5.579462e+01	4.495777e+02
1.780000e-06	7.897221e-06	6.839582e-09	5.555621e+01	4.488987e+02
1.790000e-06	7.861002e-06	6.831046e-09	5.530141e+01	4.482108e+02
1.800000e-06	7.822402e-06	6.857650e-09	5.502987e+01	4.475373e+02
1.810000e-06	7.781738e-06	6.761441e-09	5.474380e+01	4.468954e+02
1.820000e-06	7.738758e-06	6.749830e-09	5.444145e+01	4.462937e+02
1.830000e-06	7.692975e-06	6.831812e-09	5.411936e+01	4.457297e+02
1.840000e-06	7.644496e-06	6.769088e-09	5.377831e+01	4.451906e+02
1.850000e-06	7.593009e-06	6.819195e-09	5.341611e+01	4.446539e+02
1.860000e-06	7.538492e-06	6.794073e-09	5.303259e+01	4.440912e+02
1.870000e-06	7.481236e-06	6.769453e-09	5.262980e+01	4.434713e+02
1.880000e-06	7.421267e-06	6.764808e-09	5.220792e+01	4.427651e+02
1.890000e-06	7.358705e-06	6.720475e-09	5.176780e+01	4.419496e+02
1.900000e-06	7.293378e-06	6.771081e-09	5.130823e+01	4.410104e+02
1.910000e-06	7.225224e-06	6.691530e-09	5.082878e+01	4.399444e+02
1.920000e-06	7.154346e-06	6.679690e-09	5.033016e+01	4.387589e+02
1.930000e-06	7.080840e-06	6.698421e-09	4.981305e+01	4.374705e+02
1.940000e-06	7.004574e-06	6.656296e-09	4.927653e+01	4.361019e+02
1.950000e-06	6.925428e-06	6.625287e-09	4.871974e+01	4.346781e+02
1.960000e-06	6.843864e-06	6.597714e-09	4.814595e+01	4.332218e+02
1.970000e-06	6.759970e-06	6.635459e-09	4.755576e+01	4.317501e+02
1.980000e-06	6.673547e-06	6.567023e-09	4.694778e+01	4.302710e+02
1.990000e-06	6.584716e-06	6.537076e-09	4.632286e+01	4.287827e+02
2.000000e-06	6.493658e-06	6.540891e-09	4.568228e+01	4.272734e+02
2.010000e-06	6.400334e-06	6.506012e-09	4.502576e+01	4.257237e+02
2.020000e-06	6.304625e-06	6.470246e-09	4.435245e+01	4.241096e+02
2.030000e-06	6.206714e-06	6.451666e-09	4.366366e+01	4.224062e+02
2.040000e-06	6.106598e-06	6.445234e-09	4.295935e+01	4.205922e+02
2.050000e-06	6.004195e-06	6.377399e-09	4.223896e+01	4.186531e+02
2.060000e-06	5.899597e-06	6.344097e-09	4.150312e+01	4.165834e+02
2.070000e-06	5.793019e-06	6.335805e-09	4.075335e+01	4.143872e+02
2.080000e-06	5.684453e-06	6.303600e-09	3.998960e+01	4.120773e+02
2.090000e-06	5.573795e-06	6.241931e-09	3.921113e+01	4.096725e+02
2.100000e-06	5.461064e-06	6.212603e-09	3.841808e+01	4.071941e+02
2.110000e-06	5.346173e-06	6.196043e-09	3.760983e+01	4.046616e+02
2.120000e-06	5.229134e-06	6.149720e-09	3.678647e+01	4.020885e+02
2.130000e-06	5.110070e-06	6.104276e-09	3.594887e+01	3.994800e+02
2.140000e-06	4.989195e-06	6.068645e-09	3.509852e+01	3.968304e+02
2.150000e-06	4.866542e-06	6.024982e-09	3.423567e+01	3.941242e+02
2.160000e-06	4.742102e-06	5.969391e-09	3.336024e+01	3.913372e+02
2.170000e-06	4.615975e-06	5.933637e-09	3.247295e+01	3.884403e+02
2.180000e-06	4.488258e-06	5.892248e-09	3.157448e+01	3.854033e+02
2.190000e-06	4.358929e-06	5.829420e-09	3.066466e+01	3.821995e+02
2.200000e-06	4.228049e-06	5.768142e-09	2.974393e+01	3.788095e+02
2.210000e-06	4.095677e-06	5.727439e-09	2.881271e+01	3.752234e+02
2.220000e-06	3.961826e-06	5.677632e-09	2.787107e+01	3.714416e+02
2.230000e-06	3.826580e-06	5.609062e-09	2.691963e+01	3.674737e+02
2.240000e-06	3.689872e-06	5.546768e-09	2.595791e+01	3.633349e+02
2.250000e-06	3.551736e-06	5.491865e-09	2.498613e+01	3.590420e+02
2.260000e-06	3.412265e-06	5.426972e-09	2.400497e+01	3.546083e+02
2.270000e-06	3.271563e-06	5.353855e-09	2.301514e+01	3.500382e+02
2.280000e-06	3.129641e-06	5.283741e-09	2.201673e+01	3.453243e+02
2.290000e-06	2.986455e-06	5.206894e-09	2.100943e+01	3.404443e+02
2.300000e-06	2.842152e-06	5.121611e-09	1.999428e+01	3.353621e+02
2.310000e-06	2.696872e-06	5.039844e-09	1.897224e+01	3.300297e+02
2.320000e-06	2.550662e-06	4.960245e-09	1.794367e+01	3.243918e+02
2.330000e-06	2.403632e-06	4.863587e-09	1.690933e+01	3.183909e+02
2.340000e-06	2.255748e-06	4.757308e-09	1.586898e+01	3.119730e+02
2.350000e-06	2.107008e-06	4.659533e-09	1.482260e+01	3.050922e+02
2.360000e-06	1.957513e-06	4.557299e-09	1.377092e+01	2.977137e+02
2.370000e-06	1.807314e-06	4.436426e-09	1.271428e+01	2.898130e+02
2.380000e-06	1.656526e-06	4.305649e-09	1.165351e+01	2.813733e+02
2.390000e-06	1.505196e-06	4.173058e-09	1.058892e+01	2.723792e+02
2.400000e-06	1.353339e-06	4.029551e-09	9.520615e+00	2.628082e+02
2.410000e-06	1.200951e-06	3.873476e-09	8.448576e+00	2.526219e+02
2.420000e-06	1.048137e-06	3.710254e-09	7.373550e+00	2.417565e+02
2.430000e-06	8.949421e-07	3.533247e-09	6.295834e+00	2.301168e+02
2.440000e-06	7.413534e-07	3.336253e-09	5.215352e+00	2.175733e+02
2.450000e-06	5.875271e-07	3.123526e-09	4.133198e+00	2.039644e+02
2.460000e-06	4.335498e-07	2.896632e-09	3.049983e+00	1.891046e+02
2.470000e-06	2.793949e-07	2.647113e-09	1.965517e+00	1.727977e+02
2.480000e-06	1.251309e-07	2.369775e-09	8.802841e-01	1.548559e+02
2.490000e-06	-2.916198e-08	2.070970e-09	-2.051518e-01	1.351208e+02
2.500000e-06	-1.834061e-07	1.749631e-09	-1.290245e+00	1.134861e+02
2.510000e-06	-3.375806e-07	1.396160e-09	-2.374848e+00	8.991887e+01
2.520000e-06	-4.916743e-07	1.013308e-09	-3.458883e+00	6.447613e+01
2.530000e-06	-6.455472e-07	6.060941e-10	-4.541365e+00	3.731547e+01
2.540000e-06	-7.991313e-07	1.742449e-10	-5.621814e+00	8.697305e+00
2.550000e-06	-9.524012e-07	-2.794618e-10	-6.700054e+00	-2.102193e+01
2.560000e-06	-1.105325e-06	-7.460262e-10	-7.775859e+00	-5.140555e+01
2.570000e-06	-1.257833e-06	-1.215909e-09	-8.848737e+00	-8.196027e+01
2.580000e-06	-1.409828e-06	-1.683215e-09	-9.918006e+00	-1.121658e+02
2.590000e-06	-1.561287e-06	-2.138898e-09	-1.098351e+01	-1.415076e+02
2.600000e-06	-1.712219e-06	-2.571427e-09	-1.204530e+01	-1.695098e+02
2.610000e-06	-1.862563e-06	-2.975006e-09	-1.310295e+01	-1.957649e+02
2.620000e-06	-2.012212e-06	-3.345808e-09	-1.415573e+01	-2.199576e+02
2.630000e-06	-2.161117e-06	-3.678174e-09	-1.520325e+01	-2.418807e+02
2.640000e-06	-2.309276e-06	-3.971156e-09	-1.624554e+01	-2.614416e+02
2.650000e-06	-2.456673e-06	-4.228034e-09	-1.728247e+01	-2.786589e+02
2.660000e-06	-2.603210e-06	-4.452734e-09	-1.831334e+01	-2.936499e+02
2.670000e-06	-2.748841e-06	-4.649291e-09	-1.933784e+01	-3.066117e+02
2.680000e-06	-2.893496e-06	-4.821300e-09	-2.035548e+01	-3.177962e+02
2.690000e-06	-3.036995e-06	-4.973219e-09	-2.136498e+01	-3.274844e+02
2.700000e-06	-3.179276e-06	-5.107937e-09	-2.236591e+01	-3.359600e+02
2.710000e-06	-3.320360e-06	-5.228442e-09	-2.335843e+01	-3.434872e+02
2.720000e-06	-3.460226e-06	-5.336913e-09	-2.434237e+01	-3.502935e+02
2.730000e-06	-3.598835e-06	-5.435108e-09	-2.531747e+01	-3.565590e+02
2.740000e-06	-3.736087e-06	-5.525594e-09	-2.628302e+01	-3.624125e+02
2.750000e-06	-3.871896e-06	-5.608741e-09	-2.723843e+01	-3.679337e+02
2.760000e-06	-4.006292e-06	-5.687285e-09	-2.818389e+01	-3.731611e+02
2.770000e-06	-4.139297e-06	-5.761696e-09	-2.911957e+01	-3.781028e+02
2.780000e-06	-4.270840e-06	-5.831322e-09	-3.004496e+01	-3.827494e+02
2.790000e-06	-4.400909e-06	-5.894767e-09	-3.095999e+01	-3.870859e+02
2.800000e-06	-4.529442e-06	-5.952349e-09	-3.186420e+01	-3.911019e+02
2.810000e-06	-4.656281e-06	-6.006588e-09	-3.275651e+01	-3.947990e+02
2.820000e-06	-4.781502e-06	-6.061103e-09	-3.363742e+01	-3.981936e+02
2.830000e-06	-4.905075e-06	-6.115076e-09	-3.450674e+01	-4.013166e+02
2.840000e-06	-5.026916e-06	-6.164600e-09	-3.536389e+01	-4.042103e+02
2.850000e-06	-5.146889e-06	-6.210880e-09	-3.620789e+01	-4.069223e+02
2.860000e-06	-5.264840e-06	-6.256574e-09	-3.703766e+01	-4.094992e+02
2.870000e-06	-5.380669e-06	-6.301619e-09	-3.785251e+01	-4.119807e+02
2.880000e-06	-5.494287e-06	-6.342707e-09	-3.865179e+01	-4.143945e+02
2.890000e-06	-5.605772e-06	-6.379382e-09	-3.943608e+01	-4.167542e+02
2.900000e-06	-5.715259e-06	-6.414931e-09	-4.020632e+01	-4.190588e+02
2.910000e-06	-5.822833e-06	-6.448646e-09	-4.096309e+01	-4.212953e+02
2.920000e-06	-5.928463e-06	-6.479773e-09	-4.170618e+01	-4.234426e+02
2.930000e-06	-6.031981e-06	-6.508750e-09	-4.243442e+01	-4.254766e+02
2.940000e-06	-6.133270e-06	-6.535742e-09	-4.314698e+01	-4.273757e+02
