# Temperatura_=_20.0
# Concentracion g/m^3_=_9000.0
# C_Vs_to_Am_M_A/Vsm_=_65563218390.804596
# pendiente_HvsI_1/m_=_3716.3
# ordenada_HvsI_A/m_=_1297.0
# frecuencia_Hz_=_301294.099335604

Tiempo_(s)	Campo_(V.s)	Magnetizacion_(V.s)	Campo_(kA/m)	Magnetizacion_(A/m)
0.000000e+00	-8.104221e-06	-6.926779e-09	-5.697949e+01	-4.546844e+02
1.000000e-08	-8.101874e-06	-6.927777e-09	-5.696299e+01	-4.545821e+02
2.000000e-08	-8.096833e-06	-6.928023e-09	-5.692755e+01	-4.544816e+02
3.000000e-08	-8.089202e-06	-6.925588e-09	-5.687390e+01	-4.543761e+02
4.000000e-08	-8.078765e-06	-6.921438e-09	-5.680051e+01	-4.542521e+02
5.000000e-08	-8.065319e-06	-6.915972e-09	-5.670597e+01	-4.540921e+02
6.000000e-08	-8.048938e-06	-6.910754e-09	-5.659080e+01	-4.538776e+02
7.000000e-08	-8.030073e-06	-6.908251e-09	-5.645816e+01	-4.535916e+02
8.000000e-08	-8.008906e-06	-6.908459e-09	-5.630935e+01	-4.532224e+02
9.000000e-08	-7.984954e-06	-6.926936e-09	-5.614094e+01	-4.527651e+02
1.000000e-07	-7.957817e-06	-6.934027e-09	-5.595015e+01	-4.522228e+02
1.100000e-07	-7.927602e-06	-6.908220e-09	-5.573771e+01	-4.516061e+02
1.200000e-07	-7.894446e-06	-6.874020e-09	-5.550459e+01	-4.509318e+02
1.300000e-07	-7.858492e-06	-6.856907e-09	-5.525181e+01	-4.502198e+02
1.400000e-07	-7.820189e-06	-6.856765e-09	-5.498251e+01	-4.494902e+02
1.500000e-07	-7.779637e-06	-6.832771e-09	-5.469739e+01	-4.487602e+02
1.600000e-07	-7.736526e-06	-6.816711e-09	-5.439428e+01	-4.480408e+02
1.700000e-07	-7.690648e-06	-6.828644e-09	-5.407172e+01	-4.473355e+02
1.800000e-07	-7.641958e-06	-6.792749e-09	-5.372939e+01	-4.466394e+02
1.900000e-07	-7.590274e-06	-6.808272e-09	-5.336601e+01	-4.459400e+02
2.000000e-07	-7.535545e-06	-6.806690e-09	-5.298122e+01	-4.452196e+02
2.100000e-07	-7.478057e-06	-6.763712e-09	-5.257703e+01	-4.444575e+02
2.200000e-07	-7.417990e-06	-6.758168e-09	-5.215471e+01	-4.436337e+02
2.300000e-07	-7.355398e-06	-6.748895e-09	-5.171464e+01	-4.427317e+02
2.400000e-07	-7.290125e-06	-6.749706e-09	-5.125571e+01	-4.417414e+02
2.500000e-07	-7.222074e-06	-6.707494e-09	-5.077725e+01	-4.406598e+02
2.600000e-07	-7.151344e-06	-6.699344e-09	-5.027997e+01	-4.394915e+02
2.700000e-07	-7.077878e-06	-6.690762e-09	-4.976344e+01	-4.382471e+02
2.800000e-07	-7.001682e-06	-6.667296e-09	-4.922771e+01	-4.369411e+02
2.900000e-07	-6.922773e-06	-6.649438e-09	-4.867292e+01	-4.355889e+02
3.000000e-07	-6.841228e-06	-6.632298e-09	-4.809959e+01	-4.342033e+02
3.100000e-07	-6.757272e-06	-6.613370e-09	-4.750931e+01	-4.327921e+02
3.200000e-07	-6.671070e-06	-6.573146e-09	-4.690323e+01	-4.313562e+02
3.300000e-07	-6.582623e-06	-6.563923e-09	-4.628138e+01	-4.298889e+02
3.400000e-07	-6.491780e-06	-6.549679e-09	-4.564267e+01	-4.283767e+02
3.500000e-07	-6.398583e-06	-6.507678e-09	-4.498742e+01	-4.268011e+02
3.600000e-07	-6.303136e-06	-6.471302e-09	-4.431635e+01	-4.251420e+02
3.700000e-07	-6.205419e-06	-6.459172e-09	-4.362932e+01	-4.233806e+02
3.800000e-07	-6.105410e-06	-6.431575e-09	-4.292617e+01	-4.215025e+02
3.900000e-07	-6.003135e-06	-6.388815e-09	-4.220709e+01	-4.195008e+02
4.000000e-07	-5.898766e-06	-6.365234e-09	-4.147328e+01	-4.173765e+02
4.100000e-07	-5.792372e-06	-6.340382e-09	-4.072525e+01	-4.151389e+02
4.200000e-07	-5.683906e-06	-6.298017e-09	-3.996264e+01	-4.128036e+02
4.300000e-07	-5.573362e-06	-6.261383e-09	-3.918542e+01	-4.103898e+02
4.400000e-07	-5.460665e-06	-6.239297e-09	-3.839307e+01	-4.079168e+02
4.500000e-07	-5.345800e-06	-6.197666e-09	-3.758547e+01	-4.053995e+02
4.600000e-07	-5.228953e-06	-6.146752e-09	-3.676394e+01	-4.028460e+02
4.700000e-07	-5.110181e-06	-6.110126e-09	-3.592887e+01	-4.002548e+02
4.800000e-07	-4.989491e-06	-6.077494e-09	-3.508032e+01	-3.976140e+02
4.900000e-07	-4.866986e-06	-6.025047e-09	-3.421900e+01	-3.949027e+02
5.000000e-07	-4.742752e-06	-5.974587e-09	-3.334554e+01	-3.920932e+02
5.100000e-07	-4.616878e-06	-5.936323e-09	-3.246053e+01	-3.891546e+02
5.200000e-07	-4.489294e-06	-5.890992e-09	-3.156351e+01	-3.860576e+02
5.300000e-07	-4.360102e-06	-5.835634e-09	-3.065518e+01	-3.827782e+02
5.400000e-07	-4.229366e-06	-5.785024e-09	-2.973600e+01	-3.793010e+02
5.500000e-07	-4.097072e-06	-5.736798e-09	-2.880586e+01	-3.756215e+02
5.600000e-07	-3.963318e-06	-5.674335e-09	-2.786546e+01	-3.717453e+02
5.700000e-07	-3.828088e-06	-5.612100e-09	-2.691468e+01	-3.676867e+02
5.800000e-07	-3.691400e-06	-5.554749e-09	-2.595365e+01	-3.634644e+02
5.900000e-07	-3.553334e-06	-5.491206e-09	-2.498293e+01	-3.590970e+02
6.000000e-07	-3.413841e-06	-5.414126e-09	-2.400217e+01	-3.545976e+02
6.100000e-07	-3.272916e-06	-5.341681e-09	-2.301135e+01	-3.499692e+02
6.200000e-07	-3.130718e-06	-5.273609e-09	-2.201158e+01	-3.452008e+02
6.300000e-07	-2.987360e-06	-5.193509e-09	-2.100365e+01	-3.402665e+02
6.400000e-07	-2.842929e-06	-5.105589e-09	-1.998818e+01	-3.351262e+02
6.500000e-07	-2.697487e-06	-5.020737e-09	-1.896560e+01	-3.297286e+02
6.600000e-07	-2.551089e-06	-4.936208e-09	-1.793630e+01	-3.240160e+02
6.700000e-07	-2.403806e-06	-4.840501e-09	-1.690078e+01	-3.179304e+02
6.800000e-07	-2.255707e-06	-4.741203e-09	-1.585952e+01	-3.114188e+02
6.900000e-07	-2.106915e-06	-4.637223e-09	-1.481339e+01	-3.044377e+02
7.000000e-07	-1.957438e-06	-4.523521e-09	-1.376243e+01	-2.969556e+02
7.100000e-07	-1.807190e-06	-4.402371e-09	-1.270607e+01	-2.889518e+02
7.200000e-07	-1.656257e-06	-4.278232e-09	-1.164488e+01	-2.804123e+02
7.300000e-07	-1.504739e-06	-4.142258e-09	-1.057958e+01	-2.713233e+02
7.400000e-07	-1.352672e-06	-3.989304e-09	-9.510422e+00	-2.616620e+02
7.500000e-07	-1.200127e-06	-3.832595e-09	-8.437900e+00	-2.513866e+02
7.600000e-07	-1.047211e-06	-3.670115e-09	-7.362775e+00	-2.404275e+02
7.700000e-07	-8.939353e-07	-3.491490e-09	-6.285117e+00	-2.286814e+02
7.800000e-07	-7.403610e-07	-3.291181e-09	-5.205360e+00	-2.160086e+02
7.900000e-07	-5.865422e-07	-3.074582e-09	-4.123885e+00	-2.022369e+02
8.000000e-07	-4.324600e-07	-2.841115e-09	-3.040557e+00	-1.871705e+02
8.100000e-07	-2.782387e-07	-2.585511e-09	-1.956252e+00	-1.706049e+02
8.200000e-07	-1.239312e-07	-2.303536e-09	-8.713408e-01	-1.523470e+02
8.300000e-07	3.043161e-08	-1.993928e-09	2.139598e-01	-1.322375e+02
8.400000e-07	1.847836e-07	-1.657208e-09	1.299184e+00	-1.101743e+02
8.500000e-07	3.390744e-07	-1.292163e-09	2.383978e+00	-8.613382e+01
8.600000e-07	4.932148e-07	-9.024240e-10	3.467715e+00	-6.018748e+01
8.700000e-07	6.471380e-07	-4.868135e-10	4.549924e+00	-3.251164e+01
8.800000e-07	8.008200e-07	-4.681539e-11	5.630438e+00	-3.388490e+00
8.900000e-07	9.542091e-07	4.135466e-10	6.708893e+00	2.680229e+01
9.000000e-07	1.107224e-06	8.859523e-10	7.784716e+00	5.760114e+01
9.100000e-07	1.259826e-06	1.361470e-09	8.857635e+00	8.849407e+01
9.200000e-07	1.411983e-06	1.832160e-09	9.927426e+00	1.189440e+02
9.300000e-07	1.563673e-06	2.287741e-09	1.099394e+01	1.484248e+02
9.400000e-07	1.714867e-06	2.721438e-09	1.205696e+01	1.764552e+02
9.500000e-07	1.865443e-06	3.124785e-09	1.311564e+01	2.026288e+02
9.600000e-07	2.015308e-06	3.489334e-09	1.416931e+01	2.266379e+02
9.700000e-07	2.164414e-06	3.811620e-09	1.521765e+01	2.482885e+02
9.800000e-07	2.312742e-06	4.095592e-09	1.626052e+01	2.675057e+02
9.900000e-07	2.460277e-06	4.342508e-09	1.729781e+01	2.843286e+02
1.000000e-06	2.606821e-06	4.553929e-09	1.832815e+01	2.988965e+02
1.010000e-06	2.752380e-06	4.738127e-09	1.935155e+01	3.114279e+02
1.020000e-06	2.897089e-06	4.902422e-09	2.036897e+01	3.221945e+02
1.030000e-06	3.040836e-06	5.050754e-09	2.137963e+01	3.314934e+02
1.040000e-06	3.183444e-06	5.183370e-09	2.238229e+01	3.396205e+02
1.050000e-06	3.324781e-06	5.303172e-09	2.337601e+01	3.468478e+02
1.060000e-06	3.464850e-06	5.409429e-09	2.436081e+01	3.534061e+02
1.070000e-06	3.603596e-06	5.505393e-09	2.533631e+01	3.594747e+02
1.080000e-06	3.740957e-06	5.592768e-09	2.630208e+01	3.651778e+02
1.090000e-06	3.876962e-06	5.672830e-09	2.725830e+01	3.705888e+02
1.100000e-06	4.011519e-06	5.746282e-09	2.820435e+01	3.757379e+02
1.110000e-06	4.144597e-06	5.813107e-09	2.914001e+01	3.806250e+02
1.120000e-06	4.276240e-06	5.877313e-09	3.006556e+01	3.852327e+02
1.130000e-06	4.406338e-06	5.939624e-09	3.098026e+01	3.895396e+02
1.140000e-06	4.534858e-06	5.999624e-09	3.188387e+01	3.935305e+02
1.150000e-06	4.661749e-06	6.054779e-09	3.277602e+01	3.972037e+02
1.160000e-06	4.786982e-06	6.106412e-09	3.365651e+01	4.005745e+02
1.170000e-06	4.910521e-06	6.155725e-09	3.452510e+01	4.036740e+02
1.180000e-06	5.032296e-06	6.200719e-09	3.538127e+01	4.065457e+02
1.190000e-06	5.152330e-06	6.240767e-09	3.622521e+01	4.092389e+02
1.200000e-06	5.270483e-06	6.279066e-09	3.705593e+01	4.118021e+02
1.210000e-06	5.386615e-06	6.315393e-09	3.787243e+01	4.142764e+02
1.220000e-06	5.500644e-06	6.350161e-09	3.867415e+01	4.166905e+02
1.230000e-06	5.612556e-06	6.384450e-09	3.946099e+01	4.190577e+02
1.240000e-06	5.722446e-06	6.417285e-09	4.023361e+01	4.213765e+02
1.250000e-06	5.830397e-06	6.448628e-09	4.099259e+01	4.236322e+02
1.260000e-06	5.936318e-06	6.478131e-09	4.173731e+01	4.258021e+02
1.270000e-06	6.040061e-06	6.506360e-09	4.246671e+01	4.278599e+02
1.280000e-06	6.141602e-06	6.533964e-09	4.318062e+01	4.297824e+02
1.290000e-06	6.240958e-06	6.560286e-09	4.387918e+01	4.315535e+02
1.300000e-06	6.338031e-06	6.584417e-09	4.456169e+01	4.331678e+02
1.310000e-06	6.432763e-06	6.605974e-09	4.522774e+01	4.346318e+02
1.320000e-06	6.525268e-06	6.627118e-09	4.587812e+01	4.359631e+02
1.330000e-06	6.615504e-06	6.647340e-09	4.651256e+01	4.371876e+02
1.340000e-06	6.703381e-06	6.667181e-09	4.713040e+01	4.383355e+02
1.350000e-06	6.788938e-06	6.687624e-09	4.773195e+01	4.394367e+02
1.360000e-06	6.872134e-06	6.707044e-09	4.831688e+01	4.405163e+02
1.370000e-06	6.952835e-06	6.723747e-09	4.888428e+01	4.415910e+02
1.380000e-06	7.031044e-06	6.739330e-09	4.943415e+01	4.426674e+02
1.390000e-06	7.106704e-06	6.755511e-09	4.996611e+01	4.437414e+02
1.400000e-06	7.179650e-06	6.769808e-09	5.047898e+01	4.447999e+02
1.410000e-06	7.249982e-06	6.783168e-09	5.097347e+01	4.458240e+02
1.420000e-06	7.317853e-06	6.796702e-09	5.145066e+01	4.467920e+02
1.430000e-06	7.383128e-06	6.810661e-09	5.190960e+01	4.476846e+02
1.440000e-06	7.445758e-06	6.824633e-09	5.234994e+01	4.484874e+02
1.450000e-06	7.505824e-06	6.837781e-09	5.277226e+01	4.491942e+02
1.460000e-06	7.563219e-06	6.849237e-09	5.317579e+01	4.498077e+02
1.470000e-06	7.617883e-06	6.858679e-09	5.356012e+01	4.503390e+02
1.480000e-06	7.669611e-06	6.868019e-09	5.392382e+01	4.508060e+02
1.490000e-06	7.718149e-06	6.876204e-09	5.426508e+01	4.512299e+02
1.500000e-06	7.763781e-06	6.883980e-09	5.458591e+01	4.516320e+02
1.510000e-06	7.806763e-06	6.891768e-09	5.488811e+01	4.520302e+02
1.520000e-06	7.846930e-06	6.899403e-09	5.517052e+01	4.524360e+02
1.530000e-06	7.884300e-06	6.907352e-09	5.543326e+01	4.528529e+02
1.540000e-06	7.919019e-06	6.913817e-09	5.567736e+01	4.532762e+02
1.550000e-06	7.950962e-06	6.919524e-09	5.590195e+01	4.536941e+02
1.560000e-06	7.980149e-06	6.925207e-09	5.610716e+01	4.540898e+02
1.570000e-06	8.006544e-06	6.929824e-09	5.629274e+01	4.544447e+02
1.580000e-06	8.029948e-06	6.933085e-09	5.645729e+01	4.547418e+02
1.590000e-06	8.050563e-06	6.936347e-09	5.660223e+01	4.549686e+02
1.600000e-06	8.068403e-06	6.939124e-09	5.672766e+01	4.551190e+02
1.610000e-06	8.083286e-06	6.942456e-09	5.683230e+01	4.551945e+02
1.620000e-06	8.095151e-06	6.945361e-09	5.691572e+01	4.552037e+02
1.630000e-06	8.103902e-06	6.949206e-09	5.697725e+01	4.551605e+02
1.640000e-06	8.109747e-06	6.954878e-09	5.701834e+01	4.550817e+02
1.650000e-06	8.112826e-06	6.958181e-09	5.703999e+01	4.549838e+02
1.660000e-06	8.113041e-06	6.957304e-09	5.704150e+01	4.548801e+02
1.670000e-06	8.110525e-06	6.951604e-09	5.702381e+01	4.547779e+02
1.680000e-06	8.105338e-06	6.947585e-09	5.698734e+01	4.546774e+02
1.690000e-06	8.097391e-06	6.943147e-09	5.693147e+01	4.545714e+02
1.700000e-06	8.086775e-06	6.938865e-09	5.685683e+01	4.544463e+02
1.710000e-06	8.073328e-06	6.935589e-09	5.676229e+01	4.542847e+02
1.720000e-06	8.057070e-06	6.931007e-09	5.664798e+01	4.540678e+02
1.730000e-06	8.038421e-06	6.923599e-09	5.651686e+01	4.537790e+02
1.740000e-06	8.017398e-06	6.901525e-09	5.636905e+01	4.534067e+02
1.750000e-06	7.993303e-06	6.865046e-09	5.619964e+01	4.529462e+02
1.760000e-06	7.965464e-06	6.865924e-09	5.600391e+01	4.524010e+02
1.770000e-06	7.934070e-06	6.887065e-09	5.578318e+01	4.517819e+02
1.780000e-06	7.899996e-06	6.894824e-09	5.554362e+01	4.511058e+02
1.790000e-06	7.863678e-06	6.879882e-09	5.528827e+01	4.503927e+02
1.800000e-06	7.824997e-06	6.889584e-09	5.501631e+01	4.496629e+02
1.810000e-06	7.784210e-06	6.852080e-09	5.472954e+01	4.489330e+02
1.820000e-06	7.741097e-06	6.817913e-09	5.442643e+01	4.482141e+02
1.830000e-06	7.695164e-06	6.856121e-09	5.410347e+01	4.475092e+02
1.840000e-06	7.646487e-06	6.806524e-09	5.376123e+01	4.468132e+02
1.850000e-06	7.594844e-06	6.807300e-09	5.339814e+01	4.461134e+02
1.860000e-06	7.540230e-06	6.804686e-09	5.301416e+01	4.453918e+02
1.870000e-06	7.482873e-06	6.780673e-09	5.261089e+01	4.446277e+02
1.880000e-06	7.422780e-06	6.772282e-09	5.218838e+01	4.438013e+02
1.890000e-06	7.360055e-06	6.736868e-09	5.174737e+01	4.428963e+02
1.900000e-06	7.294528e-06	6.755710e-09	5.128666e+01	4.419027e+02
1.910000e-06	7.226163e-06	6.711216e-09	5.080600e+01	4.408179e+02
1.920000e-06	7.155053e-06	6.691363e-09	5.030604e+01	4.396466e+02
1.930000e-06	7.081347e-06	6.699087e-09	4.978782e+01	4.383996e+02
1.940000e-06	7.004933e-06	6.669414e-09	4.925057e+01	4.370917e+02
1.950000e-06	6.925686e-06	6.639871e-09	4.869340e+01	4.357380e+02
1.960000e-06	6.844027e-06	6.610434e-09	4.811927e+01	4.343513e+02
1.970000e-06	6.759963e-06	6.620627e-09	4.752822e+01	4.329393e+02
1.980000e-06	6.673339e-06	6.580869e-09	4.691919e+01	4.315024e+02
1.990000e-06	6.584348e-06	6.546507e-09	4.629351e+01	4.300338e+02
2.000000e-06	6.493138e-06	6.537967e-09	4.565222e+01	4.285195e+02
2.010000e-06	6.399643e-06	6.512985e-09	4.499488e+01	4.269413e+02
2.020000e-06	6.303744e-06	6.479471e-09	4.432062e+01	4.252788e+02
2.030000e-06	6.205644e-06	6.454892e-09	4.363090e+01	4.235133e+02
2.040000e-06	6.105426e-06	6.439660e-09	4.292628e+01	4.216309e+02
2.050000e-06	6.002962e-06	6.389050e-09	4.220587e+01	4.196247e+02
2.060000e-06	5.898273e-06	6.351397e-09	4.146982e+01	4.174961e+02
2.070000e-06	5.791555e-06	6.334493e-09	4.071950e+01	4.152546e+02
2.080000e-06	5.682813e-06	6.304189e-09	3.995496e+01	4.129161e+02
2.090000e-06	5.571930e-06	6.247277e-09	3.917535e+01	4.104999e+02
2.100000e-06	5.458990e-06	6.209115e-09	3.838129e+01	4.080250e+02
2.110000e-06	5.343916e-06	6.188703e-09	3.757222e+01	4.055063e+02
2.120000e-06	5.226711e-06	6.151853e-09	3.674818e+01	4.029515e+02
2.130000e-06	5.107538e-06	6.105422e-09	3.591029e+01	4.003587e+02
2.140000e-06	4.986544e-06	6.066032e-09	3.505960e+01	3.977158e+02
2.150000e-06	4.863708e-06	6.025528e-09	3.419596e+01	3.950015e+02
2.160000e-06	4.739071e-06	5.974838e-09	3.331966e+01	3.921878e+02
2.170000e-06	4.612790e-06	5.930528e-09	3.243179e+01	3.892440e+02
2.180000e-06	4.484863e-06	5.885177e-09	3.153236e+01	3.861408e+02
2.190000e-06	4.355303e-06	5.827357e-09	3.062145e+01	3.828545e+02
2.200000e-06	4.224196e-06	5.766826e-09	2.969965e+01	3.793701e+02
2.210000e-06	4.091605e-06	5.720120e-09	2.876743e+01	3.756834e+02
2.220000e-06	3.957572e-06	5.670453e-09	2.782506e+01	3.718003e+02
2.230000e-06	3.822124e-06	5.604535e-09	2.687275e+01	3.677354e+02
2.240000e-06	3.685257e-06	5.537247e-09	2.591046e+01	3.635076e+02
2.250000e-06	3.546970e-06	5.478489e-09	2.493819e+01	3.591353e+02
2.260000e-06	3.407309e-06	5.415210e-09	2.395625e+01	3.546313e+02
2.270000e-06	3.266439e-06	5.342983e-09	2.296581e+01	3.499981e+02
2.280000e-06	3.124442e-06	5.269637e-09	2.196745e+01	3.452242e+02
2.290000e-06	2.981200e-06	5.192393e-09	2.096034e+01	3.402833e+02
2.300000e-06	2.836766e-06	5.108157e-09	1.994485e+01	3.351348e+02
2.310000e-06	2.691375e-06	5.026410e-09	1.892263e+01	3.297269e+02
2.320000e-06	2.545081e-06	4.944769e-09	1.789406e+01	3.240019e+02
2.330000e-06	2.397841e-06	4.847442e-09	1.685884e+01	3.179019e+02
2.340000e-06	2.249705e-06	4.739828e-09	1.581732e+01	3.113741e+02
2.350000e-06	2.100780e-06	4.638630e-09	1.477025e+01	3.043756e+02
2.360000e-06	1.951198e-06	4.534745e-09	1.371856e+01	2.968751e+02
2.370000e-06	1.801013e-06	4.411651e-09	1.266264e+01	2.888523e+02
2.380000e-06	1.650204e-06	4.276562e-09	1.160232e+01	2.802934e+02
2.390000e-06	1.498768e-06	4.141712e-09	1.053760e+01	2.711845e+02
2.400000e-06	1.346768e-06	4.000988e-09	9.468914e+00	2.615020e+02
2.410000e-06	1.194231e-06	3.845278e-09	8.396445e+00	2.512035e+02
2.420000e-06	1.041213e-06	3.677057e-09	7.320605e+00	2.402183e+02
2.430000e-06	8.878959e-07	3.496212e-09	6.242655e+00	2.284416e+02
2.440000e-06	7.343313e-07	3.298297e-09	5.162966e+00	2.157327e+02
2.450000e-06	5.805093e-07	3.083484e-09	4.081468e+00	2.019182e+02
2.460000e-06	4.264673e-07	2.852120e-09	2.998424e+00	1.868017e+02
2.470000e-06	2.722809e-07	2.598451e-09	1.914364e+00	1.701788e+02
2.480000e-06	1.179835e-07	2.316482e-09	8.295232e-01	1.518572e+02
2.490000e-06	-3.632826e-08	2.009397e-09	-2.554182e-01	1.316793e+02
2.500000e-06	-1.905351e-07	1.678673e-09	-1.339622e+00	1.095453e+02
2.510000e-06	-3.446473e-07	1.318658e-09	-2.423160e+00	8.543484e+01
2.520000e-06	-4.986417e-07	9.284577e-10	-3.505871e+00	5.942301e+01
2.530000e-06	-6.524704e-07	5.121821e-10	-4.587416e+00	3.168997e+01
2.540000e-06	-8.061280e-07	7.280685e-11	-5.667758e+00	2.521570e+00
2.550000e-06	-9.595264e-07	-3.880351e-10	-6.746278e+00	-2.769930e+01
2.560000e-06	-1.112566e-06	-8.625688e-10	-7.822278e+00	-5.851063e+01
2.570000e-06	-1.265231e-06	-1.339752e-09	-8.895637e+00	-8.939707e+01
2.580000e-06	-1.417401e-06	-1.810587e-09	-9.965520e+00	-1.198213e+02
2.590000e-06	-1.568954e-06	-2.267051e-09	-1.103106e+01	-1.492583e+02
2.600000e-06	-1.719846e-06	-2.699207e-09	-1.209196e+01	-1.772289e+02
2.610000e-06	-1.870083e-06	-3.100210e-09	-1.314826e+01	-2.033299e+02
2.620000e-06	-2.019707e-06	-3.468275e-09	-1.420024e+01	-2.272574e+02
2.630000e-06	-2.168765e-06	-3.795288e-09	-1.524824e+01	-2.488218e+02
2.640000e-06	-2.317174e-06	-4.079037e-09	-1.629168e+01	-2.679522e+02
2.650000e-06	-2.464677e-06	-4.325354e-09	-1.732875e+01	-2.846916e+02
2.660000e-06	-2.611181e-06	-4.541976e-09	-1.835880e+01	-2.991827e+02
2.670000e-06	-2.756777e-06	-4.731789e-09	-1.938246e+01	-3.116463e+02
2.680000e-06	-2.901428e-06	-4.894610e-09	-2.039948e+01	-3.223553e+02
2.690000e-06	-3.044941e-06	-5.039767e-09	-2.140850e+01	-3.316073e+02
2.700000e-06	-3.187244e-06	-5.170255e-09	-2.240901e+01	-3.396978e+02
2.710000e-06	-3.328338e-06	-5.286180e-09	-2.340102e+01	-3.468976e+02
2.720000e-06	-3.468160e-06	-5.390974e-09	-2.438408e+01	-3.534358e+02
2.730000e-06	-3.606686e-06	-5.486454e-09	-2.535803e+01	-3.594895e+02
2.740000e-06	-3.743975e-06	-5.573211e-09	-2.632329e+01	-3.651813e+02
2.750000e-06	-3.879854e-06	-5.651940e-09	-2.727863e+01	-3.705826e+02
2.760000e-06	-4.014183e-06	-5.726897e-09	-2.822308e+01	-3.757225e+02
2.770000e-06	-4.147180e-06	-5.798633e-09	-2.915817e+01	-3.806000e+02
2.780000e-06	-4.278727e-06	-5.866135e-09	-3.008305e+01	-3.851975e+02
2.790000e-06	-4.408717e-06	-5.929141e-09	-3.099699e+01	-3.894933e+02
2.800000e-06	-4.537262e-06	-5.988047e-09	-3.190077e+01	-3.934728e+02
2.810000e-06	-4.664173e-06	-6.043541e-09	-3.279306e+01	-3.971349e+02
2.820000e-06	-4.789443e-06	-6.097762e-09	-3.367381e+01	-4.004954e+02
2.830000e-06	-4.913085e-06	-6.149621e-09	-3.454312e+01	-4.035861e+02
2.840000e-06	-5.034921e-06	-6.197248e-09	-3.539973e+01	-4.064505e+02
2.850000e-06	-5.154807e-06	-6.243528e-09	-3.624263e+01	-4.091383e+02
2.860000e-06	-5.272741e-06	-6.288994e-09	-3.707180e+01	-4.116978e+02
2.870000e-06	-5.388624e-06	-6.332636e-09	-3.788656e+01	-4.141696e+02
2.880000e-06	-5.502277e-06	-6.373184e-09	-3.868564e+01	-4.165819e+02
2.890000e-06	-5.613776e-06	-6.408992e-09	-3.946957e+01	-4.189475e+02
2.900000e-06	-5.723253e-06	-6.443375e-09	-4.023928e+01	-4.212644e+02
2.910000e-06	-5.830787e-06	-6.477832e-09	-4.099533e+01	-4.235176e+02
2.920000e-06	-5.936337e-06	-6.509702e-09	-4.173744e+01	-4.256839e+02
2.930000e-06	-6.039751e-06	-6.538566e-09	-4.246453e+01	-4.277374e+02
2.940000e-06	-6.140982e-06	-6.564761e-09	-4.317627e+01	-4.296547e+02
