# Temperatura_=_20.0
# Concentracion g/m^3_=_9000.0
# C_Vs_to_Am_M_A/Vsm_=_65563218390.804596
# pendiente_HvsI_1/m_=_3716.3
# ordenada_HvsI_A/m_=_1297.0
# frecuencia_Hz_=_301300.1116794504

Tiempo_(s)	Campo_(V.s)	Magnetizacion_(V.s)	Campo_(kA/m)	Magnetizacion_(A/m)
0.000000e+00	-8.092933e-06	-4.414227e-10	-5.697249e+01	-2.810630e+01
1.000000e-08	-8.090706e-06	-4.426189e-10	-5.695682e+01	-2.815238e+01
2.000000e-08	-8.085774e-06	-4.417522e-10	-5.692210e+01	-2.819156e+01
3.000000e-08	-8.078280e-06	-4.397148e-10	-5.686934e+01	-2.821981e+01
4.000000e-08	-8.067994e-06	-4.404595e-10	-5.679693e+01	-2.823316e+01
5.000000e-08	-8.054799e-06	-4.431329e-10	-5.670404e+01	-2.822809e+01
6.000000e-08	-8.038676e-06	-4.417680e-10	-5.659054e+01	-2.820212e+01
7.000000e-08	-8.019981e-06	-4.391261e-10	-5.645893e+01	-2.815412e+01
8.000000e-08	-7.999002e-06	-4.328350e-10	-5.631124e+01	-2.808456e+01
9.000000e-08	-7.975274e-06	-4.395384e-10	-5.614420e+01	-2.799562e+01
1.000000e-07	-7.948383e-06	-4.396674e-10	-5.595489e+01	-2.789102e+01
1.100000e-07	-7.918410e-06	-4.263537e-10	-5.574389e+01	-2.777567e+01
1.200000e-07	-7.885485e-06	-4.218866e-10	-5.551211e+01	-2.765519e+01
1.300000e-07	-7.849653e-06	-4.320480e-10	-5.525985e+01	-2.753534e+01
1.400000e-07	-7.811381e-06	-4.388890e-10	-5.499043e+01	-2.742138e+01
1.500000e-07	-7.770969e-06	-4.128525e-10	-5.470594e+01	-2.731747e+01
1.600000e-07	-7.728089e-06	-4.094339e-10	-5.440407e+01	-2.722629e+01
1.700000e-07	-7.682412e-06	-4.329275e-10	-5.408252e+01	-2.714871e+01
1.800000e-07	-7.633911e-06	-4.053772e-10	-5.374108e+01	-2.708378e+01
1.900000e-07	-7.582466e-06	-4.166159e-10	-5.337892e+01	-2.702884e+01
2.000000e-07	-7.528012e-06	-4.337272e-10	-5.299557e+01	-2.697992e+01
2.100000e-07	-7.470800e-06	-4.177309e-10	-5.259281e+01	-2.693221e+01
2.200000e-07	-7.410959e-06	-4.056528e-10	-5.217155e+01	-2.688059e+01
2.300000e-07	-7.348546e-06	-4.053279e-10	-5.173217e+01	-2.682027e+01
2.400000e-07	-7.283459e-06	-4.341646e-10	-5.127397e+01	-2.674719e+01
2.500000e-07	-7.215603e-06	-3.991334e-10	-5.079628e+01	-2.665843e+01
2.600000e-07	-7.145084e-06	-3.964417e-10	-5.029984e+01	-2.655238e+01
2.700000e-07	-7.071843e-06	-4.175820e-10	-4.978424e+01	-2.642872e+01
2.800000e-07	-6.995853e-06	-4.068217e-10	-4.924929e+01	-2.628822e+01
2.900000e-07	-6.917142e-06	-3.886902e-10	-4.869518e+01	-2.613249e+01
3.000000e-07	-6.835862e-06	-3.972953e-10	-4.812298e+01	-2.596352e+01
3.100000e-07	-6.752153e-06	-4.074160e-10	-4.753369e+01	-2.578336e+01
3.200000e-07	-6.666112e-06	-3.734670e-10	-4.692798e+01	-2.559368e+01
3.300000e-07	-6.577855e-06	-3.829444e-10	-4.630667e+01	-2.539565e+01
3.400000e-07	-6.487293e-06	-4.001259e-10	-4.566914e+01	-2.518973e+01
3.500000e-07	-6.394381e-06	-3.777659e-10	-4.501506e+01	-2.497578e+01
3.600000e-07	-6.299174e-06	-3.559678e-10	-4.434482e+01	-2.475322e+01
3.700000e-07	-6.201740e-06	-3.739089e-10	-4.365891e+01	-2.452128e+01
3.800000e-07	-6.102001e-06	-3.782896e-10	-4.295676e+01	-2.427935e+01
3.900000e-07	-5.999968e-06	-3.524553e-10	-4.223847e+01	-2.402722e+01
4.000000e-07	-5.895843e-06	-3.535993e-10	-4.150546e+01	-2.376535e+01
4.100000e-07	-5.789674e-06	-3.642575e-10	-4.075805e+01	-2.349491e+01
4.200000e-07	-5.681412e-06	-3.490158e-10	-3.999591e+01	-2.321783e+01
4.300000e-07	-5.571065e-06	-3.330037e-10	-3.921909e+01	-2.293653e+01
4.400000e-07	-5.458612e-06	-3.461899e-10	-3.842745e+01	-2.265373e+01
4.500000e-07	-5.344040e-06	-3.406883e-10	-3.762089e+01	-2.237204e+01
4.600000e-07	-5.227403e-06	-3.188883e-10	-3.679978e+01	-2.209360e+01
4.700000e-07	-5.108798e-06	-3.196829e-10	-3.596483e+01	-2.181982e+01
4.800000e-07	-4.988352e-06	-3.309260e-10	-3.511691e+01	-2.155109e+01
4.900000e-07	-4.866111e-06	-3.157165e-10	-3.425637e+01	-2.128674e+01
5.000000e-07	-4.742111e-06	-3.012878e-10	-3.338343e+01	-2.102512e+01
5.100000e-07	-4.616466e-06	-3.089423e-10	-3.249892e+01	-2.076378e+01
5.200000e-07	-4.489145e-06	-3.088726e-10	-3.160261e+01	-2.049981e+01
5.300000e-07	-4.360159e-06	-2.970669e-10	-3.069458e+01	-2.023027e+01
5.400000e-07	-4.229605e-06	-2.937723e-10	-2.977550e+01	-1.995251e+01
5.500000e-07	-4.097508e-06	-2.973620e-10	-2.884557e+01	-1.966451e+01
5.600000e-07	-3.963973e-06	-2.873272e-10	-2.790551e+01	-1.936515e+01
5.700000e-07	-3.828996e-06	-2.796957e-10	-2.695530e+01	-1.905420e+01
5.800000e-07	-3.692553e-06	-2.804962e-10	-2.599477e+01	-1.873225e+01
5.900000e-07	-3.554803e-06	-2.766114e-10	-2.502504e+01	-1.840046e+01
6.000000e-07	-3.415726e-06	-2.624027e-10	-2.404597e+01	-1.806025e+01
6.100000e-07	-3.275169e-06	-2.568587e-10	-2.305648e+01	-1.771283e+01
6.200000e-07	-3.133229e-06	-2.593982e-10	-2.205725e+01	-1.735887e+01
6.300000e-07	-2.990098e-06	-2.518737e-10	-2.104964e+01	-1.699817e+01
6.400000e-07	-2.845891e-06	-2.415981e-10	-2.003445e+01	-1.662951e+01
6.500000e-07	-2.700667e-06	-2.373931e-10	-1.901211e+01	-1.625057e+01
6.600000e-07	-2.554495e-06	-2.368279e-10	-1.798309e+01	-1.585817e+01
6.700000e-07	-2.407449e-06	-2.291896e-10	-1.694792e+01	-1.544847e+01
6.800000e-07	-2.259578e-06	-2.235019e-10	-1.590694e+01	-1.501745e+01
6.900000e-07	-2.110942e-06	-2.177710e-10	-1.486058e+01	-1.456122e+01
7.000000e-07	-1.961648e-06	-2.069563e-10	-1.380958e+01	-1.407650e+01
7.100000e-07	-1.811727e-06	-1.958055e-10	-1.275416e+01	-1.356080e+01
7.200000e-07	-1.661115e-06	-1.892236e-10	-1.169389e+01	-1.301259e+01
7.300000e-07	-1.509780e-06	-1.818359e-10	-1.062852e+01	-1.243116e+01
7.400000e-07	-1.357863e-06	-1.665591e-10	-9.559058e+00	-1.181641e+01
7.500000e-07	-1.205561e-06	-1.569026e-10	-8.486889e+00	-1.116840e+01
7.600000e-07	-1.052854e-06	-1.523259e-10	-7.411866e+00	-1.048690e+01
7.700000e-07	-8.997445e-07	-1.448640e-10	-6.334006e+00	-9.770926e+00
7.800000e-07	-7.463458e-07	-1.307043e-10	-5.254113e+00	-9.018304e+00
7.900000e-07	-5.926755e-07	-1.170370e-10	-4.172307e+00	-8.225526e+00
8.000000e-07	-4.387391e-07	-1.048542e-10	-3.088628e+00	-7.387770e+00
8.100000e-07	-2.846758e-07	-9.125279e-11	-2.004056e+00	-6.499216e+00
8.200000e-07	-1.306443e-07	-7.807081e-11	-9.197075e-01	-5.553633e+00
8.300000e-07	2.345981e-08	-6.291987e-11	1.651520e-01	-4.545171e+00
8.400000e-07	1.777076e-07	-4.482959e-11	1.251023e+00	-3.469302e+00
8.500000e-07	3.318567e-07	-2.464732e-11	2.336199e+00	-2.323766e+00
8.600000e-07	4.857949e-07	-8.225125e-12	3.419891e+00	-1.109432e+00
8.700000e-07	6.395892e-07	7.653405e-12	4.502569e+00	1.690680e-01
8.800000e-07	7.931191e-07	2.762814e-11	5.583387e+00	1.503017e+00
8.900000e-07	9.462611e-07	5.107884e-11	6.661473e+00	2.879683e+00
9.000000e-07	1.099118e-06	7.269378e-11	7.737549e+00	4.282782e+00
9.100000e-07	1.251662e-06	9.234628e-11	8.811428e+00	5.693330e+00
9.200000e-07	1.403739e-06	1.133553e-10	9.882018e+00	7.090789e+00
9.300000e-07	1.555305e-06	1.338893e-10	1.094901e+01	8.454414e+00
9.400000e-07	1.706278e-06	1.540662e-10	1.201182e+01	9.764652e+00
9.500000e-07	1.856597e-06	1.735251e-10	1.307004e+01	1.100446e+01
9.600000e-07	2.006240e-06	1.906567e-10	1.412349e+01	1.216038e+01
9.700000e-07	2.155209e-06	2.045447e-10	1.517220e+01	1.322332e+01
9.800000e-07	2.303445e-06	2.205204e-10	1.621576e+01	1.418890e+01
9.900000e-07	2.450770e-06	2.365080e-10	1.725289e+01	1.505739e+01
1.000000e-06	2.597207e-06	2.481652e-10	1.828377e+01	1.583322e+01
1.010000e-06	2.742771e-06	2.560498e-10	1.930852e+01	1.652421e+01
1.020000e-06	2.887357e-06	2.649153e-10	2.032637e+01	1.714054e+01
1.030000e-06	3.030899e-06	2.755528e-10	2.133687e+01	1.769361e+01
1.040000e-06	3.173316e-06	2.840516e-10	2.233945e+01	1.819492e+01
1.050000e-06	3.314594e-06	2.911256e-10	2.333402e+01	1.865517e+01
1.060000e-06	3.454551e-06	2.964309e-10	2.431929e+01	1.908346e+01
1.070000e-06	3.593061e-06	3.028624e-10	2.529437e+01	1.948690e+01
1.080000e-06	3.730252e-06	3.078972e-10	2.626017e+01	1.987043e+01
1.090000e-06	3.866089e-06	3.132971e-10	2.721643e+01	2.023699e+01
1.100000e-06	4.000461e-06	3.190187e-10	2.816238e+01	2.058789e+01
1.110000e-06	4.133478e-06	3.235482e-10	2.909879e+01	2.092326e+01
1.120000e-06	4.265080e-06	3.264095e-10	3.002524e+01	2.124269e+01
1.130000e-06	4.395055e-06	3.297455e-10	3.094023e+01	2.154569e+01
1.140000e-06	4.523465e-06	3.343503e-10	3.184422e+01	2.183213e+01
1.150000e-06	4.650269e-06	3.374359e-10	3.273688e+01	2.210251e+01
1.160000e-06	4.775483e-06	3.397919e-10	3.361837e+01	2.235807e+01
1.170000e-06	4.899089e-06	3.443841e-10	3.448853e+01	2.260067e+01
1.180000e-06	5.020904e-06	3.509727e-10	3.534608e+01	2.283261e+01
1.190000e-06	5.140830e-06	3.540080e-10	3.619033e+01	2.305634e+01
1.200000e-06	5.258846e-06	3.561205e-10	3.702114e+01	2.327413e+01
1.210000e-06	5.374896e-06	3.592931e-10	3.783811e+01	2.348779e+01
1.220000e-06	5.488844e-06	3.618877e-10	3.864027e+01	2.369848e+01
1.230000e-06	5.600671e-06	3.629073e-10	3.942751e+01	2.390659e+01
1.240000e-06	5.710491e-06	3.655688e-10	4.020062e+01	2.411178e+01
1.250000e-06	5.818378e-06	3.699686e-10	4.096012e+01	2.431310e+01
1.260000e-06	5.924218e-06	3.731360e-10	4.170521e+01	2.450922e+01
1.270000e-06	6.027882e-06	3.746517e-10	4.243498e+01	2.469867e+01
1.280000e-06	6.129360e-06	3.768081e-10	4.314937e+01	2.488009e+01
1.290000e-06	6.228629e-06	3.799446e-10	4.384820e+01	2.505246e+01
1.300000e-06	6.325618e-06	3.825740e-10	4.453098e+01	2.521518e+01
1.310000e-06	6.420341e-06	3.832916e-10	4.519781e+01	2.536821e+01
1.320000e-06	6.512892e-06	3.836027e-10	4.584935e+01	2.551195e+01
1.330000e-06	6.603169e-06	3.858551e-10	4.648488e+01	2.564719e+01
1.340000e-06	6.691027e-06	3.897499e-10	4.710338e+01	2.577494e+01
1.350000e-06	6.776606e-06	3.926605e-10	4.770584e+01	2.589624e+01
1.360000e-06	6.859871e-06	3.935168e-10	4.829200e+01	2.601205e+01
1.370000e-06	6.940688e-06	3.932610e-10	4.886094e+01	2.612311e+01
1.380000e-06	7.019018e-06	3.948895e-10	4.941236e+01	2.622993e+01
1.390000e-06	7.094697e-06	3.975349e-10	4.994513e+01	2.633275e+01
1.400000e-06	7.167616e-06	3.976838e-10	5.045846e+01	2.643165e+01
1.410000e-06	7.237929e-06	3.979270e-10	5.095345e+01	2.652664e+01
1.420000e-06	7.305762e-06	3.987313e-10	5.143098e+01	2.661776e+01
1.430000e-06	7.370975e-06	4.006974e-10	5.189007e+01	2.670515e+01
1.440000e-06	7.433591e-06	4.033545e-10	5.233087e+01	2.678914e+01
1.450000e-06	7.493708e-06	4.039891e-10	5.275408e+01	2.687022e+01
1.460000e-06	7.551165e-06	4.038537e-10	5.315856e+01	2.694899e+01
1.470000e-06	7.605922e-06	4.047215e-10	5.354404e+01	2.702609e+01
1.480000e-06	7.657694e-06	4.060208e-10	5.390850e+01	2.710202e+01
1.490000e-06	7.706259e-06	4.060654e-10	5.425039e+01	2.717709e+01
1.500000e-06	7.751966e-06	4.063230e-10	5.457216e+01	2.725133e+01
1.510000e-06	7.795015e-06	4.073672e-10	5.487522e+01	2.732441e+01
1.520000e-06	7.835242e-06	4.078526e-10	5.515840e+01	2.739572e+01
1.530000e-06	7.872683e-06	4.085205e-10	5.542198e+01	2.746444e+01
1.540000e-06	7.907467e-06	4.094866e-10	5.566686e+01	2.752973e+01
1.550000e-06	7.939448e-06	4.101514e-10	5.589199e+01	2.759086e+01
1.560000e-06	7.968653e-06	4.095924e-10	5.609759e+01	2.764744e+01
1.570000e-06	7.995104e-06	4.102464e-10	5.628380e+01	2.769948e+01
1.580000e-06	8.018671e-06	4.107148e-10	5.644971e+01	2.774753e+01
1.590000e-06	8.039489e-06	4.114470e-10	5.659626e+01	2.779261e+01
1.600000e-06	8.057487e-06	4.109656e-10	5.672296e+01	2.783607e+01
1.610000e-06	8.072494e-06	4.088879e-10	5.682861e+01	2.787938e+01
1.620000e-06	8.084499e-06	4.097048e-10	5.691312e+01	2.792388e+01
1.630000e-06	8.093375e-06	4.120064e-10	5.697560e+01	2.797039e+01
1.640000e-06	8.099275e-06	4.139698e-10	5.701714e+01	2.801904e+01
1.650000e-06	8.102413e-06	4.147996e-10	5.703923e+01	2.806898e+01
1.660000e-06	8.102735e-06	4.170237e-10	5.704150e+01	2.811834e+01
1.670000e-06	8.100323e-06	4.160259e-10	5.702452e+01	2.816426e+01
1.680000e-06	8.095277e-06	4.158330e-10	5.698899e+01	2.820314e+01
1.690000e-06	8.087512e-06	4.172840e-10	5.693433e+01	2.823095e+01
1.700000e-06	8.077054e-06	4.171736e-10	5.686071e+01	2.824371e+01
1.710000e-06	8.063751e-06	4.159936e-10	5.676706e+01	2.823796e+01
1.720000e-06	8.047669e-06	4.170576e-10	5.665385e+01	2.821124e+01
1.730000e-06	8.029209e-06	4.227158e-10	5.652389e+01	2.816246e+01
1.740000e-06	8.008325e-06	4.245897e-10	5.637687e+01	2.809219e+01
1.750000e-06	7.984365e-06	4.150028e-10	5.620820e+01	2.800264e+01
1.760000e-06	7.956676e-06	4.240209e-10	5.601328e+01	2.789759e+01
1.770000e-06	7.925419e-06	4.277158e-10	5.579323e+01	2.778197e+01
1.780000e-06	7.891444e-06	4.073024e-10	5.555405e+01	2.766144e+01
1.790000e-06	7.855251e-06	3.882421e-10	5.529926e+01	2.754174e+01
1.800000e-06	7.816720e-06	4.254452e-10	5.502801e+01	2.742809e+01
1.810000e-06	7.776090e-06	4.161953e-10	5.474199e+01	2.732462e+01
1.820000e-06	7.733169e-06	3.998160e-10	5.443983e+01	2.723395e+01
1.830000e-06	7.687411e-06	4.341302e-10	5.411771e+01	2.715687e+01
1.840000e-06	7.638958e-06	3.923020e-10	5.377661e+01	2.709237e+01
1.850000e-06	7.587515e-06	3.943238e-10	5.341446e+01	2.703774e+01
1.860000e-06	7.533008e-06	4.044488e-10	5.303075e+01	2.698897e+01
1.870000e-06	7.475794e-06	4.204165e-10	5.262797e+01	2.694123e+01
1.880000e-06	7.415864e-06	4.107939e-10	5.220607e+01	2.688940e+01
1.890000e-06	7.353297e-06	3.738844e-10	5.176562e+01	2.682871e+01
1.900000e-06	7.287978e-06	4.263151e-10	5.130579e+01	2.675513e+01
1.910000e-06	7.219818e-06	4.113772e-10	5.082596e+01	2.666580e+01
1.920000e-06	7.148872e-06	3.844962e-10	5.032651e+01	2.655914e+01
1.930000e-06	7.075366e-06	4.046844e-10	4.980905e+01	2.643488e+01
1.940000e-06	6.999218e-06	4.144635e-10	4.927298e+01	2.629383e+01
1.950000e-06	6.920175e-06	3.920723e-10	4.871653e+01	2.613761e+01
1.960000e-06	6.838713e-06	3.742174e-10	4.814306e+01	2.596823e+01
1.970000e-06	6.754866e-06	4.132693e-10	4.755279e+01	2.578772e+01
1.980000e-06	6.668458e-06	3.874084e-10	4.694450e+01	2.559776e+01
1.990000e-06	6.579628e-06	3.669627e-10	4.631916e+01	2.539946e+01
2.000000e-06	6.488579e-06	3.904718e-10	4.567819e+01	2.519328e+01
2.010000e-06	6.395324e-06	4.024028e-10	4.502169e+01	2.497905e+01
2.020000e-06	6.299646e-06	3.804195e-10	4.434814e+01	2.475619e+01
2.030000e-06	6.201818e-06	3.710018e-10	4.365946e+01	2.452393e+01
2.040000e-06	6.101860e-06	3.909149e-10	4.295577e+01	2.428165e+01
2.050000e-06	5.999599e-06	3.683364e-10	4.223588e+01	2.402919e+01
2.060000e-06	5.895160e-06	3.517273e-10	4.150065e+01	2.376700e+01
2.070000e-06	5.788736e-06	3.645481e-10	4.075145e+01	2.349632e+01
2.080000e-06	5.680272e-06	3.705908e-10	3.998788e+01	2.321906e+01
2.090000e-06	5.569659e-06	3.429606e-10	3.920919e+01	2.293768e+01
2.100000e-06	5.456994e-06	3.411566e-10	3.841606e+01	2.265490e+01
2.110000e-06	5.342247e-06	3.609406e-10	3.760826e+01	2.237331e+01
2.120000e-06	5.225355e-06	3.525119e-10	3.678536e+01	2.209504e+01
2.130000e-06	5.106395e-06	3.353912e-10	3.594791e+01	2.182146e+01
2.140000e-06	4.985600e-06	3.385770e-10	3.509754e+01	2.155293e+01
2.150000e-06	4.863036e-06	3.397471e-10	3.423472e+01	2.128873e+01
2.160000e-06	4.738667e-06	3.244227e-10	3.335919e+01	2.102719e+01
2.170000e-06	4.612605e-06	3.234744e-10	3.247174e+01	2.076582e+01
2.180000e-06	4.484974e-06	3.268137e-10	3.157324e+01	2.050173e+01
2.190000e-06	4.355721e-06	3.157595e-10	3.066333e+01	2.023196e+01
2.200000e-06	4.224892e-06	3.022028e-10	2.974232e+01	1.995388e+01
2.210000e-06	4.092562e-06	3.079997e-10	2.881075e+01	1.966552e+01
2.220000e-06	3.958770e-06	3.109989e-10	2.786889e+01	1.936577e+01
2.230000e-06	3.823562e-06	2.987396e-10	2.691705e+01	1.905443e+01
2.240000e-06	3.686957e-06	2.896746e-10	2.595538e+01	1.873212e+01
2.250000e-06	3.548978e-06	2.916798e-10	2.498403e+01	1.840003e+01
2.260000e-06	3.409624e-06	2.874901e-10	2.400301e+01	1.805956e+01
2.270000e-06	3.269022e-06	2.766368e-10	2.301320e+01	1.771192e+01
2.280000e-06	3.127232e-06	2.710864e-10	2.201503e+01	1.735775e+01
2.290000e-06	2.984227e-06	2.665231e-10	2.100831e+01	1.699682e+01
2.300000e-06	2.840016e-06	2.592525e-10	1.999309e+01	1.662786e+01
2.310000e-06	2.694809e-06	2.544491e-10	1.897087e+01	1.624852e+01
2.320000e-06	2.548723e-06	2.537267e-10	1.794246e+01	1.585559e+01
2.330000e-06	2.401677e-06	2.455749e-10	1.690729e+01	1.544523e+01
2.340000e-06	2.253676e-06	2.341015e-10	1.586539e+01	1.501338e+01
2.350000e-06	2.104879e-06	2.291333e-10	1.481789e+01	1.455621e+01
2.360000e-06	1.955365e-06	2.258310e-10	1.376535e+01	1.407044e+01
2.370000e-06	1.805193e-06	2.152614e-10	1.270817e+01	1.355363e+01
2.380000e-06	1.654573e-06	2.039612e-10	1.164784e+01	1.300426e+01
2.390000e-06	1.503415e-06	1.973906e-10	1.058372e+01	1.242166e+01
2.400000e-06	1.351559e-06	1.892510e-10	9.514685e+00	1.180574e+01
2.410000e-06	1.199184e-06	1.780860e-10	8.441997e+00	1.115656e+01
2.420000e-06	1.046480e-06	1.677751e-10	7.366989e+00	1.047388e+01
2.430000e-06	8.933750e-07	1.587825e-10	6.289166e+00	9.756662e+00
2.440000e-06	7.398528e-07	1.449903e-10	5.208404e+00	9.002697e+00
2.450000e-06	5.861443e-07	1.317804e-10	4.126329e+00	8.208425e+00
2.460000e-06	4.323439e-07	1.228986e-10	3.043608e+00	7.368980e+00
2.470000e-06	2.783045e-07	1.092036e-10	1.959204e+00	6.478519e+00
2.480000e-06	1.240759e-07	8.923119e-11	8.734673e-01	5.530807e+00
2.490000e-06	-3.011317e-08	7.235349e-11	-2.119902e-01	4.520027e+00
2.500000e-06	-1.842129e-07	6.100993e-11	-1.296819e+00	3.441713e+00
2.510000e-06	-3.382706e-07	4.465583e-11	-2.381352e+00	2.293705e+00
2.520000e-06	-4.921954e-07	2.319842e-11	-3.464949e+00	1.076997e+00
2.530000e-06	-6.458260e-07	3.983063e-12	-4.546475e+00	-2.036356e-01
2.540000e-06	-7.992886e-07	-1.547294e-11	-5.626819e+00	-1.539331e+00
2.550000e-06	-9.526334e-07	-3.883127e-11	-6.706332e+00	-2.917219e+00
2.560000e-06	-1.105538e-06	-6.267079e-11	-7.782747e+00	-4.320903e+00
2.570000e-06	-1.257902e-06	-8.399819e-11	-8.855356e+00	-5.731320e+00
2.580000e-06	-1.409842e-06	-1.046781e-10	-9.924984e+00	-7.127904e+00
2.590000e-06	-1.561325e-06	-1.255067e-10	-1.099139e+01	-8.489926e+00
2.600000e-06	-1.712146e-06	-1.426272e-10	-1.205314e+01	-9.797902e+00
2.610000e-06	-1.862258e-06	-1.593630e-10	-1.310989e+01	-1.103490e+01
2.620000e-06	-2.011785e-06	-1.784311e-10	-1.416253e+01	-1.218760e+01
2.630000e-06	-2.160689e-06	-1.959608e-10	-1.521079e+01	-1.324710e+01
2.640000e-06	-2.308847e-06	-2.112737e-10	-1.625379e+01	-1.420916e+01
2.650000e-06	-2.456137e-06	-2.254963e-10	-1.729067e+01	-1.507421e+01
2.660000e-06	-2.602541e-06	-2.401079e-10	-1.832132e+01	-1.584684e+01
2.670000e-06	-2.748040e-06	-2.512726e-10	-1.934561e+01	-1.653496e+01
2.680000e-06	-2.892536e-06	-2.590201e-10	-2.036283e+01	-1.714881e+01
2.690000e-06	-3.035923e-06	-2.660504e-10	-2.137224e+01	-1.769981e+01
2.700000e-06	-3.178051e-06	-2.719134e-10	-2.237279e+01	-1.819946e+01
2.710000e-06	-3.318995e-06	-2.759940e-10	-2.336500e+01	-1.865840e+01
2.720000e-06	-3.458757e-06	-2.809403e-10	-2.434890e+01	-1.908567e+01
2.730000e-06	-3.597263e-06	-2.893484e-10	-2.532395e+01	-1.948830e+01
2.740000e-06	-3.734428e-06	-2.975858e-10	-2.628956e+01	-1.987116e+01
2.750000e-06	-3.870109e-06	-3.030952e-10	-2.724473e+01	-2.023713e+01
2.760000e-06	-4.004325e-06	-3.095015e-10	-2.818958e+01	-2.058746e+01
2.770000e-06	-4.137165e-06	-3.178878e-10	-2.912475e+01	-2.092225e+01
2.780000e-06	-4.268536e-06	-3.256733e-10	-3.004957e+01	-2.124108e+01
2.790000e-06	-4.398434e-06	-3.303463e-10	-3.096402e+01	-2.154346e+01
2.800000e-06	-4.526888e-06	-3.324935e-10	-3.186831e+01	-2.182930e+01
2.810000e-06	-4.653674e-06	-3.345376e-10	-3.276086e+01	-2.209910e+01
2.820000e-06	-4.778818e-06	-3.383885e-10	-3.364185e+01	-2.235414e+01
2.830000e-06	-4.902323e-06	-3.425540e-10	-3.451129e+01	-2.259629e+01
2.840000e-06	-5.024068e-06	-3.458480e-10	-3.536835e+01	-2.282788e+01
2.850000e-06	-5.143896e-06	-3.495950e-10	-3.621191e+01	-2.305133e+01
2.860000e-06	-5.261699e-06	-3.537110e-10	-3.704122e+01	-2.326893e+01
2.870000e-06	-5.377428e-06	-3.590540e-10	-3.785593e+01	-2.348245e+01
2.880000e-06	-5.490961e-06	-3.636382e-10	-3.865518e+01	-2.369303e+01
2.890000e-06	-5.602380e-06	-3.659170e-10	-3.943954e+01	-2.390102e+01
2.900000e-06	-5.711825e-06	-3.681253e-10	-4.021001e+01	-2.410607e+01
2.910000e-06	-5.819323e-06	-3.717181e-10	-4.096677e+01	-2.430720e+01
2.920000e-06	-5.924851e-06	-3.753539e-10	-4.170967e+01	-2.450309e+01
2.930000e-06	-6.028226e-06	-3.779381e-10	-4.243740e+01	-2.469226e+01
2.940000e-06	-6.129369e-06	-3.804023e-10	-4.314943e+01	-2.487335e+01
