# Temperatura_=_20.0
# Concentracion g/m^3_=_9000.0
# C_Vs_to_Am_M_A/Vsm_=_65563218390.804596
# pendiente_HvsI_1/m_=_3716.3
# ordenada_HvsI_A/m_=_1297.0
# frecuencia_Hz_=_301292.60855175846

Tiempo_(s)	Campo_(V.s)	Magnetizacion_(V.s)	Campo_(kA/m)	Magnetizacion_(A/m)
0.000000e+00	-8.079471e-06	-6.934925e-09	-5.698065e+01	-4.547104e+02
1.000000e-08	-8.076801e-06	-6.938184e-09	-5.696182e+01	-4.546551e+02
2.000000e-08	-8.071474e-06	-6.936807e-09	-5.692425e+01	-4.545982e+02
3.000000e-08	-8.063506e-06	-6.935029e-09	-5.686806e+01	-4.545284e+02
4.000000e-08	-8.052732e-06	-6.932195e-09	-5.679207e+01	-4.544286e+02
5.000000e-08	-8.038958e-06	-6.929647e-09	-5.669494e+01	-4.542790e+02
6.000000e-08	-8.022240e-06	-6.925148e-09	-5.657703e+01	-4.540601e+02
7.000000e-08	-8.003106e-06	-6.917141e-09	-5.644209e+01	-4.537560e+02
8.000000e-08	-7.981747e-06	-6.922924e-09	-5.629145e+01	-4.533576e+02
9.000000e-08	-7.957580e-06	-6.971423e-09	-5.612101e+01	-4.528641e+02
1.000000e-07	-7.930184e-06	-6.957575e-09	-5.592780e+01	-4.522837e+02
1.100000e-07	-7.899807e-06	-6.909454e-09	-5.571357e+01	-4.516328e+02
1.200000e-07	-7.866520e-06	-6.875149e-09	-5.547881e+01	-4.509335e+02
1.300000e-07	-7.830351e-06	-6.867023e-09	-5.522373e+01	-4.502106e+02
1.400000e-07	-7.791869e-06	-6.862329e-09	-5.495233e+01	-4.494878e+02
1.500000e-07	-7.751196e-06	-6.830450e-09	-5.466549e+01	-4.487838e+02
1.600000e-07	-7.707913e-06	-6.870607e-09	-5.436023e+01	-4.481094e+02
1.700000e-07	-7.661911e-06	-6.797980e-09	-5.403580e+01	-4.474657e+02
1.800000e-07	-7.613172e-06	-6.808950e-09	-5.369207e+01	-4.468439e+02
1.900000e-07	-7.561414e-06	-6.858432e-09	-5.332705e+01	-4.462259e+02
2.000000e-07	-7.506673e-06	-6.779249e-09	-5.294098e+01	-4.455877e+02
2.100000e-07	-7.449135e-06	-6.772314e-09	-5.253519e+01	-4.449021e+02
2.200000e-07	-7.388919e-06	-6.759609e-09	-5.211052e+01	-4.441431e+02
2.300000e-07	-7.326165e-06	-6.770460e-09	-5.166794e+01	-4.432894e+02
2.400000e-07	-7.260669e-06	-6.749286e-09	-5.120604e+01	-4.423276e+02
2.500000e-07	-7.192418e-06	-6.701161e-09	-5.072469e+01	-4.412532e+02
2.600000e-07	-7.121597e-06	-6.717521e-09	-5.022522e+01	-4.400717e+02
2.700000e-07	-7.048028e-06	-6.695300e-09	-4.970638e+01	-4.387962e+02
2.800000e-07	-6.971703e-06	-6.667954e-09	-4.916809e+01	-4.374455e+02
2.900000e-07	-6.892573e-06	-6.651752e-09	-4.861002e+01	-4.360402e+02
3.000000e-07	-6.810812e-06	-6.645030e-09	-4.803340e+01	-4.345988e+02
3.100000e-07	-6.726849e-06	-6.613031e-09	-4.744125e+01	-4.331347e+02
3.200000e-07	-6.640716e-06	-6.567050e-09	-4.683380e+01	-4.316535e+02
3.300000e-07	-6.552278e-06	-6.589464e-09	-4.621009e+01	-4.301519e+02
3.400000e-07	-6.461395e-06	-6.538011e-09	-4.556913e+01	-4.286179e+02
3.500000e-07	-6.368152e-06	-6.493138e-09	-4.491154e+01	-4.270333e+02
3.600000e-07	-6.272674e-06	-6.483629e-09	-4.423817e+01	-4.253761e+02
3.700000e-07	-6.174961e-06	-6.468346e-09	-4.354905e+01	-4.236244e+02
3.800000e-07	-6.075008e-06	-6.418093e-09	-4.284413e+01	-4.217600e+02
3.900000e-07	-5.972854e-06	-6.379139e-09	-4.212369e+01	-4.197715e+02
4.000000e-07	-5.868592e-06	-6.382298e-09	-4.138838e+01	-4.176559e+02
4.100000e-07	-5.762199e-06	-6.334479e-09	-4.063804e+01	-4.154194e+02
4.200000e-07	-5.653733e-06	-6.291635e-09	-3.987308e+01	-4.130756e+02
4.300000e-07	-5.543341e-06	-6.261571e-09	-3.909454e+01	-4.106435e+02
4.400000e-07	-5.430869e-06	-6.243086e-09	-3.830133e+01	-4.081436e+02
4.500000e-07	-5.316146e-06	-6.188453e-09	-3.749224e+01	-4.055936e+02
4.600000e-07	-5.199319e-06	-6.144841e-09	-3.666832e+01	-4.030056e+02
4.700000e-07	-5.080630e-06	-6.116670e-09	-3.583126e+01	-4.003825e+02
4.800000e-07	-4.960117e-06	-6.069490e-09	-3.498134e+01	-3.977172e+02
4.900000e-07	-4.837758e-06	-6.019761e-09	-3.411840e+01	-3.949927e+02
5.000000e-07	-4.713654e-06	-5.978273e-09	-3.324315e+01	-3.921843e+02
5.100000e-07	-4.587900e-06	-5.941876e-09	-3.235627e+01	-3.892627e+02
5.200000e-07	-4.460560e-06	-5.880103e-09	-3.145820e+01	-3.861981e+02
5.300000e-07	-4.331632e-06	-5.832883e-09	-3.054893e+01	-3.829647e+02
5.400000e-07	-4.201019e-06	-5.789404e-09	-2.962778e+01	-3.795438e+02
5.500000e-07	-4.068855e-06	-5.735981e-09	-2.869569e+01	-3.759262e+02
5.600000e-07	-3.935360e-06	-5.670591e-09	-2.775422e+01	-3.721126e+02
5.700000e-07	-3.800477e-06	-5.613284e-09	-2.680295e+01	-3.681124e+02
5.800000e-07	-3.664141e-06	-5.558300e-09	-2.584144e+01	-3.639400e+02
5.900000e-07	-3.526417e-06	-5.488444e-09	-2.487014e+01	-3.596111e+02
6.000000e-07	-3.387257e-06	-5.420010e-09	-2.388871e+01	-3.551371e+02
6.100000e-07	-3.246711e-06	-5.350273e-09	-2.289750e+01	-3.505209e+02
6.200000e-07	-3.104881e-06	-5.278908e-09	-2.189725e+01	-3.457534e+02
6.300000e-07	-2.961816e-06	-5.195331e-09	-2.088828e+01	-3.408112e+02
6.400000e-07	-2.817609e-06	-5.114830e-09	-1.987125e+01	-3.356578e+02
6.500000e-07	-2.672337e-06	-5.031496e-09	-1.884672e+01	-3.302456e+02
6.600000e-07	-2.526174e-06	-4.940121e-09	-1.781590e+01	-3.245202e+02
6.700000e-07	-2.379228e-06	-4.843739e-09	-1.677956e+01	-3.184258e+02
6.800000e-07	-2.231503e-06	-4.745654e-09	-1.573773e+01	-3.119106e+02
6.900000e-07	-2.083089e-06	-4.641361e-09	-1.469103e+01	-3.049308e+02
7.000000e-07	-1.934064e-06	-4.522910e-09	-1.364003e+01	-2.974532e+02
7.100000e-07	-1.784396e-06	-4.403795e-09	-1.258449e+01	-2.894542e+02
7.200000e-07	-1.633986e-06	-4.277931e-09	-1.152372e+01	-2.809171e+02
7.300000e-07	-1.482953e-06	-4.141684e-09	-1.045856e+01	-2.718252e+02
7.400000e-07	-1.331467e-06	-3.991989e-09	-9.390198e+00	-2.621536e+02
7.500000e-07	-1.179543e-06	-3.838996e-09	-8.318753e+00	-2.518603e+02
7.600000e-07	-1.027151e-06	-3.675325e-09	-7.244006e+00	-2.408776e+02
7.700000e-07	-8.742757e-07	-3.491934e-09	-6.165849e+00	-2.291062e+02
7.800000e-07	-7.210063e-07	-3.293624e-09	-5.084913e+00	-2.164128e+02
7.900000e-07	-5.675025e-07	-3.077860e-09	-4.002324e+00	-2.026334e+02
8.000000e-07	-4.138084e-07	-2.842960e-09	-2.918393e+00	-1.875815e+02
8.100000e-07	-2.599247e-07	-2.584166e-09	-1.833125e+00	-1.710623e+02
8.200000e-07	-1.059645e-07	-2.304271e-09	-7.473172e-01	-1.528912e+02
8.300000e-07	4.797855e-08	-1.996757e-09	3.383698e-01	-1.329155e+02
8.400000e-07	2.018522e-07	-1.662645e-09	1.423567e+00	-1.110368e+02
8.500000e-07	3.556526e-07	-1.302492e-09	2.508248e+00	-8.723114e+01
8.600000e-07	5.093591e-07	-9.162432e-10	3.592266e+00	-6.156558e+01
8.700000e-07	6.629259e-07	-5.051539e-10	4.675300e+00	-3.420773e+01
8.800000e-07	8.162277e-07	-6.992254e-11	5.756465e+00	-5.427178e+00
8.900000e-07	9.691829e-07	3.823307e-10	6.835184e+00	2.441200e+01
9.000000e-07	1.121670e-06	8.495122e-10	7.910606e+00	5.486771e+01
9.100000e-07	1.273630e-06	1.320922e-09	8.982302e+00	8.544392e+01
9.200000e-07	1.425165e-06	1.788657e-09	1.005101e+01	1.156205e+02
9.300000e-07	1.576265e-06	2.240425e-09	1.111664e+01	1.448857e+02
9.400000e-07	1.726874e-06	2.670205e-09	1.217882e+01	1.727692e+02
9.500000e-07	1.876839e-06	3.072741e-09	1.323645e+01	1.988709e+02
9.600000e-07	2.026036e-06	3.437456e-09	1.428866e+01	2.228843e+02
9.700000e-07	2.174540e-06	3.762505e-09	1.533599e+01	2.446117e+02
9.800000e-07	2.322372e-06	4.048859e-09	1.637858e+01	2.639700e+02
9.900000e-07	2.469377e-06	4.298295e-09	1.741534e+01	2.809863e+02
1.000000e-06	2.615484e-06	4.512839e-09	1.844576e+01	2.957856e+02
1.010000e-06	2.760662e-06	4.702238e-09	1.946963e+01	3.085706e+02
1.020000e-06	2.904871e-06	4.871093e-09	2.048667e+01	3.195978e+02
1.030000e-06	3.048047e-06	5.022178e-09	2.149642e+01	3.291502e+02
1.040000e-06	3.190020e-06	5.156419e-09	2.249769e+01	3.375125e+02
1.050000e-06	3.330781e-06	5.277025e-09	2.349041e+01	3.449484e+02
1.060000e-06	3.470286e-06	5.384007e-09	2.447427e+01	3.516840e+02
1.070000e-06	3.608348e-06	5.480254e-09	2.544796e+01	3.578972e+02
1.080000e-06	3.744975e-06	5.568670e-09	2.641152e+01	3.637143e+02
1.090000e-06	3.880261e-06	5.648956e-09	2.736563e+01	3.692125e+02
1.100000e-06	4.014154e-06	5.724589e-09	2.830991e+01	3.744281e+02
1.110000e-06	4.146659e-06	5.796940e-09	2.924441e+01	3.793670e+02
1.120000e-06	4.277723e-06	5.866183e-09	3.016874e+01	3.840180e+02
1.130000e-06	4.407177e-06	5.929720e-09	3.108171e+01	3.883645e+02
1.140000e-06	4.535024e-06	5.986457e-09	3.198336e+01	3.923951e+02
1.150000e-06	4.661311e-06	6.039665e-09	3.287400e+01	3.961099e+02
1.160000e-06	4.786086e-06	6.089497e-09	3.375398e+01	3.995243e+02
1.170000e-06	4.909248e-06	6.139223e-09	3.462258e+01	4.026683e+02
1.180000e-06	5.030584e-06	6.185640e-09	3.547831e+01	4.055833e+02
1.190000e-06	5.150080e-06	6.226395e-09	3.632105e+01	4.083159e+02
1.200000e-06	5.267703e-06	6.265481e-09	3.715059e+01	4.109122e+02
1.210000e-06	5.383293e-06	6.303764e-09	3.796580e+01	4.134112e+02
1.220000e-06	5.496716e-06	6.340517e-09	3.876571e+01	4.158407e+02
1.230000e-06	5.608037e-06	6.373625e-09	3.955081e+01	4.182142e+02
1.240000e-06	5.717425e-06	6.405824e-09	4.032227e+01	4.205312e+02
1.250000e-06	5.824852e-06	6.436344e-09	4.107990e+01	4.227793e+02
1.260000e-06	5.930160e-06	6.465727e-09	4.182259e+01	4.249383e+02
1.270000e-06	6.033318e-06	6.492921e-09	4.255011e+01	4.269851e+02
1.280000e-06	6.134384e-06	6.520074e-09	4.326288e+01	4.288990e+02
1.290000e-06	6.233234e-06	6.546171e-09	4.396003e+01	4.306663e+02
1.300000e-06	6.329694e-06	6.571300e-09	4.464031e+01	4.322830e+02
1.310000e-06	6.423893e-06	6.593997e-09	4.530465e+01	4.337562e+02
1.320000e-06	6.515930e-06	6.614387e-09	4.595375e+01	4.351031e+02
1.330000e-06	6.605657e-06	6.635411e-09	4.658654e+01	4.363485e+02
1.340000e-06	6.692990e-06	6.655998e-09	4.720246e+01	4.375211e+02
1.350000e-06	6.778041e-06	6.675351e-09	4.780229e+01	4.386491e+02
1.360000e-06	6.860819e-06	6.692625e-09	4.838608e+01	4.397559e+02
1.370000e-06	6.941100e-06	6.709712e-09	4.895226e+01	4.408572e+02
1.380000e-06	7.018835e-06	6.724675e-09	4.950050e+01	4.419592e+02
1.390000e-06	7.093936e-06	6.739896e-09	5.003015e+01	4.430579e+02
1.400000e-06	7.166313e-06	6.756195e-09	5.054059e+01	4.441414e+02
1.410000e-06	7.236170e-06	6.771255e-09	5.103325e+01	4.451919e+02
1.420000e-06	7.303458e-06	6.784726e-09	5.150781e+01	4.461898e+02
1.430000e-06	7.368071e-06	6.799234e-09	5.196349e+01	4.471169e+02
1.440000e-06	7.430174e-06	6.814171e-09	5.240147e+01	4.479603e+02
1.450000e-06	7.489777e-06	6.825072e-09	5.282182e+01	4.487141e+02
1.460000e-06	7.546688e-06	6.835486e-09	5.322319e+01	4.493805e+02
1.470000e-06	7.600877e-06	6.846753e-09	5.360536e+01	4.499693e+02
1.480000e-06	7.652070e-06	6.857298e-09	5.396640e+01	4.504959e+02
1.490000e-06	7.700088e-06	6.865067e-09	5.430505e+01	4.509788e+02
1.500000e-06	7.745310e-06	6.873056e-09	5.462397e+01	4.514361e+02
1.510000e-06	7.787814e-06	6.882122e-09	5.492373e+01	4.518824e+02
1.520000e-06	7.827476e-06	6.890393e-09	5.520345e+01	4.523265e+02
1.530000e-06	7.864411e-06	6.898343e-09	5.546394e+01	4.527703e+02
1.540000e-06	7.898607e-06	6.905342e-09	5.570510e+01	4.532084e+02
1.550000e-06	7.930011e-06	6.911103e-09	5.592658e+01	4.536296e+02
1.560000e-06	7.958773e-06	6.915493e-09	5.612943e+01	4.540189e+02
1.570000e-06	7.984754e-06	6.919262e-09	5.631266e+01	4.543610e+02
1.580000e-06	8.007792e-06	6.922189e-09	5.647513e+01	4.546424e+02
1.590000e-06	8.028062e-06	6.926439e-09	5.661809e+01	4.548547e+02
1.600000e-06	8.045533e-06	6.930886e-09	5.674130e+01	4.549958e+02
1.610000e-06	8.060072e-06	6.933852e-09	5.684384e+01	4.550705e+02
1.620000e-06	8.071558e-06	6.936558e-09	5.692484e+01	4.550896e+02
1.630000e-06	8.079938e-06	6.939854e-09	5.698395e+01	4.550677e+02
1.640000e-06	8.085440e-06	6.943585e-09	5.702275e+01	4.550211e+02
1.650000e-06	8.088099e-06	6.946797e-09	5.704150e+01	4.549640e+02
1.660000e-06	8.087914e-06	6.946463e-09	5.704020e+01	4.549062e+02
1.670000e-06	8.085125e-06	6.939387e-09	5.702053e+01	4.548509e+02
1.680000e-06	8.079668e-06	6.936460e-09	5.698204e+01	4.547938e+02
1.690000e-06	8.071455e-06	6.934572e-09	5.692412e+01	4.547231e+02
1.700000e-06	8.060569e-06	6.933624e-09	5.684735e+01	4.546219e+02
1.710000e-06	8.046831e-06	6.932691e-09	5.675046e+01	4.544701e+02
1.720000e-06	8.030336e-06	6.931074e-09	5.663412e+01	4.542484e+02
1.730000e-06	8.011471e-06	6.931952e-09	5.650108e+01	4.539411e+02
1.740000e-06	7.990151e-06	6.859364e-09	5.635072e+01	4.535392e+02
1.750000e-06	7.965697e-06	6.832375e-09	5.617826e+01	4.530424e+02
1.760000e-06	7.937493e-06	6.860094e-09	5.597935e+01	4.524591e+02
1.770000e-06	7.905808e-06	6.878881e-09	5.575589e+01	4.518060e+02
1.780000e-06	7.871575e-06	6.886111e-09	5.551446e+01	4.511054e+02
1.790000e-06	7.835128e-06	6.907000e-09	5.525742e+01	4.503822e+02
1.800000e-06	7.796314e-06	6.881851e-09	5.498368e+01	4.496597e+02
1.810000e-06	7.755461e-06	6.770998e-09	5.469556e+01	4.489566e+02
1.820000e-06	7.712262e-06	6.857883e-09	5.439090e+01	4.482833e+02
1.830000e-06	7.666201e-06	6.808547e-09	5.406606e+01	4.476406e+02
1.840000e-06	7.617414e-06	6.787588e-09	5.372199e+01	4.470192e+02
1.850000e-06	7.565653e-06	6.864039e-09	5.335694e+01	4.464009e+02
1.860000e-06	7.510880e-06	6.782223e-09	5.297065e+01	4.457615e+02
1.870000e-06	7.453321e-06	6.827632e-09	5.256472e+01	4.450736e+02
1.880000e-06	7.393140e-06	6.754501e-09	5.214029e+01	4.443116e+02
1.890000e-06	7.330326e-06	6.756498e-09	5.169729e+01	4.434542e+02
1.900000e-06	7.264684e-06	6.778146e-09	5.123435e+01	4.424883e+02
1.910000e-06	7.196309e-06	6.684748e-09	5.075214e+01	4.414100e+02
1.920000e-06	7.125157e-06	6.739163e-09	5.025033e+01	4.402248e+02
1.930000e-06	7.051408e-06	6.695204e-09	4.973021e+01	4.389462e+02
1.940000e-06	6.974939e-06	6.679985e-09	4.919091e+01	4.375932e+02
1.950000e-06	6.895568e-06	6.629745e-09	4.863115e+01	4.361863e+02
1.960000e-06	6.813802e-06	6.631085e-09	4.805450e+01	4.347439e+02
1.970000e-06	6.729692e-06	6.641629e-09	4.746131e+01	4.332791e+02
1.980000e-06	6.643067e-06	6.545448e-09	4.685038e+01	4.317973e+02
1.990000e-06	6.553984e-06	6.581517e-09	4.622212e+01	4.302947e+02
2.000000e-06	6.462754e-06	6.548029e-09	4.557872e+01	4.287593e+02
2.010000e-06	6.369275e-06	6.527830e-09	4.491946e+01	4.271724e+02
2.020000e-06	6.273368e-06	6.479513e-09	4.424307e+01	4.255122e+02
2.030000e-06	6.175382e-06	6.472413e-09	4.355202e+01	4.237567e+02
2.040000e-06	6.075280e-06	6.446570e-09	4.284605e+01	4.218880e+02
2.050000e-06	5.972821e-06	6.383119e-09	4.212345e+01	4.198949e+02
2.060000e-06	5.868130e-06	6.374092e-09	4.138512e+01	4.177748e+02
2.070000e-06	5.761502e-06	6.338276e-09	4.063313e+01	4.155342e+02
2.080000e-06	5.652892e-06	6.304930e-09	3.986715e+01	4.131869e+02
2.090000e-06	5.542121e-06	6.247039e-09	3.908593e+01	4.107520e+02
2.100000e-06	5.429288e-06	6.239091e-09	3.829018e+01	4.082499e+02
2.110000e-06	5.314467e-06	6.196817e-09	3.748040e+01	4.056985e+02
2.120000e-06	5.197531e-06	6.148369e-09	3.665570e+01	4.031092e+02
2.130000e-06	5.078489e-06	6.109378e-09	3.581616e+01	4.004847e+02
2.140000e-06	4.957602e-06	6.078128e-09	3.496360e+01	3.978176e+02
2.150000e-06	4.834974e-06	6.029344e-09	3.409876e+01	3.950906e+02
2.160000e-06	4.710613e-06	5.975611e-09	3.322170e+01	3.922786e+02
2.170000e-06	4.584534e-06	5.941906e-09	3.233253e+01	3.893524e+02
2.180000e-06	4.456753e-06	5.888084e-09	3.143135e+01	3.862822e+02
2.190000e-06	4.327402e-06	5.831069e-09	3.051910e+01	3.830423e+02
2.200000e-06	4.196598e-06	5.777940e-09	2.959660e+01	3.796144e+02
2.210000e-06	4.064372e-06	5.736256e-09	2.866408e+01	3.759897e+02
2.220000e-06	3.930688e-06	5.674688e-09	2.772127e+01	3.721693e+02
2.230000e-06	3.795458e-06	5.613769e-09	2.676755e+01	3.681626e+02
2.240000e-06	3.658795e-06	5.555038e-09	2.580373e+01	3.639844e+02
2.250000e-06	3.520886e-06	5.493775e-09	2.483113e+01	3.596501e+02
2.260000e-06	3.381662e-06	5.421968e-09	2.384925e+01	3.551710e+02
2.270000e-06	3.241155e-06	5.351078e-09	2.285832e+01	3.505496e+02
2.280000e-06	3.099350e-06	5.281486e-09	2.185824e+01	3.457763e+02
2.290000e-06	2.956189e-06	5.203054e-09	2.084859e+01	3.408272e+02
2.300000e-06	2.811879e-06	5.120261e-09	1.983084e+01	3.356655e+02
2.310000e-06	2.666703e-06	5.039086e-09	1.880699e+01	3.302430e+02
2.320000e-06	2.520719e-06	4.954883e-09	1.777743e+01	3.245054e+02
2.330000e-06	2.373904e-06	4.855734e-09	1.674201e+01	3.183968e+02
2.340000e-06	2.226251e-06	4.753613e-09	1.570069e+01	3.118656e+02
2.350000e-06	2.077792e-06	4.653758e-09	1.465368e+01	3.048686e+02
2.360000e-06	1.928616e-06	4.544623e-09	1.360161e+01	2.973726e+02
2.370000e-06	1.778769e-06	4.421818e-09	1.254481e+01	2.893547e+02
2.380000e-06	1.628285e-06	4.292204e-09	1.148351e+01	2.807981e+02
2.390000e-06	1.477203e-06	4.156465e-09	1.041801e+01	2.716859e+02
2.400000e-06	1.325537e-06	4.008197e-09	9.348381e+00	2.619929e+02
2.410000e-06	1.173278e-06	3.851411e-09	8.274569e+00	2.516763e+02
2.420000e-06	1.020605e-06	3.688969e-09	7.197843e+00	2.406673e+02
2.430000e-06	8.676569e-07	3.510321e-09	6.119170e+00	2.288654e+02
2.440000e-06	7.144125e-07	3.311475e-09	5.038411e+00	2.161363e+02
2.450000e-06	5.609581e-07	3.095170e-09	3.956169e+00	2.023147e+02
2.460000e-06	4.073773e-07	2.862419e-09	2.873037e+00	1.872137e+02
2.470000e-06	2.536917e-07	2.609343e-09	1.789166e+00	1.706385e+02
2.480000e-06	9.993089e-08	2.332291e-09	7.047649e-01	1.524053e+02
2.490000e-06	-5.387802e-08	2.029542e-09	-3.799760e-01	1.323630e+02
2.500000e-06	-2.076609e-07	1.700027e-09	-1.464534e+00	1.104153e+02
2.510000e-06	-3.612993e-07	1.342131e-09	-2.548071e+00	8.654150e+01
2.520000e-06	-5.147841e-07	9.562858e-10	-3.630527e+00	6.081197e+01
2.530000e-06	-6.681640e-07	5.442044e-10	-4.712242e+00	3.339804e+01
2.540000e-06	-8.213397e-07	1.068013e-10	-5.792517e+00	4.572872e+00
2.550000e-06	-9.742397e-07	-3.493863e-10	-6.870847e+00	-2.529636e+01
2.560000e-06	-1.126816e-06	-8.169799e-10	-7.946899e+00	-5.576518e+01
2.570000e-06	-1.278943e-06	-1.286826e-09	-9.019773e+00	-8.633615e+01
2.580000e-06	-1.430562e-06	-1.751776e-09	-1.008907e+01	-1.164888e+02
2.590000e-06	-1.581636e-06	-2.204352e-09	-1.115453e+01	-1.457125e+02
2.600000e-06	-1.732123e-06	-2.634188e-09	-1.221584e+01	-1.735388e+02
2.610000e-06	-1.881949e-06	-3.034343e-09	-1.327249e+01	-1.995706e+02
2.620000e-06	-2.031029e-06	-3.400598e-09	-1.432388e+01	-2.235051e+02
2.630000e-06	-2.179366e-06	-3.729907e-09	-1.537003e+01	-2.451487e+02
2.640000e-06	-2.327009e-06	-4.019505e-09	-1.641128e+01	-2.644223e+02
2.650000e-06	-2.473892e-06	-4.272066e-09	-1.744718e+01	-2.813567e+02
2.660000e-06	-2.619924e-06	-4.491492e-09	-1.847708e+01	-2.960802e+02
2.670000e-06	-2.765107e-06	-4.684601e-09	-1.950098e+01	-3.087978e+02
2.680000e-06	-2.909275e-06	-4.852769e-09	-2.051773e+01	-3.197674e+02
2.690000e-06	-3.052207e-06	-5.000678e-09	-2.152576e+01	-3.292725e+02
2.700000e-06	-3.193880e-06	-5.133020e-09	-2.252491e+01	-3.375974e+02
2.710000e-06	-3.334342e-06	-5.251696e-09	-2.351552e+01	-3.450047e+02
2.720000e-06	-3.473550e-06	-5.359561e-09	-2.449729e+01	-3.517188e+02
2.730000e-06	-3.611463e-06	-5.457947e-09	-2.546992e+01	-3.579161e+02
2.740000e-06	-3.748112e-06	-5.548181e-09	-2.643365e+01	-3.637207e+02
2.750000e-06	-3.883422e-06	-5.629632e-09	-2.738792e+01	-3.692085e+02
2.760000e-06	-4.017270e-06	-5.705979e-09	-2.833188e+01	-3.744142e+02
2.770000e-06	-4.149665e-06	-5.778865e-09	-2.926560e+01	-3.793432e+02
2.780000e-06	-4.280619e-06	-5.848118e-09	-3.018916e+01	-3.839836e+02
2.790000e-06	-4.410116e-06	-5.911663e-09	-3.110245e+01	-3.883190e+02
2.800000e-06	-4.538085e-06	-5.970467e-09	-3.200495e+01	-3.923382e+02
2.810000e-06	-4.664398e-06	-6.026189e-09	-3.289577e+01	-3.960419e+02
2.820000e-06	-4.789072e-06	-6.080644e-09	-3.377504e+01	-3.994461e+02
2.830000e-06	-4.912138e-06	-6.132954e-09	-3.464296e+01	-4.025813e+02
2.840000e-06	-5.033486e-06	-6.181129e-09	-3.549877e+01	-4.054889e+02
2.850000e-06	-5.152865e-06	-6.227093e-09	-3.634070e+01	-4.082159e+02
2.860000e-06	-5.270145e-06	-6.272475e-09	-3.716782e+01	-4.108081e+02
2.870000e-06	-5.385303e-06	-6.316503e-09	-3.797997e+01	-4.133043e+02
2.880000e-06	-5.498275e-06	-6.357529e-09	-3.877671e+01	-4.157317e+02
2.890000e-06	-5.609112e-06	-6.396197e-09	-3.955839e+01	-4.181033e+02
2.900000e-06	-5.717973e-06	-6.432475e-09	-4.032613e+01	-4.204181e+02
2.910000e-06	-5.824984e-06	-6.465778e-09	-4.108083e+01	-4.226635e+02
2.920000e-06	-5.930102e-06	-6.495932e-09	-4.182218e+01	-4.248189e+02
2.930000e-06	-6.033072e-06	-6.524254e-09	-4.254838e+01	-4.268612e+02
2.940000e-06	-6.133752e-06	-6.551332e-09	-4.325842e+01	-4.287702e+02
