# Temperatura_=_20.0
# Concentracion g/m^3_=_9000.0
# C_Vs_to_Am_M_A/Vsm_=_65563218390.804596
# pendiente_HvsI_1/m_=_3716.3
# ordenada_HvsI_A/m_=_1297.0
# frecuencia_Hz_=_301293.8468210124

Tiempo_(s)	Campo_(V.s)	Magnetizacion_(V.s)	Campo_(kA/m)	Magnetizacion_(A/m)
0.000000e+00	-8.130830e-06	-6.950482e-09	-5.697906e+01	-4.558747e+02
1.000000e-08	-8.128545e-06	-6.953017e-09	-5.696305e+01	-4.557484e+02
2.000000e-08	-8.123595e-06	-6.953449e-09	-5.692836e+01	-4.556191e+02
3.000000e-08	-8.116068e-06	-6.950518e-09	-5.687561e+01	-4.554792e+02
4.000000e-08	-8.105728e-06	-6.946423e-09	-5.680315e+01	-4.553154e+02
5.000000e-08	-8.092413e-06	-6.941921e-09	-5.670984e+01	-4.551116e+02
6.000000e-08	-8.076123e-06	-6.937497e-09	-5.659568e+01	-4.548513e+02
7.000000e-08	-8.057288e-06	-6.934572e-09	-5.646370e+01	-4.545212e+02
8.000000e-08	-8.036163e-06	-6.933019e-09	-5.631566e+01	-4.541135e+02
9.000000e-08	-8.012275e-06	-6.957668e-09	-5.614825e+01	-4.536277e+02
1.000000e-07	-7.985201e-06	-6.967010e-09	-5.595853e+01	-4.530712e+02
1.100000e-07	-7.955012e-06	-6.931941e-09	-5.574697e+01	-4.524585e+02
1.200000e-07	-7.921887e-06	-6.893650e-09	-5.551483e+01	-4.518091e+02
1.300000e-07	-7.885929e-06	-6.879507e-09	-5.526284e+01	-4.511442e+02
1.400000e-07	-7.847568e-06	-6.885999e-09	-5.499402e+01	-4.504838e+02
1.500000e-07	-7.806981e-06	-6.857871e-09	-5.470960e+01	-4.498425e+02
1.600000e-07	-7.763884e-06	-6.842097e-09	-5.440758e+01	-4.492278e+02
1.700000e-07	-7.717973e-06	-6.847882e-09	-5.408585e+01	-4.486375e+02
1.800000e-07	-7.669182e-06	-6.804263e-09	-5.374393e+01	-4.480605e+02
1.900000e-07	-7.617439e-06	-6.835792e-09	-5.338133e+01	-4.474775e+02
2.000000e-07	-7.562675e-06	-6.827444e-09	-5.299755e+01	-4.468640e+02
2.100000e-07	-7.505162e-06	-6.769173e-09	-5.259452e+01	-4.461935e+02
2.200000e-07	-7.445094e-06	-6.771240e-09	-5.217357e+01	-4.454416e+02
2.300000e-07	-7.382490e-06	-6.768605e-09	-5.173486e+01	-4.445891e+02
2.400000e-07	-7.317107e-06	-6.768352e-09	-5.127667e+01	-4.436254e+02
2.500000e-07	-7.248882e-06	-6.718933e-09	-5.079856e+01	-4.425491e+02
2.600000e-07	-7.178001e-06	-6.710309e-09	-5.030184e+01	-4.413681e+02
2.700000e-07	-7.104375e-06	-6.705878e-09	-4.978589e+01	-4.400984e+02
2.800000e-07	-7.028025e-06	-6.686603e-09	-4.925085e+01	-4.387605e+02
2.900000e-07	-6.948920e-06	-6.669770e-09	-4.869649e+01	-4.373760e+02
3.000000e-07	-6.867197e-06	-6.648577e-09	-4.812380e+01	-4.359638e+02
3.100000e-07	-6.783198e-06	-6.632352e-09	-4.753515e+01	-4.345368e+02
3.200000e-07	-6.696985e-06	-6.592006e-09	-4.693099e+01	-4.330992e+02
3.300000e-07	-6.608415e-06	-6.583305e-09	-4.631031e+01	-4.316459e+02
3.400000e-07	-6.517391e-06	-6.566853e-09	-4.567243e+01	-4.301630e+02
3.500000e-07	-6.424016e-06	-6.520509e-09	-4.501808e+01	-4.286296e+02
3.600000e-07	-6.328303e-06	-6.487588e-09	-4.434734e+01	-4.270216e+02
3.700000e-07	-6.230315e-06	-6.480957e-09	-4.366067e+01	-4.253153e+02
3.800000e-07	-6.130097e-06	-6.454658e-09	-4.295836e+01	-4.234909e+02
3.900000e-07	-6.027624e-06	-6.409352e-09	-4.224025e+01	-4.215358e+02
4.000000e-07	-5.922959e-06	-6.389862e-09	-4.150678e+01	-4.194467e+02
4.100000e-07	-5.816258e-06	-6.368694e-09	-4.075905e+01	-4.172293e+02
4.200000e-07	-5.707580e-06	-6.325382e-09	-3.999746e+01	-4.148975e+02
4.300000e-07	-5.596777e-06	-6.285269e-09	-3.922097e+01	-4.124703e+02
4.400000e-07	-5.483719e-06	-6.262026e-09	-3.842869e+01	-4.099685e+02
4.500000e-07	-5.368473e-06	-6.220663e-09	-3.762107e+01	-4.074098e+02
4.600000e-07	-5.251267e-06	-6.167887e-09	-3.679972e+01	-4.048061e+02
4.700000e-07	-5.132161e-06	-6.129628e-09	-3.596505e+01	-4.021600e+02
4.800000e-07	-5.011098e-06	-6.098007e-09	-3.511666e+01	-3.994639e+02
4.900000e-07	-4.888237e-06	-6.049057e-09	-3.425569e+01	-3.967004e+02
5.000000e-07	-4.763730e-06	-5.998893e-09	-3.338316e+01	-3.938445e+02
5.100000e-07	-4.637580e-06	-5.958527e-09	-3.249913e+01	-3.908671e+02
5.200000e-07	-4.509664e-06	-5.909906e-09	-3.160272e+01	-3.877390e+02
5.300000e-07	-4.380027e-06	-5.854354e-09	-3.069426e+01	-3.844357e+02
5.400000e-07	-4.248818e-06	-5.803384e-09	-2.977477e+01	-3.809406e+02
5.500000e-07	-4.116110e-06	-5.752086e-09	-2.884479e+01	-3.772469e+02
5.600000e-07	-3.982048e-06	-5.687299e-09	-2.790531e+01	-3.733585e+02
5.700000e-07	-3.846505e-06	-5.627919e-09	-2.695546e+01	-3.692877e+02
5.800000e-07	-3.709343e-06	-5.575004e-09	-2.599426e+01	-3.650521e+02
5.900000e-07	-3.570785e-06	-5.513279e-09	-2.502327e+01	-3.606699e+02
6.000000e-07	-3.430940e-06	-5.437588e-09	-2.404327e+01	-3.561544e+02
6.100000e-07	-3.289640e-06	-5.364326e-09	-2.305307e+01	-3.515093e+02
6.200000e-07	-3.146942e-06	-5.296817e-09	-2.205308e+01	-3.467251e+02
6.300000e-07	-3.003063e-06	-5.217045e-09	-2.104480e+01	-3.417776e+02
6.400000e-07	-2.858132e-06	-5.129330e-09	-2.002916e+01	-3.366279e+02
6.500000e-07	-2.712234e-06	-5.042843e-09	-1.900674e+01	-3.312259e+02
6.600000e-07	-2.565440e-06	-4.955383e-09	-1.797804e+01	-3.255144e+02
6.700000e-07	-2.417797e-06	-4.859637e-09	-1.694338e+01	-3.194353e+02
6.800000e-07	-2.269365e-06	-4.761383e-09	-1.590321e+01	-3.129349e+02
6.900000e-07	-2.120194e-06	-4.658090e-09	-1.485785e+01	-3.059687e+02
7.000000e-07	-1.970317e-06	-4.543671e-09	-1.380755e+01	-2.985037e+02
7.100000e-07	-1.819797e-06	-4.423092e-09	-1.275273e+01	-2.905182e+02
7.200000e-07	-1.668613e-06	-4.300995e-09	-1.169327e+01	-2.819976e+02
7.300000e-07	-1.516739e-06	-4.167072e-09	-1.062897e+01	-2.729283e+02
7.400000e-07	-1.364198e-06	-4.014463e-09	-9.560000e+00	-2.632883e+02
7.500000e-07	-1.211128e-06	-3.857160e-09	-8.487314e+00	-2.530380e+02
7.600000e-07	-1.057629e-06	-3.693634e-09	-7.411629e+00	-2.421107e+02
7.700000e-07	-9.037001e-07	-3.514000e-09	-6.332930e+00	-2.304060e+02
7.800000e-07	-7.494449e-07	-3.315814e-09	-5.251944e+00	-2.177879e+02
7.900000e-07	-5.949994e-07	-3.103257e-09	-4.169624e+00	-2.040869e+02
8.000000e-07	-4.403479e-07	-2.871441e-09	-3.085861e+00	-1.891089e+02
8.100000e-07	-2.855248e-07	-2.615046e-09	-2.000895e+00	-1.726500e+02
8.200000e-07	-1.306046e-07	-2.335258e-09	-9.152481e-01	-1.545156e+02
8.300000e-07	2.435918e-08	-2.029413e-09	1.707037e-01	-1.345429e+02
8.400000e-07	1.792818e-07	-1.693232e-09	1.256367e+00	-1.126243e+02
8.500000e-07	3.341598e-07	-1.327423e-09	2.341718e+00	-8.872914e+01
8.600000e-07	4.889358e-07	-9.386546e-10	3.426354e+00	-6.292039e+01
8.700000e-07	6.435689e-07	-5.261310e-10	4.509988e+00	-3.536546e+01
8.800000e-07	7.980187e-07	-8.864807e-11	5.592339e+00	-6.337710e+00
8.900000e-07	9.521839e-07	3.697489e-10	6.672695e+00	2.379104e+01
9.000000e-07	1.105914e-06	8.407602e-10	7.750000e+00	5.456740e+01
9.100000e-07	1.259120e-06	1.316085e-09	8.823635e+00	8.548133e+01
9.200000e-07	1.411875e-06	1.786976e-09	9.894107e+00	1.159970e+02
9.300000e-07	1.564168e-06	2.243411e-09	1.096135e+01	1.455869e+02
9.400000e-07	1.715915e-06	2.680504e-09	1.202475e+01	1.737654e+02
9.500000e-07	1.866996e-06	3.088801e-09	1.308350e+01	2.001199e+02
9.600000e-07	2.017250e-06	3.457922e-09	1.413644e+01	2.243344e+02
9.700000e-07	2.166730e-06	3.783685e-09	1.518396e+01	2.462057e+02
9.800000e-07	2.315460e-06	4.071075e-09	1.622623e+01	2.656495e+02
9.900000e-07	2.463344e-06	4.321479e-09	1.726257e+01	2.826960e+02
1.000000e-06	2.610439e-06	4.535194e-09	1.829338e+01	2.974770e+02
1.010000e-06	2.756642e-06	4.721114e-09	1.931794e+01	3.102049e+02
1.020000e-06	2.901832e-06	4.887234e-09	2.033540e+01	3.211476e+02
1.030000e-06	3.046036e-06	5.037368e-09	2.134595e+01	3.306002e+02
1.040000e-06	3.189109e-06	5.170755e-09	2.234857e+01	3.388591e+02
1.050000e-06	3.330945e-06	5.290635e-09	2.334252e+01	3.461982e+02
1.060000e-06	3.471463e-06	5.398354e-09	2.432725e+01	3.528514e+02
1.070000e-06	3.610675e-06	5.495987e-09	2.530281e+01	3.590017e+02
1.080000e-06	3.748542e-06	5.585086e-09	2.626895e+01	3.647777e+02
1.090000e-06	3.885006e-06	5.665445e-09	2.722526e+01	3.702563e+02
1.100000e-06	4.020036e-06	5.739255e-09	2.817152e+01	3.754712e+02
1.110000e-06	4.153534e-06	5.809409e-09	2.910705e+01	3.804242e+02
1.120000e-06	4.285552e-06	5.876359e-09	3.003220e+01	3.850993e+02
1.130000e-06	4.416048e-06	5.939901e-09	3.094669e+01	3.894752e+02
1.140000e-06	4.544974e-06	5.999135e-09	3.185017e+01	3.935361e+02
1.150000e-06	4.672262e-06	6.054250e-09	3.274218e+01	3.972793e+02
1.160000e-06	4.797904e-06	6.106698e-09	3.362265e+01	4.007187e+02
1.170000e-06	4.921968e-06	6.156584e-09	3.449206e+01	4.038841e+02
1.180000e-06	5.044299e-06	6.201740e-09	3.534933e+01	4.068179e+02
1.190000e-06	5.164787e-06	6.242839e-09	3.619368e+01	4.095690e+02
1.200000e-06	5.283392e-06	6.282401e-09	3.702484e+01	4.121860e+02
1.210000e-06	5.400035e-06	6.320468e-09	3.784225e+01	4.147106e+02
1.220000e-06	5.514561e-06	6.356224e-09	3.864483e+01	4.171725e+02
1.230000e-06	5.626874e-06	6.389320e-09	3.943189e+01	4.195866e+02
1.240000e-06	5.737136e-06	6.422760e-09	4.020458e+01	4.219527e+02
1.250000e-06	5.845459e-06	6.455781e-09	4.096368e+01	4.242576e+02
1.260000e-06	5.951777e-06	6.487115e-09	4.170874e+01	4.264793e+02
1.270000e-06	6.055969e-06	6.516761e-09	4.243889e+01	4.285926e+02
1.280000e-06	6.157975e-06	6.544391e-09	4.315372e+01	4.305738e+02
1.290000e-06	6.257732e-06	6.570709e-09	4.385280e+01	4.324064e+02
1.300000e-06	6.355205e-06	6.596421e-09	4.453587e+01	4.340839e+02
1.310000e-06	6.450339e-06	6.618696e-09	4.520255e+01	4.356116e+02
1.320000e-06	6.543219e-06	6.638855e-09	4.585344e+01	4.370054e+02
1.330000e-06	6.633872e-06	6.659580e-09	4.648871e+01	4.382898e+02
1.340000e-06	6.722099e-06	6.680863e-09	4.710699e+01	4.394937e+02
1.350000e-06	6.807970e-06	6.701355e-09	4.770875e+01	4.406460e+02
1.360000e-06	6.891555e-06	6.720094e-09	4.829449e+01	4.417713e+02
1.370000e-06	6.972666e-06	6.737616e-09	4.886290e+01	4.428864e+02
1.380000e-06	7.051240e-06	6.754581e-09	4.941353e+01	4.439982e+02
1.390000e-06	7.127293e-06	6.770912e-09	4.994650e+01	4.451035e+02
1.400000e-06	7.200656e-06	6.785930e-09	5.046061e+01	4.461902e+02
1.410000e-06	7.271352e-06	6.800195e-09	5.095602e+01	4.472402e+02
1.420000e-06	7.339522e-06	6.813592e-09	5.143375e+01	4.482331e+02
1.430000e-06	7.405016e-06	6.827890e-09	5.189272e+01	4.491498e+02
1.440000e-06	7.467815e-06	6.842206e-09	5.233280e+01	4.499764e+02
1.450000e-06	7.528138e-06	6.855346e-09	5.275553e+01	4.507064e+02
1.460000e-06	7.585835e-06	6.866057e-09	5.315985e+01	4.513417e+02
1.470000e-06	7.640762e-06	6.874757e-09	5.354477e+01	4.518925e+02
1.480000e-06	7.692820e-06	6.884682e-09	5.390958e+01	4.523753e+02
1.490000e-06	7.741731e-06	6.893912e-09	5.425234e+01	4.528100e+02
1.500000e-06	7.787695e-06	6.902412e-09	5.457445e+01	4.532168e+02
1.510000e-06	7.830938e-06	6.909562e-09	5.487748e+01	4.536125e+02
1.520000e-06	7.871327e-06	6.917042e-09	5.516052e+01	4.540082e+02
1.530000e-06	7.908921e-06	6.925848e-09	5.542397e+01	4.544075e+02
1.540000e-06	7.943849e-06	6.932868e-09	5.566874e+01	4.548063e+02
1.550000e-06	7.975954e-06	6.937614e-09	5.589372e+01	4.551940e+02
1.560000e-06	8.005299e-06	6.941112e-09	5.609937e+01	4.555554e+02
1.570000e-06	8.031873e-06	6.944884e-09	5.628559e+01	4.558739e+02
1.580000e-06	8.055465e-06	6.947827e-09	5.645091e+01	4.561343e+02
1.590000e-06	8.076297e-06	6.951579e-09	5.659690e+01	4.563260e+02
1.600000e-06	8.094412e-06	6.954824e-09	5.672385e+01	4.564441e+02
1.610000e-06	8.109548e-06	6.957028e-09	5.682992e+01	4.564911e+02
1.620000e-06	8.121552e-06	6.959956e-09	5.691404e+01	4.564755e+02
1.630000e-06	8.130426e-06	6.963139e-09	5.697623e+01	4.564108e+02
1.640000e-06	8.136378e-06	6.965462e-09	5.701794e+01	4.563125e+02
1.650000e-06	8.139500e-06	6.966415e-09	5.703981e+01	4.561955e+02
1.660000e-06	8.139740e-06	6.965926e-09	5.704150e+01	4.560709e+02
1.670000e-06	8.137258e-06	6.959447e-09	5.702410e+01	4.559445e+02
1.680000e-06	8.132136e-06	6.953686e-09	5.698821e+01	4.558150e+02
1.690000e-06	8.124324e-06	6.950344e-09	5.693347e+01	4.556744e+02
1.700000e-06	8.113867e-06	6.948079e-09	5.686018e+01	4.555094e+02
1.710000e-06	8.100540e-06	6.944467e-09	5.676679e+01	4.553038e+02
1.720000e-06	8.084360e-06	6.938933e-09	5.665341e+01	4.550412e+02
1.730000e-06	8.065782e-06	6.931227e-09	5.652322e+01	4.547083e+02
1.740000e-06	8.044810e-06	6.898999e-09	5.637625e+01	4.542977e+02
1.750000e-06	8.020732e-06	6.854597e-09	5.620751e+01	4.538091e+02
1.760000e-06	7.992892e-06	6.865821e-09	5.601242e+01	4.532503e+02
1.770000e-06	7.961459e-06	6.893247e-09	5.579214e+01	4.526359e+02
1.780000e-06	7.927321e-06	6.897610e-09	5.555291e+01	4.519855e+02
1.790000e-06	7.890980e-06	6.883730e-09	5.529824e+01	4.513204e+02
1.800000e-06	7.852295e-06	6.897085e-09	5.502715e+01	4.506604e+02
1.810000e-06	7.811479e-06	6.842919e-09	5.474112e+01	4.500200e+02
1.820000e-06	7.768351e-06	6.818670e-09	5.443889e+01	4.494061e+02
1.830000e-06	7.722341e-06	6.884069e-09	5.411646e+01	4.488165e+02
1.840000e-06	7.673590e-06	6.833730e-09	5.377482e+01	4.482396e+02
1.850000e-06	7.621864e-06	6.849270e-09	5.341234e+01	4.476560e+02
1.860000e-06	7.567118e-06	6.845814e-09	5.302869e+01	4.470408e+02
1.870000e-06	7.509683e-06	6.819879e-09	5.262620e+01	4.463678e+02
1.880000e-06	7.449467e-06	6.813358e-09	5.220422e+01	4.456124e+02
1.890000e-06	7.386551e-06	6.771761e-09	5.176332e+01	4.447561e+02
1.900000e-06	7.320888e-06	6.801167e-09	5.130316e+01	4.437883e+02
1.910000e-06	7.252380e-06	6.745949e-09	5.082308e+01	4.427079e+02
1.920000e-06	7.181080e-06	6.726356e-09	5.032342e+01	4.415235e+02
1.930000e-06	7.107199e-06	6.739898e-09	4.980568e+01	4.402509e+02
1.940000e-06	7.030581e-06	6.707683e-09	4.926876e+01	4.389109e+02
1.950000e-06	6.951129e-06	6.677165e-09	4.871197e+01	4.375250e+02
1.960000e-06	6.869324e-06	6.644501e-09	4.813871e+01	4.361121e+02
1.970000e-06	6.785091e-06	6.664716e-09	4.754841e+01	4.346846e+02
1.980000e-06	6.698239e-06	6.616552e-09	4.693978e+01	4.332466e+02
1.990000e-06	6.608985e-06	6.581985e-09	4.631430e+01	4.317925e+02
2.000000e-06	6.517609e-06	6.578259e-09	4.567396e+01	4.303080e+02
2.010000e-06	6.423969e-06	6.550162e-09	4.501775e+01	4.287724e+02
2.020000e-06	6.327853e-06	6.516034e-09	4.434419e+01	4.271613e+02
2.030000e-06	6.229607e-06	6.494162e-09	4.365571e+01	4.254510e+02
2.040000e-06	6.129125e-06	6.484005e-09	4.295156e+01	4.236220e+02
2.050000e-06	6.026285e-06	6.425444e-09	4.223087e+01	4.216621e+02
2.060000e-06	5.921304e-06	6.386196e-09	4.149519e+01	4.195682e+02
2.070000e-06	5.814397e-06	6.371243e-09	4.074601e+01	4.173463e+02
2.080000e-06	5.705444e-06	6.342294e-09	3.998249e+01	4.150107e+02
2.090000e-06	5.594311e-06	6.283695e-09	3.920369e+01	4.125805e+02
2.100000e-06	5.481136e-06	6.247130e-09	3.841059e+01	4.100763e+02
2.110000e-06	5.365870e-06	6.229121e-09	3.760283e+01	4.075158e+02
2.120000e-06	5.248399e-06	6.190160e-09	3.677962e+01	4.049105e+02
2.130000e-06	5.128850e-06	6.143019e-09	3.594184e+01	4.022628e+02
2.140000e-06	5.007482e-06	6.103381e-09	3.509133e+01	3.995646e+02
2.150000e-06	4.884372e-06	6.060300e-09	3.422860e+01	3.967982e+02
2.160000e-06	4.759447e-06	6.004043e-09	3.335316e+01	3.939384e+02
2.170000e-06	4.632711e-06	5.960372e-09	3.246502e+01	3.909560e+02
2.180000e-06	4.504384e-06	5.918302e-09	3.156573e+01	3.878220e+02
2.190000e-06	4.374525e-06	5.860395e-09	3.065571e+01	3.845121e+02
2.200000e-06	4.243125e-06	5.797379e-09	2.973488e+01	3.810099e+02
2.210000e-06	4.110162e-06	5.751605e-09	2.880311e+01	3.773091e+02
2.220000e-06	3.975687e-06	5.701826e-09	2.786074e+01	3.734138e+02
2.230000e-06	3.839868e-06	5.634485e-09	2.690895e+01	3.693368e+02
2.240000e-06	3.702673e-06	5.567096e-09	2.594751e+01	3.650956e+02
2.250000e-06	3.564054e-06	5.506654e-09	2.497610e+01	3.607084e+02
2.260000e-06	3.424024e-06	5.439936e-09	2.399480e+01	3.561882e+02
2.270000e-06	3.282646e-06	5.366787e-09	2.300406e+01	3.515383e+02
2.280000e-06	3.140065e-06	5.295705e-09	2.200488e+01	3.467488e+02
2.290000e-06	2.996336e-06	5.218780e-09	2.099766e+01	3.417947e+02
2.300000e-06	2.851451e-06	5.132202e-09	1.998234e+01	3.366369e+02
2.310000e-06	2.705598e-06	5.048406e-09	1.896024e+01	3.312248e+02
2.320000e-06	2.558916e-06	4.968756e-09	1.793232e+01	3.255011e+02
2.330000e-06	2.411386e-06	4.873949e-09	1.689846e+01	3.194078e+02
2.340000e-06	2.262952e-06	4.765442e-09	1.585827e+01	3.128914e+02
2.350000e-06	2.113581e-06	4.662309e-09	1.481151e+01	3.059078e+02
2.360000e-06	1.963349e-06	4.558037e-09	1.375871e+01	2.984245e+02
2.370000e-06	1.812432e-06	4.436728e-09	1.270112e+01	2.904200e+02
2.380000e-06	1.661020e-06	4.304628e-09	1.164006e+01	2.818800e+02
2.390000e-06	1.509132e-06	4.169655e-09	1.057566e+01	2.727907e+02
2.400000e-06	1.356705e-06	4.025879e-09	9.507490e+00	2.631297e+02
2.410000e-06	1.203707e-06	3.870306e-09	8.435312e+00	2.528565e+02
2.420000e-06	1.050274e-06	3.705122e-09	7.360091e+00	2.419033e+02
2.430000e-06	8.965318e-07	3.525617e-09	6.282696e+00	2.301686e+02
2.440000e-06	7.424727e-07	3.326543e-09	5.203085e+00	2.175148e+02
2.450000e-06	5.881243e-07	3.112284e-09	4.121445e+00	2.037716e+02
2.460000e-06	4.335789e-07	2.883521e-09	3.038425e+00	1.887441e+02
2.470000e-06	2.789056e-07	2.631201e-09	1.954509e+00	1.722286e+02
2.480000e-06	1.241230e-07	2.350178e-09	8.698263e-01	1.540310e+02
2.490000e-06	-3.069844e-08	2.045144e-09	-2.151279e-01	1.339902e+02
2.500000e-06	-1.854610e-07	1.718155e-09	-1.299669e+00	1.120010e+02
2.510000e-06	-3.401055e-07	1.361211e-09	-2.383384e+00	8.803576e+01
2.520000e-06	-4.946041e-07	9.727363e-10	-3.466076e+00	6.216108e+01
2.530000e-06	-6.489664e-07	5.577305e-10	-4.547813e+00	3.454816e+01
2.540000e-06	-8.031179e-07	1.186999e-10	-5.628073e+00	5.474090e+00
2.550000e-06	-9.569600e-07	-3.402466e-10	-6.706164e+00	-2.468607e+01
2.560000e-06	-1.110463e-06	-8.136983e-10	-7.781882e+00	-5.547642e+01
2.570000e-06	-1.263500e-06	-1.291307e-09	-8.854331e+00	-8.638547e+01
2.580000e-06	-1.416010e-06	-1.763313e-09	-9.923084e+00	-1.168771e+02
2.590000e-06	-1.568040e-06	-2.221903e-09	-1.098848e+01	-1.464246e+02
2.600000e-06	-1.719560e-06	-2.656112e-09	-1.205029e+01	-1.745447e+02
2.610000e-06	-1.870516e-06	-3.059913e-09	-1.310816e+01	-2.008275e+02
2.620000e-06	-2.020778e-06	-3.429628e-09	-1.416116e+01	-2.249612e+02
2.630000e-06	-2.170267e-06	-3.760646e-09	-1.520875e+01	-2.467466e+02
2.640000e-06	-2.319019e-06	-4.050220e-09	-1.625117e+01	-2.661037e+02
2.650000e-06	-2.466882e-06	-4.301042e-09	-1.728736e+01	-2.830666e+02
2.660000e-06	-2.613804e-06	-4.519255e-09	-1.831696e+01	-2.977702e+02
2.670000e-06	-2.759881e-06	-4.711336e-09	-1.934064e+01	-3.104296e+02
2.680000e-06	-2.904997e-06	-4.878884e-09	-2.035757e+01	-3.213139e+02
2.690000e-06	-3.049022e-06	-5.026583e-09	-2.136687e+01	-3.307189e+02
2.700000e-06	-3.191920e-06	-5.158544e-09	-2.236827e+01	-3.389405e+02
2.710000e-06	-3.333616e-06	-5.275885e-09	-2.336124e+01	-3.462514e+02
2.720000e-06	-3.474027e-06	-5.380988e-09	-2.434522e+01	-3.528838e+02
2.730000e-06	-3.613068e-06	-5.478495e-09	-2.531958e+01	-3.590189e+02
2.740000e-06	-3.750736e-06	-5.569898e-09	-2.628433e+01	-3.647833e+02
2.750000e-06	-3.887067e-06	-5.650668e-09	-2.723971e+01	-3.702522e+02
2.760000e-06	-4.021983e-06	-5.725473e-09	-2.818517e+01	-3.754579e+02
2.770000e-06	-4.155466e-06	-5.798346e-09	-2.912059e+01	-3.804014e+02
2.780000e-06	-4.287406e-06	-5.868160e-09	-3.004520e+01	-3.850662e+02
2.790000e-06	-4.417839e-06	-5.931189e-09	-3.095924e+01	-3.894311e+02
2.800000e-06	-4.546842e-06	-5.989015e-09	-3.186326e+01	-3.934807e+02
2.810000e-06	-4.674210e-06	-6.045072e-09	-3.275583e+01	-3.972128e+02
2.820000e-06	-4.799950e-06	-6.099868e-09	-3.363699e+01	-4.006418e+02
2.830000e-06	-4.923965e-06	-6.153374e-09	-3.450606e+01	-4.037982e+02
2.840000e-06	-5.046191e-06	-6.204143e-09	-3.536259e+01	-4.067247e+02
2.850000e-06	-5.166637e-06	-6.251655e-09	-3.620665e+01	-4.094703e+02
2.860000e-06	-5.285140e-06	-6.296595e-09	-3.703709e+01	-4.120834e+02
2.870000e-06	-5.401505e-06	-6.340322e-09	-3.785255e+01	-4.146053e+02
2.880000e-06	-5.515621e-06	-6.382180e-09	-3.865225e+01	-4.170654e+02
2.890000e-06	-5.627540e-06	-6.420392e-09	-3.943655e+01	-4.194779e+02
2.900000e-06	-5.737354e-06	-6.455760e-09	-4.020611e+01	-4.218421e+02
2.910000e-06	-5.845229e-06	-6.489895e-09	-4.096207e+01	-4.241446e+02
2.920000e-06	-5.951194e-06	-6.522589e-09	-4.170465e+01	-4.263630e+02
2.930000e-06	-6.055097e-06	-6.552528e-09	-4.243278e+01	-4.284719e+02
2.940000e-06	-6.156789e-06	-6.579468e-09	-4.314542e+01	-4.304481e+02
