# Temperatura_=_20.0
# Concentracion g/m^3_=_9000.0
# C_Vs_to_Am_M_A/Vsm_=_65563218390.804596
# pendiente_HvsI_1/m_=_3716.3
# ordenada_HvsI_A/m_=_1297.0
# frecuencia_Hz_=_301294.9437619192

Tiempo_(s)	Campo_(V.s)	Magnetizacion_(V.s)	Campo_(kA/m)	Magnetizacion_(A/m)
0.000000e+00	-8.086990e-06	-6.930905e-09	-5.698028e+01	-4.549515e+02
1.000000e-08	-8.084910e-06	-6.935883e-09	-5.696562e+01	-4.548413e+02
2.000000e-08	-8.080114e-06	-6.936595e-09	-5.693183e+01	-4.547400e+02
3.000000e-08	-8.072804e-06	-6.931931e-09	-5.688032e+01	-4.546415e+02
4.000000e-08	-8.062702e-06	-6.928032e-09	-5.680915e+01	-4.545316e+02
5.000000e-08	-8.049643e-06	-6.922891e-09	-5.671713e+01	-4.543910e+02
6.000000e-08	-8.033639e-06	-6.916621e-09	-5.660437e+01	-4.541979e+02
7.000000e-08	-8.015035e-06	-6.913271e-09	-5.647329e+01	-4.539319e+02
8.000000e-08	-7.994128e-06	-6.898923e-09	-5.632598e+01	-4.535773e+02
9.000000e-08	-7.970554e-06	-6.943595e-09	-5.615988e+01	-4.531258e+02
1.000000e-07	-7.943840e-06	-6.976787e-09	-5.597165e+01	-4.525780e+02
1.100000e-07	-7.913975e-06	-6.921786e-09	-5.576123e+01	-4.519432e+02
1.200000e-07	-7.881176e-06	-6.866967e-09	-5.553013e+01	-4.512384e+02
1.300000e-07	-7.845572e-06	-6.848644e-09	-5.527926e+01	-4.504854e+02
1.400000e-07	-7.807551e-06	-6.859519e-09	-5.501137e+01	-4.497072e+02
1.500000e-07	-7.767311e-06	-6.835175e-09	-5.472785e+01	-4.489247e+02
1.600000e-07	-7.724621e-06	-6.835963e-09	-5.442705e+01	-4.481530e+02
1.700000e-07	-7.679167e-06	-6.853960e-09	-5.410679e+01	-4.473993e+02
1.800000e-07	-7.630834e-06	-6.754369e-09	-5.376624e+01	-4.466616e+02
1.900000e-07	-7.579570e-06	-6.841937e-09	-5.340504e+01	-4.459292e+02
2.000000e-07	-7.525330e-06	-6.843085e-09	-5.302286e+01	-4.451842e+02
2.100000e-07	-7.468238e-06	-6.736229e-09	-5.262060e+01	-4.444048e+02
2.200000e-07	-7.408501e-06	-6.762348e-09	-5.219970e+01	-4.435683e+02
2.300000e-07	-7.346226e-06	-6.749883e-09	-5.176091e+01	-4.426549e+02
2.400000e-07	-7.281291e-06	-6.778630e-09	-5.130339e+01	-4.416507e+02
2.500000e-07	-7.213614e-06	-6.699262e-09	-5.082654e+01	-4.405495e+02
2.600000e-07	-7.143348e-06	-6.697738e-09	-5.033145e+01	-4.393534e+02
2.700000e-07	-7.070335e-06	-6.699988e-09	-4.981701e+01	-4.380721e+02
2.800000e-07	-6.994519e-06	-6.665682e-09	-4.928282e+01	-4.367207e+02
2.900000e-07	-6.915979e-06	-6.648858e-09	-4.872943e+01	-4.353164e+02
3.000000e-07	-6.834815e-06	-6.625148e-09	-4.815755e+01	-4.338755e+02
3.100000e-07	-6.751353e-06	-6.621406e-09	-4.756949e+01	-4.324099e+02
3.200000e-07	-6.665667e-06	-6.558036e-09	-4.696575e+01	-4.309246e+02
3.300000e-07	-6.577679e-06	-6.564589e-09	-4.634579e+01	-4.294166e+02
3.400000e-07	-6.487247e-06	-6.564272e-09	-4.570862e+01	-4.278750e+02
3.500000e-07	-6.394469e-06	-6.496827e-09	-4.505491e+01	-4.262824e+02
3.600000e-07	-6.299489e-06	-6.458831e-09	-4.438569e+01	-4.246180e+02
3.700000e-07	-6.202256e-06	-6.465592e-09	-4.370060e+01	-4.228605e+02
3.800000e-07	-6.102734e-06	-6.435790e-09	-4.299937e+01	-4.209919e+02
3.900000e-07	-6.000934e-06	-6.368292e-09	-4.228210e+01	-4.190004e+02
4.000000e-07	-5.896988e-06	-6.354266e-09	-4.154970e+01	-4.168822e+02
4.100000e-07	-5.790947e-06	-6.344719e-09	-4.080255e+01	-4.146422e+02
4.200000e-07	-5.682811e-06	-6.291855e-09	-4.004062e+01	-4.122931e+02
4.300000e-07	-5.572671e-06	-6.249002e-09	-3.926459e+01	-4.098528e+02
4.400000e-07	-5.460529e-06	-6.235523e-09	-3.847444e+01	-4.073410e+02
4.500000e-07	-5.346224e-06	-6.193475e-09	-3.766906e+01	-4.047756e+02
4.600000e-07	-5.229791e-06	-6.132239e-09	-3.684868e+01	-4.021689e+02
4.700000e-07	-5.111370e-06	-6.096768e-09	-3.601430e+01	-3.995251e+02
4.800000e-07	-4.991063e-06	-6.069743e-09	-3.516663e+01	-3.968385e+02
4.900000e-07	-4.868972e-06	-6.010249e-09	-3.430639e+01	-3.940936e+02
5.000000e-07	-4.745145e-06	-5.958002e-09	-3.343390e+01	-3.912674e+02
5.100000e-07	-4.619704e-06	-5.926752e-09	-3.255006e+01	-3.883323e+02
5.200000e-07	-4.492564e-06	-5.882033e-09	-3.165424e+01	-3.852596e+02
5.300000e-07	-4.363753e-06	-5.819959e-09	-3.074665e+01	-3.820242e+02
5.400000e-07	-4.233325e-06	-5.771763e-09	-2.982766e+01	-3.786079e+02
5.500000e-07	-4.101300e-06	-5.732228e-09	-2.889743e+01	-3.750014e+02
5.600000e-07	-3.967913e-06	-5.664116e-09	-2.795759e+01	-3.712054e+02
5.700000e-07	-3.833138e-06	-5.598975e-09	-2.700798e+01	-3.672287e+02
5.800000e-07	-3.696910e-06	-5.546243e-09	-2.604813e+01	-3.630856e+02
5.900000e-07	-3.559380e-06	-5.486621e-09	-2.507910e+01	-3.587912e+02
6.000000e-07	-3.420439e-06	-5.405688e-09	-2.410014e+01	-3.543571e+02
6.100000e-07	-3.279993e-06	-5.336623e-09	-2.311056e+01	-3.497860e+02
6.200000e-07	-3.138202e-06	-5.274417e-09	-2.211152e+01	-3.450686e+02
6.300000e-07	-2.995254e-06	-5.193351e-09	-2.110432e+01	-3.401818e+02
6.400000e-07	-2.851236e-06	-5.105948e-09	-2.008958e+01	-3.350888e+02
6.500000e-07	-2.706073e-06	-5.022922e-09	-1.906677e+01	-3.297415e+02
6.600000e-07	-2.559969e-06	-4.938777e-09	-1.803733e+01	-3.240852e+02
6.700000e-07	-2.413048e-06	-4.837989e-09	-1.700214e+01	-3.180636e+02
6.800000e-07	-2.265274e-06	-4.740018e-09	-1.596093e+01	-3.116241e+02
6.900000e-07	-2.116828e-06	-4.638513e-09	-1.491500e+01	-3.047228e+02
7.000000e-07	-1.967791e-06	-4.523673e-09	-1.386489e+01	-2.973265e+02
7.100000e-07	-1.818037e-06	-4.400497e-09	-1.280974e+01	-2.894124e+02
7.200000e-07	-1.667583e-06	-4.279326e-09	-1.174965e+01	-2.809647e+02
7.300000e-07	-1.516534e-06	-4.149467e-09	-1.068538e+01	-2.719685e+02
7.400000e-07	-1.364924e-06	-3.997701e-09	-9.617147e+00	-2.624010e+02
7.500000e-07	-1.212780e-06	-3.841611e-09	-8.545150e+00	-2.522220e+02
7.600000e-07	-1.060153e-06	-3.682088e-09	-7.469751e+00	-2.413654e+02
7.700000e-07	-9.071533e-07	-3.505786e-09	-6.391728e+00	-2.297323e+02
7.800000e-07	-7.539114e-07	-3.304373e-09	-5.311999e+00	-2.171884e+02
7.900000e-07	-6.004807e-07	-3.089547e-09	-4.230938e+00	-2.035666e+02
8.000000e-07	-4.468100e-07	-2.858555e-09	-3.148187e+00	-1.886753e+02
8.100000e-07	-2.929797e-07	-2.604298e-09	-2.064312e+00	-1.723123e+02
8.200000e-07	-1.391436e-07	-2.325534e-09	-9.803943e-01	-1.542841e+02
8.300000e-07	1.471172e-08	-2.021876e-09	1.036576e-01	-1.344276e+02
8.400000e-07	1.685880e-07	-1.688514e-09	1.187857e+00	-1.126333e+02
8.500000e-07	3.223923e-07	-1.323898e-09	2.271550e+00	-8.886728e+01
8.600000e-07	4.760642e-07	-9.395484e-10	3.354310e+00	-6.318793e+01
8.700000e-07	6.295980e-07	-5.291425e-10	4.436096e+00	-3.575706e+01
8.800000e-07	7.829888e-07	-9.093430e-11	5.516876e+00	-6.842040e+00
8.900000e-07	9.362067e-07	3.680066e-10	6.596437e+00	2.319119e+01
9.000000e-07	1.089120e-06	8.366836e-10	7.673850e+00	5.389431e+01
9.100000e-07	1.241609e-06	1.309474e-09	8.748280e+00	8.476105e+01
9.200000e-07	1.393619e-06	1.781589e-09	9.819324e+00	1.152576e+02
9.300000e-07	1.545063e-06	2.239788e-09	1.088639e+01	1.448566e+02
9.400000e-07	1.695951e-06	2.675779e-09	1.194953e+01	1.730706e+02
9.500000e-07	1.846279e-06	3.080991e-09	1.300873e+01	1.994831e+02
9.600000e-07	1.995920e-06	3.449161e-09	1.406309e+01	2.237734e+02
9.700000e-07	2.144817e-06	3.777306e-09	1.511221e+01	2.457324e+02
9.800000e-07	2.292968e-06	4.068917e-09	1.615607e+01	2.652694e+02
9.900000e-07	2.440208e-06	4.321195e-09	1.719351e+01	2.824088e+02
1.000000e-06	2.586513e-06	4.536338e-09	1.822436e+01	2.972771e+02
1.010000e-06	2.731963e-06	4.723942e-09	1.924919e+01	3.100826e+02
1.020000e-06	2.876498e-06	4.892811e-09	2.026757e+01	3.210901e+02
1.030000e-06	3.020008e-06	5.044335e-09	2.127873e+01	3.305933e+02
1.040000e-06	3.162422e-06	5.179794e-09	2.228217e+01	3.388879e+02
1.050000e-06	3.303614e-06	5.300683e-09	2.327700e+01	3.462484e+02
1.060000e-06	3.443471e-06	5.406929e-09	2.426242e+01	3.529096e+02
1.070000e-06	3.581955e-06	5.502820e-09	2.523817e+01	3.590562e+02
1.080000e-06	3.719095e-06	5.590315e-09	2.620445e+01	3.648183e+02
1.090000e-06	3.854912e-06	5.671045e-09	2.716140e+01	3.702742e+02
1.100000e-06	3.989252e-06	5.744937e-09	2.810795e+01	3.754589e+02
1.110000e-06	4.122152e-06	5.815296e-09	2.904435e+01	3.803754e+02
1.120000e-06	4.253553e-06	5.882324e-09	2.997019e+01	3.850085e+02
1.130000e-06	4.383387e-06	5.944724e-09	3.088499e+01	3.893379e+02
1.140000e-06	4.511747e-06	6.002196e-09	3.178941e+01	3.933488e+02
1.150000e-06	4.638523e-06	6.055783e-09	3.268265e+01	3.970398e+02
1.160000e-06	4.763718e-06	6.106505e-09	3.356477e+01	4.004258e+02
1.170000e-06	4.887245e-06	6.154679e-09	3.443513e+01	4.035383e+02
1.180000e-06	5.008986e-06	6.198703e-09	3.529291e+01	4.064210e+02
1.190000e-06	5.128990e-06	6.239175e-09	3.613845e+01	4.091242e+02
1.200000e-06	5.247114e-06	6.278282e-09	3.697074e+01	4.116971e+02
1.210000e-06	5.363183e-06	6.316633e-09	3.778855e+01	4.141820e+02
1.220000e-06	5.477170e-06	6.352639e-09	3.859170e+01	4.166080e+02
1.230000e-06	5.589113e-06	6.386476e-09	3.938044e+01	4.189891e+02
1.240000e-06	5.699066e-06	6.417806e-09	4.015516e+01	4.213234e+02
1.250000e-06	5.807058e-06	6.447558e-09	4.091606e+01	4.235957e+02
1.260000e-06	5.912982e-06	6.477204e-09	4.166239e+01	4.257818e+02
1.270000e-06	6.016710e-06	6.506507e-09	4.239325e+01	4.278542e+02
1.280000e-06	6.118266e-06	6.533018e-09	4.310881e+01	4.297879e+02
1.290000e-06	6.217612e-06	6.556871e-09	4.380879e+01	4.315655e+02
1.300000e-06	6.314661e-06	6.581013e-09	4.449259e+01	4.331807e+02
1.310000e-06	6.409460e-06	6.603508e-09	4.516054e+01	4.346398e+02
1.320000e-06	6.502060e-06	6.624360e-09	4.581299e+01	4.359610e+02
1.330000e-06	6.592376e-06	6.644020e-09	4.644935e+01	4.371714e+02
1.340000e-06	6.680283e-06	6.664591e-09	4.706874e+01	4.383030e+02
1.350000e-06	6.765884e-06	6.684815e-09	4.767187e+01	4.393878e+02
1.360000e-06	6.849249e-06	6.704032e-09	4.825925e+01	4.404532e+02
1.370000e-06	6.930180e-06	6.722101e-09	4.882949e+01	4.415179e+02
1.380000e-06	7.008531e-06	6.737903e-09	4.938155e+01	4.425896e+02
1.390000e-06	7.084268e-06	6.751867e-09	4.991518e+01	4.436651e+02
1.400000e-06	7.157316e-06	6.765009e-09	5.042987e+01	4.447312e+02
1.410000e-06	7.227768e-06	6.780597e-09	5.092627e+01	4.457680e+02
1.420000e-06	7.295715e-06	6.795425e-09	5.140502e+01	4.467527e+02
1.430000e-06	7.361070e-06	6.807971e-09	5.186550e+01	4.476642e+02
1.440000e-06	7.423823e-06	6.820992e-09	5.230765e+01	4.484866e+02
1.450000e-06	7.484046e-06	6.834583e-09	5.273198e+01	4.492124e+02
1.460000e-06	7.541651e-06	6.847146e-09	5.313786e+01	4.498435e+02
1.470000e-06	7.596478e-06	6.857123e-09	5.352417e+01	4.503909e+02
1.480000e-06	7.648328e-06	6.865219e-09	5.388950e+01	4.508730e+02
1.490000e-06	7.697042e-06	6.873001e-09	5.423274e+01	4.513119e+02
1.500000e-06	7.742842e-06	6.881666e-09	5.455544e+01	4.517303e+02
1.510000e-06	7.785973e-06	6.891699e-09	5.485934e+01	4.521470e+02
1.520000e-06	7.826301e-06	6.901464e-09	5.514348e+01	4.525746e+02
1.530000e-06	7.863826e-06	6.909021e-09	5.540788e+01	4.530168e+02
1.540000e-06	7.898694e-06	6.915846e-09	5.565356e+01	4.534684e+02
1.550000e-06	7.930821e-06	6.922860e-09	5.587992e+01	4.539165e+02
1.560000e-06	7.960199e-06	6.928958e-09	5.608692e+01	4.543423e+02
1.570000e-06	7.986765e-06	6.932875e-09	5.627410e+01	4.547251e+02
1.580000e-06	8.010417e-06	6.935260e-09	5.644075e+01	4.550457e+02
1.590000e-06	8.031304e-06	6.938843e-09	5.658792e+01	4.552894e+02
1.600000e-06	8.049386e-06	6.942776e-09	5.671532e+01	4.554490e+02
1.610000e-06	8.064514e-06	6.945310e-09	5.682191e+01	4.555254e+02
1.620000e-06	8.076684e-06	6.948177e-09	5.690766e+01	4.555280e+02
1.630000e-06	8.085754e-06	6.952200e-09	5.697157e+01	4.554725e+02
1.640000e-06	8.091880e-06	6.955672e-09	5.701473e+01	4.553781e+02
1.650000e-06	8.095222e-06	6.957441e-09	5.703828e+01	4.552643e+02
1.660000e-06	8.095679e-06	6.958361e-09	5.704150e+01	4.551474e+02
1.670000e-06	8.093405e-06	6.949996e-09	5.702547e+01	4.550375e+02
1.680000e-06	8.088503e-06	6.944391e-09	5.699094e+01	4.549365e+02
1.690000e-06	8.080908e-06	6.941513e-09	5.693743e+01	4.548377e+02
1.700000e-06	8.070662e-06	6.940622e-09	5.686523e+01	4.547271e+02
1.710000e-06	8.057524e-06	6.939546e-09	5.677266e+01	4.545849e+02
1.720000e-06	8.041550e-06	6.939294e-09	5.666011e+01	4.543895e+02
1.730000e-06	8.023202e-06	6.941029e-09	5.653083e+01	4.541205e+02
1.740000e-06	8.002514e-06	6.914467e-09	5.638507e+01	4.537625e+02
1.750000e-06	7.978830e-06	6.826205e-09	5.621819e+01	4.533075e+02
1.760000e-06	7.951395e-06	6.851271e-09	5.602489e+01	4.527562e+02
1.770000e-06	7.920343e-06	6.896730e-09	5.580610e+01	4.521186e+02
1.780000e-06	7.886547e-06	6.900963e-09	5.556797e+01	4.514117e+02
1.790000e-06	7.850626e-06	6.892454e-09	5.531487e+01	4.506573e+02
1.800000e-06	7.812304e-06	6.929393e-09	5.504486e+01	4.498786e+02
1.810000e-06	7.771789e-06	6.821713e-09	5.475940e+01	4.490961e+02
1.820000e-06	7.729041e-06	6.776010e-09	5.445820e+01	4.483250e+02
1.830000e-06	7.683435e-06	6.909100e-09	5.413686e+01	4.475719e+02
1.840000e-06	7.635133e-06	6.751908e-09	5.379653e+01	4.468346e+02
1.850000e-06	7.583973e-06	6.803830e-09	5.343606e+01	4.461020e+02
1.860000e-06	7.529760e-06	6.807366e-09	5.305408e+01	4.453561e+02
1.870000e-06	7.472716e-06	6.762285e-09	5.265215e+01	4.445750e+02
1.880000e-06	7.413003e-06	6.795499e-09	5.223142e+01	4.437360e+02
1.890000e-06	7.350774e-06	6.692164e-09	5.179296e+01	4.428195e+02
1.900000e-06	7.285760e-06	6.782750e-09	5.133487e+01	4.418119e+02
1.910000e-06	7.217900e-06	6.689431e-09	5.085674e+01	4.407071e+02
1.920000e-06	7.147247e-06	6.663712e-09	5.035893e+01	4.395077e+02
1.930000e-06	7.073939e-06	6.720812e-09	4.984240e+01	4.382236e+02
1.940000e-06	6.998017e-06	6.653301e-09	4.930746e+01	4.368699e+02
1.950000e-06	6.919228e-06	6.634334e-09	4.875232e+01	4.354640e+02
1.960000e-06	6.837908e-06	6.568749e-09	4.817935e+01	4.340220e+02
1.970000e-06	6.754253e-06	6.642778e-09	4.758992e+01	4.325556e+02
1.980000e-06	6.668076e-06	6.561096e-09	4.698272e+01	4.310696e+02
1.990000e-06	6.579441e-06	6.511539e-09	4.635821e+01	4.295605e+02
2.000000e-06	6.488610e-06	6.546803e-09	4.571822e+01	4.280174e+02
2.010000e-06	6.395563e-06	6.502080e-09	4.506262e+01	4.264226e+02
2.020000e-06	6.300119e-06	6.472498e-09	4.439013e+01	4.247552e+02
2.030000e-06	6.202505e-06	6.428896e-09	4.370235e+01	4.229940e+02
2.040000e-06	6.102761e-06	6.448039e-09	4.299956e+01	4.211211e+02
2.050000e-06	6.000664e-06	6.366960e-09	4.228019e+01	4.191250e+02
2.060000e-06	5.896301e-06	6.333183e-09	4.154486e+01	4.170022e+02
2.070000e-06	5.789971e-06	6.328512e-09	4.079567e+01	4.147580e+02
2.080000e-06	5.681705e-06	6.297488e-09	4.003283e+01	4.124053e+02
2.090000e-06	5.571326e-06	6.229610e-09	3.925512e+01	4.099620e+02
2.100000e-06	5.458842e-06	6.193247e-09	3.846256e+01	4.074480e+02
2.110000e-06	5.344273e-06	6.194859e-09	3.765532e+01	4.048809e+02
2.120000e-06	5.227608e-06	6.138259e-09	3.683330e+01	4.022729e+02
2.130000e-06	5.108840e-06	6.089021e-09	3.599647e+01	3.996276e+02
2.140000e-06	4.988197e-06	6.053514e-09	3.514643e+01	3.969391e+02
2.150000e-06	4.865830e-06	6.020749e-09	3.428425e+01	3.941917e+02
2.160000e-06	4.741714e-06	5.954482e-09	3.340974e+01	3.913622e+02
2.170000e-06	4.615883e-06	5.915348e-09	3.252314e+01	3.884225e+02
2.180000e-06	4.488303e-06	5.878325e-09	3.162422e+01	3.853443e+02
2.190000e-06	4.359113e-06	5.817625e-09	3.071396e+01	3.821027e+02
2.200000e-06	4.228476e-06	5.751650e-09	2.979350e+01	3.786796e+02
2.210000e-06	4.096343e-06	5.714548e-09	2.886250e+01	3.750663e+02
2.220000e-06	3.962741e-06	5.669128e-09	2.792115e+01	3.712636e+02
2.230000e-06	3.827685e-06	5.595107e-09	2.696956e+01	3.672807e+02
2.240000e-06	3.691206e-06	5.529791e-09	2.600794e+01	3.631318e+02
2.250000e-06	3.553386e-06	5.476682e-09	2.503687e+01	3.588323e+02
2.260000e-06	3.414258e-06	5.412176e-09	2.405659e+01	3.543932e+02
2.270000e-06	3.273875e-06	5.334994e-09	2.306746e+01	3.498170e+02
2.280000e-06	3.132249e-06	5.267509e-09	2.206958e+01	3.450941e+02
2.290000e-06	2.989414e-06	5.195016e-09	2.106317e+01	3.402006e+02
2.300000e-06	2.845335e-06	5.110327e-09	2.004800e+01	3.350993e+02
2.310000e-06	2.700260e-06	5.026908e-09	1.902581e+01	3.297419e+02
2.320000e-06	2.554318e-06	4.949580e-09	1.799752e+01	3.240735e+02
2.330000e-06	2.407495e-06	4.851320e-09	1.696301e+01	3.180377e+02
2.340000e-06	2.259908e-06	4.742389e-09	1.592313e+01	3.115824e+02
2.350000e-06	2.111464e-06	4.643860e-09	1.487721e+01	3.046639e+02
2.360000e-06	1.962177e-06	4.543188e-09	1.382534e+01	2.972494e+02
2.370000e-06	1.812283e-06	4.420450e-09	1.276920e+01	2.893164e+02
2.380000e-06	1.661923e-06	4.289224e-09	1.170977e+01	2.808493e+02
2.390000e-06	1.510991e-06	4.159868e-09	1.064632e+01	2.718332e+02
2.400000e-06	1.359416e-06	4.018178e-09	9.578338e+00	2.622445e+02
2.410000e-06	1.207259e-06	3.860243e-09	8.506247e+00	2.520427e+02
2.420000e-06	1.054651e-06	3.695164e-09	7.430982e+00	2.411602e+02
2.430000e-06	9.017190e-07	3.518744e-09	6.353439e+00	2.294970e+02
2.440000e-06	7.484830e-07	3.319323e-09	5.273751e+00	2.169176e+02
2.450000e-06	5.949576e-07	3.105277e-09	4.192023e+00	2.032538e+02
2.460000e-06	4.412749e-07	2.879059e-09	3.109187e+00	1.883134e+02
2.470000e-06	2.874311e-07	2.629860e-09	2.025216e+00	1.718941e+02
2.480000e-06	1.334083e-07	2.351543e-09	9.399840e-01	1.538031e+02
2.490000e-06	-2.071131e-08	2.050343e-09	-1.459302e-01	1.338788e+02
2.500000e-06	-1.748074e-07	1.726668e-09	-1.231679e+00	1.120142e+02
2.510000e-06	-3.287568e-07	1.369427e-09	-2.316394e+00	8.817815e+01
2.520000e-06	-4.825391e-07	9.813693e-10	-3.399931e+00	6.243278e+01
2.530000e-06	-6.361368e-07	5.691994e-10	-4.482169e+00	3.494364e+01
2.540000e-06	-7.895303e-07	1.319709e-10	-5.562966e+00	5.981778e+00
2.550000e-06	-9.426596e-07	-3.281494e-10	-6.641904e+00	-2.408357e+01
2.560000e-06	-1.095451e-06	-8.007482e-10	-7.718462e+00	-5.480156e+01
2.570000e-06	-1.247841e-06	-1.275707e-09	-8.792185e+00	-8.566439e+01
2.580000e-06	-1.399724e-06	-1.746947e-09	-9.862344e+00	-1.161379e+02
2.590000e-06	-1.550978e-06	-2.205880e-09	-1.092806e+01	-1.456955e+02
2.600000e-06	-1.701571e-06	-2.641253e-09	-1.198913e+01	-1.738519e+02
2.610000e-06	-1.851601e-06	-3.045991e-09	-1.304623e+01	-2.001936e+02
2.620000e-06	-2.001103e-06	-3.417920e-09	-1.409961e+01	-2.244035e+02
2.630000e-06	-2.149919e-06	-3.750695e-09	-1.514816e+01	-2.462769e+02
2.640000e-06	-2.297879e-06	-4.041093e-09	-1.619067e+01	-2.657273e+02
2.650000e-06	-2.445015e-06	-4.294299e-09	-1.722738e+01	-2.827829e+02
2.660000e-06	-2.591348e-06	-4.514075e-09	-1.825843e+01	-2.975736e+02
2.670000e-06	-2.736772e-06	-4.705613e-09	-1.928307e+01	-3.103101e+02
2.680000e-06	-2.881183e-06	-4.871990e-09	-2.030059e+01	-3.212588e+02
2.690000e-06	-3.024439e-06	-5.019357e-09	-2.130995e+01	-3.307138e+02
2.700000e-06	-3.166528e-06	-5.152419e-09	-2.231110e+01	-3.389706e+02
2.710000e-06	-3.307437e-06	-5.269942e-09	-2.330393e+01	-3.463024e+02
2.720000e-06	-3.447054e-06	-5.375742e-09	-2.428766e+01	-3.529424e+02
2.730000e-06	-3.585413e-06	-5.472507e-09	-2.526253e+01	-3.590734e+02
2.740000e-06	-3.722480e-06	-5.561731e-09	-2.622829e+01	-3.648236e+02
2.750000e-06	-3.858117e-06	-5.643335e-09	-2.718398e+01	-3.702695e+02
2.760000e-06	-3.992314e-06	-5.719134e-09	-2.812952e+01	-3.754447e+02
2.770000e-06	-4.125162e-06	-5.791968e-09	-2.906556e+01	-3.803515e+02
2.780000e-06	-4.256595e-06	-5.861356e-09	-2.999162e+01	-3.849741e+02
2.790000e-06	-4.386520e-06	-5.924669e-09	-3.090706e+01	-3.892924e+02
2.800000e-06	-4.514906e-06	-5.982526e-09	-3.181166e+01	-3.932919e+02
2.810000e-06	-4.641687e-06	-6.037707e-09	-3.270495e+01	-3.969716e+02
2.820000e-06	-4.766808e-06	-6.091515e-09	-3.358655e+01	-4.003473e+02
2.830000e-06	-4.890264e-06	-6.143541e-09	-3.445641e+01	-4.034508e+02
2.840000e-06	-5.012010e-06	-6.192150e-09	-3.531422e+01	-4.063263e+02
2.850000e-06	-5.131827e-06	-6.238995e-09	-3.615844e+01	-4.090241e+02
2.860000e-06	-5.249653e-06	-6.285278e-09	-3.698863e+01	-4.115933e+02
2.870000e-06	-5.365473e-06	-6.329571e-09	-3.780469e+01	-4.140756e+02
2.880000e-06	-5.479090e-06	-6.369974e-09	-3.860522e+01	-4.164999e+02
2.890000e-06	-5.590493e-06	-6.407958e-09	-3.939016e+01	-4.188795e+02
2.900000e-06	-5.699907e-06	-6.444656e-09	-4.016108e+01	-4.212120e+02
2.910000e-06	-5.807440e-06	-6.479662e-09	-4.091875e+01	-4.234817e+02
2.920000e-06	-5.912969e-06	-6.511509e-09	-4.166230e+01	-4.256643e+02
2.930000e-06	-6.016377e-06	-6.539212e-09	-4.239090e+01	-4.277322e+02
2.940000e-06	-6.117650e-06	-6.565047e-09	-4.310447e+01	-4.296606e+02
