# Temperatura_=_20.0
# Concentracion g/m^3_=_9000.0
# C_Vs_to_Am_M_A/Vsm_=_65563218390.804596
# pendiente_HvsI_1/m_=_3716.3
# ordenada_HvsI_A/m_=_1297.0
# frecuencia_Hz_=_135117.58796003248

Tiempo_(s)	Campo_(V.s)	Magnetizacion_(V.s)	Campo_(kA/m)	Magnetizacion_(A/m)
0.000000e+00	-5.192126e-06	-1.822110e-10	-3.836086e+01	-1.136918e+01
1.000000e-08	-5.192231e-06	-1.841574e-10	-3.836163e+01	-1.138830e+01
2.000000e-08	-5.192175e-06	-1.857986e-10	-3.836122e+01	-1.139538e+01
3.000000e-08	-5.191871e-06	-1.834992e-10	-3.835897e+01	-1.138885e+01
4.000000e-08	-5.191176e-06	-1.829810e-10	-3.835384e+01	-1.136717e+01
5.000000e-08	-5.189994e-06	-1.873318e-10	-3.834511e+01	-1.132882e+01
6.000000e-08	-5.188219e-06	-1.928521e-10	-3.833199e+01	-1.127239e+01
7.000000e-08	-5.185794e-06	-1.975219e-10	-3.831408e+01	-1.119653e+01
8.000000e-08	-5.182828e-06	-1.838122e-10	-3.829217e+01	-1.109997e+01
9.000000e-08	-5.179398e-06	-1.418184e-10	-3.826682e+01	-1.098155e+01
1.000000e-07	-5.175529e-06	-1.633981e-10	-3.823823e+01	-1.084027e+01
1.100000e-07	-5.171384e-06	-2.612081e-10	-3.820761e+01	-1.067521e+01
1.200000e-07	-5.167104e-06	-2.512705e-10	-3.817599e+01	-1.048562e+01
1.300000e-07	-5.162550e-06	-1.623445e-10	-3.814234e+01	-1.027091e+01
1.400000e-07	-5.157608e-06	-1.165219e-10	-3.810583e+01	-1.003065e+01
1.500000e-07	-5.152341e-06	-2.135207e-10	-3.806692e+01	-9.764565e+00
1.600000e-07	-5.146768e-06	-2.597905e-10	-3.802574e+01	-9.472575e+00
1.700000e-07	-5.140807e-06	-1.235342e-10	-3.798170e+01	-9.154775e+00
1.800000e-07	-5.134448e-06	-5.726479e-11	-3.793472e+01	-8.811443e+00
1.900000e-07	-5.127785e-06	-8.952880e-11	-3.788549e+01	-8.443044e+00
2.000000e-07	-5.120755e-06	-2.017848e-10	-3.783355e+01	-8.050228e+00
2.100000e-07	-5.113334e-06	-1.480870e-10	-3.777872e+01	-7.633824e+00
2.200000e-07	-5.105680e-06	-6.207415e-11	-3.772217e+01	-7.194842e+00
2.300000e-07	-5.097890e-06	-8.593164e-12	-3.766462e+01	-6.734466e+00
2.400000e-07	-5.089862e-06	-1.498254e-10	-3.760531e+01	-6.254042e+00
2.500000e-07	-5.081199e-06	-2.631970e-10	-3.754130e+01	-5.755077e+00
2.600000e-07	-5.071812e-06	-1.978817e-10	-3.747194e+01	-5.239220e+00
2.700000e-07	-5.062131e-06	-3.006862e-11	-3.740042e+01	-4.708259e+00
2.800000e-07	-5.052011e-06	-4.702285e-11	-3.732565e+01	-4.164100e+00
2.900000e-07	-5.041159e-06	-1.834443e-10	-3.724548e+01	-3.608760e+00
3.000000e-07	-5.029766e-06	-1.492979e-10	-3.716130e+01	-3.044345e+00
3.100000e-07	-5.018092e-06	3.337898e-11	-3.707505e+01	-2.473040e+00
3.200000e-07	-5.006074e-06	6.456408e-11	-3.698625e+01	-1.897088e+00
3.300000e-07	-4.993655e-06	-3.844617e-11	-3.689450e+01	-1.318774e+00
3.400000e-07	-4.980883e-06	2.222487e-11	-3.680014e+01	-7.404060e-01
3.500000e-07	-4.967673e-06	1.354493e-10	-3.670254e+01	-1.642987e-01
3.600000e-07	-4.954132e-06	1.328515e-10	-3.660250e+01	4.072466e-01
3.700000e-07	-4.940396e-06	6.474200e-11	-3.650101e+01	9.719591e-01
3.800000e-07	-4.926284e-06	9.056352e-11	-3.639675e+01	1.527617e+00
3.900000e-07	-4.911497e-06	3.418167e-11	-3.628750e+01	2.072066e+00
4.000000e-07	-4.896082e-06	8.376337e-11	-3.617361e+01	2.603234e+00
4.100000e-07	-4.880421e-06	1.607397e-10	-3.605790e+01	3.119149e+00
4.200000e-07	-4.864320e-06	1.026966e-10	-3.593894e+01	3.617953e+00
4.300000e-07	-4.847599e-06	-2.958059e-11	-3.581540e+01	4.097919e+00
4.400000e-07	-4.830656e-06	1.215262e-10	-3.569022e+01	4.557460e+00
4.500000e-07	-4.813582e-06	2.533454e-10	-3.556407e+01	4.995145e+00
4.600000e-07	-4.796152e-06	1.136630e-10	-3.543530e+01	5.409705e+00
4.700000e-07	-4.778329e-06	4.972210e-12	-3.530361e+01	5.800047e+00
4.800000e-07	-4.760200e-06	1.809664e-10	-3.516967e+01	6.165254e+00
4.900000e-07	-4.741791e-06	2.510050e-10	-3.503366e+01	6.504597e+00
5.000000e-07	-4.722997e-06	1.267060e-10	-3.489480e+01	6.817538e+00
5.100000e-07	-4.703750e-06	8.991800e-11	-3.475260e+01	7.103727e+00
5.200000e-07	-4.684221e-06	1.800643e-10	-3.460831e+01	7.363008e+00
5.300000e-07	-4.664488e-06	1.862515e-10	-3.446252e+01	7.595417e+00
5.400000e-07	-4.644612e-06	1.547370e-10	-3.431568e+01	7.801174e+00
5.500000e-07	-4.624606e-06	1.603457e-10	-3.416787e+01	7.980684e+00
5.600000e-07	-4.604307e-06	1.416014e-10	-3.401789e+01	8.134529e+00
5.700000e-07	-4.583586e-06	1.357669e-10	-3.386480e+01	8.263456e+00
5.800000e-07	-4.562479e-06	1.826595e-10	-3.370886e+01	8.368376e+00
5.900000e-07	-4.541057e-06	1.910687e-10	-3.355058e+01	8.450345e+00
6.000000e-07	-4.519358e-06	1.118529e-10	-3.339027e+01	8.510555e+00
6.100000e-07	-4.497360e-06	1.149122e-10	-3.322774e+01	8.550325e+00
6.200000e-07	-4.475106e-06	1.941023e-10	-3.306331e+01	8.571080e+00
6.300000e-07	-4.452529e-06	1.979048e-10	-3.289652e+01	8.574342e+00
6.400000e-07	-4.429619e-06	1.116790e-10	-3.272725e+01	8.561712e+00
6.500000e-07	-4.406426e-06	1.245848e-10	-3.255589e+01	8.534852e+00
6.600000e-07	-4.382904e-06	1.841038e-10	-3.238210e+01	8.495474e+00
6.700000e-07	-4.359145e-06	1.790636e-10	-3.220657e+01	8.445320e+00
6.800000e-07	-4.335187e-06	1.267541e-10	-3.202956e+01	8.386144e+00
6.900000e-07	-4.310986e-06	1.386305e-10	-3.185075e+01	8.319701e+00
7.000000e-07	-4.286566e-06	1.567891e-10	-3.167033e+01	8.247727e+00
7.100000e-07	-4.261738e-06	1.596655e-10	-3.148689e+01	8.171922e+00
7.200000e-07	-4.236435e-06	1.477763e-10	-3.129995e+01	8.093940e+00
7.300000e-07	-4.210772e-06	1.466167e-10	-3.111035e+01	8.015371e+00
7.400000e-07	-4.184615e-06	1.424297e-10	-3.091709e+01	7.937732e+00
7.500000e-07	-4.157972e-06	1.596782e-10	-3.072025e+01	7.862447e+00
7.600000e-07	-4.130867e-06	1.689569e-10	-3.051998e+01	7.790845e+00
7.700000e-07	-4.103403e-06	1.575747e-10	-3.031708e+01	7.724144e+00
7.800000e-07	-4.075721e-06	1.375261e-10	-3.011255e+01	7.663446e+00
7.900000e-07	-4.047876e-06	1.502950e-10	-2.990682e+01	7.609727e+00
8.000000e-07	-4.019938e-06	1.703762e-10	-2.970041e+01	7.563832e+00
8.100000e-07	-3.991820e-06	1.578944e-10	-2.949267e+01	7.526472e+00
8.200000e-07	-3.963400e-06	1.352310e-10	-2.928269e+01	7.498222e+00
8.300000e-07	-3.934666e-06	1.519946e-10	-2.907040e+01	7.479515e+00
8.400000e-07	-3.905572e-06	1.772874e-10	-2.885544e+01	7.470646e+00
8.500000e-07	-3.876190e-06	1.600465e-10	-2.863836e+01	7.471775e+00
8.600000e-07	-3.846615e-06	1.428987e-10	-2.841985e+01	7.482925e+00
8.700000e-07	-3.816792e-06	1.541188e-10	-2.819951e+01	7.503989e+00
8.800000e-07	-3.786741e-06	1.664898e-10	-2.797749e+01	7.534737e+00
8.900000e-07	-3.756490e-06	1.534651e-10	-2.775398e+01	7.574821e+00
9.000000e-07	-3.725984e-06	1.514393e-10	-2.752860e+01	7.623782e+00
9.100000e-07	-3.695158e-06	1.517199e-10	-2.730085e+01	7.681061e+00
9.200000e-07	-3.664037e-06	1.541184e-10	-2.707092e+01	7.746008e+00
9.300000e-07	-3.632752e-06	1.549300e-10	-2.683977e+01	7.817890e+00
9.400000e-07	-3.601322e-06	1.567843e-10	-2.660756e+01	7.895906e+00
9.500000e-07	-3.569702e-06	1.489316e-10	-2.637394e+01	7.979196e+00
9.600000e-07	-3.537949e-06	1.500755e-10	-2.613934e+01	8.066855e+00
9.700000e-07	-3.506031e-06	1.554486e-10	-2.590352e+01	8.157942e+00
9.800000e-07	-3.473853e-06	1.592259e-10	-2.566578e+01	8.251495e+00
9.900000e-07	-3.441411e-06	1.509624e-10	-2.542609e+01	8.346541e+00
1.000000e-06	-3.408725e-06	1.498771e-10	-2.518460e+01	8.442110e+00
1.010000e-06	-3.375723e-06	1.541251e-10	-2.494077e+01	8.537247e+00
1.020000e-06	-3.342343e-06	1.560768e-10	-2.469415e+01	8.631018e+00
1.030000e-06	-3.308591e-06	1.484481e-10	-2.444479e+01	8.722528e+00
1.040000e-06	-3.274356e-06	1.472395e-10	-2.419184e+01	8.810925e+00
1.050000e-06	-3.239641e-06	1.515007e-10	-2.393536e+01	8.895413e+00
1.060000e-06	-3.204593e-06	1.522738e-10	-2.367642e+01	8.975258e+00
1.070000e-06	-3.169281e-06	1.481671e-10	-2.341552e+01	9.049795e+00
1.080000e-06	-3.133763e-06	1.482380e-10	-2.315310e+01	9.118439e+00
1.090000e-06	-3.098129e-06	1.503383e-10	-2.288983e+01	9.180681e+00
1.100000e-06	-3.062421e-06	1.482266e-10	-2.262601e+01	9.236104e+00
1.110000e-06	-3.026575e-06	1.472515e-10	-2.236117e+01	9.284375e+00
1.120000e-06	-2.990550e-06	1.467529e-10	-2.209501e+01	9.325254e+00
1.130000e-06	-2.954396e-06	1.455660e-10	-2.182789e+01	9.358592e+00
1.140000e-06	-2.918103e-06	1.447288e-10	-2.155975e+01	9.384333e+00
1.150000e-06	-2.881583e-06	1.476114e-10	-2.128993e+01	9.402508e+00
1.160000e-06	-2.844784e-06	1.462287e-10	-2.101805e+01	9.413238e+00
1.170000e-06	-2.807764e-06	1.445728e-10	-2.074454e+01	9.416727e+00
1.180000e-06	-2.770655e-06	1.462198e-10	-2.047037e+01	9.413257e+00
1.190000e-06	-2.733370e-06	1.502967e-10	-2.019489e+01	9.403188e+00
1.200000e-06	-2.695897e-06	1.481044e-10	-1.991803e+01	9.386946e+00
1.210000e-06	-2.658254e-06	1.462616e-10	-1.963991e+01	9.365017e+00
1.220000e-06	-2.620339e-06	1.451944e-10	-1.935979e+01	9.337944e+00
1.230000e-06	-2.582144e-06	1.475453e-10	-1.907759e+01	9.306315e+00
1.240000e-06	-2.543818e-06	1.495264e-10	-1.879443e+01	9.270757e+00
1.250000e-06	-2.505403e-06	1.497817e-10	-1.851061e+01	9.231925e+00
1.260000e-06	-2.466794e-06	1.495696e-10	-1.822536e+01	9.190497e+00
1.270000e-06	-2.427928e-06	1.522283e-10	-1.793820e+01	9.147161e+00
1.280000e-06	-2.388852e-06	1.534426e-10	-1.764950e+01	9.102610e+00
1.290000e-06	-2.349680e-06	1.544039e-10	-1.736008e+01	9.057532e+00
1.300000e-06	-2.310387e-06	1.537041e-10	-1.706978e+01	9.012600e+00
1.310000e-06	-2.270977e-06	1.526184e-10	-1.677860e+01	8.968468e+00
1.320000e-06	-2.231432e-06	1.524388e-10	-1.648643e+01	8.925757e+00
1.330000e-06	-2.191775e-06	1.539662e-10	-1.619343e+01	8.885057e+00
1.340000e-06	-2.152036e-06	1.519828e-10	-1.589983e+01	8.846912e+00
1.350000e-06	-2.112192e-06	1.498124e-10	-1.560546e+01	8.811820e+00
1.360000e-06	-2.072264e-06	1.513477e-10	-1.531046e+01	8.780224e+00
1.370000e-06	-2.032265e-06	1.539141e-10	-1.501493e+01	8.752513e+00
1.380000e-06	-1.992204e-06	1.526505e-10	-1.471895e+01	8.729010e+00
1.390000e-06	-1.951992e-06	1.522995e-10	-1.442186e+01	8.709981e+00
1.400000e-06	-1.911672e-06	1.553405e-10	-1.412396e+01	8.695622e+00
1.410000e-06	-1.871245e-06	1.550751e-10	-1.382527e+01	8.686065e+00
1.420000e-06	-1.830587e-06	1.522997e-10	-1.352488e+01	8.681377e+00
1.430000e-06	-1.789713e-06	1.502961e-10	-1.322290e+01	8.681559e+00
1.440000e-06	-1.748701e-06	1.493560e-10	-1.291989e+01	8.686550e+00
1.450000e-06	-1.707547e-06	1.475838e-10	-1.261583e+01	8.696225e+00
1.460000e-06	-1.666174e-06	1.459345e-10	-1.231015e+01	8.710405e+00
1.470000e-06	-1.624586e-06	1.449893e-10	-1.200289e+01	8.728856e+00
1.480000e-06	-1.582805e-06	1.465092e-10	-1.169420e+01	8.751294e+00
1.490000e-06	-1.540740e-06	1.490416e-10	-1.138341e+01	8.777390e+00
1.500000e-06	-1.498414e-06	1.496979e-10	-1.107070e+01	8.806780e+00
1.510000e-06	-1.455871e-06	1.451370e-10	-1.075638e+01	8.839062e+00
1.520000e-06	-1.413160e-06	1.431707e-10	-1.044081e+01	8.873811e+00
1.530000e-06	-1.370370e-06	1.437000e-10	-1.012467e+01	8.910581e+00
1.540000e-06	-1.327451e-06	1.456279e-10	-9.807572e+00	8.948910e+00
1.550000e-06	-1.284420e-06	1.461213e-10	-9.489646e+00	8.988332e+00
1.560000e-06	-1.241255e-06	1.462946e-10	-9.170733e+00	9.028379e+00
1.570000e-06	-1.197940e-06	1.468120e-10	-8.850713e+00	9.068590e+00
1.580000e-06	-1.154558e-06	1.486599e-10	-8.530191e+00	9.108513e+00
1.590000e-06	-1.111095e-06	1.487005e-10	-8.209076e+00	9.147717e+00
1.600000e-06	-1.067591e-06	1.491568e-10	-7.887654e+00	9.185795e+00
1.610000e-06	-1.024089e-06	1.498338e-10	-7.566253e+00	9.222367e+00
1.620000e-06	-9.805033e-07	1.506464e-10	-7.244229e+00	9.257086e+00
1.630000e-06	-9.368195e-07	1.497359e-10	-6.921481e+00	9.289646e+00
1.640000e-06	-8.930703e-07	1.488722e-10	-6.598250e+00	9.319778e+00
1.650000e-06	-8.492865e-07	1.511548e-10	-6.274763e+00	9.347259e+00
1.660000e-06	-8.055047e-07	1.533871e-10	-5.951291e+00	9.371913e+00
1.670000e-06	-7.617208e-07	1.561953e-10	-5.627804e+00	9.393611e+00
1.680000e-06	-7.178675e-07	1.566225e-10	-5.303803e+00	9.412272e+00
1.690000e-06	-6.739647e-07	1.555362e-10	-4.979437e+00	9.427865e+00
1.700000e-06	-6.300823e-07	1.563477e-10	-4.655222e+00	9.440406e+00
1.710000e-06	-5.861789e-07	1.575523e-10	-4.330852e+00	9.449962e+00
1.720000e-06	-5.422692e-07	1.548823e-10	-4.006434e+00	9.456640e+00
1.730000e-06	-4.982941e-07	1.516355e-10	-3.681534e+00	9.460595e+00
1.740000e-06	-4.542997e-07	1.520167e-10	-3.356491e+00	9.462019e+00
1.750000e-06	-4.103746e-07	1.539958e-10	-3.031961e+00	9.461142e+00
1.760000e-06	-3.663790e-07	1.531489e-10	-2.706909e+00	9.458227e+00
1.770000e-06	-3.223431e-07	1.517711e-10	-2.381560e+00	9.453564e+00
1.780000e-06	-2.783372e-07	1.525125e-10	-2.056432e+00	9.447467e+00
1.790000e-06	-2.343118e-07	1.550782e-10	-1.731160e+00	9.440271e+00
1.800000e-06	-1.902740e-07	1.557104e-10	-1.405797e+00	9.432322e+00
1.810000e-06	-1.462574e-07	1.549550e-10	-1.080590e+00	9.423976e+00
1.820000e-06	-1.022151e-07	1.557445e-10	-7.551936e-01	9.415590e+00
1.830000e-06	-5.811015e-08	1.584469e-10	-4.293338e-01	9.407522e+00
1.840000e-06	-1.403375e-08	1.586270e-10	-1.036852e-01	9.400119e+00
1.850000e-06	2.994996e-08	1.562527e-10	2.212786e-01	9.393719e+00
1.860000e-06	7.389561e-08	1.563186e-10	5.459612e-01	9.388640e+00
1.870000e-06	1.179197e-07	1.589990e-10	8.712234e-01	9.385179e+00
1.880000e-06	1.619896e-07	1.585627e-10	1.196824e+00	9.383608e+00
1.890000e-06	2.060164e-07	1.576849e-10	1.522106e+00	9.384170e+00
1.900000e-06	2.500486e-07	1.598351e-10	1.847428e+00	9.387073e+00
1.910000e-06	2.940694e-07	1.614630e-10	2.172666e+00	9.392491e+00
1.920000e-06	3.380587e-07	1.601920e-10	2.497671e+00	9.400560e+00
1.930000e-06	3.820293e-07	1.571023e-10	2.822538e+00	9.411377e+00
1.940000e-06	4.259858e-07	1.545777e-10	3.147300e+00	9.424997e+00
1.950000e-06	4.699394e-07	1.550229e-10	3.472042e+00	9.441436e+00
1.960000e-06	5.138793e-07	1.569268e-10	3.796682e+00	9.460667e+00
1.970000e-06	5.577825e-07	1.566829e-10	4.121051e+00	9.482626e+00
1.980000e-06	6.016486e-07	1.541519e-10	4.445146e+00	9.507206e+00
1.990000e-06	6.454949e-07	1.521595e-10	4.769094e+00	9.534266e+00
2.000000e-06	6.893180e-07	1.519363e-10	5.092871e+00	9.563629e+00
2.010000e-06	7.331285e-07	1.497634e-10	5.416556e+00	9.595086e+00
2.020000e-06	7.769424e-07	1.463280e-10	5.740265e+00	9.628400e+00
2.030000e-06	8.207376e-07	1.456841e-10	6.063836e+00	9.663308e+00
2.040000e-06	8.645229e-07	1.487973e-10	6.387334e+00	9.699527e+00
2.050000e-06	9.082986e-07	1.517250e-10	6.710760e+00	9.736754e+00
2.060000e-06	9.520324e-07	1.511194e-10	7.033878e+00	9.774678e+00
2.070000e-06	9.957325e-07	1.494982e-10	7.356746e+00	9.812977e+00
2.080000e-06	1.039396e-06	1.496601e-10	7.679347e+00	9.851327e+00
2.090000e-06	1.083005e-06	1.497992e-10	8.001537e+00	9.889406e+00
2.100000e-06	1.126519e-06	1.500261e-10	8.323032e+00	9.926897e+00
2.110000e-06	1.169910e-06	1.491106e-10	8.643615e+00	9.963494e+00
2.120000e-06	1.213248e-06	1.489836e-10	8.963808e+00	9.998908e+00
2.130000e-06	1.256560e-06	1.490710e-10	9.283813e+00	1.003287e+01
2.140000e-06	1.299749e-06	1.482321e-10	9.602900e+00	1.006512e+01
2.150000e-06	1.342777e-06	1.480658e-10	9.920807e+00	1.009546e+01
2.160000e-06	1.385691e-06	1.492110e-10	1.023787e+01	1.012367e+01
2.170000e-06	1.428460e-06	1.511781e-10	1.055386e+01	1.014961e+01
2.180000e-06	1.470956e-06	1.532286e-10	1.086783e+01	1.017316e+01
2.190000e-06	1.513254e-06	1.547207e-10	1.118034e+01	1.019421e+01
2.200000e-06	1.555424e-06	1.563231e-10	1.149190e+01	1.021272e+01
2.210000e-06	1.597384e-06	1.584327e-10	1.180191e+01	1.022868e+01
2.220000e-06	1.639030e-06	1.600145e-10	1.210960e+01	1.024212e+01
2.230000e-06	1.680414e-06	1.606939e-10	1.241536e+01	1.025308e+01
2.240000e-06	1.721575e-06	1.601430e-10	1.271947e+01	1.026168e+01
2.250000e-06	1.762485e-06	1.597715e-10	1.302172e+01	1.026803e+01
2.260000e-06	1.803296e-06	1.587047e-10	1.332325e+01	1.027232e+01
2.270000e-06	1.844017e-06	1.567630e-10	1.362410e+01	1.027474e+01
2.280000e-06	1.884532e-06	1.549471e-10	1.392344e+01	1.027550e+01
2.290000e-06	1.924822e-06	1.562539e-10	1.422112e+01	1.027485e+01
2.300000e-06	1.964992e-06	1.564301e-10	1.451791e+01	1.027306e+01
2.310000e-06	2.005035e-06	1.546959e-10	1.481375e+01	1.027041e+01
2.320000e-06	2.044991e-06	1.553851e-10	1.510896e+01	1.026720e+01
2.330000e-06	2.084934e-06	1.582140e-10	1.540407e+01	1.026372e+01
2.340000e-06	2.124794e-06	1.591145e-10	1.569856e+01	1.026028e+01
2.350000e-06	2.164561e-06	1.588512e-10	1.599237e+01	1.025717e+01
2.360000e-06	2.204268e-06	1.585756e-10	1.628574e+01	1.025470e+01
2.370000e-06	2.243900e-06	1.579734e-10	1.657855e+01	1.025315e+01
2.380000e-06	2.283400e-06	1.576957e-10	1.687039e+01	1.025277e+01
2.390000e-06	2.322757e-06	1.565740e-10	1.716117e+01	1.025383e+01
2.400000e-06	2.361950e-06	1.572984e-10	1.745074e+01	1.025655e+01
2.410000e-06	2.400926e-06	1.595566e-10	1.773870e+01	1.026112e+01
2.420000e-06	2.439758e-06	1.598837e-10	1.802561e+01	1.026771e+01
2.430000e-06	2.478434e-06	1.583847e-10	1.831136e+01	1.027647e+01
2.440000e-06	2.516802e-06	1.575281e-10	1.859482e+01	1.028747e+01
2.450000e-06	2.554915e-06	1.565158e-10	1.887642e+01	1.030081e+01
2.460000e-06	2.592923e-06	1.540140e-10	1.915723e+01	1.031648e+01
2.470000e-06	2.630846e-06	1.516582e-10	1.943741e+01	1.033449e+01
2.480000e-06	2.668608e-06	1.516395e-10	1.971641e+01	1.035479e+01
2.490000e-06	2.706281e-06	1.511934e-10	1.999475e+01	1.037727e+01
2.500000e-06	2.743818e-06	1.512270e-10	2.027208e+01	1.040182e+01
2.510000e-06	2.781115e-06	1.485396e-10	2.054765e+01	1.042827e+01
2.520000e-06	2.818204e-06	1.488538e-10	2.082167e+01	1.045643e+01
2.530000e-06	2.855024e-06	1.512221e-10	2.109371e+01	1.048607e+01
2.540000e-06	2.891569e-06	1.523247e-10	2.136371e+01	1.051694e+01
2.550000e-06	2.927872e-06	1.502559e-10	2.163193e+01	1.054876e+01
2.560000e-06	2.964003e-06	1.468826e-10	2.189887e+01	1.058122e+01
2.570000e-06	2.999993e-06	1.475845e-10	2.216477e+01	1.061402e+01
2.580000e-06	3.035868e-06	1.506211e-10	2.242983e+01	1.064682e+01
2.590000e-06	3.071669e-06	1.516132e-10	2.269434e+01	1.067931e+01
2.600000e-06	3.107404e-06	1.479479e-10	2.295836e+01	1.071113e+01
2.610000e-06	3.143028e-06	1.451463e-10	2.322155e+01	1.074197e+01
2.620000e-06	3.178461e-06	1.475856e-10	2.348335e+01	1.077149e+01
2.630000e-06	3.213663e-06	1.505949e-10	2.374343e+01	1.079940e+01
2.640000e-06	3.248528e-06	1.476893e-10	2.400102e+01	1.082539e+01
2.650000e-06	3.283047e-06	1.451570e-10	2.425606e+01	1.084920e+01
2.660000e-06	3.317187e-06	1.440760e-10	2.450829e+01	1.087058e+01
2.670000e-06	3.350901e-06	1.439888e-10	2.475738e+01	1.088933e+01
2.680000e-06	3.384091e-06	1.434154e-10	2.500260e+01	1.090527e+01
2.690000e-06	3.416771e-06	1.429300e-10	2.524404e+01	1.091826e+01
2.700000e-06	3.449227e-06	1.433708e-10	2.548384e+01	1.092819e+01
2.710000e-06	3.481522e-06	1.447590e-10	2.572244e+01	1.093502e+01
2.720000e-06	3.513592e-06	1.462009e-10	2.595938e+01	1.093872e+01
2.730000e-06	3.545471e-06	1.484249e-10	2.619491e+01	1.093934e+01
2.740000e-06	3.577244e-06	1.496172e-10	2.642967e+01	1.093695e+01
2.750000e-06	3.608953e-06	1.504397e-10	2.666394e+01	1.093167e+01
2.760000e-06	3.640481e-06	1.509808e-10	2.689688e+01	1.092366e+01
2.770000e-06	3.671739e-06	1.508230e-10	2.712782e+01	1.091314e+01
2.780000e-06	3.702744e-06	1.513794e-10	2.735689e+01	1.090035e+01
2.790000e-06	3.733444e-06	1.527829e-10	2.758371e+01	1.088558e+01
2.800000e-06	3.763844e-06	1.523204e-10	2.780832e+01	1.086914e+01
2.810000e-06	3.793969e-06	1.512231e-10	2.803089e+01	1.085139e+01
2.820000e-06	3.823792e-06	1.524048e-10	2.825123e+01	1.083270e+01
2.830000e-06	3.853371e-06	1.536824e-10	2.846976e+01	1.081347e+01
2.840000e-06	3.882745e-06	1.536060e-10	2.868679e+01	1.079410e+01
2.850000e-06	3.911908e-06	1.515770e-10	2.890225e+01	1.077502e+01
2.860000e-06	3.940770e-06	1.520911e-10	2.911549e+01	1.075666e+01
2.870000e-06	3.969352e-06	1.541136e-10	2.932667e+01	1.073942e+01
2.880000e-06	3.997694e-06	1.522917e-10	2.953606e+01	1.072374e+01
2.890000e-06	4.025791e-06	1.492803e-10	2.974366e+01	1.071002e+01
2.900000e-06	4.053735e-06	1.497221e-10	2.995011e+01	1.069862e+01
2.910000e-06	4.081550e-06	1.509631e-10	3.015562e+01	1.068992e+01
2.920000e-06	4.109243e-06	1.498441e-10	3.036022e+01	1.068424e+01
2.930000e-06	4.136743e-06	1.478765e-10	3.056340e+01	1.068187e+01
2.940000e-06	4.163895e-06	1.486551e-10	3.076401e+01	1.068305e+01
2.950000e-06	4.190609e-06	1.513046e-10	3.096138e+01	1.068800e+01
