# Temperatura_=_20.0
# Concentracion g/m^3_=_9000.0
# C_Vs_to_Am_M_A/Vsm_=_65563218390.804596
# pendiente_HvsI_1/m_=_3716.3
# ordenada_HvsI_A/m_=_1297.0
# frecuencia_Hz_=_135118.19242875846

Tiempo_(s)	Campo_(V.s)	Magnetizacion_(V.s)	Campo_(kA/m)	Magnetizacion_(A/m)
0.000000e+00	-5.195389e-06	-3.863693e-09	-3.836019e+01	-2.511708e+02
1.000000e-08	-5.195555e-06	-3.859798e-09	-3.836141e+01	-2.511726e+02
2.000000e-08	-5.195425e-06	-3.855488e-09	-3.836045e+01	-2.511712e+02
3.000000e-08	-5.195017e-06	-3.854887e-09	-3.835744e+01	-2.511671e+02
4.000000e-08	-5.194277e-06	-3.854873e-09	-3.835197e+01	-2.511609e+02
5.000000e-08	-5.193080e-06	-3.858343e-09	-3.834314e+01	-2.511532e+02
6.000000e-08	-5.191324e-06	-3.874152e-09	-3.833018e+01	-2.511446e+02
7.000000e-08	-5.189011e-06	-3.881196e-09	-3.831310e+01	-2.511358e+02
8.000000e-08	-5.186183e-06	-3.839805e-09	-3.829222e+01	-2.511276e+02
9.000000e-08	-5.182819e-06	-3.780696e-09	-3.826738e+01	-2.511205e+02
1.000000e-07	-5.179037e-06	-3.798981e-09	-3.823945e+01	-2.511154e+02
1.100000e-07	-5.174924e-06	-3.923896e-09	-3.820909e+01	-2.511129e+02
1.200000e-07	-5.170532e-06	-3.926137e-09	-3.817665e+01	-2.511137e+02
1.300000e-07	-5.165963e-06	-3.806116e-09	-3.814292e+01	-2.511186e+02
1.400000e-07	-5.161121e-06	-3.723940e-09	-3.810717e+01	-2.511282e+02
1.500000e-07	-5.155848e-06	-3.852261e-09	-3.806824e+01	-2.511432e+02
1.600000e-07	-5.150195e-06	-4.012848e-09	-3.802649e+01	-2.511643e+02
1.700000e-07	-5.144226e-06	-3.981460e-09	-3.798242e+01	-2.511920e+02
1.800000e-07	-5.137853e-06	-3.854224e-09	-3.793537e+01	-2.512269e+02
1.900000e-07	-5.131124e-06	-3.829170e-09	-3.788568e+01	-2.512695e+02
2.000000e-07	-5.124149e-06	-3.974267e-09	-3.783419e+01	-2.513202e+02
2.100000e-07	-5.116815e-06	-4.058019e-09	-3.778004e+01	-2.513794e+02
2.200000e-07	-5.109100e-06	-3.917616e-09	-3.772307e+01	-2.514473e+02
2.300000e-07	-5.101177e-06	-3.688577e-09	-3.766457e+01	-2.515242e+02
2.400000e-07	-5.093010e-06	-3.676658e-09	-3.760427e+01	-2.516101e+02
2.500000e-07	-5.084350e-06	-3.828003e-09	-3.754033e+01	-2.517051e+02
2.600000e-07	-5.075073e-06	-3.821515e-09	-3.747184e+01	-2.518090e+02
2.700000e-07	-5.065267e-06	-3.645192e-09	-3.739943e+01	-2.519217e+02
2.800000e-07	-5.055105e-06	-3.623615e-09	-3.732440e+01	-2.520429e+02
2.900000e-07	-5.044556e-06	-3.795746e-09	-3.724651e+01	-2.521720e+02
3.000000e-07	-5.033501e-06	-3.858870e-09	-3.716488e+01	-2.523086e+02
3.100000e-07	-5.021941e-06	-3.758922e-09	-3.707953e+01	-2.524520e+02
3.200000e-07	-5.009966e-06	-3.780335e-09	-3.699112e+01	-2.526015e+02
3.300000e-07	-4.997661e-06	-3.931819e-09	-3.690026e+01	-2.527560e+02
3.400000e-07	-4.984990e-06	-3.988294e-09	-3.680670e+01	-2.529147e+02
3.500000e-07	-4.971942e-06	-3.904493e-09	-3.671036e+01	-2.530764e+02
3.600000e-07	-4.958530e-06	-3.839831e-09	-3.661134e+01	-2.532399e+02
3.700000e-07	-4.944718e-06	-3.829582e-09	-3.650935e+01	-2.534039e+02
3.800000e-07	-4.930486e-06	-3.867440e-09	-3.640428e+01	-2.535670e+02
3.900000e-07	-4.915751e-06	-3.930136e-09	-3.629548e+01	-2.537277e+02
4.000000e-07	-4.900438e-06	-3.899348e-09	-3.618241e+01	-2.538845e+02
4.100000e-07	-4.884687e-06	-3.780224e-09	-3.606612e+01	-2.540357e+02
4.200000e-07	-4.868613e-06	-3.832514e-09	-3.594744e+01	-2.541798e+02
4.300000e-07	-4.852150e-06	-3.984390e-09	-3.582588e+01	-2.543150e+02
4.400000e-07	-4.835280e-06	-3.936786e-09	-3.570132e+01	-2.544397e+02
4.500000e-07	-4.818107e-06	-3.798518e-09	-3.557452e+01	-2.545520e+02
4.600000e-07	-4.800674e-06	-3.874102e-09	-3.544580e+01	-2.546504e+02
4.700000e-07	-4.782984e-06	-4.003765e-09	-3.531519e+01	-2.547332e+02
4.800000e-07	-4.765033e-06	-3.925561e-09	-3.518265e+01	-2.547986e+02
4.900000e-07	-4.746685e-06	-3.832454e-09	-3.504718e+01	-2.548451e+02
5.000000e-07	-4.727889e-06	-3.894478e-09	-3.490840e+01	-2.548711e+02
5.100000e-07	-4.708742e-06	-3.938872e-09	-3.476703e+01	-2.548752e+02
5.200000e-07	-4.689254e-06	-3.884242e-09	-3.462314e+01	-2.548560e+02
5.300000e-07	-4.669495e-06	-3.872747e-09	-3.447725e+01	-2.548122e+02
5.400000e-07	-4.649591e-06	-3.886019e-09	-3.433029e+01	-2.547427e+02
5.500000e-07	-4.629515e-06	-3.865066e-09	-3.418205e+01	-2.546465e+02
5.600000e-07	-4.609196e-06	-3.870452e-09	-3.403203e+01	-2.545227e+02
5.700000e-07	-4.588533e-06	-3.899351e-09	-3.387946e+01	-2.543705e+02
5.800000e-07	-4.567485e-06	-3.858413e-09	-3.372406e+01	-2.541894e+02
5.900000e-07	-4.546205e-06	-3.818571e-09	-3.356693e+01	-2.539788e+02
6.000000e-07	-4.524730e-06	-3.854866e-09	-3.340837e+01	-2.537387e+02
6.100000e-07	-4.502900e-06	-3.873483e-09	-3.324719e+01	-2.534688e+02
6.200000e-07	-4.480720e-06	-3.813830e-09	-3.308342e+01	-2.531692e+02
6.300000e-07	-4.458251e-06	-3.794351e-09	-3.291752e+01	-2.528402e+02
6.400000e-07	-4.435484e-06	-3.842669e-09	-3.274942e+01	-2.524822e+02
6.500000e-07	-4.412405e-06	-3.846138e-09	-3.257902e+01	-2.520957e+02
6.600000e-07	-4.388996e-06	-3.793006e-09	-3.240618e+01	-2.516815e+02
6.700000e-07	-4.365325e-06	-3.783754e-09	-3.223141e+01	-2.512404e+02
6.800000e-07	-4.341411e-06	-3.810423e-09	-3.205484e+01	-2.507735e+02
6.900000e-07	-4.317242e-06	-3.800648e-09	-3.187638e+01	-2.502819e+02
7.000000e-07	-4.292834e-06	-3.770152e-09	-3.169616e+01	-2.497669e+02
7.100000e-07	-4.268029e-06	-3.763687e-09	-3.151302e+01	-2.492299e+02
7.200000e-07	-4.242739e-06	-3.767878e-09	-3.132629e+01	-2.486723e+02
7.300000e-07	-4.217016e-06	-3.764557e-09	-3.113637e+01	-2.480957e+02
7.400000e-07	-4.190971e-06	-3.756404e-09	-3.094406e+01	-2.475017e+02
7.500000e-07	-4.164479e-06	-3.739557e-09	-3.074846e+01	-2.468920e+02
7.600000e-07	-4.137516e-06	-3.724485e-09	-3.054938e+01	-2.462683e+02
7.700000e-07	-4.110276e-06	-3.723569e-09	-3.034825e+01	-2.456321e+02
7.800000e-07	-4.082803e-06	-3.725538e-09	-3.014540e+01	-2.449854e+02
7.900000e-07	-4.055103e-06	-3.701878e-09	-2.994088e+01	-2.443296e+02
8.000000e-07	-4.027144e-06	-3.671177e-09	-2.973444e+01	-2.436664e+02
8.100000e-07	-3.998901e-06	-3.674707e-09	-2.952591e+01	-2.429974e+02
8.200000e-07	-3.970423e-06	-3.695429e-09	-2.931564e+01	-2.423241e+02
8.300000e-07	-3.941683e-06	-3.678220e-09	-2.910344e+01	-2.416478e+02
8.400000e-07	-3.912665e-06	-3.643248e-09	-2.888918e+01	-2.409698e+02
8.500000e-07	-3.883393e-06	-3.643104e-09	-2.867306e+01	-2.402913e+02
8.600000e-07	-3.853844e-06	-3.657960e-09	-2.845488e+01	-2.396132e+02
8.700000e-07	-3.824046e-06	-3.639686e-09	-2.823487e+01	-2.389365e+02
8.800000e-07	-3.794046e-06	-3.609348e-09	-2.801336e+01	-2.382618e+02
8.900000e-07	-3.763805e-06	-3.597017e-09	-2.779008e+01	-2.375897e+02
9.000000e-07	-3.733251e-06	-3.600352e-09	-2.756448e+01	-2.369206e+02
9.100000e-07	-3.702518e-06	-3.596917e-09	-2.733756e+01	-2.362545e+02
9.200000e-07	-3.671590e-06	-3.581548e-09	-2.710921e+01	-2.355916e+02
9.300000e-07	-3.640404e-06	-3.562130e-09	-2.687895e+01	-2.349317e+02
9.400000e-07	-3.608919e-06	-3.549435e-09	-2.664648e+01	-2.342743e+02
9.500000e-07	-3.577223e-06	-3.548628e-09	-2.641244e+01	-2.336190e+02
9.600000e-07	-3.545455e-06	-3.542843e-09	-2.617789e+01	-2.329651e+02
9.700000e-07	-3.513460e-06	-3.518013e-09	-2.594165e+01	-2.323116e+02
9.800000e-07	-3.481240e-06	-3.495029e-09	-2.570375e+01	-2.316576e+02
9.900000e-07	-3.448799e-06	-3.493412e-09	-2.546423e+01	-2.310018e+02
1.000000e-06	-3.416042e-06	-3.493359e-09	-2.522237e+01	-2.303430e+02
1.010000e-06	-3.382949e-06	-3.474703e-09	-2.497802e+01	-2.296798e+02
1.020000e-06	-3.349537e-06	-3.450098e-09	-2.473133e+01	-2.290106e+02
1.030000e-06	-3.315654e-06	-3.441901e-09	-2.448115e+01	-2.283337e+02
1.040000e-06	-3.281348e-06	-3.438796e-09	-2.422786e+01	-2.276476e+02
1.050000e-06	-3.246810e-06	-3.422319e-09	-2.397284e+01	-2.269503e+02
1.060000e-06	-3.212018e-06	-3.398649e-09	-2.371596e+01	-2.262403e+02
1.070000e-06	-3.176840e-06	-3.384634e-09	-2.345622e+01	-2.255157e+02
1.080000e-06	-3.141369e-06	-3.376294e-09	-2.319432e+01	-2.247746e+02
1.090000e-06	-3.105778e-06	-3.365817e-09	-2.293153e+01	-2.240154e+02
1.100000e-06	-3.070021e-06	-3.352111e-09	-2.266752e+01	-2.232363e+02
1.110000e-06	-3.034126e-06	-3.336850e-09	-2.240249e+01	-2.224357e+02
1.120000e-06	-2.998095e-06	-3.322176e-09	-2.213645e+01	-2.216119e+02
1.130000e-06	-2.961924e-06	-3.310372e-09	-2.186939e+01	-2.207635e+02
1.140000e-06	-2.925589e-06	-3.297050e-09	-2.160110e+01	-2.198891e+02
1.150000e-06	-2.889105e-06	-3.277260e-09	-2.133172e+01	-2.189874e+02
1.160000e-06	-2.852400e-06	-3.257828e-09	-2.106071e+01	-2.180573e+02
1.170000e-06	-2.815474e-06	-3.245985e-09	-2.078807e+01	-2.170978e+02
1.180000e-06	-2.778359e-06	-3.234067e-09	-2.051403e+01	-2.161082e+02
1.190000e-06	-2.741116e-06	-3.216578e-09	-2.023905e+01	-2.150876e+02
1.200000e-06	-2.703708e-06	-3.199606e-09	-1.996285e+01	-2.140357e+02
1.210000e-06	-2.666017e-06	-3.185257e-09	-1.968455e+01	-2.129521e+02
1.220000e-06	-2.628103e-06	-3.167736e-09	-1.940461e+01	-2.118366e+02
1.230000e-06	-2.589998e-06	-3.145839e-09	-1.912327e+01	-2.106892e+02
1.240000e-06	-2.551722e-06	-3.125739e-09	-1.884065e+01	-2.095100e+02
1.250000e-06	-2.513298e-06	-3.109105e-09	-1.855695e+01	-2.082994e+02
1.260000e-06	-2.474688e-06	-3.088619e-09	-1.827187e+01	-2.070579e+02
1.270000e-06	-2.435818e-06	-3.066899e-09	-1.798488e+01	-2.057859e+02
1.280000e-06	-2.396785e-06	-3.048804e-09	-1.769668e+01	-2.044842e+02
1.290000e-06	-2.357610e-06	-3.031658e-09	-1.740743e+01	-2.031536e+02
1.300000e-06	-2.318296e-06	-3.011238e-09	-1.711715e+01	-2.017949e+02
1.310000e-06	-2.278899e-06	-2.987979e-09	-1.682627e+01	-2.004092e+02
1.320000e-06	-2.239390e-06	-2.965670e-09	-1.653455e+01	-1.989973e+02
1.330000e-06	-2.199735e-06	-2.945011e-09	-1.624176e+01	-1.975604e+02
1.340000e-06	-2.159973e-06	-2.925136e-09	-1.594817e+01	-1.960994e+02
1.350000e-06	-2.120095e-06	-2.902884e-09	-1.565374e+01	-1.946153e+02
1.360000e-06	-2.080099e-06	-2.878959e-09	-1.535842e+01	-1.931091e+02
1.370000e-06	-2.039976e-06	-2.856686e-09	-1.506218e+01	-1.915816e+02
1.380000e-06	-1.999754e-06	-2.837280e-09	-1.476520e+01	-1.900337e+02
1.390000e-06	-1.959470e-06	-2.815649e-09	-1.446776e+01	-1.884661e+02
1.400000e-06	-1.919031e-06	-2.791044e-09	-1.416918e+01	-1.868792e+02
1.410000e-06	-1.878484e-06	-2.768143e-09	-1.386979e+01	-1.852735e+02
1.420000e-06	-1.837790e-06	-2.745812e-09	-1.356933e+01	-1.836491e+02
1.430000e-06	-1.796931e-06	-2.719190e-09	-1.326765e+01	-1.820060e+02
1.440000e-06	-1.755890e-06	-2.689398e-09	-1.296463e+01	-1.803441e+02
1.450000e-06	-1.714631e-06	-2.660685e-09	-1.265999e+01	-1.786630e+02
1.460000e-06	-1.673253e-06	-2.637052e-09	-1.235448e+01	-1.769618e+02
1.470000e-06	-1.631640e-06	-2.612825e-09	-1.204723e+01	-1.752397e+02
1.480000e-06	-1.589693e-06	-2.585861e-09	-1.173751e+01	-1.734956e+02
1.490000e-06	-1.547465e-06	-2.557276e-09	-1.142572e+01	-1.717278e+02
1.500000e-06	-1.505024e-06	-2.529210e-09	-1.111235e+01	-1.699348e+02
1.510000e-06	-1.462402e-06	-2.500992e-09	-1.079765e+01	-1.681144e+02
1.520000e-06	-1.419761e-06	-2.472971e-09	-1.048282e+01	-1.662645e+02
1.530000e-06	-1.377064e-06	-2.447327e-09	-1.016756e+01	-1.643825e+02
1.540000e-06	-1.334161e-06	-2.421080e-09	-9.850788e+00	-1.624657e+02
1.550000e-06	-1.291158e-06	-2.392817e-09	-9.533277e+00	-1.605111e+02
1.560000e-06	-1.248023e-06	-2.360277e-09	-9.214783e+00	-1.585154e+02
1.570000e-06	-1.204790e-06	-2.324734e-09	-8.895573e+00	-1.564752e+02
1.580000e-06	-1.161499e-06	-2.288377e-09	-8.575935e+00	-1.543870e+02
1.590000e-06	-1.118076e-06	-2.253570e-09	-8.255321e+00	-1.522470e+02
1.600000e-06	-1.074500e-06	-2.221392e-09	-7.933575e+00	-1.500514e+02
1.610000e-06	-1.030860e-06	-2.185789e-09	-7.611362e+00	-1.477962e+02
1.620000e-06	-9.871806e-07	-2.146036e-09	-7.288854e+00	-1.454773e+02
1.630000e-06	-9.434507e-07	-2.105837e-09	-6.965974e+00	-1.430908e+02
1.640000e-06	-8.997017e-07	-2.068594e-09	-6.642953e+00	-1.406325e+02
1.650000e-06	-8.558679e-07	-2.031768e-09	-6.319306e+00	-1.380984e+02
1.660000e-06	-8.120189e-07	-1.992693e-09	-5.995546e+00	-1.354846e+02
1.670000e-06	-7.681735e-07	-1.955751e-09	-5.671814e+00	-1.327873e+02
1.680000e-06	-7.242946e-07	-1.918151e-09	-5.347834e+00	-1.300027e+02
1.690000e-06	-6.804032e-07	-1.875404e-09	-5.023761e+00	-1.271274e+02
1.700000e-06	-6.364752e-07	-1.832673e-09	-4.699419e+00	-1.241580e+02
1.710000e-06	-5.925027e-07	-1.792514e-09	-4.374748e+00	-1.210916e+02
1.720000e-06	-5.484790e-07	-1.747244e-09	-4.049698e+00	-1.179254e+02
1.730000e-06	-5.044873e-07	-1.696989e-09	-3.724885e+00	-1.146571e+02
1.740000e-06	-4.604571e-07	-1.648872e-09	-3.399788e+00	-1.112845e+02
1.750000e-06	-4.163304e-07	-1.600725e-09	-3.073978e+00	-1.078059e+02
1.760000e-06	-3.721803e-07	-1.547382e-09	-2.747996e+00	-1.042202e+02
1.770000e-06	-3.279932e-07	-1.491267e-09	-2.421740e+00	-1.005264e+02
1.780000e-06	-2.838434e-07	-1.438120e-09	-2.095759e+00	-9.672431e+01
1.790000e-06	-2.397772e-07	-1.386149e-09	-1.770396e+00	-9.281389e+01
1.800000e-06	-1.957285e-07	-1.328985e-09	-1.445162e+00	-8.879577e+01
1.810000e-06	-1.516641e-07	-1.267492e-09	-1.119813e+00	-8.467102e+01
1.820000e-06	-1.075988e-07	-1.206222e-09	-7.944565e-01	-8.044125e+01
1.830000e-06	-6.353504e-08	-1.145416e-09	-4.691113e-01	-7.610853e+01
1.840000e-06	-1.946471e-08	-1.080056e-09	-1.437178e-01	-7.167549e+01
1.850000e-06	2.461361e-08	-1.009177e-09	1.817348e-01	-6.714522e+01
1.860000e-06	6.871896e-08	-9.379386e-10	5.073869e-01	-6.252132e+01
1.870000e-06	1.128331e-07	-8.682181e-10	8.331040e-01	-5.780790e+01
1.880000e-06	1.569437e-07	-7.965017e-10	1.158795e+00	-5.300948e+01
1.890000e-06	2.010496e-07	-7.224529e-10	1.484451e+00	-4.813109e+01
1.900000e-06	2.451089e-07	-6.483970e-10	1.809763e+00	-4.317815e+01
1.910000e-06	2.891338e-07	-5.742856e-10	2.134821e+00	-3.815649e+01
1.920000e-06	3.331221e-07	-4.975299e-10	2.459609e+00	-3.307230e+01
1.930000e-06	3.771600e-07	-4.165465e-10	2.784763e+00	-2.793212e+01
1.940000e-06	4.212177e-07	-3.326844e-10	3.110064e+00	-2.274279e+01
1.950000e-06	4.652061e-07	-2.498287e-10	3.434852e+00	-1.751143e+01
1.960000e-06	5.091880e-07	-1.686984e-10	3.759593e+00	-1.224536e+01
1.970000e-06	5.531392e-07	-8.608934e-11	4.084107e+00	-6.952119e+00
1.980000e-06	5.970866e-07	-8.231310e-13	4.408593e+00	-1.639364e+00
1.990000e-06	6.410523e-07	8.346855e-11	4.733214e+00	3.685128e+00
2.000000e-06	6.850212e-07	1.646952e-10	5.057859e+00	9.013529e+00
2.010000e-06	7.289750e-07	2.474224e-10	5.382392e+00	1.433799e+01
2.020000e-06	7.728442e-07	3.332749e-10	5.706300e+00	1.965070e+01
2.030000e-06	8.166371e-07	4.160001e-10	6.029645e+00	2.494392e+01
2.040000e-06	8.604249e-07	4.955739e-10	6.352952e+00	3.021001e+01
2.050000e-06	9.041915e-07	5.765847e-10	6.676103e+00	3.544152e+01
2.060000e-06	9.479347e-07	6.603820e-10	6.999081e+00	4.063115e+01
2.070000e-06	9.916584e-07	7.427126e-10	7.321916e+00	4.577189e+01
2.080000e-06	1.035363e-06	8.208402e-10	7.644607e+00	5.085696e+01
2.090000e-06	1.079032e-06	8.990141e-10	7.967038e+00	5.587990e+01
2.100000e-06	1.122589e-06	9.758937e-10	8.288641e+00	6.083460e+01
2.110000e-06	1.166017e-06	1.049312e-09	8.609291e+00	6.571531e+01
2.120000e-06	1.209282e-06	1.119411e-09	8.928743e+00	7.051666e+01
2.130000e-06	1.252431e-06	1.187352e-09	9.247329e+00	7.523370e+01
2.140000e-06	1.295532e-06	1.254339e-09	9.565572e+00	7.986193e+01
2.150000e-06	1.338491e-06	1.320890e-09	9.882758e+00	8.439729e+01
2.160000e-06	1.381228e-06	1.384250e-09	1.019831e+01	8.883616e+01
2.170000e-06	1.423786e-06	1.445193e-09	1.051253e+01	9.317543e+01
2.180000e-06	1.466267e-06	1.505473e-09	1.082619e+01	9.741244e+01
2.190000e-06	1.508628e-06	1.564840e-09	1.113896e+01	1.015450e+02
2.200000e-06	1.550822e-06	1.621082e-09	1.145050e+01	1.055714e+02
2.210000e-06	1.592843e-06	1.673108e-09	1.176076e+01	1.094905e+02
2.220000e-06	1.634685e-06	1.721811e-09	1.206971e+01	1.133014e+02
2.230000e-06	1.676335e-06	1.771668e-09	1.237723e+01	1.170039e+02
2.240000e-06	1.717724e-06	1.820705e-09	1.268283e+01	1.205980e+02
2.250000e-06	1.758905e-06	1.865888e-09	1.298689e+01	1.240844e+02
2.260000e-06	1.799862e-06	1.912223e-09	1.328929e+01	1.274638e+02
2.270000e-06	1.840618e-06	1.960662e-09	1.359021e+01	1.307377e+02
2.280000e-06	1.881267e-06	2.007890e-09	1.389035e+01	1.339077e+02
2.290000e-06	1.921758e-06	2.047193e-09	1.418931e+01	1.369758e+02
2.300000e-06	1.962088e-06	2.087373e-09	1.448709e+01	1.399441e+02
2.310000e-06	2.002249e-06	2.130318e-09	1.478362e+01	1.428154e+02
2.320000e-06	2.042295e-06	2.168821e-09	1.507930e+01	1.455924e+02
2.330000e-06	2.082261e-06	2.202514e-09	1.537439e+01	1.482780e+02
2.340000e-06	2.122121e-06	2.239599e-09	1.566869e+01	1.508754e+02
2.350000e-06	2.161903e-06	2.279407e-09	1.596242e+01	1.533880e+02
2.360000e-06	2.201629e-06	2.315453e-09	1.625574e+01	1.558191e+02
2.370000e-06	2.241303e-06	2.349416e-09	1.654868e+01	1.581722e+02
2.380000e-06	2.280808e-06	2.383810e-09	1.684036e+01	1.604509e+02
2.390000e-06	2.320133e-06	2.419719e-09	1.713072e+01	1.626587e+02
2.400000e-06	2.359270e-06	2.451986e-09	1.741969e+01	1.647992e+02
2.410000e-06	2.398189e-06	2.479894e-09	1.770705e+01	1.668760e+02
2.420000e-06	2.436958e-06	2.508322e-09	1.799330e+01	1.688925e+02
2.430000e-06	2.475612e-06	2.538874e-09	1.827870e+01	1.708520e+02
2.440000e-06	2.514083e-06	2.569189e-09	1.856275e+01	1.727580e+02
2.450000e-06	2.552370e-06	2.597487e-09	1.884544e+01	1.746135e+02
2.460000e-06	2.590512e-06	2.625510e-09	1.912706e+01	1.764216e+02
2.470000e-06	2.628523e-06	2.653748e-09	1.940772e+01	1.781851e+02
2.480000e-06	2.666366e-06	2.680171e-09	1.968713e+01	1.799067e+02
2.490000e-06	2.704017e-06	2.704506e-09	1.996513e+01	1.815891e+02
2.500000e-06	2.741527e-06	2.728046e-09	2.024208e+01	1.832345e+02
2.510000e-06	2.778788e-06	2.754455e-09	2.051720e+01	1.848450e+02
2.520000e-06	2.815794e-06	2.781213e-09	2.079043e+01	1.864227e+02
2.530000e-06	2.852603e-06	2.806193e-09	2.106221e+01	1.879694e+02
2.540000e-06	2.889205e-06	2.828319e-09	2.133246e+01	1.894865e+02
2.550000e-06	2.925650e-06	2.850499e-09	2.160155e+01	1.909755e+02
2.560000e-06	2.961941e-06	2.875297e-09	2.186951e+01	1.924376e+02
2.570000e-06	2.998026e-06	2.900144e-09	2.213594e+01	1.938738e+02
2.580000e-06	3.033967e-06	2.919699e-09	2.240132e+01	1.952850e+02
2.590000e-06	3.069821e-06	2.938195e-09	2.266604e+01	1.966718e+02
2.600000e-06	3.105567e-06	2.960021e-09	2.292997e+01	1.980347e+02
2.610000e-06	3.141225e-06	2.983998e-09	2.319325e+01	1.993743e+02
2.620000e-06	3.176654e-06	3.003157e-09	2.345485e+01	2.006907e+02
2.630000e-06	3.211800e-06	3.019119e-09	2.371434e+01	2.019841e+02
2.640000e-06	3.246701e-06	3.038135e-09	2.397204e+01	2.032545e+02
2.650000e-06	3.281195e-06	3.060771e-09	2.422672e+01	2.045021e+02
2.660000e-06	3.315202e-06	3.080314e-09	2.447781e+01	2.057266e+02
2.670000e-06	3.348888e-06	3.095567e-09	2.472653e+01	2.069279e+02
2.680000e-06	3.382246e-06	3.112661e-09	2.497283e+01	2.081059e+02
2.690000e-06	3.415169e-06	3.131448e-09	2.521592e+01	2.092602e+02
2.700000e-06	3.447764e-06	3.147611e-09	2.545659e+01	2.103908e+02
2.710000e-06	3.480169e-06	3.159407e-09	2.569585e+01	2.114973e+02
2.720000e-06	3.512413e-06	3.171790e-09	2.593392e+01	2.125796e+02
2.730000e-06	3.544457e-06	3.185677e-09	2.617052e+01	2.136374e+02
2.740000e-06	3.576284e-06	3.201047e-09	2.640552e+01	2.146707e+02
2.750000e-06	3.607974e-06	3.214195e-09	2.663950e+01	2.156791e+02
2.760000e-06	3.639532e-06	3.226525e-09	2.687250e+01	2.166628e+02
2.770000e-06	3.670853e-06	3.240522e-09	2.710377e+01	2.176217e+02
2.780000e-06	3.701850e-06	3.256119e-09	2.733263e+01	2.185557e+02
2.790000e-06	3.732511e-06	3.270461e-09	2.755902e+01	2.194651e+02
2.800000e-06	3.762908e-06	3.284906e-09	2.778346e+01	2.203500e+02
2.810000e-06	3.793029e-06	3.299140e-09	2.800585e+01	2.212106e+02
2.820000e-06	3.822887e-06	3.312384e-09	2.822631e+01	2.220473e+02
2.830000e-06	3.852581e-06	3.324543e-09	2.844555e+01	2.228604e+02
2.840000e-06	3.882128e-06	3.337475e-09	2.866372e+01	2.236503e+02
2.850000e-06	3.911463e-06	3.352437e-09	2.888031e+01	2.244177e+02
2.860000e-06	3.940520e-06	3.365711e-09	2.909485e+01	2.251630e+02
2.870000e-06	3.969246e-06	3.375673e-09	2.930695e+01	2.258869e+02
2.880000e-06	3.997622e-06	3.388977e-09	2.951647e+01	2.265900e+02
2.890000e-06	4.025744e-06	3.403165e-09	2.972411e+01	2.272732e+02
2.900000e-06	4.053737e-06	3.413295e-09	2.993079e+01	2.279371e+02
