# Temperatura_=_20.0
# Concentracion g/m^3_=_9000.0
# C_Vs_to_Am_M_A/Vsm_=_65563218390.804596
# pendiente_HvsI_1/m_=_3716.3
# ordenada_HvsI_A/m_=_1297.0
# frecuencia_Hz_=_135117.50001973388

Tiempo_(s)	Campo_(V.s)	Magnetizacion_(V.s)	Campo_(kA/m)	Magnetizacion_(A/m)
0.000000e+00	-5.179297e-06	-3.872969e-09	-3.836206e+01	-2.464075e+02
1.000000e-08	-5.179550e-06	-3.871436e-09	-3.836394e+01	-2.463530e+02
2.000000e-08	-5.179689e-06	-3.871178e-09	-3.836496e+01	-2.463132e+02
3.000000e-08	-5.179582e-06	-3.870873e-09	-3.836417e+01	-2.462900e+02
4.000000e-08	-5.179086e-06	-3.871205e-09	-3.836050e+01	-2.462855e+02
5.000000e-08	-5.178187e-06	-3.871958e-09	-3.835384e+01	-2.463015e+02
6.000000e-08	-5.176728e-06	-3.873794e-09	-3.834303e+01	-2.463395e+02
7.000000e-08	-5.174551e-06	-3.883000e-09	-3.832690e+01	-2.464012e+02
8.000000e-08	-5.171774e-06	-3.893309e-09	-3.830634e+01	-2.464880e+02
9.000000e-08	-5.168526e-06	-3.883569e-09	-3.828228e+01	-2.466009e+02
1.000000e-07	-5.164840e-06	-3.856879e-09	-3.825498e+01	-2.467411e+02
1.100000e-07	-5.160793e-06	-3.863548e-09	-3.822500e+01	-2.469093e+02
1.200000e-07	-5.156543e-06	-3.897985e-09	-3.819353e+01	-2.471062e+02
1.300000e-07	-5.152095e-06	-3.900948e-09	-3.816058e+01	-2.473321e+02
1.400000e-07	-5.147353e-06	-3.850955e-09	-3.812546e+01	-2.475871e+02
1.500000e-07	-5.142239e-06	-3.834621e-09	-3.808758e+01	-2.478713e+02
1.600000e-07	-5.136662e-06	-3.901857e-09	-3.804627e+01	-2.481843e+02
1.700000e-07	-5.130607e-06	-3.944978e-09	-3.800142e+01	-2.485254e+02
1.800000e-07	-5.124256e-06	-3.899055e-09	-3.795438e+01	-2.488941e+02
1.900000e-07	-5.117673e-06	-3.818385e-09	-3.790562e+01	-2.492891e+02
2.000000e-07	-5.110838e-06	-3.838787e-09	-3.785499e+01	-2.497092e+02
2.100000e-07	-5.103718e-06	-3.885031e-09	-3.780226e+01	-2.501530e+02
2.200000e-07	-5.096248e-06	-3.860823e-09	-3.774693e+01	-2.506188e+02
2.300000e-07	-5.088521e-06	-3.768930e-09	-3.768970e+01	-2.511045e+02
2.400000e-07	-5.080584e-06	-3.731463e-09	-3.763091e+01	-2.516082e+02
2.500000e-07	-5.072245e-06	-3.774632e-09	-3.756915e+01	-2.521274e+02
2.600000e-07	-5.063333e-06	-3.798049e-09	-3.750314e+01	-2.526598e+02
2.700000e-07	-5.053861e-06	-3.762192e-09	-3.743298e+01	-2.532026e+02
2.800000e-07	-5.043913e-06	-3.735863e-09	-3.735930e+01	-2.537532e+02
2.900000e-07	-5.033393e-06	-3.785510e-09	-3.728138e+01	-2.543085e+02
3.000000e-07	-5.022314e-06	-3.840911e-09	-3.719932e+01	-2.548657e+02
3.100000e-07	-5.010810e-06	-3.841834e-09	-3.711411e+01	-2.554216e+02
3.200000e-07	-4.998859e-06	-3.837190e-09	-3.702559e+01	-2.559732e+02
3.300000e-07	-4.986575e-06	-3.898165e-09	-3.693460e+01	-2.565173e+02
3.400000e-07	-4.974008e-06	-3.975155e-09	-3.684152e+01	-2.570507e+02
3.500000e-07	-4.961062e-06	-3.956191e-09	-3.674564e+01	-2.575703e+02
3.600000e-07	-4.947813e-06	-3.883337e-09	-3.664750e+01	-2.580730e+02
3.700000e-07	-4.934282e-06	-3.892694e-09	-3.654728e+01	-2.585556e+02
3.800000e-07	-4.920254e-06	-3.934713e-09	-3.644338e+01	-2.590153e+02
3.900000e-07	-4.905669e-06	-3.936043e-09	-3.633535e+01	-2.594491e+02
4.000000e-07	-4.890622e-06	-3.916004e-09	-3.622390e+01	-2.598543e+02
4.100000e-07	-4.875160e-06	-3.907469e-09	-3.610938e+01	-2.602283e+02
4.200000e-07	-4.859259e-06	-3.890463e-09	-3.599160e+01	-2.605686e+02
4.300000e-07	-4.842902e-06	-3.936219e-09	-3.587045e+01	-2.608731e+02
4.400000e-07	-4.826235e-06	-3.984480e-09	-3.574699e+01	-2.611396e+02
4.500000e-07	-4.809273e-06	-3.941187e-09	-3.562137e+01	-2.613663e+02
4.600000e-07	-4.792008e-06	-3.884636e-09	-3.549348e+01	-2.615515e+02
4.700000e-07	-4.774506e-06	-3.944337e-09	-3.536385e+01	-2.616939e+02
4.800000e-07	-4.756660e-06	-3.991838e-09	-3.523167e+01	-2.617924e+02
4.900000e-07	-4.738438e-06	-3.911425e-09	-3.509670e+01	-2.618461e+02
5.000000e-07	-4.719801e-06	-3.855124e-09	-3.495866e+01	-2.618543e+02
5.100000e-07	-4.700793e-06	-3.915881e-09	-3.481787e+01	-2.618167e+02
5.200000e-07	-4.681463e-06	-3.947771e-09	-3.467470e+01	-2.617332e+02
5.300000e-07	-4.661848e-06	-3.887583e-09	-3.452941e+01	-2.616040e+02
5.400000e-07	-4.642047e-06	-3.855655e-09	-3.438275e+01	-2.614295e+02
5.500000e-07	-4.622089e-06	-3.885670e-09	-3.423492e+01	-2.612104e+02
5.600000e-07	-4.601915e-06	-3.902647e-09	-3.408550e+01	-2.609476e+02
5.700000e-07	-4.581393e-06	-3.888499e-09	-3.393350e+01	-2.606423e+02
5.800000e-07	-4.560461e-06	-3.871935e-09	-3.377846e+01	-2.602958e+02
5.900000e-07	-4.539253e-06	-3.854694e-09	-3.362138e+01	-2.599098e+02
6.000000e-07	-4.517798e-06	-3.856089e-09	-3.346246e+01	-2.594861e+02
6.100000e-07	-4.496049e-06	-3.873744e-09	-3.330137e+01	-2.590266e+02
6.200000e-07	-4.474083e-06	-3.864420e-09	-3.313868e+01	-2.585335e+02
6.300000e-07	-4.451765e-06	-3.822696e-09	-3.297337e+01	-2.580090e+02
6.400000e-07	-4.428932e-06	-3.818352e-09	-3.280425e+01	-2.574556e+02
6.500000e-07	-4.405837e-06	-3.848304e-09	-3.263319e+01	-2.568756e+02
6.600000e-07	-4.382607e-06	-3.845121e-09	-3.246113e+01	-2.562717e+02
6.700000e-07	-4.359139e-06	-3.804143e-09	-3.228731e+01	-2.556465e+02
6.800000e-07	-4.335438e-06	-3.796496e-09	-3.211176e+01	-2.550026e+02
6.900000e-07	-4.311438e-06	-3.816244e-09	-3.193400e+01	-2.543426e+02
7.000000e-07	-4.287144e-06	-3.811076e-09	-3.175405e+01	-2.536692e+02
7.100000e-07	-4.262538e-06	-3.783207e-09	-3.157180e+01	-2.529850e+02
7.200000e-07	-4.237586e-06	-3.772494e-09	-3.138699e+01	-2.522924e+02
7.300000e-07	-4.212114e-06	-3.774249e-09	-3.119832e+01	-2.515938e+02
7.400000e-07	-4.186059e-06	-3.772070e-09	-3.100534e+01	-2.508917e+02
7.500000e-07	-4.159652e-06	-3.761293e-09	-3.080974e+01	-2.501882e+02
7.600000e-07	-4.132874e-06	-3.747266e-09	-3.061141e+01	-2.494853e+02
7.700000e-07	-4.105693e-06	-3.735964e-09	-3.041008e+01	-2.487849e+02
7.800000e-07	-4.078249e-06	-3.732602e-09	-3.020681e+01	-2.480887e+02
7.900000e-07	-4.050601e-06	-3.725420e-09	-3.000203e+01	-2.473982e+02
8.000000e-07	-4.022809e-06	-3.705976e-09	-2.979618e+01	-2.467147e+02
8.100000e-07	-3.994833e-06	-3.690296e-09	-2.958896e+01	-2.460394e+02
8.200000e-07	-3.966595e-06	-3.690594e-09	-2.937981e+01	-2.453730e+02
8.300000e-07	-3.938076e-06	-3.691841e-09	-2.916857e+01	-2.447162e+02
8.400000e-07	-3.909259e-06	-3.676758e-09	-2.895513e+01	-2.440694e+02
8.500000e-07	-3.880173e-06	-3.659716e-09	-2.873970e+01	-2.434328e+02
8.600000e-07	-3.850735e-06	-3.656205e-09	-2.852166e+01	-2.428064e+02
8.700000e-07	-3.821041e-06	-3.651599e-09	-2.830172e+01	-2.421898e+02
8.800000e-07	-3.791213e-06	-3.632156e-09	-2.808078e+01	-2.415826e+02
8.900000e-07	-3.761202e-06	-3.610787e-09	-2.785850e+01	-2.409840e+02
9.000000e-07	-3.730923e-06	-3.608348e-09	-2.763423e+01	-2.403932e+02
9.100000e-07	-3.700374e-06	-3.609370e-09	-2.740796e+01	-2.398090e+02
9.200000e-07	-3.669581e-06	-3.592782e-09	-2.717988e+01	-2.392301e+02
9.300000e-07	-3.638536e-06	-3.574671e-09	-2.694994e+01	-2.386550e+02
9.400000e-07	-3.607318e-06	-3.565870e-09	-2.671871e+01	-2.380822e+02
9.500000e-07	-3.575885e-06	-3.561377e-09	-2.648589e+01	-2.375099e+02
9.600000e-07	-3.544214e-06	-3.547360e-09	-2.625132e+01	-2.369362e+02
9.700000e-07	-3.512406e-06	-3.526830e-09	-2.601572e+01	-2.363592e+02
9.800000e-07	-3.480415e-06	-3.511099e-09	-2.577877e+01	-2.357769e+02
9.900000e-07	-3.448166e-06	-3.506192e-09	-2.553991e+01	-2.351872e+02
1.000000e-06	-3.415619e-06	-3.501121e-09	-2.529884e+01	-2.345880e+02
1.010000e-06	-3.382803e-06	-3.486212e-09	-2.505578e+01	-2.339772e+02
1.020000e-06	-3.349639e-06	-3.466078e-09	-2.481013e+01	-2.333526e+02
1.030000e-06	-3.316009e-06	-3.457988e-09	-2.456104e+01	-2.327122e+02
1.040000e-06	-3.282061e-06	-3.456014e-09	-2.430960e+01	-2.320539e+02
1.050000e-06	-3.247776e-06	-3.442381e-09	-2.405565e+01	-2.313759e+02
1.060000e-06	-3.213148e-06	-3.418535e-09	-2.379917e+01	-2.306763e+02
1.070000e-06	-3.178261e-06	-3.404642e-09	-2.354077e+01	-2.299532e+02
1.080000e-06	-3.143090e-06	-3.401458e-09	-2.328027e+01	-2.292052e+02
1.090000e-06	-3.107654e-06	-3.390155e-09	-2.301779e+01	-2.284306e+02
1.100000e-06	-3.072044e-06	-3.367930e-09	-2.275404e+01	-2.276281e+02
1.110000e-06	-3.036291e-06	-3.351646e-09	-2.248922e+01	-2.267967e+02
1.120000e-06	-3.000370e-06	-3.343666e-09	-2.222316e+01	-2.259352e+02
1.130000e-06	-2.964325e-06	-3.331792e-09	-2.195619e+01	-2.250428e+02
1.140000e-06	-2.928181e-06	-3.311142e-09	-2.168847e+01	-2.241189e+02
1.150000e-06	-2.891840e-06	-3.288397e-09	-2.141931e+01	-2.231631e+02
1.160000e-06	-2.855266e-06	-3.273156e-09	-2.114841e+01	-2.221750e+02
1.170000e-06	-2.818532e-06	-3.263502e-09	-2.087633e+01	-2.211545e+02
1.180000e-06	-2.781585e-06	-3.251506e-09	-2.060267e+01	-2.201019e+02
1.190000e-06	-2.744412e-06	-3.232759e-09	-2.032733e+01	-2.190172e+02
1.200000e-06	-2.707044e-06	-3.215510e-09	-2.005055e+01	-2.179011e+02
1.210000e-06	-2.669489e-06	-3.203978e-09	-1.977239e+01	-2.167540e+02
1.220000e-06	-2.631830e-06	-3.190343e-09	-1.949346e+01	-2.155767e+02
1.230000e-06	-2.593947e-06	-3.167496e-09	-1.921287e+01	-2.143701e+02
1.240000e-06	-2.555780e-06	-3.143203e-09	-1.893017e+01	-2.131351e+02
1.250000e-06	-2.517462e-06	-3.126757e-09	-1.864636e+01	-2.118729e+02
1.260000e-06	-2.478974e-06	-3.112924e-09	-1.836129e+01	-2.105846e+02
1.270000e-06	-2.440223e-06	-3.091911e-09	-1.807427e+01	-2.092714e+02
1.280000e-06	-2.401229e-06	-3.069227e-09	-1.778545e+01	-2.079346e+02
1.290000e-06	-2.362149e-06	-3.051894e-09	-1.749599e+01	-2.065755e+02
1.300000e-06	-2.322936e-06	-3.035453e-09	-1.720554e+01	-2.051953e+02
1.310000e-06	-2.283597e-06	-3.013687e-09	-1.691417e+01	-2.037954e+02
1.320000e-06	-2.244225e-06	-2.991751e-09	-1.662255e+01	-2.023768e+02
1.330000e-06	-2.204725e-06	-2.971818e-09	-1.632997e+01	-2.009407e+02
1.340000e-06	-2.165084e-06	-2.951419e-09	-1.603636e+01	-1.994882e+02
1.350000e-06	-2.125325e-06	-2.928512e-09	-1.574188e+01	-1.980201e+02
1.360000e-06	-2.085502e-06	-2.907025e-09	-1.544691e+01	-1.965373e+02
1.370000e-06	-2.045603e-06	-2.884754e-09	-1.515139e+01	-1.950402e+02
1.380000e-06	-2.005549e-06	-2.861680e-09	-1.485472e+01	-1.935295e+02
1.390000e-06	-1.965379e-06	-2.841211e-09	-1.455718e+01	-1.920053e+02
1.400000e-06	-1.925178e-06	-2.820545e-09	-1.425943e+01	-1.904677e+02
1.410000e-06	-1.884904e-06	-2.798326e-09	-1.396112e+01	-1.889164e+02
1.420000e-06	-1.844377e-06	-2.774491e-09	-1.366094e+01	-1.873511e+02
1.430000e-06	-1.803586e-06	-2.749472e-09	-1.335882e+01	-1.857710e+02
1.440000e-06	-1.762654e-06	-2.723135e-09	-1.305564e+01	-1.841753e+02
1.450000e-06	-1.721528e-06	-2.696828e-09	-1.275102e+01	-1.825627e+02
1.460000e-06	-1.680135e-06	-2.671077e-09	-1.244444e+01	-1.809319e+02
1.470000e-06	-1.638667e-06	-2.644124e-09	-1.213729e+01	-1.792811e+02
1.480000e-06	-1.597119e-06	-2.618222e-09	-1.182955e+01	-1.776083e+02
1.490000e-06	-1.555332e-06	-2.594046e-09	-1.152004e+01	-1.759114e+02
1.500000e-06	-1.513304e-06	-2.569329e-09	-1.120875e+01	-1.741879e+02
1.510000e-06	-1.471064e-06	-2.541924e-09	-1.089589e+01	-1.724350e+02
1.520000e-06	-1.428611e-06	-2.512105e-09	-1.058145e+01	-1.706499e+02
1.530000e-06	-1.386029e-06	-2.485362e-09	-1.026605e+01	-1.688295e+02
1.540000e-06	-1.343375e-06	-2.460947e-09	-9.950121e+00	-1.669703e+02
1.550000e-06	-1.300574e-06	-2.433757e-09	-9.633100e+00	-1.650690e+02
1.560000e-06	-1.257597e-06	-2.400199e-09	-9.314782e+00	-1.631219e+02
1.570000e-06	-1.214411e-06	-2.366782e-09	-8.994911e+00	-1.611252e+02
1.580000e-06	-1.171123e-06	-2.334694e-09	-8.674287e+00	-1.590751e+02
1.590000e-06	-1.127833e-06	-2.303248e-09	-8.353645e+00	-1.569675e+02
1.600000e-06	-1.084453e-06	-2.270104e-09	-8.032337e+00	-1.547986e+02
1.610000e-06	-1.040936e-06	-2.234162e-09	-7.710014e+00	-1.525643e+02
1.620000e-06	-9.973599e-07	-2.196372e-09	-7.387253e+00	-1.502607e+02
1.630000e-06	-9.536990e-07	-2.158762e-09	-7.063866e+00	-1.478838e+02
1.640000e-06	-9.099804e-07	-2.121740e-09	-6.740051e+00	-1.454297e+02
1.650000e-06	-8.662416e-07	-2.082939e-09	-6.416086e+00	-1.428947e+02
1.660000e-06	-8.224777e-07	-2.041961e-09	-6.091935e+00	-1.402752e+02
1.670000e-06	-7.787029e-07	-2.003220e-09	-5.767703e+00	-1.375677e+02
1.680000e-06	-7.348927e-07	-1.967181e-09	-5.443209e+00	-1.347690e+02
1.690000e-06	-6.910826e-07	-1.925909e-09	-5.118716e+00	-1.318761e+02
1.700000e-06	-6.472395e-07	-1.882705e-09	-4.793979e+00	-1.288862e+02
1.710000e-06	-6.034026e-07	-1.839854e-09	-4.469287e+00	-1.257969e+02
1.720000e-06	-5.595339e-07	-1.794798e-09	-4.144361e+00	-1.226061e+02
1.730000e-06	-5.156570e-07	-1.746329e-09	-3.819372e+00	-1.193119e+02
1.740000e-06	-4.718242e-07	-1.696942e-09	-3.494711e+00	-1.159129e+02
1.750000e-06	-4.279094e-07	-1.646833e-09	-3.169443e+00	-1.124080e+02
1.760000e-06	-3.839830e-07	-1.595107e-09	-2.844089e+00	-1.087966e+02
1.770000e-06	-3.400608e-07	-1.540976e-09	-2.518765e+00	-1.050784e+02
1.780000e-06	-2.960675e-07	-1.486501e-09	-2.192915e+00	-1.012535e+02
1.790000e-06	-2.520650e-07	-1.432627e-09	-1.866997e+00	-9.732264e+01
1.800000e-06	-2.080988e-07	-1.376026e-09	-1.541348e+00	-9.328681e+01
1.810000e-06	-1.641416e-07	-1.315668e-09	-1.215765e+00	-8.914750e+01
1.820000e-06	-1.201519e-07	-1.256225e-09	-8.899421e-01	-8.490666e+01
1.830000e-06	-7.617800e-08	-1.197938e-09	-5.642358e-01	-8.056668e+01
1.840000e-06	-3.221206e-08	-1.134589e-09	-2.385886e-01	-7.613038e+01
1.850000e-06	1.174173e-08	-1.066389e-09	8.696872e-02	-7.160104e+01
1.860000e-06	5.573920e-08	-9.972351e-10	4.128495e-01	-6.698233e+01
1.870000e-06	9.977893e-08	-9.284211e-10	7.390434e-01	-6.227835e+01
1.880000e-06	1.437642e-07	-8.574920e-10	1.064834e+00	-5.749360e+01
1.890000e-06	1.876952e-07	-7.841714e-10	1.390222e+00	-5.263293e+01
1.900000e-06	2.316191e-07	-7.114354e-10	1.715558e+00	-4.770158e+01
1.910000e-06	2.756046e-07	-6.388949e-10	2.041351e+00	-4.270509e+01
1.920000e-06	3.196308e-07	-5.631972e-10	2.367444e+00	-3.764932e+01
1.930000e-06	3.636478e-07	-4.827548e-10	2.693470e+00	-3.254041e+01
1.940000e-06	4.075882e-07	-3.996766e-10	3.018928e+00	-2.738473e+01
1.950000e-06	4.514813e-07	-3.176637e-10	3.344035e+00	-2.218890e+01
1.960000e-06	4.953728e-07	-2.352272e-10	3.669132e+00	-1.695970e+01
1.970000e-06	5.392467e-07	-1.521141e-10	3.994097e+00	-1.170408e+01
1.980000e-06	5.830645e-07	-6.860176e-11	4.318647e+00	-6.429089e+00
1.990000e-06	6.268302e-07	1.455697e-11	4.642811e+00	-1.141883e+00
2.000000e-06	6.705873e-07	9.620721e-11	4.966912e+00	4.150347e+00
2.010000e-06	7.143293e-07	1.791301e-10	5.290900e+00	9.440393e+00
2.020000e-06	7.580827e-07	2.650211e-10	5.614973e+00	1.472107e+01
2.030000e-06	8.018724e-07	3.490876e-10	5.939315e+00	1.998524e+01
2.040000e-06	8.456014e-07	4.293404e-10	6.263208e+00	2.522587e+01
2.050000e-06	8.892526e-07	5.087012e-10	6.586524e+00	3.043604e+01
2.060000e-06	9.328970e-07	5.914151e-10	6.909789e+00	3.560900e+01
2.070000e-06	9.765170e-07	6.744600e-10	7.232874e+00	4.073817e+01
2.080000e-06	1.020109e-06	7.539245e-10	7.555751e+00	4.581719e+01
2.090000e-06	1.063594e-06	8.338242e-10	7.877835e+00	5.083995e+01
2.100000e-06	1.106991e-06	9.132741e-10	8.199268e+00	5.580063e+01
2.110000e-06	1.150294e-06	9.875447e-10	8.520006e+00	6.069367e+01
2.120000e-06	1.193447e-06	1.059497e-09	8.839635e+00	6.551386e+01
2.130000e-06	1.236563e-06	1.132393e-09	9.158983e+00	7.025630e+01
2.140000e-06	1.279641e-06	1.204201e-09	9.478058e+00	7.491648e+01
2.150000e-06	1.322690e-06	1.272792e-09	9.796911e+00	7.949023e+01
2.160000e-06	1.365624e-06	1.336838e-09	1.011492e+01	8.397379e+01
2.170000e-06	1.408272e-06	1.398225e-09	1.043080e+01	8.836378e+01
2.180000e-06	1.450588e-06	1.459056e-09	1.074423e+01	9.265721e+01
2.190000e-06	1.492719e-06	1.519441e-09	1.105628e+01	9.685153e+01
2.200000e-06	1.534751e-06	1.576314e-09	1.136760e+01	1.009446e+02
2.210000e-06	1.576581e-06	1.629679e-09	1.167743e+01	1.049346e+02
2.220000e-06	1.618200e-06	1.681852e-09	1.198570e+01	1.088203e+02
2.230000e-06	1.659634e-06	1.734343e-09	1.229259e+01	1.126007e+02
2.240000e-06	1.700897e-06	1.784439e-09	1.259822e+01	1.162752e+02
2.250000e-06	1.741995e-06	1.832193e-09	1.290262e+01	1.198438e+02
2.260000e-06	1.782941e-06	1.878772e-09	1.320590e+01	1.233065e+02
2.270000e-06	1.823662e-06	1.924031e-09	1.350752e+01	1.266641e+02
2.280000e-06	1.864146e-06	1.967916e-09	1.380737e+01	1.299175e+02
2.290000e-06	1.904488e-06	2.005909e-09	1.410618e+01	1.330678e+02
2.300000e-06	1.944708e-06	2.044385e-09	1.440408e+01	1.361167e+02
2.310000e-06	1.984802e-06	2.085205e-09	1.470105e+01	1.390660e+02
2.320000e-06	2.024794e-06	2.123230e-09	1.499726e+01	1.419178e+02
2.330000e-06	2.064716e-06	2.158773e-09	1.529295e+01	1.446745e+02
2.340000e-06	2.104563e-06	2.197456e-09	1.558809e+01	1.473386e+02
2.350000e-06	2.144327e-06	2.237190e-09	1.588262e+01	1.499130e+02
2.360000e-06	2.183985e-06	2.270782e-09	1.617636e+01	1.524007e+02
2.370000e-06	2.223498e-06	2.301562e-09	1.646902e+01	1.548046e+02
2.380000e-06	2.262935e-06	2.333949e-09	1.676112e+01	1.571280e+02
2.390000e-06	2.302264e-06	2.367315e-09	1.705243e+01	1.593743e+02
2.400000e-06	2.341317e-06	2.397966e-09	1.734169e+01	1.615468e+02
2.410000e-06	2.380105e-06	2.427099e-09	1.762898e+01	1.636489e+02
2.420000e-06	2.418777e-06	2.457000e-09	1.791542e+01	1.656842e+02
2.430000e-06	2.457325e-06	2.486318e-09	1.820093e+01	1.676560e+02
2.440000e-06	2.495664e-06	2.515279e-09	1.848490e+01	1.695679e+02
2.450000e-06	2.533845e-06	2.545455e-09	1.876770e+01	1.714232e+02
2.460000e-06	2.571913e-06	2.575173e-09	1.904967e+01	1.732252e+02
2.470000e-06	2.609833e-06	2.603620e-09	1.933053e+01	1.749772e+02
2.480000e-06	2.647587e-06	2.628202e-09	1.961017e+01	1.766823e+02
2.490000e-06	2.685197e-06	2.651288e-09	1.988874e+01	1.783436e+02
2.500000e-06	2.722635e-06	2.675073e-09	2.016604e+01	1.799640e+02
2.510000e-06	2.759919e-06	2.701368e-09	2.044219e+01	1.815462e+02
2.520000e-06	2.797004e-06	2.729251e-09	2.071687e+01	1.830928e+02
2.530000e-06	2.833753e-06	2.753839e-09	2.098907e+01	1.846063e+02
2.540000e-06	2.870230e-06	2.776460e-09	2.125925e+01	1.860889e+02
2.550000e-06	2.906611e-06	2.799640e-09	2.152871e+01	1.875427e+02
2.560000e-06	2.942843e-06	2.823755e-09	2.179707e+01	1.889696e+02
2.570000e-06	2.978817e-06	2.846719e-09	2.206352e+01	1.903714e+02
2.580000e-06	3.014653e-06	2.866583e-09	2.232896e+01	1.917496e+02
2.590000e-06	3.050412e-06	2.885481e-09	2.259381e+01	1.931055e+02
2.600000e-06	3.086037e-06	2.905760e-09	2.285768e+01	1.944403e+02
2.610000e-06	3.121590e-06	2.927122e-09	2.312102e+01	1.957550e+02
2.620000e-06	3.157038e-06	2.946445e-09	2.338358e+01	1.970503e+02
2.630000e-06	3.192247e-06	2.964068e-09	2.364436e+01	1.983270e+02
2.640000e-06	3.227093e-06	2.982397e-09	2.390246e+01	1.995854e+02
2.650000e-06	3.261581e-06	3.000319e-09	2.415791e+01	2.008260e+02
2.660000e-06	3.295789e-06	3.018342e-09	2.441128e+01	2.020489e+02
2.670000e-06	3.329536e-06	3.035504e-09	2.466123e+01	2.032542e+02
2.680000e-06	3.362767e-06	3.051646e-09	2.490737e+01	2.044418e+02
2.690000e-06	3.395633e-06	3.066936e-09	2.515080e+01	2.056115e+02
2.700000e-06	3.428119e-06	3.081961e-09	2.539142e+01	2.067630e+02
2.710000e-06	3.460334e-06	3.097198e-09	2.563003e+01	2.078960e+02
2.720000e-06	3.492423e-06	3.113049e-09	2.586771e+01	2.090102e+02
2.730000e-06	3.524370e-06	3.128142e-09	2.610433e+01	2.101049e+02
2.740000e-06	3.556202e-06	3.140927e-09	2.634011e+01	2.111797e+02
2.750000e-06	3.587921e-06	3.151440e-09	2.657504e+01	2.122341e+02
2.760000e-06	3.619502e-06	3.163307e-09	2.680896e+01	2.132675e+02
2.770000e-06	3.650817e-06	3.179366e-09	2.704090e+01	2.142793e+02
2.780000e-06	3.681766e-06	3.193194e-09	2.727014e+01	2.152690e+02
2.790000e-06	3.712379e-06	3.201889e-09	2.749688e+01	2.162360e+02
2.800000e-06	3.742753e-06	3.214476e-09	2.772186e+01	2.171800e+02
2.810000e-06	3.772888e-06	3.229698e-09	2.794506e+01	2.181003e+02
2.820000e-06	3.802696e-06	3.241674e-09	2.816584e+01	2.189968e+02
2.830000e-06	3.832260e-06	3.252763e-09	2.838481e+01	2.198689e+02
2.840000e-06	3.861649e-06	3.265288e-09	2.860249e+01	2.207166e+02
2.850000e-06	3.890894e-06	3.280969e-09	2.881911e+01	2.215395e+02
2.860000e-06	3.919902e-06	3.295810e-09	2.903396e+01	2.223377e+02
2.870000e-06	3.948586e-06	3.306795e-09	2.924642e+01	2.231111e+02
2.880000e-06	3.977019e-06	3.314644e-09	2.945702e+01	2.238599e+02
2.890000e-06	4.005227e-06	3.324463e-09	2.966595e+01	2.245842e+02
2.900000e-06	4.033237e-06	3.336479e-09	2.987341e+01	2.252843e+02
