# Temperatura_=_20.0
# Concentracion g/m^3_=_9000.0
# C_Vs_to_Am_M_A/Vsm_=_65563218390.804596
# pendiente_HvsI_1/m_=_3716.3
# ordenada_HvsI_A/m_=_1297.0
# frecuencia_Hz_=_135116.16062712323

Tiempo_(s)	Campo_(V.s)	Magnetizacion_(V.s)	Campo_(kA/m)	Magnetizacion_(A/m)
0.000000e+00	-5.184856e-06	-3.840389e-09	-3.836308e+01	-2.498648e+02
1.000000e-08	-5.185003e-06	-3.836314e-09	-3.836417e+01	-2.498673e+02
2.000000e-08	-5.184920e-06	-3.833406e-09	-3.836356e+01	-2.498683e+02
3.000000e-08	-5.184461e-06	-3.834562e-09	-3.836016e+01	-2.498689e+02
4.000000e-08	-5.183605e-06	-3.836635e-09	-3.835382e+01	-2.498700e+02
5.000000e-08	-5.182240e-06	-3.836905e-09	-3.834372e+01	-2.498728e+02
6.000000e-08	-5.180281e-06	-3.836363e-09	-3.832924e+01	-2.498783e+02
7.000000e-08	-5.177769e-06	-3.832886e-09	-3.831064e+01	-2.498879e+02
8.000000e-08	-5.174672e-06	-3.841925e-09	-3.828773e+01	-2.499026e+02
9.000000e-08	-5.171094e-06	-3.889249e-09	-3.826126e+01	-2.499236e+02
1.000000e-07	-5.167155e-06	-3.889978e-09	-3.823211e+01	-2.499521e+02
1.100000e-07	-5.162956e-06	-3.784878e-09	-3.820104e+01	-2.499893e+02
1.200000e-07	-5.158641e-06	-3.726666e-09	-3.816912e+01	-2.500362e+02
1.300000e-07	-5.154160e-06	-3.779485e-09	-3.813596e+01	-2.500940e+02
1.400000e-07	-5.149231e-06	-3.898679e-09	-3.809949e+01	-2.501636e+02
1.500000e-07	-5.143849e-06	-3.890207e-09	-3.805967e+01	-2.502461e+02
1.600000e-07	-5.138136e-06	-3.824192e-09	-3.801740e+01	-2.503423e+02
1.700000e-07	-5.131983e-06	-3.875287e-09	-3.797187e+01	-2.504530e+02
1.800000e-07	-5.125445e-06	-3.936597e-09	-3.792349e+01	-2.505788e+02
1.900000e-07	-5.118764e-06	-3.989286e-09	-3.787406e+01	-2.507204e+02
2.000000e-07	-5.111775e-06	-3.937809e-09	-3.782235e+01	-2.508781e+02
2.100000e-07	-5.104336e-06	-3.932672e-09	-3.776731e+01	-2.510524e+02
2.200000e-07	-5.096557e-06	-3.887121e-09	-3.770975e+01	-2.512432e+02
2.300000e-07	-5.088614e-06	-3.889264e-09	-3.765098e+01	-2.514508e+02
2.400000e-07	-5.080495e-06	-3.796205e-09	-3.759091e+01	-2.516748e+02
2.500000e-07	-5.071741e-06	-3.708666e-09	-3.752614e+01	-2.519150e+02
2.600000e-07	-5.062228e-06	-3.668601e-09	-3.745575e+01	-2.521709e+02
2.700000e-07	-5.052375e-06	-3.768419e-09	-3.738284e+01	-2.524419e+02
2.800000e-07	-5.042016e-06	-3.804908e-09	-3.730620e+01	-2.527271e+02
2.900000e-07	-5.030975e-06	-3.711670e-09	-3.722450e+01	-2.530256e+02
3.000000e-07	-5.019544e-06	-3.664484e-09	-3.713993e+01	-2.533361e+02
3.100000e-07	-5.007789e-06	-3.816016e-09	-3.705295e+01	-2.536575e+02
3.200000e-07	-4.995748e-06	-3.944495e-09	-3.696386e+01	-2.539881e+02
3.300000e-07	-4.983348e-06	-3.881952e-09	-3.687211e+01	-2.543263e+02
3.400000e-07	-4.970552e-06	-3.853381e-09	-3.677744e+01	-2.546705e+02
3.500000e-07	-4.957406e-06	-3.910360e-09	-3.668017e+01	-2.550186e+02
3.600000e-07	-4.943883e-06	-3.971664e-09	-3.658010e+01	-2.553687e+02
3.700000e-07	-4.930062e-06	-3.945591e-09	-3.647785e+01	-2.557186e+02
3.800000e-07	-4.915843e-06	-3.955704e-09	-3.637264e+01	-2.560661e+02
3.900000e-07	-4.900984e-06	-3.872447e-09	-3.626269e+01	-2.564089e+02
4.000000e-07	-4.885604e-06	-3.895053e-09	-3.614890e+01	-2.567446e+02
4.100000e-07	-4.869779e-06	-3.965932e-09	-3.603181e+01	-2.570709e+02
4.200000e-07	-4.853448e-06	-3.972499e-09	-3.591097e+01	-2.573854e+02
4.300000e-07	-4.836682e-06	-3.848667e-09	-3.578692e+01	-2.576855e+02
4.400000e-07	-4.819725e-06	-3.908637e-09	-3.566146e+01	-2.579689e+02
4.500000e-07	-4.802609e-06	-4.028105e-09	-3.553481e+01	-2.582332e+02
4.600000e-07	-4.785146e-06	-3.997723e-09	-3.540560e+01	-2.584762e+02
4.700000e-07	-4.767369e-06	-3.884939e-09	-3.527407e+01	-2.586954e+02
4.800000e-07	-4.749264e-06	-3.947345e-09	-3.514011e+01	-2.588889e+02
4.900000e-07	-4.730748e-06	-4.021577e-09	-3.500311e+01	-2.590545e+02
5.000000e-07	-4.711851e-06	-3.985108e-09	-3.486329e+01	-2.591903e+02
5.100000e-07	-4.692576e-06	-3.918485e-09	-3.472067e+01	-2.592947e+02
5.200000e-07	-4.673018e-06	-3.933754e-09	-3.457596e+01	-2.593658e+02
5.300000e-07	-4.653303e-06	-3.956516e-09	-3.443009e+01	-2.594025e+02
5.400000e-07	-4.633483e-06	-3.959033e-09	-3.428344e+01	-2.594033e+02
5.500000e-07	-4.613531e-06	-3.945779e-09	-3.413581e+01	-2.593672e+02
5.600000e-07	-4.593273e-06	-3.920789e-09	-3.398592e+01	-2.592935e+02
5.700000e-07	-4.572562e-06	-3.913743e-09	-3.383268e+01	-2.591815e+02
5.800000e-07	-4.551503e-06	-3.934485e-09	-3.367686e+01	-2.590308e+02
5.900000e-07	-4.530195e-06	-3.945079e-09	-3.351920e+01	-2.588413e+02
6.000000e-07	-4.508559e-06	-3.895421e-09	-3.335912e+01	-2.586129e+02
6.100000e-07	-4.486581e-06	-3.868424e-09	-3.319650e+01	-2.583461e+02
6.200000e-07	-4.464333e-06	-3.899020e-09	-3.303189e+01	-2.580412e+02
6.300000e-07	-4.441746e-06	-3.930654e-09	-3.286477e+01	-2.576991e+02
6.400000e-07	-4.418733e-06	-3.877866e-09	-3.269449e+01	-2.573207e+02
6.500000e-07	-4.395353e-06	-3.847640e-09	-3.252150e+01	-2.569070e+02
6.600000e-07	-4.371763e-06	-3.869764e-09	-3.234695e+01	-2.564596e+02
6.700000e-07	-4.348074e-06	-3.891537e-09	-3.217168e+01	-2.559798e+02
6.800000e-07	-4.324187e-06	-3.849896e-09	-3.199494e+01	-2.554693e+02
6.900000e-07	-4.300027e-06	-3.829838e-09	-3.181618e+01	-2.549300e+02
7.000000e-07	-4.275621e-06	-3.831256e-09	-3.163560e+01	-2.543638e+02
7.100000e-07	-4.250857e-06	-3.844141e-09	-3.145237e+01	-2.537727e+02
7.200000e-07	-4.225632e-06	-3.826957e-09	-3.126572e+01	-2.531590e+02
7.300000e-07	-4.199990e-06	-3.813106e-09	-3.107600e+01	-2.525248e+02
7.400000e-07	-4.173945e-06	-3.797945e-09	-3.088329e+01	-2.518724e+02
7.500000e-07	-4.147373e-06	-3.802318e-09	-3.068668e+01	-2.512040e+02
7.600000e-07	-4.120265e-06	-3.798058e-09	-3.048610e+01	-2.505220e+02
7.700000e-07	-4.092848e-06	-3.784183e-09	-3.028325e+01	-2.498286e+02
7.800000e-07	-4.065219e-06	-3.757262e-09	-3.007882e+01	-2.491259e+02
7.900000e-07	-4.037404e-06	-3.747884e-09	-2.987301e+01	-2.484163e+02
8.000000e-07	-4.009421e-06	-3.754424e-09	-2.966596e+01	-2.477016e+02
8.100000e-07	-3.981240e-06	-3.750931e-09	-2.945745e+01	-2.469839e+02
8.200000e-07	-3.952764e-06	-3.725643e-09	-2.924675e+01	-2.462650e+02
8.300000e-07	-3.923931e-06	-3.714898e-09	-2.903342e+01	-2.455465e+02
8.400000e-07	-3.894822e-06	-3.725909e-09	-2.881804e+01	-2.448300e+02
8.500000e-07	-3.865481e-06	-3.716761e-09	-2.860094e+01	-2.441167e+02
8.600000e-07	-3.835880e-06	-3.691965e-09	-2.838192e+01	-2.434078e+02
8.700000e-07	-3.806063e-06	-3.678267e-09	-2.816130e+01	-2.427043e+02
8.800000e-07	-3.776069e-06	-3.678640e-09	-2.793938e+01	-2.420068e+02
8.900000e-07	-3.745803e-06	-3.667420e-09	-2.771543e+01	-2.413159e+02
9.000000e-07	-3.715218e-06	-3.656462e-09	-2.748914e+01	-2.406318e+02
9.100000e-07	-3.684409e-06	-3.641014e-09	-2.726118e+01	-2.399547e+02
9.200000e-07	-3.653380e-06	-3.633315e-09	-2.703159e+01	-2.392843e+02
9.300000e-07	-3.622128e-06	-3.625837e-09	-2.680036e+01	-2.386202e+02
9.400000e-07	-3.590670e-06	-3.619476e-09	-2.656760e+01	-2.379620e+02
9.500000e-07	-3.559011e-06	-3.600360e-09	-2.633335e+01	-2.373087e+02
9.600000e-07	-3.527232e-06	-3.587408e-09	-2.609821e+01	-2.366593e+02
9.700000e-07	-3.495315e-06	-3.577969e-09	-2.586206e+01	-2.360127e+02
9.800000e-07	-3.463167e-06	-3.571741e-09	-2.562420e+01	-2.353676e+02
9.900000e-07	-3.430749e-06	-3.555324e-09	-2.538433e+01	-2.347223e+02
1.000000e-06	-3.398051e-06	-3.540865e-09	-2.514240e+01	-2.340753e+02
1.010000e-06	-3.365057e-06	-3.529043e-09	-2.489827e+01	-2.334247e+02
1.020000e-06	-3.331685e-06	-3.523609e-09	-2.465135e+01	-2.327686e+02
1.030000e-06	-3.297847e-06	-3.509808e-09	-2.440098e+01	-2.321052e+02
1.040000e-06	-3.263618e-06	-3.493804e-09	-2.414772e+01	-2.314324e+02
1.050000e-06	-3.229092e-06	-3.480707e-09	-2.389226e+01	-2.307481e+02
1.060000e-06	-3.194237e-06	-3.471286e-09	-2.363436e+01	-2.300502e+02
1.070000e-06	-3.158983e-06	-3.457915e-09	-2.337352e+01	-2.293367e+02
1.080000e-06	-3.123396e-06	-3.442371e-09	-2.311021e+01	-2.286056e+02
1.090000e-06	-3.087683e-06	-3.428490e-09	-2.284596e+01	-2.278548e+02
1.100000e-06	-3.051896e-06	-3.416858e-09	-2.258117e+01	-2.270824e+02
1.110000e-06	-3.016024e-06	-3.407423e-09	-2.231576e+01	-2.262867e+02
1.120000e-06	-2.980075e-06	-3.395746e-09	-2.204976e+01	-2.254658e+02
1.130000e-06	-2.943992e-06	-3.380476e-09	-2.178278e+01	-2.246183e+02
1.140000e-06	-2.907736e-06	-3.364596e-09	-2.151452e+01	-2.237426e+02
1.150000e-06	-2.871290e-06	-3.353146e-09	-2.124486e+01	-2.228375e+02
1.160000e-06	-2.834623e-06	-3.336406e-09	-2.097356e+01	-2.219018e+02
1.170000e-06	-2.797713e-06	-3.317506e-09	-2.070046e+01	-2.209346e+02
1.180000e-06	-2.760540e-06	-3.300890e-09	-2.042542e+01	-2.199351e+02
1.190000e-06	-2.723133e-06	-3.289431e-09	-2.014864e+01	-2.189028e+02
1.200000e-06	-2.685576e-06	-3.272665e-09	-1.987075e+01	-2.178372e+02
1.210000e-06	-2.647853e-06	-3.254174e-09	-1.959164e+01	-2.167382e+02
1.220000e-06	-2.609950e-06	-3.234136e-09	-1.931119e+01	-2.156057e+02
1.230000e-06	-2.571899e-06	-3.217681e-09	-1.902965e+01	-2.144398e+02
1.240000e-06	-2.533649e-06	-3.201094e-09	-1.874663e+01	-2.132410e+02
1.250000e-06	-2.495167e-06	-3.180813e-09	-1.846190e+01	-2.120097e+02
1.260000e-06	-2.456486e-06	-3.158041e-09	-1.817570e+01	-2.107465e+02
1.270000e-06	-2.417598e-06	-3.140058e-09	-1.788797e+01	-2.094522e+02
1.280000e-06	-2.378505e-06	-3.122427e-09	-1.759871e+01	-2.081278e+02
1.290000e-06	-2.339261e-06	-3.102863e-09	-1.730834e+01	-2.067741e+02
1.300000e-06	-2.299991e-06	-3.082107e-09	-1.701778e+01	-2.053923e+02
1.310000e-06	-2.260625e-06	-3.063011e-09	-1.672651e+01	-2.039835e+02
1.320000e-06	-2.221109e-06	-3.041918e-09	-1.643413e+01	-2.025487e+02
1.330000e-06	-2.181516e-06	-3.022492e-09	-1.614117e+01	-2.010893e+02
1.340000e-06	-2.141786e-06	-3.002050e-09	-1.584721e+01	-1.996062e+02
1.350000e-06	-2.101958e-06	-2.977946e-09	-1.555252e+01	-1.981006e+02
1.360000e-06	-2.062045e-06	-2.953131e-09	-1.525721e+01	-1.965735e+02
1.370000e-06	-2.022008e-06	-2.930297e-09	-1.496096e+01	-1.950258e+02
1.380000e-06	-1.981826e-06	-2.906802e-09	-1.466366e+01	-1.934584e+02
1.390000e-06	-1.941494e-06	-2.882520e-09	-1.436524e+01	-1.918719e+02
1.400000e-06	-1.901127e-06	-2.859014e-09	-1.406656e+01	-1.902669e+02
1.410000e-06	-1.860673e-06	-2.834489e-09	-1.376724e+01	-1.886435e+02
1.420000e-06	-1.819992e-06	-2.808385e-09	-1.346624e+01	-1.870020e+02
1.430000e-06	-1.779158e-06	-2.780066e-09	-1.316410e+01	-1.853423e+02
1.440000e-06	-1.738076e-06	-2.751479e-09	-1.286014e+01	-1.836640e+02
1.450000e-06	-1.696801e-06	-2.724798e-09	-1.255474e+01	-1.819664e+02
1.460000e-06	-1.655388e-06	-2.700095e-09	-1.224832e+01	-1.802488e+02
1.470000e-06	-1.613701e-06	-2.672928e-09	-1.193988e+01	-1.785100e+02
1.480000e-06	-1.571745e-06	-2.644978e-09	-1.162944e+01	-1.767486e+02
1.490000e-06	-1.529628e-06	-2.618716e-09	-1.131782e+01	-1.749630e+02
1.500000e-06	-1.487437e-06	-2.591485e-09	-1.100564e+01	-1.731511e+02
1.510000e-06	-1.445132e-06	-2.559705e-09	-1.069262e+01	-1.713107e+02
1.520000e-06	-1.402587e-06	-2.529571e-09	-1.037783e+01	-1.694394e+02
1.530000e-06	-1.359775e-06	-2.502050e-09	-1.006106e+01	-1.675345e+02
1.540000e-06	-1.316872e-06	-2.476571e-09	-9.743620e+00	-1.655928e+02
1.550000e-06	-1.273908e-06	-2.446918e-09	-9.425726e+00	-1.636113e+02
1.560000e-06	-1.230818e-06	-2.412422e-09	-9.106898e+00	-1.615864e+02
1.570000e-06	-1.187584e-06	-2.375781e-09	-8.787009e+00	-1.595147e+02
1.580000e-06	-1.144297e-06	-2.342611e-09	-8.466726e+00	-1.573923e+02
1.590000e-06	-1.101036e-06	-2.307909e-09	-8.146635e+00	-1.552155e+02
1.600000e-06	-1.057660e-06	-2.271919e-09	-7.825693e+00	-1.529801e+02
1.610000e-06	-1.014088e-06	-2.235578e-09	-7.503302e+00	-1.506822e+02
1.620000e-06	-9.704037e-07	-2.198084e-09	-7.180079e+00	-1.483177e+02
1.630000e-06	-9.266964e-07	-2.160270e-09	-6.856686e+00	-1.458824e+02
1.640000e-06	-8.829715e-07	-2.120428e-09	-6.533163e+00	-1.433725e+02
1.650000e-06	-8.391624e-07	-2.079333e-09	-6.209016e+00	-1.407838e+02
1.660000e-06	-7.953193e-07	-2.039726e-09	-5.884618e+00	-1.381125e+02
1.670000e-06	-7.514966e-07	-2.003708e-09	-5.560372e+00	-1.353549e+02
1.680000e-06	-7.076594e-07	-1.964154e-09	-5.236017e+00	-1.325075e+02
1.690000e-06	-6.637797e-07	-1.919690e-09	-4.911349e+00	-1.295669e+02
1.700000e-06	-6.198769e-07	-1.875570e-09	-4.586509e+00	-1.265300e+02
1.710000e-06	-5.760114e-07	-1.832824e-09	-4.261945e+00	-1.233942e+02
1.720000e-06	-5.321587e-07	-1.785682e-09	-3.937476e+00	-1.201568e+02
1.730000e-06	-4.882308e-07	-1.735837e-09	-3.612451e+00	-1.168159e+02
1.740000e-06	-4.442472e-07	-1.685952e-09	-3.287014e+00	-1.133697e+02
1.750000e-06	-4.002453e-07	-1.635134e-09	-2.961441e+00	-1.098168e+02
1.760000e-06	-3.562685e-07	-1.580928e-09	-2.636053e+00	-1.061564e+02
1.770000e-06	-3.123409e-07	-1.524649e-09	-2.311031e+00	-1.023879e+02
1.780000e-06	-2.683588e-07	-1.469283e-09	-1.985604e+00	-9.851152e+01
1.790000e-06	-2.243139e-07	-1.414426e-09	-1.659713e+00	-9.452758e+01
1.800000e-06	-1.803020e-07	-1.357180e-09	-1.334066e+00	-9.043711e+01
1.810000e-06	-1.362991e-07	-1.296666e-09	-1.008486e+00	-8.624158e+01
1.820000e-06	-9.229745e-08	-1.235252e-09	-6.829147e-01	-8.194296e+01
1.830000e-06	-4.826323e-08	-1.172307e-09	-3.571027e-01	-7.754371e+01
1.840000e-06	-4.172993e-09	-1.105089e-09	-3.087624e-02	-7.304680e+01
1.850000e-06	3.989397e-08	-1.036388e-09	2.951780e-01	-6.845565e+01
1.860000e-06	8.392721e-08	-9.676828e-10	6.209828e-01	-6.377420e+01
1.870000e-06	1.279366e-07	-8.951394e-10	9.466109e-01	-5.900681e+01
1.880000e-06	1.719226e-07	-8.188351e-10	1.272066e+00	-5.415830e+01
1.890000e-06	2.159124e-07	-7.428228e-10	1.597550e+00	-4.923388e+01
1.900000e-06	2.599026e-07	-6.684913e-10	1.923036e+00	-4.423919e+01
1.910000e-06	3.039212e-07	-5.936289e-10	2.248732e+00	-3.918020e+01
1.920000e-06	3.479718e-07	-5.143576e-10	2.574666e+00	-3.406323e+01
1.930000e-06	3.919800e-07	-4.325263e-10	2.900285e+00	-2.889488e+01
1.940000e-06	4.359737e-07	-3.507680e-10	3.225797e+00	-2.368204e+01
1.950000e-06	4.799416e-07	-2.693634e-10	3.551118e+00	-1.843181e+01
1.960000e-06	5.238356e-07	-1.854091e-10	3.875893e+00	-1.315148e+01
1.970000e-06	5.676891e-07	-1.013444e-10	4.200368e+00	-7.848485e+00
1.980000e-06	6.115272e-07	-1.579307e-11	4.524729e+00	-2.530369e+00
1.990000e-06	6.553083e-07	6.814456e-11	4.848668e+00	2.795259e+00
2.000000e-06	6.990796e-07	1.502441e-10	5.172535e+00	8.120768e+00
2.010000e-06	7.428847e-07	2.340164e-10	5.496652e+00	1.343855e+01
2.020000e-06	7.866538e-07	3.182235e-10	5.820502e+00	1.874104e+01
2.030000e-06	8.304219e-07	4.003218e-10	6.144345e+00	2.402079e+01
2.040000e-06	8.742274e-07	4.812798e-10	6.468465e+00	2.927050e+01
2.050000e-06	9.179581e-07	5.637609e-10	6.792031e+00	3.448302e+01
2.060000e-06	9.616150e-07	6.475299e-10	7.115051e+00	3.965143e+01
2.070000e-06	1.005256e-06	7.293385e-10	7.437956e+00	4.476907e+01
2.080000e-06	1.048844e-06	8.072239e-10	7.760462e+00	4.982954e+01
2.090000e-06	1.092338e-06	8.837220e-10	8.082283e+00	5.482677e+01
2.100000e-06	1.135710e-06	9.592682e-10	8.403193e+00	5.975501e+01
2.110000e-06	1.179001e-06	1.033141e-09	8.723506e+00	6.460887e+01
2.120000e-06	1.222217e-06	1.105532e-09	9.043263e+00	6.938338e+01
2.130000e-06	1.265284e-06	1.179015e-09	9.361916e+00	7.407393e+01
2.140000e-06	1.308162e-06	1.248762e-09	9.679171e+00	7.867634e+01
2.150000e-06	1.350895e-06	1.314221e-09	9.995362e+00	8.318688e+01
2.160000e-06	1.393542e-06	1.376543e-09	1.031090e+01	8.760224e+01
2.170000e-06	1.436093e-06	1.437673e-09	1.062575e+01	9.191956e+01
2.180000e-06	1.478530e-06	1.495854e-09	1.093974e+01	9.613641e+01
2.190000e-06	1.520804e-06	1.551993e-09	1.125253e+01	1.002508e+02
2.200000e-06	1.562807e-06	1.606228e-09	1.156331e+01	1.042613e+02
2.210000e-06	1.604535e-06	1.659928e-09	1.187206e+01	1.081667e+02
2.220000e-06	1.646159e-06	1.711946e-09	1.218004e+01	1.119664e+02
2.230000e-06	1.687593e-06	1.763261e-09	1.248661e+01	1.156602e+02
2.240000e-06	1.728710e-06	1.812795e-09	1.279084e+01	1.192481e+02
2.250000e-06	1.769716e-06	1.860317e-09	1.309424e+01	1.227307e+02
2.260000e-06	1.810532e-06	1.906353e-09	1.339624e+01	1.261090e+02
2.270000e-06	1.851082e-06	1.950805e-09	1.369627e+01	1.293840e+02
2.280000e-06	1.891491e-06	1.992805e-09	1.399526e+01	1.325575e+02
2.290000e-06	1.931761e-06	2.033612e-09	1.429322e+01	1.356311e+02
2.300000e-06	1.971910e-06	2.075427e-09	1.459029e+01	1.386071e+02
2.310000e-06	2.011933e-06	2.114730e-09	1.488642e+01	1.414877e+02
2.320000e-06	2.051820e-06	2.150759e-09	1.518155e+01	1.442756e+02
2.330000e-06	2.091645e-06	2.186119e-09	1.547621e+01	1.469735e+02
2.340000e-06	2.131429e-06	2.223520e-09	1.577058e+01	1.495842e+02
2.350000e-06	2.171159e-06	2.259723e-09	1.606455e+01	1.521109e+02
2.360000e-06	2.210776e-06	2.293319e-09	1.635767e+01	1.545567e+02
2.370000e-06	2.250260e-06	2.325989e-09	1.664982e+01	1.569248e+02
2.380000e-06	2.289689e-06	2.358930e-09	1.694156e+01	1.592184e+02
2.390000e-06	2.328993e-06	2.390963e-09	1.723237e+01	1.614410e+02
2.400000e-06	2.368087e-06	2.420507e-09	1.752163e+01	1.635957e+02
2.410000e-06	2.406959e-06	2.447564e-09	1.780924e+01	1.656859e+02
2.420000e-06	2.445587e-06	2.475670e-09	1.809505e+01	1.677148e+02
2.430000e-06	2.484030e-06	2.506444e-09	1.837950e+01	1.696856e+02
2.440000e-06	2.522335e-06	2.538091e-09	1.866292e+01	1.716013e+02
2.450000e-06	2.560517e-06	2.567953e-09	1.894543e+01	1.734650e+02
2.460000e-06	2.598508e-06	2.596658e-09	1.922653e+01	1.752796e+02
2.470000e-06	2.636299e-06	2.624250e-09	1.950615e+01	1.770479e+02
2.480000e-06	2.674010e-06	2.650533e-09	1.978517e+01	1.787724e+02
2.490000e-06	2.711561e-06	2.675343e-09	2.006301e+01	1.804557e+02
2.500000e-06	2.748904e-06	2.700345e-09	2.033932e+01	1.821001e+02
2.510000e-06	2.786100e-06	2.727890e-09	2.061453e+01	1.837077e+02
2.520000e-06	2.823065e-06	2.753819e-09	2.088804e+01	1.852807e+02
2.530000e-06	2.859783e-06	2.776560e-09	2.115972e+01	1.868209e+02
2.540000e-06	2.896260e-06	2.799190e-09	2.142961e+01	1.883300e+02
2.550000e-06	2.932515e-06	2.822526e-09	2.169787e+01	1.898095e+02
2.560000e-06	2.968682e-06	2.846706e-09	2.196547e+01	1.912609e+02
2.570000e-06	3.004704e-06	2.868290e-09	2.223200e+01	1.926853e+02
2.580000e-06	3.040588e-06	2.886319e-09	2.249751e+01	1.940839e+02
2.590000e-06	3.076346e-06	2.905281e-09	2.276208e+01	1.954576e+02
2.600000e-06	3.111992e-06	2.927811e-09	2.302583e+01	1.968072e+02
2.610000e-06	3.147508e-06	2.950133e-09	2.328862e+01	1.981335e+02
2.620000e-06	3.182786e-06	2.968048e-09	2.354963e+01	1.994370e+02
2.630000e-06	3.217823e-06	2.985016e-09	2.380888e+01	2.007183e+02
2.640000e-06	3.252565e-06	3.005405e-09	2.406594e+01	2.019776e+02
2.650000e-06	3.286955e-06	3.028330e-09	2.432039e+01	2.032152e+02
2.660000e-06	3.320937e-06	3.048760e-09	2.457182e+01	2.044315e+02
2.670000e-06	3.354610e-06	3.064920e-09	2.482097e+01	2.056266e+02
2.680000e-06	3.387885e-06	3.081020e-09	2.506718e+01	2.068004e+02
2.690000e-06	3.420604e-06	3.098850e-09	2.530927e+01	2.079533e+02
2.700000e-06	3.452981e-06	3.116030e-09	2.554883e+01	2.090850e+02
2.710000e-06	3.485187e-06	3.130805e-09	2.578712e+01	2.101956e+02
2.720000e-06	3.517253e-06	3.144858e-09	2.602438e+01	2.112852e+02
2.730000e-06	3.549167e-06	3.160111e-09	2.626051e+01	2.123536e+02
2.740000e-06	3.580917e-06	3.176062e-09	2.649544e+01	2.134008e+02
2.750000e-06	3.612591e-06	3.190910e-09	2.672979e+01	2.144268e+02
2.760000e-06	3.644094e-06	3.204400e-09	2.696289e+01	2.154316e+02
2.770000e-06	3.675273e-06	3.218910e-09	2.719358e+01	2.164151e+02
2.780000e-06	3.706131e-06	3.233121e-09	2.742190e+01	2.173774e+02
2.790000e-06	3.736748e-06	3.246262e-09	2.764844e+01	2.183184e+02
2.800000e-06	3.767056e-06	3.259896e-09	2.787269e+01	2.192382e+02
2.810000e-06	3.797038e-06	3.273820e-09	2.809453e+01	2.201370e+02
2.820000e-06	3.826863e-06	3.286291e-09	2.831520e+01	2.210148e+02
2.830000e-06	3.856444e-06	3.298157e-09	2.853408e+01	2.218718e+02
2.840000e-06	3.885731e-06	3.311942e-09	2.875077e+01	2.227081e+02
2.850000e-06	3.914775e-06	3.325657e-09	2.896567e+01	2.235239e+02
2.860000e-06	3.943623e-06	3.336253e-09	2.917912e+01	2.243196e+02
2.870000e-06	3.972244e-06	3.346689e-09	2.939088e+01	2.250953e+02
2.880000e-06	4.000499e-06	3.360146e-09	2.959995e+01	2.258513e+02
2.890000e-06	4.028490e-06	3.373436e-09	2.980706e+01	2.265880e+02
2.900000e-06	4.056359e-06	3.384145e-09	3.001326e+01	2.273057e+02
