# Temperatura_=_20.0
# Concentracion g/m^3_=_9000.0
# C_Vs_to_Am_M_A/Vsm_=_65563218390.804596
# pendiente_HvsI_1/m_=_3716.3
# ordenada_HvsI_A/m_=_1297.0
# frecuencia_Hz_=_135116.1634500398

Tiempo_(s)	Campo_(V.s)	Magnetizacion_(V.s)	Campo_(kA/m)	Magnetizacion_(A/m)
0.000000e+00	-5.201453e-06	-3.754857e-09	-3.836663e+01	-2.472518e+02
1.000000e-08	-5.201489e-06	-3.752290e-09	-3.836690e+01	-2.472525e+02
2.000000e-08	-5.201316e-06	-3.751386e-09	-3.836562e+01	-2.472558e+02
3.000000e-08	-5.200792e-06	-3.754189e-09	-3.836175e+01	-2.472625e+02
4.000000e-08	-5.199887e-06	-3.756644e-09	-3.835508e+01	-2.472734e+02
5.000000e-08	-5.198438e-06	-3.756574e-09	-3.834439e+01	-2.472892e+02
6.000000e-08	-5.196320e-06	-3.752504e-09	-3.832877e+01	-2.473107e+02
7.000000e-08	-5.193670e-06	-3.741918e-09	-3.830922e+01	-2.473387e+02
8.000000e-08	-5.190542e-06	-3.761521e-09	-3.828615e+01	-2.473740e+02
9.000000e-08	-5.186986e-06	-3.828055e-09	-3.825992e+01	-2.474171e+02
1.000000e-07	-5.182994e-06	-3.835303e-09	-3.823047e+01	-2.474687e+02
1.100000e-07	-5.178713e-06	-3.699148e-09	-3.819890e+01	-2.475295e+02
1.200000e-07	-5.174374e-06	-3.621524e-09	-3.816690e+01	-2.475999e+02
1.300000e-07	-5.169781e-06	-3.729072e-09	-3.813302e+01	-2.476806e+02
1.400000e-07	-5.164664e-06	-3.875545e-09	-3.809527e+01	-2.477719e+02
1.500000e-07	-5.159218e-06	-3.848120e-09	-3.805510e+01	-2.478742e+02
1.600000e-07	-5.153555e-06	-3.733444e-09	-3.801333e+01	-2.479878e+02
1.700000e-07	-5.147530e-06	-3.747701e-09	-3.796889e+01	-2.481128e+02
1.800000e-07	-5.141146e-06	-3.839887e-09	-3.792180e+01	-2.482494e+02
1.900000e-07	-5.134395e-06	-3.890479e-09	-3.787201e+01	-2.483977e+02
2.000000e-07	-5.127248e-06	-3.843433e-09	-3.781929e+01	-2.485575e+02
2.100000e-07	-5.119711e-06	-3.774214e-09	-3.776369e+01	-2.487286e+02
2.200000e-07	-5.111918e-06	-3.759327e-09	-3.770621e+01	-2.489108e+02
2.300000e-07	-5.103978e-06	-3.813354e-09	-3.764764e+01	-2.491036e+02
2.400000e-07	-5.095691e-06	-3.785237e-09	-3.758652e+01	-2.493066e+02
2.500000e-07	-5.086780e-06	-3.635143e-09	-3.752079e+01	-2.495191e+02
2.600000e-07	-5.077297e-06	-3.605379e-09	-3.745084e+01	-2.497405e+02
2.700000e-07	-5.067452e-06	-3.792153e-09	-3.737822e+01	-2.499698e+02
2.800000e-07	-5.057130e-06	-3.875373e-09	-3.730208e+01	-2.502061e+02
2.900000e-07	-5.046181e-06	-3.682866e-09	-3.722133e+01	-2.504483e+02
3.000000e-07	-5.034772e-06	-3.595095e-09	-3.713717e+01	-2.506954e+02
3.100000e-07	-5.023083e-06	-3.815059e-09	-3.705095e+01	-2.509460e+02
3.200000e-07	-5.011073e-06	-3.954080e-09	-3.696236e+01	-2.511988e+02
3.300000e-07	-4.998690e-06	-3.817904e-09	-3.687102e+01	-2.514523e+02
3.400000e-07	-4.985907e-06	-3.725719e-09	-3.677673e+01	-2.517051e+02
3.500000e-07	-4.972765e-06	-3.806302e-09	-3.667980e+01	-2.519555e+02
3.600000e-07	-4.959223e-06	-3.863351e-09	-3.657991e+01	-2.522019e+02
3.700000e-07	-4.945364e-06	-3.865110e-09	-3.647768e+01	-2.524427e+02
3.800000e-07	-4.931147e-06	-3.840594e-09	-3.637282e+01	-2.526760e+02
3.900000e-07	-4.916165e-06	-3.748335e-09	-3.626231e+01	-2.529001e+02
4.000000e-07	-4.900631e-06	-3.745448e-09	-3.614773e+01	-2.531133e+02
4.100000e-07	-4.884778e-06	-3.892071e-09	-3.603079e+01	-2.533138e+02
4.200000e-07	-4.868380e-06	-3.919447e-09	-3.590984e+01	-2.534998e+02
4.300000e-07	-4.851524e-06	-3.768159e-09	-3.578551e+01	-2.536695e+02
4.400000e-07	-4.834487e-06	-3.800325e-09	-3.565984e+01	-2.538214e+02
4.500000e-07	-4.817203e-06	-4.000186e-09	-3.553235e+01	-2.539536e+02
4.600000e-07	-4.799581e-06	-3.981789e-09	-3.540237e+01	-2.540646e+02
4.700000e-07	-4.781727e-06	-3.822905e-09	-3.527068e+01	-2.541530e+02
4.800000e-07	-4.763602e-06	-3.875246e-09	-3.513698e+01	-2.542172e+02
4.900000e-07	-4.745070e-06	-4.006295e-09	-3.500029e+01	-2.542560e+02
5.000000e-07	-4.726106e-06	-3.955411e-09	-3.486041e+01	-2.542682e+02
5.100000e-07	-4.706719e-06	-3.867285e-09	-3.471740e+01	-2.542526e+02
5.200000e-07	-4.687045e-06	-3.889873e-09	-3.457229e+01	-2.542083e+02
5.300000e-07	-4.667260e-06	-3.917515e-09	-3.442635e+01	-2.541345e+02
5.400000e-07	-4.647348e-06	-3.911881e-09	-3.427948e+01	-2.540306e+02
5.500000e-07	-4.627216e-06	-3.922683e-09	-3.413098e+01	-2.538960e+02
5.600000e-07	-4.606703e-06	-3.896079e-09	-3.397967e+01	-2.537304e+02
5.700000e-07	-4.585829e-06	-3.849774e-09	-3.382570e+01	-2.535336e+02
5.800000e-07	-4.564719e-06	-3.887336e-09	-3.366999e+01	-2.533055e+02
5.900000e-07	-4.543330e-06	-3.936728e-09	-3.351223e+01	-2.530463e+02
6.000000e-07	-4.521642e-06	-3.866729e-09	-3.335225e+01	-2.527564e+02
6.100000e-07	-4.499629e-06	-3.799459e-09	-3.318988e+01	-2.524362e+02
6.200000e-07	-4.477319e-06	-3.859115e-09	-3.302532e+01	-2.520862e+02
6.300000e-07	-4.454670e-06	-3.909222e-09	-3.285826e+01	-2.517074e+02
6.400000e-07	-4.431574e-06	-3.840713e-09	-3.268789e+01	-2.513006e+02
6.500000e-07	-4.408123e-06	-3.793514e-09	-3.251492e+01	-2.508669e+02
6.600000e-07	-4.384458e-06	-3.835355e-09	-3.234036e+01	-2.504075e+02
6.700000e-07	-4.360617e-06	-3.852819e-09	-3.216451e+01	-2.499237e+02
6.800000e-07	-4.336614e-06	-3.812708e-09	-3.198746e+01	-2.494168e+02
6.900000e-07	-4.312356e-06	-3.789440e-09	-3.180853e+01	-2.488885e+02
7.000000e-07	-4.287737e-06	-3.790678e-09	-3.162694e+01	-2.483402e+02
7.100000e-07	-4.262707e-06	-3.791023e-09	-3.144231e+01	-2.477737e+02
7.200000e-07	-4.237297e-06	-3.789060e-09	-3.125489e+01	-2.471905e+02
7.300000e-07	-4.211483e-06	-3.772964e-09	-3.106447e+01	-2.465925e+02
7.400000e-07	-4.185081e-06	-3.747886e-09	-3.086974e+01	-2.459812e+02
7.500000e-07	-4.158106e-06	-3.746093e-09	-3.067076e+01	-2.453585e+02
7.600000e-07	-4.130791e-06	-3.758538e-09	-3.046928e+01	-2.447261e+02
7.700000e-07	-4.103311e-06	-3.742905e-09	-3.026658e+01	-2.440855e+02
7.800000e-07	-4.075606e-06	-3.704927e-09	-3.006223e+01	-2.434384e+02
7.900000e-07	-4.047691e-06	-3.691229e-09	-2.985633e+01	-2.427863e+02
8.000000e-07	-4.019605e-06	-3.707523e-09	-2.964916e+01	-2.421307e+02
8.100000e-07	-3.991309e-06	-3.702790e-09	-2.944044e+01	-2.414728e+02
8.200000e-07	-3.962771e-06	-3.666159e-09	-2.922994e+01	-2.408139e+02
8.300000e-07	-3.933847e-06	-3.652944e-09	-2.901660e+01	-2.401551e+02
8.400000e-07	-3.904565e-06	-3.674415e-09	-2.880061e+01	-2.394974e+02
8.500000e-07	-3.875120e-06	-3.671410e-09	-2.858341e+01	-2.388414e+02
8.600000e-07	-3.845484e-06	-3.637060e-09	-2.836482e+01	-2.381880e+02
8.700000e-07	-3.815668e-06	-3.619558e-09	-2.814489e+01	-2.375374e+02
8.800000e-07	-3.785684e-06	-3.623439e-09	-2.792373e+01	-2.368902e+02
8.900000e-07	-3.755392e-06	-3.616716e-09	-2.770029e+01	-2.362463e+02
9.000000e-07	-3.724758e-06	-3.598625e-09	-2.747433e+01	-2.356058e+02
9.100000e-07	-3.693843e-06	-3.581336e-09	-2.724629e+01	-2.349684e+02
9.200000e-07	-3.662669e-06	-3.569660e-09	-2.701635e+01	-2.343338e+02
9.300000e-07	-3.631208e-06	-3.567045e-09	-2.678429e+01	-2.337014e+02
9.400000e-07	-3.599525e-06	-3.564081e-09	-2.655059e+01	-2.330704e+02
9.500000e-07	-3.567756e-06	-3.544283e-09	-2.631626e+01	-2.324401e+02
9.600000e-07	-3.535915e-06	-3.520857e-09	-2.608139e+01	-2.318094e+02
9.700000e-07	-3.503898e-06	-3.516730e-09	-2.584524e+01	-2.311771e+02
9.800000e-07	-3.471659e-06	-3.517890e-09	-2.560743e+01	-2.305421e+02
9.900000e-07	-3.439184e-06	-3.499464e-09	-2.536789e+01	-2.299028e+02
1.000000e-06	-3.406429e-06	-3.474476e-09	-2.512629e+01	-2.292579e+02
1.010000e-06	-3.373284e-06	-3.464956e-09	-2.488181e+01	-2.286058e+02
1.020000e-06	-3.339619e-06	-3.462317e-09	-2.463349e+01	-2.279449e+02
1.030000e-06	-3.305544e-06	-3.447713e-09	-2.438215e+01	-2.272735e+02
1.040000e-06	-3.271116e-06	-3.426623e-09	-2.412820e+01	-2.265900e+02
1.050000e-06	-3.236288e-06	-3.414313e-09	-2.387131e+01	-2.258926e+02
1.060000e-06	-3.201153e-06	-3.409231e-09	-2.361214e+01	-2.251796e+02
1.070000e-06	-3.165748e-06	-3.400334e-09	-2.335099e+01	-2.244495e+02
1.080000e-06	-3.130184e-06	-3.383539e-09	-2.308867e+01	-2.237006e+02
1.090000e-06	-3.094541e-06	-3.365801e-09	-2.282576e+01	-2.229313e+02
1.100000e-06	-3.058767e-06	-3.352400e-09	-2.256189e+01	-2.221403e+02
1.110000e-06	-3.022864e-06	-3.341454e-09	-2.229706e+01	-2.213260e+02
1.120000e-06	-2.986825e-06	-3.327648e-09	-2.203123e+01	-2.204872e+02
1.130000e-06	-2.950621e-06	-3.308756e-09	-2.176418e+01	-2.196228e+02
1.140000e-06	-2.914239e-06	-3.290598e-09	-2.149583e+01	-2.187317e+02
1.150000e-06	-2.877679e-06	-3.278253e-09	-2.122615e+01	-2.178131e+02
1.160000e-06	-2.840930e-06	-3.266632e-09	-2.095509e+01	-2.168661e+02
1.170000e-06	-2.803915e-06	-3.249773e-09	-2.068206e+01	-2.158902e+02
1.180000e-06	-2.766553e-06	-3.230473e-09	-2.040648e+01	-2.148850e+02
1.190000e-06	-2.729015e-06	-3.215025e-09	-2.012959e+01	-2.138501e+02
1.200000e-06	-2.691420e-06	-3.199723e-09	-1.985228e+01	-2.127855e+02
1.210000e-06	-2.653658e-06	-3.179850e-09	-1.957375e+01	-2.116912e+02
1.220000e-06	-2.615646e-06	-3.157445e-09	-1.929336e+01	-2.105673e+02
1.230000e-06	-2.577408e-06	-3.139977e-09	-1.901132e+01	-2.094142e+02
1.240000e-06	-2.538986e-06	-3.125225e-09	-1.872791e+01	-2.082322e+02
1.250000e-06	-2.500385e-06	-3.106397e-09	-1.844319e+01	-2.070221e+02
1.260000e-06	-2.461640e-06	-3.087572e-09	-1.815740e+01	-2.057843e+02
1.270000e-06	-2.422671e-06	-3.069605e-09	-1.786996e+01	-2.045199e+02
1.280000e-06	-2.383519e-06	-3.050770e-09	-1.758116e+01	-2.032294e+02
1.290000e-06	-2.344221e-06	-3.032972e-09	-1.729130e+01	-2.019140e+02
1.300000e-06	-2.304791e-06	-3.015018e-09	-1.700046e+01	-2.005745e+02
1.310000e-06	-2.265262e-06	-2.992965e-09	-1.670888e+01	-1.992119e+02
1.320000e-06	-2.225544e-06	-2.971263e-09	-1.641592e+01	-1.978272e+02
1.330000e-06	-2.185712e-06	-2.953333e-09	-1.612211e+01	-1.964214e+02
1.340000e-06	-2.145850e-06	-2.933557e-09	-1.582809e+01	-1.949952e+02
1.350000e-06	-2.105915e-06	-2.912041e-09	-1.553352e+01	-1.935497e+02
1.360000e-06	-2.065912e-06	-2.892318e-09	-1.523845e+01	-1.920855e+02
1.370000e-06	-2.025844e-06	-2.871757e-09	-1.494291e+01	-1.906032e+02
1.380000e-06	-1.985620e-06	-2.848834e-09	-1.464621e+01	-1.891034e+02
1.390000e-06	-1.945279e-06	-2.826173e-09	-1.434864e+01	-1.875865e+02
1.400000e-06	-1.904825e-06	-2.804797e-09	-1.405025e+01	-1.860525e+02
1.410000e-06	-1.864211e-06	-2.781650e-09	-1.375068e+01	-1.845016e+02
1.420000e-06	-1.823412e-06	-2.757593e-09	-1.344974e+01	-1.829335e+02
1.430000e-06	-1.782412e-06	-2.732086e-09	-1.314732e+01	-1.813478e+02
1.440000e-06	-1.741199e-06	-2.705173e-09	-1.284332e+01	-1.797439e+02
1.450000e-06	-1.699681e-06	-2.678690e-09	-1.253708e+01	-1.781207e+02
1.460000e-06	-1.657978e-06	-2.652036e-09	-1.222947e+01	-1.764773e+02
1.470000e-06	-1.616163e-06	-2.625582e-09	-1.192104e+01	-1.748121e+02
1.480000e-06	-1.574118e-06	-2.598810e-09	-1.161091e+01	-1.731235e+02
1.490000e-06	-1.531894e-06	-2.571942e-09	-1.129946e+01	-1.714097e+02
1.500000e-06	-1.489480e-06	-2.544483e-09	-1.098661e+01	-1.696683e+02
1.510000e-06	-1.446836e-06	-2.516531e-09	-1.067206e+01	-1.678970e+02
1.520000e-06	-1.404014e-06	-2.490213e-09	-1.035620e+01	-1.660931e+02
1.530000e-06	-1.361033e-06	-2.464496e-09	-1.003916e+01	-1.642537e+02
1.540000e-06	-1.317987e-06	-2.437777e-09	-9.721652e+00	-1.623758e+02
1.550000e-06	-1.274846e-06	-2.409561e-09	-9.403438e+00	-1.604559e+02
1.560000e-06	-1.231578e-06	-2.375513e-09	-9.084290e+00	-1.584906e+02
1.570000e-06	-1.188252e-06	-2.339684e-09	-8.764707e+00	-1.564762e+02
1.580000e-06	-1.144805e-06	-2.305957e-09	-8.444240e+00	-1.544090e+02
1.590000e-06	-1.101229e-06	-2.274577e-09	-8.122818e+00	-1.522851e+02
1.600000e-06	-1.057626e-06	-2.241856e-09	-7.801191e+00	-1.501004e+02
1.610000e-06	-1.013959e-06	-2.205058e-09	-7.479104e+00	-1.478511e+02
1.620000e-06	-9.702047e-07	-2.166124e-09	-7.156363e+00	-1.455330e+02
1.630000e-06	-9.264253e-07	-2.128050e-09	-6.833440e+00	-1.431421e+02
1.640000e-06	-8.826307e-07	-2.091611e-09	-6.510405e+00	-1.406746e+02
1.650000e-06	-8.388386e-07	-2.052350e-09	-6.187389e+00	-1.381264e+02
1.660000e-06	-7.950388e-07	-2.011072e-09	-5.864316e+00	-1.354939e+02
1.670000e-06	-7.511979e-07	-1.974058e-09	-5.540939e+00	-1.327734e+02
1.680000e-06	-7.073273e-07	-1.937378e-09	-5.217343e+00	-1.299616e+02
1.690000e-06	-6.634692e-07	-1.894217e-09	-4.893840e+00	-1.270552e+02
1.700000e-06	-6.195389e-07	-1.849253e-09	-4.569804e+00	-1.240513e+02
1.710000e-06	-5.754995e-07	-1.805862e-09	-4.244963e+00	-1.209474e+02
1.720000e-06	-5.314554e-07	-1.760988e-09	-3.920088e+00	-1.177410e+02
1.730000e-06	-4.874358e-07	-1.712519e-09	-3.595394e+00	-1.144302e+02
1.740000e-06	-4.434276e-07	-1.662573e-09	-3.270783e+00	-1.110135e+02
1.750000e-06	-3.994085e-07	-1.611544e-09	-2.946092e+00	-1.074896e+02
1.760000e-06	-3.553870e-07	-1.560275e-09	-2.621383e+00	-1.038577e+02
1.770000e-06	-3.113533e-07	-1.508014e-09	-2.296585e+00	-1.001175e+02
1.780000e-06	-2.672688e-07	-1.453178e-09	-1.971412e+00	-9.626925e+01
1.790000e-06	-2.231915e-07	-1.395923e-09	-1.646291e+00	-9.231341e+01
1.800000e-06	-1.791597e-07	-1.339389e-09	-1.321506e+00	-8.825109e+01
1.810000e-06	-1.350905e-07	-1.282192e-09	-9.964457e-01	-8.408385e+01
1.820000e-06	-9.095783e-08	-1.221891e-09	-6.709174e-01	-7.981375e+01
1.830000e-06	-4.683346e-08	-1.158833e-09	-3.454500e-01	-7.544332e+01
1.840000e-06	-2.722779e-09	-1.092482e-09	-2.008359e-02	-7.097556e+01
1.850000e-06	4.138158e-08	-1.024622e-09	3.052362e-01	-6.641398e+01
1.860000e-06	8.551312e-08	-9.568872e-10	6.307565e-01	-6.176253e+01
1.870000e-06	1.296673e-07	-8.858835e-10	9.564435e-01	-5.702561e+01
1.880000e-06	1.737943e-07	-8.119762e-10	1.281930e+00	-5.220804e+01
1.890000e-06	2.179087e-07	-7.382445e-10	1.607324e+00	-4.731506e+01
1.900000e-06	2.619655e-07	-6.643391e-10	1.932293e+00	-4.235230e+01
1.910000e-06	3.059739e-07	-5.876970e-10	2.256906e+00	-3.732573e+01
1.920000e-06	3.499688e-07	-5.073446e-10	2.581418e+00	-3.224166e+01
1.930000e-06	3.939181e-07	-4.243933e-10	2.905594e+00	-2.710667e+01
1.940000e-06	4.378986e-07	-3.412741e-10	3.230001e+00	-2.192763e+01
1.950000e-06	4.819426e-07	-2.597853e-10	3.554875e+00	-1.671162e+01
1.960000e-06	5.259349e-07	-1.781161e-10	3.879368e+00	-1.146588e+01
1.970000e-06	5.698603e-07	-9.623157e-11	4.203368e+00	-6.197843e+00
1.980000e-06	6.137988e-07	-1.271752e-11	4.527464e+00	-9.150086e-01
1.990000e-06	6.577410e-07	7.151303e-11	4.851588e+00	4.375043e+00
2.000000e-06	7.016607e-07	1.550774e-10	5.175545e+00	9.664711e+00
2.010000e-06	7.455427e-07	2.396754e-10	5.499225e+00	1.494641e+01
2.020000e-06	7.893736e-07	3.237763e-10	5.822528e+00	2.021262e+01
2.030000e-06	8.331629e-07	4.067855e-10	6.145524e+00	2.545590e+01
2.040000e-06	8.769240e-07	4.886987e-10	6.468312e+00	3.066898e+01
2.050000e-06	9.206489e-07	5.689506e-10	6.790833e+00	3.584473e+01
2.060000e-06	9.643214e-07	6.489093e-10	7.112967e+00	4.097626e+01
2.070000e-06	1.007999e-06	7.285128e-10	7.435142e+00	4.605690e+01
2.080000e-06	1.051678e-06	8.102382e-10	7.757319e+00	5.108028e+01
2.090000e-06	1.095262e-06	8.910572e-10	8.078802e+00	5.604032e+01
2.100000e-06	1.138794e-06	9.660004e-10	8.399904e+00	6.093130e+01
2.110000e-06	1.182292e-06	1.038611e-09	8.720750e+00	6.574783e+01
2.120000e-06	1.225790e-06	1.112657e-09	9.041594e+00	7.048492e+01
2.130000e-06	1.269174e-06	1.182560e-09	9.361600e+00	7.513799e+01
2.140000e-06	1.312312e-06	1.245944e-09	9.679794e+00	7.970286e+01
2.150000e-06	1.355363e-06	1.308115e-09	9.997345e+00	8.417578e+01
2.160000e-06	1.398394e-06	1.370839e-09	1.031475e+01	8.855345e+01
2.170000e-06	1.441282e-06	1.432389e-09	1.063110e+01	9.283302e+01
2.180000e-06	1.483932e-06	1.491324e-09	1.094569e+01	9.701207e+01
2.190000e-06	1.526401e-06	1.547409e-09	1.125894e+01	1.010886e+02
2.200000e-06	1.568672e-06	1.601361e-09	1.157074e+01	1.050612e+02
2.210000e-06	1.610745e-06	1.655725e-09	1.188108e+01	1.089287e+02
2.220000e-06	1.652602e-06	1.707605e-09	1.218982e+01	1.126905e+02
2.230000e-06	1.694141e-06	1.755171e-09	1.249622e+01	1.163463e+02
2.240000e-06	1.735373e-06	1.801309e-09	1.280035e+01	1.198964e+02
2.250000e-06	1.776453e-06	1.846898e-09	1.310336e+01	1.233412e+02
2.260000e-06	1.817390e-06	1.893551e-09	1.340532e+01	1.266817e+02
2.270000e-06	1.858157e-06	1.938642e-09	1.370602e+01	1.299192e+02
2.280000e-06	1.898675e-06	1.980879e-09	1.400489e+01	1.330553e+02
2.290000e-06	1.939050e-06	2.022110e-09	1.430270e+01	1.360918e+02
2.300000e-06	1.979388e-06	2.063314e-09	1.460024e+01	1.390309e+02
2.310000e-06	2.019591e-06	2.102886e-09	1.489678e+01	1.418751e+02
2.320000e-06	2.059705e-06	2.139910e-09	1.519267e+01	1.446268e+02
2.330000e-06	2.099749e-06	2.174936e-09	1.548804e+01	1.472891e+02
2.340000e-06	2.139707e-06	2.210535e-09	1.578278e+01	1.498648e+02
2.350000e-06	2.179584e-06	2.245107e-09	1.607691e+01	1.523570e+02
2.360000e-06	2.219385e-06	2.279389e-09	1.637049e+01	1.547690e+02
2.370000e-06	2.259083e-06	2.312592e-09	1.666331e+01	1.571040e+02
2.380000e-06	2.298661e-06	2.345586e-09	1.695524e+01	1.593653e+02
2.390000e-06	2.338071e-06	2.380074e-09	1.724594e+01	1.615564e+02
2.400000e-06	2.377290e-06	2.411889e-09	1.753522e+01	1.636805e+02
2.410000e-06	2.416317e-06	2.441723e-09	1.782308e+01	1.657411e+02
2.420000e-06	2.455155e-06	2.471963e-09	1.810956e+01	1.677413e+02
2.430000e-06	2.493808e-06	2.503424e-09	1.839467e+01	1.696843e+02
2.440000e-06	2.532325e-06	2.532493e-09	1.867878e+01	1.715734e+02
2.450000e-06	2.570649e-06	2.558647e-09	1.896146e+01	1.734115e+02
2.460000e-06	2.608727e-06	2.586921e-09	1.924233e+01	1.752014e+02
2.470000e-06	2.646612e-06	2.617334e-09	1.952178e+01	1.769460e+02
2.480000e-06	2.684319e-06	2.645140e-09	1.979990e+01	1.786479e+02
2.490000e-06	2.721882e-06	2.670696e-09	2.007698e+01	1.803095e+02
2.500000e-06	2.759313e-06	2.697512e-09	2.035307e+01	1.819330e+02
2.510000e-06	2.796562e-06	2.726158e-09	2.062783e+01	1.835207e+02
2.520000e-06	2.833576e-06	2.751436e-09	2.090084e+01	1.850745e+02
2.530000e-06	2.870405e-06	2.774314e-09	2.117250e+01	1.865961e+02
2.540000e-06	2.907039e-06	2.795915e-09	2.144272e+01	1.880871e+02
2.550000e-06	2.943392e-06	2.818708e-09	2.171086e+01	1.895490e+02
2.560000e-06	2.979539e-06	2.841701e-09	2.197749e+01	1.909831e+02
2.570000e-06	3.015556e-06	2.863340e-09	2.224316e+01	1.923904e+02
2.580000e-06	3.051499e-06	2.882107e-09	2.250827e+01	1.937718e+02
2.590000e-06	3.087330e-06	2.900168e-09	2.277257e+01	1.951283e+02
2.600000e-06	3.123012e-06	2.922230e-09	2.303577e+01	1.964604e+02
2.610000e-06	3.158592e-06	2.946129e-09	2.329821e+01	1.977688e+02
2.620000e-06	3.194049e-06	2.966973e-09	2.355975e+01	1.990537e+02
2.630000e-06	3.229298e-06	2.981593e-09	2.381974e+01	2.003155e+02
2.640000e-06	3.264202e-06	2.997472e-09	2.407721e+01	2.015545e+02
2.650000e-06	3.298682e-06	3.017942e-09	2.433153e+01	2.027707e+02
2.660000e-06	3.332698e-06	3.039435e-09	2.458244e+01	2.039642e+02
2.670000e-06	3.366330e-06	3.057269e-09	2.483051e+01	2.051351e+02
2.680000e-06	3.399628e-06	3.072269e-09	2.507612e+01	2.062833e+02
2.690000e-06	3.432575e-06	3.087048e-09	2.531915e+01	2.074086e+02
2.700000e-06	3.465153e-06	3.104683e-09	2.555944e+01	2.085112e+02
2.710000e-06	3.497426e-06	3.122290e-09	2.579749e+01	2.095907e+02
2.720000e-06	3.529480e-06	3.135087e-09	2.603393e+01	2.106471e+02
2.730000e-06	3.561380e-06	3.146427e-09	2.626923e+01	2.116804e+02
2.740000e-06	3.593211e-06	3.160784e-09	2.650402e+01	2.126904e+02
2.750000e-06	3.624913e-06	3.176175e-09	2.673786e+01	2.136771e+02
2.760000e-06	3.656420e-06	3.189461e-09	2.697025e+01	2.146404e+02
2.770000e-06	3.687662e-06	3.201866e-09	2.720070e+01	2.155805e+02
2.780000e-06	3.718595e-06	3.216658e-09	2.742887e+01	2.164972e+02
2.790000e-06	3.749241e-06	3.233304e-09	2.765491e+01	2.173909e+02
2.800000e-06	3.779572e-06	3.248576e-09	2.787864e+01	2.182616e+02
2.810000e-06	3.809615e-06	3.261203e-09	2.810024e+01	2.191095e+02
2.820000e-06	3.839460e-06	3.273526e-09	2.832038e+01	2.199349e+02
2.830000e-06	3.869068e-06	3.287728e-09	2.853878e+01	2.207382e+02
2.840000e-06	3.898463e-06	3.302072e-09	2.875560e+01	2.215197e+02
2.850000e-06	3.927649e-06	3.313744e-09	2.897088e+01	2.222799e+02
2.860000e-06	3.956474e-06	3.322997e-09	2.918350e+01	2.230193e+02
2.870000e-06	3.985025e-06	3.334565e-09	2.939409e+01	2.237383e+02
2.880000e-06	4.013407e-06	3.349062e-09	2.960344e+01	2.244376e+02
2.890000e-06	4.041584e-06	3.362112e-09	2.981128e+01	2.251177e+02
2.900000e-06	4.069602e-06	3.371873e-09	3.001794e+01	2.257794e+02
