# Temperatura_=_20.0
# Concentracion g/m^3_=_9000.0
# C_Vs_to_Am_M_A/Vsm_=_65563218390.804596
# pendiente_HvsI_1/m_=_3716.3
# ordenada_HvsI_A/m_=_1297.0
# frecuencia_Hz_=_135118.7732624881

Tiempo_(s)	Campo_(V.s)	Magnetizacion_(V.s)	Campo_(kA/m)	Magnetizacion_(A/m)
0.000000e+00	-5.174219e-06	-3.848014e-09	-3.837346e+01	-2.440934e+02
1.000000e-08	-5.174295e-06	-3.846830e-09	-3.837402e+01	-2.440709e+02
2.000000e-08	-5.174075e-06	-3.844605e-09	-3.837239e+01	-2.440607e+02
3.000000e-08	-5.173419e-06	-3.844387e-09	-3.836752e+01	-2.440648e+02
4.000000e-08	-5.172270e-06	-3.846174e-09	-3.835900e+01	-2.440856e+02
5.000000e-08	-5.170702e-06	-3.849737e-09	-3.834738e+01	-2.441251e+02
6.000000e-08	-5.168721e-06	-3.857534e-09	-3.833268e+01	-2.441853e+02
7.000000e-08	-5.166196e-06	-3.864637e-09	-3.831395e+01	-2.442683e+02
8.000000e-08	-5.163101e-06	-3.857503e-09	-3.829100e+01	-2.443760e+02
9.000000e-08	-5.159452e-06	-3.838730e-09	-3.826394e+01	-2.445099e+02
1.000000e-07	-5.155442e-06	-3.850535e-09	-3.823420e+01	-2.446718e+02
1.100000e-07	-5.151245e-06	-3.864889e-09	-3.820308e+01	-2.448629e+02
1.200000e-07	-5.146740e-06	-3.852609e-09	-3.816967e+01	-2.450845e+02
1.300000e-07	-5.141897e-06	-3.789748e-09	-3.813375e+01	-2.453377e+02
1.400000e-07	-5.136784e-06	-3.785588e-09	-3.809583e+01	-2.456233e+02
1.500000e-07	-5.131327e-06	-3.846192e-09	-3.805535e+01	-2.459417e+02
1.600000e-07	-5.125486e-06	-3.916853e-09	-3.801204e+01	-2.462934e+02
1.700000e-07	-5.119275e-06	-3.890421e-09	-3.796598e+01	-2.466785e+02
1.800000e-07	-5.112700e-06	-3.833163e-09	-3.791722e+01	-2.470967e+02
1.900000e-07	-5.105831e-06	-3.868881e-09	-3.786627e+01	-2.475477e+02
2.000000e-07	-5.098658e-06	-3.971224e-09	-3.781307e+01	-2.480308e+02
2.100000e-07	-5.091244e-06	-3.995454e-09	-3.775809e+01	-2.485450e+02
2.200000e-07	-5.083616e-06	-3.843029e-09	-3.770152e+01	-2.490891e+02
2.300000e-07	-5.075673e-06	-3.707828e-09	-3.764261e+01	-2.496616e+02
2.400000e-07	-5.067214e-06	-3.711238e-09	-3.757988e+01	-2.502607e+02
2.500000e-07	-5.058208e-06	-3.790678e-09	-3.751309e+01	-2.508846e+02
2.600000e-07	-5.048783e-06	-3.730624e-09	-3.744319e+01	-2.515308e+02
2.700000e-07	-5.038872e-06	-3.623781e-09	-3.736968e+01	-2.521971e+02
2.800000e-07	-5.028442e-06	-3.632594e-09	-3.729234e+01	-2.528807e+02
2.900000e-07	-5.017553e-06	-3.738458e-09	-3.721158e+01	-2.535787e+02
3.000000e-07	-5.006179e-06	-3.773434e-09	-3.712722e+01	-2.542880e+02
3.100000e-07	-4.994407e-06	-3.769586e-09	-3.703992e+01	-2.550056e+02
3.200000e-07	-4.982311e-06	-3.829560e-09	-3.695021e+01	-2.557279e+02
3.300000e-07	-4.969856e-06	-3.942977e-09	-3.685784e+01	-2.564517e+02
3.400000e-07	-4.957069e-06	-3.978347e-09	-3.676301e+01	-2.571731e+02
3.500000e-07	-4.943895e-06	-3.935503e-09	-3.666531e+01	-2.578888e+02
3.600000e-07	-4.930315e-06	-3.907566e-09	-3.656460e+01	-2.585949e+02
3.700000e-07	-4.916338e-06	-3.936170e-09	-3.646094e+01	-2.592879e+02
3.800000e-07	-4.901920e-06	-3.972546e-09	-3.635401e+01	-2.599640e+02
3.900000e-07	-4.887052e-06	-3.973530e-09	-3.624374e+01	-2.606196e+02
4.000000e-07	-4.871632e-06	-3.926514e-09	-3.612939e+01	-2.612511e+02
4.100000e-07	-4.855659e-06	-3.890807e-09	-3.601093e+01	-2.618552e+02
4.200000e-07	-4.839258e-06	-3.951885e-09	-3.588929e+01	-2.624284e+02
4.300000e-07	-4.822424e-06	-4.007757e-09	-3.576444e+01	-2.629675e+02
4.400000e-07	-4.805285e-06	-3.961419e-09	-3.563734e+01	-2.634696e+02
4.500000e-07	-4.787973e-06	-3.908753e-09	-3.550895e+01	-2.639318e+02
4.600000e-07	-4.770432e-06	-3.970190e-09	-3.537886e+01	-2.643514e+02
4.700000e-07	-4.752684e-06	-4.011596e-09	-3.524724e+01	-2.647262e+02
4.800000e-07	-4.734628e-06	-3.962627e-09	-3.511332e+01	-2.650539e+02
4.900000e-07	-4.716087e-06	-3.927178e-09	-3.497583e+01	-2.653327e+02
5.000000e-07	-4.697191e-06	-3.962063e-09	-3.483568e+01	-2.655612e+02
5.100000e-07	-4.677995e-06	-3.964813e-09	-3.469332e+01	-2.657379e+02
5.200000e-07	-4.658508e-06	-3.948427e-09	-3.454880e+01	-2.658619e+02
5.300000e-07	-4.638780e-06	-3.939994e-09	-3.440249e+01	-2.659325e+02
5.400000e-07	-4.618845e-06	-3.930715e-09	-3.425465e+01	-2.659495e+02
5.500000e-07	-4.598696e-06	-3.926700e-09	-3.410522e+01	-2.659128e+02
5.600000e-07	-4.578195e-06	-3.950161e-09	-3.395318e+01	-2.658226e+02
5.700000e-07	-4.557337e-06	-3.938190e-09	-3.379849e+01	-2.656796e+02
5.800000e-07	-4.536220e-06	-3.902956e-09	-3.364188e+01	-2.654847e+02
5.900000e-07	-4.514825e-06	-3.906625e-09	-3.348320e+01	-2.652389e+02
6.000000e-07	-4.493097e-06	-3.925682e-09	-3.332206e+01	-2.649439e+02
6.100000e-07	-4.471096e-06	-3.901940e-09	-3.315890e+01	-2.646013e+02
6.200000e-07	-4.448851e-06	-3.876588e-09	-3.299392e+01	-2.642131e+02
6.300000e-07	-4.426260e-06	-3.886197e-09	-3.282638e+01	-2.637815e+02
6.400000e-07	-4.403217e-06	-3.890107e-09	-3.265549e+01	-2.633088e+02
6.500000e-07	-4.379887e-06	-3.870362e-09	-3.248247e+01	-2.627978e+02
6.600000e-07	-4.356344e-06	-3.852640e-09	-3.230787e+01	-2.622511e+02
6.700000e-07	-4.332610e-06	-3.854431e-09	-3.213185e+01	-2.616716e+02
6.800000e-07	-4.308696e-06	-3.854414e-09	-3.195450e+01	-2.610623e+02
6.900000e-07	-4.284506e-06	-3.846012e-09	-3.177510e+01	-2.604262e+02
7.000000e-07	-4.260030e-06	-3.832971e-09	-3.159358e+01	-2.597665e+02
7.100000e-07	-4.235187e-06	-3.826469e-09	-3.140933e+01	-2.590862e+02
7.200000e-07	-4.209951e-06	-3.824187e-09	-3.122217e+01	-2.583885e+02
7.300000e-07	-4.184275e-06	-3.818983e-09	-3.103176e+01	-2.576764e+02
7.400000e-07	-4.157971e-06	-3.800972e-09	-3.083668e+01	-2.569530e+02
7.500000e-07	-4.131108e-06	-3.782950e-09	-3.063745e+01	-2.562211e+02
7.600000e-07	-4.103909e-06	-3.772883e-09	-3.043574e+01	-2.554836e+02
7.700000e-07	-4.076467e-06	-3.773681e-09	-3.023222e+01	-2.547430e+02
7.800000e-07	-4.048802e-06	-3.761910e-09	-3.002705e+01	-2.540020e+02
7.900000e-07	-4.020934e-06	-3.742448e-09	-2.982037e+01	-2.532627e+02
8.000000e-07	-3.992905e-06	-3.734572e-09	-2.961250e+01	-2.525272e+02
8.100000e-07	-3.964701e-06	-3.743338e-09	-2.940333e+01	-2.517974e+02
8.200000e-07	-3.936269e-06	-3.740003e-09	-2.919248e+01	-2.510749e+02
8.300000e-07	-3.907543e-06	-3.721804e-09	-2.897943e+01	-2.503611e+02
8.400000e-07	-3.878517e-06	-3.706404e-09	-2.876417e+01	-2.496570e+02
8.500000e-07	-3.849214e-06	-3.703161e-09	-2.854685e+01	-2.489635e+02
8.600000e-07	-3.819665e-06	-3.696922e-09	-2.832771e+01	-2.482811e+02
8.700000e-07	-3.789884e-06	-3.680376e-09	-2.810684e+01	-2.476100e+02
8.800000e-07	-3.759878e-06	-3.662713e-09	-2.788431e+01	-2.469504e+02
8.900000e-07	-3.729638e-06	-3.658377e-09	-2.766004e+01	-2.463018e+02
9.000000e-07	-3.699155e-06	-3.657688e-09	-2.743397e+01	-2.456638e+02
9.100000e-07	-3.668457e-06	-3.647636e-09	-2.720630e+01	-2.450356e+02
9.200000e-07	-3.637400e-06	-3.633497e-09	-2.697598e+01	-2.444161e+02
9.300000e-07	-3.605949e-06	-3.617193e-09	-2.674273e+01	-2.438040e+02
9.400000e-07	-3.574355e-06	-3.606215e-09	-2.650841e+01	-2.431979e+02
9.500000e-07	-3.542704e-06	-3.600424e-09	-2.627369e+01	-2.425961e+02
9.600000e-07	-3.510942e-06	-3.588475e-09	-2.603813e+01	-2.419968e+02
9.700000e-07	-3.478992e-06	-3.569512e-09	-2.580118e+01	-2.413979e+02
9.800000e-07	-3.446779e-06	-3.559784e-09	-2.556228e+01	-2.407972e+02
9.900000e-07	-3.414374e-06	-3.557493e-09	-2.532195e+01	-2.401927e+02
1.000000e-06	-3.381785e-06	-3.547912e-09	-2.508027e+01	-2.395818e+02
1.010000e-06	-3.348875e-06	-3.529656e-09	-2.483619e+01	-2.389624e+02
1.020000e-06	-3.315522e-06	-3.515300e-09	-2.458884e+01	-2.383319e+02
1.030000e-06	-3.281701e-06	-3.504708e-09	-2.433801e+01	-2.376880e+02
1.040000e-06	-3.247543e-06	-3.493596e-09	-2.408469e+01	-2.370283e+02
1.050000e-06	-3.213047e-06	-3.478902e-09	-2.382886e+01	-2.363504e+02
1.060000e-06	-3.178149e-06	-3.465809e-09	-2.357004e+01	-2.356521e+02
1.070000e-06	-3.142926e-06	-3.454696e-09	-2.330882e+01	-2.349313e+02
1.080000e-06	-3.107460e-06	-3.446030e-09	-2.304579e+01	-2.341859e+02
1.090000e-06	-3.071845e-06	-3.433693e-09	-2.278166e+01	-2.334140e+02
1.100000e-06	-3.036144e-06	-3.419132e-09	-2.251689e+01	-2.326139e+02
1.110000e-06	-3.000345e-06	-3.405191e-09	-2.225140e+01	-2.317840e+02
1.120000e-06	-2.964364e-06	-3.392764e-09	-2.198456e+01	-2.309229e+02
1.130000e-06	-2.928197e-06	-3.378446e-09	-2.171633e+01	-2.300295e+02
1.140000e-06	-2.891895e-06	-3.362460e-09	-2.144710e+01	-2.291028e+02
1.150000e-06	-2.855439e-06	-3.346254e-09	-2.117673e+01	-2.281420e+02
1.160000e-06	-2.818809e-06	-3.333930e-09	-2.090508e+01	-2.271466e+02
1.170000e-06	-2.781966e-06	-3.322812e-09	-2.063184e+01	-2.261163e+02
1.180000e-06	-2.744928e-06	-3.306234e-09	-2.035715e+01	-2.250510e+02
1.190000e-06	-2.707664e-06	-3.287685e-09	-2.008080e+01	-2.239509e+02
1.200000e-06	-2.670144e-06	-3.272182e-09	-1.980254e+01	-2.228162e+02
1.210000e-06	-2.632470e-06	-3.258329e-09	-1.952313e+01	-2.216476e+02
1.220000e-06	-2.594626e-06	-3.238663e-09	-1.924247e+01	-2.204457e+02
1.230000e-06	-2.556569e-06	-3.219294e-09	-1.896023e+01	-2.192115e+02
1.240000e-06	-2.518299e-06	-3.201266e-09	-1.867641e+01	-2.179459e+02
1.250000e-06	-2.479863e-06	-3.181428e-09	-1.839136e+01	-2.166503e+02
1.260000e-06	-2.441297e-06	-3.160903e-09	-1.810534e+01	-2.153258e+02
1.270000e-06	-2.402511e-06	-3.140442e-09	-1.781769e+01	-2.139740e+02
1.280000e-06	-2.363501e-06	-3.119914e-09	-1.752839e+01	-2.125962e+02
1.290000e-06	-2.324416e-06	-3.103286e-09	-1.723852e+01	-2.111940e+02
1.300000e-06	-2.285256e-06	-3.088726e-09	-1.694810e+01	-2.097688e+02
1.310000e-06	-2.245949e-06	-3.069101e-09	-1.665659e+01	-2.083224e+02
1.320000e-06	-2.206492e-06	-3.044749e-09	-1.636396e+01	-2.068560e+02
1.330000e-06	-2.166845e-06	-3.023586e-09	-1.606993e+01	-2.053711e+02
1.340000e-06	-2.127055e-06	-3.004425e-09	-1.577484e+01	-2.038691e+02
1.350000e-06	-2.087159e-06	-2.982901e-09	-1.547896e+01	-2.023511e+02
1.360000e-06	-2.047145e-06	-2.957338e-09	-1.518220e+01	-2.008182e+02
1.370000e-06	-2.007097e-06	-2.932735e-09	-1.488519e+01	-1.992713e+02
1.380000e-06	-1.967011e-06	-2.914159e-09	-1.458791e+01	-1.977112e+02
1.390000e-06	-1.926906e-06	-2.894394e-09	-1.429048e+01	-1.961382e+02
1.400000e-06	-1.886697e-06	-2.868113e-09	-1.399227e+01	-1.945527e+02
1.410000e-06	-1.846201e-06	-2.840254e-09	-1.369194e+01	-1.929546e+02
1.420000e-06	-1.805460e-06	-2.816281e-09	-1.338980e+01	-1.913438e+02
1.430000e-06	-1.764641e-06	-2.791533e-09	-1.308707e+01	-1.897196e+02
1.440000e-06	-1.723688e-06	-2.761813e-09	-1.278336e+01	-1.880812e+02
1.450000e-06	-1.682473e-06	-2.733182e-09	-1.247769e+01	-1.864275e+02
1.460000e-06	-1.641101e-06	-2.707730e-09	-1.217086e+01	-1.847572e+02
1.470000e-06	-1.599540e-06	-2.683622e-09	-1.186264e+01	-1.830684e+02
1.480000e-06	-1.557675e-06	-2.659283e-09	-1.155216e+01	-1.813591e+02
1.490000e-06	-1.515575e-06	-2.632118e-09	-1.123993e+01	-1.796272e+02
1.500000e-06	-1.473319e-06	-2.602128e-09	-1.092655e+01	-1.778699e+02
1.510000e-06	-1.430899e-06	-2.573130e-09	-1.061195e+01	-1.760844e+02
1.520000e-06	-1.388329e-06	-2.545845e-09	-1.029624e+01	-1.742677e+02
1.530000e-06	-1.345668e-06	-2.516818e-09	-9.979854e+00	-1.724163e+02
1.540000e-06	-1.302992e-06	-2.489694e-09	-9.663351e+00	-1.705267e+02
1.550000e-06	-1.260293e-06	-2.463409e-09	-9.346682e+00	-1.685951e+02
1.560000e-06	-1.217426e-06	-2.432160e-09	-9.028771e+00	-1.666176e+02
1.570000e-06	-1.174312e-06	-2.396137e-09	-8.709028e+00	-1.645902e+02
1.580000e-06	-1.130985e-06	-2.361715e-09	-8.387703e+00	-1.625086e+02
1.590000e-06	-1.087540e-06	-2.332273e-09	-8.065501e+00	-1.603686e+02
1.600000e-06	-1.044064e-06	-2.301149e-09	-7.743075e+00	-1.581659e+02
1.610000e-06	-1.000547e-06	-2.263393e-09	-7.420335e+00	-1.558961e+02
1.620000e-06	-9.570064e-07	-2.223461e-09	-7.097427e+00	-1.535550e+02
1.630000e-06	-9.134149e-07	-2.185999e-09	-6.774140e+00	-1.511384e+02
1.640000e-06	-8.697550e-07	-2.149394e-09	-6.450347e+00	-1.486421e+02
1.650000e-06	-8.260885e-07	-2.110396e-09	-6.126504e+00	-1.460620e+02
1.660000e-06	-7.824057e-07	-2.070639e-09	-5.802540e+00	-1.433945e+02
1.670000e-06	-7.386552e-07	-2.033587e-09	-5.478074e+00	-1.406358e+02
1.680000e-06	-6.948434e-07	-1.996734e-09	-5.153153e+00	-1.377825e+02
1.690000e-06	-6.510065e-07	-1.955408e-09	-4.828047e+00	-1.348316e+02
1.700000e-06	-6.071608e-07	-1.911298e-09	-4.502874e+00	-1.317802e+02
1.710000e-06	-5.633081e-07	-1.867188e-09	-4.177651e+00	-1.286259e+02
1.720000e-06	-5.194468e-07	-1.821797e-09	-3.852363e+00	-1.253664e+02
1.730000e-06	-4.755637e-07	-1.773611e-09	-3.526913e+00	-1.220002e+02
1.740000e-06	-4.316504e-07	-1.723014e-09	-3.201240e+00	-1.185258e+02
1.750000e-06	-3.877387e-07	-1.671060e-09	-2.875578e+00	-1.149425e+02
1.760000e-06	-3.438510e-07	-1.618706e-09	-2.550095e+00	-1.112496e+02
1.770000e-06	-2.999461e-07	-1.566639e-09	-2.224484e+00	-1.074473e+02
1.780000e-06	-2.560042e-07	-1.513900e-09	-1.898599e+00	-1.035361e+02
1.790000e-06	-2.120426e-07	-1.458567e-09	-1.572567e+00	-9.951685e+01
1.800000e-06	-1.680569e-07	-1.400442e-09	-1.246357e+00	-9.539107e+01
1.810000e-06	-1.240545e-07	-1.341384e-09	-9.200231e-01	-9.116067e+01
1.820000e-06	-8.002930e-08	-1.279491e-09	-5.935197e-01	-8.682808e+01
1.830000e-06	-3.604288e-08	-1.214134e-09	-2.673041e-01	-8.239619e+01
1.840000e-06	7.913606e-09	-1.146943e-09	5.868952e-02	-7.786836e+01
1.850000e-06	5.191611e-08	-1.079404e-09	3.850244e-01	-7.324840e+01
1.860000e-06	9.593863e-08	-1.011375e-09	7.115077e-01	-6.854055e+01
1.870000e-06	1.398973e-07	-9.402244e-10	1.037518e+00	-6.374949e+01
1.880000e-06	1.838159e-07	-8.662145e-10	1.363230e+00	-5.888028e+01
1.890000e-06	2.277551e-07	-7.923057e-10	1.689095e+00	-5.393836e+01
1.900000e-06	2.717427e-07	-7.187653e-10	2.015320e+00	-4.892951e+01
1.910000e-06	3.157600e-07	-6.410701e-10	2.341765e+00	-4.385983e+01
1.920000e-06	3.597060e-07	-5.593814e-10	2.667680e+00	-3.873569e+01
1.930000e-06	4.035865e-07	-4.775633e-10	2.993111e+00	-3.356375e+01
1.940000e-06	4.474554e-07	-3.962235e-10	3.318454e+00	-2.835084e+01
1.950000e-06	4.913268e-07	-3.151318e-10	3.643817e+00	-2.310401e+01
1.960000e-06	5.351571e-07	-2.348719e-10	3.968875e+00	-1.783043e+01
1.970000e-06	5.789466e-07	-1.531749e-10	4.293631e+00	-1.253739e+01
1.980000e-06	6.227504e-07	-6.948495e-11	4.618491e+00	-7.232233e+00
1.990000e-06	6.665361e-07	1.320766e-11	4.943218e+00	-1.922354e+00
2.000000e-06	7.103294e-07	9.608227e-11	5.268002e+00	3.384871e+00
2.010000e-06	7.541371e-07	1.819119e-10	5.592892e+00	8.682110e+00
2.020000e-06	7.978861e-07	2.674576e-10	5.917347e+00	1.396211e+01
2.030000e-06	8.415814e-07	3.490589e-10	6.241403e+00	1.921774e+01
2.040000e-06	8.852515e-07	4.272259e-10	6.565273e+00	2.444201e+01
2.050000e-06	9.288514e-07	5.064044e-10	6.888622e+00	2.962813e+01
2.060000e-06	9.723815e-07	5.882936e-10	7.211453e+00	3.476950e+01
2.070000e-06	1.015917e-06	6.678608e-10	7.534327e+00	3.985981e+01
2.080000e-06	1.059435e-06	7.430481e-10	7.857066e+00	4.489297e+01
2.090000e-06	1.102805e-06	8.176375e-10	8.178708e+00	4.986323e+01
2.100000e-06	1.146078e-06	8.940176e-10	8.499634e+00	5.476514e+01
2.110000e-06	1.189329e-06	9.704589e-10	8.820396e+00	5.959359e+01
2.120000e-06	1.232490e-06	1.043331e-09	9.140492e+00	6.434385e+01
2.130000e-06	1.275499e-06	1.111731e-09	9.459455e+00	6.901154e+01
2.140000e-06	1.318284e-06	1.177224e-09	9.776766e+00	7.359269e+01
2.150000e-06	1.360942e-06	1.241375e-09	1.009313e+01	7.808369e+01
2.160000e-06	1.403448e-06	1.304733e-09	1.040837e+01	8.248138e+01
2.170000e-06	1.445796e-06	1.361941e-09	1.072243e+01	8.678297e+01
2.180000e-06	1.487969e-06	1.415561e-09	1.103519e+01	9.098611e+01
2.190000e-06	1.529867e-06	1.472555e-09	1.134592e+01	9.508883e+01
2.200000e-06	1.571583e-06	1.528793e-09	1.165530e+01	9.908959e+01
2.210000e-06	1.613060e-06	1.580431e-09	1.196291e+01	1.029872e+02
2.220000e-06	1.654293e-06	1.629562e-09	1.226870e+01	1.067810e+02
2.230000e-06	1.695327e-06	1.678718e-09	1.257302e+01	1.104705e+02
2.240000e-06	1.736204e-06	1.727566e-09	1.287617e+01	1.140557e+02
2.250000e-06	1.776933e-06	1.774369e-09	1.317823e+01	1.175370e+02
2.260000e-06	1.817510e-06	1.817238e-09	1.347916e+01	1.209150e+02
2.270000e-06	1.857914e-06	1.858422e-09	1.377881e+01	1.241908e+02
2.280000e-06	1.898125e-06	1.897982e-09	1.407702e+01	1.273655e+02
2.290000e-06	1.938219e-06	1.936424e-09	1.437437e+01	1.304409e+02
2.300000e-06	1.978188e-06	1.975501e-09	1.467079e+01	1.334187e+02
2.310000e-06	2.018075e-06	2.014830e-09	1.496661e+01	1.363011e+02
2.320000e-06	2.057923e-06	2.052683e-09	1.526213e+01	1.390902e+02
2.330000e-06	2.097745e-06	2.088886e-09	1.555746e+01	1.417886e+02
2.340000e-06	2.137501e-06	2.124981e-09	1.585231e+01	1.443989e+02
2.350000e-06	2.177131e-06	2.160258e-09	1.614621e+01	1.469238e+02
2.360000e-06	2.216666e-06	2.195321e-09	1.643941e+01	1.493664e+02
2.370000e-06	2.256171e-06	2.229133e-09	1.673239e+01	1.517296e+02
2.380000e-06	2.295525e-06	2.262500e-09	1.702426e+01	1.540164e+02
2.390000e-06	2.334620e-06	2.293521e-09	1.731420e+01	1.562300e+02
2.400000e-06	2.373498e-06	2.322520e-09	1.760253e+01	1.583736e+02
2.410000e-06	2.412259e-06	2.351236e-09	1.788999e+01	1.604503e+02
2.420000e-06	2.450800e-06	2.380419e-09	1.817582e+01	1.624633e+02
2.430000e-06	2.489034e-06	2.411271e-09	1.845937e+01	1.644157e+02
2.440000e-06	2.527065e-06	2.441579e-09	1.874143e+01	1.663106e+02
2.450000e-06	2.564979e-06	2.470397e-09	1.902260e+01	1.681511e+02
2.460000e-06	2.602855e-06	2.497373e-09	1.930350e+01	1.699400e+02
2.470000e-06	2.640597e-06	2.522857e-09	1.958341e+01	1.716803e+02
2.480000e-06	2.678093e-06	2.548607e-09	1.986149e+01	1.733747e+02
2.490000e-06	2.715431e-06	2.573903e-09	2.013839e+01	1.750259e+02
2.500000e-06	2.752696e-06	2.599118e-09	2.041477e+01	1.766363e+02
2.510000e-06	2.789736e-06	2.624861e-09	2.068947e+01	1.782085e+02
2.520000e-06	2.826455e-06	2.649777e-09	2.096178e+01	1.797446e+02
2.530000e-06	2.862955e-06	2.672337e-09	2.123248e+01	1.812468e+02
2.540000e-06	2.899241e-06	2.694084e-09	2.150158e+01	1.827171e+02
2.550000e-06	2.935343e-06	2.717018e-09	2.176932e+01	1.841572e+02
2.560000e-06	2.971317e-06	2.738490e-09	2.203612e+01	1.855690e+02
2.570000e-06	3.007180e-06	2.758140e-09	2.230209e+01	1.869539e+02
2.580000e-06	3.042956e-06	2.778204e-09	2.256742e+01	1.883134e+02
2.590000e-06	3.078607e-06	2.796775e-09	2.283181e+01	1.896486e+02
2.600000e-06	3.114166e-06	2.816434e-09	2.309553e+01	1.909607e+02
2.610000e-06	3.149650e-06	2.839272e-09	2.335869e+01	1.922507e+02
2.620000e-06	3.184929e-06	2.859028e-09	2.362032e+01	1.935194e+02
2.630000e-06	3.219842e-06	2.875888e-09	2.387925e+01	1.947675e+02
2.640000e-06	3.254407e-06	2.894075e-09	2.413560e+01	1.959957e+02
2.650000e-06	3.288646e-06	2.915810e-09	2.438952e+01	1.972043e+02
2.660000e-06	3.322450e-06	2.937103e-09	2.464022e+01	1.983939e+02
2.670000e-06	3.355749e-06	2.954348e-09	2.488717e+01	1.995646e+02
2.680000e-06	3.388582e-06	2.968975e-09	2.513067e+01	2.007167e+02
2.690000e-06	3.421062e-06	2.984177e-09	2.537155e+01	2.018503e+02
2.700000e-06	3.453342e-06	3.000199e-09	2.561095e+01	2.029654e+02
2.710000e-06	3.485462e-06	3.013763e-09	2.584916e+01	2.040621e+02
2.720000e-06	3.517378e-06	3.024197e-09	2.608586e+01	2.051401e+02
2.730000e-06	3.549133e-06	3.037778e-09	2.632136e+01	2.061995e+02
2.740000e-06	3.580767e-06	3.054861e-09	2.655597e+01	2.072401e+02
2.750000e-06	3.612295e-06	3.068831e-09	2.678979e+01	2.082617e+02
2.760000e-06	3.643670e-06	3.081350e-09	2.702248e+01	2.092641e+02
2.770000e-06	3.674800e-06	3.095212e-09	2.725335e+01	2.102470e+02
2.780000e-06	3.705534e-06	3.109125e-09	2.748128e+01	2.112103e+02
2.790000e-06	3.735889e-06	3.123265e-09	2.770640e+01	2.121538e+02
2.800000e-06	3.766109e-06	3.134005e-09	2.793052e+01	2.130772e+02
2.810000e-06	3.796096e-06	3.142158e-09	2.815291e+01	2.139804e+02
2.820000e-06	3.825718e-06	3.152131e-09	2.837260e+01	2.148632e+02
2.830000e-06	3.855136e-06	3.165431e-09	2.859077e+01	2.157254e+02
2.840000e-06	3.884386e-06	3.180022e-09	2.880769e+01	2.165671e+02
2.850000e-06	3.913380e-06	3.191956e-09	2.902272e+01	2.173881e+02
2.860000e-06	3.942095e-06	3.204751e-09	2.923568e+01	2.181883e+02
2.870000e-06	3.970491e-06	3.219328e-09	2.944627e+01	2.189680e+02
2.880000e-06	3.998630e-06	3.234057e-09	2.965496e+01	2.197270e+02
2.890000e-06	4.026598e-06	3.244746e-09	2.986238e+01	2.204655e+02
2.900000e-06	4.054394e-06	3.253952e-09	3.006852e+01	2.211838e+02
