# Temperatura_=_20.0
# Concentracion g/m^3_=_9000.0
# C_Vs_to_Am_M_A/Vsm_=_65563218390.804596
# pendiente_HvsI_1/m_=_3716.3
# ordenada_HvsI_A/m_=_1297.0
# frecuencia_Hz_=_135115.1047897092

Tiempo_(s)	Campo_(V.s)	Magnetizacion_(V.s)	Campo_(kA/m)	Magnetizacion_(A/m)
0.000000e+00	-5.171654e-06	-3.848248e-09	-3.837171e+01	-2.435546e+02
1.000000e-08	-5.171745e-06	-3.846143e-09	-3.837239e+01	-2.434706e+02
2.000000e-08	-5.171599e-06	-3.845399e-09	-3.837131e+01	-2.433942e+02
3.000000e-08	-5.171155e-06	-3.847185e-09	-3.836801e+01	-2.433277e+02
4.000000e-08	-5.170293e-06	-3.849109e-09	-3.836162e+01	-2.432737e+02
5.000000e-08	-5.168904e-06	-3.848358e-09	-3.835131e+01	-2.432344e+02
6.000000e-08	-5.166890e-06	-3.846388e-09	-3.833637e+01	-2.432121e+02
7.000000e-08	-5.164245e-06	-3.842562e-09	-3.831675e+01	-2.432093e+02
8.000000e-08	-5.161040e-06	-3.849377e-09	-3.829296e+01	-2.432281e+02
9.000000e-08	-5.157400e-06	-3.881744e-09	-3.826596e+01	-2.432707e+02
1.000000e-07	-5.153429e-06	-3.906106e-09	-3.823649e+01	-2.433391e+02
1.100000e-07	-5.149244e-06	-3.852041e-09	-3.820544e+01	-2.434351e+02
1.200000e-07	-5.144924e-06	-3.753503e-09	-3.817339e+01	-2.435605e+02
1.300000e-07	-5.140336e-06	-3.750608e-09	-3.813935e+01	-2.437168e+02
1.400000e-07	-5.135254e-06	-3.852802e-09	-3.810164e+01	-2.439055e+02
1.500000e-07	-5.129720e-06	-3.918530e-09	-3.806058e+01	-2.441275e+02
1.600000e-07	-5.123862e-06	-3.869725e-09	-3.801712e+01	-2.443839e+02
1.700000e-07	-5.117702e-06	-3.810815e-09	-3.797142e+01	-2.446754e+02
1.800000e-07	-5.111269e-06	-3.838839e-09	-3.792368e+01	-2.450022e+02
1.900000e-07	-5.104521e-06	-3.913927e-09	-3.787362e+01	-2.453646e+02
2.000000e-07	-5.097400e-06	-3.943674e-09	-3.782078e+01	-2.457625e+02
2.100000e-07	-5.089929e-06	-3.892243e-09	-3.776535e+01	-2.461953e+02
2.200000e-07	-5.082201e-06	-3.797218e-09	-3.770801e+01	-2.466625e+02
2.300000e-07	-5.074261e-06	-3.733447e-09	-3.764910e+01	-2.471630e+02
2.400000e-07	-5.065996e-06	-3.718152e-09	-3.758777e+01	-2.476956e+02
2.500000e-07	-5.057127e-06	-3.663003e-09	-3.752197e+01	-2.482587e+02
2.600000e-07	-5.047636e-06	-3.563894e-09	-3.745155e+01	-2.488504e+02
2.700000e-07	-5.037819e-06	-3.568792e-09	-3.737871e+01	-2.494687e+02
2.800000e-07	-5.027563e-06	-3.684704e-09	-3.730262e+01	-2.501111e+02
2.900000e-07	-5.016674e-06	-3.689074e-09	-3.722182e+01	-2.507751e+02
3.000000e-07	-5.005303e-06	-3.583189e-09	-3.713746e+01	-2.514579e+02
3.100000e-07	-4.993569e-06	-3.638365e-09	-3.705040e+01	-2.521563e+02
3.200000e-07	-4.981520e-06	-3.848475e-09	-3.696099e+01	-2.528671e+02
3.300000e-07	-4.969178e-06	-3.925359e-09	-3.686942e+01	-2.535869e+02
3.400000e-07	-4.956488e-06	-3.822187e-09	-3.677527e+01	-2.543121e+02
3.500000e-07	-4.943317e-06	-3.769095e-09	-3.667755e+01	-2.550391e+02
3.600000e-07	-4.929688e-06	-3.841232e-09	-3.657642e+01	-2.557640e+02
3.700000e-07	-4.915748e-06	-3.912728e-09	-3.647299e+01	-2.564831e+02
3.800000e-07	-4.901364e-06	-3.900737e-09	-3.636627e+01	-2.571923e+02
3.900000e-07	-4.886329e-06	-3.824998e-09	-3.625472e+01	-2.578878e+02
4.000000e-07	-4.870760e-06	-3.784389e-09	-3.613920e+01	-2.585658e+02
4.100000e-07	-4.854907e-06	-3.854889e-09	-3.602158e+01	-2.592223e+02
4.200000e-07	-4.838632e-06	-3.947785e-09	-3.590082e+01	-2.598537e+02
4.300000e-07	-4.821871e-06	-3.909902e-09	-3.577646e+01	-2.604564e+02
4.400000e-07	-4.804846e-06	-3.837832e-09	-3.565014e+01	-2.610267e+02
4.500000e-07	-4.787558e-06	-3.910428e-09	-3.552187e+01	-2.615614e+02
4.600000e-07	-4.770000e-06	-4.020614e-09	-3.539159e+01	-2.620573e+02
4.700000e-07	-4.752233e-06	-3.975557e-09	-3.525977e+01	-2.625115e+02
4.800000e-07	-4.734178e-06	-3.879467e-09	-3.512581e+01	-2.629213e+02
4.900000e-07	-4.715734e-06	-3.911039e-09	-3.498896e+01	-2.632843e+02
5.000000e-07	-4.696888e-06	-3.983339e-09	-3.484913e+01	-2.635983e+02
5.100000e-07	-4.677675e-06	-3.959392e-09	-3.470658e+01	-2.638615e+02
5.200000e-07	-4.658138e-06	-3.896888e-09	-3.456162e+01	-2.640723e+02
5.300000e-07	-4.638345e-06	-3.892710e-09	-3.441477e+01	-2.642295e+02
5.400000e-07	-4.618376e-06	-3.929614e-09	-3.426660e+01	-2.643322e+02
5.500000e-07	-4.598241e-06	-3.945416e-09	-3.411721e+01	-2.643799e+02
5.600000e-07	-4.577887e-06	-3.919561e-09	-3.396619e+01	-2.643723e+02
5.700000e-07	-4.557220e-06	-3.882722e-09	-3.381285e+01	-2.643095e+02
5.800000e-07	-4.536169e-06	-3.882525e-09	-3.365666e+01	-2.641920e+02
5.900000e-07	-4.514779e-06	-3.911833e-09	-3.349795e+01	-2.640205e+02
6.000000e-07	-4.493103e-06	-3.908749e-09	-3.333712e+01	-2.637962e+02
6.100000e-07	-4.471157e-06	-3.860422e-09	-3.317429e+01	-2.635204e+02
6.200000e-07	-4.448896e-06	-3.838240e-09	-3.300913e+01	-2.631947e+02
6.300000e-07	-4.426256e-06	-3.872096e-09	-3.284115e+01	-2.628213e+02
6.400000e-07	-4.403347e-06	-3.888262e-09	-3.267117e+01	-2.624021e+02
6.500000e-07	-4.380090e-06	-3.847421e-09	-3.249861e+01	-2.619398e+02
6.600000e-07	-4.356457e-06	-3.817514e-09	-3.232327e+01	-2.614369e+02
6.700000e-07	-4.332676e-06	-3.841883e-09	-3.214682e+01	-2.608961e+02
6.800000e-07	-4.308741e-06	-3.859312e-09	-3.196923e+01	-2.603206e+02
6.900000e-07	-4.284589e-06	-3.830269e-09	-3.179003e+01	-2.597134e+02
7.000000e-07	-4.260112e-06	-3.803208e-09	-3.160842e+01	-2.590776e+02
7.100000e-07	-4.235228e-06	-3.812104e-09	-3.142379e+01	-2.584164e+02
7.200000e-07	-4.209980e-06	-3.823476e-09	-3.123646e+01	-2.577332e+02
7.300000e-07	-4.184253e-06	-3.811595e-09	-3.104557e+01	-2.570312e+02
7.400000e-07	-4.158063e-06	-3.790579e-09	-3.085126e+01	-2.563137e+02
7.500000e-07	-4.131492e-06	-3.781376e-09	-3.065411e+01	-2.555837e+02
7.600000e-07	-4.104463e-06	-3.783767e-09	-3.045356e+01	-2.548444e+02
7.700000e-07	-4.077053e-06	-3.781890e-09	-3.025019e+01	-2.540987e+02
7.800000e-07	-4.049404e-06	-3.762208e-09	-3.004505e+01	-2.533494e+02
7.900000e-07	-4.021571e-06	-3.738343e-09	-2.983854e+01	-2.525992e+02
8.000000e-07	-3.993573e-06	-3.736932e-09	-2.963080e+01	-2.518505e+02
8.100000e-07	-3.965373e-06	-3.747894e-09	-2.942157e+01	-2.511055e+02
8.200000e-07	-3.936924e-06	-3.736736e-09	-2.921049e+01	-2.503661e+02
8.300000e-07	-3.908183e-06	-3.709697e-09	-2.899724e+01	-2.496341e+02
8.400000e-07	-3.879134e-06	-3.706874e-09	-2.878171e+01	-2.489110e+02
8.500000e-07	-3.849798e-06	-3.720027e-09	-2.856404e+01	-2.481980e+02
8.600000e-07	-3.820227e-06	-3.706564e-09	-2.834464e+01	-2.474958e+02
8.700000e-07	-3.790424e-06	-3.673159e-09	-2.812351e+01	-2.468052e+02
8.800000e-07	-3.760420e-06	-3.658295e-09	-2.790089e+01	-2.461264e+02
8.900000e-07	-3.730205e-06	-3.665403e-09	-2.767671e+01	-2.454594e+02
9.000000e-07	-3.699760e-06	-3.663323e-09	-2.745082e+01	-2.448041e+02
9.100000e-07	-3.669005e-06	-3.640885e-09	-2.722263e+01	-2.441597e+02
9.200000e-07	-3.637958e-06	-3.620069e-09	-2.699228e+01	-2.435256e+02
9.300000e-07	-3.606712e-06	-3.614142e-09	-2.676044e+01	-2.429006e+02
9.400000e-07	-3.575254e-06	-3.614023e-09	-2.652703e+01	-2.422834e+02
9.500000e-07	-3.543645e-06	-3.601069e-09	-2.629250e+01	-2.416724e+02
9.600000e-07	-3.511856e-06	-3.573932e-09	-2.605665e+01	-2.410660e+02
9.700000e-07	-3.479885e-06	-3.555600e-09	-2.581943e+01	-2.404621e+02
9.800000e-07	-3.447778e-06	-3.555984e-09	-2.558121e+01	-2.398587e+02
9.900000e-07	-3.415430e-06	-3.554453e-09	-2.534120e+01	-2.392535e+02
1.000000e-06	-3.382810e-06	-3.534757e-09	-2.509917e+01	-2.386442e+02
1.010000e-06	-3.349837e-06	-3.511137e-09	-2.485452e+01	-2.380284e+02
1.020000e-06	-3.316461e-06	-3.503860e-09	-2.460688e+01	-2.374036e+02
1.030000e-06	-3.282789e-06	-3.503787e-09	-2.435706e+01	-2.367673e+02
1.040000e-06	-3.248777e-06	-3.487547e-09	-2.410470e+01	-2.361170e+02
1.050000e-06	-3.214351e-06	-3.461294e-09	-2.384927e+01	-2.354502e+02
1.060000e-06	-3.179440e-06	-3.446741e-09	-2.359024e+01	-2.347646e+02
1.070000e-06	-3.144096e-06	-3.444424e-09	-2.332800e+01	-2.340578e+02
1.080000e-06	-3.108524e-06	-3.436015e-09	-2.306407e+01	-2.333275e+02
1.090000e-06	-3.072858e-06	-3.415349e-09	-2.279945e+01	-2.325717e+02
1.100000e-06	-3.037068e-06	-3.396801e-09	-2.253390e+01	-2.317884e+02
1.110000e-06	-3.001146e-06	-3.388603e-09	-2.226737e+01	-2.309759e+02
1.120000e-06	-2.965109e-06	-3.381315e-09	-2.199999e+01	-2.301326e+02
1.130000e-06	-2.928940e-06	-3.364637e-09	-2.173163e+01	-2.292570e+02
1.140000e-06	-2.892727e-06	-3.343323e-09	-2.146294e+01	-2.283481e+02
1.150000e-06	-2.856346e-06	-3.329330e-09	-2.119300e+01	-2.274049e+02
1.160000e-06	-2.819655e-06	-3.322106e-09	-2.092077e+01	-2.264267e+02
1.170000e-06	-2.782801e-06	-3.311198e-09	-2.064733e+01	-2.254129e+02
1.180000e-06	-2.745754e-06	-3.291827e-09	-2.037246e+01	-2.243634e+02
1.190000e-06	-2.708425e-06	-3.272447e-09	-2.009549e+01	-2.232781e+02
1.200000e-06	-2.670916e-06	-3.260537e-09	-1.981719e+01	-2.221573e+02
1.210000e-06	-2.633237e-06	-3.248189e-09	-1.953762e+01	-2.210014e+02
1.220000e-06	-2.595353e-06	-3.224807e-09	-1.925654e+01	-2.198109e+02
1.230000e-06	-2.557335e-06	-3.200070e-09	-1.897446e+01	-2.185868e+02
1.240000e-06	-2.519103e-06	-3.185626e-09	-1.869079e+01	-2.173301e+02
1.250000e-06	-2.480695e-06	-3.172057e-09	-1.840582e+01	-2.160418e+02
1.260000e-06	-2.442220e-06	-3.150974e-09	-1.812035e+01	-2.147234e+02
1.270000e-06	-2.403550e-06	-3.129018e-09	-1.783343e+01	-2.133762e+02
1.280000e-06	-2.364660e-06	-3.112326e-09	-1.754488e+01	-2.120016e+02
1.290000e-06	-2.325628e-06	-3.096455e-09	-1.725528e+01	-2.106014e+02
1.300000e-06	-2.286442e-06	-3.076056e-09	-1.696453e+01	-2.091770e+02
1.310000e-06	-2.247077e-06	-3.052322e-09	-1.667246e+01	-2.077301e+02
1.320000e-06	-2.207565e-06	-3.031026e-09	-1.637930e+01	-2.062623e+02
1.330000e-06	-2.167884e-06	-3.013597e-09	-1.608488e+01	-2.047750e+02
1.340000e-06	-2.128082e-06	-2.995403e-09	-1.578957e+01	-2.032698e+02
1.350000e-06	-2.088236e-06	-2.972653e-09	-1.549392e+01	-2.017480e+02
1.360000e-06	-2.048345e-06	-2.947791e-09	-1.519795e+01	-2.002107e+02
1.370000e-06	-2.008376e-06	-2.926440e-09	-1.490139e+01	-1.986590e+02
1.380000e-06	-1.968350e-06	-2.907067e-09	-1.460441e+01	-1.970938e+02
1.390000e-06	-1.928319e-06	-2.886475e-09	-1.430740e+01	-1.955157e+02
1.400000e-06	-1.888219e-06	-2.863831e-09	-1.400987e+01	-1.939251e+02
1.410000e-06	-1.847932e-06	-2.840133e-09	-1.371096e+01	-1.923221e+02
1.420000e-06	-1.807388e-06	-2.816253e-09	-1.341014e+01	-1.907068e+02
1.430000e-06	-1.766637e-06	-2.788603e-09	-1.310778e+01	-1.890786e+02
1.440000e-06	-1.725752e-06	-2.760819e-09	-1.280442e+01	-1.874368e+02
1.450000e-06	-1.684772e-06	-2.737121e-09	-1.250037e+01	-1.857805e+02
1.460000e-06	-1.643624e-06	-2.712907e-09	-1.219507e+01	-1.841084e+02
1.470000e-06	-1.602278e-06	-2.686087e-09	-1.188829e+01	-1.824188e+02
1.480000e-06	-1.560725e-06	-2.659472e-09	-1.157999e+01	-1.807099e+02
1.490000e-06	-1.518868e-06	-2.633975e-09	-1.126943e+01	-1.789793e+02
1.500000e-06	-1.476726e-06	-2.604993e-09	-1.095675e+01	-1.772246e+02
1.510000e-06	-1.434423e-06	-2.572739e-09	-1.064287e+01	-1.754430e+02
1.520000e-06	-1.391914e-06	-2.542353e-09	-1.032747e+01	-1.736313e+02
1.530000e-06	-1.349224e-06	-2.517686e-09	-1.001073e+01	-1.717863e+02
1.540000e-06	-1.306405e-06	-2.495835e-09	-9.693028e+00	-1.699043e+02
1.550000e-06	-1.263408e-06	-2.468661e-09	-9.374009e+00	-1.679817e+02
1.560000e-06	-1.220333e-06	-2.435121e-09	-9.054408e+00	-1.660144e+02
1.570000e-06	-1.177212e-06	-2.400191e-09	-8.734467e+00	-1.639983e+02
1.580000e-06	-1.133934e-06	-2.366771e-09	-8.413364e+00	-1.619292e+02
1.590000e-06	-1.090510e-06	-2.334210e-09	-8.091174e+00	-1.598028e+02
1.600000e-06	-1.047039e-06	-2.301447e-09	-7.768633e+00	-1.576146e+02
1.610000e-06	-1.003460e-06	-2.267643e-09	-7.445293e+00	-1.553604e+02
1.620000e-06	-9.597997e-07	-2.230653e-09	-7.121351e+00	-1.530357e+02
1.630000e-06	-9.161262e-07	-2.191100e-09	-6.797310e+00	-1.506362e+02
1.640000e-06	-8.723959e-07	-2.151590e-09	-6.472848e+00	-1.481576e+02
1.650000e-06	-8.286071e-07	-2.111205e-09	-6.147951e+00	-1.455959e+02
1.660000e-06	-7.848134e-07	-2.070802e-09	-5.823019e+00	-1.429471e+02
1.670000e-06	-7.410204e-07	-2.033024e-09	-5.498091e+00	-1.402075e+02
1.680000e-06	-6.972180e-07	-1.994620e-09	-5.173094e+00	-1.373735e+02
1.690000e-06	-6.534398e-07	-1.953960e-09	-4.848276e+00	-1.344421e+02
1.700000e-06	-6.096479e-07	-1.911587e-09	-4.523357e+00	-1.314103e+02
1.710000e-06	-5.658268e-07	-1.868101e-09	-4.198221e+00	-1.282754e+02
1.720000e-06	-5.220099e-07	-1.822585e-09	-3.873116e+00	-1.250354e+02
1.730000e-06	-4.781495e-07	-1.774959e-09	-3.547689e+00	-1.216884e+02
1.740000e-06	-4.342290e-07	-1.726173e-09	-3.221815e+00	-1.182331e+02
1.750000e-06	-3.903130e-07	-1.673277e-09	-2.895975e+00	-1.146684e+02
1.760000e-06	-3.464255e-07	-1.616969e-09	-2.570346e+00	-1.109939e+02
1.770000e-06	-3.025398e-07	-1.561156e-09	-2.244731e+00	-1.072096e+02
1.780000e-06	-2.586519e-07	-1.510741e-09	-1.919099e+00	-1.033160e+02
1.790000e-06	-2.147675e-07	-1.462757e-09	-1.593494e+00	-9.931396e+01
1.800000e-06	-1.708775e-07	-1.408104e-09	-1.267846e+00	-9.520499e+01
1.810000e-06	-1.269405e-07	-1.347921e-09	-9.418503e-01	-9.099101e+01
1.820000e-06	-8.295765e-08	-1.289042e-09	-6.155144e-01	-8.667446e+01
1.830000e-06	-3.898417e-08	-1.228083e-09	-2.892478e-01	-8.225825e+01
1.840000e-06	4.929980e-09	-1.158310e-09	3.657859e-02	-7.774579e+01
1.850000e-06	4.881834e-08	-1.084649e-09	3.622137e-01	-7.314090e+01
1.860000e-06	9.277066e-08	-1.014498e-09	6.883232e-01	-6.844790e+01
1.870000e-06	1.367543e-07	-9.467489e-10	1.014665e+00	-6.367149e+01
1.880000e-06	1.807029e-07	-8.774538e-10	1.340747e+00	-5.881680e+01
1.890000e-06	2.246235e-07	-8.066725e-10	1.666621e+00	-5.388930e+01
1.900000e-06	2.685237e-07	-7.358943e-10	1.992344e+00	-4.889484e+01
1.910000e-06	3.124166e-07	-6.637238e-10	2.318013e+00	-4.383956e+01
1.920000e-06	3.562823e-07	-5.849258e-10	2.643480e+00	-3.872991e+01
1.930000e-06	4.001870e-07	-5.010292e-10	2.969236e+00	-3.357255e+01
1.940000e-06	4.441292e-07	-4.197242e-10	3.295271e+00	-2.837439e+01
1.950000e-06	4.880523e-07	-3.388997e-10	3.621163e+00	-2.314249e+01
1.960000e-06	5.319418e-07	-2.554281e-10	3.946807e+00	-1.788406e+01
1.970000e-06	5.757872e-07	-1.721629e-10	4.272123e+00	-1.260640e+01
1.980000e-06	6.196371e-07	-9.080310e-11	4.597473e+00	-7.316865e+00
1.990000e-06	6.634583e-07	-1.106356e-11	4.922610e+00	-2.022849e+00
2.000000e-06	7.072559e-07	7.050514e-11	5.247571e+00	3.268285e+00
2.010000e-06	7.510529e-07	1.545092e-10	5.572528e+00	8.549227e+00
2.020000e-06	7.948249e-07	2.386897e-10	5.897300e+00	1.381276e+01
2.030000e-06	8.385509e-07	3.216646e-10	6.221731e+00	1.905180e+01
2.040000e-06	8.822473e-07	4.034242e-10	6.545941e+00	2.425941e+01
2.050000e-06	9.259082e-07	4.852999e-10	6.869889e+00	2.942886e+01
2.060000e-06	9.694942e-07	5.675592e-10	7.193280e+00	3.455366e+01
2.070000e-06	1.012967e-06	6.468170e-10	7.515834e+00	3.962755e+01
2.080000e-06	1.056381e-06	7.222675e-10	7.837945e+00	4.464457e+01
2.090000e-06	1.099775e-06	7.973212e-10	8.159914e+00	4.959906e+01
2.100000e-06	1.143084e-06	8.710696e-10	8.481252e+00	5.448569e+01
2.110000e-06	1.186296e-06	9.426025e-10	8.801867e+00	5.929946e+01
2.120000e-06	1.229393e-06	1.014359e-09	9.121630e+00	6.403578e+01
2.130000e-06	1.272308e-06	1.086873e-09	9.440041e+00	6.869038e+01
2.140000e-06	1.315109e-06	1.157028e-09	9.757610e+00	7.325942e+01
2.150000e-06	1.357797e-06	1.221946e-09	1.007434e+01	7.773943e+01
2.160000e-06	1.400220e-06	1.282535e-09	1.038910e+01	8.212737e+01
2.170000e-06	1.442574e-06	1.342460e-09	1.070335e+01	8.642057e+01
2.180000e-06	1.484908e-06	1.401066e-09	1.101745e+01	9.061680e+01
2.190000e-06	1.527001e-06	1.455713e-09	1.132977e+01	9.471419e+01
2.200000e-06	1.568809e-06	1.506918e-09	1.163997e+01	9.871131e+01
2.210000e-06	1.610357e-06	1.557315e-09	1.194824e+01	1.026071e+02
2.220000e-06	1.651751e-06	1.610104e-09	1.225537e+01	1.064008e+02
2.230000e-06	1.692863e-06	1.662861e-09	1.256040e+01	1.100922e+02
2.240000e-06	1.733738e-06	1.712475e-09	1.286368e+01	1.136813e+02
2.250000e-06	1.774461e-06	1.760494e-09	1.316583e+01	1.171685e+02
2.260000e-06	1.814938e-06	1.809742e-09	1.346615e+01	1.205545e+02
2.270000e-06	1.855216e-06	1.858654e-09	1.376500e+01	1.238402e+02
2.280000e-06	1.895427e-06	1.899644e-09	1.406335e+01	1.270269e+02
2.290000e-06	1.935605e-06	1.935585e-09	1.436146e+01	1.301162e+02
2.300000e-06	1.975692e-06	1.973890e-09	1.465889e+01	1.331099e+02
2.310000e-06	2.015714e-06	2.014724e-09	1.495584e+01	1.360099e+02
2.320000e-06	2.055642e-06	2.052494e-09	1.525208e+01	1.388185e+02
2.330000e-06	2.095495e-06	2.086985e-09	1.554778e+01	1.415380e+02
2.340000e-06	2.135278e-06	2.125061e-09	1.584295e+01	1.441710e+02
2.350000e-06	2.174958e-06	2.165049e-09	1.613736e+01	1.467200e+02
2.360000e-06	2.214550e-06	2.200729e-09	1.643112e+01	1.491879e+02
2.370000e-06	2.254049e-06	2.231532e-09	1.672419e+01	1.515775e+02
2.380000e-06	2.293372e-06	2.263405e-09	1.701596e+01	1.538916e+02
2.390000e-06	2.332565e-06	2.295808e-09	1.730675e+01	1.561333e+02
2.400000e-06	2.371586e-06	2.325322e-09	1.759627e+01	1.583054e+02
2.410000e-06	2.410252e-06	2.352396e-09	1.788316e+01	1.604111e+02
2.420000e-06	2.448677e-06	2.377836e-09	1.816826e+01	1.624531e+02
2.430000e-06	2.486951e-06	2.404799e-09	1.845223e+01	1.644345e+02
2.440000e-06	2.525082e-06	2.434899e-09	1.873515e+01	1.663581e+02
2.450000e-06	2.563174e-06	2.465569e-09	1.901778e+01	1.682268e+02
2.460000e-06	2.601130e-06	2.494040e-09	1.929940e+01	1.700433e+02
2.470000e-06	2.638915e-06	2.519933e-09	1.957975e+01	1.718102e+02
2.480000e-06	2.676503e-06	2.543925e-09	1.985864e+01	1.735303e+02
2.490000e-06	2.713844e-06	2.566937e-09	2.013569e+01	1.752059e+02
2.500000e-06	2.751006e-06	2.591363e-09	2.041142e+01	1.768394e+02
2.510000e-06	2.787913e-06	2.615142e-09	2.068526e+01	1.784331e+02
2.520000e-06	2.824550e-06	2.637952e-09	2.095709e+01	1.799892e+02
2.530000e-06	2.860927e-06	2.662002e-09	2.122699e+01	1.815096e+02
2.540000e-06	2.897097e-06	2.686727e-09	2.149536e+01	1.829962e+02
2.550000e-06	2.933198e-06	2.711544e-09	2.176322e+01	1.844508e+02
2.560000e-06	2.969189e-06	2.735953e-09	2.203026e+01	1.858751e+02
2.570000e-06	3.005070e-06	2.757983e-09	2.229648e+01	1.872706e+02
2.580000e-06	3.040851e-06	2.776147e-09	2.256196e+01	1.886385e+02
2.590000e-06	3.076541e-06	2.795425e-09	2.282677e+01	1.899803e+02
2.600000e-06	3.112141e-06	2.817561e-09	2.309091e+01	1.912971e+02
2.610000e-06	3.147544e-06	2.837300e-09	2.335359e+01	1.925899e+02
2.620000e-06	3.182716e-06	2.852609e-09	2.361455e+01	1.938595e+02
2.630000e-06	3.217579e-06	2.869045e-09	2.387322e+01	1.951069e+02
2.640000e-06	3.252065e-06	2.889417e-09	2.412909e+01	1.963327e+02
2.650000e-06	3.286124e-06	2.912010e-09	2.438180e+01	1.975376e+02
2.660000e-06	3.319677e-06	2.932119e-09	2.463075e+01	1.987220e+02
2.670000e-06	3.352841e-06	2.949067e-09	2.487681e+01	1.998865e+02
2.680000e-06	3.385632e-06	2.966555e-09	2.512011e+01	2.010313e+02
2.690000e-06	3.418057e-06	2.983628e-09	2.536069e+01	2.021568e+02
2.700000e-06	3.450253e-06	2.997374e-09	2.559957e+01	2.032632e+02
2.710000e-06	3.482277e-06	3.008770e-09	2.583718e+01	2.043506e+02
2.720000e-06	3.514173e-06	3.020568e-09	2.607383e+01	2.054193e+02
2.730000e-06	3.545991e-06	3.034429e-09	2.630992e+01	2.064692e+02
2.740000e-06	3.577731e-06	3.048048e-09	2.654541e+01	2.075003e+02
2.750000e-06	3.609297e-06	3.061174e-09	2.677962e+01	2.085128e+02
2.760000e-06	3.640653e-06	3.076950e-09	2.701227e+01	2.095065e+02
2.770000e-06	3.671735e-06	3.093823e-09	2.724288e+01	2.104814e+02
2.780000e-06	3.702463e-06	3.108325e-09	2.747087e+01	2.114375e+02
2.790000e-06	3.732865e-06	3.120866e-09	2.769645e+01	2.123746e+02
2.800000e-06	3.762988e-06	3.133489e-09	2.791995e+01	2.132927e+02
2.810000e-06	3.792859e-06	3.144143e-09	2.814158e+01	2.141918e+02
2.820000e-06	3.822529e-06	3.151546e-09	2.836172e+01	2.150716e+02
2.830000e-06	3.852028e-06	3.159384e-09	2.858059e+01	2.159322e+02
2.840000e-06	3.881287e-06	3.171421e-09	2.879768e+01	2.167736e+02
2.850000e-06	3.910260e-06	3.186193e-09	2.901265e+01	2.175956e+02
2.860000e-06	3.938892e-06	3.200488e-09	2.922509e+01	2.183982e+02
2.870000e-06	3.967235e-06	3.214018e-09	2.943539e+01	2.191816e+02
2.880000e-06	3.995391e-06	3.226140e-09	2.964429e+01	2.199456e+02
2.890000e-06	4.023353e-06	3.237534e-09	2.985175e+01	2.206905e+02
2.900000e-06	4.051173e-06	3.248108e-09	3.005817e+01	2.214162e+02
