# Temperatura_=_20.0
# Concentracion g/m^3_=_9000.0
# C_Vs_to_Am_M_A/Vsm_=_65563218390.804596
# pendiente_HvsI_1/m_=_3716.3
# ordenada_HvsI_A/m_=_1297.0
# frecuencia_Hz_=_135113.75811547678

Tiempo_(s)	Campo_(V.s)	Magnetizacion_(V.s)	Campo_(kA/m)	Magnetizacion_(A/m)
0.000000e+00	-5.184746e-06	-3.716066e-09	-3.836283e+01	-2.342013e+02
1.000000e-08	-5.184844e-06	-3.717973e-09	-3.836355e+01	-2.342642e+02
2.000000e-08	-5.184709e-06	-3.720002e-09	-3.836255e+01	-2.343282e+02
3.000000e-08	-5.184260e-06	-3.721819e-09	-3.835923e+01	-2.343946e+02
4.000000e-08	-5.183417e-06	-3.723259e-09	-3.835299e+01	-2.344644e+02
5.000000e-08	-5.181995e-06	-3.725641e-09	-3.834247e+01	-2.345389e+02
6.000000e-08	-5.179903e-06	-3.734548e-09	-3.832699e+01	-2.346193e+02
7.000000e-08	-5.177282e-06	-3.739468e-09	-3.830760e+01	-2.347066e+02
8.000000e-08	-5.174159e-06	-3.703792e-09	-3.828449e+01	-2.348022e+02
9.000000e-08	-5.170487e-06	-3.645022e-09	-3.825732e+01	-2.349070e+02
1.000000e-07	-5.166476e-06	-3.692651e-09	-3.822764e+01	-2.350221e+02
1.100000e-07	-5.162258e-06	-3.805630e-09	-3.819643e+01	-2.351486e+02
1.200000e-07	-5.157834e-06	-3.790988e-09	-3.816370e+01	-2.352875e+02
1.300000e-07	-5.153234e-06	-3.613542e-09	-3.812966e+01	-2.354396e+02
1.400000e-07	-5.148322e-06	-3.575172e-09	-3.809331e+01	-2.356056e+02
1.500000e-07	-5.142972e-06	-3.733963e-09	-3.805373e+01	-2.357864e+02
1.600000e-07	-5.137250e-06	-3.886442e-09	-3.801139e+01	-2.359825e+02
1.700000e-07	-5.131212e-06	-3.755772e-09	-3.796672e+01	-2.361944e+02
1.800000e-07	-5.124848e-06	-3.609125e-09	-3.791963e+01	-2.364224e+02
1.900000e-07	-5.118125e-06	-3.612265e-09	-3.786988e+01	-2.366667e+02
2.000000e-07	-5.111064e-06	-3.759269e-09	-3.781764e+01	-2.369275e+02
2.100000e-07	-5.103650e-06	-3.779636e-09	-3.776278e+01	-2.372047e+02
2.200000e-07	-5.095935e-06	-3.586452e-09	-3.770569e+01	-2.374981e+02
2.300000e-07	-5.087958e-06	-3.408716e-09	-3.764667e+01	-2.378073e+02
2.400000e-07	-5.079583e-06	-3.434916e-09	-3.758470e+01	-2.381318e+02
2.500000e-07	-5.070823e-06	-3.571048e-09	-3.751989e+01	-2.384710e+02
2.600000e-07	-5.061562e-06	-3.467133e-09	-3.745136e+01	-2.388240e+02
2.700000e-07	-5.051606e-06	-3.291634e-09	-3.737770e+01	-2.391898e+02
2.800000e-07	-5.041175e-06	-3.337093e-09	-3.730052e+01	-2.395673e+02
2.900000e-07	-5.030358e-06	-3.568455e-09	-3.722048e+01	-2.399553e+02
3.000000e-07	-5.019053e-06	-3.527741e-09	-3.713683e+01	-2.403523e+02
3.100000e-07	-5.007394e-06	-3.353416e-09	-3.705057e+01	-2.407567e+02
3.200000e-07	-4.995385e-06	-3.439910e-09	-3.696171e+01	-2.411670e+02
3.300000e-07	-4.982917e-06	-3.712748e-09	-3.686946e+01	-2.415812e+02
3.400000e-07	-4.970054e-06	-3.688271e-09	-3.677428e+01	-2.419976e+02
3.500000e-07	-4.956857e-06	-3.507630e-09	-3.667664e+01	-2.424141e+02
3.600000e-07	-4.943277e-06	-3.502987e-09	-3.657615e+01	-2.428288e+02
3.700000e-07	-4.929302e-06	-3.614069e-09	-3.647275e+01	-2.432393e+02
3.800000e-07	-4.914856e-06	-3.605931e-09	-3.636586e+01	-2.436437e+02
3.900000e-07	-4.899998e-06	-3.620555e-09	-3.625593e+01	-2.440396e+02
4.000000e-07	-4.884627e-06	-3.582551e-09	-3.614219e+01	-2.444249e+02
4.100000e-07	-4.868640e-06	-3.471917e-09	-3.602390e+01	-2.447973e+02
4.200000e-07	-4.852178e-06	-3.534433e-09	-3.590210e+01	-2.451547e+02
4.300000e-07	-4.835387e-06	-3.716926e-09	-3.577785e+01	-2.454949e+02
4.400000e-07	-4.818325e-06	-3.612064e-09	-3.565161e+01	-2.458158e+02
4.500000e-07	-4.800998e-06	-3.413483e-09	-3.552341e+01	-2.461154e+02
4.600000e-07	-4.783443e-06	-3.587427e-09	-3.539351e+01	-2.463916e+02
4.700000e-07	-4.765630e-06	-3.797381e-09	-3.526171e+01	-2.466427e+02
4.800000e-07	-4.747567e-06	-3.641558e-09	-3.512806e+01	-2.468670e+02
4.900000e-07	-4.729046e-06	-3.480228e-09	-3.499102e+01	-2.470628e+02
5.000000e-07	-4.710059e-06	-3.656791e-09	-3.485054e+01	-2.472287e+02
5.100000e-07	-4.690808e-06	-3.763106e-09	-3.470809e+01	-2.473635e+02
5.200000e-07	-4.671297e-06	-3.631526e-09	-3.456372e+01	-2.474660e+02
5.300000e-07	-4.651544e-06	-3.555430e-09	-3.441757e+01	-2.475353e+02
5.400000e-07	-4.631625e-06	-3.641667e-09	-3.427019e+01	-2.475707e+02
5.500000e-07	-4.611509e-06	-3.663591e-09	-3.412135e+01	-2.475716e+02
5.600000e-07	-4.591123e-06	-3.647906e-09	-3.397051e+01	-2.475378e+02
5.700000e-07	-4.570445e-06	-3.635218e-09	-3.381750e+01	-2.474690e+02
5.800000e-07	-4.549433e-06	-3.597803e-09	-3.366203e+01	-2.473654e+02
5.900000e-07	-4.528029e-06	-3.573714e-09	-3.350366e+01	-2.472272e+02
6.000000e-07	-4.506337e-06	-3.649334e-09	-3.334316e+01	-2.470549e+02
6.100000e-07	-4.484370e-06	-3.661767e-09	-3.318062e+01	-2.468492e+02
6.200000e-07	-4.462052e-06	-3.563042e-09	-3.301549e+01	-2.466110e+02
6.300000e-07	-4.439385e-06	-3.539371e-09	-3.284777e+01	-2.463413e+02
6.400000e-07	-4.416370e-06	-3.643304e-09	-3.267748e+01	-2.460414e+02
6.500000e-07	-4.393031e-06	-3.652423e-09	-3.250479e+01	-2.457126e+02
6.600000e-07	-4.369458e-06	-3.552901e-09	-3.233037e+01	-2.453565e+02
6.700000e-07	-4.345732e-06	-3.534908e-09	-3.215481e+01	-2.449747e+02
6.800000e-07	-4.321826e-06	-3.602305e-09	-3.197793e+01	-2.445691e+02
6.900000e-07	-4.297639e-06	-3.608545e-09	-3.179897e+01	-2.441415e+02
7.000000e-07	-4.273146e-06	-3.554847e-09	-3.161774e+01	-2.436939e+02
7.100000e-07	-4.248241e-06	-3.534990e-09	-3.143346e+01	-2.432283e+02
7.200000e-07	-4.222854e-06	-3.551883e-09	-3.124562e+01	-2.427468e+02
7.300000e-07	-4.196947e-06	-3.566113e-09	-3.105393e+01	-2.422516e+02
7.400000e-07	-4.170556e-06	-3.553679e-09	-3.085866e+01	-2.417446e+02
7.500000e-07	-4.143756e-06	-3.533002e-09	-3.066036e+01	-2.412279e+02
7.600000e-07	-4.116499e-06	-3.516452e-09	-3.045868e+01	-2.407037e+02
7.700000e-07	-4.088961e-06	-3.528352e-09	-3.025492e+01	-2.401738e+02
7.800000e-07	-4.061273e-06	-3.540037e-09	-3.005005e+01	-2.396403e+02
7.900000e-07	-4.033452e-06	-3.523096e-09	-2.984420e+01	-2.391048e+02
8.000000e-07	-4.005476e-06	-3.488053e-09	-2.963721e+01	-2.385690e+02
8.100000e-07	-3.977303e-06	-3.499801e-09	-2.942875e+01	-2.380346e+02
8.200000e-07	-3.948890e-06	-3.532758e-09	-2.921851e+01	-2.375029e+02
8.300000e-07	-3.920129e-06	-3.517973e-09	-2.900570e+01	-2.369752e+02
8.400000e-07	-3.891059e-06	-3.472370e-09	-2.879061e+01	-2.364524e+02
8.500000e-07	-3.861704e-06	-3.480969e-09	-2.857341e+01	-2.359356e+02
8.600000e-07	-3.832092e-06	-3.505650e-09	-2.835431e+01	-2.354253e+02
8.700000e-07	-3.802298e-06	-3.486018e-09	-2.813385e+01	-2.349221e+02
8.800000e-07	-3.772284e-06	-3.449427e-09	-2.791178e+01	-2.344262e+02
8.900000e-07	-3.742052e-06	-3.450787e-09	-2.768809e+01	-2.339378e+02
9.000000e-07	-3.711542e-06	-3.463183e-09	-2.746234e+01	-2.334567e+02
9.100000e-07	-3.680721e-06	-3.454855e-09	-2.723428e+01	-2.329825e+02
9.200000e-07	-3.649660e-06	-3.435774e-09	-2.700446e+01	-2.325147e+02
9.300000e-07	-3.618401e-06	-3.424285e-09	-2.677317e+01	-2.320525e+02
9.400000e-07	-3.586944e-06	-3.422745e-09	-2.654041e+01	-2.315952e+02
9.500000e-07	-3.555273e-06	-3.424037e-09	-2.630607e+01	-2.311414e+02
9.600000e-07	-3.523447e-06	-3.414253e-09	-2.607059e+01	-2.306900e+02
9.700000e-07	-3.491477e-06	-3.395696e-09	-2.583404e+01	-2.302396e+02
9.800000e-07	-3.459258e-06	-3.388899e-09	-2.559564e+01	-2.297886e+02
9.900000e-07	-3.426777e-06	-3.393029e-09	-2.535531e+01	-2.293352e+02
1.000000e-06	-3.393983e-06	-3.388000e-09	-2.511266e+01	-2.288778e+02
1.010000e-06	-3.360810e-06	-3.365334e-09	-2.486721e+01	-2.284144e+02
1.020000e-06	-3.327285e-06	-3.348971e-09	-2.461915e+01	-2.279432e+02
1.030000e-06	-3.293447e-06	-3.347797e-09	-2.436878e+01	-2.274621e+02
1.040000e-06	-3.259328e-06	-3.345396e-09	-2.411633e+01	-2.269691e+02
1.050000e-06	-3.224715e-06	-3.326115e-09	-2.386022e+01	-2.264622e+02
1.060000e-06	-3.189659e-06	-3.314613e-09	-2.360083e+01	-2.259395e+02
1.070000e-06	-3.154328e-06	-3.317256e-09	-2.333941e+01	-2.253990e+02
1.080000e-06	-3.118754e-06	-3.317039e-09	-2.307619e+01	-2.248388e+02
1.090000e-06	-3.083073e-06	-3.300334e-09	-2.281218e+01	-2.242571e+02
1.100000e-06	-3.047289e-06	-3.284395e-09	-2.254741e+01	-2.236521e+02
1.110000e-06	-3.011429e-06	-3.277618e-09	-2.228208e+01	-2.230223e+02
1.120000e-06	-2.975439e-06	-3.268867e-09	-2.201578e+01	-2.223661e+02
1.130000e-06	-2.939288e-06	-3.251428e-09	-2.174830e+01	-2.216822e+02
1.140000e-06	-2.902971e-06	-3.234892e-09	-2.147958e+01	-2.209695e+02
1.150000e-06	-2.866460e-06	-3.223147e-09	-2.120943e+01	-2.202268e+02
1.160000e-06	-2.829718e-06	-3.218483e-09	-2.093757e+01	-2.194534e+02
1.170000e-06	-2.792697e-06	-3.213126e-09	-2.066364e+01	-2.186485e+02
1.180000e-06	-2.755440e-06	-3.199482e-09	-2.038797e+01	-2.178117e+02
1.190000e-06	-2.718014e-06	-3.183935e-09	-2.011105e+01	-2.169426e+02
1.200000e-06	-2.680413e-06	-3.174673e-09	-1.983284e+01	-2.160410e+02
1.210000e-06	-2.642642e-06	-3.166120e-09	-1.955336e+01	-2.151071e+02
1.220000e-06	-2.604709e-06	-3.146790e-09	-1.927269e+01	-2.141409e+02
1.230000e-06	-2.566577e-06	-3.127131e-09	-1.899055e+01	-2.131429e+02
1.240000e-06	-2.528292e-06	-3.117813e-09	-1.870726e+01	-2.121136e+02
1.250000e-06	-2.489841e-06	-3.109902e-09	-1.842276e+01	-2.110536e+02
1.260000e-06	-2.451221e-06	-3.094785e-09	-1.813701e+01	-2.099637e+02
1.270000e-06	-2.412541e-06	-3.076763e-09	-1.785081e+01	-2.088448e+02
1.280000e-06	-2.373694e-06	-3.063035e-09	-1.756337e+01	-2.076979e+02
1.290000e-06	-2.334576e-06	-3.050656e-09	-1.727393e+01	-2.065240e+02
1.300000e-06	-2.295243e-06	-3.035948e-09	-1.698289e+01	-2.053242e+02
1.310000e-06	-2.255814e-06	-3.018159e-09	-1.669115e+01	-2.040997e+02
1.320000e-06	-2.216301e-06	-3.000669e-09	-1.639879e+01	-2.028516e+02
1.330000e-06	-2.176620e-06	-2.985015e-09	-1.610519e+01	-2.015810e+02
1.340000e-06	-2.136835e-06	-2.968611e-09	-1.581081e+01	-2.002889e+02
1.350000e-06	-2.096991e-06	-2.950176e-09	-1.551600e+01	-1.989764e+02
1.360000e-06	-2.057081e-06	-2.928451e-09	-1.522069e+01	-1.976443e+02
1.370000e-06	-2.017056e-06	-2.907699e-09	-1.492454e+01	-1.962935e+02
1.380000e-06	-1.976929e-06	-2.891056e-09	-1.462764e+01	-1.949247e+02
1.390000e-06	-1.936715e-06	-2.872924e-09	-1.433009e+01	-1.935383e+02
1.400000e-06	-1.896422e-06	-2.850097e-09	-1.403195e+01	-1.921346e+02
1.410000e-06	-1.856015e-06	-2.827193e-09	-1.373297e+01	-1.907138e+02
1.420000e-06	-1.815388e-06	-2.807063e-09	-1.343237e+01	-1.892758e+02
1.430000e-06	-1.774454e-06	-2.786530e-09	-1.312949e+01	-1.878203e+02
1.440000e-06	-1.733294e-06	-2.762888e-09	-1.282494e+01	-1.863467e+02
1.450000e-06	-1.691952e-06	-2.738935e-09	-1.251905e+01	-1.848542e+02
1.460000e-06	-1.650350e-06	-2.713367e-09	-1.221122e+01	-1.833417e+02
1.470000e-06	-1.608599e-06	-2.689723e-09	-1.190230e+01	-1.818079e+02
1.480000e-06	-1.566716e-06	-2.667860e-09	-1.159240e+01	-1.802511e+02
1.490000e-06	-1.524675e-06	-2.642931e-09	-1.128133e+01	-1.786696e+02
1.500000e-06	-1.482502e-06	-2.613790e-09	-1.096928e+01	-1.770610e+02
1.510000e-06	-1.440144e-06	-2.587280e-09	-1.065587e+01	-1.754231e+02
1.520000e-06	-1.397558e-06	-2.565040e-09	-1.034077e+01	-1.737531e+02
1.530000e-06	-1.354776e-06	-2.542020e-09	-1.002422e+01	-1.720481e+02
1.540000e-06	-1.311938e-06	-2.519204e-09	-9.707251e+00	-1.703051e+02
1.550000e-06	-1.269060e-06	-2.495631e-09	-9.389994e+00	-1.685207e+02
1.560000e-06	-1.226012e-06	-2.467183e-09	-9.071471e+00	-1.666913e+02
1.570000e-06	-1.182728e-06	-2.436416e-09	-8.751207e+00	-1.648133e+02
1.580000e-06	-1.139296e-06	-2.402427e-09	-8.429843e+00	-1.628829e+02
1.590000e-06	-1.095788e-06	-2.369485e-09	-8.107920e+00	-1.608962e+02
1.600000e-06	-1.052213e-06	-2.336838e-09	-7.785506e+00	-1.588490e+02
1.610000e-06	-1.008595e-06	-2.304554e-09	-7.462771e+00	-1.567375e+02
1.620000e-06	-9.649461e-07	-2.270550e-09	-7.139801e+00	-1.545574e+02
1.630000e-06	-9.212230e-07	-2.236120e-09	-6.816287e+00	-1.523047e+02
1.640000e-06	-8.774414e-07	-2.202130e-09	-6.492339e+00	-1.499754e+02
1.650000e-06	-8.336986e-07	-2.168107e-09	-6.168679e+00	-1.475656e+02
1.660000e-06	-7.899927e-07	-2.134364e-09	-5.845291e+00	-1.450714e+02
1.670000e-06	-7.462612e-07	-2.100625e-09	-5.521714e+00	-1.424892e+02
1.680000e-06	-7.024679e-07	-2.064642e-09	-5.197680e+00	-1.398156e+02
1.690000e-06	-6.586052e-07	-2.025508e-09	-4.873133e+00	-1.370473e+02
1.700000e-06	-6.146936e-07	-1.985500e-09	-4.548223e+00	-1.341813e+02
1.710000e-06	-5.708014e-07	-1.943518e-09	-4.223457e+00	-1.312149e+02
1.720000e-06	-5.268921e-07	-1.899747e-09	-3.898565e+00	-1.281458e+02
1.730000e-06	-4.829370e-07	-1.856228e-09	-3.573333e+00	-1.249720e+02
1.740000e-06	-4.389627e-07	-1.812601e-09	-3.247960e+00	-1.216918e+02
1.750000e-06	-3.949812e-07	-1.764729e-09	-2.922533e+00	-1.183039e+02
1.760000e-06	-3.510510e-07	-1.713878e-09	-2.597487e+00	-1.148076e+02
1.770000e-06	-3.071060e-07	-1.663175e-09	-2.272330e+00	-1.112025e+02
1.780000e-06	-2.630729e-07	-1.613357e-09	-1.946521e+00	-1.074886e+02
1.790000e-06	-2.190023e-07	-1.561246e-09	-1.620436e+00	-1.036665e+02
1.800000e-06	-1.749361e-07	-1.505267e-09	-1.294382e+00	-9.973725e+01
1.810000e-06	-1.308768e-07	-1.447132e-09	-9.683795e-01	-9.570231e+01
1.820000e-06	-8.684798e-08	-1.390137e-09	-6.426031e-01	-9.156369e+01
1.830000e-06	-4.281551e-08	-1.332171e-09	-3.167993e-01	-8.732385e+01
1.840000e-06	1.242241e-09	-1.268660e-09	9.191551e-03	-8.298575e+01
1.850000e-06	4.530636e-08	-1.200695e-09	3.352295e-01	-7.855281e+01
1.860000e-06	8.939099e-08	-1.135129e-09	6.614192e-01	-7.402892e+01
1.870000e-06	1.334246e-07	-1.069255e-09	9.872315e-01	-6.941841e+01
1.880000e-06	1.774060e-07	-9.978087e-10	1.312657e+00	-6.472602e+01
1.890000e-06	2.214120e-07	-9.244723e-10	1.638266e+00	-5.995691e+01
1.900000e-06	2.654409e-07	-8.538771e-10	1.964043e+00	-5.511662e+01
1.910000e-06	3.094341e-07	-7.817156e-10	2.289556e+00	-5.021104e+01
1.920000e-06	3.533733e-07	-7.025707e-10	2.614670e+00	-4.524637e+01
1.930000e-06	3.973466e-07	-6.202660e-10	2.940035e+00	-4.022913e+01
1.940000e-06	4.413511e-07	-5.416802e-10	3.265633e+00	-3.516606e+01
1.950000e-06	4.853497e-07	-4.651878e-10	3.591186e+00	-3.006416e+01
1.960000e-06	5.293111e-07	-3.864001e-10	3.916463e+00	-2.493059e+01
1.970000e-06	5.731979e-07	-3.047855e-10	4.241189e+00	-1.977266e+01
1.980000e-06	6.170407e-07	-2.226137e-10	4.565590e+00	-1.459778e+01
1.990000e-06	6.608602e-07	-1.423358e-10	4.889818e+00	-9.413451e+00
2.000000e-06	7.046938e-07	-6.138996e-11	5.214150e+00	-4.227174e+00
2.010000e-06	7.484963e-07	2.233262e-11	5.538252e+00	9.535499e-01
2.020000e-06	7.922611e-07	1.052347e-10	5.862075e+00	6.121274e+00
2.030000e-06	8.360195e-07	1.853990e-10	6.185851e+00	1.126864e+01
2.040000e-06	8.796906e-07	2.646337e-10	6.508981e+00	1.638844e+01
2.050000e-06	9.233317e-07	3.465082e-10	6.831889e+00	2.147359e+01
2.060000e-06	9.669900e-07	4.285487e-10	7.154925e+00	2.651726e+01
2.070000e-06	1.010605e-06	5.068326e-10	7.477642e+00	3.151280e+01
2.080000e-06	1.054153e-06	5.800954e-10	7.799858e+00	3.645388e+01
2.090000e-06	1.097657e-06	6.535769e-10	8.121750e+00	4.133443e+01
2.100000e-06	1.141071e-06	7.288847e-10	8.442978e+00	4.614871e+01
2.110000e-06	1.184304e-06	8.021510e-10	8.762870e+00	5.089134e+01
2.120000e-06	1.227429e-06	8.734544e-10	9.081959e+00	5.555728e+01
2.130000e-06	1.270458e-06	9.425552e-10	9.400336e+00	6.014191e+01
2.140000e-06	1.313303e-06	1.010225e-09	9.717356e+00	6.464098e+01
2.150000e-06	1.355977e-06	1.075251e-09	1.003311e+01	6.905068e+01
2.160000e-06	1.398585e-06	1.135187e-09	1.034837e+01	7.336762e+01
2.170000e-06	1.441060e-06	1.191691e-09	1.066265e+01	7.758882e+01
2.180000e-06	1.483268e-06	1.246777e-09	1.097495e+01	8.171177e+01
2.190000e-06	1.525287e-06	1.301235e-09	1.128586e+01	8.573435e+01
2.200000e-06	1.567217e-06	1.355358e-09	1.159611e+01	8.965492e+01
2.210000e-06	1.609036e-06	1.405743e-09	1.190554e+01	9.347224e+01
2.220000e-06	1.650569e-06	1.453547e-09	1.221284e+01	9.718549e+01
2.230000e-06	1.691754e-06	1.500863e-09	1.251758e+01	1.007943e+02
2.240000e-06	1.732763e-06	1.549298e-09	1.282101e+01	1.042985e+02
2.250000e-06	1.773652e-06	1.595376e-09	1.312355e+01	1.076987e+02
2.260000e-06	1.814341e-06	1.638564e-09	1.342462e+01	1.109954e+02
2.270000e-06	1.854897e-06	1.682272e-09	1.372470e+01	1.141899e+02
2.280000e-06	1.895320e-06	1.724693e-09	1.402379e+01	1.172834e+02
2.290000e-06	1.935601e-06	1.763857e-09	1.432184e+01	1.202776e+02
2.300000e-06	1.975796e-06	1.801994e-09	1.461925e+01	1.231746e+02
2.310000e-06	2.015889e-06	1.839635e-09	1.491590e+01	1.259765e+02
2.320000e-06	2.055887e-06	1.875297e-09	1.521186e+01	1.286858e+02
2.330000e-06	2.095811e-06	1.909596e-09	1.550727e+01	1.313051e+02
2.340000e-06	2.135667e-06	1.945635e-09	1.580217e+01	1.338373e+02
2.350000e-06	2.175396e-06	1.981245e-09	1.609613e+01	1.362853e+02
2.360000e-06	2.215006e-06	2.014292e-09	1.638920e+01	1.386521e+02
2.370000e-06	2.254492e-06	2.046858e-09	1.668137e+01	1.409409e+02
2.380000e-06	2.293801e-06	2.080719e-09	1.697222e+01	1.431551e+02
2.390000e-06	2.332994e-06	2.113428e-09	1.726222e+01	1.452977e+02
2.400000e-06	2.372025e-06	2.141465e-09	1.755102e+01	1.473722e+02
2.410000e-06	2.410790e-06	2.168698e-09	1.783785e+01	1.493819e+02
2.420000e-06	2.449382e-06	2.195870e-09	1.812339e+01	1.513299e+02
2.430000e-06	2.487847e-06	2.222402e-09	1.840801e+01	1.532195e+02
2.440000e-06	2.526189e-06	2.247993e-09	1.869170e+01	1.550539e+02
2.450000e-06	2.564354e-06	2.274616e-09	1.897410e+01	1.568360e+02
2.460000e-06	2.602371e-06	2.302633e-09	1.925539e+01	1.585690e+02
2.470000e-06	2.640246e-06	2.330543e-09	1.953563e+01	1.602556e+02
2.480000e-06	2.677910e-06	2.355547e-09	1.981431e+01	1.618986e+02
2.490000e-06	2.715365e-06	2.379054e-09	2.009145e+01	1.635005e+02
2.500000e-06	2.752647e-06	2.404766e-09	2.036730e+01	1.650639e+02
2.510000e-06	2.789761e-06	2.430268e-09	2.064192e+01	1.665910e+02
2.520000e-06	2.826649e-06	2.451436e-09	2.091486e+01	1.680839e+02
2.530000e-06	2.863359e-06	2.469443e-09	2.118649e+01	1.695447e+02
2.540000e-06	2.899908e-06	2.487790e-09	2.145691e+01	1.709752e+02
2.550000e-06	2.936232e-06	2.510088e-09	2.172568e+01	1.723770e+02
2.560000e-06	2.972381e-06	2.534267e-09	2.199316e+01	1.737516e+02
2.570000e-06	3.008432e-06	2.555727e-09	2.225990e+01	1.751005e+02
2.580000e-06	3.044379e-06	2.575069e-09	2.252588e+01	1.764248e+02
2.590000e-06	3.080219e-06	2.595831e-09	2.279107e+01	1.777255e+02
2.600000e-06	3.115865e-06	2.616507e-09	2.305482e+01	1.790036e+02
2.610000e-06	3.151271e-06	2.632761e-09	2.331679e+01	1.802599e+02
2.620000e-06	3.186464e-06	2.647236e-09	2.357719e+01	1.814949e+02
2.630000e-06	3.221377e-06	2.662073e-09	2.383552e+01	1.827093e+02
2.640000e-06	3.255955e-06	2.678685e-09	2.409137e+01	1.839035e+02
2.650000e-06	3.290208e-06	2.698381e-09	2.434481e+01	1.850777e+02
2.660000e-06	3.324189e-06	2.719941e-09	2.459624e+01	1.862323e+02
2.670000e-06	3.357774e-06	2.740676e-09	2.484475e+01	1.873674e+02
2.680000e-06	3.390881e-06	2.760176e-09	2.508971e+01	1.884831e+02
2.690000e-06	3.423655e-06	2.777530e-09	2.533221e+01	1.895794e+02
2.700000e-06	3.456158e-06	2.792233e-09	2.557270e+01	1.906564e+02
2.710000e-06	3.488415e-06	2.804076e-09	2.581138e+01	1.917140e+02
2.720000e-06	3.520449e-06	2.814739e-09	2.604841e+01	1.927521e+02
2.730000e-06	3.552339e-06	2.824318e-09	2.628437e+01	1.937707e+02
2.740000e-06	3.584104e-06	2.835311e-09	2.651940e+01	1.947696e+02
2.750000e-06	3.615682e-06	2.849129e-09	2.675305e+01	1.957488e+02
2.760000e-06	3.647035e-06	2.863267e-09	2.698503e+01	1.967081e+02
2.770000e-06	3.678131e-06	2.877925e-09	2.721512e+01	1.976476e+02
2.780000e-06	3.708988e-06	2.892441e-09	2.744343e+01	1.985670e+02
2.790000e-06	3.739533e-06	2.904758e-09	2.766945e+01	1.994665e+02
2.800000e-06	3.769735e-06	2.916604e-09	2.789292e+01	2.003459e+02
2.810000e-06	3.799728e-06	2.928319e-09	2.811484e+01	2.012053e+02
2.820000e-06	3.829552e-06	2.938840e-09	2.833551e+01	2.020449e+02
2.830000e-06	3.859033e-06	2.948619e-09	2.855365e+01	2.028645e+02
2.840000e-06	3.888228e-06	2.959429e-09	2.876966e+01	2.036645e+02
2.850000e-06	3.917230e-06	2.972980e-09	2.898426e+01	2.044450e+02
2.860000e-06	3.945936e-06	2.984858e-09	2.919665e+01	2.052062e+02
2.870000e-06	3.974378e-06	2.996588e-09	2.940710e+01	2.059484e+02
2.880000e-06	4.002632e-06	3.009992e-09	2.961616e+01	2.066718e+02
2.890000e-06	4.030720e-06	3.022241e-09	2.982399e+01	2.073769e+02
2.900000e-06	4.058678e-06	3.032694e-09	3.003085e+01	2.080640e+02
