# Temperatura_=_20.0
# Concentracion g/m^3_=_9000.0
# C_Vs_to_Am_M_A/Vsm_=_65563218390.804596
# pendiente_HvsI_1/m_=_3716.3
# ordenada_HvsI_A/m_=_1297.0
# frecuencia_Hz_=_135116.3500104379

Tiempo_(s)	Campo_(V.s)	Magnetizacion_(V.s)	Campo_(kA/m)	Magnetizacion_(A/m)
0.000000e+00	-5.184596e-06	-3.035773e-10	-3.837618e+01	-2.119634e+01
1.000000e-08	-5.184709e-06	-3.027921e-10	-3.837701e+01	-2.126915e+01
2.000000e-08	-5.184560e-06	-3.033228e-10	-3.837591e+01	-2.131721e+01
3.000000e-08	-5.184070e-06	-3.031642e-10	-3.837228e+01	-2.133723e+01
4.000000e-08	-5.183138e-06	-3.026720e-10	-3.836539e+01	-2.132596e+01
5.000000e-08	-5.181789e-06	-3.047694e-10	-3.835540e+01	-2.128028e+01
6.000000e-08	-5.179953e-06	-3.006526e-10	-3.834181e+01	-2.119720e+01
7.000000e-08	-5.177571e-06	-2.896965e-10	-3.832418e+01	-2.107390e+01
8.000000e-08	-5.174635e-06	-2.943785e-10	-3.830244e+01	-2.090779e+01
9.000000e-08	-5.171215e-06	-3.406501e-10	-3.827713e+01	-2.069648e+01
1.000000e-07	-5.167419e-06	-3.839476e-10	-3.824903e+01	-2.043785e+01
1.100000e-07	-5.163304e-06	-3.410938e-10	-3.821857e+01	-2.013007e+01
1.200000e-07	-5.158947e-06	-2.454248e-10	-3.818632e+01	-1.977162e+01
1.300000e-07	-5.154308e-06	-2.558134e-10	-3.815199e+01	-1.936128e+01
1.400000e-07	-5.149314e-06	-3.793643e-10	-3.811502e+01	-1.889822e+01
1.500000e-07	-5.144009e-06	-3.623164e-10	-3.807575e+01	-1.838193e+01
1.600000e-07	-5.138296e-06	-1.986280e-10	-3.803347e+01	-1.781230e+01
1.700000e-07	-5.132095e-06	-7.949967e-11	-3.798757e+01	-1.718959e+01
1.800000e-07	-5.125589e-06	-2.105229e-10	-3.793941e+01	-1.651443e+01
1.900000e-07	-5.118848e-06	-2.961248e-10	-3.788951e+01	-1.578786e+01
2.000000e-07	-5.111836e-06	-2.596282e-10	-3.783761e+01	-1.501129e+01
2.100000e-07	-5.104442e-06	-1.402687e-10	-3.778288e+01	-1.418650e+01
2.200000e-07	-5.096694e-06	-1.820804e-10	-3.772553e+01	-1.331566e+01
2.300000e-07	-5.088791e-06	-2.978826e-10	-3.766703e+01	-1.240127e+01
2.400000e-07	-5.080581e-06	-3.867958e-10	-3.760626e+01	-1.144618e+01
2.500000e-07	-5.071777e-06	-3.511000e-10	-3.754109e+01	-1.045357e+01
2.600000e-07	-5.062490e-06	-2.593940e-10	-3.747236e+01	-9.426903e+00
2.700000e-07	-5.052790e-06	-2.556694e-10	-3.740056e+01	-8.369914e+00
2.800000e-07	-5.042354e-06	-2.951666e-10	-3.732330e+01	-7.286586e+00
2.900000e-07	-5.031437e-06	-2.585922e-10	-3.724250e+01	-6.181114e+00
3.000000e-07	-5.020273e-06	-8.024792e-11	-3.715987e+01	-5.057874e+00
3.100000e-07	-5.008678e-06	-6.540576e-13	-3.707404e+01	-3.921386e+00
3.200000e-07	-4.996637e-06	-3.501893e-11	-3.698491e+01	-2.776286e+00
3.300000e-07	-4.984226e-06	5.852267e-12	-3.689304e+01	-1.627279e+00
3.400000e-07	-4.971481e-06	1.894897e-10	-3.679871e+01	-4.791111e-01
3.500000e-07	-4.958301e-06	1.900239e-10	-3.670115e+01	6.634741e-01
3.600000e-07	-4.944815e-06	9.455109e-11	-3.660132e+01	1.795772e+00
3.700000e-07	-4.931059e-06	7.216797e-11	-3.649950e+01	2.913153e+00
3.800000e-07	-4.916804e-06	1.412281e-10	-3.639399e+01	4.011101e+00
3.900000e-07	-4.901964e-06	1.390515e-10	-3.628415e+01	5.085248e+00
4.000000e-07	-4.886760e-06	1.799864e-10	-3.617161e+01	6.131411e+00
4.100000e-07	-4.871125e-06	1.266730e-10	-3.605587e+01	7.145619e+00
4.200000e-07	-4.854941e-06	7.555077e-11	-3.593608e+01	8.124150e+00
4.300000e-07	-4.838330e-06	1.592875e-10	-3.581313e+01	9.063556e+00
4.400000e-07	-4.821391e-06	2.911185e-10	-3.568775e+01	9.960687e+00
4.500000e-07	-4.804167e-06	1.920052e-10	-3.556026e+01	1.081272e+01
4.600000e-07	-4.786619e-06	9.350057e-11	-3.543037e+01	1.161717e+01
4.700000e-07	-4.768807e-06	2.333738e-10	-3.529853e+01	1.237191e+01
4.800000e-07	-4.750775e-06	3.418411e-10	-3.516505e+01	1.307519e+01
4.900000e-07	-4.732450e-06	2.155305e-10	-3.502941e+01	1.372564e+01
5.000000e-07	-4.713643e-06	1.457136e-10	-3.489020e+01	1.432229e+01
5.100000e-07	-4.694437e-06	2.668930e-10	-3.474804e+01	1.486453e+01
5.200000e-07	-4.674967e-06	3.073455e-10	-3.460392e+01	1.535218e+01
5.300000e-07	-4.655229e-06	2.297079e-10	-3.445782e+01	1.578542e+01
5.400000e-07	-4.635265e-06	2.003896e-10	-3.431005e+01	1.616481e+01
5.500000e-07	-4.615068e-06	2.453977e-10	-3.416055e+01	1.649129e+01
5.600000e-07	-4.594618e-06	2.542707e-10	-3.400918e+01	1.676614e+01
5.700000e-07	-4.573837e-06	2.632889e-10	-3.385536e+01	1.699097e+01
5.800000e-07	-4.552700e-06	2.457631e-10	-3.369891e+01	1.716773e+01
5.900000e-07	-4.531215e-06	2.162852e-10	-3.353987e+01	1.729863e+01
6.000000e-07	-4.509442e-06	2.203364e-10	-3.337871e+01	1.738617e+01
6.100000e-07	-4.487451e-06	2.844277e-10	-3.321594e+01	1.743307e+01
6.200000e-07	-4.465241e-06	2.725680e-10	-3.305154e+01	1.744228e+01
6.300000e-07	-4.442748e-06	2.151825e-10	-3.288504e+01	1.741691e+01
6.400000e-07	-4.419887e-06	2.196575e-10	-3.271583e+01	1.736023e+01
6.500000e-07	-4.396705e-06	2.914107e-10	-3.254424e+01	1.727563e+01
6.600000e-07	-4.373231e-06	2.818437e-10	-3.237048e+01	1.716655e+01
6.700000e-07	-4.349498e-06	2.238662e-10	-3.219482e+01	1.703652e+01
6.800000e-07	-4.325550e-06	2.187981e-10	-3.201755e+01	1.688906e+01
6.900000e-07	-4.301322e-06	2.664165e-10	-3.183821e+01	1.672768e+01
7.000000e-07	-4.276730e-06	2.673661e-10	-3.165618e+01	1.655583e+01
7.100000e-07	-4.251817e-06	2.351554e-10	-3.147178e+01	1.637690e+01
7.200000e-07	-4.226601e-06	2.225735e-10	-3.128513e+01	1.619416e+01
7.300000e-07	-4.200918e-06	2.439368e-10	-3.109503e+01	1.601075e+01
7.400000e-07	-4.174697e-06	2.621855e-10	-3.090094e+01	1.582963e+01
7.500000e-07	-4.148083e-06	2.584561e-10	-3.070395e+01	1.565360e+01
7.600000e-07	-4.121111e-06	2.412209e-10	-3.050430e+01	1.548525e+01
7.700000e-07	-4.093786e-06	2.347600e-10	-3.030204e+01	1.532693e+01
7.800000e-07	-4.066237e-06	2.487883e-10	-3.009813e+01	1.518076e+01
7.900000e-07	-4.038488e-06	2.552589e-10	-2.989273e+01	1.504862e+01
8.000000e-07	-4.010539e-06	2.388949e-10	-2.968585e+01	1.493211e+01
8.100000e-07	-3.982367e-06	2.207629e-10	-2.947733e+01	1.483257e+01
8.200000e-07	-3.953898e-06	2.377695e-10	-2.926660e+01	1.475108e+01
8.300000e-07	-3.925158e-06	2.610291e-10	-2.905386e+01	1.468841e+01
8.400000e-07	-3.896089e-06	2.565481e-10	-2.883870e+01	1.464509e+01
8.500000e-07	-3.866691e-06	2.339102e-10	-2.862110e+01	1.462138e+01
8.600000e-07	-3.837127e-06	2.437575e-10	-2.840226e+01	1.461727e+01
8.700000e-07	-3.807414e-06	2.601954e-10	-2.818233e+01	1.463252e+01
8.800000e-07	-3.777426e-06	2.529128e-10	-2.796036e+01	1.466661e+01
8.900000e-07	-3.747173e-06	2.325910e-10	-2.773643e+01	1.471885e+01
9.000000e-07	-3.716712e-06	2.387408e-10	-2.751096e+01	1.478832e+01
9.100000e-07	-3.685949e-06	2.478093e-10	-2.728325e+01	1.487390e+01
9.200000e-07	-3.654886e-06	2.491083e-10	-2.705332e+01	1.497432e+01
9.300000e-07	-3.623707e-06	2.442074e-10	-2.682254e+01	1.508817e+01
9.400000e-07	-3.592340e-06	2.456624e-10	-2.659036e+01	1.521391e+01
9.500000e-07	-3.560736e-06	2.510057e-10	-2.635643e+01	1.534988e+01
9.600000e-07	-3.528988e-06	2.570960e-10	-2.612143e+01	1.549437e+01
9.700000e-07	-3.497031e-06	2.516633e-10	-2.588488e+01	1.564560e+01
9.800000e-07	-3.464800e-06	2.453244e-10	-2.564631e+01	1.580177e+01
9.900000e-07	-3.432322e-06	2.463997e-10	-2.540591e+01	1.596108e+01
1.000000e-06	-3.399527e-06	2.532457e-10	-2.516316e+01	1.612172e+01
1.010000e-06	-3.366339e-06	2.524636e-10	-2.491751e+01	1.628193e+01
1.020000e-06	-3.332831e-06	2.471892e-10	-2.466948e+01	1.644003e+01
1.030000e-06	-3.298995e-06	2.494509e-10	-2.441903e+01	1.659440e+01
1.040000e-06	-3.264822e-06	2.578286e-10	-2.416608e+01	1.674350e+01
1.050000e-06	-3.230312e-06	2.614261e-10	-2.391064e+01	1.688592e+01
1.060000e-06	-3.195412e-06	2.570605e-10	-2.365231e+01	1.702039e+01
1.070000e-06	-3.160134e-06	2.565680e-10	-2.339118e+01	1.714575e+01
1.080000e-06	-3.124696e-06	2.620314e-10	-2.312888e+01	1.726100e+01
1.090000e-06	-3.089208e-06	2.643756e-10	-2.286620e+01	1.736532e+01
1.100000e-06	-3.053540e-06	2.575207e-10	-2.260218e+01	1.745801e+01
1.110000e-06	-3.017670e-06	2.556122e-10	-2.233668e+01	1.753857e+01
1.120000e-06	-2.981638e-06	2.591348e-10	-2.206997e+01	1.760667e+01
1.130000e-06	-2.945446e-06	2.626148e-10	-2.180207e+01	1.766213e+01
1.140000e-06	-2.909120e-06	2.603044e-10	-2.153319e+01	1.770493e+01
1.150000e-06	-2.872593e-06	2.600429e-10	-2.126282e+01	1.773525e+01
1.160000e-06	-2.835876e-06	2.608142e-10	-2.099104e+01	1.775338e+01
1.170000e-06	-2.798981e-06	2.653838e-10	-2.071794e+01	1.775979e+01
1.180000e-06	-2.761862e-06	2.657932e-10	-2.044320e+01	1.775506e+01
1.190000e-06	-2.724524e-06	2.610344e-10	-2.016682e+01	1.773991e+01
1.200000e-06	-2.687008e-06	2.571289e-10	-1.988913e+01	1.771516e+01
1.210000e-06	-2.649241e-06	2.615928e-10	-1.960958e+01	1.768175e+01
1.220000e-06	-2.611206e-06	2.633878e-10	-1.932804e+01	1.764068e+01
1.230000e-06	-2.573008e-06	2.593736e-10	-1.904530e+01	1.759302e+01
1.240000e-06	-2.534777e-06	2.569312e-10	-1.876232e+01	1.753989e+01
1.250000e-06	-2.496452e-06	2.602367e-10	-1.847864e+01	1.748247e+01
1.260000e-06	-2.457834e-06	2.633418e-10	-1.819279e+01	1.742192e+01
1.270000e-06	-2.419062e-06	2.601283e-10	-1.790580e+01	1.735943e+01
1.280000e-06	-2.380168e-06	2.555861e-10	-1.761791e+01	1.729616e+01
1.290000e-06	-2.341042e-06	2.550637e-10	-1.732830e+01	1.723324e+01
1.300000e-06	-2.301704e-06	2.574465e-10	-1.703712e+01	1.717178e+01
1.310000e-06	-2.262229e-06	2.596585e-10	-1.674493e+01	1.711279e+01
1.320000e-06	-2.222719e-06	2.592520e-10	-1.645248e+01	1.705725e+01
1.330000e-06	-2.183152e-06	2.593373e-10	-1.615961e+01	1.700604e+01
1.340000e-06	-2.143475e-06	2.613467e-10	-1.586592e+01	1.695995e+01
1.350000e-06	-2.103697e-06	2.637235e-10	-1.557149e+01	1.691966e+01
1.360000e-06	-2.063779e-06	2.639127e-10	-1.527601e+01	1.688577e+01
1.370000e-06	-2.023747e-06	2.621543e-10	-1.497970e+01	1.685873e+01
1.380000e-06	-1.983711e-06	2.620366e-10	-1.468335e+01	1.683891e+01
1.390000e-06	-1.943624e-06	2.634771e-10	-1.438663e+01	1.682653e+01
1.400000e-06	-1.903346e-06	2.656978e-10	-1.408849e+01	1.682171e+01
1.410000e-06	-1.862797e-06	2.653044e-10	-1.378835e+01	1.682446e+01
1.420000e-06	-1.822072e-06	2.652172e-10	-1.348690e+01	1.683464e+01
1.430000e-06	-1.781274e-06	2.672941e-10	-1.318492e+01	1.685205e+01
1.440000e-06	-1.740348e-06	2.690326e-10	-1.288199e+01	1.687634e+01
1.450000e-06	-1.699243e-06	2.677779e-10	-1.257773e+01	1.690708e+01
1.460000e-06	-1.657900e-06	2.667844e-10	-1.227171e+01	1.694377e+01
1.470000e-06	-1.616361e-06	2.657248e-10	-1.196424e+01	1.698580e+01
1.480000e-06	-1.574579e-06	2.665907e-10	-1.165497e+01	1.703250e+01
1.490000e-06	-1.532560e-06	2.677207e-10	-1.134395e+01	1.708316e+01
1.500000e-06	-1.490441e-06	2.673699e-10	-1.103219e+01	1.713701e+01
1.510000e-06	-1.448152e-06	2.644451e-10	-1.071917e+01	1.719324e+01
1.520000e-06	-1.405507e-06	2.688953e-10	-1.040351e+01	1.725103e+01
1.530000e-06	-1.362676e-06	2.769658e-10	-1.008648e+01	1.730955e+01
1.540000e-06	-1.319807e-06	2.814945e-10	-9.769163e+00	1.736798e+01
1.550000e-06	-1.276800e-06	2.812234e-10	-9.450821e+00	1.742551e+01
1.560000e-06	-1.233712e-06	2.810336e-10	-9.131887e+00	1.748136e+01
1.570000e-06	-1.190588e-06	2.845342e-10	-8.812684e+00	1.753478e+01
1.580000e-06	-1.147447e-06	2.860565e-10	-8.493355e+00	1.758510e+01
1.590000e-06	-1.104217e-06	2.840351e-10	-8.173375e+00	1.763169e+01
1.600000e-06	-1.060804e-06	2.805713e-10	-7.852031e+00	1.767399e+01
1.610000e-06	-1.017287e-06	2.781345e-10	-7.529918e+00	1.771152e+01
1.620000e-06	-9.737171e-07	2.780003e-10	-7.207416e+00	1.774388e+01
1.630000e-06	-9.300351e-07	2.781238e-10	-6.884083e+00	1.777077e+01
1.640000e-06	-8.862979e-07	2.774819e-10	-6.560342e+00	1.779198e+01
1.650000e-06	-8.425205e-07	2.789147e-10	-6.236304e+00	1.780738e+01
1.660000e-06	-7.987056e-07	2.826506e-10	-5.911988e+00	1.781697e+01
1.670000e-06	-7.548995e-07	2.860541e-10	-5.587737e+00	1.782080e+01
1.680000e-06	-7.110941e-07	2.861574e-10	-5.263491e+00	1.781904e+01
1.690000e-06	-6.672928e-07	2.868170e-10	-4.939275e+00	1.781197e+01
1.700000e-06	-6.234657e-07	2.895724e-10	-4.614869e+00	1.779992e+01
1.710000e-06	-5.795634e-07	2.923728e-10	-4.289905e+00	1.778332e+01
1.720000e-06	-5.356280e-07	2.892087e-10	-3.964698e+00	1.776267e+01
1.730000e-06	-4.917087e-07	2.867714e-10	-3.639609e+00	1.773855e+01
1.740000e-06	-4.477671e-07	2.899239e-10	-3.314354e+00	1.771157e+01
1.750000e-06	-4.037896e-07	2.922432e-10	-2.988835e+00	1.768240e+01
1.760000e-06	-3.597442e-07	2.906455e-10	-2.662812e+00	1.765177e+01
1.770000e-06	-3.157155e-07	2.887884e-10	-2.336914e+00	1.762041e+01
1.780000e-06	-2.717201e-07	2.907787e-10	-2.011261e+00	1.758907e+01
1.790000e-06	-2.276814e-07	2.939183e-10	-1.685289e+00	1.755852e+01
1.800000e-06	-1.836370e-07	2.923004e-10	-1.359274e+00	1.752951e+01
1.810000e-06	-1.395689e-07	2.899247e-10	-1.033083e+00	1.750277e+01
1.820000e-06	-9.550033e-08	2.928367e-10	-7.068897e-01	1.747901e+01
1.830000e-06	-5.151261e-08	2.982206e-10	-3.812943e-01	1.745890e+01
1.840000e-06	-7.595474e-09	2.983956e-10	-5.622140e-02	1.744306e+01
1.850000e-06	3.632270e-08	2.955171e-10	2.688592e-01	1.743206e+01
1.860000e-06	8.029788e-08	2.964310e-10	5.943617e-01	1.742637e+01
1.870000e-06	1.242766e-07	2.989383e-10	9.198905e-01	1.742644e+01
1.880000e-06	1.682447e-07	2.988099e-10	1.245341e+00	1.743260e+01
1.890000e-06	2.122420e-07	2.980826e-10	1.571007e+00	1.744510e+01
1.900000e-06	2.562023e-07	3.001249e-10	1.896399e+00	1.746411e+01
1.910000e-06	3.001200e-07	3.041715e-10	2.221477e+00	1.748971e+01
1.920000e-06	3.440116e-07	3.068791e-10	2.546360e+00	1.752188e+01
1.930000e-06	3.878779e-07	3.055931e-10	2.871057e+00	1.756051e+01
1.940000e-06	4.317522e-07	3.049426e-10	3.195813e+00	1.760538e+01
1.950000e-06	4.756009e-07	3.080877e-10	3.520380e+00	1.765622e+01
1.960000e-06	5.194241e-07	3.113752e-10	3.844757e+00	1.771263e+01
1.970000e-06	5.632235e-07	3.114331e-10	4.168958e+00	1.777415e+01
1.980000e-06	6.069970e-07	3.095487e-10	4.492968e+00	1.784026e+01
1.990000e-06	6.508035e-07	3.091391e-10	4.817222e+00	1.791034e+01
2.000000e-06	6.946025e-07	3.096274e-10	5.141420e+00	1.798374e+01
2.010000e-06	7.383332e-07	3.064826e-10	5.465114e+00	1.805974e+01
2.020000e-06	7.820293e-07	3.016741e-10	5.788550e+00	1.813758e+01
2.030000e-06	8.257212e-07	3.019213e-10	6.111956e+00	1.821649e+01
2.040000e-06	8.693757e-07	3.076491e-10	6.435085e+00	1.829565e+01
2.050000e-06	9.130270e-07	3.095906e-10	6.758190e+00	1.837427e+01
2.060000e-06	9.566408e-07	3.076018e-10	7.081018e+00	1.845153e+01
2.070000e-06	1.000145e-06	3.071779e-10	7.403036e+00	1.852663e+01
2.080000e-06	1.043616e-06	3.085104e-10	7.724805e+00	1.859882e+01
2.090000e-06	1.087124e-06	3.079680e-10	8.046852e+00	1.866735e+01
2.100000e-06	1.130605e-06	3.057028e-10	8.368695e+00	1.873154e+01
2.110000e-06	1.174029e-06	3.052291e-10	8.690120e+00	1.879077e+01
2.120000e-06	1.217376e-06	3.068076e-10	9.010971e+00	1.884446e+01
2.130000e-06	1.260575e-06	3.097635e-10	9.330726e+00	1.889214e+01
2.140000e-06	1.303644e-06	3.099848e-10	9.649521e+00	1.893338e+01
2.150000e-06	1.346579e-06	3.086363e-10	9.967327e+00	1.896788e+01
2.160000e-06	1.389342e-06	3.100149e-10	1.028386e+01	1.899539e+01
2.170000e-06	1.431950e-06	3.117746e-10	1.059923e+01	1.901577e+01
2.180000e-06	1.474414e-06	3.110441e-10	1.091355e+01	1.902900e+01
2.190000e-06	1.516649e-06	3.114465e-10	1.122618e+01	1.903514e+01
2.200000e-06	1.558622e-06	3.136823e-10	1.153686e+01	1.903433e+01
2.210000e-06	1.600367e-06	3.154459e-10	1.184585e+01	1.902684e+01
2.220000e-06	1.641816e-06	3.164148e-10	1.215266e+01	1.901302e+01
2.230000e-06	1.683129e-06	3.162825e-10	1.245845e+01	1.899330e+01
2.240000e-06	1.724300e-06	3.157719e-10	1.276320e+01	1.896821e+01
2.250000e-06	1.765164e-06	3.158976e-10	1.306567e+01	1.893835e+01
2.260000e-06	1.805772e-06	3.164106e-10	1.336625e+01	1.890439e+01
2.270000e-06	1.846185e-06	3.144442e-10	1.366539e+01	1.886706e+01
2.280000e-06	1.886473e-06	3.142606e-10	1.396360e+01	1.882714e+01
2.290000e-06	1.926676e-06	3.189387e-10	1.426118e+01	1.878546e+01
2.300000e-06	1.966826e-06	3.198787e-10	1.455837e+01	1.874286e+01
2.310000e-06	2.006882e-06	3.170394e-10	1.485486e+01	1.870022e+01
2.320000e-06	2.046862e-06	3.173887e-10	1.515079e+01	1.865842e+01
2.330000e-06	2.086742e-06	3.198931e-10	1.544598e+01	1.861833e+01
2.340000e-06	2.126513e-06	3.179801e-10	1.574036e+01	1.858080e+01
2.350000e-06	2.166201e-06	3.150831e-10	1.603414e+01	1.854666e+01
2.360000e-06	2.205801e-06	3.152847e-10	1.632725e+01	1.851670e+01
2.370000e-06	2.245343e-06	3.162337e-10	1.661994e+01	1.849165e+01
2.380000e-06	2.284768e-06	3.176664e-10	1.691177e+01	1.847219e+01
2.390000e-06	2.324015e-06	3.178646e-10	1.720227e+01	1.845891e+01
2.400000e-06	2.363111e-06	3.177503e-10	1.749166e+01	1.845234e+01
2.410000e-06	2.402020e-06	3.195433e-10	1.777966e+01	1.845291e+01
2.420000e-06	2.440785e-06	3.208269e-10	1.806659e+01	1.846097e+01
2.430000e-06	2.479335e-06	3.194493e-10	1.835194e+01	1.847674e+01
2.440000e-06	2.517661e-06	3.159777e-10	1.863563e+01	1.850038e+01
2.450000e-06	2.555798e-06	3.149012e-10	1.891791e+01	1.853192e+01
2.460000e-06	2.593684e-06	3.156946e-10	1.919835e+01	1.857127e+01
2.470000e-06	2.631443e-06	3.147107e-10	1.947784e+01	1.861826e+01
2.480000e-06	2.669075e-06	3.152590e-10	1.975639e+01	1.867259e+01
2.490000e-06	2.706536e-06	3.170065e-10	2.003368e+01	1.873389e+01
2.500000e-06	2.743836e-06	3.172605e-10	2.030976e+01	1.880166e+01
2.510000e-06	2.780935e-06	3.136864e-10	2.058437e+01	1.887533e+01
2.520000e-06	2.817771e-06	3.101179e-10	2.085703e+01	1.895423e+01
2.530000e-06	2.854459e-06	3.083182e-10	2.112859e+01	1.903761e+01
2.540000e-06	2.891002e-06	3.078208e-10	2.139908e+01	1.912469e+01
2.550000e-06	2.927284e-06	3.078142e-10	2.166764e+01	1.921458e+01
2.560000e-06	2.963310e-06	3.090444e-10	2.193430e+01	1.930638e+01
2.570000e-06	2.999183e-06	3.098649e-10	2.219983e+01	1.939915e+01
2.580000e-06	3.034986e-06	3.130641e-10	2.246485e+01	1.949191e+01
2.590000e-06	3.070760e-06	3.175697e-10	2.272965e+01	1.958371e+01
2.600000e-06	3.106472e-06	3.161746e-10	2.299398e+01	1.967356e+01
2.610000e-06	3.142004e-06	3.120196e-10	2.325699e+01	1.976052e+01
2.620000e-06	3.177339e-06	3.117151e-10	2.351854e+01	1.984366e+01
2.630000e-06	3.212385e-06	3.137286e-10	2.377795e+01	1.992210e+01
2.640000e-06	3.247145e-06	3.136616e-10	2.403524e+01	1.999502e+01
2.650000e-06	3.281555e-06	3.130195e-10	2.428994e+01	2.006166e+01
2.660000e-06	3.315522e-06	3.132944e-10	2.454136e+01	2.012132e+01
2.670000e-06	3.349023e-06	3.145994e-10	2.478934e+01	2.017343e+01
2.680000e-06	3.382093e-06	3.163339e-10	2.503412e+01	2.021747e+01
2.690000e-06	3.414858e-06	3.195601e-10	2.527664e+01	2.025305e+01
2.700000e-06	3.447341e-06	3.220485e-10	2.551709e+01	2.027987e+01
2.710000e-06	3.479556e-06	3.232155e-10	2.575554e+01	2.029777e+01
2.720000e-06	3.511592e-06	3.220885e-10	2.599267e+01	2.030667e+01
2.730000e-06	3.543508e-06	3.215778e-10	2.622891e+01	2.030664e+01
2.740000e-06	3.575283e-06	3.234818e-10	2.646410e+01	2.029786e+01
2.750000e-06	3.606913e-06	3.261777e-10	2.669823e+01	2.028060e+01
2.760000e-06	3.638424e-06	3.272804e-10	2.693147e+01	2.025529e+01
2.770000e-06	3.669686e-06	3.288902e-10	2.716287e+01	2.022244e+01
2.780000e-06	3.700596e-06	3.320474e-10	2.739167e+01	2.018267e+01
2.790000e-06	3.731201e-06	3.354526e-10	2.761821e+01	2.013669e+01
2.800000e-06	3.761497e-06	3.356833e-10	2.784245e+01	2.008530e+01
2.810000e-06	3.791493e-06	3.334274e-10	2.806448e+01	2.002939e+01
2.820000e-06	3.821290e-06	3.319532e-10	2.828504e+01	1.996990e+01
2.830000e-06	3.850950e-06	3.306277e-10	2.850458e+01	1.990782e+01
2.840000e-06	3.880390e-06	3.296115e-10	2.872249e+01	1.984421e+01
2.850000e-06	3.909501e-06	3.287595e-10	2.893797e+01	1.978011e+01
2.860000e-06	3.938259e-06	3.308470e-10	2.915084e+01	1.971662e+01
2.870000e-06	3.966744e-06	3.381223e-10	2.936169e+01	1.965481e+01
2.880000e-06	3.994971e-06	3.416506e-10	2.957062e+01	1.959573e+01
2.890000e-06	4.022991e-06	3.403302e-10	2.977803e+01	1.954043e+01
2.900000e-06	4.050890e-06	3.413421e-10	2.998453e+01	1.948987e+01
2.910000e-06	4.078612e-06	3.423079e-10	3.018973e+01	1.944500e+01
2.920000e-06	4.106105e-06	3.402103e-10	3.039323e+01	1.940665e+01
2.930000e-06	4.133383e-06	3.353824e-10	3.059514e+01	1.937560e+01
2.940000e-06	4.160281e-06	3.314560e-10	3.079423e+01	1.935253e+01
2.950000e-06	4.186619e-06	3.324808e-10	3.098919e+01	1.933799e+01
