# Temperatura_=_20.0
# Concentracion g/m^3_=_9000.0
# C_Vs_to_Am_M_A/Vsm_=_65563218390.804596
# pendiente_HvsI_1/m_=_3716.3
# ordenada_HvsI_A/m_=_1297.0
# frecuencia_Hz_=_135114.31149769356

Tiempo_(s)	Campo_(V.s)	Magnetizacion_(V.s)	Campo_(kA/m)	Magnetizacion_(A/m)
0.000000e+00	-5.202593e-06	-3.853312e-09	-3.836681e+01	-2.513027e+02
1.000000e-08	-5.202787e-06	-3.852014e-09	-3.836824e+01	-2.512545e+02
2.000000e-08	-5.202771e-06	-3.850467e-09	-3.836812e+01	-2.512041e+02
3.000000e-08	-5.202474e-06	-3.849286e-09	-3.836593e+01	-2.511526e+02
4.000000e-08	-5.201865e-06	-3.848336e-09	-3.836144e+01	-2.511011e+02
5.000000e-08	-5.200758e-06	-3.846011e-09	-3.835328e+01	-2.510510e+02
6.000000e-08	-5.199032e-06	-3.849255e-09	-3.834055e+01	-2.510035e+02
7.000000e-08	-5.196770e-06	-3.864338e-09	-3.832387e+01	-2.509598e+02
8.000000e-08	-5.193961e-06	-3.869617e-09	-3.830315e+01	-2.509214e+02
9.000000e-08	-5.190573e-06	-3.835268e-09	-3.827817e+01	-2.508894e+02
1.000000e-07	-5.186695e-06	-3.794176e-09	-3.824957e+01	-2.508652e+02
1.100000e-07	-5.182548e-06	-3.831928e-09	-3.821899e+01	-2.508502e+02
1.200000e-07	-5.178265e-06	-3.888897e-09	-3.818740e+01	-2.508454e+02
1.300000e-07	-5.173726e-06	-3.879077e-09	-3.815393e+01	-2.508521e+02
1.400000e-07	-5.168801e-06	-3.795738e-09	-3.811761e+01	-2.508716e+02
1.500000e-07	-5.163508e-06	-3.781010e-09	-3.807857e+01	-2.509047e+02
1.600000e-07	-5.157883e-06	-3.885836e-09	-3.803709e+01	-2.509526e+02
1.700000e-07	-5.151882e-06	-3.976170e-09	-3.799284e+01	-2.510160e+02
1.800000e-07	-5.145504e-06	-3.943007e-09	-3.794580e+01	-2.510959e+02
1.900000e-07	-5.138857e-06	-3.863959e-09	-3.789679e+01	-2.511929e+02
2.000000e-07	-5.131971e-06	-3.846403e-09	-3.784600e+01	-2.513074e+02
2.100000e-07	-5.124729e-06	-3.944437e-09	-3.779260e+01	-2.514400e+02
2.200000e-07	-5.117153e-06	-3.971523e-09	-3.773672e+01	-2.515908e+02
2.300000e-07	-5.109328e-06	-3.868861e-09	-3.767902e+01	-2.517599e+02
2.400000e-07	-5.101173e-06	-3.735373e-09	-3.761888e+01	-2.519474e+02
2.500000e-07	-5.092462e-06	-3.746780e-09	-3.755464e+01	-2.521529e+02
2.600000e-07	-5.083255e-06	-3.804903e-09	-3.748674e+01	-2.523760e+02
2.700000e-07	-5.073687e-06	-3.784307e-09	-3.741618e+01	-2.526162e+02
2.800000e-07	-5.063604e-06	-3.723473e-09	-3.734182e+01	-2.528726e+02
2.900000e-07	-5.052937e-06	-3.741537e-09	-3.726316e+01	-2.531443e+02
3.000000e-07	-5.041706e-06	-3.808260e-09	-3.718033e+01	-2.534303e+02
3.100000e-07	-5.030064e-06	-3.828190e-09	-3.709448e+01	-2.537292e+02
3.200000e-07	-5.018164e-06	-3.820854e-09	-3.700673e+01	-2.540395e+02
3.300000e-07	-5.005864e-06	-3.858051e-09	-3.691602e+01	-2.543597e+02
3.400000e-07	-4.993169e-06	-3.931072e-09	-3.682240e+01	-2.546879e+02
3.500000e-07	-4.980097e-06	-3.940254e-09	-3.672600e+01	-2.550222e+02
3.600000e-07	-4.966614e-06	-3.915039e-09	-3.662657e+01	-2.553606e+02
3.700000e-07	-4.952763e-06	-3.878977e-09	-3.652442e+01	-2.557009e+02
3.800000e-07	-4.938463e-06	-3.874493e-09	-3.641896e+01	-2.560408e+02
3.900000e-07	-4.923653e-06	-3.896048e-09	-3.630975e+01	-2.563780e+02
4.000000e-07	-4.908388e-06	-3.954280e-09	-3.619718e+01	-2.567100e+02
4.100000e-07	-4.892574e-06	-3.891790e-09	-3.608055e+01	-2.570344e+02
4.200000e-07	-4.876177e-06	-3.837665e-09	-3.595963e+01	-2.573486e+02
4.300000e-07	-4.859409e-06	-3.917090e-09	-3.583598e+01	-2.576501e+02
4.400000e-07	-4.842377e-06	-4.016746e-09	-3.571037e+01	-2.579364e+02
4.500000e-07	-4.825096e-06	-3.947136e-09	-3.558293e+01	-2.582049e+02
4.600000e-07	-4.807607e-06	-3.903954e-09	-3.545396e+01	-2.584532e+02
4.700000e-07	-4.789810e-06	-3.993981e-09	-3.532271e+01	-2.586790e+02
4.800000e-07	-4.771662e-06	-4.043364e-09	-3.518888e+01	-2.588798e+02
4.900000e-07	-4.753190e-06	-3.969547e-09	-3.505266e+01	-2.590535e+02
5.000000e-07	-4.734336e-06	-3.950234e-09	-3.491362e+01	-2.591980e+02
5.100000e-07	-4.715116e-06	-3.991454e-09	-3.477188e+01	-2.593113e+02
5.200000e-07	-4.695581e-06	-3.982520e-09	-3.462782e+01	-2.593918e+02
5.300000e-07	-4.675822e-06	-3.958224e-09	-3.448211e+01	-2.594378e+02
5.400000e-07	-4.655872e-06	-3.966170e-09	-3.433499e+01	-2.594478e+02
5.500000e-07	-4.635769e-06	-3.950423e-09	-3.418673e+01	-2.594207e+02
5.600000e-07	-4.615444e-06	-3.934303e-09	-3.403685e+01	-2.593554e+02
5.700000e-07	-4.594659e-06	-3.964405e-09	-3.388357e+01	-2.592513e+02
5.800000e-07	-4.573510e-06	-3.955541e-09	-3.372760e+01	-2.591077e+02
5.900000e-07	-4.552112e-06	-3.899946e-09	-3.356980e+01	-2.589243e+02
6.000000e-07	-4.530452e-06	-3.895853e-09	-3.341007e+01	-2.587011e+02
6.100000e-07	-4.508532e-06	-3.937668e-09	-3.324841e+01	-2.584382e+02
6.200000e-07	-4.486209e-06	-3.913833e-09	-3.308380e+01	-2.581360e+02
6.300000e-07	-4.463564e-06	-3.871273e-09	-3.291679e+01	-2.577952e+02
6.400000e-07	-4.440645e-06	-3.880267e-09	-3.274778e+01	-2.574165e+02
6.500000e-07	-4.417379e-06	-3.903615e-09	-3.257620e+01	-2.570012e+02
6.600000e-07	-4.393828e-06	-3.880221e-09	-3.240253e+01	-2.565504e+02
6.700000e-07	-4.370070e-06	-3.859092e-09	-3.222732e+01	-2.560656e+02
6.800000e-07	-4.346164e-06	-3.852997e-09	-3.205103e+01	-2.555485e+02
6.900000e-07	-4.322063e-06	-3.853682e-09	-3.187329e+01	-2.550009e+02
7.000000e-07	-4.297646e-06	-3.846893e-09	-3.169323e+01	-2.544248e+02
7.100000e-07	-4.272841e-06	-3.840343e-09	-3.151030e+01	-2.538223e+02
7.200000e-07	-4.247523e-06	-3.821527e-09	-3.132359e+01	-2.531956e+02
7.300000e-07	-4.221693e-06	-3.814612e-09	-3.113311e+01	-2.525469e+02
7.400000e-07	-4.195490e-06	-3.817216e-09	-3.093987e+01	-2.518786e+02
7.500000e-07	-4.168860e-06	-3.811883e-09	-3.074349e+01	-2.511930e+02
7.600000e-07	-4.141779e-06	-3.787759e-09	-3.054378e+01	-2.504927e+02
7.700000e-07	-4.114355e-06	-3.773969e-09	-3.034153e+01	-2.497800e+02
7.800000e-07	-4.086691e-06	-3.776040e-09	-3.013753e+01	-2.490571e+02
7.900000e-07	-4.058886e-06	-3.771940e-09	-2.993248e+01	-2.483265e+02
8.000000e-07	-4.030969e-06	-3.748370e-09	-2.972660e+01	-2.475903e+02
8.100000e-07	-4.002820e-06	-3.730143e-09	-2.951902e+01	-2.468507e+02
8.200000e-07	-3.974383e-06	-3.733623e-09	-2.930931e+01	-2.461096e+02
8.300000e-07	-3.945637e-06	-3.736976e-09	-2.909731e+01	-2.453690e+02
8.400000e-07	-3.916472e-06	-3.722244e-09	-2.888223e+01	-2.446304e+02
8.500000e-07	-3.886990e-06	-3.703871e-09	-2.866482e+01	-2.438953e+02
8.600000e-07	-3.857388e-06	-3.698790e-09	-2.844652e+01	-2.431652e+02
8.700000e-07	-3.827648e-06	-3.692923e-09	-2.822720e+01	-2.424411e+02
8.800000e-07	-3.797645e-06	-3.679785e-09	-2.800594e+01	-2.417239e+02
8.900000e-07	-3.767376e-06	-3.660423e-09	-2.778272e+01	-2.410142e+02
9.000000e-07	-3.736840e-06	-3.650127e-09	-2.755753e+01	-2.403125e+02
9.100000e-07	-3.706046e-06	-3.643822e-09	-2.733044e+01	-2.396190e+02
9.200000e-07	-3.674948e-06	-3.638437e-09	-2.710111e+01	-2.389336e+02
9.300000e-07	-3.643527e-06	-3.624736e-09	-2.686939e+01	-2.382561e+02
9.400000e-07	-3.611904e-06	-3.607895e-09	-2.663618e+01	-2.375859e+02
9.500000e-07	-3.580149e-06	-3.596752e-09	-2.640201e+01	-2.369223e+02
9.600000e-07	-3.548259e-06	-3.593718e-09	-2.616683e+01	-2.362644e+02
9.700000e-07	-3.516163e-06	-3.580235e-09	-2.593014e+01	-2.356110e+02
9.800000e-07	-3.483844e-06	-3.562123e-09	-2.569180e+01	-2.349607e+02
9.900000e-07	-3.451356e-06	-3.549633e-09	-2.545222e+01	-2.343121e+02
1.000000e-06	-3.418649e-06	-3.544441e-09	-2.521101e+01	-2.336635e+02
1.010000e-06	-3.385665e-06	-3.532764e-09	-2.496777e+01	-2.330129e+02
1.020000e-06	-3.352302e-06	-3.514672e-09	-2.472173e+01	-2.323585e+02
1.030000e-06	-3.318465e-06	-3.501399e-09	-2.447220e+01	-2.316983e+02
1.040000e-06	-3.284242e-06	-3.493065e-09	-2.421983e+01	-2.310300e+02
1.050000e-06	-3.249697e-06	-3.480710e-09	-2.396507e+01	-2.303515e+02
1.060000e-06	-3.214710e-06	-3.464721e-09	-2.370706e+01	-2.296607e+02
1.070000e-06	-3.179297e-06	-3.449766e-09	-2.344590e+01	-2.289553e+02
1.080000e-06	-3.143669e-06	-3.436507e-09	-2.318316e+01	-2.282330e+02
1.090000e-06	-3.107927e-06	-3.423396e-09	-2.291958e+01	-2.274919e+02
1.100000e-06	-3.072121e-06	-3.408453e-09	-2.265552e+01	-2.267296e+02
1.110000e-06	-3.036241e-06	-3.393922e-09	-2.239093e+01	-2.259443e+02
1.120000e-06	-3.000222e-06	-3.379416e-09	-2.212530e+01	-2.251341e+02
1.130000e-06	-2.964018e-06	-3.366151e-09	-2.185831e+01	-2.242971e+02
1.140000e-06	-2.927640e-06	-3.352193e-09	-2.159004e+01	-2.234318e+02
1.150000e-06	-2.891103e-06	-3.336118e-09	-2.132060e+01	-2.225367e+02
1.160000e-06	-2.854414e-06	-3.318248e-09	-2.105003e+01	-2.216104e+02
1.170000e-06	-2.817542e-06	-3.305253e-09	-2.077811e+01	-2.206519e+02
1.180000e-06	-2.780413e-06	-3.292985e-09	-2.050431e+01	-2.196602e+02
1.190000e-06	-2.743040e-06	-3.274941e-09	-2.022870e+01	-2.186347e+02
1.200000e-06	-2.705456e-06	-3.253083e-09	-1.995153e+01	-2.175747e+02
1.210000e-06	-2.667669e-06	-3.236026e-09	-1.967287e+01	-2.164801e+02
1.220000e-06	-2.629624e-06	-3.218801e-09	-1.939231e+01	-2.153507e+02
1.230000e-06	-2.591343e-06	-3.196992e-09	-1.911000e+01	-2.141866e+02
1.240000e-06	-2.552913e-06	-3.177123e-09	-1.882660e+01	-2.129881e+02
1.250000e-06	-2.514360e-06	-3.161807e-09	-1.854229e+01	-2.117556e+02
1.260000e-06	-2.475619e-06	-3.142771e-09	-1.825659e+01	-2.104899e+02
1.270000e-06	-2.436601e-06	-3.121872e-09	-1.796885e+01	-2.091917e+02
1.280000e-06	-2.397509e-06	-3.101707e-09	-1.768056e+01	-2.078619e+02
1.290000e-06	-2.358386e-06	-3.083495e-09	-1.739205e+01	-2.065017e+02
1.300000e-06	-2.319086e-06	-3.065818e-09	-1.710222e+01	-2.051121e+02
1.310000e-06	-2.279622e-06	-3.046690e-09	-1.681120e+01	-2.036945e+02
1.320000e-06	-2.239992e-06	-3.025597e-09	-1.651894e+01	-2.022502e+02
1.330000e-06	-2.200261e-06	-3.004071e-09	-1.622594e+01	-2.007804e+02
1.340000e-06	-2.160505e-06	-2.982676e-09	-1.593276e+01	-1.992865e+02
1.350000e-06	-2.120693e-06	-2.962622e-09	-1.563917e+01	-1.977698e+02
1.360000e-06	-2.080718e-06	-2.941598e-09	-1.534437e+01	-1.962316e+02
1.370000e-06	-2.040618e-06	-2.917412e-09	-1.504865e+01	-1.946730e+02
1.380000e-06	-2.000443e-06	-2.895339e-09	-1.475237e+01	-1.930951e+02
1.390000e-06	-1.960192e-06	-2.877135e-09	-1.445554e+01	-1.914988e+02
1.400000e-06	-1.919808e-06	-2.858826e-09	-1.415773e+01	-1.898849e+02
1.410000e-06	-1.879243e-06	-2.836013e-09	-1.385858e+01	-1.882539e+02
1.420000e-06	-1.838527e-06	-2.811886e-09	-1.355832e+01	-1.866064e+02
1.430000e-06	-1.797621e-06	-2.788191e-09	-1.325665e+01	-1.849424e+02
1.440000e-06	-1.756494e-06	-2.762941e-09	-1.295336e+01	-1.832619e+02
1.450000e-06	-1.715159e-06	-2.733595e-09	-1.264853e+01	-1.815645e+02
1.460000e-06	-1.673682e-06	-2.704579e-09	-1.234266e+01	-1.798496e+02
1.470000e-06	-1.632028e-06	-2.676308e-09	-1.203548e+01	-1.781163e+02
1.480000e-06	-1.590103e-06	-2.651793e-09	-1.172630e+01	-1.763634e+02
1.490000e-06	-1.547854e-06	-2.627120e-09	-1.141474e+01	-1.745894e+02
1.500000e-06	-1.505340e-06	-2.599424e-09	-1.110122e+01	-1.727925e+02
1.510000e-06	-1.462721e-06	-2.569936e-09	-1.078692e+01	-1.709706e+02
1.520000e-06	-1.419916e-06	-2.543104e-09	-1.047125e+01	-1.691213e+02
1.530000e-06	-1.376869e-06	-2.518003e-09	-1.015379e+01	-1.672420e+02
1.540000e-06	-1.333675e-06	-2.491516e-09	-9.835261e+00	-1.653298e+02
1.550000e-06	-1.290436e-06	-2.461689e-09	-9.516394e+00	-1.633813e+02
1.560000e-06	-1.247175e-06	-2.428968e-09	-9.197358e+00	-1.613933e+02
1.570000e-06	-1.203747e-06	-2.395163e-09	-8.877100e+00	-1.593619e+02
1.580000e-06	-1.160172e-06	-2.361386e-09	-8.555753e+00	-1.572835e+02
1.590000e-06	-1.116578e-06	-2.326607e-09	-8.234269e+00	-1.551539e+02
1.600000e-06	-1.072969e-06	-2.292916e-09	-7.912667e+00	-1.529691e+02
1.610000e-06	-1.029277e-06	-2.258727e-09	-7.590457e+00	-1.507247e+02
1.620000e-06	-9.855375e-07	-2.222700e-09	-7.267900e+00	-1.484165e+02
1.630000e-06	-9.417928e-07	-2.183843e-09	-6.945303e+00	-1.460401e+02
1.640000e-06	-8.980103e-07	-2.143095e-09	-6.622426e+00	-1.435912e+02
1.650000e-06	-8.541726e-07	-2.102176e-09	-6.299143e+00	-1.410654e+02
1.660000e-06	-8.103191e-07	-2.058817e-09	-5.975743e+00	-1.384586e+02
1.670000e-06	-7.664191e-07	-2.019347e-09	-5.652000e+00	-1.357666e+02
1.680000e-06	-7.224535e-07	-1.980252e-09	-5.327773e+00	-1.329855e+02
1.690000e-06	-6.784952e-07	-1.936333e-09	-5.003600e+00	-1.301116e+02
1.700000e-06	-6.345022e-07	-1.892101e-09	-4.679171e+00	-1.271415e+02
1.710000e-06	-5.905041e-07	-1.851832e-09	-4.354705e+00	-1.240718e+02
1.720000e-06	-5.465421e-07	-1.806285e-09	-4.030504e+00	-1.208996e+02
1.730000e-06	-5.025624e-07	-1.755830e-09	-3.706174e+00	-1.176226e+02
1.740000e-06	-4.585648e-07	-1.706445e-09	-3.381711e+00	-1.142383e+02
1.750000e-06	-4.145683e-07	-1.655938e-09	-3.057257e+00	-1.107452e+02
1.760000e-06	-3.705850e-07	-1.601357e-09	-2.732899e+00	-1.071419e+02
1.770000e-06	-3.265691e-07	-1.543892e-09	-2.408302e+00	-1.034275e+02
1.780000e-06	-2.824922e-07	-1.488300e-09	-2.083255e+00	-9.960160e+01
1.790000e-06	-2.383728e-07	-1.435526e-09	-1.757893e+00	-9.566439e+01
1.800000e-06	-1.941913e-07	-1.379658e-09	-1.432074e+00	-9.161647e+01
1.810000e-06	-1.500054e-07	-1.318546e-09	-1.106223e+00	-8.745901e+01
1.820000e-06	-1.058812e-07	-1.256140e-09	-7.808269e-01	-8.319369e+01
1.830000e-06	-6.177570e-08	-1.192648e-09	-4.555683e-01	-7.882273e+01
1.840000e-06	-1.770421e-08	-1.125064e-09	-1.305607e-01	-7.434887e+01
1.850000e-06	2.632934e-08	-1.053768e-09	1.941671e-01	-6.977537e+01
1.860000e-06	7.037301e-08	-9.831953e-10	5.189696e-01	-6.510603e+01
1.870000e-06	1.144687e-07	-9.127612e-10	8.441559e-01	-6.034511e+01
1.880000e-06	1.585890e-07	-8.384960e-10	1.169523e+00	-5.549737e+01
1.890000e-06	2.027075e-07	-7.636188e-10	1.494877e+00	-5.056804e+01
1.900000e-06	2.467830e-07	-6.887997e-10	1.819915e+00	-4.556277e+01
1.910000e-06	2.908115e-07	-6.125083e-10	2.144605e+00	-4.048761e+01
1.920000e-06	3.348610e-07	-5.343788e-10	2.469451e+00	-3.534898e+01
1.930000e-06	3.789217e-07	-4.514823e-10	2.794379e+00	-3.015367e+01
1.940000e-06	4.229852e-07	-3.677790e-10	3.119328e+00	-2.490874e+01
1.950000e-06	4.670327e-07	-2.860982e-10	3.444159e+00	-1.962153e+01
1.960000e-06	5.110201e-07	-2.040173e-10	3.768546e+00	-1.429958e+01
1.970000e-06	5.549872e-07	-1.214734e-10	4.092784e+00	-8.950647e+00
1.980000e-06	5.989463e-07	-3.804427e-11	4.416962e+00	-3.582590e+00
1.990000e-06	6.428819e-07	4.628275e-11	4.740968e+00	1.796626e+00
2.000000e-06	6.868026e-07	1.296710e-10	5.064864e+00	7.178994e+00
2.010000e-06	7.306924e-07	2.137156e-10	5.388531e+00	1.255651e+01
2.020000e-06	7.745809e-07	2.986403e-10	5.712189e+00	1.792120e+01
2.030000e-06	8.184500e-07	3.822172e-10	6.035704e+00	2.326520e+01
2.040000e-06	8.622723e-07	4.631766e-10	6.358874e+00	2.858077e+01
2.050000e-06	9.060736e-07	5.437070e-10	6.681890e+00	3.386034e+01
2.060000e-06	9.498710e-07	6.251571e-10	7.004876e+00	3.909655e+01
2.070000e-06	9.936315e-07	7.056191e-10	7.327590e+00	4.428232e+01
2.080000e-06	1.037357e-06	7.842791e-10	7.650043e+00	4.941083e+01
2.090000e-06	1.081092e-06	8.618353e-10	7.972575e+00	5.447560e+01
2.100000e-06	1.124784e-06	9.359816e-10	8.294780e+00	5.947049e+01
2.110000e-06	1.168364e-06	1.009305e-09	8.616167e+00	6.438976e+01
2.120000e-06	1.211841e-06	1.084569e-09	8.936788e+00	6.922807e+01
2.130000e-06	1.255243e-06	1.157018e-09	9.256860e+00	7.398050e+01
2.140000e-06	1.298534e-06	1.224571e-09	9.576109e+00	7.864259e+01
2.150000e-06	1.341683e-06	1.290205e-09	9.894318e+00	8.321032e+01
2.160000e-06	1.384693e-06	1.354487e-09	1.021150e+01	8.768018e+01
2.170000e-06	1.427540e-06	1.415057e-09	1.052747e+01	9.204909e+01
2.180000e-06	1.470202e-06	1.472978e-09	1.084209e+01	9.631449e+01
2.190000e-06	1.512673e-06	1.530739e-09	1.115529e+01	1.004743e+02
2.200000e-06	1.554994e-06	1.586334e-09	1.146739e+01	1.045269e+02
2.210000e-06	1.597187e-06	1.640219e-09	1.177855e+01	1.084711e+02
2.220000e-06	1.639172e-06	1.692378e-09	1.208816e+01	1.123063e+02
2.230000e-06	1.680780e-06	1.746081e-09	1.239501e+01	1.160323e+02
2.240000e-06	1.722079e-06	1.797851e-09	1.269956e+01	1.196492e+02
2.250000e-06	1.763173e-06	1.846160e-09	1.300261e+01	1.231577e+02
2.260000e-06	1.804023e-06	1.892683e-09	1.330387e+01	1.265588e+02
2.270000e-06	1.844675e-06	1.939637e-09	1.360366e+01	1.298539e+02
2.280000e-06	1.885240e-06	1.984299e-09	1.390281e+01	1.330447e+02
2.290000e-06	1.925770e-06	2.024018e-09	1.420170e+01	1.361333e+02
2.300000e-06	1.966107e-06	2.065206e-09	1.449916e+01	1.391219e+02
2.310000e-06	2.006280e-06	2.107642e-09	1.479542e+01	1.420133e+02
2.320000e-06	2.046390e-06	2.149170e-09	1.509121e+01	1.448103e+02
2.330000e-06	2.086398e-06	2.187912e-09	1.538626e+01	1.475158e+02
2.340000e-06	2.126326e-06	2.227094e-09	1.568071e+01	1.501330e+02
2.350000e-06	2.166179e-06	2.265173e-09	1.597461e+01	1.526654e+02
2.360000e-06	2.205982e-06	2.299935e-09	1.626813e+01	1.551163e+02
2.370000e-06	2.245655e-06	2.333735e-09	1.656070e+01	1.574893e+02
2.380000e-06	2.285167e-06	2.367648e-09	1.685209e+01	1.597879e+02
2.390000e-06	2.324569e-06	2.401120e-09	1.714266e+01	1.620156e+02
2.400000e-06	2.363831e-06	2.432420e-09	1.743220e+01	1.641761e+02
2.410000e-06	2.402955e-06	2.462241e-09	1.772072e+01	1.662729e+02
2.420000e-06	2.441905e-06	2.491880e-09	1.800796e+01	1.683094e+02
2.430000e-06	2.480581e-06	2.521313e-09	1.829318e+01	1.702891e+02
2.440000e-06	2.518998e-06	2.550386e-09	1.857649e+01	1.722151e+02
2.450000e-06	2.557233e-06	2.578973e-09	1.885845e+01	1.740908e+02
2.460000e-06	2.595353e-06	2.609093e-09	1.913957e+01	1.759190e+02
2.470000e-06	2.633366e-06	2.636493e-09	1.941990e+01	1.777027e+02
2.480000e-06	2.671260e-06	2.662937e-09	1.969935e+01	1.794445e+02
2.490000e-06	2.709031e-06	2.688373e-09	1.997790e+01	1.811471e+02
2.500000e-06	2.746631e-06	2.713594e-09	2.025518e+01	1.828126e+02
2.510000e-06	2.783966e-06	2.740737e-09	2.053051e+01	1.844434e+02
2.520000e-06	2.821060e-06	2.767298e-09	2.080406e+01	1.860413e+02
2.530000e-06	2.857960e-06	2.792442e-09	2.107618e+01	1.876082e+02
2.540000e-06	2.894591e-06	2.816021e-09	2.134632e+01	1.891457e+02
2.550000e-06	2.930976e-06	2.839812e-09	2.161465e+01	1.906551e+02
2.560000e-06	2.967211e-06	2.864382e-09	2.188186e+01	1.921376e+02
2.570000e-06	3.003277e-06	2.886228e-09	2.214783e+01	1.935944e+02
2.580000e-06	3.039195e-06	2.906718e-09	2.241271e+01	1.950263e+02
2.590000e-06	3.075063e-06	2.927906e-09	2.267722e+01	1.964340e+02
2.600000e-06	3.110870e-06	2.949646e-09	2.294128e+01	1.978182e+02
2.610000e-06	3.146566e-06	2.970843e-09	2.320452e+01	1.991791e+02
2.620000e-06	3.182023e-06	2.987890e-09	2.346600e+01	2.005172e+02
2.630000e-06	3.217286e-06	3.005159e-09	2.372605e+01	2.018325e+02
2.640000e-06	3.252266e-06	3.024760e-09	2.398401e+01	2.031254e+02
2.650000e-06	3.286878e-06	3.046366e-09	2.423926e+01	2.043956e+02
2.660000e-06	3.321165e-06	3.067522e-09	2.449211e+01	2.056433e+02
2.670000e-06	3.355058e-06	3.087460e-09	2.474206e+01	2.068681e+02
2.680000e-06	3.388499e-06	3.104432e-09	2.498867e+01	2.080701e+02
2.690000e-06	3.421445e-06	3.119482e-09	2.523163e+01	2.092489e+02
2.700000e-06	3.454089e-06	3.133412e-09	2.547237e+01	2.104044e+02
2.710000e-06	3.486500e-06	3.146067e-09	2.571139e+01	2.115364e+02
2.720000e-06	3.518698e-06	3.158695e-09	2.594883e+01	2.126445e+02
2.730000e-06	3.550749e-06	3.171149e-09	2.618520e+01	2.137286e+02
2.740000e-06	3.582642e-06	3.185530e-09	2.642039e+01	2.147885e+02
2.750000e-06	3.614367e-06	3.200335e-09	2.665435e+01	2.158241e+02
2.760000e-06	3.645924e-06	3.213372e-09	2.688707e+01	2.168351e+02
2.770000e-06	3.677292e-06	3.227270e-09	2.711839e+01	2.178216e+02
2.780000e-06	3.708403e-06	3.242945e-09	2.734782e+01	2.187835e+02
2.790000e-06	3.739234e-06	3.256653e-09	2.757519e+01	2.197208e+02
2.800000e-06	3.769702e-06	3.268209e-09	2.779988e+01	2.206336e+02
2.810000e-06	3.799840e-06	3.280422e-09	2.802213e+01	2.215221e+02
2.820000e-06	3.829743e-06	3.294841e-09	2.824265e+01	2.223865e+02
2.830000e-06	3.859404e-06	3.308100e-09	2.846138e+01	2.232270e+02
2.840000e-06	3.888869e-06	3.318628e-09	2.867868e+01	2.240440e+02
2.850000e-06	3.918218e-06	3.331274e-09	2.889511e+01	2.248378e+02
2.860000e-06	3.947363e-06	3.345384e-09	2.911005e+01	2.256089e+02
2.870000e-06	3.976130e-06	3.356417e-09	2.932219e+01	2.263578e+02
2.880000e-06	4.004564e-06	3.367048e-09	2.953187e+01	2.270851e+02
2.890000e-06	4.032815e-06	3.378888e-09	2.974022e+01	2.277914e+02
2.900000e-06	4.060884e-06	3.391200e-09	2.994721e+01	2.284772e+02
