# Temperatura_=_20.0
# Concentracion g/m^3_=_9000.0
# C_Vs_to_Am_M_A/Vsm_=_65563218390.804596
# pendiente_HvsI_1/m_=_3716.3
# ordenada_HvsI_A/m_=_1297.0
# frecuencia_Hz_=_135115.34796890634

Tiempo_(s)	Campo_(V.s)	Magnetizacion_(V.s)	Campo_(kA/m)	Magnetizacion_(A/m)
0.000000e+00	-5.186059e-06	-3.714403e-09	-3.837858e+01	-2.367414e+02
1.000000e-08	-5.186145e-06	-3.713973e-09	-3.837921e+01	-2.366731e+02
2.000000e-08	-5.185928e-06	-3.714142e-09	-3.837760e+01	-2.366346e+02
3.000000e-08	-5.185323e-06	-3.714745e-09	-3.837313e+01	-2.366295e+02
4.000000e-08	-5.184306e-06	-3.715280e-09	-3.836560e+01	-2.366615e+02
5.000000e-08	-5.182774e-06	-3.721587e-09	-3.835427e+01	-2.367341e+02
6.000000e-08	-5.180640e-06	-3.732177e-09	-3.833848e+01	-2.368504e+02
7.000000e-08	-5.178050e-06	-3.709944e-09	-3.831931e+01	-2.370134e+02
8.000000e-08	-5.175016e-06	-3.652666e-09	-3.829686e+01	-2.372258e+02
9.000000e-08	-5.171403e-06	-3.657785e-09	-3.827012e+01	-2.374898e+02
1.000000e-07	-5.167353e-06	-3.764127e-09	-3.824014e+01	-2.378076e+02
1.100000e-07	-5.163045e-06	-3.810163e-09	-3.820827e+01	-2.381806e+02
1.200000e-07	-5.158588e-06	-3.678693e-09	-3.817528e+01	-2.386101e+02
1.300000e-07	-5.153946e-06	-3.557525e-09	-3.814093e+01	-2.390970e+02
1.400000e-07	-5.148926e-06	-3.658283e-09	-3.810378e+01	-2.396416e+02
1.500000e-07	-5.143444e-06	-3.864601e-09	-3.806321e+01	-2.402439e+02
1.600000e-07	-5.137574e-06	-3.877348e-09	-3.801978e+01	-2.409034e+02
1.700000e-07	-5.131482e-06	-3.678138e-09	-3.797469e+01	-2.416190e+02
1.800000e-07	-5.125081e-06	-3.604642e-09	-3.792732e+01	-2.423895e+02
1.900000e-07	-5.118247e-06	-3.723692e-09	-3.787674e+01	-2.432129e+02
2.000000e-07	-5.111118e-06	-3.868528e-09	-3.782399e+01	-2.440869e+02
2.100000e-07	-5.103795e-06	-3.748731e-09	-3.776980e+01	-2.450089e+02
2.200000e-07	-5.096191e-06	-3.542671e-09	-3.771352e+01	-2.459756e+02
2.300000e-07	-5.088203e-06	-3.500400e-09	-3.765441e+01	-2.469837e+02
2.400000e-07	-5.079856e-06	-3.652464e-09	-3.759264e+01	-2.480290e+02
2.500000e-07	-5.071159e-06	-3.675328e-09	-3.752828e+01	-2.491075e+02
2.600000e-07	-5.061928e-06	-3.513633e-09	-3.745997e+01	-2.502145e+02
2.700000e-07	-5.052037e-06	-3.484945e-09	-3.738677e+01	-2.513451e+02
2.800000e-07	-5.041682e-06	-3.695001e-09	-3.731014e+01	-2.524944e+02
2.900000e-07	-5.030858e-06	-3.825924e-09	-3.723004e+01	-2.536569e+02
3.000000e-07	-5.019486e-06	-3.733429e-09	-3.714588e+01	-2.548271e+02
3.100000e-07	-5.007746e-06	-3.721326e-09	-3.705900e+01	-2.559996e+02
3.200000e-07	-4.995712e-06	-3.935148e-09	-3.696995e+01	-2.571685e+02
3.300000e-07	-4.983292e-06	-4.118914e-09	-3.687804e+01	-2.583281e+02
3.400000e-07	-4.970469e-06	-4.047531e-09	-3.678314e+01	-2.594726e+02
3.500000e-07	-4.957357e-06	-3.928625e-09	-3.668610e+01	-2.605964e+02
3.600000e-07	-4.943874e-06	-3.924178e-09	-3.658633e+01	-2.616939e+02
3.700000e-07	-4.929885e-06	-4.024667e-09	-3.648281e+01	-2.627594e+02
3.800000e-07	-4.915312e-06	-4.082030e-09	-3.637496e+01	-2.637878e+02
3.900000e-07	-4.900202e-06	-4.048529e-09	-3.626314e+01	-2.647740e+02
4.000000e-07	-4.884640e-06	-3.893304e-09	-3.614798e+01	-2.657129e+02
4.100000e-07	-4.868582e-06	-3.911354e-09	-3.602914e+01	-2.666002e+02
4.200000e-07	-4.852141e-06	-4.111297e-09	-3.590747e+01	-2.674316e+02
4.300000e-07	-4.835392e-06	-4.149441e-09	-3.578352e+01	-2.682031e+02
4.400000e-07	-4.818341e-06	-3.940198e-09	-3.565734e+01	-2.689113e+02
4.500000e-07	-4.801090e-06	-3.934866e-09	-3.552967e+01	-2.695531e+02
4.600000e-07	-4.783595e-06	-4.142046e-09	-3.540021e+01	-2.701258e+02
4.700000e-07	-4.765702e-06	-4.151647e-09	-3.526780e+01	-2.706272e+02
4.800000e-07	-4.747465e-06	-3.965477e-09	-3.513283e+01	-2.710556e+02
4.900000e-07	-4.728925e-06	-3.956661e-09	-3.499564e+01	-2.714096e+02
5.000000e-07	-4.710042e-06	-4.084025e-09	-3.485589e+01	-2.716886e+02
5.100000e-07	-4.690758e-06	-4.094079e-09	-3.471319e+01	-2.718920e+02
5.200000e-07	-4.671173e-06	-4.011924e-09	-3.456825e+01	-2.720202e+02
5.300000e-07	-4.651434e-06	-3.978244e-09	-3.442217e+01	-2.720736e+02
5.400000e-07	-4.631476e-06	-3.999545e-09	-3.427448e+01	-2.720534e+02
5.500000e-07	-4.611246e-06	-4.039847e-09	-3.412477e+01	-2.719611e+02
5.600000e-07	-4.590753e-06	-4.054916e-09	-3.397311e+01	-2.717986e+02
5.700000e-07	-4.569932e-06	-3.988587e-09	-3.381903e+01	-2.715682e+02
5.800000e-07	-4.548699e-06	-3.934290e-09	-3.366190e+01	-2.712727e+02
5.900000e-07	-4.527197e-06	-3.984289e-09	-3.350278e+01	-2.709151e+02
6.000000e-07	-4.505498e-06	-4.043407e-09	-3.334220e+01	-2.704987e+02
6.100000e-07	-4.483457e-06	-3.977774e-09	-3.317909e+01	-2.700273e+02
6.200000e-07	-4.461079e-06	-3.905034e-09	-3.301348e+01	-2.695047e+02
6.300000e-07	-4.438396e-06	-3.944447e-09	-3.284562e+01	-2.689350e+02
6.400000e-07	-4.415383e-06	-4.010518e-09	-3.267532e+01	-2.683225e+02
6.500000e-07	-4.392102e-06	-3.966768e-09	-3.250303e+01	-2.676715e+02
6.600000e-07	-4.368568e-06	-3.901297e-09	-3.232887e+01	-2.669866e+02
6.700000e-07	-4.344781e-06	-3.911976e-09	-3.215284e+01	-2.662722e+02
6.800000e-07	-4.320770e-06	-3.955001e-09	-3.197515e+01	-2.655329e+02
6.900000e-07	-4.296502e-06	-3.935730e-09	-3.179556e+01	-2.647731e+02
7.000000e-07	-4.271895e-06	-3.892193e-09	-3.161346e+01	-2.639972e+02
7.100000e-07	-4.246905e-06	-3.877484e-09	-3.142853e+01	-2.632095e+02
7.200000e-07	-4.221536e-06	-3.898567e-09	-3.124078e+01	-2.624142e+02
7.300000e-07	-4.195663e-06	-3.906306e-09	-3.104931e+01	-2.616151e+02
7.400000e-07	-4.169350e-06	-3.883932e-09	-3.085459e+01	-2.608160e+02
7.500000e-07	-4.142712e-06	-3.851129e-09	-3.065746e+01	-2.600203e+02
7.600000e-07	-4.115601e-06	-3.849939e-09	-3.045683e+01	-2.592312e+02
7.700000e-07	-4.088147e-06	-3.867949e-09	-3.025366e+01	-2.584516e+02
7.800000e-07	-4.060487e-06	-3.858425e-09	-3.004896e+01	-2.576839e+02
7.900000e-07	-4.032631e-06	-3.814130e-09	-2.984282e+01	-2.569305e+02
8.000000e-07	-4.004631e-06	-3.796467e-09	-2.963561e+01	-2.561932e+02
8.100000e-07	-3.976413e-06	-3.824043e-09	-2.942679e+01	-2.554734e+02
8.200000e-07	-3.947949e-06	-3.830663e-09	-2.921614e+01	-2.547723e+02
8.300000e-07	-3.919273e-06	-3.792628e-09	-2.900394e+01	-2.540906e+02
8.400000e-07	-3.890269e-06	-3.769167e-09	-2.878930e+01	-2.534286e+02
8.500000e-07	-3.860884e-06	-3.789462e-09	-2.857183e+01	-2.527864e+02
8.600000e-07	-3.831213e-06	-3.794031e-09	-2.835227e+01	-2.521635e+02
8.700000e-07	-3.801330e-06	-3.761060e-09	-2.813112e+01	-2.515593e+02
8.800000e-07	-3.771282e-06	-3.730178e-09	-2.790875e+01	-2.509727e+02
8.900000e-07	-3.740967e-06	-3.733385e-09	-2.768441e+01	-2.504024e+02
9.000000e-07	-3.710400e-06	-3.741721e-09	-2.745821e+01	-2.498467e+02
9.100000e-07	-3.679576e-06	-3.730098e-09	-2.723010e+01	-2.493037e+02
9.200000e-07	-3.648501e-06	-3.703875e-09	-2.700014e+01	-2.487711e+02
9.300000e-07	-3.617232e-06	-3.692576e-09	-2.676873e+01	-2.482467e+02
9.400000e-07	-3.585711e-06	-3.696713e-09	-2.653546e+01	-2.477279e+02
9.500000e-07	-3.554016e-06	-3.697488e-09	-2.630091e+01	-2.472119e+02
9.600000e-07	-3.522182e-06	-3.673534e-09	-2.606533e+01	-2.466959e+02
9.700000e-07	-3.490179e-06	-3.649343e-09	-2.582850e+01	-2.461769e+02
9.800000e-07	-3.457971e-06	-3.647448e-09	-2.559015e+01	-2.456521e+02
9.900000e-07	-3.425514e-06	-3.653651e-09	-2.534995e+01	-2.451183e+02
1.000000e-06	-3.392746e-06	-3.637511e-09	-2.510746e+01	-2.445726e+02
1.010000e-06	-3.359602e-06	-3.608639e-09	-2.486219e+01	-2.440120e+02
1.020000e-06	-3.326111e-06	-3.596502e-09	-2.461434e+01	-2.434337e+02
1.030000e-06	-3.292206e-06	-3.601819e-09	-2.436343e+01	-2.428348e+02
1.040000e-06	-3.257963e-06	-3.594480e-09	-2.411002e+01	-2.422128e+02
1.050000e-06	-3.223380e-06	-3.570414e-09	-2.385409e+01	-2.415652e+02
1.060000e-06	-3.188378e-06	-3.553878e-09	-2.359506e+01	-2.408896e+02
1.070000e-06	-3.153111e-06	-3.551378e-09	-2.333408e+01	-2.401840e+02
1.080000e-06	-3.117647e-06	-3.544499e-09	-2.307164e+01	-2.394465e+02
1.090000e-06	-3.081985e-06	-3.524315e-09	-2.280773e+01	-2.386755e+02
1.100000e-06	-3.046187e-06	-3.503642e-09	-2.254281e+01	-2.378695e+02
1.110000e-06	-3.010278e-06	-3.492085e-09	-2.227707e+01	-2.370274e+02
1.120000e-06	-2.974192e-06	-3.485038e-09	-2.201002e+01	-2.361485e+02
1.130000e-06	-2.937987e-06	-3.470625e-09	-2.174209e+01	-2.352321e+02
1.140000e-06	-2.901665e-06	-3.449592e-09	-2.147330e+01	-2.342778e+02
1.150000e-06	-2.865168e-06	-3.431180e-09	-2.120320e+01	-2.332857e+02
1.160000e-06	-2.828444e-06	-3.422224e-09	-2.093144e+01	-2.322559e+02
1.170000e-06	-2.791421e-06	-3.412383e-09	-2.065745e+01	-2.311890e+02
1.180000e-06	-2.754155e-06	-3.395040e-09	-2.038167e+01	-2.300855e+02
1.190000e-06	-2.716725e-06	-3.374988e-09	-2.010467e+01	-2.289465e+02
1.200000e-06	-2.679135e-06	-3.362814e-09	-1.982650e+01	-2.277731e+02
1.210000e-06	-2.641359e-06	-3.351407e-09	-1.954694e+01	-2.265665e+02
1.220000e-06	-2.603380e-06	-3.331814e-09	-1.926589e+01	-2.253282e+02
1.230000e-06	-2.565218e-06	-3.308855e-09	-1.898347e+01	-2.240599e+02
1.240000e-06	-2.526874e-06	-3.292493e-09	-1.869972e+01	-2.227632e+02
1.250000e-06	-2.488347e-06	-3.279183e-09	-1.841460e+01	-2.214400e+02
1.260000e-06	-2.449633e-06	-3.260772e-09	-1.812810e+01	-2.200922e+02
1.270000e-06	-2.410697e-06	-3.239301e-09	-1.783997e+01	-2.187215e+02
1.280000e-06	-2.371589e-06	-3.219759e-09	-1.755056e+01	-2.173300e+02
1.290000e-06	-2.332349e-06	-3.200937e-09	-1.726017e+01	-2.159194e+02
1.300000e-06	-2.292971e-06	-3.182829e-09	-1.696876e+01	-2.144915e+02
1.310000e-06	-2.253524e-06	-3.163362e-09	-1.667683e+01	-2.130480e+02
1.320000e-06	-2.214026e-06	-3.140379e-09	-1.638453e+01	-2.115904e+02
1.330000e-06	-2.174370e-06	-3.117272e-09	-1.609107e+01	-2.101203e+02
1.340000e-06	-2.134570e-06	-3.097353e-09	-1.579653e+01	-2.086388e+02
1.350000e-06	-2.094719e-06	-3.076492e-09	-1.550163e+01	-2.071469e+02
1.360000e-06	-2.054819e-06	-3.051731e-09	-1.520635e+01	-2.056455e+02
1.370000e-06	-2.014826e-06	-3.026422e-09	-1.491039e+01	-2.041352e+02
1.380000e-06	-1.974621e-06	-3.003853e-09	-1.461286e+01	-2.026163e+02
1.390000e-06	-1.934237e-06	-2.981245e-09	-1.431401e+01	-2.010888e+02
1.400000e-06	-1.893840e-06	-2.956298e-09	-1.401506e+01	-1.995524e+02
1.410000e-06	-1.853381e-06	-2.930407e-09	-1.371564e+01	-1.980066e+02
1.420000e-06	-1.812622e-06	-2.906453e-09	-1.341401e+01	-1.964506e+02
1.430000e-06	-1.771593e-06	-2.883308e-09	-1.311038e+01	-1.948832e+02
1.440000e-06	-1.730369e-06	-2.857404e-09	-1.280531e+01	-1.933030e+02
1.450000e-06	-1.688912e-06	-2.830817e-09	-1.249852e+01	-1.917080e+02
1.460000e-06	-1.647349e-06	-2.806298e-09	-1.219093e+01	-1.900964e+02
1.470000e-06	-1.605697e-06	-2.782854e-09	-1.188270e+01	-1.884656e+02
1.480000e-06	-1.563854e-06	-2.756879e-09	-1.157304e+01	-1.868131e+02
1.490000e-06	-1.521708e-06	-2.727357e-09	-1.126115e+01	-1.851359e+02
1.500000e-06	-1.479314e-06	-2.696458e-09	-1.094742e+01	-1.834309e+02
1.510000e-06	-1.436685e-06	-2.668900e-09	-1.063195e+01	-1.816946e+02
1.520000e-06	-1.393923e-06	-2.645227e-09	-1.031550e+01	-1.799234e+02
1.530000e-06	-1.351080e-06	-2.621086e-09	-9.998443e+00	-1.781136e+02
1.540000e-06	-1.308045e-06	-2.594857e-09	-9.679972e+00	-1.762611e+02
1.550000e-06	-1.264918e-06	-2.569052e-09	-9.360817e+00	-1.743620e+02
1.560000e-06	-1.221777e-06	-2.539608e-09	-9.041557e+00	-1.724120e+02
1.570000e-06	-1.178605e-06	-2.506418e-09	-8.722070e+00	-1.704068e+02
1.580000e-06	-1.135294e-06	-2.472292e-09	-8.401555e+00	-1.683422e+02
1.590000e-06	-1.091837e-06	-2.441642e-09	-8.079960e+00	-1.662139e+02
1.600000e-06	-1.048326e-06	-2.409896e-09	-7.757963e+00	-1.640176e+02
1.610000e-06	-1.004754e-06	-2.374963e-09	-7.435519e+00	-1.617492e+02
1.620000e-06	-9.611430e-07	-2.337643e-09	-7.112781e+00	-1.594044e+02
1.630000e-06	-9.174895e-07	-2.299879e-09	-6.789730e+00	-1.569794e+02
1.640000e-06	-8.737715e-07	-2.265286e-09	-6.466203e+00	-1.544703e+02
1.650000e-06	-8.300349e-07	-2.230581e-09	-6.142537e+00	-1.518735e+02
1.660000e-06	-7.862638e-07	-2.192960e-09	-5.818616e+00	-1.491856e+02
1.670000e-06	-7.424829e-07	-2.153278e-09	-5.494623e+00	-1.464035e+02
1.680000e-06	-6.987113e-07	-2.114063e-09	-5.170698e+00	-1.435243e+02
1.690000e-06	-6.548939e-07	-2.074043e-09	-4.846435e+00	-1.405454e+02
1.700000e-06	-6.110453e-07	-2.031663e-09	-4.521940e+00	-1.374645e+02
1.710000e-06	-5.671469e-07	-1.985246e-09	-4.197077e+00	-1.342799e+02
1.720000e-06	-5.232331e-07	-1.938362e-09	-3.872100e+00	-1.309900e+02
1.730000e-06	-4.793364e-07	-1.893514e-09	-3.547250e+00	-1.275936e+02
1.740000e-06	-4.354180e-07	-1.846978e-09	-3.222239e+00	-1.240901e+02
1.750000e-06	-3.914881e-07	-1.794553e-09	-2.897143e+00	-1.204791e+02
1.760000e-06	-3.475435e-07	-1.741580e-09	-2.571939e+00	-1.167607e+02
1.770000e-06	-3.036144e-07	-1.691169e-09	-2.246849e+00	-1.129356e+02
1.780000e-06	-2.596688e-07	-1.640278e-09	-1.921636e+00	-1.090045e+02
1.790000e-06	-2.156674e-07	-1.583345e-09	-1.596012e+00	-1.049690e+02
1.800000e-06	-1.716357e-07	-1.522539e-09	-1.270162e+00	-1.008308e+02
1.810000e-06	-1.276141e-07	-1.465054e-09	-9.443875e-01	-9.659225e+01
1.820000e-06	-8.358626e-08	-1.407596e-09	-6.185664e-01	-9.225597e+01
1.830000e-06	-3.955521e-08	-1.343101e-09	-2.927219e-01	-8.782504e+01
1.840000e-06	4.429892e-09	-1.273684e-09	3.278269e-02	-8.330295e+01
1.850000e-06	4.839194e-08	-1.207796e-09	3.581166e-01	-7.869355e+01
1.860000e-06	9.233966e-08	-1.142967e-09	6.833445e-01	-7.400104e+01
1.870000e-06	1.363106e-07	-1.073246e-09	1.008744e+00	-6.923001e+01
1.880000e-06	1.803397e-07	-9.971343e-10	1.334575e+00	-6.438533e+01
1.890000e-06	2.243595e-07	-9.194399e-10	1.660335e+00	-5.947221e+01
1.900000e-06	2.683731e-07	-8.449282e-10	1.986051e+00	-5.449611e+01
1.910000e-06	3.123605e-07	-7.706126e-10	2.311573e+00	-4.946275e+01
1.920000e-06	3.563224e-07	-6.911121e-10	2.636906e+00	-4.437811e+01
1.930000e-06	4.003468e-07	-6.082783e-10	2.962701e+00	-3.924832e+01
1.940000e-06	4.443970e-07	-5.298235e-10	3.288687e+00	-3.407970e+01
1.950000e-06	4.883764e-07	-4.532976e-10	3.614149e+00	-2.887874e+01
1.960000e-06	5.322919e-07	-3.736201e-10	3.939138e+00	-2.365201e+01
1.970000e-06	5.761498e-07	-2.890947e-10	4.263702e+00	-1.840617e+01
1.980000e-06	6.199338e-07	-2.025242e-10	4.587718e+00	-1.314794e+01
1.990000e-06	6.637406e-07	-1.171257e-10	4.911903e+00	-7.884074e+00
2.000000e-06	7.075764e-07	-3.226726e-11	5.236303e+00	-2.621304e+00
2.010000e-06	7.513376e-07	5.449242e-11	5.560150e+00	2.633661e+00
2.020000e-06	7.950603e-07	1.388990e-10	5.883713e+00	7.874176e+00
2.030000e-06	8.388008e-07	2.183818e-10	6.207408e+00	1.309368e+01
2.040000e-06	8.825423e-07	2.977331e-10	6.531110e+00	1.828574e+01
2.050000e-06	9.262497e-07	3.790791e-10	6.854558e+00	2.344405e+01
2.060000e-06	9.699148e-07	4.612475e-10	7.177695e+00	2.856248e+01
2.070000e-06	1.013564e-06	5.411931e-10	7.500716e+00	3.363507e+01
2.080000e-06	1.057179e-06	6.196635e-10	7.823477e+00	3.865609e+01
2.090000e-06	1.100702e-06	6.972995e-10	8.145568e+00	4.362004e+01
2.100000e-06	1.144120e-06	7.724159e-10	8.466873e+00	4.852166e+01
2.110000e-06	1.187404e-06	8.467528e-10	8.787187e+00	5.335596e+01
2.120000e-06	1.230556e-06	9.204723e-10	9.106526e+00	5.811823e+01
2.130000e-06	1.273616e-06	9.919009e-10	9.425189e+00	6.280406e+01
2.140000e-06	1.316508e-06	1.059502e-09	9.742604e+00	6.740936e+01
2.150000e-06	1.359209e-06	1.122624e-09	1.005860e+01	7.193034e+01
2.160000e-06	1.401796e-06	1.183281e-09	1.037376e+01	7.636356e+01
2.170000e-06	1.444351e-06	1.242508e-09	1.068868e+01	8.070589e+01
2.180000e-06	1.486747e-06	1.302179e-09	1.100243e+01	8.495458e+01
2.190000e-06	1.528902e-06	1.359254e-09	1.131439e+01	8.910719e+01
2.200000e-06	1.570917e-06	1.412743e-09	1.162531e+01	9.316166e+01
2.210000e-06	1.612702e-06	1.464329e-09	1.193454e+01	9.711624e+01
2.220000e-06	1.654220e-06	1.514455e-09	1.224179e+01	1.009696e+02
2.230000e-06	1.695545e-06	1.563113e-09	1.254760e+01	1.047206e+02
2.240000e-06	1.736650e-06	1.609897e-09	1.285179e+01	1.083686e+02
2.250000e-06	1.777545e-06	1.654161e-09	1.315443e+01	1.119134e+02
2.260000e-06	1.818246e-06	1.697472e-09	1.345563e+01	1.153547e+02
2.270000e-06	1.858701e-06	1.741066e-09	1.375501e+01	1.186929e+02
2.280000e-06	1.898997e-06	1.782859e-09	1.405322e+01	1.219287e+02
2.290000e-06	1.939264e-06	1.822904e-09	1.435121e+01	1.250629e+02
2.300000e-06	1.979424e-06	1.862857e-09	1.464840e+01	1.280966e+02
2.310000e-06	2.019428e-06	1.902385e-09	1.494445e+01	1.310314e+02
2.320000e-06	2.059377e-06	1.939970e-09	1.524008e+01	1.338690e+02
2.330000e-06	2.099310e-06	1.976817e-09	1.553560e+01	1.366112e+02
2.340000e-06	2.139200e-06	2.013584e-09	1.583080e+01	1.392604e+02
2.350000e-06	2.178993e-06	2.047605e-09	1.612528e+01	1.418188e+02
2.360000e-06	2.218646e-06	2.079470e-09	1.641873e+01	1.442891e+02
2.370000e-06	2.258159e-06	2.112750e-09	1.671114e+01	1.466739e+02
2.380000e-06	2.297538e-06	2.147645e-09	1.700255e+01	1.489763e+02
2.390000e-06	2.336733e-06	2.179951e-09	1.729261e+01	1.511992e+02
2.400000e-06	2.375653e-06	2.208893e-09	1.758063e+01	1.533458e+02
2.410000e-06	2.414354e-06	2.238448e-09	1.786703e+01	1.554193e+02
2.420000e-06	2.452981e-06	2.267712e-09	1.815288e+01	1.574231e+02
2.430000e-06	2.491455e-06	2.295260e-09	1.843760e+01	1.593604e+02
2.440000e-06	2.529747e-06	2.322500e-09	1.872098e+01	1.612348e+02
2.450000e-06	2.567912e-06	2.350696e-09	1.900341e+01	1.630495e+02
2.460000e-06	2.605969e-06	2.379792e-09	1.928504e+01	1.648081e+02
2.470000e-06	2.643868e-06	2.406861e-09	1.956551e+01	1.665139e+02
2.480000e-06	2.681573e-06	2.431299e-09	1.984454e+01	1.681702e+02
2.490000e-06	2.719133e-06	2.456888e-09	2.012250e+01	1.697804e+02
2.500000e-06	2.756478e-06	2.485449e-09	2.039886e+01	1.713475e+02
2.510000e-06	2.793560e-06	2.513298e-09	2.067328e+01	1.728748e+02
2.520000e-06	2.830361e-06	2.538011e-09	2.094562e+01	1.743651e+02
2.530000e-06	2.866921e-06	2.561556e-09	2.121618e+01	1.758214e+02
2.540000e-06	2.903326e-06	2.583336e-09	2.148559e+01	1.772463e+02
2.550000e-06	2.939555e-06	2.605102e-09	2.175369e+01	1.786425e+02
2.560000e-06	2.975591e-06	2.626988e-09	2.202037e+01	1.800123e+02
2.570000e-06	3.011478e-06	2.647278e-09	2.228595e+01	1.813580e+02
2.580000e-06	3.047293e-06	2.667346e-09	2.255099e+01	1.826816e+02
2.590000e-06	3.083061e-06	2.688872e-09	2.281569e+01	1.839850e+02
2.600000e-06	3.118726e-06	2.710810e-09	2.307962e+01	1.852698e+02
2.610000e-06	3.154220e-06	2.731357e-09	2.334229e+01	1.865376e+02
2.620000e-06	3.189529e-06	2.750995e-09	2.360359e+01	1.877895e+02
2.630000e-06	3.224618e-06	2.769546e-09	2.386326e+01	1.890267e+02
2.640000e-06	3.259318e-06	2.787214e-09	2.412005e+01	1.902501e+02
2.650000e-06	3.293630e-06	2.807271e-09	2.437397e+01	1.914602e+02
2.660000e-06	3.327509e-06	2.828974e-09	2.462468e+01	1.926577e+02
2.670000e-06	3.360999e-06	2.847597e-09	2.487252e+01	1.938428e+02
2.680000e-06	3.394136e-06	2.862618e-09	2.511775e+01	1.950157e+02
2.690000e-06	3.426812e-06	2.877379e-09	2.535956e+01	1.961762e+02
2.700000e-06	3.459126e-06	2.893478e-09	2.559869e+01	1.973242e+02
2.710000e-06	3.491253e-06	2.908609e-09	2.583645e+01	1.984593e+02
2.720000e-06	3.523270e-06	2.921572e-09	2.607338e+01	1.995811e+02
2.730000e-06	3.555164e-06	2.932846e-09	2.630941e+01	2.006888e+02
2.740000e-06	3.586938e-06	2.944502e-09	2.654455e+01	2.017818e+02
2.750000e-06	3.618541e-06	2.957732e-09	2.677842e+01	2.028593e+02
2.760000e-06	3.649929e-06	2.970623e-09	2.701070e+01	2.039203e+02
2.770000e-06	3.680990e-06	2.982668e-09	2.724056e+01	2.049639e+02
2.780000e-06	3.711712e-06	2.995095e-09	2.746791e+01	2.059891e+02
2.790000e-06	3.742187e-06	3.009444e-09	2.769344e+01	2.069948e+02
2.800000e-06	3.772428e-06	3.024486e-09	2.791723e+01	2.079801e+02
2.810000e-06	3.802338e-06	3.036427e-09	2.813858e+01	2.089438e+02
2.820000e-06	3.831976e-06	3.047378e-09	2.835791e+01	2.098850e+02
2.830000e-06	3.861490e-06	3.060408e-09	2.857633e+01	2.108026e+02
2.840000e-06	3.890778e-06	3.075727e-09	2.879307e+01	2.116958e+02
2.850000e-06	3.919830e-06	3.088503e-09	2.900806e+01	2.125638e+02
2.860000e-06	3.948630e-06	3.097801e-09	2.922118e+01	2.134057e+02
2.870000e-06	3.977116e-06	3.108961e-09	2.943199e+01	2.142210e+02
2.880000e-06	4.005319e-06	3.122255e-09	2.964071e+01	2.150090e+02
2.890000e-06	4.033317e-06	3.133475e-09	2.984790e+01	2.157694e+02
2.900000e-06	4.061172e-06	3.143298e-09	3.005403e+01	2.165019e+02
