# Temperatura_=_20.0
# Concentracion g/m^3_=_9000.0
# C_Vs_to_Am_M_A/Vsm_=_65563218390.804596
# pendiente_HvsI_1/m_=_3716.3
# ordenada_HvsI_A/m_=_1297.0
# frecuencia_Hz_=_135116.5721080866

Tiempo_(s)	Campo_(V.s)	Magnetizacion_(V.s)	Campo_(kA/m)	Magnetizacion_(A/m)
0.000000e+00	-5.183986e-06	-1.269904e-10	-3.836551e+01	-1.093621e+01
1.000000e-08	-5.184073e-06	-1.263079e-10	-3.836615e+01	-1.094202e+01
2.000000e-08	-5.184017e-06	-1.270645e-10	-3.836573e+01	-1.093476e+01
3.000000e-08	-5.183634e-06	-1.285971e-10	-3.836290e+01	-1.091283e+01
4.000000e-08	-5.182803e-06	-1.294146e-10	-3.835674e+01	-1.087466e+01
5.000000e-08	-5.181506e-06	-1.285363e-10	-3.834715e+01	-1.081877e+01
6.000000e-08	-5.179598e-06	-1.203335e-10	-3.833303e+01	-1.074372e+01
7.000000e-08	-5.177086e-06	-1.312694e-10	-3.831443e+01	-1.064817e+01
8.000000e-08	-5.174127e-06	-1.855984e-10	-3.829254e+01	-1.053088e+01
9.000000e-08	-5.170674e-06	-1.763481e-10	-3.826698e+01	-1.039071e+01
1.000000e-07	-5.166789e-06	-4.485970e-11	-3.823823e+01	-1.022666e+01
1.100000e-07	-5.162572e-06	-1.660295e-11	-3.820702e+01	-1.003787e+01
1.200000e-07	-5.158142e-06	-1.974254e-10	-3.817424e+01	-9.823624e+00
1.300000e-07	-5.153574e-06	-2.847458e-10	-3.814043e+01	-9.583378e+00
1.400000e-07	-5.148623e-06	-1.293317e-10	-3.810379e+01	-9.316745e+00
1.500000e-07	-5.143204e-06	8.273345e-11	-3.806368e+01	-9.023518e+00
1.600000e-07	-5.137415e-06	-4.072436e-11	-3.802084e+01	-8.703672e+00
1.700000e-07	-5.131291e-06	-2.148630e-10	-3.797552e+01	-8.357367e+00
1.800000e-07	-5.124724e-06	-2.168650e-10	-3.792692e+01	-7.984951e+00
1.900000e-07	-5.117795e-06	-3.916331e-11	-3.787564e+01	-7.586961e+00
2.000000e-07	-5.110652e-06	3.887665e-11	-3.782278e+01	-7.164119e+00
2.100000e-07	-5.103226e-06	-5.311550e-11	-3.776781e+01	-6.717336e+00
2.200000e-07	-5.095488e-06	-2.029584e-10	-3.771055e+01	-6.247699e+00
2.300000e-07	-5.087498e-06	-1.804609e-10	-3.765142e+01	-5.756473e+00
2.400000e-07	-5.079290e-06	1.049661e-11	-3.759067e+01	-5.245086e+00
2.500000e-07	-5.070660e-06	-5.104019e-12	-3.752680e+01	-4.715124e+00
2.600000e-07	-5.061298e-06	-2.197968e-10	-3.745752e+01	-4.168320e+00
2.700000e-07	-5.051354e-06	-2.514281e-10	-3.738392e+01	-3.606541e+00
2.800000e-07	-5.041170e-06	5.551544e-11	-3.730855e+01	-3.031774e+00
2.900000e-07	-5.030446e-06	1.339270e-10	-3.722919e+01	-2.446111e+00
3.000000e-07	-5.019043e-06	-1.217433e-10	-3.714480e+01	-1.851736e+00
3.100000e-07	-5.007330e-06	-1.881750e-10	-3.705811e+01	-1.250906e+00
3.200000e-07	-4.995308e-06	1.317230e-10	-3.696914e+01	-6.459334e-01
3.300000e-07	-4.982848e-06	2.170408e-10	-3.687692e+01	-3.917047e-02
3.400000e-07	-4.970024e-06	1.604962e-11	-3.678202e+01	5.670108e-01
3.500000e-07	-4.956887e-06	-5.730958e-11	-3.668480e+01	1.170237e+00
3.600000e-07	-4.943412e-06	8.626991e-11	-3.658506e+01	1.768150e+00
3.700000e-07	-4.929525e-06	1.102384e-10	-3.648230e+01	2.358428e+00
3.800000e-07	-4.915248e-06	1.299620e-10	-3.637663e+01	2.938803e+00
3.900000e-07	-4.900406e-06	1.049057e-10	-3.626679e+01	3.507076e+00
4.000000e-07	-4.884858e-06	-2.314127e-11	-3.615172e+01	4.061137e+00
4.100000e-07	-4.868917e-06	-5.100013e-12	-3.603375e+01	4.598979e+00
4.200000e-07	-4.852696e-06	2.378331e-10	-3.591370e+01	5.118717e+00
4.300000e-07	-4.836015e-06	2.006739e-10	-3.579025e+01	5.618597e+00
4.400000e-07	-4.818943e-06	-7.420821e-11	-3.566390e+01	6.097011e+00
4.500000e-07	-4.801674e-06	2.631351e-11	-3.553610e+01	6.552511e+00
4.600000e-07	-4.784233e-06	3.210226e-10	-3.540702e+01	6.983816e+00
4.700000e-07	-4.766489e-06	2.075230e-10	-3.527570e+01	7.389823e+00
4.800000e-07	-4.748344e-06	-4.497227e-11	-3.514142e+01	7.769610e+00
4.900000e-07	-4.729866e-06	1.004920e-10	-3.500467e+01	8.122449e+00
5.000000e-07	-4.711003e-06	2.874933e-10	-3.486506e+01	8.447800e+00
5.100000e-07	-4.691724e-06	1.749377e-10	-3.472238e+01	8.745322e+00
5.200000e-07	-4.672159e-06	4.997888e-11	-3.457759e+01	9.014864e+00
5.300000e-07	-4.652423e-06	1.380259e-10	-3.443153e+01	9.256474e+00
5.400000e-07	-4.632542e-06	1.804616e-10	-3.428439e+01	9.470387e+00
5.500000e-07	-4.612418e-06	1.610258e-10	-3.413545e+01	9.657022e+00
5.600000e-07	-4.591981e-06	1.640628e-10	-3.398421e+01	9.816980e+00
5.700000e-07	-4.571187e-06	1.478744e-10	-3.383032e+01	9.951029e+00
5.800000e-07	-4.550037e-06	9.346661e-11	-3.367379e+01	1.006010e+01
5.900000e-07	-4.528628e-06	1.636243e-10	-3.351534e+01	1.014528e+01
6.000000e-07	-4.506937e-06	2.268443e-10	-3.335482e+01	1.020778e+01
6.100000e-07	-4.484954e-06	1.341318e-10	-3.319213e+01	1.024895e+01
6.200000e-07	-4.462694e-06	5.798526e-11	-3.302738e+01	1.027024e+01
6.300000e-07	-4.440157e-06	1.758266e-10	-3.286060e+01	1.027321e+01
6.400000e-07	-4.417225e-06	2.370053e-10	-3.269088e+01	1.025949e+01
6.500000e-07	-4.393861e-06	1.253066e-10	-3.251796e+01	1.023077e+01
6.600000e-07	-4.370306e-06	7.641824e-11	-3.234364e+01	1.018881e+01
6.700000e-07	-4.346620e-06	1.707488e-10	-3.216834e+01	1.013538e+01
6.800000e-07	-4.322720e-06	1.960473e-10	-3.199147e+01	1.007227e+01
6.900000e-07	-4.298542e-06	1.273657e-10	-3.181253e+01	1.000128e+01
7.000000e-07	-4.274014e-06	1.115304e-10	-3.163101e+01	9.924184e+00
7.100000e-07	-4.249147e-06	1.472482e-10	-3.144697e+01	9.842726e+00
7.200000e-07	-4.223826e-06	1.619899e-10	-3.125958e+01	9.758604e+00
7.300000e-07	-4.197991e-06	1.541354e-10	-3.106838e+01	9.673453e+00
7.400000e-07	-4.171769e-06	1.465669e-10	-3.087432e+01	9.588837e+00
7.500000e-07	-4.145111e-06	1.356087e-10	-3.067703e+01	9.506230e+00
7.600000e-07	-4.118010e-06	1.467068e-10	-3.047645e+01	9.427010e+00
7.700000e-07	-4.090617e-06	1.671710e-10	-3.027372e+01	9.352448e+00
7.800000e-07	-4.062981e-06	1.587793e-10	-3.006920e+01	9.283698e+00
7.900000e-07	-4.035156e-06	1.167305e-10	-2.986328e+01	9.221791e+00
8.000000e-07	-4.007180e-06	1.230065e-10	-2.965623e+01	9.167629e+00
8.100000e-07	-3.978952e-06	1.701135e-10	-2.944732e+01	9.121980e+00
8.200000e-07	-3.950400e-06	1.731046e-10	-2.923601e+01	9.085476e+00
8.300000e-07	-3.921538e-06	1.230418e-10	-2.902241e+01	9.058611e+00
8.400000e-07	-3.892464e-06	1.319410e-10	-2.880724e+01	9.041740e+00
8.500000e-07	-3.863141e-06	1.790718e-10	-2.859023e+01	9.035080e+00
8.600000e-07	-3.833537e-06	1.735443e-10	-2.837114e+01	9.038717e+00
8.700000e-07	-3.803736e-06	1.290275e-10	-2.815059e+01	9.052605e+00
8.800000e-07	-3.773735e-06	1.297537e-10	-2.792856e+01	9.076571e+00
8.900000e-07	-3.743521e-06	1.530324e-10	-2.770495e+01	9.110327e+00
9.000000e-07	-3.713110e-06	1.560560e-10	-2.747989e+01	9.153471e+00
9.100000e-07	-3.682355e-06	1.429753e-10	-2.725227e+01	9.205501e+00
9.200000e-07	-3.651252e-06	1.359126e-10	-2.702208e+01	9.265819e+00
9.300000e-07	-3.620000e-06	1.391019e-10	-2.679079e+01	9.333744e+00
9.400000e-07	-3.588559e-06	1.538631e-10	-2.655811e+01	9.408524e+00
9.500000e-07	-3.556866e-06	1.613896e-10	-2.632355e+01	9.489343e+00
9.600000e-07	-3.525009e-06	1.468917e-10	-2.608779e+01	9.575336e+00
9.700000e-07	-3.493015e-06	1.345925e-10	-2.585101e+01	9.665599e+00
9.800000e-07	-3.460764e-06	1.501854e-10	-2.561233e+01	9.759202e+00
9.900000e-07	-3.428225e-06	1.648535e-10	-2.537151e+01	9.855199e+00
1.000000e-06	-3.395435e-06	1.486396e-10	-2.512885e+01	9.952640e+00
1.010000e-06	-3.362331e-06	1.326744e-10	-2.488385e+01	1.005058e+01
1.020000e-06	-3.328791e-06	1.460384e-10	-2.463562e+01	1.014810e+01
1.030000e-06	-3.294843e-06	1.658052e-10	-2.438438e+01	1.024431e+01
1.040000e-06	-3.260544e-06	1.575452e-10	-2.413054e+01	1.033834e+01
1.050000e-06	-3.225902e-06	1.447968e-10	-2.387416e+01	1.042940e+01
1.060000e-06	-3.190952e-06	1.504392e-10	-2.361551e+01	1.051671e+01
1.070000e-06	-3.155723e-06	1.616873e-10	-2.335479e+01	1.059960e+01
1.080000e-06	-3.120286e-06	1.589607e-10	-2.309253e+01	1.067744e+01
1.090000e-06	-3.084694e-06	1.539051e-10	-2.282912e+01	1.074968e+01
1.100000e-06	-3.048989e-06	1.518505e-10	-2.256488e+01	1.081585e+01
1.110000e-06	-3.013177e-06	1.556277e-10	-2.229984e+01	1.087557e+01
1.120000e-06	-2.977224e-06	1.594910e-10	-2.203376e+01	1.092852e+01
1.130000e-06	-2.941119e-06	1.613654e-10	-2.176655e+01	1.097450e+01
1.140000e-06	-2.904867e-06	1.540179e-10	-2.149826e+01	1.101335e+01
1.150000e-06	-2.868381e-06	1.515534e-10	-2.122823e+01	1.104504e+01
1.160000e-06	-2.831682e-06	1.576026e-10	-2.095664e+01	1.106959e+01
1.170000e-06	-2.794789e-06	1.631807e-10	-2.068359e+01	1.108712e+01
1.180000e-06	-2.757585e-06	1.581438e-10	-2.040826e+01	1.109780e+01
1.190000e-06	-2.720164e-06	1.532745e-10	-2.013131e+01	1.110190e+01
1.200000e-06	-2.682604e-06	1.576234e-10	-1.985334e+01	1.109974e+01
1.210000e-06	-2.644866e-06	1.596951e-10	-1.957405e+01	1.109168e+01
1.220000e-06	-2.606931e-06	1.526263e-10	-1.929330e+01	1.107818e+01
1.230000e-06	-2.568833e-06	1.482493e-10	-1.901135e+01	1.105971e+01
1.240000e-06	-2.530575e-06	1.549840e-10	-1.872821e+01	1.103678e+01
1.250000e-06	-2.492117e-06	1.614713e-10	-1.844359e+01	1.100995e+01
1.260000e-06	-2.453467e-06	1.598901e-10	-1.815755e+01	1.097978e+01
1.270000e-06	-2.414687e-06	1.594294e-10	-1.787055e+01	1.094686e+01
1.280000e-06	-2.375758e-06	1.642043e-10	-1.758244e+01	1.091180e+01
1.290000e-06	-2.336635e-06	1.669641e-10	-1.729290e+01	1.087517e+01
1.300000e-06	-2.297319e-06	1.675328e-10	-1.700193e+01	1.083758e+01
1.310000e-06	-2.257906e-06	1.653684e-10	-1.671025e+01	1.079958e+01
1.320000e-06	-2.218474e-06	1.638617e-10	-1.641842e+01	1.076174e+01
1.330000e-06	-2.178914e-06	1.660202e-10	-1.612564e+01	1.072456e+01
1.340000e-06	-2.139193e-06	1.689680e-10	-1.583168e+01	1.068855e+01
1.350000e-06	-2.099354e-06	1.663963e-10	-1.553684e+01	1.065414e+01
1.360000e-06	-2.059419e-06	1.649945e-10	-1.524129e+01	1.062176e+01
1.370000e-06	-2.019459e-06	1.684662e-10	-1.494556e+01	1.059175e+01
1.380000e-06	-1.979423e-06	1.731002e-10	-1.464926e+01	1.056442e+01
1.390000e-06	-1.939236e-06	1.722038e-10	-1.435184e+01	1.054003e+01
1.400000e-06	-1.898986e-06	1.706530e-10	-1.405396e+01	1.051879e+01
1.410000e-06	-1.858583e-06	1.717501e-10	-1.375495e+01	1.050084e+01
1.420000e-06	-1.817896e-06	1.730845e-10	-1.345383e+01	1.048627e+01
1.430000e-06	-1.777004e-06	1.692204e-10	-1.315121e+01	1.047512e+01
1.440000e-06	-1.735949e-06	1.666612e-10	-1.284737e+01	1.046739e+01
1.450000e-06	-1.694735e-06	1.685412e-10	-1.254235e+01	1.046300e+01
1.460000e-06	-1.653326e-06	1.702304e-10	-1.223589e+01	1.046184e+01
1.470000e-06	-1.611615e-06	1.698915e-10	-1.192719e+01	1.046376e+01
1.480000e-06	-1.569689e-06	1.708603e-10	-1.161691e+01	1.046855e+01
1.490000e-06	-1.527597e-06	1.733125e-10	-1.130540e+01	1.047599e+01
1.500000e-06	-1.485257e-06	1.740564e-10	-1.099205e+01	1.048580e+01
1.510000e-06	-1.442660e-06	1.728446e-10	-1.067680e+01	1.049770e+01
1.520000e-06	-1.399925e-06	1.728832e-10	-1.036053e+01	1.051137e+01
1.530000e-06	-1.357164e-06	1.723777e-10	-1.004406e+01	1.052647e+01
1.540000e-06	-1.314258e-06	1.729090e-10	-9.726524e+00	1.054268e+01
1.550000e-06	-1.271212e-06	1.758845e-10	-9.407952e+00	1.055963e+01
1.560000e-06	-1.228072e-06	1.767228e-10	-9.088684e+00	1.057699e+01
1.570000e-06	-1.184840e-06	1.752187e-10	-8.768731e+00	1.059442e+01
1.580000e-06	-1.141524e-06	1.742084e-10	-8.448160e+00	1.061158e+01
1.590000e-06	-1.098116e-06	1.741029e-10	-8.126908e+00	1.062816e+01
1.600000e-06	-1.054673e-06	1.740183e-10	-7.805392e+00	1.064387e+01
1.610000e-06	-1.011149e-06	1.744141e-10	-7.483281e+00	1.065844e+01
1.620000e-06	-9.675315e-07	1.728296e-10	-7.160480e+00	1.067161e+01
1.630000e-06	-9.238805e-07	1.711191e-10	-6.837430e+00	1.068319e+01
1.640000e-06	-8.802523e-07	1.718967e-10	-6.514547e+00	1.069300e+01
1.650000e-06	-8.366181e-07	1.721462e-10	-6.191620e+00	1.070088e+01
1.660000e-06	-7.928948e-07	1.699959e-10	-5.868034e+00	1.070673e+01
1.670000e-06	-7.491300e-07	1.709013e-10	-5.544141e+00	1.071050e+01
1.680000e-06	-7.053139e-07	1.737292e-10	-5.219868e+00	1.071213e+01
1.690000e-06	-6.614482e-07	1.734048e-10	-4.895228e+00	1.071165e+01
1.700000e-06	-6.176521e-07	1.726733e-10	-4.571103e+00	1.070909e+01
1.710000e-06	-5.739042e-07	1.736305e-10	-4.247334e+00	1.070453e+01
1.720000e-06	-5.301142e-07	1.718324e-10	-3.923255e+00	1.069810e+01
1.730000e-06	-4.862873e-07	1.708235e-10	-3.598902e+00	1.068992e+01
1.740000e-06	-4.423810e-07	1.708381e-10	-3.273961e+00	1.068019e+01
1.750000e-06	-3.983785e-07	1.688323e-10	-2.948309e+00	1.066908e+01
1.760000e-06	-3.543543e-07	1.649472e-10	-2.622496e+00	1.065682e+01
1.770000e-06	-3.103051e-07	1.649878e-10	-2.296498e+00	1.064365e+01
1.780000e-06	-2.662850e-07	1.690978e-10	-1.970714e+00	1.062982e+01
1.790000e-06	-2.223101e-07	1.715210e-10	-1.645266e+00	1.061559e+01
1.800000e-06	-1.783530e-07	1.714119e-10	-1.319950e+00	1.060121e+01
1.810000e-06	-1.343893e-07	1.715423e-10	-9.945850e-01	1.058696e+01
1.820000e-06	-9.037067e-08	1.754864e-10	-6.688128e-01	1.057309e+01
1.830000e-06	-4.636772e-08	1.790258e-10	-3.431570e-01	1.055987e+01
1.840000e-06	-2.396093e-09	1.778635e-10	-1.773294e-02	1.054751e+01
1.850000e-06	4.156516e-08	1.767783e-10	3.076143e-01	1.053627e+01
1.860000e-06	8.551558e-08	1.794743e-10	6.328814e-01	1.052632e+01
1.870000e-06	1.295244e-07	1.820052e-10	9.585808e-01	1.051786e+01
1.880000e-06	1.735712e-07	1.809744e-10	1.284561e+00	1.051105e+01
1.890000e-06	2.176133e-07	1.810490e-10	1.610506e+00	1.050601e+01
1.900000e-06	2.616100e-07	1.844276e-10	1.936116e+00	1.050283e+01
1.910000e-06	3.055349e-07	1.884427e-10	2.261194e+00	1.050159e+01
1.920000e-06	3.494478e-07	1.902356e-10	2.586184e+00	1.050231e+01
1.930000e-06	3.933455e-07	1.879805e-10	2.911061e+00	1.050500e+01
1.940000e-06	4.372291e-07	1.861782e-10	3.235833e+00	1.050962e+01
1.950000e-06	4.811352e-07	1.865640e-10	3.560773e+00	1.051611e+01
1.960000e-06	5.250363e-07	1.857718e-10	3.885674e+00	1.052437e+01
1.970000e-06	5.688902e-07	1.833088e-10	4.210227e+00	1.053426e+01
1.980000e-06	6.127118e-07	1.824491e-10	4.534541e+00	1.054564e+01
1.990000e-06	6.565142e-07	1.824152e-10	4.858712e+00	1.055832e+01
2.000000e-06	7.003096e-07	1.804227e-10	5.182832e+00	1.057211e+01
2.010000e-06	7.440829e-07	1.781302e-10	5.506788e+00	1.058676e+01
2.020000e-06	7.877991e-07	1.761600e-10	5.830322e+00	1.060205e+01
2.030000e-06	8.314672e-07	1.763522e-10	6.153500e+00	1.061773e+01
2.040000e-06	8.750608e-07	1.776300e-10	6.476126e+00	1.063353e+01
2.050000e-06	9.186612e-07	1.751264e-10	6.798803e+00	1.064920e+01
2.060000e-06	9.622872e-07	1.704701e-10	7.121669e+00	1.066446e+01
2.070000e-06	1.005868e-06	1.687503e-10	7.444199e+00	1.067906e+01
2.080000e-06	1.049430e-06	1.686992e-10	7.766592e+00	1.069275e+01
2.090000e-06	1.092950e-06	1.675515e-10	8.088671e+00	1.070530e+01
2.100000e-06	1.136372e-06	1.668670e-10	8.410031e+00	1.071647e+01
2.110000e-06	1.179676e-06	1.666720e-10	8.730517e+00	1.072609e+01
2.120000e-06	1.222856e-06	1.662089e-10	9.050082e+00	1.073396e+01
2.130000e-06	1.265990e-06	1.663176e-10	9.369301e+00	1.073994e+01
2.140000e-06	1.309077e-06	1.678351e-10	9.688180e+00	1.074392e+01
2.150000e-06	1.352030e-06	1.695789e-10	1.000606e+01	1.074580e+01
2.160000e-06	1.394745e-06	1.717307e-10	1.032219e+01	1.074555e+01
2.170000e-06	1.437275e-06	1.736133e-10	1.063695e+01	1.074313e+01
2.180000e-06	1.479655e-06	1.740803e-10	1.095059e+01	1.073858e+01
2.190000e-06	1.521711e-06	1.734401e-10	1.126184e+01	1.073194e+01
2.200000e-06	1.563546e-06	1.725554e-10	1.157145e+01	1.072333e+01
2.210000e-06	1.605245e-06	1.735576e-10	1.188005e+01	1.071285e+01
2.220000e-06	1.646834e-06	1.743254e-10	1.218785e+01	1.070069e+01
2.230000e-06	1.688323e-06	1.735273e-10	1.249489e+01	1.068703e+01
2.240000e-06	1.729503e-06	1.749993e-10	1.279966e+01	1.067211e+01
2.250000e-06	1.770369e-06	1.749447e-10	1.310210e+01	1.065618e+01
2.260000e-06	1.811075e-06	1.726321e-10	1.340336e+01	1.063952e+01
2.270000e-06	1.851583e-06	1.720980e-10	1.370315e+01	1.062243e+01
2.280000e-06	1.891961e-06	1.740184e-10	1.400198e+01	1.060523e+01
2.290000e-06	1.932274e-06	1.765023e-10	1.430032e+01	1.058825e+01
2.300000e-06	1.972423e-06	1.761518e-10	1.459745e+01	1.057184e+01
2.310000e-06	2.012453e-06	1.743374e-10	1.489370e+01	1.055632e+01
2.320000e-06	2.052421e-06	1.750811e-10	1.518950e+01	1.054205e+01
2.330000e-06	2.092325e-06	1.773222e-10	1.548482e+01	1.052936e+01
2.340000e-06	2.132149e-06	1.748866e-10	1.577955e+01	1.051857e+01
2.350000e-06	2.171847e-06	1.732433e-10	1.607334e+01	1.050999e+01
2.360000e-06	2.211408e-06	1.762019e-10	1.636613e+01	1.050392e+01
2.370000e-06	2.250847e-06	1.773144e-10	1.665801e+01	1.050060e+01
2.380000e-06	2.290166e-06	1.755051e-10	1.694900e+01	1.050029e+01
2.390000e-06	2.329353e-06	1.751137e-10	1.723901e+01	1.050317e+01
2.400000e-06	2.368459e-06	1.790492e-10	1.752843e+01	1.050942e+01
2.410000e-06	2.407430e-06	1.830070e-10	1.781684e+01	1.051917e+01
2.420000e-06	2.446156e-06	1.837036e-10	1.810345e+01	1.053249e+01
2.430000e-06	2.484673e-06	1.823880e-10	1.838850e+01	1.054944e+01
2.440000e-06	2.522991e-06	1.810017e-10	1.867209e+01	1.057000e+01
2.450000e-06	2.561100e-06	1.823658e-10	1.895412e+01	1.059414e+01
2.460000e-06	2.598992e-06	1.828571e-10	1.923455e+01	1.062176e+01
2.470000e-06	2.636707e-06	1.814373e-10	1.951367e+01	1.065271e+01
2.480000e-06	2.674280e-06	1.815697e-10	1.979174e+01	1.068683e+01
2.490000e-06	2.711721e-06	1.829262e-10	2.006883e+01	1.072387e+01
2.500000e-06	2.749060e-06	1.829466e-10	2.034517e+01	1.076358e+01
2.510000e-06	2.786243e-06	1.790994e-10	2.062035e+01	1.080564e+01
2.520000e-06	2.823231e-06	1.751201e-10	2.089409e+01	1.084973e+01
2.530000e-06	2.859995e-06	1.750746e-10	2.116617e+01	1.089548e+01
2.540000e-06	2.896467e-06	1.764731e-10	2.143609e+01	1.094248e+01
2.550000e-06	2.932724e-06	1.759763e-10	2.170443e+01	1.099032e+01
2.560000e-06	2.968813e-06	1.748926e-10	2.197151e+01	1.103857e+01
2.570000e-06	3.004754e-06	1.779612e-10	2.223750e+01	1.108679e+01
2.580000e-06	3.040606e-06	1.829178e-10	2.250283e+01	1.113451e+01
2.590000e-06	3.076340e-06	1.832205e-10	2.276729e+01	1.118130e+01
2.600000e-06	3.111979e-06	1.793550e-10	2.303105e+01	1.122670e+01
2.610000e-06	3.147515e-06	1.779531e-10	2.329405e+01	1.127029e+01
2.620000e-06	3.182839e-06	1.790425e-10	2.355547e+01	1.131163e+01
2.630000e-06	3.217842e-06	1.795168e-10	2.381452e+01	1.135035e+01
2.640000e-06	3.252534e-06	1.797624e-10	2.407126e+01	1.138606e+01
2.650000e-06	3.286927e-06	1.797142e-10	2.432580e+01	1.141844e+01
2.660000e-06	3.320938e-06	1.786080e-10	2.457751e+01	1.144718e+01
2.670000e-06	3.354565e-06	1.787624e-10	2.482638e+01	1.147203e+01
2.680000e-06	3.387812e-06	1.804559e-10	2.507243e+01	1.149277e+01
2.690000e-06	3.420593e-06	1.807406e-10	2.531503e+01	1.150923e+01
2.700000e-06	3.453027e-06	1.807235e-10	2.555507e+01	1.152131e+01
2.710000e-06	3.485222e-06	1.816686e-10	2.579333e+01	1.152894e+01
2.720000e-06	3.517187e-06	1.821154e-10	2.602990e+01	1.153211e+01
2.730000e-06	3.549063e-06	1.824609e-10	2.626581e+01	1.153087e+01
2.740000e-06	3.580823e-06	1.847619e-10	2.650086e+01	1.152530e+01
2.750000e-06	3.612378e-06	1.883641e-10	2.673439e+01	1.151557e+01
2.760000e-06	3.643703e-06	1.903446e-10	2.696622e+01	1.150187e+01
2.770000e-06	3.674792e-06	1.897186e-10	2.719630e+01	1.148446e+01
2.780000e-06	3.705680e-06	1.904534e-10	2.742490e+01	1.146363e+01
2.790000e-06	3.736263e-06	1.925576e-10	2.765123e+01	1.143972e+01
2.800000e-06	3.766465e-06	1.934842e-10	2.787475e+01	1.141312e+01
2.810000e-06	3.796376e-06	1.931081e-10	2.809612e+01	1.138422e+01
2.820000e-06	3.826107e-06	1.930986e-10	2.831615e+01	1.135348e+01
2.830000e-06	3.855689e-06	1.930989e-10	2.853508e+01	1.132136e+01
2.840000e-06	3.885063e-06	1.932110e-10	2.875247e+01	1.128834e+01
2.850000e-06	3.914137e-06	1.938172e-10	2.896764e+01	1.125490e+01
2.860000e-06	3.942922e-06	1.921878e-10	2.918067e+01	1.122156e+01
2.870000e-06	3.971427e-06	1.898108e-10	2.939163e+01	1.118879e+01
2.880000e-06	3.999624e-06	1.890289e-10	2.960031e+01	1.115708e+01
2.890000e-06	4.027585e-06	1.878657e-10	2.980724e+01	1.112691e+01
2.900000e-06	4.055407e-06	1.866923e-10	3.001315e+01	1.109872e+01
2.910000e-06	4.083115e-06	1.858199e-10	3.021821e+01	1.107293e+01
2.920000e-06	4.110653e-06	1.846350e-10	3.042201e+01	1.104993e+01
2.930000e-06	4.137899e-06	1.842708e-10	3.062365e+01	1.103006e+01
2.940000e-06	4.164790e-06	1.849187e-10	3.082267e+01	1.101362e+01
2.950000e-06	4.191316e-06	1.858071e-10	3.101898e+01	1.100088e+01
