# Temperatura_=_20.0
# Concentracion g/m^3_=_9000.0
# C_Vs_to_Am_M_A/Vsm_=_65563218390.804596
# pendiente_HvsI_1/m_=_3716.3
# ordenada_HvsI_A/m_=_1297.0
# frecuencia_Hz_=_135115.06654820073

Tiempo_(s)	Campo_(V.s)	Magnetizacion_(V.s)	Campo_(kA/m)	Magnetizacion_(A/m)
0.000000e+00	-5.193111e-06	-3.958867e-09	-3.836512e+01	-2.569077e+02
1.000000e-08	-5.193268e-06	-3.958234e-09	-3.836628e+01	-2.569132e+02
2.000000e-08	-5.193230e-06	-3.958217e-09	-3.836600e+01	-2.569074e+02
3.000000e-08	-5.192880e-06	-3.957769e-09	-3.836342e+01	-2.568900e+02
4.000000e-08	-5.192134e-06	-3.955900e-09	-3.835790e+01	-2.568609e+02
5.000000e-08	-5.190854e-06	-3.956487e-09	-3.834844e+01	-2.568202e+02
6.000000e-08	-5.189036e-06	-3.966867e-09	-3.833501e+01	-2.567680e+02
7.000000e-08	-5.186627e-06	-3.979199e-09	-3.831722e+01	-2.567043e+02
8.000000e-08	-5.183613e-06	-3.946800e-09	-3.829495e+01	-2.566295e+02
9.000000e-08	-5.180156e-06	-3.865251e-09	-3.826941e+01	-2.565439e+02
1.000000e-07	-5.176379e-06	-3.909098e-09	-3.824151e+01	-2.564480e+02
1.100000e-07	-5.172351e-06	-4.091158e-09	-3.821175e+01	-2.563423e+02
1.200000e-07	-5.168058e-06	-4.062104e-09	-3.818003e+01	-2.562275e+02
1.300000e-07	-5.163442e-06	-3.830327e-09	-3.814593e+01	-2.561043e+02
1.400000e-07	-5.158532e-06	-3.714194e-09	-3.810966e+01	-2.559734e+02
1.500000e-07	-5.153280e-06	-3.938290e-09	-3.807086e+01	-2.558358e+02
1.600000e-07	-5.147604e-06	-4.155610e-09	-3.802893e+01	-2.556923e+02
1.700000e-07	-5.141544e-06	-4.014582e-09	-3.798416e+01	-2.555440e+02
1.800000e-07	-5.135121e-06	-3.813872e-09	-3.793671e+01	-2.553918e+02
1.900000e-07	-5.128294e-06	-3.816171e-09	-3.788627e+01	-2.552368e+02
2.000000e-07	-5.121209e-06	-4.069887e-09	-3.783393e+01	-2.550800e+02
2.100000e-07	-5.113892e-06	-4.170750e-09	-3.777987e+01	-2.549225e+02
2.200000e-07	-5.106262e-06	-4.010421e-09	-3.772351e+01	-2.547653e+02
2.300000e-07	-5.098355e-06	-3.751478e-09	-3.766509e+01	-2.546096e+02
2.400000e-07	-5.090136e-06	-3.851610e-09	-3.760437e+01	-2.544561e+02
2.500000e-07	-5.081534e-06	-4.089110e-09	-3.754083e+01	-2.543060e+02
2.600000e-07	-5.072398e-06	-3.983389e-09	-3.747333e+01	-2.541600e+02
2.700000e-07	-5.062394e-06	-3.623314e-09	-3.739942e+01	-2.540189e+02
2.800000e-07	-5.051837e-06	-3.659334e-09	-3.732143e+01	-2.538836e+02
2.900000e-07	-5.041082e-06	-4.010961e-09	-3.724197e+01	-2.537545e+02
3.000000e-07	-5.029808e-06	-3.982715e-09	-3.715869e+01	-2.536323e+02
3.100000e-07	-5.018005e-06	-3.624862e-09	-3.707149e+01	-2.535172e+02
3.200000e-07	-5.005940e-06	-3.634446e-09	-3.698236e+01	-2.534096e+02
3.300000e-07	-4.993687e-06	-3.991194e-09	-3.689184e+01	-2.533095e+02
3.400000e-07	-4.981087e-06	-4.023294e-09	-3.679875e+01	-2.532171e+02
3.500000e-07	-4.968042e-06	-3.793997e-09	-3.670237e+01	-2.531320e+02
3.600000e-07	-4.954565e-06	-3.742495e-09	-3.660281e+01	-2.530541e+02
3.700000e-07	-4.940658e-06	-3.872819e-09	-3.650008e+01	-2.529828e+02
3.800000e-07	-4.926363e-06	-3.897231e-09	-3.639447e+01	-2.529176e+02
3.900000e-07	-4.911568e-06	-3.958236e-09	-3.628517e+01	-2.528579e+02
4.000000e-07	-4.896156e-06	-3.876719e-09	-3.617131e+01	-2.528026e+02
4.100000e-07	-4.880253e-06	-3.696625e-09	-3.605382e+01	-2.527509e+02
4.200000e-07	-4.863939e-06	-3.786102e-09	-3.593330e+01	-2.527016e+02
4.300000e-07	-4.847286e-06	-4.070001e-09	-3.581027e+01	-2.526535e+02
4.400000e-07	-4.830275e-06	-3.905800e-09	-3.568460e+01	-2.526053e+02
4.500000e-07	-4.812917e-06	-3.614819e-09	-3.555636e+01	-2.525555e+02
4.600000e-07	-4.795438e-06	-3.827092e-09	-3.542723e+01	-2.525027e+02
4.700000e-07	-4.777826e-06	-4.122596e-09	-3.529712e+01	-2.524453e+02
4.800000e-07	-4.759707e-06	-3.891250e-09	-3.516326e+01	-2.523817e+02
4.900000e-07	-4.741060e-06	-3.676053e-09	-3.502550e+01	-2.523103e+02
5.000000e-07	-4.722159e-06	-3.873915e-09	-3.488587e+01	-2.522293e+02
5.100000e-07	-4.703020e-06	-4.015294e-09	-3.474448e+01	-2.521373e+02
5.200000e-07	-4.683525e-06	-3.859151e-09	-3.460045e+01	-2.520324e+02
5.300000e-07	-4.663742e-06	-3.781266e-09	-3.445430e+01	-2.519132e+02
5.400000e-07	-4.643856e-06	-3.842543e-09	-3.430739e+01	-2.517780e+02
5.500000e-07	-4.623803e-06	-3.858480e-09	-3.415925e+01	-2.516255e+02
5.600000e-07	-4.603432e-06	-3.868872e-09	-3.400875e+01	-2.514542e+02
5.700000e-07	-4.582693e-06	-3.872937e-09	-3.385554e+01	-2.512628e+02
5.800000e-07	-4.561602e-06	-3.790458e-09	-3.369972e+01	-2.510502e+02
5.900000e-07	-4.540309e-06	-3.749494e-09	-3.354242e+01	-2.508152e+02
6.000000e-07	-4.518759e-06	-3.861282e-09	-3.338321e+01	-2.505570e+02
6.100000e-07	-4.496850e-06	-3.882371e-09	-3.322136e+01	-2.502749e+02
6.200000e-07	-4.474619e-06	-3.739289e-09	-3.305712e+01	-2.499682e+02
6.300000e-07	-4.452075e-06	-3.697328e-09	-3.289057e+01	-2.496364e+02
6.400000e-07	-4.429214e-06	-3.837405e-09	-3.272168e+01	-2.492793e+02
6.500000e-07	-4.405964e-06	-3.852165e-09	-3.254992e+01	-2.488968e+02
6.600000e-07	-4.382439e-06	-3.724529e-09	-3.237612e+01	-2.484889e+02
6.700000e-07	-4.358694e-06	-3.693811e-09	-3.220070e+01	-2.480559e+02
6.800000e-07	-4.334713e-06	-3.781823e-09	-3.202354e+01	-2.475982e+02
6.900000e-07	-4.310514e-06	-3.779057e-09	-3.184476e+01	-2.471164e+02
7.000000e-07	-4.286007e-06	-3.714447e-09	-3.166371e+01	-2.466111e+02
7.100000e-07	-4.261095e-06	-3.689103e-09	-3.147967e+01	-2.460833e+02
7.200000e-07	-4.235646e-06	-3.711597e-09	-3.129166e+01	-2.455340e+02
7.300000e-07	-4.209785e-06	-3.719085e-09	-3.110061e+01	-2.449642e+02
7.400000e-07	-4.183564e-06	-3.712181e-09	-3.090689e+01	-2.443754e+02
7.500000e-07	-4.156917e-06	-3.679164e-09	-3.071003e+01	-2.437687e+02
7.600000e-07	-4.129924e-06	-3.653279e-09	-3.051062e+01	-2.431456e+02
7.700000e-07	-4.102558e-06	-3.662110e-09	-3.030845e+01	-2.425076e+02
7.800000e-07	-4.074925e-06	-3.681979e-09	-3.010430e+01	-2.418563e+02
7.900000e-07	-4.047114e-06	-3.648849e-09	-2.989885e+01	-2.411932e+02
8.000000e-07	-4.019080e-06	-3.598208e-09	-2.969174e+01	-2.405198e+02
8.100000e-07	-3.990840e-06	-3.611730e-09	-2.948311e+01	-2.398378e+02
8.200000e-07	-3.962367e-06	-3.656117e-09	-2.927276e+01	-2.391487e+02
8.300000e-07	-3.933630e-06	-3.628823e-09	-2.906046e+01	-2.384539e+02
8.400000e-07	-3.904643e-06	-3.568676e-09	-2.884631e+01	-2.377548e+02
8.500000e-07	-3.875399e-06	-3.581305e-09	-2.863027e+01	-2.370527e+02
8.600000e-07	-3.845804e-06	-3.614055e-09	-2.841163e+01	-2.363490e+02
8.700000e-07	-3.815971e-06	-3.584123e-09	-2.819123e+01	-2.356446e+02
8.800000e-07	-3.785967e-06	-3.534399e-09	-2.796957e+01	-2.349406e+02
8.900000e-07	-3.755694e-06	-3.535799e-09	-2.774592e+01	-2.342378e+02
9.000000e-07	-3.725129e-06	-3.550678e-09	-2.752012e+01	-2.335367e+02
9.100000e-07	-3.694296e-06	-3.541571e-09	-2.729233e+01	-2.328380e+02
9.200000e-07	-3.663262e-06	-3.514796e-09	-2.706306e+01	-2.321419e+02
9.300000e-07	-3.632028e-06	-3.498797e-09	-2.683231e+01	-2.314487e+02
9.400000e-07	-3.600594e-06	-3.491595e-09	-2.660009e+01	-2.307581e+02
9.500000e-07	-3.568953e-06	-3.496208e-09	-2.636633e+01	-2.300701e+02
9.600000e-07	-3.537153e-06	-3.482309e-09	-2.613141e+01	-2.293842e+02
9.700000e-07	-3.505146e-06	-3.449932e-09	-2.589495e+01	-2.286998e+02
9.800000e-07	-3.472817e-06	-3.430368e-09	-2.565611e+01	-2.280161e+02
9.900000e-07	-3.440272e-06	-3.439426e-09	-2.541568e+01	-2.273323e+02
1.000000e-06	-3.407484e-06	-3.436011e-09	-2.517346e+01	-2.266472e+02
1.010000e-06	-3.374376e-06	-3.407108e-09	-2.492886e+01	-2.259597e+02
1.020000e-06	-3.340977e-06	-3.382824e-09	-2.468212e+01	-2.252683e+02
1.030000e-06	-3.307161e-06	-3.386969e-09	-2.443230e+01	-2.245715e+02
1.040000e-06	-3.272824e-06	-3.385475e-09	-2.417862e+01	-2.238678e+02
1.050000e-06	-3.238083e-06	-3.361236e-09	-2.392197e+01	-2.231555e+02
1.060000e-06	-3.203128e-06	-3.336509e-09	-2.366373e+01	-2.224328e+02
1.070000e-06	-3.167891e-06	-3.329525e-09	-2.340341e+01	-2.216980e+02
1.080000e-06	-3.132353e-06	-3.324104e-09	-2.314086e+01	-2.209493e+02
1.090000e-06	-3.096653e-06	-3.307745e-09	-2.287713e+01	-2.201847e+02
1.100000e-06	-3.060844e-06	-3.290540e-09	-2.261258e+01	-2.194026e+02
1.110000e-06	-3.024951e-06	-3.277103e-09	-2.234741e+01	-2.186011e+02
1.120000e-06	-2.988973e-06	-3.264788e-09	-2.208162e+01	-2.177786e+02
1.130000e-06	-2.952889e-06	-3.252183e-09	-2.181504e+01	-2.169332e+02
1.140000e-06	-2.916627e-06	-3.236291e-09	-2.154715e+01	-2.160636e+02
1.150000e-06	-2.880100e-06	-3.214177e-09	-2.127730e+01	-2.151681e+02
1.160000e-06	-2.843377e-06	-3.196847e-09	-2.100600e+01	-2.142456e+02
1.170000e-06	-2.806450e-06	-3.187130e-09	-2.073319e+01	-2.132947e+02
1.180000e-06	-2.769269e-06	-3.174093e-09	-2.045852e+01	-2.123144e+02
1.190000e-06	-2.731949e-06	-3.150102e-09	-2.018281e+01	-2.113037e+02
1.200000e-06	-2.694454e-06	-3.131887e-09	-1.990580e+01	-2.102621e+02
1.210000e-06	-2.656709e-06	-3.120471e-09	-1.962695e+01	-2.091887e+02
1.220000e-06	-2.618733e-06	-3.105062e-09	-1.934640e+01	-2.080834e+02
1.230000e-06	-2.580566e-06	-3.080115e-09	-1.906443e+01	-2.069457e+02
1.240000e-06	-2.542303e-06	-3.060937e-09	-1.878176e+01	-2.057757e+02
1.250000e-06	-2.503920e-06	-3.047275e-09	-1.849820e+01	-2.045734e+02
1.260000e-06	-2.465317e-06	-3.030316e-09	-1.821301e+01	-2.033392e+02
1.270000e-06	-2.426453e-06	-3.007444e-09	-1.792590e+01	-2.020733e+02
1.280000e-06	-2.387443e-06	-2.988287e-09	-1.763770e+01	-2.007765e+02
1.290000e-06	-2.348295e-06	-2.970665e-09	-1.734849e+01	-1.994492e+02
1.300000e-06	-2.309000e-06	-2.951064e-09	-1.705819e+01	-1.980923e+02
1.310000e-06	-2.269600e-06	-2.929348e-09	-1.676711e+01	-1.967067e+02
1.320000e-06	-2.230044e-06	-2.908043e-09	-1.647489e+01	-1.952933e+02
1.330000e-06	-2.190350e-06	-2.886589e-09	-1.618164e+01	-1.938530e+02
1.340000e-06	-2.150573e-06	-2.868582e-09	-1.588777e+01	-1.923869e+02
1.350000e-06	-2.110794e-06	-2.851160e-09	-1.559390e+01	-1.908960e+02
1.360000e-06	-2.070926e-06	-2.827825e-09	-1.529937e+01	-1.893813e+02
1.370000e-06	-2.030909e-06	-2.798653e-09	-1.500373e+01	-1.878437e+02
1.380000e-06	-1.990762e-06	-2.773610e-09	-1.470714e+01	-1.862840e+02
1.390000e-06	-1.950528e-06	-2.752573e-09	-1.440991e+01	-1.847031e+02
1.400000e-06	-1.910130e-06	-2.727563e-09	-1.411146e+01	-1.831016e+02
1.410000e-06	-1.869536e-06	-2.700845e-09	-1.381156e+01	-1.814800e+02
1.420000e-06	-1.828842e-06	-2.677561e-09	-1.351093e+01	-1.798386e+02
1.430000e-06	-1.788041e-06	-2.656526e-09	-1.320950e+01	-1.781777e+02
1.440000e-06	-1.747056e-06	-2.630281e-09	-1.290672e+01	-1.764970e+02
1.450000e-06	-1.705786e-06	-2.601319e-09	-1.260183e+01	-1.747964e+02
1.460000e-06	-1.664256e-06	-2.573962e-09	-1.229501e+01	-1.730754e+02
1.470000e-06	-1.622477e-06	-2.548034e-09	-1.198636e+01	-1.713330e+02
1.480000e-06	-1.580383e-06	-2.521789e-09	-1.167539e+01	-1.695684e+02
1.490000e-06	-1.538046e-06	-2.494553e-09	-1.136261e+01	-1.677801e+02
1.500000e-06	-1.495630e-06	-2.463494e-09	-1.104926e+01	-1.659667e+02
1.510000e-06	-1.453114e-06	-2.433397e-09	-1.073516e+01	-1.641261e+02
1.520000e-06	-1.410366e-06	-2.404784e-09	-1.041935e+01	-1.622563e+02
1.530000e-06	-1.367442e-06	-2.377545e-09	-1.010224e+01	-1.603549e+02
1.540000e-06	-1.324405e-06	-2.348403e-09	-9.784299e+00	-1.584192e+02
1.550000e-06	-1.281210e-06	-2.322486e-09	-9.465189e+00	-1.564462e+02
1.560000e-06	-1.237959e-06	-2.294912e-09	-9.145666e+00	-1.544328e+02
1.570000e-06	-1.194713e-06	-2.260754e-09	-8.826174e+00	-1.523756e+02
1.580000e-06	-1.151369e-06	-2.221923e-09	-8.505963e+00	-1.502710e+02
1.590000e-06	-1.107845e-06	-2.185828e-09	-8.184418e+00	-1.481152e+02
1.600000e-06	-1.064235e-06	-2.153432e-09	-7.862243e+00	-1.459045e+02
1.610000e-06	-1.020665e-06	-2.119742e-09	-7.540360e+00	-1.436347e+02
1.620000e-06	-9.770846e-07	-2.083215e-09	-7.218403e+00	-1.413018e+02
1.630000e-06	-9.334584e-07	-2.044586e-09	-6.896105e+00	-1.389015e+02
1.640000e-06	-8.897666e-07	-2.005996e-09	-6.573324e+00	-1.364299e+02
1.650000e-06	-8.460355e-07	-1.968172e-09	-6.250252e+00	-1.338827e+02
1.660000e-06	-8.022323e-07	-1.927784e-09	-5.926648e+00	-1.312558e+02
1.670000e-06	-7.583545e-07	-1.885754e-09	-5.602492e+00	-1.285453e+02
1.680000e-06	-7.145312e-07	-1.844613e-09	-5.278738e+00	-1.257473e+02
1.690000e-06	-6.706889e-07	-1.803194e-09	-4.954845e+00	-1.228582e+02
1.700000e-06	-6.267852e-07	-1.761398e-09	-4.630497e+00	-1.198746e+02
1.710000e-06	-5.829228e-07	-1.717768e-09	-4.306456e+00	-1.167932e+02
1.720000e-06	-5.390362e-07	-1.673740e-09	-3.982235e+00	-1.136111e+02
1.730000e-06	-4.950924e-07	-1.629368e-09	-3.657591e+00	-1.103259e+02
1.740000e-06	-4.511355e-07	-1.581720e-09	-3.332851e+00	-1.069353e+02
1.750000e-06	-4.071325e-07	-1.525282e-09	-3.007771e+00	-1.034374e+02
1.760000e-06	-3.631306e-07	-1.468222e-09	-2.682698e+00	-9.983091e+01
1.770000e-06	-3.191422e-07	-1.415570e-09	-2.357725e+00	-9.611488e+01
1.780000e-06	-2.751405e-07	-1.363330e-09	-2.032654e+00	-9.228881e+01
1.790000e-06	-2.311406e-07	-1.307936e-09	-1.707596e+00	-8.835273e+01
1.800000e-06	-1.871201e-07	-1.250928e-09	-1.382387e+00	-8.430715e+01
1.810000e-06	-1.430601e-07	-1.193087e-09	-1.056885e+00	-8.015312e+01
1.820000e-06	-9.904896e-08	-1.134947e-09	-7.317435e-01	-7.589220e+01
1.830000e-06	-5.508220e-08	-1.073263e-09	-4.069305e-01	-7.152647e+01
1.840000e-06	-1.108425e-08	-1.003580e-09	-8.188705e-02	-6.705857e+01
1.850000e-06	3.293620e-08	-9.311121e-10	2.433226e-01	-6.249164e+01
1.860000e-06	7.696495e-08	-8.607725e-10	5.685936e-01	-5.782934e+01
1.870000e-06	1.210005e-07	-7.905874e-10	8.939146e-01	-5.307586e+01
1.880000e-06	1.650572e-07	-7.159743e-10	1.219392e+00	-4.823585e+01
1.890000e-06	2.091365e-07	-6.398687e-10	1.545036e+00	-4.331444e+01
1.900000e-06	2.531759e-07	-5.659583e-10	1.870386e+00	-3.831719e+01
1.910000e-06	2.971762e-07	-4.907365e-10	2.195447e+00	-3.325012e+01
1.920000e-06	3.412185e-07	-4.115998e-10	2.520818e+00	-2.811957e+01
1.930000e-06	3.852150e-07	-3.282716e-10	2.845850e+00	-2.293230e+01
1.940000e-06	4.291733e-07	-2.454664e-10	3.170602e+00	-1.769533e+01
1.950000e-06	4.731516e-07	-1.641720e-10	3.495500e+00	-1.241599e+01
1.960000e-06	5.170959e-07	-8.058600e-11	3.820146e+00	-7.101831e+00
1.970000e-06	5.610056e-07	5.778381e-12	4.144538e+00	-1.760593e+00
1.980000e-06	6.048807e-07	9.122953e-11	4.468674e+00	3.599832e+00
1.990000e-06	6.487387e-07	1.743016e-10	4.792683e+00	8.971452e+00
2.000000e-06	6.926072e-07	2.584241e-10	5.116771e+00	1.434622e+01
2.010000e-06	7.364760e-07	3.443369e-10	5.440860e+00	1.971609e+01
2.020000e-06	7.803011e-07	4.294206e-10	5.764626e+00	2.507305e+01
2.030000e-06	8.240778e-07	5.120966e-10	6.088035e+00	3.040916e+01
2.040000e-06	8.678308e-07	5.938612e-10	6.411269e+00	3.571664e+01
2.050000e-06	9.115759e-07	6.751764e-10	6.734445e+00	4.098784e+01
2.060000e-06	9.552996e-07	7.580495e-10	7.057462e+00	4.621537e+01
2.070000e-06	9.989678e-07	8.408713e-10	7.380069e+00	5.139207e+01
2.080000e-06	1.042618e-06	9.202942e-10	7.702546e+00	5.651108e+01
2.090000e-06	1.086284e-06	9.990587e-10	8.025137e+00	6.156587e+01
2.100000e-06	1.129862e-06	1.076684e-09	8.347072e+00	6.655028e+01
2.110000e-06	1.173283e-06	1.150265e-09	8.667854e+00	7.145852e+01
2.120000e-06	1.216598e-06	1.222791e-09	8.987857e+00	7.628523e+01
2.130000e-06	1.259828e-06	1.293177e-09	9.307221e+00	8.102549e+01
2.140000e-06	1.302955e-06	1.360846e-09	9.625834e+00	8.567483e+01
2.150000e-06	1.346058e-06	1.426928e-09	9.944266e+00	9.022927e+01
2.160000e-06	1.389117e-06	1.488423e-09	1.026237e+01	9.468528e+01
2.170000e-06	1.431924e-06	1.547688e-09	1.057862e+01	9.903985e+01
2.180000e-06	1.474471e-06	1.608956e-09	1.089294e+01	1.032905e+02
2.190000e-06	1.516823e-06	1.669531e-09	1.120582e+01	1.074351e+02
2.200000e-06	1.559032e-06	1.725147e-09	1.151765e+01	1.114721e+02
2.210000e-06	1.601101e-06	1.777381e-09	1.182845e+01	1.154006e+02
2.220000e-06	1.642904e-06	1.827900e-09	1.213727e+01	1.192199e+02
2.230000e-06	1.684457e-06	1.877648e-09	1.244425e+01	1.229299e+02
2.240000e-06	1.725726e-06	1.928111e-09	1.274914e+01	1.265309e+02
2.250000e-06	1.766705e-06	1.975473e-09	1.305188e+01	1.300236e+02
2.260000e-06	1.807575e-06	2.020458e-09	1.335381e+01	1.334092e+02
2.270000e-06	1.848291e-06	2.068655e-09	1.365461e+01	1.366891e+02
2.280000e-06	1.888750e-06	2.116269e-09	1.395351e+01	1.398652e+02
2.290000e-06	1.929063e-06	2.158402e-09	1.425133e+01	1.429397e+02
2.300000e-06	1.969260e-06	2.198246e-09	1.454829e+01	1.459149e+02
2.310000e-06	2.009387e-06	2.237986e-09	1.484474e+01	1.487936e+02
2.320000e-06	2.049481e-06	2.275995e-09	1.514094e+01	1.515786e+02
2.330000e-06	2.089437e-06	2.311135e-09	1.543612e+01	1.542731e+02
2.340000e-06	2.129276e-06	2.348426e-09	1.573044e+01	1.568804e+02
2.350000e-06	2.169057e-06	2.387366e-09	1.602433e+01	1.594037e+02
2.360000e-06	2.208759e-06	2.424943e-09	1.631764e+01	1.618465e+02
2.370000e-06	2.248327e-06	2.462234e-09	1.660995e+01	1.642125e+02
2.380000e-06	2.287726e-06	2.498804e-09	1.690102e+01	1.665050e+02
2.390000e-06	2.327045e-06	2.533757e-09	1.719150e+01	1.687276e+02
2.400000e-06	2.366287e-06	2.563109e-09	1.748141e+01	1.708839e+02
2.410000e-06	2.405268e-06	2.590873e-09	1.776938e+01	1.729772e+02
2.420000e-06	2.444040e-06	2.621177e-09	1.805582e+01	1.750110e+02
2.430000e-06	2.482714e-06	2.651563e-09	1.834154e+01	1.769886e+02
2.440000e-06	2.521157e-06	2.680558e-09	1.862554e+01	1.789130e+02
2.450000e-06	2.559328e-06	2.709535e-09	1.890754e+01	1.807872e+02
2.460000e-06	2.597389e-06	2.740796e-09	1.918872e+01	1.826142e+02
2.470000e-06	2.635374e-06	2.768911e-09	1.946934e+01	1.843965e+02
2.480000e-06	2.673205e-06	2.794457e-09	1.974883e+01	1.861367e+02
2.490000e-06	2.710922e-06	2.820814e-09	2.002747e+01	1.878372e+02
2.500000e-06	2.748465e-06	2.846820e-09	2.030482e+01	1.895000e+02
2.510000e-06	2.785720e-06	2.873968e-09	2.058005e+01	1.911271e+02
2.520000e-06	2.822765e-06	2.901041e-09	2.085373e+01	1.927202e+02
2.530000e-06	2.859625e-06	2.925553e-09	2.112604e+01	1.942808e+02
2.540000e-06	2.896230e-06	2.947717e-09	2.139646e+01	1.958104e+02
2.550000e-06	2.932559e-06	2.970462e-09	2.166485e+01	1.973102e+02
2.560000e-06	2.968670e-06	2.993733e-09	2.193163e+01	1.987811e+02
2.570000e-06	3.004650e-06	3.014203e-09	2.219743e+01	2.002240e+02
2.580000e-06	3.040524e-06	3.034341e-09	2.246247e+01	2.016396e+02
2.590000e-06	3.076328e-06	3.055539e-09	2.272697e+01	2.030286e+02
2.600000e-06	3.112058e-06	3.079315e-09	2.299094e+01	2.043912e+02
2.610000e-06	3.147631e-06	3.101120e-09	2.325373e+01	2.057279e+02
2.620000e-06	3.183022e-06	3.117871e-09	2.351520e+01	2.070389e+02
2.630000e-06	3.218258e-06	3.133001e-09	2.377551e+01	2.083243e+02
2.640000e-06	3.253183e-06	3.149830e-09	2.403352e+01	2.095842e+02
2.650000e-06	3.287723e-06	3.169323e-09	2.428869e+01	2.108187e+02
2.660000e-06	3.321860e-06	3.187824e-09	2.454089e+01	2.120277e+02
2.670000e-06	3.355597e-06	3.207124e-09	2.479013e+01	2.132112e+02
2.680000e-06	3.388945e-06	3.227079e-09	2.503649e+01	2.143692e+02
2.690000e-06	3.421859e-06	3.245701e-09	2.527965e+01	2.155016e+02
2.700000e-06	3.454420e-06	3.260974e-09	2.552020e+01	2.166084e+02
2.710000e-06	3.486707e-06	3.274342e-09	2.575873e+01	2.176895e+02
2.720000e-06	3.518767e-06	3.286758e-09	2.599557e+01	2.187452e+02
2.730000e-06	3.550646e-06	3.298610e-09	2.623109e+01	2.197753e+02
2.740000e-06	3.582402e-06	3.312090e-09	2.646569e+01	2.207801e+02
2.750000e-06	3.614097e-06	3.325392e-09	2.669985e+01	2.217597e+02
2.760000e-06	3.645679e-06	3.339604e-09	2.693316e+01	2.227143e+02
2.770000e-06	3.676979e-06	3.356278e-09	2.716440e+01	2.236444e+02
2.780000e-06	3.707893e-06	3.373300e-09	2.739278e+01	2.245502e+02
2.790000e-06	3.738535e-06	3.386299e-09	2.761916e+01	2.254322e+02
2.800000e-06	3.768903e-06	3.397697e-09	2.784351e+01	2.262909e+02
2.810000e-06	3.798922e-06	3.409440e-09	2.806528e+01	2.271268e+02
2.820000e-06	3.828710e-06	3.420384e-09	2.828534e+01	2.279407e+02
2.830000e-06	3.858326e-06	3.432940e-09	2.850414e+01	2.287330e+02
2.840000e-06	3.887750e-06	3.444957e-09	2.872151e+01	2.295047e+02
2.850000e-06	3.917046e-06	3.458599e-09	2.893794e+01	2.302564e+02
2.860000e-06	3.946075e-06	3.472217e-09	2.915240e+01	2.309889e+02
2.870000e-06	3.974703e-06	3.486602e-09	2.936389e+01	2.317031e+02
2.880000e-06	4.003022e-06	3.500428e-09	2.957310e+01	2.323997e+02
2.890000e-06	4.031108e-06	3.510625e-09	2.978059e+01	2.330797e+02
2.900000e-06	4.059038e-06	3.520811e-09	2.998693e+01	2.337438e+02
