# Temperatura_=_20.0
# Concentracion g/m^3_=_9000.0
# C_Vs_to_Am_M_A/Vsm_=_65563218390.804596
# pendiente_HvsI_1/m_=_3716.3
# ordenada_HvsI_A/m_=_1297.0
# frecuencia_Hz_=_135116.2085528419

Tiempo_(s)	Campo_(V.s)	Magnetizacion_(V.s)	Campo_(kA/m)	Magnetizacion_(A/m)
0.000000e+00	-5.200540e-06	-3.928268e-09	-3.837202e+01	-2.574097e+02
1.000000e-08	-5.200587e-06	-3.928687e-09	-3.837237e+01	-2.574531e+02
2.000000e-08	-5.200367e-06	-3.930077e-09	-3.837075e+01	-2.574836e+02
3.000000e-08	-5.199723e-06	-3.929416e-09	-3.836600e+01	-2.575003e+02
4.000000e-08	-5.198643e-06	-3.928020e-09	-3.835803e+01	-2.575025e+02
5.000000e-08	-5.197100e-06	-3.936209e-09	-3.834664e+01	-2.574894e+02
6.000000e-08	-5.194945e-06	-3.968328e-09	-3.833074e+01	-2.574605e+02
7.000000e-08	-5.192207e-06	-3.977144e-09	-3.831054e+01	-2.574152e+02
8.000000e-08	-5.189009e-06	-3.886004e-09	-3.828694e+01	-2.573533e+02
9.000000e-08	-5.185392e-06	-3.775813e-09	-3.826026e+01	-2.572746e+02
1.000000e-07	-5.181491e-06	-3.877731e-09	-3.823147e+01	-2.571789e+02
1.100000e-07	-5.177332e-06	-4.083326e-09	-3.820079e+01	-2.570663e+02
1.200000e-07	-5.172828e-06	-4.099163e-09	-3.816755e+01	-2.569371e+02
1.300000e-07	-5.168013e-06	-3.849504e-09	-3.813202e+01	-2.567915e+02
1.400000e-07	-5.162905e-06	-3.748916e-09	-3.809434e+01	-2.566302e+02
1.500000e-07	-5.157395e-06	-3.949377e-09	-3.805368e+01	-2.564536e+02
1.600000e-07	-5.151515e-06	-4.149558e-09	-3.801030e+01	-2.562625e+02
1.700000e-07	-5.145366e-06	-4.038906e-09	-3.796493e+01	-2.560579e+02
1.800000e-07	-5.138895e-06	-3.825938e-09	-3.791718e+01	-2.558407e+02
1.900000e-07	-5.132049e-06	-3.822331e-09	-3.786666e+01	-2.556119e+02
2.000000e-07	-5.124856e-06	-4.044239e-09	-3.781360e+01	-2.553728e+02
2.100000e-07	-5.117393e-06	-4.139930e-09	-3.775853e+01	-2.551246e+02
2.200000e-07	-5.109691e-06	-3.930520e-09	-3.770170e+01	-2.548686e+02
2.300000e-07	-5.101609e-06	-3.711168e-09	-3.764207e+01	-2.546062e+02
2.400000e-07	-5.093008e-06	-3.845116e-09	-3.757861e+01	-2.543388e+02
2.500000e-07	-5.084000e-06	-4.102067e-09	-3.751214e+01	-2.540678e+02
2.600000e-07	-5.074606e-06	-3.989984e-09	-3.744282e+01	-2.537946e+02
2.700000e-07	-5.064625e-06	-3.685551e-09	-3.736918e+01	-2.535206e+02
2.800000e-07	-5.054186e-06	-3.716714e-09	-3.729215e+01	-2.532470e+02
2.900000e-07	-5.043397e-06	-4.015842e-09	-3.721255e+01	-2.529754e+02
3.000000e-07	-5.032091e-06	-3.996535e-09	-3.712913e+01	-2.527067e+02
3.100000e-07	-5.020273e-06	-3.738117e-09	-3.704193e+01	-2.524423e+02
3.200000e-07	-5.008060e-06	-3.723603e-09	-3.695182e+01	-2.521831e+02
3.300000e-07	-4.995500e-06	-3.955007e-09	-3.685914e+01	-2.519300e+02
3.400000e-07	-4.982537e-06	-3.981386e-09	-3.676350e+01	-2.516839e+02
3.500000e-07	-4.969251e-06	-3.834184e-09	-3.666547e+01	-2.514454e+02
3.600000e-07	-4.955632e-06	-3.731662e-09	-3.656498e+01	-2.512151e+02
3.700000e-07	-4.941517e-06	-3.756546e-09	-3.646083e+01	-2.509933e+02
3.800000e-07	-4.926963e-06	-3.855943e-09	-3.635345e+01	-2.507801e+02
3.900000e-07	-4.911975e-06	-3.948493e-09	-3.624286e+01	-2.505757e+02
4.000000e-07	-4.896384e-06	-3.797931e-09	-3.612782e+01	-2.503799e+02
4.100000e-07	-4.880220e-06	-3.652005e-09	-3.600856e+01	-2.501924e+02
4.200000e-07	-4.863650e-06	-3.820816e-09	-3.588629e+01	-2.500128e+02
4.300000e-07	-4.846804e-06	-4.009693e-09	-3.576199e+01	-2.498403e+02
4.400000e-07	-4.829684e-06	-3.814370e-09	-3.563567e+01	-2.496743e+02
4.500000e-07	-4.812312e-06	-3.627805e-09	-3.550750e+01	-2.495138e+02
4.600000e-07	-4.794739e-06	-3.822109e-09	-3.537783e+01	-2.493578e+02
4.700000e-07	-4.776829e-06	-3.986117e-09	-3.524569e+01	-2.492050e+02
4.800000e-07	-4.758521e-06	-3.811195e-09	-3.511060e+01	-2.490542e+02
4.900000e-07	-4.739776e-06	-3.670874e-09	-3.497229e+01	-2.489039e+02
5.000000e-07	-4.720672e-06	-3.794396e-09	-3.483133e+01	-2.487527e+02
5.100000e-07	-4.701307e-06	-3.885244e-09	-3.468845e+01	-2.485990e+02
5.200000e-07	-4.681685e-06	-3.817218e-09	-3.454367e+01	-2.484412e+02
5.300000e-07	-4.661845e-06	-3.746734e-09	-3.439728e+01	-2.482776e+02
5.400000e-07	-4.641735e-06	-3.751886e-09	-3.424890e+01	-2.481067e+02
5.500000e-07	-4.621343e-06	-3.776761e-09	-3.409844e+01	-2.479267e+02
5.600000e-07	-4.600708e-06	-3.820765e-09	-3.394618e+01	-2.477360e+02
5.700000e-07	-4.579837e-06	-3.798344e-09	-3.379218e+01	-2.475330e+02
5.800000e-07	-4.558612e-06	-3.707002e-09	-3.363558e+01	-2.473163e+02
5.900000e-07	-4.537035e-06	-3.691377e-09	-3.347637e+01	-2.470843e+02
6.000000e-07	-4.515160e-06	-3.798239e-09	-3.331497e+01	-2.468358e+02
6.100000e-07	-4.492988e-06	-3.802821e-09	-3.315138e+01	-2.465694e+02
6.200000e-07	-4.470541e-06	-3.683615e-09	-3.298575e+01	-2.462841e+02
6.300000e-07	-4.447853e-06	-3.660864e-09	-3.281834e+01	-2.459788e+02
6.400000e-07	-4.424900e-06	-3.763904e-09	-3.264899e+01	-2.456528e+02
6.500000e-07	-4.401640e-06	-3.766096e-09	-3.247736e+01	-2.453053e+02
6.600000e-07	-4.378033e-06	-3.670287e-09	-3.230318e+01	-2.449358e+02
6.700000e-07	-4.354123e-06	-3.642635e-09	-3.212677e+01	-2.445439e+02
6.800000e-07	-4.329982e-06	-3.693915e-09	-3.194864e+01	-2.441296e+02
6.900000e-07	-4.305548e-06	-3.702229e-09	-3.176835e+01	-2.436926e+02
7.000000e-07	-4.280850e-06	-3.662735e-09	-3.158612e+01	-2.432333e+02
7.100000e-07	-4.255850e-06	-3.633698e-09	-3.140166e+01	-2.427519e+02
7.200000e-07	-4.230424e-06	-3.639097e-09	-3.121405e+01	-2.422488e+02
7.300000e-07	-4.204500e-06	-3.655920e-09	-3.102277e+01	-2.417249e+02
7.400000e-07	-4.178090e-06	-3.653386e-09	-3.082791e+01	-2.411807e+02
7.500000e-07	-4.151233e-06	-3.620819e-09	-3.062974e+01	-2.406172e+02
7.600000e-07	-4.123942e-06	-3.591852e-09	-3.042838e+01	-2.400355e+02
7.700000e-07	-4.096286e-06	-3.607885e-09	-3.022432e+01	-2.394366e+02
7.800000e-07	-4.068441e-06	-3.629739e-09	-3.001886e+01	-2.388219e+02
7.900000e-07	-4.040476e-06	-3.599730e-09	-2.981253e+01	-2.381925e+02
8.000000e-07	-4.012315e-06	-3.551992e-09	-2.960474e+01	-2.375499e+02
8.100000e-07	-3.983920e-06	-3.567893e-09	-2.939524e+01	-2.368954e+02
8.200000e-07	-3.955290e-06	-3.601601e-09	-2.918398e+01	-2.362304e+02
8.300000e-07	-3.926402e-06	-3.575141e-09	-2.897083e+01	-2.355564e+02
8.400000e-07	-3.897242e-06	-3.526380e-09	-2.875568e+01	-2.348746e+02
8.500000e-07	-3.867801e-06	-3.534198e-09	-2.853845e+01	-2.341865e+02
8.600000e-07	-3.838100e-06	-3.554506e-09	-2.831931e+01	-2.334932e+02
8.700000e-07	-3.808173e-06	-3.534401e-09	-2.809848e+01	-2.327960e+02
8.800000e-07	-3.777966e-06	-3.496050e-09	-2.787561e+01	-2.320960e+02
8.900000e-07	-3.747509e-06	-3.487509e-09	-2.765088e+01	-2.313942e+02
9.000000e-07	-3.716799e-06	-3.493607e-09	-2.742429e+01	-2.306913e+02
9.100000e-07	-3.685844e-06	-3.488828e-09	-2.719589e+01	-2.299882e+02
9.200000e-07	-3.654668e-06	-3.466741e-09	-2.696586e+01	-2.292853e+02
9.300000e-07	-3.623298e-06	-3.444589e-09	-2.673439e+01	-2.285831e+02
9.400000e-07	-3.591754e-06	-3.438372e-09	-2.650165e+01	-2.278819e+02
9.500000e-07	-3.560032e-06	-3.442904e-09	-2.626759e+01	-2.271816e+02
9.600000e-07	-3.528104e-06	-3.430253e-09	-2.603201e+01	-2.264822e+02
9.700000e-07	-3.495910e-06	-3.401299e-09	-2.579446e+01	-2.257833e+02
9.800000e-07	-3.463522e-06	-3.384147e-09	-2.555549e+01	-2.250845e+02
9.900000e-07	-3.430922e-06	-3.389181e-09	-2.531495e+01	-2.243852e+02
1.000000e-06	-3.398012e-06	-3.385491e-09	-2.507213e+01	-2.236845e+02
1.010000e-06	-3.364719e-06	-3.358736e-09	-2.482648e+01	-2.229815e+02
1.020000e-06	-3.331079e-06	-3.336446e-09	-2.457826e+01	-2.222750e+02
1.030000e-06	-3.297047e-06	-3.335765e-09	-2.432716e+01	-2.215638e+02
1.040000e-06	-3.262601e-06	-3.334889e-09	-2.407300e+01	-2.208466e+02
1.050000e-06	-3.227856e-06	-3.313550e-09	-2.381664e+01	-2.201217e+02
1.060000e-06	-3.192814e-06	-3.291655e-09	-2.355808e+01	-2.193877e+02
1.070000e-06	-3.157494e-06	-3.282809e-09	-2.329747e+01	-2.186429e+02
1.080000e-06	-3.121994e-06	-3.277093e-09	-2.303554e+01	-2.178855e+02
1.090000e-06	-3.086319e-06	-3.261711e-09	-2.277231e+01	-2.171139e+02
1.100000e-06	-3.050440e-06	-3.243289e-09	-2.250758e+01	-2.163263e+02
1.110000e-06	-3.014415e-06	-3.228157e-09	-2.224177e+01	-2.155209e+02
1.120000e-06	-2.978271e-06	-3.218895e-09	-2.197508e+01	-2.146960e+02
1.130000e-06	-2.941978e-06	-3.205954e-09	-2.170730e+01	-2.138500e+02
1.140000e-06	-2.905509e-06	-3.186157e-09	-2.143821e+01	-2.129811e+02
1.150000e-06	-2.868812e-06	-3.164905e-09	-2.116744e+01	-2.120878e+02
1.160000e-06	-2.831860e-06	-3.153877e-09	-2.089479e+01	-2.111688e+02
1.170000e-06	-2.794654e-06	-3.145849e-09	-2.062027e+01	-2.102227e+02
1.180000e-06	-2.757277e-06	-3.129101e-09	-2.034448e+01	-2.092483e+02
1.190000e-06	-2.719804e-06	-3.107002e-09	-2.006799e+01	-2.082445e+02
1.200000e-06	-2.682176e-06	-3.091019e-09	-1.979035e+01	-2.072105e+02
1.210000e-06	-2.644342e-06	-3.077973e-09	-1.951120e+01	-2.061454e+02
1.220000e-06	-2.606255e-06	-3.057292e-09	-1.923017e+01	-2.050488e+02
1.230000e-06	-2.568016e-06	-3.032054e-09	-1.894803e+01	-2.039202e+02
1.240000e-06	-2.529618e-06	-3.014415e-09	-1.866471e+01	-2.027594e+02
1.250000e-06	-2.490970e-06	-3.000857e-09	-1.837955e+01	-2.015663e+02
1.260000e-06	-2.452085e-06	-2.981782e-09	-1.809263e+01	-2.003410e+02
1.270000e-06	-2.413055e-06	-2.958690e-09	-1.780465e+01	-1.990838e+02
1.280000e-06	-2.373933e-06	-2.938833e-09	-1.751599e+01	-1.977950e+02
1.290000e-06	-2.334617e-06	-2.923160e-09	-1.722590e+01	-1.964752e+02
1.300000e-06	-2.295115e-06	-2.904967e-09	-1.693443e+01	-1.951251e+02
1.310000e-06	-2.255530e-06	-2.881441e-09	-1.664236e+01	-1.937453e+02
1.320000e-06	-2.215844e-06	-2.858345e-09	-1.634953e+01	-1.923369e+02
1.330000e-06	-2.176039e-06	-2.837754e-09	-1.605584e+01	-1.909006e+02
1.340000e-06	-2.136143e-06	-2.818415e-09	-1.576147e+01	-1.894374e+02
1.350000e-06	-2.096147e-06	-2.798278e-09	-1.546636e+01	-1.879484e+02
1.360000e-06	-2.056077e-06	-2.772754e-09	-1.517070e+01	-1.864344e+02
1.370000e-06	-2.015925e-06	-2.747274e-09	-1.487444e+01	-1.848965e+02
1.380000e-06	-1.975659e-06	-2.727665e-09	-1.457734e+01	-1.833355e+02
1.390000e-06	-1.935329e-06	-2.709379e-09	-1.427976e+01	-1.817523e+02
1.400000e-06	-1.894905e-06	-2.685846e-09	-1.398150e+01	-1.801476e+02
1.410000e-06	-1.854303e-06	-2.659502e-09	-1.368192e+01	-1.785218e+02
1.420000e-06	-1.813454e-06	-2.635598e-09	-1.338052e+01	-1.768756e+02
1.430000e-06	-1.772390e-06	-2.611245e-09	-1.307753e+01	-1.752091e+02
1.440000e-06	-1.731188e-06	-2.582230e-09	-1.277352e+01	-1.735224e+02
1.450000e-06	-1.689821e-06	-2.552408e-09	-1.246829e+01	-1.718152e+02
1.460000e-06	-1.648261e-06	-2.524761e-09	-1.216164e+01	-1.700874e+02
1.470000e-06	-1.606425e-06	-2.501234e-09	-1.185296e+01	-1.683380e+02
1.480000e-06	-1.564307e-06	-2.476884e-09	-1.154219e+01	-1.665663e+02
1.490000e-06	-1.522009e-06	-2.449540e-09	-1.123010e+01	-1.647711e+02
1.500000e-06	-1.479523e-06	-2.420177e-09	-1.091661e+01	-1.629509e+02
1.510000e-06	-1.436798e-06	-2.392834e-09	-1.060137e+01	-1.611039e+02
1.520000e-06	-1.393918e-06	-2.365761e-09	-1.028498e+01	-1.592281e+02
1.530000e-06	-1.350943e-06	-2.337181e-09	-9.967892e+00	-1.573212e+02
1.540000e-06	-1.307818e-06	-2.307630e-09	-9.649692e+00	-1.553806e+02
1.550000e-06	-1.264580e-06	-2.277987e-09	-9.330668e+00	-1.534034e+02
1.560000e-06	-1.221281e-06	-2.249115e-09	-9.011181e+00	-1.513865e+02
1.570000e-06	-1.177912e-06	-2.218408e-09	-8.691186e+00	-1.493266e+02
1.580000e-06	-1.134542e-06	-2.183615e-09	-8.371180e+00	-1.472202e+02
1.590000e-06	-1.091096e-06	-2.149076e-09	-8.050621e+00	-1.450633e+02
1.600000e-06	-1.047531e-06	-2.115468e-09	-7.729177e+00	-1.428523e+02
1.610000e-06	-1.003910e-06	-2.079740e-09	-7.407323e+00	-1.405830e+02
1.620000e-06	-9.602748e-07	-2.041909e-09	-7.085358e+00	-1.382512e+02
1.630000e-06	-9.165685e-07	-2.003622e-09	-6.762873e+00	-1.358528e+02
1.640000e-06	-8.727672e-07	-1.965486e-09	-6.439686e+00	-1.333835e+02
1.650000e-06	-8.289313e-07	-1.925301e-09	-6.116244e+00	-1.308391e+02
1.660000e-06	-7.850709e-07	-1.886169e-09	-5.792622e+00	-1.282154e+02
1.670000e-06	-7.411839e-07	-1.847913e-09	-5.468802e+00	-1.255083e+02
1.680000e-06	-6.972678e-07	-1.807604e-09	-5.144769e+00	-1.227138e+02
1.690000e-06	-6.533555e-07	-1.766083e-09	-4.820764e+00	-1.198282e+02
1.700000e-06	-6.094503e-07	-1.724009e-09	-4.496811e+00	-1.168478e+02
1.710000e-06	-5.654867e-07	-1.677525e-09	-4.172426e+00	-1.137693e+02
1.720000e-06	-5.215121e-07	-1.628208e-09	-3.847961e+00	-1.105897e+02
1.730000e-06	-4.775065e-07	-1.579546e-09	-3.523267e+00	-1.073062e+02
1.740000e-06	-4.334609e-07	-1.529006e-09	-3.198278e+00	-1.039166e+02
1.750000e-06	-3.894278e-07	-1.474188e-09	-2.873381e+00	-1.004188e+02
1.760000e-06	-3.453638e-07	-1.419443e-09	-2.548256e+00	-9.681138e+01
1.770000e-06	-3.012612e-07	-1.366300e-09	-2.222847e+00	-9.309326e+01
1.780000e-06	-2.571569e-07	-1.312133e-09	-1.897424e+00	-8.926387e+01
1.790000e-06	-2.130300e-07	-1.255152e-09	-1.571835e+00	-8.532316e+01
1.800000e-06	-1.688601e-07	-1.194098e-09	-1.245929e+00	-8.127159e+01
1.810000e-06	-1.247345e-07	-1.132456e-09	-9.203496e-01	-7.711017e+01
1.820000e-06	-8.068014e-08	-1.070950e-09	-5.952959e-01	-7.284045e+01
1.830000e-06	-3.663359e-08	-1.005791e-09	-2.702998e-01	-6.846454e+01
1.840000e-06	7.470958e-09	-9.355875e-10	5.512423e-02	-6.398510e+01
1.850000e-06	5.157271e-08	-8.635857e-10	3.805276e-01	-5.940536e+01
1.860000e-06	9.561834e-08	-7.942626e-10	7.055170e-01	-5.472907e+01
1.870000e-06	1.396654e-07	-7.244219e-10	1.030517e+00	-4.996053e+01
1.880000e-06	1.837981e-07	-6.504575e-10	1.356149e+00	-4.510455e+01
1.890000e-06	2.279460e-07	-5.757482e-10	1.681892e+00	-4.016643e+01
1.900000e-06	2.720168e-07	-5.027083e-10	2.007068e+00	-3.515195e+01
1.910000e-06	3.160401e-07	-4.292589e-10	2.331892e+00	-3.006731e+01
1.920000e-06	3.600806e-07	-3.501319e-10	2.656844e+00	-2.491913e+01
1.930000e-06	4.041503e-07	-2.652262e-10	2.982011e+00	-1.971441e+01
1.940000e-06	4.481671e-07	-1.811825e-10	3.306787e+00	-1.446046e+01
1.950000e-06	4.920883e-07	-9.993013e-11	3.630859e+00	-9.164897e+00
1.960000e-06	5.359841e-07	-1.841150e-11	3.954742e+00	-3.835579e+00
1.970000e-06	5.799077e-07	6.725046e-11	4.278831e+00	1.519443e+00
1.980000e-06	6.238399e-07	1.549210e-10	4.602983e+00	6.891963e+00
1.990000e-06	6.677543e-07	2.389263e-10	4.927005e+00	1.227368e+01
2.000000e-06	7.116196e-07	3.215895e-10	5.250664e+00	1.765623e+01
2.010000e-06	7.555125e-07	4.073099e-10	5.574526e+00	2.303126e+01
2.020000e-06	7.994157e-07	4.939804e-10	5.898464e+00	2.839046e+01
2.030000e-06	8.432709e-07	5.761890e-10	6.222049e+00	3.372563e+01
2.040000e-06	8.870674e-07	6.547414e-10	6.545200e+00	3.902870e+01
2.050000e-06	9.308650e-07	7.363060e-10	6.868359e+00	4.429181e+01
2.060000e-06	9.746831e-07	8.208817e-10	7.191669e+00	4.950734e+01
2.070000e-06	1.018378e-06	8.998341e-10	7.514067e+00	5.466794e+01
2.080000e-06	1.061985e-06	9.754947e-10	7.835820e+00	5.976661e+01
2.090000e-06	1.105582e-06	1.053243e-09	8.157507e+00	6.479668e+01
2.100000e-06	1.149157e-06	1.130081e-09	8.479023e+00	6.975192e+01
2.110000e-06	1.192670e-06	1.203362e-09	8.800077e+00	7.462647e+01
2.120000e-06	1.236099e-06	1.274237e-09	9.120521e+00	7.941499e+01
2.130000e-06	1.279484e-06	1.344258e-09	9.440632e+00	8.411257e+01
2.140000e-06	1.322756e-06	1.412631e-09	9.759915e+00	8.871481e+01
2.150000e-06	1.365837e-06	1.477836e-09	1.007778e+01	9.321785e+01
2.160000e-06	1.408699e-06	1.538479e-09	1.039405e+01	9.761831e+01
2.170000e-06	1.451338e-06	1.598775e-09	1.070866e+01	1.019134e+02
2.180000e-06	1.493868e-06	1.659011e-09	1.102246e+01	1.061008e+02
2.190000e-06	1.536325e-06	1.715729e-09	1.133573e+01	1.101787e+02
2.200000e-06	1.578552e-06	1.769025e-09	1.164730e+01	1.141459e+02
2.210000e-06	1.620556e-06	1.820338e-09	1.195723e+01	1.180018e+02
2.220000e-06	1.662392e-06	1.872052e-09	1.226591e+01	1.217460e+02
2.230000e-06	1.704020e-06	1.922129e-09	1.257306e+01	1.253789e+02
2.240000e-06	1.745388e-06	1.969417e-09	1.287829e+01	1.289011e+02
2.250000e-06	1.786457e-06	2.014415e-09	1.318132e+01	1.323139e+02
2.260000e-06	1.827341e-06	2.060070e-09	1.348298e+01	1.356187e+02
2.270000e-06	1.868124e-06	2.106537e-09	1.378389e+01	1.388176e+02
2.280000e-06	1.908718e-06	2.149485e-09	1.408342e+01	1.419129e+02
2.290000e-06	1.949046e-06	2.188565e-09	1.438098e+01	1.449072e+02
2.300000e-06	1.989209e-06	2.226672e-09	1.467732e+01	1.478033e+02
2.310000e-06	2.029301e-06	2.264960e-09	1.497313e+01	1.506045e+02
2.320000e-06	2.069289e-06	2.302407e-09	1.526818e+01	1.533141e+02
2.330000e-06	2.109221e-06	2.339815e-09	1.556283e+01	1.559356e+02
2.340000e-06	2.149106e-06	2.378699e-09	1.585711e+01	1.584727e+02
2.350000e-06	2.188914e-06	2.416599e-09	1.615083e+01	1.609290e+02
2.360000e-06	2.228643e-06	2.452013e-09	1.644397e+01	1.633086e+02
2.370000e-06	2.268278e-06	2.486238e-09	1.673642e+01	1.656151e+02
2.380000e-06	2.307761e-06	2.520073e-09	1.702774e+01	1.678523e+02
2.390000e-06	2.347049e-06	2.551972e-09	1.731763e+01	1.700242e+02
2.400000e-06	2.386196e-06	2.581146e-09	1.760647e+01	1.721343e+02
2.410000e-06	2.425178e-06	2.610983e-09	1.789410e+01	1.741864e+02
2.420000e-06	2.463906e-06	2.641161e-09	1.817986e+01	1.761838e+02
2.430000e-06	2.502442e-06	2.671231e-09	1.846419e+01	1.781299e+02
2.440000e-06	2.540838e-06	2.701049e-09	1.874749e+01	1.800279e+02
2.450000e-06	2.579087e-06	2.730813e-09	1.902972e+01	1.818808e+02
2.460000e-06	2.617179e-06	2.761047e-09	1.931077e+01	1.836914e+02
2.470000e-06	2.655113e-06	2.789384e-09	1.959067e+01	1.854621e+02
2.480000e-06	2.692920e-06	2.814448e-09	1.986963e+01	1.871954e+02
2.490000e-06	2.730566e-06	2.838336e-09	2.014740e+01	1.888933e+02
2.500000e-06	2.767993e-06	2.863929e-09	2.042355e+01	1.905579e+02
2.510000e-06	2.805132e-06	2.891341e-09	2.069758e+01	1.921906e+02
2.520000e-06	2.842020e-06	2.916048e-09	2.096976e+01	1.937930e+02
2.530000e-06	2.878709e-06	2.938946e-09	2.124047e+01	1.953663e+02
2.540000e-06	2.915218e-06	2.963475e-09	2.150985e+01	1.969115e+02
2.550000e-06	2.951538e-06	2.989635e-09	2.177783e+01	1.984294e+02
2.560000e-06	2.987704e-06	3.014405e-09	2.204468e+01	1.999207e+02
2.570000e-06	3.023728e-06	3.035961e-09	2.231048e+01	2.013856e+02
2.580000e-06	3.059639e-06	3.055659e-09	2.257545e+01	2.028246e+02
2.590000e-06	3.095458e-06	3.076617e-09	2.283974e+01	2.042378e+02
2.600000e-06	3.131178e-06	3.099256e-09	2.310330e+01	2.056253e+02
2.610000e-06	3.166726e-06	3.119891e-09	2.336559e+01	2.069868e+02
2.620000e-06	3.202017e-06	3.138648e-09	2.362598e+01	2.083223e+02
2.630000e-06	3.237123e-06	3.157241e-09	2.388501e+01	2.096314e+02
2.640000e-06	3.271932e-06	3.176883e-09	2.414185e+01	2.109141e+02
2.650000e-06	3.306323e-06	3.199174e-09	2.439560e+01	2.121698e+02
2.660000e-06	3.340252e-06	3.220770e-09	2.464595e+01	2.133983e+02
2.670000e-06	3.373720e-06	3.238288e-09	2.489289e+01	2.145993e+02
2.680000e-06	3.406839e-06	3.254716e-09	2.513725e+01	2.157725e+02
2.690000e-06	3.439562e-06	3.271756e-09	2.537870e+01	2.169176e+02
2.700000e-06	3.471970e-06	3.288233e-09	2.561783e+01	2.180344e+02
2.710000e-06	3.504183e-06	3.302748e-09	2.585551e+01	2.191228e+02
2.720000e-06	3.536236e-06	3.314685e-09	2.609201e+01	2.201828e+02
2.730000e-06	3.568204e-06	3.325932e-09	2.632788e+01	2.212144e+02
2.740000e-06	3.599988e-06	3.339688e-09	2.656240e+01	2.222176e+02
2.750000e-06	3.631550e-06	3.353737e-09	2.679528e+01	2.231928e+02
2.760000e-06	3.662933e-06	3.366241e-09	2.702684e+01	2.241402e+02
2.770000e-06	3.694115e-06	3.378220e-09	2.725691e+01	2.250603e+02
2.780000e-06	3.725067e-06	3.391423e-09	2.748530e+01	2.259536e+02
2.790000e-06	3.755711e-06	3.406211e-09	2.771140e+01	2.268207e+02
2.800000e-06	3.785973e-06	3.421055e-09	2.793469e+01	2.276624e+02
2.810000e-06	3.815914e-06	3.434931e-09	2.815560e+01	2.284795e+02
2.820000e-06	3.845648e-06	3.446242e-09	2.837500e+01	2.292728e+02
2.830000e-06	3.875218e-06	3.457146e-09	2.859318e+01	2.300433e+02
2.840000e-06	3.904520e-06	3.472028e-09	2.880938e+01	2.307921e+02
2.850000e-06	3.933550e-06	3.485953e-09	2.902358e+01	2.315202e+02
2.860000e-06	3.962377e-06	3.495428e-09	2.923627e+01	2.322289e+02
2.870000e-06	3.990943e-06	3.507575e-09	2.944705e+01	2.329191e+02
2.880000e-06	4.019191e-06	3.522340e-09	2.965548e+01	2.335922e+02
2.890000e-06	4.047211e-06	3.533927e-09	2.986222e+01	2.342493e+02
2.900000e-06	4.075082e-06	3.543553e-09	3.006787e+01	2.348916e+02
