# Temperatura_=_20.0
# Concentracion g/m^3_=_9000.0
# C_Vs_to_Am_M_A/Vsm_=_65563218390.804596
# pendiente_HvsI_1/m_=_3716.3
# ordenada_HvsI_A/m_=_1297.0
# frecuencia_Hz_=_135116.54711876245

Tiempo_(s)	Campo_(V.s)	Magnetizacion_(V.s)	Campo_(kA/m)	Magnetizacion_(A/m)
0.000000e+00	-5.183857e-06	-3.697353e-09	-3.835974e+01	-2.377607e+02
1.000000e-08	-5.184060e-06	-3.697094e-09	-3.836124e+01	-2.377139e+02
2.000000e-08	-5.183998e-06	-3.696832e-09	-3.836078e+01	-2.376940e+02
3.000000e-08	-5.183618e-06	-3.697339e-09	-3.835797e+01	-2.377043e+02
4.000000e-08	-5.182752e-06	-3.695963e-09	-3.835156e+01	-2.377478e+02
5.000000e-08	-5.181289e-06	-3.693971e-09	-3.834074e+01	-2.378276e+02
6.000000e-08	-5.179303e-06	-3.688828e-09	-3.832604e+01	-2.379464e+02
7.000000e-08	-5.176848e-06	-3.681602e-09	-3.830787e+01	-2.381068e+02
8.000000e-08	-5.173903e-06	-3.709793e-09	-3.828608e+01	-2.383111e+02
9.000000e-08	-5.170472e-06	-3.762293e-09	-3.826069e+01	-2.385612e+02
1.000000e-07	-5.166616e-06	-3.717199e-09	-3.823216e+01	-2.388590e+02
1.100000e-07	-5.162487e-06	-3.570740e-09	-3.820161e+01	-2.392057e+02
1.200000e-07	-5.158217e-06	-3.581909e-09	-3.817001e+01	-2.396024e+02
1.300000e-07	-5.153719e-06	-3.740408e-09	-3.813672e+01	-2.400498e+02
1.400000e-07	-5.148851e-06	-3.823319e-09	-3.810071e+01	-2.405481e+02
1.500000e-07	-5.143618e-06	-3.682711e-09	-3.806198e+01	-2.410972e+02
1.600000e-07	-5.138045e-06	-3.619170e-09	-3.802074e+01	-2.416968e+02
1.700000e-07	-5.132005e-06	-3.751276e-09	-3.797604e+01	-2.423458e+02
1.800000e-07	-5.125566e-06	-3.855785e-09	-3.792840e+01	-2.430431e+02
1.900000e-07	-5.118914e-06	-3.792348e-09	-3.787917e+01	-2.437870e+02
2.000000e-07	-5.111893e-06	-3.674112e-09	-3.782722e+01	-2.445755e+02
2.100000e-07	-5.104437e-06	-3.668945e-09	-3.777205e+01	-2.454060e+02
2.200000e-07	-5.096764e-06	-3.717208e-09	-3.771527e+01	-2.462759e+02
2.300000e-07	-5.088995e-06	-3.755957e-09	-3.765778e+01	-2.471820e+02
2.400000e-07	-5.080926e-06	-3.643285e-09	-3.759807e+01	-2.481208e+02
2.500000e-07	-5.072108e-06	-3.498134e-09	-3.753282e+01	-2.490887e+02
2.600000e-07	-5.062664e-06	-3.537549e-09	-3.746293e+01	-2.500815e+02
2.700000e-07	-5.053096e-06	-3.763778e-09	-3.739213e+01	-2.510951e+02
2.800000e-07	-5.043082e-06	-3.823161e-09	-3.731803e+01	-2.521248e+02
2.900000e-07	-5.032241e-06	-3.650043e-09	-3.723781e+01	-2.531660e+02
3.000000e-07	-5.020939e-06	-3.647223e-09	-3.715417e+01	-2.542138e+02
3.100000e-07	-5.009385e-06	-3.934481e-09	-3.706867e+01	-2.552633e+02
3.200000e-07	-4.997416e-06	-4.062088e-09	-3.698010e+01	-2.563094e+02
3.300000e-07	-4.985055e-06	-3.941139e-09	-3.688863e+01	-2.573470e+02
3.400000e-07	-4.972299e-06	-3.916074e-09	-3.679424e+01	-2.583710e+02
3.500000e-07	-4.959107e-06	-4.038966e-09	-3.669663e+01	-2.593763e+02
3.600000e-07	-4.945569e-06	-4.052779e-09	-3.659644e+01	-2.603580e+02
3.700000e-07	-4.931758e-06	-4.027386e-09	-3.649425e+01	-2.613111e+02
3.800000e-07	-4.917585e-06	-4.002509e-09	-3.638937e+01	-2.622308e+02
3.900000e-07	-4.902747e-06	-3.919571e-09	-3.627957e+01	-2.631126e+02
4.000000e-07	-4.887383e-06	-3.957219e-09	-3.616588e+01	-2.639521e+02
4.100000e-07	-4.871728e-06	-4.117814e-09	-3.605003e+01	-2.647453e+02
4.200000e-07	-4.855569e-06	-4.064436e-09	-3.593046e+01	-2.654881e+02
4.300000e-07	-4.838898e-06	-3.887342e-09	-3.580710e+01	-2.661771e+02
4.400000e-07	-4.821977e-06	-4.010745e-09	-3.568189e+01	-2.668092e+02
4.500000e-07	-4.804819e-06	-4.206214e-09	-3.555492e+01	-2.673813e+02
4.600000e-07	-4.787327e-06	-4.075538e-09	-3.542548e+01	-2.678911e+02
4.700000e-07	-4.769464e-06	-3.914238e-09	-3.529329e+01	-2.683364e+02
4.800000e-07	-4.751319e-06	-4.054585e-09	-3.515903e+01	-2.687156e+02
4.900000e-07	-4.732867e-06	-4.152218e-09	-3.502249e+01	-2.690273e+02
5.000000e-07	-4.714004e-06	-4.043287e-09	-3.488290e+01	-2.692707e+02
5.100000e-07	-4.694787e-06	-3.988696e-09	-3.474070e+01	-2.694453e+02
5.200000e-07	-4.675335e-06	-4.044080e-09	-3.459676e+01	-2.695511e+02
5.300000e-07	-4.655705e-06	-4.032207e-09	-3.445150e+01	-2.695885e+02
5.400000e-07	-4.635856e-06	-4.029333e-09	-3.430462e+01	-2.695583e+02
5.500000e-07	-4.615764e-06	-4.052314e-09	-3.415594e+01	-2.694617e+02
5.600000e-07	-4.595371e-06	-4.005063e-09	-3.400504e+01	-2.693002e+02
5.700000e-07	-4.574641e-06	-3.954842e-09	-3.385164e+01	-2.690758e+02
5.800000e-07	-4.553599e-06	-4.025911e-09	-3.369593e+01	-2.687907e+02
5.900000e-07	-4.532289e-06	-4.060514e-09	-3.353824e+01	-2.684476e+02
6.000000e-07	-4.510692e-06	-3.967430e-09	-3.337843e+01	-2.680493e+02
6.100000e-07	-4.488789e-06	-3.921674e-09	-3.321635e+01	-2.675990e+02
6.200000e-07	-4.466627e-06	-4.000705e-09	-3.305235e+01	-2.671000e+02
6.300000e-07	-4.444095e-06	-4.024772e-09	-3.288561e+01	-2.665560e+02
6.400000e-07	-4.421162e-06	-3.948893e-09	-3.271591e+01	-2.659707e+02
6.500000e-07	-4.397905e-06	-3.922313e-09	-3.254382e+01	-2.653479e+02
6.600000e-07	-4.374345e-06	-3.961981e-09	-3.236947e+01	-2.646916e+02
6.700000e-07	-4.350614e-06	-3.963619e-09	-3.219387e+01	-2.640059e+02
6.800000e-07	-4.326764e-06	-3.932170e-09	-3.201738e+01	-2.632948e+02
6.900000e-07	-4.302691e-06	-3.922290e-09	-3.183925e+01	-2.625623e+02
7.000000e-07	-4.278313e-06	-3.913104e-09	-3.165885e+01	-2.618125e+02
7.100000e-07	-4.253529e-06	-3.907034e-09	-3.147545e+01	-2.610492e+02
7.200000e-07	-4.228300e-06	-3.913213e-09	-3.128877e+01	-2.602763e+02
7.300000e-07	-4.202696e-06	-3.908511e-09	-3.109930e+01	-2.594973e+02
7.400000e-07	-4.176581e-06	-3.879486e-09	-3.090605e+01	-2.587157e+02
7.500000e-07	-4.149871e-06	-3.878358e-09	-3.070840e+01	-2.579348e+02
7.600000e-07	-4.122758e-06	-3.892072e-09	-3.050777e+01	-2.571577e+02
7.700000e-07	-4.095361e-06	-3.879097e-09	-3.030504e+01	-2.563869e+02
7.800000e-07	-4.067732e-06	-3.842321e-09	-3.010058e+01	-2.556252e+02
7.900000e-07	-4.039990e-06	-3.832560e-09	-2.989530e+01	-2.548745e+02
8.000000e-07	-4.012103e-06	-3.842458e-09	-2.968894e+01	-2.541369e+02
8.100000e-07	-3.983940e-06	-3.833968e-09	-2.948054e+01	-2.534139e+02
8.200000e-07	-3.955448e-06	-3.804730e-09	-2.926971e+01	-2.527067e+02
8.300000e-07	-3.926670e-06	-3.802469e-09	-2.905675e+01	-2.520161e+02
8.400000e-07	-3.897592e-06	-3.816967e-09	-2.884157e+01	-2.513429e+02
8.500000e-07	-3.868227e-06	-3.806241e-09	-2.862428e+01	-2.506872e+02
8.600000e-07	-3.838671e-06	-3.777218e-09	-2.840557e+01	-2.500488e+02
8.700000e-07	-3.808860e-06	-3.768956e-09	-2.818497e+01	-2.494275e+02
8.800000e-07	-3.778793e-06	-3.768025e-09	-2.796249e+01	-2.488224e+02
8.900000e-07	-3.748514e-06	-3.754925e-09	-2.773842e+01	-2.482325e+02
9.000000e-07	-3.717927e-06	-3.741293e-09	-2.751208e+01	-2.476566e+02
9.100000e-07	-3.687106e-06	-3.729946e-09	-2.728401e+01	-2.470930e+02
9.200000e-07	-3.656078e-06	-3.719089e-09	-2.705441e+01	-2.465400e+02
9.300000e-07	-3.624799e-06	-3.716413e-09	-2.682295e+01	-2.459955e+02
9.400000e-07	-3.593359e-06	-3.714932e-09	-2.659030e+01	-2.454573e+02
9.500000e-07	-3.561727e-06	-3.694505e-09	-2.635623e+01	-2.449231e+02
9.600000e-07	-3.529895e-06	-3.672377e-09	-2.612068e+01	-2.443903e+02
9.700000e-07	-3.497920e-06	-3.671479e-09	-2.588407e+01	-2.438563e+02
9.800000e-07	-3.465732e-06	-3.672646e-09	-2.564588e+01	-2.433185e+02
9.900000e-07	-3.433286e-06	-3.650424e-09	-2.540579e+01	-2.427740e+02
1.000000e-06	-3.400591e-06	-3.627762e-09	-2.516385e+01	-2.422202e+02
1.010000e-06	-3.367589e-06	-3.622564e-09	-2.491964e+01	-2.416542e+02
1.020000e-06	-3.334147e-06	-3.623407e-09	-2.467217e+01	-2.410733e+02
1.030000e-06	-3.300251e-06	-3.610600e-09	-2.442134e+01	-2.404749e+02
1.040000e-06	-3.266016e-06	-3.591241e-09	-2.416801e+01	-2.398565e+02
1.050000e-06	-3.231506e-06	-3.577292e-09	-2.391265e+01	-2.392155e+02
1.060000e-06	-3.196618e-06	-3.572404e-09	-2.365448e+01	-2.385497e+02
1.070000e-06	-3.161328e-06	-3.564058e-09	-2.339334e+01	-2.378570e+02
1.080000e-06	-3.125848e-06	-3.548156e-09	-2.313079e+01	-2.371353e+02
1.090000e-06	-3.090281e-06	-3.528186e-09	-2.286760e+01	-2.363830e+02
1.100000e-06	-3.054603e-06	-3.513505e-09	-2.260359e+01	-2.355986e+02
1.110000e-06	-3.018771e-06	-3.505241e-09	-2.233844e+01	-2.347805e+02
1.120000e-06	-2.982792e-06	-3.492361e-09	-2.207220e+01	-2.339279e+02
1.130000e-06	-2.946725e-06	-3.470450e-09	-2.180531e+01	-2.330398e+02
1.140000e-06	-2.910564e-06	-3.452212e-09	-2.153773e+01	-2.321157e+02
1.150000e-06	-2.874198e-06	-3.442870e-09	-2.126862e+01	-2.311551e+02
1.160000e-06	-2.837561e-06	-3.432497e-09	-2.099752e+01	-2.301580e+02
1.170000e-06	-2.800726e-06	-3.412105e-09	-2.072494e+01	-2.291244e+02
1.180000e-06	-2.763683e-06	-3.391574e-09	-2.045082e+01	-2.280548e+02
1.190000e-06	-2.726378e-06	-3.378102e-09	-2.017478e+01	-2.269496e+02
1.200000e-06	-2.688844e-06	-3.364102e-09	-1.989703e+01	-2.258097e+02
1.210000e-06	-2.651111e-06	-3.344468e-09	-1.961781e+01	-2.246359e+02
1.220000e-06	-2.613165e-06	-3.322339e-09	-1.933701e+01	-2.234294e+02
1.230000e-06	-2.575004e-06	-3.305591e-09	-1.905463e+01	-2.221915e+02
1.240000e-06	-2.536707e-06	-3.292265e-09	-1.877124e+01	-2.209235e+02
1.250000e-06	-2.498300e-06	-3.276648e-09	-1.848704e+01	-2.196269e+02
1.260000e-06	-2.459810e-06	-3.256850e-09	-1.820222e+01	-2.183033e+02
1.270000e-06	-2.421184e-06	-3.236856e-09	-1.791638e+01	-2.169543e+02
1.280000e-06	-2.382345e-06	-3.217316e-09	-1.762898e+01	-2.155816e+02
1.290000e-06	-2.343318e-06	-3.197354e-09	-1.734019e+01	-2.141869e+02
1.300000e-06	-2.304078e-06	-3.175876e-09	-1.704982e+01	-2.127716e+02
1.310000e-06	-2.264658e-06	-3.152411e-09	-1.675812e+01	-2.113375e+02
1.320000e-06	-2.225159e-06	-3.129092e-09	-1.646583e+01	-2.098860e+02
1.330000e-06	-2.185546e-06	-3.109133e-09	-1.617270e+01	-2.084184e+02
1.340000e-06	-2.145747e-06	-3.087886e-09	-1.587819e+01	-2.069360e+02
1.350000e-06	-2.105878e-06	-3.065366e-09	-1.558317e+01	-2.054399e+02
1.360000e-06	-2.065987e-06	-3.044022e-09	-1.528799e+01	-2.039311e+02
1.370000e-06	-2.025973e-06	-3.022236e-09	-1.499188e+01	-2.024101e+02
1.380000e-06	-1.985846e-06	-2.998241e-09	-1.469496e+01	-2.008775e+02
1.390000e-06	-1.945577e-06	-2.976797e-09	-1.439697e+01	-1.993335e+02
1.400000e-06	-1.905181e-06	-2.956748e-09	-1.409804e+01	-1.977782e+02
1.410000e-06	-1.864678e-06	-2.932622e-09	-1.379833e+01	-1.962112e+02
1.420000e-06	-1.824006e-06	-2.907085e-09	-1.349736e+01	-1.946320e+02
1.430000e-06	-1.783132e-06	-2.884205e-09	-1.319490e+01	-1.930398e+02
1.440000e-06	-1.742016e-06	-2.859662e-09	-1.289065e+01	-1.914334e+02
1.450000e-06	-1.700677e-06	-2.831238e-09	-1.258474e+01	-1.898114e+02
1.460000e-06	-1.659144e-06	-2.802750e-09	-1.227741e+01	-1.881723e+02
1.470000e-06	-1.617424e-06	-2.775807e-09	-1.196869e+01	-1.865139e+02
1.480000e-06	-1.575499e-06	-2.749551e-09	-1.165845e+01	-1.848340e+02
1.490000e-06	-1.533383e-06	-2.723263e-09	-1.134680e+01	-1.831302e+02
1.500000e-06	-1.491046e-06	-2.695303e-09	-1.103351e+01	-1.813996e+02
1.510000e-06	-1.448449e-06	-2.666694e-09	-1.071830e+01	-1.796393e+02
1.520000e-06	-1.405644e-06	-2.642010e-09	-1.040155e+01	-1.778461e+02
1.530000e-06	-1.362751e-06	-2.619256e-09	-1.008414e+01	-1.760164e+02
1.540000e-06	-1.319855e-06	-2.595206e-09	-9.766720e+00	-1.741468e+02
1.550000e-06	-1.276886e-06	-2.567533e-09	-9.448756e+00	-1.722334e+02
1.560000e-06	-1.233775e-06	-2.535484e-09	-9.129742e+00	-1.702725e+02
1.570000e-06	-1.190537e-06	-2.501263e-09	-8.809793e+00	-1.682599e+02
1.580000e-06	-1.147240e-06	-2.466865e-09	-8.489396e+00	-1.661917e+02
1.590000e-06	-1.103834e-06	-2.434070e-09	-8.168198e+00	-1.640638e+02
1.600000e-06	-1.060312e-06	-2.402533e-09	-7.846145e+00	-1.618720e+02
1.610000e-06	-1.016741e-06	-2.367941e-09	-7.523729e+00	-1.596123e+02
1.620000e-06	-9.731238e-07	-2.327702e-09	-7.200965e+00	-1.572808e+02
1.630000e-06	-9.294921e-07	-2.288523e-09	-6.878098e+00	-1.548734e+02
1.640000e-06	-8.858182e-07	-2.252687e-09	-6.554918e+00	-1.523863e+02
1.650000e-06	-8.420900e-07	-2.214539e-09	-6.231336e+00	-1.498159e+02
1.660000e-06	-7.983320e-07	-2.175081e-09	-5.907533e+00	-1.471588e+02
1.670000e-06	-7.545319e-07	-2.139679e-09	-5.583419e+00	-1.444116e+02
1.680000e-06	-7.107280e-07	-2.104481e-09	-5.259278e+00	-1.415713e+02
1.690000e-06	-6.669114e-07	-2.063291e-09	-4.935041e+00	-1.386352e+02
1.700000e-06	-6.230708e-07	-2.020533e-09	-4.610628e+00	-1.356009e+02
1.710000e-06	-5.792096e-07	-1.979470e-09	-4.286062e+00	-1.324661e+02
1.720000e-06	-5.352795e-07	-1.936557e-09	-3.960986e+00	-1.292292e+02
1.730000e-06	-4.913355e-07	-1.887270e-09	-3.635806e+00	-1.258886e+02
1.740000e-06	-4.474219e-07	-1.835633e-09	-3.310853e+00	-1.224434e+02
1.750000e-06	-4.035281e-07	-1.783659e-09	-2.986046e+00	-1.188928e+02
1.760000e-06	-3.595798e-07	-1.730674e-09	-2.660835e+00	-1.152366e+02
1.770000e-06	-3.155723e-07	-1.676351e-09	-2.335186e+00	-1.114750e+02
1.780000e-06	-2.715098e-07	-1.622111e-09	-2.009131e+00	-1.076086e+02
1.790000e-06	-2.274774e-07	-1.567379e-09	-1.683297e+00	-1.036384e+02
1.800000e-06	-1.835176e-07	-1.511238e-09	-1.358002e+00	-9.956592e+01
1.810000e-06	-1.395359e-07	-1.453197e-09	-1.032544e+00	-9.539298e+01
1.820000e-06	-9.556795e-08	-1.392532e-09	-7.071881e-01	-9.112191e+01
1.830000e-06	-5.157636e-08	-1.329473e-09	-3.816571e-01	-8.675547e+01
1.840000e-06	-7.559147e-09	-1.262527e-09	-5.593652e-02	-8.229682e+01
1.850000e-06	3.646563e-08	-1.194893e-09	2.698400e-01	-7.774949e+01
1.860000e-06	8.048884e-08	-1.126093e-09	5.956050e-01	-7.311745e+01
1.870000e-06	1.244443e-07	-1.053569e-09	9.208684e-01	-6.840500e+01
1.880000e-06	1.684054e-07	-9.781731e-10	1.246174e+00	-6.361682e+01
1.890000e-06	2.124389e-07	-9.039438e-10	1.572015e+00	-5.875791e+01
1.900000e-06	2.564459e-07	-8.286573e-10	1.897660e+00	-5.383356e+01
1.910000e-06	3.004065e-07	-7.514127e-10	2.222961e+00	-4.884939e+01
1.920000e-06	3.443826e-07	-6.738445e-10	2.548378e+00	-4.381125e+01
1.930000e-06	3.883378e-07	-5.928694e-10	2.873640e+00	-3.872522e+01
1.940000e-06	4.322264e-07	-5.115329e-10	3.198409e+00	-3.359760e+01
1.950000e-06	4.761175e-07	-4.313115e-10	3.523196e+00	-2.843484e+01
1.960000e-06	5.200295e-07	-3.497038e-10	3.848138e+00	-2.324357e+01
1.970000e-06	5.639156e-07	-2.676004e-10	4.172888e+00	-1.803050e+01
1.980000e-06	6.077683e-07	-1.848601e-10	4.497392e+00	-1.280243e+01
1.990000e-06	6.515483e-07	-1.009557e-10	4.821357e+00	-7.566211e+00
2.000000e-06	6.952974e-07	-1.762512e-11	5.145093e+00	-2.328721e+00
2.010000e-06	7.390669e-07	6.540560e-11	5.468981e+00	2.903186e+00
2.020000e-06	7.828445e-07	1.498356e-10	5.792928e+00	8.122699e+00
2.030000e-06	8.266180e-07	2.320881e-10	6.116846e+00	1.332308e+01
2.040000e-06	8.703421e-07	3.123783e-10	6.440397e+00	1.849770e+01
2.050000e-06	9.140210e-07	3.917927e-10	6.763614e+00	2.364005e+01
2.060000e-06	9.576797e-07	4.722770e-10	7.086682e+00	2.874380e+01
2.070000e-06	1.001299e-06	5.523063e-10	7.409455e+00	3.380280e+01
2.080000e-06	1.044866e-06	6.307141e-10	7.731848e+00	3.881111e+01
2.090000e-06	1.088354e-06	7.082453e-10	8.053648e+00	4.376302e+01
2.100000e-06	1.131664e-06	7.808254e-10	8.374138e+00	4.865311e+01
2.110000e-06	1.174816e-06	8.523996e-10	8.693460e+00	5.347619e+01
2.120000e-06	1.218015e-06	9.262352e-10	9.013124e+00	5.822741e+01
2.130000e-06	1.261200e-06	9.976810e-10	9.332682e+00	6.290220e+01
2.140000e-06	1.304143e-06	1.062952e-09	9.650457e+00	6.749635e+01
2.150000e-06	1.347024e-06	1.126983e-09	9.967772e+00	7.200597e+01
2.160000e-06	1.389845e-06	1.191184e-09	1.028464e+01	7.642752e+01
2.170000e-06	1.432343e-06	1.251999e-09	1.059912e+01	8.075783e+01
2.180000e-06	1.474643e-06	1.309995e-09	1.091213e+01	8.499410e+01
2.190000e-06	1.516853e-06	1.365282e-09	1.122448e+01	8.913388e+01
2.200000e-06	1.558854e-06	1.418539e-09	1.153528e+01	9.317512e+01
2.210000e-06	1.600640e-06	1.472045e-09	1.184449e+01	9.711612e+01
2.220000e-06	1.642188e-06	1.522209e-09	1.215194e+01	1.009556e+02
2.230000e-06	1.683547e-06	1.571602e-09	1.245799e+01	1.046925e+02
2.240000e-06	1.724768e-06	1.621418e-09	1.276302e+01	1.083263e+02
2.250000e-06	1.765765e-06	1.668986e-09	1.306639e+01	1.118568e+02
2.260000e-06	1.806560e-06	1.713159e-09	1.336827e+01	1.152841e+02
2.270000e-06	1.847140e-06	1.756788e-09	1.366855e+01	1.186086e+02
2.280000e-06	1.887546e-06	1.800215e-09	1.396755e+01	1.218311e+02
2.290000e-06	1.927832e-06	1.839605e-09	1.426566e+01	1.249527e+02
2.300000e-06	1.968018e-06	1.878036e-09	1.456303e+01	1.279747e+02
2.310000e-06	2.008068e-06	1.917923e-09	1.485939e+01	1.308987e+02
2.320000e-06	2.048017e-06	1.957660e-09	1.515501e+01	1.337268e+02
2.330000e-06	2.087880e-06	1.994707e-09	1.544999e+01	1.364610e+02
2.340000e-06	2.127700e-06	2.031645e-09	1.574465e+01	1.391037e+02
2.350000e-06	2.167489e-06	2.068513e-09	1.603909e+01	1.416574e+02
2.360000e-06	2.207114e-06	2.101832e-09	1.633230e+01	1.441250e+02
2.370000e-06	2.246607e-06	2.135651e-09	1.662455e+01	1.465092e+02
2.380000e-06	2.285983e-06	2.170627e-09	1.691592e+01	1.488132e+02
2.390000e-06	2.325241e-06	2.203177e-09	1.720643e+01	1.510401e+02
2.400000e-06	2.364353e-06	2.233146e-09	1.749584e+01	1.531932e+02
2.410000e-06	2.403180e-06	2.262935e-09	1.778316e+01	1.552757e+02
2.420000e-06	2.441800e-06	2.293749e-09	1.806894e+01	1.572910e+02
2.430000e-06	2.480268e-06	2.324416e-09	1.835360e+01	1.592426e+02
2.440000e-06	2.518506e-06	2.356047e-09	1.863655e+01	1.611338e+02
2.450000e-06	2.556615e-06	2.386085e-09	1.891856e+01	1.629679e+02
2.460000e-06	2.594622e-06	2.412434e-09	1.919980e+01	1.647485e+02
2.470000e-06	2.632499e-06	2.437493e-09	1.948009e+01	1.664786e+02
2.480000e-06	2.670248e-06	2.464360e-09	1.975942e+01	1.681616e+02
2.490000e-06	2.707823e-06	2.489392e-09	2.003747e+01	1.698006e+02
2.500000e-06	2.745173e-06	2.512601e-09	2.031386e+01	1.713986e+02
2.510000e-06	2.782318e-06	2.539481e-09	2.058873e+01	1.729586e+02
2.520000e-06	2.819316e-06	2.567080e-09	2.086250e+01	1.744832e+02
2.530000e-06	2.856116e-06	2.591776e-09	2.113482e+01	1.759752e+02
2.540000e-06	2.892684e-06	2.614690e-09	2.140541e+01	1.774369e+02
2.550000e-06	2.929020e-06	2.635658e-09	2.167429e+01	1.788707e+02
2.560000e-06	2.965192e-06	2.658766e-09	2.194197e+01	1.802787e+02
2.570000e-06	3.001213e-06	2.681734e-09	2.220851e+01	1.816629e+02
2.580000e-06	3.037066e-06	2.703782e-09	2.247382e+01	1.830249e+02
2.590000e-06	3.072808e-06	2.725270e-09	2.273831e+01	1.843664e+02
2.600000e-06	3.108464e-06	2.747890e-09	2.300216e+01	1.856888e+02
2.610000e-06	3.143987e-06	2.770198e-09	2.326502e+01	1.869932e+02
2.620000e-06	3.179319e-06	2.790884e-09	2.352647e+01	1.882805e+02
2.630000e-06	3.214435e-06	2.809970e-09	2.378632e+01	1.895517e+02
2.640000e-06	3.249327e-06	2.828297e-09	2.404452e+01	1.908073e+02
2.650000e-06	3.283841e-06	2.846730e-09	2.429992e+01	1.920478e+02
2.660000e-06	3.317815e-06	2.865937e-09	2.455132e+01	1.932733e+02
2.670000e-06	3.351317e-06	2.886247e-09	2.479923e+01	1.944841e+02
2.680000e-06	3.384472e-06	2.905521e-09	2.504457e+01	1.956800e+02
2.690000e-06	3.417270e-06	2.922023e-09	2.528727e+01	1.968609e+02
2.700000e-06	3.449746e-06	2.937036e-09	2.552759e+01	1.980264e+02
2.710000e-06	3.482012e-06	2.952262e-09	2.576635e+01	1.991762e+02
2.720000e-06	3.514066e-06	2.965246e-09	2.600355e+01	2.003095e+02
2.730000e-06	3.545934e-06	2.978784e-09	2.623936e+01	2.014259e+02
2.740000e-06	3.577723e-06	2.992915e-09	2.647459e+01	2.025245e+02
2.750000e-06	3.609452e-06	3.007464e-09	2.670939e+01	2.036046e+02
2.760000e-06	3.640925e-06	3.020138e-09	2.694228e+01	2.046654e+02
2.770000e-06	3.672088e-06	3.034021e-09	2.717288e+01	2.057060e+02
2.780000e-06	3.702944e-06	3.048871e-09	2.740122e+01	2.067255e+02
2.790000e-06	3.733455e-06	3.061904e-09	2.762699e+01	2.077231e+02
2.800000e-06	3.763706e-06	3.074126e-09	2.785084e+01	2.086979e+02
2.810000e-06	3.793715e-06	3.086026e-09	2.807290e+01	2.096491e+02
2.820000e-06	3.823481e-06	3.097786e-09	2.829317e+01	2.105759e+02
2.830000e-06	3.853025e-06	3.110413e-09	2.851179e+01	2.114776e+02
2.840000e-06	3.882360e-06	3.122960e-09	2.872887e+01	2.123535e+02
2.850000e-06	3.911459e-06	3.135978e-09	2.894419e+01	2.132032e+02
2.860000e-06	3.940221e-06	3.146682e-09	2.915702e+01	2.140261e+02
2.870000e-06	3.968689e-06	3.158361e-09	2.936769e+01	2.148218e+02
2.880000e-06	3.996965e-06	3.173370e-09	2.957692e+01	2.155902e+02
2.890000e-06	4.025082e-06	3.186006e-09	2.978499e+01	2.163311e+02
2.900000e-06	4.053054e-06	3.196539e-09	2.999197e+01	2.170445e+02
