# Temperatura_=_20.0
# Concentracion g/m^3_=_9000.0
# C_Vs_to_Am_M_A/Vsm_=_65563218390.804596
# pendiente_HvsI_1/m_=_3716.3
# ordenada_HvsI_A/m_=_1297.0
# frecuencia_Hz_=_300792.2321253152

Tiempo_(s)	Campo_(V.s)	Magnetizacion_(V.s)	Campo_(kA/m)	Magnetizacion_(A/m)
0.000000e+00	-4.069666e-06	-3.814609e-09	-5.683844e+01	-2.487856e+02
1.000000e-08	-4.067832e-06	-3.816147e-09	-5.681282e+01	-2.488404e+02
2.000000e-08	-4.064535e-06	-3.817021e-09	-5.676679e+01	-2.488632e+02
3.000000e-08	-4.060039e-06	-3.817469e-09	-5.670399e+01	-2.488524e+02
4.000000e-08	-4.054288e-06	-3.816037e-09	-5.662366e+01	-2.488057e+02
5.000000e-08	-4.047276e-06	-3.813616e-09	-5.652574e+01	-2.487209e+02
6.000000e-08	-4.039030e-06	-3.808236e-09	-5.641057e+01	-2.485956e+02
7.000000e-08	-4.029230e-06	-3.797697e-09	-5.627370e+01	-2.484281e+02
8.000000e-08	-4.017689e-06	-3.812190e-09	-5.611251e+01	-2.482175e+02
9.000000e-08	-4.004370e-06	-3.847002e-09	-5.592650e+01	-2.479640e+02
1.000000e-07	-3.988968e-06	-3.861537e-09	-5.571139e+01	-2.476694e+02
1.100000e-07	-3.971784e-06	-3.825624e-09	-5.547139e+01	-2.473373e+02
1.200000e-07	-3.953474e-06	-3.723841e-09	-5.521566e+01	-2.469726e+02
1.300000e-07	-3.934278e-06	-3.726535e-09	-5.494756e+01	-2.465818e+02
1.400000e-07	-3.914112e-06	-3.828182e-09	-5.466593e+01	-2.461717e+02
1.500000e-07	-3.892860e-06	-3.798588e-09	-5.436911e+01	-2.457495e+02
1.600000e-07	-3.870487e-06	-3.749554e-09	-5.405663e+01	-2.453214e+02
1.700000e-07	-3.846469e-06	-3.735633e-09	-5.372119e+01	-2.448922e+02
1.800000e-07	-3.820632e-06	-3.697563e-09	-5.336034e+01	-2.444641e+02
1.900000e-07	-3.793676e-06	-3.763092e-09	-5.298387e+01	-2.440365e+02
2.000000e-07	-3.765656e-06	-3.795338e-09	-5.259253e+01	-2.436053e+02
2.100000e-07	-3.736130e-06	-3.656857e-09	-5.218015e+01	-2.431635e+02
2.200000e-07	-3.705372e-06	-3.633012e-09	-5.175059e+01	-2.427008e+02
2.300000e-07	-3.673595e-06	-3.746090e-09	-5.130678e+01	-2.422048e+02
2.400000e-07	-3.640486e-06	-3.750855e-09	-5.084435e+01	-2.416620e+02
2.500000e-07	-3.605831e-06	-3.657932e-09	-5.036036e+01	-2.410584e+02
2.600000e-07	-3.569722e-06	-3.588724e-09	-4.985605e+01	-2.403813e+02
2.700000e-07	-3.532414e-06	-3.645269e-09	-4.933499e+01	-2.396199e+02
2.800000e-07	-3.493991e-06	-3.685373e-09	-4.879836e+01	-2.387664e+02
2.900000e-07	-3.454408e-06	-3.599774e-09	-4.824553e+01	-2.378168e+02
3.000000e-07	-3.413541e-06	-3.579049e-09	-4.767476e+01	-2.367710e+02
3.100000e-07	-3.371197e-06	-3.589082e-09	-4.708337e+01	-2.356322e+02
3.200000e-07	-3.327490e-06	-3.530772e-09	-4.647295e+01	-2.344074e+02
3.300000e-07	-3.282705e-06	-3.552986e-09	-4.584746e+01	-2.331055e+02
3.400000e-07	-3.236847e-06	-3.564616e-09	-4.520699e+01	-2.317370e+02
3.500000e-07	-3.189764e-06	-3.458326e-09	-4.454942e+01	-2.303124e+02
3.600000e-07	-3.141535e-06	-3.439913e-09	-4.387582e+01	-2.288414e+02
3.700000e-07	-3.092019e-06	-3.509137e-09	-4.318426e+01	-2.273320e+02
3.800000e-07	-3.040880e-06	-3.461286e-09	-4.247005e+01	-2.257895e+02
3.900000e-07	-2.988290e-06	-3.361347e-09	-4.173556e+01	-2.242166e+02
4.000000e-07	-2.934696e-06	-3.373328e-09	-4.098704e+01	-2.226128e+02
4.100000e-07	-2.880230e-06	-3.392693e-09	-4.022635e+01	-2.209755e+02
4.200000e-07	-2.824900e-06	-3.333255e-09	-3.945358e+01	-2.192999e+02
4.300000e-07	-2.768580e-06	-3.287214e-09	-3.866699e+01	-2.175798e+02
4.400000e-07	-2.710960e-06	-3.280880e-09	-3.786226e+01	-2.158088e+02
4.500000e-07	-2.652162e-06	-3.259497e-09	-3.704107e+01	-2.139807e+02
4.600000e-07	-2.592536e-06	-3.215128e-09	-3.620830e+01	-2.120901e+02
4.700000e-07	-2.532122e-06	-3.186381e-09	-3.536454e+01	-2.101330e+02
4.800000e-07	-2.470826e-06	-3.159755e-09	-3.450846e+01	-2.081066e+02
4.900000e-07	-2.408658e-06	-3.116029e-09	-3.364020e+01	-2.060097e+02
5.000000e-07	-2.345696e-06	-3.088437e-09	-3.276086e+01	-2.038417e+02
5.100000e-07	-2.282058e-06	-3.066690e-09	-3.187205e+01	-2.016028e+02
5.200000e-07	-2.217527e-06	-3.015871e-09	-3.097080e+01	-1.992932e+02
5.300000e-07	-2.151762e-06	-2.973404e-09	-3.005229e+01	-1.969121e+02
5.400000e-07	-2.084995e-06	-2.958847e-09	-2.911980e+01	-1.944583e+02
5.500000e-07	-2.017705e-06	-2.925459e-09	-2.818001e+01	-1.919289e+02
5.600000e-07	-1.949961e-06	-2.862955e-09	-2.723387e+01	-1.893197e+02
5.700000e-07	-1.881578e-06	-2.816188e-09	-2.627881e+01	-1.866252e+02
5.800000e-07	-1.812537e-06	-2.793160e-09	-2.531455e+01	-1.838389e+02
5.900000e-07	-1.742912e-06	-2.751814e-09	-2.434214e+01	-1.809535e+02
6.000000e-07	-1.672661e-06	-2.688743e-09	-2.336100e+01	-1.779614e+02
6.100000e-07	-1.601762e-06	-2.635783e-09	-2.237080e+01	-1.748552e+02
6.200000e-07	-1.530396e-06	-2.599388e-09	-2.137407e+01	-1.716277e+02
6.300000e-07	-1.458727e-06	-2.552278e-09	-2.037311e+01	-1.682723e+02
6.400000e-07	-1.386622e-06	-2.489979e-09	-1.936606e+01	-1.647828e+02
6.500000e-07	-1.313813e-06	-2.430262e-09	-1.834919e+01	-1.611537e+02
6.600000e-07	-1.240140e-06	-2.376040e-09	-1.732024e+01	-1.573791e+02
6.700000e-07	-1.165736e-06	-2.321886e-09	-1.628110e+01	-1.534532e+02
6.800000e-07	-1.090864e-06	-2.261715e-09	-1.523540e+01	-1.493692e+02
6.900000e-07	-1.015559e-06	-2.191788e-09	-1.418367e+01	-1.451194e+02
7.000000e-07	-9.399215e-07	-2.114584e-09	-1.312729e+01	-1.406946e+02
7.100000e-07	-8.640780e-07	-2.047089e-09	-1.206803e+01	-1.360839e+02
7.200000e-07	-7.879703e-07	-1.985255e-09	-1.100508e+01	-1.312750e+02
7.300000e-07	-7.115813e-07	-1.906307e-09	-9.938205e+00	-1.262545e+02
7.400000e-07	-6.348954e-07	-1.814505e-09	-8.867182e+00	-1.210077e+02
7.500000e-07	-5.578748e-07	-1.732011e-09	-7.791483e+00	-1.155198e+02
7.600000e-07	-4.806476e-07	-1.654522e-09	-6.712900e+00	-1.097759e+02
7.700000e-07	-4.033171e-07	-1.560862e-09	-5.632875e+00	-1.037623e+02
7.800000e-07	-3.258355e-07	-1.454843e-09	-4.550738e+00	-9.746665e+01
7.900000e-07	-2.482360e-07	-1.353021e-09	-3.466955e+00	-9.087890e+01
8.000000e-07	-1.705998e-07	-1.254560e-09	-2.382659e+00	-8.399176e+01
8.100000e-07	-9.292000e-08	-1.147884e-09	-1.297755e+00	-7.680125e+01
8.200000e-07	-1.521913e-08	-1.031563e-09	-2.125559e-01	-6.930712e+01
8.300000e-07	6.250033e-08	-9.098293e-10	8.729025e-01	-6.151324e+01
8.400000e-07	1.402106e-07	-7.868445e-10	1.958232e+00	-5.342788e+01
8.500000e-07	2.178527e-07	-6.633478e-10	3.042610e+00	-4.506393e+01
8.600000e-07	2.954392e-07	-5.346496e-10	4.126212e+00	-3.643913e+01
8.700000e-07	3.728947e-07	-3.959562e-10	5.207984e+00	-2.757618e+01
8.800000e-07	4.502010e-07	-2.508870e-10	6.287672e+00	-1.850271e+01
8.900000e-07	5.274069e-07	-1.104818e-10	7.365958e+00	-9.251254e+00
9.000000e-07	6.043993e-07	2.792637e-11	8.441262e+00	1.410362e-01
9.100000e-07	6.811018e-07	1.746764e-10	9.512516e+00	9.632842e+00
9.200000e-07	7.575465e-07	3.268136e-10	1.058017e+01	1.917933e+01
9.300000e-07	8.337302e-07	4.737704e-10	1.164418e+01	2.873306e+01
9.400000e-07	9.096180e-07	6.139352e-10	1.270406e+01	3.824507e+01
9.500000e-07	9.851878e-07	7.556359e-10	1.375949e+01	4.766620e+01
9.600000e-07	1.060476e-06	8.994641e-10	1.481099e+01	5.694848e+01
9.700000e-07	1.135465e-06	1.039995e-09	1.585832e+01	6.604661e+01
9.800000e-07	1.209974e-06	1.173788e-09	1.689893e+01	7.491936e+01
9.900000e-07	1.283819e-06	1.304655e-09	1.793028e+01	8.353083e+01
1.000000e-06	1.356878e-06	1.433089e-09	1.895065e+01	9.185145e+01
1.010000e-06	1.429134e-06	1.554267e-09	1.995981e+01	9.985869e+01
1.020000e-06	1.500840e-06	1.670968e-09	2.096127e+01	1.075374e+02
1.030000e-06	1.572223e-06	1.783694e-09	2.195824e+01	1.148795e+02
1.040000e-06	1.643227e-06	1.888882e-09	2.294990e+01	1.218841e+02
1.050000e-06	1.713642e-06	1.988204e-09	2.393335e+01	1.285559e+02
1.060000e-06	1.783363e-06	2.084538e-09	2.490710e+01	1.349048e+02
1.070000e-06	1.852468e-06	2.176693e-09	2.587225e+01	1.409443e+02
1.080000e-06	1.920943e-06	2.264343e-09	2.682860e+01	1.466903e+02
1.090000e-06	1.988790e-06	2.346916e-09	2.777617e+01	1.521598e+02
1.100000e-06	2.056158e-06	2.424125e-09	2.871706e+01	1.573702e+02
1.110000e-06	2.122966e-06	2.498912e-09	2.965012e+01	1.623375e+02
1.120000e-06	2.188774e-06	2.571088e-09	3.056921e+01	1.670767e+02
1.130000e-06	2.253356e-06	2.640854e-09	3.147120e+01	1.716005e+02
1.140000e-06	2.317104e-06	2.706936e-09	3.236153e+01	1.759198e+02
1.150000e-06	2.380284e-06	2.767719e-09	3.324392e+01	1.800435e+02
1.160000e-06	2.442715e-06	2.825410e-09	3.411585e+01	1.839788e+02
1.170000e-06	2.504317e-06	2.882353e-09	3.497620e+01	1.877317e+02
1.180000e-06	2.565082e-06	2.936283e-09	3.582487e+01	1.913073e+02
1.190000e-06	2.625080e-06	2.985682e-09	3.666283e+01	1.947101e+02
1.200000e-06	2.684454e-06	3.033343e-09	3.749206e+01	1.979448e+02
1.210000e-06	2.742862e-06	3.079461e-09	3.830781e+01	2.010159e+02
1.220000e-06	2.799868e-06	3.123048e-09	3.910398e+01	2.039287e+02
1.230000e-06	2.855673e-06	3.162159e-09	3.988338e+01	2.066884e+02
1.240000e-06	2.910555e-06	3.198537e-09	4.064987e+01	2.093013e+02
1.250000e-06	2.964484e-06	3.234570e-09	4.140307e+01	2.117737e+02
1.260000e-06	3.017383e-06	3.270015e-09	4.214187e+01	2.141125e+02
1.270000e-06	3.069212e-06	3.304030e-09	4.286574e+01	2.163246e+02
1.280000e-06	3.119765e-06	3.335477e-09	4.357178e+01	2.184172e+02
1.290000e-06	3.168757e-06	3.363412e-09	4.425602e+01	2.203976e+02
1.300000e-06	3.216394e-06	3.390089e-09	4.492133e+01	2.222729e+02
1.310000e-06	3.262955e-06	3.416397e-09	4.557163e+01	2.240499e+02
1.320000e-06	3.308429e-06	3.442154e-09	4.620673e+01	2.257353e+02
1.330000e-06	3.352839e-06	3.465917e-09	4.682698e+01	2.273354e+02
1.340000e-06	3.396253e-06	3.487058e-09	4.743331e+01	2.288558e+02
1.350000e-06	3.438387e-06	3.508897e-09	4.802177e+01	2.303018e+02
1.360000e-06	3.478984e-06	3.530676e-09	4.858876e+01	2.316775e+02
1.370000e-06	3.518336e-06	3.550280e-09	4.913837e+01	2.329868e+02
1.380000e-06	3.556578e-06	3.568430e-09	4.967247e+01	2.342323e+02
1.390000e-06	3.593613e-06	3.586117e-09	5.018972e+01	2.354162e+02
1.400000e-06	3.629592e-06	3.602977e-09	5.069221e+01	2.365399e+02
1.410000e-06	3.664436e-06	3.619011e-09	5.117885e+01	2.376041e+02
1.420000e-06	3.697736e-06	3.634058e-09	5.164393e+01	2.386093e+02
1.430000e-06	3.729593e-06	3.647636e-09	5.208886e+01	2.395561e+02
1.440000e-06	3.760239e-06	3.661723e-09	5.251687e+01	2.404450e+02
1.450000e-06	3.789630e-06	3.675283e-09	5.292736e+01	2.412768e+02
1.460000e-06	3.817811e-06	3.686269e-09	5.332094e+01	2.420529e+02
1.470000e-06	3.844672e-06	3.695948e-09	5.369609e+01	2.427754e+02
1.480000e-06	3.869931e-06	3.708113e-09	5.404888e+01	2.434468e+02
1.490000e-06	3.893623e-06	3.721619e-09	5.437976e+01	2.440702e+02
1.500000e-06	3.915974e-06	3.732343e-09	5.469193e+01	2.446492e+02
1.510000e-06	3.937069e-06	3.740129e-09	5.498655e+01	2.451872e+02
1.520000e-06	3.957024e-06	3.747560e-09	5.526525e+01	2.456879e+02
1.530000e-06	3.975806e-06	3.756241e-09	5.552757e+01	2.461544e+02
1.540000e-06	3.993180e-06	3.763404e-09	5.577021e+01	2.465893e+02
1.550000e-06	4.009021e-06	3.768521e-09	5.599146e+01	2.469948e+02
1.560000e-06	4.023338e-06	3.773995e-09	5.619141e+01	2.473721e+02
1.570000e-06	4.036166e-06	3.780940e-09	5.637057e+01	2.477220e+02
1.580000e-06	4.047448e-06	3.787477e-09	5.652814e+01	2.480446e+02
1.590000e-06	4.057032e-06	3.791970e-09	5.666199e+01	2.483397e+02
1.600000e-06	4.064996e-06	3.795430e-09	5.677322e+01	2.486069e+02
1.610000e-06	4.071565e-06	3.800377e-09	5.686496e+01	2.488457e+02
1.620000e-06	4.076766e-06	3.805763e-09	5.693761e+01	2.490557e+02
1.630000e-06	4.080697e-06	3.809297e-09	5.699251e+01	2.492367e+02
1.640000e-06	4.083275e-06	3.812126e-09	5.702851e+01	2.493884e+02
1.650000e-06	4.084205e-06	3.815437e-09	5.704150e+01	2.495106e+02
1.660000e-06	4.083628e-06	3.818208e-09	5.703345e+01	2.496029e+02
1.670000e-06	4.081742e-06	3.818934e-09	5.700710e+01	2.496647e+02
1.680000e-06	4.078597e-06	3.817908e-09	5.696318e+01	2.496948e+02
1.690000e-06	4.074325e-06	3.815966e-09	5.690352e+01	2.496916e+02
1.700000e-06	4.068711e-06	3.814608e-09	5.682511e+01	2.496531e+02
1.710000e-06	4.061505e-06	3.813484e-09	5.672447e+01	2.495769e+02
1.720000e-06	4.053029e-06	3.817619e-09	5.660609e+01	2.494607e+02
1.730000e-06	4.043479e-06	3.824044e-09	5.647271e+01	2.493027e+02
1.740000e-06	4.032673e-06	3.786942e-09	5.632178e+01	2.491016e+02
1.750000e-06	4.020027e-06	3.744109e-09	5.614517e+01	2.488574e+02
1.760000e-06	4.004910e-06	3.731067e-09	5.593403e+01	2.485717e+02
1.770000e-06	3.987727e-06	3.797945e-09	5.569405e+01	2.482475e+02
1.780000e-06	3.969629e-06	3.872363e-09	5.544129e+01	2.478896e+02
1.790000e-06	3.951204e-06	3.784041e-09	5.518396e+01	2.475040e+02
1.800000e-06	3.931601e-06	3.719255e-09	5.491017e+01	2.470977e+02
1.810000e-06	3.909895e-06	3.757569e-09	5.460703e+01	2.466778e+02
1.820000e-06	3.886883e-06	3.742511e-09	5.428562e+01	2.462508e+02
1.830000e-06	3.863028e-06	3.786691e-09	5.395247e+01	2.458218e+02
1.840000e-06	3.837444e-06	3.794662e-09	5.359515e+01	2.453937e+02
1.850000e-06	3.810292e-06	3.659996e-09	5.321593e+01	2.449664e+02
1.860000e-06	3.782293e-06	3.695537e-09	5.282488e+01	2.445368e+02
1.870000e-06	3.753075e-06	3.791994e-09	5.241682e+01	2.440983e+02
1.880000e-06	3.722199e-06	3.686508e-09	5.198560e+01	2.436413e+02
1.890000e-06	3.689808e-06	3.633368e-09	5.153321e+01	2.431538e+02
1.900000e-06	3.656163e-06	3.711349e-09	5.106331e+01	2.426225e+02
1.910000e-06	3.621469e-06	3.744965e-09	5.057876e+01	2.420333e+02
1.920000e-06	3.585570e-06	3.712752e-09	5.007739e+01	2.413732e+02
1.930000e-06	3.548421e-06	3.617415e-09	4.955855e+01	2.406309e+02
1.940000e-06	3.510069e-06	3.647632e-09	4.902291e+01	2.397979e+02
1.950000e-06	3.470164e-06	3.690386e-09	4.846557e+01	2.388693e+02
1.960000e-06	3.428821e-06	3.574832e-09	4.788817e+01	2.378442e+02
1.970000e-06	3.386428e-06	3.616572e-09	4.729609e+01	2.367251e+02
1.980000e-06	3.342990e-06	3.641823e-09	4.668942e+01	2.355183e+02
1.990000e-06	3.298521e-06	3.501106e-09	4.606835e+01	2.342324e+02
2.000000e-06	3.253016e-06	3.545891e-09	4.543281e+01	2.328775e+02
2.010000e-06	3.206281e-06	3.593952e-09	4.478009e+01	2.314643e+02
2.020000e-06	3.158164e-06	3.480435e-09	4.410808e+01	2.300028e+02
2.030000e-06	3.108747e-06	3.430540e-09	4.341789e+01	2.285013e+02
2.040000e-06	3.058383e-06	3.473209e-09	4.271449e+01	2.269659e+02
2.050000e-06	3.007081e-06	3.481778e-09	4.199800e+01	2.253996e+02
2.060000e-06	2.954497e-06	3.381629e-09	4.126358e+01	2.238029e+02
2.070000e-06	2.900415e-06	3.349155e-09	4.050826e+01	2.221735e+02
2.080000e-06	2.844973e-06	3.386443e-09	3.973393e+01	2.205068e+02
2.090000e-06	2.788543e-06	3.333460e-09	3.894581e+01	2.187970e+02
2.100000e-06	2.731153e-06	3.280403e-09	3.814428e+01	2.170377e+02
2.110000e-06	2.672901e-06	3.269910e-09	3.733071e+01	2.152226e+02
2.120000e-06	2.613899e-06	3.263313e-09	3.650667e+01	2.133461e+02
2.130000e-06	2.554060e-06	3.210939e-09	3.567094e+01	2.114037e+02
2.140000e-06	2.493384e-06	3.170706e-09	3.482351e+01	2.093926e+02
2.150000e-06	2.431675e-06	3.179409e-09	3.396166e+01	2.073111e+02
2.160000e-06	2.368723e-06	3.123910e-09	3.308246e+01	2.051587e+02
2.170000e-06	2.304835e-06	3.072459e-09	3.219017e+01	2.029352e+02
2.180000e-06	2.240334e-06	3.062626e-09	3.128932e+01	2.006410e+02
2.190000e-06	2.175075e-06	3.021993e-09	3.037789e+01	1.982756e+02
2.200000e-06	2.109016e-06	2.969110e-09	2.945530e+01	1.958378e+02
2.210000e-06	2.042258e-06	2.935507e-09	2.852293e+01	1.933252e+02
2.220000e-06	1.974844e-06	2.919244e-09	2.758140e+01	1.907337e+02
2.230000e-06	1.906866e-06	2.864260e-09	2.663199e+01	1.880583e+02
2.240000e-06	1.838386e-06	2.799865e-09	2.567558e+01	1.852925e+02
2.250000e-06	1.769193e-06	2.777209e-09	2.470920e+01	1.824293e+02
2.260000e-06	1.699032e-06	2.742848e-09	2.372930e+01	1.794610e+02
2.270000e-06	1.627887e-06	2.680822e-09	2.273566e+01	1.763801e+02
2.280000e-06	1.556037e-06	2.621486e-09	2.173218e+01	1.731795e+02
2.290000e-06	1.483830e-06	2.586627e-09	2.072371e+01	1.698522e+02
2.300000e-06	1.411253e-06	2.543014e-09	1.971008e+01	1.663923e+02
2.310000e-06	1.338261e-06	2.477348e-09	1.869065e+01	1.627938e+02
2.320000e-06	1.264831e-06	2.419839e-09	1.766510e+01	1.590511e+02
2.330000e-06	1.190921e-06	2.360111e-09	1.663284e+01	1.551584e+02
2.340000e-06	1.116578e-06	2.297278e-09	1.559454e+01	1.511092e+02
2.350000e-06	1.041862e-06	2.239646e-09	1.455103e+01	1.468959e+02
2.360000e-06	9.667957e-07	2.179444e-09	1.350262e+01	1.425097e+02
2.370000e-06	8.913452e-07	2.101459e-09	1.244885e+01	1.379401e+02
2.380000e-06	8.156031e-07	2.017862e-09	1.139101e+01	1.331751e+02
2.390000e-06	7.396145e-07	1.951690e-09	1.032973e+01	1.282014e+02
2.400000e-06	6.634001e-07	1.880750e-09	9.265289e+00	1.230046e+02
2.410000e-06	5.870028e-07	1.789374e-09	8.198296e+00	1.175698e+02
2.420000e-06	5.103795e-07	1.696395e-09	7.128147e+00	1.118823e+02
2.430000e-06	4.335498e-07	1.614593e-09	6.055115e+00	1.059278e+02
2.440000e-06	3.565047e-07	1.527186e-09	4.979075e+00	9.969382e+01
2.450000e-06	2.792854e-07	1.421390e-09	3.900602e+00	9.316965e+01
2.460000e-06	2.018449e-07	1.312647e-09	2.819039e+00	8.634738e+01
2.470000e-06	1.241018e-07	1.208187e-09	1.733251e+00	7.922230e+01
2.480000e-06	4.622966e-08	1.097445e-09	6.456604e-01	7.179332e+01
2.490000e-06	-3.150310e-08	9.788881e-10	-4.399838e-01	6.406339e+01
2.500000e-06	-1.090484e-07	8.573504e-10	-1.523010e+00	5.603983e+01
2.510000e-06	-1.865759e-07	7.294653e-10	-2.605787e+00	4.773452e+01
2.520000e-06	-2.640165e-07	5.952844e-10	-3.687351e+00	3.916414e+01
2.530000e-06	-3.411852e-07	4.627213e-10	-4.765118e+00	3.035032e+01
2.540000e-06	-4.181436e-07	3.295287e-10	-5.839947e+00	2.131966e+01
2.550000e-06	-4.949263e-07	1.873936e-10	-6.912322e+00	1.210363e+01
2.560000e-06	-5.714886e-07	4.166178e-11	-7.981619e+00	2.738441e+00
2.570000e-06	-6.478078e-07	-9.870452e-11	-9.047520e+00	-6.735441e+00
2.580000e-06	-7.238806e-07	-2.398383e-10	-1.010998e+01	-1.627387e+01
2.590000e-06	-7.997628e-07	-3.888951e-10	-1.116978e+01	-2.582987e+01
2.600000e-06	-8.753871e-07	-5.372404e-10	-1.222598e+01	-3.535471e+01
2.610000e-06	-9.505988e-07	-6.784920e-10	-1.327641e+01	-4.479915e+01
2.620000e-06	-1.025350e-06	-8.183776e-10	-1.432041e+01	-5.411484e+01
2.630000e-06	-1.099748e-06	-9.581387e-10	-1.535948e+01	-6.325580e+01
2.640000e-06	-1.173840e-06	-1.093118e-09	-1.639428e+01	-7.217980e+01
2.650000e-06	-1.247536e-06	-1.224377e-09	-1.742354e+01	-8.084971e+01
2.660000e-06	-1.320769e-06	-1.353993e-09	-1.844635e+01	-8.923454e+01
2.670000e-06	-1.393505e-06	-1.478954e-09	-1.946220e+01	-9.731020e+01
2.680000e-06	-1.465805e-06	-1.597935e-09	-2.047197e+01	-1.050599e+02
2.690000e-06	-1.537834e-06	-1.714230e-09	-2.147796e+01	-1.124743e+02
2.700000e-06	-1.609508e-06	-1.826829e-09	-2.247898e+01	-1.195507e+02
2.710000e-06	-1.680427e-06	-1.930983e-09	-2.346946e+01	-1.262928e+02
2.720000e-06	-1.750361e-06	-2.027018e-09	-2.444619e+01	-1.327096e+02
2.730000e-06	-1.819403e-06	-2.118899e-09	-2.541045e+01	-1.388139e+02
2.740000e-06	-1.887807e-06	-2.208122e-09	-2.636580e+01	-1.446211e+02
2.750000e-06	-1.955758e-06	-2.294680e-09	-2.731483e+01	-1.501482e+02
2.760000e-06	-2.023128e-06	-2.377386e-09	-2.825575e+01	-1.554124e+02
2.770000e-06	-2.089743e-06	-2.453588e-09	-2.918611e+01	-1.604302e+02
2.780000e-06	-2.155691e-06	-2.526120e-09	-3.010717e+01	-1.652169e+02
2.790000e-06	-2.220948e-06	-2.597926e-09	-3.101858e+01	-1.697855e+02
2.800000e-06	-2.285492e-06	-2.666703e-09	-3.192002e+01	-1.741476e+02
2.810000e-06	-2.349396e-06	-2.729993e-09	-3.281252e+01	-1.783123e+02
2.820000e-06	-2.412339e-06	-2.789513e-09	-3.369161e+01	-1.822872e+02
2.830000e-06	-2.473996e-06	-2.848871e-09	-3.455274e+01	-1.860785e+02
2.840000e-06	-2.534633e-06	-2.907294e-09	-3.539961e+01	-1.896914e+02
2.850000e-06	-2.594584e-06	-2.961511e-09	-3.623691e+01	-1.931306e+02
2.860000e-06	-2.653751e-06	-3.011600e-09	-3.706326e+01	-1.964006e+02
2.870000e-06	-2.711987e-06	-3.059773e-09	-3.787660e+01	-1.995062e+02
2.880000e-06	-2.769220e-06	-3.105945e-09	-3.867594e+01	-2.024521e+02
2.890000e-06	-2.825556e-06	-3.150952e-09	-3.946274e+01	-2.052439e+02
2.900000e-06	-2.880988e-06	-3.195740e-09	-4.023693e+01	-2.078875e+02
2.910000e-06	-2.935080e-06	-3.237231e-09	-4.099241e+01	-2.103892e+02
2.920000e-06	-2.987748e-06	-3.272821e-09	-4.172799e+01	-2.127557e+02
2.930000e-06	-3.039260e-06	-3.306526e-09	-4.244742e+01	-2.149941e+02
2.940000e-06	-3.089658e-06	-3.341861e-09	-4.315130e+01	-2.171115e+02
