# Temperatura_=_20.0
# Concentracion g/m^3_=_9000.0
# C_Vs_to_Am_M_A/Vsm_=_65563218390.804596
# pendiente_HvsI_1/m_=_3716.3
# ordenada_HvsI_A/m_=_1297.0
# frecuencia_Hz_=_300792.76344153105

Tiempo_(s)	Campo_(V.s)	Magnetizacion_(V.s)	Campo_(kA/m)	Magnetizacion_(A/m)
0.000000e+00	-4.069188e-06	-3.840860e-09	-5.684322e+01	-2.513060e+02
1.000000e-08	-4.067833e-06	-3.842901e-09	-5.682430e+01	-2.512839e+02
2.000000e-08	-4.064942e-06	-3.841185e-09	-5.678391e+01	-2.512305e+02
3.000000e-08	-4.060784e-06	-3.838725e-09	-5.672583e+01	-2.511481e+02
4.000000e-08	-4.055455e-06	-3.837953e-09	-5.665138e+01	-2.510388e+02
5.000000e-08	-4.048850e-06	-3.836377e-09	-5.655912e+01	-2.509045e+02
6.000000e-08	-4.041008e-06	-3.835398e-09	-5.644958e+01	-2.507463e+02
7.000000e-08	-4.031736e-06	-3.833580e-09	-5.632005e+01	-2.505646e+02
8.000000e-08	-4.020760e-06	-3.816406e-09	-5.616673e+01	-2.503594e+02
9.000000e-08	-4.007985e-06	-3.829314e-09	-5.598827e+01	-2.501299e+02
1.000000e-07	-3.993171e-06	-3.865047e-09	-5.578133e+01	-2.498750e+02
1.100000e-07	-3.976426e-06	-3.871839e-09	-5.554742e+01	-2.495933e+02
1.200000e-07	-3.958409e-06	-3.845768e-09	-5.529573e+01	-2.492831e+02
1.300000e-07	-3.939467e-06	-3.713145e-09	-5.503114e+01	-2.489431e+02
1.400000e-07	-3.919611e-06	-3.724854e-09	-5.475376e+01	-2.485721e+02
1.500000e-07	-3.898721e-06	-3.888867e-09	-5.446195e+01	-2.481692e+02
1.600000e-07	-3.876718e-06	-3.797006e-09	-5.415458e+01	-2.477339e+02
1.700000e-07	-3.853258e-06	-3.733742e-09	-5.382686e+01	-2.472659e+02
1.800000e-07	-3.827907e-06	-3.768353e-09	-5.347273e+01	-2.467651e+02
1.900000e-07	-3.801150e-06	-3.685383e-09	-5.309896e+01	-2.462310e+02
2.000000e-07	-3.773425e-06	-3.771352e-09	-5.271166e+01	-2.456630e+02
2.100000e-07	-3.744366e-06	-3.856620e-09	-5.230573e+01	-2.450598e+02
2.200000e-07	-3.713929e-06	-3.661286e-09	-5.188055e+01	-2.444193e+02
2.300000e-07	-3.682467e-06	-3.641438e-09	-5.144105e+01	-2.437388e+02
2.400000e-07	-3.649777e-06	-3.801373e-09	-5.098440e+01	-2.430148e+02
2.500000e-07	-3.615460e-06	-3.750862e-09	-5.050501e+01	-2.422431e+02
2.600000e-07	-3.579713e-06	-3.662434e-09	-5.000566e+01	-2.414196e+02
2.700000e-07	-3.542829e-06	-3.618177e-09	-4.949041e+01	-2.405398e+02
2.800000e-07	-3.504841e-06	-3.644548e-09	-4.895976e+01	-2.396000e+02
2.900000e-07	-3.465684e-06	-3.697387e-09	-4.841277e+01	-2.385972e+02
3.000000e-07	-3.425213e-06	-3.631045e-09	-4.784743e+01	-2.375294e+02
3.100000e-07	-3.383287e-06	-3.578364e-09	-4.726176e+01	-2.363962e+02
3.200000e-07	-3.339958e-06	-3.583595e-09	-4.665648e+01	-2.351984e+02
3.300000e-07	-3.295505e-06	-3.556586e-09	-4.603551e+01	-2.339381e+02
3.400000e-07	-3.250002e-06	-3.568892e-09	-4.539987e+01	-2.326184e+02
3.500000e-07	-3.203330e-06	-3.562116e-09	-4.474789e+01	-2.312433e+02
3.600000e-07	-3.155422e-06	-3.467056e-09	-4.407867e+01	-2.298169e+02
3.700000e-07	-3.106258e-06	-3.445050e-09	-4.339188e+01	-2.283431e+02
3.800000e-07	-3.055606e-06	-3.507498e-09	-4.268431e+01	-2.268253e+02
3.900000e-07	-3.003442e-06	-3.482330e-09	-4.195563e+01	-2.252656e+02
4.000000e-07	-2.950160e-06	-3.367652e-09	-4.121131e+01	-2.236652e+02
4.100000e-07	-2.895998e-06	-3.365505e-09	-4.045472e+01	-2.220236e+02
4.200000e-07	-2.840975e-06	-3.402701e-09	-3.968610e+01	-2.203391e+02
4.300000e-07	-2.785017e-06	-3.349353e-09	-3.890441e+01	-2.186090e+02
4.400000e-07	-2.727856e-06	-3.293901e-09	-3.810592e+01	-2.168294e+02
4.500000e-07	-2.669394e-06	-3.275559e-09	-3.728926e+01	-2.149962e+02
4.600000e-07	-2.609994e-06	-3.256848e-09	-3.645948e+01	-2.131051e+02
4.700000e-07	-2.549866e-06	-3.216569e-09	-3.561954e+01	-2.111519e+02
4.800000e-07	-2.488873e-06	-3.190572e-09	-3.476751e+01	-2.091329e+02
4.900000e-07	-2.426936e-06	-3.160096e-09	-3.390231e+01	-2.070451e+02
5.000000e-07	-2.364128e-06	-3.113752e-09	-3.302493e+01	-2.048858e+02
5.100000e-07	-2.300657e-06	-3.085560e-09	-3.213829e+01	-2.026532e+02
5.200000e-07	-2.236472e-06	-3.066025e-09	-3.124168e+01	-2.003455e+02
5.300000e-07	-2.171093e-06	-3.020958e-09	-3.032839e+01	-1.979612e+02
5.400000e-07	-2.104547e-06	-2.971973e-09	-2.939880e+01	-1.954985e+02
5.500000e-07	-2.037379e-06	-2.942263e-09	-2.846051e+01	-1.929551e+02
5.600000e-07	-1.969800e-06	-2.912409e-09	-2.751649e+01	-1.903280e+02
5.700000e-07	-1.901684e-06	-2.861909e-09	-2.656497e+01	-1.876137e+02
5.800000e-07	-1.832868e-06	-2.806695e-09	-2.560366e+01	-1.848075e+02
5.900000e-07	-1.763385e-06	-2.777748e-09	-2.463304e+01	-1.819043e+02
6.000000e-07	-1.693362e-06	-2.737524e-09	-2.365488e+01	-1.788982e+02
6.100000e-07	-1.622685e-06	-2.676518e-09	-2.266758e+01	-1.757830e+02
6.200000e-07	-1.551427e-06	-2.621860e-09	-2.167217e+01	-1.725520e+02
6.300000e-07	-1.479876e-06	-2.582511e-09	-2.067265e+01	-1.691987e+02
6.400000e-07	-1.407919e-06	-2.530837e-09	-1.966748e+01	-1.657162e+02
6.500000e-07	-1.335331e-06	-2.463259e-09	-1.865348e+01	-1.620976e+02
6.600000e-07	-1.261942e-06	-2.408017e-09	-1.762830e+01	-1.583360e+02
6.700000e-07	-1.187771e-06	-2.355392e-09	-1.659218e+01	-1.544238e+02
6.800000e-07	-1.113045e-06	-2.293767e-09	-1.554833e+01	-1.503530e+02
6.900000e-07	-1.037893e-06	-2.224638e-09	-1.449851e+01	-1.461148e+02
7.000000e-07	-9.623941e-07	-2.156637e-09	-1.344386e+01	-1.416993e+02
7.100000e-07	-8.865985e-07	-2.084041e-09	-1.238506e+01	-1.370953e+02
7.200000e-07	-8.105515e-07	-2.011705e-09	-1.132274e+01	-1.322909e+02
7.300000e-07	-7.342535e-07	-1.941194e-09	-1.025692e+01	-1.272728e+02
7.400000e-07	-6.576334e-07	-1.857313e-09	-9.186601e+00	-1.220270e+02
7.500000e-07	-5.806901e-07	-1.764042e-09	-8.111765e+00	-1.165393e+02
7.600000e-07	-5.035103e-07	-1.679720e-09	-7.033627e+00	-1.107957e+02
7.700000e-07	-4.262443e-07	-1.599228e-09	-5.954284e+00	-1.047828e+02
7.800000e-07	-3.489173e-07	-1.499115e-09	-4.874089e+00	-9.848892e+01
7.900000e-07	-2.714197e-07	-1.388840e-09	-3.791511e+00	-9.190435e+01
8.000000e-07	-1.937517e-07	-1.285566e-09	-2.706553e+00	-8.502215e+01
8.100000e-07	-1.160335e-07	-1.185958e-09	-1.620893e+00	-7.783863e+01
8.200000e-07	-3.828798e-08	-1.072507e-09	-5.348517e-01	-7.035389e+01
8.300000e-07	3.945469e-08	-9.461666e-10	5.511497e-01	-6.257206e+01
8.400000e-07	1.171554e-07	-8.210296e-10	1.636565e+00	-5.450166e+01
8.500000e-07	1.948046e-07	-6.966523e-10	2.721261e+00	-4.615567e+01
8.600000e-07	2.723625e-07	-5.689015e-10	3.804682e+00	-3.755163e+01
8.700000e-07	3.498152e-07	-4.329184e-10	4.886633e+00	-2.871163e+01
8.800000e-07	4.271508e-07	-2.902428e-10	5.966948e+00	-1.966222e+01
8.900000e-07	5.043783e-07	-1.455256e-10	7.045753e+00	-1.043421e+01
9.000000e-07	5.814249e-07	-5.371854e-12	8.122030e+00	-1.062412e+00
9.100000e-07	6.582040e-07	1.356394e-10	9.194571e+00	8.414708e+00
9.200000e-07	7.347543e-07	2.860571e-10	1.026392e+01	1.795557e+01
9.300000e-07	8.110743e-07	4.381453e-10	1.133004e+01	2.751610e+01
9.400000e-07	8.870782e-07	5.812523e-10	1.239176e+01	3.705056e+01
9.500000e-07	9.627651e-07	7.187402e-10	1.344904e+01	4.651247e+01
9.600000e-07	1.038202e-06	8.617072e-10	1.450284e+01	5.585575e+01
9.700000e-07	1.113309e-06	1.005865e-09	1.555201e+01	6.503584e+01
9.800000e-07	1.187920e-06	1.143207e-09	1.659428e+01	7.401094e+01
9.900000e-07	1.261876e-06	1.273468e-09	1.762737e+01	8.274325e+01
1.000000e-06	1.335078e-06	1.402588e-09	1.864995e+01	9.119998e+01
1.010000e-06	1.407606e-06	1.527287e-09	1.966310e+01	9.935429e+01
1.020000e-06	1.479553e-06	1.646442e-09	2.066814e+01	1.071859e+02
1.030000e-06	1.551075e-06	1.762539e-09	2.166725e+01	1.146815e+02
1.040000e-06	1.622194e-06	1.870768e-09	2.266073e+01	1.218347e+02
1.050000e-06	1.692788e-06	1.971618e-09	2.364687e+01	1.286454e+02
1.060000e-06	1.762778e-06	2.068103e-09	2.462457e+01	1.351197e+02
1.070000e-06	1.832100e-06	2.161862e-09	2.559294e+01	1.412683e+02
1.080000e-06	1.900733e-06	2.250214e-09	2.655168e+01	1.471059e+02
1.090000e-06	1.968766e-06	2.332500e-09	2.750205e+01	1.526495e+02
1.100000e-06	2.036356e-06	2.410524e-09	2.844623e+01	1.579176e+02
1.110000e-06	2.103327e-06	2.486323e-09	2.938175e+01	1.629287e+02
1.120000e-06	2.169363e-06	2.560131e-09	3.030423e+01	1.677006e+02
1.130000e-06	2.234314e-06	2.629055e-09	3.121154e+01	1.722495e+02
1.140000e-06	2.298306e-06	2.695530e-09	3.210546e+01	1.765895e+02
1.150000e-06	2.361609e-06	2.757967e-09	3.298974e+01	1.807327e+02
1.160000e-06	2.424254e-06	2.816810e-09	3.386485e+01	1.846890e+02
1.170000e-06	2.486148e-06	2.873244e-09	3.472945e+01	1.884664e+02
1.180000e-06	2.547208e-06	2.926356e-09	3.558241e+01	1.920714e+02
1.190000e-06	2.607450e-06	2.974916e-09	3.642394e+01	1.955095e+02
1.200000e-06	2.666919e-06	3.022373e-09	3.725468e+01	1.987855e+02
1.210000e-06	2.725537e-06	3.068968e-09	3.807352e+01	2.019041e+02
1.220000e-06	2.783002e-06	3.113360e-09	3.887625e+01	2.048704e+02
1.230000e-06	2.839154e-06	3.154525e-09	3.966066e+01	2.076895e+02
1.240000e-06	2.894298e-06	3.191673e-09	4.043098e+01	2.103669e+02
1.250000e-06	2.948577e-06	3.228978e-09	4.118921e+01	2.129088e+02
1.260000e-06	3.001867e-06	3.264571e-09	4.193363e+01	2.153213e+02
1.270000e-06	3.054035e-06	3.297733e-09	4.266237e+01	2.176107e+02
1.280000e-06	3.104845e-06	3.328567e-09	4.337214e+01	2.197832e+02
1.290000e-06	3.154175e-06	3.357854e-09	4.406125e+01	2.218447e+02
1.300000e-06	3.202169e-06	3.384299e-09	4.473169e+01	2.238007e+02
1.310000e-06	3.249029e-06	3.410349e-09	4.538627e+01	2.256562e+02
1.320000e-06	3.294779e-06	3.437721e-09	4.602536e+01	2.274158e+02
1.330000e-06	3.339432e-06	3.463127e-09	4.664913e+01	2.290840e+02
1.340000e-06	3.383052e-06	3.483988e-09	4.725846e+01	2.306647e+02
1.350000e-06	3.425512e-06	3.504732e-09	4.785160e+01	2.321618e+02
1.360000e-06	3.466617e-06	3.527536e-09	4.842580e+01	2.335791e+02
1.370000e-06	3.506384e-06	3.548861e-09	4.898131e+01	2.349207e+02
1.380000e-06	3.544919e-06	3.566976e-09	4.951961e+01	2.361903e+02
1.390000e-06	3.582345e-06	3.582090e-09	5.004242e+01	2.373922e+02
1.400000e-06	3.618668e-06	3.597513e-09	5.054982e+01	2.385302e+02
1.410000e-06	3.653757e-06	3.614421e-09	5.103999e+01	2.396082e+02
1.420000e-06	3.687490e-06	3.630553e-09	5.151122e+01	2.406300e+02
1.430000e-06	3.719763e-06	3.644617e-09	5.196204e+01	2.415989e+02
1.440000e-06	3.750709e-06	3.659136e-09	5.239434e+01	2.425180e+02
1.450000e-06	3.780460e-06	3.675244e-09	5.280993e+01	2.433897e+02
1.460000e-06	3.808964e-06	3.690085e-09	5.320811e+01	2.442162e+02
1.470000e-06	3.836230e-06	3.701763e-09	5.358900e+01	2.449991e+02
1.480000e-06	3.862095e-06	3.712957e-09	5.395030e+01	2.457397e+02
1.490000e-06	3.886394e-06	3.725647e-09	5.428974e+01	2.464389e+02
1.500000e-06	3.909250e-06	3.736664e-09	5.460903e+01	2.470973e+02
1.510000e-06	3.930797e-06	3.744784e-09	5.491002e+01	2.477155e+02
1.520000e-06	3.951100e-06	3.752702e-09	5.519363e+01	2.482937e+02
1.530000e-06	3.970188e-06	3.761852e-09	5.546027e+01	2.488321e+02
1.540000e-06	3.987901e-06	3.771355e-09	5.570772e+01	2.493308e+02
1.550000e-06	4.004086e-06	3.779197e-09	5.593380e+01	2.497897e+02
1.560000e-06	4.018783e-06	3.785290e-09	5.613911e+01	2.502087e+02
1.570000e-06	4.032012e-06	3.791634e-09	5.632391e+01	2.505875e+02
1.580000e-06	4.043750e-06	3.798002e-09	5.648788e+01	2.509258e+02
1.590000e-06	4.053849e-06	3.802293e-09	5.662895e+01	2.512232e+02
1.600000e-06	4.062229e-06	3.805292e-09	5.674601e+01	2.514795e+02
1.610000e-06	4.069134e-06	3.808892e-09	5.684248e+01	2.516945e+02
1.620000e-06	4.074707e-06	3.812563e-09	5.692032e+01	2.518684e+02
1.630000e-06	4.078974e-06	3.815853e-09	5.697992e+01	2.520017e+02
1.640000e-06	4.081948e-06	3.817912e-09	5.702147e+01	2.520954e+02
1.650000e-06	4.083382e-06	3.820166e-09	5.704150e+01	2.521509e+02
1.660000e-06	4.083266e-06	3.823031e-09	5.703989e+01	2.521700e+02
1.670000e-06	4.081805e-06	3.823420e-09	5.701947e+01	2.521549e+02
1.680000e-06	4.079046e-06	3.819589e-09	5.698093e+01	2.521080e+02
1.690000e-06	4.075058e-06	3.814789e-09	5.692523e+01	2.520316e+02
1.700000e-06	4.069864e-06	3.812853e-09	5.685267e+01	2.519280e+02
1.710000e-06	4.063201e-06	3.812207e-09	5.675959e+01	2.517989e+02
1.720000e-06	4.055090e-06	3.807729e-09	5.664629e+01	2.516457e+02
1.730000e-06	4.045847e-06	3.804537e-09	5.651718e+01	2.514691e+02
1.740000e-06	4.035406e-06	3.824854e-09	5.637132e+01	2.512690e+02
1.750000e-06	4.023318e-06	3.780590e-09	5.620246e+01	2.510448e+02
1.760000e-06	4.008953e-06	3.743484e-09	5.600179e+01	2.507955e+02
1.770000e-06	3.992331e-06	3.723866e-09	5.576960e+01	2.505196e+02
1.780000e-06	3.974406e-06	3.803665e-09	5.551920e+01	2.502156e+02
1.790000e-06	3.956051e-06	3.913915e-09	5.526280e+01	2.498821e+02
1.800000e-06	3.936893e-06	3.758014e-09	5.499517e+01	2.495179e+02
1.810000e-06	3.915867e-06	3.688678e-09	5.470145e+01	2.491219e+02
1.820000e-06	3.893147e-06	3.818087e-09	5.438408e+01	2.486936e+02
1.830000e-06	3.869558e-06	3.760092e-09	5.405456e+01	2.482326e+02
1.840000e-06	3.844621e-06	3.783736e-09	5.370620e+01	2.477389e+02
1.850000e-06	3.817978e-06	3.852833e-09	5.333402e+01	2.472120e+02
1.860000e-06	3.790258e-06	3.652214e-09	5.294680e+01	2.466513e+02
1.870000e-06	3.761402e-06	3.698046e-09	5.254371e+01	2.460558e+02
1.880000e-06	3.730938e-06	3.885629e-09	5.211815e+01	2.454235e+02
1.890000e-06	3.698902e-06	3.711332e-09	5.167064e+01	2.447518e+02
1.900000e-06	3.665580e-06	3.638893e-09	5.120515e+01	2.440375e+02
1.910000e-06	3.631233e-06	3.777762e-09	5.072535e+01	2.432764e+02
1.920000e-06	3.595808e-06	3.739963e-09	5.023050e+01	2.424643e+02
1.930000e-06	3.559060e-06	3.734458e-09	4.971716e+01	2.415970e+02
1.940000e-06	3.521023e-06	3.667343e-09	4.918581e+01	2.406703e+02
1.950000e-06	3.481551e-06	3.630075e-09	4.863442e+01	2.396812e+02
1.960000e-06	3.440534e-06	3.705502e-09	4.806144e+01	2.386275e+02
1.970000e-06	3.398413e-06	3.607970e-09	4.747305e+01	2.375083e+02
1.980000e-06	3.355346e-06	3.637908e-09	4.687144e+01	2.363242e+02
1.990000e-06	3.311190e-06	3.648741e-09	4.625461e+01	2.350770e+02
2.000000e-06	3.265994e-06	3.497544e-09	4.562326e+01	2.337697e+02
2.010000e-06	3.219662e-06	3.568981e-09	4.497604e+01	2.324062e+02
2.020000e-06	3.172051e-06	3.610769e-09	4.431096e+01	2.309904e+02
2.030000e-06	3.123043e-06	3.499966e-09	4.362635e+01	2.295265e+02
2.040000e-06	3.072905e-06	3.444141e-09	4.292596e+01	2.280178e+02
2.050000e-06	3.021911e-06	3.467102e-09	4.221362e+01	2.264670e+02
2.060000e-06	2.969738e-06	3.517571e-09	4.148481e+01	2.248753e+02
2.070000e-06	2.916170e-06	3.405694e-09	4.073651e+01	2.232427e+02
2.080000e-06	2.861205e-06	3.354819e-09	3.996870e+01	2.215676e+02
2.090000e-06	2.805082e-06	3.398433e-09	3.918470e+01	2.198475e+02
2.100000e-06	2.748025e-06	3.338436e-09	3.838766e+01	2.180789e+02
2.110000e-06	2.690014e-06	3.311168e-09	3.757729e+01	2.162576e+02
2.120000e-06	2.631168e-06	3.281066e-09	3.675526e+01	2.143792e+02
2.130000e-06	2.571519e-06	3.269519e-09	3.592201e+01	2.124397e+02
2.140000e-06	2.511081e-06	3.226525e-09	3.507775e+01	2.104351e+02
2.150000e-06	2.449777e-06	3.175420e-09	3.422139e+01	2.083622e+02
2.160000e-06	2.387266e-06	3.198572e-09	3.334816e+01	2.062184e+02
2.170000e-06	2.323644e-06	3.138578e-09	3.245941e+01	2.040017e+02
2.180000e-06	2.259324e-06	3.080541e-09	3.156090e+01	2.017102e+02
2.190000e-06	2.194313e-06	3.063037e-09	3.065276e+01	1.993425e+02
2.200000e-06	2.128493e-06	3.032953e-09	2.973331e+01	1.968968e+02
2.210000e-06	2.061930e-06	2.988790e-09	2.880347e+01	1.943709e+02
2.220000e-06	1.994665e-06	2.931717e-09	2.786384e+01	1.917620e+02
2.230000e-06	1.926755e-06	2.918218e-09	2.691518e+01	1.890667e+02
2.240000e-06	1.858312e-06	2.871117e-09	2.595910e+01	1.862807e+02
2.250000e-06	1.789301e-06	2.801950e-09	2.499506e+01	1.833987e+02
2.260000e-06	1.719516e-06	2.777308e-09	2.402023e+01	1.804152e+02
2.270000e-06	1.648721e-06	2.739439e-09	2.303128e+01	1.773239e+02
2.280000e-06	1.577033e-06	2.674634e-09	2.202986e+01	1.741183e+02
2.290000e-06	1.504876e-06	2.609410e-09	2.102189e+01	1.707918e+02
2.300000e-06	1.432415e-06	2.576553e-09	2.000966e+01	1.673375e+02
2.310000e-06	1.359604e-06	2.532828e-09	1.899256e+01	1.637487e+02
2.320000e-06	1.286315e-06	2.456549e-09	1.796876e+01	1.600184e+02
2.330000e-06	1.212524e-06	2.398767e-09	1.693797e+01	1.561391e+02
2.340000e-06	1.138315e-06	2.344164e-09	1.590134e+01	1.521030e+02
2.350000e-06	1.063689e-06	2.283549e-09	1.485886e+01	1.479015e+02
2.360000e-06	9.887039e-07	2.217337e-09	1.381138e+01	1.435248e+02
2.370000e-06	9.133826e-07	2.151451e-09	1.275921e+01	1.389623e+02
2.380000e-06	8.376871e-07	2.073987e-09	1.170180e+01	1.342019e+02
2.390000e-06	7.617144e-07	1.985002e-09	1.064053e+01	1.292307e+02
2.400000e-06	6.855258e-07	1.916952e-09	9.576234e+00	1.240349e+02
2.410000e-06	6.091331e-07	1.841521e-09	8.509090e+00	1.186002e+02
2.420000e-06	5.325360e-07	1.742822e-09	7.439092e+00	1.129126e+02
2.430000e-06	4.557128e-07	1.643086e-09	6.365935e+00	1.069585e+02
2.440000e-06	3.787122e-07	1.560146e-09	5.290299e+00	1.007257e+02
2.450000e-06	3.015371e-07	1.471936e-09	4.212226e+00	9.420415e+01
2.460000e-06	2.241485e-07	1.357909e-09	3.131171e+00	8.738615e+01
2.470000e-06	1.465822e-07	1.243259e-09	2.047633e+00	8.026734e+01
2.480000e-06	6.885849e-08	1.136832e-09	9.618968e-01	7.284694e+01
2.490000e-06	-8.880573e-09	1.022443e-09	-1.240543e-01	6.512822e+01
2.500000e-06	-8.646134e-08	8.964481e-10	-1.207794e+00	5.711872e+01
2.510000e-06	-1.639972e-07	7.699651e-10	-2.290906e+00	4.883046e+01
2.520000e-06	-2.414602e-07	6.384112e-10	-3.373001e+00	4.028002e+01
2.530000e-06	-3.187115e-07	5.011558e-10	-4.452139e+00	3.148850e+01
2.540000e-06	-3.956873e-07	3.677148e-10	-5.527428e+00	2.248152e+01
2.550000e-06	-4.724458e-07	2.335421e-10	-6.599681e+00	1.328898e+01
2.560000e-06	-5.490198e-07	8.938974e-11	-7.669358e+00	3.944883e+00
2.570000e-06	-6.253392e-07	-5.858214e-11	-8.735477e+00	-5.513065e+00
2.580000e-06	-7.014236e-07	-1.988977e-10	-9.798313e+00	-1.504390e+01
2.590000e-06	-7.772821e-07	-3.399925e-10	-1.085800e+01	-2.460402e+01
2.600000e-06	-8.528830e-07	-4.889436e-10	-1.191408e+01	-3.414796e+01
2.610000e-06	-9.281559e-07	-6.378213e-10	-1.296558e+01	-4.362933e+01
2.620000e-06	-1.003040e-06	-7.794708e-10	-1.401165e+01	-5.300185e+01
2.630000e-06	-1.077590e-06	-9.170420e-10	-1.505305e+01	-6.222053e+01
2.640000e-06	-1.151837e-06	-1.053705e-09	-1.609022e+01	-7.124289e+01
2.650000e-06	-1.225696e-06	-1.186577e-09	-1.712197e+01	-8.003017e+01
2.660000e-06	-1.299098e-06	-1.317286e-09	-1.814733e+01	-8.854841e+01
2.670000e-06	-1.371992e-06	-1.446290e-09	-1.916560e+01	-9.676946e+01
2.680000e-06	-1.444430e-06	-1.567703e-09	-2.017750e+01	-1.046716e+02
2.690000e-06	-1.516522e-06	-1.682879e-09	-2.118457e+01	-1.122400e+02
2.700000e-06	-1.588232e-06	-1.797989e-09	-2.218630e+01	-1.194667e+02
2.710000e-06	-1.659340e-06	-1.908068e-09	-2.317962e+01	-1.263505e+02
2.720000e-06	-1.729602e-06	-2.006477e-09	-2.416112e+01	-1.328961e+02
2.730000e-06	-1.798933e-06	-2.096791e-09	-2.512962e+01	-1.391134e+02
2.740000e-06	-1.867529e-06	-2.187265e-09	-2.608785e+01	-1.450163e+02
2.750000e-06	-1.935574e-06	-2.276511e-09	-2.703838e+01	-1.506214e+02
2.760000e-06	-2.003057e-06	-2.358198e-09	-2.798106e+01	-1.559469e+02
2.770000e-06	-2.069889e-06	-2.433711e-09	-2.891465e+01	-1.610116e+02
2.780000e-06	-2.136043e-06	-2.507950e-09	-2.983877e+01	-1.658333e+02
2.790000e-06	-2.201528e-06	-2.580483e-09	-3.075354e+01	-1.704286e+02
2.800000e-06	-2.266299e-06	-2.648314e-09	-3.165834e+01	-1.748123e+02
2.810000e-06	-2.330351e-06	-2.713273e-09	-3.255309e+01	-1.789968e+02
2.820000e-06	-2.393534e-06	-2.775146e-09	-3.343571e+01	-1.829924e+02
2.830000e-06	-2.455615e-06	-2.833439e-09	-3.430293e+01	-1.868076e+02
2.840000e-06	-2.516667e-06	-2.890292e-09	-3.515577e+01	-1.904490e+02
2.850000e-06	-2.576888e-06	-2.945471e-09	-3.599702e+01	-1.939224e+02
2.860000e-06	-2.636270e-06	-2.997785e-09	-3.682653e+01	-1.972327e+02
2.870000e-06	-2.694695e-06	-3.046255e-09	-3.764268e+01	-2.003847e+02
2.880000e-06	-2.752140e-06	-3.092474e-09	-3.844515e+01	-2.033832e+02
2.890000e-06	-2.808761e-06	-3.137916e-09	-3.923610e+01	-2.062333e+02
2.900000e-06	-2.864495e-06	-3.182013e-09	-4.001465e+01	-2.089406e+02
2.910000e-06	-2.919009e-06	-3.224391e-09	-4.077616e+01	-2.115110e+02
2.920000e-06	-2.972128e-06	-3.263147e-09	-4.151819e+01	-2.139507e+02
2.930000e-06	-3.023995e-06	-3.298437e-09	-4.224274e+01	-2.162660e+02
2.940000e-06	-3.074692e-06	-3.333051e-09	-4.295093e+01	-2.184630e+02
