# Temperatura_=_20.0
# Concentracion g/m^3_=_9000.0
# C_Vs_to_Am_M_A/Vsm_=_65563218390.804596
# pendiente_HvsI_1/m_=_3716.3
# ordenada_HvsI_A/m_=_1297.0
# frecuencia_Hz_=_300795.5965720569

Tiempo_(s)	Campo_(V.s)	Magnetizacion_(V.s)	Campo_(kA/m)	Magnetizacion_(A/m)
0.000000e+00	-4.061632e-06	-3.828774e-09	-5.685028e+01	-2.508565e+02
1.000000e-08	-4.060014e-06	-3.829491e-09	-5.682763e+01	-2.508467e+02
2.000000e-08	-4.056864e-06	-3.828716e-09	-5.678354e+01	-2.508055e+02
3.000000e-08	-4.052497e-06	-3.828864e-09	-5.672242e+01	-2.507347e+02
4.000000e-08	-4.046927e-06	-3.827987e-09	-5.664445e+01	-2.506353e+02
5.000000e-08	-4.040121e-06	-3.826635e-09	-5.654918e+01	-2.505076e+02
6.000000e-08	-4.032137e-06	-3.823226e-09	-5.643744e+01	-2.503510e+02
7.000000e-08	-4.022639e-06	-3.810077e-09	-5.630450e+01	-2.501643e+02
8.000000e-08	-4.011343e-06	-3.817386e-09	-5.614638e+01	-2.499461e+02
9.000000e-08	-3.998241e-06	-3.858858e-09	-5.596299e+01	-2.496949e+02
1.000000e-07	-3.982981e-06	-3.874757e-09	-5.574941e+01	-2.494097e+02
1.100000e-07	-3.965851e-06	-3.848908e-09	-5.550964e+01	-2.490900e+02
1.200000e-07	-3.947540e-06	-3.732450e-09	-5.525334e+01	-2.487362e+02
1.300000e-07	-3.928325e-06	-3.714283e-09	-5.498440e+01	-2.483495e+02
1.400000e-07	-3.908189e-06	-3.854078e-09	-5.470255e+01	-2.479321e+02
1.500000e-07	-3.887054e-06	-3.821444e-09	-5.440673e+01	-2.474865e+02
1.600000e-07	-3.864921e-06	-3.751746e-09	-5.409694e+01	-2.470152e+02
1.700000e-07	-3.841157e-06	-3.754858e-09	-5.376431e+01	-2.465207e+02
1.800000e-07	-3.815463e-06	-3.699619e-09	-5.340468e+01	-2.460044e+02
1.900000e-07	-3.788608e-06	-3.759395e-09	-5.302879e+01	-2.454666e+02
2.000000e-07	-3.760786e-06	-3.841082e-09	-5.263937e+01	-2.449060e+02
2.100000e-07	-3.731474e-06	-3.679610e-09	-5.222909e+01	-2.443197e+02
2.200000e-07	-3.700844e-06	-3.626672e-09	-5.180036e+01	-2.437032e+02
2.300000e-07	-3.669211e-06	-3.776695e-09	-5.135760e+01	-2.430506e+02
2.400000e-07	-3.636203e-06	-3.777409e-09	-5.089559e+01	-2.423550e+02
2.500000e-07	-3.601672e-06	-3.672154e-09	-5.041226e+01	-2.416093e+02
2.600000e-07	-3.565789e-06	-3.602757e-09	-4.991001e+01	-2.408066e+02
2.700000e-07	-3.528695e-06	-3.645514e-09	-4.939081e+01	-2.399410e+02
2.800000e-07	-3.490484e-06	-3.707625e-09	-4.885597e+01	-2.390081e+02
2.900000e-07	-3.451134e-06	-3.631992e-09	-4.830520e+01	-2.380053e+02
3.000000e-07	-3.410531e-06	-3.581447e-09	-4.773689e+01	-2.369324e+02
3.100000e-07	-3.368417e-06	-3.604698e-09	-4.714741e+01	-2.357908e+02
3.200000e-07	-3.324882e-06	-3.549833e-09	-4.653806e+01	-2.345841e+02
3.300000e-07	-3.280309e-06	-3.560723e-09	-4.591418e+01	-2.333171e+02
3.400000e-07	-3.234669e-06	-3.587649e-09	-4.527535e+01	-2.319954e+02
3.500000e-07	-3.187812e-06	-3.482425e-09	-4.461950e+01	-2.306247e+02
3.600000e-07	-3.139805e-06	-3.440919e-09	-4.394755e+01	-2.292103e+02
3.700000e-07	-3.090509e-06	-3.520151e-09	-4.325756e+01	-2.277562e+02
3.800000e-07	-3.039669e-06	-3.501487e-09	-4.254596e+01	-2.262651e+02
3.900000e-07	-2.987349e-06	-3.382496e-09	-4.181364e+01	-2.247380e+02
4.000000e-07	-2.933950e-06	-3.379713e-09	-4.106623e+01	-2.231738e+02
4.100000e-07	-2.879714e-06	-3.418082e-09	-4.030709e+01	-2.215704e+02
4.200000e-07	-2.824582e-06	-3.366036e-09	-3.953540e+01	-2.199240e+02
4.300000e-07	-2.768540e-06	-3.306404e-09	-3.875100e+01	-2.182303e+02
4.400000e-07	-2.711271e-06	-3.300066e-09	-3.794941e+01	-2.164845e+02
4.500000e-07	-2.652666e-06	-3.285815e-09	-3.712912e+01	-2.146821e+02
4.600000e-07	-2.593175e-06	-3.243604e-09	-3.629643e+01	-2.128191e+02
4.700000e-07	-2.532902e-06	-3.211647e-09	-3.545279e+01	-2.108920e+02
4.800000e-07	-2.471741e-06	-3.189457e-09	-3.459673e+01	-2.088984e+02
4.900000e-07	-2.409721e-06	-3.150611e-09	-3.372864e+01	-2.068361e+02
5.000000e-07	-2.346916e-06	-3.114253e-09	-3.284957e+01	-2.047039e+02
5.100000e-07	-2.283468e-06	-3.094853e-09	-3.196148e+01	-2.025004e+02
5.200000e-07	-2.219204e-06	-3.052247e-09	-3.106198e+01	-2.002240e+02
5.300000e-07	-2.153690e-06	-3.009562e-09	-3.014500e+01	-1.978727e+02
5.400000e-07	-2.087086e-06	-2.984267e-09	-2.921275e+01	-1.954436e+02
5.500000e-07	-2.019950e-06	-2.957130e-09	-2.827305e+01	-1.929327e+02
5.600000e-07	-1.952396e-06	-2.904033e-09	-2.732751e+01	-1.903354e+02
5.700000e-07	-1.884195e-06	-2.850617e-09	-2.637290e+01	-1.876457e+02
5.800000e-07	-1.815314e-06	-2.825848e-09	-2.540877e+01	-1.848572e+02
5.900000e-07	-1.745875e-06	-2.789214e-09	-2.443685e+01	-1.819632e+02
6.000000e-07	-1.675783e-06	-2.726912e-09	-2.345578e+01	-1.789566e+02
6.100000e-07	-1.605016e-06	-2.669857e-09	-2.246526e+01	-1.758306e+02
6.200000e-07	-1.533775e-06	-2.638004e-09	-2.146810e+01	-1.725788e+02
6.300000e-07	-1.462214e-06	-2.592074e-09	-2.046647e+01	-1.691952e+02
6.400000e-07	-1.390304e-06	-2.523959e-09	-1.945996e+01	-1.656742e+02
6.500000e-07	-1.317810e-06	-2.463395e-09	-1.844526e+01	-1.620104e+02
6.600000e-07	-1.244508e-06	-2.413957e-09	-1.741926e+01	-1.581985e+02
6.700000e-07	-1.170440e-06	-2.359211e-09	-1.638254e+01	-1.542326e+02
6.800000e-07	-1.095796e-06	-2.293043e-09	-1.533775e+01	-1.501064e+02
6.900000e-07	-1.020695e-06	-2.223142e-09	-1.428657e+01	-1.458122e+02
7.000000e-07	-9.452107e-07	-2.149567e-09	-1.323003e+01	-1.413411e+02
7.100000e-07	-8.694694e-07	-2.082058e-09	-1.216988e+01	-1.366826e+02
7.200000e-07	-7.935093e-07	-2.016584e-09	-1.110667e+01	-1.318250e+02
7.300000e-07	-7.172894e-07	-1.938266e-09	-1.003983e+01	-1.267550e+02
7.400000e-07	-6.407805e-07	-1.845592e-09	-8.968945e+00	-1.214586e+02
7.500000e-07	-5.639329e-07	-1.761314e-09	-7.893315e+00	-1.159211e+02
7.600000e-07	-4.868437e-07	-1.686532e-09	-6.814305e+00	-1.101281e+02
7.700000e-07	-4.096397e-07	-1.595640e-09	-5.733689e+00	-1.040658e+02
7.800000e-07	-3.323258e-07	-1.486284e-09	-4.651533e+00	-9.772170e+01
7.900000e-07	-2.548644e-07	-1.379448e-09	-3.567313e+00	-9.108571e+01
8.000000e-07	-1.773435e-07	-1.283627e-09	-2.482260e+00	-8.415024e+01
8.100000e-07	-9.982957e-08	-1.177794e-09	-1.397305e+00	-7.691109e+01
8.200000e-07	-2.226660e-08	-1.056253e-09	-3.116635e-01	-6.936783e+01
8.300000e-07	5.533612e-08	-9.307634e-10	7.745344e-01	-6.152430e+01
8.400000e-07	1.329179e-07	-8.089403e-10	1.860440e+00	-5.338891e+01
8.500000e-07	2.104726e-07	-6.850834e-10	2.945965e+00	-4.497489e+01
8.600000e-07	2.879383e-07	-5.535749e-10	4.030245e+00	-3.630050e+01
8.700000e-07	3.652510e-07	-4.131232e-10	5.112383e+00	-2.738900e+01
8.800000e-07	4.424740e-07	-2.663448e-10	6.193267e+00	-1.826870e+01
8.900000e-07	5.195894e-07	-1.247217e-10	7.272644e+00	-8.972692e+00
9.000000e-07	5.964465e-07	1.387946e-11	8.348405e+00	4.614840e-01
9.100000e-07	6.730010e-07	1.600946e-10	9.419932e+00	9.992344e+00
9.200000e-07	7.492935e-07	3.136617e-10	1.048779e+01	1.957518e+01
9.300000e-07	8.253225e-07	4.626590e-10	1.155196e+01	2.916297e+01
9.400000e-07	9.010936e-07	6.037094e-10	1.261252e+01	3.870742e+01
9.500000e-07	9.766135e-07	7.454260e-10	1.366957e+01	4.816017e+01
9.600000e-07	1.051880e-06	8.899152e-10	1.472307e+01	5.747411e+01
9.700000e-07	1.126742e-06	1.031503e-09	1.577090e+01	6.660467e+01
9.800000e-07	1.201046e-06	1.165789e-09	1.681093e+01	7.551108e+01
9.900000e-07	1.274634e-06	1.296874e-09	1.784093e+01	8.415753e+01
1.000000e-06	1.347447e-06	1.425309e-09	1.886009e+01	9.251408e+01
1.010000e-06	1.419611e-06	1.547800e-09	1.987016e+01	1.005573e+02
1.020000e-06	1.491299e-06	1.666076e-09	2.087357e+01	1.082708e+02
1.030000e-06	1.562638e-06	1.780472e-09	2.187209e+01	1.156449e+02
1.040000e-06	1.633543e-06	1.885351e-09	2.286455e+01	1.226765e+02
1.050000e-06	1.703885e-06	1.983541e-09	2.384912e+01	1.293689e+02
1.060000e-06	1.773626e-06	2.080669e-09	2.482528e+01	1.357300e+02
1.070000e-06	1.842704e-06	2.173474e-09	2.579215e+01	1.417721e+02
1.080000e-06	1.911076e-06	2.259860e-09	2.674915e+01	1.475106e+02
1.090000e-06	1.978863e-06	2.340190e-09	2.769795e+01	1.529624e+02
1.100000e-06	2.046155e-06	2.417717e-09	2.863983e+01	1.581455e+02
1.110000e-06	2.112823e-06	2.492465e-09	2.957299e+01	1.630775e+02
1.120000e-06	2.178544e-06	2.564443e-09	3.049287e+01	1.677752e+02
1.130000e-06	2.243105e-06	2.632957e-09	3.139653e+01	1.722540e+02
1.140000e-06	2.306811e-06	2.695693e-09	3.228821e+01	1.765274e+02
1.150000e-06	2.369947e-06	2.755100e-09	3.317192e+01	1.806068e+02
1.160000e-06	2.432351e-06	2.812705e-09	3.404539e+01	1.845021e+02
1.170000e-06	2.493953e-06	2.869145e-09	3.490763e+01	1.882212e+02
1.180000e-06	2.554740e-06	2.920889e-09	3.575846e+01	1.917708e+02
1.190000e-06	2.614712e-06	2.969070e-09	3.659787e+01	1.951564e+02
1.200000e-06	2.673966e-06	3.017189e-09	3.742725e+01	1.983828e+02
1.210000e-06	2.732239e-06	3.064234e-09	3.824289e+01	2.014544e+02
1.220000e-06	2.789178e-06	3.108738e-09	3.903986e+01	2.043755e+02
1.230000e-06	2.845005e-06	3.148979e-09	3.982127e+01	2.071506e+02
1.240000e-06	2.899959e-06	3.186089e-09	4.059045e+01	2.097844e+02
1.250000e-06	2.953978e-06	3.222435e-09	4.134655e+01	2.122820e+02
1.260000e-06	3.006973e-06	3.256699e-09	4.208831e+01	2.146489e+02
1.270000e-06	3.058840e-06	3.287336e-09	4.281430e+01	2.168911e+02
1.280000e-06	3.109353e-06	3.317894e-09	4.352132e+01	2.190149e+02
1.290000e-06	3.158301e-06	3.347151e-09	4.420644e+01	2.210268e+02
1.300000e-06	3.205939e-06	3.374131e-09	4.487323e+01	2.229336e+02
1.310000e-06	3.252516e-06	3.400588e-09	4.552516e+01	2.247420e+02
1.320000e-06	3.297988e-06	3.427777e-09	4.616162e+01	2.264588e+02
1.330000e-06	3.342361e-06	3.452749e-09	4.678271e+01	2.280902e+02
1.340000e-06	3.385764e-06	3.473601e-09	4.739022e+01	2.296421e+02
1.350000e-06	3.427937e-06	3.495262e-09	4.798051e+01	2.311199e+02
1.360000e-06	3.468565e-06	3.518045e-09	4.854918e+01	2.325283e+02
1.370000e-06	3.507954e-06	3.538882e-09	4.910050e+01	2.338711e+02
1.380000e-06	3.546238e-06	3.555830e-09	4.963636e+01	2.351516e+02
1.390000e-06	3.583300e-06	3.571634e-09	5.015511e+01	2.363724e+02
1.400000e-06	3.619270e-06	3.589393e-09	5.065859e+01	2.375353e+02
1.410000e-06	3.654108e-06	3.608498e-09	5.114621e+01	2.386419e+02
1.420000e-06	3.687413e-06	3.625504e-09	5.161237e+01	2.396933e+02
1.430000e-06	3.719235e-06	3.639219e-09	5.205779e+01	2.406908e+02
1.440000e-06	3.749892e-06	3.654189e-09	5.248688e+01	2.416357e+02
1.450000e-06	3.779332e-06	3.670161e-09	5.289895e+01	2.425292e+02
1.460000e-06	3.807551e-06	3.683605e-09	5.329393e+01	2.433733e+02
1.470000e-06	3.834528e-06	3.693981e-09	5.367153e+01	2.441701e+02
1.480000e-06	3.859905e-06	3.705379e-09	5.402672e+01	2.449217e+02
1.490000e-06	3.883704e-06	3.718948e-09	5.435984e+01	2.456306e+02
1.500000e-06	3.906195e-06	3.731803e-09	5.467465e+01	2.462991e+02
1.510000e-06	3.927362e-06	3.742023e-09	5.497091e+01	2.469292e+02
1.520000e-06	3.947353e-06	3.749909e-09	5.525073e+01	2.475226e+02
1.530000e-06	3.966156e-06	3.759001e-09	5.551390e+01	2.480801e+02
1.540000e-06	3.983531e-06	3.769556e-09	5.575711e+01	2.486019e+02
1.550000e-06	3.999424e-06	3.778475e-09	5.597956e+01	2.490875e+02
1.560000e-06	4.013783e-06	3.784888e-09	5.618054e+01	2.495358e+02
1.570000e-06	4.026635e-06	3.790677e-09	5.636043e+01	2.499452e+02
1.580000e-06	4.038048e-06	3.796963e-09	5.652018e+01	2.503139e+02
1.590000e-06	4.047757e-06	3.803493e-09	5.665608e+01	2.506402e+02
1.600000e-06	4.055783e-06	3.809148e-09	5.676842e+01	2.509228e+02
1.610000e-06	4.062395e-06	3.813876e-09	5.686096e+01	2.511609e+02
1.620000e-06	4.067589e-06	3.818590e-09	5.693366e+01	2.513545e+02
1.630000e-06	4.071556e-06	3.822508e-09	5.698918e+01	2.515046e+02
1.640000e-06	4.074260e-06	3.826249e-09	5.702704e+01	2.516128e+02
1.650000e-06	4.075294e-06	3.829058e-09	5.704150e+01	2.516813e+02
1.660000e-06	4.074818e-06	3.829797e-09	5.703484e+01	2.517128e+02
1.670000e-06	4.073101e-06	3.826837e-09	5.701080e+01	2.517101e+02
1.680000e-06	4.070107e-06	3.823592e-09	5.696890e+01	2.516754e+02
1.690000e-06	4.066009e-06	3.820223e-09	5.691155e+01	2.516109e+02
1.700000e-06	4.060663e-06	3.818482e-09	5.683671e+01	2.515177e+02
1.710000e-06	4.053741e-06	3.817722e-09	5.673982e+01	2.513962e+02
1.720000e-06	4.045453e-06	3.818482e-09	5.662383e+01	2.512459e+02
1.730000e-06	4.035996e-06	3.830594e-09	5.649146e+01	2.510658e+02
1.740000e-06	4.025348e-06	3.798044e-09	5.634242e+01	2.508545e+02
1.750000e-06	4.012966e-06	3.746207e-09	5.616911e+01	2.506105e+02
1.760000e-06	3.998096e-06	3.726496e-09	5.596097e+01	2.503327e+02
1.770000e-06	3.981046e-06	3.782297e-09	5.572232e+01	2.500204e+02
1.780000e-06	3.962996e-06	3.891506e-09	5.546967e+01	2.496739e+02
1.790000e-06	3.944738e-06	3.814621e-09	5.521412e+01	2.492942e+02
1.800000e-06	3.925457e-06	3.703000e-09	5.494425e+01	2.488832e+02
1.810000e-06	3.903936e-06	3.784436e-09	5.464302e+01	2.484434e+02
1.820000e-06	3.880964e-06	3.764763e-09	5.432148e+01	2.479775e+02
1.830000e-06	3.857297e-06	3.784694e-09	5.399023e+01	2.474878e+02
1.840000e-06	3.832010e-06	3.849328e-09	5.363628e+01	2.469762e+02
1.850000e-06	3.805131e-06	3.679431e-09	5.326006e+01	2.464431e+02
1.860000e-06	3.777355e-06	3.680111e-09	5.287128e+01	2.458876e+02
1.870000e-06	3.748330e-06	3.845844e-09	5.246502e+01	2.453072e+02
1.880000e-06	3.717619e-06	3.729773e-09	5.203516e+01	2.446977e+02
1.890000e-06	3.685388e-06	3.625674e-09	5.158403e+01	2.440534e+02
1.900000e-06	3.651895e-06	3.739279e-09	5.111523e+01	2.433677e+02
1.910000e-06	3.617382e-06	3.761411e-09	5.063215e+01	2.426333e+02
1.920000e-06	3.581683e-06	3.734102e-09	5.013247e+01	2.418434e+02
1.930000e-06	3.544744e-06	3.652720e-09	4.961544e+01	2.409918e+02
1.940000e-06	3.506683e-06	3.635762e-09	4.908270e+01	2.400736e+02
1.950000e-06	3.467000e-06	3.712784e-09	4.852727e+01	2.390860e+02
1.960000e-06	3.425799e-06	3.602511e-09	4.795058e+01	2.380281e+02
1.970000e-06	3.383628e-06	3.607230e-09	4.736032e+01	2.369010e+02
1.980000e-06	3.340431e-06	3.679553e-09	4.675570e+01	2.357079e+02
1.990000e-06	3.296134e-06	3.514175e-09	4.613567e+01	2.344534e+02
2.000000e-06	3.250798e-06	3.535663e-09	4.550110e+01	2.331430e+02
2.010000e-06	3.204367e-06	3.631893e-09	4.485122e+01	2.317824e+02
2.020000e-06	3.156611e-06	3.516251e-09	4.418278e+01	2.303770e+02
2.030000e-06	3.107436e-06	3.442223e-09	4.349449e+01	2.289312e+02
2.040000e-06	3.057250e-06	3.472079e-09	4.279204e+01	2.274480e+02
2.050000e-06	3.006110e-06	3.519482e-09	4.207624e+01	2.259286e+02
2.060000e-06	2.953770e-06	3.426411e-09	4.134364e+01	2.243726e+02
2.070000e-06	2.900046e-06	3.358728e-09	4.059166e+01	2.227779e+02
2.080000e-06	2.844875e-06	3.413320e-09	3.981945e+01	2.211411e+02
2.090000e-06	2.788636e-06	3.369662e-09	3.903228e+01	2.194579e+02
2.100000e-06	2.731466e-06	3.312138e-09	3.823207e+01	2.177238e+02
2.110000e-06	2.673390e-06	3.300090e-09	3.741919e+01	2.159340e+02
2.120000e-06	2.614521e-06	3.295501e-09	3.659521e+01	2.140843e+02
2.130000e-06	2.554817e-06	3.249613e-09	3.575954e+01	2.121712e+02
2.140000e-06	2.494371e-06	3.189257e-09	3.491347e+01	2.101921e+02
2.150000e-06	2.433004e-06	3.211488e-09	3.405453e+01	2.081447e+02
2.160000e-06	2.370422e-06	3.176688e-09	3.317858e+01	2.060276e+02
2.170000e-06	2.306775e-06	3.102758e-09	3.228772e+01	2.038395e+02
2.180000e-06	2.242413e-06	3.088691e-09	3.138685e+01	2.015790e+02
2.190000e-06	2.177437e-06	3.059999e-09	3.047737e+01	1.992440e+02
2.200000e-06	2.111661e-06	3.015232e-09	2.955671e+01	1.968319e+02
2.210000e-06	2.045079e-06	2.969182e-09	2.862478e+01	1.943390e+02
2.220000e-06	1.977833e-06	2.952022e-09	2.768355e+01	1.917606e+02
2.230000e-06	1.909980e-06	2.912487e-09	2.673381e+01	1.890913e+02
2.240000e-06	1.841577e-06	2.836271e-09	2.577637e+01	1.863246e+02
2.250000e-06	1.772546e-06	2.814203e-09	2.481016e+01	1.834539e+02
2.260000e-06	1.702726e-06	2.788031e-09	2.383290e+01	1.804720e+02
2.270000e-06	1.631891e-06	2.721061e-09	2.284143e+01	1.773722e+02
2.280000e-06	1.560192e-06	2.649138e-09	2.183785e+01	1.741479e+02
2.290000e-06	1.488080e-06	2.615435e-09	2.082852e+01	1.707931e+02
2.300000e-06	1.415629e-06	2.585519e-09	1.981443e+01	1.673020e+02
2.310000e-06	1.342783e-06	2.512626e-09	1.879480e+01	1.636693e+02
2.320000e-06	1.269501e-06	2.448738e-09	1.776908e+01	1.598897e+02
2.330000e-06	1.195771e-06	2.394951e-09	1.673710e+01	1.559574e+02
2.340000e-06	1.121569e-06	2.336760e-09	1.569849e+01	1.518662e+02
2.350000e-06	1.046984e-06	2.274071e-09	1.465453e+01	1.476087e+02
2.360000e-06	9.721111e-07	2.210587e-09	1.360655e+01	1.431763e+02
2.370000e-06	8.968635e-07	2.135518e-09	1.255331e+01	1.385590e+02
2.380000e-06	8.212786e-07	2.046611e-09	1.149536e+01	1.337452e+02
2.390000e-06	7.454546e-07	1.977791e-09	1.043406e+01	1.287220e+02
2.400000e-06	6.693737e-07	1.911362e-09	9.369161e+00	1.234753e+02
2.410000e-06	5.930134e-07	1.818325e-09	8.300353e+00	1.179908e+02
2.420000e-06	5.164353e-07	1.718074e-09	7.228495e+00	1.122538e+02
2.430000e-06	4.397021e-07	1.636225e-09	6.154469e+00	1.062503e+02
2.440000e-06	3.627964e-07	1.555098e-09	5.078026e+00	9.996757e+01
2.450000e-06	2.856978e-07	1.447869e-09	3.998885e+00	9.339492e+01
2.460000e-06	2.084157e-07	1.331542e-09	2.917175e+00	8.652415e+01
2.470000e-06	1.309920e-07	1.226532e-09	1.833483e+00	7.935029e+01
2.480000e-06	5.343194e-08	1.118532e-09	7.478819e-01	7.187207e+01
2.490000e-06	-2.409859e-08	9.984835e-10	-3.373056e-01	6.409238e+01
2.500000e-06	-1.015031e-07	8.753061e-10	-1.420729e+00	5.601863e+01
2.510000e-06	-1.789334e-07	7.478617e-10	-2.504513e+00	4.766301e+01
2.520000e-06	-2.562911e-07	6.137395e-10	-3.587283e+00	3.904266e+01
2.530000e-06	-3.333733e-07	4.804942e-10	-4.666195e+00	3.017981e+01
2.540000e-06	-4.102018e-07	3.488935e-10	-5.741556e+00	2.110168e+01
2.550000e-06	-4.867883e-07	2.077516e-10	-6.813530e+00	1.184035e+01
2.560000e-06	-5.631635e-07	5.797625e-11	-7.882547e+00	2.432457e+00
2.570000e-06	-6.393626e-07	-8.705715e-11	-8.949098e+00	-7.081304e+00
2.580000e-06	-7.153298e-07	-2.266630e-10	-1.001240e+01	-1.665685e+01
2.590000e-06	-7.910430e-07	-3.737686e-10	-1.107215e+01	-2.624758e+01
2.600000e-06	-8.664904e-07	-5.249692e-10	-1.212818e+01	-3.580535e+01
2.610000e-06	-9.416103e-07	-6.671982e-10	-1.317963e+01	-4.528173e+01
2.620000e-06	-1.016325e-06	-8.051834e-10	-1.422540e+01	-5.462923e+01
2.630000e-06	-1.090675e-06	-9.438502e-10	-1.526607e+01	-6.380262e+01
2.640000e-06	-1.164716e-06	-1.080113e-09	-1.630242e+01	-7.276021e+01
2.650000e-06	-1.238379e-06	-1.212680e-09	-1.733347e+01	-8.146505e+01
2.660000e-06	-1.311543e-06	-1.344781e-09	-1.835754e+01	-8.988588e+01
2.670000e-06	-1.384202e-06	-1.470641e-09	-1.937454e+01	-9.799785e+01
2.680000e-06	-1.456496e-06	-1.587179e-09	-2.038644e+01	-1.057830e+02
2.690000e-06	-1.528513e-06	-1.702778e-09	-2.139445e+01	-1.132302e+02
2.700000e-06	-1.600097e-06	-1.817291e-09	-2.239640e+01	-1.203351e+02
2.710000e-06	-1.670971e-06	-1.922130e-09	-2.338842e+01	-1.270996e+02
2.720000e-06	-1.740886e-06	-2.015742e-09	-2.436702e+01	-1.335307e+02
2.730000e-06	-1.809875e-06	-2.106151e-09	-2.533264e+01	-1.396400e+02
2.740000e-06	-1.878248e-06	-2.196468e-09	-2.628966e+01	-1.454421e+02
2.750000e-06	-1.946123e-06	-2.284325e-09	-2.723970e+01	-1.509538e+02
2.760000e-06	-2.013398e-06	-2.366617e-09	-2.818134e+01	-1.561929e+02
2.770000e-06	-2.079981e-06	-2.442104e-09	-2.911330e+01	-1.611772e+02
2.780000e-06	-2.145876e-06	-2.514975e-09	-3.003563e+01	-1.659237e+02
2.790000e-06	-2.211037e-06	-2.587199e-09	-3.094767e+01	-1.704482e+02
2.800000e-06	-2.275506e-06	-2.655452e-09	-3.185004e+01	-1.747645e+02
2.810000e-06	-2.339355e-06	-2.717092e-09	-3.274372e+01	-1.788846e+02
2.820000e-06	-2.402234e-06	-2.775299e-09	-3.362384e+01	-1.828185e+02
2.830000e-06	-2.463872e-06	-2.833343e-09	-3.448659e+01	-1.865748e+02
2.840000e-06	-2.524533e-06	-2.890422e-09	-3.533565e+01	-1.901602e+02
2.850000e-06	-2.584536e-06	-2.943651e-09	-3.617550e+01	-1.935804e+02
2.860000e-06	-2.643690e-06	-2.994297e-09	-3.700349e+01	-1.968404e+02
2.870000e-06	-2.701836e-06	-3.044779e-09	-3.781734e+01	-1.999448e+02
2.880000e-06	-2.759005e-06	-3.092851e-09	-3.861753e+01	-2.028978e+02
2.890000e-06	-2.815326e-06	-3.138687e-09	-3.940585e+01	-2.057037e+02
2.900000e-06	-2.870757e-06	-3.180615e-09	-4.018171e+01	-2.083674e+02
2.910000e-06	-2.924831e-06	-3.219097e-09	-4.093859e+01	-2.108936e+02
2.920000e-06	-2.977484e-06	-3.253928e-09	-4.167557e+01	-2.132880e+02
2.930000e-06	-3.028982e-06	-3.287427e-09	-4.239638e+01	-2.155564e+02
2.940000e-06	-3.079353e-06	-3.322670e-09	-4.310141e+01	-2.177049e+02
