# Temperatura_=_20.0
# Concentracion g/m^3_=_9000.0
# C_Vs_to_Am_M_A/Vsm_=_65563218390.804596
# pendiente_HvsI_1/m_=_3716.3
# ordenada_HvsI_A/m_=_1297.0
# frecuencia_Hz_=_300792.9201540851

Tiempo_(s)	Campo_(V.s)	Magnetizacion_(V.s)	Campo_(kA/m)	Magnetizacion_(A/m)
0.000000e+00	-4.071572e-06	-3.798236e-09	-5.684526e+01	-2.486253e+02
1.000000e-08	-4.070058e-06	-3.801003e-09	-5.682412e+01	-2.486320e+02
2.000000e-08	-4.067009e-06	-3.800184e-09	-5.678155e+01	-2.486063e+02
3.000000e-08	-4.062768e-06	-3.799661e-09	-5.672234e+01	-2.485494e+02
4.000000e-08	-4.057332e-06	-3.798942e-09	-5.664645e+01	-2.484623e+02
5.000000e-08	-4.050623e-06	-3.796528e-09	-5.655278e+01	-2.483454e+02
6.000000e-08	-4.042726e-06	-3.792766e-09	-5.644253e+01	-2.481990e+02
7.000000e-08	-4.033378e-06	-3.785575e-09	-5.631201e+01	-2.480236e+02
8.000000e-08	-4.022270e-06	-3.781707e-09	-5.615693e+01	-2.478194e+02
9.000000e-08	-4.009339e-06	-3.805919e-09	-5.597639e+01	-2.475874e+02
1.000000e-07	-3.994341e-06	-3.833674e-09	-5.576699e+01	-2.473291e+02
1.100000e-07	-3.977500e-06	-3.828084e-09	-5.553187e+01	-2.470464e+02
1.200000e-07	-3.959409e-06	-3.763629e-09	-5.527929e+01	-2.467423e+02
1.300000e-07	-3.940360e-06	-3.679440e-09	-5.501334e+01	-2.464200e+02
1.400000e-07	-3.920389e-06	-3.743086e-09	-5.473451e+01	-2.460829e+02
1.500000e-07	-3.899363e-06	-3.824010e-09	-5.444096e+01	-2.457344e+02
1.600000e-07	-3.877242e-06	-3.745878e-09	-5.413211e+01	-2.453770e+02
1.700000e-07	-3.853639e-06	-3.714070e-09	-5.380258e+01	-2.450120e+02
1.800000e-07	-3.828179e-06	-3.707727e-09	-5.344712e+01	-2.446391e+02
1.900000e-07	-3.801389e-06	-3.674048e-09	-5.307309e+01	-2.442558e+02
2.000000e-07	-3.773565e-06	-3.758251e-09	-5.268463e+01	-2.438576e+02
2.100000e-07	-3.744298e-06	-3.761933e-09	-5.227602e+01	-2.434375e+02
2.200000e-07	-3.713735e-06	-3.623843e-09	-5.184931e+01	-2.429869e+02
2.300000e-07	-3.682187e-06	-3.664252e-09	-5.140885e+01	-2.424959e+02
2.400000e-07	-3.649360e-06	-3.785214e-09	-5.095054e+01	-2.419536e+02
2.500000e-07	-3.614981e-06	-3.731890e-09	-5.047056e+01	-2.413495e+02
2.600000e-07	-3.579174e-06	-3.635185e-09	-4.997063e+01	-2.406741e+02
2.700000e-07	-3.542152e-06	-3.617627e-09	-4.945375e+01	-2.399196e+02
2.800000e-07	-3.503984e-06	-3.654321e-09	-4.892088e+01	-2.390809e+02
2.900000e-07	-3.464679e-06	-3.670619e-09	-4.837212e+01	-2.381555e+02
3.000000e-07	-3.424165e-06	-3.632577e-09	-4.780649e+01	-2.371439e+02
3.100000e-07	-3.382182e-06	-3.582931e-09	-4.722034e+01	-2.360498e+02
3.200000e-07	-3.338755e-06	-3.549644e-09	-4.661403e+01	-2.348790e+02
3.300000e-07	-3.294228e-06	-3.564538e-09	-4.599237e+01	-2.336391e+02
3.400000e-07	-3.248647e-06	-3.595572e-09	-4.535599e+01	-2.323384e+02
3.500000e-07	-3.201878e-06	-3.537949e-09	-4.470301e+01	-2.309855e+02
3.600000e-07	-3.153890e-06	-3.454531e-09	-4.403303e+01	-2.295878e+02
3.700000e-07	-3.104602e-06	-3.468887e-09	-4.334490e+01	-2.281511e+02
3.800000e-07	-3.053855e-06	-3.508306e-09	-4.263639e+01	-2.266792e+02
3.900000e-07	-3.001622e-06	-3.458375e-09	-4.190715e+01	-2.251731e+02
4.000000e-07	-2.948205e-06	-3.376344e-09	-4.116137e+01	-2.236318e+02
4.100000e-07	-2.893885e-06	-3.372447e-09	-4.040297e+01	-2.220519e+02
4.200000e-07	-2.838722e-06	-3.388278e-09	-3.963281e+01	-2.204286e+02
4.300000e-07	-2.782567e-06	-3.355188e-09	-3.884881e+01	-2.187560e+02
4.400000e-07	-2.725133e-06	-3.308650e-09	-3.804694e+01	-2.170282e+02
4.500000e-07	-2.666517e-06	-3.274912e-09	-3.722857e+01	-2.152394e+02
4.600000e-07	-2.607008e-06	-3.250850e-09	-3.639775e+01	-2.133852e+02
4.700000e-07	-2.546721e-06	-3.233127e-09	-3.555605e+01	-2.114621e+02
4.800000e-07	-2.485564e-06	-3.206330e-09	-3.470221e+01	-2.094682e+02
4.900000e-07	-2.423503e-06	-3.155448e-09	-3.383574e+01	-2.074030e+02
5.000000e-07	-2.360716e-06	-3.113414e-09	-3.295914e+01	-2.052666e+02
5.100000e-07	-2.297284e-06	-3.097388e-09	-3.207353e+01	-2.030599e+02
5.200000e-07	-2.232960e-06	-3.070142e-09	-3.117547e+01	-2.007835e+02
5.300000e-07	-2.167406e-06	-3.020463e-09	-3.026023e+01	-1.984373e+02
5.400000e-07	-2.100811e-06	-2.978536e-09	-2.933048e+01	-1.960200e+02
5.500000e-07	-2.033673e-06	-2.949692e-09	-2.839312e+01	-1.935291e+02
5.600000e-07	-1.966070e-06	-2.918594e-09	-2.744929e+01	-1.909600e+02
5.700000e-07	-1.897796e-06	-2.873180e-09	-2.649607e+01	-1.883069e+02
5.800000e-07	-1.828853e-06	-2.823502e-09	-2.553353e+01	-1.855625e+02
5.900000e-07	-1.759358e-06	-2.785755e-09	-2.456328e+01	-1.827186e+02
6.000000e-07	-1.689217e-06	-2.744385e-09	-2.358400e+01	-1.797664e+02
6.100000e-07	-1.618431e-06	-2.691610e-09	-2.259573e+01	-1.766973e+02
6.200000e-07	-1.547182e-06	-2.639129e-09	-2.160098e+01	-1.735030e+02
6.300000e-07	-1.475547e-06	-2.592335e-09	-2.060085e+01	-1.701762e+02
6.400000e-07	-1.403501e-06	-2.540463e-09	-1.959498e+01	-1.667102e+02
6.500000e-07	-1.330850e-06	-2.480616e-09	-1.858066e+01	-1.630992e+02
6.600000e-07	-1.257412e-06	-2.422806e-09	-1.755536e+01	-1.593380e+02
6.700000e-07	-1.183228e-06	-2.368744e-09	-1.651964e+01	-1.554217e+02
6.800000e-07	-1.108532e-06	-2.310301e-09	-1.547677e+01	-1.513448e+02
6.900000e-07	-1.033385e-06	-2.241887e-09	-1.442760e+01	-1.471014e+02
7.000000e-07	-9.577882e-07	-2.169340e-09	-1.337216e+01	-1.426839e+02
7.100000e-07	-8.818986e-07	-2.098212e-09	-1.231263e+01	-1.380832e+02
7.200000e-07	-8.057770e-07	-2.029918e-09	-1.124986e+01	-1.332885e+02
7.300000e-07	-7.294113e-07	-1.955510e-09	-1.018368e+01	-1.282870e+02
7.400000e-07	-6.527542e-07	-1.868378e-09	-9.113428e+00	-1.230643e+02
7.500000e-07	-5.757881e-07	-1.779159e-09	-8.038866e+00	-1.176050e+02
7.600000e-07	-4.985632e-07	-1.698778e-09	-6.960690e+00	-1.118929e+02
7.700000e-07	-4.212404e-07	-1.616027e-09	-5.881148e+00	-1.059124e+02
7.800000e-07	-3.438115e-07	-1.515081e-09	-4.800124e+00	-9.964876e+01
7.900000e-07	-2.662232e-07	-1.405149e-09	-3.716875e+00	-9.308923e+01
8.000000e-07	-1.886020e-07	-1.302436e-09	-2.633167e+00	-8.622392e+01
8.100000e-07	-1.109297e-07	-1.203213e-09	-1.548745e+00	-7.904653e+01
8.200000e-07	-3.315686e-08	-1.090087e-09	-4.629196e-01	-7.155498e+01
8.300000e-07	4.470934e-08	-9.618833e-10	6.242095e-01	-6.375198e+01
8.400000e-07	1.225900e-07	-8.328676e-10	1.711541e+00	-5.564541e+01
8.500000e-07	2.003568e-07	-7.103370e-10	2.797282e+00	-4.724851e+01
8.600000e-07	2.779936e-07	-5.847994e-10	3.881208e+00	-3.858003e+01
8.700000e-07	3.555303e-07	-4.447874e-10	4.963736e+00	-2.966418e+01
8.800000e-07	4.329571e-07	-2.944121e-10	6.044730e+00	-2.053037e+01
8.900000e-07	5.102611e-07	-1.489765e-10	7.124010e+00	-1.121297e+01
9.000000e-07	5.874067e-07	-1.272476e-11	8.201079e+00	-1.750787e+00
9.100000e-07	6.642903e-07	1.288493e-10	9.274489e+00	7.813548e+00
9.200000e-07	7.409119e-07	2.836067e-10	1.034424e+01	1.743433e+01
9.300000e-07	8.172718e-07	4.401776e-10	1.141034e+01	2.706372e+01
9.400000e-07	8.932846e-07	5.843502e-10	1.247159e+01	3.665277e+01
9.500000e-07	9.689924e-07	7.207590e-10	1.352859e+01	4.615260e+01
9.600000e-07	1.044433e-06	8.627152e-10	1.458185e+01	5.551562e+01
9.700000e-07	1.119535e-06	1.010052e-09	1.563038e+01	6.469680e+01
9.800000e-07	1.194170e-06	1.149366e-09	1.667240e+01	7.365485e+01
9.900000e-07	1.268159e-06	1.275885e-09	1.770540e+01	8.235337e+01
1.000000e-06	1.341430e-06	1.400176e-09	1.872837e+01	9.076172e+01
1.010000e-06	1.414004e-06	1.526006e-09	1.974162e+01	9.885574e+01
1.020000e-06	1.485919e-06	1.648618e-09	2.074566e+01	1.066181e+02
1.030000e-06	1.557378e-06	1.762608e-09	2.174333e+01	1.140385e+02
1.040000e-06	1.628461e-06	1.866559e-09	2.273575e+01	1.211131e+02
1.050000e-06	1.698989e-06	1.964980e-09	2.372044e+01	1.278445e+02
1.060000e-06	1.768868e-06	2.062185e-09	2.469605e+01	1.342404e+02
1.070000e-06	1.838132e-06	2.157021e-09	2.566309e+01	1.403129e+02
1.080000e-06	1.906754e-06	2.243072e-09	2.662115e+01	1.460772e+02
1.090000e-06	1.974766e-06	2.321066e-09	2.757069e+01	1.515507e+02
1.100000e-06	2.042293e-06	2.397796e-09	2.851347e+01	1.567516e+02
1.110000e-06	2.109286e-06	2.476378e-09	2.944879e+01	1.616978e+02
1.120000e-06	2.175363e-06	2.549865e-09	3.037133e+01	1.664068e+02
1.130000e-06	2.240230e-06	2.614903e-09	3.127697e+01	1.708940e+02
1.140000e-06	2.304152e-06	2.678222e-09	3.216943e+01	1.751735e+02
1.150000e-06	2.367447e-06	2.741978e-09	3.305311e+01	1.792568e+02
1.160000e-06	2.430044e-06	2.801750e-09	3.392706e+01	1.831539e+02
1.170000e-06	2.491839e-06	2.856152e-09	3.478982e+01	1.868728e+02
1.180000e-06	2.552819e-06	2.906221e-09	3.564118e+01	1.904201e+02
1.190000e-06	2.612973e-06	2.954385e-09	3.648103e+01	1.938014e+02
1.200000e-06	2.672444e-06	3.002394e-09	3.731133e+01	1.970217e+02
1.210000e-06	2.731016e-06	3.047838e-09	3.812909e+01	2.000855e+02
1.220000e-06	2.788276e-06	3.091504e-09	3.892852e+01	2.029976e+02
1.230000e-06	2.844351e-06	3.131627e-09	3.971141e+01	2.057627e+02
1.240000e-06	2.899535e-06	3.168186e-09	4.048186e+01	2.083861e+02
1.250000e-06	2.953803e-06	3.204256e-09	4.123952e+01	2.108736e+02
1.260000e-06	3.007034e-06	3.239437e-09	4.198270e+01	2.132310e+02
1.270000e-06	3.059183e-06	3.272144e-09	4.271079e+01	2.154648e+02
1.280000e-06	3.110023e-06	3.302712e-09	4.342059e+01	2.175814e+02
1.290000e-06	3.159278e-06	3.331487e-09	4.410827e+01	2.195876e+02
1.300000e-06	3.207126e-06	3.358091e-09	4.477629e+01	2.214897e+02
1.310000e-06	3.253910e-06	3.383649e-09	4.542947e+01	2.232940e+02
1.320000e-06	3.299661e-06	3.409100e-09	4.606822e+01	2.250065e+02
1.330000e-06	3.344300e-06	3.433214e-09	4.669144e+01	2.266325e+02
1.340000e-06	3.387920e-06	3.454785e-09	4.730045e+01	2.281771e+02
1.350000e-06	3.430491e-06	3.477039e-09	4.789480e+01	2.296446e+02
1.360000e-06	3.471600e-06	3.500393e-09	4.846874e+01	2.310388e+02
1.370000e-06	3.511274e-06	3.521985e-09	4.902266e+01	2.323630e+02
1.380000e-06	3.549829e-06	3.539705e-09	4.956095e+01	2.336201e+02
1.390000e-06	3.587181e-06	3.555807e-09	5.008244e+01	2.348124e+02
1.400000e-06	3.623353e-06	3.573264e-09	5.058744e+01	2.359420e+02
1.410000e-06	3.658446e-06	3.590691e-09	5.107740e+01	2.370109e+02
1.420000e-06	3.692127e-06	3.605853e-09	5.154763e+01	2.380210e+02
1.430000e-06	3.724269e-06	3.619402e-09	5.199638e+01	2.389742e+02
1.440000e-06	3.755157e-06	3.634171e-09	5.242763e+01	2.398726e+02
1.450000e-06	3.784826e-06	3.649232e-09	5.284185e+01	2.407185e+02
1.460000e-06	3.813288e-06	3.662488e-09	5.323922e+01	2.415146e+02
1.470000e-06	3.840524e-06	3.673944e-09	5.361948e+01	2.422635e+02
1.480000e-06	3.866235e-06	3.685461e-09	5.397845e+01	2.429682e+02
1.490000e-06	3.890371e-06	3.696972e-09	5.431542e+01	2.436315e+02
1.500000e-06	3.913155e-06	3.708522e-09	5.463352e+01	2.442562e+02
1.510000e-06	3.934576e-06	3.717955e-09	5.493259e+01	2.448444e+02
1.520000e-06	3.954729e-06	3.725621e-09	5.521395e+01	2.453983e+02
1.530000e-06	3.973758e-06	3.734171e-09	5.547963e+01	2.459189e+02
1.540000e-06	3.991421e-06	3.743732e-09	5.572622e+01	2.464071e+02
1.550000e-06	4.007551e-06	3.752533e-09	5.595143e+01	2.468625e+02
1.560000e-06	4.022167e-06	3.759103e-09	5.615548e+01	2.472848e+02
1.570000e-06	4.035228e-06	3.765645e-09	5.633783e+01	2.476727e+02
1.580000e-06	4.046771e-06	3.771655e-09	5.649899e+01	2.480250e+02
1.590000e-06	4.056687e-06	3.776695e-09	5.663743e+01	2.483402e+02
1.600000e-06	4.064931e-06	3.781799e-09	5.675254e+01	2.486172e+02
1.610000e-06	4.071749e-06	3.786442e-09	5.684773e+01	2.488551e+02
1.620000e-06	4.077226e-06	3.790415e-09	5.692419e+01	2.490536e+02
1.630000e-06	4.081419e-06	3.794874e-09	5.698273e+01	2.492129e+02
1.640000e-06	4.084315e-06	3.798602e-09	5.702316e+01	2.493338e+02
1.650000e-06	4.085628e-06	3.801549e-09	5.704150e+01	2.494176e+02
1.660000e-06	4.085401e-06	3.804147e-09	5.703832e+01	2.494656e+02
1.670000e-06	4.083850e-06	3.804294e-09	5.701668e+01	2.494794e+02
1.680000e-06	4.081036e-06	3.801857e-09	5.697738e+01	2.494607e+02
1.690000e-06	4.077032e-06	3.798670e-09	5.692149e+01	2.494105e+02
1.700000e-06	4.071716e-06	3.796919e-09	5.684726e+01	2.493299e+02
1.710000e-06	4.064874e-06	3.795907e-09	5.675174e+01	2.492194e+02
1.720000e-06	4.056670e-06	3.794968e-09	5.663721e+01	2.490795e+02
1.730000e-06	4.047321e-06	3.799653e-09	5.650668e+01	2.489104e+02
1.740000e-06	4.036794e-06	3.791512e-09	5.635970e+01	2.487124e+02
1.750000e-06	4.024615e-06	3.744447e-09	5.618967e+01	2.484864e+02
1.760000e-06	4.010085e-06	3.712671e-09	5.598680e+01	2.482336e+02
1.770000e-06	3.993297e-06	3.731319e-09	5.575241e+01	2.479561e+02
1.780000e-06	3.975292e-06	3.821212e-09	5.550104e+01	2.476564e+02
1.790000e-06	3.956929e-06	3.844302e-09	5.524466e+01	2.473378e+02
1.800000e-06	3.937684e-06	3.721099e-09	5.497597e+01	2.470037e+02
1.810000e-06	3.916427e-06	3.714674e-09	5.467920e+01	2.466575e+02
1.820000e-06	3.893603e-06	3.775394e-09	5.436054e+01	2.463020e+02
1.830000e-06	3.869962e-06	3.743123e-09	5.403048e+01	2.459387e+02
1.840000e-06	3.844814e-06	3.790492e-09	5.367937e+01	2.455677e+02
1.850000e-06	3.818011e-06	3.779629e-09	5.330516e+01	2.451871e+02
1.860000e-06	3.790207e-06	3.661479e-09	5.291697e+01	2.447926e+02
1.870000e-06	3.761263e-06	3.743755e-09	5.251287e+01	2.443780e+02
1.880000e-06	3.730717e-06	3.809481e-09	5.208641e+01	2.439349e+02
1.890000e-06	3.698590e-06	3.666131e-09	5.163786e+01	2.434535e+02
1.900000e-06	3.665128e-06	3.647722e-09	5.117069e+01	2.429232e+02
1.910000e-06	3.630630e-06	3.744658e-09	5.068904e+01	2.423333e+02
1.920000e-06	3.595034e-06	3.731242e-09	5.019207e+01	2.416740e+02
1.930000e-06	3.558186e-06	3.684900e-09	4.967762e+01	2.409371e+02
1.940000e-06	3.520143e-06	3.641724e-09	4.914648e+01	2.401168e+02
1.950000e-06	3.480621e-06	3.634973e-09	4.859470e+01	2.392101e+02
1.960000e-06	3.439564e-06	3.631570e-09	4.802147e+01	2.382170e+02
1.970000e-06	3.397412e-06	3.614400e-09	4.743297e+01	2.371402e+02
1.980000e-06	3.354293e-06	3.641943e-09	4.683096e+01	2.359854e+02
1.990000e-06	3.310077e-06	3.563600e-09	4.621364e+01	2.347596e+02
2.000000e-06	3.264710e-06	3.493519e-09	4.558026e+01	2.334714e+02
2.010000e-06	3.218237e-06	3.575401e-09	4.493142e+01	2.321291e+02
2.020000e-06	3.170562e-06	3.570059e-09	4.426581e+01	2.307405e+02
2.030000e-06	3.121515e-06	3.466740e-09	4.358103e+01	2.293119e+02
2.040000e-06	3.071328e-06	3.429230e-09	4.288034e+01	2.278475e+02
2.050000e-06	3.020145e-06	3.466387e-09	4.216576e+01	2.263488e+02
2.060000e-06	2.967766e-06	3.469200e-09	4.143447e+01	2.248154e+02
2.070000e-06	2.914022e-06	3.385363e-09	4.068412e+01	2.232443e+02
2.080000e-06	2.858942e-06	3.354684e-09	3.991512e+01	2.216308e+02
2.090000e-06	2.802779e-06	3.354222e-09	3.913100e+01	2.199694e+02
2.100000e-06	2.745593e-06	3.321142e-09	3.833260e+01	2.182540e+02
2.110000e-06	2.687448e-06	3.305906e-09	3.752081e+01	2.164788e+02
2.120000e-06	2.628510e-06	3.276956e-09	3.669794e+01	2.146391e+02
2.130000e-06	2.568795e-06	3.236634e-09	3.586423e+01	2.127310e+02
2.140000e-06	2.508309e-06	3.199349e-09	3.501976e+01	2.107525e+02
2.150000e-06	2.446845e-06	3.186920e-09	3.416163e+01	2.087027e+02
2.160000e-06	2.384242e-06	3.173319e-09	3.328760e+01	2.065816e+02
2.170000e-06	2.320679e-06	3.114987e-09	3.240017e+01	2.043900e+02
2.180000e-06	2.256346e-06	3.073262e-09	3.150197e+01	2.021286e+02
2.190000e-06	2.191290e-06	3.052809e-09	3.059370e+01	1.997975e+02
2.200000e-06	2.125449e-06	3.023034e-09	2.967446e+01	1.973958e+02
2.210000e-06	2.058827e-06	2.977803e-09	2.874431e+01	1.949210e+02
2.220000e-06	1.991519e-06	2.931927e-09	2.780459e+01	1.923692e+02
2.230000e-06	1.923631e-06	2.902025e-09	2.685678e+01	1.897348e+02
2.240000e-06	1.855175e-06	2.856073e-09	2.590102e+01	1.870108e+02
2.250000e-06	1.785988e-06	2.807720e-09	2.493508e+01	1.841890e+02
2.260000e-06	1.716001e-06	2.775005e-09	2.395794e+01	1.812608e+02
2.270000e-06	1.645176e-06	2.728317e-09	2.296913e+01	1.782176e+02
2.280000e-06	1.573560e-06	2.667703e-09	2.196926e+01	1.750509e+02
2.290000e-06	1.501397e-06	2.616536e-09	2.096176e+01	1.717532e+02
2.300000e-06	1.428847e-06	2.580164e-09	1.994885e+01	1.683176e+02
2.310000e-06	1.355901e-06	2.529554e-09	1.893042e+01	1.647382e+02
2.320000e-06	1.282525e-06	2.459919e-09	1.790598e+01	1.610098e+02
2.330000e-06	1.208730e-06	2.396365e-09	1.687568e+01	1.571272e+02
2.340000e-06	1.134469e-06	2.339394e-09	1.583889e+01	1.530854e+02
2.350000e-06	1.059732e-06	2.283160e-09	1.479545e+01	1.488783e+02
2.360000e-06	9.846690e-07	2.219831e-09	1.374746e+01	1.444989e+02
2.370000e-06	9.093148e-07	2.146018e-09	1.269540e+01	1.399384e+02
2.380000e-06	8.336491e-07	2.064488e-09	1.163899e+01	1.351864e+02
2.390000e-06	7.577041e-07	1.989378e-09	1.057869e+01	1.302305e+02
2.400000e-06	6.814667e-07	1.924693e-09	9.514297e+00	1.250566e+02
2.410000e-06	6.049045e-07	1.843071e-09	8.445374e+00	1.196494e+02
2.420000e-06	5.281112e-07	1.742510e-09	7.373225e+00	1.139930e+02
2.430000e-06	4.511658e-07	1.648647e-09	6.298951e+00	1.080714e+02
2.440000e-06	3.739788e-07	1.568529e-09	5.221305e+00	1.018697e+02
2.450000e-06	2.966030e-07	1.477355e-09	4.141023e+00	9.537457e+01
2.460000e-06	2.191061e-07	1.362220e-09	3.059050e+00	8.857555e+01
2.470000e-06	1.414067e-07	1.245054e-09	1.974249e+00	8.146547e+01
2.480000e-06	6.356821e-08	1.139198e-09	8.875076e-01	7.404129e+01
2.490000e-06	-1.423243e-08	1.032639e-09	-1.987060e-01	6.630465e+01
2.500000e-06	-9.191245e-08	9.110495e-10	-1.283236e+00	5.826230e+01
2.510000e-06	-1.695244e-07	7.769419e-10	-2.366815e+00	4.992633e+01
2.520000e-06	-2.470577e-07	6.407532e-10	-3.449296e+00	4.131430e+01
2.530000e-06	-3.243649e-07	5.091174e-10	-4.528621e+00	3.244926e+01
2.540000e-06	-4.014255e-07	3.784312e-10	-5.604502e+00	2.335953e+01
2.550000e-06	-4.782858e-07	2.378014e-10	-6.677588e+00	1.407845e+01
2.560000e-06	-5.549542e-07	8.589891e-11	-7.747993e+00	4.643926e+00
2.570000e-06	-6.313674e-07	-6.224207e-11	-8.814837e+00	-4.902171e+00
2.580000e-06	-7.075351e-07	-1.981271e-10	-9.878252e+00	-1.451473e+01
2.590000e-06	-7.834155e-07	-3.370407e-10	-1.093766e+01	-2.414627e+01
2.600000e-06	-8.589747e-07	-4.888055e-10	-1.199258e+01	-3.374799e+01
2.610000e-06	-9.342636e-07	-6.400881e-10	-1.304372e+01	-4.327090e+01
2.620000e-06	-1.009162e-06	-7.801196e-10	-1.408941e+01	-5.266703e+01
2.630000e-06	-1.083707e-06	-9.132317e-10	-1.513018e+01	-6.189069e+01
2.640000e-06	-1.157942e-06	-1.050227e-09	-1.616660e+01	-7.089970e+01
2.650000e-06	-1.231707e-06	-1.191237e-09	-1.719648e+01	-7.965652e+01
2.660000e-06	-1.305013e-06	-1.325540e-09	-1.821994e+01	-8.812921e+01
2.670000e-06	-1.377903e-06	-1.448346e-09	-1.923759e+01	-9.629217e+01
2.680000e-06	-1.450384e-06	-1.563641e-09	-2.024953e+01	-1.041266e+02
2.690000e-06	-1.522557e-06	-1.678503e-09	-2.125718e+01	-1.116207e+02
2.700000e-06	-1.594339e-06	-1.793508e-09	-2.225936e+01	-1.187693e+02
2.710000e-06	-1.665492e-06	-1.900050e-09	-2.325276e+01	-1.255737e+02
2.720000e-06	-1.735746e-06	-1.994251e-09	-2.423362e+01	-1.320405e+02
2.730000e-06	-1.805020e-06	-2.083383e-09	-2.520079e+01	-1.381809e+02
2.740000e-06	-1.873593e-06	-2.174770e-09	-2.615817e+01	-1.440098e+02
2.750000e-06	-1.941694e-06	-2.265694e-09	-2.710896e+01	-1.495440e+02
2.760000e-06	-2.009245e-06	-2.348385e-09	-2.805207e+01	-1.548016e+02
2.770000e-06	-2.076083e-06	-2.420965e-09	-2.898524e+01	-1.598009e+02
2.780000e-06	-2.142218e-06	-2.490759e-09	-2.990858e+01	-1.645592e+02
2.790000e-06	-2.207572e-06	-2.563699e-09	-3.082102e+01	-1.690926e+02
2.800000e-06	-2.272187e-06	-2.633593e-09	-3.172315e+01	-1.734154e+02
2.810000e-06	-2.336258e-06	-2.695902e-09	-3.261767e+01	-1.775397e+02
2.820000e-06	-2.399463e-06	-2.753941e-09	-3.350010e+01	-1.814759e+02
2.830000e-06	-2.461459e-06	-2.812718e-09	-3.436566e+01	-1.852323e+02
2.840000e-06	-2.522395e-06	-2.872139e-09	-3.521642e+01	-1.888158e+02
2.850000e-06	-2.582527e-06	-2.927985e-09	-3.605596e+01	-1.922321e+02
2.860000e-06	-2.641894e-06	-2.978240e-09	-3.688480e+01	-1.954864e+02
2.870000e-06	-2.700369e-06	-3.024219e-09	-3.770121e+01	-1.985833e+02
2.880000e-06	-2.757873e-06	-3.069337e-09	-3.850405e+01	-2.015273e+02
2.890000e-06	-2.814501e-06	-3.114456e-09	-3.929466e+01	-2.043234e+02
2.900000e-06	-2.870275e-06	-3.157748e-09	-4.007335e+01	-2.069766e+02
2.910000e-06	-2.924793e-06	-3.197920e-09	-4.083450e+01	-2.094926e+02
2.920000e-06	-2.977839e-06	-3.234167e-09	-4.157510e+01	-2.118773e+02
2.930000e-06	-3.029651e-06	-3.269245e-09	-4.229847e+01	-2.141369e+02
2.940000e-06	-3.080334e-06	-3.306436e-09	-4.300609e+01	-2.162780e+02
