# Temperatura_=_20.0
# Concentracion g/m^3_=_9000.0
# C_Vs_to_Am_M_A/Vsm_=_65563218390.804596
# pendiente_HvsI_1/m_=_3716.3
# ordenada_HvsI_A/m_=_1297.0
# frecuencia_Hz_=_300794.1126494819

Tiempo_(s)	Campo_(V.s)	Magnetizacion_(V.s)	Campo_(kA/m)	Magnetizacion_(A/m)
0.000000e+00	-4.065677e-06	-3.813749e-09	-5.683879e+01	-2.487229e+02
1.000000e-08	-4.063900e-06	-3.815879e-09	-5.681396e+01	-2.487231e+02
2.000000e-08	-4.060679e-06	-3.816791e-09	-5.676892e+01	-2.486945e+02
3.000000e-08	-4.056285e-06	-3.815933e-09	-5.670749e+01	-2.486350e+02
4.000000e-08	-4.050644e-06	-3.813808e-09	-5.662863e+01	-2.485419e+02
5.000000e-08	-4.043745e-06	-3.811623e-09	-5.653219e+01	-2.484125e+02
6.000000e-08	-4.035652e-06	-3.807566e-09	-5.641904e+01	-2.482450e+02
7.000000e-08	-4.026085e-06	-3.797116e-09	-5.628529e+01	-2.480389e+02
8.000000e-08	-4.014743e-06	-3.804223e-09	-5.612673e+01	-2.477954e+02
9.000000e-08	-4.001531e-06	-3.836880e-09	-5.594202e+01	-2.475179e+02
1.000000e-07	-3.986245e-06	-3.851763e-09	-5.572832e+01	-2.472120e+02
1.100000e-07	-3.969182e-06	-3.829942e-09	-5.548978e+01	-2.468848e+02
1.200000e-07	-3.950947e-06	-3.739580e-09	-5.523485e+01	-2.465446e+02
1.300000e-07	-3.931822e-06	-3.718468e-09	-5.496748e+01	-2.461998e+02
1.400000e-07	-3.911734e-06	-3.813274e-09	-5.468664e+01	-2.458583e+02
1.500000e-07	-3.890590e-06	-3.800009e-09	-5.439106e+01	-2.455258e+02
1.600000e-07	-3.868373e-06	-3.751057e-09	-5.408045e+01	-2.452052e+02
1.700000e-07	-3.844489e-06	-3.739147e-09	-5.374655e+01	-2.448960e+02
1.800000e-07	-3.818720e-06	-3.694674e-09	-5.338629e+01	-2.445938e+02
1.900000e-07	-3.791804e-06	-3.736620e-09	-5.301001e+01	-2.442902e+02
2.000000e-07	-3.763864e-06	-3.797999e-09	-5.261940e+01	-2.439734e+02
2.100000e-07	-3.734467e-06	-3.693434e-09	-5.220843e+01	-2.436291e+02
2.200000e-07	-3.703822e-06	-3.645147e-09	-5.178000e+01	-2.432413e+02
2.300000e-07	-3.672156e-06	-3.735153e-09	-5.133732e+01	-2.427940e+02
2.400000e-07	-3.639144e-06	-3.745139e-09	-5.087580e+01	-2.422727e+02
2.500000e-07	-3.604572e-06	-3.677748e-09	-5.039247e+01	-2.416652e+02
2.600000e-07	-3.568566e-06	-3.610775e-09	-4.988911e+01	-2.409630e+02
2.700000e-07	-3.531339e-06	-3.621446e-09	-4.936867e+01	-2.401616e+02
2.800000e-07	-3.493035e-06	-3.665331e-09	-4.883317e+01	-2.392612e+02
2.900000e-07	-3.453597e-06	-3.623508e-09	-4.828183e+01	-2.382662e+02
3.000000e-07	-3.412873e-06	-3.584881e-09	-4.771250e+01	-2.371841e+02
3.100000e-07	-3.370672e-06	-3.579151e-09	-4.712252e+01	-2.360254e+02
3.200000e-07	-3.327123e-06	-3.531006e-09	-4.651370e+01	-2.348015e+02
3.300000e-07	-3.282494e-06	-3.546384e-09	-4.588978e+01	-2.335239e+02
3.400000e-07	-3.236789e-06	-3.565875e-09	-4.525081e+01	-2.322027e+02
3.500000e-07	-3.189872e-06	-3.477580e-09	-4.459490e+01	-2.308459e+02
3.600000e-07	-3.141786e-06	-3.434281e-09	-4.392265e+01	-2.294586e+02
3.700000e-07	-3.092431e-06	-3.487300e-09	-4.323267e+01	-2.280427e+02
3.800000e-07	-3.041515e-06	-3.476758e-09	-4.252085e+01	-2.265969e+02
3.900000e-07	-2.989113e-06	-3.388884e-09	-4.178826e+01	-2.251174e+02
4.000000e-07	-2.935628e-06	-3.369275e-09	-4.104054e+01	-2.235985e+02
4.100000e-07	-2.881240e-06	-3.383720e-09	-4.028018e+01	-2.220335e+02
4.200000e-07	-2.825971e-06	-3.350979e-09	-3.950752e+01	-2.204158e+02
4.300000e-07	-2.769799e-06	-3.309090e-09	-3.872221e+01	-2.187392e+02
4.400000e-07	-2.712344e-06	-3.287672e-09	-3.791899e+01	-2.169993e+02
4.500000e-07	-2.653623e-06	-3.258801e-09	-3.709806e+01	-2.151932e+02
4.600000e-07	-2.594091e-06	-3.223374e-09	-3.626580e+01	-2.133197e+02
4.700000e-07	-2.533823e-06	-3.203134e-09	-3.542324e+01	-2.113793e+02
4.800000e-07	-2.472645e-06	-3.177376e-09	-3.456796e+01	-2.093733e+02
4.900000e-07	-2.410541e-06	-3.128452e-09	-3.369973e+01	-2.073036e+02
5.000000e-07	-2.347642e-06	-3.094368e-09	-3.282040e+01	-2.051715e+02
5.100000e-07	-2.284156e-06	-3.081842e-09	-3.193286e+01	-2.029776e+02
5.200000e-07	-2.219811e-06	-3.042991e-09	-3.103330e+01	-2.007207e+02
5.300000e-07	-2.154185e-06	-2.994648e-09	-3.011584e+01	-1.983981e+02
5.400000e-07	-2.087529e-06	-2.964379e-09	-2.918398e+01	-1.960049e+02
5.500000e-07	-2.020321e-06	-2.937486e-09	-2.824440e+01	-1.935349e+02
5.600000e-07	-1.952648e-06	-2.891003e-09	-2.729832e+01	-1.909803e+02
5.700000e-07	-1.884326e-06	-2.841809e-09	-2.634317e+01	-1.883327e+02
5.800000e-07	-1.815360e-06	-2.808941e-09	-2.537902e+01	-1.855834e+02
5.900000e-07	-1.745865e-06	-2.770535e-09	-2.440747e+01	-1.827241e+02
6.000000e-07	-1.675759e-06	-2.718094e-09	-2.342737e+01	-1.797474e+02
6.100000e-07	-1.604999e-06	-2.666875e-09	-2.243813e+01	-1.766467e+02
6.200000e-07	-1.533748e-06	-2.625777e-09	-2.144203e+01	-1.734165e+02
6.300000e-07	-1.462167e-06	-2.574871e-09	-2.044132e+01	-1.700525e+02
6.400000e-07	-1.390175e-06	-2.515699e-09	-1.943486e+01	-1.665505e+02
6.500000e-07	-1.317564e-06	-2.460796e-09	-1.841975e+01	-1.629067e+02
6.600000e-07	-1.244105e-06	-2.406227e-09	-1.739278e+01	-1.591168e+02
6.700000e-07	-1.169871e-06	-2.346439e-09	-1.635497e+01	-1.551754e+02
6.800000e-07	-1.095109e-06	-2.282812e-09	-1.530979e+01	-1.510757e+02
6.900000e-07	-1.019938e-06	-2.216054e-09	-1.425889e+01	-1.468093e+02
7.000000e-07	-9.444255e-07	-2.141401e-09	-1.320321e+01	-1.423659e+02
7.100000e-07	-8.686339e-07	-2.069565e-09	-1.214364e+01	-1.377336e+02
7.200000e-07	-7.926332e-07	-2.003410e-09	-1.108114e+01	-1.328989e+02
7.300000e-07	-7.163454e-07	-1.928522e-09	-1.001462e+01	-1.278474e+02
7.400000e-07	-6.397077e-07	-1.837963e-09	-8.943214e+00	-1.225644e+02
7.500000e-07	-5.627947e-07	-1.751133e-09	-7.867958e+00	-1.170350e+02
7.600000e-07	-4.857173e-07	-1.672881e-09	-6.790403e+00	-1.112454e+02
7.700000e-07	-4.085292e-07	-1.582864e-09	-5.711302e+00	-1.051828e+02
7.800000e-07	-3.312000e-07	-1.478821e-09	-4.630228e+00	-9.883623e+01
7.900000e-07	-2.536960e-07	-1.374917e-09	-3.546709e+00	-9.219701e+01
8.000000e-07	-1.760862e-07	-1.275272e-09	-2.461712e+00	-8.525894e+01
8.100000e-07	-9.847149e-08	-1.169078e-09	-1.376647e+00	-7.801874e+01
8.200000e-07	-2.085936e-08	-1.052989e-09	-2.916171e-01	-7.047630e+01
8.300000e-07	5.677613e-08	-9.300506e-10	7.937391e-01	-6.263507e+01
8.400000e-07	1.344102e-07	-8.043508e-10	1.879076e+00	-5.450234e+01
8.500000e-07	2.119759e-07	-6.776453e-10	2.963456e+00	-4.608962e+01
8.600000e-07	2.894352e-07	-5.480128e-10	4.046350e+00	-3.741301e+01
8.700000e-07	3.667901e-07	-4.094407e-10	5.127783e+00	-2.849353e+01
8.800000e-07	4.440379e-07	-2.619025e-10	6.207719e+00	-1.935738e+01
8.900000e-07	5.211745e-07	-1.185074e-10	7.286100e+00	-1.003597e+01
9.000000e-07	5.981064e-07	1.957741e-11	8.361620e+00	-5.658849e-01
9.100000e-07	6.747880e-07	1.647131e-10	9.433641e+00	9.011502e+00
9.200000e-07	7.512478e-07	3.183030e-10	1.050256e+01	1.865069e+01
9.300000e-07	8.274598e-07	4.690587e-10	1.156802e+01	2.830297e+01
9.400000e-07	9.033460e-07	6.107156e-10	1.262892e+01	3.791763e+01
9.500000e-07	9.789003e-07	7.520329e-10	1.368518e+01	4.744337e+01
9.600000e-07	1.054178e-06	8.996886e-10	1.473757e+01	5.682986e+01
9.700000e-07	1.129145e-06	1.045154e-09	1.578562e+01	6.602932e+01
9.800000e-07	1.203543e-06	1.181169e-09	1.682571e+01	7.499808e+01
9.900000e-07	1.277198e-06	1.312339e-09	1.785543e+01	8.369788e+01
1.000000e-06	1.350100e-06	1.441349e-09	1.887461e+01	9.209703e+01
1.010000e-06	1.422262e-06	1.565369e-09	1.988344e+01	1.001711e+02
1.020000e-06	1.493910e-06	1.685032e-09	2.088510e+01	1.079032e+02
1.030000e-06	1.565250e-06	1.798708e-09	2.188244e+01	1.152842e+02
1.040000e-06	1.636219e-06	1.902013e-09	2.287459e+01	1.223121e+02
1.050000e-06	1.706642e-06	1.999804e-09	2.385913e+01	1.289911e+02
1.060000e-06	1.776446e-06	2.097500e-09	2.483499e+01	1.353312e+02
1.070000e-06	1.845626e-06	2.189813e-09	2.580214e+01	1.413461e+02
1.080000e-06	1.914140e-06	2.273714e-09	2.675997e+01	1.470530e+02
1.090000e-06	1.982009e-06	2.353041e-09	2.770879e+01	1.524702e+02
1.100000e-06	2.049357e-06	2.430687e-09	2.865033e+01	1.576171e+02
1.110000e-06	2.116088e-06	2.506788e-09	2.958323e+01	1.625122e+02
1.120000e-06	2.181821e-06	2.576944e-09	3.050220e+01	1.671729e+02
1.130000e-06	2.246435e-06	2.642434e-09	3.140551e+01	1.716149e+02
1.140000e-06	2.310232e-06	2.705906e-09	3.229741e+01	1.758518e+02
1.150000e-06	2.373429e-06	2.767761e-09	3.318090e+01	1.798948e+02
1.160000e-06	2.435934e-06	2.826343e-09	3.405473e+01	1.837533e+02
1.170000e-06	2.497622e-06	2.881635e-09	3.491715e+01	1.874345e+02
1.180000e-06	2.558418e-06	2.933415e-09	3.576708e+01	1.909447e+02
1.190000e-06	2.618413e-06	2.982052e-09	3.660582e+01	1.942885e+02
1.200000e-06	2.677780e-06	3.029808e-09	3.743578e+01	1.974704e+02
1.210000e-06	2.736188e-06	3.075033e-09	3.825233e+01	2.004946e+02
1.220000e-06	2.793175e-06	3.116961e-09	3.904902e+01	2.033652e+02
1.230000e-06	2.848972e-06	3.154696e-09	3.982907e+01	2.060872e+02
1.240000e-06	2.903917e-06	3.191385e-09	4.059721e+01	2.086659e+02
1.250000e-06	2.957931e-06	3.228191e-09	4.135233e+01	2.111076e+02
1.260000e-06	3.010900e-06	3.263077e-09	4.209284e+01	2.134190e+02
1.270000e-06	3.062771e-06	3.294870e-09	4.281801e+01	2.156078e+02
1.280000e-06	3.113332e-06	3.326284e-09	4.352486e+01	2.176818e+02
1.290000e-06	3.162335e-06	3.356807e-09	4.420994e+01	2.196489e+02
1.300000e-06	3.209984e-06	3.383562e-09	4.487607e+01	2.215171e+02
1.310000e-06	3.256544e-06	3.407327e-09	4.552699e+01	2.232937e+02
1.320000e-06	3.302011e-06	3.431576e-09	4.616262e+01	2.249855e+02
1.330000e-06	3.346415e-06	3.455748e-09	4.678339e+01	2.265981e+02
1.340000e-06	3.389843e-06	3.475936e-09	4.739053e+01	2.281364e+02
1.350000e-06	3.432079e-06	3.496209e-09	4.798100e+01	2.296041e+02
1.360000e-06	3.472810e-06	3.519133e-09	4.855043e+01	2.310038e+02
1.370000e-06	3.512247e-06	3.541878e-09	4.910175e+01	2.323376e+02
1.380000e-06	3.550592e-06	3.560060e-09	4.963783e+01	2.336068e+02
1.390000e-06	3.587764e-06	3.575300e-09	5.015750e+01	2.348124e+02
1.400000e-06	3.623794e-06	3.592047e-09	5.066120e+01	2.359558e+02
1.410000e-06	3.658624e-06	3.609317e-09	5.114813e+01	2.370383e+02
1.420000e-06	3.691946e-06	3.624035e-09	5.161398e+01	2.380618e+02
1.430000e-06	3.723812e-06	3.635911e-09	5.205946e+01	2.390289e+02
1.440000e-06	3.754431e-06	3.650373e-09	5.248752e+01	2.399427e+02
1.450000e-06	3.783805e-06	3.666619e-09	5.289818e+01	2.408065e+02
1.460000e-06	3.812017e-06	3.680074e-09	5.329259e+01	2.416242e+02
1.470000e-06	3.838990e-06	3.690613e-09	5.366968e+01	2.423991e+02
1.480000e-06	3.864407e-06	3.703384e-09	5.402500e+01	2.431344e+02
1.490000e-06	3.888244e-06	3.717874e-09	5.435825e+01	2.438324e+02
1.500000e-06	3.910734e-06	3.730237e-09	5.467267e+01	2.444945e+02
1.510000e-06	3.931937e-06	3.739357e-09	5.496908e+01	2.451210e+02
1.520000e-06	3.951950e-06	3.745628e-09	5.524887e+01	2.457111e+02
1.530000e-06	3.970872e-06	3.753484e-09	5.551341e+01	2.462633e+02
1.540000e-06	3.988390e-06	3.763056e-09	5.575831e+01	2.467752e+02
1.550000e-06	4.004320e-06	3.771346e-09	5.598102e+01	2.472446e+02
1.560000e-06	4.018683e-06	3.778110e-09	5.618181e+01	2.476692e+02
1.570000e-06	4.031534e-06	3.785529e-09	5.636148e+01	2.480475e+02
1.580000e-06	4.042942e-06	3.793393e-09	5.652095e+01	2.483787e+02
1.590000e-06	4.052591e-06	3.799213e-09	5.665585e+01	2.486634e+02
1.600000e-06	4.060561e-06	3.803853e-09	5.676727e+01	2.489031e+02
1.610000e-06	4.067186e-06	3.808336e-09	5.685989e+01	2.491006e+02
1.620000e-06	4.072488e-06	3.811690e-09	5.693401e+01	2.492591e+02
1.630000e-06	4.076510e-06	3.814111e-09	5.699025e+01	2.493822e+02
1.640000e-06	4.079162e-06	3.817497e-09	5.702732e+01	2.494732e+02
1.650000e-06	4.080176e-06	3.820540e-09	5.704150e+01	2.495348e+02
1.660000e-06	4.079716e-06	3.821311e-09	5.703506e+01	2.495686e+02
1.670000e-06	4.077965e-06	3.820303e-09	5.701058e+01	2.495748e+02
1.680000e-06	4.074951e-06	3.818373e-09	5.696845e+01	2.495526e+02
1.690000e-06	4.070799e-06	3.815005e-09	5.691040e+01	2.495001e+02
1.700000e-06	4.065318e-06	3.813162e-09	5.683378e+01	2.494144e+02
1.710000e-06	4.058290e-06	3.813044e-09	5.673552e+01	2.492931e+02
1.720000e-06	4.049966e-06	3.814314e-09	5.661916e+01	2.491339e+02
1.730000e-06	4.040517e-06	3.820378e-09	5.648705e+01	2.489361e+02
1.740000e-06	4.029813e-06	3.792471e-09	5.633742e+01	2.487004e+02
1.750000e-06	4.017294e-06	3.750327e-09	5.616239e+01	2.484299e+02
1.760000e-06	4.002314e-06	3.730977e-09	5.595297e+01	2.481296e+02
1.770000e-06	3.985223e-06	3.773990e-09	5.571404e+01	2.478064e+02
1.780000e-06	3.967141e-06	3.858950e-09	5.546125e+01	2.474683e+02
1.790000e-06	3.948800e-06	3.812494e-09	5.520483e+01	2.471239e+02
1.800000e-06	3.929432e-06	3.728889e-09	5.493407e+01	2.467812e+02
1.810000e-06	3.907826e-06	3.767141e-09	5.463202e+01	2.464464e+02
1.820000e-06	3.884735e-06	3.756966e-09	5.430920e+01	2.461233e+02
1.830000e-06	3.860982e-06	3.777519e-09	5.397713e+01	2.458120e+02
1.840000e-06	3.835644e-06	3.820861e-09	5.362290e+01	2.455089e+02
1.850000e-06	3.808701e-06	3.708813e-09	5.324623e+01	2.452066e+02
1.860000e-06	3.780831e-06	3.696470e-09	5.285661e+01	2.448938e+02
1.870000e-06	3.751677e-06	3.792832e-09	5.244902e+01	2.445568e+02
1.880000e-06	3.720891e-06	3.723243e-09	5.201863e+01	2.441797e+02
1.890000e-06	3.688625e-06	3.655180e-09	5.156756e+01	2.437465e+02
1.900000e-06	3.655047e-06	3.712916e-09	5.109812e+01	2.432423e+02
1.910000e-06	3.620434e-06	3.725276e-09	5.061422e+01	2.426542e+02
1.920000e-06	3.584671e-06	3.715238e-09	5.011426e+01	2.419728e+02
1.930000e-06	3.547639e-06	3.656987e-09	4.959655e+01	2.411929e+02
1.940000e-06	3.509434e-06	3.630224e-09	4.906243e+01	2.403136e+02
1.950000e-06	3.469665e-06	3.661603e-09	4.850646e+01	2.393384e+02
1.960000e-06	3.428418e-06	3.592074e-09	4.792982e+01	2.382742e+02
1.970000e-06	3.386172e-06	3.608609e-09	4.733922e+01	2.371311e+02
1.980000e-06	3.342898e-06	3.639069e-09	4.673423e+01	2.359202e+02
1.990000e-06	3.298542e-06	3.510746e-09	4.611413e+01	2.346532e+02
2.000000e-06	3.253070e-06	3.524271e-09	4.547842e+01	2.333407e+02
2.010000e-06	3.206444e-06	3.587828e-09	4.482658e+01	2.319911e+02
2.020000e-06	3.158531e-06	3.505727e-09	4.415675e+01	2.306102e+02
2.030000e-06	3.109267e-06	3.441228e-09	4.346804e+01	2.292004e+02
2.040000e-06	3.059054e-06	3.446854e-09	4.276606e+01	2.277613e+02
2.050000e-06	3.007901e-06	3.476181e-09	4.205092e+01	2.262895e+02
2.060000e-06	2.955475e-06	3.414340e-09	4.131800e+01	2.247797e+02
2.070000e-06	2.901581e-06	3.357850e-09	4.056455e+01	2.232252e+02
2.080000e-06	2.846326e-06	3.375230e-09	3.979208e+01	2.216194e+02
2.090000e-06	2.790070e-06	3.337574e-09	3.900561e+01	2.199560e+02
2.100000e-06	2.732823e-06	3.300788e-09	3.820530e+01	2.182300e+02
2.110000e-06	2.674681e-06	3.287893e-09	3.739245e+01	2.164383e+02
2.120000e-06	2.615781e-06	3.268230e-09	3.656902e+01	2.145794e+02
2.130000e-06	2.556024e-06	3.222009e-09	3.573362e+01	2.126532e+02
2.140000e-06	2.495462e-06	3.179058e-09	3.488694e+01	2.106612e+02
2.150000e-06	2.433920e-06	3.188618e-09	3.402658e+01	2.086051e+02
2.160000e-06	2.371209e-06	3.148711e-09	3.314988e+01	2.064864e+02
2.170000e-06	2.307495e-06	3.085471e-09	3.225914e+01	2.043058e+02
2.180000e-06	2.243100e-06	3.067989e-09	3.135889e+01	2.020627e+02
2.190000e-06	2.178074e-06	3.041026e-09	3.044981e+01	1.997545e+02
2.200000e-06	2.112178e-06	2.998636e-09	2.952858e+01	1.973770e+02
2.210000e-06	2.045458e-06	2.952556e-09	2.859583e+01	1.949241e+02
2.220000e-06	1.978101e-06	2.927299e-09	2.765416e+01	1.923884e+02
2.230000e-06	1.910160e-06	2.888433e-09	2.670433e+01	1.897615e+02
2.240000e-06	1.841637e-06	2.825762e-09	2.574637e+01	1.870348e+02
2.250000e-06	1.772449e-06	2.794606e-09	2.477912e+01	1.841999e+02
2.260000e-06	1.702500e-06	2.759353e-09	2.380121e+01	1.812490e+02
2.270000e-06	1.631613e-06	2.701329e-09	2.281020e+01	1.781754e+02
2.280000e-06	1.559911e-06	2.642415e-09	2.180779e+01	1.749734e+02
2.290000e-06	1.487803e-06	2.603866e-09	2.079972e+01	1.716385e+02
2.300000e-06	1.415308e-06	2.562460e-09	1.978623e+01	1.681665e+02
2.310000e-06	1.342404e-06	2.496876e-09	1.876701e+01	1.645535e+02
2.320000e-06	1.269103e-06	2.438601e-09	1.774225e+01	1.607954e+02
2.330000e-06	1.195330e-06	2.381703e-09	1.671090e+01	1.568870e+02
2.340000e-06	1.121083e-06	2.319660e-09	1.567292e+01	1.528219e+02
2.350000e-06	1.046423e-06	2.258274e-09	1.462916e+01	1.485921e+02
2.360000e-06	9.714351e-07	2.197982e-09	1.358081e+01	1.441877e+02
2.370000e-06	8.960765e-07	2.125506e-09	1.252729e+01	1.395970e+02
2.380000e-06	8.204218e-07	2.039817e-09	1.146962e+01	1.348069e+02
2.390000e-06	7.445428e-07	1.967714e-09	1.040882e+01	1.298032e+02
2.400000e-06	6.683402e-07	1.898705e-09	9.343500e+00	1.245711e+02
2.410000e-06	5.918376e-07	1.810544e-09	8.273981e+00	1.190958e+02
2.420000e-06	5.151783e-07	1.713118e-09	7.202272e+00	1.133632e+02
2.430000e-06	4.383994e-07	1.625118e-09	6.128892e+00	1.073601e+02
2.440000e-06	3.614010e-07	1.539818e-09	5.052442e+00	1.010753e+02
2.450000e-06	2.842242e-07	1.438068e-09	3.973499e+00	9.449946e+01
2.460000e-06	2.068661e-07	1.325822e-09	2.892020e+00	8.762588e+01
2.470000e-06	1.292477e-07	1.217533e-09	1.806903e+00	8.045061e+01
2.480000e-06	5.155135e-08	1.107882e-09	7.206959e-01	7.297285e+01
2.490000e-06	-2.601391e-08	9.902271e-10	-3.636786e-01	6.519524e+01
2.500000e-06	-1.035080e-07	8.671917e-10	-1.447058e+00	5.712422e+01
2.510000e-06	-1.810322e-07	7.374505e-10	-2.530858e+00	4.877037e+01
2.520000e-06	-2.584257e-07	6.020918e-10	-3.612831e+00	4.014877e+01
2.530000e-06	-3.355039e-07	4.682229e-10	-4.690396e+00	3.127939e+01
2.540000e-06	-4.123847e-07	3.353849e-10	-5.765202e+00	2.218726e+01
2.550000e-06	-4.891026e-07	1.945597e-10	-6.837731e+00	1.290271e+01
2.560000e-06	-5.655520e-07	4.668063e-11	-7.906505e+00	3.461229e+00
2.570000e-06	-6.417893e-07	-9.758039e-11	-8.972313e+00	-6.096797e+00
2.580000e-06	-7.178236e-07	-2.385495e-10	-1.003529e+01	-1.572668e+01
2.590000e-06	-7.936086e-07	-3.860075e-10	-1.109477e+01	-2.538031e+01
2.600000e-06	-8.690983e-07	-5.371214e-10	-1.215013e+01	-3.500728e+01
2.610000e-06	-9.442032e-07	-6.827943e-10	-1.320011e+01	-4.455630e+01
2.620000e-06	-1.018952e-06	-8.236125e-10	-1.424510e+01	-5.397669e+01
2.630000e-06	-1.093361e-06	-9.615499e-10	-1.528536e+01	-6.322000e+01
2.640000e-06	-1.167378e-06	-1.097350e-09	-1.632013e+01	-7.224155e+01
2.650000e-06	-1.241008e-06	-1.231691e-09	-1.734949e+01	-8.100183e+01
2.660000e-06	-1.314201e-06	-1.364076e-09	-1.837273e+01	-8.946764e+01
2.670000e-06	-1.386931e-06	-1.489766e-09	-1.938951e+01	-9.761296e+01
2.680000e-06	-1.459302e-06	-1.607399e-09	-2.040127e+01	-1.054193e+02
2.690000e-06	-1.531363e-06	-1.723265e-09	-2.140869e+01	-1.128759e+02
2.700000e-06	-1.602966e-06	-1.837603e-09	-2.240971e+01	-1.199792e+02
2.710000e-06	-1.673829e-06	-1.942768e-09	-2.340039e+01	-1.267323e+02
2.720000e-06	-1.743743e-06	-2.036443e-09	-2.437780e+01	-1.331439e+02
2.730000e-06	-1.812802e-06	-2.126274e-09	-2.534326e+01	-1.392271e+02
2.740000e-06	-1.881263e-06	-2.215213e-09	-2.630035e+01	-1.449983e+02
2.750000e-06	-1.949197e-06	-2.301537e-09	-2.725008e+01	-1.504760e+02
2.760000e-06	-2.016523e-06	-2.382962e-09	-2.819130e+01	-1.556791e+02
2.770000e-06	-2.083184e-06	-2.458117e-09	-2.912324e+01	-1.606265e+02
2.780000e-06	-2.149166e-06	-2.530270e-09	-3.004567e+01	-1.653361e+02
2.790000e-06	-2.214400e-06	-2.601469e-09	-3.095766e+01	-1.698237e+02
2.800000e-06	-2.278933e-06	-2.668725e-09	-3.185984e+01	-1.741034e+02
2.810000e-06	-2.342816e-06	-2.729789e-09	-3.275293e+01	-1.781870e+02
2.820000e-06	-2.405762e-06	-2.787786e-09	-3.363293e+01	-1.820843e+02
2.830000e-06	-2.467495e-06	-2.845312e-09	-3.449597e+01	-1.858029e+02
2.840000e-06	-2.528221e-06	-2.902562e-09	-3.534492e+01	-1.893492e+02
2.850000e-06	-2.588212e-06	-2.956698e-09	-3.618361e+01	-1.927282e+02
2.860000e-06	-2.647404e-06	-3.006926e-09	-3.701112e+01	-1.959444e+02
2.870000e-06	-2.705659e-06	-3.054252e-09	-3.782553e+01	-1.990020e+02
2.880000e-06	-2.762946e-06	-3.099155e-09	-3.862641e+01	-2.019050e+02
2.890000e-06	-2.819364e-06	-3.142522e-09	-3.941514e+01	-2.046584e+02
2.900000e-06	-2.874864e-06	-3.184807e-09	-4.019105e+01	-2.072672e+02
2.910000e-06	-2.929069e-06	-3.224513e-09	-4.094885e+01	-2.097376e+02
2.920000e-06	-2.981869e-06	-3.259351e-09	-4.168699e+01	-2.120763e+02
2.930000e-06	-3.033433e-06	-3.291926e-09	-4.240786e+01	-2.142907e+02
2.940000e-06	-3.083839e-06	-3.326078e-09	-4.311255e+01	-2.163885e+02
