# Temperatura_=_20.0
# Concentracion g/m^3_=_9000.0
# C_Vs_to_Am_M_A/Vsm_=_65563218390.804596
# pendiente_HvsI_1/m_=_3716.3
# ordenada_HvsI_A/m_=_1297.0
# frecuencia_Hz_=_300794.1672694503

Tiempo_(s)	Campo_(V.s)	Magnetizacion_(V.s)	Campo_(kA/m)	Magnetizacion_(A/m)
0.000000e+00	-4.056301e-06	-3.813152e-09	-5.684293e+01	-2.489294e+02
1.000000e-08	-4.054706e-06	-3.816974e-09	-5.682057e+01	-2.489211e+02
2.000000e-08	-4.051564e-06	-3.815680e-09	-5.677654e+01	-2.488786e+02
3.000000e-08	-4.047292e-06	-3.812746e-09	-5.671667e+01	-2.488010e+02
4.000000e-08	-4.041792e-06	-3.811541e-09	-5.663960e+01	-2.486871e+02
5.000000e-08	-4.035002e-06	-3.808945e-09	-5.654445e+01	-2.485366e+02
6.000000e-08	-4.027065e-06	-3.803745e-09	-5.643322e+01	-2.483498e+02
7.000000e-08	-4.017670e-06	-3.788053e-09	-5.630157e+01	-2.481286e+02
8.000000e-08	-4.006514e-06	-3.788982e-09	-5.614523e+01	-2.478757e+02
9.000000e-08	-3.993595e-06	-3.837753e-09	-5.596419e+01	-2.475953e+02
1.000000e-07	-3.978643e-06	-3.858744e-09	-5.575467e+01	-2.472925e+02
1.100000e-07	-3.961814e-06	-3.842453e-09	-5.551883e+01	-2.469731e+02
1.200000e-07	-3.943725e-06	-3.715295e-09	-5.526535e+01	-2.466428e+02
1.300000e-07	-3.924723e-06	-3.668054e-09	-5.499905e+01	-2.463067e+02
1.400000e-07	-3.904793e-06	-3.837551e-09	-5.471977e+01	-2.459689e+02
1.500000e-07	-3.883830e-06	-3.815483e-09	-5.442601e+01	-2.456316e+02
1.600000e-07	-3.861806e-06	-3.718483e-09	-5.411737e+01	-2.452948e+02
1.700000e-07	-3.838219e-06	-3.736887e-09	-5.378683e+01	-2.449559e+02
1.800000e-07	-3.812752e-06	-3.667940e-09	-5.342996e+01	-2.446099e+02
1.900000e-07	-3.786104e-06	-3.705880e-09	-5.305652e+01	-2.442495e+02
2.000000e-07	-3.758463e-06	-3.849751e-09	-5.266918e+01	-2.438655e+02
2.100000e-07	-3.729298e-06	-3.691694e-09	-5.226047e+01	-2.434474e+02
2.200000e-07	-3.698810e-06	-3.584322e-09	-5.183323e+01	-2.429841e+02
2.300000e-07	-3.667358e-06	-3.746015e-09	-5.139247e+01	-2.424650e+02
2.400000e-07	-3.634645e-06	-3.753607e-09	-5.093406e+01	-2.418804e+02
2.500000e-07	-3.600361e-06	-3.656834e-09	-5.045361e+01	-2.412226e+02
2.600000e-07	-3.564590e-06	-3.594665e-09	-4.995234e+01	-2.404862e+02
2.700000e-07	-3.527622e-06	-3.589432e-09	-4.943429e+01	-2.396684e+02
2.800000e-07	-3.489555e-06	-3.675973e-09	-4.890084e+01	-2.387689e+02
2.900000e-07	-3.450321e-06	-3.640376e-09	-4.835103e+01	-2.377903e+02
3.000000e-07	-3.409906e-06	-3.537734e-09	-4.778468e+01	-2.367371e+02
3.100000e-07	-3.368027e-06	-3.569368e-09	-4.719780e+01	-2.356152e+02
3.200000e-07	-3.324694e-06	-3.546807e-09	-4.659055e+01	-2.344316e+02
3.300000e-07	-3.280281e-06	-3.528932e-09	-4.596818e+01	-2.331934e+02
3.400000e-07	-3.234777e-06	-3.563813e-09	-4.533051e+01	-2.319070e+02
3.500000e-07	-3.188007e-06	-3.485619e-09	-4.467510e+01	-2.305780e+02
3.600000e-07	-3.140084e-06	-3.407117e-09	-4.400352e+01	-2.292101e+02
3.700000e-07	-3.090968e-06	-3.476041e-09	-4.331524e+01	-2.278057e+02
3.800000e-07	-3.040329e-06	-3.504243e-09	-4.260561e+01	-2.263652e+02
3.900000e-07	-2.988161e-06	-3.375733e-09	-4.187456e+01	-2.248875e+02
4.000000e-07	-2.934890e-06	-3.339419e-09	-4.112804e+01	-2.233700e+02
4.100000e-07	-2.880772e-06	-3.400389e-09	-4.036966e+01	-2.218094e+02
4.200000e-07	-2.825756e-06	-3.368274e-09	-3.959869e+01	-2.202019e+02
4.300000e-07	-2.769843e-06	-3.288463e-09	-3.881516e+01	-2.185434e+02
4.400000e-07	-2.712772e-06	-3.275424e-09	-3.801540e+01	-2.168303e+02
4.500000e-07	-2.654337e-06	-3.273286e-09	-3.719652e+01	-2.150595e+02
4.600000e-07	-2.594965e-06	-3.237585e-09	-3.636451e+01	-2.132283e+02
4.700000e-07	-2.534902e-06	-3.195465e-09	-3.552282e+01	-2.113347e+02
4.800000e-07	-2.473965e-06	-3.172544e-09	-3.466888e+01	-2.093775e+02
4.900000e-07	-2.412115e-06	-3.141183e-09	-3.380215e+01	-2.073553e+02
5.000000e-07	-2.349431e-06	-3.104154e-09	-3.292372e+01	-2.052670e+02
5.100000e-07	-2.286119e-06	-3.088867e-09	-3.203651e+01	-2.031110e+02
5.200000e-07	-2.222126e-06	-3.047427e-09	-3.113973e+01	-2.008852e+02
5.300000e-07	-2.156959e-06	-2.996489e-09	-3.022653e+01	-1.985867e+02
5.400000e-07	-2.090613e-06	-2.966887e-09	-2.929678e+01	-1.962118e+02
5.500000e-07	-2.023591e-06	-2.955568e-09	-2.835756e+01	-1.937558e+02
5.600000e-07	-1.956124e-06	-2.908531e-09	-2.741212e+01	-1.912131e+02
5.700000e-07	-1.888087e-06	-2.839869e-09	-2.645869e+01	-1.885775e+02
5.800000e-07	-1.819350e-06	-2.813136e-09	-2.549544e+01	-1.858422e+02
5.900000e-07	-1.750001e-06	-2.794370e-09	-2.452362e+01	-1.830004e+02
6.000000e-07	-1.680098e-06	-2.738570e-09	-2.354404e+01	-1.800450e+02
6.100000e-07	-1.609547e-06	-2.668891e-09	-2.255537e+01	-1.769693e+02
6.200000e-07	-1.538420e-06	-2.631211e-09	-2.155863e+01	-1.737668e+02
6.300000e-07	-1.466951e-06	-2.593316e-09	-2.055710e+01	-1.704313e+02
6.400000e-07	-1.395185e-06	-2.534672e-09	-1.955141e+01	-1.669569e+02
6.500000e-07	-1.322908e-06	-2.473099e-09	-1.853855e+01	-1.633379e+02
6.600000e-07	-1.249820e-06	-2.419016e-09	-1.751434e+01	-1.595685e+02
6.700000e-07	-1.175947e-06	-2.362325e-09	-1.647912e+01	-1.556425e+02
6.800000e-07	-1.101534e-06	-2.301367e-09	-1.543633e+01	-1.515532e+02
6.900000e-07	-1.026616e-06	-2.239981e-09	-1.438647e+01	-1.472931e+02
7.000000e-07	-9.512221e-07	-2.164829e-09	-1.332994e+01	-1.428535e+02
7.100000e-07	-8.755431e-07	-2.086413e-09	-1.226941e+01	-1.382245e+02
7.200000e-07	-7.996939e-07	-2.017503e-09	-1.120650e+01	-1.333951e+02
7.300000e-07	-7.236721e-07	-1.949238e-09	-1.014117e+01	-1.283531e+02
7.400000e-07	-6.473363e-07	-1.860318e-09	-9.071439e+00	-1.230853e+02
7.500000e-07	-5.705943e-07	-1.768926e-09	-7.996016e+00	-1.175779e+02
7.600000e-07	-4.936052e-07	-1.690168e-09	-6.917130e+00	-1.118170e+02
7.700000e-07	-4.165008e-07	-1.605332e-09	-5.836628e+00	-1.057891e+02
7.800000e-07	-3.392912e-07	-1.503069e-09	-4.754653e+00	-9.948152e+01
7.900000e-07	-2.619515e-07	-1.396891e-09	-3.670854e+00	-9.288329e+01
8.000000e-07	-1.845470e-07	-1.298344e-09	-2.586147e+00	-8.598582e+01
8.100000e-07	-1.071151e-07	-1.190649e-09	-1.501056e+00	-7.878351e+01
8.200000e-07	-2.962558e-08	-1.072459e-09	-4.151578e-01	-7.127443e+01
8.300000e-07	4.788643e-08	-9.509911e-10	6.710559e-01	-6.346092e+01
8.400000e-07	1.253980e-07	-8.284582e-10	1.757263e+00	-5.535010e+01
8.500000e-07	2.028563e-07	-6.998642e-10	2.842724e+00	-4.695423e+01
8.600000e-07	2.802255e-07	-5.673189e-10	3.926937e+00	-3.829097e+01
8.700000e-07	3.574726e-07	-4.323139e-10	5.009438e+00	-2.938347e+01
8.800000e-07	4.345779e-07	-2.879537e-10	6.089952e+00	-2.026029e+01
8.900000e-07	5.115030e-07	-1.434049e-10	7.167941e+00	-1.095510e+01
9.000000e-07	5.882065e-07	-2.090580e-12	8.242824e+00	-1.506273e+00
9.100000e-07	6.647222e-07	1.427590e-10	9.315076e+00	8.043817e+00
9.200000e-07	7.410466e-07	2.957353e-10	1.038465e+01	1.764960e+01
9.300000e-07	8.171110e-07	4.449513e-10	1.145057e+01	2.726328e+01
9.400000e-07	8.928856e-07	5.856507e-10	1.251244e+01	3.683598e+01
9.500000e-07	9.683961e-07	7.280426e-10	1.357061e+01	4.631890e+01
9.600000e-07	1.043569e-06	8.736337e-10	1.462405e+01	5.566460e+01
9.700000e-07	1.118274e-06	1.016315e-09	1.567092e+01	6.482822e+01
9.800000e-07	1.192403e-06	1.151071e-09	1.670972e+01	7.376862e+01
9.900000e-07	1.265804e-06	1.282897e-09	1.773833e+01	8.244949e+01
1.000000e-06	1.338479e-06	1.412922e-09	1.875676e+01	9.084016e+01
1.010000e-06	1.410615e-06	1.538626e-09	1.976763e+01	9.891631e+01
1.020000e-06	1.482311e-06	1.657809e-09	2.077234e+01	1.066603e+02
1.030000e-06	1.553588e-06	1.770385e-09	2.177118e+01	1.140614e+02
1.040000e-06	1.624405e-06	1.874974e-09	2.276358e+01	1.211154e+02
1.050000e-06	1.694701e-06	1.975086e-09	2.374868e+01	1.278244e+02
1.060000e-06	1.764411e-06	2.073237e-09	2.472555e+01	1.341960e+02
1.070000e-06	1.833459e-06	2.165006e-09	2.569315e+01	1.402423e+02
1.080000e-06	1.901860e-06	2.250613e-09	2.665169e+01	1.459790e+02
1.090000e-06	1.969684e-06	2.330324e-09	2.760214e+01	1.514241e+02
1.100000e-06	2.037014e-06	2.407943e-09	2.854568e+01	1.565968e+02
1.110000e-06	2.103688e-06	2.484251e-09	2.948000e+01	1.615167e+02
1.120000e-06	2.169291e-06	2.555374e-09	3.039933e+01	1.662021e+02
1.130000e-06	2.233776e-06	2.621943e-09	3.130299e+01	1.706700e+02
1.140000e-06	2.297519e-06	2.687762e-09	3.219625e+01	1.749351e+02
1.150000e-06	2.360684e-06	2.752681e-09	3.308142e+01	1.790099e+02
1.160000e-06	2.423089e-06	2.810125e-09	3.395593e+01	1.829039e+02
1.170000e-06	2.484690e-06	2.863382e-09	3.481917e+01	1.866245e+02
1.180000e-06	2.545490e-06	2.915798e-09	3.567120e+01	1.901772e+02
1.190000e-06	2.605530e-06	2.966389e-09	3.651256e+01	1.935658e+02
1.200000e-06	2.664883e-06	3.013896e-09	3.734430e+01	1.967933e+02
1.210000e-06	2.723264e-06	3.058641e-09	3.816242e+01	1.998623e+02
1.220000e-06	2.780286e-06	3.101487e-09	3.896151e+01	2.027759e+02
1.230000e-06	2.836131e-06	3.140996e-09	3.974408e+01	2.055376e+02
1.240000e-06	2.891113e-06	3.177701e-09	4.051457e+01	2.081520e+02
1.250000e-06	2.945155e-06	3.213491e-09	4.127190e+01	2.106251e+02
1.260000e-06	2.998162e-06	3.248211e-09	4.201471e+01	2.129636e+02
1.270000e-06	3.050048e-06	3.278981e-09	4.274181e+01	2.151756e+02
1.280000e-06	3.100588e-06	3.308959e-09	4.345006e+01	2.172696e+02
1.290000e-06	3.149576e-06	3.338340e-09	4.413655e+01	2.192544e+02
1.300000e-06	3.197233e-06	3.364873e-09	4.480438e+01	2.211388e+02
1.310000e-06	3.243814e-06	3.389383e-09	4.545715e+01	2.229311e+02
1.320000e-06	3.289323e-06	3.415842e-09	4.609489e+01	2.246385e+02
1.330000e-06	3.333794e-06	3.441553e-09	4.671808e+01	2.262673e+02
1.340000e-06	3.377280e-06	3.463144e-09	4.732747e+01	2.278227e+02
1.350000e-06	3.419556e-06	3.483446e-09	4.791991e+01	2.293087e+02
1.360000e-06	3.460361e-06	3.505010e-09	4.849172e+01	2.307281e+02
1.370000e-06	3.499859e-06	3.526893e-09	4.904523e+01	2.320831e+02
1.380000e-06	3.538179e-06	3.544488e-09	4.958223e+01	2.333753e+02
1.390000e-06	3.575282e-06	3.560359e-09	5.010216e+01	2.346061e+02
1.400000e-06	3.611315e-06	3.578343e-09	5.060711e+01	2.357768e+02
1.410000e-06	3.646241e-06	3.596450e-09	5.109656e+01	2.368892e+02
1.420000e-06	3.679645e-06	3.611675e-09	5.156466e+01	2.379450e+02
1.430000e-06	3.711603e-06	3.625358e-09	5.201250e+01	2.389467e+02
1.440000e-06	3.742342e-06	3.641519e-09	5.244326e+01	2.398966e+02
1.450000e-06	3.771822e-06	3.658334e-09	5.285639e+01	2.407976e+02
1.460000e-06	3.800137e-06	3.672046e-09	5.325317e+01	2.416521e+02
1.470000e-06	3.827292e-06	3.683098e-09	5.363371e+01	2.424623e+02
1.480000e-06	3.852862e-06	3.694873e-09	5.399203e+01	2.432300e+02
1.490000e-06	3.876789e-06	3.707439e-09	5.432734e+01	2.439563e+02
1.500000e-06	3.899398e-06	3.719714e-09	5.464416e+01	2.446414e+02
1.510000e-06	3.920716e-06	3.731183e-09	5.494290e+01	2.452852e+02
1.520000e-06	3.940850e-06	3.741151e-09	5.522505e+01	2.458867e+02
1.530000e-06	3.959773e-06	3.749673e-09	5.549023e+01	2.464449e+02
1.540000e-06	3.977251e-06	3.757191e-09	5.573515e+01	2.469586e+02
1.550000e-06	3.993276e-06	3.764271e-09	5.595972e+01	2.474266e+02
1.560000e-06	4.007827e-06	3.771078e-09	5.616363e+01	2.478484e+02
1.570000e-06	4.020820e-06	3.777335e-09	5.634571e+01	2.482240e+02
1.580000e-06	4.032306e-06	3.782573e-09	5.650668e+01	2.485542e+02
1.590000e-06	4.042056e-06	3.788214e-09	5.664330e+01	2.488403e+02
1.600000e-06	4.050172e-06	3.794739e-09	5.675703e+01	2.490841e+02
1.610000e-06	4.056950e-06	3.800887e-09	5.685202e+01	2.492880e+02
1.620000e-06	4.062339e-06	3.805621e-09	5.692754e+01	2.494544e+02
1.630000e-06	4.066470e-06	3.808254e-09	5.698543e+01	2.495852e+02
1.640000e-06	4.069297e-06	3.811220e-09	5.702505e+01	2.496822e+02
1.650000e-06	4.070471e-06	3.814634e-09	5.704150e+01	2.497465e+02
1.660000e-06	4.070171e-06	3.816317e-09	5.703729e+01	2.497782e+02
1.670000e-06	4.068611e-06	3.812842e-09	5.701542e+01	2.497771e+02
1.680000e-06	4.065700e-06	3.809250e-09	5.697463e+01	2.497421e+02
1.690000e-06	4.061671e-06	3.807199e-09	5.691817e+01	2.496722e+02
1.700000e-06	4.056460e-06	3.807977e-09	5.684516e+01	2.495662e+02
1.710000e-06	4.049647e-06	3.807496e-09	5.674968e+01	2.494235e+02
1.720000e-06	4.041425e-06	3.805446e-09	5.663446e+01	2.492445e+02
1.730000e-06	4.032091e-06	3.822180e-09	5.650366e+01	2.490305e+02
1.740000e-06	4.021584e-06	3.794371e-09	5.635642e+01	2.487841e+02
1.750000e-06	4.009281e-06	3.729054e-09	5.618401e+01	2.485093e+02
1.760000e-06	3.994492e-06	3.708143e-09	5.597677e+01	2.482109e+02
1.770000e-06	3.977577e-06	3.753295e-09	5.573973e+01	2.478946e+02
1.780000e-06	3.959579e-06	3.891071e-09	5.548751e+01	2.475662e+02
1.790000e-06	3.941328e-06	3.831520e-09	5.523175e+01	2.472310e+02
1.800000e-06	3.922180e-06	3.669241e-09	5.496342e+01	2.468934e+02
1.810000e-06	3.900838e-06	3.790721e-09	5.466435e+01	2.465560e+02
1.820000e-06	3.878043e-06	3.773026e-09	5.434491e+01	2.462192e+02
1.830000e-06	3.854562e-06	3.755206e-09	5.401586e+01	2.458811e+02
1.840000e-06	3.829387e-06	3.887741e-09	5.366307e+01	2.455373e+02
1.850000e-06	3.802546e-06	3.705413e-09	5.328694e+01	2.451808e+02
1.860000e-06	3.774845e-06	3.633521e-09	5.289875e+01	2.448027e+02
1.870000e-06	3.745968e-06	3.857090e-09	5.249407e+01	2.443929e+02
1.880000e-06	3.715403e-06	3.764097e-09	5.206576e+01	2.439402e+02
1.890000e-06	3.683302e-06	3.605906e-09	5.161591e+01	2.434340e+02
1.900000e-06	3.649913e-06	3.745807e-09	5.114801e+01	2.428642e+02
1.910000e-06	3.615509e-06	3.742852e-09	5.066589e+01	2.422228e+02
1.920000e-06	3.579949e-06	3.704989e-09	5.016757e+01	2.415036e+02
1.930000e-06	3.543150e-06	3.671848e-09	4.965189e+01	2.407033e+02
1.940000e-06	3.505227e-06	3.593873e-09	4.912046e+01	2.398213e+02
1.950000e-06	3.465719e-06	3.690534e-09	4.856682e+01	2.388594e+02
1.960000e-06	3.424660e-06	3.626692e-09	4.799143e+01	2.378217e+02
1.970000e-06	3.382636e-06	3.564425e-09	4.740253e+01	2.367141e+02
1.980000e-06	3.339605e-06	3.667121e-09	4.679951e+01	2.355432e+02
1.990000e-06	3.295464e-06	3.518396e-09	4.618094e+01	2.343161e+02
2.000000e-06	3.250314e-06	3.499610e-09	4.554823e+01	2.330396e+02
2.010000e-06	3.204086e-06	3.621089e-09	4.490042e+01	2.317194e+02
2.020000e-06	3.156514e-06	3.517665e-09	4.423376e+01	2.303597e+02
2.030000e-06	3.107472e-06	3.435257e-09	4.354652e+01	2.289630e+02
2.040000e-06	3.057455e-06	3.448227e-09	4.284560e+01	2.275304e+02
2.050000e-06	3.006507e-06	3.513621e-09	4.213165e+01	2.260608e+02
2.060000e-06	2.954365e-06	3.431782e-09	4.140096e+01	2.245522e+02
2.070000e-06	2.900869e-06	3.326229e-09	4.065129e+01	2.230012e+02
2.080000e-06	2.845881e-06	3.393421e-09	3.988072e+01	2.214041e+02
2.090000e-06	2.789781e-06	3.369735e-09	3.909456e+01	2.197569e+02
2.100000e-06	2.732768e-06	3.304885e-09	3.829561e+01	2.180559e+02
2.110000e-06	2.674844e-06	3.280301e-09	3.748389e+01	2.162977e+02
2.120000e-06	2.616086e-06	3.270164e-09	3.666049e+01	2.144796e+02
2.130000e-06	2.556453e-06	3.258279e-09	3.582482e+01	2.125997e+02
2.140000e-06	2.496094e-06	3.186869e-09	3.497898e+01	2.106563e+02
2.150000e-06	2.434938e-06	3.189523e-09	3.412197e+01	2.086481e+02
2.160000e-06	2.372578e-06	3.170316e-09	3.324810e+01	2.065741e+02
2.170000e-06	2.309045e-06	3.090259e-09	3.235778e+01	2.044328e+02
2.180000e-06	2.244819e-06	3.084620e-09	3.145774e+01	2.022223e+02
2.190000e-06	2.180022e-06	3.063783e-09	3.054971e+01	1.999397e+02
2.200000e-06	2.114372e-06	3.014569e-09	2.962973e+01	1.975816e+02
2.210000e-06	2.047936e-06	2.951712e-09	2.869872e+01	1.951435e+02
2.220000e-06	1.980901e-06	2.935623e-09	2.775934e+01	1.926199e+02
2.230000e-06	1.913182e-06	2.924362e-09	2.681035e+01	1.900048e+02
2.240000e-06	1.844888e-06	2.836416e-09	2.585331e+01	1.872915e+02
2.250000e-06	1.776026e-06	2.797414e-09	2.488831e+01	1.844732e+02
2.260000e-06	1.706396e-06	2.778379e-09	2.391256e+01	1.815428e+02
2.270000e-06	1.635749e-06	2.727321e-09	2.292255e+01	1.784935e+02
2.280000e-06	1.564170e-06	2.658409e-09	2.191947e+01	1.753187e+02
2.290000e-06	1.492145e-06	2.610314e-09	2.091015e+01	1.720123e+02
2.300000e-06	1.419836e-06	2.578139e-09	1.989686e+01	1.685682e+02
2.310000e-06	1.347197e-06	2.509693e-09	1.887892e+01	1.649807e+02
2.320000e-06	1.274110e-06	2.452890e-09	1.785473e+01	1.612441e+02
2.330000e-06	1.200558e-06	2.401100e-09	1.682401e+01	1.573522e+02
2.340000e-06	1.126583e-06	2.334166e-09	1.578736e+01	1.532986e+02
2.350000e-06	1.052185e-06	2.266414e-09	1.474479e+01	1.490758e+02
2.360000e-06	9.774471e-07	2.210143e-09	1.369744e+01	1.446755e+02
2.370000e-06	9.023332e-07	2.146802e-09	1.264483e+01	1.400880e+02
2.380000e-06	8.268763e-07	2.054352e-09	1.158742e+01	1.353026e+02
2.390000e-06	7.511658e-07	1.975605e-09	1.052645e+01	1.303073e+02
2.400000e-06	6.751729e-07	1.912669e-09	9.461527e+00	1.250891e+02
2.410000e-06	5.989144e-07	1.827697e-09	8.392879e+00	1.196343e+02
2.420000e-06	5.224689e-07	1.725759e-09	7.321611e+00	1.139289e+02
2.430000e-06	4.458960e-07	1.635481e-09	6.248558e+00	1.079594e+02
2.440000e-06	3.690807e-07	1.552806e-09	5.172107e+00	1.017128e+02
2.450000e-06	2.920731e-07	1.451594e-09	4.092962e+00	9.517769e+01
2.460000e-06	2.150080e-07	1.337995e-09	3.013012e+00	8.834499e+01
2.470000e-06	1.378089e-07	1.233030e-09	1.931183e+00	8.120834e+01
2.480000e-06	6.047299e-08	1.123546e-09	8.474375e-01	7.376501e+01
2.490000e-06	-1.686219e-08	1.000764e-09	-2.362980e-01	6.601636e+01
2.500000e-06	-9.409545e-08	8.786828e-10	-1.318605e+00	5.796845e+01
2.510000e-06	-1.712911e-07	7.557947e-10	-2.400385e+00	4.963242e+01
2.520000e-06	-2.484131e-07	6.233481e-10	-3.481134e+00	4.102475e+01
2.530000e-06	-3.253248e-07	4.862205e-10	-4.558935e+00	3.216741e+01
2.540000e-06	-4.020728e-07	3.512356e-10	-5.634442e+00	2.308783e+01
2.550000e-06	-4.786569e-07	2.109492e-10	-6.707653e+00	1.381862e+01
2.560000e-06	-5.550148e-07	6.556051e-11	-7.777693e+00	4.397186e+00
2.570000e-06	-6.311389e-07	-7.732227e-11	-8.844457e+00	-5.134894e+00
2.580000e-06	-7.070230e-07	-2.187397e-10	-9.907857e+00	-1.473265e+01
2.590000e-06	-7.826827e-07	-3.676867e-10	-1.096811e+01	-2.434868e+01
2.600000e-06	-8.580335e-07	-5.189820e-10	-1.202404e+01	-3.393424e+01
2.610000e-06	-9.330300e-07	-6.602484e-10	-1.307501e+01	-4.344041e+01
2.620000e-06	-1.007684e-06	-7.995299e-10	-1.412117e+01	-5.281934e+01
2.630000e-06	-1.081999e-06	-9.420069e-10	-1.516258e+01	-6.202553e+01
2.640000e-06	-1.155984e-06	-1.079801e-09	-1.619936e+01	-7.101695e+01
2.650000e-06	-1.229556e-06	-1.207784e-09	-1.723036e+01	-7.975616e+01
2.660000e-06	-1.302652e-06	-1.335489e-09	-1.825470e+01	-8.821124e+01
2.670000e-06	-1.375277e-06	-1.465104e-09	-1.927242e+01	-9.635645e+01
2.680000e-06	-1.447533e-06	-1.587805e-09	-2.028499e+01	-1.041727e+02
2.690000e-06	-1.519469e-06	-1.703041e-09	-2.129306e+01	-1.116478e+02
2.700000e-06	-1.590918e-06	-1.812991e-09	-2.229431e+01	-1.187762e+02
2.710000e-06	-1.661658e-06	-1.918077e-09	-2.328563e+01	-1.255586e+02
2.720000e-06	-1.731491e-06	-2.015878e-09	-2.426423e+01	-1.320016e+02
2.730000e-06	-1.800460e-06	-2.108611e-09	-2.523072e+01	-1.381163e+02
2.740000e-06	-1.868844e-06	-2.197312e-09	-2.618902e+01	-1.439178e+02
2.750000e-06	-1.936693e-06	-2.282204e-09	-2.713983e+01	-1.494237e+02
2.760000e-06	-2.003921e-06	-2.363827e-09	-2.808192e+01	-1.546531e+02
2.770000e-06	-2.070521e-06	-2.440820e-09	-2.901522e+01	-1.596255e+02
2.780000e-06	-2.136425e-06	-2.512596e-09	-2.993877e+01	-1.643596e+02
2.790000e-06	-2.201579e-06	-2.580812e-09	-3.085179e+01	-1.688727e+02
2.800000e-06	-2.266047e-06	-2.647801e-09	-3.175522e+01	-1.731802e+02
2.810000e-06	-2.329826e-06	-2.710340e-09	-3.264898e+01	-1.772948e+02
2.820000e-06	-2.392671e-06	-2.769894e-09	-3.352967e+01	-1.812267e+02
2.830000e-06	-2.454350e-06	-2.828949e-09	-3.439401e+01	-1.849840e+02
2.840000e-06	-2.515043e-06	-2.886227e-09	-3.524452e+01	-1.885722e+02
2.850000e-06	-2.574978e-06	-2.938242e-09	-3.608442e+01	-1.919956e+02
2.860000e-06	-2.634130e-06	-2.988048e-09	-3.691335e+01	-1.952574e+02
2.870000e-06	-2.692372e-06	-3.037824e-09	-3.772952e+01	-1.983601e+02
2.880000e-06	-2.749648e-06	-3.084191e-09	-3.853215e+01	-2.013066e+02
2.890000e-06	-2.806054e-06	-3.127473e-09	-3.932260e+01	-2.041004e+02
2.900000e-06	-2.861499e-06	-3.168936e-09	-4.009958e+01	-2.067460e+02
2.910000e-06	-2.915613e-06	-3.210132e-09	-4.085790e+01	-2.092487e+02
2.920000e-06	-2.968342e-06	-3.247805e-09	-4.159682e+01	-2.116154e+02
2.930000e-06	-3.019912e-06	-3.280734e-09	-4.231949e+01	-2.138537e+02
2.940000e-06	-3.070368e-06	-3.313008e-09	-4.302656e+01	-2.159722e+02
