# Temperatura_=_20.0
# Concentracion g/m^3_=_9000.0
# C_Vs_to_Am_M_A/Vsm_=_65563218390.804596
# pendiente_HvsI_1/m_=_3716.3
# ordenada_HvsI_A/m_=_1297.0
# frecuencia_Hz_=_300794.4145616729

Tiempo_(s)	Campo_(V.s)	Magnetizacion_(V.s)	Campo_(kA/m)	Magnetizacion_(A/m)
0.000000e+00	-4.070978e-06	-3.800645e-09	-5.684668e+01	-2.487426e+02
1.000000e-08	-4.069348e-06	-3.804312e-09	-5.682392e+01	-2.487470e+02
2.000000e-08	-4.066173e-06	-3.803577e-09	-5.677958e+01	-2.487226e+02
3.000000e-08	-4.061832e-06	-3.801263e-09	-5.671897e+01	-2.486681e+02
4.000000e-08	-4.056231e-06	-3.799866e-09	-5.664075e+01	-2.485815e+02
5.000000e-08	-4.049305e-06	-3.798349e-09	-5.654404e+01	-2.484600e+02
6.000000e-08	-4.041256e-06	-3.794355e-09	-5.643164e+01	-2.483007e+02
7.000000e-08	-4.031774e-06	-3.780689e-09	-5.629924e+01	-2.481012e+02
8.000000e-08	-4.020534e-06	-3.781212e-09	-5.614228e+01	-2.478600e+02
9.000000e-08	-4.007433e-06	-3.825714e-09	-5.595934e+01	-2.475772e+02
1.000000e-07	-3.992205e-06	-3.848119e-09	-5.574670e+01	-2.472548e+02
1.100000e-07	-3.975162e-06	-3.831276e-09	-5.550871e+01	-2.468969e+02
1.200000e-07	-3.956938e-06	-3.714550e-09	-5.525424e+01	-2.465098e+02
1.300000e-07	-3.937823e-06	-3.661984e-09	-5.498731e+01	-2.461011e+02
1.400000e-07	-3.917740e-06	-3.813445e-09	-5.470689e+01	-2.456794e+02
1.500000e-07	-3.896563e-06	-3.813566e-09	-5.441117e+01	-2.452534e+02
1.600000e-07	-3.874331e-06	-3.712636e-09	-5.410072e+01	-2.448304e+02
1.700000e-07	-3.850553e-06	-3.712513e-09	-5.376869e+01	-2.444156e+02
1.800000e-07	-3.824864e-06	-3.668188e-09	-5.340997e+01	-2.440112e+02
1.900000e-07	-3.798022e-06	-3.708679e-09	-5.303516e+01	-2.436154e+02
2.000000e-07	-3.770171e-06	-3.823194e-09	-5.264624e+01	-2.432226e+02
2.100000e-07	-3.740825e-06	-3.677536e-09	-5.223646e+01	-2.428230e+02
2.200000e-07	-3.710256e-06	-3.579661e-09	-5.180959e+01	-2.424036e+02
2.300000e-07	-3.678682e-06	-3.731108e-09	-5.136870e+01	-2.419492e+02
2.400000e-07	-3.645776e-06	-3.765674e-09	-5.090920e+01	-2.414431e+02
2.500000e-07	-3.611248e-06	-3.663991e-09	-5.042705e+01	-2.408696e+02
2.600000e-07	-3.575247e-06	-3.576882e-09	-4.992434e+01	-2.402145e+02
2.700000e-07	-3.538051e-06	-3.596072e-09	-4.940495e+01	-2.394669e+02
2.800000e-07	-3.499747e-06	-3.690259e-09	-4.887007e+01	-2.386200e+02
2.900000e-07	-3.460292e-06	-3.629399e-09	-4.831913e+01	-2.376717e+02
3.000000e-07	-3.419634e-06	-3.536224e-09	-4.775138e+01	-2.366248e+02
3.100000e-07	-3.377525e-06	-3.576869e-09	-4.716338e+01	-2.354860e+02
3.200000e-07	-3.333971e-06	-3.544096e-09	-4.655520e+01	-2.342658e+02
3.300000e-07	-3.289313e-06	-3.528464e-09	-4.593159e+01	-2.329764e+02
3.400000e-07	-3.243578e-06	-3.564399e-09	-4.529296e+01	-2.316310e+02
3.500000e-07	-3.196611e-06	-3.474531e-09	-4.463711e+01	-2.302417e+02
3.600000e-07	-3.148487e-06	-3.401773e-09	-4.396512e+01	-2.288187e+02
3.700000e-07	-3.099146e-06	-3.484942e-09	-4.327613e+01	-2.273694e+02
3.800000e-07	-3.048281e-06	-3.498350e-09	-4.256585e+01	-2.258971e+02
3.900000e-07	-2.995911e-06	-3.362542e-09	-4.183456e+01	-2.244018e+02
4.000000e-07	-2.942425e-06	-3.335624e-09	-4.108769e+01	-2.228800e+02
4.100000e-07	-2.888081e-06	-3.398523e-09	-4.032884e+01	-2.213253e+02
4.200000e-07	-2.832835e-06	-3.361935e-09	-3.955739e+01	-2.197299e+02
4.300000e-07	-2.776650e-06	-3.282401e-09	-3.877283e+01	-2.180850e+02
4.400000e-07	-2.719249e-06	-3.272924e-09	-3.797129e+01	-2.163826e+02
4.500000e-07	-2.660564e-06	-3.269573e-09	-3.715182e+01	-2.146157e+02
4.600000e-07	-2.600965e-06	-3.229491e-09	-3.631959e+01	-2.127791e+02
4.700000e-07	-2.540592e-06	-3.190382e-09	-3.547653e+01	-2.108701e+02
4.800000e-07	-2.479412e-06	-3.170507e-09	-3.462223e+01	-2.088877e+02
4.900000e-07	-2.417371e-06	-3.132513e-09	-3.375590e+01	-2.068326e+02
5.000000e-07	-2.354485e-06	-3.094227e-09	-3.287777e+01	-2.047063e+02
5.100000e-07	-2.290951e-06	-3.081906e-09	-3.199058e+01	-2.025104e+02
5.200000e-07	-2.226633e-06	-3.039469e-09	-3.109245e+01	-2.002461e+02
5.300000e-07	-2.161106e-06	-2.988385e-09	-3.017744e+01	-1.979127e+02
5.400000e-07	-2.094455e-06	-2.963591e-09	-2.924673e+01	-1.955081e+02
5.500000e-07	-2.027178e-06	-2.947579e-09	-2.830729e+01	-1.930278e+02
5.600000e-07	-1.959443e-06	-2.894007e-09	-2.736143e+01	-1.904657e+02
5.700000e-07	-1.891083e-06	-2.833174e-09	-2.640687e+01	-1.878140e+02
5.800000e-07	-1.822100e-06	-2.809371e-09	-2.544360e+01	-1.850637e+02
5.900000e-07	-1.752591e-06	-2.780482e-09	-2.447299e+01	-1.822059e+02
6.000000e-07	-1.682474e-06	-2.718110e-09	-2.349388e+01	-1.792317e+02
6.100000e-07	-1.611638e-06	-2.654835e-09	-2.250473e+01	-1.761334e+02
6.200000e-07	-1.540274e-06	-2.623916e-09	-2.150821e+01	-1.729043e+02
6.300000e-07	-1.468600e-06	-2.582268e-09	-2.050737e+01	-1.695393e+02
6.400000e-07	-1.396517e-06	-2.515830e-09	-1.950080e+01	-1.660344e+02
6.500000e-07	-1.323795e-06	-2.454985e-09	-1.848532e+01	-1.623864e+02
6.600000e-07	-1.250267e-06	-2.407570e-09	-1.745859e+01	-1.585921e+02
6.700000e-07	-1.176038e-06	-2.352678e-09	-1.642206e+01	-1.546480e+02
6.800000e-07	-1.101294e-06	-2.286822e-09	-1.537835e+01	-1.505493e+02
6.900000e-07	-1.026093e-06	-2.218939e-09	-1.432825e+01	-1.462893e+02
7.000000e-07	-9.505070e-07	-2.143340e-09	-1.327277e+01	-1.418592e+02
7.100000e-07	-8.746098e-07	-2.072534e-09	-1.221295e+01	-1.372481e+02
7.200000e-07	-7.984648e-07	-2.009361e-09	-1.114967e+01	-1.324425e+02
7.300000e-07	-7.220547e-07	-1.935900e-09	-1.008269e+01	-1.274275e+02
7.400000e-07	-6.453436e-07	-1.842908e-09	-9.011505e+00	-1.221870e+02
7.500000e-07	-5.683033e-07	-1.757864e-09	-7.935723e+00	-1.167044e+02
7.600000e-07	-4.910284e-07	-1.685581e-09	-6.856665e+00	-1.109640e+02
7.700000e-07	-4.136934e-07	-1.596895e-09	-5.776768e+00	-1.049511e+02
7.800000e-07	-3.362404e-07	-1.486280e-09	-4.695223e+00	-9.865341e+01
7.900000e-07	-2.585837e-07	-1.379036e-09	-3.610834e+00	-9.206134e+01
8.000000e-07	-1.808278e-07	-1.286294e-09	-2.525059e+00	-8.516860e+01
8.100000e-07	-1.030694e-07	-1.182046e-09	-1.439250e+00	-7.797254e+01
8.200000e-07	-2.529760e-08	-1.060139e-09	-3.532529e-01	-7.047433e+01
8.300000e-07	5.249122e-08	-9.354453e-10	7.329815e-01	-6.267909e+01
8.400000e-07	1.302957e-07	-8.164502e-10	1.819434e+00	-5.459598e+01
8.500000e-07	2.080218e-07	-6.933446e-10	2.904793e+00	-4.623827e+01
8.600000e-07	2.856236e-07	-5.620870e-10	3.988415e+00	-3.762342e+01
8.700000e-07	3.631058e-07	-4.223162e-10	5.070369e+00	-2.877318e+01
8.800000e-07	4.404249e-07	-2.758241e-10	6.150044e+00	-1.971374e+01
8.900000e-07	5.176282e-07	-1.360058e-10	7.228102e+00	-1.047575e+01
9.000000e-07	5.946652e-07	8.224639e-13	8.303838e+00	-1.094301e+00
9.100000e-07	6.714043e-07	1.465080e-10	9.375414e+00	8.391285e+00
9.200000e-07	7.478560e-07	3.016531e-10	1.044298e+01	1.793789e+01
9.300000e-07	8.240862e-07	4.491740e-10	1.150745e+01	2.749929e+01
9.400000e-07	9.000803e-07	5.871909e-10	1.256862e+01	3.702713e+01
9.500000e-07	9.758108e-07	7.289700e-10	1.362611e+01	4.647216e+01
9.600000e-07	1.051251e-06	8.760460e-10	1.467954e+01	5.578565e+01
9.700000e-07	1.126315e-06	1.019135e-09	1.572773e+01	6.492093e+01
9.800000e-07	1.200888e-06	1.152842e-09	1.676906e+01	7.383496e+01
9.900000e-07	1.274759e-06	1.284056e-09	1.780059e+01	8.248974e+01
1.000000e-06	1.347796e-06	1.413744e-09	1.882047e+01	9.085352e+01
1.010000e-06	1.420105e-06	1.537965e-09	1.983018e+01	9.890167e+01
1.020000e-06	1.491906e-06	1.656214e-09	2.083280e+01	1.066171e+02
1.030000e-06	1.563377e-06	1.768427e-09	2.183082e+01	1.139905e+02
1.040000e-06	1.634438e-06	1.872268e-09	2.282310e+01	1.210195e+02
1.050000e-06	1.704906e-06	1.971660e-09	2.380712e+01	1.277083e+02
1.060000e-06	1.774756e-06	2.068939e-09	2.478249e+01	1.340665e+02
1.070000e-06	1.844010e-06	2.160234e-09	2.574955e+01	1.401076e+02
1.080000e-06	1.912596e-06	2.244905e-09	2.670728e+01	1.458479e+02
1.090000e-06	1.980550e-06	2.324205e-09	2.765618e+01	1.513052e+02
1.100000e-06	2.048040e-06	2.402494e-09	2.859860e+01	1.564974e+02
1.110000e-06	2.114931e-06	2.478342e-09	2.953265e+01	1.614420e+02
1.120000e-06	2.180762e-06	2.549689e-09	3.045191e+01	1.661547e+02
1.130000e-06	2.245422e-06	2.616675e-09	3.135482e+01	1.706498e+02
1.140000e-06	2.309283e-06	2.681790e-09	3.224657e+01	1.749396e+02
1.150000e-06	2.372576e-06	2.743206e-09	3.313038e+01	1.790346e+02
1.160000e-06	2.435173e-06	2.800104e-09	3.400448e+01	1.829436e+02
1.170000e-06	2.496957e-06	2.856412e-09	3.486722e+01	1.866742e+02
1.180000e-06	2.557916e-06	2.910743e-09	3.571845e+01	1.902330e+02
1.190000e-06	2.618039e-06	2.962452e-09	3.655800e+01	1.936261e+02
1.200000e-06	2.677462e-06	3.010614e-09	3.738777e+01	1.968590e+02
1.210000e-06	2.735941e-06	3.056157e-09	3.820437e+01	1.999370e+02
1.220000e-06	2.793048e-06	3.099615e-09	3.900180e+01	2.028656e+02
1.230000e-06	2.848995e-06	3.140561e-09	3.978305e+01	2.056499e+02
1.240000e-06	2.904098e-06	3.178041e-09	4.055249e+01	2.082954e+02
1.250000e-06	2.958274e-06	3.213593e-09	4.130900e+01	2.108073e+02
1.260000e-06	3.011431e-06	3.248153e-09	4.205128e+01	2.131909e+02
1.270000e-06	3.063480e-06	3.282454e-09	4.277809e+01	2.154516e+02
1.280000e-06	3.114178e-06	3.315502e-09	4.348603e+01	2.175949e+02
1.290000e-06	3.163316e-06	3.344177e-09	4.417218e+01	2.196264e+02
1.300000e-06	3.211121e-06	3.371017e-09	4.483974e+01	2.215519e+02
1.310000e-06	3.257864e-06	3.398278e-09	4.549244e+01	2.233773e+02
1.320000e-06	3.303497e-06	3.424669e-09	4.612966e+01	2.251087e+02
1.330000e-06	3.348028e-06	3.447055e-09	4.675149e+01	2.267523e+02
1.340000e-06	3.391584e-06	3.466696e-09	4.735970e+01	2.283140e+02
1.350000e-06	3.433925e-06	3.489290e-09	4.795094e+01	2.297995e+02
1.360000e-06	3.474715e-06	3.514364e-09	4.852053e+01	2.312141e+02
1.370000e-06	3.514257e-06	3.536567e-09	4.907269e+01	2.325623e+02
1.380000e-06	3.552697e-06	3.555059e-09	4.960945e+01	2.338476e+02
1.390000e-06	3.589905e-06	3.572746e-09	5.012904e+01	2.350730e+02
1.400000e-06	3.626005e-06	3.591679e-09	5.063312e+01	2.362402e+02
1.410000e-06	3.660960e-06	3.609536e-09	5.112123e+01	2.373503e+02
1.420000e-06	3.694430e-06	3.623355e-09	5.158861e+01	2.384038e+02
1.430000e-06	3.726463e-06	3.635561e-09	5.203591e+01	2.394007e+02
1.440000e-06	3.757262e-06	3.650627e-09	5.246598e+01	2.403412e+02
1.450000e-06	3.786801e-06	3.667079e-09	5.287846e+01	2.412254e+02
1.460000e-06	3.815169e-06	3.680331e-09	5.327458e+01	2.420540e+02
1.470000e-06	3.842352e-06	3.691787e-09	5.365417e+01	2.428282e+02
1.480000e-06	3.867949e-06	3.705593e-09	5.401161e+01	2.435498e+02
1.490000e-06	3.891920e-06	3.718696e-09	5.434633e+01	2.442210e+02
1.500000e-06	3.914570e-06	3.728559e-09	5.466261e+01	2.448444e+02
1.510000e-06	3.935882e-06	3.738241e-09	5.496021e+01	2.454228e+02
1.520000e-06	3.955988e-06	3.748334e-09	5.524097e+01	2.459588e+02
1.530000e-06	3.974948e-06	3.757162e-09	5.550573e+01	2.464546e+02
1.540000e-06	3.992480e-06	3.764838e-09	5.575054e+01	2.469120e+02
1.550000e-06	4.008476e-06	3.772190e-09	5.597391e+01	2.473321e+02
1.560000e-06	4.022938e-06	3.778518e-09	5.617586e+01	2.477155e+02
1.570000e-06	4.035865e-06	3.784407e-09	5.635636e+01	2.480623e+02
1.580000e-06	4.047294e-06	3.791206e-09	5.651596e+01	2.483725e+02
1.590000e-06	4.057004e-06	3.796184e-09	5.665155e+01	2.486458e+02
1.600000e-06	4.065069e-06	3.799869e-09	5.676417e+01	2.488825e+02
1.610000e-06	4.071803e-06	3.805300e-09	5.685820e+01	2.490829e+02
1.620000e-06	4.077154e-06	3.810060e-09	5.693293e+01	2.492481e+02
1.630000e-06	4.081212e-06	3.812323e-09	5.698958e+01	2.493795e+02
1.640000e-06	4.083892e-06	3.814693e-09	5.702701e+01	2.494785e+02
1.650000e-06	4.084930e-06	3.817342e-09	5.704150e+01	2.495469e+02
1.660000e-06	4.084532e-06	3.818722e-09	5.703594e+01	2.495861e+02
1.670000e-06	4.082832e-06	3.817089e-09	5.701220e+01	2.495966e+02
1.680000e-06	4.079839e-06	3.814339e-09	5.697042e+01	2.495786e+02
1.690000e-06	4.075781e-06	3.810517e-09	5.691374e+01	2.495308e+02
1.700000e-06	4.070454e-06	3.810108e-09	5.683936e+01	2.494513e+02
1.710000e-06	4.063485e-06	3.810674e-09	5.674205e+01	2.493376e+02
1.720000e-06	4.055203e-06	3.809990e-09	5.662640e+01	2.491867e+02
1.730000e-06	4.045818e-06	3.822263e-09	5.649535e+01	2.489961e+02
1.740000e-06	4.035211e-06	3.798583e-09	5.634723e+01	2.487639e+02
1.750000e-06	4.022834e-06	3.738020e-09	5.617441e+01	2.484900e+02
1.760000e-06	4.007948e-06	3.715557e-09	5.596654e+01	2.481759e+02
1.770000e-06	3.990902e-06	3.754524e-09	5.572851e+01	2.478253e+02
1.780000e-06	3.972830e-06	3.884192e-09	5.547616e+01	2.474439e+02
1.790000e-06	3.954497e-06	3.830409e-09	5.522014e+01	2.470392e+02
1.800000e-06	3.935195e-06	3.669026e-09	5.495063e+01	2.466197e+02
1.810000e-06	3.913735e-06	3.765684e-09	5.465095e+01	2.461940e+02
1.820000e-06	3.890802e-06	3.769197e-09	5.433072e+01	2.457699e+02
1.830000e-06	3.867141e-06	3.760844e-09	5.400032e+01	2.453531e+02
1.840000e-06	3.841803e-06	3.848849e-09	5.364650e+01	2.449466e+02
1.850000e-06	3.814825e-06	3.684880e-09	5.326979e+01	2.445494e+02
1.860000e-06	3.787012e-06	3.631786e-09	5.288140e+01	2.441567e+02
1.870000e-06	3.757985e-06	3.828386e-09	5.247609e+01	2.437597e+02
1.880000e-06	3.727275e-06	3.747269e-09	5.204724e+01	2.433458e+02
1.890000e-06	3.695041e-06	3.594620e-09	5.159714e+01	2.429003e+02
1.900000e-06	3.661541e-06	3.707232e-09	5.112935e+01	2.424068e+02
1.910000e-06	3.627046e-06	3.743007e-09	5.064767e+01	2.418491e+02
1.920000e-06	3.591363e-06	3.717295e-09	5.014939e+01	2.412126e+02
1.930000e-06	3.554287e-06	3.648935e-09	4.963166e+01	2.404856e+02
1.940000e-06	3.516006e-06	3.587049e-09	4.909711e+01	2.396604e+02
1.950000e-06	3.476227e-06	3.689975e-09	4.854163e+01	2.387339e+02
1.960000e-06	3.434985e-06	3.620060e-09	4.796575e+01	2.377077e+02
1.970000e-06	3.392800e-06	3.560808e-09	4.737668e+01	2.365880e+02
1.980000e-06	3.349621e-06	3.652238e-09	4.677373e+01	2.353843e+02
1.990000e-06	3.305358e-06	3.513266e-09	4.615565e+01	2.341088e+02
2.000000e-06	3.260002e-06	3.493487e-09	4.552230e+01	2.327743e+02
2.010000e-06	3.213483e-06	3.607281e-09	4.487272e+01	2.313936e+02
2.020000e-06	3.165700e-06	3.508909e-09	4.420548e+01	2.299772e+02
2.030000e-06	3.116538e-06	3.412981e-09	4.351898e+01	2.285331e+02
2.040000e-06	3.066338e-06	3.431382e-09	4.281800e+01	2.270658e+02
2.050000e-06	3.015164e-06	3.498358e-09	4.210340e+01	2.255757e+02
2.060000e-06	2.962717e-06	3.417604e-09	4.137105e+01	2.240601e+02
2.070000e-06	2.908857e-06	3.318621e-09	4.061895e+01	2.225131e+02
2.080000e-06	2.853620e-06	3.373998e-09	3.984762e+01	2.209272e+02
2.090000e-06	2.797376e-06	3.354590e-09	3.906224e+01	2.192938e+02
2.100000e-06	2.740181e-06	3.288667e-09	3.826357e+01	2.176044e+02
2.110000e-06	2.682030e-06	3.266680e-09	3.745157e+01	2.158519e+02
2.120000e-06	2.623130e-06	3.264610e-09	3.662910e+01	2.140307e+02
2.130000e-06	2.563473e-06	3.235401e-09	3.579605e+01	2.121374e+02
2.140000e-06	2.503022e-06	3.162515e-09	3.495191e+01	2.101708e+02
2.150000e-06	2.441531e-06	3.174176e-09	3.409326e+01	2.081312e+02
2.160000e-06	2.378809e-06	3.157546e-09	3.321742e+01	2.060201e+02
2.170000e-06	2.315102e-06	3.076491e-09	3.232783e+01	2.038391e+02
2.180000e-06	2.250714e-06	3.060684e-09	3.142871e+01	2.015895e+02
2.190000e-06	2.185625e-06	3.039503e-09	3.051983e+01	1.992712e+02
2.200000e-06	2.119713e-06	2.993966e-09	2.959943e+01	1.968822e+02
2.210000e-06	2.053050e-06	2.940063e-09	2.866856e+01	1.944187e+02
2.220000e-06	1.985734e-06	2.921764e-09	2.772857e+01	1.918748e+02
2.230000e-06	1.917816e-06	2.893253e-09	2.678017e+01	1.892431e+02
2.240000e-06	1.849294e-06	2.809450e-09	2.582333e+01	1.865148e+02
2.250000e-06	1.779992e-06	2.779900e-09	2.485561e+01	1.836808e+02
2.260000e-06	1.709859e-06	2.762576e-09	2.387628e+01	1.807324e+02
2.270000e-06	1.638854e-06	2.702872e-09	2.288477e+01	1.776613e+02
2.280000e-06	1.567119e-06	2.629179e-09	2.188307e+01	1.744608e+02
2.290000e-06	1.494965e-06	2.590801e-09	2.087552e+01	1.711255e+02
2.300000e-06	1.422425e-06	2.563833e-09	1.986259e+01	1.676509e+02
2.310000e-06	1.349496e-06	2.492481e-09	1.884421e+01	1.640339e+02
2.320000e-06	1.276121e-06	2.426587e-09	1.781961e+01	1.602713e+02
2.330000e-06	1.202261e-06	2.373919e-09	1.678823e+01	1.563597e+02
2.340000e-06	1.127948e-06	2.314019e-09	1.575054e+01	1.522947e+02
2.350000e-06	1.053238e-06	2.249685e-09	1.470729e+01	1.480700e+02
2.360000e-06	9.781986e-07	2.189343e-09	1.365945e+01	1.436774e+02
2.370000e-06	9.027778e-07	2.118812e-09	1.260629e+01	1.391061e+02
2.380000e-06	8.270407e-07	2.030233e-09	1.154870e+01	1.343435e+02
2.390000e-06	7.511089e-07	1.958959e-09	1.048840e+01	1.293748e+02
2.400000e-06	6.748929e-07	1.895849e-09	9.424129e+00	1.241841e+02
2.410000e-06	5.983235e-07	1.806184e-09	8.354922e+00	1.187549e+02
2.420000e-06	5.215454e-07	1.704255e-09	7.282801e+00	1.130711e+02
2.430000e-06	4.446206e-07	1.620115e-09	6.208633e+00	1.071178e+02
2.440000e-06	3.674279e-07	1.540675e-09	5.130722e+00	1.008821e+02
2.450000e-06	2.900315e-07	1.437015e-09	4.049967e+00	9.435384e+01
2.460000e-06	2.124161e-07	1.319496e-09	2.966154e+00	8.752597e+01
2.470000e-06	1.344919e-07	1.214479e-09	1.878030e+00	8.039503e+01
2.480000e-06	5.645372e-08	1.108965e-09	7.883133e-01	7.296135e+01
2.490000e-06	-2.143748e-08	9.890808e-10	-2.993506e-01	6.522921e+01
2.500000e-06	-9.917939e-08	8.660403e-10	-1.384930e+00	5.720690e+01
2.510000e-06	-1.769207e-07	7.406802e-10	-2.470500e+00	4.890679e+01
2.520000e-06	-2.545619e-07	6.088792e-10	-3.554674e+00	4.034544e+01
2.530000e-06	-3.319404e-07	4.753015e-10	-4.635179e+00	3.154368e+01
2.540000e-06	-4.090681e-07	3.425880e-10	-5.712180e+00	2.252672e+01
2.550000e-06	-4.859614e-07	2.011730e-10	-6.785911e+00	1.332427e+01
2.560000e-06	-5.626140e-07	5.349960e-11	-7.856278e+00	3.970480e+00
2.570000e-06	-6.389897e-07	-8.785813e-11	-8.922780e+00	-5.496216e+00
2.580000e-06	-7.151152e-07	-2.252987e-10	-9.985788e+00	-1.503346e+01
2.590000e-06	-7.910310e-07	-3.716496e-10	-1.104587e+01	-2.459562e+01
2.600000e-06	-8.666784e-07	-5.218419e-10	-1.210220e+01	-3.413470e+01
2.610000e-06	-9.419532e-07	-6.633153e-10	-1.315333e+01	-4.360154e+01
2.620000e-06	-1.016826e-06	-8.016437e-10	-1.419884e+01	-5.294715e+01
2.630000e-06	-1.091337e-06	-9.415489e-10	-1.523930e+01	-6.212430e+01
2.640000e-06	-1.165500e-06	-1.078146e-09	-1.627490e+01	-7.108905e+01
2.650000e-06	-1.239221e-06	-1.208139e-09	-1.730434e+01	-7.980220e+01
2.660000e-06	-1.312486e-06	-1.338314e-09	-1.832741e+01	-8.823058e+01
2.670000e-06	-1.385344e-06	-1.467308e-09	-1.934478e+01	-9.634798e+01
2.680000e-06	-1.457753e-06	-1.587552e-09	-2.035589e+01	-1.041357e+02
2.690000e-06	-1.529783e-06	-1.700768e-09	-2.136172e+01	-1.115827e+02
2.700000e-06	-1.601483e-06	-1.812040e-09	-2.236293e+01	-1.186853e+02
2.710000e-06	-1.672647e-06	-1.918447e-09	-2.335666e+01	-1.254462e+02
2.720000e-06	-1.742894e-06	-2.013614e-09	-2.433757e+01	-1.318741e+02
2.730000e-06	-1.812110e-06	-2.103185e-09	-2.530409e+01	-1.379818e+02
2.740000e-06	-1.880582e-06	-2.191438e-09	-2.626024e+01	-1.437850e+02
2.750000e-06	-1.948553e-06	-2.277682e-09	-2.720938e+01	-1.493014e+02
2.760000e-06	-2.015947e-06	-2.360201e-09	-2.815045e+01	-1.545489e+02
2.770000e-06	-2.082646e-06	-2.437002e-09	-2.908184e+01	-1.595450e+02
2.780000e-06	-2.148701e-06	-2.510101e-09	-3.000422e+01	-1.643060e+02
2.790000e-06	-2.214048e-06	-2.581697e-09	-3.091671e+01	-1.688466e+02
2.800000e-06	-2.278617e-06	-2.651039e-09	-3.181835e+01	-1.731793e+02
2.810000e-06	-2.342568e-06	-2.713501e-09	-3.271135e+01	-1.773152e+02
2.820000e-06	-2.405727e-06	-2.770402e-09	-3.359330e+01	-1.812633e+02
2.830000e-06	-2.467678e-06	-2.826664e-09	-3.445838e+01	-1.850315e+02
2.840000e-06	-2.528486e-06	-2.883671e-09	-3.530750e+01	-1.886265e+02
2.850000e-06	-2.588493e-06	-2.936425e-09	-3.614542e+01	-1.920545e+02
2.860000e-06	-2.647689e-06	-2.984207e-09	-3.697203e+01	-1.953212e+02
2.870000e-06	-2.705986e-06	-3.032231e-09	-3.778609e+01	-1.984319e+02
2.880000e-06	-2.763320e-06	-3.081448e-09	-3.858669e+01	-2.013919e+02
2.890000e-06	-2.819714e-06	-3.128086e-09	-3.937417e+01	-2.042067e+02
2.900000e-06	-2.875278e-06	-3.170312e-09	-4.015006e+01	-2.068814e+02
2.910000e-06	-2.929635e-06	-3.210417e-09	-4.090909e+01	-2.094213e+02
2.920000e-06	-2.982517e-06	-3.247089e-09	-4.164753e+01	-2.118319e+02
2.930000e-06	-3.034193e-06	-3.281869e-09	-4.236913e+01	-2.141184e+02
2.940000e-06	-3.084773e-06	-3.316255e-09	-4.307543e+01	-2.162863e+02
