# Temperatura_=_20.0
# Concentracion g/m^3_=_9000.0
# C_Vs_to_Am_M_A/Vsm_=_65563218390.804596
# pendiente_HvsI_1/m_=_3716.3
# ordenada_HvsI_A/m_=_1297.0
# frecuencia_Hz_=_300791.9351356657

Tiempo_(s)	Campo_(V.s)	Magnetizacion_(V.s)	Campo_(kA/m)	Magnetizacion_(A/m)
0.000000e+00	-4.074752e-06	-3.843879e-09	-5.684091e+01	-2.523573e+02
1.000000e-08	-4.072890e-06	-3.843950e-09	-5.681494e+01	-2.523387e+02
2.000000e-08	-4.069523e-06	-3.842301e-09	-5.676798e+01	-2.522839e+02
3.000000e-08	-4.064965e-06	-3.841921e-09	-5.670439e+01	-2.521942e+02
4.000000e-08	-4.059194e-06	-3.840617e-09	-5.662388e+01	-2.520713e+02
5.000000e-08	-4.052156e-06	-3.837841e-09	-5.652572e+01	-2.519167e+02
6.000000e-08	-4.043842e-06	-3.829819e-09	-5.640974e+01	-2.517318e+02
7.000000e-08	-4.034000e-06	-3.817362e-09	-5.627244e+01	-2.515179e+02
8.000000e-08	-4.022416e-06	-3.841721e-09	-5.611086e+01	-2.512755e+02
9.000000e-08	-4.008890e-06	-3.876802e-09	-5.592217e+01	-2.510050e+02
1.000000e-07	-3.993263e-06	-3.882692e-09	-5.570418e+01	-2.507062e+02
1.100000e-07	-3.975957e-06	-3.833878e-09	-5.546277e+01	-2.503786e+02
1.200000e-07	-3.957514e-06	-3.728718e-09	-5.520550e+01	-2.500215e+02
1.300000e-07	-3.938178e-06	-3.772812e-09	-5.493578e+01	-2.496341e+02
1.400000e-07	-3.917869e-06	-3.864768e-09	-5.465247e+01	-2.492156e+02
1.500000e-07	-3.896551e-06	-3.788188e-09	-5.435509e+01	-2.487654e+02
1.600000e-07	-3.874119e-06	-3.770119e-09	-5.404218e+01	-2.482831e+02
1.700000e-07	-3.849991e-06	-3.751125e-09	-5.370561e+01	-2.477683e+02
1.800000e-07	-3.824139e-06	-3.702136e-09	-5.334497e+01	-2.472209e+02
1.900000e-07	-3.797103e-06	-3.813789e-09	-5.296783e+01	-2.466406e+02
2.000000e-07	-3.768904e-06	-3.809361e-09	-5.257447e+01	-2.460267e+02
2.100000e-07	-3.739334e-06	-3.652201e-09	-5.216199e+01	-2.453781e+02
2.200000e-07	-3.708552e-06	-3.702638e-09	-5.173260e+01	-2.446932e+02
2.300000e-07	-3.676686e-06	-3.808459e-09	-5.128807e+01	-2.439696e+02
2.400000e-07	-3.643376e-06	-3.749381e-09	-5.082341e+01	-2.432041e+02
2.500000e-07	-3.608499e-06	-3.677034e-09	-5.033690e+01	-2.423932e+02
2.600000e-07	-3.572278e-06	-3.637452e-09	-4.983164e+01	-2.415327e+02
2.700000e-07	-3.534866e-06	-3.688263e-09	-4.930975e+01	-2.406186e+02
2.800000e-07	-3.496284e-06	-3.709457e-09	-4.877155e+01	-2.396472e+02
2.900000e-07	-3.456547e-06	-3.628780e-09	-4.821724e+01	-2.386155e+02
3.000000e-07	-3.415597e-06	-3.620092e-09	-4.764601e+01	-2.375214e+02
3.100000e-07	-3.373144e-06	-3.614182e-09	-4.705381e+01	-2.363641e+02
3.200000e-07	-3.329325e-06	-3.572262e-09	-4.644255e+01	-2.351442e+02
3.300000e-07	-3.284412e-06	-3.603514e-09	-4.581603e+01	-2.338636e+02
3.400000e-07	-3.238420e-06	-3.582633e-09	-4.517447e+01	-2.325253e+02
3.500000e-07	-3.191237e-06	-3.482567e-09	-4.451628e+01	-2.311330e+02
3.600000e-07	-3.142845e-06	-3.497995e-09	-4.384124e+01	-2.296910e+02
3.700000e-07	-3.093156e-06	-3.546451e-09	-4.314810e+01	-2.282030e+02
3.800000e-07	-3.041897e-06	-3.476606e-09	-4.243307e+01	-2.266726e+02
3.900000e-07	-2.989165e-06	-3.398976e-09	-4.169748e+01	-2.251019e+02
4.000000e-07	-2.935442e-06	-3.431311e-09	-4.094806e+01	-2.234917e+02
4.100000e-07	-2.880906e-06	-3.431232e-09	-4.018731e+01	-2.218414e+02
4.200000e-07	-2.825457e-06	-3.361536e-09	-3.941382e+01	-2.201489e+02
4.300000e-07	-2.769014e-06	-3.331996e-09	-3.862647e+01	-2.184105e+02
4.400000e-07	-2.711296e-06	-3.323339e-09	-3.782133e+01	-2.166218e+02
4.500000e-07	-2.652332e-06	-3.294646e-09	-3.699881e+01	-2.147775e+02
4.600000e-07	-2.592549e-06	-3.251679e-09	-3.616486e+01	-2.128723e+02
4.700000e-07	-2.532035e-06	-3.228000e-09	-3.532072e+01	-2.109012e+02
4.800000e-07	-2.470631e-06	-3.195964e-09	-3.446417e+01	-2.088598e+02
4.900000e-07	-2.408314e-06	-3.157013e-09	-3.359487e+01	-2.067444e+02
5.000000e-07	-2.345178e-06	-3.135497e-09	-3.271415e+01	-2.045525e+02
5.100000e-07	-2.281460e-06	-3.104486e-09	-3.182532e+01	-2.022823e+02
5.200000e-07	-2.216935e-06	-3.052530e-09	-3.092523e+01	-1.999325e+02
5.300000e-07	-2.151094e-06	-3.015833e-09	-3.000677e+01	-1.975023e+02
5.400000e-07	-2.084188e-06	-2.996697e-09	-2.907346e+01	-1.949909e+02
5.500000e-07	-2.016776e-06	-2.956454e-09	-2.813309e+01	-1.923966e+02
5.600000e-07	-1.948936e-06	-2.899063e-09	-2.718677e+01	-1.897174e+02
5.700000e-07	-1.880422e-06	-2.857128e-09	-2.623103e+01	-1.869501e+02
5.800000e-07	-1.811252e-06	-2.834650e-09	-2.526613e+01	-1.840902e+02
5.900000e-07	-1.741568e-06	-2.786916e-09	-2.429407e+01	-1.811322e+02
6.000000e-07	-1.671206e-06	-2.722203e-09	-2.331255e+01	-1.780699e+02
6.100000e-07	-1.600150e-06	-2.673381e-09	-2.232135e+01	-1.748960e+02
6.200000e-07	-1.528669e-06	-2.635703e-09	-2.132423e+01	-1.716030e+02
6.300000e-07	-1.456903e-06	-2.582318e-09	-2.032313e+01	-1.681833e+02
6.400000e-07	-1.384682e-06	-2.517759e-09	-1.931567e+01	-1.646291e+02
6.500000e-07	-1.311778e-06	-2.463564e-09	-1.829870e+01	-1.609333e+02
6.600000e-07	-1.238024e-06	-2.408291e-09	-1.726986e+01	-1.570886e+02
6.700000e-07	-1.163513e-06	-2.350736e-09	-1.623047e+01	-1.530881e+02
6.800000e-07	-1.088535e-06	-2.288481e-09	-1.518457e+01	-1.489246e+02
6.900000e-07	-1.013149e-06	-2.217240e-09	-1.413296e+01	-1.445905e+02
7.000000e-07	-9.374197e-07	-2.139270e-09	-1.307657e+01	-1.400777e+02
7.100000e-07	-8.614432e-07	-2.070771e-09	-1.201674e+01	-1.353768e+02
7.200000e-07	-7.852197e-07	-2.005541e-09	-1.095345e+01	-1.304772e+02
7.300000e-07	-7.087523e-07	-1.920889e-09	-9.886768e+00	-1.253668e+02
7.400000e-07	-6.319365e-07	-1.828918e-09	-8.815223e+00	-1.200323e+02
7.500000e-07	-5.547585e-07	-1.748135e-09	-7.738626e+00	-1.144597e+02
7.600000e-07	-4.774065e-07	-1.669056e-09	-6.659601e+00	-1.086339e+02
7.700000e-07	-4.000082e-07	-1.571875e-09	-5.579930e+00	-1.025405e+02
7.800000e-07	-3.225083e-07	-1.466130e-09	-4.498843e+00	-9.616564e+01
7.900000e-07	-2.448391e-07	-1.365919e-09	-3.415392e+00	-8.949740e+01
8.000000e-07	-1.670657e-07	-1.265998e-09	-2.330489e+00	-8.252646e+01
8.100000e-07	-8.924640e-08	-1.155302e-09	-1.244946e+00	-7.524700e+01
8.200000e-07	-1.138478e-08	-1.035647e-09	-1.588124e-01	-6.765740e+01
8.300000e-07	6.647553e-08	-9.138734e-10	9.273031e-01	-5.976090e+01
8.400000e-07	1.442920e-07	-7.895198e-10	2.012807e+00	-5.156604e+01
8.500000e-07	2.220476e-07	-6.623666e-10	3.097462e+00	-4.308686e+01
8.600000e-07	2.997425e-07	-5.303586e-10	4.181270e+00	-3.434307e+01
8.700000e-07	3.773511e-07	-3.905093e-10	5.263874e+00	-2.535988e+01
8.800000e-07	4.548067e-07	-2.457363e-10	6.344344e+00	-1.616776e+01
8.900000e-07	5.320578e-07	-1.043506e-10	7.421962e+00	-6.801976e+00
9.000000e-07	6.090820e-07	3.899574e-11	8.496414e+00	2.697910e+00
9.100000e-07	6.858716e-07	1.903961e-10	9.567593e+00	1.228880e+01
9.200000e-07	7.624147e-07	3.421381e-10	1.063533e+01	2.192486e+01
9.300000e-07	8.387158e-07	4.880107e-10	1.169970e+01	3.155842e+01
9.400000e-07	9.147459e-07	6.309086e-10	1.276028e+01	4.114106e+01
9.500000e-07	9.904888e-07	7.768259e-10	1.381686e+01	5.062463e+01
9.600000e-07	1.065922e-06	9.207654e-10	1.486913e+01	5.996250e+01
9.700000e-07	1.140927e-06	1.059699e-09	1.591541e+01	6.911067e+01
9.800000e-07	1.215337e-06	1.194651e-09	1.695339e+01	7.802894e+01
9.900000e-07	1.289028e-06	1.327622e-09	1.798134e+01	8.668197e+01
1.000000e-06	1.361962e-06	1.455805e-09	1.899875e+01	9.504018e+01
1.010000e-06	1.434267e-06	1.577896e-09	2.000736e+01	1.030804e+02
1.020000e-06	1.506143e-06	1.697495e-09	2.101000e+01	1.107865e+02
1.030000e-06	1.577618e-06	1.811516e-09	2.200705e+01	1.181491e+02
1.040000e-06	1.648580e-06	1.916537e-09	2.299693e+01	1.251659e+02
1.050000e-06	1.719008e-06	2.014765e-09	2.397936e+01	1.318407e+02
1.060000e-06	1.788880e-06	2.110132e-09	2.495406e+01	1.381827e+02
1.070000e-06	1.858079e-06	2.200961e-09	2.591935e+01	1.442056e+02
1.080000e-06	1.926629e-06	2.287168e-09	2.687559e+01	1.499263e+02
1.090000e-06	1.994655e-06	2.368847e-09	2.782452e+01	1.553633e+02
1.100000e-06	2.062133e-06	2.446731e-09	2.876581e+01	1.605360e+02
1.110000e-06	2.128838e-06	2.523449e-09	2.969631e+01	1.654632e+02
1.120000e-06	2.194528e-06	2.595195e-09	3.061266e+01	1.701620e+02
1.130000e-06	2.259174e-06	2.662782e-09	3.151444e+01	1.746477e+02
1.140000e-06	2.323049e-06	2.727056e-09	3.240546e+01	1.789331e+02
1.150000e-06	2.386303e-06	2.788632e-09	3.328782e+01	1.830281e+02
1.160000e-06	2.448793e-06	2.846161e-09	3.415953e+01	1.869406e+02
1.170000e-06	2.510449e-06	2.900031e-09	3.501961e+01	1.906765e+02
1.180000e-06	2.571262e-06	2.952456e-09	3.586792e+01	1.942403e+02
1.190000e-06	2.631324e-06	3.003659e-09	3.670576e+01	1.976356e+02
1.200000e-06	2.690632e-06	3.051829e-09	3.753308e+01	2.008660e+02
1.210000e-06	2.748908e-06	3.095590e-09	3.834600e+01	2.039354e+02
1.220000e-06	2.805963e-06	3.139128e-09	3.914189e+01	2.068484e+02
1.230000e-06	2.861935e-06	3.179643e-09	3.992267e+01	2.096105e+02
1.240000e-06	2.916950e-06	3.216850e-09	4.069012e+01	2.122281e+02
1.250000e-06	2.970969e-06	3.253438e-09	4.144365e+01	2.147086e+02
1.260000e-06	3.023934e-06	3.288393e-09	4.218249e+01	2.170597e+02
1.270000e-06	3.075765e-06	3.320414e-09	4.290550e+01	2.192895e+02
1.280000e-06	3.126200e-06	3.351862e-09	4.360905e+01	2.214057e+02
1.290000e-06	3.175137e-06	3.380871e-09	4.429170e+01	2.234159e+02
1.300000e-06	3.222793e-06	3.406532e-09	4.495648e+01	2.253267e+02
1.310000e-06	3.269352e-06	3.432877e-09	4.560595e+01	2.271440e+02
1.320000e-06	3.314834e-06	3.460453e-09	4.624041e+01	2.288728e+02
1.330000e-06	3.359238e-06	3.485395e-09	4.685983e+01	2.305172e+02
1.340000e-06	3.402573e-06	3.506144e-09	4.746433e+01	2.320806e+02
1.350000e-06	3.444625e-06	3.527426e-09	4.805093e+01	2.335660e+02
1.360000e-06	3.485280e-06	3.550036e-09	4.861805e+01	2.349761e+02
1.370000e-06	3.524696e-06	3.570976e-09	4.916789e+01	2.363133e+02
1.380000e-06	3.562970e-06	3.589129e-09	4.970180e+01	2.375802e+02
1.390000e-06	3.600094e-06	3.605550e-09	5.021965e+01	2.387796e+02
1.400000e-06	3.636117e-06	3.622518e-09	5.072216e+01	2.399142e+02
1.410000e-06	3.670913e-06	3.640005e-09	5.120755e+01	2.409870e+02
1.420000e-06	3.704159e-06	3.654929e-09	5.167131e+01	2.420011e+02
1.430000e-06	3.735958e-06	3.668357e-09	5.211489e+01	2.429594e+02
1.440000e-06	3.766537e-06	3.683430e-09	5.254146e+01	2.438646e+02
1.450000e-06	3.795866e-06	3.698270e-09	5.295058e+01	2.447193e+02
1.460000e-06	3.824013e-06	3.711197e-09	5.334322e+01	2.455257e+02
1.470000e-06	3.850869e-06	3.723531e-09	5.371785e+01	2.462857e+02
1.480000e-06	3.876118e-06	3.736198e-09	5.407007e+01	2.470010e+02
1.490000e-06	3.899849e-06	3.747449e-09	5.440109e+01	2.476729e+02
1.500000e-06	3.922264e-06	3.757892e-09	5.471377e+01	2.483027e+02
1.510000e-06	3.943381e-06	3.768656e-09	5.500835e+01	2.488915e+02
1.520000e-06	3.963351e-06	3.777911e-09	5.528692e+01	2.494403e+02
1.530000e-06	3.982106e-06	3.784902e-09	5.554855e+01	2.499501e+02
1.540000e-06	3.999382e-06	3.791107e-09	5.578954e+01	2.504218e+02
1.550000e-06	4.015180e-06	3.797947e-09	5.600992e+01	2.508564e+02
1.560000e-06	4.029475e-06	3.804670e-09	5.620931e+01	2.512544e+02
1.570000e-06	4.042195e-06	3.810524e-09	5.638676e+01	2.516164e+02
1.580000e-06	4.053335e-06	3.815458e-09	5.654215e+01	2.519425e+02
1.590000e-06	4.062759e-06	3.819982e-09	5.667362e+01	2.522328e+02
1.600000e-06	4.070632e-06	3.825311e-09	5.678344e+01	2.524868e+02
1.610000e-06	4.077135e-06	3.830734e-09	5.687415e+01	2.527041e+02
1.620000e-06	4.082218e-06	3.833907e-09	5.694506e+01	2.528840e+02
1.630000e-06	4.086026e-06	3.835495e-09	5.699818e+01	2.530260e+02
1.640000e-06	4.088384e-06	3.838741e-09	5.703108e+01	2.531297e+02
1.650000e-06	4.089131e-06	3.842867e-09	5.704150e+01	2.531948e+02
1.660000e-06	4.088531e-06	3.843525e-09	5.703312e+01	2.532218e+02
1.670000e-06	4.086670e-06	3.841112e-09	5.700717e+01	2.532111e+02
1.680000e-06	4.083539e-06	3.839178e-09	5.696349e+01	2.531640e+02
1.690000e-06	4.079250e-06	3.838418e-09	5.690366e+01	2.530817e+02
1.700000e-06	4.073593e-06	3.836828e-09	5.682474e+01	2.529658e+02
1.710000e-06	4.066344e-06	3.832474e-09	5.672363e+01	2.528178e+02
1.720000e-06	4.057809e-06	3.834702e-09	5.660457e+01	2.526394e+02
1.730000e-06	4.048198e-06	3.840725e-09	5.647050e+01	2.524317e+02
1.740000e-06	4.037339e-06	3.791971e-09	5.631902e+01	2.521954e+02
1.750000e-06	4.024562e-06	3.756991e-09	5.614079e+01	2.519309e+02
1.760000e-06	4.009305e-06	3.744295e-09	5.592796e+01	2.516383e+02
1.770000e-06	3.992073e-06	3.831494e-09	5.568758e+01	2.513169e+02
1.780000e-06	3.973988e-06	3.887675e-09	5.543530e+01	2.509662e+02
1.790000e-06	3.955545e-06	3.770087e-09	5.517803e+01	2.505854e+02
1.800000e-06	3.935862e-06	3.758440e-09	5.490346e+01	2.501736e+02
1.810000e-06	3.914008e-06	3.796123e-09	5.459861e+01	2.497303e+02
1.820000e-06	3.890859e-06	3.764436e-09	5.427569e+01	2.492549e+02
1.830000e-06	3.866885e-06	3.836671e-09	5.394126e+01	2.487471e+02
1.840000e-06	3.841179e-06	3.809323e-09	5.358267e+01	2.482068e+02
1.850000e-06	3.813993e-06	3.661562e-09	5.320344e+01	2.476336e+02
1.860000e-06	3.785933e-06	3.776273e-09	5.281202e+01	2.470270e+02
1.870000e-06	3.756529e-06	3.843073e-09	5.240185e+01	2.463860e+02
1.880000e-06	3.725459e-06	3.681128e-09	5.196844e+01	2.457091e+02
1.890000e-06	3.692967e-06	3.696910e-09	5.151519e+01	2.449940e+02
1.900000e-06	3.659308e-06	3.782611e-09	5.104567e+01	2.442378e+02
1.910000e-06	3.624628e-06	3.749842e-09	5.056190e+01	2.434370e+02
1.920000e-06	3.588718e-06	3.734385e-09	5.006097e+01	2.425875e+02
1.930000e-06	3.551495e-06	3.659232e-09	4.954172e+01	2.416852e+02
1.940000e-06	3.512895e-06	3.683333e-09	4.900327e+01	2.407265e+02
1.950000e-06	3.472746e-06	3.704393e-09	4.844320e+01	2.397079e+02
1.960000e-06	3.431322e-06	3.601243e-09	4.786536e+01	2.386273e+02
1.970000e-06	3.388935e-06	3.674800e-09	4.727408e+01	2.374836e+02
1.980000e-06	3.345503e-06	3.638774e-09	4.666822e+01	2.362770e+02
1.990000e-06	3.300981e-06	3.515586e-09	4.604717e+01	2.350092e+02
2.000000e-06	3.255349e-06	3.613894e-09	4.541061e+01	2.336830e+02
2.010000e-06	3.208514e-06	3.607049e-09	4.475729e+01	2.323020e+02
2.020000e-06	3.160364e-06	3.495739e-09	4.408562e+01	2.308703e+02
2.030000e-06	3.110927e-06	3.485801e-09	4.339600e+01	2.293919e+02
2.040000e-06	3.060511e-06	3.515825e-09	4.269272e+01	2.278703e+02
2.050000e-06	3.009029e-06	3.503974e-09	4.197457e+01	2.263081e+02
2.060000e-06	2.956241e-06	3.401375e-09	4.123820e+01	2.247065e+02
2.070000e-06	2.902000e-06	3.400063e-09	4.048157e+01	2.230650e+02
2.080000e-06	2.846475e-06	3.423712e-09	3.970701e+01	2.213818e+02
2.090000e-06	2.789997e-06	3.350931e-09	3.891917e+01	2.196536e+02
2.100000e-06	2.732550e-06	3.328757e-09	3.811782e+01	2.178761e+02
2.110000e-06	2.674224e-06	3.313204e-09	3.730419e+01	2.160442e+02
2.120000e-06	2.615083e-06	3.297553e-09	3.647920e+01	2.141525e+02
2.130000e-06	2.555138e-06	3.243636e-09	3.564299e+01	2.121960e+02
2.140000e-06	2.494400e-06	3.211602e-09	3.479574e+01	2.101700e+02
2.150000e-06	2.432577e-06	3.218547e-09	3.393333e+01	2.080707e+02
2.160000e-06	2.369533e-06	3.146170e-09	3.305389e+01	2.058954e+02
2.170000e-06	2.305611e-06	3.111115e-09	3.216221e+01	2.036421e+02
2.180000e-06	2.241078e-06	3.099360e-09	3.126200e+01	2.013095e+02
2.190000e-06	2.175791e-06	3.053743e-09	3.035128e+01	1.988966e+02
2.200000e-06	2.109664e-06	3.004944e-09	2.942885e+01	1.964027e+02
2.210000e-06	2.042777e-06	2.970017e-09	2.849580e+01	1.938264e+02
2.220000e-06	1.975254e-06	2.954405e-09	2.755388e+01	1.911657e+02
2.230000e-06	1.907193e-06	2.890100e-09	2.660446e+01	1.884176e+02
2.240000e-06	1.838512e-06	2.829748e-09	2.564640e+01	1.855779e+02
2.250000e-06	1.769043e-06	2.810660e-09	2.467734e+01	1.826416e+02
2.260000e-06	1.698668e-06	2.765272e-09	2.369564e+01	1.796022e+02
2.270000e-06	1.627405e-06	2.699352e-09	2.270156e+01	1.764529e+02
2.280000e-06	1.555536e-06	2.645574e-09	2.169901e+01	1.731861e+02
2.290000e-06	1.483352e-06	2.612396e-09	2.069207e+01	1.697941e+02
2.300000e-06	1.410761e-06	2.560486e-09	1.967947e+01	1.662695e+02
2.310000e-06	1.337675e-06	2.494111e-09	1.865995e+01	1.626046e+02
2.320000e-06	1.264150e-06	2.443479e-09	1.763431e+01	1.587925e+02
2.330000e-06	1.190177e-06	2.380857e-09	1.660242e+01	1.548259e+02
2.340000e-06	1.115749e-06	2.314682e-09	1.556419e+01	1.506980e+02
2.350000e-06	1.040946e-06	2.256980e-09	1.452071e+01	1.464012e+02
2.360000e-06	9.657894e-07	2.196062e-09	1.347232e+01	1.419275e+02
2.370000e-06	8.902595e-07	2.115500e-09	1.241871e+01	1.372678e+02
2.380000e-06	8.144502e-07	2.031407e-09	1.136121e+01	1.324117e+02
2.390000e-06	7.383844e-07	1.967365e-09	1.030012e+01	1.273475e+02
2.400000e-06	6.620291e-07	1.891285e-09	9.235001e+00	1.220623e+02
2.410000e-06	5.853572e-07	1.796295e-09	8.165464e+00	1.165419e+02
2.420000e-06	5.084604e-07	1.704950e-09	7.092789e+00	1.107717e+02
2.430000e-06	4.313819e-07	1.623443e-09	6.017579e+00	1.047369e+02
2.440000e-06	3.539619e-07	1.532233e-09	4.937606e+00	9.842344e+01
2.450000e-06	2.762970e-07	1.423800e-09	3.854215e+00	9.181898e+01
2.460000e-06	1.984622e-07	1.316602e-09	2.768456e+00	8.491356e+01
2.470000e-06	1.203685e-07	1.210360e-09	1.679086e+00	7.770052e+01
2.480000e-06	4.211781e-08	1.095797e-09	5.875241e-01	7.017731e+01
2.490000e-06	-3.599787e-08	9.756615e-10	-5.021537e-01	6.234607e+01
2.500000e-06	-1.139249e-07	8.545858e-10	-1.589200e+00	5.421417e+01
2.510000e-06	-1.917739e-07	7.250097e-10	-2.675157e+00	4.579448e+01
2.520000e-06	-2.694556e-07	5.889777e-10	-3.758781e+00	3.710549e+01
2.530000e-06	-3.468668e-07	4.556623e-10	-4.838633e+00	2.817123e+01
2.540000e-06	-4.239807e-07	3.192702e-10	-5.914336e+00	1.902109e+01
2.550000e-06	-5.008536e-07	1.759997e-10	-6.986677e+00	9.689358e+00
2.560000e-06	-5.774881e-07	3.221163e-11	-8.055693e+00	2.147168e-01
2.570000e-06	-6.538481e-07	-1.093576e-10	-9.120880e+00	-9.360426e+00
2.580000e-06	-7.299485e-07	-2.551326e-10	-1.018245e+01	-1.899074e+01
2.590000e-06	-8.058214e-07	-4.051376e-10	-1.124084e+01	-2.862888e+01
2.600000e-06	-8.814503e-07	-5.506438e-10	-1.229583e+01	-3.822648e+01
2.610000e-06	-9.567568e-07	-6.924088e-10	-1.334632e+01	-4.773525e+01
2.620000e-06	-1.031648e-06	-8.358673e-10	-1.439101e+01	-5.710813e+01
2.630000e-06	-1.106158e-06	-9.754422e-10	-1.543039e+01	-6.630045e+01
2.640000e-06	-1.180316e-06	-1.107842e-09	-1.646486e+01	-7.527111e+01
2.650000e-06	-1.254074e-06	-1.239960e-09	-1.749376e+01	-8.398365e+01
2.660000e-06	-1.327386e-06	-1.373152e-09	-1.851642e+01	-9.240719e+01
2.670000e-06	-1.400166e-06	-1.499847e-09	-1.953167e+01	-1.005172e+02
2.680000e-06	-1.472500e-06	-1.617275e-09	-2.054070e+01	-1.082958e+02
2.690000e-06	-1.544484e-06	-1.732362e-09	-2.154484e+01	-1.157325e+02
2.700000e-06	-1.616047e-06	-1.844658e-09	-2.254311e+01	-1.228232e+02
2.710000e-06	-1.687034e-06	-1.949302e-09	-2.353335e+01	-1.295706e+02
2.720000e-06	-1.757192e-06	-2.045470e-09	-2.451202e+01	-1.359829e+02
2.730000e-06	-1.826442e-06	-2.135250e-09	-2.547802e+01	-1.420728e+02
2.740000e-06	-1.894965e-06	-2.221465e-09	-2.643389e+01	-1.478567e+02
2.750000e-06	-1.962880e-06	-2.307117e-09	-2.738127e+01	-1.533529e+02
2.760000e-06	-2.030180e-06	-2.390536e-09	-2.832008e+01	-1.585806e+02
2.770000e-06	-2.096794e-06	-2.465817e-09	-2.924932e+01	-1.635588e+02
2.780000e-06	-2.162704e-06	-2.537299e-09	-3.016873e+01	-1.683052e+02
2.790000e-06	-2.227904e-06	-2.609011e-09	-3.107824e+01	-1.728354e+02
2.800000e-06	-2.292414e-06	-2.677811e-09	-3.197812e+01	-1.771627e+02
2.810000e-06	-2.356250e-06	-2.740550e-09	-3.286860e+01	-1.812977e+02
2.820000e-06	-2.419208e-06	-2.800704e-09	-3.374683e+01	-1.852488e+02
2.830000e-06	-2.481051e-06	-2.860848e-09	-3.460952e+01	-1.890221e+02
2.840000e-06	-2.541824e-06	-2.917993e-09	-3.545727e+01	-1.926224e+02
2.850000e-06	-2.601743e-06	-2.970678e-09	-3.629312e+01	-1.960535e+02
2.860000e-06	-2.660869e-06	-3.021422e-09	-3.711790e+01	-1.993189e+02
2.870000e-06	-2.719089e-06	-3.070165e-09	-3.793004e+01	-2.024224e+02
2.880000e-06	-2.776296e-06	-3.115960e-09	-3.872805e+01	-2.053684e+02
2.890000e-06	-2.832629e-06	-3.160653e-09	-3.951388e+01	-2.081623e+02
2.900000e-06	-2.888025e-06	-3.204158e-09	-4.028661e+01	-2.108103e+02
2.910000e-06	-2.942151e-06	-3.244422e-09	-4.104166e+01	-2.133195e+02
2.920000e-06	-2.994960e-06	-3.280378e-09	-4.177831e+01	-2.156977e+02
2.930000e-06	-3.046545e-06	-3.313877e-09	-4.249790e+01	-2.179527e+02
2.940000e-06	-3.096924e-06	-3.347970e-09	-4.320067e+01	-2.200926e+02
