# Temperatura_=_20.0
# Concentracion g/m^3_=_9000.0
# C_Vs_to_Am_M_A/Vsm_=_65563218390.804596
# pendiente_HvsI_1/m_=_3716.3
# ordenada_HvsI_A/m_=_1297.0
# frecuencia_Hz_=_300791.87014678674

Tiempo_(s)	Campo_(V.s)	Magnetizacion_(V.s)	Campo_(kA/m)	Magnetizacion_(A/m)
0.000000e+00	-4.073545e-06	-3.834072e-09	-5.684365e+01	-2.496806e+02
1.000000e-08	-4.071575e-06	-3.834580e-09	-5.681615e+01	-2.496639e+02
2.000000e-08	-4.068131e-06	-3.833747e-09	-5.676809e+01	-2.496105e+02
3.000000e-08	-4.063561e-06	-3.832650e-09	-5.670433e+01	-2.495188e+02
4.000000e-08	-4.057710e-06	-3.830160e-09	-5.662268e+01	-2.493879e+02
5.000000e-08	-4.050577e-06	-3.825959e-09	-5.652313e+01	-2.492176e+02
6.000000e-08	-4.042302e-06	-3.817947e-09	-5.640766e+01	-2.490089e+02
7.000000e-08	-4.032545e-06	-3.803234e-09	-5.627152e+01	-2.487641e+02
8.000000e-08	-4.020984e-06	-3.822481e-09	-5.611018e+01	-2.484871e+02
9.000000e-08	-4.007521e-06	-3.871178e-09	-5.592231e+01	-2.481831e+02
1.000000e-07	-3.991995e-06	-3.881955e-09	-5.570567e+01	-2.478579e+02
1.100000e-07	-3.974709e-06	-3.836364e-09	-5.546445e+01	-2.475182e+02
1.200000e-07	-3.956283e-06	-3.702232e-09	-5.520733e+01	-2.471702e+02
1.300000e-07	-3.937010e-06	-3.719476e-09	-5.493838e+01	-2.468190e+02
1.400000e-07	-3.916778e-06	-3.878934e-09	-5.465606e+01	-2.464684e+02
1.500000e-07	-3.895491e-06	-3.803942e-09	-5.435902e+01	-2.461194e+02
1.600000e-07	-3.873057e-06	-3.731208e-09	-5.404596e+01	-2.457710e+02
1.700000e-07	-3.848901e-06	-3.745174e-09	-5.370888e+01	-2.454187e+02
1.800000e-07	-3.822906e-06	-3.681143e-09	-5.334614e+01	-2.450558e+02
1.900000e-07	-3.795807e-06	-3.778188e-09	-5.296799e+01	-2.446731e+02
2.000000e-07	-3.767648e-06	-3.849395e-09	-5.257505e+01	-2.442595e+02
2.100000e-07	-3.738055e-06	-3.643005e-09	-5.216210e+01	-2.438034e+02
2.200000e-07	-3.707269e-06	-3.634250e-09	-5.173250e+01	-2.432930e+02
2.300000e-07	-3.675396e-06	-3.807448e-09	-5.128773e+01	-2.427177e+02
2.400000e-07	-3.642083e-06	-3.746948e-09	-5.082287e+01	-2.420685e+02
2.500000e-07	-3.607231e-06	-3.630765e-09	-5.033653e+01	-2.413391e+02
2.600000e-07	-3.571031e-06	-3.593805e-09	-4.983138e+01	-2.405262e+02
2.700000e-07	-3.533668e-06	-3.631805e-09	-4.931002e+01	-2.396293e+02
2.800000e-07	-3.495156e-06	-3.687064e-09	-4.877261e+01	-2.386511e+02
2.900000e-07	-3.455451e-06	-3.615779e-09	-4.821854e+01	-2.375968e+02
3.000000e-07	-3.414522e-06	-3.544549e-09	-4.764741e+01	-2.364733e+02
3.100000e-07	-3.372123e-06	-3.562030e-09	-4.705575e+01	-2.352886e+02
3.200000e-07	-3.328318e-06	-3.552837e-09	-4.644449e+01	-2.340511e+02
3.300000e-07	-3.283406e-06	-3.556550e-09	-4.581777e+01	-2.327683e+02
3.400000e-07	-3.237431e-06	-3.537223e-09	-4.517622e+01	-2.314467e+02
3.500000e-07	-3.190287e-06	-3.451445e-09	-4.451835e+01	-2.300909e+02
3.600000e-07	-3.141927e-06	-3.440231e-09	-4.384353e+01	-2.287036e+02
3.700000e-07	-3.092262e-06	-3.503559e-09	-4.315048e+01	-2.272853e+02
3.800000e-07	-3.041042e-06	-3.465246e-09	-4.243573e+01	-2.258345e+02
3.900000e-07	-2.988357e-06	-3.348484e-09	-4.170056e+01	-2.243483e+02
4.000000e-07	-2.934607e-06	-3.362126e-09	-4.095051e+01	-2.228225e+02
4.100000e-07	-2.879970e-06	-3.406747e-09	-4.018808e+01	-2.212526e+02
4.200000e-07	-2.824480e-06	-3.341253e-09	-3.941375e+01	-2.196338e+02
4.300000e-07	-2.768035e-06	-3.275692e-09	-3.862611e+01	-2.179616e+02
4.400000e-07	-2.710332e-06	-3.274317e-09	-3.782090e+01	-2.162322e+02
4.500000e-07	-2.651411e-06	-3.269712e-09	-3.699870e+01	-2.144425e+02
4.600000e-07	-2.591666e-06	-3.230013e-09	-3.616499e+01	-2.125902e+02
4.700000e-07	-2.531173e-06	-3.186524e-09	-3.532085e+01	-2.106736e+02
4.800000e-07	-2.469797e-06	-3.153941e-09	-3.446439e+01	-2.086911e+02
4.900000e-07	-2.407517e-06	-3.129022e-09	-3.359531e+01	-2.066414e+02
5.000000e-07	-2.344439e-06	-3.107328e-09	-3.271510e+01	-2.045229e+02
5.100000e-07	-2.280701e-06	-3.069979e-09	-3.182569e+01	-2.023335e+02
5.200000e-07	-2.216049e-06	-3.016604e-09	-3.092351e+01	-2.000701e+02
5.300000e-07	-2.150124e-06	-2.984270e-09	-3.000356e+01	-1.977293e+02
5.400000e-07	-2.083194e-06	-2.964834e-09	-2.906960e+01	-1.953067e+02
5.500000e-07	-2.015780e-06	-2.933002e-09	-2.812889e+01	-1.927972e+02
5.600000e-07	-1.947924e-06	-2.873055e-09	-2.718200e+01	-1.901955e+02
5.700000e-07	-1.879448e-06	-2.817677e-09	-2.622646e+01	-1.874960e+02
5.800000e-07	-1.810334e-06	-2.800123e-09	-2.526201e+01	-1.846930e+02
5.900000e-07	-1.740609e-06	-2.769912e-09	-2.428905e+01	-1.817811e+02
6.000000e-07	-1.670244e-06	-2.701047e-09	-2.330715e+01	-1.787554e+02
6.100000e-07	-1.599247e-06	-2.636809e-09	-2.231644e+01	-1.756109e+02
6.200000e-07	-1.527777e-06	-2.607055e-09	-2.131912e+01	-1.723432e+02
6.300000e-07	-1.455977e-06	-2.567011e-09	-2.031720e+01	-1.689480e+02
6.400000e-07	-1.383738e-06	-2.499757e-09	-1.930915e+01	-1.654204e+02
6.500000e-07	-1.310838e-06	-2.436366e-09	-1.829188e+01	-1.617556e+02
6.600000e-07	-1.237154e-06	-2.385826e-09	-1.726367e+01	-1.579476e+02
6.700000e-07	-1.162787e-06	-2.333062e-09	-1.622593e+01	-1.539897e+02
6.800000e-07	-1.087908e-06	-2.267982e-09	-1.518104e+01	-1.498739e+02
6.900000e-07	-1.012557e-06	-2.196451e-09	-1.412957e+01	-1.455907e+02
7.000000e-07	-9.368153e-07	-2.120977e-09	-1.307264e+01	-1.411294e+02
7.100000e-07	-8.608161e-07	-2.052160e-09	-1.201212e+01	-1.364780e+02
7.200000e-07	-7.846008e-07	-1.987622e-09	-1.094859e+01	-1.316232e+02
7.300000e-07	-7.081444e-07	-1.909983e-09	-9.881689e+00	-1.265511e+02
7.400000e-07	-6.313763e-07	-1.818811e-09	-8.810441e+00	-1.212471e+02
7.500000e-07	-5.542750e-07	-1.735716e-09	-7.734542e+00	-1.156967e+02
7.600000e-07	-4.769512e-07	-1.657686e-09	-6.655540e+00	-1.098855e+02
7.700000e-07	-3.995254e-07	-1.563379e-09	-5.575115e+00	-1.038002e+02
7.800000e-07	-3.219925e-07	-1.455916e-09	-4.493194e+00	-9.742879e+01
7.900000e-07	-2.442644e-07	-1.352522e-09	-3.408549e+00	-9.076132e+01
8.000000e-07	-1.664263e-07	-1.255032e-09	-2.322370e+00	-8.379024e+01
8.100000e-07	-8.861485e-08	-1.144912e-09	-1.236562e+00	-7.651114e+01
8.200000e-07	-1.083756e-08	-1.022541e-09	-1.512309e-01	-6.892322e+01
8.300000e-07	6.691631e-08	-9.005071e-10	9.337730e-01	-6.102990e+01
8.400000e-07	1.447091e-07	-7.793688e-10	2.019321e+00	-5.283923e+01
8.500000e-07	2.224848e-07	-6.507018e-10	3.104629e+00	-4.436438e+01
8.600000e-07	3.001405e-07	-5.139818e-10	4.188263e+00	-3.562393e+01
8.700000e-07	3.776498e-07	-3.737221e-10	5.269855e+00	-2.664198e+01
8.800000e-07	4.550156e-07	-2.304172e-10	6.349443e+00	-1.744825e+01
8.900000e-07	5.322774e-07	-8.831188e-11	7.427580e+00	-8.077754e+00
9.000000e-07	6.093900e-07	5.528811e-11	8.503636e+00	1.429602e+00
9.100000e-07	6.862798e-07	2.044790e-10	9.576583e+00	1.102971e+01
9.200000e-07	7.628748e-07	3.558062e-10	1.064542e+01	2.067517e+01
9.300000e-07	8.391622e-07	5.017956e-10	1.170996e+01	3.031643e+01
9.400000e-07	9.151437e-07	6.451978e-10	1.277023e+01	3.990303e+01
9.500000e-07	9.908300e-07	7.916683e-10	1.382638e+01	4.938500e+01
9.600000e-07	1.066239e-06	9.370073e-10	1.487866e+01	5.871426e+01
9.700000e-07	1.141241e-06	1.076603e-09	1.592526e+01	6.784598e+01
9.800000e-07	1.215658e-06	1.210619e-09	1.696370e+01	7.673983e+01
9.900000e-07	1.289382e-06	1.343917e-09	1.799247e+01	8.536102e+01
1.000000e-06	1.362396e-06	1.473055e-09	1.901134e+01	9.368111e+01
1.010000e-06	1.434735e-06	1.593788e-09	2.002078e+01	1.016785e+02
1.020000e-06	1.506534e-06	1.710057e-09	2.102270e+01	1.093387e+02
1.030000e-06	1.577931e-06	1.824184e-09	2.201899e+01	1.166541e+02
1.040000e-06	1.648899e-06	1.929271e-09	2.300930e+01	1.236236e+02
1.050000e-06	1.719323e-06	2.025707e-09	2.399202e+01	1.302517e+02
1.060000e-06	1.789132e-06	2.120867e-09	2.496616e+01	1.365480e+02
1.070000e-06	1.858305e-06	2.212259e-09	2.593142e+01	1.425259e+02
1.080000e-06	1.926802e-06	2.297735e-09	2.688726e+01	1.482014e+02
1.090000e-06	1.994720e-06	2.379131e-09	2.783501e+01	1.535919e+02
1.100000e-06	2.062174e-06	2.456715e-09	2.877628e+01	1.587157e+02
1.110000e-06	2.128917e-06	2.531060e-09	2.970764e+01	1.635905e+02
1.120000e-06	2.194617e-06	2.601464e-09	3.062443e+01	1.682327e+02
1.130000e-06	2.259223e-06	2.669112e-09	3.152597e+01	1.726572e+02
1.140000e-06	2.322989e-06	2.732533e-09	3.241578e+01	1.768770e+02
1.150000e-06	2.386139e-06	2.791618e-09	3.329700e+01	1.809028e+02
1.160000e-06	2.448568e-06	2.847434e-09	3.416815e+01	1.847435e+02
1.170000e-06	2.510198e-06	2.901015e-09	3.502816e+01	1.884063e+02
1.180000e-06	2.571024e-06	2.951685e-09	3.587695e+01	1.918971e+02
1.190000e-06	2.631050e-06	2.999874e-09	3.671457e+01	1.952209e+02
1.200000e-06	2.690324e-06	3.047660e-09	3.754170e+01	1.983825e+02
1.210000e-06	2.748644e-06	3.092636e-09	3.835552e+01	2.013865e+02
1.220000e-06	2.805623e-06	3.134318e-09	3.915062e+01	2.042382e+02
1.230000e-06	2.861397e-06	3.172804e-09	3.992891e+01	2.069434e+02
1.240000e-06	2.916315e-06	3.209888e-09	4.069525e+01	2.095087e+02
1.250000e-06	2.970266e-06	3.245837e-09	4.144811e+01	2.119414e+02
1.260000e-06	3.023182e-06	3.280108e-09	4.218651e+01	2.142494e+02
1.270000e-06	3.075062e-06	3.311999e-09	4.291047e+01	2.164409e+02
1.280000e-06	3.125588e-06	3.343312e-09	4.361552e+01	2.185240e+02
1.290000e-06	3.174527e-06	3.371916e-09	4.429844e+01	2.205068e+02
1.300000e-06	3.222162e-06	3.397227e-09	4.496315e+01	2.223963e+02
1.310000e-06	3.268728e-06	3.421985e-09	4.561294e+01	2.241988e+02
1.320000e-06	3.314204e-06	3.446554e-09	4.624754e+01	2.259196e+02
1.330000e-06	3.358609e-06	3.470057e-09	4.686718e+01	2.275627e+02
1.340000e-06	3.401984e-06	3.491918e-09	4.747245e+01	2.291309e+02
1.350000e-06	3.444095e-06	3.514560e-09	4.806008e+01	2.306263e+02
1.360000e-06	3.484690e-06	3.536880e-09	4.862656e+01	2.320502e+02
1.370000e-06	3.524043e-06	3.558455e-09	4.917569e+01	2.334036e+02
1.380000e-06	3.562294e-06	3.578720e-09	4.970947e+01	2.346873e+02
1.390000e-06	3.599354e-06	3.596571e-09	5.022661e+01	2.359025e+02
1.400000e-06	3.635291e-06	3.612682e-09	5.072809e+01	2.370509e+02
1.410000e-06	3.670025e-06	3.627474e-09	5.121278e+01	2.381347e+02
1.420000e-06	3.703218e-06	3.641932e-09	5.167598e+01	2.391569e+02
1.430000e-06	3.734964e-06	3.656059e-09	5.211897e+01	2.401209e+02
1.440000e-06	3.765506e-06	3.670656e-09	5.254515e+01	2.410308e+02
1.450000e-06	3.794806e-06	3.684653e-09	5.295402e+01	2.418905e+02
1.460000e-06	3.822976e-06	3.697290e-09	5.334711e+01	2.427038e+02
1.470000e-06	3.849839e-06	3.710935e-09	5.372197e+01	2.434743e+02
1.480000e-06	3.875033e-06	3.725243e-09	5.407354e+01	2.442045e+02
1.490000e-06	3.898703e-06	3.736947e-09	5.440383e+01	2.448963e+02
1.500000e-06	3.921056e-06	3.746479e-09	5.471575e+01	2.455506e+02
1.510000e-06	3.942118e-06	3.756163e-09	5.500966e+01	2.461671e+02
1.520000e-06	3.962046e-06	3.765972e-09	5.528774e+01	2.467453e+02
1.530000e-06	3.980785e-06	3.774524e-09	5.554924e+01	2.472838e+02
1.540000e-06	3.998055e-06	3.781909e-09	5.579022e+01	2.477811e+02
1.550000e-06	4.013758e-06	3.789403e-09	5.600935e+01	2.482359e+02
1.560000e-06	4.027951e-06	3.797621e-09	5.620740e+01	2.486471e+02
1.570000e-06	4.040695e-06	3.805304e-09	5.638523e+01	2.490146e+02
1.580000e-06	4.051908e-06	3.810507e-09	5.654171e+01	2.493384e+02
1.590000e-06	4.061343e-06	3.815177e-09	5.667337e+01	2.496198e+02
1.600000e-06	4.069151e-06	3.820761e-09	5.678233e+01	2.498602e+02
1.610000e-06	4.075618e-06	3.825873e-09	5.687256e+01	2.500616e+02
1.620000e-06	4.080729e-06	3.830347e-09	5.694389e+01	2.502258e+02
1.630000e-06	4.084580e-06	3.833442e-09	5.699763e+01	2.503545e+02
1.640000e-06	4.086982e-06	3.836834e-09	5.703115e+01	2.504488e+02
1.650000e-06	4.087724e-06	3.839717e-09	5.704150e+01	2.505091e+02
1.660000e-06	4.087076e-06	3.840267e-09	5.703245e+01	2.505353e+02
1.670000e-06	4.085139e-06	3.837342e-09	5.700543e+01	2.505264e+02
1.680000e-06	4.081920e-06	3.833744e-09	5.696051e+01	2.504810e+02
1.690000e-06	4.077575e-06	3.832315e-09	5.689987e+01	2.503976e+02
1.700000e-06	4.071910e-06	3.832482e-09	5.682083e+01	2.502752e+02
1.710000e-06	4.064677e-06	3.831441e-09	5.671989e+01	2.501133e+02
1.720000e-06	4.056157e-06	3.834747e-09	5.660100e+01	2.499127e+02
1.730000e-06	4.046553e-06	3.845095e-09	5.646699e+01	2.496754e+02
1.740000e-06	4.035690e-06	3.794986e-09	5.631539e+01	2.494050e+02
1.750000e-06	4.022918e-06	3.737849e-09	5.613717e+01	2.491063e+02
1.760000e-06	4.007650e-06	3.728063e-09	5.592412e+01	2.487852e+02
1.770000e-06	3.990377e-06	3.813749e-09	5.568309e+01	2.484481e+02
1.780000e-06	3.972238e-06	3.918792e-09	5.542997e+01	2.481014e+02
1.790000e-06	3.953835e-06	3.788721e-09	5.517316e+01	2.477506e+02
1.800000e-06	3.934255e-06	3.699435e-09	5.489994e+01	2.473996e+02
1.810000e-06	3.912468e-06	3.805909e-09	5.459592e+01	2.470504e+02
1.820000e-06	3.889322e-06	3.763760e-09	5.427293e+01	2.467021e+02
1.830000e-06	3.865325e-06	3.800118e-09	5.393807e+01	2.463512e+02
1.840000e-06	3.839586e-06	3.852493e-09	5.357890e+01	2.459913e+02
1.850000e-06	3.812341e-06	3.653506e-09	5.319871e+01	2.456137e+02
1.860000e-06	3.784258e-06	3.693970e-09	5.280683e+01	2.452077e+02
1.870000e-06	3.754842e-06	3.848548e-09	5.239635e+01	2.447618e+02
1.880000e-06	3.723751e-06	3.670070e-09	5.196250e+01	2.442640e+02
1.890000e-06	3.691268e-06	3.607784e-09	5.150921e+01	2.437035e+02
1.900000e-06	3.657595e-06	3.761353e-09	5.103934e+01	2.430707e+02
1.910000e-06	3.622915e-06	3.730514e-09	5.055539e+01	2.423590e+02
1.920000e-06	3.587040e-06	3.681931e-09	5.005479e+01	2.415641e+02
1.930000e-06	3.549814e-06	3.623055e-09	4.953531e+01	2.406851e+02
1.940000e-06	3.511263e-06	3.606593e-09	4.899736e+01	2.397240e+02
1.950000e-06	3.471133e-06	3.668323e-09	4.843737e+01	2.386855e+02
1.960000e-06	3.429641e-06	3.583576e-09	4.785838e+01	2.375762e+02
1.970000e-06	3.387218e-06	3.595928e-09	4.726640e+01	2.364040e+02
1.980000e-06	3.343814e-06	3.606141e-09	4.666072e+01	2.351771e+02
1.990000e-06	3.299334e-06	3.478924e-09	4.604004e+01	2.339035e+02
2.000000e-06	3.253699e-06	3.548758e-09	4.540323e+01	2.325898e+02
2.010000e-06	3.206874e-06	3.578631e-09	4.474982e+01	2.312411e+02
2.020000e-06	3.158704e-06	3.455706e-09	4.407764e+01	2.298604e+02
2.030000e-06	3.109224e-06	3.420959e-09	4.338718e+01	2.284488e+02
2.040000e-06	3.058824e-06	3.458830e-09	4.268387e+01	2.270052e+02
2.050000e-06	3.007333e-06	3.482012e-09	4.196535e+01	2.255269e+02
2.060000e-06	2.954528e-06	3.367368e-09	4.122849e+01	2.240101e+02
2.070000e-06	2.900334e-06	3.330323e-09	4.047225e+01	2.224501e+02
2.080000e-06	2.844835e-06	3.386015e-09	3.969780e+01	2.208421e+02
2.090000e-06	2.788386e-06	3.331066e-09	3.891009e+01	2.191817e+02
2.100000e-06	2.730962e-06	3.287431e-09	3.810878e+01	2.174649e+02
2.110000e-06	2.672621e-06	3.258881e-09	3.729466e+01	2.156884e+02
2.120000e-06	2.613540e-06	3.252610e-09	3.647023e+01	2.138498e+02
2.130000e-06	2.553665e-06	3.226998e-09	3.563471e+01	2.119470e+02
2.140000e-06	2.492897e-06	3.170905e-09	3.478674e+01	2.099788e+02
2.150000e-06	2.431049e-06	3.168082e-09	3.392368e+01	2.079437e+02
2.160000e-06	2.368060e-06	3.124707e-09	3.304472e+01	2.058402e+02
2.170000e-06	2.304140e-06	3.083887e-09	3.215276e+01	2.036661e+02
2.180000e-06	2.239530e-06	3.068492e-09	3.125116e+01	2.014189e+02
2.190000e-06	2.174239e-06	3.026250e-09	3.034007e+01	1.990951e+02
2.200000e-06	2.108144e-06	2.980806e-09	2.941777e+01	1.966904e+02
2.210000e-06	2.041312e-06	2.936433e-09	2.848516e+01	1.942001e+02
2.220000e-06	1.973831e-06	2.926673e-09	2.754351e+01	1.916186e+02
2.230000e-06	1.905742e-06	2.880576e-09	2.659338e+01	1.889405e+02
2.240000e-06	1.837028e-06	2.802209e-09	2.563452e+01	1.861602e+02
2.250000e-06	1.767533e-06	2.777307e-09	2.466477e+01	1.832721e+02
2.260000e-06	1.697186e-06	2.750249e-09	2.368311e+01	1.802712e+02
2.270000e-06	1.626012e-06	2.691024e-09	2.268993e+01	1.771526e+02
2.280000e-06	1.554183e-06	2.623543e-09	2.168760e+01	1.739118e+02
2.290000e-06	1.481960e-06	2.585263e-09	2.067977e+01	1.705442e+02
2.300000e-06	1.409347e-06	2.546105e-09	1.966651e+01	1.670455e+02
2.310000e-06	1.336274e-06	2.480516e-09	1.864683e+01	1.634106e+02
2.320000e-06	1.262745e-06	2.423476e-09	1.762078e+01	1.596338e+02
2.330000e-06	1.188788e-06	2.363376e-09	1.658876e+01	1.557087e+02
2.340000e-06	1.114416e-06	2.300446e-09	1.555094e+01	1.516275e+02
2.350000e-06	1.039636e-06	2.239750e-09	1.450743e+01	1.473811e+02
2.360000e-06	9.645363e-07	2.178920e-09	1.345947e+01	1.429589e+02
2.370000e-06	8.890923e-07	2.103086e-09	1.240670e+01	1.383493e+02
2.380000e-06	8.133209e-07	2.016883e-09	1.134936e+01	1.335393e+02
2.390000e-06	7.372746e-07	1.948085e-09	1.028818e+01	1.285150e+02
2.400000e-06	6.609119e-07	1.877277e-09	9.222590e+00	1.232620e+02
2.410000e-06	5.842669e-07	1.786916e-09	8.153061e+00	1.177656e+02
2.420000e-06	5.074070e-07	1.691737e-09	7.080531e+00	1.120115e+02
2.430000e-06	4.303572e-07	1.607282e-09	6.005352e+00	1.059860e+02
2.440000e-06	3.530384e-07	1.519109e-09	4.926418e+00	9.967692e+01
2.450000e-06	2.755094e-07	1.411865e-09	3.844552e+00	9.307365e+01
2.460000e-06	1.978092e-07	1.300344e-09	2.760298e+00	8.616815e+01
2.470000e-06	1.198461e-07	1.195983e-09	1.672374e+00	7.895528e+01
2.480000e-06	4.181998e-08	1.085460e-09	5.835703e-01	7.143343e+01
2.490000e-06	-3.606924e-08	9.622435e-10	-5.033224e-01	6.360507e+01
2.500000e-06	-1.138788e-07	8.376703e-10	-1.589104e+00	5.547722e+01
2.510000e-06	-1.916081e-07	7.108224e-10	-2.673764e+00	4.706193e+01
2.520000e-06	-2.691469e-07	5.787543e-10	-3.755767e+00	3.837657e+01
2.530000e-06	-3.464270e-07	4.437994e-10	-4.834160e+00	2.944410e+01
2.540000e-06	-4.234440e-07	3.058653e-10	-5.908882e+00	2.029301e+01
2.550000e-06	-5.002283e-07	1.625765e-10	-6.980356e+00	1.095722e+01
2.560000e-06	-5.767860e-07	1.744507e-11	-8.048669e+00	1.475637e+00
2.570000e-06	-6.531358e-07	-1.249744e-10	-9.114080e+00	-8.108456e+00
2.580000e-06	-7.292633e-07	-2.690804e-10	-1.017639e+01	-1.774828e+01
2.590000e-06	-8.051653e-07	-4.181520e-10	-1.123555e+01	-2.739465e+01
2.600000e-06	-8.808073e-07	-5.658982e-10	-1.229109e+01	-3.699718e+01
2.610000e-06	-9.560852e-07	-7.066612e-10	-1.334154e+01	-4.650567e+01
2.620000e-06	-1.030991e-06	-8.473493e-10	-1.438680e+01	-5.587153e+01
2.630000e-06	-1.105554e-06	-9.891880e-10	-1.542727e+01	-6.504912e+01
2.640000e-06	-1.179734e-06	-1.125791e-09	-1.646241e+01	-7.399704e+01
2.650000e-06	-1.253487e-06	-1.255965e-09	-1.749158e+01	-8.267924e+01
2.660000e-06	-1.326782e-06	-1.385007e-09	-1.851437e+01	-9.106588e+01
2.670000e-06	-1.399560e-06	-1.511399e-09	-1.952994e+01	-9.913387e+01
2.680000e-06	-1.471897e-06	-1.630403e-09	-2.053936e+01	-1.068672e+02
2.690000e-06	-1.543919e-06	-1.743738e-09	-2.154438e+01	-1.142567e+02
2.700000e-06	-1.615542e-06	-1.851670e-09	-2.254382e+01	-1.213001e+02
2.710000e-06	-1.686550e-06	-1.953843e-09	-2.353469e+01	-1.280007e+02
2.720000e-06	-1.756638e-06	-2.049284e-09	-2.451273e+01	-1.343671e+02
2.730000e-06	-1.825764e-06	-2.140324e-09	-2.547734e+01	-1.404119e+02
2.740000e-06	-1.894204e-06	-2.227862e-09	-2.643237e+01	-1.461506e+02
2.750000e-06	-1.962109e-06	-2.312952e-09	-2.737993e+01	-1.516007e+02
2.760000e-06	-2.029436e-06	-2.394983e-09	-2.831945e+01	-1.567801e+02
2.770000e-06	-2.096116e-06	-2.470850e-09	-2.924992e+01	-1.617068e+02
2.780000e-06	-2.162105e-06	-2.542868e-09	-3.017076e+01	-1.663975e+02
2.790000e-06	-2.227311e-06	-2.611799e-09	-3.108065e+01	-1.708675e+02
2.800000e-06	-2.291776e-06	-2.677369e-09	-3.198022e+01	-1.751301e+02
2.810000e-06	-2.355609e-06	-2.740014e-09	-3.287097e+01	-1.791966e+02
2.820000e-06	-2.418570e-06	-2.800587e-09	-3.374955e+01	-1.830763e+02
2.830000e-06	-2.480296e-06	-2.858450e-09	-3.461090e+01	-1.867767e+02
2.840000e-06	-2.540932e-06	-2.914289e-09	-3.545703e+01	-1.903039e+02
2.850000e-06	-2.600850e-06	-2.967774e-09	-3.629315e+01	-1.936630e+02
2.860000e-06	-2.659998e-06	-3.017332e-09	-3.711852e+01	-1.968589e+02
2.870000e-06	-2.718152e-06	-3.064458e-09	-3.793003e+01	-1.998963e+02
2.880000e-06	-2.775306e-06	-3.110263e-09	-3.872757e+01	-2.027801e+02
2.890000e-06	-2.831612e-06	-3.153970e-09	-3.951329e+01	-2.055162e+02
2.900000e-06	-2.887014e-06	-3.195373e-09	-4.028638e+01	-2.081108e+02
2.910000e-06	-2.941098e-06	-3.235690e-09	-4.104108e+01	-2.105712e+02
2.920000e-06	-2.993775e-06	-3.272826e-09	-4.177616e+01	-2.129052e+02
2.930000e-06	-3.045259e-06	-3.306390e-09	-4.249459e+01	-2.151210e+02
2.940000e-06	-3.095614e-06	-3.339969e-09	-4.319726e+01	-2.172266e+02
