# Temperatura_=_20.0
# Concentracion g/m^3_=_9000.0
# C_Vs_to_Am_M_A/Vsm_=_65563218390.804596
# pendiente_HvsI_1/m_=_3716.3
# ordenada_HvsI_A/m_=_1297.0
# frecuencia_Hz_=_135475.69734153553

Tiempo_(s)	Campo_(V.s)	Magnetizacion_(V.s)	Campo_(kA/m)	Magnetizacion_(A/m)
0.000000e+00	-7.807543e-06	-4.651993e-09	-5.691532e+01	-3.040849e+02
1.000000e-08	-7.807677e-06	-4.650064e-09	-5.691630e+01	-3.042947e+02
2.000000e-08	-7.807417e-06	-4.649253e-09	-5.691440e+01	-3.045082e+02
3.000000e-08	-7.806675e-06	-4.649683e-09	-5.690899e+01	-3.047170e+02
4.000000e-08	-7.805261e-06	-4.648515e-09	-5.689869e+01	-3.049120e+02
5.000000e-08	-7.803006e-06	-4.646216e-09	-5.688225e+01	-3.050839e+02
6.000000e-08	-7.799946e-06	-4.644079e-09	-5.685994e+01	-3.052230e+02
7.000000e-08	-7.796390e-06	-4.638811e-09	-5.683402e+01	-3.053198e+02
8.000000e-08	-7.792543e-06	-4.622520e-09	-5.680597e+01	-3.053648e+02
9.000000e-08	-7.788252e-06	-4.622407e-09	-5.677470e+01	-3.053494e+02
1.000000e-07	-7.783281e-06	-4.682619e-09	-5.673846e+01	-3.052654e+02
1.100000e-07	-7.777401e-06	-4.744768e-09	-5.669559e+01	-3.051060e+02
1.200000e-07	-7.770610e-06	-4.705795e-09	-5.664609e+01	-3.048651e+02
1.300000e-07	-7.763201e-06	-4.535112e-09	-5.659208e+01	-3.045384e+02
1.400000e-07	-7.755533e-06	-4.488465e-09	-5.653618e+01	-3.041228e+02
1.500000e-07	-7.747732e-06	-4.660717e-09	-5.647931e+01	-3.036169e+02
1.600000e-07	-7.739594e-06	-4.792507e-09	-5.641999e+01	-3.030210e+02
1.700000e-07	-7.730957e-06	-4.640071e-09	-5.635703e+01	-3.023369e+02
1.800000e-07	-7.721709e-06	-4.519552e-09	-5.628961e+01	-3.015682e+02
1.900000e-07	-7.711515e-06	-4.591493e-09	-5.621530e+01	-3.007202e+02
2.000000e-07	-7.700430e-06	-4.738395e-09	-5.613450e+01	-2.997995e+02
2.100000e-07	-7.688808e-06	-4.774777e-09	-5.604977e+01	-2.988141e+02
2.200000e-07	-7.676666e-06	-4.641011e-09	-5.596125e+01	-2.977732e+02
2.300000e-07	-7.663852e-06	-4.498209e-09	-5.586784e+01	-2.966871e+02
2.400000e-07	-7.650443e-06	-4.592294e-09	-5.577010e+01	-2.955667e+02
2.500000e-07	-7.636595e-06	-4.764604e-09	-5.566915e+01	-2.944235e+02
2.600000e-07	-7.622049e-06	-4.626749e-09	-5.556311e+01	-2.932694e+02
2.700000e-07	-7.606489e-06	-4.344461e-09	-5.544968e+01	-2.921160e+02
2.800000e-07	-7.590117e-06	-4.389864e-09	-5.533034e+01	-2.909750e+02
2.900000e-07	-7.573282e-06	-4.566022e-09	-5.520761e+01	-2.898574e+02
3.000000e-07	-7.555998e-06	-4.421865e-09	-5.508161e+01	-2.887735e+02
3.100000e-07	-7.538271e-06	-4.211367e-09	-5.495238e+01	-2.877328e+02
3.200000e-07	-7.520079e-06	-4.280511e-09	-5.481977e+01	-2.867435e+02
3.300000e-07	-7.501323e-06	-4.393115e-09	-5.468304e+01	-2.858127e+02
3.400000e-07	-7.482022e-06	-4.353503e-09	-5.454234e+01	-2.849459e+02
3.500000e-07	-7.462311e-06	-4.317971e-09	-5.439865e+01	-2.841474e+02
3.600000e-07	-7.442238e-06	-4.251152e-09	-5.425233e+01	-2.834198e+02
3.700000e-07	-7.421754e-06	-4.252400e-09	-5.410301e+01	-2.827642e+02
3.800000e-07	-7.400855e-06	-4.336466e-09	-5.395065e+01	-2.821801e+02
3.900000e-07	-7.379491e-06	-4.399030e-09	-5.379491e+01	-2.816658e+02
4.000000e-07	-7.357481e-06	-4.274488e-09	-5.363447e+01	-2.812179e+02
4.100000e-07	-7.334750e-06	-4.210663e-09	-5.346877e+01	-2.808322e+02
4.200000e-07	-7.311444e-06	-4.328462e-09	-5.329887e+01	-2.805032e+02
4.300000e-07	-7.287767e-06	-4.421740e-09	-5.312627e+01	-2.802245e+02
4.400000e-07	-7.263769e-06	-4.285292e-09	-5.295133e+01	-2.799891e+02
4.500000e-07	-7.239330e-06	-4.171092e-09	-5.277317e+01	-2.797894e+02
4.600000e-07	-7.214406e-06	-4.299323e-09	-5.259148e+01	-2.796177e+02
4.700000e-07	-7.188790e-06	-4.399296e-09	-5.240475e+01	-2.794660e+02
4.800000e-07	-7.162235e-06	-4.257495e-09	-5.221117e+01	-2.793266e+02
4.900000e-07	-7.134962e-06	-4.184389e-09	-5.201235e+01	-2.791920e+02
5.000000e-07	-7.107365e-06	-4.299656e-09	-5.181117e+01	-2.790552e+02
5.100000e-07	-7.079467e-06	-4.323446e-09	-5.160781e+01	-2.789097e+02
5.200000e-07	-7.051154e-06	-4.250403e-09	-5.140141e+01	-2.787499e+02
5.300000e-07	-7.022426e-06	-4.242930e-09	-5.119199e+01	-2.785709e+02
5.400000e-07	-6.993199e-06	-4.249226e-09	-5.097893e+01	-2.783688e+02
5.500000e-07	-6.963437e-06	-4.239327e-09	-5.076197e+01	-2.781406e+02
5.600000e-07	-6.933218e-06	-4.278699e-09	-5.054168e+01	-2.778843e+02
5.700000e-07	-6.902464e-06	-4.258381e-09	-5.031749e+01	-2.775986e+02
5.800000e-07	-6.871168e-06	-4.188313e-09	-5.008935e+01	-2.772833e+02
5.900000e-07	-6.839523e-06	-4.204290e-09	-4.985866e+01	-2.769391e+02
6.000000e-07	-6.807616e-06	-4.271060e-09	-4.962607e+01	-2.765672e+02
6.100000e-07	-6.775291e-06	-4.237145e-09	-4.939042e+01	-2.761695e+02
6.200000e-07	-6.742336e-06	-4.172783e-09	-4.915019e+01	-2.757485e+02
6.300000e-07	-6.708698e-06	-4.179260e-09	-4.890498e+01	-2.753070e+02
6.400000e-07	-6.674363e-06	-4.228978e-09	-4.865468e+01	-2.748480e+02
6.500000e-07	-6.639399e-06	-4.216398e-09	-4.839980e+01	-2.743747e+02
6.600000e-07	-6.603924e-06	-4.162051e-09	-4.814120e+01	-2.738903e+02
6.700000e-07	-6.568067e-06	-4.153301e-09	-4.787980e+01	-2.733978e+02
6.800000e-07	-6.531849e-06	-4.191936e-09	-4.761579e+01	-2.729001e+02
6.900000e-07	-6.495136e-06	-4.179003e-09	-4.734815e+01	-2.723997e+02
7.000000e-07	-6.457916e-06	-4.139665e-09	-4.707683e+01	-2.718986e+02
7.100000e-07	-6.420254e-06	-4.134403e-09	-4.680228e+01	-2.713984e+02
7.200000e-07	-6.382205e-06	-4.146070e-09	-4.652491e+01	-2.709005e+02
7.300000e-07	-6.343740e-06	-4.139931e-09	-4.624451e+01	-2.704053e+02
7.400000e-07	-6.304840e-06	-4.129520e-09	-4.596094e+01	-2.699130e+02
7.500000e-07	-6.265548e-06	-4.107526e-09	-4.567451e+01	-2.694234e+02
7.600000e-07	-6.225973e-06	-4.090507e-09	-4.538602e+01	-2.689355e+02
7.700000e-07	-6.186141e-06	-4.105013e-09	-4.509565e+01	-2.684482e+02
7.800000e-07	-6.145979e-06	-4.108076e-09	-4.480287e+01	-2.679601e+02
7.900000e-07	-6.105347e-06	-4.071110e-09	-4.450668e+01	-2.674691e+02
8.000000e-07	-6.063987e-06	-4.051048e-09	-4.420517e+01	-2.669736e+02
8.100000e-07	-6.021899e-06	-4.072518e-09	-4.389836e+01	-2.664712e+02
8.200000e-07	-5.979183e-06	-4.074635e-09	-4.358697e+01	-2.659601e+02
8.300000e-07	-5.935889e-06	-4.039704e-09	-4.327136e+01	-2.654381e+02
8.400000e-07	-5.892186e-06	-4.014649e-09	-4.295278e+01	-2.649033e+02
8.500000e-07	-5.848168e-06	-4.024235e-09	-4.263189e+01	-2.643541e+02
8.600000e-07	-5.803788e-06	-4.027347e-09	-4.230837e+01	-2.637889e+02
8.700000e-07	-5.759053e-06	-4.002198e-09	-4.198227e+01	-2.632067e+02
8.800000e-07	-5.713963e-06	-3.972632e-09	-4.165357e+01	-2.626066e+02
8.900000e-07	-5.668560e-06	-3.970589e-09	-4.132259e+01	-2.619881e+02
9.000000e-07	-5.622831e-06	-3.973683e-09	-4.098924e+01	-2.613510e+02
9.100000e-07	-5.576660e-06	-3.962152e-09	-4.065266e+01	-2.606953e+02
9.200000e-07	-5.530136e-06	-3.938514e-09	-4.031351e+01	-2.600216e+02
9.300000e-07	-5.483217e-06	-3.924102e-09	-3.997148e+01	-2.593306e+02
9.400000e-07	-5.435745e-06	-3.921317e-09	-3.962542e+01	-2.586230e+02
9.500000e-07	-5.387858e-06	-3.920004e-09	-3.927633e+01	-2.578999e+02
9.600000e-07	-5.339743e-06	-3.901888e-09	-3.892559e+01	-2.571624e+02
9.700000e-07	-5.291240e-06	-3.878309e-09	-3.857201e+01	-2.564117e+02
9.800000e-07	-5.242091e-06	-3.867932e-09	-3.821372e+01	-2.556490e+02
9.900000e-07	-5.192264e-06	-3.867927e-09	-3.785050e+01	-2.548752e+02
1.000000e-06	-5.141872e-06	-3.853613e-09	-3.748315e+01	-2.540913e+02
1.010000e-06	-5.091001e-06	-3.827588e-09	-3.711231e+01	-2.532981e+02
1.020000e-06	-5.039700e-06	-3.811641e-09	-3.673834e+01	-2.524960e+02
1.030000e-06	-4.988010e-06	-3.807670e-09	-3.636153e+01	-2.516855e+02
1.040000e-06	-4.935932e-06	-3.797226e-09	-3.598189e+01	-2.508664e+02
1.050000e-06	-4.883500e-06	-3.776674e-09	-3.559967e+01	-2.500386e+02
1.060000e-06	-4.830761e-06	-3.759207e-09	-3.521522e+01	-2.492017e+02
1.070000e-06	-4.777672e-06	-3.749891e-09	-3.482821e+01	-2.483550e+02
1.080000e-06	-4.724245e-06	-3.742997e-09	-3.443874e+01	-2.474976e+02
1.090000e-06	-4.670448e-06	-3.729775e-09	-3.404657e+01	-2.466284e+02
1.100000e-06	-4.616212e-06	-3.712577e-09	-3.365120e+01	-2.457464e+02
1.110000e-06	-4.561717e-06	-3.697588e-09	-3.325394e+01	-2.448501e+02
1.120000e-06	-4.506948e-06	-3.686107e-09	-3.285469e+01	-2.439385e+02
1.130000e-06	-4.451826e-06	-3.671203e-09	-3.245286e+01	-2.430103e+02
1.140000e-06	-4.396498e-06	-3.651902e-09	-3.204953e+01	-2.420644e+02
1.150000e-06	-4.340961e-06	-3.631979e-09	-3.164468e+01	-2.410997e+02
1.160000e-06	-4.285205e-06	-3.617209e-09	-3.123823e+01	-2.401153e+02
1.170000e-06	-4.229306e-06	-3.605310e-09	-3.083074e+01	-2.391107e+02
1.180000e-06	-4.173214e-06	-3.593971e-09	-3.042184e+01	-2.380853e+02
1.190000e-06	-4.116850e-06	-3.577811e-09	-3.001096e+01	-2.370389e+02
1.200000e-06	-4.060052e-06	-3.561044e-09	-2.959691e+01	-2.359715e+02
1.210000e-06	-4.002813e-06	-3.545602e-09	-2.917965e+01	-2.348832e+02
1.220000e-06	-3.945195e-06	-3.530065e-09	-2.875963e+01	-2.337744e+02
1.230000e-06	-3.887092e-06	-3.512630e-09	-2.833607e+01	-2.326455e+02
1.240000e-06	-3.828511e-06	-3.492389e-09	-2.790903e+01	-2.314972e+02
1.250000e-06	-3.769525e-06	-3.471336e-09	-2.747903e+01	-2.303301e+02
1.260000e-06	-3.710283e-06	-3.452464e-09	-2.704717e+01	-2.291447e+02
1.270000e-06	-3.650858e-06	-3.434552e-09	-2.661397e+01	-2.279416e+02
1.280000e-06	-3.591274e-06	-3.416516e-09	-2.617962e+01	-2.267213e+02
1.290000e-06	-3.531502e-06	-3.396387e-09	-2.574389e+01	-2.254839e+02
1.300000e-06	-3.471490e-06	-3.375701e-09	-2.530642e+01	-2.242293e+02
1.310000e-06	-3.411288e-06	-3.356409e-09	-2.486756e+01	-2.229573e+02
1.320000e-06	-3.350901e-06	-3.336267e-09	-2.442735e+01	-2.216672e+02
1.330000e-06	-3.290284e-06	-3.313883e-09	-2.398547e+01	-2.203580e+02
1.340000e-06	-3.229445e-06	-3.289017e-09	-2.354196e+01	-2.190282e+02
1.350000e-06	-3.168415e-06	-3.263566e-09	-2.309707e+01	-2.176760e+02
1.360000e-06	-3.107171e-06	-3.238540e-09	-2.265061e+01	-2.162994e+02
1.370000e-06	-3.045718e-06	-3.213023e-09	-2.220264e+01	-2.148959e+02
1.380000e-06	-2.983996e-06	-3.190731e-09	-2.175269e+01	-2.134626e+02
1.390000e-06	-2.922015e-06	-3.172736e-09	-2.130087e+01	-2.119965e+02
1.400000e-06	-2.859902e-06	-3.153933e-09	-2.084808e+01	-2.104945e+02
1.410000e-06	-2.797640e-06	-3.132847e-09	-2.039420e+01	-2.089532e+02
1.420000e-06	-2.735125e-06	-3.111034e-09	-1.993848e+01	-2.073693e+02
1.430000e-06	-2.672430e-06	-3.087207e-09	-1.948144e+01	-2.057394e+02
1.440000e-06	-2.609618e-06	-3.058531e-09	-1.902356e+01	-2.040604e+02
1.450000e-06	-2.546672e-06	-3.028250e-09	-1.856469e+01	-2.023293e+02
1.460000e-06	-2.483643e-06	-3.000211e-09	-1.810523e+01	-2.005433e+02
1.470000e-06	-2.420389e-06	-2.973067e-09	-1.764412e+01	-1.987000e+02
1.480000e-06	-2.356904e-06	-2.943245e-09	-1.718132e+01	-1.967974e+02
1.490000e-06	-2.293346e-06	-2.911257e-09	-1.671800e+01	-1.948338e+02
1.500000e-06	-2.229652e-06	-2.880120e-09	-1.625369e+01	-1.928078e+02
1.510000e-06	-2.165780e-06	-2.851550e-09	-1.578807e+01	-1.907185e+02
1.520000e-06	-2.101790e-06	-2.820283e-09	-1.532160e+01	-1.885654e+02
1.530000e-06	-2.037703e-06	-2.782632e-09	-1.485442e+01	-1.863480e+02
1.540000e-06	-1.973478e-06	-2.743020e-09	-1.438624e+01	-1.840662e+02
1.550000e-06	-1.909136e-06	-2.706202e-09	-1.391719e+01	-1.817200e+02
1.560000e-06	-1.844676e-06	-2.670220e-09	-1.344730e+01	-1.793093e+02
1.570000e-06	-1.780118e-06	-2.630642e-09	-1.297668e+01	-1.768338e+02
1.580000e-06	-1.715538e-06	-2.587590e-09	-1.250590e+01	-1.742931e+02
1.590000e-06	-1.650794e-06	-2.546622e-09	-1.203393e+01	-1.716861e+02
1.600000e-06	-1.585809e-06	-2.506747e-09	-1.156021e+01	-1.690113e+02
1.610000e-06	-1.520686e-06	-2.465621e-09	-1.108548e+01	-1.662665e+02
1.620000e-06	-1.455377e-06	-2.421795e-09	-1.060939e+01	-1.634483e+02
1.630000e-06	-1.389928e-06	-2.374701e-09	-1.013228e+01	-1.605529e+02
1.640000e-06	-1.324367e-06	-2.327459e-09	-9.654356e+00	-1.575748e+02
1.650000e-06	-1.258623e-06	-2.280631e-09	-9.175093e+00	-1.545077e+02
1.660000e-06	-1.192766e-06	-2.228913e-09	-8.695007e+00	-1.513441e+02
1.670000e-06	-1.126822e-06	-2.172231e-09	-8.214293e+00	-1.480752e+02
1.680000e-06	-1.060799e-06	-2.117008e-09	-7.732999e+00	-1.446910e+02
1.690000e-06	-9.946751e-07	-2.062432e-09	-7.250970e+00	-1.411806e+02
1.700000e-06	-9.284246e-07	-2.003982e-09	-6.768017e+00	-1.375318e+02
1.710000e-06	-8.620604e-07	-1.942215e-09	-6.284237e+00	-1.337319e+02
1.720000e-06	-7.955836e-07	-1.880796e-09	-5.799635e+00	-1.297672e+02
1.730000e-06	-7.290960e-07	-1.818249e-09	-5.314955e+00	-1.256239e+02
1.740000e-06	-6.625749e-07	-1.751513e-09	-4.830030e+00	-1.212878e+02
1.750000e-06	-5.959508e-07	-1.679591e-09	-4.344355e+00	-1.167451e+02
1.760000e-06	-5.292542e-07	-1.605890e-09	-3.858150e+00	-1.119821e+02
1.770000e-06	-4.625073e-07	-1.531857e-09	-3.371580e+00	-1.069862e+02
1.780000e-06	-3.957747e-07	-1.454157e-09	-2.885113e+00	-1.017458e+02
1.790000e-06	-3.289890e-07	-1.370917e-09	-2.398259e+00	-9.625076e+01
1.800000e-06	-2.621787e-07	-1.285530e-09	-1.911227e+00	-9.049273e+01
1.810000e-06	-1.954008e-07	-1.198205e-09	-1.424430e+00	-8.446555e+01
1.820000e-06	-1.285669e-07	-1.105025e-09	-9.372256e-01	-7.816545e+01
1.830000e-06	-6.166761e-08	-1.006293e-09	-4.495437e-01	-7.159134e+01
1.840000e-06	5.314267e-09	-9.044121e-10	3.873987e-02	-6.474507e+01
1.850000e-06	7.227297e-08	-7.985144e-10	5.268545e-01	-5.763156e+01
1.860000e-06	1.390724e-07	-6.871498e-10	1.013808e+00	-5.025894e+01
1.870000e-06	2.058041e-07	-5.705212e-10	1.500268e+00	-4.263863e+01
1.880000e-06	2.725694e-07	-4.501153e-10	1.986972e+00	-3.478531e+01
1.890000e-06	3.394049e-07	-3.253423e-10	2.474189e+00	-2.671690e+01
1.900000e-06	4.061955e-07	-1.980755e-10	2.961079e+00	-1.845439e+01
1.910000e-06	4.729282e-07	-6.889417e-11	3.447546e+00	-1.002167e+01
1.920000e-06	5.396746e-07	6.395940e-11	3.934113e+00	-1.445291e+00
1.930000e-06	6.063681e-07	2.003005e-10	4.420294e+00	7.245869e+00
1.940000e-06	6.729353e-07	3.380993e-10	4.905555e+00	1.602096e+01
1.950000e-06	7.394396e-07	4.762530e-10	5.390357e+00	2.484757e+01
1.960000e-06	8.058968e-07	6.161249e-10	5.874816e+00	3.369217e+01
1.970000e-06	8.722635e-07	7.553733e-10	6.358615e+00	4.252060e+01
1.980000e-06	9.385602e-07	8.925685e-10	6.841904e+00	5.129852e+01
1.990000e-06	1.004660e-06	1.029390e-09	7.323759e+00	5.999198e+01
2.000000e-06	1.070488e-06	1.164645e-09	7.803626e+00	6.856786e+01
2.010000e-06	1.136238e-06	1.295298e-09	8.282934e+00	7.699441e+01
2.020000e-06	1.202049e-06	1.421715e-09	8.762682e+00	8.524164e+01
2.030000e-06	1.267822e-06	1.543353e-09	9.242152e+00	9.328184e+01
2.040000e-06	1.333507e-06	1.660112e-09	9.720985e+00	1.010899e+02
2.050000e-06	1.399109e-06	1.772946e-09	1.019921e+01	1.086436e+02
2.060000e-06	1.464524e-06	1.880603e-09	1.067607e+01	1.159240e+02
2.070000e-06	1.529733e-06	1.981638e-09	1.115143e+01	1.229158e+02
2.080000e-06	1.594835e-06	2.076982e-09	1.162601e+01	1.296069e+02
2.090000e-06	1.659823e-06	2.167820e-09	1.209976e+01	1.359891e+02
2.100000e-06	1.724664e-06	2.254549e-09	1.257243e+01	1.420578e+02
2.110000e-06	1.789339e-06	2.336758e-09	1.304390e+01	1.478121e+02
2.120000e-06	1.853830e-06	2.414827e-09	1.351402e+01	1.532544e+02
2.130000e-06	1.918105e-06	2.491374e-09	1.398257e+01	1.583906e+02
2.140000e-06	1.982259e-06	2.567992e-09	1.445025e+01	1.632292e+02
2.150000e-06	2.046346e-06	2.641305e-09	1.491742e+01	1.677819e+02
2.160000e-06	2.110289e-06	2.709834e-09	1.538356e+01	1.720623e+02
2.170000e-06	2.174107e-06	2.773831e-09	1.584878e+01	1.760862e+02
2.180000e-06	2.237788e-06	2.834212e-09	1.631300e+01	1.798709e+02
2.190000e-06	2.301303e-06	2.889671e-09	1.677601e+01	1.834349e+02
2.200000e-06	2.364724e-06	2.940194e-09	1.723833e+01	1.867972e+02
2.210000e-06	2.428120e-06	2.988588e-09	1.770048e+01	1.899772e+02
2.220000e-06	2.491322e-06	3.037161e-09	1.816121e+01	1.929943e+02
2.230000e-06	2.554267e-06	3.084036e-09	1.862006e+01	1.958672e+02
2.240000e-06	2.617043e-06	3.129833e-09	1.907768e+01	1.986139e+02
2.250000e-06	2.679675e-06	3.176680e-09	1.953426e+01	2.012510e+02
2.260000e-06	2.742242e-06	3.220237e-09	1.999036e+01	2.037941e+02
2.270000e-06	2.804638e-06	3.258062e-09	2.044522e+01	2.062568e+02
2.280000e-06	2.866802e-06	3.291269e-09	2.089838e+01	2.086512e+02
2.290000e-06	2.928783e-06	3.321700e-09	2.135020e+01	2.109872e+02
2.300000e-06	2.990523e-06	3.350058e-09	2.180027e+01	2.132733e+02
2.310000e-06	3.052006e-06	3.381459e-09	2.224847e+01	2.155155e+02
2.320000e-06	3.113264e-06	3.413202e-09	2.269503e+01	2.177186e+02
2.330000e-06	3.174359e-06	3.443078e-09	2.314040e+01	2.198851e+02
2.340000e-06	3.235218e-06	3.472419e-09	2.358405e+01	2.220164e+02
2.350000e-06	3.295813e-06	3.501674e-09	2.402577e+01	2.241121e+02
2.360000e-06	3.356283e-06	3.530542e-09	2.446659e+01	2.261711e+02
2.370000e-06	3.416593e-06	3.557485e-09	2.490624e+01	2.281909e+02
2.380000e-06	3.476748e-06	3.581870e-09	2.534475e+01	2.301687e+02
2.390000e-06	3.536701e-06	3.606766e-09	2.578179e+01	2.321010e+02
2.400000e-06	3.596408e-06	3.633994e-09	2.621705e+01	2.339843e+02
2.410000e-06	3.655845e-06	3.659308e-09	2.665033e+01	2.358151e+02
2.420000e-06	3.715028e-06	3.680853e-09	2.708176e+01	2.375900e+02
2.430000e-06	3.773975e-06	3.701093e-09	2.751147e+01	2.393064e+02
2.440000e-06	3.832505e-06	3.721636e-09	2.793815e+01	2.409621e+02
2.450000e-06	3.890590e-06	3.741945e-09	2.836157e+01	2.425557e+02
2.460000e-06	3.948330e-06	3.762557e-09	2.878249e+01	2.440868e+02
2.470000e-06	4.005760e-06	3.782803e-09	2.920113e+01	2.455556e+02
2.480000e-06	4.062843e-06	3.803577e-09	2.961726e+01	2.469636e+02
2.490000e-06	4.119516e-06	3.825485e-09	3.003039e+01	2.483130e+02
2.500000e-06	4.175802e-06	3.845517e-09	3.044071e+01	2.496070e+02
2.510000e-06	4.231819e-06	3.861261e-09	3.084906e+01	2.508493e+02
2.520000e-06	4.287575e-06	3.876497e-09	3.125551e+01	2.520447e+02
2.530000e-06	4.343035e-06	3.892216e-09	3.165980e+01	2.531982e+02
2.540000e-06	4.398167e-06	3.906984e-09	3.206170e+01	2.543152e+02
2.550000e-06	4.453060e-06	3.922512e-09	3.246185e+01	2.554014e+02
2.560000e-06	4.507750e-06	3.939183e-09	3.286054e+01	2.564625e+02
2.570000e-06	4.562079e-06	3.957570e-09	3.325658e+01	2.575041e+02
2.580000e-06	4.616133e-06	3.978342e-09	3.365062e+01	2.585314e+02
2.590000e-06	4.669968e-06	3.996537e-09	3.404307e+01	2.595491e+02
2.600000e-06	4.723513e-06	4.011339e-09	3.443340e+01	2.605614e+02
2.610000e-06	4.776679e-06	4.026039e-09	3.482097e+01	2.615718e+02
2.620000e-06	4.829407e-06	4.040728e-09	3.520534e+01	2.625830e+02
2.630000e-06	4.881829e-06	4.051838e-09	3.558749e+01	2.635967e+02
2.640000e-06	4.933927e-06	4.061455e-09	3.596727e+01	2.646138e+02
2.650000e-06	4.985550e-06	4.074194e-09	3.634359e+01	2.656343e+02
2.660000e-06	5.036713e-06	4.089662e-09	3.671656e+01	2.666573e+02
2.670000e-06	5.087440e-06	4.106811e-09	3.708635e+01	2.676812e+02
2.680000e-06	5.137676e-06	4.121862e-09	3.745256e+01	2.687035e+02
2.690000e-06	5.187307e-06	4.135513e-09	3.781436e+01	2.697212e+02
2.700000e-06	5.236401e-06	4.148854e-09	3.817225e+01	2.707307e+02
2.710000e-06	5.285033e-06	4.160891e-09	3.852676e+01	2.717283e+02
2.720000e-06	5.333223e-06	4.169676e-09	3.887806e+01	2.727099e+02
2.730000e-06	5.381139e-06	4.175372e-09	3.922736e+01	2.736712e+02
2.740000e-06	5.428788e-06	4.186273e-09	3.957471e+01	2.746085e+02
2.750000e-06	5.476021e-06	4.201192e-09	3.991902e+01	2.755179e+02
2.760000e-06	5.522848e-06	4.215494e-09	4.026038e+01	2.763961e+02
2.770000e-06	5.569311e-06	4.227897e-09	4.059909e+01	2.772404e+02
2.780000e-06	5.615317e-06	4.241736e-09	4.093446e+01	2.780485e+02
2.790000e-06	5.660874e-06	4.256893e-09	4.126656e+01	2.788190e+02
2.800000e-06	5.706028e-06	4.270019e-09	4.159573e+01	2.795513e+02
2.810000e-06	5.750798e-06	4.277300e-09	4.192209e+01	2.802454e+02
2.820000e-06	5.795227e-06	4.283305e-09	4.224597e+01	2.809022e+02
2.830000e-06	5.839404e-06	4.293252e-09	4.256801e+01	2.815234e+02
2.840000e-06	5.883385e-06	4.305440e-09	4.288862e+01	2.821113e+02
2.850000e-06	5.927003e-06	4.316868e-09	4.320659e+01	2.826689e+02
2.860000e-06	5.970226e-06	4.326619e-09	4.352167e+01	2.831997e+02
2.870000e-06	6.013027e-06	4.340300e-09	4.383369e+01	2.837078e+02
2.880000e-06	6.055259e-06	4.355781e-09	4.414155e+01	2.841973e+02
2.890000e-06	6.096860e-06	4.369186e-09	4.444481e+01	2.846726e+02
2.900000e-06	6.137796e-06	4.379026e-09	4.474322e+01	2.851381e+02
2.910000e-06	6.178232e-06	4.385739e-09	4.503799e+01	2.855980e+02
