# Temperatura_=_20.0
# Concentracion g/m^3_=_9000.0
# C_Vs_to_Am_M_A/Vsm_=_65563218390.804596
# pendiente_HvsI_1/m_=_3716.3
# ordenada_HvsI_A/m_=_1297.0
# frecuencia_Hz_=_135477.67039363572

Tiempo_(s)	Campo_(V.s)	Magnetizacion_(V.s)	Campo_(kA/m)	Magnetizacion_(A/m)
0.000000e+00	-7.849359e-06	-4.491332e-09	-5.691168e+01	-3.014596e+02
1.000000e-08	-7.849372e-06	-4.487759e-09	-5.691177e+01	-3.015853e+02
2.000000e-08	-7.848868e-06	-4.487578e-09	-5.690812e+01	-3.017096e+02
3.000000e-08	-7.847670e-06	-4.489004e-09	-5.689943e+01	-3.018270e+02
4.000000e-08	-7.845753e-06	-4.486360e-09	-5.688553e+01	-3.019314e+02
5.000000e-08	-7.843073e-06	-4.480731e-09	-5.686611e+01	-3.020165e+02
6.000000e-08	-7.839790e-06	-4.478677e-09	-5.684230e+01	-3.020761e+02
7.000000e-08	-7.836107e-06	-4.473449e-09	-5.681560e+01	-3.021040e+02
8.000000e-08	-7.832049e-06	-4.462256e-09	-5.678618e+01	-3.020943e+02
9.000000e-08	-7.827453e-06	-4.482427e-09	-5.675285e+01	-3.020414e+02
1.000000e-07	-7.822029e-06	-4.533572e-09	-5.671353e+01	-3.019405e+02
1.100000e-07	-7.815637e-06	-4.554112e-09	-5.666718e+01	-3.017873e+02
1.200000e-07	-7.808472e-06	-4.475433e-09	-5.661523e+01	-3.015786e+02
1.300000e-07	-7.800893e-06	-4.371543e-09	-5.656028e+01	-3.013118e+02
1.400000e-07	-7.793138e-06	-4.398076e-09	-5.650405e+01	-3.009858e+02
1.500000e-07	-7.785128e-06	-4.539777e-09	-5.644597e+01	-3.006000e+02
1.600000e-07	-7.776644e-06	-4.549526e-09	-5.638446e+01	-3.001554e+02
1.700000e-07	-7.767562e-06	-4.439995e-09	-5.631861e+01	-2.996537e+02
1.800000e-07	-7.757663e-06	-4.408007e-09	-5.624684e+01	-2.990979e+02
1.900000e-07	-7.746878e-06	-4.489351e-09	-5.616865e+01	-2.984919e+02
2.000000e-07	-7.735467e-06	-4.579727e-09	-5.608591e+01	-2.978405e+02
2.100000e-07	-7.723614e-06	-4.563472e-09	-5.599997e+01	-2.971493e+02
2.200000e-07	-7.711075e-06	-4.442717e-09	-5.590905e+01	-2.964245e+02
2.300000e-07	-7.697853e-06	-4.397158e-09	-5.581319e+01	-2.956730e+02
2.400000e-07	-7.684251e-06	-4.536402e-09	-5.571457e+01	-2.949020e+02
2.500000e-07	-7.670033e-06	-4.603039e-09	-5.561148e+01	-2.941188e+02
2.600000e-07	-7.654770e-06	-4.448152e-09	-5.550081e+01	-2.933308e+02
2.700000e-07	-7.638559e-06	-4.370812e-09	-5.538328e+01	-2.925453e+02
2.800000e-07	-7.621798e-06	-4.524269e-09	-5.526175e+01	-2.917693e+02
2.900000e-07	-7.604657e-06	-4.583424e-09	-5.513747e+01	-2.910093e+02
3.000000e-07	-7.587154e-06	-4.459996e-09	-5.501056e+01	-2.902712e+02
3.100000e-07	-7.569156e-06	-4.430513e-09	-5.488007e+01	-2.895603e+02
3.200000e-07	-7.550494e-06	-4.511303e-09	-5.474477e+01	-2.888811e+02
3.300000e-07	-7.531254e-06	-4.519044e-09	-5.460526e+01	-2.882371e+02
3.400000e-07	-7.511705e-06	-4.504485e-09	-5.446352e+01	-2.876310e+02
3.500000e-07	-7.491892e-06	-4.476518e-09	-5.431987e+01	-2.870644e+02
3.600000e-07	-7.471620e-06	-4.419492e-09	-5.417289e+01	-2.865382e+02
3.700000e-07	-7.450835e-06	-4.428461e-09	-5.402219e+01	-2.860521e+02
3.800000e-07	-7.429552e-06	-4.510575e-09	-5.386788e+01	-2.856051e+02
3.900000e-07	-7.407742e-06	-4.497613e-09	-5.370974e+01	-2.851952e+02
4.000000e-07	-7.385375e-06	-4.414173e-09	-5.354757e+01	-2.848198e+02
4.100000e-07	-7.362443e-06	-4.423976e-09	-5.338130e+01	-2.844757e+02
4.200000e-07	-7.338988e-06	-4.513020e-09	-5.321124e+01	-2.841592e+02
4.300000e-07	-7.315181e-06	-4.522689e-09	-5.303863e+01	-2.838659e+02
4.400000e-07	-7.290986e-06	-4.423911e-09	-5.286320e+01	-2.835916e+02
4.500000e-07	-7.266181e-06	-4.402075e-09	-5.268336e+01	-2.833317e+02
4.600000e-07	-7.240574e-06	-4.494404e-09	-5.249769e+01	-2.830816e+02
4.700000e-07	-7.214134e-06	-4.483631e-09	-5.230599e+01	-2.828369e+02
4.800000e-07	-7.187051e-06	-4.378542e-09	-5.210963e+01	-2.825934e+02
4.900000e-07	-7.159558e-06	-4.405324e-09	-5.191029e+01	-2.823471e+02
5.000000e-07	-7.131726e-06	-4.471771e-09	-5.170849e+01	-2.820946e+02
5.100000e-07	-7.103528e-06	-4.429792e-09	-5.150404e+01	-2.818328e+02
5.200000e-07	-7.074836e-06	-4.395649e-09	-5.129601e+01	-2.815594e+02
5.300000e-07	-7.045565e-06	-4.419732e-09	-5.108379e+01	-2.812722e+02
5.400000e-07	-7.015839e-06	-4.404566e-09	-5.086825e+01	-2.809699e+02
5.500000e-07	-6.985648e-06	-4.398046e-09	-5.064935e+01	-2.806516e+02
5.600000e-07	-6.954880e-06	-4.412479e-09	-5.042627e+01	-2.803171e+02
5.700000e-07	-6.923650e-06	-4.378558e-09	-5.019984e+01	-2.799663e+02
5.800000e-07	-6.892132e-06	-4.348859e-09	-4.997132e+01	-2.795999e+02
5.900000e-07	-6.860322e-06	-4.384044e-09	-4.974068e+01	-2.792188e+02
6.000000e-07	-6.828107e-06	-4.395081e-09	-4.950710e+01	-2.788241e+02
6.100000e-07	-6.795243e-06	-4.350072e-09	-4.926882e+01	-2.784172e+02
6.200000e-07	-6.761577e-06	-4.327621e-09	-4.902473e+01	-2.779996e+02
6.300000e-07	-6.727155e-06	-4.355906e-09	-4.877515e+01	-2.775729e+02
6.400000e-07	-6.692135e-06	-4.370534e-09	-4.852124e+01	-2.771384e+02
6.500000e-07	-6.656671e-06	-4.333750e-09	-4.826411e+01	-2.766975e+02
6.600000e-07	-6.620869e-06	-4.297091e-09	-4.800453e+01	-2.762514e+02
6.700000e-07	-6.584793e-06	-4.312981e-09	-4.774296e+01	-2.758011e+02
6.800000e-07	-6.548294e-06	-4.328534e-09	-4.747833e+01	-2.753471e+02
6.900000e-07	-6.511273e-06	-4.298227e-09	-4.720990e+01	-2.748899e+02
7.000000e-07	-6.473731e-06	-4.273484e-09	-4.693770e+01	-2.744295e+02
7.100000e-07	-6.435632e-06	-4.278027e-09	-4.666147e+01	-2.739657e+02
7.200000e-07	-6.397043e-06	-4.281259e-09	-4.638168e+01	-2.734978e+02
7.300000e-07	-6.358041e-06	-4.275122e-09	-4.609890e+01	-2.730251e+02
7.400000e-07	-6.318726e-06	-4.263156e-09	-4.581385e+01	-2.725465e+02
7.500000e-07	-6.279212e-06	-4.239372e-09	-4.552735e+01	-2.720608e+02
7.600000e-07	-6.239472e-06	-4.232154e-09	-4.523921e+01	-2.715665e+02
7.700000e-07	-6.199245e-06	-4.242994e-09	-4.494755e+01	-2.710623e+02
7.800000e-07	-6.158375e-06	-4.230980e-09	-4.465122e+01	-2.705466e+02
7.900000e-07	-6.116817e-06	-4.197861e-09	-4.434990e+01	-2.700182e+02
8.000000e-07	-6.074544e-06	-4.192705e-09	-4.404341e+01	-2.694756e+02
8.100000e-07	-6.031713e-06	-4.206865e-09	-4.373286e+01	-2.689177e+02
8.200000e-07	-5.988488e-06	-4.197580e-09	-4.341946e+01	-2.683437e+02
8.300000e-07	-5.944929e-06	-4.169007e-09	-4.310363e+01	-2.677528e+02
8.400000e-07	-5.900946e-06	-4.156165e-09	-4.278473e+01	-2.671446e+02
8.500000e-07	-5.856530e-06	-4.158541e-09	-4.246270e+01	-2.665190e+02
8.600000e-07	-5.811718e-06	-4.151050e-09	-4.213779e+01	-2.658762e+02
8.700000e-07	-5.766545e-06	-4.127696e-09	-4.181026e+01	-2.652166e+02
8.800000e-07	-5.721121e-06	-4.110835e-09	-4.148092e+01	-2.645410e+02
8.900000e-07	-5.675286e-06	-4.106900e-09	-4.114859e+01	-2.638503e+02
9.000000e-07	-5.629032e-06	-4.102533e-09	-4.081323e+01	-2.631457e+02
9.100000e-07	-5.582424e-06	-4.089687e-09	-4.047530e+01	-2.624285e+02
9.200000e-07	-5.535420e-06	-4.074615e-09	-4.013450e+01	-2.617001e+02
9.300000e-07	-5.488127e-06	-4.063387e-09	-3.979159e+01	-2.609619e+02
9.400000e-07	-5.440439e-06	-4.056761e-09	-3.944584e+01	-2.602153e+02
9.500000e-07	-5.392196e-06	-4.048656e-09	-3.909605e+01	-2.594616e+02
9.600000e-07	-5.343430e-06	-4.032419e-09	-3.874247e+01	-2.587021e+02
9.700000e-07	-5.294110e-06	-4.015753e-09	-3.838488e+01	-2.579376e+02
9.800000e-07	-5.244154e-06	-4.007449e-09	-3.802267e+01	-2.571689e+02
9.900000e-07	-5.193642e-06	-3.999290e-09	-3.765644e+01	-2.563965e+02
1.000000e-06	-5.142702e-06	-3.980904e-09	-3.728710e+01	-2.556206e+02
1.010000e-06	-5.091393e-06	-3.962837e-09	-3.691508e+01	-2.548408e+02
1.020000e-06	-5.039676e-06	-3.955400e-09	-3.654011e+01	-2.540569e+02
1.030000e-06	-4.987494e-06	-3.949040e-09	-3.616176e+01	-2.532679e+02
1.040000e-06	-4.934950e-06	-3.934141e-09	-3.578079e+01	-2.524727e+02
1.050000e-06	-4.882112e-06	-3.919453e-09	-3.539769e+01	-2.516701e+02
1.060000e-06	-4.828912e-06	-3.908254e-09	-3.501197e+01	-2.508584e+02
1.070000e-06	-4.775350e-06	-3.896522e-09	-3.462362e+01	-2.500358e+02
1.080000e-06	-4.721426e-06	-3.881329e-09	-3.423264e+01	-2.492006e+02
1.090000e-06	-4.667162e-06	-3.866361e-09	-3.383920e+01	-2.483508e+02
1.100000e-06	-4.612532e-06	-3.850502e-09	-3.344310e+01	-2.474845e+02
1.110000e-06	-4.557585e-06	-3.838270e-09	-3.304471e+01	-2.465999e+02
1.120000e-06	-4.502448e-06	-3.826747e-09	-3.264495e+01	-2.456953e+02
1.130000e-06	-4.447090e-06	-3.811334e-09	-3.224357e+01	-2.447693e+02
1.140000e-06	-4.391460e-06	-3.793756e-09	-3.184023e+01	-2.438205e+02
1.150000e-06	-4.335527e-06	-3.778694e-09	-3.143468e+01	-2.428479e+02
1.160000e-06	-4.279339e-06	-3.765790e-09	-3.102730e+01	-2.418510e+02
1.170000e-06	-4.222965e-06	-3.748496e-09	-3.061856e+01	-2.408293e+02
1.180000e-06	-4.166312e-06	-3.730190e-09	-3.020779e+01	-2.397828e+02
1.190000e-06	-4.109233e-06	-3.713263e-09	-2.979394e+01	-2.387118e+02
1.200000e-06	-4.051686e-06	-3.697176e-09	-2.937670e+01	-2.376168e+02
1.210000e-06	-3.993661e-06	-3.679233e-09	-2.895599e+01	-2.364986e+02
1.220000e-06	-3.935276e-06	-3.661750e-09	-2.853267e+01	-2.353583e+02
1.230000e-06	-3.876560e-06	-3.645329e-09	-2.810695e+01	-2.341970e+02
1.240000e-06	-3.817502e-06	-3.626487e-09	-2.767875e+01	-2.330159e+02
1.250000e-06	-3.758199e-06	-3.603714e-09	-2.724878e+01	-2.318163e+02
1.260000e-06	-3.698674e-06	-3.583680e-09	-2.681719e+01	-2.305993e+02
1.270000e-06	-3.638954e-06	-3.564944e-09	-2.638419e+01	-2.293660e+02
1.280000e-06	-3.579041e-06	-3.544571e-09	-2.594979e+01	-2.281172e+02
1.290000e-06	-3.518924e-06	-3.521214e-09	-2.551391e+01	-2.268535e+02
1.300000e-06	-3.458559e-06	-3.498975e-09	-2.507624e+01	-2.255751e+02
1.310000e-06	-3.397946e-06	-3.479177e-09	-2.463676e+01	-2.242818e+02
1.320000e-06	-3.337126e-06	-3.458402e-09	-2.419579e+01	-2.229731e+02
1.330000e-06	-3.276158e-06	-3.433828e-09	-2.375374e+01	-2.216479e+02
1.340000e-06	-3.215030e-06	-3.409205e-09	-2.331053e+01	-2.203049e+02
1.350000e-06	-3.153660e-06	-3.384522e-09	-2.286557e+01	-2.189422e+02
1.360000e-06	-3.092020e-06	-3.357209e-09	-2.241865e+01	-2.175574e+02
1.370000e-06	-3.030079e-06	-3.330289e-09	-2.196955e+01	-2.161480e+02
1.380000e-06	-2.967882e-06	-3.305696e-09	-2.151859e+01	-2.147109e+02
1.390000e-06	-2.905439e-06	-3.282308e-09	-2.106585e+01	-2.132429e+02
1.400000e-06	-2.842789e-06	-3.258437e-09	-2.061161e+01	-2.117406e+02
1.410000e-06	-2.780020e-06	-3.235575e-09	-2.015650e+01	-2.102006e+02
1.420000e-06	-2.717130e-06	-3.211086e-09	-1.970052e+01	-2.086193e+02
1.430000e-06	-2.654146e-06	-3.184877e-09	-1.924386e+01	-2.069931e+02
1.440000e-06	-2.591063e-06	-3.157260e-09	-1.878647e+01	-2.053189e+02
1.450000e-06	-2.527827e-06	-3.129809e-09	-1.832798e+01	-2.035934e+02
1.460000e-06	-2.464456e-06	-3.102853e-09	-1.786851e+01	-2.018138e+02
1.470000e-06	-2.401003e-06	-3.076770e-09	-1.740844e+01	-1.999777e+02
1.480000e-06	-2.337394e-06	-3.048355e-09	-1.694724e+01	-1.980828e+02
1.490000e-06	-2.273567e-06	-3.017669e-09	-1.648447e+01	-1.961274e+02
1.500000e-06	-2.209590e-06	-2.986853e-09	-1.602060e+01	-1.941101e+02
1.510000e-06	-2.145413e-06	-2.958233e-09	-1.555529e+01	-1.920297e+02
1.520000e-06	-2.080967e-06	-2.926170e-09	-1.508803e+01	-1.898856e+02
1.530000e-06	-2.016337e-06	-2.889290e-09	-1.461943e+01	-1.876771e+02
1.540000e-06	-1.951653e-06	-2.852366e-09	-1.415044e+01	-1.854038e+02
1.550000e-06	-1.886909e-06	-2.818042e-09	-1.368101e+01	-1.830653e+02
1.560000e-06	-1.821929e-06	-2.781215e-09	-1.320987e+01	-1.806612e+02
1.570000e-06	-1.756648e-06	-2.739016e-09	-1.273655e+01	-1.781907e+02
1.580000e-06	-1.691201e-06	-2.694877e-09	-1.226203e+01	-1.756526e+02
1.590000e-06	-1.625685e-06	-2.652747e-09	-1.178701e+01	-1.730455e+02
1.600000e-06	-1.560025e-06	-2.614275e-09	-1.131094e+01	-1.703671e+02
1.610000e-06	-1.494229e-06	-2.573791e-09	-1.083389e+01	-1.676144e+02
1.620000e-06	-1.428294e-06	-2.528744e-09	-1.035583e+01	-1.647834e+02
1.630000e-06	-1.362141e-06	-2.481599e-09	-9.876189e+00	-1.618693e+02
1.640000e-06	-1.295905e-06	-2.434288e-09	-9.395941e+00	-1.588661e+02
1.650000e-06	-1.229639e-06	-2.384395e-09	-8.915480e+00	-1.557666e+02
1.660000e-06	-1.163285e-06	-2.332108e-09	-8.434381e+00	-1.525626e+02
1.670000e-06	-1.096799e-06	-2.278016e-09	-7.952327e+00	-1.492447e+02
1.680000e-06	-1.030195e-06	-2.222177e-09	-7.469420e+00	-1.458025e+02
1.690000e-06	-9.635503e-07	-2.166222e-09	-6.986210e+00	-1.422245e+02
1.700000e-06	-8.968649e-07	-2.107496e-09	-6.502708e+00	-1.384985e+02
1.710000e-06	-8.301464e-07	-2.046121e-09	-6.018966e+00	-1.346116e+02
1.720000e-06	-7.634229e-07	-1.983318e-09	-5.535188e+00	-1.305503e+02
1.730000e-06	-6.967089e-07	-1.917562e-09	-5.051479e+00	-1.263009e+02
1.740000e-06	-6.298857e-07	-1.845115e-09	-4.566979e+00	-1.218501e+02
1.750000e-06	-5.629429e-07	-1.772356e-09	-4.081610e+00	-1.171844e+02
1.760000e-06	-4.959077e-07	-1.700559e-09	-3.595573e+00	-1.122914e+02
1.770000e-06	-4.288090e-07	-1.622830e-09	-3.109074e+00	-1.071594e+02
1.780000e-06	-3.617659e-07	-1.539961e-09	-2.622979e+00	-1.017781e+02
1.790000e-06	-2.947606e-07	-1.453292e-09	-2.137158e+00	-9.613901e+01
1.800000e-06	-2.277954e-07	-1.365490e-09	-1.651628e+00	-9.023531e+01
1.810000e-06	-1.608415e-07	-1.275201e-09	-1.166179e+00	-8.406259e+01
1.820000e-06	-9.387359e-08	-1.179255e-09	-6.806293e-01	-7.761888e+01
1.830000e-06	-2.690059e-08	-1.079066e-09	-1.950424e-01	-7.090497e+01
1.840000e-06	4.011961e-08	-9.757535e-10	2.908868e-01	-6.392456e+01
1.850000e-06	1.071359e-07	-8.685954e-10	7.767878e-01	-5.668440e+01
1.860000e-06	1.740916e-07	-7.563241e-10	1.262249e+00	-4.919438e+01
1.870000e-06	2.410235e-07	-6.367454e-10	1.747538e+00	-4.146757e+01
1.880000e-06	3.079699e-07	-5.116458e-10	2.232932e+00	-3.352012e+01
1.890000e-06	3.748898e-07	-3.836447e-10	2.718134e+00	-2.537127e+01
1.900000e-06	4.418335e-07	-2.548740e-10	3.203508e+00	-1.704310e+01
1.910000e-06	5.088096e-07	-1.206690e-10	3.689118e+00	-8.560348e+00
1.920000e-06	5.757505e-07	1.562757e-11	4.174472e+00	4.985883e-02
1.930000e-06	6.426464e-07	1.530572e-10	4.659500e+00	8.758335e+00
1.940000e-06	7.094883e-07	2.923135e-10	5.144136e+00	1.753421e+01
1.950000e-06	7.763211e-07	4.312322e-10	5.628707e+00	2.634533e+01
1.960000e-06	8.431365e-07	5.697685e-10	6.113151e+00	3.515872e+01
1.970000e-06	9.098306e-07	7.090277e-10	6.596715e+00	4.394101e+01
1.980000e-06	9.763751e-07	8.472399e-10	7.079195e+00	5.265893e+01
1.990000e-06	1.042845e-06	9.832772e-10	7.561137e+00	6.127979e+01
2.000000e-06	1.109258e-06	1.117577e-09	8.042660e+00	6.977196e+01
2.010000e-06	1.175619e-06	1.249787e-09	8.523808e+00	7.810527e+01
2.020000e-06	1.241863e-06	1.376567e-09	9.004112e+00	8.625149e+01
2.030000e-06	1.308015e-06	1.497201e-09	9.483748e+00	9.418469e+01
2.040000e-06	1.374118e-06	1.613522e-09	9.963024e+00	1.018816e+02
2.050000e-06	1.440138e-06	1.723917e-09	1.044170e+01	1.093218e+02
2.060000e-06	1.506116e-06	1.827121e-09	1.092008e+01	1.164882e+02
2.070000e-06	1.571967e-06	1.925463e-09	1.139753e+01	1.233670e+02
2.080000e-06	1.637583e-06	2.019667e-09	1.187328e+01	1.299477e+02
2.090000e-06	1.702996e-06	2.108835e-09	1.234755e+01	1.362235e+02
2.100000e-06	1.768302e-06	2.195373e-09	1.282105e+01	1.421909e+02
2.110000e-06	1.833424e-06	2.276974e-09	1.329322e+01	1.478500e+02
2.120000e-06	1.898351e-06	2.354707e-09	1.376397e+01	1.532039e+02
2.130000e-06	1.963104e-06	2.430488e-09	1.423346e+01	1.582588e+02
2.140000e-06	2.027601e-06	2.503919e-09	1.470110e+01	1.630237e+02
2.150000e-06	2.091915e-06	2.572194e-09	1.516741e+01	1.675101e+02
2.160000e-06	2.156090e-06	2.637753e-09	1.563270e+01	1.717314e+02
2.170000e-06	2.219975e-06	2.700380e-09	1.609590e+01	1.757030e+02
2.180000e-06	2.283656e-06	2.758470e-09	1.655762e+01	1.794416e+02
2.190000e-06	2.347283e-06	2.812149e-09	1.701895e+01	1.829647e+02
2.200000e-06	2.410744e-06	2.862959e-09	1.747907e+01	1.862906e+02
2.210000e-06	2.474053e-06	2.912213e-09	1.793809e+01	1.894377e+02
2.220000e-06	2.537278e-06	2.959189e-09	1.839651e+01	1.924243e+02
2.230000e-06	2.600378e-06	3.004226e-09	1.885401e+01	1.952679e+02
2.240000e-06	2.663341e-06	3.048133e-09	1.931052e+01	1.979856e+02
2.250000e-06	2.726188e-06	3.089916e-09	1.976620e+01	2.005931e+02
2.260000e-06	2.788851e-06	3.128341e-09	2.022053e+01	2.031049e+02
2.270000e-06	2.851302e-06	3.162166e-09	2.067333e+01	2.055339e+02
2.280000e-06	2.913590e-06	3.194914e-09	2.112495e+01	2.078915e+02
2.290000e-06	2.975718e-06	3.225707e-09	2.157541e+01	2.101874e+02
2.300000e-06	3.037637e-06	3.256588e-09	2.202435e+01	2.124294e+02
2.310000e-06	3.099316e-06	3.288318e-09	2.247155e+01	2.146238e+02
2.320000e-06	3.160788e-06	3.319175e-09	2.291726e+01	2.167751e+02
2.330000e-06	3.222111e-06	3.349032e-09	2.336188e+01	2.188864e+02
2.340000e-06	3.283285e-06	3.375089e-09	2.380541e+01	2.209592e+02
2.350000e-06	3.344200e-06	3.399616e-09	2.424708e+01	2.229940e+02
2.360000e-06	3.404868e-06	3.424991e-09	2.468695e+01	2.249900e+02
2.370000e-06	3.465338e-06	3.450928e-09	2.512539e+01	2.269460e+02
2.380000e-06	3.525611e-06	3.473943e-09	2.556240e+01	2.288596e+02
2.390000e-06	3.585607e-06	3.494741e-09	2.599740e+01	2.307286e+02
2.400000e-06	3.645216e-06	3.519603e-09	2.642959e+01	2.325503e+02
2.410000e-06	3.704522e-06	3.547585e-09	2.685959e+01	2.343221e+02
2.420000e-06	3.763599e-06	3.570386e-09	2.728793e+01	2.360417e+02
2.430000e-06	3.822482e-06	3.589141e-09	2.771486e+01	2.377070e+02
2.440000e-06	3.881134e-06	3.609324e-09	2.814012e+01	2.393167e+02
2.450000e-06	3.939583e-06	3.631354e-09	2.856390e+01	2.408699e+02
2.460000e-06	3.997787e-06	3.652091e-09	2.898590e+01	2.423666e+02
2.470000e-06	4.055611e-06	3.672259e-09	2.940516e+01	2.438073e+02
2.480000e-06	4.113044e-06	3.692377e-09	2.982158e+01	2.451936e+02
2.490000e-06	4.170038e-06	3.712889e-09	3.023481e+01	2.465276e+02
2.500000e-06	4.226593e-06	3.732670e-09	3.064486e+01	2.478122e+02
2.510000e-06	4.282735e-06	3.750437e-09	3.105192e+01	2.490508e+02
2.520000e-06	4.338508e-06	3.767250e-09	3.145630e+01	2.502476e+02
2.530000e-06	4.394012e-06	3.784105e-09	3.185873e+01	2.514068e+02
2.540000e-06	4.449299e-06	3.801108e-09	3.225959e+01	2.525331e+02
2.550000e-06	4.504370e-06	3.817890e-09	3.265888e+01	2.536313e+02
2.560000e-06	4.559232e-06	3.834994e-09	3.305666e+01	2.547063e+02
2.570000e-06	4.613883e-06	3.855456e-09	3.345290e+01	2.557625e+02
2.580000e-06	4.668167e-06	3.876344e-09	3.384649e+01	2.568043e+02
2.590000e-06	4.721975e-06	3.895748e-09	3.423662e+01	2.578356e+02
2.600000e-06	4.775496e-06	3.912124e-09	3.462468e+01	2.588596e+02
2.610000e-06	4.828795e-06	3.926298e-09	3.501112e+01	2.598792e+02
2.620000e-06	4.881733e-06	3.940194e-09	3.539495e+01	2.608964e+02
2.630000e-06	4.934259e-06	3.952308e-09	3.577579e+01	2.619123e+02
2.640000e-06	4.986351e-06	3.964892e-09	3.615348e+01	2.629277e+02
2.650000e-06	5.038004e-06	3.981243e-09	3.652798e+01	2.639423e+02
2.660000e-06	5.089155e-06	4.001054e-09	3.689885e+01	2.649552e+02
2.670000e-06	5.139830e-06	4.018852e-09	3.726628e+01	2.659649e+02
2.680000e-06	5.190200e-06	4.033965e-09	3.763148e+01	2.669692e+02
2.690000e-06	5.240182e-06	4.048513e-09	3.799388e+01	2.679657e+02
2.700000e-06	5.289652e-06	4.061474e-09	3.835256e+01	2.689513e+02
2.710000e-06	5.338593e-06	4.070667e-09	3.870740e+01	2.699229e+02
2.720000e-06	5.386974e-06	4.077425e-09	3.905819e+01	2.708773e+02
2.730000e-06	5.434888e-06	4.086721e-09	3.940559e+01	2.718110e+02
2.740000e-06	5.482441e-06	4.099822e-09	3.975037e+01	2.727210e+02
2.750000e-06	5.529645e-06	4.114755e-09	4.009262e+01	2.736045e+02
2.760000e-06	5.576485e-06	4.129002e-09	4.043224e+01	2.744590e+02
2.770000e-06	5.622979e-06	4.142033e-09	4.076934e+01	2.752824e+02
2.780000e-06	5.669087e-06	4.155879e-09	4.110365e+01	2.760733e+02
2.790000e-06	5.714755e-06	4.168809e-09	4.143476e+01	2.768308e+02
2.800000e-06	5.760004e-06	4.177240e-09	4.176284e+01	2.775548e+02
2.810000e-06	5.804910e-06	4.182989e-09	4.208843e+01	2.782456e+02
2.820000e-06	5.849521e-06	4.191170e-09	4.241188e+01	2.789044e+02
2.830000e-06	5.893756e-06	4.202564e-09	4.273261e+01	2.795328e+02
2.840000e-06	5.937581e-06	4.214629e-09	4.305036e+01	2.801331e+02
2.850000e-06	5.980994e-06	4.224901e-09	4.336513e+01	2.807080e+02
2.860000e-06	6.024069e-06	4.234964e-09	4.367744e+01	2.812606e+02
2.870000e-06	6.066797e-06	4.248106e-09	4.398724e+01	2.817943e+02
2.880000e-06	6.109092e-06	4.262108e-09	4.429389e+01	2.823128e+02
2.890000e-06	6.150882e-06	4.270698e-09	4.459690e+01	2.828196e+02
2.900000e-06	6.192086e-06	4.276875e-09	4.489564e+01	2.833185e+02
2.910000e-06	6.232635e-06	4.285844e-09	4.518965e+01	2.838127e+02
