# Temperatura_=_20.0
# Concentracion g/m^3_=_9000.0
# C_Vs_to_Am_M_A/Vsm_=_65563218390.804596
# pendiente_HvsI_1/m_=_3716.3
# ordenada_HvsI_A/m_=_1297.0
# frecuencia_Hz_=_135477.2749331872

Tiempo_(s)	Campo_(V.s)	Magnetizacion_(V.s)	Campo_(kA/m)	Magnetizacion_(A/m)
0.000000e+00	-7.792936e-06	-3.028281e-10	-5.691990e+01	-1.730699e+01
1.000000e-08	-7.793054e-06	-3.040593e-10	-5.692076e+01	-1.749589e+01
2.000000e-08	-7.792856e-06	-3.042792e-10	-5.691932e+01	-1.770373e+01
3.000000e-08	-7.791989e-06	-3.060752e-10	-5.691299e+01	-1.792510e+01
4.000000e-08	-7.790285e-06	-3.073669e-10	-5.690054e+01	-1.815376e+01
5.000000e-08	-7.787877e-06	-3.056622e-10	-5.688295e+01	-1.838276e+01
6.000000e-08	-7.784828e-06	-3.046125e-10	-5.686068e+01	-1.860460e+01
7.000000e-08	-7.781235e-06	-3.015110e-10	-5.683444e+01	-1.881135e+01
8.000000e-08	-7.777215e-06	-2.930740e-10	-5.680508e+01	-1.899489e+01
9.000000e-08	-7.772820e-06	-2.862217e-10	-5.677298e+01	-1.914703e+01
1.000000e-07	-7.767828e-06	-3.030701e-10	-5.673652e+01	-1.925979e+01
1.100000e-07	-7.762026e-06	-3.378356e-10	-5.669414e+01	-1.932554e+01
1.200000e-07	-7.755385e-06	-3.318508e-10	-5.664563e+01	-1.933721e+01
1.300000e-07	-7.748082e-06	-2.741110e-10	-5.659229e+01	-1.928847e+01
1.400000e-07	-7.740396e-06	-2.090226e-10	-5.653615e+01	-1.917392e+01
1.500000e-07	-7.732470e-06	-2.613901e-10	-5.647826e+01	-1.898923e+01
1.600000e-07	-7.724260e-06	-3.851663e-10	-5.641830e+01	-1.873125e+01
1.700000e-07	-7.715484e-06	-3.435370e-10	-5.635419e+01	-1.839815e+01
1.800000e-07	-7.706043e-06	-2.090665e-10	-5.628523e+01	-1.798947e+01
1.900000e-07	-7.695860e-06	-2.417461e-10	-5.621086e+01	-1.750616e+01
2.000000e-07	-7.684788e-06	-3.308031e-10	-5.612999e+01	-1.695058e+01
2.100000e-07	-7.673078e-06	-3.566928e-10	-5.604446e+01	-1.632653e+01
2.200000e-07	-7.660915e-06	-3.100397e-10	-5.595562e+01	-1.563910e+01
2.300000e-07	-7.648229e-06	-2.428763e-10	-5.586296e+01	-1.489466e+01
2.400000e-07	-7.634980e-06	-2.218061e-10	-5.576619e+01	-1.410069e+01
2.500000e-07	-7.621143e-06	-3.076791e-10	-5.566512e+01	-1.326566e+01
2.600000e-07	-7.606567e-06	-3.189910e-10	-5.555866e+01	-1.239884e+01
2.700000e-07	-7.590959e-06	-1.269143e-10	-5.544466e+01	-1.151013e+01
2.800000e-07	-7.574579e-06	-3.128671e-11	-5.532501e+01	-1.060983e+01
2.900000e-07	-7.557842e-06	-1.424216e-10	-5.520277e+01	-9.708450e+00
3.000000e-07	-7.540559e-06	-1.345250e-10	-5.507653e+01	-8.816472e+00
3.100000e-07	-7.522677e-06	6.139346e-11	-5.494593e+01	-7.944144e+00
3.200000e-07	-7.504442e-06	9.798855e-11	-5.481273e+01	-7.101263e+00
3.300000e-07	-7.485694e-06	-2.541767e-11	-5.467580e+01	-6.296980e+00
3.400000e-07	-7.466318e-06	-3.240239e-11	-5.453428e+01	-5.539615e+00
3.500000e-07	-7.446571e-06	3.777225e-11	-5.439004e+01	-4.836495e+00
3.600000e-07	-7.426506e-06	2.412635e-11	-5.424348e+01	-4.193820e+00
3.700000e-07	-7.406091e-06	4.095998e-11	-5.409437e+01	-3.616551e+00
3.800000e-07	-7.385242e-06	3.513925e-11	-5.394209e+01	-3.108330e+00
3.900000e-07	-7.363838e-06	-2.760150e-11	-5.378576e+01	-2.671438e+00
4.000000e-07	-7.341818e-06	-1.799844e-11	-5.362492e+01	-2.306777e+00
4.100000e-07	-7.319190e-06	7.117540e-11	-5.345964e+01	-2.013890e+00
4.200000e-07	-7.296092e-06	5.109956e-11	-5.329094e+01	-1.791009e+00
4.300000e-07	-7.272602e-06	-4.652666e-11	-5.311937e+01	-1.635136e+00
4.400000e-07	-7.248682e-06	-4.504419e-11	-5.294465e+01	-1.542149e+00
4.500000e-07	-7.224302e-06	6.151681e-11	-5.276658e+01	-1.506934e+00
4.600000e-07	-7.199402e-06	4.831573e-11	-5.258471e+01	-1.523531e+00
4.700000e-07	-7.173835e-06	-7.626850e-11	-5.239797e+01	-1.585310e+00
4.800000e-07	-7.147462e-06	-5.224014e-11	-5.220534e+01	-1.685140e+00
4.900000e-07	-7.120374e-06	5.927703e-11	-5.200749e+01	-1.815578e+00
5.000000e-07	-7.092839e-06	1.173960e-11	-5.180637e+01	-1.969056e+00
5.100000e-07	-7.064929e-06	-6.117496e-11	-5.160251e+01	-2.138062e+00
5.200000e-07	-7.036624e-06	-3.131514e-12	-5.139577e+01	-2.315318e+00
5.300000e-07	-7.007870e-06	1.700736e-11	-5.118575e+01	-2.493940e+00
5.400000e-07	-6.978587e-06	-2.012543e-11	-5.097187e+01	-2.667586e+00
5.500000e-07	-6.948739e-06	-1.210752e-11	-5.075386e+01	-2.830586e+00
5.600000e-07	-6.918345e-06	-1.147187e-11	-5.053186e+01	-2.978044e+00
5.700000e-07	-6.887539e-06	-3.735836e-11	-5.030685e+01	-3.105918e+00
5.800000e-07	-6.856363e-06	-6.720693e-12	-5.007914e+01	-3.211080e+00
5.900000e-07	-6.824797e-06	1.186562e-11	-4.984858e+01	-3.291338e+00
6.000000e-07	-6.792858e-06	-2.123035e-11	-4.961530e+01	-3.345442e+00
6.100000e-07	-6.760520e-06	-2.987003e-11	-4.937910e+01	-3.373058e+00
6.200000e-07	-6.727626e-06	6.185136e-12	-4.913884e+01	-3.374724e+00
6.300000e-07	-6.694036e-06	9.907576e-12	-4.889350e+01	-3.351777e+00
6.400000e-07	-6.659816e-06	-2.211311e-11	-4.864355e+01	-3.306265e+00
6.500000e-07	-6.624976e-06	-3.809322e-11	-4.838908e+01	-3.240845e+00
6.600000e-07	-6.589580e-06	-9.146557e-12	-4.813055e+01	-3.158664e+00
6.700000e-07	-6.553792e-06	6.814280e-12	-4.786915e+01	-3.063231e+00
6.800000e-07	-6.517638e-06	-2.272536e-11	-4.760508e+01	-2.958293e+00
6.900000e-07	-6.481012e-06	-3.615838e-11	-4.733756e+01	-2.847698e+00
7.000000e-07	-6.443897e-06	-3.101543e-12	-4.706647e+01	-2.735270e+00
7.100000e-07	-6.406339e-06	4.577523e-12	-4.679214e+01	-2.624686e+00
7.200000e-07	-6.368359e-06	-1.963043e-11	-4.651474e+01	-2.519365e+00
7.300000e-07	-6.329936e-06	-2.349606e-11	-4.623410e+01	-2.422372e+00
7.400000e-07	-6.291082e-06	-1.337559e-11	-4.595030e+01	-2.336331e+00
7.500000e-07	-6.251871e-06	-1.017057e-11	-4.566391e+01	-2.263364e+00
7.600000e-07	-6.212358e-06	-6.301477e-12	-4.537530e+01	-2.205039e+00
7.700000e-07	-6.172542e-06	-1.244547e-11	-4.508449e+01	-2.162349e+00
7.800000e-07	-6.132325e-06	-2.673486e-11	-4.479074e+01	-2.135697e+00
7.900000e-07	-6.091600e-06	-1.674388e-11	-4.449328e+01	-2.124914e+00
8.000000e-07	-6.050274e-06	8.715880e-13	-4.419144e+01	-2.129282e+00
8.100000e-07	-6.008311e-06	-9.338658e-12	-4.388493e+01	-2.147585e+00
8.200000e-07	-5.965726e-06	-2.811357e-11	-4.357390e+01	-2.178167e+00
8.300000e-07	-5.922534e-06	-1.830378e-11	-4.325842e+01	-2.219004e+00
8.400000e-07	-5.878829e-06	-7.838615e-13	-4.293920e+01	-2.267785e+00
8.500000e-07	-5.834815e-06	-4.538765e-12	-4.261771e+01	-2.322003e+00
8.600000e-07	-5.790491e-06	-2.338992e-11	-4.229397e+01	-2.379041e+00
8.700000e-07	-5.745769e-06	-2.419592e-11	-4.196732e+01	-2.436271e+00
8.800000e-07	-5.700757e-06	-8.702717e-12	-4.163855e+01	-2.491134e+00
8.900000e-07	-5.655454e-06	-2.897576e-12	-4.130766e+01	-2.541231e+00
9.000000e-07	-5.609735e-06	-1.462141e-11	-4.097372e+01	-2.584396e+00
9.100000e-07	-5.563551e-06	-2.049823e-11	-4.063639e+01	-2.618759e+00
9.200000e-07	-5.516994e-06	-1.497121e-11	-4.029634e+01	-2.642801e+00
9.300000e-07	-5.470108e-06	-1.006939e-11	-3.995388e+01	-2.655396e+00
9.400000e-07	-5.422798e-06	-1.416765e-11	-3.960833e+01	-2.655832e+00
9.500000e-07	-5.375035e-06	-2.098676e-11	-3.925946e+01	-2.643822e+00
9.600000e-07	-5.326906e-06	-2.369315e-11	-3.890792e+01	-2.619503e+00
9.700000e-07	-5.278362e-06	-1.846081e-11	-3.855336e+01	-2.583416e+00
9.800000e-07	-5.229303e-06	-1.254081e-11	-3.819503e+01	-2.536473e+00
9.900000e-07	-5.179640e-06	-1.436142e-11	-3.783229e+01	-2.479915e+00
1.000000e-06	-5.129354e-06	-1.633053e-11	-3.746500e+01	-2.415258e+00
1.010000e-06	-5.078598e-06	-8.764497e-12	-3.709427e+01	-2.344233e+00
1.020000e-06	-5.027432e-06	-2.116249e-12	-3.672056e+01	-2.268718e+00
1.030000e-06	-4.975862e-06	-6.063138e-12	-3.634389e+01	-2.190666e+00
1.040000e-06	-4.923901e-06	-1.127028e-11	-3.596436e+01	-2.112038e+00
1.050000e-06	-4.871629e-06	-1.049475e-11	-3.558257e+01	-2.034729e+00
1.060000e-06	-4.819003e-06	-1.097129e-11	-3.519819e+01	-1.960504e+00
1.070000e-06	-4.765910e-06	-1.376326e-11	-3.481039e+01	-1.890938e+00
1.080000e-06	-4.712398e-06	-1.495419e-11	-3.441954e+01	-1.827367e+00
1.090000e-06	-4.658556e-06	-1.467147e-11	-3.402628e+01	-1.770839e+00
1.100000e-06	-4.604410e-06	-1.211447e-11	-3.363079e+01	-1.722088e+00
1.110000e-06	-4.549928e-06	-1.084602e-11	-3.323285e+01	-1.681513e+00
1.120000e-06	-4.495124e-06	-1.014728e-11	-3.283256e+01	-1.649167e+00
1.130000e-06	-4.440129e-06	-9.748350e-12	-3.243088e+01	-1.624765e+00
1.140000e-06	-4.384951e-06	-8.277755e-12	-3.202785e+01	-1.607696e+00
1.150000e-06	-4.329485e-06	-8.651784e-12	-3.162272e+01	-1.597051e+00
1.160000e-06	-4.273771e-06	-1.030370e-11	-3.121579e+01	-1.591661e+00
1.170000e-06	-4.217827e-06	-1.028106e-11	-3.080717e+01	-1.590140e+00
1.180000e-06	-4.161655e-06	-9.312773e-12	-3.039689e+01	-1.590934e+00
1.190000e-06	-4.105245e-06	-8.506140e-12	-2.998487e+01	-1.592382e+00
1.200000e-06	-4.048464e-06	-5.838458e-12	-2.957014e+01	-1.592774e+00
1.210000e-06	-3.991244e-06	-3.239454e-12	-2.915220e+01	-1.590408e+00
1.220000e-06	-3.933636e-06	-1.195974e-12	-2.873143e+01	-1.583652e+00
1.230000e-06	-3.875633e-06	-1.330816e-12	-2.830778e+01	-1.570997e+00
1.240000e-06	-3.817238e-06	-2.182171e-12	-2.788126e+01	-1.551109e+00
1.250000e-06	-3.758490e-06	-2.114674e-12	-2.745216e+01	-1.522872e+00
1.260000e-06	-3.699457e-06	5.016325e-13	-2.702098e+01	-1.485422e+00
1.270000e-06	-3.640173e-06	2.289966e-12	-2.658796e+01	-1.438176e+00
1.280000e-06	-3.580576e-06	2.650890e-12	-2.615266e+01	-1.380848e+00
1.290000e-06	-3.520709e-06	4.431156e-12	-2.571539e+01	-1.313451e+00
1.300000e-06	-3.460688e-06	7.774342e-12	-2.527700e+01	-1.236298e+00
1.310000e-06	-3.400559e-06	9.742919e-12	-2.483781e+01	-1.149986e+00
1.320000e-06	-3.340243e-06	9.574658e-12	-2.439726e+01	-1.055370e+00
1.330000e-06	-3.279715e-06	1.138269e-11	-2.395517e+01	-9.535327e-01
1.340000e-06	-3.218986e-06	1.502750e-11	-2.351160e+01	-8.457459e-01
1.350000e-06	-3.158037e-06	1.796396e-11	-2.306643e+01	-7.334229e-01
1.360000e-06	-3.096863e-06	1.980378e-11	-2.261961e+01	-6.180706e-01
1.370000e-06	-3.035419e-06	2.111069e-11	-2.217081e+01	-5.012377e-01
1.380000e-06	-2.973752e-06	2.078368e-11	-2.172040e+01	-3.844619e-01
1.390000e-06	-2.911915e-06	2.119339e-11	-2.126874e+01	-2.692191e-01
1.400000e-06	-2.849851e-06	2.332562e-11	-2.081542e+01	-1.568750e-01
1.410000e-06	-2.787583e-06	2.390666e-11	-2.036061e+01	-4.864202e-02
1.420000e-06	-2.725168e-06	2.325685e-11	-1.990473e+01	5.445882e-02
1.430000e-06	-2.662632e-06	2.450590e-11	-1.944797e+01	1.516279e-01
1.440000e-06	-2.599955e-06	2.640776e-11	-1.899017e+01	2.423096e-01
1.450000e-06	-2.537091e-06	2.634445e-11	-1.853101e+01	3.262052e-01
1.460000e-06	-2.474081e-06	2.394254e-11	-1.807078e+01	4.032778e-01
1.470000e-06	-2.410904e-06	2.245809e-11	-1.760934e+01	4.737473e-01
1.480000e-06	-2.347577e-06	2.320665e-11	-1.714679e+01	5.380767e-01
1.490000e-06	-2.284115e-06	2.536377e-11	-1.668327e+01	5.969505e-01
1.500000e-06	-2.220519e-06	2.609723e-11	-1.621875e+01	6.512455e-01
1.510000e-06	-2.156819e-06	2.588425e-11	-1.575349e+01	7.019956e-01
1.520000e-06	-2.092926e-06	2.660036e-11	-1.528681e+01	7.503514e-01
1.530000e-06	-2.028877e-06	2.925448e-11	-1.481900e+01	7.975370e-01
1.540000e-06	-1.964748e-06	3.236337e-11	-1.435059e+01	8.448043e-01
1.550000e-06	-1.900458e-06	3.562703e-11	-1.388102e+01	8.933881e-01
1.560000e-06	-1.836030e-06	3.833721e-11	-1.341043e+01	9.444617e-01
1.570000e-06	-1.771475e-06	4.023920e-11	-1.293892e+01	9.990959e-01
1.580000e-06	-1.706812e-06	4.167624e-11	-1.246662e+01	1.058223e+00
1.590000e-06	-1.642069e-06	4.252506e-11	-1.199373e+01	1.122605e+00
1.600000e-06	-1.577152e-06	4.466533e-11	-1.151958e+01	1.192812e+00
1.610000e-06	-1.512058e-06	4.649987e-11	-1.104413e+01	1.269203e+00
1.620000e-06	-1.446828e-06	4.682871e-11	-1.056769e+01	1.351917e+00
1.630000e-06	-1.381454e-06	4.715264e-11	-1.009020e+01	1.440878e+00
1.640000e-06	-1.316037e-06	4.824616e-11	-9.612386e+00	1.535796e+00
1.650000e-06	-1.250495e-06	4.930707e-11	-9.133664e+00	1.636189e+00
1.660000e-06	-1.184730e-06	4.924467e-11	-8.653313e+00	1.741403e+00
1.670000e-06	-1.118907e-06	4.931437e-11	-8.172536e+00	1.850640e+00
1.680000e-06	-1.052998e-06	5.163776e-11	-7.691138e+00	1.962997e+00
1.690000e-06	-9.869832e-07	5.422108e-11	-7.208964e+00	2.077501e+00
1.700000e-06	-9.209116e-07	5.454968e-11	-6.726374e+00	2.193151e+00
1.710000e-06	-8.547675e-07	5.449745e-11	-6.243255e+00	2.308960e+00
1.720000e-06	-7.885805e-07	5.636893e-11	-5.759822e+00	2.423994e+00
1.730000e-06	-7.223102e-07	5.834547e-11	-5.275782e+00	2.537414e+00
1.740000e-06	-6.559365e-07	5.933311e-11	-4.790986e+00	2.648509e+00
1.750000e-06	-5.895532e-07	6.018295e-11	-4.306120e+00	2.756724e+00
1.760000e-06	-5.231192e-07	6.230703e-11	-3.820883e+00	2.861692e+00
1.770000e-06	-4.565400e-07	6.376181e-11	-3.334586e+00	2.963240e+00
1.780000e-06	-3.899202e-07	6.417240e-11	-2.847992e+00	3.061408e+00
1.790000e-06	-3.232797e-07	6.522471e-11	-2.361247e+00	3.156444e+00
1.800000e-06	-2.565506e-07	6.676726e-11	-1.873855e+00	3.248800e+00
1.810000e-06	-1.898585e-07	6.864379e-11	-1.386734e+00	3.339114e+00
1.820000e-06	-1.231774e-07	7.050839e-11	-8.996922e-01	3.428192e+00
1.830000e-06	-5.641152e-08	7.263023e-11	-4.120319e-01	3.516973e+00
1.840000e-06	1.032377e-08	7.484582e-11	7.540522e-02	3.606500e+00
1.850000e-06	7.691725e-08	7.675816e-11	5.618066e-01	3.697873e+00
1.860000e-06	1.434039e-07	7.848345e-11	1.047427e+00	3.792213e+00
1.870000e-06	2.098816e-07	7.967312e-11	1.532983e+00	3.890613e+00
1.880000e-06	2.764442e-07	8.203984e-11	2.019159e+00	3.994093e+00
1.890000e-06	3.430972e-07	8.557640e-11	2.505995e+00	4.103561e+00
1.900000e-06	4.096766e-07	8.864404e-11	2.992294e+00	4.219769e+00
1.910000e-06	4.761610e-07	8.944703e-11	3.477899e+00	4.343277e+00
1.920000e-06	5.426568e-07	9.035939e-11	3.963586e+00	4.474429e+00
1.930000e-06	6.091509e-07	9.419312e-11	4.449262e+00	4.613322e+00
1.940000e-06	6.755667e-07	9.740755e-11	4.934365e+00	4.759798e+00
1.950000e-06	7.419320e-07	9.752383e-11	5.419100e+00	4.913436e+00
1.960000e-06	8.082419e-07	9.825862e-11	5.903430e+00	5.073556e+00
1.970000e-06	8.743129e-07	1.021209e-10	6.386015e+00	5.239226e+00
1.980000e-06	9.402877e-07	1.054093e-10	6.867898e+00	5.409289e+00
1.990000e-06	1.006294e-06	1.077295e-10	7.350010e+00	5.582390e+00
2.000000e-06	1.072209e-06	1.104180e-10	7.831457e+00	5.757010e+00
2.010000e-06	1.138007e-06	1.138869e-10	8.312045e+00	5.931513e+00
2.020000e-06	1.203581e-06	1.169943e-10	8.790999e+00	6.104186e+00
2.030000e-06	1.269035e-06	1.185665e-10	9.269078e+00	6.273301e+00
2.040000e-06	1.334448e-06	1.194422e-10	9.746863e+00	6.437156e+00
2.050000e-06	1.399781e-06	1.216135e-10	1.022406e+01	6.594137e+00
2.060000e-06	1.464937e-06	1.241758e-10	1.069996e+01	6.742764e+00
2.070000e-06	1.529928e-06	1.264858e-10	1.117465e+01	6.881741e+00
2.080000e-06	1.594881e-06	1.282856e-10	1.164907e+01	7.009998e+00
2.090000e-06	1.659691e-06	1.290942e-10	1.212244e+01	7.126727e+00
2.100000e-06	1.724292e-06	1.324282e-10	1.259430e+01	7.231414e+00
2.110000e-06	1.788749e-06	1.367319e-10	1.306509e+01	7.323854e+00
2.120000e-06	1.853108e-06	1.378500e-10	1.353517e+01	7.404165e+00
2.130000e-06	1.917319e-06	1.379356e-10	1.400417e+01	7.472788e+00
2.140000e-06	1.981369e-06	1.420393e-10	1.447200e+01	7.530478e+00
2.150000e-06	2.045336e-06	1.454440e-10	1.493921e+01	7.578286e+00
2.160000e-06	2.109180e-06	1.461770e-10	1.540553e+01	7.617526e+00
2.170000e-06	2.172895e-06	1.471270e-10	1.587091e+01	7.649744e+00
2.180000e-06	2.236544e-06	1.490550e-10	1.633581e+01	7.676673e+00
2.190000e-06	2.300075e-06	1.509413e-10	1.679983e+01	7.700177e+00
2.200000e-06	2.363391e-06	1.503533e-10	1.726230e+01	7.722206e+00
2.210000e-06	2.426532e-06	1.483271e-10	1.772348e+01	7.744731e+00
2.220000e-06	2.489512e-06	1.490857e-10	1.818349e+01	7.769691e+00
2.230000e-06	2.552367e-06	1.514188e-10	1.864259e+01	7.798931e+00
2.240000e-06	2.615152e-06	1.528431e-10	1.910117e+01	7.834154e+00
2.250000e-06	2.677776e-06	1.542779e-10	1.955858e+01	7.876865e+00
2.260000e-06	2.740266e-06	1.561171e-10	2.001501e+01	7.928333e+00
2.270000e-06	2.802502e-06	1.575446e-10	2.046958e+01	7.989550e+00
2.280000e-06	2.864370e-06	1.563831e-10	2.092147e+01	8.061207e+00
2.290000e-06	2.926050e-06	1.540278e-10	2.137198e+01	8.143673e+00
2.300000e-06	2.987621e-06	1.520456e-10	2.182170e+01	8.236991e+00
2.310000e-06	3.049001e-06	1.539153e-10	2.227002e+01	8.340877e+00
2.320000e-06	3.110166e-06	1.573045e-10	2.271678e+01	8.454735e+00
2.330000e-06	3.171177e-06	1.600865e-10	2.316240e+01	8.577681e+00
2.340000e-06	3.231968e-06	1.597252e-10	2.360642e+01	8.708569e+00
2.350000e-06	3.292492e-06	1.586126e-10	2.404849e+01	8.846040e+00
2.360000e-06	3.352837e-06	1.612076e-10	2.448925e+01	8.988560e+00
2.370000e-06	3.413019e-06	1.637838e-10	2.492882e+01	9.134477e+00
2.380000e-06	3.473026e-06	1.637721e-10	2.536712e+01	9.282074e+00
2.390000e-06	3.532753e-06	1.652825e-10	2.580337e+01	9.429628e+00
2.400000e-06	3.592196e-06	1.701743e-10	2.623754e+01	9.575464e+00
2.410000e-06	3.651517e-06	1.749996e-10	2.667082e+01	9.718012e+00
2.420000e-06	3.710628e-06	1.760569e-10	2.710257e+01	9.855857e+00
2.430000e-06	3.769365e-06	1.751684e-10	2.753159e+01	9.987783e+00
2.440000e-06	3.827734e-06	1.763406e-10	2.795791e+01	1.011281e+01
2.450000e-06	3.885735e-06	1.774801e-10	2.838156e+01	1.023023e+01
2.460000e-06	3.943410e-06	1.764888e-10	2.880282e+01	1.033963e+01
2.470000e-06	4.000708e-06	1.755432e-10	2.922133e+01	1.044087e+01
2.480000e-06	4.057588e-06	1.783532e-10	2.963678e+01	1.053413e+01
2.490000e-06	4.114155e-06	1.833728e-10	3.004994e+01	1.061988e+01
2.500000e-06	4.170325e-06	1.865386e-10	3.046021e+01	1.069883e+01
2.510000e-06	4.226127e-06	1.870022e-10	3.086780e+01	1.077197e+01
2.520000e-06	4.281721e-06	1.884123e-10	3.127386e+01	1.084046e+01
2.530000e-06	4.337133e-06	1.895014e-10	3.167859e+01	1.090562e+01
2.540000e-06	4.392315e-06	1.878702e-10	3.208164e+01	1.096888e+01
2.550000e-06	4.447219e-06	1.862742e-10	3.248266e+01	1.103173e+01
2.560000e-06	4.501837e-06	1.878870e-10	3.288159e+01	1.109564e+01
2.570000e-06	4.556193e-06	1.914597e-10	3.327861e+01	1.116203e+01
2.580000e-06	4.610259e-06	1.964698e-10	3.367351e+01	1.123220e+01
2.590000e-06	4.663992e-06	2.026643e-10	3.406598e+01	1.130729e+01
2.600000e-06	4.717410e-06	2.074347e-10	3.445614e+01	1.138825e+01
2.610000e-06	4.770487e-06	2.098759e-10	3.484382e+01	1.147575e+01
2.620000e-06	4.823256e-06	2.098166e-10	3.522925e+01	1.157023e+01
2.630000e-06	4.875620e-06	2.071430e-10	3.561172e+01	1.167181e+01
2.640000e-06	4.927542e-06	2.039464e-10	3.599096e+01	1.178032e+01
2.650000e-06	4.978993e-06	2.032072e-10	3.636676e+01	1.189528e+01
2.660000e-06	5.030006e-06	2.064013e-10	3.673936e+01	1.201595e+01
2.670000e-06	5.080651e-06	2.121071e-10	3.710927e+01	1.214130e+01
2.680000e-06	5.130781e-06	2.157876e-10	3.747542e+01	1.227010e+01
2.690000e-06	5.180362e-06	2.165523e-10	3.783756e+01	1.240090e+01
2.700000e-06	5.229415e-06	2.189821e-10	3.819585e+01	1.253214e+01
2.710000e-06	5.277986e-06	2.193513e-10	3.855061e+01	1.266214e+01
2.720000e-06	5.326186e-06	2.177953e-10	3.890267e+01	1.278923e+01
2.730000e-06	5.374026e-06	2.170715e-10	3.925210e+01	1.291174e+01
2.740000e-06	5.421506e-06	2.179473e-10	3.959889e+01	1.302811e+01
2.750000e-06	5.468668e-06	2.187549e-10	3.994336e+01	1.313691e+01
2.760000e-06	5.515473e-06	2.191398e-10	4.028523e+01	1.323692e+01
2.770000e-06	5.561841e-06	2.241142e-10	4.062390e+01	1.332717e+01
2.780000e-06	5.607755e-06	2.291835e-10	4.095926e+01	1.340698e+01
2.790000e-06	5.653287e-06	2.317271e-10	4.129183e+01	1.347597e+01
2.800000e-06	5.698400e-06	2.311677e-10	4.162134e+01	1.353410e+01
2.810000e-06	5.743145e-06	2.309596e-10	4.194815e+01	1.358169e+01
2.820000e-06	5.787563e-06	2.308148e-10	4.227258e+01	1.361938e+01
2.830000e-06	5.831661e-06	2.292559e-10	4.259468e+01	1.364815e+01
2.840000e-06	5.875493e-06	2.284935e-10	4.291483e+01	1.366926e+01
2.850000e-06	5.919028e-06	2.290206e-10	4.323281e+01	1.368425e+01
2.860000e-06	5.962243e-06	2.322276e-10	4.354845e+01	1.369488e+01
2.870000e-06	6.004971e-06	2.368398e-10	4.386054e+01	1.370304e+01
2.880000e-06	6.047057e-06	2.407584e-10	4.416794e+01	1.371075e+01
2.890000e-06	6.088569e-06	2.457448e-10	4.447114e+01	1.372006e+01
2.900000e-06	6.129444e-06	2.487096e-10	4.476969e+01	1.373298e+01
2.910000e-06	6.169723e-06	2.476902e-10	4.506390e+01	1.375143e+01
2.920000e-06	6.209587e-06	2.468225e-10	4.535506e+01	1.377714e+01
2.930000e-06	6.249112e-06	2.481875e-10	4.564376e+01	1.381164e+01
