# Temperatura_=_20.0
# Concentracion g/m^3_=_9000.0
# C_Vs_to_Am_M_A/Vsm_=_65563218390.804596
# pendiente_HvsI_1/m_=_3716.3
# ordenada_HvsI_A/m_=_1297.0
# frecuencia_Hz_=_135476.82515422904

Tiempo_(s)	Campo_(V.s)	Magnetizacion_(V.s)	Campo_(kA/m)	Magnetizacion_(A/m)
0.000000e+00	-7.806477e-06	-4.707773e-09	-5.690300e+01	-3.097835e+02
1.000000e-08	-7.806676e-06	-4.701554e-09	-5.690445e+01	-3.100263e+02
2.000000e-08	-7.806500e-06	-4.699292e-09	-5.690317e+01	-3.102690e+02
3.000000e-08	-7.805806e-06	-4.702036e-09	-5.689810e+01	-3.105018e+02
4.000000e-08	-7.804381e-06	-4.701638e-09	-5.688772e+01	-3.107139e+02
5.000000e-08	-7.802067e-06	-4.699627e-09	-5.687086e+01	-3.108940e+02
6.000000e-08	-7.798997e-06	-4.698193e-09	-5.684848e+01	-3.110308e+02
7.000000e-08	-7.795420e-06	-4.688054e-09	-5.682240e+01	-3.111129e+02
8.000000e-08	-7.791506e-06	-4.659355e-09	-5.679387e+01	-3.111294e+02
9.000000e-08	-7.787272e-06	-4.657983e-09	-5.676301e+01	-3.110703e+02
1.000000e-07	-7.782455e-06	-4.766416e-09	-5.672790e+01	-3.109260e+02
1.100000e-07	-7.776675e-06	-4.890674e-09	-5.668576e+01	-3.106888e+02
1.200000e-07	-7.769816e-06	-4.822545e-09	-5.663577e+01	-3.103518e+02
1.300000e-07	-7.762321e-06	-4.509467e-09	-5.658113e+01	-3.099103e+02
1.400000e-07	-7.754684e-06	-4.374020e-09	-5.652546e+01	-3.093609e+02
1.500000e-07	-7.746967e-06	-4.746704e-09	-5.646922e+01	-3.087026e+02
1.600000e-07	-7.738901e-06	-5.031876e-09	-5.641043e+01	-3.079360e+02
1.700000e-07	-7.730311e-06	-4.701365e-09	-5.634781e+01	-3.070639e+02
1.800000e-07	-7.721113e-06	-4.414042e-09	-5.628076e+01	-3.060911e+02
1.900000e-07	-7.710933e-06	-4.597888e-09	-5.620656e+01	-3.050242e+02
2.000000e-07	-7.699820e-06	-4.882414e-09	-5.612555e+01	-3.038717e+02
2.100000e-07	-7.688334e-06	-4.960249e-09	-5.604183e+01	-3.026437e+02
2.200000e-07	-7.676342e-06	-4.735366e-09	-5.595442e+01	-3.013516e+02
2.300000e-07	-7.663497e-06	-4.441177e-09	-5.586078e+01	-3.000080e+02
2.400000e-07	-7.650165e-06	-4.559359e-09	-5.576361e+01	-2.986265e+02
2.500000e-07	-7.636560e-06	-4.973522e-09	-5.566444e+01	-2.972213e+02
2.600000e-07	-7.622116e-06	-4.803049e-09	-5.555915e+01	-2.958067e+02
2.700000e-07	-7.606479e-06	-4.236552e-09	-5.544517e+01	-2.943973e+02
2.800000e-07	-7.590107e-06	-4.303727e-09	-5.532583e+01	-2.930070e+02
2.900000e-07	-7.573326e-06	-4.725861e-09	-5.520351e+01	-2.916495e+02
3.000000e-07	-7.555993e-06	-4.513051e-09	-5.507717e+01	-2.903373e+02
3.100000e-07	-7.538227e-06	-4.087759e-09	-5.494767e+01	-2.890818e+02
3.200000e-07	-7.520083e-06	-4.247366e-09	-5.481541e+01	-2.878931e+02
3.300000e-07	-7.501291e-06	-4.491905e-09	-5.467844e+01	-2.867798e+02
3.400000e-07	-7.481913e-06	-4.363602e-09	-5.453718e+01	-2.857485e+02
3.500000e-07	-7.462264e-06	-4.313174e-09	-5.439396e+01	-2.848044e+02
3.600000e-07	-7.442358e-06	-4.284816e-09	-5.424886e+01	-2.839504e+02
3.700000e-07	-7.421949e-06	-4.158325e-09	-5.410010e+01	-2.831879e+02
3.800000e-07	-7.400931e-06	-4.325947e-09	-5.394689e+01	-2.825162e+02
3.900000e-07	-7.379419e-06	-4.525482e-09	-5.379008e+01	-2.819329e+02
4.000000e-07	-7.357373e-06	-4.267824e-09	-5.362939e+01	-2.814341e+02
4.100000e-07	-7.334755e-06	-4.059738e-09	-5.346452e+01	-2.810141e+02
4.200000e-07	-7.311603e-06	-4.360453e-09	-5.329576e+01	-2.806661e+02
4.300000e-07	-7.288018e-06	-4.558321e-09	-5.312385e+01	-2.803823e+02
4.400000e-07	-7.264052e-06	-4.249434e-09	-5.294915e+01	-2.801538e+02
4.500000e-07	-7.239638e-06	-4.039492e-09	-5.277119e+01	-2.799713e+02
4.600000e-07	-7.214779e-06	-4.335435e-09	-5.258999e+01	-2.798249e+02
4.700000e-07	-7.189243e-06	-4.497023e-09	-5.240386e+01	-2.797050e+02
4.800000e-07	-7.162739e-06	-4.216570e-09	-5.221066e+01	-2.796017e+02
4.900000e-07	-7.135460e-06	-4.104253e-09	-5.201182e+01	-2.795057e+02
5.000000e-07	-7.107844e-06	-4.320628e-09	-5.181052e+01	-2.794082e+02
5.100000e-07	-7.079917e-06	-4.351872e-09	-5.160695e+01	-2.793011e+02
5.200000e-07	-7.051647e-06	-4.236600e-09	-5.140089e+01	-2.791774e+02
5.300000e-07	-7.022971e-06	-4.227972e-09	-5.119186e+01	-2.790310e+02
5.400000e-07	-6.993714e-06	-4.222411e-09	-5.097860e+01	-2.788569e+02
5.500000e-07	-6.963882e-06	-4.231759e-09	-5.076115e+01	-2.786513e+02
5.600000e-07	-6.933589e-06	-4.318159e-09	-5.054034e+01	-2.784115e+02
5.700000e-07	-6.902819e-06	-4.263406e-09	-5.031605e+01	-2.781363e+02
5.800000e-07	-6.871539e-06	-4.130611e-09	-5.008805e+01	-2.778251e+02
5.900000e-07	-6.839847e-06	-4.186527e-09	-4.985703e+01	-2.774788e+02
6.000000e-07	-6.807844e-06	-4.301748e-09	-4.962376e+01	-2.770990e+02
6.100000e-07	-6.775534e-06	-4.235081e-09	-4.938825e+01	-2.766881e+02
6.200000e-07	-6.742685e-06	-4.113323e-09	-4.914880e+01	-2.762493e+02
6.300000e-07	-6.709079e-06	-4.139831e-09	-4.890384e+01	-2.757861e+02
6.400000e-07	-6.674716e-06	-4.242220e-09	-4.865336e+01	-2.753025e+02
6.500000e-07	-6.639708e-06	-4.228523e-09	-4.839818e+01	-2.748026e+02
6.600000e-07	-6.604205e-06	-4.115989e-09	-4.813939e+01	-2.742905e+02
6.700000e-07	-6.568350e-06	-4.108123e-09	-4.787804e+01	-2.737703e+02
6.800000e-07	-6.532167e-06	-4.193128e-09	-4.761429e+01	-2.732457e+02
6.900000e-07	-6.495549e-06	-4.186499e-09	-4.734738e+01	-2.727199e+02
7.000000e-07	-6.458421e-06	-4.109246e-09	-4.707675e+01	-2.721959e+02
7.100000e-07	-6.420783e-06	-4.102797e-09	-4.680239e+01	-2.716758e+02
7.200000e-07	-6.382667e-06	-4.129794e-09	-4.652455e+01	-2.711614e+02
7.300000e-07	-6.344066e-06	-4.133797e-09	-4.624319e+01	-2.706536e+02
7.400000e-07	-6.305115e-06	-4.123482e-09	-4.595926e+01	-2.701528e+02
7.500000e-07	-6.265859e-06	-4.091835e-09	-4.567312e+01	-2.696586e+02
7.600000e-07	-6.226268e-06	-4.065135e-09	-4.538453e+01	-2.691702e+02
7.700000e-07	-6.186394e-06	-4.101929e-09	-4.509388e+01	-2.686861e+02
7.800000e-07	-6.146122e-06	-4.122073e-09	-4.480033e+01	-2.682045e+02
7.900000e-07	-6.105324e-06	-4.060295e-09	-4.450295e+01	-2.677231e+02
8.000000e-07	-6.063863e-06	-4.019995e-09	-4.420073e+01	-2.672394e+02
8.100000e-07	-6.021725e-06	-4.064469e-09	-4.389358e+01	-2.667506e+02
8.200000e-07	-5.979001e-06	-4.087090e-09	-4.358216e+01	-2.662541e+02
8.300000e-07	-5.935793e-06	-4.035618e-09	-4.326720e+01	-2.657472e+02
8.400000e-07	-5.892193e-06	-3.996475e-09	-4.294939e+01	-2.652273e+02
8.500000e-07	-5.848210e-06	-4.020085e-09	-4.262879e+01	-2.646920e+02
8.600000e-07	-5.803838e-06	-4.041290e-09	-4.230535e+01	-2.641393e+02
8.700000e-07	-5.759128e-06	-4.008415e-09	-4.197945e+01	-2.635676e+02
8.800000e-07	-5.714055e-06	-3.964180e-09	-4.165091e+01	-2.629756e+02
8.900000e-07	-5.668618e-06	-3.963992e-09	-4.131971e+01	-2.623625e+02
9.000000e-07	-5.622803e-06	-3.983480e-09	-4.098575e+01	-2.617278e+02
9.100000e-07	-5.576512e-06	-3.973578e-09	-4.064833e+01	-2.610716e+02
9.200000e-07	-5.529798e-06	-3.943396e-09	-4.030782e+01	-2.603943e+02
9.300000e-07	-5.482776e-06	-3.926410e-09	-3.996507e+01	-2.596968e+02
9.400000e-07	-5.435405e-06	-3.932372e-09	-3.961977e+01	-2.589800e+02
9.500000e-07	-5.387610e-06	-3.937199e-09	-3.927138e+01	-2.582454e+02
9.600000e-07	-5.339459e-06	-3.917934e-09	-3.892040e+01	-2.574945e+02
9.700000e-07	-5.290822e-06	-3.883452e-09	-3.856587e+01	-2.567288e+02
9.800000e-07	-5.241553e-06	-3.869702e-09	-3.820675e+01	-2.559501e+02
9.900000e-07	-5.191714e-06	-3.878113e-09	-3.784346e+01	-2.551598e+02
1.000000e-06	-5.141376e-06	-3.868575e-09	-3.747654e+01	-2.543594e+02
1.010000e-06	-5.090552e-06	-3.836274e-09	-3.710607e+01	-2.535501e+02
1.020000e-06	-5.039330e-06	-3.821235e-09	-3.673270e+01	-2.527329e+02
1.030000e-06	-4.987703e-06	-3.827099e-09	-3.635638e+01	-2.519085e+02
1.040000e-06	-4.935680e-06	-3.819621e-09	-3.597717e+01	-2.510772e+02
1.050000e-06	-4.883364e-06	-3.791778e-09	-3.559584e+01	-2.502390e+02
1.060000e-06	-4.830663e-06	-3.770204e-09	-3.521168e+01	-2.493935e+02
1.070000e-06	-4.777544e-06	-3.758281e-09	-3.482449e+01	-2.485402e+02
1.080000e-06	-4.724124e-06	-3.747000e-09	-3.443510e+01	-2.476780e+02
1.090000e-06	-4.670374e-06	-3.732379e-09	-3.404331e+01	-2.468056e+02
1.100000e-06	-4.616305e-06	-3.716731e-09	-3.364919e+01	-2.459216e+02
1.110000e-06	-4.561910e-06	-3.703205e-09	-3.325269e+01	-2.450243e+02
1.120000e-06	-4.507069e-06	-3.693507e-09	-3.285295e+01	-2.441119e+02
1.130000e-06	-4.451900e-06	-3.683224e-09	-3.245080e+01	-2.431827e+02
1.140000e-06	-4.396547e-06	-3.665561e-09	-3.204732e+01	-2.422349e+02
1.150000e-06	-4.340976e-06	-3.644788e-09	-3.164225e+01	-2.412668e+02
1.160000e-06	-4.285214e-06	-3.627237e-09	-3.123580e+01	-2.402769e+02
1.170000e-06	-4.229289e-06	-3.611477e-09	-3.082815e+01	-2.392639e+02
1.180000e-06	-4.173080e-06	-3.592846e-09	-3.041843e+01	-2.382267e+02
1.190000e-06	-4.116581e-06	-3.573352e-09	-3.000660e+01	-2.371645e+02
1.200000e-06	-4.059770e-06	-3.557957e-09	-2.959249e+01	-2.360768e+02
1.210000e-06	-4.002522e-06	-3.543339e-09	-2.917520e+01	-2.349634e+02
1.220000e-06	-3.944757e-06	-3.524521e-09	-2.875413e+01	-2.338243e+02
1.230000e-06	-3.886548e-06	-3.503989e-09	-2.832984e+01	-2.326598e+02
1.240000e-06	-3.827964e-06	-3.484610e-09	-2.790281e+01	-2.314706e+02
1.250000e-06	-3.769012e-06	-3.463695e-09	-2.747309e+01	-2.302574e+02
1.260000e-06	-3.709849e-06	-3.438519e-09	-2.704184e+01	-2.290210e+02
1.270000e-06	-3.650516e-06	-3.415009e-09	-2.660936e+01	-2.277623e+02
1.280000e-06	-3.590915e-06	-3.395773e-09	-2.617491e+01	-2.264823e+02
1.290000e-06	-3.531078e-06	-3.376942e-09	-2.573875e+01	-2.251818e+02
1.300000e-06	-3.471140e-06	-3.356078e-09	-2.530184e+01	-2.238615e+02
1.310000e-06	-3.411051e-06	-3.334748e-09	-2.486385e+01	-2.225218e+02
1.320000e-06	-3.350741e-06	-3.312314e-09	-2.442423e+01	-2.211631e+02
1.330000e-06	-3.290138e-06	-3.290470e-09	-2.398249e+01	-2.197851e+02
1.340000e-06	-3.229232e-06	-3.268950e-09	-2.353853e+01	-2.183874e+02
1.350000e-06	-3.168148e-06	-3.244050e-09	-2.309327e+01	-2.169692e+02
1.360000e-06	-3.106861e-06	-3.214946e-09	-2.264654e+01	-2.155292e+02
1.370000e-06	-3.045347e-06	-3.187473e-09	-2.219815e+01	-2.140658e+02
1.380000e-06	-2.983667e-06	-3.166832e-09	-2.174855e+01	-2.125770e+02
1.390000e-06	-2.921772e-06	-3.148574e-09	-2.129739e+01	-2.110604e+02
1.400000e-06	-2.859629e-06	-3.125137e-09	-2.084442e+01	-2.095135e+02
1.410000e-06	-2.797267e-06	-3.099959e-09	-2.038985e+01	-2.079332e+02
1.420000e-06	-2.734709e-06	-3.078641e-09	-1.993385e+01	-2.063166e+02
1.430000e-06	-2.671999e-06	-3.056077e-09	-1.947674e+01	-2.046606e+02
1.440000e-06	-2.609091e-06	-3.028852e-09	-1.901819e+01	-2.029619e+02
1.450000e-06	-2.546004e-06	-2.998413e-09	-1.855834e+01	-2.012174e+02
1.460000e-06	-2.482836e-06	-2.971887e-09	-1.809790e+01	-1.994242e+02
1.470000e-06	-2.419586e-06	-2.947187e-09	-1.763686e+01	-1.975793e+02
1.480000e-06	-2.356248e-06	-2.917842e-09	-1.717517e+01	-1.956802e+02
1.490000e-06	-2.292781e-06	-2.884762e-09	-1.671255e+01	-1.937245e+02
1.500000e-06	-2.229150e-06	-2.852276e-09	-1.624872e+01	-1.917103e+02
1.510000e-06	-2.165409e-06	-2.823265e-09	-1.578411e+01	-1.896358e+02
1.520000e-06	-2.101528e-06	-2.794328e-09	-1.531846e+01	-1.874995e+02
1.530000e-06	-2.037430e-06	-2.758713e-09	-1.485124e+01	-1.853003e+02
1.540000e-06	-1.973142e-06	-2.719403e-09	-1.438264e+01	-1.830372e+02
1.550000e-06	-1.908749e-06	-2.685919e-09	-1.391326e+01	-1.807092e+02
1.560000e-06	-1.844289e-06	-2.654636e-09	-1.344340e+01	-1.783155e+02
1.570000e-06	-1.779706e-06	-2.615606e-09	-1.297264e+01	-1.758552e+02
1.580000e-06	-1.714978e-06	-2.571465e-09	-1.250082e+01	-1.733270e+02
1.590000e-06	-1.650128e-06	-2.531520e-09	-1.202812e+01	-1.707295e+02
1.600000e-06	-1.585121e-06	-2.493300e-09	-1.155427e+01	-1.680606e+02
1.610000e-06	-1.519942e-06	-2.451579e-09	-1.107917e+01	-1.653177e+02
1.620000e-06	-1.454522e-06	-2.406251e-09	-1.060231e+01	-1.624974e+02
1.630000e-06	-1.388953e-06	-2.360592e-09	-1.012436e+01	-1.595955e+02
1.640000e-06	-1.323329e-06	-2.317549e-09	-9.646015e+00	-1.566067e+02
1.650000e-06	-1.257531e-06	-2.273586e-09	-9.166400e+00	-1.535250e+02
1.660000e-06	-1.191595e-06	-2.221771e-09	-8.685778e+00	-1.503428e+02
1.670000e-06	-1.125591e-06	-2.164715e-09	-8.204662e+00	-1.470518e+02
1.680000e-06	-1.059416e-06	-2.108584e-09	-7.722295e+00	-1.436425e+02
1.690000e-06	-9.930351e-07	-2.054397e-09	-7.238435e+00	-1.401042e+02
1.700000e-06	-9.266710e-07	-1.994890e-09	-6.754693e+00	-1.364255e+02
1.710000e-06	-8.603454e-07	-1.930287e-09	-6.271233e+00	-1.325940e+02
1.720000e-06	-7.938759e-07	-1.866442e-09	-5.786723e+00	-1.285967e+02
1.730000e-06	-7.274208e-07	-1.802918e-09	-5.302318e+00	-1.244203e+02
1.740000e-06	-6.610344e-07	-1.736695e-09	-4.818414e+00	-1.200512e+02
1.750000e-06	-5.945302e-07	-1.663565e-09	-4.333652e+00	-1.154759e+02
1.760000e-06	-5.279305e-07	-1.587940e-09	-3.848193e+00	-1.106813e+02
1.770000e-06	-4.613475e-07	-1.515219e-09	-3.362856e+00	-1.056551e+02
1.780000e-06	-3.946797e-07	-1.439955e-09	-2.876901e+00	-1.003860e+02
1.790000e-06	-3.278432e-07	-1.354466e-09	-2.389716e+00	-9.486405e+01
1.800000e-06	-2.610310e-07	-1.264760e-09	-1.902708e+00	-8.908107e+01
1.810000e-06	-1.942510e-07	-1.176310e-09	-1.415935e+00	-8.303092e+01
1.820000e-06	-1.273691e-07	-1.084292e-09	-9.284192e-01	-7.670978e+01
1.830000e-06	-6.048105e-08	-9.855264e-10	-4.408587e-01	-7.011645e+01
1.840000e-06	6.369472e-09	-8.822313e-10	4.642838e-02	-6.325256e+01
1.850000e-06	7.313480e-08	-7.752801e-10	5.330944e-01	-5.612279e+01
1.860000e-06	1.397700e-07	-6.654134e-10	1.018812e+00	-4.873495e+01
1.870000e-06	2.064857e-07	-5.497476e-10	1.505116e+00	-4.110008e+01
1.880000e-06	2.732875e-07	-4.259614e-10	1.992048e+00	-3.323251e+01
1.890000e-06	3.400459e-07	-2.979762e-10	2.478663e+00	-2.514972e+01
1.900000e-06	4.067652e-07	-1.681441e-10	2.964994e+00	-1.687232e+01
1.910000e-06	4.734507e-07	-3.423238e-11	3.451079e+00	-8.423798e+00
1.920000e-06	5.401127e-07	1.033058e-10	3.936991e+00	1.696701e-01
1.930000e-06	6.067792e-07	2.413629e-10	4.422937e+00	8.879545e+00
1.940000e-06	6.733593e-07	3.786688e-10	4.908253e+00	1.767527e+01
1.950000e-06	7.398516e-07	5.160701e-10	5.392929e+00	2.652468e+01
1.960000e-06	8.063487e-07	6.552992e-10	5.877639e+00	3.539443e+01
1.970000e-06	8.727616e-07	7.964659e-10	6.361737e+00	4.425048e+01
1.980000e-06	9.389815e-07	9.369067e-10	6.844427e+00	5.305855e+01
1.990000e-06	1.004997e-06	1.074569e-09	7.325628e+00	6.178469e+01
2.000000e-06	1.070918e-06	1.209360e-09	7.806142e+00	7.039571e+01
2.010000e-06	1.136884e-06	1.339986e-09	8.286977e+00	7.885973e+01
2.020000e-06	1.202841e-06	1.467599e-09	8.767756e+00	8.714660e+01
2.030000e-06	1.268689e-06	1.589635e-09	9.247731e+00	9.522837e+01
2.040000e-06	1.334460e-06	1.705340e-09	9.727150e+00	1.030797e+02
2.050000e-06	1.400155e-06	1.816859e-09	1.020601e+01	1.106780e+02
2.060000e-06	1.465691e-06	1.925568e-09	1.068372e+01	1.180042e+02
2.070000e-06	1.531049e-06	2.028389e-09	1.116013e+01	1.250425e+02
2.080000e-06	1.596264e-06	2.123098e-09	1.163549e+01	1.317805e+02
2.090000e-06	1.661309e-06	2.211924e-09	1.210962e+01	1.382099e+02
2.100000e-06	1.726173e-06	2.298568e-09	1.258242e+01	1.443257e+02
2.110000e-06	1.790883e-06	2.382227e-09	1.305411e+01	1.501266e+02
2.120000e-06	1.855347e-06	2.459012e-09	1.352400e+01	1.556150e+02
2.130000e-06	1.919559e-06	2.532590e-09	1.399206e+01	1.607963e+02
2.140000e-06	1.983710e-06	2.607390e-09	1.445966e+01	1.656792e+02
2.150000e-06	2.047771e-06	2.681910e-09	1.492662e+01	1.702750e+02
2.160000e-06	2.111647e-06	2.750784e-09	1.539223e+01	1.745974e+02
2.170000e-06	2.175419e-06	2.813760e-09	1.585707e+01	1.786620e+02
2.180000e-06	2.239080e-06	2.873586e-09	1.632111e+01	1.824863e+02
2.190000e-06	2.302656e-06	2.930602e-09	1.678453e+01	1.860885e+02
2.200000e-06	2.366140e-06	2.984549e-09	1.724728e+01	1.894880e+02
2.210000e-06	2.429450e-06	3.035256e-09	1.770876e+01	1.927041e+02
2.220000e-06	2.492608e-06	3.083847e-09	1.816912e+01	1.957563e+02
2.230000e-06	2.555639e-06	3.131815e-09	1.862857e+01	1.986635e+02
2.240000e-06	2.618502e-06	3.178767e-09	1.908679e+01	2.014435e+02
2.250000e-06	2.681152e-06	3.222894e-09	1.954346e+01	2.041135e+02
2.260000e-06	2.743572e-06	3.263708e-09	1.999845e+01	2.066888e+02
2.270000e-06	2.805772e-06	3.301117e-09	2.045184e+01	2.091832e+02
2.280000e-06	2.867877e-06	3.335375e-09	2.090454e+01	2.116089e+02
2.290000e-06	2.929835e-06	3.369302e-09	2.135617e+01	2.139760e+02
2.300000e-06	2.991510e-06	3.401786e-09	2.180572e+01	2.162928e+02
2.310000e-06	3.052981e-06	3.434983e-09	2.225380e+01	2.185656e+02
2.320000e-06	3.114294e-06	3.468432e-09	2.270073e+01	2.207990e+02
2.330000e-06	3.175374e-06	3.501285e-09	2.314595e+01	2.229958e+02
2.340000e-06	3.236229e-06	3.531405e-09	2.358953e+01	2.251572e+02
2.350000e-06	3.296902e-06	3.558935e-09	2.403179e+01	2.272829e+02
2.360000e-06	3.357372e-06	3.586673e-09	2.447257e+01	2.293717e+02
2.370000e-06	3.417639e-06	3.615140e-09	2.491187e+01	2.314213e+02
2.380000e-06	3.477722e-06	3.643492e-09	2.534982e+01	2.334288e+02
2.390000e-06	3.537584e-06	3.669604e-09	2.578617e+01	2.353908e+02
2.400000e-06	3.597231e-06	3.695523e-09	2.622095e+01	2.373038e+02
2.410000e-06	3.656676e-06	3.722117e-09	2.665426e+01	2.391643e+02
2.420000e-06	3.715865e-06	3.747177e-09	2.708570e+01	2.409693e+02
2.430000e-06	3.774755e-06	3.768913e-09	2.751495e+01	2.427161e+02
2.440000e-06	3.833260e-06	3.790128e-09	2.794141e+01	2.444025e+02
2.450000e-06	3.891407e-06	3.811242e-09	2.836526e+01	2.460275e+02
2.460000e-06	3.949166e-06	3.832513e-09	2.878627e+01	2.475907e+02
2.470000e-06	4.006509e-06	3.853643e-09	2.920426e+01	2.490927e+02
2.480000e-06	4.063509e-06	3.874559e-09	2.961974e+01	2.505350e+02
2.490000e-06	4.120209e-06	3.895440e-09	3.003304e+01	2.519199e+02
2.500000e-06	4.176622e-06	3.915498e-09	3.044424e+01	2.532509e+02
2.510000e-06	4.232679e-06	3.934706e-09	3.085286e+01	2.545320e+02
2.520000e-06	4.288451e-06	3.953587e-09	3.125939e+01	2.557679e+02
2.530000e-06	4.343983e-06	3.971668e-09	3.166417e+01	2.569638e+02
2.540000e-06	4.399208e-06	3.989487e-09	3.206672e+01	2.581252e+02
2.550000e-06	4.454171e-06	4.007838e-09	3.246736e+01	2.592578e+02
2.560000e-06	4.508874e-06	4.026199e-09	3.286610e+01	2.603673e+02
2.570000e-06	4.563263e-06	4.044916e-09	3.326255e+01	2.614591e+02
2.580000e-06	4.617339e-06	4.065527e-09	3.365672e+01	2.625384e+02
2.590000e-06	4.671137e-06	4.084513e-09	3.404887e+01	2.636097e+02
2.600000e-06	4.724660e-06	4.101157e-09	3.443901e+01	2.646769e+02
2.610000e-06	4.777853e-06	4.117283e-09	3.482674e+01	2.657432e+02
2.620000e-06	4.830645e-06	4.132646e-09	3.521155e+01	2.668109e+02
2.630000e-06	4.883043e-06	4.145353e-09	3.559349e+01	2.678813e+02
2.640000e-06	4.935073e-06	4.156079e-09	3.597275e+01	2.689550e+02
2.650000e-06	4.986679e-06	4.169632e-09	3.634892e+01	2.700314e+02
2.660000e-06	5.037859e-06	4.186334e-09	3.672198e+01	2.711092e+02
2.670000e-06	5.088415e-06	4.203180e-09	3.709049e+01	2.721862e+02
2.680000e-06	5.138407e-06	4.216800e-09	3.745490e+01	2.732595e+02
2.690000e-06	5.187959e-06	4.230902e-09	3.781609e+01	2.743256e+02
2.700000e-06	5.236940e-06	4.245748e-09	3.817312e+01	2.753807e+02
2.710000e-06	5.285473e-06	4.258631e-09	3.852688e+01	2.764204e+02
2.720000e-06	5.333650e-06	4.269213e-09	3.887806e+01	2.774404e+02
2.730000e-06	5.381476e-06	4.279146e-09	3.922667e+01	2.784363e+02
2.740000e-06	5.429025e-06	4.290751e-09	3.957327e+01	2.794040e+02
2.750000e-06	5.476216e-06	4.301976e-09	3.991725e+01	2.803398e+02
2.760000e-06	5.522995e-06	4.311921e-09	4.025823e+01	2.812403e+02
2.770000e-06	5.569405e-06	4.321613e-09	4.059652e+01	2.821027e+02
2.780000e-06	5.615415e-06	4.334718e-09	4.093190e+01	2.829253e+02
2.790000e-06	5.661106e-06	4.348926e-09	4.126495e+01	2.837067e+02
2.800000e-06	5.706408e-06	4.359020e-09	4.159517e+01	2.844468e+02
2.810000e-06	5.751249e-06	4.367561e-09	4.192202e+01	2.851459e+02
2.820000e-06	5.795743e-06	4.378970e-09	4.224635e+01	2.858056e+02
2.830000e-06	5.839917e-06	4.391709e-09	4.256834e+01	2.864279e+02
2.840000e-06	5.883833e-06	4.402568e-09	4.288845e+01	2.870160e+02
2.850000e-06	5.927445e-06	4.410410e-09	4.320635e+01	2.875733e+02
2.860000e-06	5.970651e-06	4.418697e-09	4.352129e+01	2.881041e+02
2.870000e-06	6.013443e-06	4.429950e-09	4.383320e+01	2.886127e+02
2.880000e-06	6.055708e-06	4.440288e-09	4.414129e+01	2.891042e+02
2.890000e-06	6.097249e-06	4.447921e-09	4.444409e+01	2.895832e+02
2.900000e-06	6.138061e-06	4.454819e-09	4.474158e+01	2.900547e+02
2.910000e-06	6.178364e-06	4.465191e-09	4.503535e+01	2.905233e+02
