# Temperatura_=_20.0
# Concentracion g/m^3_=_9000.0
# C_Vs_to_Am_M_A/Vsm_=_65563218390.804596
# pendiente_HvsI_1/m_=_3716.3
# ordenada_HvsI_A/m_=_1297.0
# frecuencia_Hz_=_135477.18713324776

Tiempo_(s)	Campo_(V.s)	Magnetizacion_(V.s)	Campo_(kA/m)	Magnetizacion_(A/m)
0.000000e+00	-7.773830e-06	-4.341888e-09	-5.691293e+01	-2.912635e+02
1.000000e-08	-7.774183e-06	-4.339852e-09	-5.691551e+01	-2.914062e+02
2.000000e-08	-7.774093e-06	-4.338345e-09	-5.691485e+01	-2.915554e+02
3.000000e-08	-7.773377e-06	-4.338984e-09	-5.690961e+01	-2.917060e+02
4.000000e-08	-7.771873e-06	-4.337674e-09	-5.689860e+01	-2.918523e+02
5.000000e-08	-7.769579e-06	-4.334415e-09	-5.688180e+01	-2.919881e+02
6.000000e-08	-7.766599e-06	-4.331898e-09	-5.685998e+01	-2.921072e+02
7.000000e-08	-7.763158e-06	-4.328887e-09	-5.683479e+01	-2.922033e+02
8.000000e-08	-7.759399e-06	-4.312048e-09	-5.680727e+01	-2.922699e+02
9.000000e-08	-7.755262e-06	-4.311808e-09	-5.677699e+01	-2.923010e+02
1.000000e-07	-7.750514e-06	-4.374701e-09	-5.674223e+01	-2.922911e+02
1.100000e-07	-7.744884e-06	-4.422850e-09	-5.670101e+01	-2.922351e+02
1.200000e-07	-7.738357e-06	-4.362946e-09	-5.665322e+01	-2.921286e+02
1.300000e-07	-7.731124e-06	-4.188840e-09	-5.660027e+01	-2.919680e+02
1.400000e-07	-7.723561e-06	-4.201207e-09	-5.654490e+01	-2.917508e+02
1.500000e-07	-7.715852e-06	-4.433178e-09	-5.648846e+01	-2.914753e+02
1.600000e-07	-7.707814e-06	-4.497742e-09	-5.642961e+01	-2.911409e+02
1.700000e-07	-7.699303e-06	-4.249886e-09	-5.636731e+01	-2.907483e+02
1.800000e-07	-7.690177e-06	-4.186490e-09	-5.630049e+01	-2.902989e+02
1.900000e-07	-7.680123e-06	-4.360437e-09	-5.622688e+01	-2.897954e+02
2.000000e-07	-7.669219e-06	-4.463154e-09	-5.614706e+01	-2.892415e+02
2.100000e-07	-7.657853e-06	-4.445602e-09	-5.606385e+01	-2.886416e+02
2.200000e-07	-7.645965e-06	-4.294647e-09	-5.597682e+01	-2.880011e+02
2.300000e-07	-7.633353e-06	-4.168839e-09	-5.588448e+01	-2.873262e+02
2.400000e-07	-7.620206e-06	-4.354537e-09	-5.578823e+01	-2.866233e+02
2.500000e-07	-7.606664e-06	-4.589587e-09	-5.568909e+01	-2.858995e+02
2.600000e-07	-7.592280e-06	-4.384602e-09	-5.558378e+01	-2.851620e+02
2.700000e-07	-7.576853e-06	-4.071008e-09	-5.547084e+01	-2.844182e+02
2.800000e-07	-7.560784e-06	-4.305928e-09	-5.535319e+01	-2.836754e+02
2.900000e-07	-7.544223e-06	-4.583275e-09	-5.523195e+01	-2.829404e+02
3.000000e-07	-7.527066e-06	-4.349090e-09	-5.510634e+01	-2.822201e+02
3.100000e-07	-7.509477e-06	-4.163903e-09	-5.497757e+01	-2.815204e+02
3.200000e-07	-7.491471e-06	-4.410015e-09	-5.484575e+01	-2.808468e+02
3.300000e-07	-7.472848e-06	-4.505742e-09	-5.470941e+01	-2.802041e+02
3.400000e-07	-7.453689e-06	-4.334287e-09	-5.456914e+01	-2.795961e+02
3.500000e-07	-7.434171e-06	-4.347390e-09	-5.442625e+01	-2.790258e+02
3.600000e-07	-7.414305e-06	-4.316904e-09	-5.428081e+01	-2.784954e+02
3.700000e-07	-7.394049e-06	-4.274518e-09	-5.413251e+01	-2.780058e+02
3.800000e-07	-7.373411e-06	-4.390426e-09	-5.398142e+01	-2.775575e+02
3.900000e-07	-7.352238e-06	-4.448813e-09	-5.382641e+01	-2.771496e+02
4.000000e-07	-7.330424e-06	-4.257058e-09	-5.366671e+01	-2.767808e+02
4.100000e-07	-7.307999e-06	-4.230737e-09	-5.350253e+01	-2.764487e+02
4.200000e-07	-7.285055e-06	-4.451293e-09	-5.333456e+01	-2.761505e+02
4.300000e-07	-7.261713e-06	-4.485030e-09	-5.316367e+01	-2.758827e+02
4.400000e-07	-7.237995e-06	-4.256077e-09	-5.299003e+01	-2.756413e+02
4.500000e-07	-7.213848e-06	-4.212783e-09	-5.281324e+01	-2.754223e+02
4.600000e-07	-7.189222e-06	-4.426612e-09	-5.263296e+01	-2.752211e+02
4.700000e-07	-7.163948e-06	-4.449303e-09	-5.244792e+01	-2.750332e+02
4.800000e-07	-7.137776e-06	-4.216677e-09	-5.225632e+01	-2.748541e+02
4.900000e-07	-7.110779e-06	-4.221644e-09	-5.205866e+01	-2.746794e+02
5.000000e-07	-7.083271e-06	-4.410364e-09	-5.185728e+01	-2.745052e+02
5.100000e-07	-7.055465e-06	-4.374913e-09	-5.165371e+01	-2.743276e+02
5.200000e-07	-7.027381e-06	-4.248855e-09	-5.144810e+01	-2.741432e+02
5.300000e-07	-6.998875e-06	-4.285560e-09	-5.123941e+01	-2.739492e+02
5.400000e-07	-6.969803e-06	-4.316050e-09	-5.102657e+01	-2.737431e+02
5.500000e-07	-6.940240e-06	-4.299160e-09	-5.081014e+01	-2.735229e+02
5.600000e-07	-6.910235e-06	-4.326580e-09	-5.059046e+01	-2.732873e+02
5.700000e-07	-6.879710e-06	-4.283271e-09	-5.036699e+01	-2.730353e+02
5.800000e-07	-6.848644e-06	-4.215186e-09	-5.013955e+01	-2.727667e+02
5.900000e-07	-6.817170e-06	-4.281585e-09	-4.990913e+01	-2.724812e+02
6.000000e-07	-6.785434e-06	-4.342088e-09	-4.967679e+01	-2.721794e+02
6.100000e-07	-6.753382e-06	-4.254402e-09	-4.944213e+01	-2.718620e+02
6.200000e-07	-6.720870e-06	-4.190173e-09	-4.920411e+01	-2.715299e+02
6.300000e-07	-6.687666e-06	-4.249789e-09	-4.896102e+01	-2.711843e+02
6.400000e-07	-6.653701e-06	-4.304481e-09	-4.871235e+01	-2.708264e+02
6.500000e-07	-6.619051e-06	-4.246372e-09	-4.845868e+01	-2.704575e+02
6.600000e-07	-6.583791e-06	-4.175414e-09	-4.820054e+01	-2.700790e+02
6.700000e-07	-6.548158e-06	-4.198095e-09	-4.793967e+01	-2.696921e+02
6.800000e-07	-6.512256e-06	-4.253782e-09	-4.767683e+01	-2.692978e+02
6.900000e-07	-6.475902e-06	-4.215819e-09	-4.741067e+01	-2.688970e+02
7.000000e-07	-6.438945e-06	-4.164490e-09	-4.714011e+01	-2.684905e+02
7.100000e-07	-6.401501e-06	-4.175558e-09	-4.686598e+01	-2.680786e+02
7.200000e-07	-6.363736e-06	-4.196697e-09	-4.658949e+01	-2.676617e+02
7.300000e-07	-6.325601e-06	-4.183060e-09	-4.631031e+01	-2.672397e+02
7.400000e-07	-6.287003e-06	-4.172296e-09	-4.602773e+01	-2.668125e+02
7.500000e-07	-6.248000e-06	-4.148073e-09	-4.574218e+01	-2.663795e+02
7.600000e-07	-6.208642e-06	-4.132890e-09	-4.545404e+01	-2.659402e+02
7.700000e-07	-6.168941e-06	-4.151783e-09	-4.516338e+01	-2.654940e+02
7.800000e-07	-6.128894e-06	-4.151139e-09	-4.487020e+01	-2.650399e+02
7.900000e-07	-6.088410e-06	-4.103634e-09	-4.457381e+01	-2.645771e+02
8.000000e-07	-6.047401e-06	-4.090476e-09	-4.427358e+01	-2.641047e+02
8.100000e-07	-6.005696e-06	-4.120976e-09	-4.396825e+01	-2.636219e+02
8.200000e-07	-5.963315e-06	-4.116589e-09	-4.365798e+01	-2.631280e+02
8.300000e-07	-5.920365e-06	-4.073065e-09	-4.334353e+01	-2.626222e+02
8.400000e-07	-5.876922e-06	-4.059986e-09	-4.302549e+01	-2.621041e+02
8.500000e-07	-5.833122e-06	-4.079223e-09	-4.270482e+01	-2.615733e+02
8.600000e-07	-5.789049e-06	-4.074215e-09	-4.238216e+01	-2.610297e+02
8.700000e-07	-5.744677e-06	-4.041655e-09	-4.205731e+01	-2.604731e+02
8.800000e-07	-5.699907e-06	-4.022002e-09	-4.172954e+01	-2.599039e+02
8.900000e-07	-5.654713e-06	-4.031617e-09	-4.139868e+01	-2.593223e+02
9.000000e-07	-5.609166e-06	-4.033138e-09	-4.106522e+01	-2.587288e+02
9.100000e-07	-5.563301e-06	-4.016935e-09	-4.072944e+01	-2.581239e+02
9.200000e-07	-5.517064e-06	-3.997486e-09	-4.039093e+01	-2.575083e+02
9.300000e-07	-5.470436e-06	-3.992518e-09	-4.004956e+01	-2.568826e+02
9.400000e-07	-5.423421e-06	-3.991266e-09	-3.970537e+01	-2.562476e+02
9.500000e-07	-5.375997e-06	-3.986167e-09	-3.935817e+01	-2.556038e+02
9.600000e-07	-5.328176e-06	-3.966294e-09	-3.900807e+01	-2.549517e+02
9.700000e-07	-5.279955e-06	-3.948213e-09	-3.865504e+01	-2.542919e+02
9.800000e-07	-5.231238e-06	-3.945016e-09	-3.829838e+01	-2.536244e+02
9.900000e-07	-5.181927e-06	-3.946151e-09	-3.793737e+01	-2.529494e+02
1.000000e-06	-5.132056e-06	-3.926939e-09	-3.757226e+01	-2.522667e+02
1.010000e-06	-5.081660e-06	-3.901904e-09	-3.720330e+01	-2.515759e+02
1.020000e-06	-5.030725e-06	-3.893641e-09	-3.683040e+01	-2.508765e+02
1.030000e-06	-4.979376e-06	-3.894902e-09	-3.645447e+01	-2.501677e+02
1.040000e-06	-4.927602e-06	-3.880982e-09	-3.607543e+01	-2.494483e+02
1.050000e-06	-4.875451e-06	-3.859256e-09	-3.569362e+01	-2.487174e+02
1.060000e-06	-4.822983e-06	-3.846395e-09	-3.530950e+01	-2.479735e+02
1.070000e-06	-4.770107e-06	-3.841749e-09	-3.492239e+01	-2.472152e+02
1.080000e-06	-4.716868e-06	-3.831000e-09	-3.453262e+01	-2.464410e+02
1.090000e-06	-4.663316e-06	-3.813519e-09	-3.414057e+01	-2.456495e+02
1.100000e-06	-4.609459e-06	-3.797115e-09	-3.374628e+01	-2.448392e+02
1.110000e-06	-4.555278e-06	-3.783325e-09	-3.334961e+01	-2.440087e+02
1.120000e-06	-4.500763e-06	-3.772454e-09	-3.295050e+01	-2.431567e+02
1.130000e-06	-4.445983e-06	-3.759424e-09	-3.254945e+01	-2.422823e+02
1.140000e-06	-4.390969e-06	-3.743086e-09	-3.214669e+01	-2.413847e+02
1.150000e-06	-4.335696e-06	-3.727369e-09	-3.174203e+01	-2.404631e+02
1.160000e-06	-4.280151e-06	-3.717692e-09	-3.133538e+01	-2.395173e+02
1.170000e-06	-4.224416e-06	-3.704920e-09	-3.092734e+01	-2.385472e+02
1.180000e-06	-4.168455e-06	-3.686425e-09	-3.051764e+01	-2.375531e+02
1.190000e-06	-4.112256e-06	-3.668776e-09	-3.010620e+01	-2.365355e+02
1.200000e-06	-4.055767e-06	-3.655890e-09	-2.969265e+01	-2.354950e+02
1.210000e-06	-3.998908e-06	-3.638614e-09	-2.927637e+01	-2.344325e+02
1.220000e-06	-3.941760e-06	-3.618267e-09	-2.885799e+01	-2.333492e+02
1.230000e-06	-3.884178e-06	-3.599627e-09	-2.843642e+01	-2.322463e+02
1.240000e-06	-3.826158e-06	-3.582895e-09	-2.801165e+01	-2.311249e+02
1.250000e-06	-3.767770e-06	-3.563548e-09	-2.758419e+01	-2.299862e+02
1.260000e-06	-3.708936e-06	-3.542514e-09	-2.715346e+01	-2.288314e+02
1.270000e-06	-3.649751e-06	-3.520497e-09	-2.672017e+01	-2.276614e+02
1.280000e-06	-3.590313e-06	-3.499804e-09	-2.628501e+01	-2.264770e+02
1.290000e-06	-3.530668e-06	-3.479878e-09	-2.584835e+01	-2.252786e+02
1.300000e-06	-3.470840e-06	-3.458219e-09	-2.541034e+01	-2.240664e+02
1.310000e-06	-3.410802e-06	-3.435339e-09	-2.497080e+01	-2.228400e+02
1.320000e-06	-3.350577e-06	-3.413409e-09	-2.452988e+01	-2.215989e+02
1.330000e-06	-3.290207e-06	-3.392014e-09	-2.408791e+01	-2.203420e+02
1.340000e-06	-3.229678e-06	-3.367957e-09	-2.364477e+01	-2.190677e+02
1.350000e-06	-3.168932e-06	-3.341131e-09	-2.320004e+01	-2.177741e+02
1.360000e-06	-3.107957e-06	-3.314956e-09	-2.275364e+01	-2.164589e+02
1.370000e-06	-3.046750e-06	-3.291866e-09	-2.230553e+01	-2.151194e+02
1.380000e-06	-2.985323e-06	-3.270590e-09	-2.185583e+01	-2.137526e+02
1.390000e-06	-2.923740e-06	-3.248113e-09	-2.140497e+01	-2.123552e+02
1.400000e-06	-2.861937e-06	-3.225975e-09	-2.095251e+01	-2.109238e+02
1.410000e-06	-2.799887e-06	-3.205867e-09	-2.049823e+01	-2.094548e+02
1.420000e-06	-2.737635e-06	-3.184020e-09	-2.004248e+01	-2.079447e+02
1.430000e-06	-2.675276e-06	-3.157893e-09	-1.958594e+01	-2.063901e+02
1.440000e-06	-2.612834e-06	-3.129812e-09	-1.912880e+01	-2.047875e+02
1.450000e-06	-2.550220e-06	-3.101554e-09	-1.867039e+01	-2.031338e+02
1.460000e-06	-2.487391e-06	-3.074068e-09	-1.821042e+01	-2.014263e+02
1.470000e-06	-2.424396e-06	-3.047747e-09	-1.774923e+01	-1.996624e+02
1.480000e-06	-2.361305e-06	-3.020725e-09	-1.728733e+01	-1.978399e+02
1.490000e-06	-2.298097e-06	-2.991461e-09	-1.682458e+01	-1.959573e+02
1.500000e-06	-2.234614e-06	-2.961705e-09	-1.635981e+01	-1.940131e+02
1.510000e-06	-2.170882e-06	-2.933405e-09	-1.589323e+01	-1.920065e+02
1.520000e-06	-2.107081e-06	-2.902686e-09	-1.542614e+01	-1.899368e+02
1.530000e-06	-2.043136e-06	-2.866981e-09	-1.495798e+01	-1.878038e+02
1.540000e-06	-1.979028e-06	-2.831573e-09	-1.448864e+01	-1.856073e+02
1.550000e-06	-1.914794e-06	-2.798114e-09	-1.401838e+01	-1.833474e+02
1.560000e-06	-1.850490e-06	-2.762215e-09	-1.354761e+01	-1.810240e+02
1.570000e-06	-1.786146e-06	-2.724356e-09	-1.307654e+01	-1.786371e+02
1.580000e-06	-1.721712e-06	-2.687333e-09	-1.260482e+01	-1.761862e+02
1.590000e-06	-1.657135e-06	-2.651112e-09	-1.213204e+01	-1.736705e+02
1.600000e-06	-1.592432e-06	-2.612867e-09	-1.165834e+01	-1.710885e+02
1.610000e-06	-1.527626e-06	-2.573373e-09	-1.118389e+01	-1.684382e+02
1.620000e-06	-1.462723e-06	-2.535057e-09	-1.070873e+01	-1.657166e+02
1.630000e-06	-1.397666e-06	-2.492750e-09	-1.023244e+01	-1.629198e+02
1.640000e-06	-1.332379e-06	-2.446543e-09	-9.754468e+00	-1.600430e+02
1.650000e-06	-1.266966e-06	-2.399675e-09	-9.275573e+00	-1.570800e+02
1.660000e-06	-1.201429e-06	-2.350375e-09	-8.795770e+00	-1.540237e+02
1.670000e-06	-1.135796e-06	-2.299011e-09	-8.315266e+00	-1.508657e+02
1.680000e-06	-1.070107e-06	-2.243817e-09	-7.834354e+00	-1.475966e+02
1.690000e-06	-1.004372e-06	-2.187481e-09	-7.353099e+00	-1.442058e+02
1.700000e-06	-9.386168e-07	-2.131669e-09	-6.871700e+00	-1.406818e+02
1.710000e-06	-8.728361e-07	-2.076982e-09	-6.390113e+00	-1.370122e+02
1.720000e-06	-8.069763e-07	-2.019068e-09	-5.907948e+00	-1.331841e+02
1.730000e-06	-7.410188e-07	-1.957217e-09	-5.425067e+00	-1.291841e+02
1.740000e-06	-6.750106e-07	-1.891963e-09	-4.941815e+00	-1.249985e+02
1.750000e-06	-6.089437e-07	-1.823807e-09	-4.458133e+00	-1.206140e+02
1.760000e-06	-5.427834e-07	-1.751555e-09	-3.973767e+00	-1.160173e+02
1.770000e-06	-4.765125e-07	-1.675625e-09	-3.488592e+00	-1.111961e+02
1.780000e-06	-4.102322e-07	-1.596765e-09	-3.003348e+00	-1.061391e+02
1.790000e-06	-3.439334e-07	-1.516935e-09	-2.517968e+00	-1.008362e+02
1.800000e-06	-2.775597e-07	-1.435868e-09	-2.032040e+00	-9.527901e+01
1.810000e-06	-2.112312e-07	-1.350492e-09	-1.546443e+00	-8.946125e+01
1.820000e-06	-1.448991e-07	-1.260944e-09	-1.060820e+00	-8.337877e+01
1.830000e-06	-7.850360e-08	-1.168505e-09	-5.747321e-01	-7.702999e+01
1.840000e-06	-1.214609e-08	-1.072769e-09	-8.892261e-02	-7.041602e+01
1.850000e-06	5.417452e-08	-9.680684e-10	3.966166e-01	-6.354089e+01
1.860000e-06	1.204687e-07	-8.556540e-10	8.819624e-01	-5.641169e+01
1.870000e-06	1.868324e-07	-7.422973e-10	1.367817e+00	-4.903855e+01
1.880000e-06	2.531922e-07	-6.267977e-10	1.853643e+00	-4.143477e+01
1.890000e-06	3.195143e-07	-5.037447e-10	2.339194e+00	-3.361669e+01
1.900000e-06	3.858658e-07	-3.758631e-10	2.824959e+00	-2.560362e+01
1.910000e-06	4.521825e-07	-2.472109e-10	3.310470e+00	-1.741767e+01
1.920000e-06	5.184662e-07	-1.202856e-10	3.795739e+00	-9.083545e+00
1.930000e-06	5.847267e-07	1.070234e-11	4.280838e+00	-6.282211e-01
1.940000e-06	6.509759e-07	1.492195e-10	4.765855e+00	7.919334e+00
1.950000e-06	7.171546e-07	2.885329e-10	5.250355e+00	1.652855e+01
1.960000e-06	7.832719e-07	4.245694e-10	5.734406e+00	2.516767e+01
1.970000e-06	8.492345e-07	5.620444e-10	6.217324e+00	3.380417e+01
1.980000e-06	9.150518e-07	6.997177e-10	6.699179e+00	4.240521e+01
1.990000e-06	9.808168e-07	8.350627e-10	7.180650e+00	5.093814e+01
2.000000e-06	1.046458e-06	9.665089e-10	7.661215e+00	5.937090e+01
2.010000e-06	1.111984e-06	1.095399e-09	8.140937e+00	6.767256e+01
2.020000e-06	1.177381e-06	1.222490e-09	8.619717e+00	7.581369e+01
2.030000e-06	1.242728e-06	1.345091e-09	9.098122e+00	8.376678e+01
2.040000e-06	1.308030e-06	1.460949e-09	9.576209e+00	9.150668e+01
2.050000e-06	1.373185e-06	1.570656e-09	1.005321e+01	9.901083e+01
2.060000e-06	1.438268e-06	1.679176e-09	1.052969e+01	1.062596e+02
2.070000e-06	1.503268e-06	1.785364e-09	1.100557e+01	1.132366e+02
2.080000e-06	1.568164e-06	1.883541e-09	1.148067e+01	1.199286e+02
2.090000e-06	1.632967e-06	1.973470e-09	1.195510e+01	1.263259e+02
2.100000e-06	1.697668e-06	2.061638e-09	1.242878e+01	1.324221e+02
2.110000e-06	1.762243e-06	2.148974e-09	1.290154e+01	1.382144e+02
2.120000e-06	1.826625e-06	2.228929e-09	1.337289e+01	1.437031e+02
2.130000e-06	1.890826e-06	2.303375e-09	1.384291e+01	1.488919e+02
2.140000e-06	1.954840e-06	2.378182e-09	1.431157e+01	1.537873e+02
2.150000e-06	2.018651e-06	2.452465e-09	1.477873e+01	1.583985e+02
2.160000e-06	2.082322e-06	2.523455e-09	1.524487e+01	1.627372e+02
2.170000e-06	2.145980e-06	2.587850e-09	1.571092e+01	1.668169e+02
2.180000e-06	2.209563e-06	2.647927e-09	1.617641e+01	1.706532e+02
2.190000e-06	2.272955e-06	2.707687e-09	1.664051e+01	1.742628e+02
2.200000e-06	2.336176e-06	2.761833e-09	1.710336e+01	1.776631e+02
2.210000e-06	2.399219e-06	2.806152e-09	1.756490e+01	1.808726e+02
2.220000e-06	2.462111e-06	2.848435e-09	1.802534e+01	1.839094e+02
2.230000e-06	2.524858e-06	2.892405e-09	1.848471e+01	1.867917e+02
2.240000e-06	2.587444e-06	2.935506e-09	1.894291e+01	1.895371e+02
2.250000e-06	2.649862e-06	2.977971e-09	1.939988e+01	1.921625e+02
2.260000e-06	2.712101e-06	3.020452e-09	1.985554e+01	1.946835e+02
2.270000e-06	2.774148e-06	3.059990e-09	2.030979e+01	1.971144e+02
2.280000e-06	2.836068e-06	3.092927e-09	2.076312e+01	1.994682e+02
2.290000e-06	2.897873e-06	3.123314e-09	2.121559e+01	2.017560e+02
2.300000e-06	2.959496e-06	3.150972e-09	2.166675e+01	2.039874e+02
2.310000e-06	3.020853e-06	3.181535e-09	2.211594e+01	2.061702e+02
2.320000e-06	3.081933e-06	3.212466e-09	2.256311e+01	2.083105e+02
2.330000e-06	3.142830e-06	3.240666e-09	2.300895e+01	2.104128e+02
2.340000e-06	3.203570e-06	3.267404e-09	2.345363e+01	2.124799e+02
2.350000e-06	3.264148e-06	3.295025e-09	2.389713e+01	2.145133e+02
2.360000e-06	3.324518e-06	3.325855e-09	2.433910e+01	2.165133e+02
2.370000e-06	3.384727e-06	3.354558e-09	2.477990e+01	2.184790e+02
2.380000e-06	3.444772e-06	3.379367e-09	2.521949e+01	2.204087e+02
2.390000e-06	3.504537e-06	3.402928e-09	2.565704e+01	2.223002e+02
2.400000e-06	3.563972e-06	3.428478e-09	2.609217e+01	2.241508e+02
2.410000e-06	3.623141e-06	3.453356e-09	2.652535e+01	2.259574e+02
2.420000e-06	3.682142e-06	3.474543e-09	2.695730e+01	2.277172e+02
2.430000e-06	3.740817e-06	3.493771e-09	2.738687e+01	2.294275e+02
2.440000e-06	3.798992e-06	3.515686e-09	2.781277e+01	2.310857e+02
2.450000e-06	3.856859e-06	3.538829e-09	2.823642e+01	2.326900e+02
2.460000e-06	3.914468e-06	3.560060e-09	2.865818e+01	2.342391e+02
2.470000e-06	3.971729e-06	3.578573e-09	2.907739e+01	2.357324e+02
2.480000e-06	4.028668e-06	3.598556e-09	2.949425e+01	2.371699e+02
2.490000e-06	4.085237e-06	3.620457e-09	2.990840e+01	2.385526e+02
2.500000e-06	4.141424e-06	3.640483e-09	3.031974e+01	2.398821e+02
2.510000e-06	4.197327e-06	3.656891e-09	3.072902e+01	2.411606e+02
2.520000e-06	4.252981e-06	3.674644e-09	3.113646e+01	2.423912e+02
2.530000e-06	4.308344e-06	3.693258e-09	3.154178e+01	2.435773e+02
2.540000e-06	4.363451e-06	3.709123e-09	3.194523e+01	2.447228e+02
2.550000e-06	4.418313e-06	3.724051e-09	3.234688e+01	2.458320e+02
2.560000e-06	4.472917e-06	3.740439e-09	3.274663e+01	2.469093e+02
2.570000e-06	4.527236e-06	3.758813e-09	3.314431e+01	2.479592e+02
2.580000e-06	4.581221e-06	3.780886e-09	3.353954e+01	2.489861e+02
2.590000e-06	4.634981e-06	3.799814e-09	3.393312e+01	2.499941e+02
2.600000e-06	4.688404e-06	3.815795e-09	3.432424e+01	2.509870e+02
2.610000e-06	4.741436e-06	3.832434e-09	3.471249e+01	2.519682e+02
2.620000e-06	4.794215e-06	3.847715e-09	3.509889e+01	2.529405e+02
2.630000e-06	4.846602e-06	3.859865e-09	3.548242e+01	2.539062e+02
2.640000e-06	4.898556e-06	3.870601e-09	3.586278e+01	2.548667e+02
2.650000e-06	4.950068e-06	3.883693e-09	3.623990e+01	2.558231e+02
2.660000e-06	5.001032e-06	3.899530e-09	3.661302e+01	2.567755e+02
2.670000e-06	5.051472e-06	3.917169e-09	3.698229e+01	2.577236e+02
2.680000e-06	5.101408e-06	3.931153e-09	3.734788e+01	2.586662e+02
2.690000e-06	5.150827e-06	3.943065e-09	3.770968e+01	2.596019e+02
2.700000e-06	5.199805e-06	3.956239e-09	3.806825e+01	2.605285e+02
2.710000e-06	5.248344e-06	3.966882e-09	3.842361e+01	2.614438e+02
2.720000e-06	5.296503e-06	3.975467e-09	3.877619e+01	2.623450e+02
2.730000e-06	5.344344e-06	3.985859e-09	3.912643e+01	2.632295e+02
2.740000e-06	5.391797e-06	3.998732e-09	3.947385e+01	2.640944e+02
2.750000e-06	5.438887e-06	4.011087e-09	3.981860e+01	2.649371e+02
2.760000e-06	5.485575e-06	4.021509e-09	4.016040e+01	2.657551e+02
2.770000e-06	5.531868e-06	4.032561e-09	4.049931e+01	2.665463e+02
2.780000e-06	5.577838e-06	4.044156e-09	4.083587e+01	2.673088e+02
2.790000e-06	5.623459e-06	4.057138e-09	4.116986e+01	2.680414e+02
2.800000e-06	5.668604e-06	4.068639e-09	4.150037e+01	2.687433e+02
2.810000e-06	5.713318e-06	4.077213e-09	4.182773e+01	2.694144e+02
2.820000e-06	5.757745e-06	4.085529e-09	4.215298e+01	2.700549e+02
2.830000e-06	5.801886e-06	4.093498e-09	4.247614e+01	2.706658e+02
2.840000e-06	5.845776e-06	4.101369e-09	4.279746e+01	2.712486e+02
2.850000e-06	5.889420e-06	4.109488e-09	4.311698e+01	2.718053e+02
2.860000e-06	5.932603e-06	4.118602e-09	4.343313e+01	2.723384e+02
2.870000e-06	5.975179e-06	4.130007e-09	4.374484e+01	2.728504e+02
2.880000e-06	6.017236e-06	4.141620e-09	4.405274e+01	2.733446e+02
2.890000e-06	6.058765e-06	4.152780e-09	4.435678e+01	2.738241e+02
2.900000e-06	6.099655e-06	4.162897e-09	4.465613e+01	2.742921e+02
