# Temperatura_=_20.0
# Concentracion g/m^3_=_9000.0
# C_Vs_to_Am_M_A/Vsm_=_65563218390.804596
# pendiente_HvsI_1/m_=_3716.3
# ordenada_HvsI_A/m_=_1297.0
# frecuencia_Hz_=_135477.4776497

Tiempo_(s)	Campo_(V.s)	Magnetizacion_(V.s)	Campo_(kA/m)	Magnetizacion_(A/m)
0.000000e+00	-7.784755e-06	-4.445703e-09	-5.691062e+01	-2.954885e+02
1.000000e-08	-7.785056e-06	-4.445387e-09	-5.691282e+01	-2.955125e+02
2.000000e-08	-7.785003e-06	-4.445267e-09	-5.691244e+01	-2.955406e+02
3.000000e-08	-7.784368e-06	-4.448567e-09	-5.690779e+01	-2.955721e+02
4.000000e-08	-7.782917e-06	-4.449894e-09	-5.689718e+01	-2.956058e+02
5.000000e-08	-7.780581e-06	-4.447069e-09	-5.688011e+01	-2.956407e+02
6.000000e-08	-7.777534e-06	-4.442720e-09	-5.685783e+01	-2.956753e+02
7.000000e-08	-7.774026e-06	-4.434008e-09	-5.683219e+01	-2.957085e+02
8.000000e-08	-7.770212e-06	-4.410229e-09	-5.680430e+01	-2.957387e+02
9.000000e-08	-7.766029e-06	-4.407165e-09	-5.677373e+01	-2.957648e+02
1.000000e-07	-7.761215e-06	-4.487290e-09	-5.673853e+01	-2.957855e+02
1.100000e-07	-7.755509e-06	-4.580561e-09	-5.669682e+01	-2.957997e+02
1.200000e-07	-7.748879e-06	-4.543376e-09	-5.664835e+01	-2.958064e+02
1.300000e-07	-7.741528e-06	-4.319002e-09	-5.659461e+01	-2.958048e+02
1.400000e-07	-7.733884e-06	-4.228861e-09	-5.653873e+01	-2.957944e+02
1.500000e-07	-7.726125e-06	-4.463071e-09	-5.648201e+01	-2.957749e+02
1.600000e-07	-7.718066e-06	-4.663895e-09	-5.642309e+01	-2.957459e+02
1.700000e-07	-7.709555e-06	-4.456823e-09	-5.636087e+01	-2.957077e+02
1.800000e-07	-7.700442e-06	-4.266053e-09	-5.629425e+01	-2.956603e+02
1.900000e-07	-7.690517e-06	-4.386662e-09	-5.622169e+01	-2.956042e+02
2.000000e-07	-7.679692e-06	-4.589183e-09	-5.614256e+01	-2.955398e+02
2.100000e-07	-7.668290e-06	-4.644855e-09	-5.605920e+01	-2.954679e+02
2.200000e-07	-7.656436e-06	-4.494600e-09	-5.597254e+01	-2.953890e+02
2.300000e-07	-7.643761e-06	-4.294181e-09	-5.587989e+01	-2.953038e+02
2.400000e-07	-7.630424e-06	-4.417905e-09	-5.578238e+01	-2.952129e+02
2.500000e-07	-7.616758e-06	-4.744274e-09	-5.568248e+01	-2.951171e+02
2.600000e-07	-7.602312e-06	-4.663543e-09	-5.557687e+01	-2.950168e+02
2.700000e-07	-7.586696e-06	-4.270911e-09	-5.546271e+01	-2.949123e+02
2.800000e-07	-7.570459e-06	-4.355163e-09	-5.534401e+01	-2.948039e+02
2.900000e-07	-7.553819e-06	-4.717616e-09	-5.522236e+01	-2.946916e+02
3.000000e-07	-7.536539e-06	-4.621072e-09	-5.509604e+01	-2.945753e+02
3.100000e-07	-7.518861e-06	-4.346269e-09	-5.496680e+01	-2.944545e+02
3.200000e-07	-7.500883e-06	-4.467012e-09	-5.483537e+01	-2.943289e+02
3.300000e-07	-7.482292e-06	-4.639593e-09	-5.469946e+01	-2.941975e+02
3.400000e-07	-7.463001e-06	-4.556319e-09	-5.455843e+01	-2.940597e+02
3.500000e-07	-7.443328e-06	-4.526482e-09	-5.441461e+01	-2.939142e+02
3.600000e-07	-7.423391e-06	-4.468926e-09	-5.426886e+01	-2.937600e+02
3.700000e-07	-7.403039e-06	-4.395855e-09	-5.412008e+01	-2.935960e+02
3.800000e-07	-7.382236e-06	-4.499556e-09	-5.396800e+01	-2.934207e+02
3.900000e-07	-7.360983e-06	-4.645868e-09	-5.381263e+01	-2.932332e+02
4.000000e-07	-7.339130e-06	-4.471049e-09	-5.365287e+01	-2.930322e+02
4.100000e-07	-7.316618e-06	-4.339788e-09	-5.348829e+01	-2.928168e+02
4.200000e-07	-7.293547e-06	-4.541059e-09	-5.331963e+01	-2.925860e+02
4.300000e-07	-7.270080e-06	-4.681609e-09	-5.314808e+01	-2.923392e+02
4.400000e-07	-7.246265e-06	-4.475528e-09	-5.297398e+01	-2.920759e+02
4.500000e-07	-7.222003e-06	-4.342967e-09	-5.279661e+01	-2.917960e+02
4.600000e-07	-7.197232e-06	-4.518885e-09	-5.261552e+01	-2.914995e+02
4.700000e-07	-7.171860e-06	-4.627569e-09	-5.243004e+01	-2.911867e+02
4.800000e-07	-7.145663e-06	-4.451362e-09	-5.223853e+01	-2.908582e+02
4.900000e-07	-7.118639e-06	-4.363643e-09	-5.204097e+01	-2.905150e+02
5.000000e-07	-7.091108e-06	-4.492248e-09	-5.183970e+01	-2.901580e+02
5.100000e-07	-7.063272e-06	-4.541732e-09	-5.163621e+01	-2.897888e+02
5.200000e-07	-7.035105e-06	-4.464239e-09	-5.143029e+01	-2.894086e+02
5.300000e-07	-7.006502e-06	-4.431519e-09	-5.122119e+01	-2.890193e+02
5.400000e-07	-6.977361e-06	-4.430487e-09	-5.100815e+01	-2.886224e+02
5.500000e-07	-6.947678e-06	-4.445493e-09	-5.079115e+01	-2.882198e+02
5.600000e-07	-6.917552e-06	-4.494555e-09	-5.057092e+01	-2.878132e+02
5.700000e-07	-6.887006e-06	-4.453658e-09	-5.034761e+01	-2.874042e+02
5.800000e-07	-6.855924e-06	-4.364434e-09	-5.012038e+01	-2.869942e+02
5.900000e-07	-6.824390e-06	-4.396407e-09	-4.988985e+01	-2.865847e+02
6.000000e-07	-6.792586e-06	-4.484304e-09	-4.965735e+01	-2.861768e+02
6.100000e-07	-6.760424e-06	-4.439836e-09	-4.942223e+01	-2.857711e+02
6.200000e-07	-6.727727e-06	-4.346703e-09	-4.918320e+01	-2.853684e+02
6.300000e-07	-6.694423e-06	-4.355469e-09	-4.893973e+01	-2.849687e+02
6.400000e-07	-6.660426e-06	-4.431008e-09	-4.869119e+01	-2.845719e+02
6.500000e-07	-6.625656e-06	-4.424110e-09	-4.843700e+01	-2.841776e+02
6.600000e-07	-6.590292e-06	-4.346215e-09	-4.817848e+01	-2.837850e+02
6.700000e-07	-6.554611e-06	-4.325630e-09	-4.791763e+01	-2.833929e+02
6.800000e-07	-6.518626e-06	-4.381546e-09	-4.765456e+01	-2.830000e+02
6.900000e-07	-6.482204e-06	-4.385804e-09	-4.738830e+01	-2.826047e+02
7.000000e-07	-6.445270e-06	-4.335576e-09	-4.711829e+01	-2.822053e+02
7.100000e-07	-6.407812e-06	-4.311878e-09	-4.684445e+01	-2.817996e+02
7.200000e-07	-6.369872e-06	-4.329831e-09	-4.656709e+01	-2.813859e+02
7.300000e-07	-6.331526e-06	-4.341689e-09	-4.628676e+01	-2.809621e+02
7.400000e-07	-6.292755e-06	-4.339995e-09	-4.600333e+01	-2.805262e+02
7.500000e-07	-6.253612e-06	-4.311736e-09	-4.571717e+01	-2.800763e+02
7.600000e-07	-6.214232e-06	-4.289345e-09	-4.542928e+01	-2.796109e+02
7.700000e-07	-6.174562e-06	-4.307983e-09	-4.513927e+01	-2.791284e+02
7.800000e-07	-6.134486e-06	-4.321653e-09	-4.484629e+01	-2.786278e+02
7.900000e-07	-6.093915e-06	-4.280973e-09	-4.454970e+01	-2.781080e+02
8.000000e-07	-6.052717e-06	-4.247482e-09	-4.424852e+01	-2.775685e+02
8.100000e-07	-6.010748e-06	-4.268671e-09	-4.394170e+01	-2.770091e+02
8.200000e-07	-5.968070e-06	-4.284217e-09	-4.362971e+01	-2.764300e+02
8.300000e-07	-5.924898e-06	-4.251246e-09	-4.331410e+01	-2.758316e+02
8.400000e-07	-5.881377e-06	-4.221238e-09	-4.299594e+01	-2.752147e+02
8.500000e-07	-5.837534e-06	-4.232277e-09	-4.267542e+01	-2.745803e+02
8.600000e-07	-5.793352e-06	-4.245262e-09	-4.235243e+01	-2.739299e+02
8.700000e-07	-5.748873e-06	-4.226020e-09	-4.202726e+01	-2.732648e+02
8.800000e-07	-5.704101e-06	-4.195853e-09	-4.169996e+01	-2.725867e+02
8.900000e-07	-5.658959e-06	-4.190703e-09	-4.136995e+01	-2.718974e+02
9.000000e-07	-5.613363e-06	-4.194230e-09	-4.103661e+01	-2.711987e+02
9.100000e-07	-5.567325e-06	-4.184258e-09	-4.070006e+01	-2.704921e+02
9.200000e-07	-5.520884e-06	-4.159489e-09	-4.036054e+01	-2.697792e+02
9.300000e-07	-5.474079e-06	-4.144032e-09	-4.001837e+01	-2.690616e+02
9.400000e-07	-5.426910e-06	-4.140821e-09	-3.967355e+01	-2.683402e+02
9.500000e-07	-5.379360e-06	-4.140341e-09	-3.932593e+01	-2.676160e+02
9.600000e-07	-5.331443e-06	-4.125576e-09	-3.897563e+01	-2.668895e+02
9.700000e-07	-5.283063e-06	-4.104390e-09	-3.862195e+01	-2.661609e+02
9.800000e-07	-5.234148e-06	-4.094325e-09	-3.826435e+01	-2.654300e+02
9.900000e-07	-5.184673e-06	-4.096041e-09	-3.790267e+01	-2.646964e+02
1.000000e-06	-5.134687e-06	-4.082502e-09	-3.753724e+01	-2.639590e+02
1.010000e-06	-5.084171e-06	-4.054428e-09	-3.716794e+01	-2.632168e+02
1.020000e-06	-5.033127e-06	-4.036586e-09	-3.679479e+01	-2.624681e+02
1.030000e-06	-4.981647e-06	-4.034700e-09	-3.641844e+01	-2.617111e+02
1.040000e-06	-4.929715e-06	-4.024923e-09	-3.603879e+01	-2.609439e+02
1.050000e-06	-4.877398e-06	-4.003785e-09	-3.565632e+01	-2.601644e+02
1.060000e-06	-4.824785e-06	-3.987893e-09	-3.527169e+01	-2.593702e+02
1.070000e-06	-4.771836e-06	-3.980793e-09	-3.488461e+01	-2.585592e+02
1.080000e-06	-4.718536e-06	-3.970549e-09	-3.449496e+01	-2.577292e+02
1.090000e-06	-4.664889e-06	-3.954858e-09	-3.410277e+01	-2.568783e+02
1.100000e-06	-4.610952e-06	-3.937776e-09	-3.370846e+01	-2.560045e+02
1.110000e-06	-4.556662e-06	-3.921542e-09	-3.331158e+01	-2.551062e+02
1.120000e-06	-4.501982e-06	-3.909420e-09	-3.291184e+01	-2.541824e+02
1.130000e-06	-4.447070e-06	-3.897073e-09	-3.251040e+01	-2.532319e+02
1.140000e-06	-4.391918e-06	-3.880838e-09	-3.210721e+01	-2.522543e+02
1.150000e-06	-4.336500e-06	-3.863470e-09	-3.170208e+01	-2.512495e+02
1.160000e-06	-4.280863e-06	-3.852091e-09	-3.129534e+01	-2.502175e+02
1.170000e-06	-4.225002e-06	-3.840477e-09	-3.088697e+01	-2.491591e+02
1.180000e-06	-4.168931e-06	-3.824481e-09	-3.047706e+01	-2.480750e+02
1.190000e-06	-4.112660e-06	-3.806486e-09	-3.006569e+01	-2.469667e+02
1.200000e-06	-4.056137e-06	-3.791007e-09	-2.965248e+01	-2.458355e+02
1.210000e-06	-3.999206e-06	-3.775602e-09	-2.923628e+01	-2.446831e+02
1.220000e-06	-3.941890e-06	-3.758691e-09	-2.881727e+01	-2.435111e+02
1.230000e-06	-3.884196e-06	-3.739554e-09	-2.839550e+01	-2.423215e+02
1.240000e-06	-3.826003e-06	-3.720205e-09	-2.797008e+01	-2.411158e+02
1.250000e-06	-3.767451e-06	-3.699719e-09	-2.754204e+01	-2.398957e+02
1.260000e-06	-3.708589e-06	-3.678539e-09	-2.711172e+01	-2.386625e+02
1.270000e-06	-3.649434e-06	-3.658369e-09	-2.667927e+01	-2.374172e+02
1.280000e-06	-3.589984e-06	-3.639974e-09	-2.624465e+01	-2.361605e+02
1.290000e-06	-3.530275e-06	-3.619813e-09	-2.580815e+01	-2.348927e+02
1.300000e-06	-3.470373e-06	-3.597996e-09	-2.537024e+01	-2.336135e+02
1.310000e-06	-3.410289e-06	-3.576498e-09	-2.493099e+01	-2.323224e+02
1.320000e-06	-3.350022e-06	-3.555617e-09	-2.449041e+01	-2.310180e+02
1.330000e-06	-3.289550e-06	-3.532688e-09	-2.404833e+01	-2.296986e+02
1.340000e-06	-3.228917e-06	-3.510148e-09	-2.360507e+01	-2.283621e+02
1.350000e-06	-3.168065e-06	-3.490617e-09	-2.316021e+01	-2.270058e+02
1.360000e-06	-3.106994e-06	-3.466256e-09	-2.271375e+01	-2.256267e+02
1.370000e-06	-3.045683e-06	-3.440182e-09	-2.226553e+01	-2.242214e+02
1.380000e-06	-2.984054e-06	-3.417202e-09	-2.181500e+01	-2.227863e+02
1.390000e-06	-2.922174e-06	-3.395543e-09	-2.136262e+01	-2.213176e+02
1.400000e-06	-2.860173e-06	-3.371742e-09	-2.090935e+01	-2.198116e+02
1.410000e-06	-2.798047e-06	-3.347823e-09	-2.045518e+01	-2.182643e+02
1.420000e-06	-2.735676e-06	-3.325451e-09	-1.999922e+01	-2.166721e+02
1.430000e-06	-2.673122e-06	-3.301727e-09	-1.954192e+01	-2.150316e+02
1.440000e-06	-2.610451e-06	-3.276075e-09	-1.908376e+01	-2.133395e+02
1.450000e-06	-2.547619e-06	-3.247278e-09	-1.862443e+01	-2.115931e+02
1.460000e-06	-2.484641e-06	-3.219237e-09	-1.816402e+01	-2.097900e+02
1.470000e-06	-2.421485e-06	-3.192430e-09	-1.770232e+01	-2.079284e+02
1.480000e-06	-2.358215e-06	-3.164505e-09	-1.723978e+01	-2.060067e+02
1.490000e-06	-2.294867e-06	-3.133502e-09	-1.677668e+01	-2.040240e+02
1.500000e-06	-2.231324e-06	-3.103248e-09	-1.631214e+01	-2.019800e+02
1.510000e-06	-2.167611e-06	-3.074999e-09	-1.584637e+01	-1.998745e+02
1.520000e-06	-2.103840e-06	-3.044100e-09	-1.538017e+01	-1.977078e+02
1.530000e-06	-2.039954e-06	-3.008573e-09	-1.491313e+01	-1.954805e+02
1.540000e-06	-1.975901e-06	-2.971768e-09	-1.444487e+01	-1.931930e+02
1.550000e-06	-1.911756e-06	-2.936798e-09	-1.397593e+01	-1.908463e+02
1.560000e-06	-1.847443e-06	-2.900840e-09	-1.350578e+01	-1.884406e+02
1.570000e-06	-1.782984e-06	-2.862284e-09	-1.303454e+01	-1.859762e+02
1.580000e-06	-1.718447e-06	-2.822074e-09	-1.256275e+01	-1.834528e+02
1.590000e-06	-1.653807e-06	-2.781366e-09	-1.209019e+01	-1.808696e+02
1.600000e-06	-1.588995e-06	-2.739556e-09	-1.161639e+01	-1.782249e+02
1.610000e-06	-1.524048e-06	-2.697617e-09	-1.114159e+01	-1.755161e+02
1.620000e-06	-1.459000e-06	-2.654566e-09	-1.066605e+01	-1.727397e+02
1.630000e-06	-1.393751e-06	-2.609210e-09	-1.018905e+01	-1.698909e+02
1.640000e-06	-1.328367e-06	-2.564164e-09	-9.711056e+00	-1.669637e+02
1.650000e-06	-1.262853e-06	-2.519209e-09	-9.232116e+00	-1.639509e+02
1.660000e-06	-1.197151e-06	-2.470704e-09	-8.751796e+00	-1.608441e+02
1.670000e-06	-1.131293e-06	-2.418045e-09	-8.270340e+00	-1.576335e+02
1.680000e-06	-1.065383e-06	-2.363737e-09	-7.788508e+00	-1.543081e+02
1.690000e-06	-9.994351e-07	-2.310140e-09	-7.306392e+00	-1.508561e+02
1.700000e-06	-9.334818e-07	-2.254339e-09	-6.824239e+00	-1.472644e+02
1.710000e-06	-8.675320e-07	-2.193565e-09	-6.342112e+00	-1.435194e+02
1.720000e-06	-8.014146e-07	-2.131680e-09	-5.858759e+00	-1.396070e+02
1.730000e-06	-7.351577e-07	-2.070429e-09	-5.374386e+00	-1.355125e+02
1.740000e-06	-6.688769e-07	-2.005280e-09	-4.889839e+00	-1.312217e+02
1.750000e-06	-6.025402e-07	-1.934228e-09	-4.404883e+00	-1.267203e+02
1.760000e-06	-5.361222e-07	-1.859720e-09	-3.919333e+00	-1.219949e+02
1.770000e-06	-4.696527e-07	-1.786081e-09	-3.433407e+00	-1.170330e+02
1.780000e-06	-4.031570e-07	-1.710745e-09	-2.947288e+00	-1.118232e+02
1.790000e-06	-3.366103e-07	-1.629579e-09	-2.460797e+00	-1.063561e+02
1.800000e-06	-2.700028e-07	-1.544724e-09	-1.973861e+00	-1.006239e+02
1.810000e-06	-2.033663e-07	-1.457173e-09	-1.486713e+00	-9.462139e+01
1.820000e-06	-1.367729e-07	-1.366287e-09	-9.998814e-01	-8.834553e+01
1.830000e-06	-7.022382e-08	-1.270613e-09	-5.133728e-01	-8.179620e+01
1.840000e-06	-3.667071e-09	-1.169176e-09	-2.680820e-02	-7.497616e+01
1.850000e-06	6.288277e-08	-1.063850e-09	4.597059e-01	-6.789123e+01
1.860000e-06	1.294333e-07	-9.552245e-10	9.462252e-01	-6.055036e+01
1.870000e-06	1.960142e-07	-8.416423e-10	1.432966e+00	-5.296566e+01
1.880000e-06	2.626283e-07	-7.232925e-10	1.919950e+00	-4.515240e+01
1.890000e-06	3.292300e-07	-5.988635e-10	2.406843e+00	-3.712887e+01
1.900000e-06	3.957179e-07	-4.705304e-10	2.892904e+00	-2.891625e+01
1.910000e-06	4.621085e-07	-3.419795e-10	3.378255e+00	-2.053842e+01
1.920000e-06	5.285421e-07	-2.117534e-10	3.863919e+00	-1.202165e+01
1.930000e-06	5.950490e-07	-7.864845e-11	4.350119e+00	-3.394347e+00
1.940000e-06	6.615200e-07	5.785892e-11	4.836057e+00	5.313366e+00
1.950000e-06	7.278791e-07	1.971307e-10	5.321176e+00	1.407000e+01
1.960000e-06	7.941029e-07	3.347740e-10	5.805307e+00	2.284314e+01
1.970000e-06	8.601881e-07	4.709833e-10	6.288424e+00	3.159989e+01
1.980000e-06	9.260828e-07	6.085739e-10	6.770149e+00	4.030735e+01
1.990000e-06	9.919012e-07	7.461608e-10	7.251316e+00	4.893303e+01
2.000000e-06	1.057745e-06	8.787057e-10	7.732665e+00	5.744537e+01
2.010000e-06	1.123495e-06	1.007531e-09	8.213331e+00	6.581412e+01
2.020000e-06	1.189177e-06	1.135809e-09	8.693502e+00	7.401079e+01
2.030000e-06	1.254763e-06	1.259821e-09	9.172974e+00	8.200900e+01
2.040000e-06	1.320165e-06	1.377273e-09	9.651094e+00	8.978486e+01
2.050000e-06	1.385469e-06	1.489038e-09	1.012850e+01	9.731725e+01
2.060000e-06	1.450695e-06	1.595899e-09	1.060534e+01	1.045880e+02
2.070000e-06	1.515830e-06	1.697206e-09	1.108151e+01	1.115822e+02
2.080000e-06	1.580831e-06	1.792897e-09	1.155670e+01	1.182882e+02
2.090000e-06	1.645669e-06	1.881544e-09	1.203070e+01	1.246976e+02
2.100000e-06	1.710328e-06	1.967131e-09	1.250339e+01	1.308056e+02
2.110000e-06	1.774819e-06	2.053227e-09	1.297485e+01	1.366105e+02
2.120000e-06	1.839146e-06	2.133589e-09	1.344512e+01	1.421138e+02
2.130000e-06	1.903272e-06	2.208687e-09	1.391391e+01	1.473200e+02
2.140000e-06	1.967246e-06	2.283447e-09	1.438159e+01	1.522365e+02
2.150000e-06	2.031125e-06	2.357893e-09	1.484859e+01	1.568730e+02
2.160000e-06	2.094902e-06	2.426235e-09	1.531482e+01	1.612414e+02
2.170000e-06	2.158541e-06	2.484281e-09	1.578006e+01	1.653557e+02
2.180000e-06	2.222091e-06	2.540768e-09	1.624464e+01	1.692310e+02
2.190000e-06	2.285556e-06	2.599249e-09	1.670861e+01	1.728839e+02
2.200000e-06	2.348830e-06	2.654750e-09	1.717118e+01	1.763315e+02
2.210000e-06	2.411949e-06	2.705238e-09	1.763260e+01	1.795915e+02
2.220000e-06	2.474995e-06	2.755159e-09	1.809350e+01	1.826815e+02
2.230000e-06	2.537926e-06	2.804078e-09	1.855356e+01	1.856189e+02
2.240000e-06	2.600687e-06	2.850025e-09	1.901238e+01	1.884205e+02
2.250000e-06	2.663263e-06	2.892680e-09	1.946984e+01	1.911022e+02
2.260000e-06	2.725663e-06	2.929478e-09	1.992602e+01	1.936788e+02
2.270000e-06	2.787887e-06	2.963310e-09	2.038091e+01	1.961639e+02
2.280000e-06	2.849872e-06	2.998038e-09	2.083405e+01	1.985696e+02
2.290000e-06	2.911596e-06	3.032379e-09	2.128529e+01	2.009064e+02
2.300000e-06	2.973120e-06	3.063358e-09	2.173506e+01	2.031835e+02
2.310000e-06	3.034478e-06	3.095905e-09	2.218362e+01	2.054080e+02
2.320000e-06	3.095645e-06	3.130139e-09	2.263078e+01	2.075860e+02
2.330000e-06	3.156556e-06	3.164523e-09	2.307607e+01	2.097217e+02
2.340000e-06	3.217290e-06	3.195515e-09	2.352007e+01	2.118181e+02
2.350000e-06	3.277925e-06	3.220186e-09	2.396334e+01	2.138767e+02
2.360000e-06	3.338433e-06	3.245700e-09	2.440569e+01	2.158982e+02
2.370000e-06	3.398708e-06	3.273992e-09	2.484633e+01	2.178822e+02
2.380000e-06	3.458696e-06	3.300160e-09	2.528487e+01	2.198275e+02
2.390000e-06	3.518414e-06	3.322379e-09	2.572145e+01	2.217325e+02
2.400000e-06	3.577819e-06	3.344454e-09	2.615572e+01	2.235952e+02
2.410000e-06	3.636993e-06	3.370546e-09	2.658831e+01	2.254133e+02
2.420000e-06	3.696014e-06	3.397215e-09	2.701979e+01	2.271848e+02
2.430000e-06	3.754742e-06	3.419370e-09	2.744913e+01	2.289075e+02
2.440000e-06	3.813178e-06	3.439560e-09	2.787632e+01	2.305800e+02
2.450000e-06	3.871358e-06	3.459653e-09	2.830164e+01	2.322008e+02
2.460000e-06	3.929134e-06	3.479229e-09	2.872402e+01	2.337693e+02
2.470000e-06	3.986435e-06	3.497137e-09	2.914292e+01	2.352855e+02
2.480000e-06	4.043309e-06	3.514897e-09	2.955870e+01	2.367497e+02
2.490000e-06	4.099825e-06	3.532919e-09	2.997186e+01	2.381633e+02
2.500000e-06	4.155998e-06	3.550970e-09	3.038251e+01	2.395280e+02
2.510000e-06	4.211930e-06	3.569822e-09	3.079141e+01	2.408462e+02
2.520000e-06	4.267659e-06	3.588476e-09	3.119882e+01	2.421208e+02
2.530000e-06	4.323032e-06	3.607489e-09	3.160362e+01	2.433551e+02
2.540000e-06	4.378086e-06	3.624884e-09	3.200610e+01	2.445528e+02
2.550000e-06	4.432967e-06	3.643896e-09	3.240730e+01	2.457179e+02
2.560000e-06	4.487652e-06	3.659515e-09	3.280708e+01	2.468542e+02
2.570000e-06	4.542051e-06	3.673116e-09	3.320476e+01	2.479660e+02
2.580000e-06	4.596147e-06	3.692672e-09	3.360023e+01	2.490569e+02
2.590000e-06	4.649923e-06	3.711318e-09	3.399336e+01	2.501307e+02
2.600000e-06	4.703317e-06	3.727676e-09	3.438370e+01	2.511908e+02
2.610000e-06	4.756356e-06	3.743530e-09	3.477145e+01	2.522399e+02
2.620000e-06	4.809112e-06	3.760608e-09	3.515712e+01	2.532804e+02
2.630000e-06	4.861477e-06	3.776700e-09	3.553993e+01	2.543143e+02
2.640000e-06	4.913425e-06	3.788797e-09	3.591970e+01	2.553427e+02
2.650000e-06	4.964922e-06	3.800689e-09	3.629617e+01	2.563663e+02
2.660000e-06	5.015895e-06	3.814151e-09	3.666881e+01	2.573851e+02
2.670000e-06	5.066413e-06	3.829575e-09	3.703813e+01	2.583986e+02
2.680000e-06	5.116483e-06	3.842713e-09	3.740416e+01	2.594057e+02
2.690000e-06	5.166034e-06	3.853870e-09	3.776641e+01	2.604048e+02
2.700000e-06	5.215018e-06	3.868045e-09	3.812450e+01	2.613939e+02
2.710000e-06	5.263462e-06	3.882576e-09	3.847865e+01	2.623709e+02
2.720000e-06	5.311507e-06	3.894823e-09	3.882989e+01	2.633333e+02
2.730000e-06	5.359265e-06	3.903801e-09	3.917903e+01	2.642784e+02
2.740000e-06	5.406733e-06	3.916928e-09	3.952604e+01	2.652036e+02
2.750000e-06	5.453853e-06	3.931239e-09	3.987051e+01	2.661064e+02
2.760000e-06	5.500625e-06	3.942340e-09	4.021244e+01	2.669845e+02
2.770000e-06	5.547121e-06	3.953095e-09	4.055235e+01	2.678358e+02
2.780000e-06	5.593165e-06	3.965249e-09	4.088896e+01	2.686585e+02
2.790000e-06	5.638728e-06	3.978091e-09	4.122204e+01	2.694513e+02
2.800000e-06	5.683930e-06	3.989868e-09	4.155250e+01	2.702135e+02
2.810000e-06	5.728711e-06	3.999970e-09	4.187987e+01	2.709445e+02
2.820000e-06	5.773202e-06	4.010002e-09	4.220512e+01	2.716445e+02
2.830000e-06	5.817421e-06	4.020580e-09	4.252838e+01	2.723143e+02
2.840000e-06	5.861310e-06	4.031926e-09	4.284923e+01	2.729548e+02
2.850000e-06	5.904932e-06	4.042613e-09	4.316814e+01	2.735678e+02
2.860000e-06	5.948170e-06	4.051837e-09	4.348423e+01	2.741551e+02
2.870000e-06	5.990958e-06	4.062122e-09	4.379703e+01	2.747190e+02
2.880000e-06	6.033156e-06	4.072648e-09	4.410552e+01	2.752623e+02
2.890000e-06	6.074617e-06	4.083052e-09	4.440862e+01	2.757876e+02
2.900000e-06	6.115504e-06	4.091582e-09	4.470752e+01	2.762979e+02
