# Temperatura_=_20.0
# Concentracion g/m^3_=_9000.0
# C_Vs_to_Am_M_A/Vsm_=_65563218390.804596
# pendiente_HvsI_1/m_=_3716.3
# ordenada_HvsI_A/m_=_1297.0
# frecuencia_Hz_=_135477.74809273172

Tiempo_(s)	Campo_(V.s)	Magnetizacion_(V.s)	Campo_(kA/m)	Magnetizacion_(A/m)
0.000000e+00	-7.794529e-06	-4.607345e-09	-5.690955e+01	-3.056422e+02
1.000000e-08	-7.794862e-06	-4.606069e-09	-5.691198e+01	-3.058296e+02
2.000000e-08	-7.794802e-06	-4.605118e-09	-5.691154e+01	-3.060274e+02
3.000000e-08	-7.794123e-06	-4.602766e-09	-5.690658e+01	-3.062285e+02
4.000000e-08	-7.792787e-06	-4.600865e-09	-5.689683e+01	-3.064249e+02
5.000000e-08	-7.790711e-06	-4.599511e-09	-5.688167e+01	-3.066079e+02
6.000000e-08	-7.787830e-06	-4.598913e-09	-5.686064e+01	-3.067682e+02
7.000000e-08	-7.784416e-06	-4.600405e-09	-5.683571e+01	-3.068965e+02
8.000000e-08	-7.780641e-06	-4.599652e-09	-5.680815e+01	-3.069831e+02
9.000000e-08	-7.776468e-06	-4.610457e-09	-5.677768e+01	-3.070187e+02
1.000000e-07	-7.771731e-06	-4.624876e-09	-5.674310e+01	-3.069942e+02
1.100000e-07	-7.766150e-06	-4.615102e-09	-5.670234e+01	-3.069013e+02
1.200000e-07	-7.759719e-06	-4.558879e-09	-5.665539e+01	-3.067326e+02
1.300000e-07	-7.752664e-06	-4.520554e-09	-5.660388e+01	-3.064817e+02
1.400000e-07	-7.745141e-06	-4.589239e-09	-5.654896e+01	-3.061434e+02
1.500000e-07	-7.737332e-06	-4.647039e-09	-5.649194e+01	-3.057139e+02
1.600000e-07	-7.729220e-06	-4.606709e-09	-5.643271e+01	-3.051910e+02
1.700000e-07	-7.720704e-06	-4.535825e-09	-5.637054e+01	-3.045741e+02
1.800000e-07	-7.711567e-06	-4.553207e-09	-5.630382e+01	-3.038641e+02
1.900000e-07	-7.701552e-06	-4.656607e-09	-5.623071e+01	-3.030637e+02
2.000000e-07	-7.690787e-06	-4.685782e-09	-5.615210e+01	-3.021770e+02
2.100000e-07	-7.679418e-06	-4.616578e-09	-5.606909e+01	-3.012100e+02
2.200000e-07	-7.667445e-06	-4.559801e-09	-5.598168e+01	-3.001697e+02
2.300000e-07	-7.654925e-06	-4.564197e-09	-5.589027e+01	-2.990648e+02
2.400000e-07	-7.641890e-06	-4.684336e-09	-5.579510e+01	-2.979047e+02
2.500000e-07	-7.628353e-06	-4.680040e-09	-5.569626e+01	-2.967001e+02
2.600000e-07	-7.614095e-06	-4.535481e-09	-5.559216e+01	-2.954621e+02
2.700000e-07	-7.598915e-06	-4.435556e-09	-5.548132e+01	-2.942024e+02
2.800000e-07	-7.582893e-06	-4.566246e-09	-5.536434e+01	-2.929328e+02
2.900000e-07	-7.566234e-06	-4.631308e-09	-5.524272e+01	-2.916653e+02
3.000000e-07	-7.549133e-06	-4.484306e-09	-5.511786e+01	-2.904112e+02
3.100000e-07	-7.531584e-06	-4.380355e-09	-5.498973e+01	-2.891818e+02
3.200000e-07	-7.513467e-06	-4.435437e-09	-5.485745e+01	-2.879872e+02
3.300000e-07	-7.494785e-06	-4.433839e-09	-5.472105e+01	-2.868369e+02
3.400000e-07	-7.475606e-06	-4.373172e-09	-5.458102e+01	-2.857390e+02
3.500000e-07	-7.456028e-06	-4.335815e-09	-5.443808e+01	-2.847007e+02
3.600000e-07	-7.436136e-06	-4.321858e-09	-5.429284e+01	-2.837277e+02
3.700000e-07	-7.415835e-06	-4.358597e-09	-5.414462e+01	-2.828240e+02
3.800000e-07	-7.395060e-06	-4.373534e-09	-5.399293e+01	-2.819926e+02
3.900000e-07	-7.373822e-06	-4.358952e-09	-5.383787e+01	-2.812346e+02
4.000000e-07	-7.352050e-06	-4.313936e-09	-5.367891e+01	-2.805500e+02
4.100000e-07	-7.329689e-06	-4.354359e-09	-5.351565e+01	-2.799372e+02
4.200000e-07	-7.306762e-06	-4.397872e-09	-5.334826e+01	-2.793933e+02
4.300000e-07	-7.283360e-06	-4.365953e-09	-5.317739e+01	-2.789144e+02
4.400000e-07	-7.259600e-06	-4.303579e-09	-5.300392e+01	-2.784954e+02
4.500000e-07	-7.235359e-06	-4.336729e-09	-5.282692e+01	-2.781304e+02
4.600000e-07	-7.210546e-06	-4.361027e-09	-5.264576e+01	-2.778129e+02
4.700000e-07	-7.185142e-06	-4.347286e-09	-5.246028e+01	-2.775358e+02
4.800000e-07	-7.159025e-06	-4.291517e-09	-5.226960e+01	-2.772917e+02
4.900000e-07	-7.132177e-06	-4.297673e-09	-5.207357e+01	-2.770732e+02
5.000000e-07	-7.104812e-06	-4.345138e-09	-5.187377e+01	-2.768727e+02
5.100000e-07	-7.077063e-06	-4.355989e-09	-5.167117e+01	-2.766831e+02
5.200000e-07	-7.048892e-06	-4.278307e-09	-5.146549e+01	-2.764975e+02
5.300000e-07	-7.020286e-06	-4.274899e-09	-5.125663e+01	-2.763098e+02
5.400000e-07	-6.991209e-06	-4.326504e-09	-5.104433e+01	-2.761141e+02
5.500000e-07	-6.961586e-06	-4.321466e-09	-5.082805e+01	-2.759057e+02
5.600000e-07	-6.931516e-06	-4.271240e-09	-5.060850e+01	-2.756803e+02
5.700000e-07	-6.901001e-06	-4.264467e-09	-5.038571e+01	-2.754347e+02
5.800000e-07	-6.869941e-06	-4.276049e-09	-5.015893e+01	-2.751665e+02
5.900000e-07	-6.838493e-06	-4.290616e-09	-4.992932e+01	-2.748740e+02
6.000000e-07	-6.806723e-06	-4.283847e-09	-4.969736e+01	-2.745565e+02
6.100000e-07	-6.774526e-06	-4.243047e-09	-4.946228e+01	-2.742138e+02
6.200000e-07	-6.741695e-06	-4.231214e-09	-4.922258e+01	-2.738467e+02
6.300000e-07	-6.708200e-06	-4.259721e-09	-4.897803e+01	-2.734564e+02
6.400000e-07	-6.674095e-06	-4.266134e-09	-4.872901e+01	-2.730446e+02
6.500000e-07	-6.639476e-06	-4.223672e-09	-4.847625e+01	-2.726134e+02
6.600000e-07	-6.604379e-06	-4.202322e-09	-4.822000e+01	-2.721651e+02
6.700000e-07	-6.568752e-06	-4.212049e-09	-4.795989e+01	-2.717023e+02
6.800000e-07	-6.532692e-06	-4.232942e-09	-4.769660e+01	-2.712276e+02
6.900000e-07	-6.496241e-06	-4.207025e-09	-4.743047e+01	-2.707435e+02
7.000000e-07	-6.459362e-06	-4.174475e-09	-4.716120e+01	-2.702524e+02
7.100000e-07	-6.421998e-06	-4.172172e-09	-4.688840e+01	-2.697565e+02
7.200000e-07	-6.384113e-06	-4.196223e-09	-4.661180e+01	-2.692576e+02
7.300000e-07	-6.345783e-06	-4.182664e-09	-4.633194e+01	-2.687573e+02
7.400000e-07	-6.307090e-06	-4.159079e-09	-4.604943e+01	-2.682567e+02
7.500000e-07	-6.268063e-06	-4.143748e-09	-4.576449e+01	-2.677565e+02
7.600000e-07	-6.228751e-06	-4.149123e-09	-4.547746e+01	-2.672570e+02
7.700000e-07	-6.189047e-06	-4.147644e-09	-4.518757e+01	-2.667583e+02
7.800000e-07	-6.148876e-06	-4.137867e-09	-4.489428e+01	-2.662598e+02
7.900000e-07	-6.108230e-06	-4.114439e-09	-4.459751e+01	-2.657608e+02
8.000000e-07	-6.067034e-06	-4.108323e-09	-4.429673e+01	-2.652603e+02
8.100000e-07	-6.025187e-06	-4.112348e-09	-4.399120e+01	-2.647569e+02
8.200000e-07	-5.982749e-06	-4.105055e-09	-4.368135e+01	-2.642491e+02
8.300000e-07	-5.939816e-06	-4.079472e-09	-4.336788e+01	-2.637353e+02
8.400000e-07	-5.896408e-06	-4.068664e-09	-4.305095e+01	-2.632140e+02
8.500000e-07	-5.852617e-06	-4.072600e-09	-4.273122e+01	-2.626835e+02
8.600000e-07	-5.808426e-06	-4.067325e-09	-4.240858e+01	-2.621422e+02
8.700000e-07	-5.763860e-06	-4.048949e-09	-4.208319e+01	-2.615886e+02
8.800000e-07	-5.719045e-06	-4.033793e-09	-4.175599e+01	-2.610215e+02
8.900000e-07	-5.673889e-06	-4.028816e-09	-4.142630e+01	-2.604398e+02
9.000000e-07	-5.628243e-06	-4.019723e-09	-4.109303e+01	-2.598424e+02
9.100000e-07	-5.582178e-06	-4.004193e-09	-4.075669e+01	-2.592289e+02
9.200000e-07	-5.535783e-06	-3.985274e-09	-4.041795e+01	-2.585986e+02
9.300000e-07	-5.489049e-06	-3.978006e-09	-4.007674e+01	-2.579515e+02
9.400000e-07	-5.441911e-06	-3.970695e-09	-3.973257e+01	-2.572873e+02
9.500000e-07	-5.394337e-06	-3.962289e-09	-3.938522e+01	-2.566064e+02
9.600000e-07	-5.346370e-06	-3.948355e-09	-3.903501e+01	-2.559089e+02
9.700000e-07	-5.297999e-06	-3.939824e-09	-3.868184e+01	-2.551953e+02
9.800000e-07	-5.249103e-06	-3.928745e-09	-3.832484e+01	-2.544659e+02
9.900000e-07	-5.199741e-06	-3.916657e-09	-3.796444e+01	-2.537215e+02
1.000000e-06	-5.149847e-06	-3.899260e-09	-3.760015e+01	-2.529623e+02
1.010000e-06	-5.099373e-06	-3.884976e-09	-3.723163e+01	-2.521889e+02
1.020000e-06	-5.048438e-06	-3.871895e-09	-3.685974e+01	-2.514016e+02
1.030000e-06	-4.996962e-06	-3.863223e-09	-3.648391e+01	-2.506007e+02
1.040000e-06	-4.945109e-06	-3.848987e-09	-3.610531e+01	-2.497863e+02
1.050000e-06	-4.893025e-06	-3.834158e-09	-3.572504e+01	-2.489585e+02
1.060000e-06	-4.840592e-06	-3.820901e-09	-3.534221e+01	-2.481170e+02
1.070000e-06	-4.787705e-06	-3.811874e-09	-3.495607e+01	-2.472615e+02
1.080000e-06	-4.734330e-06	-3.798125e-09	-3.456637e+01	-2.463917e+02
1.090000e-06	-4.680592e-06	-3.783536e-09	-3.417402e+01	-2.455070e+02
1.100000e-06	-4.626594e-06	-3.768736e-09	-3.377976e+01	-2.446067e+02
1.110000e-06	-4.572288e-06	-3.749965e-09	-3.338327e+01	-2.436902e+02
1.120000e-06	-4.517641e-06	-3.729725e-09	-3.298428e+01	-2.427565e+02
1.130000e-06	-4.462738e-06	-3.714764e-09	-3.258342e+01	-2.418050e+02
1.140000e-06	-4.407589e-06	-3.700439e-09	-3.218076e+01	-2.408350e+02
1.150000e-06	-4.352125e-06	-3.684292e-09	-3.177581e+01	-2.398456e+02
1.160000e-06	-4.296438e-06	-3.672503e-09	-3.136922e+01	-2.388363e+02
1.170000e-06	-4.240542e-06	-3.661857e-09	-3.096112e+01	-2.378066e+02
1.180000e-06	-4.184417e-06	-3.650507e-09	-3.055133e+01	-2.367561e+02
1.190000e-06	-4.128042e-06	-3.635586e-09	-3.013973e+01	-2.356845e+02
1.200000e-06	-4.071286e-06	-3.620134e-09	-2.972534e+01	-2.345918e+02
1.210000e-06	-4.014026e-06	-3.597930e-09	-2.930728e+01	-2.334778e+02
1.220000e-06	-3.956461e-06	-3.573696e-09	-2.888698e+01	-2.323429e+02
1.230000e-06	-3.898626e-06	-3.554114e-09	-2.846471e+01	-2.311871e+02
1.240000e-06	-3.840408e-06	-3.539409e-09	-2.803965e+01	-2.300109e+02
1.250000e-06	-3.781858e-06	-3.517730e-09	-2.761217e+01	-2.288145e+02
1.260000e-06	-3.722980e-06	-3.494456e-09	-2.718229e+01	-2.275984e+02
1.270000e-06	-3.663854e-06	-3.475714e-09	-2.675060e+01	-2.263629e+02
1.280000e-06	-3.604440e-06	-3.459531e-09	-2.631680e+01	-2.251081e+02
1.290000e-06	-3.544656e-06	-3.439991e-09	-2.588030e+01	-2.238343e+02
1.300000e-06	-3.484664e-06	-3.415856e-09	-2.544229e+01	-2.225414e+02
1.310000e-06	-3.424586e-06	-3.390852e-09	-2.500365e+01	-2.212292e+02
1.320000e-06	-3.364336e-06	-3.370328e-09	-2.456375e+01	-2.198971e+02
1.330000e-06	-3.303866e-06	-3.349748e-09	-2.412224e+01	-2.185444e+02
1.340000e-06	-3.243189e-06	-3.325933e-09	-2.367923e+01	-2.171701e+02
1.350000e-06	-3.182351e-06	-3.299342e-09	-2.323503e+01	-2.157729e+02
1.360000e-06	-3.121319e-06	-3.275772e-09	-2.278943e+01	-2.143512e+02
1.370000e-06	-3.060001e-06	-3.250881e-09	-2.234173e+01	-2.129032e+02
1.380000e-06	-2.998382e-06	-3.226202e-09	-2.189184e+01	-2.114268e+02
1.390000e-06	-2.936504e-06	-3.202113e-09	-2.144005e+01	-2.099197e+02
1.400000e-06	-2.874442e-06	-3.177358e-09	-2.098692e+01	-2.083795e+02
1.410000e-06	-2.812220e-06	-3.152403e-09	-2.053262e+01	-2.068035e+02
1.420000e-06	-2.749802e-06	-3.130939e-09	-2.007690e+01	-2.051892e+02
1.430000e-06	-2.687265e-06	-3.107935e-09	-1.962030e+01	-2.035339e+02
1.440000e-06	-2.624679e-06	-3.080087e-09	-1.916335e+01	-2.018349e+02
1.450000e-06	-2.561939e-06	-3.050468e-09	-1.870527e+01	-2.000897e+02
1.460000e-06	-2.498975e-06	-3.023281e-09	-1.824556e+01	-1.982961e+02
1.470000e-06	-2.435828e-06	-2.998461e-09	-1.778451e+01	-1.964518e+02
1.480000e-06	-2.372510e-06	-2.968707e-09	-1.732221e+01	-1.945548e+02
1.490000e-06	-2.309070e-06	-2.935773e-09	-1.685902e+01	-1.926034e+02
1.500000e-06	-2.245565e-06	-2.903310e-09	-1.639536e+01	-1.905962e+02
1.510000e-06	-2.181865e-06	-2.875315e-09	-1.593027e+01	-1.885318e+02
1.520000e-06	-2.117900e-06	-2.847312e-09	-1.546325e+01	-1.864093e+02
1.530000e-06	-2.053780e-06	-2.812870e-09	-1.499510e+01	-1.842277e+02
1.540000e-06	-1.989580e-06	-2.773596e-09	-1.452636e+01	-1.819861e+02
1.550000e-06	-1.925333e-06	-2.735830e-09	-1.405727e+01	-1.796839e+02
1.560000e-06	-1.860945e-06	-2.697422e-09	-1.358716e+01	-1.773201e+02
1.570000e-06	-1.796366e-06	-2.657264e-09	-1.311566e+01	-1.748936e+02
1.580000e-06	-1.731677e-06	-2.614465e-09	-1.264335e+01	-1.724032e+02
1.590000e-06	-1.666858e-06	-2.571712e-09	-1.217009e+01	-1.698470e+02
1.600000e-06	-1.601905e-06	-2.531158e-09	-1.169586e+01	-1.672228e+02
1.610000e-06	-1.536848e-06	-2.492939e-09	-1.122086e+01	-1.645277e+02
1.620000e-06	-1.471650e-06	-2.451388e-09	-1.074484e+01	-1.617579e+02
1.630000e-06	-1.406313e-06	-2.404915e-09	-1.026780e+01	-1.589090e+02
1.640000e-06	-1.340856e-06	-2.357248e-09	-9.789884e+00	-1.559755e+02
1.650000e-06	-1.275261e-06	-2.311354e-09	-9.310958e+00	-1.529509e+02
1.660000e-06	-1.209587e-06	-2.261594e-09	-8.831455e+00	-1.498277e+02
1.670000e-06	-1.143875e-06	-2.207926e-09	-8.351682e+00	-1.465976e+02
1.680000e-06	-1.078018e-06	-2.152243e-09	-7.870847e+00	-1.432509e+02
1.690000e-06	-1.012012e-06	-2.096820e-09	-7.388920e+00	-1.397772e+02
1.700000e-06	-9.459022e-07	-2.040812e-09	-6.906237e+00	-1.361653e+02
1.710000e-06	-8.797512e-07	-1.982530e-09	-6.423254e+00	-1.324030e+02
1.720000e-06	-8.135781e-07	-1.921966e-09	-5.940110e+00	-1.284778e+02
1.730000e-06	-7.474085e-07	-1.859965e-09	-5.456992e+00	-1.243767e+02
1.740000e-06	-6.811417e-07	-1.794219e-09	-4.973163e+00	-1.200868e+02
1.750000e-06	-6.146678e-07	-1.723767e-09	-4.487823e+00	-1.155949e+02
1.760000e-06	-5.481143e-07	-1.652353e-09	-4.001902e+00	-1.108887e+02
1.770000e-06	-4.815502e-07	-1.579959e-09	-3.515902e+00	-1.059562e+02
1.780000e-06	-4.149431e-07	-1.503565e-09	-3.029589e+00	-1.007865e+02
1.790000e-06	-3.483243e-07	-1.422708e-09	-2.543191e+00	-9.537015e+01
1.800000e-06	-2.816936e-07	-1.340846e-09	-2.056706e+00	-8.969921e+01
1.810000e-06	-2.150395e-07	-1.254898e-09	-1.570050e+00	-8.376766e+01
1.820000e-06	-1.484152e-07	-1.162287e-09	-1.083612e+00	-7.757166e+01
1.830000e-06	-8.190743e-08	-1.064697e-09	-5.980239e-01	-7.110982e+01
1.840000e-06	-1.546048e-08	-9.639104e-10	-1.128803e-01	-6.438341e+01
1.850000e-06	5.104941e-08	-8.599864e-10	3.727228e-01	-5.739651e+01
1.860000e-06	1.176576e-07	-7.519243e-10	8.590440e-01	-5.015617e+01
1.870000e-06	1.843186e-07	-6.361689e-10	1.345750e+00	-4.267247e+01
1.880000e-06	2.509415e-07	-5.174528e-10	1.832178e+00	-3.495858e+01
1.890000e-06	3.175355e-07	-3.950918e-10	2.318395e+00	-2.703068e+01
1.900000e-06	3.841035e-07	-2.672428e-10	2.804423e+00	-1.890788e+01
1.910000e-06	4.506796e-07	-1.374100e-10	3.290509e+00	-1.061212e+01
1.920000e-06	5.172102e-07	-6.554660e-12	3.776264e+00	-2.167876e+00
1.930000e-06	5.836305e-07	1.298630e-10	4.261213e+00	6.398029e+00
1.940000e-06	6.499849e-07	2.688762e-10	4.745681e+00	1.505678e+01
1.950000e-06	7.163177e-07	4.056298e-10	5.229991e+00	2.377790e+01
1.960000e-06	7.826419e-07	5.421717e-10	5.714238e+00	3.252969e+01
1.970000e-06	8.488779e-07	6.818566e-10	6.197841e+00	4.127961e+01
1.980000e-06	9.149277e-07	8.220411e-10	6.680086e+00	4.999475e+01
1.990000e-06	9.808251e-07	9.588407e-10	7.161217e+00	5.864230e+01
2.000000e-06	1.046646e-06	1.093407e-09	7.641787e+00	6.719003e+01
2.010000e-06	1.112403e-06	1.226098e-09	8.121899e+00	7.560671e+01
2.020000e-06	1.178076e-06	1.355213e-09	8.601388e+00	8.386259e+01
2.030000e-06	1.243700e-06	1.478240e-09	9.080523e+00	9.192981e+01
2.040000e-06	1.309299e-06	1.594047e-09	9.559474e+00	9.978278e+01
2.050000e-06	1.374705e-06	1.705693e-09	1.003702e+01	1.073985e+02
2.060000e-06	1.439932e-06	1.816035e-09	1.051325e+01	1.147571e+02
2.070000e-06	1.505077e-06	1.922219e-09	1.098889e+01	1.218414e+02
2.080000e-06	1.570094e-06	2.020983e-09	1.146360e+01	1.286381e+02
2.090000e-06	1.634990e-06	2.114143e-09	1.193742e+01	1.351369e+02
2.100000e-06	1.699801e-06	2.205047e-09	1.241062e+01	1.413312e+02
2.110000e-06	1.764476e-06	2.293087e-09	1.288282e+01	1.472179e+02
2.120000e-06	1.828982e-06	2.373654e-09	1.335380e+01	1.527973e+02
2.130000e-06	1.893334e-06	2.446326e-09	1.382364e+01	1.580727e+02
2.140000e-06	1.957585e-06	2.520784e-09	1.429275e+01	1.630506e+02
2.150000e-06	2.021719e-06	2.595153e-09	1.476101e+01	1.677405e+02
2.160000e-06	2.085653e-06	2.664422e-09	1.522781e+01	1.721540e+02
2.170000e-06	2.149465e-06	2.726373e-09	1.569371e+01	1.763051e+02
2.180000e-06	2.213191e-06	2.788930e-09	1.615899e+01	1.802095e+02
2.190000e-06	2.276785e-06	2.851635e-09	1.662330e+01	1.838842e+02
2.200000e-06	2.340219e-06	2.905364e-09	1.708645e+01	1.873473e+02
2.210000e-06	2.403525e-06	2.952484e-09	1.754866e+01	1.906175e+02
2.220000e-06	2.466656e-06	3.002320e-09	1.800959e+01	1.937135e+02
2.230000e-06	2.529633e-06	3.052881e-09	1.846940e+01	1.966541e+02
2.240000e-06	2.592455e-06	3.100323e-09	1.892808e+01	1.994573e+02
2.250000e-06	2.655113e-06	3.143541e-09	1.938556e+01	2.021404e+02
2.260000e-06	2.717636e-06	3.186535e-09	1.984205e+01	2.047194e+02
2.270000e-06	2.779963e-06	3.229238e-09	2.029711e+01	2.072091e+02
2.280000e-06	2.842072e-06	3.265940e-09	2.075058e+01	2.096227e+02
2.290000e-06	2.903977e-06	3.298370e-09	2.120256e+01	2.119715e+02
2.300000e-06	2.965681e-06	3.327882e-09	2.165308e+01	2.142652e+02
2.310000e-06	3.027144e-06	3.360976e-09	2.210184e+01	2.165117e+02
2.320000e-06	3.088406e-06	3.394821e-09	2.254912e+01	2.187171e+02
2.330000e-06	3.149480e-06	3.424382e-09	2.299504e+01	2.208854e+02
2.340000e-06	3.210311e-06	3.450808e-09	2.343918e+01	2.230195e+02
2.350000e-06	3.270959e-06	3.477965e-09	2.388198e+01	2.251205e+02
2.360000e-06	3.331422e-06	3.506647e-09	2.432344e+01	2.271882e+02
2.370000e-06	3.391625e-06	3.535775e-09	2.476299e+01	2.292213e+02
2.380000e-06	3.451610e-06	3.561329e-09	2.520095e+01	2.312177e+02
2.390000e-06	3.511418e-06	3.586796e-09	2.563762e+01	2.331745e+02
2.400000e-06	3.571090e-06	3.613238e-09	2.607330e+01	2.350886e+02
2.410000e-06	3.630565e-06	3.639682e-09	2.650754e+01	2.369565e+02
2.420000e-06	3.689732e-06	3.663758e-09	2.693954e+01	2.387747e+02
2.430000e-06	3.748635e-06	3.683044e-09	2.736960e+01	2.405402e+02
2.440000e-06	3.807258e-06	3.703576e-09	2.779761e+01	2.422501e+02
2.450000e-06	3.865521e-06	3.724994e-09	2.822301e+01	2.439024e+02
2.460000e-06	3.923455e-06	3.746721e-09	2.864600e+01	2.454955e+02
2.470000e-06	3.980967e-06	3.766858e-09	2.906591e+01	2.470288e+02
2.480000e-06	4.038051e-06	3.787235e-09	2.948269e+01	2.485024e+02
2.490000e-06	4.094872e-06	3.809955e-09	2.989755e+01	2.499173e+02
2.500000e-06	4.151327e-06	3.832194e-09	3.030974e+01	2.512755e+02
2.510000e-06	4.207342e-06	3.850739e-09	3.071872e+01	2.525796e+02
2.520000e-06	4.263017e-06	3.868770e-09	3.112521e+01	2.538330e+02
2.530000e-06	4.318423e-06	3.885326e-09	3.152974e+01	2.550398e+02
2.540000e-06	4.373597e-06	3.900259e-09	3.193258e+01	2.562043e+02
2.550000e-06	4.428519e-06	3.918360e-09	3.233358e+01	2.573316e+02
2.560000e-06	4.483175e-06	3.938419e-09	3.273263e+01	2.584267e+02
2.570000e-06	4.537606e-06	3.956999e-09	3.313005e+01	2.594947e+02
2.580000e-06	4.591819e-06	3.979217e-09	3.352587e+01	2.605407e+02
2.590000e-06	4.645699e-06	4.001313e-09	3.391925e+01	2.615694e+02
2.600000e-06	4.699193e-06	4.017863e-09	3.430983e+01	2.625852e+02
2.610000e-06	4.752327e-06	4.030462e-09	3.469777e+01	2.635918e+02
2.620000e-06	4.805140e-06	4.043353e-09	3.508337e+01	2.645926e+02
2.630000e-06	4.857594e-06	4.055663e-09	3.546635e+01	2.655900e+02
2.640000e-06	4.909658e-06	4.065123e-09	3.584648e+01	2.665858e+02
2.650000e-06	4.961308e-06	4.077043e-09	3.622359e+01	2.675808e+02
2.660000e-06	5.012537e-06	4.093635e-09	3.659762e+01	2.685753e+02
2.670000e-06	5.063372e-06	4.114707e-09	3.696878e+01	2.695686e+02
2.680000e-06	5.113713e-06	4.131931e-09	3.733633e+01	2.705593e+02
2.690000e-06	5.163470e-06	4.145181e-09	3.769961e+01	2.715456e+02
2.700000e-06	5.212672e-06	4.158466e-09	3.805885e+01	2.725247e+02
2.710000e-06	5.261367e-06	4.169350e-09	3.841438e+01	2.734939e+02
2.720000e-06	5.309587e-06	4.176295e-09	3.876645e+01	2.744499e+02
2.730000e-06	5.357447e-06	4.183525e-09	3.911588e+01	2.753892e+02
2.740000e-06	5.405011e-06	4.196144e-09	3.946316e+01	2.763084e+02
2.750000e-06	5.452262e-06	4.211373e-09	3.980815e+01	2.772042e+02
2.760000e-06	5.499202e-06	4.224905e-09	4.015087e+01	2.780735e+02
2.770000e-06	5.545761e-06	4.239153e-09	4.049081e+01	2.789136e+02
2.780000e-06	5.591896e-06	4.253274e-09	4.082764e+01	2.797223e+02
2.790000e-06	5.637588e-06	4.266750e-09	4.116126e+01	2.804978e+02
2.800000e-06	5.682849e-06	4.278494e-09	4.149172e+01	2.812393e+02
2.810000e-06	5.727765e-06	4.287547e-09	4.181966e+01	2.819462e+02
2.820000e-06	5.772324e-06	4.294510e-09	4.214499e+01	2.826191e+02
2.830000e-06	5.816537e-06	4.301940e-09	4.246780e+01	2.832590e+02
2.840000e-06	5.860481e-06	4.312956e-09	4.278864e+01	2.838675e+02
2.850000e-06	5.904131e-06	4.325370e-09	4.310734e+01	2.844471e+02
2.860000e-06	5.947423e-06	4.336747e-09	4.342343e+01	2.850006e+02
2.870000e-06	5.990287e-06	4.350424e-09	4.373638e+01	2.855313e+02
2.880000e-06	6.032630e-06	4.366061e-09	4.404554e+01	2.860430e+02
2.890000e-06	6.074332e-06	4.379429e-09	4.435002e+01	2.865396e+02
2.900000e-06	6.115431e-06	4.388034e-09	4.465009e+01	2.870250e+02
