# Temperatura_=_20.0
# Concentracion g/m^3_=_9000.0
# C_Vs_to_Am_M_A/Vsm_=_65563218390.804596
# pendiente_HvsI_1/m_=_3716.3
# ordenada_HvsI_A/m_=_1297.0
# frecuencia_Hz_=_135475.83265933747

Tiempo_(s)	Campo_(V.s)	Magnetizacion_(V.s)	Campo_(kA/m)	Magnetizacion_(A/m)
0.000000e+00	-7.752124e-06	-4.635876e-09	-5.691662e+01	-3.069959e+02
1.000000e-08	-7.752371e-06	-4.629781e-09	-5.691843e+01	-3.071843e+02
2.000000e-08	-7.752307e-06	-4.624833e-09	-5.691796e+01	-3.073884e+02
3.000000e-08	-7.751858e-06	-4.624677e-09	-5.691466e+01	-3.076012e+02
4.000000e-08	-7.750690e-06	-4.628332e-09	-5.690608e+01	-3.078148e+02
5.000000e-08	-7.748671e-06	-4.630440e-09	-5.689126e+01	-3.080204e+02
6.000000e-08	-7.745904e-06	-4.631002e-09	-5.687095e+01	-3.082086e+02
7.000000e-08	-7.742505e-06	-4.632517e-09	-5.684599e+01	-3.083695e+02
8.000000e-08	-7.738708e-06	-4.621890e-09	-5.681811e+01	-3.084930e+02
9.000000e-08	-7.734600e-06	-4.601874e-09	-5.678795e+01	-3.085693e+02
1.000000e-07	-7.729978e-06	-4.619609e-09	-5.675402e+01	-3.085888e+02
1.100000e-07	-7.724537e-06	-4.715004e-09	-5.671407e+01	-3.085423e+02
1.200000e-07	-7.718101e-06	-4.761813e-09	-5.666682e+01	-3.084218e+02
1.300000e-07	-7.710843e-06	-4.641560e-09	-5.661352e+01	-3.082200e+02
1.400000e-07	-7.703171e-06	-4.428477e-09	-5.655720e+01	-3.079310e+02
1.500000e-07	-7.695345e-06	-4.462516e-09	-5.649974e+01	-3.075503e+02
1.600000e-07	-7.687367e-06	-4.780040e-09	-5.644116e+01	-3.070749e+02
1.700000e-07	-7.679020e-06	-4.849048e-09	-5.637988e+01	-3.065034e+02
1.800000e-07	-7.670064e-06	-4.528983e-09	-5.631412e+01	-3.058363e+02
1.900000e-07	-7.660305e-06	-4.465809e-09	-5.624248e+01	-3.050756e+02
2.000000e-07	-7.649505e-06	-4.669923e-09	-5.616318e+01	-3.042252e+02
2.100000e-07	-7.637985e-06	-4.829126e-09	-5.607860e+01	-3.032905e+02
2.200000e-07	-7.626164e-06	-4.790967e-09	-5.599181e+01	-3.022785e+02
2.300000e-07	-7.613744e-06	-4.570886e-09	-5.590062e+01	-3.011977e+02
2.400000e-07	-7.600524e-06	-4.468876e-09	-5.580355e+01	-3.000575e+02
2.500000e-07	-7.586843e-06	-4.668325e-09	-5.570311e+01	-2.988687e+02
2.600000e-07	-7.572796e-06	-4.874898e-09	-5.559998e+01	-2.976427e+02
2.700000e-07	-7.557643e-06	-4.553481e-09	-5.548872e+01	-2.963915e+02
2.800000e-07	-7.541351e-06	-4.262698e-09	-5.536911e+01	-2.951274e+02
2.900000e-07	-7.524696e-06	-4.504257e-09	-5.524682e+01	-2.938628e+02
3.000000e-07	-7.507701e-06	-4.701328e-09	-5.512204e+01	-2.926098e+02
3.100000e-07	-7.490136e-06	-4.380339e-09	-5.499308e+01	-2.913800e+02
3.200000e-07	-7.472161e-06	-4.191595e-09	-5.486111e+01	-2.901845e+02
3.300000e-07	-7.453753e-06	-4.418174e-09	-5.472596e+01	-2.890333e+02
3.400000e-07	-7.434744e-06	-4.504479e-09	-5.458639e+01	-2.879354e+02
3.500000e-07	-7.415276e-06	-4.365403e-09	-5.444346e+01	-2.868984e+02
3.600000e-07	-7.395467e-06	-4.365486e-09	-5.429802e+01	-2.859286e+02
3.700000e-07	-7.375220e-06	-4.296601e-09	-5.414936e+01	-2.850309e+02
3.800000e-07	-7.354524e-06	-4.257736e-09	-5.399741e+01	-2.842086e+02
3.900000e-07	-7.333431e-06	-4.455873e-09	-5.384254e+01	-2.834633e+02
4.000000e-07	-7.311818e-06	-4.489804e-09	-5.368386e+01	-2.827953e+02
4.100000e-07	-7.289505e-06	-4.222188e-09	-5.352004e+01	-2.822033e+02
4.200000e-07	-7.266569e-06	-4.219685e-09	-5.335164e+01	-2.816845e+02
4.300000e-07	-7.243242e-06	-4.498879e-09	-5.318037e+01	-2.812352e+02
4.400000e-07	-7.219568e-06	-4.501963e-09	-5.300655e+01	-2.808500e+02
4.500000e-07	-7.195490e-06	-4.232248e-09	-5.282977e+01	-2.805231e+02
4.600000e-07	-7.171026e-06	-4.192766e-09	-5.265015e+01	-2.802475e+02
4.700000e-07	-7.146034e-06	-4.460574e-09	-5.246666e+01	-2.800158e+02
4.800000e-07	-7.120216e-06	-4.466156e-09	-5.227711e+01	-2.798203e+02
4.900000e-07	-7.093463e-06	-4.228690e-09	-5.208068e+01	-2.796527e+02
5.000000e-07	-7.066102e-06	-4.237797e-09	-5.187979e+01	-2.795052e+02
5.100000e-07	-7.038435e-06	-4.415272e-09	-5.167667e+01	-2.793698e+02
5.200000e-07	-7.010408e-06	-4.355851e-09	-5.147088e+01	-2.792391e+02
5.300000e-07	-6.981987e-06	-4.287450e-09	-5.126222e+01	-2.791059e+02
5.400000e-07	-6.953157e-06	-4.307505e-09	-5.105054e+01	-2.789640e+02
5.500000e-07	-6.923730e-06	-4.284622e-09	-5.083449e+01	-2.788077e+02
5.600000e-07	-6.893754e-06	-4.296547e-09	-5.061440e+01	-2.786321e+02
5.700000e-07	-6.863356e-06	-4.372529e-09	-5.039122e+01	-2.784333e+02
5.800000e-07	-6.832494e-06	-4.283895e-09	-5.016463e+01	-2.782081e+02
5.900000e-07	-6.801149e-06	-4.200013e-09	-4.993449e+01	-2.779544e+02
6.000000e-07	-6.769406e-06	-4.283325e-09	-4.970144e+01	-2.776708e+02
6.100000e-07	-6.737365e-06	-4.341975e-09	-4.946619e+01	-2.773569e+02
6.200000e-07	-6.704909e-06	-4.251204e-09	-4.922789e+01	-2.770130e+02
6.300000e-07	-6.671865e-06	-4.192281e-09	-4.898528e+01	-2.766399e+02
6.400000e-07	-6.638068e-06	-4.242734e-09	-4.873714e+01	-2.762391e+02
6.500000e-07	-6.603494e-06	-4.295745e-09	-4.848330e+01	-2.758127e+02
6.600000e-07	-6.568337e-06	-4.253480e-09	-4.822517e+01	-2.753631e+02
6.700000e-07	-6.532790e-06	-4.181077e-09	-4.796418e+01	-2.748927e+02
6.800000e-07	-6.496884e-06	-4.206380e-09	-4.770056e+01	-2.744045e+02
6.900000e-07	-6.460658e-06	-4.252964e-09	-4.743458e+01	-2.739010e+02
7.000000e-07	-6.423996e-06	-4.213827e-09	-4.716541e+01	-2.733851e+02
7.100000e-07	-6.386758e-06	-4.163109e-09	-4.689200e+01	-2.728592e+02
7.200000e-07	-6.349057e-06	-4.180032e-09	-4.661520e+01	-2.723258e+02
7.300000e-07	-6.310959e-06	-4.185831e-09	-4.633548e+01	-2.717867e+02
7.400000e-07	-6.272473e-06	-4.176345e-09	-4.605292e+01	-2.712436e+02
7.500000e-07	-6.233615e-06	-4.166055e-09	-4.576762e+01	-2.706980e+02
7.600000e-07	-6.194420e-06	-4.144703e-09	-4.547984e+01	-2.701505e+02
7.700000e-07	-6.154895e-06	-4.131947e-09	-4.518965e+01	-2.696019e+02
7.800000e-07	-6.115036e-06	-4.166381e-09	-4.489700e+01	-2.690522e+02
7.900000e-07	-6.074783e-06	-4.157252e-09	-4.460146e+01	-2.685012e+02
8.000000e-07	-6.033956e-06	-4.104716e-09	-4.430171e+01	-2.679485e+02
8.100000e-07	-5.992517e-06	-4.096148e-09	-4.399746e+01	-2.673933e+02
8.200000e-07	-5.950425e-06	-4.134961e-09	-4.368842e+01	-2.668346e+02
8.300000e-07	-5.907677e-06	-4.119709e-09	-4.337456e+01	-2.662713e+02
8.400000e-07	-5.864407e-06	-4.071612e-09	-4.305687e+01	-2.657022e+02
8.500000e-07	-5.820727e-06	-4.060221e-09	-4.273617e+01	-2.651261e+02
8.600000e-07	-5.776716e-06	-4.085769e-09	-4.241304e+01	-2.645416e+02
8.700000e-07	-5.732408e-06	-4.081965e-09	-4.208772e+01	-2.639475e+02
8.800000e-07	-5.687773e-06	-4.043637e-09	-4.176001e+01	-2.633429e+02
8.900000e-07	-5.642801e-06	-4.016705e-09	-4.142982e+01	-2.627267e+02
9.000000e-07	-5.597466e-06	-4.024449e-09	-4.109697e+01	-2.620981e+02
9.100000e-07	-5.551734e-06	-4.031007e-09	-4.076120e+01	-2.614564e+02
9.200000e-07	-5.505596e-06	-4.007840e-09	-4.042246e+01	-2.608012e+02
9.300000e-07	-5.459054e-06	-3.980447e-09	-4.008074e+01	-2.601321e+02
9.400000e-07	-5.412125e-06	-3.974507e-09	-3.973618e+01	-2.594490e+02
9.500000e-07	-5.364771e-06	-3.982782e-09	-3.938851e+01	-2.587519e+02
9.600000e-07	-5.317026e-06	-3.979340e-09	-3.903796e+01	-2.580407e+02
9.700000e-07	-5.268925e-06	-3.956453e-09	-3.868480e+01	-2.573157e+02
9.800000e-07	-5.220356e-06	-3.929885e-09	-3.832820e+01	-2.565770e+02
9.900000e-07	-5.171174e-06	-3.927644e-09	-3.796710e+01	-2.558247e+02
1.000000e-06	-5.121443e-06	-3.930641e-09	-3.760197e+01	-2.550592e+02
1.010000e-06	-5.071303e-06	-3.909667e-09	-3.723384e+01	-2.542804e+02
1.020000e-06	-5.020711e-06	-3.875135e-09	-3.686239e+01	-2.534884e+02
1.030000e-06	-4.969536e-06	-3.867006e-09	-3.648666e+01	-2.526831e+02
1.040000e-06	-4.917918e-06	-3.868676e-09	-3.610769e+01	-2.518643e+02
1.050000e-06	-4.866056e-06	-3.856124e-09	-3.572691e+01	-2.510318e+02
1.060000e-06	-4.813862e-06	-3.829881e-09	-3.534370e+01	-2.501851e+02
1.070000e-06	-4.761316e-06	-3.814737e-09	-3.495790e+01	-2.493236e+02
1.080000e-06	-4.708387e-06	-3.807949e-09	-3.456929e+01	-2.484466e+02
1.090000e-06	-4.655032e-06	-3.801903e-09	-3.417756e+01	-2.475536e+02
1.100000e-06	-4.601348e-06	-3.784954e-09	-3.378341e+01	-2.466435e+02
1.110000e-06	-4.547381e-06	-3.762104e-09	-3.338718e+01	-2.457157e+02
1.120000e-06	-4.493046e-06	-3.744282e-09	-3.298824e+01	-2.447694e+02
1.130000e-06	-4.438413e-06	-3.735938e-09	-3.258712e+01	-2.438036e+02
1.140000e-06	-4.383631e-06	-3.723584e-09	-3.218491e+01	-2.428179e+02
1.150000e-06	-4.328521e-06	-3.701789e-09	-3.178029e+01	-2.418114e+02
1.160000e-06	-4.273046e-06	-3.679860e-09	-3.137299e+01	-2.407838e+02
1.170000e-06	-4.217328e-06	-3.666090e-09	-3.096391e+01	-2.397347e+02
1.180000e-06	-4.161379e-06	-3.654614e-09	-3.055313e+01	-2.386639e+02
1.190000e-06	-4.105251e-06	-3.638220e-09	-3.014102e+01	-2.375714e+02
1.200000e-06	-4.048863e-06	-3.618485e-09	-2.972702e+01	-2.364574e+02
1.210000e-06	-3.992138e-06	-3.599544e-09	-2.931054e+01	-2.353222e+02
1.220000e-06	-3.935190e-06	-3.583480e-09	-2.889243e+01	-2.341661e+02
1.230000e-06	-3.877962e-06	-3.566414e-09	-2.847226e+01	-2.329898e+02
1.240000e-06	-3.820304e-06	-3.546960e-09	-2.804893e+01	-2.317939e+02
1.250000e-06	-3.762191e-06	-3.522816e-09	-2.762226e+01	-2.305789e+02
1.260000e-06	-3.703721e-06	-3.501228e-09	-2.719297e+01	-2.293455e+02
1.270000e-06	-3.644932e-06	-3.482843e-09	-2.676134e+01	-2.280944e+02
1.280000e-06	-3.585757e-06	-3.464717e-09	-2.632687e+01	-2.268258e+02
1.290000e-06	-3.526266e-06	-3.442754e-09	-2.589008e+01	-2.255402e+02
1.300000e-06	-3.466512e-06	-3.419836e-09	-2.545137e+01	-2.242376e+02
1.310000e-06	-3.406571e-06	-3.399913e-09	-2.501127e+01	-2.229178e+02
1.320000e-06	-3.346538e-06	-3.380890e-09	-2.457051e+01	-2.215803e+02
1.330000e-06	-3.286341e-06	-3.356869e-09	-2.412854e+01	-2.202245e+02
1.340000e-06	-3.225953e-06	-3.330257e-09	-2.368516e+01	-2.188491e+02
1.350000e-06	-3.165422e-06	-3.306329e-09	-2.324074e+01	-2.174528e+02
1.360000e-06	-3.104695e-06	-3.283164e-09	-2.279488e+01	-2.160339e+02
1.370000e-06	-3.043734e-06	-3.257308e-09	-2.234730e+01	-2.145901e+02
1.380000e-06	-2.982527e-06	-3.232805e-09	-2.189791e+01	-2.131193e+02
1.390000e-06	-2.921055e-06	-3.210672e-09	-2.144658e+01	-2.116188e+02
1.400000e-06	-2.859292e-06	-3.189680e-09	-2.099312e+01	-2.100858e+02
1.410000e-06	-2.797298e-06	-3.166082e-09	-2.053795e+01	-2.085173e+02
1.420000e-06	-2.735222e-06	-3.143345e-09	-2.008218e+01	-2.069105e+02
1.430000e-06	-2.673051e-06	-3.119129e-09	-1.962572e+01	-2.052623e+02
1.440000e-06	-2.610697e-06	-3.091929e-09	-1.916791e+01	-2.035697e+02
1.450000e-06	-2.548202e-06	-3.062396e-09	-1.870907e+01	-2.018298e+02
1.460000e-06	-2.485577e-06	-3.033888e-09	-1.824927e+01	-2.000401e+02
1.470000e-06	-2.422800e-06	-3.007288e-09	-1.778836e+01	-1.981981e+02
1.480000e-06	-2.359881e-06	-2.978818e-09	-1.732640e+01	-1.963015e+02
1.490000e-06	-2.296800e-06	-2.948185e-09	-1.686326e+01	-1.943486e+02
1.500000e-06	-2.233488e-06	-2.918096e-09	-1.639842e+01	-1.923377e+02
1.510000e-06	-2.169915e-06	-2.889475e-09	-1.593166e+01	-1.902675e+02
1.520000e-06	-2.106180e-06	-2.861579e-09	-1.546372e+01	-1.881369e+02
1.530000e-06	-2.042278e-06	-2.827277e-09	-1.499454e+01	-1.859452e+02
1.540000e-06	-1.978241e-06	-2.788780e-09	-1.452438e+01	-1.836916e+02
1.550000e-06	-1.914136e-06	-2.753913e-09	-1.405371e+01	-1.813756e+02
1.560000e-06	-1.849945e-06	-2.720759e-09	-1.358242e+01	-1.789965e+02
1.570000e-06	-1.785695e-06	-2.682474e-09	-1.311069e+01	-1.765537e+02
1.580000e-06	-1.721333e-06	-2.639942e-09	-1.263814e+01	-1.740461e+02
1.590000e-06	-1.656873e-06	-2.597981e-09	-1.216487e+01	-1.714724e+02
1.600000e-06	-1.592324e-06	-2.556613e-09	-1.169095e+01	-1.688308e+02
1.610000e-06	-1.527663e-06	-2.515796e-09	-1.121621e+01	-1.661186e+02
1.620000e-06	-1.462942e-06	-2.475416e-09	-1.074102e+01	-1.633328e+02
1.630000e-06	-1.398128e-06	-2.431265e-09	-1.026515e+01	-1.604693e+02
1.640000e-06	-1.333188e-06	-2.383412e-09	-9.788355e+00	-1.575229e+02
1.650000e-06	-1.268063e-06	-2.337340e-09	-9.310205e+00	-1.544876e+02
1.660000e-06	-1.202821e-06	-2.290038e-09	-8.831192e+00	-1.513564e+02
1.670000e-06	-1.137529e-06	-2.237062e-09	-8.351812e+00	-1.481210e+02
1.680000e-06	-1.072133e-06	-2.179126e-09	-7.871671e+00	-1.447721e+02
1.690000e-06	-1.006647e-06	-2.125484e-09	-7.390867e+00	-1.412996e+02
1.700000e-06	-9.411194e-07	-2.070906e-09	-6.909762e+00	-1.376920e+02
1.710000e-06	-8.756229e-07	-2.012021e-09	-6.428882e+00	-1.339375e+02
1.720000e-06	-8.100438e-07	-1.950035e-09	-5.947396e+00	-1.300235e+02
1.730000e-06	-7.443540e-07	-1.887936e-09	-5.465097e+00	-1.259367e+02
1.740000e-06	-6.786589e-07	-1.824105e-09	-4.982759e+00	-1.216639e+02
1.750000e-06	-6.128958e-07	-1.755791e-09	-4.499922e+00	-1.171920e+02
1.760000e-06	-5.469794e-07	-1.682777e-09	-4.015960e+00	-1.125078e+02
1.770000e-06	-4.809828e-07	-1.608053e-09	-3.531408e+00	-1.075993e+02
1.780000e-06	-4.150274e-07	-1.531027e-09	-3.047159e+00	-1.024549e+02
1.790000e-06	-3.490676e-07	-1.449772e-09	-2.562878e+00	-9.706473e+01
1.800000e-06	-2.830160e-07	-1.365848e-09	-2.077923e+00	-9.142018e+01
1.810000e-06	-2.169120e-07	-1.278191e-09	-1.592582e+00	-8.551470e+01
1.820000e-06	-1.507737e-07	-1.183599e-09	-1.106991e+00	-7.934385e+01
1.830000e-06	-8.466549e-08	-1.086273e-09	-6.216197e-01	-7.290567e+01
1.840000e-06	-1.855050e-08	-9.891983e-10	-1.361990e-01	-6.620085e+01
1.850000e-06	4.764896e-08	-8.850288e-10	3.498419e-01	-5.923295e+01
1.860000e-06	1.138182e-07	-7.736286e-10	8.356612e-01	-5.200852e+01
1.870000e-06	1.798558e-07	-6.604186e-10	1.320514e+00	-4.453722e+01
1.880000e-06	2.458308e-07	-5.441256e-10	1.804906e+00	-3.683184e+01
1.890000e-06	3.118572e-07	-4.201145e-10	2.289676e+00	-2.890825e+01
1.900000e-06	3.779126e-07	-2.899170e-10	2.774659e+00	-2.078536e+01
1.910000e-06	4.439340e-07	-1.580435e-10	3.259393e+00	-1.248494e+01
1.920000e-06	5.098608e-07	-2.664134e-11	3.743432e+00	-4.031424e+00
1.930000e-06	5.757084e-07	1.091347e-10	4.226889e+00	4.548345e+00
1.940000e-06	6.416643e-07	2.501133e-10	4.711142e+00	1.322544e+01
1.950000e-06	7.076594e-07	3.916493e-10	5.195683e+00	2.196922e+01
1.960000e-06	7.734459e-07	5.291518e-10	5.678692e+00	3.074771e+01
1.970000e-06	8.390685e-07	6.662254e-10	6.160497e+00	3.952805e+01
1.980000e-06	9.046235e-07	8.027826e-10	6.641807e+00	4.827697e+01
1.990000e-06	9.701244e-07	9.400369e-10	7.122718e+00	5.696124e+01
2.000000e-06	1.035508e-06	1.076048e-09	7.602767e+00	6.554814e+01
2.010000e-06	1.100718e-06	1.207807e-09	8.081549e+00	7.400598e+01
2.020000e-06	1.165888e-06	1.335259e-09	8.560031e+00	8.230450e+01
2.030000e-06	1.231020e-06	1.460098e-09	9.038229e+00	9.041535e+01
2.040000e-06	1.296084e-06	1.582322e-09	9.515934e+00	9.831245e+01
2.050000e-06	1.361085e-06	1.698516e-09	9.993177e+00	1.059724e+02
2.060000e-06	1.425967e-06	1.808804e-09	1.046955e+01	1.133746e+02
2.070000e-06	1.490735e-06	1.913993e-09	1.094508e+01	1.205019e+02
2.080000e-06	1.555350e-06	2.012570e-09	1.141949e+01	1.273402e+02
2.090000e-06	1.619886e-06	2.103892e-09	1.189331e+01	1.338793e+02
2.100000e-06	1.684337e-06	2.192613e-09	1.236652e+01	1.401120e+02
2.110000e-06	1.748699e-06	2.280134e-09	1.283907e+01	1.460352e+02
2.120000e-06	1.812943e-06	2.362465e-09	1.331075e+01	1.516488e+02
2.130000e-06	1.877002e-06	2.437856e-09	1.378108e+01	1.569563e+02
2.140000e-06	1.940965e-06	2.511380e-09	1.425070e+01	1.619641e+02
2.150000e-06	2.004845e-06	2.586243e-09	1.471971e+01	1.666815e+02
2.160000e-06	2.068600e-06	2.657657e-09	1.518780e+01	1.711203e+02
2.170000e-06	2.132237e-06	2.721454e-09	1.565503e+01	1.752946e+02
2.180000e-06	2.195705e-06	2.782187e-09	1.612101e+01	1.792201e+02
2.190000e-06	2.258990e-06	2.841656e-09	1.658566e+01	1.829140e+02
2.200000e-06	2.322170e-06	2.897535e-09	1.704953e+01	1.863945e+02
2.210000e-06	2.385182e-06	2.948249e-09	1.751217e+01	1.896806e+02
2.220000e-06	2.448010e-06	2.996650e-09	1.797346e+01	1.927911e+02
2.230000e-06	2.510680e-06	3.043516e-09	1.843358e+01	1.957448e+02
2.240000e-06	2.573191e-06	3.092161e-09	1.889254e+01	1.985600e+02
2.250000e-06	2.635528e-06	3.139731e-09	1.935023e+01	2.012541e+02
2.260000e-06	2.697663e-06	3.180583e-09	1.980642e+01	2.038432e+02
2.270000e-06	2.759626e-06	3.218770e-09	2.026136e+01	2.063423e+02
2.280000e-06	2.821389e-06	3.254831e-09	2.071482e+01	2.087644e+02
2.290000e-06	2.882980e-06	3.288703e-09	2.116704e+01	2.111212e+02
2.300000e-06	2.944373e-06	3.319568e-09	2.161778e+01	2.134222e+02
2.310000e-06	3.005547e-06	3.351579e-09	2.206693e+01	2.156753e+02
2.320000e-06	3.066500e-06	3.385112e-09	2.251445e+01	2.178867e+02
2.330000e-06	3.127224e-06	3.418070e-09	2.296029e+01	2.200604e+02
2.340000e-06	3.187808e-06	3.449941e-09	2.340510e+01	2.221992e+02
2.350000e-06	3.248280e-06	3.478121e-09	2.384909e+01	2.243042e+02
2.360000e-06	3.308605e-06	3.504841e-09	2.429200e+01	2.263752e+02
2.370000e-06	3.368729e-06	3.532145e-09	2.473344e+01	2.284110e+02
2.380000e-06	3.428665e-06	3.556778e-09	2.517349e+01	2.304094e+02
2.390000e-06	3.488387e-06	3.579362e-09	2.561197e+01	2.323676e+02
2.400000e-06	3.547822e-06	3.603608e-09	2.604835e+01	2.342825e+02
2.410000e-06	3.606967e-06	3.629581e-09	2.648260e+01	2.361508e+02
2.420000e-06	3.665807e-06	3.653613e-09	2.691460e+01	2.379691e+02
2.430000e-06	3.724255e-06	3.675004e-09	2.734373e+01	2.397345e+02
2.440000e-06	3.782310e-06	3.696451e-09	2.776997e+01	2.414444e+02
2.450000e-06	3.840002e-06	3.717492e-09	2.819355e+01	2.430969e+02
2.460000e-06	3.897325e-06	3.738949e-09	2.861442e+01	2.446907e+02
2.470000e-06	3.954338e-06	3.759296e-09	2.903302e+01	2.462255e+02
2.480000e-06	4.011046e-06	3.780181e-09	2.944937e+01	2.477017e+02
2.490000e-06	4.067452e-06	3.802266e-09	2.986351e+01	2.491206e+02
2.500000e-06	4.123601e-06	3.823962e-09	3.027575e+01	2.504844e+02
2.510000e-06	4.179458e-06	3.842797e-09	3.068586e+01	2.517961e+02
2.520000e-06	4.234997e-06	3.861521e-09	3.109363e+01	2.530593e+02
2.530000e-06	4.290292e-06	3.881838e-09	3.149961e+01	2.542783e+02
2.540000e-06	4.345369e-06	3.900289e-09	3.190399e+01	2.554578e+02
2.550000e-06	4.400139e-06	3.917444e-09	3.230612e+01	2.566029e+02
2.560000e-06	4.454614e-06	3.933547e-09	3.270608e+01	2.577189e+02
2.570000e-06	4.508858e-06	3.952825e-09	3.310433e+01	2.588108e+02
2.580000e-06	4.562857e-06	3.976400e-09	3.350080e+01	2.598838e+02
2.590000e-06	4.616486e-06	3.997103e-09	3.389455e+01	2.609426e+02
2.600000e-06	4.669760e-06	4.014453e-09	3.428569e+01	2.619913e+02
2.610000e-06	4.722786e-06	4.030641e-09	3.467501e+01	2.630338e+02
2.620000e-06	4.775508e-06	4.047200e-09	3.506210e+01	2.640729e+02
2.630000e-06	4.827802e-06	4.060314e-09	3.544604e+01	2.651109e+02
2.640000e-06	4.879657e-06	4.069553e-09	3.582677e+01	2.661492e+02
2.650000e-06	4.931104e-06	4.081266e-09	3.620449e+01	2.671882e+02
2.660000e-06	4.982079e-06	4.097867e-09	3.657876e+01	2.682278e+02
2.670000e-06	5.032436e-06	4.117262e-09	3.694849e+01	2.692668e+02
2.680000e-06	5.082180e-06	4.134610e-09	3.731371e+01	2.703035e+02
2.690000e-06	5.131529e-06	4.149642e-09	3.767603e+01	2.713353e+02
2.700000e-06	5.180511e-06	4.164886e-09	3.803566e+01	2.723593e+02
2.710000e-06	5.228993e-06	4.180164e-09	3.839162e+01	2.733721e+02
2.720000e-06	5.277010e-06	4.192328e-09	3.874416e+01	2.743701e+02
2.730000e-06	5.324712e-06	4.200970e-09	3.909439e+01	2.753494e+02
2.740000e-06	5.372207e-06	4.212396e-09	3.944310e+01	2.763062e+02
2.750000e-06	5.419369e-06	4.225022e-09	3.978937e+01	2.772370e+02
2.760000e-06	5.466048e-06	4.236168e-09	4.013209e+01	2.781385e+02
2.770000e-06	5.512320e-06	4.248370e-09	4.047182e+01	2.790079e+02
2.780000e-06	5.558224e-06	4.262099e-09	4.080885e+01	2.798429e+02
2.790000e-06	5.603758e-06	4.277296e-09	4.114317e+01	2.806418e+02
2.800000e-06	5.648868e-06	4.290390e-09	4.147436e+01	2.814037e+02
2.810000e-06	5.693570e-06	4.298876e-09	4.180257e+01	2.821286e+02
2.820000e-06	5.737967e-06	4.306393e-09	4.212854e+01	2.828169e+02
2.830000e-06	5.782030e-06	4.318115e-09	4.245205e+01	2.834700e+02
2.840000e-06	5.825790e-06	4.330696e-09	4.277334e+01	2.840901e+02
2.850000e-06	5.869298e-06	4.339637e-09	4.309278e+01	2.846799e+02
2.860000e-06	5.912406e-06	4.348011e-09	4.340928e+01	2.852427e+02
2.870000e-06	5.954949e-06	4.360414e-09	4.372163e+01	2.857822e+02
2.880000e-06	5.996910e-06	4.374380e-09	4.402972e+01	2.863027e+02
2.890000e-06	6.038236e-06	4.384126e-09	4.433314e+01	2.868084e+02
2.900000e-06	6.078977e-06	4.391404e-09	4.463226e+01	2.873037e+02
