# Temperatura_=_20.0
# Concentracion g/m^3_=_9000.0
# C_Vs_to_Am_M_A/Vsm_=_65563218390.804596
# pendiente_HvsI_1/m_=_3716.3
# ordenada_HvsI_A/m_=_1297.0
# frecuencia_Hz_=_135474.68848639829

Tiempo_(s)	Campo_(V.s)	Magnetizacion_(V.s)	Campo_(kA/m)	Magnetizacion_(A/m)
0.000000e+00	-7.882928e-06	-4.838189e-09	-5.691024e+01	-3.103127e+02
1.000000e-08	-7.883138e-06	-4.836715e-09	-5.691176e+01	-3.104312e+02
2.000000e-08	-7.882924e-06	-4.835020e-09	-5.691021e+01	-3.105679e+02
3.000000e-08	-7.882092e-06	-4.837234e-09	-5.690421e+01	-3.107197e+02
4.000000e-08	-7.880573e-06	-4.839094e-09	-5.689324e+01	-3.108825e+02
5.000000e-08	-7.878217e-06	-4.837597e-09	-5.687623e+01	-3.110516e+02
6.000000e-08	-7.875095e-06	-4.834085e-09	-5.685369e+01	-3.112218e+02
7.000000e-08	-7.871485e-06	-4.821860e-09	-5.682763e+01	-3.113875e+02
8.000000e-08	-7.867561e-06	-4.790797e-09	-5.679930e+01	-3.115427e+02
9.000000e-08	-7.863249e-06	-4.790361e-09	-5.676817e+01	-3.116811e+02
1.000000e-07	-7.858260e-06	-4.892442e-09	-5.673215e+01	-3.117968e+02
1.100000e-07	-7.852333e-06	-5.002898e-09	-5.668937e+01	-3.118836e+02
1.200000e-07	-7.845438e-06	-4.937398e-09	-5.663959e+01	-3.119359e+02
1.300000e-07	-7.837978e-06	-4.655298e-09	-5.658573e+01	-3.119484e+02
1.400000e-07	-7.830309e-06	-4.564060e-09	-5.653037e+01	-3.119165e+02
1.500000e-07	-7.822413e-06	-4.900333e-09	-5.647336e+01	-3.118362e+02
1.600000e-07	-7.814177e-06	-5.106382e-09	-5.641390e+01	-3.117044e+02
1.700000e-07	-7.805449e-06	-4.780242e-09	-5.635089e+01	-3.115187e+02
1.800000e-07	-7.795966e-06	-4.550866e-09	-5.628243e+01	-3.112777e+02
1.900000e-07	-7.785533e-06	-4.722178e-09	-5.620711e+01	-3.109813e+02
2.000000e-07	-7.774286e-06	-4.957973e-09	-5.612591e+01	-3.106298e+02
2.100000e-07	-7.762593e-06	-4.987354e-09	-5.604150e+01	-3.102249e+02
2.200000e-07	-7.750429e-06	-4.784455e-09	-5.595367e+01	-3.097692e+02
2.300000e-07	-7.737480e-06	-4.562434e-09	-5.586019e+01	-3.092660e+02
2.400000e-07	-7.724038e-06	-4.733261e-09	-5.576315e+01	-3.087196e+02
2.500000e-07	-7.710298e-06	-5.117026e-09	-5.566395e+01	-3.081347e+02
2.600000e-07	-7.695562e-06	-4.914651e-09	-5.555757e+01	-3.075168e+02
2.700000e-07	-7.679531e-06	-4.396225e-09	-5.544183e+01	-3.068719e+02
2.800000e-07	-7.662919e-06	-4.510801e-09	-5.532191e+01	-3.062061e+02
2.900000e-07	-7.645993e-06	-4.887068e-09	-5.519971e+01	-3.055259e+02
3.000000e-07	-7.628530e-06	-4.613218e-09	-5.507364e+01	-3.048375e+02
3.100000e-07	-7.610651e-06	-4.222290e-09	-5.494456e+01	-3.041474e+02
3.200000e-07	-7.592373e-06	-4.433265e-09	-5.481260e+01	-3.034616e+02
3.300000e-07	-7.573419e-06	-4.649091e-09	-5.467576e+01	-3.027858e+02
3.400000e-07	-7.553877e-06	-4.486088e-09	-5.453468e+01	-3.021251e+02
3.500000e-07	-7.534067e-06	-4.451882e-09	-5.439167e+01	-3.014842e+02
3.600000e-07	-7.513945e-06	-4.429860e-09	-5.424640e+01	-3.008670e+02
3.700000e-07	-7.493344e-06	-4.315052e-09	-5.409767e+01	-3.002767e+02
3.800000e-07	-7.472210e-06	-4.462894e-09	-5.394509e+01	-2.997159e+02
3.900000e-07	-7.450577e-06	-4.655174e-09	-5.378892e+01	-2.991862e+02
4.000000e-07	-7.428373e-06	-4.393022e-09	-5.362861e+01	-2.986885e+02
4.100000e-07	-7.405462e-06	-4.205069e-09	-5.346321e+01	-2.982229e+02
4.200000e-07	-7.382047e-06	-4.524841e-09	-5.329417e+01	-2.977888e+02
4.300000e-07	-7.358361e-06	-4.710495e-09	-5.312317e+01	-2.973849e+02
4.400000e-07	-7.334275e-06	-4.374363e-09	-5.294928e+01	-2.970093e+02
4.500000e-07	-7.309513e-06	-4.218186e-09	-5.277052e+01	-2.966596e+02
4.600000e-07	-7.284173e-06	-4.537979e-09	-5.258757e+01	-2.963328e+02
4.700000e-07	-7.258164e-06	-4.637726e-09	-5.239981e+01	-2.960258e+02
4.800000e-07	-7.231241e-06	-4.359055e-09	-5.220544e+01	-2.957349e+02
4.900000e-07	-7.203755e-06	-4.302087e-09	-5.200700e+01	-2.954566e+02
5.000000e-07	-7.176007e-06	-4.486345e-09	-5.180667e+01	-2.951871e+02
5.100000e-07	-7.147895e-06	-4.497342e-09	-5.160373e+01	-2.949227e+02
5.200000e-07	-7.119233e-06	-4.422982e-09	-5.139680e+01	-2.946599e+02
5.300000e-07	-7.090045e-06	-4.401893e-09	-5.118608e+01	-2.943951e+02
5.400000e-07	-7.060365e-06	-4.380000e-09	-5.097181e+01	-2.941254e+02
5.500000e-07	-7.030198e-06	-4.419826e-09	-5.075402e+01	-2.938478e+02
5.600000e-07	-6.999543e-06	-4.495983e-09	-5.053271e+01	-2.935600e+02
5.700000e-07	-6.968387e-06	-4.415148e-09	-5.030778e+01	-2.932597e+02
5.800000e-07	-6.936839e-06	-4.314375e-09	-5.008002e+01	-2.929454e+02
5.900000e-07	-6.905046e-06	-4.378308e-09	-4.985049e+01	-2.926157e+02
6.000000e-07	-6.872930e-06	-4.469973e-09	-4.961863e+01	-2.922697e+02
6.100000e-07	-6.840213e-06	-4.408068e-09	-4.938243e+01	-2.919069e+02
6.200000e-07	-6.806759e-06	-4.306303e-09	-4.914091e+01	-2.915271e+02
6.300000e-07	-6.772584e-06	-4.326930e-09	-4.889419e+01	-2.911304e+02
6.400000e-07	-6.737724e-06	-4.422615e-09	-4.864252e+01	-2.907172e+02
6.500000e-07	-6.702325e-06	-4.402627e-09	-4.838697e+01	-2.902881e+02
6.600000e-07	-6.666596e-06	-4.296352e-09	-4.812902e+01	-2.898439e+02
6.700000e-07	-6.630561e-06	-4.295692e-09	-4.786886e+01	-2.893853e+02
6.800000e-07	-6.594095e-06	-4.372985e-09	-4.760561e+01	-2.889134e+02
6.900000e-07	-6.557092e-06	-4.355625e-09	-4.733847e+01	-2.884292e+02
7.000000e-07	-6.519521e-06	-4.287301e-09	-4.706722e+01	-2.879336e+02
7.100000e-07	-6.481485e-06	-4.286147e-09	-4.679262e+01	-2.874274e+02
7.200000e-07	-6.443015e-06	-4.313688e-09	-4.651489e+01	-2.869116e+02
7.300000e-07	-6.404061e-06	-4.316972e-09	-4.623367e+01	-2.863868e+02
7.400000e-07	-6.364696e-06	-4.304900e-09	-4.594948e+01	-2.858536e+02
7.500000e-07	-6.325048e-06	-4.270888e-09	-4.566324e+01	-2.853125e+02
7.600000e-07	-6.285136e-06	-4.250113e-09	-4.537510e+01	-2.847638e+02
7.700000e-07	-6.244922e-06	-4.281451e-09	-4.508477e+01	-2.842076e+02
7.800000e-07	-6.204301e-06	-4.290761e-09	-4.479151e+01	-2.836440e+02
7.900000e-07	-6.162973e-06	-4.232837e-09	-4.449315e+01	-2.830730e+02
8.000000e-07	-6.120897e-06	-4.200205e-09	-4.418938e+01	-2.824943e+02
8.100000e-07	-6.078157e-06	-4.242913e-09	-4.388083e+01	-2.819078e+02
8.200000e-07	-6.034830e-06	-4.259148e-09	-4.356803e+01	-2.813131e+02
8.300000e-07	-5.991209e-06	-4.207728e-09	-4.325311e+01	-2.807098e+02
8.400000e-07	-5.947329e-06	-4.169637e-09	-4.293632e+01	-2.800976e+02
8.500000e-07	-5.902998e-06	-4.194438e-09	-4.261628e+01	-2.794760e+02
8.600000e-07	-5.858274e-06	-4.212416e-09	-4.229339e+01	-2.788447e+02
8.700000e-07	-5.813177e-06	-4.176159e-09	-4.196782e+01	-2.782033e+02
8.800000e-07	-5.767667e-06	-4.132316e-09	-4.163927e+01	-2.775514e+02
8.900000e-07	-5.721764e-06	-4.136259e-09	-4.130787e+01	-2.768886e+02
9.000000e-07	-5.675437e-06	-4.153678e-09	-4.097342e+01	-2.762147e+02
9.100000e-07	-5.628755e-06	-4.140852e-09	-4.063640e+01	-2.755293e+02
9.200000e-07	-5.581705e-06	-4.109417e-09	-4.029672e+01	-2.748322e+02
9.300000e-07	-5.534252e-06	-4.093544e-09	-3.995414e+01	-2.741231e+02
9.400000e-07	-5.486491e-06	-4.097097e-09	-3.960934e+01	-2.734016e+02
9.500000e-07	-5.438345e-06	-4.101921e-09	-3.926175e+01	-2.726676e+02
9.600000e-07	-5.389622e-06	-4.083874e-09	-3.891000e+01	-2.719207e+02
9.700000e-07	-5.340304e-06	-4.050051e-09	-3.855395e+01	-2.711605e+02
9.800000e-07	-5.290338e-06	-4.036123e-09	-3.819322e+01	-2.703866e+02
9.900000e-07	-5.239754e-06	-4.045347e-09	-3.782803e+01	-2.695986e+02
1.000000e-06	-5.188723e-06	-4.034160e-09	-3.745962e+01	-2.687960e+02
1.010000e-06	-5.137355e-06	-3.996609e-09	-3.708877e+01	-2.679783e+02
1.020000e-06	-5.085658e-06	-3.977416e-09	-3.671555e+01	-2.671449e+02
1.030000e-06	-5.033574e-06	-3.984311e-09	-3.633953e+01	-2.662951e+02
1.040000e-06	-4.981101e-06	-3.978709e-09	-3.596070e+01	-2.654284e+02
1.050000e-06	-4.928249e-06	-3.951389e-09	-3.557914e+01	-2.645440e+02
1.060000e-06	-4.875032e-06	-3.929312e-09	-3.519495e+01	-2.636412e+02
1.070000e-06	-4.821484e-06	-3.921348e-09	-3.480836e+01	-2.627196e+02
1.080000e-06	-4.767584e-06	-3.914057e-09	-3.441924e+01	-2.617785e+02
1.090000e-06	-4.713313e-06	-3.897566e-09	-3.402743e+01	-2.608174e+02
1.100000e-06	-4.658675e-06	-3.877363e-09	-3.363297e+01	-2.598359e+02
1.110000e-06	-4.603664e-06	-3.859753e-09	-3.323583e+01	-2.588338e+02
1.120000e-06	-4.548363e-06	-3.849601e-09	-3.283659e+01	-2.578108e+02
1.130000e-06	-4.492896e-06	-3.838881e-09	-3.243614e+01	-2.567670e+02
1.140000e-06	-4.437265e-06	-3.820236e-09	-3.203452e+01	-2.557025e+02
1.150000e-06	-4.381362e-06	-3.798291e-09	-3.163094e+01	-2.546176e+02
1.160000e-06	-4.325195e-06	-3.784528e-09	-3.122544e+01	-2.535126e+02
1.170000e-06	-4.268829e-06	-3.773946e-09	-3.081851e+01	-2.523882e+02
1.180000e-06	-4.212180e-06	-3.756337e-09	-3.040953e+01	-2.512450e+02
1.190000e-06	-4.155111e-06	-3.735864e-09	-2.999753e+01	-2.500838e+02
1.200000e-06	-4.097522e-06	-3.721028e-09	-2.958177e+01	-2.489054e+02
1.210000e-06	-4.039404e-06	-3.705524e-09	-2.916219e+01	-2.477107e+02
1.220000e-06	-3.980827e-06	-3.685715e-09	-2.873930e+01	-2.465004e+02
1.230000e-06	-3.921916e-06	-3.665557e-09	-2.831399e+01	-2.452754e+02
1.240000e-06	-3.862724e-06	-3.647503e-09	-2.788666e+01	-2.440363e+02
1.250000e-06	-3.803222e-06	-3.628181e-09	-2.745709e+01	-2.427836e+02
1.260000e-06	-3.743466e-06	-3.606392e-09	-2.702569e+01	-2.415176e+02
1.270000e-06	-3.683558e-06	-3.581994e-09	-2.659319e+01	-2.402383e+02
1.280000e-06	-3.623543e-06	-3.559739e-09	-2.615991e+01	-2.389456e+02
1.290000e-06	-3.563343e-06	-3.538055e-09	-2.572530e+01	-2.376388e+02
1.300000e-06	-3.502814e-06	-3.515373e-09	-2.528832e+01	-2.363173e+02
1.310000e-06	-3.442065e-06	-3.493123e-09	-2.484974e+01	-2.349797e+02
1.320000e-06	-3.381172e-06	-3.472433e-09	-2.441013e+01	-2.336245e+02
1.330000e-06	-3.320012e-06	-3.457087e-09	-2.396859e+01	-2.322498e+02
1.340000e-06	-3.258623e-06	-3.438643e-09	-2.352540e+01	-2.308535e+02
1.350000e-06	-3.197078e-06	-3.412216e-09	-2.308108e+01	-2.294331e+02
1.360000e-06	-3.135342e-06	-3.380422e-09	-2.263538e+01	-2.279858e+02
1.370000e-06	-3.073355e-06	-3.353282e-09	-2.218787e+01	-2.265086e+02
1.380000e-06	-3.011081e-06	-3.333222e-09	-2.173828e+01	-2.249986e+02
1.390000e-06	-2.948458e-06	-3.309444e-09	-2.128618e+01	-2.234525e+02
1.400000e-06	-2.885547e-06	-3.279502e-09	-2.083200e+01	-2.218671e+02
1.410000e-06	-2.822489e-06	-3.254500e-09	-2.037676e+01	-2.202394e+02
1.420000e-06	-2.759289e-06	-3.236152e-09	-1.992049e+01	-2.185664e+02
1.430000e-06	-2.695980e-06	-3.215573e-09	-1.946344e+01	-2.168452e+02
1.440000e-06	-2.632614e-06	-3.186595e-09	-1.900597e+01	-2.150732e+02
1.450000e-06	-2.569145e-06	-3.154662e-09	-1.854776e+01	-2.132483e+02
1.460000e-06	-2.505576e-06	-3.126300e-09	-1.808883e+01	-2.113684e+02
1.470000e-06	-2.441948e-06	-3.099405e-09	-1.762947e+01	-2.094319e+02
1.480000e-06	-2.378228e-06	-3.067382e-09	-1.716945e+01	-2.074375e+02
1.490000e-06	-2.314327e-06	-3.032065e-09	-1.670812e+01	-2.053845e+02
1.500000e-06	-2.250217e-06	-3.000576e-09	-1.624528e+01	-2.032721e+02
1.510000e-06	-2.185935e-06	-2.975011e-09	-1.578120e+01	-2.011001e+02
1.520000e-06	-2.121462e-06	-2.946492e-09	-1.531574e+01	-1.988683e+02
1.530000e-06	-2.056761e-06	-2.909308e-09	-1.484864e+01	-1.965768e+02
1.540000e-06	-1.991936e-06	-2.870990e-09	-1.438064e+01	-1.942255e+02
1.550000e-06	-1.926987e-06	-2.837445e-09	-1.391175e+01	-1.918143e+02
1.560000e-06	-1.861811e-06	-2.803534e-09	-1.344121e+01	-1.893429e+02
1.570000e-06	-1.796431e-06	-2.763444e-09	-1.296921e+01	-1.868107e+02
1.580000e-06	-1.730842e-06	-2.719881e-09	-1.249569e+01	-1.842166e+02
1.590000e-06	-1.665039e-06	-2.677504e-09	-1.202063e+01	-1.815586e+02
1.600000e-06	-1.599105e-06	-2.637955e-09	-1.154463e+01	-1.788344e+02
1.610000e-06	-1.533068e-06	-2.599109e-09	-1.106788e+01	-1.760405e+02
1.620000e-06	-1.466883e-06	-2.556839e-09	-1.059006e+01	-1.731725e+02
1.630000e-06	-1.400509e-06	-2.510222e-09	-1.011087e+01	-1.702250e+02
1.640000e-06	-1.333999e-06	-2.462680e-09	-9.630709e+00	-1.671913e+02
1.650000e-06	-1.267349e-06	-2.415177e-09	-9.149540e+00	-1.640639e+02
1.660000e-06	-1.200534e-06	-2.364292e-09	-8.667169e+00	-1.608338e+02
1.670000e-06	-1.133666e-06	-2.306916e-09	-8.184422e+00	-1.574909e+02
1.680000e-06	-1.066705e-06	-2.248620e-09	-7.701003e+00	-1.540242e+02
1.690000e-06	-9.996613e-07	-2.192260e-09	-7.216984e+00	-1.504216e+02
1.700000e-06	-9.326128e-07	-2.134030e-09	-6.732933e+00	-1.466703e+02
1.710000e-06	-8.655599e-07	-2.072027e-09	-6.248848e+00	-1.427567e+02
1.720000e-06	-7.984410e-07	-2.010499e-09	-5.764288e+00	-1.386670e+02
1.730000e-06	-7.312550e-07	-1.946468e-09	-5.279244e+00	-1.343870e+02
1.740000e-06	-6.640606e-07	-1.878318e-09	-4.794138e+00	-1.299027e+02
1.750000e-06	-5.967977e-07	-1.807827e-09	-4.308539e+00	-1.252003e+02
1.760000e-06	-5.295006e-07	-1.735435e-09	-3.822692e+00	-1.202670e+02
1.770000e-06	-4.621814e-07	-1.660980e-09	-3.336686e+00	-1.150908e+02
1.780000e-06	-3.948261e-07	-1.581776e-09	-2.850420e+00	-1.096609e+02
1.790000e-06	-3.274476e-07	-1.498550e-09	-2.363985e+00	-1.039685e+02
1.800000e-06	-2.600837e-07	-1.411466e-09	-1.877656e+00	-9.800646e+01
1.810000e-06	-1.927356e-07	-1.319763e-09	-1.391441e+00	-9.177001e+01
1.820000e-06	-1.253368e-07	-1.223002e-09	-9.048605e-01	-8.525684e+01
1.830000e-06	-5.791918e-08	-1.122556e-09	-4.181434e-01	-7.846739e+01
1.840000e-06	9.456402e-09	-1.019523e-09	6.826983e-02	-7.140502e+01
1.850000e-06	7.677509e-08	-9.098125e-10	5.542723e-01	-6.407614e+01
1.860000e-06	1.440755e-07	-7.957076e-10	1.040143e+00	-5.649029e+01
1.870000e-06	2.114022e-07	-6.803260e-10	1.526203e+00	-4.866020e+01
1.880000e-06	2.787610e-07	-5.588988e-10	2.012495e+00	-4.060173e+01
1.890000e-06	3.461126e-07	-4.298773e-10	2.498736e+00	-3.233384e+01
1.900000e-06	4.134320e-07	-2.979169e-10	2.984743e+00	-2.387836e+01
1.910000e-06	4.807600e-07	-1.648878e-10	3.470813e+00	-1.525986e+01
1.920000e-06	5.481273e-07	-2.773108e-11	3.957166e+00	-6.505353e+00
1.930000e-06	6.154608e-07	1.130975e-10	4.443276e+00	2.356009e+00
1.940000e-06	6.827119e-07	2.544640e-10	4.928790e+00	1.129329e+01
1.950000e-06	7.499215e-07	3.940478e-10	5.414006e+00	2.027418e+01
1.960000e-06	8.171179e-07	5.349749e-10	5.899125e+00	2.926541e+01
1.970000e-06	8.842457e-07	6.773477e-10	6.383749e+00	3.823321e+01
1.980000e-06	9.512559e-07	8.187617e-10	6.867525e+00	4.714379e+01
1.990000e-06	1.018178e-06	9.560824e-10	7.350663e+00	5.596381e+01
2.000000e-06	1.085070e-06	1.089040e-09	7.833586e+00	6.466085e+01
2.010000e-06	1.151919e-06	1.219867e-09	8.316198e+00	7.320386e+01
2.020000e-06	1.218724e-06	1.349810e-09	8.798489e+00	8.156360e+01
2.030000e-06	1.285493e-06	1.476987e-09	9.280529e+00	8.971304e+01
2.040000e-06	1.352140e-06	1.596960e-09	9.761679e+00	9.762774e+01
2.050000e-06	1.418633e-06	1.710134e-09	1.024172e+01	1.052861e+02
2.060000e-06	1.485072e-06	1.819949e-09	1.072137e+01	1.126697e+02
2.070000e-06	1.551406e-06	1.923890e-09	1.120027e+01	1.197635e+02
2.080000e-06	1.617544e-06	2.016952e-09	1.167774e+01	1.265558e+02
2.090000e-06	1.683559e-06	2.103208e-09	1.215433e+01	1.330386e+02
2.100000e-06	1.749388e-06	2.190156e-09	1.262958e+01	1.392072e+02
2.110000e-06	1.814921e-06	2.276598e-09	1.310270e+01	1.450608e+02
2.120000e-06	1.880200e-06	2.356035e-09	1.357397e+01	1.506016e+02
2.130000e-06	1.945301e-06	2.431731e-09	1.404397e+01	1.558350e+02
2.140000e-06	2.010173e-06	2.509228e-09	1.451230e+01	1.607696e+02
2.150000e-06	2.074820e-06	2.585067e-09	1.497901e+01	1.654163e+02
2.160000e-06	2.139316e-06	2.653424e-09	1.544464e+01	1.697886e+02
2.170000e-06	2.203576e-06	2.715309e-09	1.590856e+01	1.739017e+02
2.180000e-06	2.267643e-06	2.775438e-09	1.637109e+01	1.777727e+02
2.190000e-06	2.331558e-06	2.832651e-09	1.683252e+01	1.814196e+02
2.200000e-06	2.395319e-06	2.885236e-09	1.729284e+01	1.848613e+02
2.210000e-06	2.459027e-06	2.933767e-09	1.775277e+01	1.881169e+02
2.220000e-06	2.522614e-06	2.980500e-09	1.821183e+01	1.912057e+02
2.230000e-06	2.586101e-06	3.028946e-09	1.867018e+01	1.941466e+02
2.240000e-06	2.649498e-06	3.076514e-09	1.912787e+01	1.969575e+02
2.250000e-06	2.712732e-06	3.120151e-09	1.958438e+01	1.996557e+02
2.260000e-06	2.775784e-06	3.161208e-09	2.003958e+01	2.022568e+02
2.270000e-06	2.838565e-06	3.201203e-09	2.049282e+01	2.047751e+02
2.280000e-06	2.901107e-06	3.237778e-09	2.094434e+01	2.072234e+02
2.290000e-06	2.963544e-06	3.268810e-09	2.139510e+01	2.096123e+02
2.300000e-06	3.025857e-06	3.297956e-09	2.184496e+01	2.119510e+02
2.310000e-06	3.087928e-06	3.331920e-09	2.229308e+01	2.142465e+02
2.320000e-06	3.149751e-06	3.366927e-09	2.273940e+01	2.165043e+02
2.330000e-06	3.211372e-06	3.398186e-09	2.318428e+01	2.187279e+02
2.340000e-06	3.272844e-06	3.426905e-09	2.362807e+01	2.209194e+02
2.350000e-06	3.334101e-06	3.455309e-09	2.407031e+01	2.230793e+02
2.360000e-06	3.395088e-06	3.484219e-09	2.451060e+01	2.252069e+02
2.370000e-06	3.455877e-06	3.511423e-09	2.494946e+01	2.273005e+02
2.380000e-06	3.516373e-06	3.536368e-09	2.538620e+01	2.293576e+02
2.390000e-06	3.576584e-06	3.561212e-09	2.582089e+01	2.313751e+02
2.400000e-06	3.636562e-06	3.587337e-09	2.625390e+01	2.333494e+02
2.410000e-06	3.696263e-06	3.613534e-09	2.668491e+01	2.352770e+02
2.420000e-06	3.755818e-06	3.636743e-09	2.711486e+01	2.371545e+02
2.430000e-06	3.815261e-06	3.657921e-09	2.754401e+01	2.389786e+02
2.440000e-06	3.874484e-06	3.680243e-09	2.797157e+01	2.407466e+02
2.450000e-06	3.933480e-06	3.702059e-09	2.839748e+01	2.424566e+02
2.460000e-06	3.992116e-06	3.720936e-09	2.882080e+01	2.441071e+02
2.470000e-06	4.050329e-06	3.738149e-09	2.924107e+01	2.456976e+02
2.480000e-06	4.108101e-06	3.758131e-09	2.965815e+01	2.472284e+02
2.490000e-06	4.165373e-06	3.779456e-09	3.007162e+01	2.487009e+02
2.500000e-06	4.222249e-06	3.799677e-09	3.048223e+01	2.501170e+02
2.510000e-06	4.278742e-06	3.817416e-09	3.089007e+01	2.514797e+02
2.520000e-06	4.334855e-06	3.835882e-09	3.129518e+01	2.527925e+02
2.530000e-06	4.390687e-06	3.855663e-09	3.169826e+01	2.540596e+02
2.540000e-06	4.446289e-06	3.873825e-09	3.209967e+01	2.552857e+02
2.550000e-06	4.501654e-06	3.891266e-09	3.249937e+01	2.564759e+02
2.560000e-06	4.556852e-06	3.908397e-09	3.289787e+01	2.576352e+02
2.570000e-06	4.611837e-06	3.927770e-09	3.329483e+01	2.587689e+02
2.580000e-06	4.666446e-06	3.949102e-09	3.368908e+01	2.598821e+02
2.590000e-06	4.720710e-06	3.967692e-09	3.408083e+01	2.609796e+02
2.600000e-06	4.774664e-06	3.982832e-09	3.447035e+01	2.620658e+02
2.610000e-06	4.828277e-06	3.995678e-09	3.485740e+01	2.631444e+02
2.620000e-06	4.881598e-06	4.007818e-09	3.524235e+01	2.642187e+02
2.630000e-06	4.934595e-06	4.019587e-09	3.562496e+01	2.652910e+02
2.640000e-06	4.987169e-06	4.031260e-09	3.600452e+01	2.663630e+02
2.650000e-06	5.039283e-06	4.044815e-09	3.638074e+01	2.674357e+02
2.660000e-06	5.090931e-06	4.061317e-09	3.675362e+01	2.685089e+02
2.670000e-06	5.142156e-06	4.079518e-09	3.712343e+01	2.695819e+02
2.680000e-06	5.192981e-06	4.095450e-09	3.749036e+01	2.706532e+02
2.690000e-06	5.243402e-06	4.109185e-09	3.785437e+01	2.717207e+02
2.700000e-06	5.293240e-06	4.122010e-09	3.821417e+01	2.727817e+02
2.710000e-06	5.342388e-06	4.132756e-09	3.856900e+01	2.738328e+02
2.720000e-06	5.390936e-06	4.142610e-09	3.891949e+01	2.748708e+02
2.730000e-06	5.439039e-06	4.153633e-09	3.926676e+01	2.758918e+02
2.740000e-06	5.486832e-06	4.166522e-09	3.961180e+01	2.768922e+02
2.750000e-06	5.534321e-06	4.179644e-09	3.995464e+01	2.778683e+02
2.760000e-06	5.581523e-06	4.193127e-09	4.029541e+01	2.788168e+02
2.770000e-06	5.628379e-06	4.207104e-09	4.063369e+01	2.797345e+02
2.780000e-06	5.674786e-06	4.221779e-09	4.096872e+01	2.806190e+02
2.790000e-06	5.720755e-06	4.236760e-09	4.130058e+01	2.814682e+02
2.800000e-06	5.766351e-06	4.248109e-09	4.162976e+01	2.822808e+02
2.810000e-06	5.811633e-06	4.256882e-09	4.195668e+01	2.830562e+02
2.820000e-06	5.856507e-06	4.266279e-09	4.228064e+01	2.837943e+02
2.830000e-06	5.900958e-06	4.276489e-09	4.260155e+01	2.844960e+02
2.840000e-06	5.945115e-06	4.287120e-09	4.292034e+01	2.851629e+02
2.850000e-06	5.989035e-06	4.297622e-09	4.323742e+01	2.857970e+02
2.860000e-06	6.032700e-06	4.309469e-09	4.355265e+01	2.864012e+02
2.870000e-06	6.076065e-06	4.322893e-09	4.386572e+01	2.869787e+02
2.880000e-06	6.118964e-06	4.334615e-09	4.417543e+01	2.875333e+02
2.890000e-06	6.161141e-06	4.345173e-09	4.447992e+01	2.880691e+02
2.900000e-06	6.202552e-06	4.354220e-09	4.477888e+01	2.885901e+02
