# Temperatura_=_20.0
# Concentracion g/m^3_=_9000.0
# C_Vs_to_Am_M_A/Vsm_=_65563218390.804596
# pendiente_HvsI_1/m_=_3716.3
# ordenada_HvsI_A/m_=_1297.0
# frecuencia_Hz_=_135479.61974597425

Tiempo_(s)	Campo_(V.s)	Magnetizacion_(V.s)	Campo_(kA/m)	Magnetizacion_(A/m)
0.000000e+00	-7.784333e-06	-4.558768e-09	-5.690702e+01	-3.030268e+02
1.000000e-08	-7.784592e-06	-4.555544e-09	-5.690892e+01	-3.032755e+02
2.000000e-08	-7.784460e-06	-4.555166e-09	-5.690795e+01	-3.035281e+02
3.000000e-08	-7.783764e-06	-4.556337e-09	-5.690286e+01	-3.037745e+02
4.000000e-08	-7.782293e-06	-4.556103e-09	-5.689210e+01	-3.040038e+02
5.000000e-08	-7.780033e-06	-4.553164e-09	-5.687558e+01	-3.042043e+02
6.000000e-08	-7.777088e-06	-4.549812e-09	-5.685405e+01	-3.043640e+02
7.000000e-08	-7.773556e-06	-4.543415e-09	-5.682823e+01	-3.044711e+02
8.000000e-08	-7.769650e-06	-4.525373e-09	-5.679968e+01	-3.045136e+02
9.000000e-08	-7.765326e-06	-4.516808e-09	-5.676807e+01	-3.044804e+02
1.000000e-07	-7.760389e-06	-4.569558e-09	-5.673198e+01	-3.043612e+02
1.100000e-07	-7.754669e-06	-4.647036e-09	-5.669016e+01	-3.041467e+02
1.200000e-07	-7.748086e-06	-4.629402e-09	-5.664204e+01	-3.038290e+02
1.300000e-07	-7.740780e-06	-4.455398e-09	-5.658863e+01	-3.034020e+02
1.400000e-07	-7.733127e-06	-4.342694e-09	-5.653268e+01	-3.028611e+02
1.500000e-07	-7.725381e-06	-4.488902e-09	-5.647605e+01	-3.022039e+02
1.600000e-07	-7.717377e-06	-4.723094e-09	-5.641754e+01	-3.014298e+02
1.700000e-07	-7.708931e-06	-4.617052e-09	-5.635580e+01	-3.005407e+02
1.800000e-07	-7.699735e-06	-4.392630e-09	-5.628857e+01	-2.995403e+02
1.900000e-07	-7.689620e-06	-4.442745e-09	-5.621462e+01	-2.984345e+02
2.000000e-07	-7.678669e-06	-4.641556e-09	-5.613457e+01	-2.972311e+02
2.100000e-07	-7.667195e-06	-4.725042e-09	-5.605069e+01	-2.959399e+02
2.200000e-07	-7.655319e-06	-4.601682e-09	-5.596387e+01	-2.945721e+02
2.300000e-07	-7.642643e-06	-4.393713e-09	-5.587120e+01	-2.931406e+02
2.400000e-07	-7.629289e-06	-4.414636e-09	-5.577358e+01	-2.916592e+02
2.500000e-07	-7.615576e-06	-4.655273e-09	-5.567333e+01	-2.901428e+02
2.600000e-07	-7.601091e-06	-4.629300e-09	-5.556744e+01	-2.886067e+02
2.700000e-07	-7.585456e-06	-4.237469e-09	-5.545314e+01	-2.870665e+02
2.800000e-07	-7.569038e-06	-4.170954e-09	-5.533311e+01	-2.855377e+02
2.900000e-07	-7.552238e-06	-4.448664e-09	-5.521030e+01	-2.840354e+02
3.000000e-07	-7.534988e-06	-4.400487e-09	-5.508419e+01	-2.825739e+02
3.100000e-07	-7.517264e-06	-4.096779e-09	-5.495463e+01	-2.811667e+02
3.200000e-07	-7.499124e-06	-4.123274e-09	-5.482201e+01	-2.798258e+02
3.300000e-07	-7.480423e-06	-4.309825e-09	-5.468530e+01	-2.785618e+02
3.400000e-07	-7.461168e-06	-4.279204e-09	-5.454454e+01	-2.773836e+02
3.500000e-07	-7.441580e-06	-4.217013e-09	-5.440134e+01	-2.762983e+02
3.600000e-07	-7.421666e-06	-4.172005e-09	-5.425576e+01	-2.753110e+02
3.700000e-07	-7.401226e-06	-4.117584e-09	-5.410633e+01	-2.744249e+02
3.800000e-07	-7.380318e-06	-4.180950e-09	-5.395349e+01	-2.736410e+02
3.900000e-07	-7.359009e-06	-4.343794e-09	-5.379771e+01	-2.729585e+02
4.000000e-07	-7.337104e-06	-4.229575e-09	-5.363757e+01	-2.723747e+02
4.100000e-07	-7.314518e-06	-4.071249e-09	-5.347246e+01	-2.718851e+02
4.200000e-07	-7.291426e-06	-4.218543e-09	-5.330364e+01	-2.714837e+02
4.300000e-07	-7.268009e-06	-4.391548e-09	-5.313245e+01	-2.711631e+02
4.400000e-07	-7.244202e-06	-4.241735e-09	-5.295842e+01	-2.709145e+02
4.500000e-07	-7.219913e-06	-4.074236e-09	-5.278085e+01	-2.707286e+02
4.600000e-07	-7.195119e-06	-4.188999e-09	-5.259960e+01	-2.705952e+02
4.700000e-07	-7.169671e-06	-4.338822e-09	-5.241356e+01	-2.705036e+02
4.800000e-07	-7.143346e-06	-4.225514e-09	-5.222111e+01	-2.704432e+02
4.900000e-07	-7.116262e-06	-4.103530e-09	-5.202312e+01	-2.704033e+02
5.000000e-07	-7.088743e-06	-4.189161e-09	-5.182194e+01	-2.703738e+02
5.100000e-07	-7.060840e-06	-4.272320e-09	-5.161796e+01	-2.703450e+02
5.200000e-07	-7.032504e-06	-4.211310e-09	-5.141081e+01	-2.703081e+02
5.300000e-07	-7.003832e-06	-4.170685e-09	-5.120120e+01	-2.702551e+02
5.400000e-07	-6.974679e-06	-4.173927e-09	-5.098808e+01	-2.701791e+02
5.500000e-07	-6.944960e-06	-4.174592e-09	-5.077083e+01	-2.700745e+02
5.600000e-07	-6.914772e-06	-4.210899e-09	-5.055014e+01	-2.699369e+02
5.700000e-07	-6.884077e-06	-4.203635e-09	-5.032574e+01	-2.697630e+02
5.800000e-07	-6.852921e-06	-4.119795e-09	-5.009797e+01	-2.695510e+02
5.900000e-07	-6.821389e-06	-4.111998e-09	-4.986746e+01	-2.692999e+02
6.000000e-07	-6.789602e-06	-4.194158e-09	-4.963508e+01	-2.690102e+02
6.100000e-07	-6.757465e-06	-4.184942e-09	-4.940015e+01	-2.686834e+02
6.200000e-07	-6.724744e-06	-4.101281e-09	-4.916094e+01	-2.683216e+02
6.300000e-07	-6.691286e-06	-4.091085e-09	-4.891635e+01	-2.679278e+02
6.400000e-07	-6.657087e-06	-4.152833e-09	-4.866634e+01	-2.675058e+02
6.500000e-07	-6.622272e-06	-4.154704e-09	-4.841183e+01	-2.670594e+02
6.600000e-07	-6.586972e-06	-4.093386e-09	-4.815377e+01	-2.665931e+02
6.700000e-07	-6.551319e-06	-4.066511e-09	-4.789313e+01	-2.661111e+02
6.800000e-07	-6.515300e-06	-4.109707e-09	-4.762981e+01	-2.656177e+02
6.900000e-07	-6.478810e-06	-4.118169e-09	-4.736305e+01	-2.651172e+02
7.000000e-07	-6.441817e-06	-4.075185e-09	-4.709262e+01	-2.646131e+02
7.100000e-07	-6.404322e-06	-4.052642e-09	-4.681851e+01	-2.641087e+02
7.200000e-07	-6.366357e-06	-4.072435e-09	-4.654097e+01	-2.636070e+02
7.300000e-07	-6.327961e-06	-4.076519e-09	-4.626028e+01	-2.631098e+02
7.400000e-07	-6.289075e-06	-4.065131e-09	-4.597600e+01	-2.626188e+02
7.500000e-07	-6.249806e-06	-4.043168e-09	-4.568893e+01	-2.621348e+02
7.600000e-07	-6.210331e-06	-4.026465e-09	-4.540035e+01	-2.616579e+02
7.700000e-07	-6.170585e-06	-4.035024e-09	-4.510979e+01	-2.611876e+02
7.800000e-07	-6.130502e-06	-4.048336e-09	-4.481676e+01	-2.607230e+02
7.900000e-07	-6.089941e-06	-4.015976e-09	-4.452025e+01	-2.602624e+02
8.000000e-07	-6.048737e-06	-3.979920e-09	-4.421902e+01	-2.598039e+02
8.100000e-07	-6.006864e-06	-3.994676e-09	-4.391291e+01	-2.593451e+02
8.200000e-07	-5.964302e-06	-4.011862e-09	-4.360177e+01	-2.588835e+02
8.300000e-07	-5.921164e-06	-3.979051e-09	-4.328641e+01	-2.584164e+02
8.400000e-07	-5.877654e-06	-3.944343e-09	-4.296833e+01	-2.579410e+02
8.500000e-07	-5.833862e-06	-3.952084e-09	-4.264819e+01	-2.574546e+02
8.600000e-07	-5.789733e-06	-3.965771e-09	-4.232559e+01	-2.569547e+02
8.700000e-07	-5.745234e-06	-3.946619e-09	-4.200028e+01	-2.564390e+02
8.800000e-07	-5.700346e-06	-3.913373e-09	-4.167212e+01	-2.559055e+02
8.900000e-07	-5.655098e-06	-3.905962e-09	-4.134135e+01	-2.553525e+02
9.000000e-07	-5.609494e-06	-3.913231e-09	-4.100796e+01	-2.547786e+02
9.100000e-07	-5.563435e-06	-3.908525e-09	-4.067124e+01	-2.541831e+02
9.200000e-07	-5.516966e-06	-3.884071e-09	-4.033153e+01	-2.535655e+02
9.300000e-07	-5.470126e-06	-3.865426e-09	-3.998912e+01	-2.529256e+02
9.400000e-07	-5.422868e-06	-3.862308e-09	-3.964364e+01	-2.522638e+02
9.500000e-07	-5.375289e-06	-3.865361e-09	-3.929581e+01	-2.515807e+02
9.600000e-07	-5.327446e-06	-3.852456e-09	-3.894606e+01	-2.508772e+02
9.700000e-07	-5.279194e-06	-3.830088e-09	-3.859332e+01	-2.501544e+02
9.800000e-07	-5.230345e-06	-3.816429e-09	-3.823621e+01	-2.494136e+02
9.900000e-07	-5.180869e-06	-3.818682e-09	-3.787451e+01	-2.486562e+02
1.000000e-06	-5.130853e-06	-3.810877e-09	-3.750887e+01	-2.478836e+02
1.010000e-06	-5.080301e-06	-3.785937e-09	-3.713932e+01	-2.470972e+02
1.020000e-06	-5.029260e-06	-3.765510e-09	-3.676618e+01	-2.462983e+02
1.030000e-06	-4.977818e-06	-3.764167e-09	-3.639012e+01	-2.454879e+02
1.040000e-06	-4.926004e-06	-3.756374e-09	-3.601134e+01	-2.446669e+02
1.050000e-06	-4.873860e-06	-3.734339e-09	-3.563014e+01	-2.438362e+02
1.060000e-06	-4.821321e-06	-3.715512e-09	-3.524605e+01	-2.429960e+02
1.070000e-06	-4.768355e-06	-3.711275e-09	-3.485884e+01	-2.421467e+02
1.080000e-06	-4.715011e-06	-3.707213e-09	-3.446888e+01	-2.412880e+02
1.090000e-06	-4.661308e-06	-3.693041e-09	-3.407629e+01	-2.404196e+02
1.100000e-06	-4.607328e-06	-3.674552e-09	-3.368167e+01	-2.395409e+02
1.110000e-06	-4.552994e-06	-3.658014e-09	-3.328446e+01	-2.386513e+02
1.120000e-06	-4.498269e-06	-3.646366e-09	-3.288440e+01	-2.377497e+02
1.130000e-06	-4.443273e-06	-3.632618e-09	-3.248235e+01	-2.368350e+02
1.140000e-06	-4.388094e-06	-3.613070e-09	-3.207896e+01	-2.359062e+02
1.150000e-06	-4.332729e-06	-3.595954e-09	-3.167422e+01	-2.349621e+02
1.160000e-06	-4.277122e-06	-3.584677e-09	-3.126771e+01	-2.340016e+02
1.170000e-06	-4.221301e-06	-3.574927e-09	-3.085964e+01	-2.330237e+02
1.180000e-06	-4.165281e-06	-3.559795e-09	-3.045010e+01	-2.320273e+02
1.190000e-06	-4.109002e-06	-3.540192e-09	-3.003868e+01	-2.310117e+02
1.200000e-06	-4.052325e-06	-3.522299e-09	-2.962434e+01	-2.299763e+02
1.210000e-06	-3.995205e-06	-3.503304e-09	-2.920677e+01	-2.289205e+02
1.220000e-06	-3.937698e-06	-3.483454e-09	-2.878637e+01	-2.278441e+02
1.230000e-06	-3.879755e-06	-3.463127e-09	-2.836277e+01	-2.267469e+02
1.240000e-06	-3.821350e-06	-3.445276e-09	-2.793581e+01	-2.256288e+02
1.250000e-06	-3.762504e-06	-3.426422e-09	-2.750562e+01	-2.244901e+02
1.260000e-06	-3.703342e-06	-3.407921e-09	-2.707312e+01	-2.233310e+02
1.270000e-06	-3.644002e-06	-3.387496e-09	-2.663931e+01	-2.221515e+02
1.280000e-06	-3.584445e-06	-3.367922e-09	-2.620393e+01	-2.209521e+02
1.290000e-06	-3.524682e-06	-3.347042e-09	-2.576703e+01	-2.197328e+02
1.300000e-06	-3.464804e-06	-3.324821e-09	-2.532929e+01	-2.184937e+02
1.310000e-06	-3.404777e-06	-3.303441e-09	-2.489047e+01	-2.172346e+02
1.320000e-06	-3.344514e-06	-3.284509e-09	-2.444992e+01	-2.159554e+02
1.330000e-06	-3.284104e-06	-3.263381e-09	-2.400829e+01	-2.146553e+02
1.340000e-06	-3.223540e-06	-3.239243e-09	-2.356554e+01	-2.133337e+02
1.350000e-06	-3.162695e-06	-3.214879e-09	-2.312074e+01	-2.119893e+02
1.360000e-06	-3.101618e-06	-3.190693e-09	-2.267424e+01	-2.106208e+02
1.370000e-06	-3.040373e-06	-3.165314e-09	-2.222651e+01	-2.092264e+02
1.380000e-06	-2.978872e-06	-3.142629e-09	-2.177691e+01	-2.078042e+02
1.390000e-06	-2.917121e-06	-3.120259e-09	-2.132549e+01	-2.063517e+02
1.400000e-06	-2.855231e-06	-3.096337e-09	-2.087304e+01	-2.048667e+02
1.410000e-06	-2.793134e-06	-3.071481e-09	-2.041908e+01	-2.033463e+02
1.420000e-06	-2.730780e-06	-3.047260e-09	-1.996325e+01	-2.017878e+02
1.430000e-06	-2.668253e-06	-3.022542e-09	-1.950615e+01	-2.001883e+02
1.440000e-06	-2.605581e-06	-2.994767e-09	-1.904798e+01	-1.985448e+02
1.450000e-06	-2.542791e-06	-2.963571e-09	-1.858896e+01	-1.968547e+02
1.460000e-06	-2.479855e-06	-2.934438e-09	-1.812887e+01	-1.951150e+02
1.470000e-06	-2.416724e-06	-2.908773e-09	-1.766735e+01	-1.933233e+02
1.480000e-06	-2.353463e-06	-2.880297e-09	-1.720489e+01	-1.914772e+02
1.490000e-06	-2.290026e-06	-2.848270e-09	-1.674114e+01	-1.895746e+02
1.500000e-06	-2.226394e-06	-2.815919e-09	-1.627595e+01	-1.876136e+02
1.510000e-06	-2.162639e-06	-2.786275e-09	-1.580988e+01	-1.855925e+02
1.520000e-06	-2.098811e-06	-2.755090e-09	-1.534326e+01	-1.835100e+02
1.530000e-06	-2.034906e-06	-2.718408e-09	-1.487609e+01	-1.813649e+02
1.540000e-06	-1.970921e-06	-2.679471e-09	-1.440833e+01	-1.791562e+02
1.550000e-06	-1.906906e-06	-2.642645e-09	-1.394035e+01	-1.768829e+02
1.560000e-06	-1.842757e-06	-2.604871e-09	-1.347139e+01	-1.745442e+02
1.570000e-06	-1.778490e-06	-2.564368e-09	-1.300157e+01	-1.721389e+02
1.580000e-06	-1.714136e-06	-2.523164e-09	-1.253111e+01	-1.696660e+02
1.590000e-06	-1.649621e-06	-2.484323e-09	-1.205948e+01	-1.671237e+02
1.600000e-06	-1.585019e-06	-2.445229e-09	-1.158721e+01	-1.645101e+02
1.610000e-06	-1.520271e-06	-2.405716e-09	-1.111387e+01	-1.618227e+02
1.620000e-06	-1.455316e-06	-2.363361e-09	-1.063902e+01	-1.590580e+02
1.630000e-06	-1.390174e-06	-2.317225e-09	-1.016281e+01	-1.562122e+02
1.640000e-06	-1.324820e-06	-2.270926e-09	-9.685041e+00	-1.532801e+02
1.650000e-06	-1.259308e-06	-2.224922e-09	-9.206114e+00	-1.502560e+02
1.660000e-06	-1.193611e-06	-2.174556e-09	-8.725838e+00	-1.471328e+02
1.670000e-06	-1.127754e-06	-2.121085e-09	-8.244393e+00	-1.439026e+02
1.680000e-06	-1.061801e-06	-2.068503e-09	-7.762247e+00	-1.405565e+02
1.690000e-06	-9.957672e-07	-2.015841e-09	-7.279512e+00	-1.370845e+02
1.700000e-06	-9.297448e-07	-1.958879e-09	-6.796858e+00	-1.334758e+02
1.710000e-06	-8.636846e-07	-1.897528e-09	-6.313928e+00	-1.297187e+02
1.720000e-06	-7.975091e-07	-1.834071e-09	-5.830155e+00	-1.258010e+02
1.730000e-06	-7.312470e-07	-1.769957e-09	-5.345749e+00	-1.217102e+02
1.740000e-06	-6.648799e-07	-1.703626e-09	-4.860575e+00	-1.174334e+02
1.750000e-06	-5.984086e-07	-1.632240e-09	-4.374640e+00	-1.129578e+02
1.760000e-06	-5.318832e-07	-1.557311e-09	-3.888309e+00	-1.082709e+02
1.770000e-06	-4.652920e-07	-1.482851e-09	-3.401496e+00	-1.033611e+02
1.780000e-06	-3.986848e-07	-1.408079e-09	-2.914567e+00	-9.821736e+01
1.790000e-06	-3.320894e-07	-1.327719e-09	-2.427725e+00	-9.283016e+01
1.800000e-06	-2.654252e-07	-1.243856e-09	-1.940379e+00	-8.719148e+01
1.810000e-06	-1.986996e-07	-1.158182e-09	-1.452585e+00	-8.129521e+01
1.820000e-06	-1.319176e-07	-1.068093e-09	-9.643779e-01	-7.513737e+01
1.830000e-06	-6.508682e-08	-9.721969e-10	-4.758143e-01	-6.871644e+01
1.840000e-06	1.692497e-09	-8.717954e-10	1.237293e-02	-6.203356e+01
1.850000e-06	6.836935e-08	-7.659521e-10	4.998111e-01	-5.509270e+01
1.860000e-06	1.349590e-07	-6.556195e-10	9.866121e-01	-4.790083e+01
1.870000e-06	2.014550e-07	-5.429278e-10	1.472728e+00	-4.046798e+01
1.880000e-06	2.679835e-07	-4.253240e-10	1.959082e+00	-3.280728e+01
1.890000e-06	3.346972e-07	-3.006299e-10	2.446789e+00	-2.493496e+01
1.900000e-06	4.014826e-07	-1.732421e-10	2.935021e+00	-1.687020e+01
1.910000e-06	4.681604e-07	-4.526882e-11	3.422466e+00	-8.635049e+00
1.920000e-06	5.347141e-07	8.552610e-11	3.909004e+00	-2.541406e-01
1.930000e-06	6.012373e-07	2.211922e-10	4.395319e+00	8.245518e+00
1.940000e-06	6.677586e-07	3.596381e-10	4.881619e+00	1.683490e+01
1.950000e-06	7.341653e-07	4.973696e-10	5.367083e+00	2.548330e+01
1.960000e-06	8.004403e-07	6.354075e-10	5.851583e+00	3.415879e+01
1.970000e-06	8.665881e-07	7.733538e-10	6.335154e+00	4.282860e+01
1.980000e-06	9.326125e-07	9.105378e-10	6.817822e+00	5.145964e+01
1.990000e-06	9.985562e-07	1.047476e-09	7.299901e+00	6.001894e+01
2.000000e-06	1.064434e-06	1.182379e-09	7.781496e+00	6.847413e+01
2.010000e-06	1.130182e-06	1.313586e-09	8.262142e+00	7.679396e+01
2.020000e-06	1.195705e-06	1.440411e-09	8.741151e+00	8.494869e+01
2.030000e-06	1.261139e-06	1.562414e-09	9.219503e+00	9.291056e+01
2.040000e-06	1.326500e-06	1.678761e-09	9.697319e+00	1.006542e+02
2.050000e-06	1.391799e-06	1.788823e-09	1.017469e+01	1.081569e+02
2.060000e-06	1.457021e-06	1.894796e-09	1.065149e+01	1.153991e+02
2.070000e-06	1.522060e-06	1.997149e-09	1.112695e+01	1.223643e+02
2.080000e-06	1.586872e-06	2.093081e-09	1.160076e+01	1.290395e+02
2.090000e-06	1.651504e-06	2.182969e-09	1.207324e+01	1.354152e+02
2.100000e-06	1.716022e-06	2.270670e-09	1.254490e+01	1.414856e+02
2.110000e-06	1.780375e-06	2.355995e-09	1.301535e+01	1.472482e+02
2.120000e-06	1.844531e-06	2.435320e-09	1.348436e+01	1.527041e+02
2.130000e-06	1.908550e-06	2.509516e-09	1.395237e+01	1.578576e+02
2.140000e-06	1.972498e-06	2.585629e-09	1.441986e+01	1.627161e+02
2.150000e-06	2.036386e-06	2.661848e-09	1.488691e+01	1.672896e+02
2.160000e-06	2.100117e-06	2.729916e-09	1.535281e+01	1.715908e+02
2.170000e-06	2.163717e-06	2.793136e-09	1.581776e+01	1.756342e+02
2.180000e-06	2.227276e-06	2.855766e-09	1.628240e+01	1.794363e+02
2.190000e-06	2.290721e-06	2.915015e-09	1.674622e+01	1.830146e+02
2.200000e-06	2.354048e-06	2.966633e-09	1.720916e+01	1.863876e+02
2.210000e-06	2.417224e-06	3.013995e-09	1.767101e+01	1.895744e+02
2.220000e-06	2.480289e-06	3.062140e-09	1.813204e+01	1.925938e+02
2.230000e-06	2.543216e-06	3.109152e-09	1.859207e+01	1.954647e+02
2.240000e-06	2.605939e-06	3.155696e-09	1.905060e+01	1.982049e+02
2.250000e-06	2.668466e-06	3.200648e-09	1.950770e+01	2.008315e+02
2.260000e-06	2.730777e-06	3.241961e-09	1.996323e+01	2.033602e+02
2.270000e-06	2.792945e-06	3.279362e-09	2.041770e+01	2.058052e+02
2.280000e-06	2.855012e-06	3.313944e-09	2.087144e+01	2.081791e+02
2.290000e-06	2.916848e-06	3.345378e-09	2.132349e+01	2.104926e+02
2.300000e-06	2.978406e-06	3.372786e-09	2.177351e+01	2.127545e+02
2.310000e-06	3.039769e-06	3.403672e-09	2.222210e+01	2.149719e+02
2.320000e-06	3.100933e-06	3.437514e-09	2.266923e+01	2.171499e+02
2.330000e-06	3.161953e-06	3.469145e-09	2.311532e+01	2.192918e+02
2.340000e-06	3.222787e-06	3.497509e-09	2.356004e+01	2.213996e+02
2.350000e-06	3.283358e-06	3.524737e-09	2.400284e+01	2.234735e+02
2.360000e-06	3.343674e-06	3.553505e-09	2.444378e+01	2.255126e+02
2.370000e-06	3.403763e-06	3.579971e-09	2.488306e+01	2.275150e+02
2.380000e-06	3.463700e-06	3.602404e-09	2.532123e+01	2.294779e+02
2.390000e-06	3.523466e-06	3.623504e-09	2.575814e+01	2.313982e+02
2.400000e-06	3.582990e-06	3.647367e-09	2.619329e+01	2.332721e+02
2.410000e-06	3.642320e-06	3.673738e-09	2.662702e+01	2.350962e+02
2.420000e-06	3.701403e-06	3.697452e-09	2.705894e+01	2.368670e+02
2.430000e-06	3.760177e-06	3.717055e-09	2.748861e+01	2.385815e+02
2.440000e-06	3.818638e-06	3.736674e-09	2.791598e+01	2.402372e+02
2.450000e-06	3.876653e-06	3.758591e-09	2.834010e+01	2.418322e+02
2.460000e-06	3.934307e-06	3.781309e-09	2.876158e+01	2.433657e+02
2.470000e-06	3.991604e-06	3.800393e-09	2.918044e+01	2.448375e+02
2.480000e-06	4.048419e-06	3.817733e-09	2.959579e+01	2.462485e+02
2.490000e-06	4.104853e-06	3.838008e-09	3.000835e+01	2.476005e+02
2.500000e-06	4.161046e-06	3.859737e-09	3.041914e+01	2.488959e+02
2.510000e-06	4.217030e-06	3.879711e-09	3.082841e+01	2.501385e+02
2.520000e-06	4.272742e-06	3.897330e-09	3.123569e+01	2.513321e+02
2.530000e-06	4.328157e-06	3.914414e-09	3.164080e+01	2.524817e+02
2.540000e-06	4.383292e-06	3.932955e-09	3.204386e+01	2.535924e+02
2.550000e-06	4.438156e-06	3.952495e-09	3.244494e+01	2.546697e+02
2.560000e-06	4.492727e-06	3.970678e-09	3.284388e+01	2.557190e+02
2.570000e-06	4.547001e-06	3.987693e-09	3.324065e+01	2.567460e+02
2.580000e-06	4.600964e-06	4.008084e-09	3.363514e+01	2.577557e+02
2.590000e-06	4.654616e-06	4.027862e-09	3.402736e+01	2.587532e+02
2.600000e-06	4.708034e-06	4.043262e-09	3.441788e+01	2.597426e+02
2.610000e-06	4.761131e-06	4.058191e-09	3.480604e+01	2.607277e+02
2.620000e-06	4.813856e-06	4.072705e-09	3.519148e+01	2.617114e+02
2.630000e-06	4.866218e-06	4.084314e-09	3.557427e+01	2.626958e+02
2.640000e-06	4.918148e-06	4.094885e-09	3.595390e+01	2.636820e+02
2.650000e-06	4.969626e-06	4.108691e-09	3.633023e+01	2.646704e+02
2.660000e-06	5.020653e-06	4.128253e-09	3.670326e+01	2.656604e+02
2.670000e-06	5.071189e-06	4.148275e-09	3.707271e+01	2.666507e+02
2.680000e-06	5.121164e-06	4.165909e-09	3.743804e+01	2.676393e+02
2.690000e-06	5.170592e-06	4.180453e-09	3.779938e+01	2.686233e+02
2.700000e-06	5.219588e-06	4.193552e-09	3.815757e+01	2.695996e+02
2.710000e-06	5.268130e-06	4.205709e-09	3.851243e+01	2.705646e+02
2.720000e-06	5.316238e-06	4.211237e-09	3.886412e+01	2.715144e+02
2.730000e-06	5.364004e-06	4.217755e-09	3.921331e+01	2.724450e+02
2.740000e-06	5.411439e-06	4.229540e-09	3.956009e+01	2.733527e+02
2.750000e-06	5.458575e-06	4.246190e-09	3.990467e+01	2.742338e+02
2.760000e-06	5.505342e-06	4.262057e-09	4.024656e+01	2.750852e+02
2.770000e-06	5.551690e-06	4.276965e-09	4.058538e+01	2.759040e+02
2.780000e-06	5.597660e-06	4.291760e-09	4.092144e+01	2.766881e+02
2.790000e-06	5.643192e-06	4.306261e-09	4.125430e+01	2.774361e+02
2.800000e-06	5.688289e-06	4.318197e-09	4.158398e+01	2.781473e+02
2.810000e-06	5.733034e-06	4.323813e-09	4.191109e+01	2.788219e+02
2.820000e-06	5.777387e-06	4.324267e-09	4.223533e+01	2.794606e+02
2.830000e-06	5.821434e-06	4.329320e-09	4.255734e+01	2.800652e+02
2.840000e-06	5.865266e-06	4.341315e-09	4.287777e+01	2.806379e+02
2.850000e-06	5.908873e-06	4.352354e-09	4.319656e+01	2.811819e+02
2.860000e-06	5.952153e-06	4.362495e-09	4.351295e+01	2.817007e+02
2.870000e-06	5.994977e-06	4.376507e-09	4.382602e+01	2.821983e+02
2.880000e-06	6.037162e-06	4.392763e-09	4.413440e+01	2.826788e+02
2.890000e-06	6.078563e-06	4.406551e-09	4.443706e+01	2.831469e+02
2.900000e-06	6.119325e-06	4.414078e-09	4.473505e+01	2.836068e+02
2.910000e-06	6.159580e-06	4.419351e-09	4.502933e+01	2.840629e+02
