# Temperatura_=_20.0
# Concentracion g/m^3_=_9000.0
# C_Vs_to_Am_M_A/Vsm_=_65563218390.804596
# pendiente_HvsI_1/m_=_3716.3
# ordenada_HvsI_A/m_=_1297.0
# frecuencia_Hz_=_135476.26322179975

Tiempo_(s)	Campo_(V.s)	Magnetizacion_(V.s)	Campo_(kA/m)	Magnetizacion_(A/m)
0.000000e+00	-7.802395e-06	-4.593983e-09	-5.691412e+01	-3.026956e+02
1.000000e-08	-7.802596e-06	-4.591723e-09	-5.691559e+01	-3.028625e+02
2.000000e-08	-7.802489e-06	-4.590512e-09	-5.691480e+01	-3.030319e+02
3.000000e-08	-7.801917e-06	-4.592052e-09	-5.691064e+01	-3.031975e+02
4.000000e-08	-7.800689e-06	-4.592457e-09	-5.690167e+01	-3.033522e+02
5.000000e-08	-7.798620e-06	-4.588254e-09	-5.688658e+01	-3.034886e+02
6.000000e-08	-7.795792e-06	-4.583536e-09	-5.686596e+01	-3.035993e+02
7.000000e-08	-7.792377e-06	-4.578611e-09	-5.684105e+01	-3.036769e+02
8.000000e-08	-7.788570e-06	-4.558481e-09	-5.681327e+01	-3.037141e+02
9.000000e-08	-7.784416e-06	-4.542616e-09	-5.678297e+01	-3.037042e+02
1.000000e-07	-7.779708e-06	-4.592994e-09	-5.674863e+01	-3.036411e+02
1.100000e-07	-7.774105e-06	-4.690374e-09	-5.670776e+01	-3.035194e+02
1.200000e-07	-7.767522e-06	-4.695297e-09	-5.665974e+01	-3.033349e+02
1.300000e-07	-7.760236e-06	-4.511614e-09	-5.660659e+01	-3.030842e+02
1.400000e-07	-7.752638e-06	-4.357670e-09	-5.655117e+01	-3.027652e+02
1.500000e-07	-7.744901e-06	-4.520620e-09	-5.649473e+01	-3.023772e+02
1.600000e-07	-7.736876e-06	-4.779233e-09	-5.643620e+01	-3.019206e+02
1.700000e-07	-7.728441e-06	-4.670833e-09	-5.637467e+01	-3.013971e+02
1.800000e-07	-7.719358e-06	-4.418628e-09	-5.630841e+01	-3.008099e+02
1.900000e-07	-7.709397e-06	-4.485754e-09	-5.623575e+01	-3.001633e+02
2.000000e-07	-7.698500e-06	-4.688843e-09	-5.615627e+01	-2.994625e+02
2.100000e-07	-7.686998e-06	-4.781000e-09	-5.607237e+01	-2.987142e+02
2.200000e-07	-7.675151e-06	-4.671915e-09	-5.598594e+01	-2.979256e+02
2.300000e-07	-7.662619e-06	-4.460088e-09	-5.589454e+01	-2.971047e+02
2.400000e-07	-7.649395e-06	-4.483277e-09	-5.579807e+01	-2.962599e+02
2.500000e-07	-7.635830e-06	-4.759434e-09	-5.569912e+01	-2.954002e+02
2.600000e-07	-7.621622e-06	-4.783435e-09	-5.559548e+01	-2.945345e+02
2.700000e-07	-7.606276e-06	-4.384141e-09	-5.548354e+01	-2.936717e+02
2.800000e-07	-7.590075e-06	-4.308515e-09	-5.536536e+01	-2.928203e+02
2.900000e-07	-7.573521e-06	-4.639288e-09	-5.524462e+01	-2.919884e+02
3.000000e-07	-7.556471e-06	-4.641155e-09	-5.512025e+01	-2.911836e+02
3.100000e-07	-7.538767e-06	-4.298162e-09	-5.499110e+01	-2.904125e+02
3.200000e-07	-7.520566e-06	-4.312197e-09	-5.485834e+01	-2.896809e+02
3.300000e-07	-7.501794e-06	-4.545443e-09	-5.472140e+01	-2.889934e+02
3.400000e-07	-7.482481e-06	-4.508618e-09	-5.458053e+01	-2.883536e+02
3.500000e-07	-7.462875e-06	-4.426802e-09	-5.443751e+01	-2.877639e+02
3.600000e-07	-7.442954e-06	-4.420593e-09	-5.429220e+01	-2.872256e+02
3.700000e-07	-7.422564e-06	-4.333028e-09	-5.414347e+01	-2.867388e+02
3.800000e-07	-7.401764e-06	-4.380832e-09	-5.399174e+01	-2.863023e+02
3.900000e-07	-7.380531e-06	-4.563134e-09	-5.383686e+01	-2.859141e+02
4.000000e-07	-7.358691e-06	-4.462163e-09	-5.367755e+01	-2.855711e+02
4.100000e-07	-7.336232e-06	-4.255141e-09	-5.351372e+01	-2.852693e+02
4.200000e-07	-7.313251e-06	-4.400253e-09	-5.334609e+01	-2.850042e+02
4.300000e-07	-7.289831e-06	-4.606646e-09	-5.317526e+01	-2.847705e+02
4.400000e-07	-7.266038e-06	-4.461028e-09	-5.300169e+01	-2.845627e+02
4.500000e-07	-7.241857e-06	-4.265178e-09	-5.282531e+01	-2.843749e+02
4.600000e-07	-7.217227e-06	-4.376187e-09	-5.264564e+01	-2.842011e+02
4.700000e-07	-7.191928e-06	-4.552861e-09	-5.246111e+01	-2.840356e+02
4.800000e-07	-7.165630e-06	-4.425645e-09	-5.226928e+01	-2.838726e+02
4.900000e-07	-7.138434e-06	-4.272951e-09	-5.207089e+01	-2.837069e+02
5.000000e-07	-7.110871e-06	-4.374309e-09	-5.186984e+01	-2.835337e+02
5.100000e-07	-7.083084e-06	-4.477833e-09	-5.166715e+01	-2.833487e+02
5.200000e-07	-7.054830e-06	-4.390867e-09	-5.146105e+01	-2.831483e+02
5.300000e-07	-7.026051e-06	-4.349261e-09	-5.125112e+01	-2.829294e+02
5.400000e-07	-6.996805e-06	-4.371242e-09	-5.103779e+01	-2.826900e+02
5.500000e-07	-6.967101e-06	-4.370349e-09	-5.082112e+01	-2.824285e+02
5.600000e-07	-6.936945e-06	-4.392144e-09	-5.060114e+01	-2.821441e+02
5.700000e-07	-6.906342e-06	-4.391844e-09	-5.037791e+01	-2.818367e+02
5.800000e-07	-6.875260e-06	-4.299291e-09	-5.015119e+01	-2.815068e+02
5.900000e-07	-6.843705e-06	-4.290703e-09	-4.992101e+01	-2.811554e+02
6.000000e-07	-6.811828e-06	-4.374677e-09	-4.968849e+01	-2.807841e+02
6.100000e-07	-6.779700e-06	-4.364796e-09	-4.945413e+01	-2.803946e+02
6.200000e-07	-6.747087e-06	-4.273833e-09	-4.921624e+01	-2.799890e+02
6.300000e-07	-6.713741e-06	-4.269744e-09	-4.897300e+01	-2.795697e+02
6.400000e-07	-6.679748e-06	-4.340947e-09	-4.872504e+01	-2.791389e+02
6.500000e-07	-6.645107e-06	-4.352324e-09	-4.847235e+01	-2.786989e+02
6.600000e-07	-6.609772e-06	-4.278792e-09	-4.821460e+01	-2.782518e+02
6.700000e-07	-6.574011e-06	-4.241306e-09	-4.795374e+01	-2.777995e+02
6.800000e-07	-6.537986e-06	-4.297773e-09	-4.769096e+01	-2.773437e+02
6.900000e-07	-6.501565e-06	-4.312784e-09	-4.742529e+01	-2.768855e+02
7.000000e-07	-6.464631e-06	-4.250085e-09	-4.715588e+01	-2.764259e+02
7.100000e-07	-6.427149e-06	-4.218752e-09	-4.688247e+01	-2.759653e+02
7.200000e-07	-6.389179e-06	-4.250712e-09	-4.660550e+01	-2.755040e+02
7.300000e-07	-6.350828e-06	-4.258427e-09	-4.632575e+01	-2.750414e+02
7.400000e-07	-6.312061e-06	-4.245828e-09	-4.604297e+01	-2.745771e+02
7.500000e-07	-6.272916e-06	-4.225754e-09	-4.575742e+01	-2.741100e+02
7.600000e-07	-6.233487e-06	-4.207301e-09	-4.546981e+01	-2.736388e+02
7.700000e-07	-6.193744e-06	-4.215537e-09	-4.517991e+01	-2.731621e+02
7.800000e-07	-6.153632e-06	-4.235950e-09	-4.488731e+01	-2.726783e+02
7.900000e-07	-6.113080e-06	-4.199129e-09	-4.459151e+01	-2.721857e+02
8.000000e-07	-6.071952e-06	-4.153726e-09	-4.429150e+01	-2.716825e+02
8.100000e-07	-6.030163e-06	-4.169282e-09	-4.398668e+01	-2.711672e+02
8.200000e-07	-5.987644e-06	-4.198698e-09	-4.367652e+01	-2.706383e+02
8.300000e-07	-5.944474e-06	-4.168606e-09	-4.336162e+01	-2.700945e+02
8.400000e-07	-5.900868e-06	-4.130246e-09	-4.304354e+01	-2.695347e+02
8.500000e-07	-5.856946e-06	-4.135826e-09	-4.272315e+01	-2.689580e+02
8.600000e-07	-5.812762e-06	-4.156621e-09	-4.240086e+01	-2.683641e+02
8.700000e-07	-5.768204e-06	-4.137706e-09	-4.207584e+01	-2.677527e+02
8.800000e-07	-5.723246e-06	-4.095225e-09	-4.174789e+01	-2.671239e+02
8.900000e-07	-5.677958e-06	-4.080390e-09	-4.141754e+01	-2.664781e+02
9.000000e-07	-5.632277e-06	-4.090723e-09	-4.108432e+01	-2.658161e+02
9.100000e-07	-5.586122e-06	-4.087365e-09	-4.074765e+01	-2.651386e+02
9.200000e-07	-5.539611e-06	-4.061432e-09	-4.040837e+01	-2.644468e+02
9.300000e-07	-5.492776e-06	-4.044204e-09	-4.006674e+01	-2.637418e+02
9.400000e-07	-5.445492e-06	-4.043213e-09	-3.972183e+01	-2.630250e+02
9.500000e-07	-5.397819e-06	-4.046961e-09	-3.937408e+01	-2.622976e+02
9.600000e-07	-5.349810e-06	-4.035451e-09	-3.902388e+01	-2.615608e+02
9.700000e-07	-5.301356e-06	-4.009544e-09	-3.867043e+01	-2.608157e+02
9.800000e-07	-5.252370e-06	-3.990014e-09	-3.831311e+01	-2.600634e+02
9.900000e-07	-5.202873e-06	-3.989863e-09	-3.795206e+01	-2.593044e+02
1.000000e-06	-5.152792e-06	-3.982119e-09	-3.758674e+01	-2.585392e+02
1.010000e-06	-5.102135e-06	-3.955253e-09	-3.721723e+01	-2.577681e+02
1.020000e-06	-5.051023e-06	-3.932772e-09	-3.684440e+01	-2.569909e+02
1.030000e-06	-4.999444e-06	-3.933373e-09	-3.646816e+01	-2.562072e+02
1.040000e-06	-4.947469e-06	-3.931623e-09	-3.608903e+01	-2.554163e+02
1.050000e-06	-4.895144e-06	-3.915102e-09	-3.570735e+01	-2.546171e+02
1.060000e-06	-4.842510e-06	-3.895272e-09	-3.532341e+01	-2.538084e+02
1.070000e-06	-4.789526e-06	-3.886750e-09	-3.493692e+01	-2.529888e+02
1.080000e-06	-4.736120e-06	-3.878489e-09	-3.454736e+01	-2.521566e+02
1.090000e-06	-4.682376e-06	-3.861969e-09	-3.415533e+01	-2.513102e+02
1.100000e-06	-4.628323e-06	-3.839544e-09	-3.376103e+01	-2.504479e+02
1.110000e-06	-4.573953e-06	-3.822369e-09	-3.336444e+01	-2.495678e+02
1.120000e-06	-4.519266e-06	-3.812720e-09	-3.296553e+01	-2.486684e+02
1.130000e-06	-4.464337e-06	-3.803596e-09	-3.256485e+01	-2.477482e+02
1.140000e-06	-4.409188e-06	-3.786964e-09	-3.216257e+01	-2.468060e+02
1.150000e-06	-4.353722e-06	-3.768157e-09	-3.175797e+01	-2.458405e+02
1.160000e-06	-4.297992e-06	-3.754803e-09	-3.135146e+01	-2.448512e+02
1.170000e-06	-4.242069e-06	-3.742811e-09	-3.094353e+01	-2.438376e+02
1.180000e-06	-4.185920e-06	-3.726144e-09	-3.053395e+01	-2.427994e+02
1.190000e-06	-4.129533e-06	-3.705545e-09	-3.012264e+01	-2.417369e+02
1.200000e-06	-4.072866e-06	-3.687878e-09	-2.970929e+01	-2.406505e+02
1.210000e-06	-4.015775e-06	-3.669388e-09	-2.929284e+01	-2.395409e+02
1.220000e-06	-3.958202e-06	-3.649746e-09	-2.887288e+01	-2.384091e+02
1.230000e-06	-3.900190e-06	-3.632581e-09	-2.844971e+01	-2.372561e+02
1.240000e-06	-3.841828e-06	-3.616110e-09	-2.802400e+01	-2.360832e+02
1.250000e-06	-3.783098e-06	-3.594871e-09	-2.759559e+01	-2.348917e+02
1.260000e-06	-3.723985e-06	-3.572751e-09	-2.716440e+01	-2.336828e+02
1.270000e-06	-3.664659e-06	-3.553466e-09	-2.673165e+01	-2.324576e+02
1.280000e-06	-3.605059e-06	-3.535989e-09	-2.629690e+01	-2.312170e+02
1.290000e-06	-3.545187e-06	-3.514294e-09	-2.586016e+01	-2.299618e+02
1.300000e-06	-3.485162e-06	-3.490307e-09	-2.542231e+01	-2.286922e+02
1.310000e-06	-3.424990e-06	-3.469002e-09	-2.498339e+01	-2.274083e+02
1.320000e-06	-3.364668e-06	-3.449997e-09	-2.454338e+01	-2.261097e+02
1.330000e-06	-3.304149e-06	-3.428702e-09	-2.410193e+01	-2.247954e+02
1.340000e-06	-3.243396e-06	-3.405169e-09	-2.365877e+01	-2.234641e+02
1.350000e-06	-3.182469e-06	-3.380395e-09	-2.321434e+01	-2.221141e+02
1.360000e-06	-3.121345e-06	-3.354391e-09	-2.276847e+01	-2.207431e+02
1.370000e-06	-3.059956e-06	-3.327137e-09	-2.232067e+01	-2.193485e+02
1.380000e-06	-2.998291e-06	-3.302576e-09	-2.187086e+01	-2.179273e+02
1.390000e-06	-2.936313e-06	-3.280192e-09	-2.141877e+01	-2.164762e+02
1.400000e-06	-2.874155e-06	-3.258118e-09	-2.096536e+01	-2.149916e+02
1.410000e-06	-2.811878e-06	-3.234642e-09	-2.051108e+01	-2.134699e+02
1.420000e-06	-2.749429e-06	-3.212507e-09	-2.005555e+01	-2.119074e+02
1.430000e-06	-2.686777e-06	-3.190186e-09	-1.959854e+01	-2.103003e+02
1.440000e-06	-2.623996e-06	-3.163850e-09	-1.914058e+01	-2.086453e+02
1.450000e-06	-2.561177e-06	-3.134234e-09	-1.868236e+01	-2.069388e+02
1.460000e-06	-2.498209e-06	-3.105616e-09	-1.822304e+01	-2.051778e+02
1.470000e-06	-2.434995e-06	-3.077833e-09	-1.776193e+01	-2.033596e+02
1.480000e-06	-2.371612e-06	-3.048399e-09	-1.729959e+01	-2.014819e+02
1.490000e-06	-2.308086e-06	-3.018500e-09	-1.683620e+01	-1.995428e+02
1.500000e-06	-2.244358e-06	-2.988433e-09	-1.637134e+01	-1.975408e+02
1.510000e-06	-2.180460e-06	-2.958232e-09	-1.590524e+01	-1.954748e+02
1.520000e-06	-2.116463e-06	-2.928382e-09	-1.543842e+01	-1.933442e+02
1.530000e-06	-2.052321e-06	-2.895383e-09	-1.497054e+01	-1.911487e+02
1.540000e-06	-1.988012e-06	-2.859034e-09	-1.450144e+01	-1.888880e+02
1.550000e-06	-1.923647e-06	-2.822049e-09	-1.403194e+01	-1.865623e+02
1.560000e-06	-1.859239e-06	-2.784525e-09	-1.356212e+01	-1.841717e+02
1.570000e-06	-1.794658e-06	-2.745611e-09	-1.309103e+01	-1.817159e+02
1.580000e-06	-1.729880e-06	-2.703761e-09	-1.261851e+01	-1.791948e+02
1.590000e-06	-1.664994e-06	-2.662162e-09	-1.214521e+01	-1.766076e+02
1.600000e-06	-1.599992e-06	-2.620188e-09	-1.167105e+01	-1.739529e+02
1.610000e-06	-1.534839e-06	-2.579374e-09	-1.119580e+01	-1.712287e+02
1.620000e-06	-1.469511e-06	-2.539082e-09	-1.071927e+01	-1.684321e+02
1.630000e-06	-1.404063e-06	-2.494521e-09	-1.024186e+01	-1.655592e+02
1.640000e-06	-1.338499e-06	-2.446021e-09	-9.763602e+00	-1.626051e+02
1.650000e-06	-1.272772e-06	-2.397069e-09	-9.284162e+00	-1.595637e+02
1.660000e-06	-1.206976e-06	-2.345670e-09	-8.804219e+00	-1.564274e+02
1.670000e-06	-1.141102e-06	-2.291232e-09	-8.323703e+00	-1.531879e+02
1.680000e-06	-1.075074e-06	-2.235983e-09	-7.842068e+00	-1.498353e+02
1.690000e-06	-1.008986e-06	-2.181965e-09	-7.359990e+00	-1.463588e+02
1.700000e-06	-9.429536e-07	-2.124765e-09	-6.878321e+00	-1.427462e+02
1.710000e-06	-8.769024e-07	-2.062847e-09	-6.396514e+00	-1.389850e+02
1.720000e-06	-8.107283e-07	-2.000768e-09	-5.913811e+00	-1.350615e+02
1.730000e-06	-7.444080e-07	-1.939933e-09	-5.430042e+00	-1.309618e+02
1.740000e-06	-6.779093e-07	-1.874768e-09	-4.944970e+00	-1.266717e+02
1.750000e-06	-6.114051e-07	-1.802490e-09	-4.459859e+00	-1.221773e+02
1.760000e-06	-5.449716e-07	-1.726792e-09	-3.975264e+00	-1.174647e+02
1.770000e-06	-4.784686e-07	-1.653208e-09	-3.490161e+00	-1.125212e+02
1.780000e-06	-4.119204e-07	-1.576887e-09	-3.004730e+00	-1.073349e+02
1.790000e-06	-3.454272e-07	-1.493361e-09	-2.519699e+00	-1.018954e+02
1.800000e-06	-2.789177e-07	-1.409114e-09	-2.034549e+00	-9.619400e+01
1.810000e-06	-2.123102e-07	-1.323418e-09	-1.548685e+00	-9.022423e+01
1.820000e-06	-1.456554e-07	-1.231687e-09	-1.062475e+00	-8.398188e+01
1.830000e-06	-7.900708e-08	-1.133332e-09	-5.763126e-01	-7.746544e+01
1.840000e-06	-1.238833e-08	-1.031395e-09	-9.036597e-02	-7.067626e+01
1.850000e-06	5.421886e-08	-9.242270e-10	3.954963e-01	-6.361873e+01
1.860000e-06	1.208268e-07	-8.099935e-10	8.813642e-01	-5.630045e+01
1.870000e-06	1.874746e-07	-6.919782e-10	1.367523e+00	-4.873225e+01
1.880000e-06	2.542232e-07	-5.708208e-10	1.854416e+00	-4.092821e+01
1.890000e-06	3.209464e-07	-4.438741e-10	2.341125e+00	-3.290563e+01
1.900000e-06	3.875465e-07	-3.142329e-10	2.826936e+00	-2.468487e+01
1.910000e-06	4.541212e-07	-1.837400e-10	3.312561e+00	-1.628920e+01
1.920000e-06	5.207407e-07	-4.982649e-11	3.798513e+00	-7.744519e+00
1.930000e-06	5.873427e-07	8.689301e-11	4.284338e+00	9.208970e-01
1.940000e-06	6.538823e-07	2.255506e-10	4.769707e+00	9.676791e+00
1.950000e-06	7.203957e-07	3.659967e-10	5.254885e+00	1.849131e+01
1.960000e-06	7.868147e-07	5.073417e-10	5.739375e+00	2.733143e+01
1.970000e-06	8.530891e-07	6.496473e-10	6.222809e+00	3.616343e+01
1.980000e-06	9.193226e-07	7.896534e-10	6.705946e+00	4.495339e+01
1.990000e-06	9.854274e-07	9.265034e-10	7.188143e+00	5.366765e+01
2.000000e-06	1.051315e-06	1.061950e-09	7.668753e+00	6.227332e+01
2.010000e-06	1.117183e-06	1.194378e-09	8.149229e+00	7.073876e+01
2.020000e-06	1.182977e-06	1.321642e-09	8.629159e+00	7.903401e+01
2.030000e-06	1.248642e-06	1.444598e-09	9.108146e+00	8.713125e+01
2.040000e-06	1.314179e-06	1.563640e-09	9.586205e+00	9.500517e+01
2.050000e-06	1.379537e-06	1.679129e-09	1.006295e+01	1.026333e+02
2.060000e-06	1.444872e-06	1.788717e-09	1.053954e+01	1.099962e+02
2.070000e-06	1.510171e-06	1.890486e-09	1.101585e+01	1.170778e+02
2.080000e-06	1.575302e-06	1.988187e-09	1.149095e+01	1.238656e+02
2.090000e-06	1.640297e-06	2.080486e-09	1.196505e+01	1.303506e+02
2.100000e-06	1.705124e-06	2.167602e-09	1.243793e+01	1.365273e+02
2.110000e-06	1.769789e-06	2.252555e-09	1.290963e+01	1.423937e+02
2.120000e-06	1.834335e-06	2.333215e-09	1.338045e+01	1.479513e+02
2.130000e-06	1.898708e-06	2.408343e-09	1.385001e+01	1.532048e+02
2.140000e-06	1.962938e-06	2.482839e-09	1.431854e+01	1.581617e+02
2.150000e-06	2.027065e-06	2.556800e-09	1.478631e+01	1.628324e+02
2.160000e-06	2.091110e-06	2.625217e-09	1.525348e+01	1.672295e+02
2.170000e-06	2.155024e-06	2.689268e-09	1.571970e+01	1.713677e+02
2.180000e-06	2.218726e-06	2.752068e-09	1.618437e+01	1.752631e+02
2.190000e-06	2.282312e-06	2.810451e-09	1.664819e+01	1.789331e+02
2.200000e-06	2.345842e-06	2.862267e-09	1.711161e+01	1.823960e+02
2.210000e-06	2.409120e-06	2.911020e-09	1.757318e+01	1.856704e+02
2.220000e-06	2.472167e-06	2.958396e-09	1.803308e+01	1.887747e+02
2.230000e-06	2.535132e-06	3.004192e-09	1.849237e+01	1.917273e+02
2.240000e-06	2.597907e-06	3.051192e-09	1.895028e+01	1.945455e+02
2.250000e-06	2.660491e-06	3.096962e-09	1.940680e+01	1.972460e+02
2.260000e-06	2.722939e-06	3.138473e-09	1.986232e+01	1.998439e+02
2.270000e-06	2.785264e-06	3.176684e-09	2.031695e+01	2.023531e+02
2.280000e-06	2.847450e-06	3.212443e-09	2.077056e+01	2.047857e+02
2.290000e-06	2.909463e-06	3.246570e-09	2.122291e+01	2.071522e+02
2.300000e-06	2.971291e-06	3.276476e-09	2.167391e+01	2.094613e+02
2.310000e-06	3.032807e-06	3.306100e-09	2.212264e+01	2.117199e+02
2.320000e-06	3.094050e-06	3.335697e-09	2.256937e+01	2.139333e+02
2.330000e-06	3.155134e-06	3.366436e-09	2.301494e+01	2.161051e+02
2.340000e-06	3.215955e-06	3.396745e-09	2.345860e+01	2.182375e+02
2.350000e-06	3.276562e-06	3.421993e-09	2.390070e+01	2.203311e+02
2.360000e-06	3.337075e-06	3.447220e-09	2.434210e+01	2.223857e+02
2.370000e-06	3.397447e-06	3.477167e-09	2.478248e+01	2.244000e+02
2.380000e-06	3.457640e-06	3.506056e-09	2.522155e+01	2.263721e+02
2.390000e-06	3.517652e-06	3.529090e-09	2.565931e+01	2.282995e+02
2.400000e-06	3.577450e-06	3.549882e-09	2.609550e+01	2.301797e+02
2.410000e-06	3.636978e-06	3.575185e-09	2.652973e+01	2.320099e+02
2.420000e-06	3.696166e-06	3.602018e-09	2.696147e+01	2.337877e+02
2.430000e-06	3.754997e-06	3.623482e-09	2.739061e+01	2.355109e+02
2.440000e-06	3.813432e-06	3.644233e-09	2.781686e+01	2.371779e+02
2.450000e-06	3.871476e-06	3.666267e-09	2.824026e+01	2.387876e+02
2.460000e-06	3.929241e-06	3.690005e-09	2.866163e+01	2.403398e+02
2.470000e-06	3.986778e-06	3.711401e-09	2.908132e+01	2.418350e+02
2.480000e-06	4.043990e-06	3.730574e-09	2.949865e+01	2.432744e+02
2.490000e-06	4.100759e-06	3.750262e-09	2.991275e+01	2.446602e+02
2.500000e-06	4.157244e-06	3.770793e-09	3.032478e+01	2.459951e+02
2.510000e-06	4.213428e-06	3.790842e-09	3.073461e+01	2.472825e+02
2.520000e-06	4.269271e-06	3.810387e-09	3.114195e+01	2.485266e+02
2.530000e-06	4.324838e-06	3.828513e-09	3.154728e+01	2.497318e+02
2.540000e-06	4.380084e-06	3.845329e-09	3.195027e+01	2.509028e+02
2.550000e-06	4.435028e-06	3.864020e-09	3.235105e+01	2.520447e+02
2.560000e-06	4.489721e-06	3.881603e-09	3.275001e+01	2.531623e+02
2.570000e-06	4.544213e-06	3.897367e-09	3.314750e+01	2.542605e+02
2.580000e-06	4.598448e-06	3.917301e-09	3.354312e+01	2.553437e+02
2.590000e-06	4.652318e-06	3.937356e-09	3.393606e+01	2.564161e+02
2.600000e-06	4.705836e-06	3.954645e-09	3.432645e+01	2.574812e+02
2.610000e-06	4.759078e-06	3.971080e-09	3.471482e+01	2.585419e+02
2.620000e-06	4.812072e-06	3.988255e-09	3.510138e+01	2.596004e+02
2.630000e-06	4.864713e-06	4.003175e-09	3.548537e+01	2.606581e+02
2.640000e-06	4.916917e-06	4.015885e-09	3.586617e+01	2.617156e+02
2.650000e-06	4.968690e-06	4.029296e-09	3.624382e+01	2.627728e+02
2.660000e-06	5.019969e-06	4.045037e-09	3.661787e+01	2.638288e+02
2.670000e-06	5.070702e-06	4.064535e-09	3.698794e+01	2.648819e+02
2.680000e-06	5.120890e-06	4.080525e-09	3.735404e+01	2.659300e+02
2.690000e-06	5.170573e-06	4.092865e-09	3.771645e+01	2.669702e+02
2.700000e-06	5.219749e-06	4.107110e-09	3.807516e+01	2.679995e+02
2.710000e-06	5.268489e-06	4.121527e-09	3.843069e+01	2.690144e+02
2.720000e-06	5.316935e-06	4.132208e-09	3.878408e+01	2.700112e+02
2.730000e-06	5.365041e-06	4.140283e-09	3.913498e+01	2.709865e+02
2.740000e-06	5.412750e-06	4.152196e-09	3.948300e+01	2.719368e+02
2.750000e-06	5.460033e-06	4.167154e-09	3.982790e+01	2.728589e+02
2.760000e-06	5.506873e-06	4.180325e-09	4.016957e+01	2.737501e+02
2.770000e-06	5.553361e-06	4.191945e-09	4.050867e+01	2.746081e+02
2.780000e-06	5.599509e-06	4.202338e-09	4.084529e+01	2.754311e+02
2.790000e-06	5.645241e-06	4.214580e-09	4.117889e+01	2.762182e+02
2.800000e-06	5.690527e-06	4.228084e-09	4.150922e+01	2.769689e+02
2.810000e-06	5.735447e-06	4.236699e-09	4.183689e+01	2.776836e+02
2.820000e-06	5.780004e-06	4.241042e-09	4.216191e+01	2.783634e+02
2.830000e-06	5.824281e-06	4.249949e-09	4.248489e+01	2.790100e+02
2.840000e-06	5.868331e-06	4.263962e-09	4.280620e+01	2.796256e+02
2.850000e-06	5.912075e-06	4.276548e-09	4.312529e+01	2.802133e+02
2.860000e-06	5.955455e-06	4.285310e-09	4.344172e+01	2.807764e+02
2.870000e-06	5.998392e-06	4.296279e-09	4.375493e+01	2.813184e+02
2.880000e-06	6.040773e-06	4.310538e-09	4.406407e+01	2.818434e+02
2.890000e-06	6.082487e-06	4.322482e-09	4.436835e+01	2.823553e+02
2.900000e-06	6.123579e-06	4.328622e-09	4.466809e+01	2.828581e+02
