# Temperatura_=_20.0
# Concentracion g/m^3_=_9000.0
# C_Vs_to_Am_M_A/Vsm_=_65563218390.804596
# pendiente_HvsI_1/m_=_3716.3
# ordenada_HvsI_A/m_=_1297.0
# frecuencia_Hz_=_135477.52839492302

Tiempo_(s)	Campo_(V.s)	Magnetizacion_(V.s)	Campo_(kA/m)	Magnetizacion_(A/m)
0.000000e+00	-7.751580e-06	-4.586620e-09	-5.692228e+01	-2.982719e+02
1.000000e-08	-7.751814e-06	-4.585083e-09	-5.692400e+01	-2.983928e+02
2.000000e-08	-7.751692e-06	-4.584398e-09	-5.692311e+01	-2.985573e+02
3.000000e-08	-7.751078e-06	-4.587344e-09	-5.691860e+01	-2.987654e+02
4.000000e-08	-7.749739e-06	-4.588244e-09	-5.690876e+01	-2.990159e+02
5.000000e-08	-7.747568e-06	-4.586136e-09	-5.689282e+01	-2.993066e+02
6.000000e-08	-7.744647e-06	-4.587063e-09	-5.687137e+01	-2.996335e+02
7.000000e-08	-7.741183e-06	-4.586150e-09	-5.684594e+01	-2.999918e+02
8.000000e-08	-7.737362e-06	-4.572145e-09	-5.681788e+01	-3.003754e+02
9.000000e-08	-7.733186e-06	-4.557118e-09	-5.678721e+01	-3.007772e+02
1.000000e-07	-7.728471e-06	-4.588127e-09	-5.675259e+01	-3.011892e+02
1.100000e-07	-7.722938e-06	-4.659046e-09	-5.671196e+01	-3.016029e+02
1.200000e-07	-7.716407e-06	-4.653230e-09	-5.666400e+01	-3.020090e+02
1.300000e-07	-7.709039e-06	-4.528265e-09	-5.660990e+01	-3.023982e+02
1.400000e-07	-7.701347e-06	-4.425395e-09	-5.655341e+01	-3.027607e+02
1.500000e-07	-7.693605e-06	-4.578387e-09	-5.649656e+01	-3.030873e+02
1.600000e-07	-7.685659e-06	-4.762118e-09	-5.643821e+01	-3.033687e+02
1.700000e-07	-7.677326e-06	-4.627213e-09	-5.637701e+01	-3.035966e+02
1.800000e-07	-7.668336e-06	-4.405010e-09	-5.631100e+01	-3.037630e+02
1.900000e-07	-7.658497e-06	-4.520497e-09	-5.623874e+01	-3.038612e+02
2.000000e-07	-7.647690e-06	-4.675033e-09	-5.615939e+01	-3.038854e+02
2.100000e-07	-7.636174e-06	-4.708096e-09	-5.607482e+01	-3.038311e+02
2.200000e-07	-7.624248e-06	-4.611039e-09	-5.598724e+01	-3.036951e+02
2.300000e-07	-7.611703e-06	-4.466342e-09	-5.589513e+01	-3.034758e+02
2.400000e-07	-7.598538e-06	-4.521026e-09	-5.579845e+01	-3.031728e+02
2.500000e-07	-7.585035e-06	-4.781623e-09	-5.569929e+01	-3.027875e+02
2.600000e-07	-7.570887e-06	-4.806234e-09	-5.559540e+01	-3.023223e+02
2.700000e-07	-7.555611e-06	-4.429624e-09	-5.548322e+01	-3.017816e+02
2.800000e-07	-7.539518e-06	-4.369608e-09	-5.536504e+01	-3.011706e+02
2.900000e-07	-7.522923e-06	-4.679382e-09	-5.524319e+01	-3.004959e+02
3.000000e-07	-7.505719e-06	-4.642763e-09	-5.511685e+01	-2.997653e+02
3.100000e-07	-7.488035e-06	-4.270477e-09	-5.498699e+01	-2.989871e+02
3.200000e-07	-7.470006e-06	-4.299594e-09	-5.485460e+01	-2.981708e+02
3.300000e-07	-7.451446e-06	-4.532655e-09	-5.471830e+01	-2.973259e+02
3.400000e-07	-7.432286e-06	-4.440945e-09	-5.457761e+01	-2.964625e+02
3.500000e-07	-7.412697e-06	-4.307788e-09	-5.443376e+01	-2.955908e+02
3.600000e-07	-7.392791e-06	-4.372450e-09	-5.428759e+01	-2.947206e+02
3.700000e-07	-7.372482e-06	-4.310321e-09	-5.413845e+01	-2.938617e+02
3.800000e-07	-7.351751e-06	-4.321929e-09	-5.398622e+01	-2.930231e+02
3.900000e-07	-7.330589e-06	-4.479177e-09	-5.383082e+01	-2.922133e+02
4.000000e-07	-7.308894e-06	-4.426791e-09	-5.367150e+01	-2.914397e+02
4.100000e-07	-7.286566e-06	-4.222723e-09	-5.350754e+01	-2.907089e+02
4.200000e-07	-7.263638e-06	-4.357831e-09	-5.333918e+01	-2.900263e+02
4.300000e-07	-7.240312e-06	-4.570812e-09	-5.316789e+01	-2.893962e+02
4.400000e-07	-7.216601e-06	-4.429955e-09	-5.299376e+01	-2.888214e+02
4.500000e-07	-7.192406e-06	-4.240416e-09	-5.281610e+01	-2.883037e+02
4.600000e-07	-7.167780e-06	-4.395400e-09	-5.263526e+01	-2.878435e+02
4.700000e-07	-7.142663e-06	-4.581130e-09	-5.245082e+01	-2.874400e+02
4.800000e-07	-7.116731e-06	-4.427965e-09	-5.226039e+01	-2.870912e+02
4.900000e-07	-7.089890e-06	-4.286415e-09	-5.206329e+01	-2.867939e+02
5.000000e-07	-7.062530e-06	-4.406170e-09	-5.186238e+01	-2.865442e+02
5.100000e-07	-7.034871e-06	-4.492613e-09	-5.165926e+01	-2.863370e+02
5.200000e-07	-7.006815e-06	-4.394204e-09	-5.145324e+01	-2.861667e+02
5.300000e-07	-6.978310e-06	-4.360464e-09	-5.124392e+01	-2.860272e+02
5.400000e-07	-6.949305e-06	-4.375532e-09	-5.103093e+01	-2.859117e+02
5.500000e-07	-6.919701e-06	-4.385577e-09	-5.081354e+01	-2.858133e+02
5.600000e-07	-6.889613e-06	-4.412730e-09	-5.059259e+01	-2.857252e+02
5.700000e-07	-6.859151e-06	-4.409251e-09	-5.036890e+01	-2.856405e+02
5.800000e-07	-6.828187e-06	-4.326405e-09	-5.014152e+01	-2.855526e+02
5.900000e-07	-6.796769e-06	-4.333566e-09	-4.991081e+01	-2.854551e+02
6.000000e-07	-6.765039e-06	-4.402197e-09	-4.967780e+01	-2.853422e+02
6.100000e-07	-6.732975e-06	-4.393473e-09	-4.944235e+01	-2.852089e+02
6.200000e-07	-6.700467e-06	-4.311717e-09	-4.920363e+01	-2.850505e+02
6.300000e-07	-6.667346e-06	-4.301443e-09	-4.896041e+01	-2.848635e+02
6.400000e-07	-6.633529e-06	-4.359093e-09	-4.871208e+01	-2.846447e+02
6.500000e-07	-6.599113e-06	-4.376278e-09	-4.845936e+01	-2.843921e+02
6.600000e-07	-6.564122e-06	-4.306704e-09	-4.820240e+01	-2.841043e+02
6.700000e-07	-6.528593e-06	-4.272458e-09	-4.794151e+01	-2.837810e+02
6.800000e-07	-6.492648e-06	-4.328808e-09	-4.767755e+01	-2.834223e+02
6.900000e-07	-6.456291e-06	-4.345547e-09	-4.741057e+01	-2.830294e+02
7.000000e-07	-6.419499e-06	-4.285935e-09	-4.714039e+01	-2.826037e+02
7.100000e-07	-6.382219e-06	-4.266672e-09	-4.686663e+01	-2.821477e+02
7.200000e-07	-6.344467e-06	-4.297326e-09	-4.658942e+01	-2.816639e+02
7.300000e-07	-6.306331e-06	-4.295063e-09	-4.630937e+01	-2.811555e+02
7.400000e-07	-6.267771e-06	-4.278527e-09	-4.602621e+01	-2.806257e+02
7.500000e-07	-6.228790e-06	-4.265052e-09	-4.573996e+01	-2.800782e+02
7.600000e-07	-6.189482e-06	-4.253505e-09	-4.545131e+01	-2.795165e+02
7.700000e-07	-6.149882e-06	-4.256859e-09	-4.516051e+01	-2.789440e+02
7.800000e-07	-6.109959e-06	-4.273204e-09	-4.486734e+01	-2.783643e+02
7.900000e-07	-6.069575e-06	-4.243688e-09	-4.457080e+01	-2.777805e+02
8.000000e-07	-6.028604e-06	-4.209655e-09	-4.426993e+01	-2.771953e+02
8.100000e-07	-5.987024e-06	-4.222872e-09	-4.396460e+01	-2.766114e+02
8.200000e-07	-5.944843e-06	-4.244201e-09	-4.365485e+01	-2.760306e+02
8.300000e-07	-5.902101e-06	-4.211342e-09	-4.334098e+01	-2.754547e+02
8.400000e-07	-5.858823e-06	-4.176628e-09	-4.302318e+01	-2.748847e+02
8.500000e-07	-5.815105e-06	-4.183722e-09	-4.270214e+01	-2.743211e+02
8.600000e-07	-5.771067e-06	-4.206104e-09	-4.237875e+01	-2.737640e+02
8.700000e-07	-5.726684e-06	-4.189546e-09	-4.205284e+01	-2.732130e+02
8.800000e-07	-5.681988e-06	-4.154556e-09	-4.172462e+01	-2.726672e+02
8.900000e-07	-5.636927e-06	-4.147343e-09	-4.139372e+01	-2.721252e+02
9.000000e-07	-5.591491e-06	-4.163201e-09	-4.106007e+01	-2.715854e+02
9.100000e-07	-5.545727e-06	-4.154851e-09	-4.072401e+01	-2.710456e+02
9.200000e-07	-5.499568e-06	-4.125545e-09	-4.038505e+01	-2.705035e+02
9.300000e-07	-5.453057e-06	-4.110467e-09	-4.004351e+01	-2.699566e+02
9.400000e-07	-5.406119e-06	-4.113029e-09	-3.969883e+01	-2.694023e+02
9.500000e-07	-5.358726e-06	-4.111958e-09	-3.935081e+01	-2.688378e+02
9.600000e-07	-5.310971e-06	-4.097807e-09	-3.900012e+01	-2.682604e+02
9.700000e-07	-5.262822e-06	-4.079466e-09	-3.864655e+01	-2.676675e+02
9.800000e-07	-5.214265e-06	-4.068849e-09	-3.828999e+01	-2.670566e+02
9.900000e-07	-5.165202e-06	-4.070830e-09	-3.792970e+01	-2.664253e+02
1.000000e-06	-5.115573e-06	-4.062604e-09	-3.756525e+01	-2.657715e+02
1.010000e-06	-5.065417e-06	-4.035379e-09	-3.719695e+01	-2.650936e+02
1.020000e-06	-5.014800e-06	-4.012790e-09	-3.682525e+01	-2.643900e+02
1.030000e-06	-4.963735e-06	-4.015223e-09	-3.645027e+01	-2.636597e+02
1.040000e-06	-4.912178e-06	-4.012018e-09	-3.607167e+01	-2.629017e+02
1.050000e-06	-4.860280e-06	-3.991481e-09	-3.569056e+01	-2.621159e+02
1.060000e-06	-4.808061e-06	-3.971477e-09	-3.530710e+01	-2.613022e+02
1.070000e-06	-4.755413e-06	-3.965144e-09	-3.492049e+01	-2.604609e+02
1.080000e-06	-4.702325e-06	-3.958260e-09	-3.453065e+01	-2.595927e+02
1.090000e-06	-4.648956e-06	-3.943153e-09	-3.413874e+01	-2.586986e+02
1.100000e-06	-4.595322e-06	-3.921539e-09	-3.374489e+01	-2.577798e+02
1.110000e-06	-4.541314e-06	-3.905962e-09	-3.334829e+01	-2.568379e+02
1.120000e-06	-4.486992e-06	-3.896427e-09	-3.294939e+01	-2.558745e+02
1.130000e-06	-4.432393e-06	-3.886356e-09	-3.254845e+01	-2.548915e+02
1.140000e-06	-4.377541e-06	-3.871065e-09	-3.214566e+01	-2.538906e+02
1.150000e-06	-4.322447e-06	-3.855335e-09	-3.174109e+01	-2.528738e+02
1.160000e-06	-4.267122e-06	-3.840933e-09	-3.133482e+01	-2.518429e+02
1.170000e-06	-4.211485e-06	-3.828838e-09	-3.092626e+01	-2.507996e+02
1.180000e-06	-4.155557e-06	-3.816496e-09	-3.051556e+01	-2.497456e+02
1.190000e-06	-4.099425e-06	-3.799243e-09	-3.010336e+01	-2.486821e+02
1.200000e-06	-4.043046e-06	-3.779723e-09	-2.968936e+01	-2.476103e+02
1.210000e-06	-3.986355e-06	-3.763691e-09	-2.927305e+01	-2.465311e+02
1.220000e-06	-3.929331e-06	-3.748404e-09	-2.885431e+01	-2.454448e+02
1.230000e-06	-3.871913e-06	-3.731674e-09	-2.843267e+01	-2.443516e+02
1.240000e-06	-3.814011e-06	-3.714523e-09	-2.800748e+01	-2.432512e+02
1.250000e-06	-3.755730e-06	-3.695800e-09	-2.757950e+01	-2.421430e+02
1.260000e-06	-3.697098e-06	-3.675974e-09	-2.714895e+01	-2.410258e+02
1.270000e-06	-3.638126e-06	-3.656704e-09	-2.671590e+01	-2.398983e+02
1.280000e-06	-3.578971e-06	-3.639619e-09	-2.628150e+01	-2.387585e+02
1.290000e-06	-3.519596e-06	-3.622157e-09	-2.584549e+01	-2.376043e+02
1.300000e-06	-3.459940e-06	-3.603236e-09	-2.540743e+01	-2.364331e+02
1.310000e-06	-3.400049e-06	-3.584132e-09	-2.496763e+01	-2.352421e+02
1.320000e-06	-3.339935e-06	-3.565057e-09	-2.452619e+01	-2.340284e+02
1.330000e-06	-3.279674e-06	-3.543629e-09	-2.408368e+01	-2.327887e+02
1.340000e-06	-3.219321e-06	-3.521293e-09	-2.364049e+01	-2.315197e+02
1.350000e-06	-3.158824e-06	-3.497851e-09	-2.319623e+01	-2.302181e+02
1.360000e-06	-3.098064e-06	-3.473220e-09	-2.275006e+01	-2.288804e+02
1.370000e-06	-3.037017e-06	-3.447857e-09	-2.230177e+01	-2.275034e+02
1.380000e-06	-2.975804e-06	-3.426481e-09	-2.185226e+01	-2.260840e+02
1.390000e-06	-2.914347e-06	-3.409124e-09	-2.140096e+01	-2.246192e+02
1.400000e-06	-2.852628e-06	-3.389770e-09	-2.094774e+01	-2.231064e+02
1.410000e-06	-2.790730e-06	-3.366448e-09	-2.049321e+01	-2.215432e+02
1.420000e-06	-2.728632e-06	-3.345745e-09	-2.003720e+01	-2.199276e+02
1.430000e-06	-2.666420e-06	-3.325431e-09	-1.958036e+01	-2.182580e+02
1.440000e-06	-2.604108e-06	-3.299133e-09	-1.912279e+01	-2.165330e+02
1.450000e-06	-2.541663e-06	-3.267413e-09	-1.866423e+01	-2.147520e+02
1.460000e-06	-2.479079e-06	-3.240268e-09	-1.820465e+01	-2.129145e+02
1.470000e-06	-2.416364e-06	-3.216689e-09	-1.774412e+01	-2.110204e+02
1.480000e-06	-2.353461e-06	-3.188775e-09	-1.728220e+01	-2.090699e+02
1.490000e-06	-2.290362e-06	-3.156414e-09	-1.681884e+01	-2.070637e+02
1.500000e-06	-2.226995e-06	-3.126150e-09	-1.635352e+01	-2.050024e+02
1.510000e-06	-2.163364e-06	-3.098695e-09	-1.588626e+01	-2.028871e+02
1.520000e-06	-2.099659e-06	-3.070373e-09	-1.541846e+01	-2.007185e+02
1.530000e-06	-2.035856e-06	-3.035272e-09	-1.494993e+01	-1.984975e+02
1.540000e-06	-1.971919e-06	-2.997824e-09	-1.448042e+01	-1.962249e+02
1.550000e-06	-1.907911e-06	-2.963238e-09	-1.401039e+01	-1.939009e+02
1.560000e-06	-1.843888e-06	-2.929568e-09	-1.354025e+01	-1.915255e+02
1.570000e-06	-1.779801e-06	-2.890539e-09	-1.306964e+01	-1.890982e+02
1.580000e-06	-1.715531e-06	-2.848675e-09	-1.259768e+01	-1.866175e+02
1.590000e-06	-1.651130e-06	-2.809284e-09	-1.212476e+01	-1.840815e+02
1.600000e-06	-1.586633e-06	-2.773140e-09	-1.165114e+01	-1.814873e+02
1.610000e-06	-1.522021e-06	-2.736049e-09	-1.117668e+01	-1.788308e+02
1.620000e-06	-1.457313e-06	-2.694128e-09	-1.070151e+01	-1.761071e+02
1.630000e-06	-1.392446e-06	-2.648570e-09	-1.022517e+01	-1.733103e+02
1.640000e-06	-1.327487e-06	-2.600521e-09	-9.748155e+00	-1.704330e+02
1.650000e-06	-1.262487e-06	-2.553739e-09	-9.270841e+00	-1.674670e+02
1.660000e-06	-1.197353e-06	-2.502882e-09	-8.792538e+00	-1.644030e+02
1.670000e-06	-1.132012e-06	-2.448563e-09	-8.312719e+00	-1.612304e+02
1.680000e-06	-1.066495e-06	-2.393715e-09	-7.831610e+00	-1.579378e+02
1.690000e-06	-1.000921e-06	-2.343180e-09	-7.350074e+00	-1.545132e+02
1.700000e-06	-9.353687e-07	-2.291135e-09	-6.868706e+00	-1.509435e+02
1.710000e-06	-8.698140e-07	-2.233565e-09	-6.387317e+00	-1.472153e+02
1.720000e-06	-8.041737e-07	-2.172377e-09	-5.905300e+00	-1.433150e+02
1.730000e-06	-7.384180e-07	-2.111570e-09	-5.422435e+00	-1.392287e+02
1.740000e-06	-6.725303e-07	-2.046779e-09	-4.938601e+00	-1.349428e+02
1.750000e-06	-6.065545e-07	-1.976045e-09	-4.454120e+00	-1.304443e+02
1.760000e-06	-5.405996e-07	-1.901276e-09	-3.969792e+00	-1.257205e+02
1.770000e-06	-4.746189e-07	-1.826516e-09	-3.485276e+00	-1.207602e+02
1.780000e-06	-4.085476e-07	-1.750537e-09	-3.000093e+00	-1.155532e+02
1.790000e-06	-3.424450e-07	-1.669809e-09	-2.514681e+00	-1.100908e+02
1.800000e-06	-2.762407e-07	-1.587222e-09	-2.028522e+00	-1.043664e+02
1.810000e-06	-2.099245e-07	-1.501885e-09	-1.541541e+00	-9.837546e+01
1.820000e-06	-1.436009e-07	-1.409948e-09	-1.054507e+00	-9.211553e+01
1.830000e-06	-7.727474e-08	-1.312511e-09	-5.674526e-01	-8.558690e+01
1.840000e-06	-1.102966e-08	-1.211246e-09	-8.099423e-02	-7.879247e+01
1.850000e-06	5.515223e-08	-1.105283e-09	4.050001e-01	-7.173796e+01
1.860000e-06	1.214015e-07	-9.925860e-10	8.914891e-01	-6.443198e+01
1.870000e-06	1.875922e-07	-8.754110e-10	1.377549e+00	-5.688606e+01
1.880000e-06	2.537271e-07	-7.587802e-10	1.863197e+00	-4.911463e+01
1.890000e-06	3.198917e-07	-6.363707e-10	2.349065e+00	-4.113497e+01
1.900000e-06	3.861276e-07	-5.089798e-10	2.835456e+00	-3.296707e+01
1.910000e-06	4.525092e-07	-3.796938e-10	3.322917e+00	-2.463345e+01
1.920000e-06	5.187668e-07	-2.489900e-10	3.809467e+00	-1.615898e+01
1.930000e-06	5.848759e-07	-1.129083e-10	4.294927e+00	-7.570582e+00
1.940000e-06	6.509980e-07	2.658264e-11	4.780483e+00	1.103076e+00
1.950000e-06	7.170400e-07	1.666093e-10	5.265450e+00	9.831909e+00
1.960000e-06	7.830351e-07	3.069345e-10	5.750072e+00	1.858480e+01
1.970000e-06	8.488684e-07	4.484946e-10	6.233507e+00	2.733000e+01
1.980000e-06	9.143524e-07	5.889360e-10	6.714377e+00	3.603555e+01
1.990000e-06	9.796433e-07	7.249248e-10	7.193828e+00	4.466968e+01
2.000000e-06	1.044884e-06	8.560447e-10	7.672910e+00	5.320128e+01
2.010000e-06	1.110035e-06	9.852574e-10	8.151332e+00	6.160028e+01
2.020000e-06	1.175169e-06	1.113018e-09	8.629637e+00	6.983807e+01
2.030000e-06	1.240314e-06	1.236540e-09	9.108013e+00	7.788788e+01
2.040000e-06	1.305318e-06	1.355380e-09	9.585360e+00	8.572514e+01
2.050000e-06	1.370172e-06	1.469825e-09	1.006160e+01	9.332776e+01
2.060000e-06	1.434927e-06	1.578415e-09	1.053712e+01	1.006764e+02
2.070000e-06	1.499685e-06	1.681246e-09	1.101266e+01	1.077548e+02
2.080000e-06	1.564417e-06	1.778400e-09	1.148801e+01	1.145498e+02
2.090000e-06	1.628960e-06	1.868080e-09	1.196197e+01	1.210514e+02
2.100000e-06	1.693280e-06	1.955034e-09	1.243428e+01	1.272529e+02
2.110000e-06	1.757405e-06	2.041401e-09	1.290518e+01	1.331512e+02
2.120000e-06	1.821441e-06	2.121987e-09	1.337541e+01	1.387460e+02
2.130000e-06	1.885403e-06	2.197445e-09	1.384510e+01	1.440405e+02
2.140000e-06	1.949248e-06	2.274630e-09	1.431394e+01	1.490404e+02
2.150000e-06	2.012985e-06	2.350328e-09	1.478198e+01	1.537546e+02
2.160000e-06	2.076567e-06	2.419395e-09	1.524889e+01	1.581939e+02
2.170000e-06	2.139984e-06	2.482230e-09	1.571458e+01	1.623717e+02
2.180000e-06	2.203360e-06	2.541760e-09	1.617997e+01	1.663028e+02
2.190000e-06	2.266661e-06	2.599279e-09	1.664480e+01	1.700038e+02
2.200000e-06	2.329811e-06	2.652607e-09	1.710854e+01	1.734921e+02
2.210000e-06	2.392791e-06	2.699988e-09	1.757102e+01	1.767859e+02
2.220000e-06	2.455604e-06	2.746196e-09	1.803227e+01	1.799036e+02
2.230000e-06	2.518282e-06	2.793999e-09	1.849254e+01	1.828638e+02
2.240000e-06	2.580776e-06	2.842284e-09	1.895145e+01	1.856845e+02
2.250000e-06	2.643111e-06	2.887518e-09	1.940919e+01	1.883831e+02
2.260000e-06	2.705293e-06	2.929325e-09	1.986581e+01	1.909759e+02
2.270000e-06	2.767280e-06	2.968098e-09	2.032100e+01	1.934781e+02
2.280000e-06	2.829120e-06	3.002493e-09	2.077512e+01	1.959034e+02
2.290000e-06	2.890755e-06	3.035505e-09	2.122772e+01	1.982640e+02
2.300000e-06	2.952154e-06	3.064964e-09	2.167859e+01	2.005702e+02
2.310000e-06	3.013292e-06	3.096849e-09	2.212755e+01	2.028306e+02
2.320000e-06	3.074159e-06	3.130666e-09	2.257452e+01	2.050520e+02
2.330000e-06	3.134841e-06	3.162948e-09	2.302012e+01	2.072395e+02
2.340000e-06	3.195319e-06	3.193016e-09	2.346423e+01	2.093965e+02
2.350000e-06	3.255600e-06	3.220310e-09	2.390690e+01	2.115246e+02
2.360000e-06	3.315711e-06	3.248482e-09	2.434831e+01	2.136243e+02
2.370000e-06	3.375694e-06	3.277386e-09	2.478878e+01	2.156946e+02
2.380000e-06	3.435533e-06	3.303226e-09	2.522819e+01	2.177334e+02
2.390000e-06	3.495193e-06	3.326310e-09	2.566630e+01	2.197380e+02
2.400000e-06	3.554609e-06	3.351313e-09	2.610261e+01	2.217049e+02
2.410000e-06	3.613747e-06	3.379370e-09	2.653688e+01	2.236302e+02
2.420000e-06	3.672638e-06	3.405383e-09	2.696934e+01	2.255099e+02
2.430000e-06	3.731172e-06	3.426888e-09	2.739917e+01	2.273402e+02
2.440000e-06	3.789311e-06	3.449855e-09	2.782610e+01	2.291172e+02
2.450000e-06	3.847036e-06	3.473307e-09	2.824999e+01	2.308377e+02
2.460000e-06	3.904303e-06	3.495420e-09	2.867052e+01	2.324992e+02
2.470000e-06	3.961148e-06	3.514758e-09	2.908795e+01	2.340998e+02
2.480000e-06	4.017663e-06	3.533406e-09	2.950296e+01	2.356383e+02
2.490000e-06	4.073911e-06	3.551933e-09	2.991601e+01	2.371147e+02
2.500000e-06	4.129891e-06	3.571483e-09	3.032708e+01	2.385297e+02
2.510000e-06	4.185685e-06	3.590544e-09	3.073680e+01	2.398850e+02
2.520000e-06	4.241273e-06	3.608901e-09	3.114500e+01	2.411831e+02
2.530000e-06	4.296567e-06	3.628088e-09	3.155104e+01	2.424275e+02
2.540000e-06	4.351584e-06	3.646317e-09	3.195505e+01	2.436222e+02
2.550000e-06	4.406310e-06	3.665196e-09	3.235692e+01	2.447720e+02
2.560000e-06	4.460769e-06	3.685217e-09	3.275683e+01	2.458821e+02
2.570000e-06	4.514983e-06	3.703826e-09	3.315494e+01	2.469580e+02
2.580000e-06	4.568869e-06	3.723665e-09	3.355064e+01	2.480053e+02
2.590000e-06	4.622401e-06	3.742573e-09	3.394374e+01	2.490296e+02
2.600000e-06	4.675716e-06	3.759760e-09	3.433525e+01	2.500365e+02
2.610000e-06	4.728693e-06	3.775963e-09	3.472428e+01	2.510312e+02
2.620000e-06	4.781266e-06	3.789351e-09	3.511034e+01	2.520183e+02
2.630000e-06	4.833547e-06	3.800537e-09	3.549425e+01	2.530019e+02
2.640000e-06	4.885407e-06	3.808833e-09	3.587507e+01	2.539854e+02
2.650000e-06	4.936770e-06	3.821338e-09	3.625225e+01	2.549716e+02
2.660000e-06	4.987610e-06	3.836538e-09	3.662559e+01	2.559621e+02
2.670000e-06	5.037928e-06	3.854374e-09	3.699509e+01	2.569580e+02
2.680000e-06	5.087651e-06	3.871048e-09	3.736022e+01	2.579592e+02
2.690000e-06	5.136700e-06	3.885004e-09	3.772040e+01	2.589652e+02
2.700000e-06	5.185274e-06	3.898269e-09	3.807709e+01	2.599742e+02
2.710000e-06	5.233562e-06	3.909307e-09	3.843169e+01	2.609840e+02
2.720000e-06	5.281504e-06	3.918083e-09	3.878374e+01	2.619919e+02
2.730000e-06	5.329158e-06	3.926510e-09	3.913368e+01	2.629943e+02
2.740000e-06	5.376575e-06	3.939742e-09	3.948188e+01	2.639876e+02
2.750000e-06	5.423630e-06	3.955212e-09	3.982741e+01	2.649677e+02
2.760000e-06	5.470318e-06	3.968060e-09	4.017026e+01	2.659307e+02
2.770000e-06	5.516577e-06	3.980466e-09	4.050996e+01	2.668726e+02
2.780000e-06	5.562312e-06	3.994477e-09	4.084580e+01	2.677895e+02
2.790000e-06	5.607641e-06	4.008200e-09	4.117867e+01	2.686780e+02
2.800000e-06	5.652661e-06	4.020534e-09	4.150927e+01	2.695352e+02
2.810000e-06	5.697338e-06	4.030344e-09	4.183734e+01	2.703586e+02
2.820000e-06	5.741634e-06	4.038990e-09	4.216262e+01	2.711464e+02
2.830000e-06	5.785620e-06	4.045961e-09	4.248562e+01	2.718975e+02
2.840000e-06	5.829421e-06	4.053796e-09	4.280727e+01	2.726117e+02
2.850000e-06	5.872965e-06	4.063311e-09	4.312703e+01	2.732894e+02
2.860000e-06	5.916115e-06	4.073070e-09	4.344389e+01	2.739318e+02
2.870000e-06	5.958820e-06	4.084797e-09	4.375748e+01	2.745407e+02
2.880000e-06	6.000894e-06	4.098238e-09	4.406645e+01	2.751188e+02
2.890000e-06	6.042209e-06	4.110213e-09	4.436984e+01	2.756692e+02
2.900000e-06	6.082876e-06	4.118941e-09	4.466847e+01	2.761955e+02
