# Temperatura_=_20.0
# Concentracion g/m^3_=_9000.0
# C_Vs_to_Am_M_A/Vsm_=_65563218390.804596
# pendiente_HvsI_1/m_=_3716.3
# ordenada_HvsI_A/m_=_1297.0
# frecuencia_Hz_=_135477.84518352037

Tiempo_(s)	Campo_(V.s)	Magnetizacion_(V.s)	Campo_(kA/m)	Magnetizacion_(A/m)
0.000000e+00	-7.785622e-06	-4.613850e-09	-5.691059e+01	-3.066830e+02
1.000000e-08	-7.786020e-06	-4.609637e-09	-5.691350e+01	-3.069524e+02
2.000000e-08	-7.786022e-06	-4.608390e-09	-5.691352e+01	-3.072248e+02
3.000000e-08	-7.785423e-06	-4.609703e-09	-5.690914e+01	-3.074899e+02
4.000000e-08	-7.784108e-06	-4.608452e-09	-5.689952e+01	-3.077367e+02
5.000000e-08	-7.782004e-06	-4.604495e-09	-5.688414e+01	-3.079534e+02
6.000000e-08	-7.779145e-06	-4.601298e-09	-5.686325e+01	-3.081281e+02
7.000000e-08	-7.775747e-06	-4.600712e-09	-5.683841e+01	-3.082488e+02
8.000000e-08	-7.771961e-06	-4.589828e-09	-5.681073e+01	-3.083040e+02
9.000000e-08	-7.767730e-06	-4.590893e-09	-5.677980e+01	-3.082824e+02
1.000000e-07	-7.762963e-06	-4.637898e-09	-5.674496e+01	-3.081740e+02
1.100000e-07	-7.757385e-06	-4.671606e-09	-5.670419e+01	-3.079697e+02
1.200000e-07	-7.750872e-06	-4.621662e-09	-5.665658e+01	-3.076620e+02
1.300000e-07	-7.743674e-06	-4.481458e-09	-5.660396e+01	-3.072447e+02
1.400000e-07	-7.736134e-06	-4.492274e-09	-5.654885e+01	-3.067138e+02
1.500000e-07	-7.728415e-06	-4.655447e-09	-5.649243e+01	-3.060670e+02
1.600000e-07	-7.720382e-06	-4.691570e-09	-5.643371e+01	-3.053041e+02
1.700000e-07	-7.711897e-06	-4.540808e-09	-5.637169e+01	-3.044271e+02
1.800000e-07	-7.702761e-06	-4.513729e-09	-5.630490e+01	-3.034400e+02
1.900000e-07	-7.692802e-06	-4.593711e-09	-5.623210e+01	-3.023488e+02
2.000000e-07	-7.682015e-06	-4.668327e-09	-5.615325e+01	-3.011614e+02
2.100000e-07	-7.670618e-06	-4.681887e-09	-5.606994e+01	-2.998876e+02
2.200000e-07	-7.658743e-06	-4.572870e-09	-5.598314e+01	-2.985388e+02
2.300000e-07	-7.646188e-06	-4.449038e-09	-5.589137e+01	-2.971276e+02
2.400000e-07	-7.633110e-06	-4.557250e-09	-5.579578e+01	-2.956677e+02
2.500000e-07	-7.619596e-06	-4.688420e-09	-5.569699e+01	-2.941737e+02
2.600000e-07	-7.605243e-06	-4.501533e-09	-5.559207e+01	-2.926607e+02
2.700000e-07	-7.589756e-06	-4.274548e-09	-5.547887e+01	-2.911439e+02
2.800000e-07	-7.573478e-06	-4.402261e-09	-5.535988e+01	-2.896383e+02
2.900000e-07	-7.556758e-06	-4.533827e-09	-5.523767e+01	-2.881586e+02
3.000000e-07	-7.539552e-06	-4.334717e-09	-5.511189e+01	-2.867185e+02
3.100000e-07	-7.521948e-06	-4.198238e-09	-5.498321e+01	-2.853310e+02
3.200000e-07	-7.503898e-06	-4.332176e-09	-5.485127e+01	-2.840075e+02
3.300000e-07	-7.485282e-06	-4.366621e-09	-5.471520e+01	-2.827580e+02
3.400000e-07	-7.466158e-06	-4.289482e-09	-5.457540e+01	-2.815910e+02
3.500000e-07	-7.446640e-06	-4.323367e-09	-5.443273e+01	-2.805129e+02
3.600000e-07	-7.426773e-06	-4.242682e-09	-5.428751e+01	-2.795284e+02
3.700000e-07	-7.406491e-06	-4.210090e-09	-5.413926e+01	-2.786402e+02
3.800000e-07	-7.385730e-06	-4.322231e-09	-5.398750e+01	-2.778491e+02
3.900000e-07	-7.364511e-06	-4.358886e-09	-5.383240e+01	-2.771539e+02
4.000000e-07	-7.342750e-06	-4.207684e-09	-5.367333e+01	-2.765519e+02
4.100000e-07	-7.320234e-06	-4.203033e-09	-5.350875e+01	-2.760385e+02
4.200000e-07	-7.297122e-06	-4.341178e-09	-5.333980e+01	-2.756077e+02
4.300000e-07	-7.273721e-06	-4.349481e-09	-5.316874e+01	-2.752523e+02
4.400000e-07	-7.250025e-06	-4.212108e-09	-5.299554e+01	-2.749638e+02
4.500000e-07	-7.225910e-06	-4.200923e-09	-5.281926e+01	-2.747332e+02
4.600000e-07	-7.201248e-06	-4.310563e-09	-5.263899e+01	-2.745508e+02
4.700000e-07	-7.175872e-06	-4.309612e-09	-5.245350e+01	-2.744065e+02
4.800000e-07	-7.149732e-06	-4.198530e-09	-5.226242e+01	-2.742905e+02
4.900000e-07	-7.122925e-06	-4.204949e-09	-5.206647e+01	-2.741927e+02
5.000000e-07	-7.095609e-06	-4.279162e-09	-5.186680e+01	-2.741037e+02
5.100000e-07	-7.067879e-06	-4.259781e-09	-5.166411e+01	-2.740148e+02
5.200000e-07	-7.039752e-06	-4.211167e-09	-5.145850e+01	-2.739178e+02
5.300000e-07	-7.011181e-06	-4.214933e-09	-5.124966e+01	-2.738057e+02
5.400000e-07	-6.982063e-06	-4.225373e-09	-5.103681e+01	-2.736724e+02
5.500000e-07	-6.952422e-06	-4.226621e-09	-5.082014e+01	-2.735130e+02
5.600000e-07	-6.922330e-06	-4.232506e-09	-5.060018e+01	-2.733237e+02
5.700000e-07	-6.891695e-06	-4.196825e-09	-5.037625e+01	-2.731019e+02
5.800000e-07	-6.860504e-06	-4.173484e-09	-5.014825e+01	-2.728463e+02
5.900000e-07	-6.828997e-06	-4.203373e-09	-4.991795e+01	-2.725565e+02
6.000000e-07	-6.797276e-06	-4.221004e-09	-4.968608e+01	-2.722330e+02
6.100000e-07	-6.765170e-06	-4.169150e-09	-4.945139e+01	-2.718776e+02
6.200000e-07	-6.732451e-06	-4.138563e-09	-4.921222e+01	-2.714924e+02
6.300000e-07	-6.699070e-06	-4.167707e-09	-4.896822e+01	-2.710805e+02
6.400000e-07	-6.664998e-06	-4.196387e-09	-4.871916e+01	-2.706452e+02
6.500000e-07	-6.630300e-06	-4.157381e-09	-4.846553e+01	-2.701903e+02
6.600000e-07	-6.595063e-06	-4.116215e-09	-4.820796e+01	-2.697195e+02
6.700000e-07	-6.559414e-06	-4.130089e-09	-4.794737e+01	-2.692368e+02
6.800000e-07	-6.523461e-06	-4.161414e-09	-4.768457e+01	-2.687457e+02
6.900000e-07	-6.487038e-06	-4.131827e-09	-4.741832e+01	-2.682497e+02
7.000000e-07	-6.450050e-06	-4.093418e-09	-4.714796e+01	-2.677519e+02
7.100000e-07	-6.412636e-06	-4.097219e-09	-4.687447e+01	-2.672546e+02
7.200000e-07	-6.374828e-06	-4.117381e-09	-4.659811e+01	-2.667600e+02
7.300000e-07	-6.336539e-06	-4.110570e-09	-4.631822e+01	-2.662694e+02
7.400000e-07	-6.297843e-06	-4.090379e-09	-4.603537e+01	-2.657835e+02
7.500000e-07	-6.258799e-06	-4.068741e-09	-4.574997e+01	-2.653026e+02
7.600000e-07	-6.219428e-06	-4.067978e-09	-4.546218e+01	-2.648262e+02
7.700000e-07	-6.179772e-06	-4.083468e-09	-4.517230e+01	-2.643533e+02
7.800000e-07	-6.139780e-06	-4.073830e-09	-4.487998e+01	-2.638825e+02
7.900000e-07	-6.099303e-06	-4.035185e-09	-4.458410e+01	-2.634119e+02
8.000000e-07	-6.058185e-06	-4.023408e-09	-4.428354e+01	-2.629395e+02
8.100000e-07	-6.016309e-06	-4.046095e-09	-4.397744e+01	-2.624627e+02
8.200000e-07	-5.973704e-06	-4.044063e-09	-4.366600e+01	-2.619793e+02
8.300000e-07	-5.930556e-06	-4.009940e-09	-4.335061e+01	-2.614865e+02
8.400000e-07	-5.887036e-06	-3.991080e-09	-4.303249e+01	-2.609821e+02
8.500000e-07	-5.843215e-06	-4.002461e-09	-4.271218e+01	-2.604637e+02
8.600000e-07	-5.799093e-06	-4.003882e-09	-4.238965e+01	-2.599294e+02
8.700000e-07	-5.754649e-06	-3.980578e-09	-4.206478e+01	-2.593774e+02
8.800000e-07	-5.709855e-06	-3.953328e-09	-4.173735e+01	-2.588064e+02
8.900000e-07	-5.664669e-06	-3.950118e-09	-4.140705e+01	-2.582154e+02
9.000000e-07	-5.619056e-06	-3.951515e-09	-4.107364e+01	-2.576038e+02
9.100000e-07	-5.573027e-06	-3.941468e-09	-4.073718e+01	-2.569715e+02
9.200000e-07	-5.526598e-06	-3.920541e-09	-4.039779e+01	-2.563187e+02
9.300000e-07	-5.479776e-06	-3.908158e-09	-4.005554e+01	-2.556461e+02
9.400000e-07	-5.432620e-06	-3.903310e-09	-3.971085e+01	-2.549544e+02
9.500000e-07	-5.385120e-06	-3.898831e-09	-3.936363e+01	-2.542449e+02
9.600000e-07	-5.337237e-06	-3.882802e-09	-3.901362e+01	-2.535189e+02
9.700000e-07	-5.288934e-06	-3.864410e-09	-3.866054e+01	-2.527778e+02
9.800000e-07	-5.240149e-06	-3.853186e-09	-3.830394e+01	-2.520232e+02
9.900000e-07	-5.190784e-06	-3.847028e-09	-3.794309e+01	-2.512567e+02
1.000000e-06	-5.140719e-06	-3.831265e-09	-3.757713e+01	-2.504794e+02
1.010000e-06	-5.090050e-06	-3.811143e-09	-3.720676e+01	-2.496928e+02
1.020000e-06	-5.038978e-06	-3.798340e-09	-3.683344e+01	-2.488977e+02
1.030000e-06	-4.987564e-06	-3.792659e-09	-3.645762e+01	-2.480949e+02
1.040000e-06	-4.935866e-06	-3.780569e-09	-3.607972e+01	-2.472850e+02
1.050000e-06	-4.883792e-06	-3.762158e-09	-3.569907e+01	-2.464679e+02
1.060000e-06	-4.831230e-06	-3.747539e-09	-3.531486e+01	-2.456435e+02
1.070000e-06	-4.778282e-06	-3.735726e-09	-3.492783e+01	-2.448112e+02
1.080000e-06	-4.725056e-06	-3.721182e-09	-3.453876e+01	-2.439702e+02
1.090000e-06	-4.671566e-06	-3.705361e-09	-3.414776e+01	-2.431195e+02
1.100000e-06	-4.617761e-06	-3.690668e-09	-3.375446e+01	-2.422577e+02
1.110000e-06	-4.563601e-06	-3.673424e-09	-3.335857e+01	-2.413832e+02
1.120000e-06	-4.509084e-06	-3.658499e-09	-3.296007e+01	-2.404946e+02
1.130000e-06	-4.454279e-06	-3.645335e-09	-3.255946e+01	-2.395900e+02
1.140000e-06	-4.399205e-06	-3.630461e-09	-3.215689e+01	-2.386678e+02
1.150000e-06	-4.343849e-06	-3.614088e-09	-3.175225e+01	-2.377264e+02
1.160000e-06	-4.288254e-06	-3.598823e-09	-3.134587e+01	-2.367644e+02
1.170000e-06	-4.232519e-06	-3.580134e-09	-3.093846e+01	-2.357804e+02
1.180000e-06	-4.176595e-06	-3.562538e-09	-3.052967e+01	-2.347734e+02
1.190000e-06	-4.120339e-06	-3.549405e-09	-3.011846e+01	-2.337425e+02
1.200000e-06	-4.063762e-06	-3.536359e-09	-2.970490e+01	-2.326873e+02
1.210000e-06	-4.006857e-06	-3.514883e-09	-2.928894e+01	-2.316074e+02
1.220000e-06	-3.949536e-06	-3.493568e-09	-2.886994e+01	-2.305029e+02
1.230000e-06	-3.891674e-06	-3.477852e-09	-2.844698e+01	-2.293740e+02
1.240000e-06	-3.833289e-06	-3.462087e-09	-2.802020e+01	-2.282214e+02
1.250000e-06	-3.774538e-06	-3.439466e-09	-2.759075e+01	-2.270455e+02
1.260000e-06	-3.715480e-06	-3.414291e-09	-2.715906e+01	-2.258474e+02
1.270000e-06	-3.656136e-06	-3.392600e-09	-2.672527e+01	-2.246277e+02
1.280000e-06	-3.596617e-06	-3.373768e-09	-2.629020e+01	-2.233876e+02
1.290000e-06	-3.536969e-06	-3.355392e-09	-2.585420e+01	-2.221277e+02
1.300000e-06	-3.477176e-06	-3.335213e-09	-2.541713e+01	-2.208489e+02
1.310000e-06	-3.417191e-06	-3.315276e-09	-2.497866e+01	-2.195515e+02
1.320000e-06	-3.357013e-06	-3.296227e-09	-2.453877e+01	-2.182358e+02
1.330000e-06	-3.296666e-06	-3.273169e-09	-2.409765e+01	-2.169019e+02
1.340000e-06	-3.236083e-06	-3.245239e-09	-2.365481e+01	-2.155491e+02
1.350000e-06	-3.175272e-06	-3.217378e-09	-2.321030e+01	-2.141768e+02
1.360000e-06	-3.114221e-06	-3.190652e-09	-2.276403e+01	-2.127838e+02
1.370000e-06	-3.052904e-06	-3.164825e-09	-2.231583e+01	-2.113683e+02
1.380000e-06	-2.991337e-06	-3.142769e-09	-2.186579e+01	-2.099285e+02
1.390000e-06	-2.929535e-06	-3.124037e-09	-2.141403e+01	-2.084619e+02
1.400000e-06	-2.867584e-06	-3.104369e-09	-2.096119e+01	-2.069659e+02
1.410000e-06	-2.805532e-06	-3.082414e-09	-2.050761e+01	-2.054376e+02
1.420000e-06	-2.743278e-06	-3.059480e-09	-2.005255e+01	-2.038738e+02
1.430000e-06	-2.680801e-06	-3.033480e-09	-1.959586e+01	-2.022711e+02
1.440000e-06	-2.618213e-06	-3.005157e-09	-1.913836e+01	-2.006264e+02
1.450000e-06	-2.555433e-06	-2.975198e-09	-1.867946e+01	-1.989361e+02
1.460000e-06	-2.492401e-06	-2.945943e-09	-1.821871e+01	-1.971971e+02
1.470000e-06	-2.429182e-06	-2.918856e-09	-1.775660e+01	-1.954063e+02
1.480000e-06	-2.365862e-06	-2.890094e-09	-1.729375e+01	-1.935609e+02
1.490000e-06	-2.302494e-06	-2.859945e-09	-1.683055e+01	-1.916581e+02
1.500000e-06	-2.239001e-06	-2.830420e-09	-1.636643e+01	-1.896958e+02
1.510000e-06	-2.175344e-06	-2.802395e-09	-1.590112e+01	-1.876718e+02
1.520000e-06	-2.111644e-06	-2.773164e-09	-1.543549e+01	-1.855846e+02
1.530000e-06	-2.047893e-06	-2.739904e-09	-1.496949e+01	-1.834326e+02
1.540000e-06	-1.983912e-06	-2.704615e-09	-1.450181e+01	-1.812148e+02
1.550000e-06	-1.919695e-06	-2.669800e-09	-1.403240e+01	-1.789300e+02
1.560000e-06	-1.855405e-06	-2.633097e-09	-1.356246e+01	-1.765774e+02
1.570000e-06	-1.791091e-06	-2.592409e-09	-1.309235e+01	-1.741560e+02
1.580000e-06	-1.726660e-06	-2.549499e-09	-1.262137e+01	-1.716647e+02
1.590000e-06	-1.662094e-06	-2.508174e-09	-1.214942e+01	-1.691022e+02
1.600000e-06	-1.597376e-06	-2.469519e-09	-1.167635e+01	-1.664668e+02
1.610000e-06	-1.532475e-06	-2.430913e-09	-1.120194e+01	-1.637562e+02
1.620000e-06	-1.467437e-06	-2.390131e-09	-1.072653e+01	-1.609675e+02
1.630000e-06	-1.402138e-06	-2.344310e-09	-1.024922e+01	-1.580971e+02
1.640000e-06	-1.336651e-06	-2.296299e-09	-9.770522e+00	-1.551404e+02
1.650000e-06	-1.271145e-06	-2.249310e-09	-9.291696e+00	-1.520919e+02
1.660000e-06	-1.205444e-06	-2.197784e-09	-8.811441e+00	-1.489451e+02
1.670000e-06	-1.139556e-06	-2.142130e-09	-8.329817e+00	-1.456923e+02
1.680000e-06	-1.073597e-06	-2.085057e-09	-7.847673e+00	-1.423249e+02
1.690000e-06	-1.007601e-06	-2.029812e-09	-7.365264e+00	-1.388331e+02
1.700000e-06	-9.415851e-07	-1.973836e-09	-6.882709e+00	-1.352063e+02
1.710000e-06	-8.755072e-07	-1.914999e-09	-6.399699e+00	-1.314331e+02
1.720000e-06	-8.093397e-07	-1.854487e-09	-5.916034e+00	-1.275011e+02
1.730000e-06	-7.431232e-07	-1.792813e-09	-5.432010e+00	-1.233977e+02
1.740000e-06	-6.768798e-07	-1.728858e-09	-4.947791e+00	-1.191100e+02
1.750000e-06	-6.106028e-07	-1.658776e-09	-4.463326e+00	-1.146249e+02
1.760000e-06	-5.442778e-07	-1.584470e-09	-3.978510e+00	-1.099296e+02
1.770000e-06	-4.778106e-07	-1.509246e-09	-3.492654e+00	-1.050120e+02
1.780000e-06	-4.112520e-07	-1.431120e-09	-3.006131e+00	-9.986071e+01
1.790000e-06	-3.446866e-07	-1.348915e-09	-2.519557e+00	-9.446573e+01
1.800000e-06	-2.781330e-07	-1.266383e-09	-2.033070e+00	-8.881847e+01
1.810000e-06	-2.115317e-07	-1.182848e-09	-1.546234e+00	-8.291222e+01
1.820000e-06	-1.448652e-07	-1.093383e-09	-1.058922e+00	-7.674245e+01
1.830000e-06	-7.825245e-08	-9.971931e-10	-5.720022e-01	-7.030704e+01
1.840000e-06	-1.166797e-08	-8.976905e-10	-8.528942e-02	-6.360656e+01
1.850000e-06	5.491747e-08	-7.933046e-10	4.014304e-01	-5.664444e+01
1.860000e-06	1.215380e-07	-6.819699e-10	8.884068e-01	-4.942715e+01
1.870000e-06	1.882237e-07	-5.644186e-10	1.375860e+00	-4.196429e+01
1.880000e-06	2.548069e-07	-4.446414e-10	1.862563e+00	-3.426862e+01
1.890000e-06	3.212737e-07	-3.233180e-10	2.348416e+00	-2.635605e+01
1.900000e-06	3.878353e-07	-1.974468e-10	2.834961e+00	-1.824557e+01
1.910000e-06	4.545245e-07	-6.983483e-11	3.322439e+00	-9.959079e+00
1.920000e-06	5.211477e-07	6.077903e-11	3.809436e+00	-1.521181e+00
1.930000e-06	5.876912e-07	1.954624e-10	4.295848e+00	7.041067e+00
1.940000e-06	6.541559e-07	3.331327e-10	4.781686e+00	1.569849e+01
1.950000e-06	7.204707e-07	4.727926e-10	5.266427e+00	2.442017e+01
1.960000e-06	7.867453e-07	6.129822e-10	5.750875e+00	3.317385e+01
1.970000e-06	8.529996e-07	7.526595e-10	6.235174e+00	4.192639e+01
1.980000e-06	9.191439e-07	8.894501e-10	6.718670e+00	5.064425e+01
1.990000e-06	9.851667e-07	1.023867e-09	7.201277e+00	5.929395e+01
2.000000e-06	1.051024e-06	1.158536e-09	7.682675e+00	6.784260e+01
2.010000e-06	1.116748e-06	1.290671e-09	8.163099e+00	7.625834e+01
2.020000e-06	1.182395e-06	1.418213e-09	8.642955e+00	8.451086e+01
2.030000e-06	1.247928e-06	1.541081e-09	9.121981e+00	9.257180e+01
2.040000e-06	1.313352e-06	1.659532e-09	9.600216e+00	1.004152e+02
2.050000e-06	1.378707e-06	1.774250e-09	1.007794e+01	1.080177e+02
2.060000e-06	1.443990e-06	1.884461e-09	1.055514e+01	1.153592e+02
2.070000e-06	1.509041e-06	1.988466e-09	1.103065e+01	1.224228e+02
2.080000e-06	1.573866e-06	2.085570e-09	1.150450e+01	1.291948e+02
2.090000e-06	1.638583e-06	2.176674e-09	1.197756e+01	1.356655e+02
2.100000e-06	1.703163e-06	2.265101e-09	1.244962e+01	1.418285e+02
2.110000e-06	1.767578e-06	2.350300e-09	1.292047e+01	1.476812e+02
2.120000e-06	1.831822e-06	2.429801e-09	1.339008e+01	1.532242e+02
2.130000e-06	1.895914e-06	2.507253e-09	1.385857e+01	1.584617e+02
2.140000e-06	1.959872e-06	2.584335e-09	1.432609e+01	1.634009e+02
2.150000e-06	2.023754e-06	2.658953e-09	1.479304e+01	1.680518e+02
2.160000e-06	2.087542e-06	2.727011e-09	1.525931e+01	1.724268e+02
2.170000e-06	2.151162e-06	2.790334e-09	1.572436e+01	1.765407e+02
2.180000e-06	2.214628e-06	2.849871e-09	1.618827e+01	1.804098e+02
2.190000e-06	2.277985e-06	2.907276e-09	1.665139e+01	1.840518e+02
2.200000e-06	2.341247e-06	2.957150e-09	1.711382e+01	1.874852e+02
2.210000e-06	2.404445e-06	3.003017e-09	1.757578e+01	1.907292e+02
2.220000e-06	2.467493e-06	3.050818e-09	1.803664e+01	1.938028e+02
2.230000e-06	2.530346e-06	3.098027e-09	1.849608e+01	1.967249e+02
2.240000e-06	2.593038e-06	3.145106e-09	1.895434e+01	1.995136e+02
2.250000e-06	2.655547e-06	3.190860e-09	1.941126e+01	2.021860e+02
2.260000e-06	2.717920e-06	3.235426e-09	1.986719e+01	2.047580e+02
2.270000e-06	2.780097e-06	3.276502e-09	2.032168e+01	2.072439e+02
2.280000e-06	2.842085e-06	3.311973e-09	2.077480e+01	2.096563e+02
2.290000e-06	2.903892e-06	3.344404e-09	2.122659e+01	2.120062e+02
2.300000e-06	2.965466e-06	3.372547e-09	2.167668e+01	2.143024e+02
2.310000e-06	3.026859e-06	3.404437e-09	2.212544e+01	2.165521e+02
2.320000e-06	3.088080e-06	3.437746e-09	2.257295e+01	2.187604e+02
2.330000e-06	3.149084e-06	3.468660e-09	2.301887e+01	2.209309e+02
2.340000e-06	3.209888e-06	3.499423e-09	2.346333e+01	2.230655e+02
2.350000e-06	3.270492e-06	3.527569e-09	2.390633e+01	2.251644e+02
2.360000e-06	3.330853e-06	3.557316e-09	2.434755e+01	2.272270e+02
2.370000e-06	3.391032e-06	3.584433e-09	2.478744e+01	2.292513e+02
2.380000e-06	3.451024e-06	3.608862e-09	2.522596e+01	2.312347e+02
2.390000e-06	3.510784e-06	3.631733e-09	2.566279e+01	2.331741e+02
2.400000e-06	3.570345e-06	3.653188e-09	2.609816e+01	2.350660e+02
2.410000e-06	3.629675e-06	3.676518e-09	2.653185e+01	2.369070e+02
2.420000e-06	3.688718e-06	3.699974e-09	2.696344e+01	2.386939e+02
2.430000e-06	3.747460e-06	3.721981e-09	2.739282e+01	2.404236e+02
2.440000e-06	3.805929e-06	3.743393e-09	2.782022e+01	2.420940e+02
2.450000e-06	3.864115e-06	3.765801e-09	2.824554e+01	2.437035e+02
2.460000e-06	3.921893e-06	3.788445e-09	2.866788e+01	2.452512e+02
2.470000e-06	3.979233e-06	3.808151e-09	2.908701e+01	2.467374e+02
2.480000e-06	4.036243e-06	3.826193e-09	2.950374e+01	2.481631e+02
2.490000e-06	4.092877e-06	3.846125e-09	2.991772e+01	2.495302e+02
2.500000e-06	4.149121e-06	3.865463e-09	3.032884e+01	2.508417e+02
2.510000e-06	4.205037e-06	3.883450e-09	3.073757e+01	2.521011e+02
2.520000e-06	4.260684e-06	3.903171e-09	3.114434e+01	2.533129e+02
2.530000e-06	4.316115e-06	3.923146e-09	3.154952e+01	2.544820e+02
2.540000e-06	4.371333e-06	3.942284e-09	3.195315e+01	2.556136e+02
2.550000e-06	4.426321e-06	3.959028e-09	3.235510e+01	2.567134e+02
2.560000e-06	4.481021e-06	3.975298e-09	3.275494e+01	2.577871e+02
2.570000e-06	4.535423e-06	3.992560e-09	3.315260e+01	2.588401e+02
2.580000e-06	4.589553e-06	4.012046e-09	3.354827e+01	2.598778e+02
2.590000e-06	4.643426e-06	4.029379e-09	3.394207e+01	2.609050e+02
2.600000e-06	4.696975e-06	4.043201e-09	3.433350e+01	2.619261e+02
2.610000e-06	4.750159e-06	4.058358e-09	3.472226e+01	2.629445e+02
2.620000e-06	4.802939e-06	4.075847e-09	3.510806e+01	2.639632e+02
2.630000e-06	4.855354e-06	4.091635e-09	3.549120e+01	2.649841e+02
2.640000e-06	4.907426e-06	4.102668e-09	3.587183e+01	2.660081e+02
2.650000e-06	4.959088e-06	4.114502e-09	3.624947e+01	2.670356e+02
2.660000e-06	5.010295e-06	4.131905e-09	3.662378e+01	2.680657e+02
2.670000e-06	5.061008e-06	4.150034e-09	3.699447e+01	2.690970e+02
2.680000e-06	5.111132e-06	4.161750e-09	3.736086e+01	2.701271e+02
2.690000e-06	5.160681e-06	4.170536e-09	3.772305e+01	2.711531e+02
2.700000e-06	5.209768e-06	4.183583e-09	3.808186e+01	2.721715e+02
2.710000e-06	5.258374e-06	4.195192e-09	3.843716e+01	2.731786e+02
2.720000e-06	5.306512e-06	4.204613e-09	3.878903e+01	2.741704e+02
2.730000e-06	5.354260e-06	4.215304e-09	3.913806e+01	2.751427e+02
2.740000e-06	5.401668e-06	4.231490e-09	3.948460e+01	2.760915e+02
2.750000e-06	5.448804e-06	4.247548e-09	3.982915e+01	2.770132e+02
2.760000e-06	5.495596e-06	4.258390e-09	4.017118e+01	2.779045e+02
2.770000e-06	5.541988e-06	4.268728e-09	4.051029e+01	2.787624e+02
2.780000e-06	5.588050e-06	4.280702e-09	4.084699e+01	2.795848e+02
2.790000e-06	5.633736e-06	4.294051e-09	4.118094e+01	2.803703e+02
2.800000e-06	5.679018e-06	4.304534e-09	4.151194e+01	2.811182e+02
2.810000e-06	5.723928e-06	4.312962e-09	4.184022e+01	2.818286e+02
2.820000e-06	5.768490e-06	4.321543e-09	4.216596e+01	2.825024e+02
2.830000e-06	5.812685e-06	4.331325e-09	4.248901e+01	2.831413e+02
2.840000e-06	5.856507e-06	4.343141e-09	4.280933e+01	2.837477e+02
2.850000e-06	5.900074e-06	4.354757e-09	4.312779e+01	2.843248e+02
2.860000e-06	5.943367e-06	4.364411e-09	4.344426e+01	2.848761e+02
2.870000e-06	5.986232e-06	4.375705e-09	4.375758e+01	2.854057e+02
2.880000e-06	6.028528e-06	4.389706e-09	4.406675e+01	2.859178e+02
2.890000e-06	6.070184e-06	4.401617e-09	4.437125e+01	2.864171e+02
2.900000e-06	6.111221e-06	4.409841e-09	4.467121e+01	2.869078e+02
