# Temperatura_=_20.0
# Concentracion g/m^3_=_9000.0
# C_Vs_to_Am_M_A/Vsm_=_65563218390.804596
# pendiente_HvsI_1/m_=_3716.3
# ordenada_HvsI_A/m_=_1297.0
# frecuencia_Hz_=_135476.05366165115

Tiempo_(s)	Campo_(V.s)	Magnetizacion_(V.s)	Campo_(kA/m)	Magnetizacion_(A/m)
0.000000e+00	-7.775187e-06	-4.626033e-09	-5.691131e+01	-3.033466e+02
1.000000e-08	-7.775452e-06	-4.625213e-09	-5.691325e+01	-3.034951e+02
2.000000e-08	-7.775294e-06	-4.625169e-09	-5.691209e+01	-3.036507e+02
3.000000e-08	-7.774517e-06	-4.625477e-09	-5.690641e+01	-3.038084e+02
4.000000e-08	-7.773051e-06	-4.624275e-09	-5.689568e+01	-3.039629e+02
5.000000e-08	-7.770791e-06	-4.623121e-09	-5.687913e+01	-3.041081e+02
6.000000e-08	-7.767774e-06	-4.622179e-09	-5.685705e+01	-3.042381e+02
7.000000e-08	-7.764250e-06	-4.618266e-09	-5.683125e+01	-3.043463e+02
8.000000e-08	-7.760435e-06	-4.602895e-09	-5.680333e+01	-3.044266e+02
9.000000e-08	-7.756221e-06	-4.608522e-09	-5.677249e+01	-3.044728e+02
1.000000e-07	-7.751361e-06	-4.666027e-09	-5.673691e+01	-3.044792e+02
1.100000e-07	-7.745620e-06	-4.715282e-09	-5.669489e+01	-3.044403e+02
1.200000e-07	-7.738964e-06	-4.657714e-09	-5.664617e+01	-3.043515e+02
1.300000e-07	-7.731686e-06	-4.499471e-09	-5.659290e+01	-3.042089e+02
1.400000e-07	-7.724112e-06	-4.505605e-09	-5.653746e+01	-3.040094e+02
1.500000e-07	-7.716301e-06	-4.705603e-09	-5.648029e+01	-3.037509e+02
1.600000e-07	-7.708154e-06	-4.761319e-09	-5.642065e+01	-3.034322e+02
1.700000e-07	-7.699554e-06	-4.574833e-09	-5.635770e+01	-3.030534e+02
1.800000e-07	-7.690434e-06	-4.505672e-09	-5.629095e+01	-3.026155e+02
1.900000e-07	-7.680457e-06	-4.636542e-09	-5.621793e+01	-3.021204e+02
2.000000e-07	-7.669519e-06	-4.744245e-09	-5.613786e+01	-3.015714e+02
2.100000e-07	-7.658052e-06	-4.736078e-09	-5.605392e+01	-3.009725e+02
2.200000e-07	-7.646043e-06	-4.604881e-09	-5.596603e+01	-3.003285e+02
2.300000e-07	-7.633355e-06	-4.505521e-09	-5.587316e+01	-2.996451e+02
2.400000e-07	-7.620165e-06	-4.662071e-09	-5.577661e+01	-2.989286e+02
2.500000e-07	-7.606546e-06	-4.822467e-09	-5.567692e+01	-2.981858e+02
2.600000e-07	-7.592118e-06	-4.644268e-09	-5.557132e+01	-2.974237e+02
2.700000e-07	-7.576680e-06	-4.404094e-09	-5.545831e+01	-2.966497e+02
2.800000e-07	-7.560488e-06	-4.553225e-09	-5.533980e+01	-2.958710e+02
2.900000e-07	-7.543778e-06	-4.710876e-09	-5.521748e+01	-2.950948e+02
3.000000e-07	-7.526586e-06	-4.505827e-09	-5.509164e+01	-2.943279e+02
3.100000e-07	-7.508903e-06	-4.336282e-09	-5.496221e+01	-2.935769e+02
3.200000e-07	-7.490750e-06	-4.477637e-09	-5.482934e+01	-2.928475e+02
3.300000e-07	-7.472132e-06	-4.549520e-09	-5.469307e+01	-2.921450e+02
3.400000e-07	-7.453038e-06	-4.456025e-09	-5.455331e+01	-2.914739e+02
3.500000e-07	-7.433487e-06	-4.432192e-09	-5.441020e+01	-2.908377e+02
3.600000e-07	-7.413519e-06	-4.385136e-09	-5.426404e+01	-2.902391e+02
3.700000e-07	-7.393140e-06	-4.369969e-09	-5.411487e+01	-2.896799e+02
3.800000e-07	-7.372386e-06	-4.474904e-09	-5.396296e+01	-2.891611e+02
3.900000e-07	-7.351132e-06	-4.509253e-09	-5.380739e+01	-2.886827e+02
4.000000e-07	-7.329276e-06	-4.349759e-09	-5.364741e+01	-2.882437e+02
4.100000e-07	-7.306822e-06	-4.323480e-09	-5.348306e+01	-2.878425e+02
4.200000e-07	-7.283850e-06	-4.488672e-09	-5.331492e+01	-2.874767e+02
4.300000e-07	-7.260493e-06	-4.511194e-09	-5.314395e+01	-2.871434e+02
4.400000e-07	-7.236682e-06	-4.337103e-09	-5.296967e+01	-2.868390e+02
4.500000e-07	-7.212378e-06	-4.305249e-09	-5.279177e+01	-2.865595e+02
4.600000e-07	-7.187636e-06	-4.448322e-09	-5.261066e+01	-2.863007e+02
4.700000e-07	-7.162338e-06	-4.481402e-09	-5.242549e+01	-2.860582e+02
4.800000e-07	-7.136177e-06	-4.338762e-09	-5.223401e+01	-2.858274e+02
4.900000e-07	-7.109168e-06	-4.306587e-09	-5.203631e+01	-2.856041e+02
5.000000e-07	-7.081668e-06	-4.412213e-09	-5.183502e+01	-2.853837e+02
5.100000e-07	-7.053813e-06	-4.434184e-09	-5.163114e+01	-2.851625e+02
5.200000e-07	-7.025622e-06	-4.351268e-09	-5.142479e+01	-2.849365e+02
5.300000e-07	-6.997005e-06	-4.331176e-09	-5.121532e+01	-2.847024e+02
5.400000e-07	-6.967812e-06	-4.357931e-09	-5.100164e+01	-2.844575e+02
5.500000e-07	-6.938049e-06	-4.371193e-09	-5.078379e+01	-2.841992e+02
5.600000e-07	-6.907856e-06	-4.374201e-09	-5.056279e+01	-2.839257e+02
5.700000e-07	-6.877218e-06	-4.342394e-09	-5.033853e+01	-2.836355e+02
5.800000e-07	-6.846081e-06	-4.298479e-09	-5.011062e+01	-2.833277e+02
5.900000e-07	-6.814592e-06	-4.330609e-09	-4.988013e+01	-2.830018e+02
6.000000e-07	-6.782790e-06	-4.377804e-09	-4.964736e+01	-2.826579e+02
6.100000e-07	-6.750595e-06	-4.331308e-09	-4.941170e+01	-2.822963e+02
6.200000e-07	-6.717844e-06	-4.272130e-09	-4.917197e+01	-2.819175e+02
6.300000e-07	-6.684405e-06	-4.299087e-09	-4.892721e+01	-2.815227e+02
6.400000e-07	-6.650331e-06	-4.344900e-09	-4.867781e+01	-2.811128e+02
6.500000e-07	-6.615668e-06	-4.312173e-09	-4.842408e+01	-2.806892e+02
6.600000e-07	-6.580451e-06	-4.259245e-09	-4.816631e+01	-2.802532e+02
6.700000e-07	-6.544804e-06	-4.266312e-09	-4.790539e+01	-2.798062e+02
6.800000e-07	-6.508736e-06	-4.304583e-09	-4.764139e+01	-2.793494e+02
6.900000e-07	-6.472204e-06	-4.284362e-09	-4.737399e+01	-2.788841e+02
7.000000e-07	-6.435241e-06	-4.243953e-09	-4.710343e+01	-2.784114e+02
7.100000e-07	-6.397817e-06	-4.241370e-09	-4.682950e+01	-2.779321e+02
7.200000e-07	-6.359904e-06	-4.258506e-09	-4.655200e+01	-2.774471e+02
7.300000e-07	-6.321646e-06	-4.249425e-09	-4.627196e+01	-2.769567e+02
7.400000e-07	-6.283074e-06	-4.235018e-09	-4.598963e+01	-2.764614e+02
7.500000e-07	-6.244052e-06	-4.217702e-09	-4.570400e+01	-2.759613e+02
7.600000e-07	-6.204591e-06	-4.211475e-09	-4.541517e+01	-2.754563e+02
7.700000e-07	-6.164811e-06	-4.221109e-09	-4.512399e+01	-2.749462e+02
7.800000e-07	-6.124695e-06	-4.216866e-09	-4.483036e+01	-2.744306e+02
7.900000e-07	-6.084184e-06	-4.181919e-09	-4.453384e+01	-2.739090e+02
8.000000e-07	-6.043198e-06	-4.169937e-09	-4.423383e+01	-2.733809e+02
8.100000e-07	-6.001544e-06	-4.186951e-09	-4.392894e+01	-2.728456e+02
8.200000e-07	-5.959115e-06	-4.179745e-09	-4.361838e+01	-2.723025e+02
8.300000e-07	-5.916088e-06	-4.143919e-09	-4.330344e+01	-2.717510e+02
8.400000e-07	-5.872642e-06	-4.131392e-09	-4.298543e+01	-2.711904e+02
8.500000e-07	-5.828830e-06	-4.145194e-09	-4.266474e+01	-2.706204e+02
8.600000e-07	-5.784624e-06	-4.141434e-09	-4.234117e+01	-2.700403e+02
8.700000e-07	-5.740074e-06	-4.111318e-09	-4.201508e+01	-2.694498e+02
8.800000e-07	-5.695250e-06	-4.090702e-09	-4.168699e+01	-2.688486e+02
8.900000e-07	-5.650088e-06	-4.097795e-09	-4.135642e+01	-2.682364e+02
9.000000e-07	-5.604497e-06	-4.098949e-09	-4.102271e+01	-2.676132e+02
9.100000e-07	-5.558460e-06	-4.078782e-09	-4.068574e+01	-2.669789e+02
9.200000e-07	-5.512094e-06	-4.055663e-09	-4.034636e+01	-2.663333e+02
9.300000e-07	-5.465331e-06	-4.051570e-09	-4.000407e+01	-2.656765e+02
9.400000e-07	-5.418142e-06	-4.052278e-09	-3.965867e+01	-2.650085e+02
9.500000e-07	-5.370637e-06	-4.043483e-09	-3.931095e+01	-2.643291e+02
9.600000e-07	-5.322711e-06	-4.022498e-09	-3.896015e+01	-2.636384e+02
9.700000e-07	-5.274238e-06	-4.006901e-09	-3.860535e+01	-2.629361e+02
9.800000e-07	-5.225297e-06	-4.003048e-09	-3.824712e+01	-2.622220e+02
9.900000e-07	-5.175930e-06	-4.000269e-09	-3.788577e+01	-2.614957e+02
1.000000e-06	-5.126118e-06	-3.979470e-09	-3.752117e+01	-2.607568e+02
1.010000e-06	-5.075699e-06	-3.953646e-09	-3.715212e+01	-2.600047e+02
1.020000e-06	-5.024732e-06	-3.942819e-09	-3.677906e+01	-2.592387e+02
1.030000e-06	-4.973428e-06	-3.942246e-09	-3.640354e+01	-2.584579e+02
1.040000e-06	-4.921728e-06	-3.928004e-09	-3.602511e+01	-2.576617e+02
1.050000e-06	-4.869673e-06	-3.905431e-09	-3.564409e+01	-2.568489e+02
1.060000e-06	-4.817297e-06	-3.890763e-09	-3.526072e+01	-2.560185e+02
1.070000e-06	-4.764555e-06	-3.882506e-09	-3.487467e+01	-2.551698e+02
1.080000e-06	-4.711419e-06	-3.870202e-09	-3.448574e+01	-2.543015e+02
1.090000e-06	-4.657883e-06	-3.852579e-09	-3.409387e+01	-2.534128e+02
1.100000e-06	-4.603943e-06	-3.833535e-09	-3.369905e+01	-2.525029e+02
1.110000e-06	-4.549639e-06	-3.816833e-09	-3.330157e+01	-2.515711e+02
1.120000e-06	-4.495086e-06	-3.803910e-09	-3.290226e+01	-2.506168e+02
1.130000e-06	-4.440295e-06	-3.790838e-09	-3.250121e+01	-2.496396e+02
1.140000e-06	-4.385208e-06	-3.773045e-09	-3.209800e+01	-2.486393e+02
1.150000e-06	-4.329862e-06	-3.752466e-09	-3.169289e+01	-2.476160e+02
1.160000e-06	-4.274278e-06	-3.737946e-09	-3.128603e+01	-2.465699e+02
1.170000e-06	-4.218457e-06	-3.725373e-09	-3.087745e+01	-2.455014e+02
1.180000e-06	-4.162438e-06	-3.710503e-09	-3.046741e+01	-2.444110e+02
1.190000e-06	-4.106239e-06	-3.691832e-09	-3.005606e+01	-2.432997e+02
1.200000e-06	-4.049762e-06	-3.673805e-09	-2.964266e+01	-2.421683e+02
1.210000e-06	-3.992874e-06	-3.655131e-09	-2.922627e+01	-2.410179e+02
1.220000e-06	-3.935619e-06	-3.636714e-09	-2.880718e+01	-2.398495e+02
1.230000e-06	-3.877944e-06	-3.618339e-09	-2.838503e+01	-2.386641e+02
1.240000e-06	-3.819770e-06	-3.598254e-09	-2.795922e+01	-2.374629e+02
1.250000e-06	-3.761232e-06	-3.574941e-09	-2.753074e+01	-2.362466e+02
1.260000e-06	-3.702423e-06	-3.555531e-09	-2.710028e+01	-2.350161e+02
1.270000e-06	-3.643365e-06	-3.543587e-09	-2.666800e+01	-2.337718e+02
1.280000e-06	-3.584020e-06	-3.526969e-09	-2.623361e+01	-2.325140e+02
1.290000e-06	-3.524392e-06	-3.503011e-09	-2.579717e+01	-2.312425e+02
1.300000e-06	-3.464525e-06	-3.479680e-09	-2.535896e+01	-2.299570e+02
1.310000e-06	-3.404430e-06	-3.459432e-09	-2.491909e+01	-2.286566e+02
1.320000e-06	-3.344207e-06	-3.438027e-09	-2.447828e+01	-2.273402e+02
1.330000e-06	-3.283838e-06	-3.414780e-09	-2.403640e+01	-2.260060e+02
1.340000e-06	-3.223242e-06	-3.390278e-09	-2.359286e+01	-2.246522e+02
1.350000e-06	-3.162474e-06	-3.367214e-09	-2.314807e+01	-2.232763e+02
1.360000e-06	-3.101540e-06	-3.345742e-09	-2.270205e+01	-2.218758e+02
1.370000e-06	-3.040322e-06	-3.322267e-09	-2.225396e+01	-2.204477e+02
1.380000e-06	-2.978821e-06	-3.296196e-09	-2.180380e+01	-2.189888e+02
1.390000e-06	-2.917114e-06	-3.272894e-09	-2.135213e+01	-2.174959e+02
1.400000e-06	-2.855178e-06	-3.251801e-09	-2.089878e+01	-2.159655e+02
1.410000e-06	-2.792995e-06	-3.227667e-09	-2.044363e+01	-2.143943e+02
1.420000e-06	-2.730618e-06	-3.204119e-09	-1.998705e+01	-2.127790e+02
1.430000e-06	-2.668162e-06	-3.181264e-09	-1.952990e+01	-2.111164e+02
1.440000e-06	-2.605608e-06	-3.156129e-09	-1.907203e+01	-2.094037e+02
1.450000e-06	-2.542873e-06	-3.129244e-09	-1.861283e+01	-2.076382e+02
1.460000e-06	-2.480002e-06	-3.102489e-09	-1.815264e+01	-2.058177e+02
1.470000e-06	-2.416959e-06	-3.074602e-09	-1.769119e+01	-2.039402e+02
1.480000e-06	-2.353720e-06	-3.042745e-09	-1.722830e+01	-2.020042e+02
1.490000e-06	-2.290370e-06	-3.010071e-09	-1.676461e+01	-2.000086e+02
1.500000e-06	-2.226915e-06	-2.980654e-09	-1.630014e+01	-1.979527e+02
1.510000e-06	-2.163286e-06	-2.953057e-09	-1.583440e+01	-1.958362e+02
1.520000e-06	-2.099484e-06	-2.922489e-09	-1.536740e+01	-1.936589e+02
1.530000e-06	-2.035522e-06	-2.885574e-09	-1.489922e+01	-1.914209e+02
1.540000e-06	-1.971405e-06	-2.850139e-09	-1.442991e+01	-1.891224e+02
1.550000e-06	-1.907160e-06	-2.819071e-09	-1.395966e+01	-1.867638e+02
1.560000e-06	-1.842853e-06	-2.786815e-09	-1.348896e+01	-1.843451e+02
1.570000e-06	-1.778537e-06	-2.746567e-09	-1.301819e+01	-1.818661e+02
1.580000e-06	-1.714131e-06	-2.701832e-09	-1.254676e+01	-1.793263e+02
1.590000e-06	-1.649508e-06	-2.659678e-09	-1.207375e+01	-1.767247e+02
1.600000e-06	-1.584649e-06	-2.618298e-09	-1.159901e+01	-1.740593e+02
1.610000e-06	-1.519701e-06	-2.574879e-09	-1.112361e+01	-1.713276e+02
1.620000e-06	-1.454711e-06	-2.530222e-09	-1.064791e+01	-1.685260e+02
1.630000e-06	-1.389578e-06	-2.484377e-09	-1.017116e+01	-1.656500e+02
1.640000e-06	-1.324350e-06	-2.438464e-09	-9.693724e+00	-1.626938e+02
1.650000e-06	-1.259017e-06	-2.392759e-09	-9.215506e+00	-1.596504e+02
1.660000e-06	-1.193593e-06	-2.342096e-09	-8.736631e+00	-1.565119e+02
1.670000e-06	-1.128101e-06	-2.288177e-09	-8.257255e+00	-1.532689e+02
1.680000e-06	-1.062442e-06	-2.236178e-09	-7.776658e+00	-1.499111e+02
1.690000e-06	-9.966289e-07	-2.183972e-09	-7.294932e+00	-1.464268e+02
1.700000e-06	-9.307056e-07	-2.125318e-09	-6.812399e+00	-1.428039e+02
1.710000e-06	-8.647539e-07	-2.063365e-09	-6.329658e+00	-1.390290e+02
1.720000e-06	-7.988011e-07	-2.002387e-09	-5.846910e+00	-1.350886e+02
1.730000e-06	-7.327896e-07	-1.940724e-09	-5.363731e+00	-1.309686e+02
1.740000e-06	-6.667095e-07	-1.873484e-09	-4.880051e+00	-1.266550e+02
1.750000e-06	-6.005899e-07	-1.802210e-09	-4.396082e+00	-1.221339e+02
1.760000e-06	-5.344695e-07	-1.730470e-09	-3.912106e+00	-1.173919e+02
1.770000e-06	-4.682639e-07	-1.657301e-09	-3.427507e+00	-1.124168e+02
1.780000e-06	-4.019548e-07	-1.578742e-09	-2.942151e+00	-1.071972e+02
1.790000e-06	-3.356102e-07	-1.495092e-09	-2.456534e+00	-1.017233e+02
1.800000e-06	-2.692149e-07	-1.409912e-09	-1.970547e+00	-9.598736e+01
1.810000e-06	-2.027844e-07	-1.321967e-09	-1.484302e+00	-8.998350e+01
1.820000e-06	-1.364017e-07	-1.229702e-09	-9.984070e-01	-8.370837e+01
1.830000e-06	-7.000574e-08	-1.133081e-09	-5.124145e-01	-7.716124e+01
1.840000e-06	-3.541945e-09	-1.032701e-09	-2.592564e-02	-7.034423e+01
1.850000e-06	6.294114e-08	-9.281517e-10	4.607044e-01	-6.326245e+01
1.860000e-06	1.294622e-07	-8.180199e-10	9.476124e-01	-5.592414e+01
1.870000e-06	1.959357e-07	-7.029162e-10	1.434172e+00	-4.834066e+01
1.880000e-06	2.623652e-07	-5.836184e-10	1.920410e+00	-4.052655e+01
1.890000e-06	3.288219e-07	-4.586273e-10	2.406847e+00	-3.249941e+01
1.900000e-06	3.952281e-07	-3.291785e-10	2.892914e+00	-2.427981e+01
1.910000e-06	4.616035e-07	-1.986710e-10	3.378756e+00	-1.589106e+01
1.920000e-06	5.279626e-07	-6.769386e-11	3.864478e+00	-7.359008e+00
1.930000e-06	5.942553e-07	6.704427e-11	4.349715e+00	1.288287e+00
1.940000e-06	6.604449e-07	2.056135e-10	4.834196e+00	1.002089e+01
1.950000e-06	7.265609e-07	3.442331e-10	5.318140e+00	1.880737e+01
1.960000e-06	7.926671e-07	4.812562e-10	5.802011e+00	2.761523e+01
1.970000e-06	8.586494e-07	6.193236e-10	6.284976e+00	3.641137e+01
1.980000e-06	9.244497e-07	7.583350e-10	6.766608e+00	4.516249e+01
1.990000e-06	9.900690e-07	8.961951e-10	7.246915e+00	5.383565e+01
2.000000e-06	1.055581e-06	1.029442e-09	7.726435e+00	6.239865e+01
2.010000e-06	1.121123e-06	1.159013e-09	8.206177e+00	7.082054e+01
2.020000e-06	1.186625e-06	1.287456e-09	8.685627e+00	7.907205e+01
2.030000e-06	1.251960e-06	1.412598e-09	9.163852e+00	8.712598e+01
2.040000e-06	1.317174e-06	1.529146e-09	9.641194e+00	9.495754e+01
2.050000e-06	1.382347e-06	1.635183e-09	1.011824e+01	1.025447e+02
2.060000e-06	1.447431e-06	1.739231e-09	1.059463e+01	1.098686e+02
2.070000e-06	1.512369e-06	1.841801e-09	1.106995e+01	1.169132e+02
2.080000e-06	1.577201e-06	1.939674e-09	1.154449e+01	1.236664e+02
2.090000e-06	1.641919e-06	2.030345e-09	1.201820e+01	1.301191e+02
2.100000e-06	1.706497e-06	2.117503e-09	1.249089e+01	1.362658e+02
2.110000e-06	1.770932e-06	2.204646e-09	1.296253e+01	1.421046e+02
2.120000e-06	1.835220e-06	2.286506e-09	1.343309e+01	1.476366e+02
2.130000e-06	1.899311e-06	2.362775e-09	1.390221e+01	1.528662e+02
2.140000e-06	1.963235e-06	2.436178e-09	1.437010e+01	1.578008e+02
2.150000e-06	2.027104e-06	2.507509e-09	1.483761e+01	1.624503e+02
2.160000e-06	2.090824e-06	2.575794e-09	1.530401e+01	1.668269e+02
2.170000e-06	2.154389e-06	2.637844e-09	1.576928e+01	1.709449e+02
2.180000e-06	2.217865e-06	2.696304e-09	1.623390e+01	1.748202e+02
2.190000e-06	2.281233e-06	2.754862e-09	1.669773e+01	1.784699e+02
2.200000e-06	2.344482e-06	2.810437e-09	1.716069e+01	1.819119e+02
2.210000e-06	2.407610e-06	2.859764e-09	1.762276e+01	1.851647e+02
2.220000e-06	2.470570e-06	2.908155e-09	1.808360e+01	1.882465e+02
2.230000e-06	2.533291e-06	2.956575e-09	1.854270e+01	1.911757e+02
2.240000e-06	2.595852e-06	3.000715e-09	1.900061e+01	1.939698e+02
2.250000e-06	2.658308e-06	3.041786e-09	1.945777e+01	1.966454e+02
2.260000e-06	2.720620e-06	3.081309e-09	1.991387e+01	1.992180e+02
2.270000e-06	2.782725e-06	3.121052e-09	2.036845e+01	2.017018e+02
2.280000e-06	2.844651e-06	3.156227e-09	2.082173e+01	2.041093e+02
2.290000e-06	2.906368e-06	3.188346e-09	2.127347e+01	2.064514e+02
2.300000e-06	2.967873e-06	3.219205e-09	2.172366e+01	2.087373e+02
2.310000e-06	3.029241e-06	3.253872e-09	2.217285e+01	2.109745e+02
2.320000e-06	3.090375e-06	3.289613e-09	2.262033e+01	2.131687e+02
2.330000e-06	3.151267e-06	3.320477e-09	2.306604e+01	2.153241e+02
2.340000e-06	3.211972e-06	3.347853e-09	2.351037e+01	2.174432e+02
2.350000e-06	3.272489e-06	3.374052e-09	2.395333e+01	2.195273e+02
2.360000e-06	3.332823e-06	3.401824e-09	2.439495e+01	2.215763e+02
2.370000e-06	3.392994e-06	3.429134e-09	2.483538e+01	2.235894e+02
2.380000e-06	3.453043e-06	3.451328e-09	2.527492e+01	2.255646e+02
2.390000e-06	3.512891e-06	3.473011e-09	2.571298e+01	2.274997e+02
2.400000e-06	3.572426e-06	3.499290e-09	2.614876e+01	2.293919e+02
2.410000e-06	3.631627e-06	3.527248e-09	2.658208e+01	2.312384e+02
2.420000e-06	3.690544e-06	3.552457e-09	2.701333e+01	2.330363e+02
2.430000e-06	3.749228e-06	3.572661e-09	2.744287e+01	2.347831e+02
2.440000e-06	3.807559e-06	3.592529e-09	2.786984e+01	2.364766e+02
2.450000e-06	3.865535e-06	3.614361e-09	2.829419e+01	2.381152e+02
2.460000e-06	3.923157e-06	3.634607e-09	2.871597e+01	2.396979e+02
2.470000e-06	3.980393e-06	3.651315e-09	2.913491e+01	2.412244e+02
2.480000e-06	4.037321e-06	3.670630e-09	2.955160e+01	2.426953e+02
2.490000e-06	4.093893e-06	3.694444e-09	2.996569e+01	2.441118e+02
2.500000e-06	4.150121e-06	3.717154e-09	3.037725e+01	2.454759e+02
2.510000e-06	4.206066e-06	3.734951e-09	3.078675e+01	2.467902e+02
2.520000e-06	4.261721e-06	3.752363e-09	3.119412e+01	2.480583e+02
2.530000e-06	4.317064e-06	3.771904e-09	3.159921e+01	2.492838e+02
2.540000e-06	4.372105e-06	3.789765e-09	3.200209e+01	2.504711e+02
2.550000e-06	4.426855e-06	3.804896e-09	3.240283e+01	2.516246e+02
2.560000e-06	4.481402e-06	3.821345e-09	3.280210e+01	2.527492e+02
2.570000e-06	4.535681e-06	3.840706e-09	3.319940e+01	2.538494e+02
2.580000e-06	4.589653e-06	3.862494e-09	3.359446e+01	2.549297e+02
2.590000e-06	4.643327e-06	3.880751e-09	3.398732e+01	2.559945e+02
2.600000e-06	4.696640e-06	3.896668e-09	3.437756e+01	2.570475e+02
2.610000e-06	4.749614e-06	3.913398e-09	3.476531e+01	2.580921e+02
2.620000e-06	4.802250e-06	3.928398e-09	3.515058e+01	2.591311e+02
2.630000e-06	4.854584e-06	3.938708e-09	3.553365e+01	2.601664e+02
2.640000e-06	4.906550e-06	3.948302e-09	3.591402e+01	2.611996e+02
2.650000e-06	4.958098e-06	3.962917e-09	3.629133e+01	2.622312e+02
2.660000e-06	5.009164e-06	3.980613e-09	3.666511e+01	2.632612e+02
2.670000e-06	5.059568e-06	3.997652e-09	3.703405e+01	2.642887e+02
2.680000e-06	5.109361e-06	4.011428e-09	3.739851e+01	2.653125e+02
2.690000e-06	5.158695e-06	4.025008e-09	3.775962e+01	2.663305e+02
2.700000e-06	5.207616e-06	4.039897e-09	3.811770e+01	2.673403e+02
2.710000e-06	5.256127e-06	4.052640e-09	3.847278e+01	2.683392e+02
2.720000e-06	5.304218e-06	4.061413e-09	3.882479e+01	2.693240e+02
2.730000e-06	5.351978e-06	4.070369e-09	3.917437e+01	2.702916e+02
2.740000e-06	5.399430e-06	4.084173e-09	3.952170e+01	2.712388e+02
2.750000e-06	5.446524e-06	4.097806e-09	3.986642e+01	2.721625e+02
2.760000e-06	5.493191e-06	4.108895e-09	4.020800e+01	2.730599e+02
2.770000e-06	5.539522e-06	4.120879e-09	4.054712e+01	2.739286e+02
2.780000e-06	5.585532e-06	4.136287e-09	4.088390e+01	2.747665e+02
2.790000e-06	5.631077e-06	4.151542e-09	4.121727e+01	2.755721e+02
2.800000e-06	5.676148e-06	4.161755e-09	4.154717e+01	2.763444e+02
2.810000e-06	5.720825e-06	4.169295e-09	4.187419e+01	2.770831e+02
2.820000e-06	5.765186e-06	4.178184e-09	4.219889e+01	2.777886e+02
2.830000e-06	5.809277e-06	4.189621e-09	4.252162e+01	2.784617e+02
2.840000e-06	5.853118e-06	4.201740e-09	4.284252e+01	2.791039e+02
2.850000e-06	5.896686e-06	4.212575e-09	4.316142e+01	2.797174e+02
2.860000e-06	5.939921e-06	4.222322e-09	4.347789e+01	2.803046e+02
2.870000e-06	5.982627e-06	4.234965e-09	4.379047e+01	2.808687e+02
2.880000e-06	6.024611e-06	4.248873e-09	4.409778e+01	2.814127e+02
2.890000e-06	6.065946e-06	4.260565e-09	4.440034e+01	2.819403e+02
2.900000e-06	6.106749e-06	4.269258e-09	4.469900e+01	2.824549e+02
