# Temperatura_=_20.0
# Concentracion g/m^3_=_9000.0
# C_Vs_to_Am_M_A/Vsm_=_65563218390.804596
# pendiente_HvsI_1/m_=_3716.3
# ordenada_HvsI_A/m_=_1297.0
# frecuencia_Hz_=_135478.70081027693

Tiempo_(s)	Campo_(V.s)	Magnetizacion_(V.s)	Campo_(kA/m)	Magnetizacion_(A/m)
0.000000e+00	-7.793643e-06	-4.626088e-09	-5.691486e+01	-3.056223e+02
1.000000e-08	-7.793848e-06	-4.623250e-09	-5.691636e+01	-3.058362e+02
2.000000e-08	-7.793589e-06	-4.625979e-09	-5.691447e+01	-3.060566e+02
3.000000e-08	-7.792811e-06	-4.627201e-09	-5.690879e+01	-3.062750e+02
4.000000e-08	-7.791336e-06	-4.622543e-09	-5.689801e+01	-3.064824e+02
5.000000e-08	-7.788944e-06	-4.619862e-09	-5.688055e+01	-3.066692e+02
6.000000e-08	-7.785861e-06	-4.619340e-09	-5.685804e+01	-3.068254e+02
7.000000e-08	-7.782375e-06	-4.614301e-09	-5.683258e+01	-3.069410e+02
8.000000e-08	-7.778496e-06	-4.611246e-09	-5.680425e+01	-3.070061e+02
9.000000e-08	-7.774118e-06	-4.643506e-09	-5.677228e+01	-3.070113e+02
1.000000e-07	-7.769006e-06	-4.669450e-09	-5.673495e+01	-3.069480e+02
1.100000e-07	-7.763061e-06	-4.633914e-09	-5.669153e+01	-3.068082e+02
1.200000e-07	-7.756371e-06	-4.537727e-09	-5.664267e+01	-3.065853e+02
1.300000e-07	-7.749114e-06	-4.527653e-09	-5.658968e+01	-3.062740e+02
1.400000e-07	-7.741510e-06	-4.688718e-09	-5.653415e+01	-3.058702e+02
1.500000e-07	-7.733609e-06	-4.715782e-09	-5.647645e+01	-3.053719e+02
1.600000e-07	-7.725348e-06	-4.527499e-09	-5.641612e+01	-3.047782e+02
1.700000e-07	-7.716629e-06	-4.518529e-09	-5.635245e+01	-3.040905e+02
1.800000e-07	-7.707022e-06	-4.673099e-09	-5.628230e+01	-3.033115e+02
1.900000e-07	-7.696512e-06	-4.703164e-09	-5.620555e+01	-3.024459e+02
2.000000e-07	-7.685523e-06	-4.671002e-09	-5.612529e+01	-3.014998e+02
2.100000e-07	-7.674015e-06	-4.603269e-09	-5.604126e+01	-3.004809e+02
2.200000e-07	-7.661798e-06	-4.549946e-09	-5.595203e+01	-2.993982e+02
2.300000e-07	-7.649031e-06	-4.627906e-09	-5.585880e+01	-2.982619e+02
2.400000e-07	-7.635842e-06	-4.780166e-09	-5.576249e+01	-2.970830e+02
2.500000e-07	-7.621910e-06	-4.617118e-09	-5.566075e+01	-2.958733e+02
2.600000e-07	-7.607014e-06	-4.370132e-09	-5.555196e+01	-2.946450e+02
2.700000e-07	-7.591368e-06	-4.499310e-09	-5.543770e+01	-2.934106e+02
2.800000e-07	-7.575129e-06	-4.691529e-09	-5.531911e+01	-2.921821e+02
2.900000e-07	-7.558225e-06	-4.482373e-09	-5.519567e+01	-2.909716e+02
3.000000e-07	-7.540892e-06	-4.287306e-09	-5.506909e+01	-2.897904e+02
3.100000e-07	-7.523237e-06	-4.429624e-09	-5.494016e+01	-2.886490e+02
3.200000e-07	-7.504991e-06	-4.479003e-09	-5.480692e+01	-2.875568e+02
3.300000e-07	-7.486145e-06	-4.315133e-09	-5.466929e+01	-2.865220e+02
3.400000e-07	-7.466870e-06	-4.343118e-09	-5.452853e+01	-2.855515e+02
3.500000e-07	-7.447219e-06	-4.380635e-09	-5.438502e+01	-2.846507e+02
3.600000e-07	-7.427168e-06	-4.280154e-09	-5.423859e+01	-2.838235e+02
3.700000e-07	-7.406702e-06	-4.368657e-09	-5.408914e+01	-2.830721e+02
3.800000e-07	-7.385766e-06	-4.426666e-09	-5.393625e+01	-2.823972e+02
3.900000e-07	-7.364291e-06	-4.278692e-09	-5.377942e+01	-2.817980e+02
4.000000e-07	-7.342306e-06	-4.241545e-09	-5.361887e+01	-2.812722e+02
4.100000e-07	-7.319863e-06	-4.427438e-09	-5.345498e+01	-2.808162e+02
4.200000e-07	-7.296817e-06	-4.425415e-09	-5.328668e+01	-2.804253e+02
4.300000e-07	-7.273198e-06	-4.244067e-09	-5.311419e+01	-2.800934e+02
4.400000e-07	-7.249184e-06	-4.241679e-09	-5.293883e+01	-2.798140e+02
4.500000e-07	-7.224788e-06	-4.427599e-09	-5.276067e+01	-2.795797e+02
4.600000e-07	-7.199887e-06	-4.386842e-09	-5.257882e+01	-2.793826e+02
4.700000e-07	-7.174224e-06	-4.215619e-09	-5.239142e+01	-2.792148e+02
4.800000e-07	-7.147770e-06	-4.259400e-09	-5.219823e+01	-2.790681e+02
4.900000e-07	-7.120651e-06	-4.383921e-09	-5.200018e+01	-2.789347e+02
5.000000e-07	-7.093079e-06	-4.315109e-09	-5.179883e+01	-2.788070e+02
5.100000e-07	-7.065189e-06	-4.261161e-09	-5.159516e+01	-2.786778e+02
5.200000e-07	-7.036849e-06	-4.294360e-09	-5.138821e+01	-2.785407e+02
5.300000e-07	-7.008001e-06	-4.283204e-09	-5.117753e+01	-2.783901e+02
5.400000e-07	-6.978741e-06	-4.288089e-09	-5.096386e+01	-2.782211e+02
5.500000e-07	-6.949062e-06	-4.323845e-09	-5.074712e+01	-2.780298e+02
5.600000e-07	-6.918812e-06	-4.258889e-09	-5.052621e+01	-2.778132e+02
5.700000e-07	-6.888035e-06	-4.207034e-09	-5.030145e+01	-2.775692e+02
5.800000e-07	-6.856817e-06	-4.275206e-09	-5.007348e+01	-2.772967e+02
5.900000e-07	-6.825170e-06	-4.300851e-09	-4.984237e+01	-2.769954e+02
6.000000e-07	-6.793183e-06	-4.228328e-09	-4.960878e+01	-2.766657e+02
6.100000e-07	-6.760823e-06	-4.188553e-09	-4.937246e+01	-2.763090e+02
6.200000e-07	-6.727884e-06	-4.232875e-09	-4.913191e+01	-2.759269e+02
6.300000e-07	-6.694275e-06	-4.263849e-09	-4.888648e+01	-2.755218e+02
6.400000e-07	-6.660013e-06	-4.228729e-09	-4.863627e+01	-2.750962e+02
6.500000e-07	-6.625198e-06	-4.174235e-09	-4.838203e+01	-2.746531e+02
6.600000e-07	-6.589918e-06	-4.190555e-09	-4.812439e+01	-2.741952e+02
6.700000e-07	-6.554204e-06	-4.220230e-09	-4.786357e+01	-2.737257e+02
6.800000e-07	-6.518040e-06	-4.195583e-09	-4.759948e+01	-2.732471e+02
6.900000e-07	-6.481401e-06	-4.156503e-09	-4.733192e+01	-2.727621e+02
7.000000e-07	-6.444282e-06	-4.159594e-09	-4.706085e+01	-2.722729e+02
7.100000e-07	-6.406668e-06	-4.157628e-09	-4.678616e+01	-2.717813e+02
7.200000e-07	-6.368635e-06	-4.156505e-09	-4.650842e+01	-2.712888e+02
7.300000e-07	-6.330247e-06	-4.155028e-09	-4.622808e+01	-2.707962e+02
7.400000e-07	-6.291425e-06	-4.135384e-09	-4.594458e+01	-2.703042e+02
7.500000e-07	-6.252137e-06	-4.117426e-09	-4.565767e+01	-2.698126e+02
7.600000e-07	-6.212518e-06	-4.137265e-09	-4.536834e+01	-2.693211e+02
7.700000e-07	-6.172623e-06	-4.135673e-09	-4.507700e+01	-2.688289e+02
7.800000e-07	-6.132399e-06	-4.099015e-09	-4.478325e+01	-2.683348e+02
7.900000e-07	-6.091686e-06	-4.083171e-09	-4.448594e+01	-2.678374e+02
8.000000e-07	-6.050330e-06	-4.099643e-09	-4.418392e+01	-2.673351e+02
8.100000e-07	-6.008338e-06	-4.092618e-09	-4.387726e+01	-2.668261e+02
8.200000e-07	-5.965722e-06	-4.064005e-09	-4.356605e+01	-2.663086e+02
8.300000e-07	-5.922497e-06	-4.055141e-09	-4.325039e+01	-2.657809e+02
8.400000e-07	-5.878815e-06	-4.064587e-09	-4.293139e+01	-2.652411e+02
8.500000e-07	-5.834760e-06	-4.059766e-09	-4.260967e+01	-2.646879e+02
8.600000e-07	-5.790429e-06	-4.036929e-09	-4.228594e+01	-2.641198e+02
8.700000e-07	-5.745808e-06	-4.021102e-09	-4.196008e+01	-2.635358e+02
8.800000e-07	-5.700754e-06	-4.016001e-09	-4.163106e+01	-2.629352e+02
8.900000e-07	-5.655270e-06	-4.010239e-09	-4.129891e+01	-2.623174e+02
9.000000e-07	-5.609461e-06	-3.993122e-09	-4.096438e+01	-2.616822e+02
9.100000e-07	-5.563280e-06	-3.977265e-09	-4.062713e+01	-2.610299e+02
9.200000e-07	-5.516720e-06	-3.968839e-09	-4.028711e+01	-2.603608e+02
9.300000e-07	-5.469775e-06	-3.968040e-09	-3.994429e+01	-2.596755e+02
9.400000e-07	-5.422417e-06	-3.960788e-09	-3.959844e+01	-2.589748e+02
9.500000e-07	-5.374675e-06	-3.946254e-09	-3.924980e+01	-2.582598e+02
9.600000e-07	-5.326496e-06	-3.930322e-09	-3.889796e+01	-2.575316e+02
9.700000e-07	-5.277895e-06	-3.926491e-09	-3.854304e+01	-2.567911e+02
9.800000e-07	-5.228860e-06	-3.917666e-09	-3.818495e+01	-2.560396e+02
9.900000e-07	-5.179379e-06	-3.895487e-09	-3.782360e+01	-2.552779e+02
1.000000e-06	-5.129286e-06	-3.872734e-09	-3.745779e+01	-2.545070e+02
1.010000e-06	-5.078591e-06	-3.867183e-09	-3.708757e+01	-2.537274e+02
1.020000e-06	-5.027463e-06	-3.864279e-09	-3.671420e+01	-2.529397e+02
1.030000e-06	-4.975850e-06	-3.850633e-09	-3.633729e+01	-2.521441e+02
1.040000e-06	-4.923897e-06	-3.833436e-09	-3.595789e+01	-2.513404e+02
1.050000e-06	-4.871618e-06	-3.826573e-09	-3.557611e+01	-2.505283e+02
1.060000e-06	-4.818958e-06	-3.818319e-09	-3.519154e+01	-2.497072e+02
1.070000e-06	-4.765937e-06	-3.802032e-09	-3.480435e+01	-2.488762e+02
1.080000e-06	-4.712437e-06	-3.782688e-09	-3.441365e+01	-2.480342e+02
1.090000e-06	-4.658589e-06	-3.767942e-09	-3.402042e+01	-2.471800e+02
1.100000e-06	-4.604497e-06	-3.755480e-09	-3.362539e+01	-2.463122e+02
1.110000e-06	-4.550116e-06	-3.742050e-09	-3.322827e+01	-2.454292e+02
1.120000e-06	-4.495457e-06	-3.728234e-09	-3.282910e+01	-2.445294e+02
1.130000e-06	-4.440506e-06	-3.710966e-09	-3.242781e+01	-2.436114e+02
1.140000e-06	-4.385237e-06	-3.695874e-09	-3.202420e+01	-2.426737e+02
1.150000e-06	-4.329666e-06	-3.684740e-09	-3.161838e+01	-2.417150e+02
1.160000e-06	-4.273945e-06	-3.670555e-09	-3.121147e+01	-2.407340e+02
1.170000e-06	-4.218069e-06	-3.649015e-09	-3.080342e+01	-2.397299e+02
1.180000e-06	-4.161889e-06	-3.630312e-09	-3.039315e+01	-2.387018e+02
1.190000e-06	-4.105403e-06	-3.615809e-09	-2.998065e+01	-2.376493e+02
1.200000e-06	-4.048670e-06	-3.598873e-09	-2.956634e+01	-2.365722e+02
1.210000e-06	-3.991625e-06	-3.577328e-09	-2.914976e+01	-2.354705e+02
1.220000e-06	-3.934168e-06	-3.559108e-09	-2.873017e+01	-2.343445e+02
1.230000e-06	-3.876261e-06	-3.542189e-09	-2.830729e+01	-2.331946e+02
1.240000e-06	-3.817898e-06	-3.523268e-09	-2.788108e+01	-2.320215e+02
1.250000e-06	-3.759172e-06	-3.500995e-09	-2.745222e+01	-2.308259e+02
1.260000e-06	-3.700098e-06	-3.479215e-09	-2.702081e+01	-2.296087e+02
1.270000e-06	-3.640720e-06	-3.459023e-09	-2.658719e+01	-2.283706e+02
1.280000e-06	-3.581150e-06	-3.438407e-09	-2.615217e+01	-2.271125e+02
1.290000e-06	-3.521381e-06	-3.415961e-09	-2.571569e+01	-2.258351e+02
1.300000e-06	-3.461377e-06	-3.394026e-09	-2.527750e+01	-2.245387e+02
1.310000e-06	-3.401181e-06	-3.373284e-09	-2.483791e+01	-2.232236e+02
1.320000e-06	-3.340843e-06	-3.353895e-09	-2.439728e+01	-2.218897e+02
1.330000e-06	-3.280325e-06	-3.333435e-09	-2.395533e+01	-2.205367e+02
1.340000e-06	-3.219532e-06	-3.310833e-09	-2.351137e+01	-2.191639e+02
1.350000e-06	-3.158548e-06	-3.287221e-09	-2.306602e+01	-2.177701e+02
1.360000e-06	-3.097378e-06	-3.264066e-09	-2.261931e+01	-2.163538e+02
1.370000e-06	-3.035885e-06	-3.238669e-09	-2.217024e+01	-2.149132e+02
1.380000e-06	-2.974156e-06	-3.212181e-09	-2.171946e+01	-2.134462e+02
1.390000e-06	-2.912298e-06	-3.189196e-09	-2.126773e+01	-2.119501e+02
1.400000e-06	-2.850254e-06	-3.169254e-09	-2.081463e+01	-2.104223e+02
1.410000e-06	-2.788024e-06	-3.144119e-09	-2.036019e+01	-2.088598e+02
1.420000e-06	-2.725655e-06	-3.117984e-09	-1.990472e+01	-2.072595e+02
1.430000e-06	-2.663101e-06	-3.095268e-09	-1.944790e+01	-2.056182e+02
1.440000e-06	-2.600364e-06	-3.072409e-09	-1.898975e+01	-2.039329e+02
1.450000e-06	-2.537515e-06	-3.044489e-09	-1.853079e+01	-2.022004e+02
1.460000e-06	-2.474454e-06	-3.014277e-09	-1.807027e+01	-2.004177e+02
1.470000e-06	-2.411216e-06	-2.987516e-09	-1.760846e+01	-1.985821e+02
1.480000e-06	-2.347949e-06	-2.960276e-09	-1.714644e+01	-1.966912e+02
1.490000e-06	-2.284455e-06	-2.929290e-09	-1.668276e+01	-1.947427e+02
1.500000e-06	-2.220714e-06	-2.897615e-09	-1.621727e+01	-1.927345e+02
1.510000e-06	-2.156889e-06	-2.866970e-09	-1.575118e+01	-1.906652e+02
1.520000e-06	-2.093030e-06	-2.836844e-09	-1.528483e+01	-1.885332e+02
1.530000e-06	-2.029080e-06	-2.805675e-09	-1.481782e+01	-1.863375e+02
1.540000e-06	-1.964946e-06	-2.770581e-09	-1.434947e+01	-1.840769e+02
1.550000e-06	-1.900692e-06	-2.734601e-09	-1.388024e+01	-1.817507e+02
1.560000e-06	-1.836337e-06	-2.696622e-09	-1.341027e+01	-1.793579e+02
1.570000e-06	-1.771811e-06	-2.657796e-09	-1.293906e+01	-1.768975e+02
1.580000e-06	-1.707121e-06	-2.616323e-09	-1.246664e+01	-1.743683e+02
1.590000e-06	-1.642338e-06	-2.574728e-09	-1.199355e+01	-1.717686e+02
1.600000e-06	-1.577483e-06	-2.533395e-09	-1.151993e+01	-1.690963e+02
1.610000e-06	-1.512487e-06	-2.493150e-09	-1.104528e+01	-1.663488e+02
1.620000e-06	-1.447298e-06	-2.450286e-09	-1.056923e+01	-1.635226e+02
1.630000e-06	-1.381975e-06	-2.404931e-09	-1.009219e+01	-1.606135e+02
1.640000e-06	-1.316595e-06	-2.359311e-09	-9.614735e+00	-1.576162e+02
1.650000e-06	-1.251004e-06	-2.312596e-09	-9.135740e+00	-1.545244e+02
1.660000e-06	-1.185224e-06	-2.262129e-09	-8.655369e+00	-1.513310e+02
1.670000e-06	-1.119411e-06	-2.211150e-09	-8.174756e+00	-1.480277e+02
1.680000e-06	-1.053504e-06	-2.158242e-09	-7.693451e+00	-1.446049e+02
1.690000e-06	-9.875086e-07	-2.102131e-09	-7.211508e+00	-1.410524e+02
1.700000e-06	-9.214541e-07	-2.043366e-09	-6.729130e+00	-1.373590e+02
1.710000e-06	-8.553537e-07	-1.981295e-09	-6.246416e+00	-1.335127e+02
1.720000e-06	-7.891694e-07	-1.916870e-09	-5.763091e+00	-1.295008e+02
1.730000e-06	-7.228667e-07	-1.850918e-09	-5.278900e+00	-1.253105e+02
1.740000e-06	-6.564924e-07	-1.781911e-09	-4.794187e+00	-1.209286e+02
1.750000e-06	-5.900818e-07	-1.707730e-09	-4.309207e+00	-1.163421e+02
1.760000e-06	-5.235847e-07	-1.633917e-09	-3.823597e+00	-1.115385e+02
1.770000e-06	-4.570112e-07	-1.562514e-09	-3.337429e+00	-1.065060e+02
1.780000e-06	-3.903710e-07	-1.487030e-09	-2.850774e+00	-1.012337e+02
1.790000e-06	-3.236758e-07	-1.401709e-09	-2.363717e+00	-9.571232e+01
1.800000e-06	-2.570154e-07	-1.312884e-09	-1.876914e+00	-8.993399e+01
1.810000e-06	-1.903740e-07	-1.223409e-09	-1.390250e+00	-8.389301e+01
1.820000e-06	-1.237147e-07	-1.130127e-09	-9.034550e-01	-7.758587e+01
1.830000e-06	-5.701171e-08	-1.029224e-09	-4.163411e-01	-7.101164e+01
1.840000e-06	9.660155e-09	-9.245512e-10	7.054550e-02	-6.417210e+01
1.850000e-06	7.625970e-08	-8.179256e-10	5.569040e-01	-5.707196e+01
1.860000e-06	1.428803e-07	-7.089226e-10	1.043416e+00	-4.971901e+01
1.870000e-06	2.095619e-07	-5.944322e-10	1.530374e+00	-4.212414e+01
1.880000e-06	2.762697e-07	-4.739545e-10	2.017523e+00	-3.430137e+01
1.890000e-06	3.429481e-07	-3.488931e-10	2.504457e+00	-2.626785e+01
1.900000e-06	4.095607e-07	-2.192242e-10	2.990911e+00	-1.804369e+01
1.910000e-06	4.761640e-07	-8.699521e-11	3.477297e+00	-9.651821e+00
1.920000e-06	5.427386e-07	4.692361e-11	3.963473e+00	-1.117762e+00
1.930000e-06	6.092528e-07	1.838484e-10	4.449208e+00	7.530666e+00
1.940000e-06	6.757009e-07	3.224633e-10	4.934460e+00	1.626368e+01
1.950000e-06	7.420601e-07	4.594958e-10	5.419064e+00	2.504991e+01
1.960000e-06	8.084218e-07	5.955185e-10	5.903685e+00	3.385683e+01
1.970000e-06	8.747014e-07	7.346402e-10	6.387708e+00	4.265120e+01
1.980000e-06	9.408660e-07	8.735656e-10	6.870890e+00	5.139956e+01
1.990000e-06	1.006964e-06	1.009955e-09	7.353586e+00	6.006868e+01
2.000000e-06	1.072902e-06	1.145004e-09	7.835112e+00	6.862605e+01
2.010000e-06	1.138650e-06	1.277804e-09	8.315255e+00	7.704038e+01
2.020000e-06	1.204307e-06	1.406789e-09	8.794731e+00	8.528202e+01
2.030000e-06	1.269922e-06	1.529751e-09	9.273895e+00	9.332340e+01
2.040000e-06	1.335429e-06	1.647852e-09	9.752279e+00	1.011394e+02
2.050000e-06	1.400831e-06	1.760858e-09	1.022989e+01	1.087078e+02
2.060000e-06	1.466045e-06	1.867912e-09	1.070613e+01	1.160092e+02
2.070000e-06	1.531159e-06	1.969163e-09	1.118164e+01	1.230278e+02
2.080000e-06	1.596202e-06	2.064421e-09	1.165663e+01	1.297511e+02
2.090000e-06	1.661070e-06	2.155575e-09	1.213035e+01	1.361703e+02
2.100000e-06	1.725807e-06	2.244654e-09	1.260310e+01	1.422799e+02
2.110000e-06	1.790333e-06	2.328591e-09	1.307432e+01	1.480782e+02
2.120000e-06	1.854576e-06	2.406474e-09	1.354346e+01	1.535667e+02
2.130000e-06	1.918610e-06	2.482103e-09	1.401109e+01	1.587504e+02
2.140000e-06	1.982549e-06	2.557772e-09	1.447802e+01	1.636370e+02
2.150000e-06	2.046379e-06	2.628609e-09	1.494415e+01	1.682372e+02
2.160000e-06	2.110075e-06	2.694013e-09	1.540931e+01	1.725639e+02
2.170000e-06	2.173722e-06	2.756407e-09	1.587410e+01	1.766321e+02
2.180000e-06	2.237276e-06	2.817139e-09	1.633822e+01	1.804585e+02
2.190000e-06	2.300712e-06	2.874231e-09	1.680147e+01	1.840608e+02
2.200000e-06	2.364010e-06	2.925318e-09	1.726373e+01	1.874577e+02
2.210000e-06	2.427142e-06	2.973855e-09	1.772476e+01	1.906684e+02
2.220000e-06	2.490230e-06	3.021253e-09	1.818548e+01	1.937118e+02
2.230000e-06	2.553272e-06	3.069136e-09	1.864585e+01	1.966067e+02
2.240000e-06	2.616135e-06	3.117147e-09	1.910493e+01	1.993710e+02
2.250000e-06	2.678766e-06	3.162070e-09	1.956230e+01	2.020218e+02
2.260000e-06	2.741150e-06	3.203182e-09	2.001788e+01	2.045746e+02
2.270000e-06	2.803254e-06	3.238944e-09	2.047140e+01	2.070436e+02
2.280000e-06	2.865189e-06	3.270549e-09	2.092370e+01	2.094412e+02
2.290000e-06	2.927024e-06	3.300516e-09	2.137526e+01	2.117782e+02
2.300000e-06	2.988616e-06	3.332198e-09	2.182505e+01	2.140634e+02
2.310000e-06	3.049978e-06	3.365697e-09	2.227316e+01	2.163038e+02
2.320000e-06	3.111199e-06	3.397822e-09	2.272024e+01	2.185044e+02
2.330000e-06	3.172225e-06	3.432102e-09	2.316590e+01	2.206688e+02
2.340000e-06	3.233056e-06	3.465566e-09	2.361013e+01	2.227988e+02
2.350000e-06	3.293694e-06	3.493514e-09	2.405295e+01	2.248949e+02
2.360000e-06	3.354088e-06	3.518320e-09	2.449400e+01	2.269563e+02
2.370000e-06	3.414229e-06	3.543409e-09	2.493319e+01	2.289811e+02
2.380000e-06	3.474157e-06	3.568715e-09	2.537083e+01	2.309670e+02
2.390000e-06	3.533859e-06	3.593169e-09	2.580682e+01	2.329108e+02
2.400000e-06	3.593334e-06	3.619084e-09	2.624114e+01	2.348091e+02
2.410000e-06	3.652606e-06	3.646640e-09	2.667400e+01	2.366587e+02
2.420000e-06	3.711634e-06	3.673690e-09	2.710505e+01	2.384564e+02
2.430000e-06	3.770440e-06	3.698757e-09	2.753450e+01	2.401991e+02
2.440000e-06	3.828917e-06	3.721658e-09	2.796154e+01	2.418848e+02
2.450000e-06	3.886998e-06	3.742239e-09	2.838570e+01	2.435117e+02
2.460000e-06	3.944739e-06	3.762214e-09	2.880736e+01	2.450789e+02
2.470000e-06	4.002120e-06	3.782985e-09	2.922640e+01	2.465865e+02
2.480000e-06	4.059110e-06	3.803414e-09	2.964258e+01	2.480354e+02
2.490000e-06	4.115666e-06	3.823454e-09	3.005559e+01	2.494272e+02
2.500000e-06	4.171835e-06	3.843921e-09	3.046578e+01	2.507645e+02
2.510000e-06	4.227663e-06	3.864521e-09	3.087348e+01	2.520507e+02
2.520000e-06	4.283217e-06	3.884595e-09	3.127917e+01	2.532898e+02
2.530000e-06	4.338593e-06	3.903620e-09	3.168357e+01	2.544862e+02
2.540000e-06	4.393784e-06	3.921181e-09	3.208661e+01	2.556449e+02
2.550000e-06	4.448707e-06	3.940202e-09	3.248771e+01	2.567711e+02
2.560000e-06	4.503322e-06	3.957766e-09	3.288654e+01	2.578701e+02
2.570000e-06	4.557620e-06	3.976921e-09	3.328306e+01	2.589469e+02
2.580000e-06	4.611597e-06	3.996780e-09	3.367725e+01	2.600065e+02
2.590000e-06	4.665303e-06	4.013319e-09	3.406944e+01	2.610535e+02
2.600000e-06	4.718731e-06	4.029455e-09	3.445962e+01	2.620918e+02
2.610000e-06	4.771834e-06	4.043867e-09	3.484741e+01	2.631248e+02
2.620000e-06	4.824593e-06	4.058759e-09	3.523270e+01	2.641551e+02
2.630000e-06	4.876987e-06	4.072670e-09	3.561531e+01	2.651846e+02
2.640000e-06	4.929002e-06	4.087098e-09	3.599517e+01	2.662143e+02
2.650000e-06	4.980511e-06	4.102374e-09	3.637132e+01	2.672443e+02
2.660000e-06	5.031387e-06	4.120794e-09	3.674286e+01	2.682741e+02
2.670000e-06	5.081694e-06	4.139604e-09	3.711023e+01	2.693023e+02
2.680000e-06	5.131595e-06	4.152386e-09	3.747465e+01	2.703268e+02
2.690000e-06	5.181062e-06	4.162086e-09	3.783589e+01	2.713448e+02
2.700000e-06	5.230097e-06	4.173329e-09	3.819398e+01	2.723533e+02
2.710000e-06	5.278693e-06	4.185983e-09	3.854887e+01	2.733488e+02
2.720000e-06	5.326804e-06	4.198003e-09	3.890021e+01	2.743276e+02
2.730000e-06	5.374587e-06	4.209026e-09	3.924915e+01	2.752860e+02
2.740000e-06	5.422074e-06	4.222844e-09	3.959594e+01	2.762203e+02
2.750000e-06	5.469223e-06	4.236745e-09	3.994025e+01	2.771272e+02
2.760000e-06	5.515993e-06	4.248721e-09	4.028181e+01	2.780036e+02
2.770000e-06	5.562416e-06	4.259381e-09	4.062082e+01	2.788471e+02
2.780000e-06	5.608328e-06	4.269393e-09	4.095610e+01	2.796556e+02
2.790000e-06	5.653682e-06	4.279863e-09	4.128731e+01	2.804278e+02
2.800000e-06	5.698711e-06	4.288777e-09	4.161614e+01	2.811633e+02
2.810000e-06	5.743440e-06	4.295250e-09	4.194279e+01	2.818622e+02
2.820000e-06	5.787851e-06	4.302004e-09	4.226711e+01	2.825254e+02
2.830000e-06	5.831946e-06	4.313608e-09	4.258912e+01	2.831545e+02
2.840000e-06	5.875711e-06	4.328484e-09	4.290872e+01	2.837519e+02
2.850000e-06	5.919183e-06	4.340217e-09	4.322619e+01	2.843206e+02
2.860000e-06	5.962280e-06	4.349021e-09	4.354091e+01	2.848638e+02
2.870000e-06	6.004876e-06	4.361042e-09	4.385199e+01	2.853854e+02
2.880000e-06	6.046966e-06	4.374083e-09	4.415935e+01	2.858895e+02
2.890000e-06	6.088532e-06	4.383876e-09	4.446290e+01	2.863802e+02
2.900000e-06	6.129458e-06	4.388993e-09	4.476177e+01	2.868618e+02
2.910000e-06	6.169749e-06	4.395247e-09	4.505600e+01	2.873381e+02
