# Temperatura_=_20.0
# Concentracion g/m^3_=_9000.0
# C_Vs_to_Am_M_A/Vsm_=_65563218390.804596
# pendiente_HvsI_1/m_=_3716.3
# ordenada_HvsI_A/m_=_1297.0
# frecuencia_Hz_=_135475.71168413456

Tiempo_(s)	Campo_(V.s)	Magnetizacion_(V.s)	Campo_(kA/m)	Magnetizacion_(A/m)
0.000000e+00	-7.796016e-06	-4.603512e-09	-5.691728e+01	-3.056979e+02
1.000000e-08	-7.796041e-06	-4.601258e-09	-5.691746e+01	-3.059712e+02
2.000000e-08	-7.795561e-06	-4.601565e-09	-5.691396e+01	-3.062415e+02
3.000000e-08	-7.794436e-06	-4.600821e-09	-5.690575e+01	-3.064976e+02
4.000000e-08	-7.792519e-06	-4.596373e-09	-5.689175e+01	-3.067276e+02
5.000000e-08	-7.789759e-06	-4.591036e-09	-5.687160e+01	-3.069191e+02
6.000000e-08	-7.786403e-06	-4.589313e-09	-5.684710e+01	-3.070597e+02
7.000000e-08	-7.782732e-06	-4.579776e-09	-5.682030e+01	-3.071371e+02
8.000000e-08	-7.778641e-06	-4.577587e-09	-5.679043e+01	-3.071395e+02
9.000000e-08	-7.773981e-06	-4.613582e-09	-5.675641e+01	-3.070562e+02
1.000000e-07	-7.768503e-06	-4.647316e-09	-5.671641e+01	-3.068773e+02
1.100000e-07	-7.762089e-06	-4.609990e-09	-5.666958e+01	-3.065944e+02
1.200000e-07	-7.754989e-06	-4.485747e-09	-5.661775e+01	-3.062007e+02
1.300000e-07	-7.747500e-06	-4.471812e-09	-5.656308e+01	-3.056913e+02
1.400000e-07	-7.739754e-06	-4.624922e-09	-5.650653e+01	-3.050633e+02
1.500000e-07	-7.731682e-06	-4.704463e-09	-5.644759e+01	-3.043156e+02
1.600000e-07	-7.723237e-06	-4.538924e-09	-5.638594e+01	-3.034498e+02
1.700000e-07	-7.714258e-06	-4.454944e-09	-5.632038e+01	-3.024692e+02
1.800000e-07	-7.704448e-06	-4.559666e-09	-5.624876e+01	-3.013796e+02
1.900000e-07	-7.693808e-06	-4.669726e-09	-5.617108e+01	-3.001885e+02
2.000000e-07	-7.682536e-06	-4.661581e-09	-5.608879e+01	-2.989055e+02
2.100000e-07	-7.670702e-06	-4.564164e-09	-5.600239e+01	-2.975420e+02
2.200000e-07	-7.658228e-06	-4.445694e-09	-5.591132e+01	-2.961106e+02
2.300000e-07	-7.645228e-06	-4.514112e-09	-5.581641e+01	-2.946253e+02
2.400000e-07	-7.631764e-06	-4.655109e-09	-5.571811e+01	-2.931009e+02
2.500000e-07	-7.617528e-06	-4.516915e-09	-5.561417e+01	-2.915530e+02
2.600000e-07	-7.602310e-06	-4.249810e-09	-5.550307e+01	-2.899973e+02
2.700000e-07	-7.586242e-06	-4.313784e-09	-5.538576e+01	-2.884493e+02
2.800000e-07	-7.569609e-06	-4.493843e-09	-5.526433e+01	-2.869244e+02
2.900000e-07	-7.552511e-06	-4.365604e-09	-5.513949e+01	-2.854370e+02
3.000000e-07	-7.534956e-06	-4.194207e-09	-5.501133e+01	-2.840007e+02
3.100000e-07	-7.516987e-06	-4.288784e-09	-5.488014e+01	-2.826278e+02
3.200000e-07	-7.498493e-06	-4.361449e-09	-5.474512e+01	-2.813289e+02
3.300000e-07	-7.479457e-06	-4.283474e-09	-5.460614e+01	-2.801131e+02
3.400000e-07	-7.460068e-06	-4.266475e-09	-5.446458e+01	-2.789876e+02
3.500000e-07	-7.440307e-06	-4.215530e-09	-5.432032e+01	-2.779575e+02
3.600000e-07	-7.420046e-06	-4.196167e-09	-5.417239e+01	-2.770260e+02
3.700000e-07	-7.399309e-06	-4.285757e-09	-5.402100e+01	-2.761944e+02
3.800000e-07	-7.378156e-06	-4.341136e-09	-5.386656e+01	-2.754618e+02
3.900000e-07	-7.356467e-06	-4.189157e-09	-5.370822e+01	-2.748256e+02
4.000000e-07	-7.334116e-06	-4.162296e-09	-5.354503e+01	-2.742813e+02
4.100000e-07	-7.311238e-06	-4.307142e-09	-5.337801e+01	-2.738230e+02
4.200000e-07	-7.287992e-06	-4.344214e-09	-5.320829e+01	-2.734432e+02
4.300000e-07	-7.264304e-06	-4.192520e-09	-5.303535e+01	-2.731336e+02
4.400000e-07	-7.240033e-06	-4.150866e-09	-5.285816e+01	-2.728846e+02
4.500000e-07	-7.215248e-06	-4.270468e-09	-5.267720e+01	-2.726864e+02
4.600000e-07	-7.189848e-06	-4.308981e-09	-5.249176e+01	-2.725286e+02
4.700000e-07	-7.163714e-06	-4.191062e-09	-5.230096e+01	-2.724006e+02
4.800000e-07	-7.136885e-06	-4.154466e-09	-5.210509e+01	-2.722922e+02
4.900000e-07	-7.109514e-06	-4.234459e-09	-5.190526e+01	-2.721936e+02
5.000000e-07	-7.081763e-06	-4.257072e-09	-5.170265e+01	-2.720955e+02
5.100000e-07	-7.053555e-06	-4.201781e-09	-5.149671e+01	-2.719893e+02
5.200000e-07	-7.024888e-06	-4.173171e-09	-5.128741e+01	-2.718678e+02
5.300000e-07	-6.995766e-06	-4.182373e-09	-5.107480e+01	-2.717244e+02
5.400000e-07	-6.966107e-06	-4.203654e-09	-5.085827e+01	-2.715539e+02
5.500000e-07	-6.935958e-06	-4.217784e-09	-5.063815e+01	-2.713525e+02
5.600000e-07	-6.905398e-06	-4.172266e-09	-5.041505e+01	-2.711174e+02
5.700000e-07	-6.874433e-06	-4.127609e-09	-5.018898e+01	-2.708471e+02
5.800000e-07	-6.843073e-06	-4.151220e-09	-4.996002e+01	-2.705413e+02
5.900000e-07	-6.811321e-06	-4.193725e-09	-4.972821e+01	-2.702006e+02
6.000000e-07	-6.779127e-06	-4.154733e-09	-4.949316e+01	-2.698268e+02
6.100000e-07	-6.746403e-06	-4.104583e-09	-4.925425e+01	-2.694224e+02
6.200000e-07	-6.713052e-06	-4.117525e-09	-4.901076e+01	-2.689905e+02
6.300000e-07	-6.678969e-06	-4.159689e-09	-4.876192e+01	-2.685349e+02
6.400000e-07	-6.644269e-06	-4.137642e-09	-4.850859e+01	-2.680595e+02
6.500000e-07	-6.609059e-06	-4.090203e-09	-4.825153e+01	-2.675685e+02
6.600000e-07	-6.573397e-06	-4.084956e-09	-4.799116e+01	-2.670660e+02
6.700000e-07	-6.537378e-06	-4.115302e-09	-4.772819e+01	-2.665561e+02
6.800000e-07	-6.500929e-06	-4.100012e-09	-4.746209e+01	-2.660424e+02
6.900000e-07	-6.464037e-06	-4.063885e-09	-4.719275e+01	-2.655281e+02
7.000000e-07	-6.426666e-06	-4.056325e-09	-4.691991e+01	-2.650161e+02
7.100000e-07	-6.388735e-06	-4.072478e-09	-4.664298e+01	-2.645085e+02
7.200000e-07	-6.350406e-06	-4.070145e-09	-4.636315e+01	-2.640067e+02
7.300000e-07	-6.311741e-06	-4.057184e-09	-4.608086e+01	-2.635116e+02
7.400000e-07	-6.272765e-06	-4.038120e-09	-4.579631e+01	-2.630234e+02
7.500000e-07	-6.233519e-06	-4.030189e-09	-4.550978e+01	-2.625415e+02
7.600000e-07	-6.193880e-06	-4.036549e-09	-4.522038e+01	-2.620649e+02
7.700000e-07	-6.153765e-06	-4.030852e-09	-4.492751e+01	-2.615919e+02
7.800000e-07	-6.113137e-06	-3.999406e-09	-4.463089e+01	-2.611206e+02
7.900000e-07	-6.071909e-06	-3.984548e-09	-4.432989e+01	-2.606486e+02
8.000000e-07	-6.030081e-06	-4.001134e-09	-4.402452e+01	-2.601731e+02
8.100000e-07	-5.987677e-06	-3.999427e-09	-4.371493e+01	-2.596915e+02
8.200000e-07	-5.944741e-06	-3.968140e-09	-4.340146e+01	-2.592009e+02
8.300000e-07	-5.901377e-06	-3.950245e-09	-4.308487e+01	-2.586988e+02
8.400000e-07	-5.857562e-06	-3.961907e-09	-4.276499e+01	-2.581825e+02
8.500000e-07	-5.813327e-06	-3.961276e-09	-4.244204e+01	-2.576499e+02
8.600000e-07	-5.768737e-06	-3.936141e-09	-4.211649e+01	-2.570990e+02
8.700000e-07	-5.723873e-06	-3.910307e-09	-4.178895e+01	-2.565284e+02
8.800000e-07	-5.678730e-06	-3.910692e-09	-4.145936e+01	-2.559370e+02
8.900000e-07	-5.633153e-06	-3.914485e-09	-4.112662e+01	-2.553242e+02
9.000000e-07	-5.587119e-06	-3.902771e-09	-4.079053e+01	-2.546900e+02
9.100000e-07	-5.540689e-06	-3.879589e-09	-4.045155e+01	-2.540346e+02
9.200000e-07	-5.493905e-06	-3.868776e-09	-4.010999e+01	-2.533588e+02
9.300000e-07	-5.446811e-06	-3.867681e-09	-3.976617e+01	-2.526636e+02
9.400000e-07	-5.399347e-06	-3.866246e-09	-3.941964e+01	-2.519505e+02
9.500000e-07	-5.351425e-06	-3.848720e-09	-3.906977e+01	-2.512210e+02
9.600000e-07	-5.302991e-06	-3.829222e-09	-3.871617e+01	-2.504770e+02
9.700000e-07	-5.254105e-06	-3.821304e-09	-3.835925e+01	-2.497203e+02
9.800000e-07	-5.204739e-06	-3.820882e-09	-3.799884e+01	-2.489525e+02
9.900000e-07	-5.154866e-06	-3.805358e-09	-3.763473e+01	-2.481755e+02
1.000000e-06	-5.104465e-06	-3.780260e-09	-3.726676e+01	-2.473907e+02
1.010000e-06	-5.053538e-06	-3.765814e-09	-3.689496e+01	-2.465994e+02
1.020000e-06	-5.002163e-06	-3.763009e-09	-3.651988e+01	-2.458024e+02
1.030000e-06	-4.950334e-06	-3.754538e-09	-3.614148e+01	-2.450004e+02
1.040000e-06	-4.898167e-06	-3.734194e-09	-3.576062e+01	-2.441935e+02
1.050000e-06	-4.845682e-06	-3.716106e-09	-3.537744e+01	-2.433816e+02
1.060000e-06	-4.792832e-06	-3.707268e-09	-3.499159e+01	-2.425640e+02
1.070000e-06	-4.739622e-06	-3.697827e-09	-3.460311e+01	-2.417398e+02
1.080000e-06	-4.686064e-06	-3.683395e-09	-3.421209e+01	-2.409077e+02
1.090000e-06	-4.632167e-06	-3.664330e-09	-3.381860e+01	-2.400661e+02
1.100000e-06	-4.577886e-06	-3.646074e-09	-3.342231e+01	-2.392131e+02
1.110000e-06	-4.523270e-06	-3.633457e-09	-3.302356e+01	-2.383467e+02
1.120000e-06	-4.468388e-06	-3.622006e-09	-3.262288e+01	-2.374649e+02
1.130000e-06	-4.413306e-06	-3.605348e-09	-3.222073e+01	-2.365655e+02
1.140000e-06	-4.358053e-06	-3.584569e-09	-3.181735e+01	-2.356464e+02
1.150000e-06	-4.302480e-06	-3.570983e-09	-3.141162e+01	-2.347058e+02
1.160000e-06	-4.246572e-06	-3.558542e-09	-3.100344e+01	-2.337419e+02
1.170000e-06	-4.190501e-06	-3.541919e-09	-3.059408e+01	-2.327533e+02
1.180000e-06	-4.134228e-06	-3.523397e-09	-3.018324e+01	-2.317386e+02
1.190000e-06	-4.077590e-06	-3.509064e-09	-2.976973e+01	-2.306972e+02
1.200000e-06	-4.020541e-06	-3.493143e-09	-2.935323e+01	-2.296285e+02
1.210000e-06	-3.963117e-06	-3.473212e-09	-2.893399e+01	-2.285324e+02
1.220000e-06	-3.905335e-06	-3.452561e-09	-2.851214e+01	-2.274090e+02
1.230000e-06	-3.847138e-06	-3.433513e-09	-2.808724e+01	-2.262590e+02
1.240000e-06	-3.788525e-06	-3.412992e-09	-2.765933e+01	-2.250831e+02
1.250000e-06	-3.729640e-06	-3.390368e-09	-2.722942e+01	-2.238824e+02
1.260000e-06	-3.670503e-06	-3.369077e-09	-2.679767e+01	-2.226581e+02
1.270000e-06	-3.611067e-06	-3.350907e-09	-2.636374e+01	-2.214114e+02
1.280000e-06	-3.551340e-06	-3.331220e-09	-2.592768e+01	-2.201437e+02
1.290000e-06	-3.491356e-06	-3.308292e-09	-2.548975e+01	-2.188561e+02
1.300000e-06	-3.431200e-06	-3.283734e-09	-2.505056e+01	-2.175498e+02
1.310000e-06	-3.370875e-06	-3.259818e-09	-2.461014e+01	-2.162256e+02
1.320000e-06	-3.310347e-06	-3.235869e-09	-2.416824e+01	-2.148841e+02
1.330000e-06	-3.249668e-06	-3.211740e-09	-2.372523e+01	-2.135255e+02
1.340000e-06	-3.188867e-06	-3.185948e-09	-2.328133e+01	-2.121496e+02
1.350000e-06	-3.127832e-06	-3.159753e-09	-2.283572e+01	-2.107556e+02
1.360000e-06	-3.066544e-06	-3.133822e-09	-2.238827e+01	-2.093427e+02
1.370000e-06	-3.005052e-06	-3.111404e-09	-2.193933e+01	-2.079092e+02
1.380000e-06	-2.943250e-06	-3.089908e-09	-2.148813e+01	-2.064531e+02
1.390000e-06	-2.881186e-06	-3.067242e-09	-2.103501e+01	-2.049721e+02
1.400000e-06	-2.818993e-06	-3.045751e-09	-2.058095e+01	-2.034633e+02
1.410000e-06	-2.756606e-06	-3.025062e-09	-2.012547e+01	-2.019237e+02
1.420000e-06	-2.694016e-06	-3.000437e-09	-1.966851e+01	-2.003501e+02
1.430000e-06	-2.631308e-06	-2.971195e-09	-1.921069e+01	-1.987388e+02
1.440000e-06	-2.568502e-06	-2.942621e-09	-1.875216e+01	-1.970864e+02
1.450000e-06	-2.505528e-06	-2.916797e-09	-1.829240e+01	-1.953892e+02
1.460000e-06	-2.442351e-06	-2.890457e-09	-1.783115e+01	-1.936438e+02
1.470000e-06	-2.379105e-06	-2.861507e-09	-1.736941e+01	-1.918467e+02
1.480000e-06	-2.315772e-06	-2.831110e-09	-1.690703e+01	-1.899948e+02
1.490000e-06	-2.252212e-06	-2.805195e-09	-1.644299e+01	-1.880853e+02
1.500000e-06	-2.188444e-06	-2.779904e-09	-1.597743e+01	-1.861154e+02
1.510000e-06	-2.124496e-06	-2.749213e-09	-1.551056e+01	-1.840830e+02
1.520000e-06	-2.060365e-06	-2.713776e-09	-1.504235e+01	-1.819858e+02
1.530000e-06	-1.996066e-06	-2.677672e-09	-1.457291e+01	-1.798222e+02
1.540000e-06	-1.931648e-06	-2.643682e-09	-1.410261e+01	-1.775907e+02
1.550000e-06	-1.867116e-06	-2.608409e-09	-1.363147e+01	-1.752899e+02
1.560000e-06	-1.802490e-06	-2.570274e-09	-1.315965e+01	-1.729184e+02
1.570000e-06	-1.737784e-06	-2.530064e-09	-1.268724e+01	-1.704749e+02
1.580000e-06	-1.672931e-06	-2.491801e-09	-1.221376e+01	-1.679578e+02
1.590000e-06	-1.607914e-06	-2.454686e-09	-1.173909e+01	-1.653655e+02
1.600000e-06	-1.542767e-06	-2.416200e-09	-1.126346e+01	-1.626956e+02
1.610000e-06	-1.477548e-06	-2.375143e-09	-1.078730e+01	-1.599454e+02
1.620000e-06	-1.412207e-06	-2.332791e-09	-1.031026e+01	-1.571115e+02
1.630000e-06	-1.346646e-06	-2.286355e-09	-9.831613e+00	-1.541897e+02
1.640000e-06	-1.280876e-06	-2.238626e-09	-9.351439e+00	-1.511749e+02
1.650000e-06	-1.215022e-06	-2.189102e-09	-8.870654e+00	-1.480610e+02
1.660000e-06	-1.149159e-06	-2.137982e-09	-8.389801e+00	-1.448410e+02
1.670000e-06	-1.083292e-06	-2.085352e-09	-7.908918e+00	-1.415067e+02
1.680000e-06	-1.017397e-06	-2.030161e-09	-7.427829e+00	-1.380490e+02
1.690000e-06	-9.513779e-07	-1.974303e-09	-6.945835e+00	-1.344578e+02
1.700000e-06	-8.852715e-07	-1.916512e-09	-6.463204e+00	-1.307221e+02
1.710000e-06	-8.191242e-07	-1.854527e-09	-5.980275e+00	-1.268303e+02
1.720000e-06	-7.528657e-07	-1.790400e-09	-5.496534e+00	-1.227700e+02
1.730000e-06	-6.865949e-07	-1.723572e-09	-5.012704e+00	-1.185285e+02
1.740000e-06	-6.203545e-07	-1.653158e-09	-4.529095e+00	-1.140931e+02
1.750000e-06	-5.539907e-07	-1.580209e-09	-4.044585e+00	-1.094510e+02
1.760000e-06	-4.875200e-07	-1.506412e-09	-3.559294e+00	-1.045901e+02
1.770000e-06	-4.210191e-07	-1.429030e-09	-3.073783e+00	-9.949885e+01
1.780000e-06	-3.545028e-07	-1.347282e-09	-2.588160e+00	-9.416687e+01
1.790000e-06	-2.879135e-07	-1.263003e-09	-2.102003e+00	-8.858517e+01
1.800000e-06	-2.212351e-07	-1.177403e-09	-1.615197e+00	-8.274645e+01
1.810000e-06	-1.546048e-07	-1.087149e-09	-1.128741e+00	-7.664549e+01
1.820000e-06	-8.802208e-08	-9.902760e-10	-6.426330e-01	-7.027938e+01
1.830000e-06	-2.141725e-08	-8.891168e-10	-1.563634e-01	-6.364780e+01
1.840000e-06	4.518133e-08	-7.829845e-10	3.298606e-01	-5.675323e+01
1.850000e-06	1.117056e-07	-6.727051e-10	8.155422e-01	-4.960114e+01
1.860000e-06	1.782198e-07	-5.589806e-10	1.301150e+00	-4.220009e+01
1.870000e-06	2.447615e-07	-4.414252e-10	1.786959e+00	-3.456182e+01
1.880000e-06	3.112750e-07	-3.183087e-10	2.272562e+00	-2.670126e+01
1.890000e-06	3.777850e-07	-1.927647e-10	2.758139e+00	-1.863643e+01
1.900000e-06	4.442937e-07	-6.549234e-11	3.243707e+00	-1.038835e+01
1.910000e-06	5.107450e-07	6.513209e-11	3.728855e+00	-1.980870e+00
1.920000e-06	5.771422e-07	2.017404e-10	4.213609e+00	6.559626e+00
1.930000e-06	6.435306e-07	3.412759e-10	4.698299e+00	1.520449e+01
1.940000e-06	7.098885e-07	4.809677e-10	5.182765e+00	2.392317e+01
1.950000e-06	7.761961e-07	6.192093e-10	5.666866e+00	3.268364e+01
1.960000e-06	8.424441e-07	7.584772e-10	6.150530e+00	4.145281e+01
1.970000e-06	9.085623e-07	8.993211e-10	6.633246e+00	5.019702e+01
1.980000e-06	9.745117e-07	1.036868e-09	7.114731e+00	5.888251e+01
1.990000e-06	1.040387e-06	1.170720e-09	7.595676e+00	6.747595e+01
2.000000e-06	1.106217e-06	1.303321e-09	8.076287e+00	7.594489e+01
2.010000e-06	1.172005e-06	1.433745e-09	8.556593e+00	8.425829e+01
2.020000e-06	1.237672e-06	1.558812e-09	9.036014e+00	9.238693e+01
2.030000e-06	1.303188e-06	1.679090e-09	9.514338e+00	1.003039e+02
2.040000e-06	1.368643e-06	1.796319e-09	9.992211e+00	1.079848e+02
2.050000e-06	1.434038e-06	1.909631e-09	1.046964e+01	1.154085e+02
2.060000e-06	1.499409e-06	2.017131e-09	1.094691e+01	1.225569e+02
2.070000e-06	1.564652e-06	2.117642e-09	1.142324e+01	1.294152e+02
2.080000e-06	1.629646e-06	2.209493e-09	1.189775e+01	1.359726e+02
2.090000e-06	1.694541e-06	2.296953e-09	1.237153e+01	1.422216e+02
2.100000e-06	1.759315e-06	2.382994e-09	1.284443e+01	1.481586e+02
2.110000e-06	1.823833e-06	2.463028e-09	1.331547e+01	1.537834e+02
2.120000e-06	1.888159e-06	2.537211e-09	1.378510e+01	1.590992e+02
2.130000e-06	1.952410e-06	2.613211e-09	1.425419e+01	1.641126e+02
2.140000e-06	2.016557e-06	2.688925e-09	1.472251e+01	1.688329e+02
2.150000e-06	2.080564e-06	2.758130e-09	1.518982e+01	1.732722e+02
2.160000e-06	2.144380e-06	2.821372e-09	1.565573e+01	1.774449e+02
2.170000e-06	2.207985e-06	2.883271e-09	1.612010e+01	1.813671e+02
2.180000e-06	2.271502e-06	2.942421e-09	1.658382e+01	1.850565e+02
2.190000e-06	2.334910e-06	2.995261e-09	1.704675e+01	1.885317e+02
2.200000e-06	2.398189e-06	3.043600e-09	1.750873e+01	1.918119e+02
2.210000e-06	2.461310e-06	3.093146e-09	1.796957e+01	1.949167e+02
2.220000e-06	2.524245e-06	3.143761e-09	1.842905e+01	1.978652e+02
2.230000e-06	2.587033e-06	3.191057e-09	1.888745e+01	2.006760e+02
2.240000e-06	2.649611e-06	3.236020e-09	1.934432e+01	2.033667e+02
2.250000e-06	2.712023e-06	3.280244e-09	1.979998e+01	2.059537e+02
2.260000e-06	2.774263e-06	3.319453e-09	2.025438e+01	2.084520e+02
2.270000e-06	2.836301e-06	3.350974e-09	2.070731e+01	2.108747e+02
2.280000e-06	2.898193e-06	3.380650e-09	2.115918e+01	2.132333e+02
2.290000e-06	2.959857e-06	3.409874e-09	2.160937e+01	2.155371e+02
2.300000e-06	3.021305e-06	3.440948e-09	2.205799e+01	2.177937e+02
2.310000e-06	3.082592e-06	3.471230e-09	2.250544e+01	2.200088e+02
2.320000e-06	3.143654e-06	3.500654e-09	2.295124e+01	2.221862e+02
2.330000e-06	3.204555e-06	3.531376e-09	2.339586e+01	2.243279e+02
2.340000e-06	3.265316e-06	3.560241e-09	2.383947e+01	2.264345e+02
2.350000e-06	3.325838e-06	3.589550e-09	2.428133e+01	2.285053e+02
2.360000e-06	3.386190e-06	3.617913e-09	2.472195e+01	2.305385e+02
2.370000e-06	3.446335e-06	3.642128e-09	2.516106e+01	2.325313e+02
2.380000e-06	3.506167e-06	3.664848e-09	2.559788e+01	2.344805e+02
2.390000e-06	3.565755e-06	3.689215e-09	2.603292e+01	2.363823e+02
2.400000e-06	3.625106e-06	3.713921e-09	2.646623e+01	2.382332e+02
2.410000e-06	3.684200e-06	3.736227e-09	2.689767e+01	2.400296e+02
2.420000e-06	3.742999e-06	3.758302e-09	2.732695e+01	2.417682e+02
2.430000e-06	3.801500e-06	3.783780e-09	2.775405e+01	2.434465e+02
2.440000e-06	3.859688e-06	3.808472e-09	2.817887e+01	2.450626e+02
2.450000e-06	3.917540e-06	3.829512e-09	2.860124e+01	2.466154e+02
2.460000e-06	3.975099e-06	3.849326e-09	2.902147e+01	2.481047e+02
2.470000e-06	4.032304e-06	3.870598e-09	2.943911e+01	2.495315e+02
2.480000e-06	4.089079e-06	3.892001e-09	2.985361e+01	2.508974e+02
2.490000e-06	4.145585e-06	3.911105e-09	3.026615e+01	2.522052e+02
2.500000e-06	4.201813e-06	3.926766e-09	3.067667e+01	2.534584e+02
2.510000e-06	4.257667e-06	3.943359e-09	3.108444e+01	2.546615e+02
2.520000e-06	4.313235e-06	3.963070e-09	3.149014e+01	2.558193e+02
2.530000e-06	4.368478e-06	3.981466e-09	3.189346e+01	2.569373e+02
2.540000e-06	4.423390e-06	4.000118e-09	3.229436e+01	2.580212e+02
2.550000e-06	4.478033e-06	4.019921e-09	3.269330e+01	2.590768e+02
2.560000e-06	4.532378e-06	4.039563e-09	3.309006e+01	2.601100e+02
2.570000e-06	4.586473e-06	4.060620e-09	3.348500e+01	2.611263e+02
2.580000e-06	4.640326e-06	4.079204e-09	3.387817e+01	2.621309e+02
2.590000e-06	4.693859e-06	4.094384e-09	3.426901e+01	2.631283e+02
2.600000e-06	4.747077e-06	4.107765e-09	3.465754e+01	2.641225e+02
2.610000e-06	4.799948e-06	4.121981e-09	3.504354e+01	2.651166e+02
2.620000e-06	4.852476e-06	4.135379e-09	3.542704e+01	2.661127e+02
2.630000e-06	4.904567e-06	4.145587e-09	3.580735e+01	2.671122e+02
2.640000e-06	4.956262e-06	4.157057e-09	3.618476e+01	2.681155e+02
2.650000e-06	5.007611e-06	4.172922e-09	3.655965e+01	2.691220e+02
2.660000e-06	5.058454e-06	4.192795e-09	3.693084e+01	2.701303e+02
2.670000e-06	5.108735e-06	4.209341e-09	3.729794e+01	2.711382e+02
2.680000e-06	5.158474e-06	4.221940e-09	3.766107e+01	2.721427e+02
2.690000e-06	5.207681e-06	4.235645e-09	3.802032e+01	2.731405e+02
2.700000e-06	5.256414e-06	4.248090e-09	3.837612e+01	2.741276e+02
2.710000e-06	5.304774e-06	4.257332e-09	3.872918e+01	2.750999e+02
2.720000e-06	5.352764e-06	4.267046e-09	3.907955e+01	2.760532e+02
2.730000e-06	5.400380e-06	4.281629e-09	3.942718e+01	2.769832e+02
2.740000e-06	5.447594e-06	4.297397e-09	3.977188e+01	2.778861e+02
2.750000e-06	5.494419e-06	4.309799e-09	4.011374e+01	2.787583e+02
2.760000e-06	5.540920e-06	4.322017e-09	4.045324e+01	2.795967e+02
2.770000e-06	5.587094e-06	4.336450e-09	4.079035e+01	2.803990e+02
2.780000e-06	5.632841e-06	4.351543e-09	4.112434e+01	2.811635e+02
2.790000e-06	5.678150e-06	4.363362e-09	4.145513e+01	2.818892e+02
2.800000e-06	5.723116e-06	4.370098e-09	4.178342e+01	2.825763e+02
2.810000e-06	5.767652e-06	4.375707e-09	4.210857e+01	2.832254e+02
2.820000e-06	5.811815e-06	4.383905e-09	4.243100e+01	2.838383e+02
2.830000e-06	5.855743e-06	4.395436e-09	4.275171e+01	2.844173e+02
2.840000e-06	5.899398e-06	4.406498e-09	4.307042e+01	2.849654e+02
2.850000e-06	5.942740e-06	4.415754e-09	4.338686e+01	2.854865e+02
2.860000e-06	5.985708e-06	4.426641e-09	4.370055e+01	2.859846e+02
2.870000e-06	6.028155e-06	4.439457e-09	4.401045e+01	2.864642e+02
2.880000e-06	6.069934e-06	4.450751e-09	4.431547e+01	2.869300e+02
2.890000e-06	6.111048e-06	4.456102e-09	4.461564e+01	2.873867e+02
2.900000e-06	6.151625e-06	4.462249e-09	4.491189e+01	2.878387e+02
2.910000e-06	6.191678e-06	4.472141e-09	4.520430e+01	2.882904e+02
