# Temperatura_=_20.0
# Concentracion g/m^3_=_9000.0
# C_Vs_to_Am_M_A/Vsm_=_65563218390.804596
# pendiente_HvsI_1/m_=_3716.3
# ordenada_HvsI_A/m_=_1297.0
# frecuencia_Hz_=_300881.5681135656

Tiempo_(s)	Campo_(V.s)	Magnetizacion_(V.s)	Campo_(kA/m)	Magnetizacion_(A/m)
0.000000e+00	-5.349731e-06	-4.350129e-09	-5.679981e+01	-2.849798e+02
1.000000e-08	-5.348423e-06	-4.348523e-09	-5.678592e+01	-2.848892e+02
2.000000e-08	-5.345217e-06	-4.348437e-09	-5.675189e+01	-2.847659e+02
3.000000e-08	-5.340388e-06	-4.346803e-09	-5.670061e+01	-2.846109e+02
4.000000e-08	-5.333965e-06	-4.343276e-09	-5.663241e+01	-2.844252e+02
5.000000e-08	-5.325847e-06	-4.339102e-09	-5.654623e+01	-2.842098e+02
6.000000e-08	-5.315748e-06	-4.335018e-09	-5.643900e+01	-2.839658e+02
7.000000e-08	-5.303681e-06	-4.328406e-09	-5.631088e+01	-2.836942e+02
8.000000e-08	-5.289662e-06	-4.330999e-09	-5.616204e+01	-2.833963e+02
9.000000e-08	-5.273502e-06	-4.341464e-09	-5.599046e+01	-2.830733e+02
1.000000e-07	-5.255250e-06	-4.336022e-09	-5.579668e+01	-2.827267e+02
1.100000e-07	-5.235045e-06	-4.335723e-09	-5.558216e+01	-2.823579e+02
1.200000e-07	-5.212995e-06	-4.323178e-09	-5.534805e+01	-2.819686e+02
1.300000e-07	-5.189252e-06	-4.279422e-09	-5.509596e+01	-2.815599e+02
1.400000e-07	-5.163870e-06	-4.296507e-09	-5.482646e+01	-2.811332e+02
1.500000e-07	-5.136914e-06	-4.295617e-09	-5.454027e+01	-2.806888e+02
1.600000e-07	-5.108469e-06	-4.245611e-09	-5.423826e+01	-2.802268e+02
1.700000e-07	-5.078494e-06	-4.291695e-09	-5.392000e+01	-2.797461e+02
1.800000e-07	-5.046720e-06	-4.263827e-09	-5.358264e+01	-2.792448e+02
1.900000e-07	-5.012901e-06	-4.228609e-09	-5.322358e+01	-2.787200e+02
2.000000e-07	-4.977490e-06	-4.278507e-09	-5.284760e+01	-2.781680e+02
2.100000e-07	-4.940569e-06	-4.216317e-09	-5.245560e+01	-2.775842e+02
2.200000e-07	-4.901785e-06	-4.195302e-09	-5.204382e+01	-2.769636e+02
2.300000e-07	-4.861149e-06	-4.225747e-09	-5.161238e+01	-2.763015e+02
2.400000e-07	-4.818642e-06	-4.199693e-09	-5.116107e+01	-2.755929e+02
2.500000e-07	-4.774353e-06	-4.193143e-09	-5.069084e+01	-2.748340e+02
2.600000e-07	-4.728327e-06	-4.166082e-09	-5.020216e+01	-2.740216e+02
2.700000e-07	-4.680337e-06	-4.143519e-09	-4.969264e+01	-2.731539e+02
2.800000e-07	-4.630274e-06	-4.155060e-09	-4.916111e+01	-2.722302e+02
2.900000e-07	-4.578325e-06	-4.127231e-09	-4.860955e+01	-2.712514e+02
3.000000e-07	-4.524707e-06	-4.104391e-09	-4.804026e+01	-2.702190e+02
3.100000e-07	-4.469526e-06	-4.103296e-09	-4.745439e+01	-2.691357e+02
3.200000e-07	-4.412705e-06	-4.083726e-09	-4.685110e+01	-2.680043e+02
3.300000e-07	-4.354143e-06	-4.058637e-09	-4.622933e+01	-2.668278e+02
3.400000e-07	-4.294069e-06	-4.047630e-09	-4.559151e+01	-2.656087e+02
3.500000e-07	-4.232603e-06	-4.035189e-09	-4.493890e+01	-2.643489e+02
3.600000e-07	-4.169614e-06	-3.989476e-09	-4.427013e+01	-2.630493e+02
3.700000e-07	-4.105054e-06	-3.988086e-09	-4.358468e+01	-2.617095e+02
3.800000e-07	-4.038879e-06	-3.986052e-09	-4.288207e+01	-2.603284e+02
3.900000e-07	-3.971209e-06	-3.940836e-09	-4.216360e+01	-2.589037e+02
4.000000e-07	-3.902116e-06	-3.920149e-09	-4.143002e+01	-2.574323e+02
4.100000e-07	-3.831736e-06	-3.909059e-09	-4.068277e+01	-2.559107e+02
4.200000e-07	-3.760245e-06	-3.890224e-09	-3.992373e+01	-2.543352e+02
4.300000e-07	-3.687342e-06	-3.849281e-09	-3.914970e+01	-2.527019e+02
4.400000e-07	-3.612692e-06	-3.825884e-09	-3.835711e+01	-2.510072e+02
4.500000e-07	-3.536503e-06	-3.805267e-09	-3.754819e+01	-2.492478e+02
4.600000e-07	-3.459019e-06	-3.771898e-09	-3.672551e+01	-2.474207e+02
4.700000e-07	-3.380160e-06	-3.745059e-09	-3.588825e+01	-2.455229e+02
4.800000e-07	-3.299929e-06	-3.719883e-09	-3.503641e+01	-2.435516e+02
4.900000e-07	-3.218404e-06	-3.685249e-09	-3.417082e+01	-2.415039e+02
5.000000e-07	-3.135780e-06	-3.646595e-09	-3.329359e+01	-2.393764e+02
5.100000e-07	-3.052299e-06	-3.621287e-09	-3.240724e+01	-2.371653e+02
5.200000e-07	-2.967941e-06	-3.591458e-09	-3.151158e+01	-2.348665e+02
5.300000e-07	-2.882615e-06	-3.548009e-09	-3.060565e+01	-2.324751e+02
5.400000e-07	-2.796311e-06	-3.504455e-09	-2.968933e+01	-2.299858e+02
5.500000e-07	-2.709090e-06	-3.472616e-09	-2.876327e+01	-2.273931e+02
5.600000e-07	-2.620930e-06	-3.434712e-09	-2.782725e+01	-2.246915e+02
5.700000e-07	-2.531611e-06	-3.386756e-09	-2.687893e+01	-2.218751e+02
5.800000e-07	-2.441104e-06	-3.336537e-09	-2.591799e+01	-2.189388e+02
5.900000e-07	-2.349707e-06	-3.291219e-09	-2.494759e+01	-2.158774e+02
6.000000e-07	-2.257705e-06	-3.244965e-09	-2.397078e+01	-2.126862e+02
6.100000e-07	-2.165046e-06	-3.196082e-09	-2.298699e+01	-2.093605e+02
6.200000e-07	-2.071575e-06	-3.143988e-09	-2.199457e+01	-2.058960e+02
6.300000e-07	-1.977378e-06	-3.080608e-09	-2.099446e+01	-2.022876e+02
6.400000e-07	-1.882566e-06	-3.018348e-09	-1.998781e+01	-1.985300e+02
6.500000e-07	-1.787203e-06	-2.961426e-09	-1.897530e+01	-1.946165e+02
6.600000e-07	-1.691247e-06	-2.903617e-09	-1.795652e+01	-1.905390e+02
6.700000e-07	-1.594455e-06	-2.832289e-09	-1.692885e+01	-1.862876e+02
6.800000e-07	-1.496831e-06	-2.757687e-09	-1.589234e+01	-1.818500e+02
6.900000e-07	-1.398556e-06	-2.690327e-09	-1.484891e+01	-1.772115e+02
7.000000e-07	-1.299751e-06	-2.621740e-09	-1.379987e+01	-1.723547e+02
7.100000e-07	-1.200510e-06	-2.542392e-09	-1.274620e+01	-1.672591e+02
7.200000e-07	-1.100912e-06	-2.455451e-09	-1.168874e+01	-1.619017e+02
7.300000e-07	-1.001070e-06	-2.371393e-09	-1.062868e+01	-1.562566e+02
7.400000e-07	-9.009812e-07	-2.283545e-09	-9.566007e+00	-1.502953e+02
7.500000e-07	-8.006236e-07	-2.188325e-09	-8.500478e+00	-1.439870e+02
7.600000e-07	-6.999610e-07	-2.084187e-09	-7.431711e+00	-1.372994e+02
7.700000e-07	-5.989775e-07	-1.972805e-09	-6.359537e+00	-1.301990e+02
7.800000e-07	-4.977915e-07	-1.854911e-09	-5.285212e+00	-1.226524e+02
7.900000e-07	-3.964336e-07	-1.731775e-09	-4.209063e+00	-1.146274e+02
8.000000e-07	-2.948538e-07	-1.603425e-09	-3.130557e+00	-1.060946e+02
8.100000e-07	-1.931761e-07	-1.463968e-09	-2.051013e+00	-9.702904e+01
8.200000e-07	-9.144097e-08	-1.314720e-09	-9.708581e-01	-8.741210e+01
8.300000e-07	1.034544e-08	-1.158008e-09	1.098409e-01	-7.723388e+01
8.400000e-07	1.121247e-07	-9.948065e-10	1.190464e+00	-6.649505e+01
8.500000e-07	2.138484e-07	-8.220998e-10	2.270497e+00	-5.520887e+01
8.600000e-07	3.154963e-07	-6.415869e-10	3.349725e+00	-4.340272e+01
8.700000e-07	4.170876e-07	-4.534954e-10	4.428353e+00	-3.111921e+01
8.800000e-07	5.184684e-07	-2.598812e-10	5.504746e+00	-1.841653e+01
8.900000e-07	6.195934e-07	-6.301311e-11	6.578423e+00	-5.368036e+00
9.000000e-07	7.205136e-07	1.382595e-10	7.649924e+00	7.939093e+00
9.100000e-07	8.211881e-07	3.440309e-10	8.718817e+00	2.140606e+01
9.200000e-07	9.215820e-07	5.512487e-10	9.784732e+00	3.492553e+01
9.300000e-07	1.021657e-06	7.538172e-10	1.084726e+01	4.838535e+01
9.400000e-07	1.121391e-06	9.538057e-10	1.190617e+01	6.167282e+01
9.500000e-07	1.220829e-06	1.151497e-09	1.296193e+01	7.467910e+01
9.600000e-07	1.319972e-06	1.347234e-09	1.401457e+01	8.730356e+01
9.700000e-07	1.418698e-06	1.534033e-09	1.506278e+01	9.945773e+01
9.800000e-07	1.516760e-06	1.708779e-09	1.610393e+01	1.110685e+02
9.900000e-07	1.614038e-06	1.875692e-09	1.713676e+01	1.220807e+02
1.000000e-06	1.710581e-06	2.034820e-09	1.816179e+01	1.324577e+02
1.010000e-06	1.806460e-06	2.184917e-09	1.917976e+01	1.421825e+02
1.020000e-06	1.901718e-06	2.323230e-09	2.019115e+01	1.512557e+02
1.030000e-06	1.996284e-06	2.450962e-09	2.119519e+01	1.596940e+02
1.040000e-06	2.090148e-06	2.569755e-09	2.219178e+01	1.675276e+02
1.050000e-06	2.183347e-06	2.681335e-09	2.318129e+01	1.747959e+02
1.060000e-06	2.275846e-06	2.784612e-09	2.416339e+01	1.815450e+02
1.070000e-06	2.367659e-06	2.877033e-09	2.513820e+01	1.878233e+02
1.080000e-06	2.458803e-06	2.961546e-09	2.610590e+01	1.936788e+02
1.090000e-06	2.549028e-06	3.043856e-09	2.706385e+01	1.991561e+02
1.100000e-06	2.638066e-06	3.125469e-09	2.800919e+01	2.042947e+02
1.110000e-06	2.726022e-06	3.200418e-09	2.894305e+01	2.091280e+02
1.120000e-06	2.813042e-06	3.268324e-09	2.986697e+01	2.136827e+02
1.130000e-06	2.899130e-06	3.332759e-09	3.078099e+01	2.179794e+02
1.140000e-06	2.984274e-06	3.394590e-09	3.168500e+01	2.220332e+02
1.150000e-06	3.068462e-06	3.451661e-09	3.257884e+01	2.258556e+02
1.160000e-06	3.151755e-06	3.503644e-09	3.346320e+01	2.294555e+02
1.170000e-06	3.234019e-06	3.553038e-09	3.433662e+01	2.328405e+02
1.180000e-06	3.315027e-06	3.600020e-09	3.519671e+01	2.360187e+02
1.190000e-06	3.394789e-06	3.645085e-09	3.604356e+01	2.389991e+02
1.200000e-06	3.473284e-06	3.685703e-09	3.687697e+01	2.417925e+02
1.210000e-06	3.550519e-06	3.723902e-09	3.769700e+01	2.444111e+02
1.220000e-06	3.626569e-06	3.759866e-09	3.850445e+01	2.468689e+02
1.230000e-06	3.701310e-06	3.793954e-09	3.929800e+01	2.491806e+02
1.240000e-06	3.774447e-06	3.825951e-09	4.007452e+01	2.513612e+02
1.250000e-06	3.846002e-06	3.856253e-09	4.083424e+01	2.534252e+02
1.260000e-06	3.916201e-06	3.885072e-09	4.157957e+01	2.553859e+02
1.270000e-06	3.985047e-06	3.911412e-09	4.231052e+01	2.572547e+02
1.280000e-06	4.052639e-06	3.935920e-09	4.302817e+01	2.590410e+02
1.290000e-06	4.118853e-06	3.960969e-09	4.373119e+01	2.607517e+02
1.300000e-06	4.183430e-06	3.989310e-09	4.441682e+01	2.623919e+02
1.310000e-06	4.246465e-06	4.014373e-09	4.508608e+01	2.639645e+02
1.320000e-06	4.308080e-06	4.034287e-09	4.574027e+01	2.654712e+02
1.330000e-06	4.368325e-06	4.054666e-09	4.637991e+01	2.669126e+02
1.340000e-06	4.427213e-06	4.077596e-09	4.700514e+01	2.682890e+02
1.350000e-06	4.484495e-06	4.097681e-09	4.761333e+01	2.696005e+02
1.360000e-06	4.540003e-06	4.113901e-09	4.820267e+01	2.708475e+02
1.370000e-06	4.593867e-06	4.131297e-09	4.877456e+01	2.720311e+02
1.380000e-06	4.646044e-06	4.150087e-09	4.932854e+01	2.731527e+02
1.390000e-06	4.696221e-06	4.167580e-09	4.986128e+01	2.742142e+02
1.400000e-06	4.744393e-06	4.182937e-09	5.037274e+01	2.752181e+02
1.410000e-06	4.790802e-06	4.196589e-09	5.086548e+01	2.761669e+02
1.420000e-06	4.835580e-06	4.210730e-09	5.134090e+01	2.770631e+02
1.430000e-06	4.878824e-06	4.224687e-09	5.180004e+01	2.779092e+02
1.440000e-06	4.920259e-06	4.237215e-09	5.223997e+01	2.787075e+02
1.450000e-06	4.959806e-06	4.248461e-09	5.265986e+01	2.794597e+02
1.460000e-06	4.997679e-06	4.259209e-09	5.306196e+01	2.801674e+02
1.470000e-06	5.033943e-06	4.271002e-09	5.344699e+01	2.808319e+02
1.480000e-06	5.068490e-06	4.282370e-09	5.381379e+01	2.814543e+02
1.490000e-06	5.101110e-06	4.292751e-09	5.416012e+01	2.820355e+02
1.500000e-06	5.131880e-06	4.301435e-09	5.448681e+01	2.825761e+02
1.510000e-06	5.160983e-06	4.309618e-09	5.479581e+01	2.830772e+02
1.520000e-06	5.188437e-06	4.318198e-09	5.508730e+01	2.835392e+02
1.530000e-06	5.213977e-06	4.325718e-09	5.535846e+01	2.839629e+02
1.540000e-06	5.237471e-06	4.331376e-09	5.560791e+01	2.843489e+02
1.550000e-06	5.259134e-06	4.336680e-09	5.583792e+01	2.846977e+02
1.560000e-06	5.279103e-06	4.343359e-09	5.604993e+01	2.850095e+02
1.570000e-06	5.297292e-06	4.348669e-09	5.624305e+01	2.852846e+02
1.580000e-06	5.313537e-06	4.351886e-09	5.641553e+01	2.855231e+02
1.590000e-06	5.327828e-06	4.355095e-09	5.656726e+01	2.857249e+02
1.600000e-06	5.340216e-06	4.359379e-09	5.669879e+01	2.858900e+02
1.610000e-06	5.350493e-06	4.363733e-09	5.680790e+01	2.860183e+02
1.620000e-06	5.358615e-06	4.365634e-09	5.689414e+01	2.861100e+02
1.630000e-06	5.364853e-06	4.367172e-09	5.696037e+01	2.861652e+02
1.640000e-06	5.369310e-06	4.369699e-09	5.700769e+01	2.861843e+02
1.650000e-06	5.371905e-06	4.371761e-09	5.703524e+01	2.861679e+02
1.660000e-06	5.372495e-06	4.370174e-09	5.704150e+01	2.861169e+02
1.670000e-06	5.371198e-06	4.366516e-09	5.702773e+01	2.860320e+02
1.680000e-06	5.368257e-06	4.363412e-09	5.699651e+01	2.859142e+02
1.690000e-06	5.363697e-06	4.359289e-09	5.694809e+01	2.857645e+02
1.700000e-06	5.357319e-06	4.356350e-09	5.688037e+01	2.855839e+02
1.710000e-06	5.349093e-06	4.354177e-09	5.679304e+01	2.853735e+02
1.720000e-06	5.339235e-06	4.353041e-09	5.668837e+01	2.851343e+02
1.730000e-06	5.327747e-06	4.355188e-09	5.656640e+01	2.848673e+02
1.740000e-06	5.314467e-06	4.334655e-09	5.642540e+01	2.845737e+02
1.750000e-06	5.299131e-06	4.325484e-09	5.626258e+01	2.842548e+02
1.760000e-06	5.281372e-06	4.312525e-09	5.607402e+01	2.839120e+02
1.770000e-06	5.261058e-06	4.299256e-09	5.585834e+01	2.835469e+02
1.780000e-06	5.238393e-06	4.337494e-09	5.561770e+01	2.831608e+02
1.790000e-06	5.214197e-06	4.327081e-09	5.536080e+01	2.827553e+02
1.800000e-06	5.189230e-06	4.299400e-09	5.509572e+01	2.823314e+02
1.810000e-06	5.162930e-06	4.354579e-09	5.481648e+01	2.818900e+02
1.820000e-06	5.134562e-06	4.295432e-09	5.451530e+01	2.814309e+02
1.830000e-06	5.104511e-06	4.298916e-09	5.419623e+01	2.809533e+02
1.840000e-06	5.072866e-06	4.352019e-09	5.386025e+01	2.804557e+02
1.850000e-06	5.039089e-06	4.261613e-09	5.350162e+01	2.799351e+02
1.860000e-06	5.003467e-06	4.304236e-09	5.312342e+01	2.793879e+02
1.870000e-06	4.966240e-06	4.321821e-09	5.272817e+01	2.788099e+02
1.880000e-06	4.927146e-06	4.216600e-09	5.231309e+01	2.781960e+02
1.890000e-06	4.886293e-06	4.235968e-09	5.187934e+01	2.775414e+02
1.900000e-06	4.843682e-06	4.225343e-09	5.142693e+01	2.768412e+02
1.910000e-06	4.799483e-06	4.196771e-09	5.095766e+01	2.760912e+02
1.920000e-06	4.753729e-06	4.213670e-09	5.047187e+01	2.752883e+02
1.930000e-06	4.706034e-06	4.149263e-09	4.996547e+01	2.744302e+02
1.940000e-06	4.656611e-06	4.180755e-09	4.944074e+01	2.735163e+02
1.950000e-06	4.605625e-06	4.160724e-09	4.889940e+01	2.725470e+02
1.960000e-06	4.552871e-06	4.112882e-09	4.833929e+01	2.715237e+02
1.970000e-06	4.498138e-06	4.136628e-09	4.775818e+01	2.704490e+02
1.980000e-06	4.441593e-06	4.089361e-09	4.715782e+01	2.693257e+02
1.990000e-06	4.383583e-06	4.075244e-09	4.654191e+01	2.681568e+02
2.000000e-06	4.324061e-06	4.062647e-09	4.590994e+01	2.669449e+02
2.010000e-06	4.263138e-06	4.058989e-09	4.526311e+01	2.656920e+02
2.020000e-06	4.200657e-06	4.028381e-09	4.459972e+01	2.643992e+02
2.030000e-06	4.136336e-06	3.966643e-09	4.391681e+01	2.630664e+02
2.040000e-06	4.070474e-06	3.993737e-09	4.321753e+01	2.616926e+02
2.050000e-06	4.003252e-06	3.970379e-09	4.250382e+01	2.602756e+02
2.060000e-06	3.934714e-06	3.936428e-09	4.177613e+01	2.588125e+02
2.070000e-06	3.864704e-06	3.916360e-09	4.103280e+01	2.572999e+02
2.080000e-06	3.793068e-06	3.886936e-09	4.027223e+01	2.557340e+02
2.090000e-06	3.720066e-06	3.873367e-09	3.949714e+01	2.541110e+02
2.100000e-06	3.645784e-06	3.831855e-09	3.870846e+01	2.524273e+02
2.110000e-06	3.570158e-06	3.822917e-09	3.790551e+01	2.506795e+02
2.120000e-06	3.493084e-06	3.783761e-09	3.708719e+01	2.488644e+02
2.130000e-06	3.414472e-06	3.735143e-09	3.625255e+01	2.469792e+02
2.140000e-06	3.334465e-06	3.722927e-09	3.540308e+01	2.450210e+02
2.150000e-06	3.253277e-06	3.706720e-09	3.454108e+01	2.429869e+02
2.160000e-06	3.171035e-06	3.676306e-09	3.366789e+01	2.408736e+02
2.170000e-06	3.087750e-06	3.622787e-09	3.278364e+01	2.386775e+02
2.180000e-06	3.003496e-06	3.597295e-09	3.188908e+01	2.363944e+02
2.190000e-06	2.918181e-06	3.568764e-09	3.098327e+01	2.340196e+02
2.200000e-06	2.831679e-06	3.525442e-09	3.006484e+01	2.315479e+02
2.210000e-06	2.744020e-06	3.480681e-09	2.913414e+01	2.289739e+02
2.220000e-06	2.655363e-06	3.436192e-09	2.819284e+01	2.262918e+02
2.230000e-06	2.565866e-06	3.398033e-09	2.724262e+01	2.234961e+02
2.240000e-06	2.475471e-06	3.354201e-09	2.628287e+01	2.205814e+02
2.250000e-06	2.384279e-06	3.317295e-09	2.531466e+01	2.175424e+02
2.260000e-06	2.292419e-06	3.264600e-09	2.433935e+01	2.143744e+02
2.270000e-06	2.199894e-06	3.207132e-09	2.335698e+01	2.110728e+02
2.280000e-06	2.106585e-06	3.162614e-09	2.236629e+01	2.076332e+02
2.290000e-06	2.012345e-06	3.123509e-09	2.136571e+01	2.040506e+02
2.300000e-06	1.917269e-06	3.066961e-09	2.035626e+01	2.003198e+02
2.310000e-06	1.821448e-06	2.994362e-09	1.933890e+01	1.964344e+02
2.320000e-06	1.724933e-06	2.931841e-09	1.831417e+01	1.923867e+02
2.330000e-06	1.627886e-06	2.875612e-09	1.728379e+01	1.881669e+02
2.340000e-06	1.530379e-06	2.811292e-09	1.624852e+01	1.837633e+02
2.350000e-06	1.432339e-06	2.735878e-09	1.520761e+01	1.791616e+02
2.360000e-06	1.333756e-06	2.663237e-09	1.416092e+01	1.743448e+02
2.370000e-06	1.234773e-06	2.590942e-09	1.310998e+01	1.692933e+02
2.380000e-06	1.135407e-06	2.514326e-09	1.205498e+01	1.639842e+02
2.390000e-06	1.035690e-06	2.431142e-09	1.099625e+01	1.583923e+02
2.400000e-06	9.357614e-07	2.335690e-09	9.935279e+00	1.524893e+02
2.410000e-06	8.356474e-07	2.234932e-09	8.872336e+00	1.462451e+02
2.420000e-06	7.352335e-07	2.136351e-09	7.806210e+00	1.396273e+02
2.430000e-06	6.344958e-07	2.036768e-09	6.736646e+00	1.326028e+02
2.440000e-06	5.335061e-07	1.924018e-09	5.664406e+00	1.251381e+02
2.450000e-06	4.322562e-07	1.796905e-09	4.589403e+00	1.172005e+02
2.460000e-06	3.308633e-07	1.667877e-09	3.512882e+00	1.087602e+02
2.470000e-06	2.294214e-07	1.537601e-09	2.435841e+00	9.979102e+01
2.480000e-06	1.278936e-07	1.396460e-09	1.357887e+00	9.027328e+01
2.490000e-06	2.630551e-08	1.241966e-09	2.792940e-01	8.019530e+01
2.500000e-06	-7.524241e-08	1.079213e-09	-7.988728e-01	6.955573e+01
2.510000e-06	-1.766882e-07	9.085182e-10	-1.875955e+00	5.836545e+01
2.520000e-06	-2.780259e-07	7.288933e-10	-2.951890e+00	4.664921e+01
2.530000e-06	-3.792626e-07	5.430422e-10	-4.026752e+00	3.444686e+01
2.540000e-06	-4.803440e-07	3.491968e-10	-5.099967e+00	2.181382e+01
2.550000e-06	-5.812110e-07	1.460656e-10	-6.170903e+00	8.820791e+00
2.560000e-06	-6.818450e-07	-5.884885e-11	-7.239367e+00	-4.447364e+00
2.570000e-06	-7.822618e-07	-2.603487e-10	-8.305524e+00	-1.789372e+01
2.580000e-06	-8.824463e-07	-4.627095e-10	-9.369215e+00	-3.141222e+01
2.590000e-06	-9.823081e-07	-6.699580e-10	-1.042948e+01	-4.489126e+01
2.600000e-06	-1.081829e-06	-8.768238e-10	-1.148612e+01	-5.821792e+01
2.610000e-06	-1.181040e-06	-1.076839e-09	-1.253948e+01	-7.128235e+01
2.620000e-06	-1.279903e-06	-1.268396e-09	-1.358914e+01	-8.398214e+01
2.630000e-06	-1.378301e-06	-1.453693e-09	-1.463386e+01	-9.622640e+01
2.640000e-06	-1.476155e-06	-1.635155e-09	-1.567282e+01	-1.079391e+02
2.650000e-06	-1.573505e-06	-1.806953e-09	-1.670641e+01	-1.190616e+02
2.660000e-06	-1.670407e-06	-1.965184e-09	-1.773525e+01	-1.295541e+02
2.670000e-06	-1.766908e-06	-2.112552e-09	-1.875983e+01	-1.393961e+02
2.680000e-06	-1.862907e-06	-2.253166e-09	-1.977908e+01	-1.485851e+02
2.690000e-06	-1.958121e-06	-2.387153e-09	-2.079000e+01	-1.571352e+02
2.700000e-06	-2.052396e-06	-2.510678e-09	-2.179095e+01	-1.650743e+02
2.710000e-06	-2.145813e-06	-2.622341e-09	-2.278279e+01	-1.724406e+02
2.720000e-06	-2.238441e-06	-2.724681e-09	-2.376625e+01	-1.792792e+02
2.730000e-06	-2.330230e-06	-2.823249e-09	-2.474080e+01	-1.856383e+02
2.740000e-06	-2.421214e-06	-2.917136e-09	-2.570680e+01	-1.915661e+02
2.750000e-06	-2.511351e-06	-3.001707e-09	-2.666382e+01	-1.971081e+02
2.760000e-06	-2.600611e-06	-3.078574e-09	-2.761153e+01	-2.023049e+02
2.770000e-06	-2.689101e-06	-3.153599e-09	-2.855105e+01	-2.071908e+02
2.780000e-06	-2.776724e-06	-3.226977e-09	-2.948137e+01	-2.117939e+02
2.790000e-06	-2.863195e-06	-3.294204e-09	-3.039946e+01	-2.161356e+02
2.800000e-06	-2.948514e-06	-3.356937e-09	-3.130532e+01	-2.202321e+02
2.810000e-06	-3.032810e-06	-3.416666e-09	-3.220032e+01	-2.240954e+02
2.820000e-06	-3.116070e-06	-3.473354e-09	-3.308432e+01	-2.277347e+02
2.830000e-06	-3.198367e-06	-3.527467e-09	-3.395809e+01	-2.311578e+02
2.840000e-06	-3.279668e-06	-3.578553e-09	-3.482129e+01	-2.343725e+02
2.850000e-06	-3.359895e-06	-3.626742e-09	-3.567308e+01	-2.373878e+02
2.860000e-06	-3.438784e-06	-3.670750e-09	-3.651067e+01	-2.402140e+02
2.870000e-06	-3.516165e-06	-3.711436e-09	-3.733226e+01	-2.428631e+02
2.880000e-06	-3.592115e-06	-3.751008e-09	-3.813864e+01	-2.453488e+02
2.890000e-06	-3.666678e-06	-3.789034e-09	-3.893029e+01	-2.476857e+02
2.900000e-06	-3.739954e-06	-3.823900e-09	-3.970829e+01	-2.498889e+02
2.910000e-06	-3.811972e-06	-3.855738e-09	-4.047293e+01	-2.519730e+02
2.920000e-06	-3.882513e-06	-3.886546e-09	-4.122189e+01	-2.539515e+02
2.930000e-06	-3.951496e-06	-3.917208e-09	-4.195430e+01	-2.558363e+02
2.940000e-06	-4.019095e-06	-3.946108e-09	-4.267202e+01	-2.576369e+02
