# Temperatura_=_20.0
# Concentracion g/m^3_=_9000.0
# C_Vs_to_Am_M_A/Vsm_=_65563218390.804596
# pendiente_HvsI_1/m_=_3716.3
# ordenada_HvsI_A/m_=_1297.0
# frecuencia_Hz_=_300877.5367555539

Tiempo_(s)	Campo_(V.s)	Magnetizacion_(V.s)	Campo_(kA/m)	Magnetizacion_(A/m)
0.000000e+00	-5.359113e-06	-4.321908e-09	-5.680123e+01	-2.831550e+02
1.000000e-08	-5.357777e-06	-4.323368e-09	-5.678706e+01	-2.831286e+02
2.000000e-08	-5.354546e-06	-4.323992e-09	-5.675282e+01	-2.830649e+02
3.000000e-08	-5.349707e-06	-4.322264e-09	-5.670153e+01	-2.829628e+02
4.000000e-08	-5.343255e-06	-4.318961e-09	-5.663315e+01	-2.828210e+02
5.000000e-08	-5.335176e-06	-4.314748e-09	-5.654752e+01	-2.826393e+02
6.000000e-08	-5.325111e-06	-4.310012e-09	-5.644084e+01	-2.824182e+02
7.000000e-08	-5.312979e-06	-4.303266e-09	-5.631225e+01	-2.821591e+02
8.000000e-08	-5.298922e-06	-4.296834e-09	-5.616327e+01	-2.818648e+02
9.000000e-08	-5.282687e-06	-4.321315e-09	-5.599119e+01	-2.815390e+02
1.000000e-07	-5.264355e-06	-4.346338e-09	-5.579689e+01	-2.811862e+02
1.100000e-07	-5.244160e-06	-4.331353e-09	-5.558284e+01	-2.808115e+02
1.200000e-07	-5.222132e-06	-4.303188e-09	-5.534937e+01	-2.804199e+02
1.300000e-07	-5.198349e-06	-4.251603e-09	-5.509729e+01	-2.800158e+02
1.400000e-07	-5.172850e-06	-4.219472e-09	-5.482702e+01	-2.796024e+02
1.500000e-07	-5.145773e-06	-4.296317e-09	-5.454004e+01	-2.791815e+02
1.600000e-07	-5.117231e-06	-4.290581e-09	-5.423752e+01	-2.787527e+02
1.700000e-07	-5.087241e-06	-4.228692e-09	-5.391966e+01	-2.783136e+02
1.800000e-07	-5.055483e-06	-4.247492e-09	-5.358305e+01	-2.778593e+02
1.900000e-07	-5.021546e-06	-4.219885e-09	-5.322336e+01	-2.773833e+02
2.000000e-07	-4.986010e-06	-4.236032e-09	-5.284671e+01	-2.768777e+02
2.100000e-07	-4.949002e-06	-4.263638e-09	-5.245446e+01	-2.763337e+02
2.200000e-07	-4.910128e-06	-4.177504e-09	-5.204244e+01	-2.757426e+02
2.300000e-07	-4.869466e-06	-4.157334e-09	-5.161146e+01	-2.750964e+02
2.400000e-07	-4.826940e-06	-4.199083e-09	-5.116073e+01	-2.743889e+02
2.500000e-07	-4.782582e-06	-4.189097e-09	-5.069058e+01	-2.736155e+02
2.600000e-07	-4.736456e-06	-4.168858e-09	-5.020168e+01	-2.727746e+02
2.700000e-07	-4.688358e-06	-4.111720e-09	-4.969189e+01	-2.718665e+02
2.800000e-07	-4.638168e-06	-4.101593e-09	-4.915993e+01	-2.708943e+02
2.900000e-07	-4.586110e-06	-4.129662e-09	-4.860817e+01	-2.698626e+02
3.000000e-07	-4.532413e-06	-4.115084e-09	-4.803903e+01	-2.687775e+02
3.100000e-07	-4.477130e-06	-4.070780e-09	-4.745309e+01	-2.676454e+02
3.200000e-07	-4.420130e-06	-4.039952e-09	-4.684895e+01	-2.664724e+02
3.300000e-07	-4.361392e-06	-4.042431e-09	-4.622639e+01	-2.652637e+02
3.400000e-07	-4.301188e-06	-4.027944e-09	-4.558829e+01	-2.640228e+02
3.500000e-07	-4.239570e-06	-4.007051e-09	-4.493519e+01	-2.627513e+02
3.600000e-07	-4.176493e-06	-3.974802e-09	-4.426664e+01	-2.614489e+02
3.700000e-07	-4.111825e-06	-3.940493e-09	-4.358123e+01	-2.601132e+02
3.800000e-07	-4.045491e-06	-3.950028e-09	-4.287815e+01	-2.587403e+02
3.900000e-07	-3.977661e-06	-3.942735e-09	-4.215922e+01	-2.573252e+02
4.000000e-07	-3.908393e-06	-3.893401e-09	-4.142505e+01	-2.558626e+02
4.100000e-07	-3.837858e-06	-3.861829e-09	-4.067745e+01	-2.543469e+02
4.200000e-07	-3.766192e-06	-3.857521e-09	-3.991786e+01	-2.527734e+02
4.300000e-07	-3.693111e-06	-3.845323e-09	-3.914328e+01	-2.511380e+02
4.400000e-07	-3.618323e-06	-3.801348e-09	-3.835060e+01	-2.494377e+02
4.500000e-07	-3.542040e-06	-3.764878e-09	-3.754207e+01	-2.476705e+02
4.600000e-07	-3.464409e-06	-3.746564e-09	-3.671927e+01	-2.458352e+02
4.700000e-07	-3.385320e-06	-3.728208e-09	-3.588100e+01	-2.439308e+02
4.800000e-07	-3.304833e-06	-3.700720e-09	-3.502792e+01	-2.419563e+02
4.900000e-07	-3.223124e-06	-3.658201e-09	-3.416188e+01	-2.399104e+02
5.000000e-07	-3.140409e-06	-3.624152e-09	-3.328518e+01	-2.377909e+02
5.100000e-07	-3.056847e-06	-3.596454e-09	-3.239951e+01	-2.355946e+02
5.200000e-07	-2.972378e-06	-3.566537e-09	-3.150423e+01	-2.333173e+02
5.300000e-07	-2.886827e-06	-3.522415e-09	-3.059747e+01	-2.309535e+02
5.400000e-07	-2.800308e-06	-3.473284e-09	-2.968045e+01	-2.284974e+02
5.500000e-07	-2.712999e-06	-3.439267e-09	-2.875507e+01	-2.259424e+02
5.600000e-07	-2.624755e-06	-3.411248e-09	-2.781978e+01	-2.232821e+02
5.700000e-07	-2.535302e-06	-3.368849e-09	-2.687166e+01	-2.205102e+02
5.800000e-07	-2.444617e-06	-3.310892e-09	-2.591050e+01	-2.176211e+02
5.900000e-07	-2.353040e-06	-3.264586e-09	-2.493986e+01	-2.146098e+02
6.000000e-07	-2.260816e-06	-3.228894e-09	-2.396239e+01	-2.114718e+02
6.100000e-07	-2.167925e-06	-3.182389e-09	-2.297783e+01	-2.082032e+02
6.200000e-07	-2.074291e-06	-3.117424e-09	-2.198540e+01	-2.048001e+02
6.300000e-07	-1.979916e-06	-3.051736e-09	-2.098512e+01	-2.012581e+02
6.400000e-07	-1.884904e-06	-2.997871e-09	-1.997809e+01	-1.975719e+02
6.500000e-07	-1.789342e-06	-2.946265e-09	-1.896524e+01	-1.937346e+02
6.600000e-07	-1.693126e-06	-2.883438e-09	-1.794543e+01	-1.897374e+02
6.700000e-07	-1.596083e-06	-2.811556e-09	-1.691688e+01	-1.855693e+02
6.800000e-07	-1.498219e-06	-2.743142e-09	-1.587962e+01	-1.812161e+02
6.900000e-07	-1.399728e-06	-2.678874e-09	-1.483571e+01	-1.766615e+02
7.000000e-07	-1.300798e-06	-2.611826e-09	-1.378716e+01	-1.718857e+02
7.100000e-07	-1.201449e-06	-2.531401e-09	-1.273415e+01	-1.668666e+02
7.200000e-07	-1.101731e-06	-2.442644e-09	-1.167724e+01	-1.615795e+02
7.300000e-07	-1.001752e-06	-2.359662e-09	-1.061756e+01	-1.559970e+02
7.400000e-07	-9.014949e-07	-2.276834e-09	-9.554942e+00	-1.500902e+02
7.500000e-07	-8.009057e-07	-2.179482e-09	-8.488798e+00	-1.438282e+02
7.600000e-07	-7.000057e-07	-2.069708e-09	-7.419359e+00	-1.371790e+02
7.700000e-07	-5.988518e-07	-1.959654e-09	-6.347229e+00	-1.301101e+02
7.800000e-07	-4.974735e-07	-1.848885e-09	-5.272721e+00	-1.225894e+02
7.900000e-07	-3.958707e-07	-1.728609e-09	-4.195833e+00	-1.145860e+02
8.000000e-07	-2.941387e-07	-1.597464e-09	-3.117575e+00	-1.060718e+02
8.100000e-07	-1.923602e-07	-1.459741e-09	-2.038826e+00	-9.702287e+01
8.200000e-07	-9.052428e-08	-1.313925e-09	-9.594666e-01	-8.742156e+01
8.300000e-07	1.137706e-08	-1.156931e-09	1.205854e-01	-7.725836e+01
8.400000e-07	1.133016e-07	-9.898657e-10	1.200883e+00	-6.653403e+01
8.500000e-07	2.151791e-07	-8.167814e-10	2.280683e+00	-5.526157e+01
8.600000e-07	3.170493e-07	-6.391088e-10	3.360405e+00	-4.346788e+01
8.700000e-07	4.187982e-07	-4.529120e-10	4.438841e+00	-3.119492e+01
8.800000e-07	5.202814e-07	-2.602415e-10	5.514461e+00	-1.850025e+01
8.900000e-07	6.215674e-07	-6.279739e-11	6.587991e+00	-5.456705e+00
9.000000e-07	7.226827e-07	1.386216e-10	7.659712e+00	7.848842e+00
9.100000e-07	8.235502e-07	3.446089e-10	8.728806e+00	2.131763e+01
9.200000e-07	9.241228e-07	5.515647e-10	9.794776e+00	3.484205e+01
9.300000e-07	1.024385e-06	7.565783e-10	1.085745e+01	4.830938e+01
9.400000e-07	1.124295e-06	9.598495e-10	1.191640e+01	6.160604e+01
9.500000e-07	1.223845e-06	1.158185e-09	1.297153e+01	7.462213e+01
9.600000e-07	1.323001e-06	1.351147e-09	1.402249e+01	8.725577e+01
9.700000e-07	1.421769e-06	1.535397e-09	1.506933e+01	9.941717e+01
9.800000e-07	1.520113e-06	1.711216e-09	1.611168e+01	1.110319e+02
9.900000e-07	1.617772e-06	1.877253e-09	1.714676e+01	1.220433e+02
1.000000e-06	1.714529e-06	2.034130e-09	1.817229e+01	1.324139e+02
1.010000e-06	1.810414e-06	2.183747e-09	1.918857e+01	1.421253e+02
1.020000e-06	1.905656e-06	2.323543e-09	2.019804e+01	1.511773e+02
1.030000e-06	2.000355e-06	2.452147e-09	2.120176e+01	1.595862e+02
1.040000e-06	2.094411e-06	2.569926e-09	2.219866e+01	1.673816e+02
1.050000e-06	2.187757e-06	2.678070e-09	2.318804e+01	1.746030e+02
1.060000e-06	2.280358e-06	2.778067e-09	2.416951e+01	1.812969e+02
1.070000e-06	2.372248e-06	2.870785e-09	2.514345e+01	1.875124e+02
1.080000e-06	2.463494e-06	2.954433e-09	2.611057e+01	1.932987e+02
1.090000e-06	2.553970e-06	3.035170e-09	2.706952e+01	1.987019e+02
1.100000e-06	2.643297e-06	3.113506e-09	2.801630e+01	2.037634e+02
1.110000e-06	2.731324e-06	3.186461e-09	2.894929e+01	2.085186e+02
1.120000e-06	2.818392e-06	3.254914e-09	2.987213e+01	2.129964e+02
1.130000e-06	2.904625e-06	3.319390e-09	3.078612e+01	2.172193e+02
1.140000e-06	2.989920e-06	3.379838e-09	3.169016e+01	2.212043e+02
1.150000e-06	3.074245e-06	3.435627e-09	3.258392e+01	2.249642e+02
1.160000e-06	3.157649e-06	3.488612e-09	3.346791e+01	2.285087e+02
1.170000e-06	3.240128e-06	3.537607e-09	3.434211e+01	2.318458e+02
1.180000e-06	3.321317e-06	3.581972e-09	3.520264e+01	2.349830e+02
1.190000e-06	3.401185e-06	3.623660e-09	3.604915e+01	2.379283e+02
1.200000e-06	3.479897e-06	3.663912e-09	3.688342e+01	2.406909e+02
1.210000e-06	3.557347e-06	3.702904e-09	3.770432e+01	2.432813e+02
1.220000e-06	3.633531e-06	3.738337e-09	3.851179e+01	2.457113e+02
1.230000e-06	3.708423e-06	3.771858e-09	3.930556e+01	2.479938e+02
1.240000e-06	3.781678e-06	3.805030e-09	4.008200e+01	2.501421e+02
1.250000e-06	3.853294e-06	3.835962e-09	4.084106e+01	2.521696e+02
1.260000e-06	3.923622e-06	3.864247e-09	4.158646e+01	2.540891e+02
1.270000e-06	3.992655e-06	3.889722e-09	4.231815e+01	2.559119e+02
1.280000e-06	4.060367e-06	3.912823e-09	4.303583e+01	2.576481e+02
1.290000e-06	4.126698e-06	3.937346e-09	4.373887e+01	2.593059e+02
1.300000e-06	4.191362e-06	3.963775e-09	4.442424e+01	2.608916e+02
1.310000e-06	4.254487e-06	3.987391e-09	4.509330e+01	2.624098e+02
1.320000e-06	4.316257e-06	4.008341e-09	4.574800e+01	2.638634e+02
1.330000e-06	4.376581e-06	4.029697e-09	4.638737e+01	2.652542e+02
1.340000e-06	4.435552e-06	4.051387e-09	4.701240e+01	2.665831e+02
1.350000e-06	4.492899e-06	4.070234e-09	4.762023e+01	2.678505e+02
1.360000e-06	4.548413e-06	4.086259e-09	4.820862e+01	2.690563e+02
1.370000e-06	4.602336e-06	4.101895e-09	4.878015e+01	2.702007e+02
1.380000e-06	4.654623e-06	4.118922e-09	4.933434e+01	2.712842e+02
1.390000e-06	4.704874e-06	4.135151e-09	4.986695e+01	2.723076e+02
1.400000e-06	4.753030e-06	4.149393e-09	5.037735e+01	2.732722e+02
1.410000e-06	4.799452e-06	4.163881e-09	5.086938e+01	2.741796e+02
1.420000e-06	4.844300e-06	4.180147e-09	5.134472e+01	2.750323e+02
1.430000e-06	4.887617e-06	4.194213e-09	5.180384e+01	2.758326e+02
1.440000e-06	4.929116e-06	4.205047e-09	5.224369e+01	2.765837e+02
1.450000e-06	4.968705e-06	4.216374e-09	5.266329e+01	2.772884e+02
1.460000e-06	5.006634e-06	4.227450e-09	5.306530e+01	2.779497e+02
1.470000e-06	5.042962e-06	4.236708e-09	5.345034e+01	2.785706e+02
1.480000e-06	5.077625e-06	4.245399e-09	5.381774e+01	2.791538e+02
1.490000e-06	5.110315e-06	4.255087e-09	5.416421e+01	2.797015e+02
1.500000e-06	5.141119e-06	4.263537e-09	5.449071e+01	2.802158e+02
1.510000e-06	5.170286e-06	4.271825e-09	5.479985e+01	2.806980e+02
1.520000e-06	5.197769e-06	4.280741e-09	5.509114e+01	2.811493e+02
1.530000e-06	5.223259e-06	4.286983e-09	5.536131e+01	2.815702e+02
1.540000e-06	5.246666e-06	4.292009e-09	5.560940e+01	2.819610e+02
1.550000e-06	5.268298e-06	4.298214e-09	5.583868e+01	2.823218e+02
1.560000e-06	5.288274e-06	4.306072e-09	5.605041e+01	2.826523e+02
1.570000e-06	5.306456e-06	4.311107e-09	5.624312e+01	2.829524e+02
1.580000e-06	5.322635e-06	4.314062e-09	5.641460e+01	2.832219e+02
1.590000e-06	5.336910e-06	4.318408e-09	5.656590e+01	2.834606e+02
1.600000e-06	5.349330e-06	4.323459e-09	5.669754e+01	2.836684e+02
1.610000e-06	5.359649e-06	4.327233e-09	5.680691e+01	2.838452e+02
1.620000e-06	5.367808e-06	4.329283e-09	5.689339e+01	2.839908e+02
1.630000e-06	5.373998e-06	4.331240e-09	5.695899e+01	2.841050e+02
1.640000e-06	5.378415e-06	4.333482e-09	5.700581e+01	2.841872e+02
1.650000e-06	5.381090e-06	4.334834e-09	5.703416e+01	2.842366e+02
1.660000e-06	5.381782e-06	4.335441e-09	5.704150e+01	2.842519e+02
1.670000e-06	5.380520e-06	4.333775e-09	5.702812e+01	2.842319e+02
1.680000e-06	5.377609e-06	4.332249e-09	5.699726e+01	2.841751e+02
1.690000e-06	5.373117e-06	4.331545e-09	5.694966e+01	2.840799e+02
1.700000e-06	5.366742e-06	4.330109e-09	5.688209e+01	2.839452e+02
1.710000e-06	5.358476e-06	4.328292e-09	5.679447e+01	2.837707e+02
1.720000e-06	5.348605e-06	4.326316e-09	5.668986e+01	2.835565e+02
1.730000e-06	5.337123e-06	4.329678e-09	5.656815e+01	2.833040e+02
1.740000e-06	5.323801e-06	4.320876e-09	5.642696e+01	2.830157e+02
1.750000e-06	5.308363e-06	4.271377e-09	5.626332e+01	2.826952e+02
1.760000e-06	5.290552e-06	4.252621e-09	5.607455e+01	2.823469e+02
1.770000e-06	5.270161e-06	4.263324e-09	5.585842e+01	2.819758e+02
1.780000e-06	5.247335e-06	4.297264e-09	5.561649e+01	2.815868e+02
1.790000e-06	5.223035e-06	4.363539e-09	5.535894e+01	2.811846e+02
1.800000e-06	5.198067e-06	4.289717e-09	5.509430e+01	2.807727e+02
1.810000e-06	5.171806e-06	4.234520e-09	5.481596e+01	2.803531e+02
1.820000e-06	5.143409e-06	4.293618e-09	5.451498e+01	2.799258e+02
1.830000e-06	5.113217e-06	4.253153e-09	5.419498e+01	2.794888e+02
1.840000e-06	5.081400e-06	4.281240e-09	5.385774e+01	2.790376e+02
1.850000e-06	5.047452e-06	4.303140e-09	5.349794e+01	2.785661e+02
1.860000e-06	5.011754e-06	4.196750e-09	5.311957e+01	2.780664e+02
1.870000e-06	4.974471e-06	4.246275e-09	5.272441e+01	2.775299e+02
1.880000e-06	4.935306e-06	4.274620e-09	5.230930e+01	2.769478e+02
1.890000e-06	4.894433e-06	4.197732e-09	5.187609e+01	2.763120e+02
1.900000e-06	4.851736e-06	4.197423e-09	5.142355e+01	2.756158e+02
1.910000e-06	4.807509e-06	4.158328e-09	5.095477e+01	2.748544e+02
1.920000e-06	4.761822e-06	4.184682e-09	5.047054e+01	2.740255e+02
1.930000e-06	4.714090e-06	4.201923e-09	4.996463e+01	2.731293e+02
1.940000e-06	4.664567e-06	4.113280e-09	4.943974e+01	2.721682e+02
1.950000e-06	4.613497e-06	4.130897e-09	4.889845e+01	2.711467e+02
1.960000e-06	4.560604e-06	4.121305e-09	4.833783e+01	2.700707e+02
1.970000e-06	4.505656e-06	4.099610e-09	4.775544e+01	2.689465e+02
1.980000e-06	4.448927e-06	4.095864e-09	4.715416e+01	2.677803e+02
1.990000e-06	4.390730e-06	4.048640e-09	4.653734e+01	2.665777e+02
2.000000e-06	4.330989e-06	4.041309e-09	4.590415e+01	2.653424e+02
2.010000e-06	4.269872e-06	4.021490e-09	4.525636e+01	2.640763e+02
2.020000e-06	4.207204e-06	4.034475e-09	4.459215e+01	2.627796e+02
2.030000e-06	4.142721e-06	3.988769e-09	4.390870e+01	2.614500e+02
2.040000e-06	4.076706e-06	3.928190e-09	4.320900e+01	2.600841e+02
2.050000e-06	4.009399e-06	3.964098e-09	4.249562e+01	2.586770e+02
2.060000e-06	3.940845e-06	3.944300e-09	4.176901e+01	2.572232e+02
2.070000e-06	3.870652e-06	3.904504e-09	4.102503e+01	2.557174e+02
2.080000e-06	3.798804e-06	3.852948e-09	4.026351e+01	2.541545e+02
2.090000e-06	3.725717e-06	3.835074e-09	3.948886e+01	2.525304e+02
2.100000e-06	3.651289e-06	3.839087e-09	3.870000e+01	2.508418e+02
2.110000e-06	3.575426e-06	3.794142e-09	3.789594e+01	2.490867e+02
2.120000e-06	3.498003e-06	3.760851e-09	3.707533e+01	2.472636e+02
2.130000e-06	3.419065e-06	3.721016e-09	3.623866e+01	2.453716e+02
2.140000e-06	3.338870e-06	3.703987e-09	3.538868e+01	2.434097e+02
2.150000e-06	3.257575e-06	3.686577e-09	3.452703e+01	2.413767e+02
2.160000e-06	3.175211e-06	3.653407e-09	3.365405e+01	2.392706e+02
2.170000e-06	3.091754e-06	3.612342e-09	3.276949e+01	2.370883e+02
2.180000e-06	3.007358e-06	3.566378e-09	3.187498e+01	2.348257e+02
2.190000e-06	2.921852e-06	3.548351e-09	3.096870e+01	2.324778e+02
2.200000e-06	2.835101e-06	3.515130e-09	3.004923e+01	2.300386e+02
2.210000e-06	2.747272e-06	3.463811e-09	2.911833e+01	2.275018e+02
2.220000e-06	2.658481e-06	3.413798e-09	2.817724e+01	2.248607e+02
2.230000e-06	2.568860e-06	3.383210e-09	2.722734e+01	2.221092e+02
2.240000e-06	2.478342e-06	3.352154e-09	2.626795e+01	2.192414e+02
2.250000e-06	2.387010e-06	3.298038e-09	2.529992e+01	2.162522e+02
2.260000e-06	2.295069e-06	3.244217e-09	2.432543e+01	2.131372e+02
2.270000e-06	2.202521e-06	3.197456e-09	2.334452e+01	2.098922e+02
2.280000e-06	2.109084e-06	3.156834e-09	2.235418e+01	2.065134e+02
2.290000e-06	2.014575e-06	3.106155e-09	2.135248e+01	2.029965e+02
2.300000e-06	1.919237e-06	3.046065e-09	2.034199e+01	1.993365e+02
2.310000e-06	1.823209e-06	2.985228e-09	1.932419e+01	1.955268e+02
2.320000e-06	1.726589e-06	2.926475e-09	1.830011e+01	1.915589e+02
2.330000e-06	1.629459e-06	2.869664e-09	1.727063e+01	1.874222e+02
2.340000e-06	1.531818e-06	2.805692e-09	1.623574e+01	1.831032e+02
2.350000e-06	1.433584e-06	2.733475e-09	1.519456e+01	1.785859e+02
2.360000e-06	1.334798e-06	2.661204e-09	1.414753e+01	1.738512e+02
2.370000e-06	1.235660e-06	2.592255e-09	1.309675e+01	1.688773e+02
2.380000e-06	1.136186e-06	2.513142e-09	1.204243e+01	1.636399e+02
2.390000e-06	1.036403e-06	2.421995e-09	1.098483e+01	1.581123e+02
2.400000e-06	9.363899e-07	2.329741e-09	9.924795e+00	1.522656e+02
2.410000e-06	8.361205e-07	2.239399e-09	8.862040e+00	1.460693e+02
2.420000e-06	7.356433e-07	2.142869e-09	7.797082e+00	1.394916e+02
2.430000e-06	6.349577e-07	2.036332e-09	6.729915e+00	1.325001e+02
2.440000e-06	5.339709e-07	1.924139e-09	5.659556e+00	1.250624e+02
2.450000e-06	4.326905e-07	1.805313e-09	4.586085e+00	1.171473e+02
2.460000e-06	3.312120e-07	1.677407e-09	3.510515e+00	1.087262e+02
2.470000e-06	2.295733e-07	1.539979e-09	2.433247e+00	9.977425e+01
2.480000e-06	1.277336e-07	1.395412e-09	1.353848e+00	9.027253e+01
2.490000e-06	2.580994e-08	1.243379e-09	2.735595e-01	8.020993e+01
2.500000e-06	-7.603713e-08	1.082011e-09	-8.059174e-01	6.958522e+01
2.510000e-06	-1.777737e-07	9.093668e-10	-1.884223e+00	5.840908e+01
2.520000e-06	-2.792902e-07	7.279990e-10	-2.960196e+00	4.670582e+01
2.530000e-06	-3.805592e-07	5.417143e-10	-4.033547e+00	3.451467e+01
2.540000e-06	-4.817211e-07	3.485421e-10	-5.105761e+00	2.189038e+01
2.550000e-06	-5.827313e-07	1.483857e-10	-6.176368e+00	8.903143e+00
2.560000e-06	-6.834639e-07	-5.450794e-11	-7.244032e+00	-4.362562e+00
2.570000e-06	-7.839291e-07	-2.586186e-10	-8.308863e+00	-1.780989e+01
2.580000e-06	-8.841298e-07	-4.632030e-10	-9.370890e+00	-3.133256e+01
2.590000e-06	-9.840560e-07	-6.689188e-10	-1.043001e+01	-4.481845e+01
2.600000e-06	-1.083754e-06	-8.758396e-10	-1.148670e+01	-5.815383e+01
2.610000e-06	-1.183179e-06	-1.077356e-09	-1.254051e+01	-7.122778e+01
2.620000e-06	-1.282258e-06	-1.268014e-09	-1.359065e+01	-8.393671e+01
2.630000e-06	-1.380867e-06	-1.451050e-09	-1.463580e+01	-9.618838e+01
2.640000e-06	-1.478936e-06	-1.632137e-09	-1.567524e+01	-1.079054e+02
2.650000e-06	-1.576479e-06	-1.806595e-09	-1.670910e+01	-1.190279e+02
2.660000e-06	-1.673475e-06	-1.966547e-09	-1.773716e+01	-1.295148e+02
2.670000e-06	-1.770002e-06	-2.114229e-09	-1.876025e+01	-1.393444e+02
2.680000e-06	-1.866094e-06	-2.255235e-09	-1.977873e+01	-1.485135e+02
2.690000e-06	-1.961677e-06	-2.389098e-09	-2.079181e+01	-1.570354e+02
2.700000e-06	-2.056459e-06	-2.512660e-09	-2.179641e+01	-1.649376e+02
2.710000e-06	-2.150122e-06	-2.624524e-09	-2.278914e+01	-1.722583e+02
2.720000e-06	-2.242768e-06	-2.726113e-09	-2.377110e+01	-1.790428e+02
2.730000e-06	-2.334704e-06	-2.822360e-09	-2.474552e+01	-1.853401e+02
2.740000e-06	-2.425914e-06	-2.915232e-09	-2.571225e+01	-1.911996e+02
2.750000e-06	-2.516252e-06	-3.000554e-09	-2.666975e+01	-1.966680e+02
2.760000e-06	-2.605645e-06	-3.076883e-09	-2.761722e+01	-2.017878e+02
2.770000e-06	-2.694143e-06	-3.149030e-09	-2.855522e+01	-2.065954e+02
2.780000e-06	-2.781915e-06	-3.220593e-09	-2.948551e+01	-2.111209e+02
2.790000e-06	-2.868726e-06	-3.288341e-09	-3.040562e+01	-2.153879e+02
2.800000e-06	-2.954248e-06	-3.350517e-09	-3.131207e+01	-2.194144e+02
2.810000e-06	-3.038607e-06	-3.409662e-09	-3.220619e+01	-2.232137e+02
2.820000e-06	-3.122028e-06	-3.466659e-09	-3.309037e+01	-2.267960e+02
2.830000e-06	-3.204450e-06	-3.520020e-09	-3.396396e+01	-2.301696e+02
2.840000e-06	-3.285788e-06	-3.569858e-09	-3.482606e+01	-2.333419e+02
2.850000e-06	-3.366117e-06	-3.616149e-09	-3.567747e+01	-2.363209e+02
2.860000e-06	-3.445224e-06	-3.659842e-09	-3.651592e+01	-2.391154e+02
2.870000e-06	-3.522774e-06	-3.701686e-09	-3.733788e+01	-2.417358e+02
2.880000e-06	-3.598885e-06	-3.740653e-09	-3.814457e+01	-2.441935e+02
2.890000e-06	-3.673617e-06	-3.777050e-09	-3.893666e+01	-2.465013e+02
2.900000e-06	-3.746982e-06	-3.811068e-09	-3.971425e+01	-2.486726e+02
2.910000e-06	-3.819152e-06	-3.841798e-09	-4.047919e+01	-2.507208e+02
2.920000e-06	-3.889875e-06	-3.870582e-09	-4.122878e+01	-2.526586e+02
2.930000e-06	-3.958936e-06	-3.899260e-09	-4.196076e+01	-2.544979e+02
2.940000e-06	-4.026605e-06	-3.927268e-09	-4.267798e+01	-2.562490e+02
