# Temperatura_=_20.0
# Concentracion g/m^3_=_9000.0
# C_Vs_to_Am_M_A/Vsm_=_65563218390.804596
# pendiente_HvsI_1/m_=_3716.3
# ordenada_HvsI_A/m_=_1297.0
# frecuencia_Hz_=_300885.35385849694

Tiempo_(s)	Campo_(V.s)	Magnetizacion_(V.s)	Campo_(kA/m)	Magnetizacion_(A/m)
0.000000e+00	-5.353659e-06	-2.304976e-11	-5.679244e+01	-9.713853e-01
1.000000e-08	-5.352451e-06	-2.507962e-11	-5.677963e+01	-9.630907e-01
2.000000e-08	-5.349329e-06	-2.406566e-11	-5.674650e+01	-9.287763e-01
3.000000e-08	-5.344503e-06	-2.195053e-11	-5.669532e+01	-8.672822e-01
4.000000e-08	-5.338079e-06	-2.028744e-11	-5.662717e+01	-7.814699e-01
5.000000e-08	-5.329967e-06	-1.786221e-11	-5.654111e+01	-6.784107e-01
6.000000e-08	-5.319874e-06	-1.344992e-11	-5.643404e+01	-5.689759e-01
7.000000e-08	-5.307863e-06	-7.308818e-12	-5.630663e+01	-4.668297e-01
8.000000e-08	-5.293907e-06	-7.546197e-12	-5.615858e+01	-3.869187e-01
9.000000e-08	-5.277758e-06	-3.411849e-11	-5.598727e+01	-3.436264e-01
1.000000e-07	-5.259521e-06	-3.415904e-11	-5.579381e+01	-3.488228e-01
1.100000e-07	-5.239396e-06	-1.778528e-11	-5.558032e+01	-4.100677e-01
1.200000e-07	-5.217383e-06	-2.139900e-11	-5.534681e+01	-5.292204e-01
1.300000e-07	-5.193654e-06	1.079965e-11	-5.509508e+01	-7.016685e-01
1.400000e-07	-5.168308e-06	1.692760e-11	-5.482621e+01	-9.163148e-01
1.500000e-07	-5.141371e-06	-4.199519e-11	-5.454045e+01	-1.156365e+00
1.600000e-07	-5.112913e-06	8.824495e-13	-5.423857e+01	-1.400861e+00
1.700000e-07	-5.082911e-06	-2.042963e-11	-5.392031e+01	-1.626788e+00
1.800000e-07	-5.051189e-06	-5.256473e-11	-5.358379e+01	-1.811529e+00
1.900000e-07	-5.017395e-06	3.963936e-11	-5.322530e+01	-1.935361e+00
2.000000e-07	-4.982017e-06	8.138885e-12	-5.285001e+01	-1.983684e+00
2.100000e-07	-4.945176e-06	-3.798094e-11	-5.245919e+01	-1.948714e+00
2.200000e-07	-4.906480e-06	-1.101150e-11	-5.204870e+01	-1.830413e+00
2.300000e-07	-4.865898e-06	4.887922e-12	-5.161820e+01	-1.636535e+00
2.400000e-07	-4.823389e-06	4.483714e-11	-5.116725e+01	-1.381784e+00
2.500000e-07	-4.779152e-06	2.348129e-11	-5.069799e+01	-1.086178e+00
2.600000e-07	-4.733217e-06	-5.123520e-11	-5.021070e+01	-7.728237e-01
2.700000e-07	-4.685270e-06	-2.002751e-11	-4.970206e+01	-4.653753e-01
2.800000e-07	-4.635230e-06	2.709138e-11	-4.917123e+01	-1.854975e-01
2.900000e-07	-4.583339e-06	5.257860e-11	-4.862077e+01	4.936782e-02
3.000000e-07	-4.529706e-06	-6.499320e-12	-4.805181e+01	2.276604e-01
3.100000e-07	-4.474518e-06	-7.489888e-11	-4.746638e+01	3.446003e-01
3.200000e-07	-4.417707e-06	-1.114020e-11	-4.686371e+01	4.022421e-01
3.300000e-07	-4.359121e-06	6.485227e-11	-4.624223e+01	4.087103e-01
3.400000e-07	-4.299020e-06	4.087637e-11	-4.560467e+01	3.767445e-01
3.500000e-07	-4.237498e-06	-4.996650e-11	-4.495203e+01	3.217709e-01
3.600000e-07	-4.174570e-06	-3.775541e-11	-4.428448e+01	2.597684e-01
3.700000e-07	-4.110074e-06	4.376968e-11	-4.360030e+01	2.052136e-01
3.800000e-07	-4.043864e-06	5.365264e-11	-4.289794e+01	1.693674e-01
3.900000e-07	-3.976115e-06	3.105654e-13	-4.217924e+01	1.591086e-01
4.000000e-07	-3.907001e-06	-4.219080e-11	-4.144607e+01	1.764368e-01
4.100000e-07	-3.836684e-06	-2.768621e-12	-4.070014e+01	2.186700e-01
4.200000e-07	-3.765199e-06	5.641124e-11	-3.994181e+01	2.792685e-01
4.300000e-07	-3.692265e-06	3.804702e-11	-3.916811e+01	3.491314e-01
4.400000e-07	-3.617606e-06	-1.750531e-11	-3.837612e+01	4.181580e-01
4.500000e-07	-3.541391e-06	-2.553494e-11	-3.756762e+01	4.768373e-01
4.600000e-07	-3.463901e-06	2.407367e-11	-3.674560e+01	5.176405e-01
4.700000e-07	-3.384970e-06	4.839185e-11	-3.590828e+01	5.360294e-01
4.800000e-07	-3.304634e-06	4.438637e-12	-3.505607e+01	5.309602e-01
4.900000e-07	-3.223132e-06	-3.329452e-11	-3.419148e+01	5.048401e-01
5.000000e-07	-3.140493e-06	-5.374607e-12	-3.331483e+01	4.629761e-01
5.100000e-07	-3.056941e-06	4.842878e-11	-3.242850e+01	4.126278e-01
5.200000e-07	-2.972517e-06	2.998412e-11	-3.153292e+01	3.618262e-01
5.300000e-07	-2.887070e-06	-1.686665e-11	-3.062649e+01	3.181482e-01
5.400000e-07	-2.800692e-06	2.562234e-13	-2.971017e+01	2.876315e-01
5.500000e-07	-2.713518e-06	3.889058e-11	-2.878542e+01	2.739835e-01
5.600000e-07	-2.625422e-06	3.000929e-11	-2.785088e+01	2.781868e-01
5.700000e-07	-2.536153e-06	-3.967438e-12	-2.690390e+01	2.985372e-01
5.800000e-07	-2.445735e-06	-4.946164e-12	-2.594473e+01	3.310839e-01
5.900000e-07	-2.354460e-06	9.769796e-12	-2.497648e+01	3.703808e-01
6.000000e-07	-2.262495e-06	1.906292e-11	-2.400090e+01	4.104172e-01
6.100000e-07	-2.169818e-06	7.872348e-12	-2.301777e+01	4.455726e-01
6.200000e-07	-2.076358e-06	-9.475722e-12	-2.202633e+01	4.714495e-01
6.300000e-07	-1.982114e-06	1.864193e-12	-2.102658e+01	4.854589e-01
6.400000e-07	-1.887256e-06	2.860401e-11	-2.002030e+01	4.870854e-01
6.500000e-07	-1.791902e-06	2.819646e-11	-1.900878e+01	4.778081e-01
6.600000e-07	-1.695926e-06	2.694656e-12	-1.799064e+01	4.607112e-01
6.700000e-07	-1.599053e-06	3.828773e-12	-1.696300e+01	4.398687e-01
6.800000e-07	-1.501289e-06	2.803490e-11	-1.592591e+01	4.196138e-01
6.900000e-07	-1.402912e-06	3.185842e-11	-1.488231e+01	4.038242e-01
7.000000e-07	-1.304069e-06	9.214445e-12	-1.383376e+01	3.953388e-01
7.100000e-07	-1.204801e-06	1.430490e-12	-1.278071e+01	3.955981e-01
7.200000e-07	-1.105186e-06	1.964036e-11	-1.172398e+01	4.045574e-01
7.300000e-07	-1.005277e-06	2.902150e-11	-1.066413e+01	4.208733e-01
7.400000e-07	-9.051077e-07	1.452823e-11	-9.601522e+00	4.423173e-01
7.500000e-07	-8.046288e-07	-1.328267e-12	-8.535627e+00	4.663328e-01
7.600000e-07	-7.037926e-07	5.644686e-12	-7.465940e+00	4.906285e-01
7.700000e-07	-6.026758e-07	2.020200e-11	-6.393278e+00	5.136970e-01
7.800000e-07	-5.013560e-07	1.871475e-11	-5.318462e+00	5.351637e-01
7.900000e-07	-3.998782e-07	5.040683e-12	-4.241970e+00	5.559001e-01
8.000000e-07	-2.983279e-07	2.201399e-12	-3.164708e+00	5.778787e-01
8.100000e-07	-1.966451e-07	1.436213e-11	-2.086042e+00	6.037932e-01
8.200000e-07	-9.473510e-08	2.396416e-11	-1.004965e+00	6.365069e-01
8.300000e-07	7.199051e-09	2.002213e-11	7.636864e-02	6.784262e-01
8.400000e-07	1.090304e-07	1.210413e-11	1.156611e+00	7.309076e-01
8.500000e-07	2.108735e-07	1.621161e-11	2.236978e+00	7.938073e-01
8.600000e-07	3.126801e-07	2.561592e-11	3.316959e+00	8.652556e-01
8.700000e-07	4.142733e-07	2.325618e-11	4.394675e+00	9.417095e-01
8.800000e-07	5.156663e-07	9.836858e-12	5.470268e+00	1.018285e+00
8.900000e-07	6.169440e-07	8.415329e-12	6.544637e+00	1.089330e+00
9.000000e-07	7.180204e-07	1.970428e-11	7.616871e+00	1.149161e+00
9.100000e-07	8.188329e-07	2.420050e-11	8.686305e+00	1.192845e+00
9.200000e-07	9.193209e-07	1.707196e-11	9.752298e+00	1.216919e+00
9.300000e-07	1.019427e-06	1.206518e-11	1.081424e+01	1.219931e+00
9.400000e-07	1.119269e-06	1.769542e-11	1.187337e+01	1.202715e+00
9.500000e-07	1.218840e-06	2.304672e-11	1.292964e+01	1.168358e+00
9.600000e-07	1.318069e-06	2.128125e-11	1.398228e+01	1.121857e+00
9.700000e-07	1.416809e-06	1.553807e-11	1.502973e+01	1.069504e+00
9.800000e-07	1.514948e-06	1.470447e-11	1.607080e+01	1.018106e+00
9.900000e-07	1.612434e-06	1.857346e-11	1.710495e+01	9.741207e-01
1.000000e-06	1.709194e-06	1.953803e-11	1.813139e+01	9.428634e-01
1.010000e-06	1.805163e-06	1.481071e-11	1.914945e+01	9.278674e-01
1.020000e-06	1.900410e-06	1.130306e-11	2.015984e+01	9.305043e-01
1.030000e-06	1.995141e-06	1.509114e-11	2.116477e+01	9.499017e-01
1.040000e-06	2.089236e-06	1.991206e-11	2.216294e+01	9.831637e-01
1.050000e-06	2.182501e-06	1.927000e-11	2.315231e+01	1.025852e+00
1.060000e-06	2.275055e-06	1.472865e-11	2.413413e+01	1.072648e+00
1.070000e-06	2.366978e-06	1.375588e-11	2.510927e+01	1.118091e+00
1.080000e-06	2.458156e-06	1.479482e-11	2.607650e+01	1.157286e+00
1.090000e-06	2.548441e-06	1.564094e-11	2.703426e+01	1.186474e+00
1.100000e-06	2.637716e-06	1.563466e-11	2.798130e+01	1.203393e+00
1.110000e-06	2.725876e-06	1.656348e-11	2.891652e+01	1.207389e+00
1.120000e-06	2.812952e-06	1.998793e-11	2.984022e+01	1.199274e+00
1.130000e-06	2.899142e-06	2.210015e-11	3.075454e+01	1.180986e+00
1.140000e-06	2.984459e-06	2.217078e-11	3.165960e+01	1.155095e+00
1.150000e-06	3.068897e-06	1.960593e-11	3.255533e+01	1.124286e+00
1.160000e-06	3.152430e-06	1.881232e-11	3.344146e+01	1.090866e+00
1.170000e-06	3.234867e-06	1.948535e-11	3.431597e+01	1.056423e+00
1.180000e-06	3.316111e-06	1.770592e-11	3.517781e+01	1.021650e+00
1.190000e-06	3.396100e-06	1.488847e-11	3.602636e+01	9.863834e-01
1.200000e-06	3.474880e-06	1.422245e-11	3.686207e+01	9.498294e-01
1.210000e-06	3.552447e-06	1.476428e-11	3.768491e+01	9.109202e-01
1.220000e-06	3.628717e-06	1.547008e-11	3.849399e+01	8.687390e-01
1.230000e-06	3.703590e-06	1.501685e-11	3.928825e+01	8.229194e-01
1.240000e-06	3.776966e-06	1.272806e-11	4.006664e+01	7.739430e-01
1.250000e-06	3.848835e-06	1.167853e-11	4.082903e+01	7.232713e-01
1.260000e-06	3.919242e-06	1.177167e-11	4.157592e+01	6.732805e-01
1.270000e-06	3.988276e-06	1.031277e-11	4.230824e+01	6.270033e-01
1.280000e-06	4.055979e-06	6.934805e-12	4.302645e+01	5.877155e-01
1.290000e-06	4.122285e-06	7.202517e-12	4.372984e+01	5.584364e-01
1.300000e-06	4.187006e-06	1.007109e-11	4.441641e+01	5.414284e-01
1.310000e-06	4.250144e-06	1.003341e-11	4.508618e+01	5.377840e-01
1.320000e-06	4.311851e-06	8.092642e-12	4.574078e+01	5.471764e-01
1.330000e-06	4.372207e-06	8.261761e-12	4.638104e+01	5.678246e-01
1.340000e-06	4.431231e-06	9.923485e-12	4.700718e+01	5.966862e-01
1.350000e-06	4.488641e-06	9.333772e-12	4.761619e+01	6.298575e-01
1.360000e-06	4.544228e-06	6.377265e-12	4.820587e+01	6.631185e-01
1.370000e-06	4.598155e-06	5.037230e-12	4.877794e+01	6.925399e-01
1.380000e-06	4.650431e-06	6.437242e-12	4.933249e+01	7.150535e-01
1.390000e-06	4.700741e-06	7.325686e-12	4.986619e+01	7.288918e-01
1.400000e-06	4.748936e-06	6.661272e-12	5.037744e+01	7.338223e-01
1.410000e-06	4.795291e-06	6.596902e-12	5.086918e+01	7.311359e-01
1.420000e-06	4.840073e-06	8.258354e-12	5.134424e+01	7.233857e-01
1.430000e-06	4.883287e-06	8.680957e-12	5.180266e+01	7.139201e-01
1.440000e-06	4.924713e-06	7.745611e-12	5.224212e+01	7.062831e-01
1.450000e-06	4.964269e-06	6.782352e-12	5.266173e+01	7.035831e-01
1.460000e-06	5.002126e-06	5.912466e-12	5.306332e+01	7.079382e-01
1.470000e-06	5.038435e-06	5.330294e-12	5.344849e+01	7.200929e-01
1.480000e-06	5.073025e-06	5.821347e-12	5.381543e+01	7.392777e-01
1.490000e-06	5.105624e-06	6.939190e-12	5.416125e+01	7.633398e-01
1.500000e-06	5.136397e-06	6.239557e-12	5.448769e+01	7.891280e-01
1.510000e-06	5.165558e-06	4.624356e-12	5.479703e+01	8.130721e-01
1.520000e-06	5.193038e-06	4.198608e-12	5.508854e+01	8.318563e-01
1.530000e-06	5.218548e-06	4.318047e-12	5.535917e+01	8.430724e-01
1.540000e-06	5.241995e-06	3.164825e-12	5.560789e+01	8.457290e-01
1.550000e-06	5.263625e-06	3.155310e-12	5.583734e+01	8.405215e-01
1.560000e-06	5.283595e-06	5.469747e-12	5.604919e+01	8.297955e-01
1.570000e-06	5.301821e-06	6.643942e-12	5.624253e+01	8.171950e-01
1.580000e-06	5.318104e-06	6.718494e-12	5.641526e+01	8.070330e-01
1.590000e-06	5.332396e-06	6.731240e-12	5.656687e+01	8.034812e-01
1.600000e-06	5.344765e-06	7.867554e-12	5.669809e+01	8.097056e-01
1.610000e-06	5.355037e-06	8.784350e-12	5.680706e+01	8.270999e-01
1.620000e-06	5.363141e-06	7.070117e-12	5.689303e+01	8.547591e-01
1.630000e-06	5.369308e-06	5.640054e-12	5.695845e+01	8.893091e-01
1.640000e-06	5.373755e-06	6.943607e-12	5.700562e+01	9.251552e-01
1.650000e-06	5.376453e-06	8.950580e-12	5.703425e+01	9.551522e-01
1.660000e-06	5.377137e-06	7.731128e-12	5.704150e+01	9.716262e-01
1.670000e-06	5.375881e-06	4.443278e-12	5.702818e+01	9.676183e-01
1.680000e-06	5.372943e-06	5.570652e-12	5.699701e+01	9.381733e-01
1.690000e-06	5.368443e-06	6.456266e-12	5.694927e+01	8.814751e-01
1.700000e-06	5.362128e-06	5.968784e-12	5.688229e+01	7.996368e-01
1.710000e-06	5.353922e-06	5.060279e-12	5.679523e+01	6.989904e-01
1.720000e-06	5.344105e-06	6.666266e-12	5.669109e+01	5.897857e-01
1.730000e-06	5.332657e-06	1.672681e-11	5.656965e+01	4.852865e-01
1.740000e-06	5.319399e-06	1.039787e-11	5.642901e+01	4.003388e-01
1.750000e-06	5.304065e-06	-1.535948e-11	5.626634e+01	3.495700e-01
1.760000e-06	5.286347e-06	2.921544e-13	5.607838e+01	3.454385e-01
1.770000e-06	5.266024e-06	2.824326e-12	5.586280e+01	3.963906e-01
1.780000e-06	5.243295e-06	1.700976e-11	5.562168e+01	5.053804e-01
1.790000e-06	5.219091e-06	4.849098e-11	5.536492e+01	6.689750e-01
1.800000e-06	5.194169e-06	-1.571750e-11	5.510055e+01	8.772003e-01
1.810000e-06	5.167951e-06	3.859006e-11	5.482242e+01	1.114187e+00
1.820000e-06	5.139652e-06	5.736431e-11	5.452222e+01	1.359579e+00
1.830000e-06	5.109620e-06	-3.079700e-11	5.420364e+01	1.590556e+00
1.840000e-06	5.077933e-06	8.914195e-11	5.386750e+01	1.784244e+00
1.850000e-06	5.044111e-06	1.401135e-10	5.350871e+01	1.920228e+00
1.860000e-06	5.008527e-06	5.945277e-11	5.313122e+01	1.982850e+00
1.870000e-06	4.971395e-06	9.469237e-11	5.273732e+01	1.963016e+00
1.880000e-06	4.932371e-06	6.838172e-11	5.232335e+01	1.859276e+00
1.890000e-06	4.891567e-06	8.039369e-11	5.189049e+01	1.678029e+00
1.900000e-06	4.848926e-06	9.756274e-11	5.143815e+01	1.432837e+00
1.910000e-06	4.804710e-06	-5.139421e-11	5.096911e+01	1.142919e+00
1.920000e-06	4.759041e-06	-4.401216e-11	5.048464e+01	8.310117e-01
1.930000e-06	4.711414e-06	1.097996e-11	4.997941e+01	5.208612e-01
1.940000e-06	4.662014e-06	4.601118e-11	4.945536e+01	2.346642e-01
1.950000e-06	4.610983e-06	4.961406e-11	4.891401e+01	-9.242241e-03
1.960000e-06	4.558078e-06	-9.514481e-11	4.835280e+01	-1.981580e-01
1.970000e-06	4.503096e-06	-5.787261e-11	4.776954e+01	-3.260637e-01
1.980000e-06	4.446395e-06	4.937640e-11	4.716804e+01	-3.938272e-01
1.990000e-06	4.388286e-06	4.136364e-11	4.655161e+01	-4.085783e-01
2.000000e-06	4.328649e-06	-2.998848e-11	4.591898e+01	-3.823634e-01
2.010000e-06	4.267674e-06	-9.810293e-11	4.527214e+01	-3.302835e-01
2.020000e-06	4.205190e-06	1.944274e-11	4.460930e+01	-2.683754e-01
2.030000e-06	4.140943e-06	4.893972e-11	4.392776e+01	-2.115226e-01
2.040000e-06	4.075115e-06	-1.333909e-11	4.322945e+01	-1.716636e-01
2.050000e-06	4.007853e-06	-3.576200e-11	4.251593e+01	-1.565164e-01
2.060000e-06	3.939393e-06	-4.160659e-11	4.178969e+01	-1.689570e-01
2.070000e-06	3.869410e-06	3.400268e-11	4.104730e+01	-2.070956e-01
2.080000e-06	3.797706e-06	2.717510e-11	4.028665e+01	-2.649971e-01
2.090000e-06	3.724716e-06	-1.062044e-11	3.951237e+01	-3.339083e-01
2.100000e-06	3.650422e-06	-5.163034e-11	3.872424e+01	-4.037881e-01
2.110000e-06	3.574757e-06	-2.844654e-11	3.792157e+01	-4.649096e-01
2.120000e-06	3.497621e-06	4.862177e-11	3.710331e+01	-5.093030e-01
2.130000e-06	3.418898e-06	-3.792175e-12	3.626820e+01	-5.318436e-01
2.140000e-06	3.338816e-06	-6.030265e-11	3.541868e+01	-5.308510e-01
2.150000e-06	3.257643e-06	-3.835170e-11	3.455758e+01	-5.081431e-01
2.160000e-06	3.175393e-06	3.456920e-11	3.368506e+01	-4.685690e-01
2.170000e-06	3.092004e-06	2.350935e-11	3.280046e+01	-4.191220e-01
2.180000e-06	3.007686e-06	-3.766644e-11	3.190600e+01	-3.677864e-01
2.190000e-06	2.922409e-06	-2.053841e-11	3.100136e+01	-3.223061e-01
2.200000e-06	2.835878e-06	1.176634e-11	3.008344e+01	-2.890618e-01
2.210000e-06	2.748167e-06	1.465928e-11	2.915298e+01	-2.722183e-01
2.220000e-06	2.659504e-06	-1.622172e-11	2.821242e+01	-2.732544e-01
2.230000e-06	2.570008e-06	-2.299009e-11	2.726304e+01	-2.909242e-01
2.240000e-06	2.479606e-06	-1.341156e-11	2.630405e+01	-3.216303e-01
2.250000e-06	2.388362e-06	-1.091658e-12	2.533611e+01	-3.601285e-01
2.260000e-06	2.296460e-06	-5.422506e-13	2.436120e+01	-4.004376e-01
2.270000e-06	2.203971e-06	-2.395651e-11	2.338007e+01	-4.368011e-01
2.280000e-06	2.110663e-06	-2.368347e-11	2.239024e+01	-4.645516e-01
2.290000e-06	2.016325e-06	-2.214857e-13	2.138949e+01	-4.807479e-01
2.300000e-06	1.921099e-06	8.768877e-12	2.037931e+01	-4.845006e-01
2.310000e-06	1.825110e-06	-1.523889e-11	1.936105e+01	-4.769526e-01
2.320000e-06	1.728515e-06	-2.673735e-11	1.833636e+01	-4.609419e-01
2.330000e-06	1.631452e-06	-6.205723e-12	1.730670e+01	-4.404174e-01
2.340000e-06	1.533888e-06	6.897192e-12	1.627172e+01	-4.197207e-01
2.350000e-06	1.435732e-06	-1.004566e-11	1.523047e+01	-4.028588e-01
2.360000e-06	1.337062e-06	-2.409691e-11	1.418376e+01	-3.928897e-01
2.370000e-06	1.238011e-06	-7.038110e-12	1.313301e+01	-3.915182e-01
2.380000e-06	1.138611e-06	9.205337e-12	1.207856e+01	-3.989587e-01
2.390000e-06	1.038829e-06	-1.404936e-12	1.102006e+01	-4.140750e-01
2.400000e-06	9.387767e-07	-1.874664e-11	9.958687e+00	-4.347585e-01
2.410000e-06	8.385295e-07	-1.573652e-11	8.895250e+00	-4.584674e-01
2.420000e-06	7.380110e-07	-2.968937e-12	7.828934e+00	-4.828212e-01
2.430000e-06	6.372460e-07	-1.222680e-12	6.760004e+00	-5.061412e-01
2.440000e-06	5.363631e-07	-1.074695e-11	5.689823e+00	-5.278349e-01
2.450000e-06	4.352390e-07	-1.904226e-11	4.617082e+00	-5.485543e-01
2.460000e-06	3.337143e-07	-1.427252e-11	3.540093e+00	-5.700972e-01
2.470000e-06	2.320429e-07	-2.953160e-12	2.461547e+00	-5.950650e-01
2.480000e-06	1.304404e-07	-5.459261e-12	1.383732e+00	-6.263359e-01
2.490000e-06	2.872656e-08	-1.945684e-11	3.047358e-01	-6.664439e-01
2.500000e-06	-7.321285e-08	-2.098442e-11	-7.766532e-01	-7.169715e-01
2.510000e-06	-1.749860e-07	-8.546689e-12	-1.856279e+00	-7.780666e-01
2.520000e-06	-2.764713e-07	-7.902233e-12	-2.932850e+00	-8.481721e-01
2.530000e-06	-3.778631e-07	-2.315859e-11	-4.008430e+00	-9.240274e-01
2.540000e-06	-4.791059e-07	-2.912258e-11	-5.082430e+00	-1.000952e+00
2.550000e-06	-5.800933e-07	-2.194998e-11	-6.153719e+00	-1.073380e+00
2.560000e-06	-6.808238e-07	-1.796702e-11	-7.222284e+00	-1.135577e+00
2.570000e-06	-7.813375e-07	-2.350721e-11	-8.288549e+00	-1.182418e+00
2.580000e-06	-8.814872e-07	-2.787684e-11	-9.350952e+00	-1.210133e+00
2.590000e-06	-9.813210e-07	-2.482104e-11	-1.041000e+01	-1.216881e+00
2.600000e-06	-1.080952e-06	-2.043827e-11	-1.146691e+01	-1.203082e+00
2.610000e-06	-1.180276e-06	-1.959953e-11	-1.252055e+01	-1.171438e+00
2.620000e-06	-1.279168e-06	-2.239629e-11	-1.356961e+01	-1.126641e+00
2.630000e-06	-1.377614e-06	-2.348189e-11	-1.461394e+01	-1.074807e+00
2.640000e-06	-1.475602e-06	-2.032322e-11	-1.565341e+01	-1.022712e+00
2.650000e-06	-1.573113e-06	-1.690205e-11	-1.668782e+01	-9.769404e-01
2.660000e-06	-1.670184e-06	-1.754496e-11	-1.771757e+01	-9.430625e-01
2.670000e-06	-1.766776e-06	-1.910885e-11	-1.874223e+01	-9.249663e-01
2.680000e-06	-1.862762e-06	-1.747044e-11	-1.976047e+01	-9.244243e-01
2.690000e-06	-1.958016e-06	-1.498519e-11	-2.077093e+01	-9.409572e-01
2.700000e-06	-2.052509e-06	-1.738056e-11	-2.177333e+01	-9.720017e-01
2.710000e-06	-2.146161e-06	-2.210198e-11	-2.276681e+01	-1.013350e+00
2.720000e-06	-2.238854e-06	-2.218414e-11	-2.375010e+01	-1.059788e+00
2.730000e-06	-2.330686e-06	-2.023946e-11	-2.472428e+01	-1.105826e+00
2.740000e-06	-2.421791e-06	-2.160365e-11	-2.569073e+01	-1.146421e+00
2.750000e-06	-2.512088e-06	-2.331593e-11	-2.664861e+01	-1.177577e+00
2.760000e-06	-2.601509e-06	-2.107996e-11	-2.759721e+01	-1.196750e+00
2.770000e-06	-2.690049e-06	-1.854412e-11	-2.853645e+01	-1.203002e+00
2.780000e-06	-2.777704e-06	-1.910735e-11	-2.946631e+01	-1.196904e+00
2.790000e-06	-2.864322e-06	-2.122723e-11	-3.038517e+01	-1.180224e+00
2.800000e-06	-2.949747e-06	-2.271573e-11	-3.129137e+01	-1.155460e+00
2.810000e-06	-3.034052e-06	-2.277249e-11	-3.218569e+01	-1.125313e+00
2.820000e-06	-3.117382e-06	-2.118238e-11	-3.306967e+01	-1.092188e+00
2.830000e-06	-3.199706e-06	-1.966529e-11	-3.394298e+01	-1.057820e+00
2.840000e-06	-3.280956e-06	-1.992692e-11	-3.480489e+01	-1.023064e+00
2.850000e-06	-3.361158e-06	-1.872736e-11	-3.565568e+01	-9.878991e-01
2.860000e-06	-3.440153e-06	-1.493669e-11	-3.649368e+01	-9.516203e-01
2.870000e-06	-3.517628e-06	-1.281880e-11	-3.731554e+01	-9.131782e-01
2.880000e-06	-3.593569e-06	-1.427808e-11	-3.812113e+01	-8.715980e-01
2.890000e-06	-3.668189e-06	-1.561292e-11	-3.891272e+01	-8.263894e-01
2.900000e-06	-3.741549e-06	-1.336805e-11	-3.969093e+01	-7.778674e-01
2.910000e-06	-3.813610e-06	-1.105819e-11	-4.045536e+01	-7.273175e-01
2.920000e-06	-3.884228e-06	-1.227103e-11	-4.120449e+01	-6.769662e-01
2.930000e-06	-3.953270e-06	-1.484818e-11	-4.193690e+01	-6.297557e-01
2.940000e-06	-4.020899e-06	-1.572032e-11	-4.265432e+01	-5.889535e-01
