# Temperatura_=_20.0
# Concentracion g/m^3_=_9000.0
# C_Vs_to_Am_M_A/Vsm_=_65563218390.804596
# pendiente_HvsI_1/m_=_3716.3
# ordenada_HvsI_A/m_=_1297.0
# frecuencia_Hz_=_300882.18371292105

Tiempo_(s)	Campo_(V.s)	Magnetizacion_(V.s)	Campo_(kA/m)	Magnetizacion_(A/m)
0.000000e+00	-5.351704e-06	-4.354075e-09	-5.680494e+01	-2.854201e+02
1.000000e-08	-5.350358e-06	-4.356682e-09	-5.679065e+01	-2.854046e+02
2.000000e-08	-5.347103e-06	-4.358618e-09	-5.675610e+01	-2.853551e+02
3.000000e-08	-5.342227e-06	-4.357462e-09	-5.670434e+01	-2.852729e+02
4.000000e-08	-5.335788e-06	-4.353621e-09	-5.663600e+01	-2.851591e+02
5.000000e-08	-5.327665e-06	-4.350521e-09	-5.654978e+01	-2.850147e+02
6.000000e-08	-5.317574e-06	-4.346745e-09	-5.644266e+01	-2.848402e+02
7.000000e-08	-5.305493e-06	-4.338530e-09	-5.631443e+01	-2.846359e+02
8.000000e-08	-5.291428e-06	-4.336149e-09	-5.616514e+01	-2.844018e+02
9.000000e-08	-5.275277e-06	-4.356113e-09	-5.599371e+01	-2.841373e+02
1.000000e-07	-5.257094e-06	-4.362825e-09	-5.580072e+01	-2.838421e+02
1.100000e-07	-5.236992e-06	-4.358989e-09	-5.558734e+01	-2.835156e+02
1.200000e-07	-5.214971e-06	-4.345407e-09	-5.535360e+01	-2.831574e+02
1.300000e-07	-5.191199e-06	-4.296112e-09	-5.510128e+01	-2.827671e+02
1.400000e-07	-5.165801e-06	-4.297089e-09	-5.483170e+01	-2.823449e+02
1.500000e-07	-5.138849e-06	-4.332149e-09	-5.454561e+01	-2.818907e+02
1.600000e-07	-5.110407e-06	-4.280496e-09	-5.424372e+01	-2.814049e+02
1.700000e-07	-5.080455e-06	-4.290109e-09	-5.392579e+01	-2.808876e+02
1.800000e-07	-5.048781e-06	-4.286267e-09	-5.358960e+01	-2.803387e+02
1.900000e-07	-5.015035e-06	-4.241493e-09	-5.323141e+01	-2.797578e+02
2.000000e-07	-4.979627e-06	-4.295440e-09	-5.285558e+01	-2.791441e+02
2.100000e-07	-4.942713e-06	-4.261747e-09	-5.246375e+01	-2.784959e+02
2.200000e-07	-4.903979e-06	-4.202110e-09	-5.205262e+01	-2.778114e+02
2.300000e-07	-4.863347e-06	-4.227691e-09	-5.162133e+01	-2.770880e+02
2.400000e-07	-4.820806e-06	-4.229086e-09	-5.116979e+01	-2.763230e+02
2.500000e-07	-4.776474e-06	-4.211235e-09	-5.069924e+01	-2.755136e+02
2.600000e-07	-4.730365e-06	-4.184524e-09	-5.020981e+01	-2.746571e+02
2.700000e-07	-4.682295e-06	-4.147005e-09	-4.969958e+01	-2.737512e+02
2.800000e-07	-4.632169e-06	-4.160086e-09	-4.916753e+01	-2.727943e+02
2.900000e-07	-4.580201e-06	-4.151173e-09	-4.861592e+01	-2.717855e+02
3.000000e-07	-4.526528e-06	-4.125028e-09	-4.804622e+01	-2.707245e+02
3.100000e-07	-4.471251e-06	-4.103504e-09	-4.745949e+01	-2.696120e+02
3.200000e-07	-4.414324e-06	-4.081531e-09	-4.685525e+01	-2.684489e+02
3.300000e-07	-4.355684e-06	-4.075684e-09	-4.623282e+01	-2.672367e+02
3.400000e-07	-4.295556e-06	-4.058265e-09	-4.559460e+01	-2.659770e+02
3.500000e-07	-4.234051e-06	-4.039008e-09	-4.494176e+01	-2.646710e+02
3.600000e-07	-4.171088e-06	-3.995254e-09	-4.427345e+01	-2.633197e+02
3.700000e-07	-4.106484e-06	-3.984300e-09	-4.358772e+01	-2.619233e+02
3.800000e-07	-4.040244e-06	-3.989634e-09	-4.288463e+01	-2.604814e+02
3.900000e-07	-3.972508e-06	-3.950241e-09	-4.216565e+01	-2.589928e+02
4.000000e-07	-3.903378e-06	-3.913623e-09	-4.143188e+01	-2.574558e+02
4.100000e-07	-3.832977e-06	-3.899310e-09	-4.068462e+01	-2.558678e+02
4.200000e-07	-3.761360e-06	-3.889972e-09	-3.992445e+01	-2.542263e+02
4.300000e-07	-3.688384e-06	-3.855265e-09	-3.914985e+01	-2.525284e+02
4.400000e-07	-3.613705e-06	-3.819460e-09	-3.835718e+01	-2.507711e+02
4.500000e-07	-3.537426e-06	-3.794682e-09	-3.754752e+01	-2.489519e+02
4.600000e-07	-3.459871e-06	-3.767931e-09	-3.672433e+01	-2.470683e+02
4.700000e-07	-3.380979e-06	-3.742914e-09	-3.588694e+01	-2.451181e+02
4.800000e-07	-3.300694e-06	-3.713888e-09	-3.503477e+01	-2.430992e+02
4.900000e-07	-3.219164e-06	-3.671893e-09	-3.416938e+01	-2.410096e+02
5.000000e-07	-3.136563e-06	-3.636356e-09	-3.329262e+01	-2.388470e+02
5.100000e-07	-3.053050e-06	-3.611541e-09	-3.240618e+01	-2.366090e+02
5.200000e-07	-2.968643e-06	-3.579868e-09	-3.151026e+01	-2.342923e+02
5.300000e-07	-2.883223e-06	-3.532887e-09	-3.060358e+01	-2.318933e+02
5.400000e-07	-2.796802e-06	-3.487053e-09	-2.968627e+01	-2.294074e+02
5.500000e-07	-2.709534e-06	-3.456292e-09	-2.875998e+01	-2.268295e+02
5.600000e-07	-2.621399e-06	-3.421786e-09	-2.782448e+01	-2.241537e+02
5.700000e-07	-2.532102e-06	-3.374694e-09	-2.687666e+01	-2.213735e+02
5.800000e-07	-2.441623e-06	-3.321550e-09	-2.591627e+01	-2.184823e+02
5.900000e-07	-2.350296e-06	-3.279226e-09	-2.494690e+01	-2.154731e+02
6.000000e-07	-2.258304e-06	-3.236460e-09	-2.397046e+01	-2.123388e+02
6.100000e-07	-2.165612e-06	-3.185496e-09	-2.298660e+01	-2.090725e+02
6.200000e-07	-2.072149e-06	-3.127823e-09	-2.199454e+01	-2.056672e+02
6.300000e-07	-1.977931e-06	-3.067332e-09	-2.099448e+01	-2.021161e+02
6.400000e-07	-1.883020e-06	-3.011544e-09	-1.998706e+01	-1.984119e+02
6.500000e-07	-1.787544e-06	-2.956271e-09	-1.897364e+01	-1.945472e+02
6.600000e-07	-1.691509e-06	-2.896174e-09	-1.795429e+01	-1.905138e+02
6.700000e-07	-1.594675e-06	-2.826210e-09	-1.692646e+01	-1.863020e+02
6.800000e-07	-1.497015e-06	-2.755521e-09	-1.588986e+01	-1.819009e+02
6.900000e-07	-1.398698e-06	-2.686436e-09	-1.484628e+01	-1.772973e+02
7.000000e-07	-1.299869e-06	-2.614920e-09	-1.379729e+01	-1.724756e+02
7.100000e-07	-1.200623e-06	-2.534567e-09	-1.274385e+01	-1.674173e+02
7.200000e-07	-1.101031e-06	-2.450937e-09	-1.168675e+01	-1.621008e+02
7.300000e-07	-1.001151e-06	-2.370368e-09	-1.062658e+01	-1.565013e+02
7.400000e-07	-9.010644e-07	-2.282179e-09	-9.564226e+00	-1.505905e+02
7.500000e-07	-8.007078e-07	-2.185315e-09	-8.499004e+00	-1.443375e+02
7.600000e-07	-6.999440e-07	-2.081427e-09	-7.429460e+00	-1.377089e+02
7.700000e-07	-5.988892e-07	-1.974671e-09	-6.356828e+00	-1.306694e+02
7.800000e-07	-4.976548e-07	-1.859915e-09	-5.282289e+00	-1.231838e+02
7.900000e-07	-3.962376e-07	-1.736689e-09	-4.205810e+00	-1.152174e+02
8.000000e-07	-2.946438e-07	-1.609085e-09	-3.127457e+00	-1.067387e+02
8.100000e-07	-1.929281e-07	-1.472480e-09	-2.047809e+00	-9.772068e+01
8.200000e-07	-9.116278e-08	-1.324749e-09	-9.676349e-01	-8.814334e+01
8.300000e-07	1.063046e-08	-1.167356e-09	1.128356e-01	-7.799583e+01
8.400000e-07	1.124021e-07	-1.004667e-09	1.193077e+00	-6.727853e+01
8.500000e-07	2.141201e-07	-8.323116e-10	2.272748e+00	-5.600494e+01
8.600000e-07	3.157545e-07	-6.511324e-10	3.351533e+00	-4.420313e+01
8.700000e-07	4.172879e-07	-4.628619e-10	4.429245e+00	-3.191665e+01
8.800000e-07	5.187153e-07	-2.709754e-10	5.505834e+00	-1.920469e+01
8.900000e-07	6.199537e-07	-7.503884e-11	6.580414e+00	-6.141457e+00
9.000000e-07	7.209544e-07	1.264095e-10	7.652473e+00	7.185314e+00
9.100000e-07	8.216483e-07	3.329911e-10	8.721274e+00	2.067669e+01
9.200000e-07	9.220205e-07	5.419292e-10	9.786661e+00	3.422561e+01
9.300000e-07	1.022109e-06	7.455880e-10	1.084904e+01	4.772061e+01
9.400000e-07	1.121882e-06	9.459177e-10	1.190807e+01	6.104993e+01
9.500000e-07	1.221353e-06	1.143937e-09	1.296389e+01	7.410572e+01
9.600000e-07	1.320474e-06	1.339954e-09	1.401599e+01	8.678822e+01
9.700000e-07	1.419172e-06	1.526284e-09	1.506361e+01	9.900945e+01
9.800000e-07	1.517339e-06	1.700783e-09	1.610559e+01	1.106963e+02
9.900000e-07	1.614787e-06	1.867566e-09	1.713994e+01	1.217927e+02
1.000000e-06	1.711404e-06	2.027729e-09	1.816547e+01	1.322609e+02
1.010000e-06	1.807220e-06	2.179738e-09	1.918249e+01	1.420814e+02
1.020000e-06	1.902379e-06	2.320373e-09	2.019255e+01	1.512523e+02
1.030000e-06	1.996946e-06	2.450106e-09	2.119631e+01	1.597874e+02
1.040000e-06	2.090928e-06	2.568127e-09	2.219388e+01	1.677133e+02
1.050000e-06	2.184198e-06	2.678706e-09	2.318387e+01	1.750668e+02
1.060000e-06	2.276705e-06	2.783195e-09	2.416578e+01	1.818912e+02
1.070000e-06	2.368523e-06	2.878285e-09	2.514037e+01	1.882332e+02
1.080000e-06	2.459637e-06	2.964566e-09	2.610749e+01	1.941395e+02
1.090000e-06	2.549946e-06	3.048457e-09	2.706605e+01	1.996547e+02
1.100000e-06	2.639153e-06	3.131037e-09	2.801293e+01	2.048191e+02
1.110000e-06	2.727140e-06	3.207113e-09	2.894686e+01	2.096676e+02
1.120000e-06	2.814135e-06	3.276518e-09	2.987025e+01	2.142289e+02
1.130000e-06	2.900260e-06	3.340740e-09	3.078441e+01	2.185262e+02
1.140000e-06	2.985446e-06	3.401679e-09	3.168862e+01	2.225772e+02
1.150000e-06	3.069694e-06	3.458757e-09	3.258285e+01	2.263958e+02
1.160000e-06	3.153067e-06	3.512254e-09	3.346780e+01	2.299928e+02
1.170000e-06	3.235432e-06	3.562014e-09	3.434205e+01	2.333776e+02
1.180000e-06	3.316498e-06	3.608366e-09	3.520252e+01	2.365588e+02
1.190000e-06	3.396213e-06	3.652916e-09	3.604864e+01	2.395455e+02
1.200000e-06	3.474749e-06	3.694441e-09	3.688225e+01	2.423478e+02
1.210000e-06	3.552100e-06	3.734382e-09	3.770329e+01	2.449770e+02
1.220000e-06	3.628222e-06	3.771806e-09	3.851127e+01	2.474452e+02
1.230000e-06	3.703019e-06	3.806129e-09	3.930519e+01	2.497657e+02
1.240000e-06	3.776224e-06	3.837631e-09	4.008222e+01	2.519518e+02
1.250000e-06	3.847831e-06	3.867957e-09	4.084228e+01	2.540164e+02
1.260000e-06	3.918035e-06	3.896839e-09	4.158745e+01	2.559718e+02
1.270000e-06	3.986897e-06	3.923303e-09	4.231838e+01	2.578288e+02
1.280000e-06	4.054501e-06	3.948031e-09	4.303595e+01	2.595965e+02
1.290000e-06	4.120745e-06	3.972939e-09	4.373909e+01	2.612824e+02
1.300000e-06	4.185352e-06	3.999094e-09	4.442485e+01	2.628922e+02
1.310000e-06	4.248404e-06	4.023309e-09	4.509411e+01	2.644298e+02
1.320000e-06	4.310040e-06	4.044265e-09	4.574834e+01	2.658983e+02
1.330000e-06	4.370279e-06	4.063529e-09	4.638773e+01	2.672993e+02
1.340000e-06	4.429167e-06	4.083754e-09	4.701280e+01	2.686344e+02
1.350000e-06	4.486474e-06	4.104115e-09	4.762107e+01	2.699044e+02
1.360000e-06	4.542007e-06	4.121956e-09	4.821051e+01	2.711106e+02
1.370000e-06	4.595883e-06	4.137490e-09	4.878238e+01	2.722540e+02
1.380000e-06	4.648076e-06	4.153570e-09	4.933637e+01	2.733360e+02
1.390000e-06	4.698332e-06	4.170339e-09	4.986981e+01	2.743584e+02
1.400000e-06	4.746511e-06	4.185935e-09	5.038119e+01	2.753231e+02
1.410000e-06	4.792860e-06	4.200234e-09	5.087316e+01	2.762319e+02
1.420000e-06	4.837643e-06	4.214346e-09	5.134850e+01	2.770871e+02
1.430000e-06	4.880906e-06	4.227196e-09	5.180771e+01	2.778908e+02
1.440000e-06	4.922360e-06	4.238620e-09	5.224772e+01	2.786452e+02
1.450000e-06	4.961925e-06	4.250106e-09	5.266768e+01	2.793526e+02
1.460000e-06	4.999833e-06	4.259984e-09	5.307005e+01	2.800152e+02
1.470000e-06	5.036069e-06	4.269287e-09	5.345467e+01	2.806355e+02
1.480000e-06	5.070576e-06	4.279377e-09	5.382094e+01	2.812161e+02
1.490000e-06	5.103184e-06	4.290088e-09	5.416706e+01	2.817596e+02
1.500000e-06	5.133927e-06	4.299461e-09	5.449337e+01	2.822686e+02
1.510000e-06	5.163003e-06	4.306638e-09	5.480199e+01	2.827458e+02
1.520000e-06	5.190432e-06	4.313568e-09	5.509314e+01	2.831935e+02
1.530000e-06	5.215893e-06	4.320018e-09	5.536339e+01	2.836137e+02
1.540000e-06	5.239267e-06	4.326057e-09	5.561149e+01	2.840079e+02
1.550000e-06	5.260847e-06	4.332239e-09	5.584054e+01	2.843771e+02
1.560000e-06	5.280813e-06	4.338836e-09	5.605247e+01	2.847213e+02
1.570000e-06	5.299038e-06	4.345417e-09	5.624592e+01	2.850400e+02
1.580000e-06	5.315273e-06	4.351417e-09	5.641824e+01	2.853323e+02
1.590000e-06	5.329516e-06	4.356720e-09	5.656943e+01	2.855964e+02
1.600000e-06	5.341826e-06	4.361146e-09	5.670008e+01	2.858306e+02
1.610000e-06	5.351990e-06	4.365049e-09	5.680797e+01	2.860329e+02
1.620000e-06	5.360029e-06	4.367096e-09	5.689330e+01	2.862016e+02
1.630000e-06	5.366217e-06	4.367979e-09	5.695899e+01	2.863353e+02
1.640000e-06	5.370669e-06	4.371729e-09	5.700624e+01	2.864332e+02
1.650000e-06	5.373342e-06	4.376439e-09	5.703461e+01	2.864950e+02
1.660000e-06	5.373991e-06	4.376332e-09	5.704150e+01	2.865208e+02
1.670000e-06	5.372748e-06	4.374118e-09	5.702831e+01	2.865115e+02
1.680000e-06	5.369871e-06	4.374586e-09	5.699776e+01	2.864680e+02
1.690000e-06	5.365363e-06	4.373887e-09	5.694992e+01	2.863916e+02
1.700000e-06	5.359025e-06	4.372663e-09	5.688265e+01	2.862834e+02
1.710000e-06	5.350802e-06	4.370998e-09	5.679536e+01	2.861444e+02
1.720000e-06	5.340941e-06	4.368202e-09	5.669069e+01	2.859753e+02
1.730000e-06	5.329476e-06	4.370017e-09	5.656900e+01	2.857764e+02
1.740000e-06	5.316250e-06	4.353570e-09	5.642861e+01	2.855476e+02
1.750000e-06	5.300913e-06	4.328512e-09	5.626582e+01	2.852886e+02
1.760000e-06	5.283106e-06	4.318997e-09	5.607681e+01	2.849990e+02
1.770000e-06	5.262748e-06	4.313356e-09	5.586073e+01	2.846781e+02
1.780000e-06	5.240047e-06	4.354332e-09	5.561977e+01	2.843256e+02
1.790000e-06	5.215829e-06	4.374480e-09	5.536271e+01	2.839411e+02
1.800000e-06	5.190866e-06	4.308981e-09	5.509775e+01	2.835246e+02
1.810000e-06	5.164601e-06	4.342024e-09	5.481895e+01	2.830762e+02
1.820000e-06	5.136201e-06	4.329529e-09	5.451750e+01	2.825961e+02
1.830000e-06	5.106095e-06	4.299320e-09	5.419795e+01	2.820844e+02
1.840000e-06	5.074398e-06	4.358834e-09	5.386151e+01	2.815412e+02
1.850000e-06	5.040572e-06	4.284128e-09	5.350247e+01	2.809661e+02
1.860000e-06	5.004975e-06	4.266377e-09	5.312462e+01	2.803583e+02
1.870000e-06	4.967779e-06	4.329025e-09	5.272982e+01	2.797165e+02
1.880000e-06	4.928692e-06	4.248092e-09	5.231493e+01	2.790386e+02
1.890000e-06	4.887805e-06	4.222639e-09	5.188095e+01	2.783224e+02
1.900000e-06	4.845137e-06	4.232032e-09	5.142805e+01	2.775651e+02
1.910000e-06	4.800897e-06	4.204343e-09	5.095847e+01	2.767639e+02
1.920000e-06	4.755162e-06	4.237108e-09	5.047302e+01	2.759160e+02
1.930000e-06	4.707480e-06	4.177037e-09	4.996691e+01	2.750191e+02
1.940000e-06	4.657989e-06	4.164363e-09	4.944159e+01	2.740714e+02
1.950000e-06	4.606929e-06	4.172586e-09	4.889963e+01	2.730719e+02
1.960000e-06	4.554110e-06	4.127471e-09	4.833898e+01	2.720203e+02
1.970000e-06	4.499327e-06	4.152138e-09	4.775750e+01	2.709169e+02
1.980000e-06	4.442725e-06	4.107351e-09	4.715671e+01	2.697628e+02
1.990000e-06	4.384659e-06	4.069258e-09	4.654037e+01	2.685593e+02
2.000000e-06	4.325124e-06	4.073256e-09	4.590845e+01	2.673080e+02
2.010000e-06	4.264213e-06	4.064041e-09	4.526191e+01	2.660102e+02
2.020000e-06	4.201741e-06	4.051349e-09	4.459881e+01	2.646669e+02
2.030000e-06	4.137457e-06	3.975679e-09	4.391648e+01	2.632786e+02
2.040000e-06	4.071608e-06	3.980585e-09	4.321753e+01	2.618450e+02
2.050000e-06	4.004386e-06	3.986769e-09	4.250401e+01	2.603649e+02
2.060000e-06	3.935837e-06	3.940832e-09	4.177641e+01	2.588367e+02
2.070000e-06	3.865726e-06	3.915261e-09	4.103222e+01	2.572581e+02
2.080000e-06	3.793973e-06	3.876934e-09	4.027061e+01	2.556264e+02
2.090000e-06	3.720903e-06	3.871382e-09	3.949502e+01	2.539388e+02
2.100000e-06	3.646591e-06	3.837561e-09	3.870625e+01	2.521923e+02
2.110000e-06	3.570897e-06	3.812797e-09	3.790280e+01	2.503844e+02
2.120000e-06	3.493697e-06	3.782246e-09	3.708337e+01	2.485125e+02
2.130000e-06	3.415032e-06	3.732513e-09	3.624839e+01	2.465743e+02
2.140000e-06	3.335008e-06	3.720736e-09	3.539899e+01	2.445679e+02
2.150000e-06	3.253765e-06	3.696152e-09	3.453665e+01	2.424911e+02
2.160000e-06	3.171476e-06	3.664347e-09	3.366320e+01	2.403418e+02
2.170000e-06	3.088160e-06	3.614177e-09	3.277885e+01	2.381174e+02
2.180000e-06	3.003871e-06	3.583818e-09	3.188418e+01	2.358151e+02
2.190000e-06	2.918566e-06	3.562063e-09	3.097873e+01	2.334311e+02
2.200000e-06	2.832127e-06	3.518508e-09	3.006122e+01	2.309612e+02
2.210000e-06	2.744483e-06	3.473287e-09	2.913094e+01	2.284001e+02
2.220000e-06	2.655772e-06	3.430870e-09	2.818933e+01	2.257423e+02
2.230000e-06	2.566191e-06	3.399640e-09	2.723848e+01	2.229813e+02
2.240000e-06	2.475749e-06	3.352911e-09	2.627850e+01	2.201104e+02
2.250000e-06	2.384554e-06	3.306420e-09	2.531052e+01	2.171228e+02
2.260000e-06	2.292668e-06	3.258238e-09	2.433521e+01	2.140114e+02
2.270000e-06	2.200095e-06	3.206897e-09	2.335261e+01	2.107692e+02
2.280000e-06	2.106749e-06	3.160326e-09	2.236180e+01	2.073893e+02
2.290000e-06	2.012535e-06	3.113863e-09	2.136178e+01	2.038647e+02
2.300000e-06	1.917443e-06	3.059151e-09	2.035244e+01	2.001885e+02
2.310000e-06	1.821507e-06	2.993279e-09	1.933414e+01	1.963531e+02
2.320000e-06	1.724919e-06	2.933187e-09	1.830892e+01	1.923504e+02
2.330000e-06	1.627831e-06	2.875568e-09	1.727839e+01	1.881713e+02
2.340000e-06	1.530308e-06	2.810046e-09	1.624325e+01	1.838049e+02
2.350000e-06	1.432237e-06	2.734961e-09	1.520229e+01	1.792386e+02
2.360000e-06	1.333657e-06	2.664260e-09	1.415592e+01	1.744571e+02
2.370000e-06	1.234709e-06	2.593998e-09	1.310565e+01	1.694426e+02
2.380000e-06	1.135355e-06	2.513567e-09	1.205107e+01	1.641740e+02
2.390000e-06	1.035649e-06	2.427231e-09	1.099276e+01	1.586270e+02
2.400000e-06	9.356534e-07	2.337670e-09	9.931366e+00	1.527740e+02
2.410000e-06	8.353500e-07	2.242958e-09	8.866709e+00	1.465846e+02
2.420000e-06	7.347998e-07	2.142869e-09	7.799432e+00	1.400256e+02
2.430000e-06	6.340751e-07	2.040849e-09	6.730304e+00	1.330621e+02
2.440000e-06	5.331549e-07	1.930862e-09	5.659100e+00	1.256588e+02
2.450000e-06	4.320282e-07	1.807196e-09	4.585704e+00	1.177807e+02
2.460000e-06	3.307319e-07	1.675628e-09	3.510508e+00	1.093957e+02
2.470000e-06	2.293281e-07	1.543203e-09	2.434172e+00	1.004757e+02
2.480000e-06	1.278359e-07	1.404539e-09	1.356896e+00	9.099931e+01
2.490000e-06	2.628074e-08	1.252527e-09	2.789533e-01	8.095398e+01
2.500000e-06	-7.522598e-08	1.088755e-09	-7.984760e-01	7.033787e+01
2.510000e-06	-1.766066e-07	9.164323e-10	-1.874566e+00	5.916202e+01
2.520000e-06	-2.779074e-07	7.379907e-10	-2.949811e+00	4.745182e+01
2.530000e-06	-3.791134e-07	5.528577e-10	-4.024048e+00	3.524803e+01
2.540000e-06	-4.801825e-07	3.582398e-10	-5.096832e+00	2.260705e+01
2.550000e-06	-5.810839e-07	1.543393e-10	-6.167836e+00	9.600508e+00
2.560000e-06	-6.817683e-07	-4.953597e-11	-7.236537e+00	-3.686142e+00
2.570000e-06	-7.822114e-07	-2.506223e-10	-8.302677e+00	-1.715575e+01
2.580000e-06	-8.823511e-07	-4.552107e-10	-9.365596e+00	-3.070247e+01
2.590000e-06	-9.822056e-07	-6.644361e-10	-1.042549e+01	-4.421531e+01
2.600000e-06	-1.081781e-06	-8.718124e-10	-1.148242e+01	-5.758226e+01
2.610000e-06	-1.181019e-06	-1.070763e-09	-1.253577e+01	-7.069447e+01
2.620000e-06	-1.279895e-06	-1.262357e-09	-1.358528e+01	-8.345043e+01
2.630000e-06	-1.378348e-06	-1.450196e-09	-1.463028e+01	-9.575983e+01
2.640000e-06	-1.476259e-06	-1.634734e-09	-1.566956e+01	-1.075467e+02
2.650000e-06	-1.573659e-06	-1.809156e-09	-1.670338e+01	-1.187518e+02
2.660000e-06	-1.670640e-06	-1.969089e-09	-1.773278e+01	-1.293341e+02
2.670000e-06	-1.767174e-06	-2.118609e-09	-1.875743e+01	-1.392709e+02
2.680000e-06	-1.863193e-06	-2.261537e-09	-1.977661e+01	-1.485572e+02
2.690000e-06	-1.958516e-06	-2.396694e-09	-2.078840e+01	-1.572041e+02
2.700000e-06	-2.052943e-06	-2.520593e-09	-2.179068e+01	-1.652363e+02
2.710000e-06	-2.146410e-06	-2.632537e-09	-2.278278e+01	-1.726890e+02
2.720000e-06	-2.238988e-06	-2.735481e-09	-2.376543e+01	-1.796045e+02
2.730000e-06	-2.330800e-06	-2.834035e-09	-2.473996e+01	-1.860291e+02
2.740000e-06	-2.421851e-06	-2.929417e-09	-2.570641e+01	-1.920098e+02
2.750000e-06	-2.512049e-06	-3.016730e-09	-2.666380e+01	-1.975918e+02
2.760000e-06	-2.601355e-06	-3.094522e-09	-2.761173e+01	-2.028161e+02
2.770000e-06	-2.689864e-06	-3.168652e-09	-2.855120e+01	-2.077186e+02
2.780000e-06	-2.777590e-06	-3.241105e-09	-2.948236e+01	-2.123293e+02
2.790000e-06	-2.864248e-06	-3.308653e-09	-3.040217e+01	-2.166722e+02
2.800000e-06	-2.949608e-06	-3.371097e-09	-3.130821e+01	-2.207661e+02
2.810000e-06	-3.033863e-06	-3.430338e-09	-3.220253e+01	-2.246253e+02
2.820000e-06	-3.117158e-06	-3.486731e-09	-3.308665e+01	-2.282612e+02
2.830000e-06	-3.199398e-06	-3.540748e-09	-3.395958e+01	-2.316832e+02
2.840000e-06	-3.280618e-06	-3.592154e-09	-3.482167e+01	-2.349000e+02
2.850000e-06	-3.360840e-06	-3.639315e-09	-3.567318e+01	-2.379207e+02
2.860000e-06	-3.439815e-06	-3.682536e-09	-3.651145e+01	-2.407552e+02
2.870000e-06	-3.517267e-06	-3.723934e-09	-3.733355e+01	-2.434143e+02
2.880000e-06	-3.593231e-06	-3.764269e-09	-3.813986e+01	-2.459104e+02
2.890000e-06	-3.667815e-06	-3.801444e-09	-3.893153e+01	-2.482562e+02
2.900000e-06	-3.741109e-06	-3.834638e-09	-3.970949e+01	-2.504653e+02
2.910000e-06	-3.813144e-06	-3.865771e-09	-4.047410e+01	-2.525507e+02
2.920000e-06	-3.883706e-06	-3.897144e-09	-4.122307e+01	-2.545247e+02
2.930000e-06	-3.952729e-06	-3.928698e-09	-4.195571e+01	-2.563985e+02
2.940000e-06	-4.020356e-06	-3.957363e-09	-4.267352e+01	-2.581815e+02
