# Temperatura_=_20.0
# Concentracion g/m^3_=_9000.0
# C_Vs_to_Am_M_A/Vsm_=_65563218390.804596
# pendiente_HvsI_1/m_=_3716.3
# ordenada_HvsI_A/m_=_1297.0
# frecuencia_Hz_=_300880.24322106893

Tiempo_(s)	Campo_(V.s)	Magnetizacion_(V.s)	Campo_(kA/m)	Magnetizacion_(A/m)
0.000000e+00	-5.339657e-06	-4.351505e-09	-5.679852e+01	-2.846691e+02
1.000000e-08	-5.338518e-06	-4.350990e-09	-5.678640e+01	-2.846173e+02
2.000000e-08	-5.335497e-06	-4.351691e-09	-5.675426e+01	-2.845343e+02
3.000000e-08	-5.330783e-06	-4.350220e-09	-5.670412e+01	-2.844201e+02
4.000000e-08	-5.324426e-06	-4.347338e-09	-5.663650e+01	-2.842745e+02
5.000000e-08	-5.316430e-06	-4.344366e-09	-5.655144e+01	-2.840968e+02
6.000000e-08	-5.306457e-06	-4.340162e-09	-5.644536e+01	-2.838866e+02
7.000000e-08	-5.294473e-06	-4.333548e-09	-5.631789e+01	-2.836436e+02
8.000000e-08	-5.280631e-06	-4.335267e-09	-5.617065e+01	-2.833682e+02
9.000000e-08	-5.264660e-06	-4.335960e-09	-5.600076e+01	-2.830617e+02
1.000000e-07	-5.246593e-06	-4.332547e-09	-5.580858e+01	-2.827263e+02
1.100000e-07	-5.226627e-06	-4.343151e-09	-5.559620e+01	-2.823652e+02
1.200000e-07	-5.204766e-06	-4.331311e-09	-5.536367e+01	-2.819824e+02
1.300000e-07	-5.181228e-06	-4.297118e-09	-5.511329e+01	-2.815820e+02
1.400000e-07	-5.156090e-06	-4.318434e-09	-5.484589e+01	-2.811682e+02
1.500000e-07	-5.129357e-06	-4.281185e-09	-5.456152e+01	-2.807442e+02
1.600000e-07	-5.101100e-06	-4.252673e-09	-5.426095e+01	-2.803121e+02
1.700000e-07	-5.071298e-06	-4.317442e-09	-5.394395e+01	-2.798718e+02
1.800000e-07	-5.039755e-06	-4.258919e-09	-5.360842e+01	-2.794213e+02
1.900000e-07	-5.006138e-06	-4.245001e-09	-5.325084e+01	-2.789566e+02
2.000000e-07	-4.970871e-06	-4.285732e-09	-5.287570e+01	-2.784712e+02
2.100000e-07	-4.934136e-06	-4.211600e-09	-5.248494e+01	-2.779571e+02
2.200000e-07	-4.895605e-06	-4.225865e-09	-5.207508e+01	-2.774055e+02
2.300000e-07	-4.855195e-06	-4.240933e-09	-5.164524e+01	-2.768071e+02
2.400000e-07	-4.812881e-06	-4.193153e-09	-5.119514e+01	-2.761532e+02
2.500000e-07	-4.768795e-06	-4.205053e-09	-5.072619e+01	-2.754367e+02
2.600000e-07	-4.723021e-06	-4.177320e-09	-5.023928e+01	-2.746522e+02
2.700000e-07	-4.675347e-06	-4.161077e-09	-4.973217e+01	-2.737969e+02
2.800000e-07	-4.625538e-06	-4.168454e-09	-4.920235e+01	-2.728707e+02
2.900000e-07	-4.573792e-06	-4.131125e-09	-4.865192e+01	-2.718758e+02
3.000000e-07	-4.520401e-06	-4.110438e-09	-4.808400e+01	-2.708165e+02
3.100000e-07	-4.465480e-06	-4.118617e-09	-4.749979e+01	-2.696985e+02
3.200000e-07	-4.408876e-06	-4.093300e-09	-4.689770e+01	-2.685283e+02
3.300000e-07	-4.350493e-06	-4.053556e-09	-4.627667e+01	-2.673119e+02
3.400000e-07	-4.290623e-06	-4.054530e-09	-4.563982e+01	-2.660547e+02
3.500000e-07	-4.229347e-06	-4.042092e-09	-4.498803e+01	-2.647604e+02
3.600000e-07	-4.166640e-06	-3.993225e-09	-4.432101e+01	-2.634309e+02
3.700000e-07	-4.102465e-06	-3.995446e-09	-4.363836e+01	-2.620660e+02
3.800000e-07	-4.036585e-06	-3.984199e-09	-4.293760e+01	-2.606634e+02
3.900000e-07	-3.969125e-06	-3.936325e-09	-4.222001e+01	-2.592193e+02
4.000000e-07	-3.900284e-06	-3.921254e-09	-4.148775e+01	-2.577288e+02
4.100000e-07	-3.830163e-06	-3.907474e-09	-4.074186e+01	-2.561865e+02
4.200000e-07	-3.758889e-06	-3.884220e-09	-3.998371e+01	-2.545867e+02
4.300000e-07	-3.686251e-06	-3.843612e-09	-3.921105e+01	-2.529244e+02
4.400000e-07	-3.611910e-06	-3.825702e-09	-3.842028e+01	-2.511954e+02
4.500000e-07	-3.535957e-06	-3.802245e-09	-3.761236e+01	-2.493965e+02
4.600000e-07	-3.458664e-06	-3.765272e-09	-3.679019e+01	-2.475252e+02
4.700000e-07	-3.379970e-06	-3.741591e-09	-3.595311e+01	-2.455800e+02
4.800000e-07	-3.299860e-06	-3.719152e-09	-3.510097e+01	-2.435597e+02
4.900000e-07	-3.218547e-06	-3.684020e-09	-3.423603e+01	-2.414630e+02
5.000000e-07	-3.136140e-06	-3.638384e-09	-3.335947e+01	-2.392886e+02
5.100000e-07	-3.052795e-06	-3.612047e-09	-3.247291e+01	-2.370343e+02
5.200000e-07	-2.968651e-06	-3.582619e-09	-3.157787e+01	-2.346972e+02
5.300000e-07	-2.883564e-06	-3.536434e-09	-3.067279e+01	-2.322734e+02
5.400000e-07	-2.797442e-06	-3.489775e-09	-2.975669e+01	-2.297584e+02
5.500000e-07	-2.710431e-06	-3.457405e-09	-2.883115e+01	-2.271469e+02
5.600000e-07	-2.622589e-06	-3.421501e-09	-2.789677e+01	-2.244335e+02
5.700000e-07	-2.533613e-06	-3.375286e-09	-2.695032e+01	-2.216126e+02
5.800000e-07	-2.443373e-06	-3.328729e-09	-2.599042e+01	-2.186788e+02
5.900000e-07	-2.352187e-06	-3.284043e-09	-2.502046e+01	-2.156270e+02
6.000000e-07	-2.260348e-06	-3.236755e-09	-2.404357e+01	-2.124525e+02
6.100000e-07	-2.167894e-06	-3.187041e-09	-2.306012e+01	-2.091506e+02
6.200000e-07	-2.074697e-06	-3.135415e-09	-2.206878e+01	-2.057168e+02
6.300000e-07	-1.980682e-06	-3.072467e-09	-2.106873e+01	-2.021459e+02
6.400000e-07	-1.885978e-06	-3.011050e-09	-2.006135e+01	-1.984320e+02
6.500000e-07	-1.790734e-06	-2.956518e-09	-1.904824e+01	-1.945677e+02
6.600000e-07	-1.694960e-06	-2.900707e-09	-1.802947e+01	-1.905440e+02
6.700000e-07	-1.598461e-06	-2.831847e-09	-1.700300e+01	-1.863498e+02
6.800000e-07	-1.501137e-06	-2.758571e-09	-1.596775e+01	-1.819715e+02
6.900000e-07	-1.403147e-06	-2.691190e-09	-1.492543e+01	-1.773932e+02
7.000000e-07	-1.304560e-06	-2.621044e-09	-1.387674e+01	-1.725962e+02
7.100000e-07	-1.205473e-06	-2.541867e-09	-1.282275e+01	-1.675594e+02
7.200000e-07	-1.106041e-06	-2.457371e-09	-1.176508e+01	-1.622592e+02
7.300000e-07	-1.006318e-06	-2.374321e-09	-1.070431e+01	-1.566697e+02
7.400000e-07	-9.063550e-07	-2.284533e-09	-9.640996e+00	-1.507629e+02
7.500000e-07	-8.061508e-07	-2.187540e-09	-8.575113e+00	-1.445089e+02
7.600000e-07	-7.056647e-07	-2.085303e-09	-7.506232e+00	-1.378764e+02
7.700000e-07	-6.049132e-07	-1.976369e-09	-6.434528e+00	-1.308332e+02
7.800000e-07	-5.039463e-07	-1.859482e-09	-5.360531e+00	-1.233470e+02
7.900000e-07	-4.027734e-07	-1.736620e-09	-4.284344e+00	-1.153861e+02
8.000000e-07	-3.014063e-07	-1.610875e-09	-3.206092e+00	-1.069214e+02
8.100000e-07	-1.999343e-07	-1.475562e-09	-2.126723e+00	-9.792746e+01
8.200000e-07	-9.839932e-08	-1.329003e-09	-1.046684e+00	-8.838483e+01
8.300000e-07	3.141188e-09	-1.173082e-09	3.341316e-02	-7.828190e+01
8.400000e-07	1.046927e-07	-1.010171e-09	1.113628e+00	-6.761729e+01
8.500000e-07	2.062531e-07	-8.391303e-10	2.193937e+00	-5.640192e+01
8.600000e-07	3.077683e-07	-6.608733e-10	3.273765e+00	-4.466076e+01
8.700000e-07	4.091435e-07	-4.746340e-10	4.352103e+00	-3.243416e+01
8.800000e-07	5.102612e-07	-2.814420e-10	5.427704e+00	-1.977840e+01
8.900000e-07	6.111998e-07	-8.430608e-11	6.501399e+00	-6.765421e+00
9.000000e-07	7.119556e-07	1.164676e-10	7.573149e+00	6.518452e+00
9.100000e-07	8.124560e-07	3.216347e-10	8.642183e+00	1.997470e+01
9.200000e-07	9.127199e-07	5.296304e-10	9.708701e+00	3.349578e+01
9.300000e-07	1.012739e-06	7.330677e-10	1.077262e+01	4.696892e+01
9.400000e-07	1.112437e-06	9.333661e-10	1.183311e+01	6.028060e+01
9.500000e-07	1.211775e-06	1.131472e-09	1.288978e+01	7.332106e+01
9.600000e-07	1.310677e-06	1.327334e-09	1.394181e+01	8.598877e+01
9.700000e-07	1.409043e-06	1.514072e-09	1.498815e+01	9.819450e+01
9.800000e-07	1.506845e-06	1.689463e-09	1.602847e+01	1.098646e+02
9.900000e-07	1.604034e-06	1.857422e-09	1.706228e+01	1.209430e+02
1.000000e-06	1.700521e-06	2.016357e-09	1.808863e+01	1.313931e+02
1.010000e-06	1.796233e-06	2.167015e-09	1.910672e+01	1.411968e+02
1.020000e-06	1.891244e-06	2.307135e-09	2.011736e+01	1.503541e+02
1.030000e-06	1.985676e-06	2.436633e-09	2.112185e+01	1.588804e+02
1.040000e-06	2.079474e-06	2.554858e-09	2.211959e+01	1.668043e+02
1.050000e-06	2.172585e-06	2.663971e-09	2.311002e+01	1.741634e+02
1.060000e-06	2.265023e-06	2.768380e-09	2.409330e+01	1.810014e+02
1.070000e-06	2.356767e-06	2.864725e-09	2.506919e+01	1.873646e+02
1.080000e-06	2.447755e-06	2.952075e-09	2.603704e+01	1.932986e+02
1.090000e-06	2.537827e-06	3.034291e-09	2.699514e+01	1.988463e+02
1.100000e-06	2.626821e-06	3.115559e-09	2.794178e+01	2.040459e+02
1.110000e-06	2.714677e-06	3.191710e-09	2.887631e+01	2.089301e+02
1.120000e-06	2.801581e-06	3.260306e-09	2.980072e+01	2.135258e+02
1.130000e-06	2.887621e-06	3.325052e-09	3.071593e+01	2.178546e+02
1.140000e-06	2.972735e-06	3.386320e-09	3.162131e+01	2.219335e+02
1.150000e-06	3.056909e-06	3.443560e-09	3.251667e+01	2.257760e+02
1.160000e-06	3.140089e-06	3.498228e-09	3.340146e+01	2.293933e+02
1.170000e-06	3.222204e-06	3.549944e-09	3.427493e+01	2.327956e+02
1.180000e-06	3.303142e-06	3.596458e-09	3.513588e+01	2.359925e+02
1.190000e-06	3.382796e-06	3.640029e-09	3.598317e+01	2.389945e+02
1.200000e-06	3.461225e-06	3.680923e-09	3.681743e+01	2.418124e+02
1.210000e-06	3.538501e-06	3.720270e-09	3.763942e+01	2.444581e+02
1.220000e-06	3.614516e-06	3.756877e-09	3.844800e+01	2.469441e+02
1.230000e-06	3.689151e-06	3.791912e-09	3.924191e+01	2.492829e+02
1.240000e-06	3.762273e-06	3.824246e-09	4.001971e+01	2.514872e+02
1.250000e-06	3.833857e-06	3.855225e-09	4.078116e+01	2.535688e+02
1.260000e-06	3.904036e-06	3.884994e-09	4.152766e+01	2.555388e+02
1.270000e-06	3.972941e-06	3.911582e-09	4.226061e+01	2.574068e+02
1.280000e-06	4.040551e-06	3.935956e-09	4.297978e+01	2.591815e+02
1.290000e-06	4.106752e-06	3.959923e-09	4.368397e+01	2.608698e+02
1.300000e-06	4.171368e-06	3.986364e-09	4.437129e+01	2.624777e+02
1.310000e-06	4.234442e-06	4.010654e-09	4.504222e+01	2.640101e+02
1.320000e-06	4.296125e-06	4.031895e-09	4.569835e+01	2.654707e+02
1.330000e-06	4.356407e-06	4.051890e-09	4.633958e+01	2.668630e+02
1.340000e-06	4.415277e-06	4.072690e-09	4.696578e+01	2.681896e+02
1.350000e-06	4.472515e-06	4.093205e-09	4.757462e+01	2.694528e+02
1.360000e-06	4.527962e-06	4.111110e-09	4.816443e+01	2.706544e+02
1.370000e-06	4.581785e-06	4.127273e-09	4.873694e+01	2.717961e+02
1.380000e-06	4.633962e-06	4.143430e-09	4.929195e+01	2.728791e+02
1.390000e-06	4.684241e-06	4.158401e-09	4.982678e+01	2.739047e+02
1.400000e-06	4.732528e-06	4.172607e-09	5.034042e+01	2.748737e+02
1.410000e-06	4.778980e-06	4.186809e-09	5.083453e+01	2.757872e+02
1.420000e-06	4.823818e-06	4.200688e-09	5.131148e+01	2.766462e+02
1.430000e-06	4.867086e-06	4.213466e-09	5.177172e+01	2.774521e+02
1.440000e-06	4.908541e-06	4.225045e-09	5.221269e+01	2.782066e+02
1.450000e-06	4.948116e-06	4.237634e-09	5.263365e+01	2.789118e+02
1.460000e-06	4.986024e-06	4.249436e-09	5.303688e+01	2.795704e+02
1.470000e-06	5.022324e-06	4.258687e-09	5.342301e+01	2.801853e+02
1.480000e-06	5.056944e-06	4.266849e-09	5.379126e+01	2.807600e+02
1.490000e-06	5.089683e-06	4.274760e-09	5.413952e+01	2.812978e+02
1.500000e-06	5.120516e-06	4.281887e-09	5.446749e+01	2.818018e+02
1.510000e-06	5.149685e-06	4.288481e-09	5.477776e+01	2.822748e+02
1.520000e-06	5.177211e-06	4.296148e-09	5.507056e+01	2.827189e+02
1.530000e-06	5.202810e-06	4.304240e-09	5.534286e+01	2.831354e+02
1.540000e-06	5.226363e-06	4.311071e-09	5.559339e+01	2.835246e+02
1.550000e-06	5.248042e-06	4.317265e-09	5.582399e+01	2.838860e+02
1.560000e-06	5.268047e-06	4.324143e-09	5.603679e+01	2.842184e+02
1.570000e-06	5.286334e-06	4.329109e-09	5.623130e+01	2.845202e+02
1.580000e-06	5.302712e-06	4.332135e-09	5.640553e+01	2.847895e+02
1.590000e-06	5.317118e-06	4.335410e-09	5.655877e+01	2.850245e+02
1.600000e-06	5.329579e-06	4.339390e-09	5.669131e+01	2.852239e+02
1.610000e-06	5.339983e-06	4.343023e-09	5.680197e+01	2.853866e+02
1.620000e-06	5.348195e-06	4.343796e-09	5.688933e+01	2.855126e+02
1.630000e-06	5.354455e-06	4.344592e-09	5.695592e+01	2.856022e+02
1.640000e-06	5.358998e-06	4.347202e-09	5.700424e+01	2.856564e+02
1.650000e-06	5.361735e-06	4.350025e-09	5.703336e+01	2.856763e+02
1.660000e-06	5.362500e-06	4.349527e-09	5.704150e+01	2.856632e+02
1.670000e-06	5.361375e-06	4.347762e-09	5.702952e+01	2.856180e+02
1.680000e-06	5.358539e-06	4.345388e-09	5.699936e+01	2.855416e+02
1.690000e-06	5.354118e-06	4.342722e-09	5.695234e+01	2.854340e+02
1.700000e-06	5.347993e-06	4.340904e-09	5.688718e+01	2.852950e+02
1.710000e-06	5.339982e-06	4.338717e-09	5.680196e+01	2.851242e+02
1.720000e-06	5.330290e-06	4.336432e-09	5.669888e+01	2.849209e+02
1.730000e-06	5.318972e-06	4.334337e-09	5.657849e+01	2.846848e+02
1.740000e-06	5.305816e-06	4.316925e-09	5.643854e+01	2.844162e+02
1.750000e-06	5.290558e-06	4.319617e-09	5.627624e+01	2.841160e+02
1.760000e-06	5.272923e-06	4.297177e-09	5.608865e+01	2.837865e+02
1.770000e-06	5.252782e-06	4.281142e-09	5.587442e+01	2.834305e+02
1.780000e-06	5.230318e-06	4.316892e-09	5.563546e+01	2.830519e+02
1.790000e-06	5.206281e-06	4.288507e-09	5.537977e+01	2.826549e+02
1.800000e-06	5.181441e-06	4.294401e-09	5.511555e+01	2.822435e+02
1.810000e-06	5.155352e-06	4.335507e-09	5.483804e+01	2.818214e+02
1.820000e-06	5.127215e-06	4.237900e-09	5.453875e+01	2.813908e+02
1.830000e-06	5.097401e-06	4.271595e-09	5.422161e+01	2.809522e+02
1.840000e-06	5.066001e-06	4.299188e-09	5.388760e+01	2.805042e+02
1.850000e-06	5.032444e-06	4.210258e-09	5.353066e+01	2.800428e+02
1.860000e-06	4.997071e-06	4.296250e-09	5.315439e+01	2.795624e+02
1.870000e-06	4.960166e-06	4.275674e-09	5.276182e+01	2.790551e+02
1.880000e-06	4.921355e-06	4.194085e-09	5.234898e+01	2.785122e+02
1.890000e-06	4.880662e-06	4.264915e-09	5.191614e+01	2.779245e+02
1.900000e-06	4.838153e-06	4.241035e-09	5.146396e+01	2.772831e+02
1.910000e-06	4.794076e-06	4.222642e-09	5.099511e+01	2.765804e+02
1.920000e-06	4.748573e-06	4.230356e-09	5.051109e+01	2.758106e+02
1.930000e-06	4.701198e-06	4.170122e-09	5.000716e+01	2.749705e+02
1.940000e-06	4.651996e-06	4.211812e-09	4.948379e+01	2.740593e+02
1.950000e-06	4.601184e-06	4.173152e-09	4.894329e+01	2.730787e+02
1.960000e-06	4.548662e-06	4.139201e-09	4.838461e+01	2.720327e+02
1.970000e-06	4.494193e-06	4.157163e-09	4.780522e+01	2.709267e+02
1.980000e-06	4.437846e-06	4.113543e-09	4.720585e+01	2.697670e+02
1.990000e-06	4.379951e-06	4.100484e-09	4.659001e+01	2.685599e+02
2.000000e-06	4.320554e-06	4.075397e-09	4.595821e+01	2.673110e+02
2.010000e-06	4.259830e-06	4.085760e-09	4.531227e+01	2.660243e+02
2.020000e-06	4.197635e-06	4.043469e-09	4.465070e+01	2.647022e+02
2.030000e-06	4.133625e-06	3.993049e-09	4.396982e+01	2.633449e+02
2.040000e-06	4.067967e-06	4.022567e-09	4.327141e+01	2.619505e+02
2.050000e-06	4.000930e-06	3.985940e-09	4.255833e+01	2.605156e+02
2.060000e-06	3.932663e-06	3.959040e-09	4.183216e+01	2.590355e+02
2.070000e-06	3.862860e-06	3.932429e-09	4.108966e+01	2.575046e+02
2.080000e-06	3.791339e-06	3.910041e-09	4.032889e+01	2.559174e+02
2.090000e-06	3.718520e-06	3.886951e-09	3.955430e+01	2.542689e+02
2.100000e-06	3.644479e-06	3.842686e-09	3.876672e+01	2.525544e+02
2.110000e-06	3.569095e-06	3.843280e-09	3.796485e+01	2.507706e+02
2.120000e-06	3.492263e-06	3.801761e-09	3.714758e+01	2.489148e+02
2.130000e-06	3.413875e-06	3.751853e-09	3.631376e+01	2.469855e+02
2.140000e-06	3.334087e-06	3.732932e-09	3.546504e+01	2.449812e+02
2.150000e-06	3.253124e-06	3.722065e-09	3.460383e+01	2.429010e+02
2.160000e-06	3.171088e-06	3.687512e-09	3.373120e+01	2.407433e+02
2.170000e-06	3.088014e-06	3.629014e-09	3.284754e+01	2.385062e+02
2.180000e-06	3.003969e-06	3.607024e-09	3.195355e+01	2.361870e+02
2.190000e-06	2.918964e-06	3.579020e-09	3.104934e+01	2.337820e+02
2.200000e-06	2.832816e-06	3.535894e-09	3.013297e+01	2.312869e+02
2.210000e-06	2.745362e-06	3.492245e-09	2.920272e+01	2.286964e+02
2.220000e-06	2.656848e-06	3.451906e-09	2.826118e+01	2.260053e+02
2.230000e-06	2.567567e-06	3.407615e-09	2.731148e+01	2.232077e+02
2.240000e-06	2.477457e-06	3.359496e-09	2.635298e+01	2.202985e+02
2.250000e-06	2.386492e-06	3.325627e-09	2.538538e+01	2.172723e+02
2.260000e-06	2.294804e-06	3.273123e-09	2.441008e+01	2.141243e+02
2.270000e-06	2.202508e-06	3.212731e-09	2.342832e+01	2.108500e+02
2.280000e-06	2.109529e-06	3.166727e-09	2.243929e+01	2.074448e+02
2.290000e-06	2.015639e-06	3.127610e-09	2.144057e+01	2.039037e+02
2.300000e-06	1.920821e-06	3.070114e-09	2.043198e+01	2.002208e+02
2.310000e-06	1.825181e-06	2.999344e-09	1.941464e+01	1.963894e+02
2.320000e-06	1.728836e-06	2.940362e-09	1.838982e+01	1.924006e+02
2.330000e-06	1.631959e-06	2.883782e-09	1.735933e+01	1.882439e+02
2.340000e-06	1.534622e-06	2.820238e-09	1.632394e+01	1.839062e+02
2.350000e-06	1.436809e-06	2.749851e-09	1.528349e+01	1.793722e+02
2.360000e-06	1.338497e-06	2.679005e-09	1.423774e+01	1.746236e+02
2.370000e-06	1.239746e-06	2.603001e-09	1.318731e+01	1.696400e+02
2.380000e-06	1.140616e-06	2.522907e-09	1.213286e+01	1.643983e+02
2.390000e-06	1.041099e-06	2.442518e-09	1.107428e+01	1.588730e+02
2.400000e-06	9.413023e-07	2.353196e-09	1.001274e+01	1.530365e+02
2.410000e-06	8.412645e-07	2.254294e-09	8.948622e+00	1.468594e+02
2.420000e-06	7.409447e-07	2.153188e-09	7.881510e+00	1.403106e+02
2.430000e-06	6.403784e-07	2.054323e-09	6.811775e+00	1.333580e+02
2.440000e-06	5.395866e-07	1.946630e-09	5.739642e+00	1.259693e+02
2.450000e-06	4.386125e-07	1.822157e-09	4.665569e+00	1.181126e+02
2.460000e-06	3.375088e-07	1.691522e-09	3.590118e+00	1.097580e+02
2.470000e-06	2.362993e-07	1.559949e-09	2.513542e+00	1.008793e+02
2.480000e-06	1.349651e-07	1.420744e-09	1.435639e+00	9.145542e+01
2.490000e-06	3.352504e-08	1.269886e-09	3.566095e-01	8.147295e+01
2.500000e-06	-6.787151e-08	1.107354e-09	-7.219566e-01	7.092814e+01
2.510000e-06	-1.691450e-07	9.335532e-10	-1.799214e+00	5.982909e+01
2.520000e-06	-2.703114e-07	7.529758e-10	-2.875332e+00	4.819764e+01
2.530000e-06	-3.713714e-07	5.709094e-10	-3.950318e+00	3.607077e+01
2.540000e-06	-4.723050e-07	3.812837e-10	-5.023959e+00	2.350133e+01
2.550000e-06	-5.730969e-07	1.778904e-10	-6.096094e+00	1.055799e+01
2.560000e-06	-6.736737e-07	-2.802737e-11	-7.165941e+00	-2.675852e+00
2.570000e-06	-7.739517e-07	-2.285917e-10	-8.232609e+00	-1.610407e+01
2.580000e-06	-8.739228e-07	-4.303587e-10	-9.296011e+00	-2.962073e+01
2.590000e-06	-9.736058e-07	-6.385484e-10	-1.035635e+01	-4.311385e+01
2.600000e-06	-1.072974e-06	-8.470032e-10	-1.141334e+01	-5.646967e+01
2.610000e-06	-1.172035e-06	-1.047527e-09	-1.246707e+01	-6.957723e+01
2.620000e-06	-1.270738e-06	-1.240370e-09	-1.351698e+01	-8.233291e+01
2.630000e-06	-1.368972e-06	-1.427528e-09	-1.456190e+01	-9.464451e+01
2.640000e-06	-1.466703e-06	-1.610307e-09	-1.560148e+01	-1.064348e+02
2.650000e-06	-1.563965e-06	-1.785015e-09	-1.663607e+01	-1.176439e+02
2.660000e-06	-1.660808e-06	-1.945886e-09	-1.766619e+01	-1.282309e+02
2.670000e-06	-1.757193e-06	-2.094041e-09	-1.869145e+01	-1.381738e+02
2.680000e-06	-1.852990e-06	-2.234946e-09	-1.971046e+01	-1.474688e+02
2.690000e-06	-1.948039e-06	-2.369978e-09	-2.072150e+01	-1.561285e+02
2.700000e-06	-2.042299e-06	-2.496538e-09	-2.172416e+01	-1.641786e+02
2.710000e-06	-2.135683e-06	-2.612025e-09	-2.271749e+01	-1.716553e+02
2.720000e-06	-2.228156e-06	-2.717677e-09	-2.370114e+01	-1.786013e+02
2.730000e-06	-2.319855e-06	-2.817576e-09	-2.467655e+01	-1.850624e+02
2.740000e-06	-2.410726e-06	-2.911877e-09	-2.564316e+01	-1.910847e+02
2.750000e-06	-2.500723e-06	-2.998767e-09	-2.660047e+01	-1.967119e+02
2.760000e-06	-2.589928e-06	-3.077438e-09	-2.754934e+01	-2.019832e+02
2.770000e-06	-2.678347e-06	-3.151993e-09	-2.848986e+01	-2.069326e+02
2.780000e-06	-2.765865e-06	-3.223881e-09	-2.942080e+01	-2.115883e+02
2.790000e-06	-2.852261e-06	-3.291504e-09	-3.033981e+01	-2.159729e+02
2.800000e-06	-2.937485e-06	-3.355457e-09	-3.124635e+01	-2.201042e+02
2.810000e-06	-3.021668e-06	-3.415887e-09	-3.214181e+01	-2.239964e+02
2.820000e-06	-3.104902e-06	-3.472347e-09	-3.302718e+01	-2.276612e+02
2.830000e-06	-3.187130e-06	-3.526438e-09	-3.390185e+01	-2.311088e+02
2.840000e-06	-3.268331e-06	-3.579908e-09	-3.476560e+01	-2.343490e+02
2.850000e-06	-3.348416e-06	-3.629686e-09	-3.561746e+01	-2.373920e+02
2.860000e-06	-3.427174e-06	-3.673082e-09	-3.645522e+01	-2.402485e+02
2.870000e-06	-3.504536e-06	-3.712850e-09	-3.727813e+01	-2.429302e+02
2.880000e-06	-3.580475e-06	-3.752519e-09	-3.808590e+01	-2.454494e+02
2.890000e-06	-3.655050e-06	-3.789813e-09	-3.887916e+01	-2.478188e+02
2.900000e-06	-3.728318e-06	-3.823547e-09	-3.965853e+01	-2.500510e+02
2.910000e-06	-3.800267e-06	-3.855916e-09	-4.042385e+01	-2.521580e+02
2.920000e-06	-3.870777e-06	-3.887942e-09	-4.117388e+01	-2.541511e+02
2.930000e-06	-3.939774e-06	-3.919719e-09	-4.190780e+01	-2.560404e+02
2.940000e-06	-4.007353e-06	-3.950755e-09	-4.262665e+01	-2.578345e+02
