# Temperatura_=_20.0
# Concentracion g/m^3_=_9000.0
# C_Vs_to_Am_M_A/Vsm_=_65563218390.804596
# pendiente_HvsI_1/m_=_3716.3
# ordenada_HvsI_A/m_=_1297.0
# frecuencia_Hz_=_300879.89553154557

Tiempo_(s)	Campo_(V.s)	Magnetizacion_(V.s)	Campo_(kA/m)	Magnetizacion_(A/m)
0.000000e+00	-5.352271e-06	-1.641091e-09	-5.679739e+01	-1.046821e+02
1.000000e-08	-5.351096e-06	-1.640401e-09	-5.678492e+01	-1.046648e+02
2.000000e-08	-5.348022e-06	-1.638747e-09	-5.675230e+01	-1.046090e+02
3.000000e-08	-5.343298e-06	-1.637392e-09	-5.670218e+01	-1.045144e+02
4.000000e-08	-5.336952e-06	-1.636672e-09	-5.663482e+01	-1.043848e+02
5.000000e-08	-5.328916e-06	-1.635030e-09	-5.654955e+01	-1.042283e+02
6.000000e-08	-5.318892e-06	-1.630214e-09	-5.644318e+01	-1.040567e+02
7.000000e-08	-5.306889e-06	-1.622770e-09	-5.631581e+01	-1.038844e+02
8.000000e-08	-5.293024e-06	-1.616859e-09	-5.616867e+01	-1.037273e+02
9.000000e-08	-5.276996e-06	-1.619586e-09	-5.599859e+01	-1.036002e+02
1.000000e-07	-5.258839e-06	-1.608504e-09	-5.580591e+01	-1.035157e+02
1.100000e-07	-5.238795e-06	-1.604588e-09	-5.559320e+01	-1.034819e+02
1.200000e-07	-5.216864e-06	-1.613923e-09	-5.536048e+01	-1.035016e+02
1.300000e-07	-5.193230e-06	-1.605425e-09	-5.510967e+01	-1.035711e+02
1.400000e-07	-5.167990e-06	-1.613314e-09	-5.484183e+01	-1.036802e+02
1.500000e-07	-5.141162e-06	-1.627230e-09	-5.455713e+01	-1.038133e+02
1.600000e-07	-5.112789e-06	-1.571784e-09	-5.425605e+01	-1.039502e+02
1.700000e-07	-5.082900e-06	-1.588108e-09	-5.393887e+01	-1.040685e+02
1.800000e-07	-5.051281e-06	-1.600245e-09	-5.360334e+01	-1.041457e+02
1.900000e-07	-5.017549e-06	-1.563168e-09	-5.324537e+01	-1.041613e+02
2.000000e-07	-4.982210e-06	-1.596369e-09	-5.287036e+01	-1.040993e+02
2.100000e-07	-4.945406e-06	-1.557949e-09	-5.247980e+01	-1.039496e+02
2.200000e-07	-4.906743e-06	-1.535243e-09	-5.206952e+01	-1.037087e+02
2.300000e-07	-4.866240e-06	-1.577632e-09	-5.163971e+01	-1.033805e+02
2.400000e-07	-4.823800e-06	-1.551550e-09	-5.118935e+01	-1.029751e+02
2.500000e-07	-4.779540e-06	-1.538548e-09	-5.071966e+01	-1.025080e+02
2.600000e-07	-4.733573e-06	-1.549451e-09	-5.023187e+01	-1.019978e+02
2.700000e-07	-4.685692e-06	-1.511481e-09	-4.972376e+01	-1.014642e+02
2.800000e-07	-4.635766e-06	-1.524952e-09	-4.919397e+01	-1.009261e+02
2.900000e-07	-4.583945e-06	-1.535648e-09	-4.864405e+01	-1.003990e+02
3.000000e-07	-4.530411e-06	-1.513562e-09	-4.807595e+01	-9.989402e+01
3.100000e-07	-4.475295e-06	-1.497839e-09	-4.749107e+01	-9.941680e+01
3.200000e-07	-4.418515e-06	-1.504750e-09	-4.688853e+01	-9.896728e+01
3.300000e-07	-4.359971e-06	-1.506083e-09	-4.626727e+01	-9.854027e+01
3.400000e-07	-4.299898e-06	-1.474721e-09	-4.562979e+01	-9.812653e+01
3.500000e-07	-4.238436e-06	-1.479262e-09	-4.497756e+01	-9.771428e+01
3.600000e-07	-4.175563e-06	-1.469505e-09	-4.431036e+01	-9.729092e+01
3.700000e-07	-4.111127e-06	-1.451118e-09	-4.362658e+01	-9.684468e+01
3.800000e-07	-4.045079e-06	-1.455807e-09	-4.292570e+01	-9.636609e+01
3.900000e-07	-3.977518e-06	-1.447730e-09	-4.220874e+01	-9.584890e+01
4.000000e-07	-3.908499e-06	-1.429499e-09	-4.147633e+01	-9.529059e+01
4.100000e-07	-3.838199e-06	-1.418267e-09	-4.073031e+01	-9.469221e+01
4.200000e-07	-3.766751e-06	-1.421187e-09	-3.997212e+01	-9.405778e+01
4.300000e-07	-3.693932e-06	-1.413087e-09	-3.919938e+01	-9.339328e+01
4.400000e-07	-3.619426e-06	-1.394030e-09	-3.840873e+01	-9.270542e+01
4.500000e-07	-3.543325e-06	-1.380987e-09	-3.760116e+01	-9.200035e+01
4.600000e-07	-3.465875e-06	-1.375650e-09	-3.677928e+01	-9.128258e+01
4.700000e-07	-3.387063e-06	-1.373889e-09	-3.594294e+01	-9.055420e+01
4.800000e-07	-3.306877e-06	-1.356805e-09	-3.509202e+01	-8.981448e+01
4.900000e-07	-3.225417e-06	-1.332513e-09	-3.422758e+01	-8.905992e+01
5.000000e-07	-3.142878e-06	-1.328646e-09	-3.335169e+01	-8.828474e+01
5.100000e-07	-3.059429e-06	-1.323159e-09	-3.246614e+01	-8.748166e+01
5.200000e-07	-2.975062e-06	-1.306547e-09	-3.157086e+01	-8.664289e+01
5.300000e-07	-2.889680e-06	-1.286326e-09	-3.066480e+01	-8.576112e+01
5.400000e-07	-2.803309e-06	-1.269273e-09	-2.974823e+01	-8.483043e+01
5.500000e-07	-2.716108e-06	-1.256566e-09	-2.882288e+01	-8.384688e+01
5.600000e-07	-2.627988e-06	-1.243002e-09	-2.788777e+01	-8.280884e+01
5.700000e-07	-2.538712e-06	-1.227258e-09	-2.694038e+01	-8.171693e+01
5.800000e-07	-2.448266e-06	-1.203387e-09	-2.598058e+01	-8.057356e+01
5.900000e-07	-2.356914e-06	-1.186585e-09	-2.501117e+01	-7.938231e+01
6.000000e-07	-2.264908e-06	-1.175710e-09	-2.403482e+01	-7.814710e+01
6.100000e-07	-2.172242e-06	-1.162870e-09	-2.305147e+01	-7.687129e+01
6.200000e-07	-2.078787e-06	-1.135857e-09	-2.205973e+01	-7.555697e+01
6.300000e-07	-1.984569e-06	-1.104094e-09	-2.105991e+01	-7.420439e+01
6.400000e-07	-1.889762e-06	-1.085444e-09	-2.005384e+01	-7.281166e+01
6.500000e-07	-1.794381e-06	-1.068242e-09	-1.904167e+01	-7.137473e+01
6.600000e-07	-1.698324e-06	-1.042258e-09	-1.802232e+01	-6.988767e+01
6.700000e-07	-1.601461e-06	-1.010742e-09	-1.699443e+01	-6.834303e+01
6.800000e-07	-1.503807e-06	-9.860005e-10	-1.595814e+01	-6.673243e+01
6.900000e-07	-1.405530e-06	-9.640843e-10	-1.491525e+01	-6.504703e+01
7.000000e-07	-1.306782e-06	-9.393341e-10	-1.386735e+01	-6.327796e+01
7.100000e-07	-1.207570e-06	-9.084211e-10	-1.281453e+01	-6.141654e+01
7.200000e-07	-1.107955e-06	-8.747394e-10	-1.175743e+01	-5.945433e+01
7.300000e-07	-1.008106e-06	-8.448372e-10	-1.069785e+01	-5.738299e+01
7.400000e-07	-9.080279e-07	-8.163706e-10	-9.635838e+00	-5.519394e+01
7.500000e-07	-8.076175e-07	-7.833757e-10	-8.570300e+00	-5.287810e+01
7.600000e-07	-7.067919e-07	-7.414136e-10	-7.500355e+00	-5.042552e+01
7.700000e-07	-6.056611e-07	-6.981772e-10	-6.427173e+00	-4.782526e+01
7.800000e-07	-5.043400e-07	-6.575278e-10	-5.351970e+00	-4.506552e+01
7.900000e-07	-4.028950e-07	-6.153950e-10	-4.275453e+00	-4.213404e+01
8.000000e-07	-3.013268e-07	-5.666055e-10	-3.197629e+00	-3.901876e+01
8.100000e-07	-1.996109e-07	-5.154159e-10	-2.118237e+00	-3.570888e+01
8.200000e-07	-9.781802e-08	-4.638310e-10	-1.038028e+00	-3.219598e+01
8.300000e-07	3.983081e-09	-4.079142e-10	4.226777e-02	-2.847530e+01
8.400000e-07	1.057575e-07	-3.473542e-10	1.122281e+00	-2.454689e+01
8.500000e-07	2.075512e-07	-2.836559e-10	2.202498e+00	-2.041662e+01
8.600000e-07	3.092844e-07	-2.192793e-10	3.282073e+00	-1.609683e+01
8.700000e-07	4.108268e-07	-1.502584e-10	4.359624e+00	-1.160649e+01
8.800000e-07	5.122075e-07	-8.020877e-11	5.435459e+00	-6.970990e+00
8.900000e-07	6.134560e-07	-1.209439e-11	6.509890e+00	-2.221396e+00
9.000000e-07	7.144976e-07	5.735295e-11	7.582127e+00	2.606718e+00
9.100000e-07	8.152304e-07	1.319880e-10	8.651087e+00	7.474727e+00
9.200000e-07	9.156263e-07	2.080426e-10	9.716471e+00	1.234263e+01
9.300000e-07	1.015743e-06	2.799768e-10	1.077889e+01	1.717075e+01
9.400000e-07	1.115583e-06	3.506989e-10	1.183838e+01	2.192138e+01
9.500000e-07	1.215072e-06	4.215736e-10	1.289414e+01	2.656016e+01
9.600000e-07	1.314166e-06	4.919734e-10	1.394571e+01	3.105717e+01
9.700000e-07	1.412838e-06	5.578084e-10	1.499280e+01	3.538767e+01
9.800000e-07	1.511064e-06	6.192712e-10	1.603516e+01	3.953248e+01
9.900000e-07	1.608610e-06	6.773742e-10	1.707029e+01	4.347793e+01
1.000000e-06	1.705283e-06	7.324812e-10	1.809618e+01	4.721565e+01
1.010000e-06	1.801152e-06	7.863761e-10	1.911352e+01	5.074200e+01
1.020000e-06	1.896389e-06	8.380867e-10	2.012416e+01	5.405744e+01
1.030000e-06	1.991104e-06	8.848761e-10	2.112926e+01	5.716587e+01
1.040000e-06	2.085159e-06	9.268618e-10	2.212735e+01	6.007389e+01
1.050000e-06	2.178459e-06	9.674618e-10	2.311744e+01	6.279016e+01
1.060000e-06	2.271025e-06	1.006952e-09	2.409973e+01	6.532481e+01
1.070000e-06	2.362907e-06	1.042443e-09	2.507477e+01	6.768895e+01
1.080000e-06	2.454137e-06	1.072586e-09	2.604289e+01	6.989427e+01
1.090000e-06	2.544538e-06	1.102439e-09	2.700220e+01	7.195257e+01
1.100000e-06	2.633816e-06	1.132339e-09	2.794961e+01	7.387556e+01
1.110000e-06	2.721876e-06	1.160175e-09	2.888409e+01	7.567443e+01
1.120000e-06	2.808958e-06	1.185760e-09	2.980819e+01	7.735971e+01
1.130000e-06	2.895225e-06	1.208421e-09	3.072364e+01	7.894098e+01
1.140000e-06	2.980568e-06	1.229527e-09	3.162928e+01	8.042673e+01
1.150000e-06	3.064945e-06	1.250140e-09	3.252467e+01	8.182432e+01
1.160000e-06	3.148416e-06	1.270740e-09	3.341046e+01	8.314000e+01
1.170000e-06	3.230885e-06	1.289237e-09	3.428560e+01	8.437899e+01
1.180000e-06	3.312083e-06	1.303973e-09	3.514726e+01	8.554574e+01
1.190000e-06	3.392006e-06	1.317909e-09	3.599539e+01	8.664423e+01
1.200000e-06	3.470724e-06	1.332723e-09	3.683074e+01	8.767822e+01
1.210000e-06	3.548187e-06	1.346594e-09	3.765275e+01	8.865163e+01
1.220000e-06	3.624408e-06	1.359409e-09	3.846160e+01	8.956872e+01
1.230000e-06	3.699310e-06	1.371774e-09	3.925644e+01	9.043427e+01
1.240000e-06	3.772616e-06	1.383139e-09	4.003436e+01	9.125356e+01
1.250000e-06	3.844328e-06	1.394728e-09	4.079536e+01	9.203224e+01
1.260000e-06	3.914693e-06	1.406323e-09	4.154206e+01	9.277604e+01
1.270000e-06	3.983687e-06	1.416737e-09	4.227421e+01	9.349043e+01
1.280000e-06	4.051398e-06	1.425145e-09	4.299275e+01	9.418016e+01
1.290000e-06	4.117758e-06	1.433079e-09	4.369695e+01	9.484892e+01
1.300000e-06	4.182408e-06	1.443582e-09	4.438300e+01	9.549903e+01
1.310000e-06	4.245494e-06	1.454029e-09	4.505246e+01	9.613126e+01
1.320000e-06	4.307228e-06	1.462079e-09	4.570757e+01	9.674486e+01
1.330000e-06	4.367574e-06	1.468932e-09	4.634795e+01	9.733781e+01
1.340000e-06	4.426604e-06	1.476969e-09	4.697437e+01	9.790716e+01
1.350000e-06	4.484029e-06	1.484728e-09	4.758375e+01	9.844959e+01
1.360000e-06	4.539626e-06	1.490530e-09	4.817374e+01	9.896193e+01
1.370000e-06	4.593610e-06	1.495546e-09	4.874661e+01	9.944175e+01
1.380000e-06	4.645963e-06	1.500213e-09	4.930217e+01	9.988774e+01
1.390000e-06	4.696315e-06	1.505284e-09	4.983649e+01	1.003000e+02
1.400000e-06	4.744577e-06	1.511478e-09	5.034865e+01	1.006803e+02
1.410000e-06	4.791041e-06	1.516688e-09	5.084171e+01	1.010313e+02
1.420000e-06	4.835894e-06	1.521174e-09	5.131769e+01	1.013569e+02
1.430000e-06	4.879256e-06	1.526515e-09	5.177784e+01	1.016614e+02
1.440000e-06	4.920814e-06	1.531739e-09	5.221884e+01	1.019488e+02
1.450000e-06	4.960447e-06	1.535230e-09	5.263942e+01	1.022224e+02
1.460000e-06	4.998411e-06	1.536691e-09	5.304229e+01	1.024844e+02
1.470000e-06	5.034770e-06	1.537687e-09	5.342812e+01	1.027356e+02
1.480000e-06	5.069452e-06	1.539664e-09	5.379616e+01	1.029756e+02
1.490000e-06	5.102168e-06	1.543310e-09	5.414335e+01	1.032027e+02
1.500000e-06	5.133012e-06	1.546441e-09	5.447065e+01	1.034145e+02
1.510000e-06	5.162182e-06	1.547525e-09	5.478019e+01	1.036087e+02
1.520000e-06	5.189742e-06	1.547995e-09	5.507266e+01	1.037833e+02
1.530000e-06	5.215405e-06	1.549380e-09	5.534499e+01	1.039375e+02
1.540000e-06	5.238959e-06	1.550498e-09	5.559494e+01	1.040718e+02
1.550000e-06	5.260677e-06	1.551565e-09	5.582541e+01	1.041884e+02
1.560000e-06	5.280727e-06	1.552921e-09	5.603817e+01	1.042905e+02
1.570000e-06	5.299046e-06	1.553417e-09	5.623258e+01	1.043825e+02
1.580000e-06	5.315453e-06	1.554315e-09	5.640668e+01	1.044690e+02
1.590000e-06	5.329923e-06	1.556376e-09	5.656024e+01	1.045537e+02
1.600000e-06	5.342476e-06	1.557718e-09	5.669344e+01	1.046392e+02
1.610000e-06	5.352899e-06	1.557934e-09	5.680405e+01	1.047260e+02
1.620000e-06	5.361095e-06	1.557987e-09	5.689103e+01	1.048121e+02
1.630000e-06	5.367340e-06	1.557348e-09	5.695730e+01	1.048934e+02
1.640000e-06	5.371875e-06	1.556646e-09	5.700543e+01	1.049633e+02
1.650000e-06	5.374606e-06	1.556660e-09	5.703441e+01	1.050142e+02
1.660000e-06	5.375275e-06	1.556053e-09	5.704150e+01	1.050384e+02
1.670000e-06	5.374048e-06	1.553725e-09	5.702848e+01	1.050290e+02
1.680000e-06	5.371208e-06	1.553182e-09	5.699835e+01	1.049817e+02
1.690000e-06	5.366812e-06	1.553334e-09	5.695170e+01	1.048952e+02
1.700000e-06	5.360613e-06	1.553150e-09	5.688591e+01	1.047726e+02
1.710000e-06	5.352496e-06	1.551938e-09	5.679978e+01	1.046210e+02
1.720000e-06	5.342706e-06	1.550892e-09	5.669589e+01	1.044515e+02
1.730000e-06	5.331304e-06	1.555968e-09	5.657490e+01	1.042781e+02
1.740000e-06	5.318141e-06	1.559241e-09	5.643521e+01	1.041165e+02
1.750000e-06	5.302913e-06	1.560568e-09	5.627361e+01	1.039818e+02
1.760000e-06	5.285268e-06	1.566528e-09	5.608637e+01	1.038873e+02
1.770000e-06	5.265054e-06	1.551034e-09	5.587185e+01	1.038423e+02
1.780000e-06	5.242439e-06	1.544955e-09	5.563187e+01	1.038507e+02
1.790000e-06	5.218269e-06	1.545498e-09	5.537538e+01	1.039101e+02
1.800000e-06	5.193375e-06	1.516679e-09	5.511121e+01	1.040119e+02
1.810000e-06	5.167225e-06	1.574571e-09	5.483371e+01	1.041415e+02
1.820000e-06	5.139055e-06	1.592240e-09	5.453478e+01	1.042794e+02
1.830000e-06	5.109146e-06	1.574651e-09	5.421739e+01	1.044037e+02
1.840000e-06	5.077526e-06	1.621334e-09	5.388185e+01	1.044915e+02
1.850000e-06	5.043751e-06	1.586156e-09	5.352343e+01	1.045219e+02
1.860000e-06	5.008222e-06	1.582521e-09	5.314640e+01	1.044777e+02
1.870000e-06	4.971151e-06	1.649390e-09	5.275301e+01	1.043473e+02
1.880000e-06	4.932166e-06	1.624335e-09	5.233931e+01	1.041259e+02
1.890000e-06	4.891395e-06	1.618896e-09	5.190665e+01	1.038157e+02
1.900000e-06	4.848856e-06	1.593202e-09	5.145523e+01	1.034258e+02
1.910000e-06	4.804760e-06	1.541127e-09	5.098730e+01	1.029704e+02
1.920000e-06	4.759198e-06	1.600396e-09	5.050381e+01	1.024678e+02
1.930000e-06	4.711729e-06	1.564113e-09	5.000007e+01	1.019377e+02
1.940000e-06	4.662434e-06	1.531117e-09	4.947696e+01	1.013991e+02
1.950000e-06	4.611490e-06	1.567024e-09	4.893635e+01	1.008686e+02
1.960000e-06	4.558775e-06	1.551221e-09	4.837695e+01	1.003582e+02
1.970000e-06	4.504081e-06	1.537917e-09	4.779654e+01	9.987490e+01
1.980000e-06	4.447595e-06	1.509993e-09	4.719712e+01	9.941975e+01
1.990000e-06	4.389667e-06	1.528669e-09	4.658240e+01	9.898861e+01
2.000000e-06	4.330216e-06	1.528528e-09	4.595151e+01	9.857299e+01
2.010000e-06	4.269314e-06	1.498167e-09	4.530524e+01	9.816152e+01
2.020000e-06	4.206887e-06	1.522680e-09	4.464277e+01	9.774161e+01
2.030000e-06	4.142717e-06	1.489491e-09	4.396181e+01	9.730120e+01
2.040000e-06	4.076970e-06	1.482401e-09	4.326412e+01	9.683022e+01
2.050000e-06	4.009803e-06	1.492859e-09	4.255135e+01	9.632167e+01
2.060000e-06	3.941321e-06	1.485510e-09	4.182463e+01	9.577223e+01
2.070000e-06	3.871230e-06	1.478657e-09	4.108083e+01	9.518221e+01
2.080000e-06	3.799461e-06	1.437519e-09	4.031923e+01	9.455508e+01
2.090000e-06	3.726425e-06	1.450940e-09	3.954419e+01	9.389650e+01
2.100000e-06	3.652171e-06	1.455786e-09	3.875622e+01	9.321312e+01
2.110000e-06	3.576542e-06	1.433888e-09	3.795366e+01	9.251132e+01
2.120000e-06	3.499357e-06	1.400535e-09	3.713458e+01	9.179603e+01
2.130000e-06	3.420687e-06	1.389339e-09	3.629975e+01	9.106993e+01
2.140000e-06	3.340700e-06	1.411493e-09	3.545094e+01	9.033287e+01
2.150000e-06	3.259511e-06	1.387757e-09	3.458938e+01	8.958194e+01
2.160000e-06	3.177279e-06	1.371395e-09	3.371675e+01	8.881178e+01
2.170000e-06	3.094015e-06	1.359397e-09	3.283316e+01	8.801537e+01
2.180000e-06	3.009776e-06	1.347358e-09	3.193923e+01	8.718492e+01
2.190000e-06	2.924486e-06	1.336894e-09	3.103415e+01	8.631296e+01
2.200000e-06	2.838008e-06	1.324624e-09	3.011645e+01	8.539319e+01
2.210000e-06	2.750352e-06	1.310851e-09	2.918627e+01	8.442121e+01
2.220000e-06	2.661717e-06	1.280525e-09	2.824569e+01	8.339490e+01
2.230000e-06	2.572281e-06	1.269908e-09	2.729661e+01	8.231441e+01
2.240000e-06	2.481969e-06	1.264770e-09	2.633823e+01	8.118183e+01
2.250000e-06	2.390806e-06	1.246475e-09	2.537083e+01	8.000054e+01
2.260000e-06	2.298952e-06	1.214514e-09	2.439608e+01	7.877447e+01
2.270000e-06	2.206444e-06	1.196409e-09	2.341441e+01	7.750716e+01
2.280000e-06	2.113095e-06	1.190811e-09	2.242380e+01	7.620103e+01
2.290000e-06	2.018819e-06	1.170133e-09	2.142336e+01	7.485676e+01
2.300000e-06	1.923683e-06	1.143188e-09	2.041380e+01	7.347294e+01
2.310000e-06	1.827780e-06	1.119906e-09	1.939609e+01	7.204595e+01
2.320000e-06	1.731234e-06	1.100418e-09	1.837156e+01	7.057024e+01
2.330000e-06	1.634204e-06	1.078294e-09	1.734190e+01	6.903866e+01
2.340000e-06	1.536741e-06	1.056002e-09	1.630763e+01	6.744296e+01
2.350000e-06	1.438713e-06	1.030745e-09	1.526738e+01	6.577437e+01
2.360000e-06	1.340121e-06	1.003462e-09	1.422114e+01	6.402400e+01
2.370000e-06	1.241152e-06	9.774216e-10	1.317089e+01	6.218312e+01
2.380000e-06	1.141846e-06	9.506633e-10	1.211707e+01	6.024324e+01
2.390000e-06	1.042180e-06	9.180976e-10	1.105944e+01	5.819602e+01
2.400000e-06	9.422454e-07	8.799110e-10	9.998948e+00	5.603297e+01
2.410000e-06	8.420169e-07	8.453387e-10	8.935340e+00	5.374514e+01
2.420000e-06	7.414574e-07	8.132248e-10	7.868220e+00	5.132277e+01
2.430000e-06	6.406759e-07	7.742759e-10	6.798744e+00	4.875516e+01
2.440000e-06	5.397390e-07	7.299439e-10	5.727619e+00	4.603065e+01
2.450000e-06	4.385730e-07	6.868454e-10	4.654062e+00	4.313703e+01
2.460000e-06	3.371549e-07	6.410230e-10	3.577830e+00	4.006214e+01
2.470000e-06	2.356414e-07	5.891290e-10	2.500587e+00	3.679481e+01
2.480000e-06	1.341346e-07	5.359242e-10	1.423413e+00	3.332599e+01
2.490000e-06	3.254503e-08	4.835072e-10	3.453623e-01	2.965003e+01
2.500000e-06	-6.911278e-08	4.232683e-10	-7.334131e-01	2.576588e+01
2.510000e-06	-1.706804e-07	3.548075e-10	-1.811231e+00	2.167809e+01
2.520000e-06	-2.720967e-07	2.884241e-10	-2.887444e+00	1.739757e+01
2.530000e-06	-3.734403e-07	2.238078e-10	-3.962885e+00	1.294188e+01
2.540000e-06	-4.746979e-07	1.524735e-10	-5.037413e+00	8.335081e+00
2.550000e-06	-5.756424e-07	7.476954e-11	-6.108620e+00	3.607106e+00
2.560000e-06	-6.762510e-07	-8.022933e-14	-7.176261e+00	-1.207323e+00
2.570000e-06	-7.766595e-07	-7.160794e-11	-8.241779e+00	-6.070099e+00
2.580000e-06	-8.768266e-07	-1.441825e-10	-9.304735e+00	-1.094137e+01
2.590000e-06	-9.767259e-07	-2.189717e-10	-1.036485e+01	-1.578125e+01
2.600000e-06	-1.076381e-06	-2.953433e-10	-1.142238e+01	-2.055148e+01
2.610000e-06	-1.175682e-06	-3.696659e-10	-1.247613e+01	-2.521688e+01
2.620000e-06	-1.274555e-06	-4.385648e-10	-1.352537e+01	-2.974650e+01
2.630000e-06	-1.373048e-06	-5.027901e-10	-1.457055e+01	-3.411446e+01
2.640000e-06	-1.471086e-06	-5.682579e-10	-1.561091e+01	-3.830036e+01
2.650000e-06	-1.568601e-06	-6.326255e-10	-1.664573e+01	-4.228939e+01
2.660000e-06	-1.665601e-06	-6.900717e-10	-1.767507e+01	-4.607205e+01
2.670000e-06	-1.762158e-06	-7.428324e-10	-1.869972e+01	-4.964375e+01
2.680000e-06	-1.858277e-06	-7.954425e-10	-1.971972e+01	-5.300413e+01
2.690000e-06	-1.953675e-06	-8.474732e-10	-2.073207e+01	-5.615642e+01
2.700000e-06	-2.048130e-06	-8.940911e-10	-2.173440e+01	-5.910668e+01
2.710000e-06	-2.141624e-06	-9.342189e-10	-2.272655e+01	-6.186320e+01
2.720000e-06	-2.234236e-06	-9.716544e-10	-2.370933e+01	-6.443582e+01
2.730000e-06	-2.326114e-06	-1.009093e-09	-2.468432e+01	-6.683551e+01
2.740000e-06	-2.417237e-06	-1.045175e-09	-2.565131e+01	-6.907383e+01
2.750000e-06	-2.507452e-06	-1.077652e-09	-2.660865e+01	-7.116261e+01
2.760000e-06	-2.596785e-06	-1.106392e-09	-2.755665e+01	-7.311360e+01
2.770000e-06	-2.685360e-06	-1.134556e-09	-2.849658e+01	-7.493813e+01
2.780000e-06	-2.773174e-06	-1.163110e-09	-2.942845e+01	-7.664687e+01
2.790000e-06	-2.859891e-06	-1.191185e-09	-3.034868e+01	-7.824964e+01
2.800000e-06	-2.945291e-06	-1.216658e-09	-3.125493e+01	-7.975517e+01
2.810000e-06	-3.029625e-06	-1.239043e-09	-3.214987e+01	-8.117106e+01
2.820000e-06	-3.113039e-06	-1.259794e-09	-3.303504e+01	-8.250379e+01
2.830000e-06	-3.195385e-06	-1.279170e-09	-3.390888e+01	-8.375878e+01
2.840000e-06	-3.276647e-06	-1.296955e-09	-3.477122e+01	-8.494064e+01
2.850000e-06	-3.356969e-06	-1.313575e-09	-3.562359e+01	-8.605341e+01
2.860000e-06	-3.436063e-06	-1.330822e-09	-3.646292e+01	-8.710087e+01
2.870000e-06	-3.513593e-06	-1.346554e-09	-3.728565e+01	-8.808688e+01
2.880000e-06	-3.589611e-06	-1.361619e-09	-3.809234e+01	-8.901562e+01
2.890000e-06	-3.664221e-06	-1.377373e-09	-3.888409e+01	-8.989176e+01
2.900000e-06	-3.737521e-06	-1.391948e-09	-3.966194e+01	-9.072046e+01
2.910000e-06	-3.809597e-06	-1.404409e-09	-4.042680e+01	-9.150733e+01
2.920000e-06	-3.880205e-06	-1.415926e-09	-4.117608e+01	-9.225810e+01
2.930000e-06	-3.949236e-06	-1.428981e-09	-4.190862e+01	-9.297833e+01
2.940000e-06	-4.016879e-06	-1.442071e-09	-4.262644e+01	-9.367296e+01
