# Temperatura_=_20.0
# Concentracion g/m^3_=_9000.0
# C_Vs_to_Am_M_A/Vsm_=_65563218390.804596
# pendiente_HvsI_1/m_=_3716.3
# ordenada_HvsI_A/m_=_1297.0
# frecuencia_Hz_=_300883.7784597376

Tiempo_(s)	Campo_(V.s)	Magnetizacion_(V.s)	Campo_(kA/m)	Magnetizacion_(A/m)
0.000000e+00	-5.357570e-06	-4.347178e-09	-5.678501e+01	-2.844569e+02
1.000000e-08	-5.354674e-06	-4.347657e-09	-5.675432e+01	-2.843873e+02
2.000000e-08	-5.350114e-06	-4.346170e-09	-5.670599e+01	-2.842818e+02
3.000000e-08	-5.343966e-06	-4.345096e-09	-5.664082e+01	-2.841417e+02
4.000000e-08	-5.336142e-06	-4.343080e-09	-5.655790e+01	-2.839682e+02
5.000000e-08	-5.326288e-06	-4.337417e-09	-5.645345e+01	-2.837629e+02
6.000000e-08	-5.314397e-06	-4.331812e-09	-5.632742e+01	-2.835275e+02
7.000000e-08	-5.300699e-06	-4.331857e-09	-5.618224e+01	-2.832642e+02
8.000000e-08	-5.284901e-06	-4.325245e-09	-5.601479e+01	-2.829752e+02
9.000000e-08	-5.266935e-06	-4.343103e-09	-5.582437e+01	-2.826633e+02
1.000000e-07	-5.247052e-06	-4.362428e-09	-5.561363e+01	-2.823314e+02
1.100000e-07	-5.225265e-06	-4.340542e-09	-5.538271e+01	-2.819820e+02
1.200000e-07	-5.201718e-06	-4.315775e-09	-5.513313e+01	-2.816176e+02
1.300000e-07	-5.176475e-06	-4.291567e-09	-5.486558e+01	-2.812396e+02
1.400000e-07	-5.149678e-06	-4.243367e-09	-5.458156e+01	-2.808484e+02
1.500000e-07	-5.121479e-06	-4.309891e-09	-5.428268e+01	-2.804430e+02
1.600000e-07	-5.091737e-06	-4.324642e-09	-5.396744e+01	-2.800211e+02
1.700000e-07	-5.060296e-06	-4.242364e-09	-5.363420e+01	-2.795784e+02
1.800000e-07	-5.026779e-06	-4.269387e-09	-5.327895e+01	-2.791096e+02
1.900000e-07	-4.991565e-06	-4.252286e-09	-5.290571e+01	-2.786081e+02
2.000000e-07	-4.954954e-06	-4.230710e-09	-5.251767e+01	-2.780668e+02
2.100000e-07	-4.916480e-06	-4.266699e-09	-5.210989e+01	-2.774784e+02
2.200000e-07	-4.876083e-06	-4.211576e-09	-5.168172e+01	-2.768364e+02
2.300000e-07	-4.833764e-06	-4.177001e-09	-5.123318e+01	-2.761353e+02
2.400000e-07	-4.789657e-06	-4.213687e-09	-5.076569e+01	-2.753712e+02
2.500000e-07	-4.743896e-06	-4.200553e-09	-5.028066e+01	-2.745425e+02
2.600000e-07	-4.696196e-06	-4.174924e-09	-4.977509e+01	-2.736493e+02
2.700000e-07	-4.646293e-06	-4.121632e-09	-4.924617e+01	-2.726938e+02
2.800000e-07	-4.594499e-06	-4.125857e-09	-4.869721e+01	-2.716800e+02
2.900000e-07	-4.541104e-06	-4.140345e-09	-4.813127e+01	-2.706128e+02
3.000000e-07	-4.486095e-06	-4.112795e-09	-4.754822e+01	-2.694979e+02
3.100000e-07	-4.429356e-06	-4.081744e-09	-4.694685e+01	-2.683405e+02
3.200000e-07	-4.370864e-06	-4.051504e-09	-4.632690e+01	-2.671452e+02
3.300000e-07	-4.310901e-06	-4.050746e-09	-4.569135e+01	-2.659152e+02
3.400000e-07	-4.249541e-06	-4.034208e-09	-4.504098e+01	-2.646520e+02
3.500000e-07	-4.186711e-06	-4.012998e-09	-4.437505e+01	-2.633553e+02
3.600000e-07	-4.122245e-06	-3.988429e-09	-4.369178e+01	-2.620228e+02
3.700000e-07	-4.056119e-06	-3.957694e-09	-4.299090e+01	-2.606508e+02
3.800000e-07	-3.988567e-06	-3.954994e-09	-4.227492e+01	-2.592346e+02
3.900000e-07	-3.919601e-06	-3.941544e-09	-4.154394e+01	-2.577687e+02
4.000000e-07	-3.849339e-06	-3.897080e-09	-4.079923e+01	-2.562476e+02
4.100000e-07	-3.778004e-06	-3.869295e-09	-4.004316e+01	-2.546665e+02
4.200000e-07	-3.705207e-06	-3.856505e-09	-3.927157e+01	-2.530210e+02
4.300000e-07	-3.630599e-06	-3.839701e-09	-3.848081e+01	-2.513080e+02
4.400000e-07	-3.554446e-06	-3.795661e-09	-3.767366e+01	-2.495256e+02
4.500000e-07	-3.476943e-06	-3.765924e-09	-3.685221e+01	-2.476724e+02
4.600000e-07	-3.397978e-06	-3.750335e-09	-3.601525e+01	-2.457482e+02
4.700000e-07	-3.317680e-06	-3.716679e-09	-3.516417e+01	-2.437527e+02
4.800000e-07	-3.236253e-06	-3.680792e-09	-3.430112e+01	-2.416858e+02
4.900000e-07	-3.153755e-06	-3.642094e-09	-3.342672e+01	-2.395468e+02
5.000000e-07	-3.070345e-06	-3.612908e-09	-3.254266e+01	-2.373341e+02
5.100000e-07	-2.986024e-06	-3.578783e-09	-3.164894e+01	-2.350453e+02
5.200000e-07	-2.900667e-06	-3.541819e-09	-3.074423e+01	-2.326769e+02
5.300000e-07	-2.814297e-06	-3.500606e-09	-2.982880e+01	-2.302243e+02
5.400000e-07	-2.727152e-06	-3.462872e-09	-2.890515e+01	-2.276823e+02
5.500000e-07	-2.639151e-06	-3.429942e-09	-2.797242e+01	-2.250449e+02
5.600000e-07	-2.549824e-06	-3.388103e-09	-2.702565e+01	-2.223059e+02
5.700000e-07	-2.459265e-06	-3.341427e-09	-2.606581e+01	-2.194587e+02
5.800000e-07	-2.367980e-06	-3.290962e-09	-2.509827e+01	-2.164971e+02
5.900000e-07	-2.276008e-06	-3.248958e-09	-2.412346e+01	-2.134145e+02
6.000000e-07	-2.183254e-06	-3.204901e-09	-2.314036e+01	-2.102047e+02
6.100000e-07	-2.089755e-06	-3.148332e-09	-2.214937e+01	-2.068609e+02
6.200000e-07	-1.995521e-06	-3.082814e-09	-2.115057e+01	-2.033763e+02
6.300000e-07	-1.900680e-06	-3.026205e-09	-2.014535e+01	-1.997431e+02
6.400000e-07	-1.805338e-06	-2.976340e-09	-1.913482e+01	-1.959525e+02
6.500000e-07	-1.709356e-06	-2.915688e-09	-1.811750e+01	-1.919946e+02
6.600000e-07	-1.612432e-06	-2.848763e-09	-1.709020e+01	-1.878577e+02
6.700000e-07	-1.514511e-06	-2.783316e-09	-1.605234e+01	-1.835284e+02
6.800000e-07	-1.415939e-06	-2.720488e-09	-1.500757e+01	-1.789914e+02
6.900000e-07	-1.317069e-06	-2.647953e-09	-1.395964e+01	-1.742294e+02
7.000000e-07	-1.217953e-06	-2.566821e-09	-1.290911e+01	-1.692229e+02
7.100000e-07	-1.118500e-06	-2.482653e-09	-1.185500e+01	-1.639505e+02
7.200000e-07	-1.018638e-06	-2.398905e-09	-1.079657e+01	-1.583883e+02
7.300000e-07	-9.183875e-07	-2.313316e-09	-9.734011e+00	-1.525107e+02
7.400000e-07	-8.178436e-07	-2.218589e-09	-8.668344e+00	-1.462898e+02
7.500000e-07	-7.170077e-07	-2.113488e-09	-7.599581e+00	-1.396962e+02
7.600000e-07	-6.159102e-07	-2.004415e-09	-6.528047e+00	-1.326988e+02
7.700000e-07	-5.145657e-07	-1.896463e-09	-5.453894e+00	-1.252663e+02
7.800000e-07	-4.130221e-07	-1.777314e-09	-4.377631e+00	-1.173673e+02
7.900000e-07	-3.113508e-07	-1.645445e-09	-3.300015e+00	-1.089724e+02
8.000000e-07	-2.095232e-07	-1.507609e-09	-2.220742e+00	-1.000553e+02
8.100000e-07	-1.076119e-07	-1.366586e-09	-1.140581e+00	-9.059521e+01
8.200000e-07	-5.639032e-09	-1.214389e-09	-5.976824e-02	-8.057866e+01
8.300000e-07	9.639797e-08	-1.047895e-09	1.021724e+00	-7.000210e+01
8.400000e-07	1.983288e-07	-8.749472e-10	2.102091e+00	-5.887394e+01
8.500000e-07	3.001175e-07	-6.980949e-10	3.180953e+00	-4.721647e+01
8.600000e-07	4.018302e-07	-5.150423e-10	4.259007e+00	-3.506725e+01
8.700000e-07	5.033661e-07	-3.230305e-10	5.335189e+00	-2.247978e+01
8.800000e-07	6.047123e-07	-1.268578e-10	6.409360e+00	-9.523337e+00
8.900000e-07	7.058637e-07	7.308365e-11	7.481466e+00	3.718123e+00
9.000000e-07	8.067369e-07	2.761980e-10	8.550624e+00	1.714810e+01
9.100000e-07	9.073473e-07	4.806623e-10	9.616996e+00	3.066052e+01
9.200000e-07	1.007669e-06	6.854070e-10	1.068031e+01	4.414352e+01
9.300000e-07	1.107563e-06	8.894027e-10	1.173909e+01	5.748372e+01
9.400000e-07	1.207009e-06	1.090231e-09	1.279311e+01	7.057075e+01
9.500000e-07	1.306145e-06	1.284209e-09	1.384386e+01	8.330175e+01
9.600000e-07	1.405038e-06	1.470694e-09	1.489203e+01	9.558538e+01
9.700000e-07	1.503608e-06	1.649375e-09	1.593677e+01	1.073452e+02
9.800000e-07	1.601617e-06	1.819093e-09	1.697558e+01	1.185222e+02
9.900000e-07	1.698686e-06	1.976557e-09	1.800441e+01	1.290760e+02
1.000000e-06	1.794663e-06	2.126143e-09	1.902167e+01	1.389852e+02
1.010000e-06	1.889896e-06	2.268773e-09	2.003106e+01	1.482463e+02
1.020000e-06	1.984690e-06	2.400221e-09	2.103578e+01	1.568719e+02
1.030000e-06	2.078927e-06	2.521361e-09	2.203460e+01	1.648879e+02
1.040000e-06	2.172413e-06	2.632805e-09	2.302546e+01	1.723305e+02
1.050000e-06	2.265121e-06	2.738354e-09	2.400807e+01	1.792423e+02
1.060000e-06	2.357066e-06	2.835327e-09	2.498260e+01	1.856693e+02
1.070000e-06	2.448329e-06	2.923489e-09	2.594990e+01	1.916578e+02
1.080000e-06	2.538958e-06	3.005820e-09	2.691048e+01	1.972515e+02
1.090000e-06	2.628616e-06	3.086308e-09	2.786077e+01	2.024901e+02
1.100000e-06	2.716941e-06	3.163176e-09	2.879692e+01	2.074077e+02
1.110000e-06	2.804157e-06	3.233913e-09	2.972133e+01	2.120330e+02
1.120000e-06	2.890541e-06	3.300821e-09	3.063691e+01	2.163887e+02
1.130000e-06	2.976020e-06	3.361113e-09	3.154291e+01	2.204930e+02
1.140000e-06	3.060509e-06	3.417717e-09	3.243841e+01	2.243599e+02
1.150000e-06	3.144047e-06	3.472716e-09	3.332383e+01	2.280012e+02
1.160000e-06	3.226683e-06	3.525575e-09	3.419969e+01	2.314270e+02
1.170000e-06	3.308207e-06	3.572838e-09	3.506376e+01	2.346468e+02
1.180000e-06	3.388361e-06	3.615916e-09	3.591332e+01	2.376708e+02
1.190000e-06	3.467181e-06	3.655933e-09	3.674874e+01	2.405096e+02
1.200000e-06	3.544774e-06	3.694913e-09	3.757115e+01	2.431749e+02
1.210000e-06	3.621164e-06	3.731270e-09	3.838081e+01	2.456793e+02
1.220000e-06	3.696334e-06	3.764596e-09	3.917753e+01	2.480356e+02
1.230000e-06	3.769933e-06	3.796296e-09	3.995760e+01	2.502569e+02
1.240000e-06	3.841867e-06	3.826859e-09	4.072004e+01	2.523557e+02
1.250000e-06	3.912458e-06	3.856288e-09	4.146823e+01	2.543434e+02
1.260000e-06	3.981703e-06	3.883151e-09	4.220217e+01	2.562304e+02
1.270000e-06	4.049591e-06	3.908497e-09	4.292171e+01	2.580253e+02
1.280000e-06	4.116172e-06	3.932155e-09	4.362740e+01	2.597351e+02
1.290000e-06	4.181135e-06	3.956719e-09	4.431595e+01	2.613653e+02
1.300000e-06	4.244426e-06	3.981799e-09	4.498677e+01	2.629201e+02
1.310000e-06	4.306314e-06	4.005665e-09	4.564272e+01	2.644024e+02
1.320000e-06	4.366830e-06	4.027055e-09	4.628414e+01	2.658142e+02
1.330000e-06	4.426040e-06	4.046116e-09	4.691170e+01	2.671572e+02
1.340000e-06	4.483715e-06	4.064224e-09	4.752300e+01	2.684326e+02
1.350000e-06	4.539538e-06	4.081151e-09	4.811467e+01	2.696417e+02
1.360000e-06	4.593677e-06	4.097054e-09	4.868850e+01	2.707859e+02
1.370000e-06	4.646257e-06	4.113391e-09	4.924579e+01	2.718668e+02
1.380000e-06	4.697004e-06	4.129236e-09	4.978366e+01	2.728865e+02
1.390000e-06	4.745630e-06	4.144651e-09	5.029904e+01	2.738471e+02
1.400000e-06	4.792317e-06	4.159930e-09	5.079388e+01	2.747515e+02
1.410000e-06	4.837367e-06	4.175557e-09	5.127137e+01	2.756025e+02
1.420000e-06	4.880895e-06	4.188704e-09	5.173272e+01	2.764036e+02
1.430000e-06	4.922711e-06	4.199407e-09	5.217594e+01	2.771581e+02
1.440000e-06	4.962600e-06	4.210179e-09	5.259872e+01	2.778699e+02
1.450000e-06	5.000750e-06	4.220450e-09	5.300307e+01	2.785425e+02
1.460000e-06	5.037290e-06	4.229870e-09	5.339036e+01	2.791796e+02
1.470000e-06	5.072197e-06	4.239315e-09	5.376033e+01	2.797845e+02
1.480000e-06	5.105218e-06	4.250103e-09	5.411033e+01	2.803603e+02
1.490000e-06	5.136263e-06	4.260241e-09	5.443937e+01	2.809092e+02
1.500000e-06	5.165595e-06	4.268480e-09	5.475026e+01	2.814330e+02
1.510000e-06	5.193321e-06	4.276007e-09	5.504414e+01	2.819325e+02
1.520000e-06	5.219210e-06	4.283594e-09	5.531853e+01	2.824078e+02
1.530000e-06	5.243052e-06	4.290735e-09	5.557123e+01	2.828581e+02
1.540000e-06	5.264974e-06	4.298135e-09	5.580358e+01	2.832818e+02
1.550000e-06	5.285188e-06	4.305270e-09	5.601784e+01	2.836769e+02
1.560000e-06	5.303753e-06	4.310556e-09	5.621460e+01	2.840409e+02
1.570000e-06	5.320409e-06	4.314833e-09	5.639114e+01	2.843713e+02
1.580000e-06	5.335029e-06	4.320320e-09	5.654610e+01	2.846656e+02
1.590000e-06	5.347694e-06	4.326801e-09	5.668033e+01	2.849218e+02
1.600000e-06	5.358336e-06	4.332153e-09	5.679313e+01	2.851381e+02
1.610000e-06	5.366835e-06	4.334362e-09	5.688322e+01	2.853136e+02
1.620000e-06	5.373306e-06	4.336178e-09	5.695180e+01	2.854478e+02
1.630000e-06	5.377974e-06	4.339604e-09	5.700127e+01	2.855409e+02
1.640000e-06	5.380862e-06	4.341475e-09	5.703189e+01	2.855933e+02
1.650000e-06	5.381769e-06	4.341554e-09	5.704150e+01	2.856061e+02
1.660000e-06	5.380786e-06	4.341491e-09	5.703108e+01	2.855803e+02
1.670000e-06	5.378103e-06	4.339173e-09	5.700264e+01	2.855171e+02
1.680000e-06	5.373789e-06	4.337454e-09	5.695692e+01	2.854178e+02
1.690000e-06	5.367804e-06	4.335669e-09	5.689348e+01	2.852835e+02
1.700000e-06	5.359920e-06	4.334226e-09	5.680992e+01	2.851157e+02
1.710000e-06	5.350296e-06	4.333509e-09	5.670791e+01	2.849158e+02
1.720000e-06	5.339085e-06	4.329381e-09	5.658909e+01	2.846855e+02
1.730000e-06	5.326145e-06	4.321408e-09	5.645193e+01	2.844268e+02
1.740000e-06	5.311163e-06	4.318879e-09	5.629314e+01	2.841420e+02
1.750000e-06	5.293745e-06	4.275741e-09	5.610853e+01	2.838339e+02
1.760000e-06	5.273735e-06	4.269499e-09	5.589644e+01	2.835051e+02
1.770000e-06	5.251290e-06	4.296631e-09	5.565854e+01	2.831586e+02
1.780000e-06	5.227144e-06	4.302873e-09	5.540262e+01	2.827965e+02
1.790000e-06	5.202196e-06	4.362694e-09	5.513820e+01	2.824207e+02
1.800000e-06	5.176173e-06	4.301964e-09	5.486238e+01	2.820317e+02
1.810000e-06	5.148153e-06	4.233406e-09	5.456540e+01	2.816288e+02
1.820000e-06	5.118353e-06	4.316701e-09	5.424954e+01	2.812099e+02
1.830000e-06	5.087005e-06	4.287782e-09	5.391729e+01	2.807711e+02
1.840000e-06	5.053501e-06	4.286388e-09	5.356217e+01	2.803073e+02
1.850000e-06	5.018031e-06	4.325962e-09	5.318623e+01	2.798120e+02
1.860000e-06	4.981033e-06	4.223853e-09	5.279409e+01	2.792781e+02
1.870000e-06	4.942221e-06	4.259268e-09	5.238272e+01	2.786985e+02
1.880000e-06	4.901566e-06	4.309522e-09	5.195181e+01	2.780663e+02
1.890000e-06	4.859127e-06	4.229255e-09	5.150200e+01	2.773759e+02
1.900000e-06	4.815067e-06	4.213659e-09	5.103501e+01	2.766231e+02
1.910000e-06	4.769599e-06	4.194931e-09	5.055309e+01	2.758058e+02
1.920000e-06	4.722241e-06	4.225340e-09	5.005114e+01	2.749238e+02
1.930000e-06	4.672976e-06	4.216989e-09	4.952899e+01	2.739790e+02
1.940000e-06	4.622109e-06	4.136028e-09	4.898985e+01	2.729751e+02
1.950000e-06	4.569469e-06	4.173951e-09	4.843191e+01	2.719169e+02
1.960000e-06	4.514861e-06	4.132100e-09	4.785312e+01	2.708099e+02
1.970000e-06	4.458396e-06	4.108085e-09	4.725464e+01	2.696596e+02
1.980000e-06	4.400395e-06	4.128159e-09	4.663989e+01	2.684706e+02
1.990000e-06	4.340885e-06	4.074198e-09	4.600914e+01	2.672465e+02
2.000000e-06	4.280026e-06	4.069820e-09	4.536410e+01	2.659890e+02
2.010000e-06	4.217767e-06	4.034954e-09	4.470421e+01	2.646982e+02
2.020000e-06	4.153675e-06	4.043263e-09	4.402490e+01	2.633721e+02
2.030000e-06	4.087907e-06	4.007257e-09	4.332783e+01	2.620074e+02
2.040000e-06	4.020737e-06	3.957556e-09	4.261589e+01	2.605993e+02
2.050000e-06	3.952278e-06	3.988859e-09	4.189029e+01	2.591425e+02
2.060000e-06	3.882333e-06	3.943016e-09	4.114894e+01	2.576315e+02
2.070000e-06	3.810673e-06	3.912854e-09	4.038942e+01	2.560612e+02
2.080000e-06	3.737699e-06	3.875802e-09	3.961596e+01	2.544273e+02
2.090000e-06	3.663535e-06	3.866248e-09	3.882989e+01	2.527264e+02
2.100000e-06	3.587981e-06	3.850763e-09	3.802910e+01	2.509563e+02
2.110000e-06	3.510937e-06	3.791642e-09	3.721250e+01	2.491156e+02
2.120000e-06	3.432369e-06	3.778165e-09	3.637976e+01	2.472039e+02
2.130000e-06	3.352386e-06	3.747558e-09	3.553202e+01	2.452210e+02
2.140000e-06	3.271192e-06	3.728474e-09	3.467144e+01	2.431667e+02
2.150000e-06	3.188949e-06	3.693371e-09	3.379974e+01	2.410405e+02
2.160000e-06	3.105648e-06	3.655277e-09	3.291684e+01	2.388409e+02
2.170000e-06	3.021370e-06	3.622705e-09	3.202357e+01	2.365658e+02
2.180000e-06	2.936135e-06	3.582966e-09	3.112016e+01	2.342117e+02
2.190000e-06	2.849656e-06	3.553204e-09	3.020357e+01	2.317744e+02
2.200000e-06	2.761896e-06	3.505736e-09	2.927340e+01	2.292486e+02
2.210000e-06	2.673206e-06	3.463849e-09	2.833337e+01	2.266285e+02
2.220000e-06	2.583667e-06	3.422156e-09	2.738435e+01	2.239079e+02
2.230000e-06	2.493210e-06	3.388485e-09	2.642560e+01	2.210804e+02
2.240000e-06	2.401923e-06	3.346272e-09	2.545804e+01	2.181395e+02
2.250000e-06	2.309890e-06	3.288156e-09	2.448258e+01	2.150788e+02
2.260000e-06	2.217292e-06	3.240994e-09	2.350113e+01	2.118920e+02
2.270000e-06	2.124072e-06	3.200103e-09	2.251309e+01	2.085725e+02
2.280000e-06	2.029804e-06	3.152306e-09	2.151394e+01	2.051134e+02
2.290000e-06	1.934467e-06	3.091050e-09	2.050346e+01	2.015071e+02
2.300000e-06	1.838366e-06	3.032949e-09	1.948488e+01	1.977452e+02
2.310000e-06	1.741723e-06	2.975586e-09	1.846056e+01	1.938178e+02
2.320000e-06	1.644646e-06	2.913706e-09	1.743165e+01	1.897136e+02
2.330000e-06	1.547078e-06	2.847788e-09	1.639752e+01	1.854195e+02
2.340000e-06	1.448931e-06	2.778949e-09	1.535726e+01	1.809207e+02
2.350000e-06	1.350279e-06	2.707489e-09	1.431163e+01	1.762000e+02
2.360000e-06	1.251187e-06	2.633748e-09	1.326136e+01	1.712386e+02
2.370000e-06	1.151599e-06	2.558271e-09	1.220582e+01	1.660151e+02
2.380000e-06	1.051584e-06	2.472257e-09	1.114576e+01	1.605064e+02
2.390000e-06	9.513156e-07	2.377693e-09	1.008302e+01	1.546869e+02
2.400000e-06	8.508900e-07	2.284658e-09	9.018603e+00	1.485293e+02
2.410000e-06	7.503510e-07	2.190445e-09	7.952989e+00	1.420042e+02
2.420000e-06	6.497020e-07	2.086125e-09	6.886207e+00	1.350811e+02
2.430000e-06	5.488970e-07	1.972612e-09	5.817772e+00	1.277284e+02
2.440000e-06	4.479183e-07	1.854613e-09	4.747497e+00	1.199148e+02
2.450000e-06	3.467847e-07	1.731063e-09	3.675579e+00	1.116103e+02
2.460000e-06	2.455116e-07	1.595834e-09	2.602183e+00	1.027880e+02
2.470000e-06	1.441002e-07	1.453526e-09	1.527322e+00	9.342592e+01
2.480000e-06	4.254112e-08	1.306688e-09	4.508944e-01	8.350913e+01
2.490000e-06	-5.903564e-08	1.148444e-09	-6.257201e-01	7.303216e+01
2.500000e-06	-1.604518e-07	9.760858e-10	-1.700633e+00	6.200112e+01
2.510000e-06	-2.617641e-07	7.968446e-10	-2.774444e+00	5.043569e+01
2.520000e-06	-3.629736e-07	6.143457e-10	-3.847166e+00	3.837065e+01
2.530000e-06	-4.640296e-07	4.232370e-10	-4.918261e+00	2.585663e+01
2.540000e-06	-5.649207e-07	2.237419e-10	-5.987608e+00	1.296015e+01
2.550000e-06	-6.656034e-07	2.146015e-11	-7.054747e+00	-2.373411e-01
2.560000e-06	-7.661340e-07	-1.816383e-10	-8.120273e+00	-1.364137e+01
2.570000e-06	-8.665411e-07	-3.860082e-10	-9.184489e+00	-2.714734e+01
2.580000e-06	-9.667737e-07	-5.908581e-10	-1.024686e+01	-4.064409e+01
2.590000e-06	-1.066747e-06	-7.969642e-10	-1.130647e+01	-5.401821e+01
2.600000e-06	-1.166354e-06	-1.001619e-09	-1.236221e+01	-6.715844e+01
2.610000e-06	-1.265474e-06	-1.197767e-09	-1.341279e+01	-7.996027e+01
2.620000e-06	-1.364106e-06	-1.383169e-09	-1.445820e+01	-9.233003e+01
2.630000e-06	-1.462292e-06	-1.564472e-09	-1.549886e+01	-1.041884e+02
2.640000e-06	-1.559935e-06	-1.741527e-09	-1.653378e+01	-1.154732e+02
2.650000e-06	-1.657021e-06	-1.905405e-09	-1.756280e+01	-1.261406e+02
2.660000e-06	-1.753695e-06	-2.056279e-09	-1.858746e+01	-1.361658e+02
2.670000e-06	-1.850056e-06	-2.199789e-09	-1.960878e+01	-1.455423e+02
2.680000e-06	-1.945858e-06	-2.336120e-09	-2.062420e+01	-1.542800e+02
2.690000e-06	-2.040627e-06	-2.464167e-09	-2.162865e+01	-1.624026e+02
2.700000e-06	-2.134203e-06	-2.581528e-09	-2.262047e+01	-1.699448e+02
2.710000e-06	-2.226945e-06	-2.687800e-09	-2.360344e+01	-1.769482e+02
2.720000e-06	-2.319109e-06	-2.786554e-09	-2.458029e+01	-1.834586e+02
2.730000e-06	-2.410530e-06	-2.880992e-09	-2.554926e+01	-1.895222e+02
2.740000e-06	-2.500976e-06	-2.969834e-09	-2.650791e+01	-1.951835e+02
2.750000e-06	-2.590486e-06	-3.048834e-09	-2.745662e+01	-2.004830e+02
2.760000e-06	-2.679251e-06	-3.121871e-09	-2.839745e+01	-2.054559e+02
2.770000e-06	-2.767334e-06	-3.194508e-09	-2.933104e+01	-2.101317e+02
2.780000e-06	-2.854419e-06	-3.265214e-09	-3.025405e+01	-2.145343e+02
2.790000e-06	-2.940119e-06	-3.331811e-09	-3.116239e+01	-2.186825e+02
2.800000e-06	-3.024673e-06	-3.393483e-09	-3.205858e+01	-2.225911e+02
2.810000e-06	-3.108304e-06	-3.449864e-09	-3.294499e+01	-2.262721e+02
2.820000e-06	-3.190906e-06	-3.502928e-09	-3.382049e+01	-2.297358e+02
2.830000e-06	-3.272479e-06	-3.554852e-09	-3.468508e+01	-2.329919e+02
2.840000e-06	-3.353081e-06	-3.604391e-09	-3.553939e+01	-2.360502e+02
2.850000e-06	-3.432446e-06	-3.648639e-09	-3.638058e+01	-2.389214e+02
2.860000e-06	-3.510243e-06	-3.689305e-09	-3.720515e+01	-2.416170e+02
2.870000e-06	-3.586583e-06	-3.730650e-09	-3.801428e+01	-2.441493e+02
2.880000e-06	-3.661564e-06	-3.771003e-09	-3.880901e+01	-2.465313e+02
2.890000e-06	-3.735135e-06	-3.807729e-09	-3.958878e+01	-2.487760e+02
2.900000e-06	-3.807473e-06	-3.840888e-09	-4.035549e+01	-2.508959e+02
2.910000e-06	-3.878447e-06	-3.872761e-09	-4.110776e+01	-2.529029e+02
2.920000e-06	-3.947766e-06	-3.904875e-09	-4.184247e+01	-2.548073e+02
2.930000e-06	-4.015618e-06	-3.935784e-09	-4.256163e+01	-2.566182e+02
2.940000e-06	-4.082189e-06	-3.963596e-09	-4.326721e+01	-2.583430e+02
