# Temperatura_=_20.0
# Concentracion g/m^3_=_9000.0
# C_Vs_to_Am_M_A/Vsm_=_65563218390.804596
# pendiente_HvsI_1/m_=_3716.3
# ordenada_HvsI_A/m_=_1297.0
# frecuencia_Hz_=_300884.4652516713

Tiempo_(s)	Campo_(V.s)	Magnetizacion_(V.s)	Campo_(kA/m)	Magnetizacion_(A/m)
0.000000e+00	-5.352311e-06	-1.398425e-10	-5.677624e+01	-8.586727e+00
1.000000e-08	-5.349620e-06	-1.402903e-10	-5.674770e+01	-8.528472e+00
2.000000e-08	-5.345211e-06	-1.404127e-10	-5.670093e+01	-8.464619e+00
3.000000e-08	-5.339155e-06	-1.409689e-10	-5.663669e+01	-8.397139e+00
4.000000e-08	-5.331452e-06	-1.402819e-10	-5.655498e+01	-8.328217e+00
5.000000e-08	-5.321917e-06	-1.367649e-10	-5.645383e+01	-8.260280e+00
6.000000e-08	-5.310411e-06	-1.323288e-10	-5.633177e+01	-8.195979e+00
7.000000e-08	-5.296972e-06	-1.312187e-10	-5.618921e+01	-8.138112e+00
8.000000e-08	-5.281365e-06	-1.307934e-10	-5.602366e+01	-8.089483e+00
9.000000e-08	-5.263618e-06	-1.355841e-10	-5.583541e+01	-8.052670e+00
1.000000e-07	-5.243976e-06	-1.388969e-10	-5.562705e+01	-8.029762e+00
1.100000e-07	-5.222455e-06	-1.322813e-10	-5.539875e+01	-8.022055e+00
1.200000e-07	-5.199178e-06	-1.266220e-10	-5.515184e+01	-8.029774e+00
1.300000e-07	-5.174247e-06	-1.255133e-10	-5.488738e+01	-8.051859e+00
1.400000e-07	-5.147677e-06	-1.222764e-10	-5.460553e+01	-8.085854e+00
1.500000e-07	-5.119598e-06	-1.447656e-10	-5.430767e+01	-8.127943e+00
1.600000e-07	-5.090039e-06	-1.416287e-10	-5.399411e+01	-8.173130e+00
1.700000e-07	-5.058792e-06	-1.178884e-10	-5.366265e+01	-8.215596e+00
1.800000e-07	-5.025515e-06	-1.336684e-10	-5.330966e+01	-8.249165e+00
1.900000e-07	-4.990493e-06	-1.238590e-10	-5.293815e+01	-8.267872e+00
2.000000e-07	-4.953971e-06	-1.216010e-10	-5.255073e+01	-8.266554e+00
2.100000e-07	-4.915624e-06	-1.406862e-10	-5.214396e+01	-8.241397e+00
2.200000e-07	-4.875430e-06	-1.083492e-10	-5.171758e+01	-8.190384e+00
2.300000e-07	-4.833373e-06	-1.071077e-10	-5.127146e+01	-8.113565e+00
2.400000e-07	-4.789503e-06	-1.334946e-10	-5.080609e+01	-8.013135e+00
2.500000e-07	-4.743906e-06	-1.182167e-10	-5.032240e+01	-7.893274e+00
2.600000e-07	-4.696413e-06	-1.155723e-10	-4.981861e+01	-7.759790e+00
2.700000e-07	-4.646909e-06	-1.056121e-10	-4.929347e+01	-7.619572e+00
2.800000e-07	-4.595500e-06	-1.034085e-10	-4.874814e+01	-7.479939e+00
2.900000e-07	-4.542331e-06	-1.200206e-10	-4.818414e+01	-7.347938e+00
3.000000e-07	-4.487540e-06	-1.182035e-10	-4.760292e+01	-7.229677e+00
3.100000e-07	-4.431152e-06	-1.005650e-10	-4.700478e+01	-7.129778e+00
3.200000e-07	-4.372984e-06	-1.014006e-10	-4.638774e+01	-7.050996e+00
3.300000e-07	-4.313187e-06	-1.147275e-10	-4.575342e+01	-6.994050e+00
3.400000e-07	-4.252017e-06	-1.112614e-10	-4.510454e+01	-6.957682e+00
3.500000e-07	-4.189468e-06	-1.055284e-10	-4.444104e+01	-6.938925e+00
3.600000e-07	-4.125412e-06	-1.034624e-10	-4.376155e+01	-6.933535e+00
3.700000e-07	-4.059649e-06	-9.917437e-11	-4.306394e+01	-6.936534e+00
3.800000e-07	-3.992258e-06	-1.104510e-10	-4.234908e+01	-6.942794e+00
3.900000e-07	-3.923449e-06	-1.131496e-10	-4.161916e+01	-6.947576e+00
4.000000e-07	-3.853371e-06	-9.733789e-11	-4.087579e+01	-6.946975e+00
4.100000e-07	-3.782139e-06	-1.006105e-10	-4.012017e+01	-6.938211e+00
4.200000e-07	-3.709625e-06	-1.089708e-10	-3.935096e+01	-6.919749e+00
4.300000e-07	-3.635469e-06	-1.120405e-10	-3.856432e+01	-6.891244e+00
4.400000e-07	-3.559624e-06	-1.015028e-10	-3.775978e+01	-6.853328e+00
4.500000e-07	-3.482338e-06	-9.815193e-11	-3.693994e+01	-6.807297e+00
4.600000e-07	-3.403648e-06	-1.049955e-10	-3.610522e+01	-6.754733e+00
4.700000e-07	-3.323546e-06	-1.062631e-10	-3.525552e+01	-6.697143e+00
4.800000e-07	-3.242214e-06	-1.018886e-10	-3.439276e+01	-6.635647e+00
4.900000e-07	-3.159867e-06	-9.655674e-11	-3.351924e+01	-6.570777e+00
5.000000e-07	-3.076595e-06	-1.006485e-10	-3.263590e+01	-6.502402e+00
5.100000e-07	-2.992426e-06	-1.017163e-10	-3.174306e+01	-6.429773e+00
5.200000e-07	-2.907288e-06	-9.899623e-11	-3.083993e+01	-6.351699e+00
5.300000e-07	-2.821207e-06	-9.264560e-11	-2.992680e+01	-6.266785e+00
5.400000e-07	-2.734215e-06	-8.987282e-11	-2.900401e+01	-6.173719e+00
5.500000e-07	-2.646278e-06	-9.212225e-11	-2.807119e+01	-6.071537e+00
5.600000e-07	-2.557280e-06	-9.271434e-11	-2.712711e+01	-5.959830e+00
5.700000e-07	-2.467052e-06	-8.701984e-11	-2.617000e+01	-5.838864e+00
5.800000e-07	-2.375821e-06	-8.020953e-11	-2.520223e+01	-5.709583e+00
5.900000e-07	-2.283933e-06	-8.297957e-11	-2.422750e+01	-5.573507e+00
6.000000e-07	-2.191381e-06	-8.852941e-11	-2.324573e+01	-5.432528e+00
6.100000e-07	-2.098043e-06	-8.467246e-11	-2.225562e+01	-5.288653e+00
6.200000e-07	-2.003965e-06	-7.300871e-11	-2.125766e+01	-5.143719e+00
6.300000e-07	-1.909223e-06	-7.042219e-11	-2.025266e+01	-4.999129e+00
6.400000e-07	-1.813894e-06	-7.443156e-11	-1.924142e+01	-4.855652e+00
6.500000e-07	-1.717936e-06	-7.315222e-11	-1.822352e+01	-4.713308e+00
6.600000e-07	-1.621262e-06	-6.502616e-11	-1.719802e+01	-4.571360e+00
6.700000e-07	-1.523820e-06	-5.920371e-11	-1.616438e+01	-4.428404e+00
6.800000e-07	-1.425721e-06	-5.900862e-11	-1.512376e+01	-4.282548e+00
6.900000e-07	-1.327124e-06	-5.873472e-11	-1.407787e+01	-4.131647e+00
7.000000e-07	-1.227959e-06	-5.531073e-11	-1.302595e+01	-3.973558e+00
7.100000e-07	-1.128337e-06	-4.794231e-11	-1.196917e+01	-3.806371e+00
7.200000e-07	-1.028481e-06	-4.460642e-11	-1.090992e+01	-3.628605e+00
7.300000e-07	-9.284022e-07	-4.739563e-11	-9.848304e+00	-3.439313e+00
7.400000e-07	-8.280154e-07	-4.810205e-11	-8.783422e+00	-3.238118e+00
7.500000e-07	-7.272404e-07	-4.210692e-11	-7.714421e+00	-3.025158e+00
7.600000e-07	-6.261332e-07	-3.565235e-11	-6.641896e+00	-2.800976e+00
7.700000e-07	-5.248342e-07	-3.416510e-11	-5.567336e+00	-2.566367e+00
7.800000e-07	-4.233717e-07	-3.402101e-11	-4.491042e+00	-2.322221e+00
7.900000e-07	-3.217952e-07	-2.999482e-11	-3.413539e+00	-2.069391e+00
8.000000e-07	-2.200888e-07	-2.387451e-11	-2.334658e+00	-1.808608e+00
8.100000e-07	-1.182818e-07	-2.021167e-11	-1.254710e+00	-1.540457e+00
8.200000e-07	-1.647701e-08	-1.563085e-11	-1.747848e-01	-1.265418e+00
8.300000e-07	8.529195e-08	-9.334161e-12	9.047600e-01	-9.839632e-01
8.400000e-07	1.870762e-07	-4.183645e-12	1.984466e+00	-6.966804e-01
8.500000e-07	2.888735e-07	-1.567584e-12	3.064313e+00	-4.044035e-01
8.600000e-07	3.905291e-07	2.169566e-12	4.142655e+00	-1.083150e-01
8.700000e-07	4.919971e-07	6.999609e-12	5.219006e+00	1.900037e-01
8.800000e-07	5.933088e-07	1.011797e-11	6.293701e+00	4.885935e-01
8.900000e-07	6.944002e-07	1.307016e-11	7.366058e+00	7.852141e-01
9.000000e-07	7.951865e-07	1.773573e-11	8.435179e+00	1.077509e+00
9.100000e-07	8.956648e-07	2.482473e-11	9.501033e+00	1.363219e+00
9.200000e-07	9.958574e-07	3.061409e-11	1.056386e+01	1.640410e+00
9.300000e-07	1.095767e-06	3.494612e-11	1.162368e+01	1.907689e+00
9.400000e-07	1.195366e-06	3.898902e-11	1.268020e+01	2.164354e+00
9.500000e-07	1.294576e-06	4.387259e-11	1.373260e+01	2.410474e+00
9.600000e-07	1.393267e-06	4.851141e-11	1.477949e+01	2.646863e+00
9.700000e-07	1.491467e-06	5.216434e-11	1.582118e+01	2.874946e+00
9.800000e-07	1.589211e-06	5.544789e-11	1.685803e+01	3.096539e+00
9.900000e-07	1.686264e-06	5.692906e-11	1.788755e+01	3.313567e+00
1.000000e-06	1.782470e-06	5.955893e-11	1.890808e+01	3.527748e+00
1.010000e-06	1.877914e-06	6.414622e-11	1.992054e+01	3.740305e+00
1.020000e-06	1.972761e-06	6.773988e-11	2.092666e+01	3.951728e+00
1.030000e-06	2.067030e-06	6.924491e-11	2.192664e+01	4.161634e+00
1.040000e-06	2.160589e-06	7.130125e-11	2.291909e+01	4.368755e+00
1.050000e-06	2.253385e-06	7.591461e-11	2.390346e+01	4.571032e+00
1.060000e-06	2.345474e-06	7.953485e-11	2.488032e+01	4.765843e+00
1.070000e-06	2.436863e-06	8.027452e-11	2.584976e+01	4.950299e+00
1.080000e-06	2.527411e-06	8.094376e-11	2.681027e+01	5.121604e+00
1.090000e-06	2.616956e-06	8.400938e-11	2.776014e+01	5.277402e+00
1.100000e-06	2.705357e-06	8.791208e-11	2.869788e+01	5.416087e+00
1.110000e-06	2.792699e-06	9.078449e-11	2.962439e+01	5.537020e+00
1.120000e-06	2.879174e-06	9.153222e-11	3.054170e+01	5.640640e+00
1.130000e-06	2.964777e-06	9.158277e-11	3.144976e+01	5.728437e+00
1.140000e-06	3.049396e-06	9.224363e-11	3.234738e+01	5.802814e+00
1.150000e-06	3.133052e-06	9.546049e-11	3.323478e+01	5.866842e+00
1.160000e-06	3.215780e-06	9.832615e-11	3.411235e+01	5.923955e+00
1.170000e-06	3.297349e-06	9.715097e-11	3.497762e+01	5.977614e+00
1.180000e-06	3.377602e-06	9.613308e-11	3.582892e+01	6.031003e+00
1.190000e-06	3.456640e-06	9.721240e-11	3.666734e+01	6.086773e+00
1.200000e-06	3.534462e-06	9.957412e-11	3.749286e+01	6.146885e+00
1.210000e-06	3.611014e-06	9.941557e-11	3.830491e+01	6.212542e+00
1.220000e-06	3.686255e-06	9.876034e-11	3.910305e+01	6.284233e+00
1.230000e-06	3.759995e-06	9.911446e-11	3.988527e+01	6.361849e+00
1.240000e-06	3.832136e-06	1.013134e-10	4.065053e+01	6.444866e+00
1.250000e-06	3.902870e-06	1.034130e-10	4.140086e+01	6.532535e+00
1.260000e-06	3.972256e-06	1.039389e-10	4.213689e+01	6.624068e+00
1.270000e-06	4.040242e-06	1.038439e-10	4.285807e+01	6.718771e+00
1.280000e-06	4.106865e-06	1.051924e-10	4.356480e+01	6.816117e+00
1.290000e-06	4.171919e-06	1.088595e-10	4.425488e+01	6.915741e+00
1.300000e-06	4.235397e-06	1.101632e-10	4.492824e+01	7.017370e+00
1.310000e-06	4.297446e-06	1.101071e-10	4.558645e+01	7.120707e+00
1.320000e-06	4.358107e-06	1.098337e-10	4.622993e+01	7.225293e+00
1.330000e-06	4.417458e-06	1.115429e-10	4.685950e+01	7.330382e+00
1.340000e-06	4.475259e-06	1.132973e-10	4.747265e+01	7.434863e+00
1.350000e-06	4.531231e-06	1.136022e-10	4.806639e+01	7.537244e+00
1.360000e-06	4.585498e-06	1.139065e-10	4.864204e+01	7.635718e+00
1.370000e-06	4.638136e-06	1.144118e-10	4.920042e+01	7.728307e+00
1.380000e-06	4.688879e-06	1.155189e-10	4.973869e+01	7.813068e+00
1.390000e-06	4.737520e-06	1.168250e-10	5.025466e+01	7.888333e+00
1.400000e-06	4.784300e-06	1.182109e-10	5.075090e+01	7.952948e+00
1.410000e-06	4.829476e-06	1.188480e-10	5.123011e+01	8.006475e+00
1.420000e-06	4.873120e-06	1.192912e-10	5.169308e+01	8.049324e+00
1.430000e-06	4.915069e-06	1.197296e-10	5.213806e+01	8.082780e+00
1.440000e-06	4.955096e-06	1.200729e-10	5.256267e+01	8.108931e+00
1.450000e-06	4.993359e-06	1.194190e-10	5.296855e+01	8.130481e+00
1.460000e-06	5.030006e-06	1.182279e-10	5.335729e+01	8.150486e+00
1.470000e-06	5.064992e-06	1.182833e-10	5.372842e+01	8.172024e+00
1.480000e-06	5.098090e-06	1.198043e-10	5.407952e+01	8.197863e+00
1.490000e-06	5.129273e-06	1.205947e-10	5.441030e+01	8.230148e+00
1.500000e-06	5.158735e-06	1.201718e-10	5.472283e+01	8.270160e+00
1.510000e-06	5.186589e-06	1.203527e-10	5.501830e+01	8.318170e+00
1.520000e-06	5.212632e-06	1.205680e-10	5.529455e+01	8.373416e+00
1.530000e-06	5.236620e-06	1.210485e-10	5.554901e+01	8.434180e+00
1.540000e-06	5.258695e-06	1.221025e-10	5.578319e+01	8.497986e+00
1.550000e-06	5.279066e-06	1.235206e-10	5.599927e+01	8.561855e+00
1.560000e-06	5.297791e-06	1.237056e-10	5.619790e+01	8.622611e+00
1.570000e-06	5.314613e-06	1.238706e-10	5.637635e+01	8.677178e+00
1.580000e-06	5.329359e-06	1.256381e-10	5.653278e+01	8.722845e+00
1.590000e-06	5.342185e-06	1.273233e-10	5.666882e+01	8.757461e+00
1.600000e-06	5.352974e-06	1.283020e-10	5.678328e+01	8.779555e+00
1.610000e-06	5.361596e-06	1.274875e-10	5.687473e+01	8.788364e+00
1.620000e-06	5.368237e-06	1.259776e-10	5.694518e+01	8.783790e+00
1.630000e-06	5.373090e-06	1.256460e-10	5.699666e+01	8.766301e+00
1.640000e-06	5.376174e-06	1.261897e-10	5.702937e+01	8.736811e+00
1.650000e-06	5.377317e-06	1.249327e-10	5.704150e+01	8.696551e+00
1.660000e-06	5.376492e-06	1.222730e-10	5.703275e+01	8.646978e+00
1.670000e-06	5.373920e-06	1.205398e-10	5.700547e+01	8.589707e+00
1.680000e-06	5.369799e-06	1.205682e-10	5.696175e+01	8.526507e+00
1.690000e-06	5.363979e-06	1.202137e-10	5.690001e+01	8.459314e+00
1.700000e-06	5.356259e-06	1.194929e-10	5.681812e+01	8.390271e+00
1.710000e-06	5.346836e-06	1.193051e-10	5.671816e+01	8.321762e+00
1.720000e-06	5.335776e-06	1.208885e-10	5.660084e+01	8.256401e+00
1.730000e-06	5.322864e-06	1.229147e-10	5.646388e+01	8.196970e+00
1.740000e-06	5.307932e-06	1.258288e-10	5.630548e+01	8.146284e+00
1.750000e-06	5.290714e-06	1.115847e-10	5.612283e+01	8.106983e+00
1.760000e-06	5.270971e-06	1.155889e-10	5.591340e+01	8.081262e+00
1.770000e-06	5.248792e-06	1.240766e-10	5.567813e+01	8.070582e+00
1.780000e-06	5.224875e-06	1.214048e-10	5.542443e+01	8.075378e+00
1.790000e-06	5.200101e-06	1.389976e-10	5.516163e+01	8.094829e+00
1.800000e-06	5.174255e-06	1.193253e-10	5.488746e+01	8.126732e+00
1.810000e-06	5.146448e-06	1.104218e-10	5.459249e+01	8.167504e+00
1.820000e-06	5.116766e-06	1.486604e-10	5.427763e+01	8.212339e+00
1.830000e-06	5.085512e-06	1.243909e-10	5.394609e+01	8.255533e+00
1.840000e-06	5.052236e-06	1.401616e-10	5.359311e+01	8.290934e+00
1.850000e-06	5.017040e-06	1.654632e-10	5.321976e+01	8.312497e+00
1.860000e-06	4.980321e-06	1.050350e-10	5.283024e+01	8.314872e+00
1.870000e-06	4.941784e-06	1.318962e-10	5.242146e+01	8.293969e+00
1.880000e-06	4.901347e-06	1.556726e-10	5.199251e+01	8.247423e+00
1.890000e-06	4.859113e-06	1.065305e-10	5.154449e+01	8.174905e+00
1.900000e-06	4.815267e-06	1.146466e-10	5.107939e+01	8.078231e+00
1.910000e-06	4.769983e-06	1.098841e-10	5.059902e+01	7.961247e+00
1.920000e-06	4.722860e-06	1.097770e-10	5.009915e+01	7.829505e+00
1.930000e-06	4.673841e-06	1.260559e-10	4.957917e+01	7.689749e+00
1.940000e-06	4.623216e-06	8.719046e-11	4.904215e+01	7.549270e+00
1.950000e-06	4.570873e-06	1.007397e-10	4.848690e+01	7.415215e+00
1.960000e-06	4.516552e-06	1.041698e-10	4.791068e+01	7.293905e+00
1.970000e-06	4.460360e-06	9.337952e-11	4.731460e+01	7.190261e+00
1.980000e-06	4.402592e-06	1.023645e-10	4.670182e+01	7.107388e+00
1.990000e-06	4.343289e-06	8.789042e-11	4.607274e+01	7.046373e+00
2.000000e-06	4.282563e-06	9.927098e-11	4.542857e+01	7.006296e+00
2.010000e-06	4.220384e-06	9.690323e-11	4.476899e+01	6.984468e+00
2.020000e-06	4.156477e-06	1.058811e-10	4.409107e+01	6.976834e+00
2.030000e-06	4.090947e-06	9.782407e-11	4.339594e+01	6.978506e+00
2.040000e-06	4.024037e-06	8.207907e-11	4.268618e+01	6.984342e+00
2.050000e-06	3.955851e-06	1.130120e-10	4.196288e+01	6.989496e+00
2.060000e-06	3.886184e-06	1.048464e-10	4.122386e+01	6.989887e+00
2.070000e-06	3.814833e-06	9.646748e-11	4.046698e+01	6.982521e+00
2.080000e-06	3.742108e-06	9.013653e-11	3.969553e+01	6.965641e+00
2.090000e-06	3.668125e-06	9.805602e-11	3.891074e+01	6.938700e+00
2.100000e-06	3.592739e-06	1.163109e-10	3.811106e+01	6.902177e+00
2.110000e-06	3.515834e-06	9.368099e-11	3.729526e+01	6.857274e+00
2.120000e-06	3.437423e-06	8.944431e-11	3.646349e+01	6.805552e+00
2.130000e-06	3.357679e-06	9.716472e-11	3.561758e+01	6.748555e+00
2.140000e-06	3.276787e-06	1.040685e-10	3.475950e+01	6.687491e+00
2.150000e-06	3.194826e-06	9.928880e-11	3.389007e+01	6.623007e+00
2.160000e-06	3.111771e-06	9.348126e-11	3.300904e+01	6.555089e+00
2.170000e-06	3.027666e-06	9.760545e-11	3.211688e+01	6.483089e+00
2.180000e-06	2.942481e-06	9.443883e-11	3.121325e+01	6.405880e+00
2.190000e-06	2.856156e-06	1.011632e-10	3.029753e+01	6.322082e+00
2.200000e-06	2.768685e-06	9.970500e-11	2.936966e+01	6.230348e+00
2.210000e-06	2.680226e-06	8.898646e-11	2.843130e+01	6.129634e+00
2.220000e-06	2.590911e-06	8.526374e-11	2.748386e+01	6.019421e+00
2.230000e-06	2.500685e-06	9.324680e-11	2.652676e+01	5.899850e+00
2.240000e-06	2.409607e-06	9.503387e-11	2.556063e+01	5.771750e+00
2.250000e-06	2.317839e-06	7.968342e-11	2.458717e+01	5.636548e+00
2.260000e-06	2.225403e-06	7.592507e-11	2.360663e+01	5.496089e+00
2.270000e-06	2.132226e-06	8.374445e-11	2.261823e+01	5.352381e+00
2.280000e-06	2.038210e-06	8.777209e-11	2.162092e+01	5.207310e+00
2.290000e-06	1.943300e-06	8.222969e-11	2.061413e+01	5.062374e+00
2.300000e-06	1.847548e-06	7.769898e-11	1.959841e+01	4.918467e+00
2.310000e-06	1.751101e-06	7.682713e-11	1.857533e+01	4.775746e+00
2.320000e-06	1.654148e-06	7.531261e-11	1.754687e+01	4.633605e+00
2.330000e-06	1.556789e-06	7.421847e-11	1.651411e+01	4.490748e+00
2.340000e-06	1.458915e-06	6.945633e-11	1.547587e+01	4.345356e+00
2.350000e-06	1.360442e-06	6.482698e-11	1.443130e+01	4.195309e+00
2.360000e-06	1.261550e-06	6.371198e-11	1.338227e+01	4.038445e+00
2.370000e-06	1.162338e-06	6.570826e-11	1.232985e+01	3.872799e+00
2.380000e-06	1.062713e-06	6.328719e-11	1.127304e+01	3.696799e+00
2.390000e-06	9.627506e-07	5.691726e-11	1.021267e+01	3.509402e+00
2.400000e-06	8.625031e-07	5.529766e-11	9.149261e+00	3.310128e+00
2.410000e-06	7.619312e-07	5.544783e-11	8.082413e+00	3.099032e+00
2.420000e-06	6.611240e-07	5.260495e-11	7.013071e+00	2.876593e+00
2.430000e-06	5.601300e-07	4.653220e-11	5.941747e+00	2.643574e+00
2.440000e-06	4.589441e-07	4.166321e-11	4.868387e+00	2.400858e+00
2.450000e-06	3.575085e-07	3.889452e-11	3.792379e+00	2.149314e+00
2.460000e-06	2.559016e-07	3.460835e-11	2.714553e+00	1.889696e+00
2.470000e-06	1.542584e-07	2.960300e-11	1.636342e+00	1.622616e+00
2.480000e-06	5.251212e-08	2.593960e-11	5.570380e-01	1.348566e+00
2.490000e-06	-4.937198e-08	2.265134e-11	-5.237281e-01	1.068011e+00
2.500000e-06	-1.511520e-07	1.673058e-11	-1.603390e+00	7.815086e-01
2.510000e-06	-2.526974e-07	1.098201e-11	-2.680563e+00	4.898401e-01
2.520000e-06	-3.541948e-07	7.989878e-12	-3.757227e+00	1.941204e-01
2.530000e-06	-4.556533e-07	4.357987e-12	-4.833479e+00	-1.041414e-01
2.540000e-06	-5.567895e-07	-2.249008e-12	-5.906312e+00	-4.030485e-01
2.550000e-06	-6.575130e-07	-9.283021e-12	-6.974766e+00	-7.004004e-01
2.560000e-06	-7.579766e-07	-1.373573e-11	-8.040464e+00	-9.938470e-01
2.570000e-06	-8.581779e-07	-1.562162e-11	-9.103379e+00	-1.281094e+00
2.580000e-06	-9.580909e-07	-1.722055e-11	-1.016324e+01	-1.560135e+00
2.590000e-06	-1.057746e-06	-2.152028e-11	-1.122036e+01	-1.829464e+00
2.600000e-06	-1.157111e-06	-2.737934e-11	-1.227440e+01	-2.088249e+00
2.610000e-06	-1.256106e-06	-3.000496e-11	-1.332452e+01	-2.336421e+00
2.620000e-06	-1.354685e-06	-2.924106e-11	-1.437023e+01	-2.574666e+00
2.630000e-06	-1.452853e-06	-3.280659e-11	-1.541158e+01	-2.804315e+00
2.640000e-06	-1.550533e-06	-4.144118e-11	-1.644774e+01	-3.027132e+00
2.650000e-06	-1.647679e-06	-4.680992e-11	-1.747825e+01	-3.245047e+00
2.660000e-06	-1.744331e-06	-4.771545e-11	-1.850351e+01	-3.459837e+00
2.670000e-06	-1.840473e-06	-4.931287e-11	-1.952337e+01	-3.672832e+00
2.680000e-06	-1.935998e-06	-5.388344e-11	-2.053668e+01	-3.884666e+00
2.690000e-06	-2.030718e-06	-5.900869e-11	-2.154145e+01	-4.095120e+00
2.700000e-06	-2.124554e-06	-6.173169e-11	-2.253684e+01	-4.303076e+00
2.710000e-06	-2.217450e-06	-6.294037e-11	-2.352226e+01	-4.506605e+00
2.720000e-06	-2.309422e-06	-6.560601e-11	-2.449789e+01	-4.703165e+00
2.730000e-06	-2.400624e-06	-7.108788e-11	-2.546533e+01	-4.889891e+00
2.740000e-06	-2.491078e-06	-7.632368e-11	-2.642485e+01	-5.063942e+00
2.750000e-06	-2.580671e-06	-7.718043e-11	-2.737524e+01	-5.222860e+00
2.760000e-06	-2.669369e-06	-7.602494e-11	-2.831613e+01	-5.364885e+00
2.770000e-06	-2.757211e-06	-7.856878e-11	-2.924794e+01	-5.489195e+00
2.780000e-06	-2.844113e-06	-8.356308e-11	-3.016978e+01	-5.596034e+00
2.790000e-06	-2.929892e-06	-8.555815e-11	-3.107971e+01	-5.686711e+00
2.800000e-06	-3.014507e-06	-8.432324e-11	-3.197728e+01	-5.763483e+00
2.810000e-06	-3.098089e-06	-8.365159e-11	-3.286390e+01	-5.829321e+00
2.820000e-06	-3.180651e-06	-8.491358e-11	-3.373971e+01	-5.887619e+00
2.830000e-06	-3.262172e-06	-8.626546e-11	-3.460447e+01	-5.941857e+00
2.840000e-06	-3.342685e-06	-8.591527e-11	-3.545854e+01	-5.995289e+00
2.850000e-06	-3.422010e-06	-8.539649e-11	-3.629999e+01	-6.050677e+00
2.860000e-06	-3.499855e-06	-8.689906e-11	-3.712576e+01	-6.110111e+00
2.870000e-06	-3.576160e-06	-9.028143e-11	-3.793519e+01	-6.174930e+00
2.880000e-06	-3.651063e-06	-9.353165e-11	-3.872975e+01	-6.245744e+00
2.890000e-06	-3.724647e-06	-9.434620e-11	-3.951031e+01	-6.322539e+00
2.900000e-06	-3.796964e-06	-9.341153e-11	-4.027744e+01	-6.404851e+00
2.910000e-06	-3.867920e-06	-9.313840e-11	-4.103012e+01	-6.491955e+00
2.920000e-06	-3.937332e-06	-9.580464e-11	-4.176643e+01	-6.583061e+00
2.930000e-06	-4.005264e-06	-9.886077e-11	-4.248703e+01	-6.677449e+00
2.940000e-06	-4.071866e-06	-9.976803e-11	-4.319354e+01	-6.774561e+00
