# Temperatura_=_20.0
# Concentracion g/m^3_=_9000.0
# C_Vs_to_Am_M_A/Vsm_=_65563218390.804596
# pendiente_HvsI_1/m_=_3716.3
# ordenada_HvsI_A/m_=_1297.0
# frecuencia_Hz_=_300883.980394511

Tiempo_(s)	Campo_(V.s)	Magnetizacion_(V.s)	Campo_(kA/m)	Magnetizacion_(A/m)
0.000000e+00	-5.359877e-06	-4.342790e-09	-5.680107e+01	-2.842103e+02
1.000000e-08	-5.358584e-06	-4.346910e-09	-5.678737e+01	-2.841913e+02
2.000000e-08	-5.355392e-06	-4.347892e-09	-5.675354e+01	-2.841313e+02
3.000000e-08	-5.350570e-06	-4.346179e-09	-5.670244e+01	-2.840291e+02
4.000000e-08	-5.344167e-06	-4.343740e-09	-5.663458e+01	-2.838836e+02
5.000000e-08	-5.336055e-06	-4.340622e-09	-5.654861e+01	-2.836943e+02
6.000000e-08	-5.325920e-06	-4.334006e-09	-5.644121e+01	-2.834613e+02
7.000000e-08	-5.313797e-06	-4.322996e-09	-5.631273e+01	-2.831859e+02
8.000000e-08	-5.299732e-06	-4.312828e-09	-5.616368e+01	-2.828706e+02
9.000000e-08	-5.283531e-06	-4.338245e-09	-5.599199e+01	-2.825192e+02
1.000000e-07	-5.265284e-06	-4.362502e-09	-5.579861e+01	-2.821370e+02
1.100000e-07	-5.245169e-06	-4.349707e-09	-5.558545e+01	-2.817300e+02
1.200000e-07	-5.223180e-06	-4.325044e-09	-5.535243e+01	-2.813048e+02
1.300000e-07	-5.199392e-06	-4.270760e-09	-5.510034e+01	-2.808679e+02
1.400000e-07	-5.173945e-06	-4.236336e-09	-5.483065e+01	-2.804249e+02
1.500000e-07	-5.147028e-06	-4.317004e-09	-5.454541e+01	-2.799800e+02
1.600000e-07	-5.118614e-06	-4.297320e-09	-5.424430e+01	-2.795348e+02
1.700000e-07	-5.088674e-06	-4.234868e-09	-5.392700e+01	-2.790888e+02
1.800000e-07	-5.056982e-06	-4.259325e-09	-5.359115e+01	-2.786383e+02
1.900000e-07	-5.023176e-06	-4.227274e-09	-5.323289e+01	-2.781772e+02
2.000000e-07	-4.987824e-06	-4.251943e-09	-5.285825e+01	-2.776968e+02
2.100000e-07	-4.951013e-06	-4.269110e-09	-5.246814e+01	-2.771871e+02
2.200000e-07	-4.912267e-06	-4.179943e-09	-5.205754e+01	-2.766373e+02
2.300000e-07	-4.871590e-06	-4.178089e-09	-5.162646e+01	-2.760369e+02
2.400000e-07	-4.829014e-06	-4.219803e-09	-5.117527e+01	-2.753766e+02
2.500000e-07	-4.784657e-06	-4.204939e-09	-5.070520e+01	-2.746494e+02
2.600000e-07	-4.738564e-06	-4.178726e-09	-5.021672e+01	-2.738509e+02
2.700000e-07	-4.690435e-06	-4.112438e-09	-4.970668e+01	-2.729798e+02
2.800000e-07	-4.640181e-06	-4.127386e-09	-4.917411e+01	-2.720379e+02
2.900000e-07	-4.588147e-06	-4.153864e-09	-4.862269e+01	-2.710296e+02
3.000000e-07	-4.534498e-06	-4.115196e-09	-4.805414e+01	-2.699612e+02
3.100000e-07	-4.479222e-06	-4.075535e-09	-4.746836e+01	-2.688402e+02
3.200000e-07	-4.422195e-06	-4.058695e-09	-4.686402e+01	-2.676740e+02
3.300000e-07	-4.363490e-06	-4.063168e-09	-4.624190e+01	-2.664695e+02
3.400000e-07	-4.303325e-06	-4.042344e-09	-4.560430e+01	-2.652315e+02
3.500000e-07	-4.241748e-06	-4.019161e-09	-4.495174e+01	-2.639630e+02
3.600000e-07	-4.178771e-06	-3.982012e-09	-4.428435e+01	-2.626641e+02
3.700000e-07	-4.114100e-06	-3.956852e-09	-4.359900e+01	-2.613330e+02
3.800000e-07	-4.047797e-06	-3.975162e-09	-4.289635e+01	-2.599653e+02
3.900000e-07	-3.980111e-06	-3.952033e-09	-4.217906e+01	-2.585555e+02
4.000000e-07	-3.910989e-06	-3.892671e-09	-4.144654e+01	-2.570972e+02
4.100000e-07	-3.840640e-06	-3.874051e-09	-4.070101e+01	-2.555841e+02
4.200000e-07	-3.769067e-06	-3.876990e-09	-3.994253e+01	-2.540105e+02
4.300000e-07	-3.695908e-06	-3.854702e-09	-3.916723e+01	-2.523721e+02
4.400000e-07	-3.621105e-06	-3.801926e-09	-3.837450e+01	-2.506660e+02
4.500000e-07	-3.544866e-06	-3.773956e-09	-3.756657e+01	-2.488906e+02
4.600000e-07	-3.467202e-06	-3.761934e-09	-3.674352e+01	-2.470460e+02
4.700000e-07	-3.388023e-06	-3.738048e-09	-3.590442e+01	-2.451327e+02
4.800000e-07	-3.307461e-06	-3.706518e-09	-3.505067e+01	-2.431515e+02
4.900000e-07	-3.225756e-06	-3.662246e-09	-3.418481e+01	-2.411028e+02
5.000000e-07	-3.143124e-06	-3.632082e-09	-3.330912e+01	-2.389859e+02
5.100000e-07	-3.059625e-06	-3.608686e-09	-3.242424e+01	-2.367988e+02
5.200000e-07	-2.975134e-06	-3.580381e-09	-3.152885e+01	-2.345377e+02
5.300000e-07	-2.889573e-06	-3.531737e-09	-3.062212e+01	-2.321972e+02
5.400000e-07	-2.803100e-06	-3.483907e-09	-2.970573e+01	-2.297701e+02
5.500000e-07	-2.715847e-06	-3.456581e-09	-2.878107e+01	-2.272486e+02
5.600000e-07	-2.627516e-06	-3.426497e-09	-2.784498e+01	-2.246240e+02
5.700000e-07	-2.537931e-06	-3.380833e-09	-2.689561e+01	-2.218876e+02
5.800000e-07	-2.447319e-06	-3.324752e-09	-2.593536e+01	-2.190314e+02
5.900000e-07	-2.355880e-06	-3.283226e-09	-2.496633e+01	-2.160479e+02
6.000000e-07	-2.263701e-06	-3.246397e-09	-2.398947e+01	-2.129310e+02
6.100000e-07	-2.170826e-06	-3.198902e-09	-2.300524e+01	-2.096752e+02
6.200000e-07	-2.077230e-06	-3.136901e-09	-2.201336e+01	-2.062760e+02
6.300000e-07	-1.982903e-06	-3.074347e-09	-2.101373e+01	-2.027291e+02
6.400000e-07	-1.887946e-06	-3.020334e-09	-2.000742e+01	-1.990300e+02
6.500000e-07	-1.792372e-06	-2.965608e-09	-1.899458e+01	-1.951733e+02
6.600000e-07	-1.696071e-06	-2.904092e-09	-1.797404e+01	-1.911521e+02
6.700000e-07	-1.598892e-06	-2.836425e-09	-1.694419e+01	-1.869573e+02
6.800000e-07	-1.500917e-06	-2.769151e-09	-1.590590e+01	-1.825776e+02
6.900000e-07	-1.402440e-06	-2.701211e-09	-1.486230e+01	-1.779983e+02
7.000000e-07	-1.303588e-06	-2.630991e-09	-1.381472e+01	-1.732021e+02
7.100000e-07	-1.204336e-06	-2.551186e-09	-1.276290e+01	-1.681684e+02
7.200000e-07	-1.104685e-06	-2.465303e-09	-1.170685e+01	-1.628735e+02
7.300000e-07	-1.004702e-06	-2.381260e-09	-1.064729e+01	-1.572911e+02
7.400000e-07	-9.043940e-07	-2.295050e-09	-9.584276e+00	-1.513922e+02
7.500000e-07	-8.037707e-07	-2.198598e-09	-8.517925e+00	-1.451458e+02
7.600000e-07	-7.028453e-07	-2.093802e-09	-7.448372e+00	-1.385191e+02
7.700000e-07	-6.016530e-07	-1.987663e-09	-6.375992e+00	-1.314787e+02
7.800000e-07	-5.002767e-07	-1.874071e-09	-5.301661e+00	-1.239912e+02
7.900000e-07	-3.987103e-07	-1.750901e-09	-4.225315e+00	-1.160242e+02
8.000000e-07	-2.969694e-07	-1.621213e-09	-3.147120e+00	-1.075482e+02
8.100000e-07	-1.951441e-07	-1.485846e-09	-2.068032e+00	-9.853792e+01
8.200000e-07	-9.328053e-08	-1.338455e-09	-9.885364e-01	-8.897432e+01
8.300000e-07	8.673042e-09	-1.179425e-09	9.191218e-02	-7.884685e+01
8.400000e-07	1.106772e-07	-1.014130e-09	1.172897e+00	-6.815544e+01
8.500000e-07	2.126104e-07	-8.428288e-10	2.253129e+00	-5.691250e+01
8.600000e-07	3.144722e-07	-6.657148e-10	3.332605e+00	-4.514463e+01
8.700000e-07	4.161958e-07	-4.784452e-10	4.410617e+00	-3.289377e+01
8.800000e-07	5.176977e-07	-2.845946e-10	5.486279e+00	-2.021761e+01
8.900000e-07	6.190421e-07	-8.672012e-11	6.560272e+00	-7.189197e+00
9.000000e-07	7.202308e-07	1.135809e-10	7.632615e+00	6.104334e+00
9.100000e-07	8.211359e-07	3.188450e-10	8.701952e+00	1.956409e+01
9.200000e-07	9.216948e-07	5.272276e-10	9.767621e+00	3.308249e+01
9.300000e-07	1.021876e-06	7.316837e-10	1.082929e+01	4.654717e+01
9.400000e-07	1.121677e-06	9.316383e-10	1.188692e+01	5.984518e+01
9.500000e-07	1.221149e-06	1.128133e-09	1.294107e+01	7.286757e+01
9.600000e-07	1.320311e-06	1.322803e-09	1.399193e+01	8.551371e+01
9.700000e-07	1.419136e-06	1.510105e-09	1.503923e+01	9.769517e+01
9.800000e-07	1.517515e-06	1.686848e-09	1.608180e+01	1.093389e+02
9.900000e-07	1.615228e-06	1.852846e-09	1.711731e+01	1.203897e+02
1.000000e-06	1.712128e-06	2.010270e-09	1.814421e+01	1.308106e+02
1.010000e-06	1.808221e-06	2.160296e-09	1.916254e+01	1.405840e+02
1.020000e-06	1.903575e-06	2.301197e-09	2.017305e+01	1.497094e+02
1.030000e-06	1.998282e-06	2.429649e-09	2.117671e+01	1.582021e+02
1.040000e-06	2.092381e-06	2.544834e-09	2.217392e+01	1.660902e+02
1.050000e-06	2.185810e-06	2.652455e-09	2.316402e+01	1.734112e+02
1.060000e-06	2.278481e-06	2.756217e-09	2.414611e+01	1.802088e+02
1.070000e-06	2.370383e-06	2.854432e-09	2.512003e+01	1.865295e+02
1.080000e-06	2.461588e-06	2.941238e-09	2.608657e+01	1.924197e+02
1.090000e-06	2.552089e-06	3.021207e-09	2.704565e+01	1.979231e+02
1.100000e-06	2.641571e-06	3.099058e-09	2.799393e+01	2.030795e+02
1.110000e-06	2.729713e-06	3.175178e-09	2.892801e+01	2.079231e+02
1.120000e-06	2.816777e-06	3.246071e-09	2.985068e+01	2.124826e+02
1.130000e-06	2.903057e-06	3.309806e-09	3.076502e+01	2.167810e+02
1.140000e-06	2.988419e-06	3.370166e-09	3.166965e+01	2.208369e+02
1.150000e-06	3.072738e-06	3.427478e-09	3.256320e+01	2.246646e+02
1.160000e-06	3.156082e-06	3.482572e-09	3.344644e+01	2.282760e+02
1.170000e-06	3.238585e-06	3.531937e-09	3.432077e+01	2.316809e+02
1.180000e-06	3.319921e-06	3.575950e-09	3.518271e+01	2.348884e+02
1.190000e-06	3.399872e-06	3.619029e-09	3.603000e+01	2.379073e+02
1.200000e-06	3.478594e-06	3.661573e-09	3.686425e+01	2.407466e+02
1.210000e-06	3.556035e-06	3.702341e-09	3.768493e+01	2.434159e+02
1.220000e-06	3.632204e-06	3.740160e-09	3.849212e+01	2.459252e+02
1.230000e-06	3.707113e-06	3.774734e-09	3.928596e+01	2.482848e+02
1.240000e-06	3.780505e-06	3.807044e-09	4.006373e+01	2.505053e+02
1.250000e-06	3.852248e-06	3.838980e-09	4.082403e+01	2.525969e+02
1.260000e-06	3.922592e-06	3.868835e-09	4.156950e+01	2.545697e+02
1.270000e-06	3.991642e-06	3.894687e-09	4.230125e+01	2.564333e+02
1.280000e-06	4.059353e-06	3.917242e-09	4.301882e+01	2.581966e+02
1.290000e-06	4.125733e-06	3.941347e-09	4.372228e+01	2.598679e+02
1.300000e-06	4.190482e-06	3.968097e-09	4.440845e+01	2.614548e+02
1.310000e-06	4.253628e-06	3.992901e-09	4.507764e+01	2.629641e+02
1.320000e-06	4.315428e-06	4.014504e-09	4.573256e+01	2.644020e+02
1.330000e-06	4.375818e-06	4.034233e-09	4.637254e+01	2.657739e+02
1.340000e-06	4.434833e-06	4.054663e-09	4.699795e+01	2.670843e+02
1.350000e-06	4.492228e-06	4.075449e-09	4.760619e+01	2.683371e+02
1.360000e-06	4.547770e-06	4.092855e-09	4.819480e+01	2.695350e+02
1.370000e-06	4.601683e-06	4.107723e-09	4.876614e+01	2.706799e+02
1.380000e-06	4.654012e-06	4.123385e-09	4.932070e+01	2.717731e+02
1.390000e-06	4.704517e-06	4.139260e-09	4.985591e+01	2.728148e+02
1.400000e-06	4.752953e-06	4.155165e-09	5.036922e+01	2.738049e+02
1.410000e-06	4.799449e-06	4.170874e-09	5.086195e+01	2.747430e+02
1.420000e-06	4.844306e-06	4.185594e-09	5.133732e+01	2.756286e+02
1.430000e-06	4.887663e-06	4.199149e-09	5.179679e+01	2.764615e+02
1.440000e-06	4.929253e-06	4.211818e-09	5.223754e+01	2.772422e+02
1.450000e-06	4.968865e-06	4.225277e-09	5.265733e+01	2.779717e+02
1.460000e-06	5.006766e-06	4.236829e-09	5.305898e+01	2.786519e+02
1.470000e-06	5.043115e-06	4.245785e-09	5.344419e+01	2.792854e+02
1.480000e-06	5.077854e-06	4.254280e-09	5.381234e+01	2.798758e+02
1.490000e-06	5.110597e-06	4.263779e-09	5.415932e+01	2.804266e+02
1.500000e-06	5.141379e-06	4.273535e-09	5.448554e+01	2.809418e+02
1.510000e-06	5.170510e-06	4.281405e-09	5.479425e+01	2.814250e+02
1.520000e-06	5.198013e-06	4.288924e-09	5.508572e+01	2.818794e+02
1.530000e-06	5.223629e-06	4.296831e-09	5.535718e+01	2.823075e+02
1.540000e-06	5.247160e-06	4.304183e-09	5.560655e+01	2.827105e+02
1.550000e-06	5.268822e-06	4.310748e-09	5.583611e+01	2.830893e+02
1.560000e-06	5.288807e-06	4.317449e-09	5.604790e+01	2.834434e+02
1.570000e-06	5.307084e-06	4.323242e-09	5.624159e+01	2.837717e+02
1.580000e-06	5.323408e-06	4.327681e-09	5.641459e+01	2.840729e+02
1.590000e-06	5.337730e-06	4.332171e-09	5.656637e+01	2.843450e+02
1.600000e-06	5.350123e-06	4.338247e-09	5.669769e+01	2.845864e+02
1.610000e-06	5.360437e-06	4.344180e-09	5.680699e+01	2.847951e+02
1.620000e-06	5.368580e-06	4.346307e-09	5.689329e+01	2.849699e+02
1.630000e-06	5.374783e-06	4.346457e-09	5.695903e+01	2.851095e+02
1.640000e-06	5.379250e-06	4.348581e-09	5.700637e+01	2.852127e+02
1.650000e-06	5.381931e-06	4.351960e-09	5.703478e+01	2.852787e+02
1.660000e-06	5.382565e-06	4.353540e-09	5.704150e+01	2.853063e+02
1.670000e-06	5.381261e-06	4.350618e-09	5.702768e+01	2.852945e+02
1.680000e-06	5.378340e-06	4.348519e-09	5.699672e+01	2.852419e+02
1.690000e-06	5.373879e-06	4.348033e-09	5.694945e+01	2.851474e+02
1.700000e-06	5.367611e-06	4.347945e-09	5.688302e+01	2.850098e+02
1.710000e-06	5.359412e-06	4.346182e-09	5.679613e+01	2.848283e+02
1.720000e-06	5.349579e-06	4.343116e-09	5.669193e+01	2.846031e+02
1.730000e-06	5.338137e-06	4.346620e-09	5.657067e+01	2.843351e+02
1.740000e-06	5.324917e-06	4.338718e-09	5.643058e+01	2.840267e+02
1.750000e-06	5.309600e-06	4.286399e-09	5.626825e+01	2.836815e+02
1.760000e-06	5.291846e-06	4.271013e-09	5.608011e+01	2.833044e+02
1.770000e-06	5.271524e-06	4.275539e-09	5.586475e+01	2.829013e+02
1.780000e-06	5.248769e-06	4.310462e-09	5.562360e+01	2.824789e+02
1.790000e-06	5.224470e-06	4.383116e-09	5.536610e+01	2.820437e+02
1.800000e-06	5.199486e-06	4.290492e-09	5.510132e+01	2.816015e+02
1.810000e-06	5.173234e-06	4.251164e-09	5.482313e+01	2.811567e+02
1.820000e-06	5.144908e-06	4.315251e-09	5.452294e+01	2.807116e+02
1.830000e-06	5.114976e-06	4.264071e-09	5.420574e+01	2.802660e+02
1.840000e-06	5.083429e-06	4.309199e-09	5.387142e+01	2.798167e+02
1.850000e-06	5.049587e-06	4.303582e-09	5.351278e+01	2.793581e+02
1.860000e-06	5.013886e-06	4.199171e-09	5.313444e+01	2.788819e+02
1.870000e-06	4.976659e-06	4.290033e-09	5.273992e+01	2.783783e+02
1.880000e-06	4.937535e-06	4.283481e-09	5.232531e+01	2.778364e+02
1.890000e-06	4.896613e-06	4.193921e-09	5.189165e+01	2.772458e+02
1.900000e-06	4.853909e-06	4.212566e-09	5.143909e+01	2.765968e+02
1.910000e-06	4.809644e-06	4.183930e-09	5.096999e+01	2.758820e+02
1.920000e-06	4.763893e-06	4.238543e-09	5.048515e+01	2.750964e+02
1.930000e-06	4.716157e-06	4.209695e-09	4.997927e+01	2.742383e+02
1.940000e-06	4.666674e-06	4.107663e-09	4.945487e+01	2.733088e+02
1.950000e-06	4.615638e-06	4.172932e-09	4.891402e+01	2.723120e+02
1.960000e-06	4.562775e-06	4.145341e-09	4.835381e+01	2.712538e+02
1.970000e-06	4.507881e-06	4.119806e-09	4.777207e+01	2.701417e+02
1.980000e-06	4.451192e-06	4.112521e-09	4.717132e+01	2.689831e+02
1.990000e-06	4.393013e-06	4.058355e-09	4.655476e+01	2.677850e+02
2.000000e-06	4.333324e-06	4.071190e-09	4.592222e+01	2.665528e+02
2.010000e-06	4.272376e-06	4.054517e-09	4.527632e+01	2.652896e+02
2.020000e-06	4.209880e-06	4.063338e-09	4.461402e+01	2.639963e+02
2.030000e-06	4.145447e-06	3.988051e-09	4.393120e+01	2.626712e+02
2.040000e-06	4.079428e-06	3.945384e-09	4.323157e+01	2.613105e+02
2.050000e-06	4.012034e-06	4.005295e-09	4.251736e+01	2.599087e+02
2.060000e-06	3.943379e-06	3.961183e-09	4.178979e+01	2.584595e+02
2.070000e-06	3.873131e-06	3.917703e-09	4.104533e+01	2.569567e+02
2.080000e-06	3.801253e-06	3.869070e-09	4.028361e+01	2.553943e+02
2.090000e-06	3.728162e-06	3.872615e-09	3.950904e+01	2.537678e+02
2.100000e-06	3.653770e-06	3.866846e-09	3.872067e+01	2.520739e+02
2.110000e-06	3.578012e-06	3.807758e-09	3.791783e+01	2.503110e+02
2.120000e-06	3.500762e-06	3.785081e-09	3.709918e+01	2.484787e+02
2.130000e-06	3.421971e-06	3.739984e-09	3.626419e+01	2.465776e+02
2.140000e-06	3.341840e-06	3.729546e-09	3.541501e+01	2.446085e+02
2.150000e-06	3.260533e-06	3.711912e-09	3.455335e+01	2.425719e+02
2.160000e-06	3.178100e-06	3.677358e-09	3.367977e+01	2.404674e+02
2.170000e-06	3.094576e-06	3.629902e-09	3.279464e+01	2.382931e+02
2.180000e-06	3.010163e-06	3.586122e-09	3.190007e+01	2.360456e+02
2.190000e-06	2.924718e-06	3.576901e-09	3.099457e+01	2.337197e+02
2.200000e-06	2.838013e-06	3.535982e-09	3.007572e+01	2.313087e+02
2.210000e-06	2.750202e-06	3.484403e-09	2.914514e+01	2.288047e+02
2.220000e-06	2.661459e-06	3.437684e-09	2.820470e+01	2.261992e+02
2.230000e-06	2.571814e-06	3.409577e-09	2.725468e+01	2.234834e+02
2.240000e-06	2.481230e-06	3.372271e-09	2.629472e+01	2.206492e+02
2.250000e-06	2.389840e-06	3.317977e-09	2.532622e+01	2.176890e+02
2.260000e-06	2.297797e-06	3.270824e-09	2.435080e+01	2.145963e+02
2.270000e-06	2.205172e-06	3.220515e-09	2.336921e+01	2.113657e+02
2.280000e-06	2.111767e-06	3.174609e-09	2.237936e+01	2.079925e+02
2.290000e-06	2.017275e-06	3.126995e-09	2.137799e+01	2.044723e+02
2.300000e-06	1.921841e-06	3.075462e-09	2.036663e+01	2.008008e+02
2.310000e-06	1.825772e-06	3.010922e-09	1.934853e+01	1.969727e+02
2.320000e-06	1.729119e-06	2.943727e-09	1.832426e+01	1.929815e+02
2.330000e-06	1.631878e-06	2.885275e-09	1.729376e+01	1.888186e+02
2.340000e-06	1.534119e-06	2.824036e-09	1.625776e+01	1.844728e+02
2.350000e-06	1.435851e-06	2.752565e-09	1.521637e+01	1.799304e+02
2.360000e-06	1.337120e-06	2.678746e-09	1.417008e+01	1.751744e+02
2.370000e-06	1.237972e-06	2.607862e-09	1.311935e+01	1.701848e+02
2.380000e-06	1.138377e-06	2.528114e-09	1.206390e+01	1.649384e+02
2.390000e-06	1.038447e-06	2.442208e-09	1.100490e+01	1.594095e+02
2.400000e-06	9.382975e-07	2.354711e-09	9.943567e+00	1.535693e+02
2.410000e-06	8.379554e-07	2.260512e-09	8.880196e+00	1.473873e+02
2.420000e-06	7.374346e-07	2.157991e-09	7.814931e+00	1.408310e+02
2.430000e-06	6.366924e-07	2.053942e-09	6.747320e+00	1.338670e+02
2.440000e-06	5.357127e-07	1.947642e-09	5.677192e+00	1.264618e+02
2.450000e-06	4.345045e-07	1.827186e-09	4.604642e+00	1.185827e+02
2.460000e-06	3.331638e-07	1.692417e-09	3.530689e+00	1.101997e+02
2.470000e-06	2.317089e-07	1.555766e-09	2.455525e+00	1.012864e+02
2.480000e-06	1.300563e-07	1.418679e-09	1.378266e+00	9.182270e+01
2.490000e-06	2.828732e-08	1.271165e-09	2.997736e-01	8.179629e+01
2.500000e-06	-7.342997e-08	1.107165e-09	-7.781709e-01	7.120508e+01
2.510000e-06	-1.750245e-07	9.317354e-10	-1.854815e+00	6.005914e+01
2.520000e-06	-2.764489e-07	7.528393e-10	-2.929655e+00	4.838242e+01
2.530000e-06	-3.777258e-07	5.706524e-10	-4.002933e+00	3.621406e+01
2.540000e-06	-4.789103e-07	3.792374e-10	-5.075231e+00	2.360895e+01
2.550000e-06	-5.799037e-07	1.753017e-10	-6.145504e+00	1.063746e+01
2.560000e-06	-6.806250e-07	-3.260759e-11	-7.212894e+00	-2.615646e+00
2.570000e-06	-7.811403e-07	-2.350322e-10	-8.278100e+00	-1.605337e+01
2.580000e-06	-8.814770e-07	-4.346384e-10	-9.341414e+00	-2.956943e+01
2.590000e-06	-9.815812e-07	-6.406788e-10	-1.040226e+01	-4.305199e+01
2.600000e-06	-1.081422e-06	-8.508118e-10	-1.146033e+01	-5.638790e+01
2.610000e-06	-1.180888e-06	-1.052342e-09	-1.251441e+01	-6.946715e+01
2.620000e-06	-1.279942e-06	-1.240048e-09	-1.356413e+01	-8.218733e+01
2.630000e-06	-1.378559e-06	-1.422885e-09	-1.460922e+01	-9.445757e+01
2.640000e-06	-1.476659e-06	-1.607468e-09	-1.564883e+01	-1.062019e+02
2.650000e-06	-1.574233e-06	-1.784809e-09	-1.668286e+01	-1.173617e+02
2.660000e-06	-1.671337e-06	-1.945694e-09	-1.771192e+01	-1.278970e+02
2.670000e-06	-1.768017e-06	-2.093398e-09	-1.873649e+01	-1.377865e+02
2.680000e-06	-1.864255e-06	-2.234699e-09	-1.975636e+01	-1.470268e+02
2.690000e-06	-1.959865e-06	-2.370319e-09	-2.076959e+01	-1.556308e+02
2.700000e-06	-2.054501e-06	-2.496621e-09	-2.177248e+01	-1.636243e+02
2.710000e-06	-2.148042e-06	-2.608978e-09	-2.276378e+01	-1.710434e+02
2.720000e-06	-2.240715e-06	-2.710514e-09	-2.374588e+01	-1.779311e+02
2.730000e-06	-2.332764e-06	-2.807543e-09	-2.472136e+01	-1.843335e+02
2.740000e-06	-2.424080e-06	-2.902804e-09	-2.568909e+01	-1.902972e+02
2.750000e-06	-2.514472e-06	-2.991360e-09	-2.664701e+01	-1.958666e+02
2.760000e-06	-2.603930e-06	-3.068057e-09	-2.759504e+01	-2.010823e+02
2.770000e-06	-2.692583e-06	-3.140183e-09	-2.853454e+01	-2.059795e+02
2.780000e-06	-2.780495e-06	-3.213682e-09	-2.946617e+01	-2.105878e+02
2.790000e-06	-2.867310e-06	-3.284321e-09	-3.038619e+01	-2.149313e+02
2.800000e-06	-2.952820e-06	-3.347339e-09	-3.129238e+01	-2.190293e+02
2.810000e-06	-3.037273e-06	-3.405586e-09	-3.218737e+01	-2.228968e+02
2.820000e-06	-3.120735e-06	-3.461233e-09	-3.307185e+01	-2.265461e+02
2.830000e-06	-3.203149e-06	-3.514694e-09	-3.394524e+01	-2.299871e+02
2.840000e-06	-3.284547e-06	-3.567592e-09	-3.480785e+01	-2.332292e+02
2.850000e-06	-3.364951e-06	-3.617245e-09	-3.565993e+01	-2.362810e+02
2.860000e-06	-3.444060e-06	-3.660672e-09	-3.649828e+01	-2.391517e+02
2.870000e-06	-3.521631e-06	-3.701993e-09	-3.732033e+01	-2.418506e+02
2.880000e-06	-3.597750e-06	-3.744631e-09	-3.812700e+01	-2.443877e+02
2.890000e-06	-3.672440e-06	-3.782748e-09	-3.891852e+01	-2.467733e+02
2.900000e-06	-3.745834e-06	-3.815949e-09	-3.969632e+01	-2.490178e+02
2.910000e-06	-3.818075e-06	-3.848329e-09	-4.046189e+01	-2.511316e+02
2.920000e-06	-3.888851e-06	-3.880409e-09	-4.121193e+01	-2.531249e+02
2.930000e-06	-3.957946e-06	-3.910647e-09	-4.194416e+01	-2.550073e+02
2.940000e-06	-4.025651e-06	-3.938702e-09	-4.266166e+01	-2.567878e+02
