# Temperatura_=_20.0
# Concentracion g/m^3_=_12600.0
# C_Vs_to_Am_M_A/Vsm_=_65563218390.804596
# pendiente_HvsI_1/m_=_3716.3
# ordenada_HvsI_A/m_=_1297.0
# frecuencia_Hz_=_213095.36022534338

Tiempo_(s)	Campo_(V.s)	Magnetizacion_(V.s)	Campo_(kA/m)	Magnetizacion_(A/m)
0.000000e+00	-5.332913e-06	-4.241412e-09	-3.834437e+01	-2.765168e+02
1.000000e-08	-5.332171e-06	-4.236812e-09	-3.833903e+01	-2.764890e+02
2.000000e-08	-5.330245e-06	-4.232682e-09	-3.832518e+01	-2.764204e+02
3.000000e-08	-5.327239e-06	-4.231342e-09	-3.830357e+01	-2.763127e+02
4.000000e-08	-5.323428e-06	-4.229541e-09	-3.827617e+01	-2.761683e+02
5.000000e-08	-5.318864e-06	-4.227325e-09	-3.824335e+01	-2.759904e+02
6.000000e-08	-5.313392e-06	-4.225532e-09	-3.820401e+01	-2.757827e+02
7.000000e-08	-5.307008e-06	-4.226820e-09	-3.815811e+01	-2.755494e+02
8.000000e-08	-5.299770e-06	-4.232395e-09	-3.810607e+01	-2.752950e+02
9.000000e-08	-5.291566e-06	-4.209843e-09	-3.804708e+01	-2.750239e+02
1.000000e-07	-5.282024e-06	-4.192194e-09	-3.797847e+01	-2.747407e+02
1.100000e-07	-5.271093e-06	-4.179862e-09	-3.789987e+01	-2.744494e+02
1.200000e-07	-5.259234e-06	-4.217627e-09	-3.781461e+01	-2.741536e+02
1.300000e-07	-5.246633e-06	-4.229649e-09	-3.772401e+01	-2.738558e+02
1.400000e-07	-5.233040e-06	-4.154269e-09	-3.762627e+01	-2.735580e+02
1.500000e-07	-5.218492e-06	-4.142920e-09	-3.752167e+01	-2.732609e+02
1.600000e-07	-5.203014e-06	-4.196792e-09	-3.741038e+01	-2.729640e+02
1.700000e-07	-5.186291e-06	-4.141041e-09	-3.729014e+01	-2.726659e+02
1.800000e-07	-5.168456e-06	-4.143034e-09	-3.716190e+01	-2.723639e+02
1.900000e-07	-5.150086e-06	-4.218922e-09	-3.702982e+01	-2.720546e+02
2.000000e-07	-5.131113e-06	-4.087744e-09	-3.689340e+01	-2.717335e+02
2.100000e-07	-5.111072e-06	-4.112126e-09	-3.674930e+01	-2.713956e+02
2.200000e-07	-5.090027e-06	-4.262860e-09	-3.659799e+01	-2.710357e+02
2.300000e-07	-5.068248e-06	-4.151423e-09	-3.644139e+01	-2.706482e+02
2.400000e-07	-5.045717e-06	-4.077363e-09	-3.627939e+01	-2.702279e+02
2.500000e-07	-5.022329e-06	-4.182721e-09	-3.611123e+01	-2.697697e+02
2.600000e-07	-4.997977e-06	-4.164723e-09	-3.593613e+01	-2.692693e+02
2.700000e-07	-4.972649e-06	-4.082584e-09	-3.575402e+01	-2.687230e+02
2.800000e-07	-4.946383e-06	-4.088716e-09	-3.556516e+01	-2.681283e+02
2.900000e-07	-4.919163e-06	-4.094297e-09	-3.536945e+01	-2.674832e+02
3.000000e-07	-4.891050e-06	-4.114597e-09	-3.516731e+01	-2.667871e+02
3.100000e-07	-4.862063e-06	-4.097593e-09	-3.495889e+01	-2.660401e+02
3.200000e-07	-4.832191e-06	-4.008506e-09	-3.474411e+01	-2.652432e+02
3.300000e-07	-4.801522e-06	-4.034417e-09	-3.452359e+01	-2.643984e+02
3.400000e-07	-4.770225e-06	-4.075150e-09	-3.429856e+01	-2.635078e+02
3.500000e-07	-4.738321e-06	-4.018501e-09	-3.406917e+01	-2.625742e+02
3.600000e-07	-4.705463e-06	-3.975905e-09	-3.383292e+01	-2.616006e+02
3.700000e-07	-4.671402e-06	-3.963824e-09	-3.358801e+01	-2.605897e+02
3.800000e-07	-4.636384e-06	-3.995398e-09	-3.333623e+01	-2.595444e+02
3.900000e-07	-4.600636e-06	-3.988222e-09	-3.307920e+01	-2.584669e+02
4.000000e-07	-4.564136e-06	-3.921586e-09	-3.281676e+01	-2.573592e+02
4.100000e-07	-4.526823e-06	-3.888857e-09	-3.254847e+01	-2.562226e+02
4.200000e-07	-4.488733e-06	-3.890776e-09	-3.227460e+01	-2.550581e+02
4.300000e-07	-4.449895e-06	-3.922976e-09	-3.199535e+01	-2.538658e+02
4.400000e-07	-4.410408e-06	-3.891623e-09	-3.171143e+01	-2.526457e+02
4.500000e-07	-4.370293e-06	-3.812130e-09	-3.142300e+01	-2.513971e+02
4.600000e-07	-4.329421e-06	-3.794579e-09	-3.112912e+01	-2.501192e+02
4.700000e-07	-4.287486e-06	-3.815813e-09	-3.082761e+01	-2.488108e+02
4.800000e-07	-4.244469e-06	-3.829476e-09	-3.051831e+01	-2.474709e+02
4.900000e-07	-4.200690e-06	-3.765128e-09	-3.020353e+01	-2.460984e+02
5.000000e-07	-4.156289e-06	-3.696662e-09	-2.988428e+01	-2.446923e+02
5.100000e-07	-4.111189e-06	-3.707050e-09	-2.956001e+01	-2.432521e+02
5.200000e-07	-4.065347e-06	-3.719313e-09	-2.923040e+01	-2.417773e+02
5.300000e-07	-4.018845e-06	-3.696227e-09	-2.889604e+01	-2.402678e+02
5.400000e-07	-3.971644e-06	-3.637343e-09	-2.855666e+01	-2.387239e+02
5.500000e-07	-3.923758e-06	-3.597888e-09	-2.821235e+01	-2.371462e+02
5.600000e-07	-3.875114e-06	-3.601036e-09	-2.786259e+01	-2.355352e+02
5.700000e-07	-3.825516e-06	-3.598557e-09	-2.750598e+01	-2.338918e+02
5.800000e-07	-3.774807e-06	-3.574682e-09	-2.714137e+01	-2.322167e+02
5.900000e-07	-3.723162e-06	-3.509316e-09	-2.677004e+01	-2.305108e+02
6.000000e-07	-3.670849e-06	-3.469068e-09	-2.639390e+01	-2.287746e+02
6.100000e-07	-3.617899e-06	-3.477413e-09	-2.601318e+01	-2.270085e+02
6.200000e-07	-3.564272e-06	-3.470860e-09	-2.562760e+01	-2.252124e+02
6.300000e-07	-3.510052e-06	-3.428185e-09	-2.523775e+01	-2.233863e+02
6.400000e-07	-3.455295e-06	-3.363734e-09	-2.484404e+01	-2.215295e+02
6.500000e-07	-3.399993e-06	-3.338549e-09	-2.444641e+01	-2.196411e+02
6.600000e-07	-3.344212e-06	-3.343509e-09	-2.404534e+01	-2.177202e+02
6.700000e-07	-3.287922e-06	-3.322493e-09	-2.364061e+01	-2.157655e+02
6.800000e-07	-3.230906e-06	-3.268634e-09	-2.323065e+01	-2.137756e+02
6.900000e-07	-3.173013e-06	-3.205966e-09	-2.281439e+01	-2.117492e+02
7.000000e-07	-3.114338e-06	-3.190026e-09	-2.239251e+01	-2.096851e+02
7.100000e-07	-3.055042e-06	-3.191187e-09	-2.196616e+01	-2.075821e+02
7.200000e-07	-2.995316e-06	-3.152668e-09	-2.153673e+01	-2.054395e+02
7.300000e-07	-2.935198e-06	-3.092787e-09	-2.110447e+01	-2.032567e+02
7.400000e-07	-2.874618e-06	-3.047156e-09	-2.066889e+01	-2.010334e+02
7.500000e-07	-2.813599e-06	-3.037015e-09	-2.023016e+01	-1.987695e+02
7.600000e-07	-2.752117e-06	-3.018348e-09	-1.978809e+01	-1.964654e+02
7.700000e-07	-2.690108e-06	-2.968570e-09	-1.934224e+01	-1.941216e+02
7.800000e-07	-2.627673e-06	-2.912443e-09	-1.889333e+01	-1.917385e+02
7.900000e-07	-2.564810e-06	-2.869680e-09	-1.844133e+01	-1.893171e+02
8.000000e-07	-2.501506e-06	-2.851520e-09	-1.798617e+01	-1.868577e+02
8.100000e-07	-2.437873e-06	-2.821702e-09	-1.752863e+01	-1.843611e+02
8.200000e-07	-2.373962e-06	-2.765673e-09	-1.706911e+01	-1.818275e+02
8.300000e-07	-2.309698e-06	-2.710174e-09	-1.660704e+01	-1.792570e+02
8.400000e-07	-2.244958e-06	-2.674448e-09	-1.614155e+01	-1.766495e+02
8.500000e-07	-2.179692e-06	-2.655511e-09	-1.567228e+01	-1.740044e+02
8.600000e-07	-2.113799e-06	-2.615170e-09	-1.519850e+01	-1.713211e+02
8.700000e-07	-2.047325e-06	-2.556564e-09	-1.472055e+01	-1.685984e+02
8.800000e-07	-1.980473e-06	-2.507281e-09	-1.423987e+01	-1.658352e+02
8.900000e-07	-1.913258e-06	-2.472745e-09	-1.375659e+01	-1.630301e+02
9.000000e-07	-1.845735e-06	-2.442309e-09	-1.327108e+01	-1.601818e+02
9.100000e-07	-1.778042e-06	-2.390900e-09	-1.278436e+01	-1.572888e+02
9.200000e-07	-1.710168e-06	-2.331424e-09	-1.229634e+01	-1.543501e+02
9.300000e-07	-1.642038e-06	-2.284976e-09	-1.180647e+01	-1.513645e+02
9.400000e-07	-1.573605e-06	-2.248072e-09	-1.131444e+01	-1.483314e+02
9.500000e-07	-1.504884e-06	-2.209541e-09	-1.082032e+01	-1.452503e+02
9.600000e-07	-1.435884e-06	-2.153754e-09	-1.032420e+01	-1.421211e+02
9.700000e-07	-1.366637e-06	-2.096247e-09	-9.826309e+00	-1.389440e+02
9.800000e-07	-1.297131e-06	-2.050084e-09	-9.326544e+00	-1.357196e+02
9.900000e-07	-1.227335e-06	-2.007131e-09	-8.824704e+00	-1.324485e+02
1.000000e-06	-1.157339e-06	-1.958836e-09	-8.321424e+00	-1.291317e+02
1.010000e-06	-1.087158e-06	-1.899504e-09	-7.816811e+00	-1.257702e+02
1.020000e-06	-1.016759e-06	-1.844553e-09	-7.310634e+00	-1.223650e+02
1.030000e-06	-9.462164e-07	-1.795216e-09	-6.803424e+00	-1.189169e+02
1.040000e-06	-8.755191e-07	-1.744103e-09	-6.295101e+00	-1.154268e+02
1.050000e-06	-8.046269e-07	-1.691497e-09	-5.785376e+00	-1.118953e+02
1.060000e-06	-7.336344e-07	-1.635446e-09	-5.274931e+00	-1.083227e+02
1.070000e-06	-6.626044e-07	-1.579631e-09	-4.764216e+00	-1.047091e+02
1.080000e-06	-5.914166e-07	-1.522866e-09	-4.252365e+00	-1.010544e+02
1.090000e-06	-5.201154e-07	-1.465396e-09	-3.739700e+00	-9.735814e+01
1.100000e-06	-4.488244e-07	-1.410455e-09	-3.227109e+00	-9.361990e+01
1.110000e-06	-3.774940e-07	-1.351667e-09	-2.714233e+00	-8.983902e+01
1.120000e-06	-3.060834e-07	-1.287918e-09	-2.200781e+00	-8.601483e+01
1.130000e-06	-2.346185e-07	-1.225254e-09	-1.686939e+00	-8.214669e+01
1.140000e-06	-1.631769e-07	-1.170282e-09	-1.173264e+00	-7.823406e+01
1.150000e-06	-9.175548e-08	-1.118627e-09	-6.597344e-01	-7.427656e+01
1.160000e-06	-2.031974e-08	-1.055568e-09	-1.461017e-01	-7.027396e+01
1.170000e-06	5.115403e-08	-9.863770e-10	3.678044e-01	-6.622625e+01
1.180000e-06	1.226689e-07	-9.217269e-10	8.820058e-01	-6.213358e+01
1.190000e-06	1.941620e-07	-8.640964e-10	1.396051e+00	-5.799628e+01
1.200000e-06	2.656169e-07	-8.020270e-10	1.909822e+00	-5.381476e+01
1.210000e-06	3.370349e-07	-7.283201e-10	2.423327e+00	-4.958947e+01
1.220000e-06	4.084227e-07	-6.568736e-10	2.936614e+00	-4.532082e+01
1.230000e-06	4.797667e-07	-5.926992e-10	3.449587e+00	-4.100909e+01
1.240000e-06	5.510316e-07	-5.314796e-10	3.961992e+00	-3.665436e+01
1.250000e-06	6.222490e-07	-4.661479e-10	4.474054e+00	-3.225647e+01
1.260000e-06	6.933833e-07	-3.940564e-10	4.985520e+00	-2.781494e+01
1.270000e-06	7.643732e-07	-3.246742e-10	5.495947e+00	-2.332899e+01
1.280000e-06	8.352259e-07	-2.574157e-10	6.005387e+00	-1.879757e+01
1.290000e-06	9.058988e-07	-1.895012e-10	6.513536e+00	-1.421938e+01
1.300000e-06	9.763507e-07	-1.165403e-10	7.020094e+00	-9.592962e+00
1.310000e-06	1.046593e-06	-4.013724e-11	7.525146e+00	-4.916851e+00
1.320000e-06	1.116707e-06	3.349288e-11	8.029272e+00	-1.896818e-01
1.330000e-06	1.186660e-06	1.044272e-10	8.532249e+00	4.589639e+00
1.340000e-06	1.256335e-06	1.743724e-10	9.033218e+00	9.421766e+00
1.350000e-06	1.325774e-06	2.481654e-10	9.532494e+00	1.430675e+01
1.360000e-06	1.394991e-06	3.276708e-10	1.003017e+01	1.924389e+01
1.370000e-06	1.463973e-06	4.054539e-10	1.052617e+01	2.423160e+01
1.380000e-06	1.532674e-06	4.794743e-10	1.102014e+01	2.926732e+01
1.390000e-06	1.601050e-06	5.552381e-10	1.151176e+01	3.434747e+01
1.400000e-06	1.669135e-06	6.371790e-10	1.200131e+01	3.946740e+01
1.410000e-06	1.736983e-06	7.226320e-10	1.248914e+01	4.462149e+01
1.420000e-06	1.804649e-06	8.025192e-10	1.297567e+01	4.980318e+01
1.430000e-06	1.872139e-06	8.786605e-10	1.346094e+01	5.500513e+01
1.440000e-06	1.939392e-06	9.545787e-10	1.394449e+01	6.021937e+01
1.450000e-06	2.006314e-06	1.034532e-09	1.442567e+01	6.543751e+01
1.460000e-06	2.072834e-06	1.115943e-09	1.490396e+01	7.065093e+01
1.470000e-06	2.138873e-06	1.195531e-09	1.537879e+01	7.585101e+01
1.480000e-06	2.204249e-06	1.272899e-09	1.584885e+01	8.102933e+01
1.490000e-06	2.268950e-06	1.349252e-09	1.631406e+01	8.617789e+01
1.500000e-06	2.333192e-06	1.429284e-09	1.677596e+01	9.128924e+01
1.510000e-06	2.397066e-06	1.509749e-09	1.723523e+01	9.635664e+01
1.520000e-06	2.460675e-06	1.586390e-09	1.769259e+01	1.013742e+02
1.530000e-06	2.524051e-06	1.661371e-09	1.814827e+01	1.063367e+02
1.540000e-06	2.587066e-06	1.734412e-09	1.860136e+01	1.112399e+02
1.550000e-06	2.649593e-06	1.807527e-09	1.905093e+01	1.160805e+02
1.560000e-06	2.711628e-06	1.881903e-09	1.949697e+01	1.208555e+02
1.570000e-06	2.773268e-06	1.956976e-09	1.994017e+01	1.255630e+02
1.580000e-06	2.834511e-06	2.028095e-09	2.038052e+01	1.302014e+02
1.590000e-06	2.895241e-06	2.092696e-09	2.081717e+01	1.347692e+02
1.600000e-06	2.955434e-06	2.158143e-09	2.124997e+01	1.392656e+02
1.610000e-06	3.015228e-06	2.226974e-09	2.167990e+01	1.436896e+02
1.620000e-06	3.074701e-06	2.295176e-09	2.210752e+01	1.480403e+02
1.630000e-06	3.133662e-06	2.358216e-09	2.253145e+01	1.523166e+02
1.640000e-06	3.191794e-06	2.417943e-09	2.294943e+01	1.565174e+02
1.650000e-06	3.248957e-06	2.483863e-09	2.336044e+01	1.606414e+02
1.660000e-06	3.305300e-06	2.551631e-09	2.376556e+01	1.646871e+02
1.670000e-06	3.361137e-06	2.612323e-09	2.416703e+01	1.686530e+02
1.680000e-06	3.416631e-06	2.664987e-09	2.456604e+01	1.725374e+02
1.690000e-06	3.471604e-06	2.715881e-09	2.496130e+01	1.763387e+02
1.700000e-06	3.525929e-06	2.771152e-09	2.535191e+01	1.800553e+02
1.710000e-06	3.579683e-06	2.827404e-09	2.573841e+01	1.836860e+02
1.720000e-06	3.632891e-06	2.880369e-09	2.612098e+01	1.872297e+02
1.730000e-06	3.685456e-06	2.929000e-09	2.649893e+01	1.906856e+02
1.740000e-06	3.737273e-06	2.978706e-09	2.687150e+01	1.940534e+02
1.750000e-06	3.788285e-06	3.031722e-09	2.723828e+01	1.973332e+02
1.760000e-06	3.838376e-06	3.082411e-09	2.759844e+01	2.005254e+02
1.770000e-06	3.887488e-06	3.127331e-09	2.795157e+01	2.036310e+02
1.780000e-06	3.935695e-06	3.166901e-09	2.829818e+01	2.066510e+02
1.790000e-06	3.983246e-06	3.206366e-09	2.864008e+01	2.095870e+02
1.800000e-06	4.030266e-06	3.249392e-09	2.897816e+01	2.124407e+02
1.810000e-06	4.076620e-06	3.291006e-09	2.931145e+01	2.152138e+02
1.820000e-06	4.122178e-06	3.329055e-09	2.963902e+01	2.179081e+02
1.830000e-06	4.166929e-06	3.363665e-09	2.996079e+01	2.205255e+02
1.840000e-06	4.211033e-06	3.401190e-09	3.027790e+01	2.230677e+02
1.850000e-06	4.254657e-06	3.440785e-09	3.059156e+01	2.255361e+02
1.860000e-06	4.297720e-06	3.476126e-09	3.090119e+01	2.279322e+02
1.870000e-06	4.339861e-06	3.506422e-09	3.120419e+01	2.302570e+02
1.880000e-06	4.380849e-06	3.534331e-09	3.149890e+01	2.325115e+02
1.890000e-06	4.420893e-06	3.565904e-09	3.178682e+01	2.346966e+02
1.900000e-06	4.460291e-06	3.598537e-09	3.207010e+01	2.368130e+02
1.910000e-06	4.499055e-06	3.627445e-09	3.234882e+01	2.388612e+02
1.920000e-06	4.537090e-06	3.653165e-09	3.262229e+01	2.408418e+02
1.930000e-06	4.574343e-06	3.678249e-09	3.289015e+01	2.427556e+02
1.940000e-06	4.610753e-06	3.705858e-09	3.315194e+01	2.446032e+02
1.950000e-06	4.646491e-06	3.734207e-09	3.340890e+01	2.463855e+02
1.960000e-06	4.681654e-06	3.758493e-09	3.366173e+01	2.481036e+02
1.970000e-06	4.715878e-06	3.778975e-09	3.390780e+01	2.497584e+02
1.980000e-06	4.748882e-06	3.800814e-09	3.414511e+01	2.513515e+02
1.990000e-06	4.780927e-06	3.826724e-09	3.437551e+01	2.528842e+02
2.000000e-06	4.812271e-06	3.849994e-09	3.460088e+01	2.543580e+02
2.010000e-06	4.842884e-06	3.869089e-09	3.482099e+01	2.557745e+02
2.020000e-06	4.872723e-06	3.888480e-09	3.503554e+01	2.571354e+02
2.030000e-06	4.901735e-06	3.910309e-09	3.524414e+01	2.584421e+02
2.040000e-06	4.929952e-06	3.931858e-09	3.544702e+01	2.596962e+02
2.050000e-06	4.957527e-06	3.948507e-09	3.564529e+01	2.608989e+02
2.060000e-06	4.984275e-06	3.962684e-09	3.583762e+01	2.620516e+02
2.070000e-06	5.009782e-06	3.978205e-09	3.602102e+01	2.631554e+02
2.080000e-06	5.034113e-06	3.994616e-09	3.619595e+01	2.642111e+02
2.090000e-06	5.057570e-06	4.010608e-09	3.636461e+01	2.652196e+02
2.100000e-06	5.080179e-06	4.025590e-09	3.652718e+01	2.661818e+02
2.110000e-06	5.101983e-06	4.039315e-09	3.668395e+01	2.670984e+02
2.120000e-06	5.123003e-06	4.052556e-09	3.683509e+01	2.679701e+02
2.130000e-06	5.143218e-06	4.066970e-09	3.698043e+01	2.687978e+02
2.140000e-06	5.162756e-06	4.081467e-09	3.712092e+01	2.695823e+02
2.150000e-06	5.181479e-06	4.094069e-09	3.725554e+01	2.703246e+02
2.160000e-06	5.199171e-06	4.104397e-09	3.738274e+01	2.710258e+02
2.170000e-06	5.215879e-06	4.113163e-09	3.750288e+01	2.716870e+02
2.180000e-06	5.231689e-06	4.122930e-09	3.761655e+01	2.723096e+02
2.190000e-06	5.246399e-06	4.132077e-09	3.772232e+01	2.728947e+02
2.200000e-06	5.260072e-06	4.139221e-09	3.782063e+01	2.734436e+02
2.210000e-06	5.272909e-06	4.146618e-09	3.791293e+01	2.739573e+02
2.220000e-06	5.284835e-06	4.154602e-09	3.799868e+01	2.744368e+02
2.230000e-06	5.295699e-06	4.164194e-09	3.807680e+01	2.748827e+02
2.240000e-06	5.305260e-06	4.171613e-09	3.814554e+01	2.752954e+02
2.250000e-06	5.313618e-06	4.177681e-09	3.820564e+01	2.756749e+02
2.260000e-06	5.321081e-06	4.184816e-09	3.825930e+01	2.760208e+02
2.270000e-06	5.327710e-06	4.190552e-09	3.830696e+01	2.763325e+02
2.280000e-06	5.333411e-06	4.195300e-09	3.834795e+01	2.766090e+02
2.290000e-06	5.338194e-06	4.197802e-09	3.838234e+01	2.768491e+02
2.300000e-06	5.342226e-06	4.201522e-09	3.841133e+01	2.770513e+02
2.310000e-06	5.345568e-06	4.207102e-09	3.843536e+01	2.772144e+02
2.320000e-06	5.347929e-06	4.210679e-09	3.845234e+01	2.773371e+02
2.330000e-06	5.348995e-06	4.211950e-09	3.846000e+01	2.774183e+02
2.340000e-06	5.348963e-06	4.213287e-09	3.845977e+01	2.774576e+02
2.350000e-06	5.348121e-06	4.214602e-09	3.845371e+01	2.774548e+02
2.360000e-06	5.346417e-06	4.215618e-09	3.844146e+01	2.774105e+02
2.370000e-06	5.343886e-06	4.214447e-09	3.842327e+01	2.773260e+02
2.380000e-06	5.340587e-06	4.210272e-09	3.839955e+01	2.772032e+02
2.390000e-06	5.336565e-06	4.204717e-09	3.837062e+01	2.770451e+02
2.400000e-06	5.331860e-06	4.202149e-09	3.833679e+01	2.768548e+02
2.410000e-06	5.326140e-06	4.198698e-09	3.829567e+01	2.766363e+02
2.420000e-06	5.319203e-06	4.182052e-09	3.824579e+01	2.763939e+02
2.430000e-06	5.311299e-06	4.194839e-09	3.818896e+01	2.761323e+02
2.440000e-06	5.302372e-06	4.208208e-09	3.812478e+01	2.758559e+02
2.450000e-06	5.292087e-06	4.210550e-09	3.805082e+01	2.755689e+02
2.460000e-06	5.280655e-06	4.159561e-09	3.796862e+01	2.752754e+02
2.470000e-06	5.268760e-06	4.152178e-09	3.788310e+01	2.749785e+02
2.480000e-06	5.256456e-06	4.234241e-09	3.779463e+01	2.746806e+02
2.490000e-06	5.242717e-06	4.229905e-09	3.769584e+01	2.743830e+02
2.500000e-06	5.227318e-06	4.142765e-09	3.758513e+01	2.740861e+02
2.510000e-06	5.211267e-06	4.208588e-09	3.746971e+01	2.737890e+02
2.520000e-06	5.194616e-06	4.179217e-09	3.734999e+01	2.734897e+02
2.530000e-06	5.176881e-06	4.074719e-09	3.722248e+01	2.731852e+02
2.540000e-06	5.158227e-06	4.223994e-09	3.708835e+01	2.728717e+02
2.550000e-06	5.138891e-06	4.191669e-09	3.694932e+01	2.725445e+02
2.560000e-06	5.118942e-06	4.007318e-09	3.680589e+01	2.721985e+02
2.570000e-06	5.098124e-06	4.089133e-09	3.665620e+01	2.718282e+02
2.580000e-06	5.075954e-06	4.179436e-09	3.649680e+01	2.714282e+02
2.590000e-06	5.052508e-06	4.029018e-09	3.632822e+01	2.709932e+02
2.600000e-06	5.028260e-06	4.058648e-09	3.615387e+01	2.705186e+02
2.610000e-06	5.003180e-06	4.185746e-09	3.597354e+01	2.700003e+02
2.620000e-06	4.977227e-06	4.106521e-09	3.578693e+01	2.694349e+02
2.630000e-06	4.950643e-06	4.059092e-09	3.559579e+01	2.688201e+02
2.640000e-06	4.923302e-06	3.996671e-09	3.539921e+01	2.681547e+02
2.650000e-06	4.895173e-06	4.041013e-09	3.519695e+01	2.674381e+02
2.660000e-06	4.866239e-06	4.166329e-09	3.498892e+01	2.666710e+02
2.670000e-06	4.836149e-06	3.995302e-09	3.477257e+01	2.658547e+02
2.680000e-06	4.804825e-06	3.950368e-09	3.454735e+01	2.649912e+02
2.690000e-06	4.772566e-06	4.056971e-09	3.431539e+01	2.640831e+02
2.700000e-06	4.739625e-06	4.030790e-09	3.407855e+01	2.631332e+02
2.710000e-06	4.705973e-06	4.036233e-09	3.383658e+01	2.621443e+02
2.720000e-06	4.671397e-06	3.950673e-09	3.358798e+01	2.611193e+02
2.730000e-06	4.635994e-06	3.912595e-09	3.333342e+01	2.600608e+02
2.740000e-06	4.600011e-06	3.993753e-09	3.307470e+01	2.589710e+02
2.750000e-06	4.563406e-06	3.969743e-09	3.281151e+01	2.578516e+02
2.760000e-06	4.525833e-06	3.934902e-09	3.254135e+01	2.567038e+02
2.770000e-06	4.487080e-06	3.864206e-09	3.226271e+01	2.555282e+02
2.780000e-06	4.447384e-06	3.848188e-09	3.197729e+01	2.543248e+02
2.790000e-06	4.406996e-06	3.918623e-09	3.168690e+01	2.530934e+02
2.800000e-06	4.365944e-06	3.879724e-09	3.139173e+01	2.518332e+02
2.810000e-06	4.324197e-06	3.817826e-09	3.109156e+01	2.505432e+02
2.820000e-06	4.281697e-06	3.768203e-09	3.078598e+01	2.492224e+02
2.830000e-06	4.238471e-06	3.784054e-09	3.047518e+01	2.478695e+02
2.840000e-06	4.194671e-06	3.823519e-09	3.016025e+01	2.464836e+02
2.850000e-06	4.150327e-06	3.754477e-09	2.984142e+01	2.450640e+02
2.860000e-06	4.105277e-06	3.700444e-09	2.951750e+01	2.436099e+02
2.870000e-06	4.059373e-06	3.684647e-09	2.918744e+01	2.421212e+02
2.880000e-06	4.012688e-06	3.685832e-09	2.885177e+01	2.405979e+02
2.890000e-06	3.965356e-06	3.687867e-09	2.851145e+01	2.390404e+02
2.900000e-06	3.917329e-06	3.633702e-09	2.816613e+01	2.374493e+02
2.910000e-06	3.868500e-06	3.587085e-09	2.781504e+01	2.358252e+02
2.920000e-06	3.818879e-06	3.560679e-09	2.745826e+01	2.341690e+02
2.930000e-06	3.768519e-06	3.568161e-09	2.709616e+01	2.324816e+02
2.940000e-06	3.717488e-06	3.563220e-09	2.672925e+01	2.307635e+02
