# Temperatura_=_20.0
# Concentracion g/m^3_=_12600.0
# C_Vs_to_Am_M_A/Vsm_=_65563218390.804596
# pendiente_HvsI_1/m_=_3716.3
# ordenada_HvsI_A/m_=_1297.0
# frecuencia_Hz_=_213091.65881728515

Tiempo_(s)	Campo_(V.s)	Magnetizacion_(V.s)	Campo_(kA/m)	Magnetizacion_(A/m)
0.000000e+00	-5.335188e-06	-3.892985e-09	-3.834890e+01	-2.533287e+02
1.000000e-08	-5.335191e-06	-3.894214e-09	-3.834893e+01	-2.533383e+02
2.000000e-08	-5.334399e-06	-3.894472e-09	-3.834324e+01	-2.533139e+02
3.000000e-08	-5.332420e-06	-3.892843e-09	-3.832901e+01	-2.532572e+02
4.000000e-08	-5.329260e-06	-3.890626e-09	-3.830629e+01	-2.531704e+02
5.000000e-08	-5.325274e-06	-3.888230e-09	-3.827765e+01	-2.530561e+02
6.000000e-08	-5.320580e-06	-3.886441e-09	-3.824390e+01	-2.529170e+02
7.000000e-08	-5.315021e-06	-3.883751e-09	-3.820395e+01	-2.527563e+02
8.000000e-08	-5.308542e-06	-3.885068e-09	-3.815737e+01	-2.525771e+02
9.000000e-08	-5.301195e-06	-3.892912e-09	-3.810457e+01	-2.523824e+02
1.000000e-07	-5.292905e-06	-3.877508e-09	-3.804498e+01	-2.521750e+02
1.100000e-07	-5.283284e-06	-3.857609e-09	-3.797583e+01	-2.519572e+02
1.200000e-07	-5.272259e-06	-3.841206e-09	-3.789658e+01	-2.517309e+02
1.300000e-07	-5.260292e-06	-3.879066e-09	-3.781056e+01	-2.514971e+02
1.400000e-07	-5.247538e-06	-3.893599e-09	-3.771888e+01	-2.512564e+02
1.500000e-07	-5.233823e-06	-3.818720e-09	-3.762030e+01	-2.510085e+02
1.600000e-07	-5.219197e-06	-3.827023e-09	-3.751517e+01	-2.507521e+02
1.700000e-07	-5.203548e-06	-3.862318e-09	-3.740269e+01	-2.504856e+02
1.800000e-07	-5.186608e-06	-3.816139e-09	-3.728092e+01	-2.502066e+02
1.900000e-07	-5.168668e-06	-3.834070e-09	-3.715197e+01	-2.499121e+02
2.000000e-07	-5.150157e-06	-3.864438e-09	-3.701892e+01	-2.495988e+02
2.100000e-07	-5.130928e-06	-3.766634e-09	-3.688070e+01	-2.492634e+02
2.200000e-07	-5.110698e-06	-3.786962e-09	-3.673529e+01	-2.489022e+02
2.300000e-07	-5.089591e-06	-3.884340e-09	-3.658358e+01	-2.485121e+02
2.400000e-07	-5.067698e-06	-3.785337e-09	-3.642621e+01	-2.480899e+02
2.500000e-07	-5.044998e-06	-3.715681e-09	-3.626304e+01	-2.476330e+02
2.600000e-07	-5.021449e-06	-3.781233e-09	-3.609377e+01	-2.471395e+02
2.700000e-07	-4.996903e-06	-3.798079e-09	-3.591734e+01	-2.466079e+02
2.800000e-07	-4.971420e-06	-3.789254e-09	-3.573417e+01	-2.460373e+02
2.900000e-07	-4.945012e-06	-3.740126e-09	-3.554435e+01	-2.454276e+02
3.000000e-07	-4.917614e-06	-3.663803e-09	-3.534742e+01	-2.447792e+02
3.100000e-07	-4.889357e-06	-3.710942e-09	-3.514431e+01	-2.440929e+02
3.200000e-07	-4.860292e-06	-3.774098e-09	-3.493539e+01	-2.433699e+02
3.300000e-07	-4.830403e-06	-3.712473e-09	-3.472055e+01	-2.426118e+02
3.400000e-07	-4.799677e-06	-3.645597e-09	-3.449970e+01	-2.418201e+02
3.500000e-07	-4.768257e-06	-3.626306e-09	-3.427385e+01	-2.409965e+02
3.600000e-07	-4.736211e-06	-3.662669e-09	-3.404351e+01	-2.401423e+02
3.700000e-07	-4.703292e-06	-3.726086e-09	-3.380689e+01	-2.392589e+02
3.800000e-07	-4.669237e-06	-3.655776e-09	-3.356210e+01	-2.383471e+02
3.900000e-07	-4.634098e-06	-3.534401e-09	-3.330953e+01	-2.374076e+02
4.000000e-07	-4.598167e-06	-3.570251e-09	-3.305126e+01	-2.364405e+02
4.100000e-07	-4.561529e-06	-3.667332e-09	-3.278790e+01	-2.354458e+02
4.200000e-07	-4.524122e-06	-3.631408e-09	-3.251903e+01	-2.344232e+02
4.300000e-07	-4.485894e-06	-3.499271e-09	-3.224425e+01	-2.333720e+02
4.400000e-07	-4.446835e-06	-3.469754e-09	-3.196350e+01	-2.322916e+02
4.500000e-07	-4.407165e-06	-3.553608e-09	-3.167835e+01	-2.311812e+02
4.600000e-07	-4.366969e-06	-3.584527e-09	-3.138942e+01	-2.300403e+02
4.700000e-07	-4.325951e-06	-3.498803e-09	-3.109459e+01	-2.288684e+02
4.800000e-07	-4.283784e-06	-3.401895e-09	-3.079150e+01	-2.276652e+02
4.900000e-07	-4.240573e-06	-3.424243e-09	-3.048090e+01	-2.264309e+02
5.000000e-07	-4.196663e-06	-3.485701e-09	-3.016528e+01	-2.251656e+02
5.100000e-07	-4.152132e-06	-3.457223e-09	-2.984519e+01	-2.238702e+02
5.200000e-07	-4.106889e-06	-3.369765e-09	-2.951999e+01	-2.225454e+02
5.300000e-07	-4.060892e-06	-3.316444e-09	-2.918937e+01	-2.211923e+02
5.400000e-07	-4.014218e-06	-3.346758e-09	-2.885388e+01	-2.198120e+02
5.500000e-07	-3.966911e-06	-3.381983e-09	-2.851384e+01	-2.184057e+02
5.600000e-07	-3.918965e-06	-3.337712e-09	-2.816921e+01	-2.169744e+02
5.700000e-07	-3.870228e-06	-3.262732e-09	-2.781889e+01	-2.155190e+02
5.800000e-07	-3.820465e-06	-3.235753e-09	-2.746120e+01	-2.140398e+02
5.900000e-07	-3.769693e-06	-3.261106e-09	-2.709625e+01	-2.125372e+02
6.000000e-07	-3.718062e-06	-3.259410e-09	-2.672513e+01	-2.110108e+02
6.100000e-07	-3.665676e-06	-3.206586e-09	-2.634859e+01	-2.094600e+02
6.200000e-07	-3.612579e-06	-3.153337e-09	-2.596693e+01	-2.078835e+02
6.300000e-07	-3.558827e-06	-3.128873e-09	-2.558056e+01	-2.062800e+02
6.400000e-07	-3.504516e-06	-3.131992e-09	-2.519018e+01	-2.046476e+02
6.500000e-07	-3.449615e-06	-3.123397e-09	-2.479556e+01	-2.029844e+02
6.600000e-07	-3.394101e-06	-3.080778e-09	-2.439653e+01	-2.012881e+02
6.700000e-07	-3.338091e-06	-3.027389e-09	-2.399393e+01	-1.995569e+02
6.800000e-07	-3.281589e-06	-2.997482e-09	-2.358780e+01	-1.977889e+02
6.900000e-07	-3.224385e-06	-3.000395e-09	-2.317663e+01	-1.959823e+02
7.000000e-07	-3.166437e-06	-2.987564e-09	-2.276009e+01	-1.941360e+02
7.100000e-07	-3.107743e-06	-2.936171e-09	-2.233821e+01	-1.922491e+02
7.200000e-07	-3.048395e-06	-2.882105e-09	-2.191162e+01	-1.903213e+02
7.300000e-07	-2.988572e-06	-2.860119e-09	-2.148162e+01	-1.883527e+02
7.400000e-07	-2.928361e-06	-2.860208e-09	-2.104882e+01	-1.863439e+02
7.500000e-07	-2.867737e-06	-2.833146e-09	-2.061307e+01	-1.842959e+02
7.600000e-07	-2.806602e-06	-2.775956e-09	-2.017363e+01	-1.822099e+02
7.700000e-07	-2.744987e-06	-2.726946e-09	-1.973074e+01	-1.800874e+02
7.800000e-07	-2.682929e-06	-2.709173e-09	-1.928468e+01	-1.779301e+02
7.900000e-07	-2.620389e-06	-2.699487e-09	-1.883515e+01	-1.757393e+02
8.000000e-07	-2.557409e-06	-2.658838e-09	-1.838245e+01	-1.735164e+02
8.100000e-07	-2.494072e-06	-2.602971e-09	-1.792719e+01	-1.712625e+02
8.200000e-07	-2.430352e-06	-2.562189e-09	-1.746918e+01	-1.689783e+02
8.300000e-07	-2.366244e-06	-2.538133e-09	-1.700838e+01	-1.666639e+02
8.400000e-07	-2.301786e-06	-2.513789e-09	-1.654506e+01	-1.643192e+02
8.500000e-07	-2.236858e-06	-2.473097e-09	-1.607836e+01	-1.619435e+02
8.600000e-07	-2.171262e-06	-2.425161e-09	-1.560686e+01	-1.595357e+02
8.700000e-07	-2.105110e-06	-2.381491e-09	-1.513136e+01	-1.570943e+02
8.800000e-07	-2.038577e-06	-2.350842e-09	-1.465313e+01	-1.546176e+02
8.900000e-07	-1.971650e-06	-2.328103e-09	-1.417206e+01	-1.521038e+02
9.000000e-07	-1.904260e-06	-2.288593e-09	-1.368767e+01	-1.495508e+02
9.100000e-07	-1.836562e-06	-2.231949e-09	-1.320106e+01	-1.469569e+02
9.200000e-07	-1.768748e-06	-2.182994e-09	-1.271362e+01	-1.443203e+02
9.300000e-07	-1.700714e-06	-2.155631e-09	-1.222460e+01	-1.416397e+02
9.400000e-07	-1.632435e-06	-2.130906e-09	-1.173381e+01	-1.389140e+02
9.500000e-07	-1.563868e-06	-2.081013e-09	-1.124096e+01	-1.361425e+02
9.600000e-07	-1.494983e-06	-2.018811e-09	-1.074582e+01	-1.333250e+02
9.700000e-07	-1.425928e-06	-1.973352e-09	-1.024946e+01	-1.304617e+02
9.800000e-07	-1.356692e-06	-1.947627e-09	-9.751795e+00	-1.275531e+02
9.900000e-07	-1.287193e-06	-1.912495e-09	-9.252244e+00	-1.246000e+02
1.000000e-06	-1.217401e-06	-1.851150e-09	-8.750581e+00	-1.216033e+02
1.010000e-06	-1.147367e-06	-1.790700e-09	-8.247181e+00	-1.185642e+02
1.020000e-06	-1.077146e-06	-1.752324e-09	-7.742442e+00	-1.154839e+02
1.030000e-06	-1.006778e-06	-1.722174e-09	-7.236643e+00	-1.123633e+02
1.040000e-06	-9.362428e-07	-1.674399e-09	-6.729639e+00	-1.092034e+02
1.050000e-06	-8.654957e-07	-1.611718e-09	-6.221114e+00	-1.060048e+02
1.060000e-06	-7.945703e-07	-1.558003e-09	-5.711308e+00	-1.027679e+02
1.070000e-06	-7.235919e-07	-1.518071e-09	-5.201121e+00	-9.949279e+01
1.080000e-06	-6.525729e-07	-1.476356e-09	-4.690642e+00	-9.617921e+01
1.090000e-06	-5.813967e-07	-1.421667e-09	-4.179033e+00	-9.282673e+01
1.100000e-06	-5.100861e-07	-1.359745e-09	-3.666458e+00	-8.943469e+01
1.110000e-06	-4.387593e-07	-1.306144e-09	-3.153767e+00	-8.600228e+01
1.120000e-06	-3.674176e-07	-1.260544e-09	-2.640969e+00	-8.252866e+01
1.130000e-06	-2.959303e-07	-1.211141e-09	-2.127123e+00	-7.901297e+01
1.140000e-06	-2.243725e-07	-1.154091e-09	-1.612771e+00	-7.545448e+01
1.150000e-06	-1.528304e-07	-1.092959e-09	-1.098532e+00	-7.185260e+01
1.160000e-06	-8.124594e-08	-1.036425e-09	-5.839893e-01	-6.820694e+01
1.170000e-06	-9.644025e-09	-9.852180e-10	-6.932048e-02	-6.451734e+01
1.180000e-06	6.190166e-08	-9.327007e-10	4.449442e-01	-6.078386e+01
1.190000e-06	1.334052e-07	-8.706354e-10	9.589059e-01	-5.700677e+01
1.200000e-06	2.049167e-07	-8.025549e-10	1.472925e+00	-5.318647e+01
1.210000e-06	2.763674e-07	-7.427827e-10	1.986507e+00	-4.932346e+01
1.220000e-06	3.477869e-07	-6.909629e-10	2.499864e+00	-4.541828e+01
1.230000e-06	4.192228e-07	-6.352304e-10	3.013340e+00	-4.147136e+01
1.240000e-06	4.905551e-07	-5.688938e-10	3.526071e+00	-3.748301e+01
1.250000e-06	5.618124e-07	-5.006949e-10	4.038263e+00	-3.345333e+01
1.260000e-06	6.330142e-07	-4.424016e-10	4.550055e+00	-2.938215e+01
1.270000e-06	7.041077e-07	-3.867270e-10	5.061070e+00	-2.526900e+01
1.280000e-06	7.750435e-07	-3.224089e-10	5.570951e+00	-2.111315e+01
1.290000e-06	8.458478e-07	-2.487615e-10	6.079887e+00	-1.691358e+01
1.300000e-06	9.164916e-07	-1.778339e-10	6.587668e+00	-1.266912e+01
1.310000e-06	9.868895e-07	-1.162937e-10	7.093683e+00	-8.378482e+00
1.320000e-06	1.057129e-06	-5.488286e-11	7.598562e+00	-4.040396e+00
1.330000e-06	1.127276e-06	1.383911e-11	8.102769e+00	3.462331e-01
1.340000e-06	1.197236e-06	8.737129e-11	8.605639e+00	4.782198e+00
1.350000e-06	1.266959e-06	1.578108e-10	9.106803e+00	9.267830e+00
1.360000e-06	1.336408e-06	2.238312e-10	9.605994e+00	1.380286e+01
1.370000e-06	1.405584e-06	2.919734e-10	1.010322e+01	1.838629e+01
1.380000e-06	1.474511e-06	3.645644e-10	1.059866e+01	2.301628e+01
1.390000e-06	1.543149e-06	4.393620e-10	1.109203e+01	2.769013e+01
1.400000e-06	1.611483e-06	5.136708e-10	1.158321e+01	3.240417e+01
1.410000e-06	1.679555e-06	5.850250e-10	1.207251e+01	3.715383e+01
1.420000e-06	1.747487e-06	6.562485e-10	1.256080e+01	4.193366e+01
1.430000e-06	1.815272e-06	7.297330e-10	1.304803e+01	4.673743e+01
1.440000e-06	1.882841e-06	8.065037e-10	1.353371e+01	5.155825e+01
1.450000e-06	1.950108e-06	8.813884e-10	1.401722e+01	5.638871e+01
1.460000e-06	2.016970e-06	9.504277e-10	1.449782e+01	6.122104e+01
1.470000e-06	2.083385e-06	1.019948e-09	1.497520e+01	6.604732e+01
1.480000e-06	2.149317e-06	1.096406e-09	1.544912e+01	7.085964e+01
1.490000e-06	2.214652e-06	1.174702e-09	1.591875e+01	7.565024e+01
1.500000e-06	2.279377e-06	1.245503e-09	1.638398e+01	8.041173e+01
1.510000e-06	2.343613e-06	1.310523e-09	1.684571e+01	8.513719e+01
1.520000e-06	2.407543e-06	1.379736e-09	1.730523e+01	8.982024e+01
1.530000e-06	2.471230e-06	1.454329e-09	1.776300e+01	9.445517e+01
1.540000e-06	2.534590e-06	1.526477e-09	1.821843e+01	9.903695e+01
1.550000e-06	2.597508e-06	1.591360e-09	1.867068e+01	1.035612e+02
1.560000e-06	2.659933e-06	1.655553e-09	1.911939e+01	1.080243e+02
1.570000e-06	2.721924e-06	1.725380e-09	1.956497e+01	1.124231e+02
1.580000e-06	2.783472e-06	1.796542e-09	2.000737e+01	1.167551e+02
1.590000e-06	2.844557e-06	1.862117e-09	2.044645e+01	1.210182e+02
1.600000e-06	2.905195e-06	1.921391e-09	2.088231e+01	1.252109e+02
1.610000e-06	2.965391e-06	1.980146e-09	2.131499e+01	1.293316e+02
1.620000e-06	3.025191e-06	2.041648e-09	2.174483e+01	1.333792e+02
1.630000e-06	3.084624e-06	2.102105e-09	2.217203e+01	1.373528e+02
1.640000e-06	3.143497e-06	2.158747e-09	2.259521e+01	1.412514e+02
1.650000e-06	3.201525e-06	2.213653e-09	2.301231e+01	1.450742e+02
1.660000e-06	3.258597e-06	2.269120e-09	2.342254e+01	1.488205e+02
1.670000e-06	3.314928e-06	2.324907e-09	2.382744e+01	1.524894e+02
1.680000e-06	3.370842e-06	2.380016e-09	2.422934e+01	1.560803e+02
1.690000e-06	3.426350e-06	2.433162e-09	2.462833e+01	1.595926e+02
1.700000e-06	3.481275e-06	2.482418e-09	2.502313e+01	1.630258e+02
1.710000e-06	3.535598e-06	2.529928e-09	2.541360e+01	1.663796e+02
1.720000e-06	3.589354e-06	2.577940e-09	2.579999e+01	1.696537e+02
1.730000e-06	3.642447e-06	2.627898e-09	2.618162e+01	1.728480e+02
1.740000e-06	3.694883e-06	2.675743e-09	2.655853e+01	1.759627e+02
1.750000e-06	3.746628e-06	2.718399e-09	2.693047e+01	1.789982e+02
1.760000e-06	3.797504e-06	2.759783e-09	2.729616e+01	1.819550e+02
1.770000e-06	3.847368e-06	2.801677e-09	2.765457e+01	1.848337e+02
1.780000e-06	3.896215e-06	2.843238e-09	2.800568e+01	1.876352e+02
1.790000e-06	3.944281e-06	2.881793e-09	2.835118e+01	1.903603e+02
1.800000e-06	3.991758e-06	2.917211e-09	2.869244e+01	1.930101e+02
1.810000e-06	4.038643e-06	2.953686e-09	2.902945e+01	1.955856e+02
1.820000e-06	4.084871e-06	2.991964e-09	2.936172e+01	1.980879e+02
1.830000e-06	4.130375e-06	3.028047e-09	2.968881e+01	2.005178e+02
1.840000e-06	4.175124e-06	3.061422e-09	3.001046e+01	2.028765e+02
1.850000e-06	4.219223e-06	3.094023e-09	3.032744e+01	2.051649e+02
1.860000e-06	4.262842e-06	3.126341e-09	3.064097e+01	2.073840e+02
1.870000e-06	4.305802e-06	3.156749e-09	3.094976e+01	2.095345e+02
1.880000e-06	4.347664e-06	3.184603e-09	3.125067e+01	2.116176e+02
1.890000e-06	4.388471e-06	3.212128e-09	3.154398e+01	2.136340e+02
1.900000e-06	4.428533e-06	3.241135e-09	3.183194e+01	2.155848e+02
1.910000e-06	4.467929e-06	3.269779e-09	3.211512e+01	2.174711e+02
1.920000e-06	4.506616e-06	3.296031e-09	3.239320e+01	2.192942e+02
1.930000e-06	4.544554e-06	3.320969e-09	3.266589e+01	2.210552e+02
1.940000e-06	4.581723e-06	3.344263e-09	3.293306e+01	2.227556e+02
1.950000e-06	4.618111e-06	3.366211e-09	3.319462e+01	2.243969e+02
1.960000e-06	4.653829e-06	3.389023e-09	3.345135e+01	2.259809e+02
1.970000e-06	4.688849e-06	3.412610e-09	3.370308e+01	2.275091e+02
1.980000e-06	4.722821e-06	3.434799e-09	3.394726e+01	2.289833e+02
1.990000e-06	4.755570e-06	3.454181e-09	3.418266e+01	2.304052e+02
2.000000e-06	4.787447e-06	3.472601e-09	3.441179e+01	2.317765e+02
2.010000e-06	4.818668e-06	3.492791e-09	3.463620e+01	2.330987e+02
2.020000e-06	4.849134e-06	3.513410e-09	3.485519e+01	2.343732e+02
2.030000e-06	4.878846e-06	3.531974e-09	3.506875e+01	2.356013e+02
2.040000e-06	4.907762e-06	3.547606e-09	3.527660e+01	2.367840e+02
2.050000e-06	4.935911e-06	3.564220e-09	3.547894e+01	2.379221e+02
2.060000e-06	4.963386e-06	3.581994e-09	3.567642e+01	2.390165e+02
2.070000e-06	4.989912e-06	3.598394e-09	3.586709e+01	2.400675e+02
2.080000e-06	5.015177e-06	3.612345e-09	3.604869e+01	2.410756e+02
2.090000e-06	5.039353e-06	3.624154e-09	3.622247e+01	2.420412e+02
2.100000e-06	5.062732e-06	3.637594e-09	3.639052e+01	2.429644e+02
2.110000e-06	5.085311e-06	3.653360e-09	3.655281e+01	2.438457e+02
2.120000e-06	5.107007e-06	3.666905e-09	3.670876e+01	2.446854e+02
2.130000e-06	5.127853e-06	3.678508e-09	3.685860e+01	2.454839e+02
2.140000e-06	5.147983e-06	3.690254e-09	3.700329e+01	2.462420e+02
2.150000e-06	5.167446e-06	3.702676e-09	3.714319e+01	2.469603e+02
2.160000e-06	5.185988e-06	3.714268e-09	3.727647e+01	2.476398e+02
2.170000e-06	5.203477e-06	3.723757e-09	3.740218e+01	2.482814e+02
2.180000e-06	5.220098e-06	3.732145e-09	3.752165e+01	2.488864e+02
2.190000e-06	5.235815e-06	3.739382e-09	3.763462e+01	2.494557e+02
2.200000e-06	5.250450e-06	3.746627e-09	3.773981e+01	2.499905e+02
2.210000e-06	5.264071e-06	3.753775e-09	3.783773e+01	2.504919e+02
2.220000e-06	5.276735e-06	3.760075e-09	3.792875e+01	2.509606e+02
2.230000e-06	5.288412e-06	3.765081e-09	3.801268e+01	2.513973e+02
2.240000e-06	5.298997e-06	3.771050e-09	3.808877e+01	2.518025e+02
2.250000e-06	5.308333e-06	3.777125e-09	3.815588e+01	2.521763e+02
2.260000e-06	5.316567e-06	3.782603e-09	3.821506e+01	2.525185e+02
2.270000e-06	5.323972e-06	3.788965e-09	3.826829e+01	2.528287e+02
2.280000e-06	5.330536e-06	3.793772e-09	3.831547e+01	2.531064e+02
2.290000e-06	5.336110e-06	3.796982e-09	3.835553e+01	2.533508e+02
2.300000e-06	5.340779e-06	3.798942e-09	3.838910e+01	2.535611e+02
2.310000e-06	5.344732e-06	3.802326e-09	3.841751e+01	2.537364e+02
2.320000e-06	5.347856e-06	3.806980e-09	3.843996e+01	2.538763e+02
2.330000e-06	5.349838e-06	3.810021e-09	3.845421e+01	2.539802e+02
2.340000e-06	5.350644e-06	3.811939e-09	3.846000e+01	2.540481e+02
2.350000e-06	5.350562e-06	3.813456e-09	3.845941e+01	2.540805e+02
2.360000e-06	5.349688e-06	3.813651e-09	3.845313e+01	2.540781e+02
2.370000e-06	5.347948e-06	3.811938e-09	3.844063e+01	2.540423e+02
2.380000e-06	5.345332e-06	3.809952e-09	3.842182e+01	2.539749e+02
2.390000e-06	5.341896e-06	3.807507e-09	3.839712e+01	2.538782e+02
2.400000e-06	5.337782e-06	3.804464e-09	3.836755e+01	2.537550e+02
2.410000e-06	5.332918e-06	3.802160e-09	3.833259e+01	2.536081e+02
2.420000e-06	5.327031e-06	3.798492e-09	3.829027e+01	2.534407e+02
2.430000e-06	5.319971e-06	3.781133e-09	3.823953e+01	2.532558e+02
2.440000e-06	5.311896e-06	3.791624e-09	3.818149e+01	2.530565e+02
2.450000e-06	5.302754e-06	3.802620e-09	3.811578e+01	2.528453e+02
2.460000e-06	5.292312e-06	3.811205e-09	3.804072e+01	2.526244e+02
2.470000e-06	5.280807e-06	3.761099e-09	3.795802e+01	2.523955e+02
2.480000e-06	5.268887e-06	3.732845e-09	3.787234e+01	2.521594e+02
2.490000e-06	5.256481e-06	3.808323e-09	3.778317e+01	2.519163e+02
2.500000e-06	5.242531e-06	3.788274e-09	3.768289e+01	2.516657e+02
2.510000e-06	5.227027e-06	3.726001e-09	3.757145e+01	2.514061e+02
2.520000e-06	5.210899e-06	3.779283e-09	3.745553e+01	2.511357e+02
2.530000e-06	5.194065e-06	3.751326e-09	3.733452e+01	2.508517e+02
2.540000e-06	5.176144e-06	3.693680e-09	3.720571e+01	2.505511e+02
2.550000e-06	5.157365e-06	3.813454e-09	3.707073e+01	2.502305e+02
2.560000e-06	5.137924e-06	3.808466e-09	3.693099e+01	2.498866e+02
2.570000e-06	5.117809e-06	3.701297e-09	3.678640e+01	2.495157e+02
2.580000e-06	5.096710e-06	3.804750e-09	3.663474e+01	2.491148e+02
2.590000e-06	5.074232e-06	3.889480e-09	3.647317e+01	2.486808e+02
2.600000e-06	5.050658e-06	3.785863e-09	3.630373e+01	2.482114e+02
2.610000e-06	5.026399e-06	3.753354e-09	3.612936e+01	2.477048e+02
2.620000e-06	5.001190e-06	3.763094e-09	3.594816e+01	2.471597e+02
2.630000e-06	4.975135e-06	3.772341e-09	3.576087e+01	2.465755e+02
2.640000e-06	4.948515e-06	3.844335e-09	3.556953e+01	2.459523e+02
2.650000e-06	4.921093e-06	3.768472e-09	3.537243e+01	2.452906e+02
2.660000e-06	4.892840e-06	3.664480e-09	3.516935e+01	2.445914e+02
2.670000e-06	4.863755e-06	3.716636e-09	3.496028e+01	2.438560e+02
2.680000e-06	4.833448e-06	3.746010e-09	3.474244e+01	2.430861e+02
2.690000e-06	4.801916e-06	3.796999e-09	3.451579e+01	2.422832e+02
2.700000e-06	4.769550e-06	3.745245e-09	3.428315e+01	2.414488e+02
2.710000e-06	4.736482e-06	3.589860e-09	3.404545e+01	2.405843e+02
2.720000e-06	4.702691e-06	3.685165e-09	3.380257e+01	2.396910e+02
2.730000e-06	4.668052e-06	3.802051e-09	3.355358e+01	2.387695e+02
2.740000e-06	4.632664e-06	3.716561e-09	3.329922e+01	2.378204e+02
2.750000e-06	4.596712e-06	3.589437e-09	3.304080e+01	2.368438e+02
2.760000e-06	4.559984e-06	3.560982e-09	3.277680e+01	2.358395e+02
2.770000e-06	4.522143e-06	3.686662e-09	3.250480e+01	2.348070e+02
2.780000e-06	4.483181e-06	3.700089e-09	3.222475e+01	2.337458e+02
2.790000e-06	4.443424e-06	3.563301e-09	3.193898e+01	2.326551e+02
2.800000e-06	4.403025e-06	3.512275e-09	3.164860e+01	2.315342e+02
2.810000e-06	4.361857e-06	3.548214e-09	3.135268e+01	2.303826e+02
2.820000e-06	4.319946e-06	3.606184e-09	3.105143e+01	2.291998e+02
2.830000e-06	4.277328e-06	3.555003e-09	3.074509e+01	2.279858e+02
2.840000e-06	4.233973e-06	3.464577e-09	3.043346e+01	2.267407e+02
2.850000e-06	4.190038e-06	3.459230e-09	3.011766e+01	2.254649e+02
2.860000e-06	4.145596e-06	3.467178e-09	2.979821e+01	2.241592e+02
2.870000e-06	4.100445e-06	3.477604e-09	2.947367e+01	2.228244e+02
2.880000e-06	4.054453e-06	3.435174e-09	2.914309e+01	2.214618e+02
2.890000e-06	4.007770e-06	3.370384e-09	2.880753e+01	2.200724e+02
2.900000e-06	3.960462e-06	3.361984e-09	2.846748e+01	2.186573e+02
2.910000e-06	3.912356e-06	3.364140e-09	2.812170e+01	2.172176e+02
2.920000e-06	3.863390e-06	3.362277e-09	2.776974e+01	2.157539e+02
2.930000e-06	3.813683e-06	3.320627e-09	2.741245e+01	2.142666e+02
2.940000e-06	3.763268e-06	3.270445e-09	2.705007e+01	2.127559e+02
