# Temperatura_=_20.0
# Concentracion g/m^3_=_12600.0
# C_Vs_to_Am_M_A/Vsm_=_65563218390.804596
# pendiente_HvsI_1/m_=_3716.3
# ordenada_HvsI_A/m_=_1297.0
# frecuencia_Hz_=_213091.848286585

Tiempo_(s)	Campo_(V.s)	Magnetizacion_(V.s)	Campo_(kA/m)	Magnetizacion_(A/m)
0.000000e+00	-5.340135e-06	-4.052559e-09	-3.835032e+01	-2.624707e+02
1.000000e-08	-5.339705e-06	-4.052193e-09	-3.834723e+01	-2.624229e+02
2.000000e-08	-5.338199e-06	-4.052710e-09	-3.833641e+01	-2.623416e+02
3.000000e-08	-5.335643e-06	-4.054682e-09	-3.831805e+01	-2.622301e+02
4.000000e-08	-5.332167e-06	-4.054193e-09	-3.829309e+01	-2.620925e+02
5.000000e-08	-5.327922e-06	-4.051383e-09	-3.826261e+01	-2.619327e+02
6.000000e-08	-5.322845e-06	-4.050624e-09	-3.822614e+01	-2.617548e+02
7.000000e-08	-5.316851e-06	-4.054593e-09	-3.818310e+01	-2.615628e+02
8.000000e-08	-5.309958e-06	-4.058367e-09	-3.813360e+01	-2.613602e+02
9.000000e-08	-5.302133e-06	-4.038421e-09	-3.807741e+01	-2.611496e+02
1.000000e-07	-5.293136e-06	-4.014325e-09	-3.801279e+01	-2.609331e+02
1.100000e-07	-5.282824e-06	-4.017285e-09	-3.793873e+01	-2.607116e+02
1.200000e-07	-5.271387e-06	-4.071941e-09	-3.785660e+01	-2.604852e+02
1.300000e-07	-5.259043e-06	-4.078185e-09	-3.776795e+01	-2.602527e+02
1.400000e-07	-5.245806e-06	-3.955589e-09	-3.767289e+01	-2.600121e+02
1.500000e-07	-5.231685e-06	-3.959154e-09	-3.757148e+01	-2.597605e+02
1.600000e-07	-5.216615e-06	-4.050954e-09	-3.746325e+01	-2.594942e+02
1.700000e-07	-5.200341e-06	-3.990828e-09	-3.734638e+01	-2.592091e+02
1.800000e-07	-5.182877e-06	-4.011513e-09	-3.722096e+01	-2.589008e+02
1.900000e-07	-5.164567e-06	-4.043342e-09	-3.708947e+01	-2.585650e+02
2.000000e-07	-5.145605e-06	-3.909012e-09	-3.695329e+01	-2.581975e+02
2.100000e-07	-5.125863e-06	-3.925320e-09	-3.681151e+01	-2.577947e+02
2.200000e-07	-5.105234e-06	-4.043413e-09	-3.666337e+01	-2.573537e+02
2.300000e-07	-5.083783e-06	-3.899787e-09	-3.650932e+01	-2.568724e+02
2.400000e-07	-5.061585e-06	-3.752421e-09	-3.634990e+01	-2.563497e+02
2.500000e-07	-5.038594e-06	-3.867519e-09	-3.618479e+01	-2.557853e+02
2.600000e-07	-5.014679e-06	-3.927165e-09	-3.601304e+01	-2.551801e+02
2.700000e-07	-4.989723e-06	-3.883798e-09	-3.583382e+01	-2.545356e+02
2.800000e-07	-4.963693e-06	-3.827792e-09	-3.564689e+01	-2.538539e+02
2.900000e-07	-4.936685e-06	-3.745080e-09	-3.545293e+01	-2.531378e+02
3.000000e-07	-4.908824e-06	-3.774329e-09	-3.525285e+01	-2.523904e+02
3.100000e-07	-4.880180e-06	-3.854080e-09	-3.504714e+01	-2.516145e+02
3.200000e-07	-4.850693e-06	-3.824550e-09	-3.483538e+01	-2.508129e+02
3.300000e-07	-4.820310e-06	-3.735336e-09	-3.461718e+01	-2.499881e+02
3.400000e-07	-4.789205e-06	-3.683901e-09	-3.439380e+01	-2.491418e+02
3.500000e-07	-4.757533e-06	-3.736350e-09	-3.416635e+01	-2.482752e+02
3.600000e-07	-4.725045e-06	-3.811928e-09	-3.393303e+01	-2.473885e+02
3.700000e-07	-4.691382e-06	-3.755333e-09	-3.369128e+01	-2.464814e+02
3.800000e-07	-4.656637e-06	-3.626722e-09	-3.344176e+01	-2.455526e+02
3.900000e-07	-4.621115e-06	-3.628381e-09	-3.318666e+01	-2.446003e+02
4.000000e-07	-4.584881e-06	-3.737950e-09	-3.292644e+01	-2.436223e+02
4.100000e-07	-4.547832e-06	-3.734252e-09	-3.266037e+01	-2.426160e+02
4.200000e-07	-4.509982e-06	-3.610289e-09	-3.238855e+01	-2.415788e+02
4.300000e-07	-4.471401e-06	-3.552296e-09	-3.211148e+01	-2.405081e+02
4.400000e-07	-4.432168e-06	-3.616066e-09	-3.182973e+01	-2.394018e+02
4.500000e-07	-4.392360e-06	-3.665998e-09	-3.154385e+01	-2.382580e+02
4.600000e-07	-4.351799e-06	-3.606103e-09	-3.125256e+01	-2.370756e+02
4.700000e-07	-4.310215e-06	-3.516936e-09	-3.095392e+01	-2.358542e+02
4.800000e-07	-4.267559e-06	-3.501189e-09	-3.064758e+01	-2.345940e+02
4.900000e-07	-4.224046e-06	-3.542473e-09	-3.033509e+01	-2.332959e+02
5.000000e-07	-4.179868e-06	-3.547890e-09	-3.001783e+01	-2.319613e+02
5.100000e-07	-4.135024e-06	-3.486163e-09	-2.969578e+01	-2.305923e+02
5.200000e-07	-4.089395e-06	-3.421208e-09	-2.936810e+01	-2.291911e+02
5.300000e-07	-4.042998e-06	-3.407871e-09	-2.903489e+01	-2.277600e+02
5.400000e-07	-3.995964e-06	-3.436109e-09	-2.869712e+01	-2.263014e+02
5.500000e-07	-3.948335e-06	-3.433448e-09	-2.835507e+01	-2.248172e+02
5.600000e-07	-3.899985e-06	-3.370437e-09	-2.800784e+01	-2.233090e+02
5.700000e-07	-3.850538e-06	-3.314726e-09	-2.765274e+01	-2.217778e+02
5.800000e-07	-3.799999e-06	-3.311464e-09	-2.728979e+01	-2.202239e+02
5.900000e-07	-3.748669e-06	-3.326975e-09	-2.692116e+01	-2.186471e+02
6.000000e-07	-3.696597e-06	-3.305627e-09	-2.654720e+01	-2.170462e+02
6.100000e-07	-3.643803e-06	-3.246518e-09	-2.616806e+01	-2.154197e+02
6.200000e-07	-3.590358e-06	-3.197056e-09	-2.578425e+01	-2.137653e+02
6.300000e-07	-3.536337e-06	-3.188615e-09	-2.539629e+01	-2.120805e+02
6.400000e-07	-3.481685e-06	-3.202844e-09	-2.500381e+01	-2.103627e+02
6.500000e-07	-3.426451e-06	-3.174617e-09	-2.460715e+01	-2.086092e+02
6.600000e-07	-3.370790e-06	-3.101756e-09	-2.420741e+01	-2.068174e+02
6.700000e-07	-3.314607e-06	-3.058775e-09	-2.380393e+01	-2.049851e+02
6.800000e-07	-3.257693e-06	-3.067462e-09	-2.339520e+01	-2.031108e+02
6.900000e-07	-3.199976e-06	-3.069263e-09	-2.298071e+01	-2.011932e+02
7.000000e-07	-3.141498e-06	-3.014072e-09	-2.256075e+01	-1.992321e+02
7.100000e-07	-3.082380e-06	-2.944315e-09	-2.213619e+01	-1.972277e+02
7.200000e-07	-3.022806e-06	-2.924176e-09	-2.170836e+01	-1.951808e+02
7.300000e-07	-2.962857e-06	-2.930930e-09	-2.127783e+01	-1.930928e+02
7.400000e-07	-2.902461e-06	-2.903509e-09	-2.084410e+01	-1.909655e+02
7.500000e-07	-2.841530e-06	-2.835801e-09	-2.040652e+01	-1.888011e+02
7.600000e-07	-2.780069e-06	-2.785529e-09	-1.996514e+01	-1.866016e+02
7.700000e-07	-2.718137e-06	-2.778080e-09	-1.952037e+01	-1.843690e+02
7.800000e-07	-2.655777e-06	-2.764874e-09	-1.907253e+01	-1.821052e+02
7.900000e-07	-2.592961e-06	-2.716825e-09	-1.862142e+01	-1.798115e+02
8.000000e-07	-2.529700e-06	-2.660826e-09	-1.816710e+01	-1.774887e+02
8.100000e-07	-2.466065e-06	-2.628835e-09	-1.771011e+01	-1.751372e+02
8.200000e-07	-2.402152e-06	-2.608198e-09	-1.725112e+01	-1.727565e+02
8.300000e-07	-2.337921e-06	-2.572261e-09	-1.678984e+01	-1.703457e+02
8.400000e-07	-2.273230e-06	-2.528168e-09	-1.632526e+01	-1.679033e+02
8.500000e-07	-2.207923e-06	-2.487621e-09	-1.585625e+01	-1.654274e+02
8.600000e-07	-2.141977e-06	-2.450456e-09	-1.538266e+01	-1.629157e+02
8.700000e-07	-2.075485e-06	-2.413494e-09	-1.490515e+01	-1.603659e+02
8.800000e-07	-2.008524e-06	-2.378512e-09	-1.442426e+01	-1.577757e+02
8.900000e-07	-1.941209e-06	-2.345331e-09	-1.394084e+01	-1.551428e+02
9.000000e-07	-1.873631e-06	-2.300088e-09	-1.345553e+01	-1.524654e+02
9.100000e-07	-1.805845e-06	-2.248234e-09	-1.296872e+01	-1.497420e+02
9.200000e-07	-1.737890e-06	-2.209238e-09	-1.248070e+01	-1.469717e+02
9.300000e-07	-1.669736e-06	-2.181960e-09	-1.199125e+01	-1.441540e+02
9.400000e-07	-1.601274e-06	-2.141404e-09	-1.149959e+01	-1.412889e+02
9.500000e-07	-1.532473e-06	-2.079984e-09	-1.100550e+01	-1.383772e+02
9.600000e-07	-1.463478e-06	-2.028019e-09	-1.051001e+01	-1.354196e+02
9.700000e-07	-1.394290e-06	-1.998261e-09	-1.001313e+01	-1.324177e+02
9.800000e-07	-1.324833e-06	-1.965586e-09	-9.514318e+00	-1.293727e+02
9.900000e-07	-1.255067e-06	-1.909917e-09	-9.013297e+00	-1.262861e+02
1.000000e-06	-1.185038e-06	-1.847322e-09	-8.510383e+00	-1.231594e+02
1.010000e-06	-1.114867e-06	-1.804988e-09	-8.006444e+00	-1.199938e+02
1.020000e-06	-1.044526e-06	-1.773585e-09	-7.501289e+00	-1.167900e+02
1.030000e-06	-9.739781e-07	-1.726315e-09	-6.994648e+00	-1.135486e+02
1.040000e-06	-9.032258e-07	-1.662610e-09	-6.486539e+00	-1.102697e+02
1.050000e-06	-8.323235e-07	-1.605492e-09	-5.977353e+00	-1.069530e+02
1.060000e-06	-7.613183e-07	-1.565038e-09	-5.467427e+00	-1.035976e+02
1.070000e-06	-6.902345e-07	-1.520967e-09	-4.956937e+00	-1.002028e+02
1.080000e-06	-6.190443e-07	-1.461846e-09	-4.445682e+00	-9.676714e+01
1.090000e-06	-5.476737e-07	-1.401233e-09	-3.933132e+00	-9.328951e+01
1.100000e-06	-4.762352e-07	-1.349562e-09	-3.420096e+00	-8.976860e+01
1.110000e-06	-4.048293e-07	-1.303147e-09	-2.907292e+00	-8.620329e+01
1.120000e-06	-3.334202e-07	-1.249719e-09	-2.394466e+00	-8.259268e+01
1.130000e-06	-2.619562e-07	-1.189483e-09	-1.881245e+00	-7.893619e+01
1.140000e-06	-1.904405e-07	-1.130429e-09	-1.367653e+00	-7.523357e+01
1.150000e-06	-1.189367e-07	-1.074552e-09	-8.541471e-01	-7.148493e+01
1.160000e-06	-4.744036e-08	-1.020808e-09	-3.406942e-01	-6.769074e+01
1.170000e-06	2.408098e-08	-9.636744e-10	1.729382e-01	-6.385172e+01
1.180000e-06	9.561893e-08	-9.026594e-10	6.866898e-01	-5.996878e+01
1.190000e-06	1.671225e-07	-8.394285e-10	1.200194e+00	-5.604294e+01
1.200000e-06	2.385475e-07	-7.786622e-10	1.713135e+00	-5.207517e+01
1.210000e-06	3.099711e-07	-7.227040e-10	2.226065e+00	-4.806627e+01
1.220000e-06	3.813815e-07	-6.644159e-10	2.738901e+00	-4.401680e+01
1.230000e-06	4.527057e-07	-5.989260e-10	3.251118e+00	-3.992695e+01
1.240000e-06	5.239761e-07	-5.311410e-10	3.762948e+00	-3.579648e+01
1.250000e-06	5.952078e-07	-4.691430e-10	4.274500e+00	-3.162472e+01
1.260000e-06	6.663688e-07	-4.117280e-10	4.785544e+00	-2.741055e+01
1.270000e-06	7.374300e-07	-3.459315e-10	5.295872e+00	-2.315246e+01
1.280000e-06	8.083697e-07	-2.717620e-10	5.805328e+00	-1.884866e+01
1.290000e-06	8.791356e-07	-2.012317e-10	6.313534e+00	-1.449717e+01
1.300000e-06	9.497457e-07	-1.381861e-10	6.820623e+00	-1.009604e+01
1.310000e-06	1.020208e-06	-7.486784e-11	7.326653e+00	-5.643451e+00
1.320000e-06	1.090512e-06	-2.047802e-12	7.831542e+00	-1.137942e+00
1.330000e-06	1.160640e-06	7.118127e-11	8.335167e+00	3.421421e+00
1.340000e-06	1.230588e-06	1.392090e-10	8.837496e+00	8.034895e+00
1.350000e-06	1.300275e-06	2.058843e-10	9.337956e+00	1.270191e+01
1.360000e-06	1.369693e-06	2.771841e-10	9.836483e+00	1.742100e+01
1.370000e-06	1.438875e-06	3.538273e-10	1.033332e+01	2.218970e+01
1.380000e-06	1.507737e-06	4.288969e-10	1.082785e+01	2.700456e+01
1.390000e-06	1.576273e-06	5.029669e-10	1.132005e+01	3.186121e+01
1.400000e-06	1.644599e-06	5.771264e-10	1.181073e+01	3.675436e+01
1.410000e-06	1.712735e-06	6.514742e-10	1.230005e+01	4.167799e+01
1.420000e-06	1.780620e-06	7.269539e-10	1.278757e+01	4.662545e+01
1.430000e-06	1.848223e-06	8.031689e-10	1.327306e+01	5.158966e+01
1.440000e-06	1.915500e-06	8.788788e-10	1.375621e+01	5.656324e+01
1.450000e-06	1.982504e-06	9.505697e-10	1.423740e+01	6.153873e+01
1.460000e-06	2.049144e-06	1.021831e-09	1.471598e+01	6.650875e+01
1.470000e-06	2.115343e-06	1.099366e-09	1.519139e+01	7.146611e+01
1.480000e-06	2.181121e-06	1.178960e-09	1.566378e+01	7.640396e+01
1.490000e-06	2.246388e-06	1.252325e-09	1.613249e+01	8.131587e+01
1.500000e-06	2.311091e-06	1.318979e-09	1.659716e+01	8.619589e+01
1.510000e-06	2.375293e-06	1.389052e-09	1.705822e+01	9.103856e+01
1.520000e-06	2.439098e-06	1.466516e-09	1.751644e+01	9.583888e+01
1.530000e-06	2.502579e-06	1.542105e-09	1.797233e+01	1.005923e+02
1.540000e-06	2.565725e-06	1.608396e-09	1.842582e+01	1.052948e+02
1.550000e-06	2.628483e-06	1.671541e-09	1.887652e+01	1.099424e+02
1.560000e-06	2.690853e-06	1.741798e-09	1.932443e+01	1.145316e+02
1.570000e-06	2.752765e-06	1.817829e-09	1.976905e+01	1.190591e+02
1.580000e-06	2.814212e-06	1.888237e-09	2.021033e+01	1.235217e+02
1.590000e-06	2.875223e-06	1.950476e-09	2.064849e+01	1.279163e+02
1.600000e-06	2.935735e-06	2.012129e-09	2.108306e+01	1.322399e+02
1.610000e-06	2.995794e-06	2.078268e-09	2.151437e+01	1.364897e+02
1.620000e-06	3.055424e-06	2.144266e-09	2.194260e+01	1.406630e+02
1.630000e-06	3.114606e-06	2.204727e-09	2.236762e+01	1.447572e+02
1.640000e-06	3.173195e-06	2.260819e-09	2.278838e+01	1.487701e+02
1.650000e-06	3.231002e-06	2.317954e-09	2.320352e+01	1.526997e+02
1.660000e-06	3.287989e-06	2.377673e-09	2.361277e+01	1.565444e+02
1.670000e-06	3.344240e-06	2.435140e-09	2.401674e+01	1.603031e+02
1.680000e-06	3.399890e-06	2.488652e-09	2.441640e+01	1.639751e+02
1.690000e-06	3.455043e-06	2.539845e-09	2.481248e+01	1.675602e+02
1.700000e-06	3.509735e-06	2.590762e-09	2.520525e+01	1.710585e+02
1.710000e-06	3.563820e-06	2.643499e-09	2.559367e+01	1.744709e+02
1.720000e-06	3.617230e-06	2.696414e-09	2.597723e+01	1.777984e+02
1.730000e-06	3.670055e-06	2.745458e-09	2.635659e+01	1.810425e+02
1.740000e-06	3.722256e-06	2.788585e-09	2.673148e+01	1.842047e+02
1.750000e-06	3.773703e-06	2.830116e-09	2.710094e+01	1.872869e+02
1.760000e-06	3.824312e-06	2.875240e-09	2.746439e+01	1.902910e+02
1.770000e-06	3.873960e-06	2.920955e-09	2.782094e+01	1.932185e+02
1.780000e-06	3.922681e-06	2.961188e-09	2.817083e+01	1.960711e+02
1.790000e-06	3.970551e-06	2.996973e-09	2.851461e+01	1.988502e+02
1.800000e-06	4.017689e-06	3.035588e-09	2.885314e+01	2.015569e+02
1.810000e-06	4.064215e-06	3.077869e-09	2.918727e+01	2.041918e+02
1.820000e-06	4.110082e-06	3.117702e-09	2.951666e+01	2.067557e+02
1.830000e-06	4.155234e-06	3.152024e-09	2.984092e+01	2.092487e+02
1.840000e-06	4.199698e-06	3.184691e-09	3.016024e+01	2.116709e+02
1.850000e-06	4.243595e-06	3.219245e-09	3.047549e+01	2.140223e+02
1.860000e-06	4.286898e-06	3.253494e-09	3.078647e+01	2.163030e+02
1.870000e-06	4.329455e-06	3.282989e-09	3.109209e+01	2.185130e+02
1.880000e-06	4.371028e-06	3.309641e-09	3.139065e+01	2.206524e+02
1.890000e-06	4.411583e-06	3.338699e-09	3.168189e+01	2.227219e+02
1.900000e-06	4.451307e-06	3.370162e-09	3.196718e+01	2.247222e+02
1.910000e-06	4.490335e-06	3.400030e-09	3.224745e+01	2.266542e+02
1.920000e-06	4.528697e-06	3.426620e-09	3.252295e+01	2.285196e+02
1.930000e-06	4.566301e-06	3.451325e-09	3.279301e+01	2.303200e+02
1.940000e-06	4.603106e-06	3.474933e-09	3.305732e+01	2.320575e+02
1.950000e-06	4.639210e-06	3.499247e-09	3.331661e+01	2.337341e+02
1.960000e-06	4.674623e-06	3.523244e-09	3.357093e+01	2.353523e+02
1.970000e-06	4.709214e-06	3.545150e-09	3.381934e+01	2.369143e+02
1.980000e-06	4.742753e-06	3.565570e-09	3.406020e+01	2.384222e+02
1.990000e-06	4.775192e-06	3.585778e-09	3.429316e+01	2.398780e+02
2.000000e-06	4.806788e-06	3.607630e-09	3.452007e+01	2.412835e+02
2.010000e-06	4.837702e-06	3.630487e-09	3.474208e+01	2.426401e+02
2.020000e-06	4.867848e-06	3.651697e-09	3.495857e+01	2.439487e+02
2.030000e-06	4.897127e-06	3.669705e-09	3.516885e+01	2.452100e+02
2.040000e-06	4.925616e-06	3.686093e-09	3.537344e+01	2.464243e+02
2.050000e-06	4.953409e-06	3.703686e-09	3.557303e+01	2.475917e+02
2.060000e-06	4.980451e-06	3.720586e-09	3.576723e+01	2.487121e+02
2.070000e-06	5.006469e-06	3.733700e-09	3.595408e+01	2.497851e+02
2.080000e-06	5.031280e-06	3.745206e-09	3.613227e+01	2.508106e+02
2.090000e-06	5.055040e-06	3.758364e-09	3.630290e+01	2.517884e+02
2.100000e-06	5.077975e-06	3.774520e-09	3.646760e+01	2.527186e+02
2.110000e-06	5.100116e-06	3.789423e-09	3.662661e+01	2.536014e+02
2.120000e-06	5.121442e-06	3.800725e-09	3.677976e+01	2.544377e+02
2.130000e-06	5.141938e-06	3.811310e-09	3.692695e+01	2.552283e+02
2.140000e-06	5.161674e-06	3.823153e-09	3.706869e+01	2.559746e+02
2.150000e-06	5.180682e-06	3.834588e-09	3.720520e+01	2.566782e+02
2.160000e-06	5.198777e-06	3.843022e-09	3.733515e+01	2.573409e+02
2.170000e-06	5.215860e-06	3.851376e-09	3.745783e+01	2.579647e+02
2.180000e-06	5.232005e-06	3.860616e-09	3.757378e+01	2.585514e+02
2.190000e-06	5.247219e-06	3.870098e-09	3.768303e+01	2.591029e+02
2.200000e-06	5.261398e-06	3.878634e-09	3.778487e+01	2.596207e+02
2.210000e-06	5.274583e-06	3.885924e-09	3.787955e+01	2.601058e+02
2.220000e-06	5.286829e-06	3.891334e-09	3.796750e+01	2.605591e+02
2.230000e-06	5.298082e-06	3.896238e-09	3.804831e+01	2.609808e+02
2.240000e-06	5.308176e-06	3.902491e-09	3.812080e+01	2.613706e+02
2.250000e-06	5.317015e-06	3.908051e-09	3.818428e+01	2.617279e+02
2.260000e-06	5.324838e-06	3.913463e-09	3.824046e+01	2.620514e+02
2.270000e-06	5.331832e-06	3.919018e-09	3.829069e+01	2.623399e+02
2.280000e-06	5.337971e-06	3.922326e-09	3.833477e+01	2.625918e+02
2.290000e-06	5.343189e-06	3.924521e-09	3.837224e+01	2.628057e+02
2.300000e-06	5.347515e-06	3.927431e-09	3.840332e+01	2.629801e+02
2.310000e-06	5.351032e-06	3.929887e-09	3.842858e+01	2.631143e+02
2.320000e-06	5.353624e-06	3.931084e-09	3.844719e+01	2.632078e+02
2.330000e-06	5.355063e-06	3.932562e-09	3.845752e+01	2.632607e+02
2.340000e-06	5.355408e-06	3.936145e-09	3.846000e+01	2.632741e+02
2.350000e-06	5.354904e-06	3.937326e-09	3.845638e+01	2.632496e+02
2.360000e-06	5.353555e-06	3.936225e-09	3.844669e+01	2.631897e+02
2.370000e-06	5.351398e-06	3.934525e-09	3.843120e+01	2.630973e+02
2.380000e-06	5.348425e-06	3.932150e-09	3.840985e+01	2.629762e+02
2.390000e-06	5.344661e-06	3.929790e-09	3.838282e+01	2.628302e+02
2.400000e-06	5.340253e-06	3.925807e-09	3.835116e+01	2.626636e+02
2.410000e-06	5.335028e-06	3.917112e-09	3.831364e+01	2.624803e+02
2.420000e-06	5.328701e-06	3.901665e-09	3.826820e+01	2.622841e+02
2.430000e-06	5.321209e-06	3.917147e-09	3.821440e+01	2.620783e+02
2.440000e-06	5.312648e-06	3.946669e-09	3.815292e+01	2.618654e+02
2.450000e-06	5.302913e-06	3.936276e-09	3.808301e+01	2.616470e+02
2.460000e-06	5.291966e-06	3.863771e-09	3.800439e+01	2.614238e+02
2.470000e-06	5.280254e-06	3.809756e-09	3.792028e+01	2.611953e+02
2.480000e-06	5.268065e-06	3.910093e-09	3.783274e+01	2.609602e+02
2.490000e-06	5.254890e-06	3.922281e-09	3.773813e+01	2.607161e+02
2.500000e-06	5.240156e-06	3.811496e-09	3.763232e+01	2.604597e+02
2.510000e-06	5.224253e-06	3.866817e-09	3.751811e+01	2.601873e+02
2.520000e-06	5.207748e-06	3.862042e-09	3.739957e+01	2.598945e+02
2.530000e-06	5.190411e-06	3.807207e-09	3.727507e+01	2.595770e+02
2.540000e-06	5.172095e-06	3.949761e-09	3.714353e+01	2.592304e+02
2.550000e-06	5.153014e-06	3.992860e-09	3.700650e+01	2.588509e+02
2.560000e-06	5.133237e-06	3.881096e-09	3.686447e+01	2.584349e+02
2.570000e-06	5.112666e-06	4.003126e-09	3.671674e+01	2.579799e+02
2.580000e-06	5.090941e-06	4.144354e-09	3.656072e+01	2.574842e+02
2.590000e-06	5.067841e-06	3.988691e-09	3.639483e+01	2.569468e+02
2.600000e-06	5.043794e-06	3.889194e-09	3.622214e+01	2.563679e+02
2.610000e-06	5.019019e-06	3.917269e-09	3.604421e+01	2.557486e+02
2.620000e-06	4.993403e-06	3.943732e-09	3.586025e+01	2.550907e+02
2.630000e-06	4.967026e-06	4.016252e-09	3.567082e+01	2.543966e+02
2.640000e-06	4.939940e-06	3.960334e-09	3.547630e+01	2.536692e+02
2.650000e-06	4.912085e-06	3.837783e-09	3.527626e+01	2.529113e+02
2.660000e-06	4.883387e-06	3.848965e-09	3.507016e+01	2.521261e+02
2.670000e-06	4.853625e-06	3.901660e-09	3.485643e+01	2.513161e+02
2.680000e-06	4.822651e-06	3.954151e-09	3.463399e+01	2.504835e+02
2.690000e-06	4.790723e-06	3.919639e-09	3.440470e+01	2.496300e+02
2.700000e-06	4.758057e-06	3.763706e-09	3.417010e+01	2.487562e+02
2.710000e-06	4.724623e-06	3.795810e-09	3.393000e+01	2.478624e+02
2.720000e-06	4.690358e-06	3.948585e-09	3.368392e+01	2.469478e+02
2.730000e-06	4.655279e-06	3.894613e-09	3.343200e+01	2.460109e+02
2.740000e-06	4.619490e-06	3.748407e-09	3.317498e+01	2.450498e+02
2.750000e-06	4.583077e-06	3.699458e-09	3.291348e+01	2.440622e+02
2.760000e-06	4.545852e-06	3.797640e-09	3.264615e+01	2.430453e+02
2.770000e-06	4.507545e-06	3.852043e-09	3.237105e+01	2.419966e+02
2.780000e-06	4.468169e-06	3.733380e-09	3.208827e+01	2.409136e+02
2.790000e-06	4.427993e-06	3.659944e-09	3.179974e+01	2.397942e+02
2.800000e-06	4.387134e-06	3.678071e-09	3.150632e+01	2.386369e+02
2.810000e-06	4.345581e-06	3.713784e-09	3.120790e+01	2.374409e+02
2.820000e-06	4.303290e-06	3.710180e-09	3.090419e+01	2.362057e+02
2.830000e-06	4.260274e-06	3.632709e-09	3.059526e+01	2.349320e+02
2.840000e-06	4.216611e-06	3.591652e-09	3.028170e+01	2.336209e+02
2.850000e-06	4.172383e-06	3.582816e-09	2.996408e+01	2.322740e+02
2.860000e-06	4.127640e-06	3.595771e-09	2.964275e+01	2.308933e+02
2.870000e-06	4.082139e-06	3.602823e-09	2.931599e+01	2.294813e+02
2.880000e-06	4.035739e-06	3.530105e-09	2.898276e+01	2.280403e+02
2.890000e-06	3.988583e-06	3.472759e-09	2.864411e+01	2.265724e+02
2.900000e-06	3.940766e-06	3.472737e-09	2.830071e+01	2.250796e+02
2.910000e-06	3.892162e-06	3.494538e-09	2.795166e+01	2.235632e+02
2.920000e-06	3.842743e-06	3.476103e-09	2.759676e+01	2.220240e+02
2.930000e-06	3.792645e-06	3.393707e-09	2.723698e+01	2.204621e+02
2.940000e-06	3.741883e-06	3.351007e-09	2.687243e+01	2.188769e+02
