# Temperatura_=_20.0
# Concentracion g/m^3_=_12600.0
# C_Vs_to_Am_M_A/Vsm_=_65563218390.804596
# pendiente_HvsI_1/m_=_3716.3
# ordenada_HvsI_A/m_=_1297.0
# frecuencia_Hz_=_213094.3092162216

Tiempo_(s)	Campo_(V.s)	Magnetizacion_(V.s)	Campo_(kA/m)	Magnetizacion_(A/m)
0.000000e+00	-5.331027e-06	-4.362732e-09	-3.834762e+01	-2.848281e+02
1.000000e-08	-5.330645e-06	-4.360689e-09	-3.834488e+01	-2.848014e+02
2.000000e-08	-5.329121e-06	-4.361869e-09	-3.833391e+01	-2.847379e+02
3.000000e-08	-5.326286e-06	-4.362055e-09	-3.831352e+01	-2.846390e+02
4.000000e-08	-5.322595e-06	-4.359976e-09	-3.828696e+01	-2.845066e+02
5.000000e-08	-5.318250e-06	-4.356986e-09	-3.825571e+01	-2.843432e+02
6.000000e-08	-5.312985e-06	-4.353705e-09	-3.821784e+01	-2.841517e+02
7.000000e-08	-5.306771e-06	-4.347115e-09	-3.817314e+01	-2.839355e+02
8.000000e-08	-5.299709e-06	-4.334153e-09	-3.812235e+01	-2.836981e+02
9.000000e-08	-5.291865e-06	-4.353091e-09	-3.806592e+01	-2.834430e+02
1.000000e-07	-5.282872e-06	-4.385288e-09	-3.800123e+01	-2.831736e+02
1.100000e-07	-5.272272e-06	-4.380375e-09	-3.792498e+01	-2.828931e+02
1.200000e-07	-5.260518e-06	-4.296542e-09	-3.784043e+01	-2.826040e+02
1.300000e-07	-5.248068e-06	-4.214739e-09	-3.775088e+01	-2.823081e+02
1.400000e-07	-5.234750e-06	-4.327380e-09	-3.765507e+01	-2.820067e+02
1.500000e-07	-5.220470e-06	-4.421546e-09	-3.755235e+01	-2.816998e+02
1.600000e-07	-5.205262e-06	-4.270434e-09	-3.744296e+01	-2.813868e+02
1.700000e-07	-5.188825e-06	-4.279279e-09	-3.732472e+01	-2.810662e+02
1.800000e-07	-5.171098e-06	-4.294876e-09	-3.719720e+01	-2.807354e+02
1.900000e-07	-5.152708e-06	-4.187992e-09	-3.706492e+01	-2.803913e+02
2.000000e-07	-5.133803e-06	-4.337943e-09	-3.692893e+01	-2.800300e+02
2.100000e-07	-5.113990e-06	-4.399198e-09	-3.678641e+01	-2.796474e+02
2.200000e-07	-5.093276e-06	-4.175770e-09	-3.663741e+01	-2.792390e+02
2.300000e-07	-5.071790e-06	-4.173903e-09	-3.648286e+01	-2.788004e+02
2.400000e-07	-5.049414e-06	-4.369773e-09	-3.632190e+01	-2.783273e+02
2.500000e-07	-5.026157e-06	-4.297323e-09	-3.615461e+01	-2.778160e+02
2.600000e-07	-5.002128e-06	-4.191443e-09	-3.598175e+01	-2.772630e+02
2.700000e-07	-4.977227e-06	-4.194930e-09	-3.580264e+01	-2.766658e+02
2.800000e-07	-4.951272e-06	-4.197969e-09	-3.561594e+01	-2.760224e+02
2.900000e-07	-4.924195e-06	-4.253793e-09	-3.542116e+01	-2.753318e+02
3.000000e-07	-4.896262e-06	-4.206600e-09	-3.522023e+01	-2.745937e+02
3.100000e-07	-4.867618e-06	-4.138441e-09	-3.501419e+01	-2.738084e+02
3.200000e-07	-4.838145e-06	-4.192193e-09	-3.480218e+01	-2.729771e+02
3.300000e-07	-4.807780e-06	-4.137239e-09	-3.458376e+01	-2.721014e+02
3.400000e-07	-4.776654e-06	-4.092408e-09	-3.435985e+01	-2.711832e+02
3.500000e-07	-4.744922e-06	-4.164046e-09	-3.413160e+01	-2.702246e+02
3.600000e-07	-4.712421e-06	-4.122830e-09	-3.389781e+01	-2.692281e+02
3.700000e-07	-4.678837e-06	-4.042536e-09	-3.365623e+01	-2.681956e+02
3.800000e-07	-4.644059e-06	-4.061021e-09	-3.340606e+01	-2.671292e+02
3.900000e-07	-4.608395e-06	-4.082383e-09	-3.314952e+01	-2.660304e+02
4.000000e-07	-4.572072e-06	-4.049389e-09	-3.288824e+01	-2.649005e+02
4.100000e-07	-4.534958e-06	-4.027121e-09	-3.262127e+01	-2.637403e+02
4.200000e-07	-4.497058e-06	-3.995221e-09	-3.234864e+01	-2.625501e+02
4.300000e-07	-4.458381e-06	-3.953332e-09	-3.207042e+01	-2.613300e+02
4.400000e-07	-4.418965e-06	-3.968161e-09	-3.178689e+01	-2.600795e+02
4.500000e-07	-4.379036e-06	-3.978188e-09	-3.149967e+01	-2.587980e+02
4.600000e-07	-4.338418e-06	-3.932338e-09	-3.120750e+01	-2.574848e+02
4.700000e-07	-4.296688e-06	-3.872674e-09	-3.090732e+01	-2.561390e+02
4.800000e-07	-4.253866e-06	-3.850069e-09	-3.059929e+01	-2.547598e+02
4.900000e-07	-4.210278e-06	-3.882892e-09	-3.028575e+01	-2.533465e+02
5.000000e-07	-4.166087e-06	-3.879180e-09	-2.996787e+01	-2.518985e+02
5.100000e-07	-4.121202e-06	-3.803125e-09	-2.964500e+01	-2.504155e+02
5.200000e-07	-4.075483e-06	-3.747214e-09	-2.931613e+01	-2.488974e+02
5.300000e-07	-4.029016e-06	-3.759800e-09	-2.898188e+01	-2.473444e+02
5.400000e-07	-3.981910e-06	-3.775074e-09	-2.864303e+01	-2.457569e+02
5.500000e-07	-3.934178e-06	-3.732021e-09	-2.829968e+01	-2.441351e+02
5.600000e-07	-3.885713e-06	-3.674438e-09	-2.795106e+01	-2.424798e+02
5.700000e-07	-3.836363e-06	-3.645777e-09	-2.759607e+01	-2.407914e+02
5.800000e-07	-3.786021e-06	-3.641502e-09	-2.723394e+01	-2.390704e+02
5.900000e-07	-3.734673e-06	-3.636472e-09	-2.686458e+01	-2.373171e+02
6.000000e-07	-3.682553e-06	-3.596187e-09	-2.648967e+01	-2.355316e+02
6.100000e-07	-3.629782e-06	-3.544421e-09	-2.611007e+01	-2.337137e+02
6.200000e-07	-3.576312e-06	-3.515925e-09	-2.572545e+01	-2.318631e+02
6.300000e-07	-3.522245e-06	-3.508831e-09	-2.533653e+01	-2.299790e+02
6.400000e-07	-3.467623e-06	-3.491709e-09	-2.494362e+01	-2.280605e+02
6.500000e-07	-3.412403e-06	-3.443963e-09	-2.454640e+01	-2.261067e+02
6.600000e-07	-3.356698e-06	-3.398182e-09	-2.414570e+01	-2.241163e+02
6.700000e-07	-3.300539e-06	-3.369597e-09	-2.374173e+01	-2.220881e+02
6.800000e-07	-3.243722e-06	-3.350352e-09	-2.333303e+01	-2.200211e+02
6.900000e-07	-3.186068e-06	-3.324185e-09	-2.291831e+01	-2.179141e+02
7.000000e-07	-3.127656e-06	-3.280782e-09	-2.249813e+01	-2.157666e+02
7.100000e-07	-3.068571e-06	-3.238873e-09	-2.207312e+01	-2.135779e+02
7.200000e-07	-3.008952e-06	-3.207234e-09	-2.164426e+01	-2.113479e+02
7.300000e-07	-2.948955e-06	-3.183854e-09	-2.121269e+01	-2.090769e+02
7.400000e-07	-2.888557e-06	-3.153454e-09	-2.077822e+01	-2.067652e+02
7.500000e-07	-2.827647e-06	-3.106708e-09	-2.034008e+01	-2.044135e+02
7.600000e-07	-2.766244e-06	-3.060964e-09	-1.989840e+01	-2.020230e+02
7.700000e-07	-2.704370e-06	-3.022061e-09	-1.945332e+01	-1.995946e+02
7.800000e-07	-2.642025e-06	-2.992906e-09	-1.900485e+01	-1.971295e+02
7.900000e-07	-2.579248e-06	-2.963427e-09	-1.855328e+01	-1.946288e+02
8.000000e-07	-2.516076e-06	-2.917562e-09	-1.809886e+01	-1.920934e+02
8.100000e-07	-2.452538e-06	-2.866389e-09	-1.764182e+01	-1.895238e+02
8.200000e-07	-2.388626e-06	-2.824913e-09	-1.718208e+01	-1.869205e+02
8.300000e-07	-2.324383e-06	-2.796768e-09	-1.671996e+01	-1.842834e+02
8.400000e-07	-2.259791e-06	-2.761392e-09	-1.625533e+01	-1.816120e+02
8.500000e-07	-2.194694e-06	-2.708134e-09	-1.578707e+01	-1.789054e+02
8.600000e-07	-2.129022e-06	-2.656046e-09	-1.531467e+01	-1.761623e+02
8.700000e-07	-2.062774e-06	-2.618680e-09	-1.483813e+01	-1.733811e+02
8.800000e-07	-1.996036e-06	-2.588566e-09	-1.435807e+01	-1.705600e+02
8.900000e-07	-1.928912e-06	-2.543254e-09	-1.387522e+01	-1.676971e+02
9.000000e-07	-1.861484e-06	-2.484336e-09	-1.339019e+01	-1.647902e+02
9.100000e-07	-1.793822e-06	-2.434590e-09	-1.290348e+01	-1.618374e+02
9.200000e-07	-1.725936e-06	-2.396944e-09	-1.241515e+01	-1.588369e+02
9.300000e-07	-1.657848e-06	-2.359554e-09	-1.192538e+01	-1.557872e+02
9.400000e-07	-1.589520e-06	-2.308168e-09	-1.143388e+01	-1.526870e+02
9.500000e-07	-1.520930e-06	-2.248974e-09	-1.094049e+01	-1.495356e+02
9.600000e-07	-1.452065e-06	-2.198234e-09	-1.044512e+01	-1.463325e+02
9.700000e-07	-1.382923e-06	-2.157152e-09	-9.947763e+00	-1.430779e+02
9.800000e-07	-1.313537e-06	-2.114477e-09	-9.448652e+00	-1.397721e+02
9.900000e-07	-1.243908e-06	-2.056658e-09	-8.947793e+00	-1.364159e+02
1.000000e-06	-1.173983e-06	-1.994855e-09	-8.444799e+00	-1.330103e+02
1.010000e-06	-1.103842e-06	-1.944250e-09	-7.940256e+00	-1.295565e+02
1.020000e-06	-1.033561e-06	-1.898962e-09	-7.434703e+00	-1.260558e+02
1.030000e-06	-9.631407e-07	-1.847120e-09	-6.928150e+00	-1.225096e+02
1.040000e-06	-8.925580e-07	-1.784725e-09	-6.420428e+00	-1.189190e+02
1.050000e-06	-8.218034e-07	-1.724778e-09	-5.911470e+00	-1.152850e+02
1.060000e-06	-7.509041e-07	-1.673336e-09	-5.401471e+00	-1.116085e+02
1.070000e-06	-6.798821e-07	-1.620866e-09	-4.890589e+00	-1.078901e+02
1.080000e-06	-6.086989e-07	-1.562672e-09	-4.378547e+00	-1.041299e+02
1.090000e-06	-5.373863e-07	-1.499442e-09	-3.865576e+00	-1.003280e+02
1.100000e-06	-4.660488e-07	-1.439521e-09	-3.352424e+00	-9.648424e+01
1.110000e-06	-3.947380e-07	-1.384556e-09	-2.839465e+00	-9.259809e+01
1.120000e-06	-3.234162e-07	-1.326900e-09	-2.326426e+00	-8.866901e+01
1.130000e-06	-2.520416e-07	-1.264336e-09	-1.813008e+00	-8.469634e+01
1.140000e-06	-1.806011e-07	-1.198136e-09	-1.299116e+00	-8.067939e+01
1.150000e-06	-1.091047e-07	-1.134819e-09	-7.848217e-01	-7.661751e+01
1.160000e-06	-3.762387e-08	-1.074585e-09	-2.706394e-01	-7.251014e+01
1.170000e-06	3.384011e-08	-1.012030e-09	2.434217e-01	-6.835681e+01
1.180000e-06	1.052903e-07	-9.470347e-10	7.573835e-01	-6.415719e+01
1.190000e-06	1.767461e-07	-8.794955e-10	1.271386e+00	-5.991108e+01
1.200000e-06	2.482202e-07	-8.133068e-10	1.785519e+00	-5.561836e+01
1.210000e-06	3.196593e-07	-7.476864e-10	2.299402e+00	-5.127900e+01
1.220000e-06	3.910156e-07	-6.811868e-10	2.812688e+00	-4.689302e+01
1.230000e-06	4.623294e-07	-6.137193e-10	3.325669e+00	-4.246038e+01
1.240000e-06	5.336360e-07	-5.435035e-10	3.838599e+00	-3.798103e+01
1.250000e-06	6.048956e-07	-4.752958e-10	4.351189e+00	-3.345479e+01
1.260000e-06	6.760303e-07	-4.076278e-10	4.862881e+00	-2.888138e+01
1.270000e-06	7.470000e-07	-3.367193e-10	5.373387e+00	-2.426036e+01
1.280000e-06	8.177341e-07	-2.608633e-10	5.882198e+00	-1.959121e+01
1.290000e-06	8.882577e-07	-1.824630e-10	6.389495e+00	-1.487331e+01
1.300000e-06	9.586706e-07	-1.104178e-10	6.895996e+00	-1.010601e+01
1.310000e-06	1.029001e-06	-4.033937e-11	7.401903e+00	-5.288711e+00
1.320000e-06	1.099176e-06	3.409270e-11	7.906693e+00	-4.209820e-01
1.330000e-06	1.169146e-06	1.120991e-10	8.410005e+00	4.497364e+00
1.340000e-06	1.238906e-06	1.874481e-10	8.911806e+00	9.466142e+00
1.350000e-06	1.308418e-06	2.597109e-10	9.411827e+00	1.448468e+01
1.360000e-06	1.377658e-06	3.365916e-10	9.909893e+00	1.955173e+01
1.370000e-06	1.446586e-06	4.167598e-10	1.040572e+01	2.466535e+01
1.380000e-06	1.515252e-06	4.953578e-10	1.089964e+01	2.982288e+01
1.390000e-06	1.583692e-06	5.748319e-10	1.139195e+01	3.502088e+01
1.400000e-06	1.651888e-06	6.573033e-10	1.188251e+01	4.025513e+01
1.410000e-06	1.719880e-06	7.414725e-10	1.237159e+01	4.552063e+01
1.420000e-06	1.787671e-06	8.216320e-10	1.285924e+01	5.081172e+01
1.430000e-06	1.855226e-06	9.006136e-10	1.334518e+01	5.612210e+01
1.440000e-06	1.922548e-06	9.829338e-10	1.382944e+01	6.144497e+01
1.450000e-06	1.989528e-06	1.064611e-09	1.431125e+01	6.677318e+01
1.460000e-06	2.056049e-06	1.144490e-09	1.478976e+01	7.209932e+01
1.470000e-06	2.122082e-06	1.222745e-09	1.526475e+01	7.741594e+01
1.480000e-06	2.187555e-06	1.304062e-09	1.573572e+01	8.271562e+01
1.490000e-06	2.252441e-06	1.387036e-09	1.620246e+01	8.799118e+01
1.500000e-06	2.316819e-06	1.466569e-09	1.666555e+01	9.323571e+01
1.510000e-06	2.380799e-06	1.543026e-09	1.712578e+01	9.844275e+01
1.520000e-06	2.444465e-06	1.621018e-09	1.758374e+01	1.036063e+02
1.530000e-06	2.507791e-06	1.702043e-09	1.803927e+01	1.087209e+02
1.540000e-06	2.570792e-06	1.779863e-09	1.849245e+01	1.137816e+02
1.550000e-06	2.633378e-06	1.851776e-09	1.894265e+01	1.187841e+02
1.560000e-06	2.695494e-06	1.923711e-09	1.938947e+01	1.237244e+02
1.570000e-06	2.757200e-06	1.999773e-09	1.983334e+01	1.285992e+02
1.580000e-06	2.818482e-06	2.076704e-09	2.027416e+01	1.334053e+02
1.590000e-06	2.879296e-06	2.147698e-09	2.071161e+01	1.381402e+02
1.600000e-06	2.939567e-06	2.213759e-09	2.114516e+01	1.428013e+02
1.610000e-06	2.999420e-06	2.282632e-09	2.157570e+01	1.473866e+02
1.620000e-06	3.058934e-06	2.355105e-09	2.200380e+01	1.518940e+02
1.630000e-06	3.117993e-06	2.424431e-09	2.242863e+01	1.563216e+02
1.640000e-06	3.176450e-06	2.487378e-09	2.284913e+01	1.606678e+02
1.650000e-06	3.233980e-06	2.549316e-09	2.326295e+01	1.649309e+02
1.660000e-06	3.290575e-06	2.613678e-09	2.367006e+01	1.691094e+02
1.670000e-06	3.346580e-06	2.676798e-09	2.407292e+01	1.732021e+02
1.680000e-06	3.402148e-06	2.735166e-09	2.447264e+01	1.772077e+02
1.690000e-06	3.457266e-06	2.792405e-09	2.486912e+01	1.811254e+02
1.700000e-06	3.511737e-06	2.851168e-09	2.526094e+01	1.849544e+02
1.710000e-06	3.565594e-06	2.909135e-09	2.564835e+01	1.886944e+02
1.720000e-06	3.618909e-06	2.964751e-09	2.603186e+01	1.923452e+02
1.730000e-06	3.671601e-06	3.017262e-09	2.641089e+01	1.959069e+02
1.740000e-06	3.723623e-06	3.067527e-09	2.678510e+01	1.993800e+02
1.750000e-06	3.774886e-06	3.116528e-09	2.715385e+01	2.027652e+02
1.760000e-06	3.825180e-06	3.164281e-09	2.751563e+01	2.060632e+02
1.770000e-06	3.874384e-06	3.209862e-09	2.786956e+01	2.092753e+02
1.780000e-06	3.922702e-06	3.254449e-09	2.821713e+01	2.124026e+02
1.790000e-06	3.970354e-06	3.298247e-09	2.855990e+01	2.154463e+02
1.800000e-06	4.017403e-06	3.341348e-09	2.889835e+01	2.184078e+02
1.810000e-06	4.063820e-06	3.383963e-09	2.923223e+01	2.212884e+02
1.820000e-06	4.109576e-06	3.427409e-09	2.956137e+01	2.240891e+02
1.830000e-06	4.154597e-06	3.468871e-09	2.988522e+01	2.268112e+02
1.840000e-06	4.198878e-06	3.505547e-09	3.020375e+01	2.294557e+02
1.850000e-06	4.242627e-06	3.541075e-09	3.051845e+01	2.320235e+02
1.860000e-06	4.285853e-06	3.577221e-09	3.082938e+01	2.345154e+02
1.870000e-06	4.328254e-06	3.610361e-09	3.113439e+01	2.369322e+02
1.880000e-06	4.369543e-06	3.640586e-09	3.143139e+01	2.392747e+02
1.890000e-06	4.409822e-06	3.671871e-09	3.172113e+01	2.415437e+02
1.900000e-06	4.449409e-06	3.705115e-09	3.200589e+01	2.437400e+02
1.910000e-06	4.488314e-06	3.737663e-09	3.228574e+01	2.458646e+02
1.920000e-06	4.526481e-06	3.767041e-09	3.256029e+01	2.479186e+02
1.930000e-06	4.563861e-06	3.794041e-09	3.282918e+01	2.499033e+02
1.940000e-06	4.600458e-06	3.820177e-09	3.309243e+01	2.518201e+02
1.950000e-06	4.636404e-06	3.846252e-09	3.335100e+01	2.536706e+02
1.960000e-06	4.671703e-06	3.870652e-09	3.360491e+01	2.554563e+02
1.970000e-06	4.706079e-06	3.893109e-09	3.385219e+01	2.571792e+02
1.980000e-06	4.739327e-06	3.915906e-09	3.409135e+01	2.588410e+02
1.990000e-06	4.771587e-06	3.940465e-09	3.432341e+01	2.604435e+02
2.000000e-06	4.803105e-06	3.963354e-09	3.455013e+01	2.619883e+02
2.010000e-06	4.833923e-06	3.983708e-09	3.477181e+01	2.634771e+02
2.020000e-06	4.863945e-06	4.004949e-09	3.498777e+01	2.649112e+02
2.030000e-06	4.893089e-06	4.026190e-09	3.519741e+01	2.662916e+02
2.040000e-06	4.921410e-06	4.046449e-09	3.540113e+01	2.676194e+02
2.050000e-06	4.949106e-06	4.064739e-09	3.560035e+01	2.688950e+02
2.060000e-06	4.976041e-06	4.081158e-09	3.579410e+01	2.701189e+02
2.070000e-06	5.001759e-06	4.097565e-09	3.597910e+01	2.712912e+02
2.080000e-06	5.026241e-06	4.114686e-09	3.615521e+01	2.724119e+02
2.090000e-06	5.049859e-06	4.130381e-09	3.632510e+01	2.734811e+02
2.100000e-06	5.072692e-06	4.144521e-09	3.648935e+01	2.744986e+02
2.110000e-06	5.094661e-06	4.159974e-09	3.664737e+01	2.754643e+02
2.120000e-06	5.115760e-06	4.175685e-09	3.679914e+01	2.763786e+02
2.130000e-06	5.136061e-06	4.190004e-09	3.694517e+01	2.772417e+02
2.140000e-06	5.155716e-06	4.202998e-09	3.708656e+01	2.780541e+02
2.150000e-06	5.174624e-06	4.215102e-09	3.722257e+01	2.788169e+02
2.160000e-06	5.192502e-06	4.226429e-09	3.735117e+01	2.795312e+02
2.170000e-06	5.209429e-06	4.237630e-09	3.747293e+01	2.801984e+02
2.180000e-06	5.225592e-06	4.247910e-09	3.758920e+01	2.808201e+02
2.190000e-06	5.240664e-06	4.255598e-09	3.769761e+01	2.813983e+02
2.200000e-06	5.254573e-06	4.263094e-09	3.779767e+01	2.819348e+02
2.210000e-06	5.267552e-06	4.270837e-09	3.789103e+01	2.824315e+02
2.220000e-06	5.279609e-06	4.278132e-09	3.797775e+01	2.828902e+02
2.230000e-06	5.290697e-06	4.287410e-09	3.805751e+01	2.833124e+02
2.240000e-06	5.300594e-06	4.295395e-09	3.812871e+01	2.836994e+02
2.250000e-06	5.309240e-06	4.301218e-09	3.819090e+01	2.840522e+02
2.260000e-06	5.316930e-06	4.306393e-09	3.824622e+01	2.843714e+02
2.270000e-06	5.323831e-06	4.312367e-09	3.829586e+01	2.846570e+02
2.280000e-06	5.329853e-06	4.318683e-09	3.833917e+01	2.849090e+02
2.290000e-06	5.334916e-06	4.320598e-09	3.837559e+01	2.851267e+02
2.300000e-06	5.339140e-06	4.321451e-09	3.840598e+01	2.853096e+02
2.310000e-06	5.342659e-06	4.326601e-09	3.843129e+01	2.854567e+02
2.320000e-06	5.345196e-06	4.332800e-09	3.844954e+01	2.855672e+02
2.330000e-06	5.346465e-06	4.336876e-09	3.845867e+01	2.856404e+02
2.340000e-06	5.346650e-06	4.339499e-09	3.846000e+01	2.856759e+02
2.350000e-06	5.345984e-06	4.342292e-09	3.845521e+01	2.856735e+02
2.360000e-06	5.344528e-06	4.341974e-09	3.844474e+01	2.856338e+02
2.370000e-06	5.342233e-06	4.338228e-09	3.842823e+01	2.855578e+02
2.380000e-06	5.339080e-06	4.335553e-09	3.840555e+01	2.854469e+02
2.390000e-06	5.335173e-06	4.333282e-09	3.837745e+01	2.853033e+02
2.400000e-06	5.330634e-06	4.332873e-09	3.834479e+01	2.851297e+02
2.410000e-06	5.325232e-06	4.335040e-09	3.830594e+01	2.849292e+02
2.420000e-06	5.318555e-06	4.347921e-09	3.825790e+01	2.847051e+02
2.430000e-06	5.310769e-06	4.330856e-09	3.820190e+01	2.844611e+02
2.440000e-06	5.302037e-06	4.268474e-09	3.813909e+01	2.842006e+02
2.450000e-06	5.292023e-06	4.259368e-09	3.806705e+01	2.839270e+02
2.460000e-06	5.280700e-06	4.336646e-09	3.798561e+01	2.836432e+02
2.470000e-06	5.268788e-06	4.437123e-09	3.789992e+01	2.833516e+02
2.480000e-06	5.256722e-06	4.326267e-09	3.781312e+01	2.830536e+02
2.490000e-06	5.243546e-06	4.190650e-09	3.771835e+01	2.827503e+02
2.500000e-06	5.228531e-06	4.345280e-09	3.761034e+01	2.824414e+02
2.510000e-06	5.212562e-06	4.316061e-09	3.749547e+01	2.821260e+02
2.520000e-06	5.196137e-06	4.267967e-09	3.737732e+01	2.818021e+02
2.530000e-06	5.178666e-06	4.403869e-09	3.725164e+01	2.814670e+02
2.540000e-06	5.160189e-06	4.241649e-09	3.711873e+01	2.811174e+02
2.550000e-06	5.141104e-06	4.108479e-09	3.698145e+01	2.807491e+02
2.560000e-06	5.121317e-06	4.332515e-09	3.683912e+01	2.803580e+02
2.570000e-06	5.100748e-06	4.337348e-09	3.669116e+01	2.799395e+02
2.580000e-06	5.078942e-06	4.100316e-09	3.653430e+01	2.794893e+02
2.590000e-06	5.055673e-06	4.206419e-09	3.636692e+01	2.790033e+02
2.600000e-06	5.031621e-06	4.299739e-09	3.619390e+01	2.784777e+02
2.610000e-06	5.006818e-06	4.193542e-09	3.601550e+01	2.779095e+02
2.620000e-06	4.981023e-06	4.213114e-09	3.582994e+01	2.772963e+02
2.630000e-06	4.954599e-06	4.159259e-09	3.563987e+01	2.766365e+02
2.640000e-06	4.927476e-06	4.161955e-09	3.544476e+01	2.759292e+02
2.650000e-06	4.899470e-06	4.211888e-09	3.524331e+01	2.751745e+02
2.660000e-06	4.870750e-06	4.074311e-09	3.503671e+01	2.743729e+02
2.670000e-06	4.841025e-06	4.141385e-09	3.482290e+01	2.735259e+02
2.680000e-06	4.809993e-06	4.228444e-09	3.459967e+01	2.726350e+02
2.690000e-06	4.777949e-06	4.062841e-09	3.436917e+01	2.717024e+02
2.700000e-06	4.745220e-06	4.080546e-09	3.413375e+01	2.707303e+02
2.710000e-06	4.711819e-06	4.166308e-09	3.389348e+01	2.697210e+02
2.720000e-06	4.677539e-06	4.097226e-09	3.364689e+01	2.686764e+02
2.730000e-06	4.642312e-06	4.066404e-09	3.339350e+01	2.675985e+02
2.740000e-06	4.606456e-06	4.038338e-09	3.313557e+01	2.664887e+02
2.750000e-06	4.570113e-06	4.030610e-09	3.287415e+01	2.653481e+02
2.760000e-06	4.532885e-06	4.041508e-09	3.260636e+01	2.641774e+02
2.770000e-06	4.494434e-06	4.008327e-09	3.232976e+01	2.629767e+02
2.780000e-06	4.454936e-06	3.998074e-09	3.204564e+01	2.617460e+02
2.790000e-06	4.414727e-06	3.947475e-09	3.175641e+01	2.604847e+02
2.800000e-06	4.373824e-06	3.922566e-09	3.146219e+01	2.591923e+02
2.810000e-06	4.332206e-06	3.961088e-09	3.116281e+01	2.578677e+02
2.820000e-06	4.289942e-06	3.933373e-09	3.085880e+01	2.565103e+02
2.830000e-06	4.246943e-06	3.875100e-09	3.054949e+01	2.551192e+02
2.840000e-06	4.203287e-06	3.819385e-09	3.023546e+01	2.536938e+02
2.850000e-06	4.159133e-06	3.839503e-09	2.991785e+01	2.522336e+02
2.860000e-06	4.114369e-06	3.865059e-09	2.959585e+01	2.507383e+02
2.870000e-06	4.068773e-06	3.782463e-09	2.926786e+01	2.492080e+02
2.880000e-06	4.022325e-06	3.740711e-09	2.893375e+01	2.476429e+02
2.890000e-06	3.975192e-06	3.739196e-09	2.859471e+01	2.460433e+02
2.900000e-06	3.927390e-06	3.731482e-09	2.825086e+01	2.444097e+02
2.910000e-06	3.878799e-06	3.715950e-09	2.790132e+01	2.427427e+02
2.920000e-06	3.829369e-06	3.666694e-09	2.754576e+01	2.410429e+02
2.930000e-06	3.779212e-06	3.640107e-09	2.718497e+01	2.393106e+02
2.940000e-06	3.728433e-06	3.615282e-09	2.681970e+01	2.375460e+02
