# Temperatura_=_20.0
# Concentracion g/m^3_=_12600.0
# C_Vs_to_Am_M_A/Vsm_=_65563218390.804596
# pendiente_HvsI_1/m_=_3716.3
# ordenada_HvsI_A/m_=_1297.0
# frecuencia_Hz_=_213094.59040665004

Tiempo_(s)	Campo_(V.s)	Magnetizacion_(V.s)	Campo_(kA/m)	Magnetizacion_(A/m)
0.000000e+00	-5.322216e-06	-4.246461e-09	-3.835209e+01	-2.774195e+02
1.000000e-08	-5.321697e-06	-4.245126e-09	-3.834836e+01	-2.773759e+02
2.000000e-08	-5.320040e-06	-4.244425e-09	-3.833641e+01	-2.772947e+02
3.000000e-08	-5.317207e-06	-4.242194e-09	-3.831600e+01	-2.771786e+02
4.000000e-08	-5.313540e-06	-4.237835e-09	-3.828957e+01	-2.770303e+02
5.000000e-08	-5.309116e-06	-4.233528e-09	-3.825769e+01	-2.768532e+02
6.000000e-08	-5.303850e-06	-4.231333e-09	-3.821975e+01	-2.766507e+02
7.000000e-08	-5.297680e-06	-4.230868e-09	-3.817528e+01	-2.764261e+02
8.000000e-08	-5.290582e-06	-4.231438e-09	-3.812414e+01	-2.761826e+02
9.000000e-08	-5.282615e-06	-4.228251e-09	-3.806673e+01	-2.759227e+02
1.000000e-07	-5.273423e-06	-4.225249e-09	-3.800049e+01	-2.756487e+02
1.100000e-07	-5.262768e-06	-4.213214e-09	-3.792370e+01	-2.753617e+02
1.200000e-07	-5.251102e-06	-4.203070e-09	-3.783964e+01	-2.750621e+02
1.300000e-07	-5.238643e-06	-4.190631e-09	-3.774986e+01	-2.747496e+02
1.400000e-07	-5.225272e-06	-4.183245e-09	-3.765351e+01	-2.744226e+02
1.500000e-07	-5.210965e-06	-4.191960e-09	-3.755042e+01	-2.740789e+02
1.600000e-07	-5.195738e-06	-4.191420e-09	-3.744069e+01	-2.737155e+02
1.700000e-07	-5.179296e-06	-4.166563e-09	-3.732220e+01	-2.733288e+02
1.800000e-07	-5.161632e-06	-4.168309e-09	-3.719492e+01	-2.729148e+02
1.900000e-07	-5.143269e-06	-4.178661e-09	-3.706260e+01	-2.724694e+02
2.000000e-07	-5.124356e-06	-4.134986e-09	-3.692630e+01	-2.719885e+02
2.100000e-07	-5.104559e-06	-4.142796e-09	-3.678365e+01	-2.714684e+02
2.200000e-07	-5.083803e-06	-4.170829e-09	-3.663408e+01	-2.709060e+02
2.300000e-07	-5.062275e-06	-4.130321e-09	-3.647895e+01	-2.702988e+02
2.400000e-07	-5.039947e-06	-4.102300e-09	-3.631805e+01	-2.696452e+02
2.500000e-07	-5.016792e-06	-4.101659e-09	-3.615119e+01	-2.689446e+02
2.600000e-07	-4.992783e-06	-4.070354e-09	-3.597818e+01	-2.681974e+02
2.700000e-07	-4.967852e-06	-4.066817e-09	-3.579853e+01	-2.674048e+02
2.800000e-07	-4.941849e-06	-4.114729e-09	-3.561115e+01	-2.665691e+02
2.900000e-07	-4.914798e-06	-4.085298e-09	-3.541622e+01	-2.656932e+02
3.000000e-07	-4.886858e-06	-3.991422e-09	-3.521488e+01	-2.647804e+02
3.100000e-07	-4.858044e-06	-3.997011e-09	-3.500725e+01	-2.638345e+02
3.200000e-07	-4.828444e-06	-4.074364e-09	-3.479395e+01	-2.628594e+02
3.300000e-07	-4.798062e-06	-4.059508e-09	-3.457502e+01	-2.618587e+02
3.400000e-07	-4.766930e-06	-3.949514e-09	-3.435068e+01	-2.608358e+02
3.500000e-07	-4.735188e-06	-3.907712e-09	-3.412195e+01	-2.597935e+02
3.600000e-07	-4.702682e-06	-3.977256e-09	-3.388771e+01	-2.587339e+02
3.700000e-07	-4.669147e-06	-4.023497e-09	-3.364605e+01	-2.576583e+02
3.800000e-07	-4.634480e-06	-3.954113e-09	-3.339624e+01	-2.565673e+02
3.900000e-07	-4.598867e-06	-3.837840e-09	-3.313961e+01	-2.554604e+02
4.000000e-07	-4.562555e-06	-3.851624e-09	-3.287794e+01	-2.543368e+02
4.100000e-07	-4.525483e-06	-3.954826e-09	-3.261080e+01	-2.531947e+02
4.200000e-07	-4.487614e-06	-3.929316e-09	-3.233792e+01	-2.520319e+02
4.300000e-07	-4.448976e-06	-3.801975e-09	-3.205949e+01	-2.508462e+02
4.400000e-07	-4.409663e-06	-3.748003e-09	-3.177620e+01	-2.496348e+02
4.500000e-07	-4.369807e-06	-3.808718e-09	-3.148900e+01	-2.483954e+02
4.600000e-07	-4.329254e-06	-3.859343e-09	-3.119677e+01	-2.471257e+02
4.700000e-07	-4.287665e-06	-3.789611e-09	-3.089708e+01	-2.458239e+02
4.800000e-07	-4.244944e-06	-3.682737e-09	-3.058923e+01	-2.444886e+02
4.900000e-07	-4.201384e-06	-3.668742e-09	-3.027533e+01	-2.431190e+02
5.000000e-07	-4.157185e-06	-3.732571e-09	-2.995684e+01	-2.417149e+02
5.100000e-07	-4.112306e-06	-3.740233e-09	-2.963344e+01	-2.402766e+02
5.200000e-07	-4.066706e-06	-3.647565e-09	-2.930484e+01	-2.388048e+02
5.300000e-07	-4.020359e-06	-3.569055e-09	-2.897086e+01	-2.373007e+02
5.400000e-07	-3.973331e-06	-3.578784e-09	-2.863198e+01	-2.357653e+02
5.500000e-07	-3.925693e-06	-3.623593e-09	-2.828869e+01	-2.342002e+02
5.600000e-07	-3.877364e-06	-3.603975e-09	-2.794043e+01	-2.326066e+02
5.700000e-07	-3.828097e-06	-3.517837e-09	-2.758541e+01	-2.309853e+02
5.800000e-07	-3.777765e-06	-3.465620e-09	-2.722272e+01	-2.293371e+02
5.900000e-07	-3.726477e-06	-3.480268e-09	-2.685314e+01	-2.276621e+02
6.000000e-07	-3.674426e-06	-3.504614e-09	-2.647805e+01	-2.259599e+02
6.100000e-07	-3.621685e-06	-3.468531e-09	-2.609800e+01	-2.242297e+02
6.200000e-07	-3.568266e-06	-3.382461e-09	-2.571306e+01	-2.224702e+02
6.300000e-07	-3.514273e-06	-3.331242e-09	-2.532399e+01	-2.206796e+02
6.400000e-07	-3.459762e-06	-3.345587e-09	-2.493118e+01	-2.188557e+02
6.500000e-07	-3.404689e-06	-3.363130e-09	-2.453432e+01	-2.169965e+02
6.600000e-07	-3.349101e-06	-3.312198e-09	-2.413375e+01	-2.150997e+02
6.700000e-07	-3.293058e-06	-3.226231e-09	-2.372990e+01	-2.131631e+02
6.800000e-07	-3.236389e-06	-3.195046e-09	-2.332154e+01	-2.111848e+02
6.900000e-07	-3.178955e-06	-3.217432e-09	-2.290767e+01	-2.091633e+02
7.000000e-07	-3.120673e-06	-3.213377e-09	-2.248769e+01	-2.070977e+02
7.100000e-07	-3.061587e-06	-3.140684e-09	-2.206191e+01	-2.049875e+02
7.200000e-07	-3.001989e-06	-3.063254e-09	-2.163245e+01	-2.028327e+02
7.300000e-07	-2.942049e-06	-3.048777e-09	-2.120052e+01	-2.006339e+02
7.400000e-07	-2.881752e-06	-3.059417e-09	-2.076601e+01	-1.983923e+02
7.500000e-07	-2.821005e-06	-3.026928e-09	-2.032827e+01	-1.961091e+02
7.600000e-07	-2.759740e-06	-2.949812e-09	-1.988679e+01	-1.937861e+02
7.700000e-07	-2.697951e-06	-2.893149e-09	-1.944154e+01	-1.914251e+02
7.800000e-07	-2.635707e-06	-2.884014e-09	-1.899300e+01	-1.890278e+02
7.900000e-07	-2.573070e-06	-2.875583e-09	-1.854164e+01	-1.865957e+02
8.000000e-07	-2.510031e-06	-2.829800e-09	-1.808738e+01	-1.841301e+02
8.100000e-07	-2.446574e-06	-2.760842e-09	-1.763011e+01	-1.816318e+02
8.200000e-07	-2.382742e-06	-2.712437e-09	-1.717013e+01	-1.791012e+02
8.300000e-07	-2.318604e-06	-2.694176e-09	-1.670795e+01	-1.765380e+02
8.400000e-07	-2.254137e-06	-2.671990e-09	-1.624339e+01	-1.739417e+02
8.500000e-07	-2.189140e-06	-2.622664e-09	-1.577503e+01	-1.713111e+02
8.600000e-07	-2.123495e-06	-2.557846e-09	-1.530199e+01	-1.686448e+02
8.700000e-07	-2.057274e-06	-2.511546e-09	-1.482479e+01	-1.659408e+02
8.800000e-07	-1.990541e-06	-2.490840e-09	-1.434391e+01	-1.631975e+02
8.900000e-07	-1.923419e-06	-2.464638e-09	-1.386023e+01	-1.604126e+02
9.000000e-07	-1.856020e-06	-2.411238e-09	-1.337455e+01	-1.575846e+02
9.100000e-07	-1.788364e-06	-2.345410e-09	-1.288702e+01	-1.547117e+02
9.200000e-07	-1.720539e-06	-2.300622e-09	-1.239827e+01	-1.517928e+02
9.300000e-07	-1.652601e-06	-2.277658e-09	-1.190870e+01	-1.488269e+02
9.400000e-07	-1.584396e-06	-2.241187e-09	-1.141722e+01	-1.458137e+02
9.500000e-07	-1.515939e-06	-2.176524e-09	-1.092391e+01	-1.427531e+02
9.600000e-07	-1.447185e-06	-2.108932e-09	-1.042847e+01	-1.396456e+02
9.700000e-07	-1.378083e-06	-2.069438e-09	-9.930517e+00	-1.364921e+02
9.800000e-07	-1.308730e-06	-2.044998e-09	-9.430756e+00	-1.332934e+02
9.900000e-07	-1.239172e-06	-1.997239e-09	-8.929524e+00	-1.300508e+02
1.000000e-06	-1.169459e-06	-1.925509e-09	-8.427165e+00	-1.267655e+02
1.010000e-06	-1.099528e-06	-1.864197e-09	-7.923239e+00	-1.234386e+02
1.020000e-06	-1.029421e-06	-1.828819e-09	-7.418050e+00	-1.200711e+02
1.030000e-06	-9.591165e-07	-1.791191e-09	-6.911430e+00	-1.166635e+02
1.040000e-06	-8.885573e-07	-1.729708e-09	-6.402978e+00	-1.132162e+02
1.050000e-06	-8.178222e-07	-1.661362e-09	-5.893258e+00	-1.097292e+02
1.060000e-06	-7.469849e-07	-1.609297e-09	-5.382802e+00	-1.062020e+02
1.070000e-06	-6.760761e-07	-1.569855e-09	-4.871830e+00	-1.026338e+02
1.080000e-06	-6.050410e-07	-1.519698e-09	-4.359949e+00	-9.902356e+01
1.090000e-06	-5.338746e-07	-1.452249e-09	-3.847121e+00	-9.537015e+01
1.100000e-06	-4.626112e-07	-1.386206e-09	-3.333594e+00	-9.167225e+01
1.110000e-06	-3.912744e-07	-1.333275e-09	-2.819538e+00	-8.792858e+01
1.120000e-06	-3.199429e-07	-1.281558e-09	-2.305521e+00	-8.413804e+01
1.130000e-06	-2.486091e-07	-1.220084e-09	-1.791487e+00	-8.029973e+01
1.140000e-06	-1.772004e-07	-1.153981e-09	-1.276913e+00	-7.641308e+01
1.150000e-06	-1.057409e-07	-1.092424e-09	-7.619729e-01	-7.247788e+01
1.160000e-06	-3.427711e-08	-1.036121e-09	-2.470022e-01	-6.849430e+01
1.170000e-06	3.717681e-08	-9.786911e-10	2.678975e-01	-6.446285e+01
1.180000e-06	1.086473e-07	-9.153313e-10	7.829166e-01	-6.038440e+01
1.190000e-06	1.801415e-07	-8.498520e-10	1.298106e+00	-5.626003e+01
1.200000e-06	2.515934e-07	-7.860896e-10	1.812992e+00	-5.209096e+01
1.210000e-06	3.229797e-07	-7.225503e-10	2.327404e+00	-4.787845e+01
1.220000e-06	3.943523e-07	-6.566677e-10	2.841718e+00	-4.362366e+01
1.230000e-06	4.656658e-07	-5.873159e-10	3.355606e+00	-3.932754e+01
1.240000e-06	5.368767e-07	-5.181607e-10	3.868754e+00	-3.499074e+01
1.250000e-06	6.079871e-07	-4.509249e-10	4.381179e+00	-3.061352e+01
1.260000e-06	6.790002e-07	-3.846848e-10	4.892901e+00	-2.619569e+01
1.270000e-06	7.499139e-07	-3.173419e-10	5.403908e+00	-2.173666e+01
1.280000e-06	8.206823e-07	-2.455527e-10	5.913868e+00	-1.723540e+01
1.290000e-06	8.912903e-07	-1.725441e-10	6.422672e+00	-1.269057e+01
1.300000e-06	9.616421e-07	-1.017647e-10	6.929629e+00	-8.100595e+00
1.310000e-06	1.031794e-06	-3.117410e-11	7.435145e+00	-3.463823e+00
1.320000e-06	1.101826e-06	4.094643e-11	7.939799e+00	1.221315e+00
1.330000e-06	1.171620e-06	1.141810e-10	8.442739e+00	5.956132e+00
1.340000e-06	1.241206e-06	1.875323e-10	8.944178e+00	1.074150e+01
1.350000e-06	1.310615e-06	2.613180e-10	9.444342e+00	1.557769e+01
1.360000e-06	1.379742e-06	3.361074e-10	9.942475e+00	2.046420e+01
1.370000e-06	1.448542e-06	4.110513e-10	1.043825e+01	2.539968e+01
1.380000e-06	1.517029e-06	4.872045e-10	1.093177e+01	3.038179e+01
1.390000e-06	1.585260e-06	5.666672e-10	1.142344e+01	3.540723e+01
1.400000e-06	1.653286e-06	6.472794e-10	1.191364e+01	4.047168e+01
1.410000e-06	1.721116e-06	7.256863e-10	1.240242e+01	4.556991e+01
1.420000e-06	1.788780e-06	8.014638e-10	1.289002e+01	5.069586e+01
1.430000e-06	1.856258e-06	8.808385e-10	1.337626e+01	5.584275e+01
1.440000e-06	1.923475e-06	9.636837e-10	1.386064e+01	6.100327e+01
1.450000e-06	1.990348e-06	1.042191e-09	1.434252e+01	6.616976e+01
1.460000e-06	2.056750e-06	1.116250e-09	1.482102e+01	7.133438e+01
1.470000e-06	2.122604e-06	1.192527e-09	1.529556e+01	7.648929e+01
1.480000e-06	2.187843e-06	1.274410e-09	1.576568e+01	8.162688e+01
1.490000e-06	2.252510e-06	1.355172e-09	1.623167e+01	8.673983e+01
1.500000e-06	2.316711e-06	1.429730e-09	1.669431e+01	9.182133e+01
1.510000e-06	2.380554e-06	1.502068e-09	1.715436e+01	9.686511e+01
1.520000e-06	2.444153e-06	1.579007e-09	1.761266e+01	1.018655e+02
1.530000e-06	2.507471e-06	1.659901e-09	1.806893e+01	1.068174e+02
1.540000e-06	2.570375e-06	1.736809e-09	1.852222e+01	1.117165e+02
1.550000e-06	2.632824e-06	1.807463e-09	1.897223e+01	1.165589e+02
1.560000e-06	2.694808e-06	1.877431e-09	1.941889e+01	1.213412e+02
1.570000e-06	2.756356e-06	1.951631e-09	1.986241e+01	1.260606e+02
1.580000e-06	2.817500e-06	2.025539e-09	2.030301e+01	1.307143e+02
1.590000e-06	2.878072e-06	2.094698e-09	2.073949e+01	1.353002e+02
1.600000e-06	2.938111e-06	2.160345e-09	2.117214e+01	1.398160e+02
1.610000e-06	2.997845e-06	2.225032e-09	2.160259e+01	1.442598e+02
1.620000e-06	3.057307e-06	2.291645e-09	2.203107e+01	1.486295e+02
1.630000e-06	3.116265e-06	2.358872e-09	2.245593e+01	1.529232e+02
1.640000e-06	3.174414e-06	2.423847e-09	2.287494e+01	1.571392e+02
1.650000e-06	3.231619e-06	2.486348e-09	2.328717e+01	1.612754e+02
1.660000e-06	3.288048e-06	2.547654e-09	2.369380e+01	1.653303e+02
1.670000e-06	3.343951e-06	2.608393e-09	2.409664e+01	1.693022e+02
1.680000e-06	3.399413e-06	2.667611e-09	2.449630e+01	1.731897e+02
1.690000e-06	3.454384e-06	2.723922e-09	2.489243e+01	1.769915e+02
1.700000e-06	3.508766e-06	2.777174e-09	2.528430e+01	1.807067e+02
1.710000e-06	3.562563e-06	2.830607e-09	2.567196e+01	1.843346e+02
1.720000e-06	3.615793e-06	2.886382e-09	2.605554e+01	1.878750e+02
1.730000e-06	3.668368e-06	2.940977e-09	2.643440e+01	1.913277e+02
1.740000e-06	3.720214e-06	2.991662e-09	2.680800e+01	1.946930e+02
1.750000e-06	3.771299e-06	3.037832e-09	2.717613e+01	1.979717e+02
1.760000e-06	3.821444e-06	3.083369e-09	2.753747e+01	2.011644e+02
1.770000e-06	3.870548e-06	3.129406e-09	2.789132e+01	2.042722e+02
1.780000e-06	3.918769e-06	3.173000e-09	2.823880e+01	2.072963e+02
1.790000e-06	3.966369e-06	3.211660e-09	2.858181e+01	2.102379e+02
1.800000e-06	4.013387e-06	3.250281e-09	2.892062e+01	2.130984e+02
1.810000e-06	4.059683e-06	3.294473e-09	2.925423e+01	2.158789e+02
1.820000e-06	4.105250e-06	3.338528e-09	2.958259e+01	2.185808e+02
1.830000e-06	4.150080e-06	3.377963e-09	2.990564e+01	2.212051e+02
1.840000e-06	4.194273e-06	3.413039e-09	3.022409e+01	2.237531e+02
1.850000e-06	4.237981e-06	3.448146e-09	3.053906e+01	2.262258e+02
1.860000e-06	4.281131e-06	3.484496e-09	3.084999e+01	2.286240e+02
1.870000e-06	4.323435e-06	3.516535e-09	3.115484e+01	2.309489e+02
1.880000e-06	4.364536e-06	3.544060e-09	3.145101e+01	2.332015e+02
1.890000e-06	4.404603e-06	3.571193e-09	3.173974e+01	2.353827e+02
1.900000e-06	4.444048e-06	3.601644e-09	3.202398e+01	2.374937e+02
1.910000e-06	4.482876e-06	3.634497e-09	3.230377e+01	2.395357e+02
1.920000e-06	4.520917e-06	3.664853e-09	3.257790e+01	2.415102e+02
1.930000e-06	4.558174e-06	3.692480e-09	3.284637e+01	2.434186e+02
1.940000e-06	4.594660e-06	3.718713e-09	3.310930e+01	2.452625e+02
1.950000e-06	4.630479e-06	3.744578e-09	3.336741e+01	2.470435e+02
1.960000e-06	4.665702e-06	3.769819e-09	3.362123e+01	2.487634e+02
1.970000e-06	4.700005e-06	3.793182e-09	3.386842e+01	2.504239e+02
1.980000e-06	4.733162e-06	3.814421e-09	3.410735e+01	2.520266e+02
1.990000e-06	4.765299e-06	3.835483e-09	3.433892e+01	2.535731e+02
2.000000e-06	4.796688e-06	3.857102e-09	3.456512e+01	2.550647e+02
2.010000e-06	4.827385e-06	3.878688e-09	3.478632e+01	2.565026e+02
2.020000e-06	4.857270e-06	3.899187e-09	3.500167e+01	2.578879e+02
2.030000e-06	4.886308e-06	3.917870e-09	3.521093e+01	2.592212e+02
2.040000e-06	4.914583e-06	3.935300e-09	3.541467e+01	2.605031e+02
2.050000e-06	4.942226e-06	3.953098e-09	3.561387e+01	2.617340e+02
2.060000e-06	4.969082e-06	3.971478e-09	3.580739e+01	2.629142e+02
2.070000e-06	4.994798e-06	3.987048e-09	3.599270e+01	2.640437e+02
2.080000e-06	5.019331e-06	4.000218e-09	3.616949e+01	2.651228e+02
2.090000e-06	5.042959e-06	4.014709e-09	3.633976e+01	2.661517e+02
2.100000e-06	5.065802e-06	4.032195e-09	3.650437e+01	2.671307e+02
2.110000e-06	5.087758e-06	4.048247e-09	3.666258e+01	2.680604e+02
2.120000e-06	5.108801e-06	4.061747e-09	3.681421e+01	2.689416e+02
2.130000e-06	5.129049e-06	4.074634e-09	3.696012e+01	2.697752e+02
2.140000e-06	5.148622e-06	4.087435e-09	3.710116e+01	2.705625e+02
2.150000e-06	5.167429e-06	4.100393e-09	3.723669e+01	2.713050e+02
2.160000e-06	5.185231e-06	4.111436e-09	3.736498e+01	2.720043e+02
2.170000e-06	5.202044e-06	4.121041e-09	3.748613e+01	2.726622e+02
2.180000e-06	5.217956e-06	4.131297e-09	3.760079e+01	2.732805e+02
2.190000e-06	5.232821e-06	4.140882e-09	3.770791e+01	2.738607e+02
2.200000e-06	5.246638e-06	4.148421e-09	3.780747e+01	2.744045e+02
2.210000e-06	5.259535e-06	4.155165e-09	3.790041e+01	2.749130e+02
2.220000e-06	5.271559e-06	4.162329e-09	3.798705e+01	2.753872e+02
2.230000e-06	5.282561e-06	4.170962e-09	3.806634e+01	2.758275e+02
2.240000e-06	5.292342e-06	4.178172e-09	3.813682e+01	2.762340e+02
2.250000e-06	5.300906e-06	4.184966e-09	3.819853e+01	2.766065e+02
2.260000e-06	5.308523e-06	4.192565e-09	3.825342e+01	2.769441e+02
2.270000e-06	5.315303e-06	4.198844e-09	3.830228e+01	2.772459e+02
2.280000e-06	5.321118e-06	4.202727e-09	3.834418e+01	2.775107e+02
2.290000e-06	5.326015e-06	4.204270e-09	3.837947e+01	2.777372e+02
2.300000e-06	5.330110e-06	4.206853e-09	3.840897e+01	2.779241e+02
2.310000e-06	5.333455e-06	4.210421e-09	3.843308e+01	2.780704e+02
2.320000e-06	5.335824e-06	4.212529e-09	3.845015e+01	2.781754e+02
2.330000e-06	5.337004e-06	4.214861e-09	3.845866e+01	2.782388e+02
2.340000e-06	5.337191e-06	4.218870e-09	3.846000e+01	2.782609e+02
2.350000e-06	5.336547e-06	4.223117e-09	3.845536e+01	2.782427e+02
2.360000e-06	5.335092e-06	4.222907e-09	3.844487e+01	2.781856e+02
2.370000e-06	5.332816e-06	4.220967e-09	3.842847e+01	2.780918e+02
2.380000e-06	5.329659e-06	4.219402e-09	3.840573e+01	2.779640e+02
2.390000e-06	5.325784e-06	4.216392e-09	3.837780e+01	2.778052e+02
2.400000e-06	5.321276e-06	4.213217e-09	3.834532e+01	2.776188e+02
2.410000e-06	5.315810e-06	4.208384e-09	3.830593e+01	2.774081e+02
2.420000e-06	5.309168e-06	4.201225e-09	3.825807e+01	2.771765e+02
2.430000e-06	5.301515e-06	4.197051e-09	3.820292e+01	2.769270e+02
2.440000e-06	5.292850e-06	4.188840e-09	3.814048e+01	2.766619e+02
2.450000e-06	5.282909e-06	4.189085e-09	3.806884e+01	2.763831e+02
2.460000e-06	5.271720e-06	4.191779e-09	3.798822e+01	2.760917e+02
2.470000e-06	5.259954e-06	4.207094e-09	3.790343e+01	2.757876e+02
2.480000e-06	5.247920e-06	4.207433e-09	3.781671e+01	2.754702e+02
2.490000e-06	5.234657e-06	4.176673e-09	3.772113e+01	2.751376e+02
2.500000e-06	5.219637e-06	4.162989e-09	3.761290e+01	2.747873e+02
2.510000e-06	5.203707e-06	4.173499e-09	3.749811e+01	2.744162e+02
2.520000e-06	5.187223e-06	4.147134e-09	3.737933e+01	2.740203e+02
2.530000e-06	5.169772e-06	4.136043e-09	3.725357e+01	2.735957e+02
2.540000e-06	5.151440e-06	4.165856e-09	3.712148e+01	2.731383e+02
2.550000e-06	5.132388e-06	4.132419e-09	3.698419e+01	2.726440e+02
2.560000e-06	5.112565e-06	4.105390e-09	3.684134e+01	2.721094e+02
2.570000e-06	5.091944e-06	4.131547e-09	3.669275e+01	2.715315e+02
2.580000e-06	5.070025e-06	4.136054e-09	3.653480e+01	2.709082e+02
2.590000e-06	5.046734e-06	4.121611e-09	3.636696e+01	2.702381e+02
2.600000e-06	5.022662e-06	4.145999e-09	3.619349e+01	2.695210e+02
2.610000e-06	4.997779e-06	4.105897e-09	3.601419e+01	2.687577e+02
2.620000e-06	4.971963e-06	3.997338e-09	3.582816e+01	2.679497e+02
2.630000e-06	4.945511e-06	4.024493e-09	3.563754e+01	2.670995e+02
2.640000e-06	4.918401e-06	4.132984e-09	3.544218e+01	2.662101e+02
2.650000e-06	4.890488e-06	4.108308e-09	3.524104e+01	2.652853e+02
2.660000e-06	4.861783e-06	3.953643e-09	3.503420e+01	2.643287e+02
2.670000e-06	4.831943e-06	3.908758e-09	3.481917e+01	2.633442e+02
2.680000e-06	4.800837e-06	4.052053e-09	3.459502e+01	2.623353e+02
2.690000e-06	4.768904e-06	4.082607e-09	3.436491e+01	2.613053e+02
2.700000e-06	4.736309e-06	3.934368e-09	3.413003e+01	2.602567e+02
2.710000e-06	4.702916e-06	3.841786e-09	3.388939e+01	2.591913e+02
2.720000e-06	4.668628e-06	3.899763e-09	3.364231e+01	2.581102e+02
2.730000e-06	4.633458e-06	4.014234e-09	3.338887e+01	2.570136e+02
2.740000e-06	4.597696e-06	3.963609e-09	3.313117e+01	2.559010e+02
2.750000e-06	4.561345e-06	3.800986e-09	3.286923e+01	2.547711e+02
2.760000e-06	4.524071e-06	3.792587e-09	3.260063e+01	2.536220e+02
2.770000e-06	4.485604e-06	3.888446e-09	3.232343e+01	2.524514e+02
2.780000e-06	4.446071e-06	3.918637e-09	3.203855e+01	2.512569e+02
2.790000e-06	4.405869e-06	3.828468e-09	3.174886e+01	2.500359e+02
2.800000e-06	4.365013e-06	3.722511e-09	3.145445e+01	2.487861e+02
2.810000e-06	4.323467e-06	3.740693e-09	3.115507e+01	2.475053e+02
2.820000e-06	4.281246e-06	3.802245e-09	3.085082e+01	2.461918e+02
2.830000e-06	4.238228e-06	3.787597e-09	3.054083e+01	2.448445e+02
2.840000e-06	4.194568e-06	3.696853e-09	3.022621e+01	2.434628e+02
2.850000e-06	4.150456e-06	3.631386e-09	2.990834e+01	2.420467e+02
2.860000e-06	4.105772e-06	3.657811e-09	2.958635e+01	2.405965e+02
2.870000e-06	4.060188e-06	3.693531e-09	2.925787e+01	2.391132e+02
2.880000e-06	4.013665e-06	3.662085e-09	2.892262e+01	2.375979e+02
2.890000e-06	3.966514e-06	3.580082e-09	2.858285e+01	2.360519e+02
2.900000e-06	3.918764e-06	3.533729e-09	2.823876e+01	2.344767e+02
2.910000e-06	3.870244e-06	3.561163e-09	2.788912e+01	2.328732e+02
2.920000e-06	3.820877e-06	3.578949e-09	2.753339e+01	2.312424e+02
2.930000e-06	3.770793e-06	3.532419e-09	2.717248e+01	2.295848e+02
2.940000e-06	3.720093e-06	3.448750e-09	2.680713e+01	2.279002e+02
