# Temperatura_=_20.0
# Concentracion g/m^3_=_12600.0
# C_Vs_to_Am_M_A/Vsm_=_65563218390.804596
# pendiente_HvsI_1/m_=_3716.3
# ordenada_HvsI_A/m_=_1297.0
# frecuencia_Hz_=_213090.37729057678

Tiempo_(s)	Campo_(V.s)	Magnetizacion_(V.s)	Campo_(kA/m)	Magnetizacion_(A/m)
0.000000e+00	-5.335768e-06	-3.929096e-09	-3.834769e+01	-2.547952e+02
1.000000e-08	-5.335066e-06	-3.928460e-09	-3.834264e+01	-2.547623e+02
2.000000e-08	-5.333246e-06	-3.927657e-09	-3.832956e+01	-2.546996e+02
3.000000e-08	-5.330190e-06	-3.927898e-09	-3.830760e+01	-2.546098e+02
4.000000e-08	-5.326256e-06	-3.928193e-09	-3.827932e+01	-2.544956e+02
5.000000e-08	-5.321672e-06	-3.926858e-09	-3.824638e+01	-2.543601e+02
6.000000e-08	-5.316258e-06	-3.924739e-09	-3.820747e+01	-2.542059e+02
7.000000e-08	-5.309906e-06	-3.928295e-09	-3.816182e+01	-2.540355e+02
8.000000e-08	-5.302618e-06	-3.924975e-09	-3.810944e+01	-2.538510e+02
9.000000e-08	-5.294422e-06	-3.908689e-09	-3.805054e+01	-2.536539e+02
1.000000e-07	-5.284948e-06	-3.904764e-09	-3.798245e+01	-2.534452e+02
1.100000e-07	-5.274002e-06	-3.910954e-09	-3.790378e+01	-2.532253e+02
1.200000e-07	-5.262123e-06	-3.941485e-09	-3.781841e+01	-2.529939e+02
1.300000e-07	-5.249502e-06	-3.888517e-09	-3.772771e+01	-2.527504e+02
1.400000e-07	-5.235919e-06	-3.827943e-09	-3.763008e+01	-2.524934e+02
1.500000e-07	-5.221480e-06	-3.930903e-09	-3.752631e+01	-2.522213e+02
1.600000e-07	-5.206155e-06	-3.875428e-09	-3.741617e+01	-2.519323e+02
1.700000e-07	-5.189472e-06	-3.839224e-09	-3.729627e+01	-2.516243e+02
1.800000e-07	-5.171554e-06	-3.924694e-09	-3.716750e+01	-2.512952e+02
1.900000e-07	-5.153007e-06	-3.858916e-09	-3.703420e+01	-2.509433e+02
2.000000e-07	-5.133827e-06	-3.814363e-09	-3.689636e+01	-2.505668e+02
2.100000e-07	-5.113755e-06	-3.893732e-09	-3.675210e+01	-2.501644e+02
2.200000e-07	-5.092765e-06	-3.865964e-09	-3.660125e+01	-2.497351e+02
2.300000e-07	-5.070997e-06	-3.728614e-09	-3.644480e+01	-2.492784e+02
2.400000e-07	-5.048455e-06	-3.800106e-09	-3.628280e+01	-2.487941e+02
2.500000e-07	-5.025015e-06	-3.848049e-09	-3.611434e+01	-2.482823e+02
2.600000e-07	-5.000750e-06	-3.769933e-09	-3.593995e+01	-2.477434e+02
2.700000e-07	-4.975562e-06	-3.750392e-09	-3.575892e+01	-2.471779e+02
2.800000e-07	-4.949335e-06	-3.725041e-09	-3.557043e+01	-2.465864e+02
2.900000e-07	-4.922036e-06	-3.748755e-09	-3.537423e+01	-2.459694e+02
3.000000e-07	-4.893838e-06	-3.776956e-09	-3.517158e+01	-2.453272e+02
3.100000e-07	-4.864875e-06	-3.709373e-09	-3.496342e+01	-2.446598e+02
3.200000e-07	-4.835017e-06	-3.676833e-09	-3.474883e+01	-2.439670e+02
3.300000e-07	-4.804327e-06	-3.687371e-09	-3.452827e+01	-2.432480e+02
3.400000e-07	-4.772970e-06	-3.705990e-09	-3.430291e+01	-2.425018e+02
3.500000e-07	-4.740976e-06	-3.703101e-09	-3.407297e+01	-2.417269e+02
3.600000e-07	-4.708088e-06	-3.648389e-09	-3.383661e+01	-2.409215e+02
3.700000e-07	-4.674107e-06	-3.614473e-09	-3.359239e+01	-2.400837e+02
3.800000e-07	-4.639086e-06	-3.637059e-09	-3.334070e+01	-2.392114e+02
3.900000e-07	-4.603236e-06	-3.666954e-09	-3.308305e+01	-2.383025e+02
4.000000e-07	-4.566660e-06	-3.610240e-09	-3.282018e+01	-2.373553e+02
4.100000e-07	-4.529262e-06	-3.545600e-09	-3.255141e+01	-2.363681e+02
4.200000e-07	-4.491127e-06	-3.556519e-09	-3.227733e+01	-2.353398e+02
4.300000e-07	-4.452272e-06	-3.589231e-09	-3.199808e+01	-2.342699e+02
4.400000e-07	-4.412663e-06	-3.573785e-09	-3.171342e+01	-2.331581e+02
4.500000e-07	-4.372420e-06	-3.493644e-09	-3.142419e+01	-2.320052e+02
4.600000e-07	-4.331504e-06	-3.463642e-09	-3.113013e+01	-2.308123e+02
4.700000e-07	-4.289522e-06	-3.504199e-09	-3.082841e+01	-2.295810e+02
4.800000e-07	-4.246392e-06	-3.507178e-09	-3.051844e+01	-2.283134e+02
4.900000e-07	-4.202536e-06	-3.446272e-09	-3.020326e+01	-2.270121e+02
5.000000e-07	-4.158100e-06	-3.381389e-09	-2.988389e+01	-2.256796e+02
5.100000e-07	-4.112973e-06	-3.386538e-09	-2.955957e+01	-2.243186e+02
5.200000e-07	-4.067114e-06	-3.407640e-09	-2.922999e+01	-2.229316e+02
5.300000e-07	-4.020499e-06	-3.376389e-09	-2.889497e+01	-2.215207e+02
5.400000e-07	-3.973153e-06	-3.323358e-09	-2.855470e+01	-2.200878e+02
5.500000e-07	-3.925189e-06	-3.289171e-09	-2.820999e+01	-2.186340e+02
5.600000e-07	-3.876556e-06	-3.301581e-09	-2.786047e+01	-2.171599e+02
5.700000e-07	-3.826906e-06	-3.300491e-09	-2.750363e+01	-2.156655e+02
5.800000e-07	-3.776169e-06	-3.255363e-09	-2.713899e+01	-2.141501e+02
5.900000e-07	-3.724612e-06	-3.213090e-09	-2.676846e+01	-2.126123e+02
6.000000e-07	-3.672338e-06	-3.193471e-09	-2.639277e+01	-2.110504e+02
6.100000e-07	-3.619334e-06	-3.189953e-09	-2.601183e+01	-2.094622e+02
6.200000e-07	-3.565656e-06	-3.160370e-09	-2.562605e+01	-2.078453e+02
6.300000e-07	-3.511382e-06	-3.120621e-09	-2.523599e+01	-2.061972e+02
6.400000e-07	-3.456518e-06	-3.099278e-09	-2.484169e+01	-2.045154e+02
6.500000e-07	-3.401093e-06	-3.074186e-09	-2.444335e+01	-2.027977e+02
6.600000e-07	-3.345172e-06	-3.049181e-09	-2.404145e+01	-2.010423e+02
6.700000e-07	-3.288795e-06	-3.019603e-09	-2.363628e+01	-1.992478e+02
6.800000e-07	-3.231802e-06	-2.993603e-09	-2.322668e+01	-1.974134e+02
6.900000e-07	-3.173976e-06	-2.966736e-09	-2.281108e+01	-1.955386e+02
7.000000e-07	-3.115295e-06	-2.926331e-09	-2.238934e+01	-1.936238e+02
7.100000e-07	-3.055934e-06	-2.897783e-09	-2.196272e+01	-1.916696e+02
7.200000e-07	-2.996112e-06	-2.875533e-09	-2.153279e+01	-1.896771e+02
7.300000e-07	-2.935913e-06	-2.849442e-09	-2.110015e+01	-1.876478e+02
7.400000e-07	-2.875290e-06	-2.810554e-09	-2.066446e+01	-1.855833e+02
7.500000e-07	-2.814184e-06	-2.765688e-09	-2.022529e+01	-1.834850e+02
7.600000e-07	-2.752547e-06	-2.742181e-09	-1.978231e+01	-1.813546e+02
7.700000e-07	-2.690446e-06	-2.721142e-09	-1.933599e+01	-1.791931e+02
7.800000e-07	-2.627947e-06	-2.685216e-09	-1.888682e+01	-1.770014e+02
7.900000e-07	-2.565026e-06	-2.637538e-09	-1.843461e+01	-1.747800e+02
8.000000e-07	-2.501671e-06	-2.598109e-09	-1.797929e+01	-1.725288e+02
8.100000e-07	-2.437928e-06	-2.576722e-09	-1.752117e+01	-1.702472e+02
8.200000e-07	-2.373866e-06	-2.544219e-09	-1.706076e+01	-1.679341e+02
8.300000e-07	-2.309499e-06	-2.501704e-09	-1.659817e+01	-1.655881e+02
8.400000e-07	-2.244694e-06	-2.460333e-09	-1.613242e+01	-1.632075e+02
8.500000e-07	-2.179305e-06	-2.425699e-09	-1.566247e+01	-1.607903e+02
8.600000e-07	-2.113319e-06	-2.396432e-09	-1.518824e+01	-1.583343e+02
8.700000e-07	-2.046831e-06	-2.357703e-09	-1.471039e+01	-1.558378e+02
8.800000e-07	-1.979924e-06	-2.318851e-09	-1.422953e+01	-1.532988e+02
8.900000e-07	-1.912603e-06	-2.278023e-09	-1.374571e+01	-1.507158e+02
9.000000e-07	-1.844978e-06	-2.233070e-09	-1.325969e+01	-1.480878e+02
9.100000e-07	-1.777155e-06	-2.194236e-09	-1.277225e+01	-1.454140e+02
9.200000e-07	-1.709128e-06	-2.158259e-09	-1.228335e+01	-1.426942e+02
9.300000e-07	-1.640861e-06	-2.121334e-09	-1.179272e+01	-1.399287e+02
9.400000e-07	-1.572332e-06	-2.071080e-09	-1.130021e+01	-1.371182e+02
9.500000e-07	-1.503555e-06	-2.020131e-09	-1.080592e+01	-1.342637e+02
9.600000e-07	-1.434506e-06	-1.984688e-09	-1.030967e+01	-1.313664e+02
9.700000e-07	-1.365198e-06	-1.949339e-09	-9.811559e+00	-1.284280e+02
9.800000e-07	-1.295666e-06	-1.903098e-09	-9.311838e+00	-1.254497e+02
9.900000e-07	-1.225846e-06	-1.845082e-09	-8.810049e+00	-1.224331e+02
1.000000e-06	-1.155814e-06	-1.794751e-09	-8.306730e+00	-1.193793e+02
1.010000e-06	-1.085669e-06	-1.759835e-09	-7.802606e+00	-1.162891e+02
1.020000e-06	-1.015324e-06	-1.718741e-09	-7.297040e+00	-1.131632e+02
1.030000e-06	-9.447764e-07	-1.662943e-09	-6.790024e+00	-1.100015e+02
1.040000e-06	-8.739885e-07	-1.602759e-09	-6.281277e+00	-1.068038e+02
1.050000e-06	-8.029728e-07	-1.559072e-09	-5.770894e+00	-1.035693e+02
1.060000e-06	-7.318756e-07	-1.524013e-09	-5.259925e+00	-1.002969e+02
1.070000e-06	-6.606782e-07	-1.472673e-09	-4.748235e+00	-9.698532e+01
1.080000e-06	-5.893752e-07	-1.412355e-09	-4.235787e+00	-9.363294e+01
1.090000e-06	-5.180012e-07	-1.355730e-09	-3.722829e+00	-9.023810e+01
1.100000e-06	-4.465925e-07	-1.310782e-09	-3.209621e+00	-8.679916e+01
1.110000e-06	-3.751605e-07	-1.265199e-09	-2.696245e+00	-8.331460e+01
1.120000e-06	-3.036758e-07	-1.205910e-09	-2.182491e+00	-7.978311e+01
1.130000e-06	-2.321427e-07	-1.144027e-09	-1.668389e+00	-7.620367e+01
1.140000e-06	-1.605967e-07	-1.086914e-09	-1.154194e+00	-7.257560e+01
1.150000e-06	-8.904768e-08	-1.038006e-09	-6.399777e-01	-6.889854e+01
1.160000e-06	-1.748010e-08	-9.863142e-10	-1.256279e-01	-6.517253e+01
1.170000e-06	5.411666e-08	-9.244778e-10	3.889316e-01	-6.139790e+01
1.180000e-06	1.257013e-07	-8.610190e-10	9.034044e-01	-5.757525e+01
1.190000e-06	1.972572e-07	-8.011271e-10	1.417670e+00	-5.370538e+01
1.200000e-06	2.687955e-07	-7.480921e-10	1.931809e+00	-4.978918e+01
1.210000e-06	3.402572e-07	-6.919375e-10	2.445398e+00	-4.582756e+01
1.220000e-06	4.116902e-07	-6.256498e-10	2.958781e+00	-4.182137e+01
1.230000e-06	4.831589e-07	-5.590011e-10	3.472420e+00	-3.777128e+01
1.240000e-06	5.545730e-07	-4.980996e-10	3.985667e+00	-3.367775e+01
1.250000e-06	6.258256e-07	-4.448605e-10	4.497753e+00	-2.954100e+01
1.260000e-06	6.969762e-07	-3.834363e-10	5.009106e+00	-2.536097e+01
1.270000e-06	7.680272e-07	-3.102493e-10	5.519743e+00	-2.113733e+01
1.280000e-06	8.388900e-07	-2.375858e-10	6.029028e+00	-1.686957e+01
1.290000e-06	9.096068e-07	-1.722179e-10	6.537263e+00	-1.255700e+01
1.300000e-06	9.801589e-07	-1.113938e-10	7.044315e+00	-8.198915e+00
1.310000e-06	1.050475e-06	-4.268107e-11	7.549671e+00	-3.794640e+00
1.320000e-06	1.120649e-06	3.149993e-11	8.054004e+00	6.563045e-01
1.330000e-06	1.190655e-06	1.009342e-10	8.557132e+00	5.154098e+00
1.340000e-06	1.260369e-06	1.646504e-10	9.058157e+00	9.698494e+00
1.350000e-06	1.329785e-06	2.293809e-10	9.557043e+00	1.428871e+01
1.360000e-06	1.398981e-06	3.022831e-10	1.005435e+01	1.892334e+01
1.370000e-06	1.467992e-06	3.766545e-10	1.055033e+01	2.360026e+01
1.380000e-06	1.536749e-06	4.469629e-10	1.104448e+01	2.831664e+01
1.390000e-06	1.605216e-06	5.180079e-10	1.153655e+01	3.306885e+01
1.400000e-06	1.673400e-06	5.903812e-10	1.202658e+01	3.785255e+01
1.410000e-06	1.741357e-06	6.665807e-10	1.251498e+01	4.266268e+01
1.420000e-06	1.809118e-06	7.421210e-10	1.300197e+01	4.749356e+01
1.430000e-06	1.876658e-06	8.160906e-10	1.348738e+01	5.233896e+01
1.440000e-06	1.943906e-06	8.869683e-10	1.397068e+01	5.719224e+01
1.450000e-06	2.010781e-06	9.559568e-10	1.445130e+01	6.204643e+01
1.460000e-06	2.077202e-06	1.030252e-09	1.492867e+01	6.689441e+01
1.470000e-06	2.143103e-06	1.108370e-09	1.540229e+01	7.172897e+01
1.480000e-06	2.208406e-06	1.184460e-09	1.587162e+01	7.654299e+01
1.490000e-06	2.273143e-06	1.255114e-09	1.633688e+01	8.132955e+01
1.500000e-06	2.337404e-06	1.323333e-09	1.679871e+01	8.608199e+01
1.510000e-06	2.401322e-06	1.396695e-09	1.725809e+01	9.079403e+01
1.520000e-06	2.465004e-06	1.472754e-09	1.771576e+01	9.545985e+01
1.530000e-06	2.528370e-06	1.543559e-09	1.817117e+01	1.000741e+02
1.540000e-06	2.591297e-06	1.606425e-09	1.862342e+01	1.046320e+02
1.550000e-06	2.653791e-06	1.669027e-09	1.907256e+01	1.091292e+02
1.560000e-06	2.715904e-06	1.739938e-09	1.951896e+01	1.135621e+02
1.570000e-06	2.777586e-06	1.811903e-09	1.996226e+01	1.179274e+02
1.580000e-06	2.838793e-06	1.875867e-09	2.040215e+01	1.222224e+02
1.590000e-06	2.899515e-06	1.934470e-09	2.083856e+01	1.264451e+02
1.600000e-06	2.959791e-06	1.996585e-09	2.127176e+01	1.305935e+02
1.610000e-06	3.019701e-06	2.062753e-09	2.170233e+01	1.346665e+02
1.620000e-06	3.079208e-06	2.124199e-09	2.212999e+01	1.386630e+02
1.630000e-06	3.138134e-06	2.179230e-09	2.255349e+01	1.425823e+02
1.640000e-06	3.196202e-06	2.233018e-09	2.297082e+01	1.464240e+02
1.650000e-06	3.253324e-06	2.290868e-09	2.338135e+01	1.501881e+02
1.660000e-06	3.309700e-06	2.349549e-09	2.378652e+01	1.538743e+02
1.670000e-06	3.365585e-06	2.402699e-09	2.418816e+01	1.574829e+02
1.680000e-06	3.421110e-06	2.452113e-09	2.458721e+01	1.610141e+02
1.690000e-06	3.476094e-06	2.501490e-09	2.498238e+01	1.644680e+02
1.700000e-06	3.530451e-06	2.553034e-09	2.537304e+01	1.678448e+02
1.710000e-06	3.584257e-06	2.605536e-09	2.575973e+01	1.711449e+02
1.720000e-06	3.637507e-06	2.655314e-09	2.614244e+01	1.743683e+02
1.730000e-06	3.690076e-06	2.700534e-09	2.652025e+01	1.775152e+02
1.740000e-06	3.741857e-06	2.743127e-09	2.689239e+01	1.805854e+02
1.750000e-06	3.792800e-06	2.785864e-09	2.725851e+01	1.835791e+02
1.760000e-06	3.842772e-06	2.829219e-09	2.761766e+01	1.864960e+02
1.770000e-06	3.891724e-06	2.868966e-09	2.796947e+01	1.893361e+02
1.780000e-06	3.939899e-06	2.904317e-09	2.831570e+01	1.920992e+02
1.790000e-06	3.987530e-06	2.940064e-09	2.865802e+01	1.947852e+02
1.800000e-06	4.034536e-06	2.979990e-09	2.899585e+01	1.973940e+02
1.810000e-06	4.080884e-06	3.020967e-09	2.932895e+01	1.999259e+02
1.820000e-06	4.126489e-06	3.057829e-09	2.965671e+01	2.023812e+02
1.830000e-06	4.171285e-06	3.090511e-09	2.997865e+01	2.047602e+02
1.840000e-06	4.215463e-06	3.122792e-09	3.029616e+01	2.070638e+02
1.850000e-06	4.259141e-06	3.156045e-09	3.061007e+01	2.092930e+02
1.860000e-06	4.302145e-06	3.186226e-09	3.091913e+01	2.114492e+02
1.870000e-06	4.344086e-06	3.212063e-09	3.122056e+01	2.135339e+02
1.880000e-06	4.384928e-06	3.237903e-09	3.151408e+01	2.155489e+02
1.890000e-06	4.424995e-06	3.267584e-09	3.180204e+01	2.174963e+02
1.900000e-06	4.464452e-06	3.298889e-09	3.208562e+01	2.193783e+02
1.910000e-06	4.503230e-06	3.326770e-09	3.236432e+01	2.211973e+02
1.920000e-06	4.541251e-06	3.352429e-09	3.263757e+01	2.229555e+02
1.930000e-06	4.578450e-06	3.377564e-09	3.290491e+01	2.246553e+02
1.940000e-06	4.614882e-06	3.401426e-09	3.316674e+01	2.262988e+02
1.950000e-06	4.650732e-06	3.423951e-09	3.342440e+01	2.278880e+02
1.960000e-06	4.685857e-06	3.444843e-09	3.367683e+01	2.294247e+02
1.970000e-06	4.719954e-06	3.464531e-09	3.392189e+01	2.309102e+02
1.980000e-06	4.752926e-06	3.483538e-09	3.415886e+01	2.323456e+02
1.990000e-06	4.784973e-06	3.503437e-09	3.438917e+01	2.337319e+02
2.000000e-06	4.816294e-06	3.523263e-09	3.461428e+01	2.350694e+02
2.010000e-06	4.846926e-06	3.541869e-09	3.483442e+01	2.363585e+02
2.020000e-06	4.876794e-06	3.560086e-09	3.504908e+01	2.375991e+02
2.030000e-06	4.905782e-06	3.576586e-09	3.525742e+01	2.387912e+02
2.040000e-06	4.934039e-06	3.594130e-09	3.546050e+01	2.399346e+02
2.050000e-06	4.961641e-06	3.611759e-09	3.565887e+01	2.410292e+02
2.060000e-06	4.988253e-06	3.626357e-09	3.585013e+01	2.420751e+02
2.070000e-06	5.013625e-06	3.638646e-09	3.603247e+01	2.430724e+02
2.080000e-06	5.037964e-06	3.651382e-09	3.620740e+01	2.440217e+02
2.090000e-06	5.061444e-06	3.666570e-09	3.637615e+01	2.449236e+02
2.100000e-06	5.084062e-06	3.682185e-09	3.653870e+01	2.457794e+02
2.110000e-06	5.105825e-06	3.695226e-09	3.669511e+01	2.465903e+02
2.120000e-06	5.126758e-06	3.705606e-09	3.684556e+01	2.473580e+02
2.130000e-06	5.146956e-06	3.716658e-09	3.699072e+01	2.480845e+02
2.140000e-06	5.166463e-06	3.728903e-09	3.713091e+01	2.487718e+02
2.150000e-06	5.185085e-06	3.740955e-09	3.726475e+01	2.494219e+02
2.160000e-06	5.202662e-06	3.750980e-09	3.739107e+01	2.500369e+02
2.170000e-06	5.219356e-06	3.759206e-09	3.751105e+01	2.506186e+02
2.180000e-06	5.235135e-06	3.766994e-09	3.762445e+01	2.511687e+02
2.190000e-06	5.249781e-06	3.773675e-09	3.772971e+01	2.516885e+02
2.200000e-06	5.263363e-06	3.781482e-09	3.782732e+01	2.521787e+02
2.210000e-06	5.276055e-06	3.790366e-09	3.791854e+01	2.526399e+02
2.220000e-06	5.287859e-06	3.796659e-09	3.800337e+01	2.530721e+02
2.230000e-06	5.298602e-06	3.803491e-09	3.808058e+01	2.534747e+02
2.240000e-06	5.308033e-06	3.808473e-09	3.814836e+01	2.538471e+02
2.250000e-06	5.316314e-06	3.813663e-09	3.820788e+01	2.541882e+02
2.260000e-06	5.323794e-06	3.818935e-09	3.826163e+01	2.544966e+02
2.270000e-06	5.330435e-06	3.821056e-09	3.830936e+01	2.547711e+02
2.280000e-06	5.336170e-06	3.822239e-09	3.835058e+01	2.550104e+02
2.290000e-06	5.341003e-06	3.824533e-09	3.838531e+01	2.552134e+02
2.300000e-06	5.345034e-06	3.831421e-09	3.841428e+01	2.553794e+02
2.310000e-06	5.348268e-06	3.838657e-09	3.843753e+01	2.555080e+02
2.320000e-06	5.350436e-06	3.840687e-09	3.845311e+01	2.555995e+02
2.330000e-06	5.351395e-06	3.841920e-09	3.846000e+01	2.556545e+02
2.340000e-06	5.351372e-06	3.844895e-09	3.845983e+01	2.556741e+02
2.350000e-06	5.350547e-06	3.846473e-09	3.845390e+01	2.556603e+02
2.360000e-06	5.348863e-06	3.843646e-09	3.844180e+01	2.556151e+02
2.370000e-06	5.346370e-06	3.836132e-09	3.842388e+01	2.555412e+02
2.380000e-06	5.343090e-06	3.831806e-09	3.840031e+01	2.554412e+02
2.390000e-06	5.339073e-06	3.830842e-09	3.837144e+01	2.553181e+02
2.400000e-06	5.334325e-06	3.828723e-09	3.833732e+01	2.551748e+02
2.410000e-06	5.328508e-06	3.819655e-09	3.829551e+01	2.550138e+02
2.420000e-06	5.321468e-06	3.809989e-09	3.824491e+01	2.548375e+02
2.430000e-06	5.313449e-06	3.835346e-09	3.818729e+01	2.546477e+02
2.440000e-06	5.304415e-06	3.826828e-09	3.812236e+01	2.544458e+02
2.450000e-06	5.294084e-06	3.817377e-09	3.804811e+01	2.542326e+02
2.460000e-06	5.282621e-06	3.756198e-09	3.796573e+01	2.540081e+02
2.470000e-06	5.270697e-06	3.780231e-09	3.788003e+01	2.537720e+02
2.480000e-06	5.258386e-06	3.856726e-09	3.779155e+01	2.535232e+02
2.490000e-06	5.244659e-06	3.732955e-09	3.769290e+01	2.532603e+02
2.500000e-06	5.229301e-06	3.772046e-09	3.758252e+01	2.529817e+02
2.510000e-06	5.213249e-06	3.825547e-09	3.746716e+01	2.526852e+02
2.520000e-06	5.196603e-06	3.721405e-09	3.734752e+01	2.523690e+02
2.530000e-06	5.178865e-06	3.774482e-09	3.722004e+01	2.520310e+02
2.540000e-06	5.160198e-06	3.860784e-09	3.708589e+01	2.516693e+02
2.550000e-06	5.140900e-06	3.775543e-09	3.694719e+01	2.512825e+02
2.560000e-06	5.120917e-06	3.800266e-09	3.680357e+01	2.508694e+02
2.570000e-06	5.100038e-06	3.953738e-09	3.665352e+01	2.504292e+02
2.580000e-06	5.077813e-06	3.847960e-09	3.649379e+01	2.499614e+02
2.590000e-06	5.054300e-06	3.756361e-09	3.632480e+01	2.494660e+02
2.600000e-06	5.030077e-06	3.840302e-09	3.615071e+01	2.489432e+02
2.610000e-06	5.005046e-06	3.842411e-09	3.597082e+01	2.483936e+02
2.620000e-06	4.979034e-06	3.841997e-09	3.578388e+01	2.478176e+02
2.630000e-06	4.952381e-06	3.775511e-09	3.559232e+01	2.472158e+02
2.640000e-06	4.925012e-06	3.704653e-09	3.539562e+01	2.465886e+02
2.650000e-06	4.896848e-06	3.794547e-09	3.519321e+01	2.459363e+02
2.660000e-06	4.867960e-06	3.811555e-09	3.498559e+01	2.452588e+02
2.670000e-06	4.837806e-06	3.752543e-09	3.476888e+01	2.445556e+02
2.680000e-06	4.806298e-06	3.754456e-09	3.454244e+01	2.438258e+02
2.690000e-06	4.773985e-06	3.710598e-09	3.431021e+01	2.430683e+02
2.700000e-06	4.741015e-06	3.732441e-09	3.407325e+01	2.422813e+02
2.710000e-06	4.707301e-06	3.813316e-09	3.383095e+01	2.414632e+02
2.720000e-06	4.672746e-06	3.712416e-09	3.358261e+01	2.406118e+02
2.730000e-06	4.637346e-06	3.637172e-09	3.332819e+01	2.397250e+02
2.740000e-06	4.601376e-06	3.677666e-09	3.306968e+01	2.388010e+02
2.750000e-06	4.564740e-06	3.702855e-09	3.280638e+01	2.378379e+02
2.760000e-06	4.526966e-06	3.702907e-09	3.253490e+01	2.368343e+02
2.770000e-06	4.488009e-06	3.594934e-09	3.225492e+01	2.357894e+02
2.780000e-06	4.448202e-06	3.566729e-09	3.196883e+01	2.347026e+02
2.790000e-06	4.407824e-06	3.642691e-09	3.167864e+01	2.335743e+02
2.800000e-06	4.366812e-06	3.626553e-09	3.138389e+01	2.324051e+02
2.810000e-06	4.325049e-06	3.577885e-09	3.108374e+01	2.311965e+02
2.820000e-06	4.282534e-06	3.505371e-09	3.077819e+01	2.299504e+02
2.830000e-06	4.239276e-06	3.519524e-09	3.046730e+01	2.286690e+02
2.840000e-06	4.195459e-06	3.555575e-09	3.015239e+01	2.273548e+02
2.850000e-06	4.151129e-06	3.493766e-09	2.983380e+01	2.260106e+02
2.860000e-06	4.106169e-06	3.459687e-09	2.951067e+01	2.246388e+02
2.870000e-06	4.060313e-06	3.423610e-09	2.918111e+01	2.232420e+02
2.880000e-06	4.013543e-06	3.423899e-09	2.884498e+01	2.218221e+02
2.890000e-06	3.966177e-06	3.427629e-09	2.850456e+01	2.203806e+02
2.900000e-06	3.918104e-06	3.374664e-09	2.815906e+01	2.189187e+02
2.910000e-06	3.869168e-06	3.358642e-09	2.780737e+01	2.174364e+02
2.920000e-06	3.819426e-06	3.333731e-09	2.744988e+01	2.159337e+02
2.930000e-06	3.768996e-06	3.318632e-09	2.708744e+01	2.144095e+02
2.940000e-06	3.717938e-06	3.299663e-09	2.672049e+01	2.128623e+02
