# Temperatura_=_20.0
# Concentracion g/m^3_=_12600.0
# C_Vs_to_Am_M_A/Vsm_=_65563218390.804596
# pendiente_HvsI_1/m_=_3716.3
# ordenada_HvsI_A/m_=_1297.0
# frecuencia_Hz_=_213090.4228609208

Tiempo_(s)	Campo_(V.s)	Magnetizacion_(V.s)	Campo_(kA/m)	Magnetizacion_(A/m)
0.000000e+00	-5.340754e-06	-3.915694e-09	-3.834586e+01	-2.538555e+02
1.000000e-08	-5.340634e-06	-3.917211e-09	-3.834500e+01	-2.538390e+02
2.000000e-08	-5.339725e-06	-3.915842e-09	-3.833847e+01	-2.537846e+02
3.000000e-08	-5.337646e-06	-3.913911e-09	-3.832354e+01	-2.536946e+02
4.000000e-08	-5.334368e-06	-3.914249e-09	-3.830001e+01	-2.535720e+02
5.000000e-08	-5.330262e-06	-3.912421e-09	-3.827053e+01	-2.534205e+02
6.000000e-08	-5.325456e-06	-3.909936e-09	-3.823602e+01	-2.532443e+02
7.000000e-08	-5.319798e-06	-3.905475e-09	-3.819540e+01	-2.530480e+02
8.000000e-08	-5.313200e-06	-3.901727e-09	-3.814802e+01	-2.528358e+02
9.000000e-08	-5.305661e-06	-3.921665e-09	-3.809389e+01	-2.526123e+02
1.000000e-07	-5.297189e-06	-3.912799e-09	-3.803307e+01	-2.523810e+02
1.100000e-07	-5.287380e-06	-3.895215e-09	-3.796264e+01	-2.521451e+02
1.200000e-07	-5.276199e-06	-3.847087e-09	-3.788237e+01	-2.519065e+02
1.300000e-07	-5.264161e-06	-3.873064e-09	-3.779593e+01	-2.516662e+02
1.400000e-07	-5.251272e-06	-3.926607e-09	-3.770339e+01	-2.514240e+02
1.500000e-07	-5.237444e-06	-3.858491e-09	-3.760411e+01	-2.511784e+02
1.600000e-07	-5.222842e-06	-3.829338e-09	-3.749927e+01	-2.509268e+02
1.700000e-07	-5.207196e-06	-3.885069e-09	-3.738693e+01	-2.506655e+02
1.800000e-07	-5.190162e-06	-3.841230e-09	-3.726463e+01	-2.503899e+02
1.900000e-07	-5.172142e-06	-3.825890e-09	-3.713525e+01	-2.500948e+02
2.000000e-07	-5.153584e-06	-3.938218e-09	-3.700200e+01	-2.497749e+02
2.100000e-07	-5.134267e-06	-3.793199e-09	-3.686331e+01	-2.494245e+02
2.200000e-07	-5.113975e-06	-3.703032e-09	-3.671762e+01	-2.490384e+02
2.300000e-07	-5.092867e-06	-3.865482e-09	-3.656607e+01	-2.486119e+02
2.400000e-07	-5.070965e-06	-3.808153e-09	-3.640881e+01	-2.481411e+02
2.500000e-07	-5.048199e-06	-3.683724e-09	-3.624535e+01	-2.476231e+02
2.600000e-07	-5.024598e-06	-3.729542e-09	-3.607590e+01	-2.470563e+02
2.700000e-07	-5.000113e-06	-3.728463e-09	-3.590010e+01	-2.464402e+02
2.800000e-07	-4.974725e-06	-3.707888e-09	-3.571782e+01	-2.457754e+02
2.900000e-07	-4.948358e-06	-3.736447e-09	-3.552851e+01	-2.450639e+02
3.000000e-07	-4.920869e-06	-3.678549e-09	-3.533115e+01	-2.443085e+02
3.100000e-07	-4.892483e-06	-3.636797e-09	-3.512733e+01	-2.435128e+02
3.200000e-07	-4.863294e-06	-3.674190e-09	-3.491776e+01	-2.426810e+02
3.300000e-07	-4.833266e-06	-3.653750e-09	-3.470217e+01	-2.418173e+02
3.400000e-07	-4.802437e-06	-3.673061e-09	-3.448082e+01	-2.409263e+02
3.500000e-07	-4.770912e-06	-3.665781e-09	-3.425447e+01	-2.400119e+02
3.600000e-07	-4.738783e-06	-3.557641e-09	-3.402379e+01	-2.390777e+02
3.700000e-07	-4.705769e-06	-3.581802e-09	-3.378676e+01	-2.381264e+02
3.800000e-07	-4.671569e-06	-3.658397e-09	-3.354121e+01	-2.371599e+02
3.900000e-07	-4.636265e-06	-3.619340e-09	-3.328772e+01	-2.361793e+02
4.000000e-07	-4.600161e-06	-3.529301e-09	-3.302851e+01	-2.351845e+02
4.100000e-07	-4.563358e-06	-3.506978e-09	-3.276426e+01	-2.341747e+02
4.200000e-07	-4.525823e-06	-3.573564e-09	-3.249477e+01	-2.331481e+02
4.300000e-07	-4.487484e-06	-3.573611e-09	-3.221950e+01	-2.321024e+02
4.400000e-07	-4.448281e-06	-3.512216e-09	-3.193803e+01	-2.310351e+02
4.500000e-07	-4.408437e-06	-3.454258e-09	-3.165195e+01	-2.299430e+02
4.600000e-07	-4.368110e-06	-3.446880e-09	-3.136241e+01	-2.288234e+02
4.700000e-07	-4.326964e-06	-3.497661e-09	-3.106699e+01	-2.276736e+02
4.800000e-07	-4.284629e-06	-3.472565e-09	-3.076303e+01	-2.264913e+02
4.900000e-07	-4.241266e-06	-3.404032e-09	-3.045169e+01	-2.252750e+02
5.000000e-07	-4.197288e-06	-3.357943e-09	-3.013593e+01	-2.240235e+02
5.100000e-07	-4.152709e-06	-3.362981e-09	-2.981586e+01	-2.227365e+02
5.200000e-07	-4.107368e-06	-3.402364e-09	-2.949032e+01	-2.214143e+02
5.300000e-07	-4.061296e-06	-3.356938e-09	-2.915953e+01	-2.200578e+02
5.400000e-07	-4.014446e-06	-3.279296e-09	-2.882316e+01	-2.186685e+02
5.500000e-07	-3.966904e-06	-3.262808e-09	-2.848181e+01	-2.172480e+02
5.600000e-07	-3.918812e-06	-3.286988e-09	-2.813652e+01	-2.157982e+02
5.700000e-07	-3.870034e-06	-3.286369e-09	-2.778630e+01	-2.143210e+02
5.800000e-07	-3.820196e-06	-3.224391e-09	-2.742846e+01	-2.128180e+02
5.900000e-07	-3.769179e-06	-3.184002e-09	-2.706217e+01	-2.112905e+02
6.000000e-07	-3.717318e-06	-3.171329e-09	-2.668982e+01	-2.097393e+02
6.100000e-07	-3.664784e-06	-3.165241e-09	-2.631263e+01	-2.081646e+02
6.200000e-07	-3.611562e-06	-3.152321e-09	-2.593050e+01	-2.065661e+02
6.300000e-07	-3.557748e-06	-3.101875e-09	-2.554413e+01	-2.049428e+02
6.400000e-07	-3.503373e-06	-3.063831e-09	-2.515372e+01	-2.032932e+02
6.500000e-07	-3.448316e-06	-3.048181e-09	-2.475842e+01	-2.016153e+02
6.600000e-07	-3.392693e-06	-3.039854e-09	-2.435906e+01	-1.999069e+02
6.700000e-07	-3.336677e-06	-3.017409e-09	-2.395687e+01	-1.981655e+02
6.800000e-07	-3.280115e-06	-2.965700e-09	-2.355076e+01	-1.963888e+02
6.900000e-07	-3.222788e-06	-2.930520e-09	-2.313916e+01	-1.945745e+02
7.000000e-07	-3.164689e-06	-2.911245e-09	-2.272202e+01	-1.927208e+02
7.100000e-07	-3.105851e-06	-2.896775e-09	-2.229957e+01	-1.908260e+02
7.200000e-07	-3.046371e-06	-2.868074e-09	-2.187251e+01	-1.888894e+02
7.300000e-07	-2.986437e-06	-2.817284e-09	-2.144219e+01	-1.869104e+02
7.400000e-07	-2.926123e-06	-2.785382e-09	-2.100915e+01	-1.848893e+02
7.500000e-07	-2.865384e-06	-2.763075e-09	-2.057305e+01	-1.828268e+02
7.600000e-07	-2.804136e-06	-2.737014e-09	-2.013330e+01	-1.807240e+02
7.700000e-07	-2.742360e-06	-2.698657e-09	-1.968975e+01	-1.785825e+02
7.800000e-07	-2.680096e-06	-2.655915e-09	-1.924271e+01	-1.764040e+02
7.900000e-07	-2.617466e-06	-2.628427e-09	-1.879303e+01	-1.741902e+02
8.000000e-07	-2.554461e-06	-2.594075e-09	-1.834067e+01	-1.719429e+02
8.100000e-07	-2.490994e-06	-2.559504e-09	-1.788498e+01	-1.696634e+02
8.200000e-07	-2.427107e-06	-2.526373e-09	-1.742628e+01	-1.673531e+02
8.300000e-07	-2.362905e-06	-2.485298e-09	-1.696532e+01	-1.650125e+02
8.400000e-07	-2.298393e-06	-2.444800e-09	-1.650213e+01	-1.626420e+02
8.500000e-07	-2.233393e-06	-2.404306e-09	-1.603544e+01	-1.602413e+02
8.600000e-07	-2.167897e-06	-2.378453e-09	-1.556520e+01	-1.578097e+02
8.700000e-07	-2.101881e-06	-2.346398e-09	-1.509121e+01	-1.553461e+02
8.800000e-07	-2.035264e-06	-2.295308e-09	-1.461291e+01	-1.528491e+02
8.900000e-07	-1.968146e-06	-2.250564e-09	-1.413101e+01	-1.503171e+02
9.000000e-07	-1.900661e-06	-2.217496e-09	-1.364648e+01	-1.477483e+02
9.100000e-07	-1.832973e-06	-2.191399e-09	-1.316049e+01	-1.451411e+02
9.200000e-07	-1.765096e-06	-2.148535e-09	-1.267314e+01	-1.424939e+02
9.300000e-07	-1.696974e-06	-2.093926e-09	-1.218403e+01	-1.398055e+02
9.400000e-07	-1.628586e-06	-2.053640e-09	-1.169302e+01	-1.370749e+02
9.500000e-07	-1.559880e-06	-2.019727e-09	-1.119972e+01	-1.343014e+02
9.600000e-07	-1.490940e-06	-1.982848e-09	-1.070474e+01	-1.314847e+02
9.700000e-07	-1.421886e-06	-1.930878e-09	-1.020894e+01	-1.286250e+02
9.800000e-07	-1.352611e-06	-1.877872e-09	-9.711555e+00	-1.257225e+02
9.900000e-07	-1.283005e-06	-1.839929e-09	-9.211795e+00	-1.227778e+02
1.000000e-06	-1.213065e-06	-1.800946e-09	-8.709633e+00	-1.197916e+02
1.010000e-06	-1.142959e-06	-1.754866e-09	-8.206284e+00	-1.167647e+02
1.020000e-06	-1.072740e-06	-1.699480e-09	-7.702119e+00	-1.136975e+02
1.030000e-06	-1.002306e-06	-1.650329e-09	-7.196417e+00	-1.105907e+02
1.040000e-06	-9.316472e-07	-1.608987e-09	-6.689095e+00	-1.074444e+02
1.050000e-06	-8.607662e-07	-1.560727e-09	-6.180180e+00	-1.042587e+02
1.060000e-06	-7.897729e-07	-1.510584e-09	-5.670458e+00	-1.010331e+02
1.070000e-06	-7.187076e-07	-1.458772e-09	-5.160219e+00	-9.776713e+01
1.080000e-06	-6.474803e-07	-1.410312e-09	-4.648817e+00	-9.445986e+01
1.090000e-06	-5.760944e-07	-1.361504e-09	-4.136276e+00	-9.111029e+01
1.100000e-06	-5.046378e-07	-1.307473e-09	-3.623228e+00	-8.771730e+01
1.110000e-06	-4.331567e-07	-1.256953e-09	-3.110004e+00	-8.427978e+01
1.120000e-06	-3.616561e-07	-1.203211e-09	-2.596640e+00	-8.079672e+01
1.130000e-06	-2.900244e-07	-1.144782e-09	-2.082334e+00	-7.726732e+01
1.140000e-06	-2.183549e-07	-1.087575e-09	-1.567757e+00	-7.369103e+01
1.150000e-06	-1.467520e-07	-1.034266e-09	-1.053659e+00	-7.006764e+01
1.160000e-06	-7.513128e-08	-9.818469e-10	-5.394319e-01	-6.639730e+01
1.170000e-06	-3.476976e-09	-9.195284e-10	-2.496419e-02	-6.268049e+01
1.180000e-06	6.816438e-08	-8.580846e-10	4.894106e-01	-5.891804e+01
1.190000e-06	1.397530e-07	-8.037160e-10	1.003407e+00	-5.511099e+01
1.200000e-06	2.113616e-07	-7.490689e-10	1.517546e+00	-5.126056e+01
1.210000e-06	2.829384e-07	-6.889036e-10	2.031458e+00	-4.736802e+01
1.220000e-06	3.544101e-07	-6.213635e-10	2.544614e+00	-4.343455e+01
1.230000e-06	4.258544e-07	-5.599690e-10	3.057575e+00	-3.946117e+01
1.240000e-06	4.973105e-07	-5.034891e-10	3.570619e+00	-3.544858e+01
1.250000e-06	5.687005e-07	-4.427675e-10	4.083189e+00	-3.139712e+01
1.260000e-06	6.399757e-07	-3.783079e-10	4.594935e+00	-2.730667e+01
1.270000e-06	7.111273e-07	-3.105707e-10	5.105793e+00	-2.317668e+01
1.280000e-06	7.821899e-07	-2.481717e-10	5.616013e+00	-1.900615e+01
1.290000e-06	8.531718e-07	-1.857931e-10	6.125653e+00	-1.479370e+01
1.300000e-06	9.239337e-07	-1.194654e-10	6.633713e+00	-1.053768e+01
1.310000e-06	9.944874e-07	-5.296064e-11	7.140279e+00	-6.236304e+00
1.320000e-06	1.064865e-06	1.495480e-11	7.645578e+00	-1.887817e+00
1.330000e-06	1.135080e-06	8.214762e-11	8.149712e+00	2.509335e+00
1.340000e-06	1.205154e-06	1.493240e-10	8.652833e+00	6.956310e+00
1.350000e-06	1.274949e-06	2.168770e-10	9.153953e+00	1.145368e+01
1.360000e-06	1.344450e-06	2.856878e-10	9.652960e+00	1.600129e+01
1.370000e-06	1.413716e-06	3.586248e-10	1.015028e+01	2.059808e+01
1.380000e-06	1.482752e-06	4.292189e-10	1.064595e+01	2.524203e+01
1.390000e-06	1.551562e-06	4.992715e-10	1.113999e+01	2.993006e+01
1.400000e-06	1.620096e-06	5.711318e-10	1.163206e+01	3.465807e+01
1.410000e-06	1.688333e-06	6.469276e-10	1.212199e+01	3.942096e+01
1.420000e-06	1.756341e-06	7.246440e-10	1.261028e+01	4.421269e+01
1.430000e-06	1.824142e-06	7.947735e-10	1.309708e+01	4.902646e+01
1.440000e-06	1.891701e-06	8.642990e-10	1.358214e+01	5.385485e+01
1.450000e-06	1.958931e-06	9.369327e-10	1.406485e+01	5.869002e+01
1.460000e-06	2.025821e-06	1.011454e-09	1.454511e+01	6.352389e+01
1.470000e-06	2.092230e-06	1.084133e-09	1.502191e+01	6.834836e+01
1.480000e-06	2.157998e-06	1.154214e-09	1.549412e+01	7.315552e+01
1.490000e-06	2.223182e-06	1.226579e-09	1.596213e+01	7.793779e+01
1.500000e-06	2.287900e-06	1.301149e-09	1.642680e+01	8.268807e+01
1.510000e-06	2.352248e-06	1.374247e-09	1.688881e+01	8.739989e+01
1.520000e-06	2.416277e-06	1.443803e-09	1.734853e+01	9.206741e+01
1.530000e-06	2.479989e-06	1.511695e-09	1.780597e+01	9.668552e+01
1.540000e-06	2.543301e-06	1.582410e-09	1.826054e+01	1.012498e+02
1.550000e-06	2.606224e-06	1.652037e-09	1.871232e+01	1.057565e+02
1.560000e-06	2.668732e-06	1.719126e-09	1.916111e+01	1.102023e+02
1.570000e-06	2.730812e-06	1.784262e-09	1.960684e+01	1.145847e+02
1.580000e-06	2.792471e-06	1.850282e-09	2.004955e+01	1.189014e+02
1.590000e-06	2.853608e-06	1.916854e-09	2.048850e+01	1.231504e+02
1.600000e-06	2.914247e-06	1.978933e-09	2.092388e+01	1.273299e+02
1.610000e-06	2.974510e-06	2.039317e-09	2.135656e+01	1.314384e+02
1.620000e-06	3.034406e-06	2.100008e-09	2.178661e+01	1.354744e+02
1.630000e-06	3.093845e-06	2.159822e-09	2.221337e+01	1.394363e+02
1.640000e-06	3.152686e-06	2.217769e-09	2.263584e+01	1.433228e+02
1.650000e-06	3.210671e-06	2.273093e-09	2.305216e+01	1.471324e+02
1.660000e-06	3.267769e-06	2.330874e-09	2.346212e+01	1.508638e+02
1.670000e-06	3.324227e-06	2.388826e-09	2.386748e+01	1.545158e+02
1.680000e-06	3.380203e-06	2.442588e-09	2.426938e+01	1.580873e+02
1.690000e-06	3.435639e-06	2.493161e-09	2.466740e+01	1.615773e+02
1.700000e-06	3.490477e-06	2.543604e-09	2.506113e+01	1.649853e+02
1.710000e-06	3.544755e-06	2.594338e-09	2.545084e+01	1.683108e+02
1.720000e-06	3.598464e-06	2.641425e-09	2.583646e+01	1.715539e+02
1.730000e-06	3.651515e-06	2.687219e-09	2.621736e+01	1.747147e+02
1.740000e-06	3.703860e-06	2.733625e-09	2.659319e+01	1.777938e+02
1.750000e-06	3.755485e-06	2.778220e-09	2.696385e+01	1.807921e+02
1.760000e-06	3.806264e-06	2.820385e-09	2.732844e+01	1.837105e+02
1.770000e-06	3.856058e-06	2.860607e-09	2.768595e+01	1.865504e+02
1.780000e-06	3.904892e-06	2.900874e-09	2.803657e+01	1.893130e+02
1.790000e-06	3.953018e-06	2.941723e-09	2.838211e+01	1.919997e+02
1.800000e-06	4.000509e-06	2.978863e-09	2.872309e+01	1.946120e+02
1.810000e-06	4.047317e-06	3.013111e-09	2.905916e+01	1.971510e+02
1.820000e-06	4.093477e-06	3.048537e-09	2.939059e+01	1.996181e+02
1.830000e-06	4.138919e-06	3.084993e-09	2.971685e+01	2.020144e+02
1.840000e-06	4.183656e-06	3.117945e-09	3.003806e+01	2.043408e+02
1.850000e-06	4.227856e-06	3.147635e-09	3.035540e+01	2.065982e+02
1.860000e-06	4.271461e-06	3.177508e-09	3.066849e+01	2.087875e+02
1.870000e-06	4.314256e-06	3.209137e-09	3.097575e+01	2.109094e+02
1.880000e-06	4.356093e-06	3.239578e-09	3.127613e+01	2.129649e+02
1.890000e-06	4.396951e-06	3.266418e-09	3.156948e+01	2.149547e+02
1.900000e-06	4.437036e-06	3.293226e-09	3.185729e+01	2.168800e+02
1.910000e-06	4.476430e-06	3.321460e-09	3.214013e+01	2.187419e+02
1.920000e-06	4.515107e-06	3.349231e-09	3.241783e+01	2.205417e+02
1.930000e-06	4.553014e-06	3.374932e-09	3.268999e+01	2.222811e+02
1.940000e-06	4.590073e-06	3.396906e-09	3.295607e+01	2.239617e+02
1.950000e-06	4.626439e-06	3.418257e-09	3.321718e+01	2.255854e+02
1.960000e-06	4.662176e-06	3.441590e-09	3.347376e+01	2.271541e+02
1.970000e-06	4.697045e-06	3.464478e-09	3.372412e+01	2.286698e+02
1.980000e-06	4.730824e-06	3.484902e-09	3.396665e+01	2.301344e+02
1.990000e-06	4.763584e-06	3.504181e-09	3.420186e+01	2.315496e+02
2.000000e-06	4.795576e-06	3.524881e-09	3.443156e+01	2.329170e+02
2.010000e-06	4.826769e-06	3.544448e-09	3.465552e+01	2.342378e+02
2.020000e-06	4.857138e-06	3.561678e-09	3.487357e+01	2.355130e+02
2.030000e-06	4.886772e-06	3.578569e-09	3.508633e+01	2.367432e+02
2.040000e-06	4.915600e-06	3.595387e-09	3.529331e+01	2.379287e+02
2.050000e-06	4.943729e-06	3.612045e-09	3.549528e+01	2.390695e+02
2.060000e-06	4.971143e-06	3.627886e-09	3.569210e+01	2.401653e+02
2.070000e-06	4.997527e-06	3.644159e-09	3.588154e+01	2.412157e+02
2.080000e-06	5.022727e-06	3.660296e-09	3.606247e+01	2.422203e+02
2.090000e-06	5.046886e-06	3.673636e-09	3.623593e+01	2.431784e+02
2.100000e-06	5.070160e-06	3.685107e-09	3.640303e+01	2.440899e+02
2.110000e-06	5.092629e-06	3.697061e-09	3.656436e+01	2.449546e+02
2.120000e-06	5.114284e-06	3.709781e-09	3.671983e+01	2.457728e+02
2.130000e-06	5.135123e-06	3.721191e-09	3.686946e+01	2.465450e+02
2.140000e-06	5.155256e-06	3.731541e-09	3.701401e+01	2.472722e+02
2.150000e-06	5.174641e-06	3.741682e-09	3.715319e+01	2.479560e+02
2.160000e-06	5.193099e-06	3.752889e-09	3.728571e+01	2.485981e+02
2.170000e-06	5.210576e-06	3.764048e-09	3.741120e+01	2.492004e+02
2.180000e-06	5.227099e-06	3.773428e-09	3.752983e+01	2.497654e+02
2.190000e-06	5.242635e-06	3.781000e-09	3.764137e+01	2.502953e+02
2.200000e-06	5.257177e-06	3.788031e-09	3.774578e+01	2.507923e+02
2.210000e-06	5.270761e-06	3.795411e-09	3.784332e+01	2.512585e+02
2.220000e-06	5.283446e-06	3.802207e-09	3.793439e+01	2.516954e+02
2.230000e-06	5.295175e-06	3.808619e-09	3.801861e+01	2.521045e+02
2.240000e-06	5.305653e-06	3.813599e-09	3.809384e+01	2.524862e+02
2.250000e-06	5.314814e-06	3.819231e-09	3.815962e+01	2.528406e+02
2.260000e-06	5.322990e-06	3.826214e-09	3.821831e+01	2.531673e+02
2.270000e-06	5.330352e-06	3.834139e-09	3.827117e+01	2.534652e+02
2.280000e-06	5.336824e-06	3.839587e-09	3.831764e+01	2.537328e+02
2.290000e-06	5.342389e-06	3.841355e-09	3.835760e+01	2.539682e+02
2.300000e-06	5.347096e-06	3.843546e-09	3.839139e+01	2.541695e+02
2.310000e-06	5.351066e-06	3.849943e-09	3.841990e+01	2.543348e+02
2.320000e-06	5.354133e-06	3.856052e-09	3.844192e+01	2.544623e+02
2.330000e-06	5.355961e-06	3.857567e-09	3.845504e+01	2.545507e+02
2.340000e-06	5.356652e-06	3.857671e-09	3.846000e+01	2.545994e+02
2.350000e-06	5.356471e-06	3.860727e-09	3.845870e+01	2.546084e+02
2.360000e-06	5.355473e-06	3.863353e-09	3.845154e+01	2.545784e+02
2.370000e-06	5.353655e-06	3.863561e-09	3.843849e+01	2.545113e+02
2.380000e-06	5.350950e-06	3.862335e-09	3.841907e+01	2.544095e+02
2.390000e-06	5.347425e-06	3.860303e-09	3.839376e+01	2.542764e+02
2.400000e-06	5.343223e-06	3.859090e-09	3.836359e+01	2.541158e+02
2.410000e-06	5.338196e-06	3.859094e-09	3.832749e+01	2.539320e+02
2.420000e-06	5.332062e-06	3.860895e-09	3.828345e+01	2.537297e+02
2.430000e-06	5.324842e-06	3.829932e-09	3.823161e+01	2.535131e+02
2.440000e-06	5.316684e-06	3.832238e-09	3.817304e+01	2.532865e+02
2.450000e-06	5.307368e-06	3.845109e-09	3.810615e+01	2.530533e+02
2.460000e-06	5.296705e-06	3.882315e-09	3.802959e+01	2.528163e+02
2.470000e-06	5.285050e-06	3.822264e-09	3.794591e+01	2.525771e+02
2.480000e-06	5.273101e-06	3.749984e-09	3.786012e+01	2.523363e+02
2.490000e-06	5.260536e-06	3.841114e-09	3.776990e+01	2.520932e+02
2.500000e-06	5.246436e-06	3.875174e-09	3.766866e+01	2.518458e+02
2.510000e-06	5.231008e-06	3.772306e-09	3.755790e+01	2.515913e+02
2.520000e-06	5.214937e-06	3.842835e-09	3.744251e+01	2.513256e+02
2.530000e-06	5.198021e-06	3.855421e-09	3.732105e+01	2.510438e+02
2.540000e-06	5.179969e-06	3.702180e-09	3.719144e+01	2.507407e+02
2.550000e-06	5.161057e-06	3.875637e-09	3.705566e+01	2.504107e+02
2.560000e-06	5.141533e-06	3.973037e-09	3.691548e+01	2.500484e+02
2.570000e-06	5.121410e-06	3.786202e-09	3.677100e+01	2.496487e+02
2.580000e-06	5.100232e-06	3.808461e-09	3.661894e+01	2.492071e+02
2.590000e-06	5.077581e-06	3.933770e-09	3.645631e+01	2.487201e+02
2.600000e-06	5.053921e-06	3.795281e-09	3.628644e+01	2.481852e+02
2.610000e-06	5.029643e-06	3.757509e-09	3.611213e+01	2.476012e+02
2.620000e-06	5.004398e-06	3.822264e-09	3.593087e+01	2.469679e+02
2.630000e-06	4.978264e-06	3.714831e-09	3.574323e+01	2.462866e+02
2.640000e-06	4.951488e-06	3.756432e-09	3.555098e+01	2.455593e+02
2.650000e-06	4.923914e-06	3.776880e-09	3.535300e+01	2.447894e+02
2.660000e-06	4.895592e-06	3.708444e-09	3.514966e+01	2.439806e+02
2.670000e-06	4.866296e-06	3.769885e-09	3.493932e+01	2.431371e+02
2.680000e-06	4.835694e-06	3.631775e-09	3.471960e+01	2.422634e+02
2.690000e-06	4.804043e-06	3.628979e-09	3.449235e+01	2.413638e+02
2.700000e-06	4.771603e-06	3.794604e-09	3.425943e+01	2.404421e+02
2.710000e-06	4.738470e-06	3.664697e-09	3.402155e+01	2.395017e+02
2.720000e-06	4.704590e-06	3.569702e-09	3.377829e+01	2.385450e+02
2.730000e-06	4.669787e-06	3.584440e-09	3.352841e+01	2.375735e+02
2.740000e-06	4.634246e-06	3.640004e-09	3.327323e+01	2.365880e+02
2.750000e-06	4.598162e-06	3.669371e-09	3.301415e+01	2.355881e+02
2.760000e-06	4.561217e-06	3.528351e-09	3.274889e+01	2.345727e+02
2.770000e-06	4.523086e-06	3.506367e-09	3.247512e+01	2.335397e+02
2.780000e-06	4.483908e-06	3.551054e-09	3.219383e+01	2.324868e+02
2.790000e-06	4.444052e-06	3.552577e-09	3.190767e+01	2.314112e+02
2.800000e-06	4.403555e-06	3.544146e-09	3.161690e+01	2.303098e+02
2.810000e-06	4.362320e-06	3.451749e-09	3.132084e+01	2.291799e+02
2.820000e-06	4.320370e-06	3.445106e-09	3.101964e+01	2.280190e+02
2.830000e-06	4.277609e-06	3.462518e-09	3.071263e+01	2.268250e+02
2.840000e-06	4.234142e-06	3.459213e-09	3.040054e+01	2.255965e+02
2.850000e-06	4.190215e-06	3.446532e-09	3.008515e+01	2.243326e+02
2.860000e-06	4.145813e-06	3.356706e-09	2.976635e+01	2.230332e+02
2.870000e-06	4.100609e-06	3.349762e-09	2.944179e+01	2.216989e+02
2.880000e-06	4.054431e-06	3.375947e-09	2.911024e+01	2.203308e+02
2.890000e-06	4.007579e-06	3.350699e-09	2.877385e+01	2.189304e+02
2.900000e-06	3.960184e-06	3.313120e-09	2.843356e+01	2.174994e+02
2.910000e-06	3.911925e-06	3.266184e-09	2.808707e+01	2.160399e+02
2.920000e-06	3.862732e-06	3.268661e-09	2.773387e+01	2.145535e+02
2.930000e-06	3.812799e-06	3.255549e-09	2.737536e+01	2.130418e+02
2.940000e-06	3.762214e-06	3.234287e-09	2.701216e+01	2.115060e+02
