# Temperatura_=_20.0
# Concentracion g/m^3_=_12600.0
# C_Vs_to_Am_M_A/Vsm_=_65563218390.804596
# pendiente_HvsI_1/m_=_3716.3
# ordenada_HvsI_A/m_=_1297.0
# frecuencia_Hz_=_135173.5766357047

Tiempo_(s)	Campo_(V.s)	Magnetizacion_(V.s)	Campo_(kA/m)	Magnetizacion_(A/m)
0.000000e+00	-5.161844e-06	-4.867830e-09	-3.844720e+01	-3.159180e+02
1.000000e-08	-5.161939e-06	-4.866517e-09	-3.844791e+01	-3.159387e+02
2.000000e-08	-5.161827e-06	-4.866273e-09	-3.844708e+01	-3.159472e+02
3.000000e-08	-5.161472e-06	-4.865991e-09	-3.844443e+01	-3.159427e+02
4.000000e-08	-5.160712e-06	-4.864310e-09	-3.843877e+01	-3.159242e+02
5.000000e-08	-5.159400e-06	-4.857593e-09	-3.842900e+01	-3.158903e+02
6.000000e-08	-5.157457e-06	-4.839322e-09	-3.841453e+01	-3.158397e+02
7.000000e-08	-5.154907e-06	-4.832041e-09	-3.839553e+01	-3.157708e+02
8.000000e-08	-5.151776e-06	-4.896618e-09	-3.837221e+01	-3.156820e+02
9.000000e-08	-5.148152e-06	-4.958156e-09	-3.834522e+01	-3.155716e+02
1.000000e-07	-5.144207e-06	-4.852051e-09	-3.831584e+01	-3.154380e+02
1.100000e-07	-5.140097e-06	-4.722452e-09	-3.828523e+01	-3.152795e+02
1.200000e-07	-5.135828e-06	-4.751938e-09	-3.825342e+01	-3.150947e+02
1.300000e-07	-5.131258e-06	-4.930121e-09	-3.821939e+01	-3.148823e+02
1.400000e-07	-5.126271e-06	-4.967863e-09	-3.818225e+01	-3.146411e+02
1.500000e-07	-5.120980e-06	-4.778711e-09	-3.814283e+01	-3.143702e+02
1.600000e-07	-5.115390e-06	-4.693003e-09	-3.810119e+01	-3.140691e+02
1.700000e-07	-5.109374e-06	-4.747338e-09	-3.805639e+01	-3.137374e+02
1.800000e-07	-5.102902e-06	-4.929610e-09	-3.800818e+01	-3.133754e+02
1.900000e-07	-5.096201e-06	-4.913994e-09	-3.795827e+01	-3.129832e+02
2.000000e-07	-5.089370e-06	-4.797933e-09	-3.790739e+01	-3.125619e+02
2.100000e-07	-5.082071e-06	-4.669692e-09	-3.785303e+01	-3.121124e+02
2.200000e-07	-5.074315e-06	-4.780822e-09	-3.779525e+01	-3.116363e+02
2.300000e-07	-5.066406e-06	-4.890021e-09	-3.773635e+01	-3.111353e+02
2.400000e-07	-5.058301e-06	-4.795077e-09	-3.767598e+01	-3.106116e+02
2.500000e-07	-5.049560e-06	-4.601461e-09	-3.761088e+01	-3.100675e+02
2.600000e-07	-5.040077e-06	-4.657829e-09	-3.754024e+01	-3.095056e+02
2.700000e-07	-5.030320e-06	-4.860251e-09	-3.746757e+01	-3.089285e+02
2.800000e-07	-5.020319e-06	-4.794552e-09	-3.739308e+01	-3.083391e+02
2.900000e-07	-5.009673e-06	-4.572948e-09	-3.731378e+01	-3.077402e+02
3.000000e-07	-4.998415e-06	-4.597159e-09	-3.722993e+01	-3.071347e+02
3.100000e-07	-4.986826e-06	-4.804608e-09	-3.714361e+01	-3.065253e+02
3.200000e-07	-4.974904e-06	-4.726280e-09	-3.705481e+01	-3.059146e+02
3.300000e-07	-4.962497e-06	-4.539992e-09	-3.696240e+01	-3.053051e+02
3.400000e-07	-4.949756e-06	-4.612714e-09	-3.686750e+01	-3.046989e+02
3.500000e-07	-4.936728e-06	-4.780196e-09	-3.677046e+01	-3.040980e+02
3.600000e-07	-4.923290e-06	-4.641187e-09	-3.667037e+01	-3.035037e+02
3.700000e-07	-4.909496e-06	-4.566793e-09	-3.656763e+01	-3.029174e+02
3.800000e-07	-4.895364e-06	-4.632265e-09	-3.646237e+01	-3.023398e+02
3.900000e-07	-4.880788e-06	-4.683443e-09	-3.635380e+01	-3.017712e+02
4.000000e-07	-4.865601e-06	-4.590563e-09	-3.624068e+01	-3.012117e+02
4.100000e-07	-4.849943e-06	-4.594662e-09	-3.612406e+01	-3.006609e+02
4.200000e-07	-4.833926e-06	-4.572907e-09	-3.600476e+01	-3.001179e+02
4.300000e-07	-4.817387e-06	-4.557142e-09	-3.588157e+01	-2.995815e+02
4.400000e-07	-4.800494e-06	-4.589772e-09	-3.575575e+01	-2.990504e+02
4.500000e-07	-4.783348e-06	-4.617160e-09	-3.562803e+01	-2.985228e+02
4.600000e-07	-4.765991e-06	-4.497239e-09	-3.549875e+01	-2.979965e+02
4.700000e-07	-4.748411e-06	-4.452433e-09	-3.536781e+01	-2.974695e+02
4.800000e-07	-4.730437e-06	-4.572473e-09	-3.523393e+01	-2.969395e+02
4.900000e-07	-4.712147e-06	-4.624753e-09	-3.509770e+01	-2.964041e+02
5.000000e-07	-4.693454e-06	-4.486926e-09	-3.495847e+01	-2.958608e+02
5.100000e-07	-4.674321e-06	-4.385831e-09	-3.481596e+01	-2.953074e+02
5.200000e-07	-4.654837e-06	-4.472939e-09	-3.467084e+01	-2.947417e+02
5.300000e-07	-4.635104e-06	-4.563166e-09	-3.452386e+01	-2.941615e+02
5.400000e-07	-4.615241e-06	-4.498074e-09	-3.437591e+01	-2.935649e+02
5.500000e-07	-4.595191e-06	-4.369524e-09	-3.422658e+01	-2.929504e+02
5.600000e-07	-4.574880e-06	-4.378772e-09	-3.407529e+01	-2.923165e+02
5.700000e-07	-4.554243e-06	-4.459491e-09	-3.392158e+01	-2.916623e+02
5.800000e-07	-4.533247e-06	-4.481748e-09	-3.376519e+01	-2.909869e+02
5.900000e-07	-4.511909e-06	-4.409016e-09	-3.360626e+01	-2.902898e+02
6.000000e-07	-4.490275e-06	-4.342237e-09	-3.344512e+01	-2.895711e+02
6.100000e-07	-4.468405e-06	-4.322629e-09	-3.328223e+01	-2.888308e+02
6.200000e-07	-4.446257e-06	-4.386785e-09	-3.311726e+01	-2.880694e+02
6.300000e-07	-4.423812e-06	-4.414897e-09	-3.295009e+01	-2.872876e+02
6.400000e-07	-4.401020e-06	-4.336269e-09	-3.278032e+01	-2.864865e+02
6.500000e-07	-4.377832e-06	-4.234766e-09	-3.260761e+01	-2.856670e+02
6.600000e-07	-4.354333e-06	-4.275649e-09	-3.243258e+01	-2.848306e+02
6.700000e-07	-4.330604e-06	-4.361625e-09	-3.225584e+01	-2.839787e+02
6.800000e-07	-4.306723e-06	-4.339547e-09	-3.207797e+01	-2.831125e+02
6.900000e-07	-4.282656e-06	-4.223031e-09	-3.189870e+01	-2.822337e+02
7.000000e-07	-4.258358e-06	-4.189168e-09	-3.171773e+01	-2.813436e+02
7.100000e-07	-4.233729e-06	-4.256918e-09	-3.153428e+01	-2.804435e+02
7.200000e-07	-4.208696e-06	-4.299323e-09	-3.134783e+01	-2.795347e+02
7.300000e-07	-4.183198e-06	-4.223112e-09	-3.115791e+01	-2.786182e+02
7.400000e-07	-4.157212e-06	-4.134174e-09	-3.096435e+01	-2.776948e+02
7.500000e-07	-4.130867e-06	-4.142981e-09	-3.076813e+01	-2.767652e+02
7.600000e-07	-4.104030e-06	-4.207450e-09	-3.056824e+01	-2.758299e+02
7.700000e-07	-4.076702e-06	-4.198974e-09	-3.036469e+01	-2.748890e+02
7.800000e-07	-4.049106e-06	-4.116993e-09	-3.015915e+01	-2.739425e+02
7.900000e-07	-4.021349e-06	-4.074138e-09	-2.995240e+01	-2.729901e+02
8.000000e-07	-3.993486e-06	-4.108515e-09	-2.974487e+01	-2.720314e+02
8.100000e-07	-3.965470e-06	-4.134002e-09	-2.953619e+01	-2.710657e+02
8.200000e-07	-3.937152e-06	-4.086612e-09	-2.932527e+01	-2.700921e+02
8.300000e-07	-3.908521e-06	-4.026046e-09	-2.911202e+01	-2.691097e+02
8.400000e-07	-3.879608e-06	-4.016812e-09	-2.889667e+01	-2.681173e+02
8.500000e-07	-3.850405e-06	-4.042978e-09	-2.867915e+01	-2.671137e+02
8.600000e-07	-3.820953e-06	-4.037282e-09	-2.845978e+01	-2.660978e+02
8.700000e-07	-3.791289e-06	-3.994209e-09	-2.823884e+01	-2.650684e+02
8.800000e-07	-3.761394e-06	-3.956992e-09	-2.801617e+01	-2.640241e+02
8.900000e-07	-3.731220e-06	-3.959137e-09	-2.779142e+01	-2.629640e+02
9.000000e-07	-3.700815e-06	-3.963269e-09	-2.756496e+01	-2.618870e+02
9.100000e-07	-3.670130e-06	-3.938289e-09	-2.733640e+01	-2.607922e+02
9.200000e-07	-3.639133e-06	-3.895883e-09	-2.710553e+01	-2.596788e+02
9.300000e-07	-3.607957e-06	-3.874444e-09	-2.687331e+01	-2.585462e+02
9.400000e-07	-3.576624e-06	-3.866546e-09	-2.663994e+01	-2.573941e+02
9.500000e-07	-3.545042e-06	-3.856095e-09	-2.640470e+01	-2.562221e+02
9.600000e-07	-3.513245e-06	-3.832860e-09	-2.616787e+01	-2.550302e+02
9.700000e-07	-3.481344e-06	-3.809543e-09	-2.593026e+01	-2.538185e+02
9.800000e-07	-3.449299e-06	-3.784520e-09	-2.569157e+01	-2.525872e+02
9.900000e-07	-3.417050e-06	-3.765701e-09	-2.545137e+01	-2.513366e+02
1.000000e-06	-3.384502e-06	-3.753304e-09	-2.520895e+01	-2.500674e+02
1.010000e-06	-3.351577e-06	-3.739665e-09	-2.496371e+01	-2.487799e+02
1.020000e-06	-3.318341e-06	-3.710062e-09	-2.471615e+01	-2.474749e+02
1.030000e-06	-3.284788e-06	-3.676615e-09	-2.446624e+01	-2.461530e+02
1.040000e-06	-3.250815e-06	-3.657930e-09	-2.421320e+01	-2.448148e+02
1.050000e-06	-3.216413e-06	-3.649355e-09	-2.395696e+01	-2.434611e+02
1.060000e-06	-3.181629e-06	-3.626512e-09	-2.369788e+01	-2.420922e+02
1.070000e-06	-3.146487e-06	-3.588101e-09	-2.343613e+01	-2.407089e+02
1.080000e-06	-3.111069e-06	-3.560002e-09	-2.317232e+01	-2.393113e+02
1.090000e-06	-3.075454e-06	-3.552370e-09	-2.290705e+01	-2.378998e+02
1.100000e-06	-3.039678e-06	-3.542470e-09	-2.264057e+01	-2.364744e+02
1.110000e-06	-3.003792e-06	-3.511101e-09	-2.237329e+01	-2.350352e+02
1.120000e-06	-2.967827e-06	-3.475234e-09	-2.210540e+01	-2.335820e+02
1.130000e-06	-2.931758e-06	-3.452555e-09	-2.183675e+01	-2.321145e+02
1.140000e-06	-2.895575e-06	-3.438318e-09	-2.156725e+01	-2.306322e+02
1.150000e-06	-2.859243e-06	-3.414048e-09	-2.129663e+01	-2.291345e+02
1.160000e-06	-2.822750e-06	-3.380239e-09	-2.102482e+01	-2.276208e+02
1.170000e-06	-2.786064e-06	-3.349916e-09	-2.075157e+01	-2.260902e+02
1.180000e-06	-2.749133e-06	-3.331711e-09	-2.047650e+01	-2.245421e+02
1.190000e-06	-2.711913e-06	-3.315528e-09	-2.019926e+01	-2.229754e+02
1.200000e-06	-2.674444e-06	-3.292654e-09	-1.992019e+01	-2.213895e+02
1.210000e-06	-2.636803e-06	-3.263771e-09	-1.963982e+01	-2.197833e+02
1.220000e-06	-2.598982e-06	-3.236128e-09	-1.935812e+01	-2.181563e+02
1.230000e-06	-2.561021e-06	-3.210457e-09	-1.907537e+01	-2.165076e+02
1.240000e-06	-2.522912e-06	-3.184889e-09	-1.879152e+01	-2.148367e+02
1.250000e-06	-2.484595e-06	-3.154323e-09	-1.850612e+01	-2.131432e+02
1.260000e-06	-2.446120e-06	-3.123100e-09	-1.821955e+01	-2.114268e+02
1.270000e-06	-2.407560e-06	-3.092680e-09	-1.793234e+01	-2.096872e+02
1.280000e-06	-2.368843e-06	-3.066481e-09	-1.764396e+01	-2.079246e+02
1.290000e-06	-2.329894e-06	-3.042342e-09	-1.735386e+01	-2.061392e+02
1.300000e-06	-2.290757e-06	-3.016112e-09	-1.706236e+01	-2.043312e+02
1.310000e-06	-2.251524e-06	-2.983549e-09	-1.677013e+01	-2.025012e+02
1.320000e-06	-2.212119e-06	-2.950278e-09	-1.647663e+01	-2.006500e+02
1.330000e-06	-2.172547e-06	-2.922151e-09	-1.618188e+01	-1.987782e+02
1.340000e-06	-2.132864e-06	-2.895607e-09	-1.588631e+01	-1.968868e+02
1.350000e-06	-2.093091e-06	-2.863195e-09	-1.559007e+01	-1.949768e+02
1.360000e-06	-2.053234e-06	-2.827724e-09	-1.529320e+01	-1.930492e+02
1.370000e-06	-2.013288e-06	-2.797430e-09	-1.499567e+01	-1.911051e+02
1.380000e-06	-1.973287e-06	-2.773528e-09	-1.469772e+01	-1.891455e+02
1.390000e-06	-1.933176e-06	-2.749003e-09	-1.439897e+01	-1.871713e+02
1.400000e-06	-1.892940e-06	-2.717417e-09	-1.409928e+01	-1.851836e+02
1.410000e-06	-1.852612e-06	-2.683635e-09	-1.379890e+01	-1.831830e+02
1.420000e-06	-1.812170e-06	-2.655023e-09	-1.349767e+01	-1.811703e+02
1.430000e-06	-1.771647e-06	-2.629158e-09	-1.319584e+01	-1.791459e+02
1.440000e-06	-1.730991e-06	-2.597816e-09	-1.289302e+01	-1.771103e+02
1.450000e-06	-1.690089e-06	-2.562306e-09	-1.258837e+01	-1.750634e+02
1.460000e-06	-1.649005e-06	-2.528247e-09	-1.228236e+01	-1.730054e+02
1.470000e-06	-1.607693e-06	-2.499362e-09	-1.197466e+01	-1.709359e+02
1.480000e-06	-1.566182e-06	-2.472000e-09	-1.166547e+01	-1.688544e+02
1.490000e-06	-1.524574e-06	-2.445127e-09	-1.135556e+01	-1.667603e+02
1.500000e-06	-1.482793e-06	-2.413556e-09	-1.104436e+01	-1.646528e+02
1.510000e-06	-1.440777e-06	-2.378489e-09	-1.073141e+01	-1.625310e+02
1.520000e-06	-1.398600e-06	-2.344824e-09	-1.041726e+01	-1.603936e+02
1.530000e-06	-1.356215e-06	-2.314813e-09	-1.010156e+01	-1.582395e+02
1.540000e-06	-1.313667e-06	-2.281900e-09	-9.784645e+00	-1.560673e+02
1.550000e-06	-1.270995e-06	-2.243855e-09	-9.466812e+00	-1.538758e+02
1.560000e-06	-1.228149e-06	-2.205645e-09	-9.147676e+00	-1.516636e+02
1.570000e-06	-1.185272e-06	-2.172502e-09	-8.828317e+00	-1.494294e+02
1.580000e-06	-1.142272e-06	-2.140454e-09	-8.508036e+00	-1.471719e+02
1.590000e-06	-1.099067e-06	-2.105249e-09	-8.186234e+00	-1.448899e+02
1.600000e-06	-1.055771e-06	-2.067736e-09	-7.863748e+00	-1.425823e+02
1.610000e-06	-1.012442e-06	-2.032492e-09	-7.541019e+00	-1.402484e+02
1.620000e-06	-9.690243e-07	-2.000096e-09	-7.217629e+00	-1.378872e+02
1.630000e-06	-9.255216e-07	-1.965439e-09	-6.893606e+00	-1.354983e+02
1.640000e-06	-8.819550e-07	-1.924695e-09	-6.569107e+00	-1.330812e+02
1.650000e-06	-8.383254e-07	-1.881324e-09	-6.244138e+00	-1.306357e+02
1.660000e-06	-7.947160e-07	-1.841467e-09	-5.919321e+00	-1.281619e+02
1.670000e-06	-7.510816e-07	-1.805352e-09	-5.594316e+00	-1.256599e+02
1.680000e-06	-7.073485e-07	-1.768077e-09	-5.268577e+00	-1.231301e+02
1.690000e-06	-6.635798e-07	-1.727976e-09	-4.942573e+00	-1.205731e+02
1.700000e-06	-6.197755e-07	-1.690435e-09	-4.616303e+00	-1.179895e+02
1.710000e-06	-5.759572e-07	-1.655336e-09	-4.289929e+00	-1.153801e+02
1.720000e-06	-5.321443e-07	-1.617044e-09	-3.963595e+00	-1.127459e+02
1.730000e-06	-4.882799e-07	-1.573768e-09	-3.636878e+00	-1.100877e+02
1.740000e-06	-4.444081e-07	-1.531169e-09	-3.310105e+00	-1.074066e+02
1.750000e-06	-4.005631e-07	-1.491565e-09	-2.983533e+00	-1.047036e+02
1.760000e-06	-3.567041e-07	-1.452186e-09	-2.656855e+00	-1.019796e+02
1.770000e-06	-3.128230e-07	-1.410425e-09	-2.330014e+00	-9.923558e+01
1.780000e-06	-2.689291e-07	-1.368777e-09	-2.003077e+00	-9.647238e+01
1.790000e-06	-2.249965e-07	-1.325292e-09	-1.675852e+00	-9.369074e+01
1.800000e-06	-1.810657e-07	-1.281945e-09	-1.348640e+00	-9.089128e+01
1.810000e-06	-1.371697e-07	-1.239562e-09	-1.021687e+00	-8.807450e+01
1.820000e-06	-9.326912e-08	-1.198175e-09	-6.947007e-01	-8.524075e+01
1.830000e-06	-4.932973e-08	-1.156716e-09	-3.674249e-01	-8.239021e+01
1.840000e-06	-5.408721e-09	-1.114211e-09	-4.028603e-02	-7.952294e+01
1.850000e-06	3.849634e-08	-1.071131e-09	2.867340e-01	-7.663882e+01
1.860000e-06	8.240948e-08	-1.026213e-09	6.138144e-01	-7.373763e+01
1.870000e-06	1.262986e-07	-9.820924e-10	9.407156e-01	-7.081897e+01
1.880000e-06	1.701913e-07	-9.408524e-10	1.267644e+00	-6.788239e+01
1.890000e-06	2.140948e-07	-9.001180e-10	1.594652e+00	-6.492729e+01
1.900000e-06	2.580146e-07	-8.578626e-10	1.921782e+00	-6.195305e+01
1.910000e-06	3.019606e-07	-8.154282e-10	2.249107e+00	-5.895897e+01
1.920000e-06	3.458970e-07	-7.739564e-10	2.576361e+00	-5.594435e+01
1.930000e-06	3.898041e-07	-7.302947e-10	2.903396e+00	-5.290849e+01
1.940000e-06	4.337047e-07	-6.824092e-10	3.230383e+00	-4.985070e+01
1.950000e-06	4.776231e-07	-6.336246e-10	3.557502e+00	-4.677036e+01
1.960000e-06	5.215232e-07	-5.886788e-10	3.884486e+00	-4.366693e+01
1.970000e-06	5.653468e-07	-5.442643e-10	4.210899e+00	-4.053992e+01
1.980000e-06	6.091356e-07	-4.960164e-10	4.537053e+00	-3.738900e+01
1.990000e-06	6.528971e-07	-4.493767e-10	4.863004e+00	-3.421392e+01
2.000000e-06	6.966330e-07	-4.070744e-10	5.188764e+00	-3.101457e+01
2.010000e-06	7.403728e-07	-3.639307e-10	5.514553e+00	-2.779096e+01
2.020000e-06	7.841178e-07	-3.157280e-10	5.840382e+00	-2.454323e+01
2.030000e-06	8.278090e-07	-2.636071e-10	6.165808e+00	-2.127167e+01
2.040000e-06	8.714217e-07	-2.120496e-10	6.490651e+00	-1.797667e+01
2.050000e-06	9.149202e-07	-1.626082e-10	6.814643e+00	-1.465872e+01
2.060000e-06	9.583260e-07	-1.141772e-10	7.137944e+00	-1.131842e+01
2.070000e-06	1.001693e-06	-6.563429e-11	7.460959e+00	-7.956473e+00
2.080000e-06	1.045023e-06	-1.589497e-11	7.783690e+00	-4.573610e+00
2.090000e-06	1.088250e-06	3.278385e-11	8.105662e+00	-1.170631e+00
2.100000e-06	1.131376e-06	8.115357e-11	8.426880e+00	2.251636e+00
2.110000e-06	1.174473e-06	1.298671e-10	8.747884e+00	5.692350e+00
2.120000e-06	1.217434e-06	1.793331e-10	9.067873e+00	9.150672e+00
2.130000e-06	1.260224e-06	2.301439e-10	9.386582e+00	1.262578e+01
2.140000e-06	1.302790e-06	2.816295e-10	9.703634e+00	1.611688e+01
2.150000e-06	1.345174e-06	3.349781e-10	1.001932e+01	1.962322e+01
2.160000e-06	1.387465e-06	3.873015e-10	1.033432e+01	2.314408e+01
2.170000e-06	1.429554e-06	4.372760e-10	1.064782e+01	2.667882e+01
2.180000e-06	1.471468e-06	4.900280e-10	1.096000e+01	3.022680e+01
2.190000e-06	1.513208e-06	5.447126e-10	1.127089e+01	3.378748e+01
2.200000e-06	1.554643e-06	5.964719e-10	1.157952e+01	3.736031e+01
2.210000e-06	1.595913e-06	6.462849e-10	1.188691e+01	4.094480e+01
2.220000e-06	1.637015e-06	6.999505e-10	1.219305e+01	4.454048e+01
2.230000e-06	1.677887e-06	7.545646e-10	1.249748e+01	4.814685e+01
2.240000e-06	1.718638e-06	8.059412e-10	1.280101e+01	5.176343e+01
2.250000e-06	1.759240e-06	8.569180e-10	1.310343e+01	5.538970e+01
2.260000e-06	1.799677e-06	9.114541e-10	1.340461e+01	5.902508e+01
2.270000e-06	1.839982e-06	9.674724e-10	1.370483e+01	6.266896e+01
2.280000e-06	1.880158e-06	1.021825e-09	1.400407e+01	6.632060e+01
2.290000e-06	1.920254e-06	1.075153e-09	1.430272e+01	6.997921e+01
2.300000e-06	1.960295e-06	1.128787e-09	1.460096e+01	7.364385e+01
2.310000e-06	2.000261e-06	1.182282e-09	1.489864e+01	7.731349e+01
2.320000e-06	2.040149e-06	1.235071e-09	1.519574e+01	8.098695e+01
2.330000e-06	2.079950e-06	1.286831e-09	1.549219e+01	8.466293e+01
2.340000e-06	2.119672e-06	1.339113e-09	1.578805e+01	8.833997e+01
2.350000e-06	2.159295e-06	1.392580e-09	1.608318e+01	9.201651e+01
2.360000e-06	2.198829e-06	1.445936e-09	1.637764e+01	9.569084e+01
2.370000e-06	2.238176e-06	1.499134e-09	1.667071e+01	9.936113e+01
2.380000e-06	2.277369e-06	1.553920e-09	1.696263e+01	1.030255e+02
2.390000e-06	2.316513e-06	1.608428e-09	1.725419e+01	1.066818e+02
2.400000e-06	2.355393e-06	1.660687e-09	1.754378e+01	1.103281e+02
2.410000e-06	2.393978e-06	1.713176e-09	1.783118e+01	1.139621e+02
2.420000e-06	2.432498e-06	1.765367e-09	1.811809e+01	1.175817e+02
2.430000e-06	2.470902e-06	1.819499e-09	1.840414e+01	1.211848e+02
2.440000e-06	2.509056e-06	1.875731e-09	1.868832e+01	1.247691e+02
2.450000e-06	2.547026e-06	1.930673e-09	1.897113e+01	1.283325e+02
2.460000e-06	2.584884e-06	1.983406e-09	1.925311e+01	1.318729e+02
2.470000e-06	2.622603e-06	2.035947e-09	1.953405e+01	1.353883e+02
2.480000e-06	2.660096e-06	2.087635e-09	1.981332e+01	1.388769e+02
2.490000e-06	2.697366e-06	2.137735e-09	2.009092e+01	1.423368e+02
2.500000e-06	2.734440e-06	2.182159e-09	2.036705e+01	1.457664e+02
2.510000e-06	2.771319e-06	2.227870e-09	2.064174e+01	1.491642e+02
2.520000e-06	2.807959e-06	2.276040e-09	2.091465e+01	1.525287e+02
2.530000e-06	2.844364e-06	2.325645e-09	2.118581e+01	1.558589e+02
2.540000e-06	2.880597e-06	2.373973e-09	2.145568e+01	1.591534e+02
2.550000e-06	2.916702e-06	2.420105e-09	2.172461e+01	1.624116e+02
2.560000e-06	2.952687e-06	2.466016e-09	2.199264e+01	1.656324e+02
2.570000e-06	2.988570e-06	2.512744e-09	2.225991e+01	1.688154e+02
2.580000e-06	3.024379e-06	2.559603e-09	2.252662e+01	1.719599e+02
2.590000e-06	3.060108e-06	2.603678e-09	2.279274e+01	1.750655e+02
2.600000e-06	3.095707e-06	2.644567e-09	2.305790e+01	1.781318e+02
2.610000e-06	3.131108e-06	2.687064e-09	2.332158e+01	1.811587e+02
2.620000e-06	3.166162e-06	2.732010e-09	2.358268e+01	1.841459e+02
2.630000e-06	3.200831e-06	2.773891e-09	2.384090e+01	1.870933e+02
2.640000e-06	3.235077e-06	2.814191e-09	2.409598e+01	1.900009e+02
2.650000e-06	3.268830e-06	2.854953e-09	2.434738e+01	1.928685e+02
2.660000e-06	3.302234e-06	2.899421e-09	2.459618e+01	1.956961e+02
2.670000e-06	3.335330e-06	2.942560e-09	2.484270e+01	1.984838e+02
2.680000e-06	3.368075e-06	2.982825e-09	2.508659e+01	2.012314e+02
2.690000e-06	3.400583e-06	3.020930e-09	2.532872e+01	2.039390e+02
2.700000e-06	3.432881e-06	3.060826e-09	2.556929e+01	2.066065e+02
2.710000e-06	3.464982e-06	3.098914e-09	2.580838e+01	2.092340e+02
2.720000e-06	3.496986e-06	3.134273e-09	2.604676e+01	2.118214e+02
2.730000e-06	3.528863e-06	3.169797e-09	2.628420e+01	2.143687e+02
2.740000e-06	3.560563e-06	3.206672e-09	2.652031e+01	2.168759e+02
2.750000e-06	3.592045e-06	3.242491e-09	2.675479e+01	2.193431e+02
2.760000e-06	3.623297e-06	3.276654e-09	2.698757e+01	2.217702e+02
2.770000e-06	3.654211e-06	3.310473e-09	2.721783e+01	2.241575e+02
2.780000e-06	3.684763e-06	3.344600e-09	2.744539e+01	2.265049e+02
2.790000e-06	3.715142e-06	3.377820e-09	2.767167e+01	2.288127e+02
2.800000e-06	3.745375e-06	3.410952e-09	2.789685e+01	2.310812e+02
2.810000e-06	3.775330e-06	3.443322e-09	2.811996e+01	2.333105e+02
2.820000e-06	3.804995e-06	3.474223e-09	2.834092e+01	2.355011e+02
2.830000e-06	3.834375e-06	3.505682e-09	2.855975e+01	2.376534e+02
2.840000e-06	3.863474e-06	3.536748e-09	2.877650e+01	2.397678e+02
2.850000e-06	3.892342e-06	3.569650e-09	2.899151e+01	2.418449e+02
2.860000e-06	3.920930e-06	3.602240e-09	2.920445e+01	2.438851e+02
2.870000e-06	3.949241e-06	3.631155e-09	2.941532e+01	2.458893e+02
2.880000e-06	3.977365e-06	3.658546e-09	2.962479e+01	2.478579e+02
2.890000e-06	4.005372e-06	3.688905e-09	2.983340e+01	2.497917e+02
2.900000e-06	4.033277e-06	3.719367e-09	3.004125e+01	2.516912e+02
