# Temperatura_=_20.0
# Concentracion g/m^3_=_12600.0
# C_Vs_to_Am_M_A/Vsm_=_65563218390.804596
# pendiente_HvsI_1/m_=_3716.3
# ordenada_HvsI_A/m_=_1297.0
# frecuencia_Hz_=_135168.36097353647

Tiempo_(s)	Campo_(V.s)	Magnetizacion_(V.s)	Campo_(kA/m)	Magnetizacion_(A/m)
0.000000e+00	-5.172193e-06	-4.569066e-09	-3.844521e+01	-3.007477e+02
1.000000e-08	-5.172420e-06	-4.567555e-09	-3.844690e+01	-3.007037e+02
2.000000e-08	-5.172529e-06	-4.566935e-09	-3.844771e+01	-3.006259e+02
3.000000e-08	-5.172389e-06	-4.565442e-09	-3.844667e+01	-3.005157e+02
4.000000e-08	-5.171846e-06	-4.563697e-09	-3.844264e+01	-3.003758e+02
5.000000e-08	-5.170814e-06	-4.561576e-09	-3.843497e+01	-3.002090e+02
6.000000e-08	-5.169210e-06	-4.558843e-09	-3.842304e+01	-3.000192e+02
7.000000e-08	-5.167082e-06	-4.548872e-09	-3.840723e+01	-2.998107e+02
8.000000e-08	-5.164419e-06	-4.528253e-09	-3.838743e+01	-2.995887e+02
9.000000e-08	-5.161133e-06	-4.537770e-09	-3.836301e+01	-2.993584e+02
1.000000e-07	-5.157431e-06	-4.607521e-09	-3.833549e+01	-2.991257e+02
1.100000e-07	-5.153454e-06	-4.596304e-09	-3.830593e+01	-2.988967e+02
1.200000e-07	-5.149226e-06	-4.470101e-09	-3.827450e+01	-2.986776e+02
1.300000e-07	-5.144865e-06	-4.441053e-09	-3.824208e+01	-2.984746e+02
1.400000e-07	-5.140196e-06	-4.536088e-09	-3.820738e+01	-2.982939e+02
1.500000e-07	-5.135028e-06	-4.614339e-09	-3.816897e+01	-2.981411e+02
1.600000e-07	-5.129446e-06	-4.527641e-09	-3.812747e+01	-2.980218e+02
1.700000e-07	-5.123661e-06	-4.411901e-09	-3.808447e+01	-2.979406e+02
1.800000e-07	-5.117613e-06	-4.446319e-09	-3.803952e+01	-2.979017e+02
1.900000e-07	-5.110972e-06	-4.489042e-09	-3.799015e+01	-2.979085e+02
2.000000e-07	-5.103993e-06	-4.554823e-09	-3.793828e+01	-2.979635e+02
2.100000e-07	-5.096930e-06	-4.500942e-09	-3.788578e+01	-2.980681e+02
2.200000e-07	-5.089489e-06	-4.445262e-09	-3.783047e+01	-2.982228e+02
2.300000e-07	-5.081607e-06	-4.426251e-09	-3.777188e+01	-2.984271e+02
2.400000e-07	-5.073569e-06	-4.547196e-09	-3.771214e+01	-2.986792e+02
2.500000e-07	-5.065376e-06	-4.605383e-09	-3.765124e+01	-2.989765e+02
2.600000e-07	-5.056475e-06	-4.540281e-09	-3.758508e+01	-2.993152e+02
2.700000e-07	-5.046612e-06	-4.504377e-09	-3.751176e+01	-2.996906e+02
2.800000e-07	-5.036480e-06	-4.619530e-09	-3.743645e+01	-3.000972e+02
2.900000e-07	-5.026190e-06	-4.703124e-09	-3.735996e+01	-3.005284e+02
3.000000e-07	-5.015210e-06	-4.647918e-09	-3.727835e+01	-3.009774e+02
3.100000e-07	-5.003645e-06	-4.629522e-09	-3.719238e+01	-3.014364e+02
3.200000e-07	-4.991823e-06	-4.708465e-09	-3.710451e+01	-3.018975e+02
3.300000e-07	-4.979747e-06	-4.694809e-09	-3.701475e+01	-3.023524e+02
3.400000e-07	-4.967247e-06	-4.638995e-09	-3.692184e+01	-3.027930e+02
3.500000e-07	-4.954340e-06	-4.778066e-09	-3.682590e+01	-3.032110e+02
3.600000e-07	-4.941162e-06	-4.827109e-09	-3.672794e+01	-3.035984e+02
3.700000e-07	-4.927552e-06	-4.611617e-09	-3.662678e+01	-3.039478e+02
3.800000e-07	-4.913608e-06	-4.518677e-09	-3.652314e+01	-3.042520e+02
3.900000e-07	-4.899399e-06	-4.845772e-09	-3.641752e+01	-3.045048e+02
4.000000e-07	-4.884658e-06	-4.910594e-09	-3.630795e+01	-3.047005e+02
4.100000e-07	-4.869192e-06	-4.614203e-09	-3.619299e+01	-3.048346e+02
4.200000e-07	-4.853106e-06	-4.500740e-09	-3.607342e+01	-3.049033e+02
4.300000e-07	-4.836756e-06	-4.749198e-09	-3.595189e+01	-3.049040e+02
4.400000e-07	-4.820116e-06	-4.830114e-09	-3.582820e+01	-3.048349e+02
4.500000e-07	-4.803115e-06	-4.702246e-09	-3.570184e+01	-3.046954e+02
4.600000e-07	-4.785847e-06	-4.575219e-09	-3.557348e+01	-3.044859e+02
4.700000e-07	-4.768402e-06	-4.577636e-09	-3.544381e+01	-3.042079e+02
4.800000e-07	-4.750669e-06	-4.669711e-09	-3.531200e+01	-3.038635e+02
4.900000e-07	-4.732511e-06	-4.762687e-09	-3.517703e+01	-3.034560e+02
5.000000e-07	-4.713997e-06	-4.658440e-09	-3.503942e+01	-3.029892e+02
5.100000e-07	-4.695079e-06	-4.489688e-09	-3.489880e+01	-3.024676e+02
5.200000e-07	-4.675735e-06	-4.535927e-09	-3.475501e+01	-3.018962e+02
5.300000e-07	-4.656142e-06	-4.698234e-09	-3.460938e+01	-3.012804e+02
5.400000e-07	-4.636417e-06	-4.677745e-09	-3.446276e+01	-3.006258e+02
5.500000e-07	-4.616513e-06	-4.507021e-09	-3.431481e+01	-2.999381e+02
5.600000e-07	-4.596277e-06	-4.458875e-09	-3.416440e+01	-2.992228e+02
5.700000e-07	-4.575728e-06	-4.567446e-09	-3.401165e+01	-2.984855e+02
5.800000e-07	-4.554904e-06	-4.633158e-09	-3.385687e+01	-2.977314e+02
5.900000e-07	-4.533779e-06	-4.531143e-09	-3.369985e+01	-2.969652e+02
6.000000e-07	-4.512335e-06	-4.442850e-09	-3.354045e+01	-2.961911e+02
6.100000e-07	-4.490610e-06	-4.478620e-09	-3.337897e+01	-2.954130e+02
6.200000e-07	-4.468651e-06	-4.529364e-09	-3.321574e+01	-2.946337e+02
6.300000e-07	-4.446389e-06	-4.487523e-09	-3.305027e+01	-2.938558e+02
6.400000e-07	-4.423872e-06	-4.452275e-09	-3.288290e+01	-2.930807e+02
6.500000e-07	-4.400997e-06	-4.437984e-09	-3.271287e+01	-2.923096e+02
6.600000e-07	-4.377699e-06	-4.420109e-09	-3.253970e+01	-2.915426e+02
6.700000e-07	-4.354098e-06	-4.410851e-09	-3.236426e+01	-2.907794e+02
6.800000e-07	-4.330295e-06	-4.431353e-09	-3.218734e+01	-2.900189e+02
6.900000e-07	-4.306393e-06	-4.410556e-09	-3.200967e+01	-2.892596e+02
7.000000e-07	-4.282302e-06	-4.363593e-09	-3.183060e+01	-2.884994e+02
7.100000e-07	-4.257828e-06	-4.338481e-09	-3.164869e+01	-2.877360e+02
7.200000e-07	-4.232832e-06	-4.356414e-09	-3.146289e+01	-2.869665e+02
7.300000e-07	-4.207462e-06	-4.360685e-09	-3.127431e+01	-2.861881e+02
7.400000e-07	-4.181748e-06	-4.332278e-09	-3.108318e+01	-2.853979e+02
7.500000e-07	-4.155545e-06	-4.283895e-09	-3.088841e+01	-2.845927e+02
7.600000e-07	-4.128788e-06	-4.269043e-09	-3.068953e+01	-2.837696e+02
7.700000e-07	-4.101538e-06	-4.284043e-09	-3.048697e+01	-2.829261e+02
7.800000e-07	-4.073996e-06	-4.283844e-09	-3.028225e+01	-2.820595e+02
7.900000e-07	-4.046252e-06	-4.243197e-09	-3.007602e+01	-2.811677e+02
8.000000e-07	-4.018390e-06	-4.205413e-09	-2.986893e+01	-2.802491e+02
8.100000e-07	-3.990420e-06	-4.202836e-09	-2.966102e+01	-2.793022e+02
8.200000e-07	-3.962232e-06	-4.208193e-09	-2.945151e+01	-2.783261e+02
8.300000e-07	-3.933760e-06	-4.186218e-09	-2.923987e+01	-2.773206e+02
8.400000e-07	-3.904983e-06	-4.149069e-09	-2.902597e+01	-2.762855e+02
8.500000e-07	-3.875886e-06	-4.130570e-09	-2.880969e+01	-2.752215e+02
8.600000e-07	-3.846516e-06	-4.124902e-09	-2.859138e+01	-2.741294e+02
8.700000e-07	-3.816915e-06	-4.113375e-09	-2.837135e+01	-2.730105e+02
8.800000e-07	-3.787107e-06	-4.090271e-09	-2.814979e+01	-2.718666e+02
8.900000e-07	-3.757070e-06	-4.071230e-09	-2.792652e+01	-2.706994e+02
9.000000e-07	-3.726827e-06	-4.053145e-09	-2.770172e+01	-2.695112e+02
9.100000e-07	-3.696262e-06	-4.033131e-09	-2.747453e+01	-2.683043e+02
9.200000e-07	-3.665278e-06	-4.009142e-09	-2.724423e+01	-2.670809e+02
9.300000e-07	-3.634094e-06	-3.995867e-09	-2.701243e+01	-2.658434e+02
9.400000e-07	-3.602822e-06	-3.985311e-09	-2.677999e+01	-2.645942e+02
9.500000e-07	-3.571318e-06	-3.960418e-09	-2.654582e+01	-2.633353e+02
9.600000e-07	-3.539606e-06	-3.923562e-09	-2.631010e+01	-2.620688e+02
9.700000e-07	-3.507759e-06	-3.912102e-09	-2.607338e+01	-2.607964e+02
9.800000e-07	-3.475787e-06	-3.915729e-09	-2.583573e+01	-2.595195e+02
9.900000e-07	-3.443671e-06	-3.895484e-09	-2.559701e+01	-2.582393e+02
1.000000e-06	-3.411218e-06	-3.848036e-09	-2.535578e+01	-2.569566e+02
1.010000e-06	-3.378414e-06	-3.819843e-09	-2.511195e+01	-2.556719e+02
1.020000e-06	-3.345238e-06	-3.823742e-09	-2.486535e+01	-2.543852e+02
1.030000e-06	-3.311715e-06	-3.822899e-09	-2.461617e+01	-2.530964e+02
1.040000e-06	-3.277869e-06	-3.784778e-09	-2.436459e+01	-2.518048e+02
1.050000e-06	-3.243624e-06	-3.739922e-09	-2.411005e+01	-2.505097e+02
1.060000e-06	-3.208974e-06	-3.727514e-09	-2.385249e+01	-2.492100e+02
1.070000e-06	-3.173999e-06	-3.733479e-09	-2.359252e+01	-2.479043e+02
1.080000e-06	-3.138755e-06	-3.711308e-09	-2.333055e+01	-2.465912e+02
1.090000e-06	-3.103227e-06	-3.663254e-09	-2.306646e+01	-2.452690e+02
1.100000e-06	-3.067558e-06	-3.633357e-09	-2.280134e+01	-2.439361e+02
1.110000e-06	-3.031801e-06	-3.632923e-09	-2.253556e+01	-2.425907e+02
1.120000e-06	-2.995914e-06	-3.627435e-09	-2.226881e+01	-2.412312e+02
1.130000e-06	-2.959915e-06	-3.595208e-09	-2.200122e+01	-2.398560e+02
1.140000e-06	-2.923815e-06	-3.556861e-09	-2.173289e+01	-2.384634e+02
1.150000e-06	-2.887559e-06	-3.536800e-09	-2.146339e+01	-2.370523e+02
1.160000e-06	-2.851051e-06	-3.529098e-09	-2.119203e+01	-2.356213e+02
1.170000e-06	-2.814305e-06	-3.508961e-09	-2.091889e+01	-2.341695e+02
1.180000e-06	-2.777385e-06	-3.470597e-09	-2.064447e+01	-2.326961e+02
1.190000e-06	-2.740276e-06	-3.434873e-09	-2.036864e+01	-2.312006e+02
1.200000e-06	-2.702957e-06	-3.416712e-09	-2.009124e+01	-2.296825e+02
1.210000e-06	-2.665407e-06	-3.403606e-09	-1.981212e+01	-2.281418e+02
1.220000e-06	-2.627646e-06	-3.382033e-09	-1.953144e+01	-2.265784e+02
1.230000e-06	-2.589756e-06	-3.350608e-09	-1.924981e+01	-2.249927e+02
1.240000e-06	-2.551716e-06	-3.319427e-09	-1.896706e+01	-2.233849e+02
1.250000e-06	-2.513512e-06	-3.292108e-09	-1.868308e+01	-2.217555e+02
1.260000e-06	-2.475148e-06	-3.266999e-09	-1.839792e+01	-2.201052e+02
1.270000e-06	-2.436586e-06	-3.240304e-09	-1.811129e+01	-2.184346e+02
1.280000e-06	-2.397850e-06	-3.209212e-09	-1.782336e+01	-2.167443e+02
1.290000e-06	-2.358899e-06	-3.174331e-09	-1.753383e+01	-2.150351e+02
1.300000e-06	-2.319828e-06	-3.147054e-09	-1.724341e+01	-2.133074e+02
1.310000e-06	-2.280694e-06	-3.125960e-09	-1.695253e+01	-2.115619e+02
1.320000e-06	-2.241328e-06	-3.100548e-09	-1.665992e+01	-2.097991e+02
1.330000e-06	-2.201795e-06	-3.063748e-09	-1.636607e+01	-2.080193e+02
1.340000e-06	-2.162210e-06	-3.027456e-09	-1.607183e+01	-2.062227e+02
1.350000e-06	-2.122500e-06	-2.999671e-09	-1.577667e+01	-2.044096e+02
1.360000e-06	-2.082663e-06	-2.975078e-09	-1.548056e+01	-2.025798e+02
1.370000e-06	-2.042727e-06	-2.944285e-09	-1.518371e+01	-2.007334e+02
1.380000e-06	-2.002688e-06	-2.907998e-09	-1.488610e+01	-1.988699e+02
1.390000e-06	-1.962628e-06	-2.874151e-09	-1.458833e+01	-1.969892e+02
1.400000e-06	-1.922471e-06	-2.847505e-09	-1.428984e+01	-1.950907e+02
1.410000e-06	-1.882177e-06	-2.822328e-09	-1.399033e+01	-1.931740e+02
1.420000e-06	-1.841835e-06	-2.790020e-09	-1.369047e+01	-1.912385e+02
1.430000e-06	-1.801349e-06	-2.751725e-09	-1.338953e+01	-1.892836e+02
1.440000e-06	-1.760626e-06	-2.716588e-09	-1.308683e+01	-1.873088e+02
1.450000e-06	-1.719678e-06	-2.690317e-09	-1.278247e+01	-1.853135e+02
1.460000e-06	-1.678570e-06	-2.664838e-09	-1.247691e+01	-1.832973e+02
1.470000e-06	-1.637308e-06	-2.633002e-09	-1.217021e+01	-1.812595e+02
1.480000e-06	-1.595870e-06	-2.595537e-09	-1.186220e+01	-1.792000e+02
1.490000e-06	-1.554191e-06	-2.562517e-09	-1.155239e+01	-1.771184e+02
1.500000e-06	-1.512238e-06	-2.537241e-09	-1.124055e+01	-1.750145e+02
1.510000e-06	-1.470062e-06	-2.510803e-09	-1.092705e+01	-1.728884e+02
1.520000e-06	-1.427676e-06	-2.475004e-09	-1.061200e+01	-1.707399e+02
1.530000e-06	-1.385172e-06	-2.436467e-09	-1.029606e+01	-1.685693e+02
1.540000e-06	-1.342572e-06	-2.402701e-09	-9.979415e+00	-1.663768e+02
1.550000e-06	-1.299846e-06	-2.373618e-09	-9.661829e+00	-1.641627e+02
1.560000e-06	-1.257002e-06	-2.339930e-09	-9.343373e+00	-1.619275e+02
1.570000e-06	-1.214041e-06	-2.298570e-09	-9.024037e+00	-1.596714e+02
1.580000e-06	-1.170942e-06	-2.258076e-09	-8.703678e+00	-1.573951e+02
1.590000e-06	-1.127692e-06	-2.225433e-09	-8.382204e+00	-1.550990e+02
1.600000e-06	-1.084324e-06	-2.197705e-09	-8.059843e+00	-1.527835e+02
1.610000e-06	-1.040840e-06	-2.165637e-09	-7.736628e+00	-1.504491e+02
1.620000e-06	-9.972926e-07	-2.126253e-09	-7.412934e+00	-1.480961e+02
1.630000e-06	-9.537307e-07	-2.085961e-09	-7.089136e+00	-1.457249e+02
1.640000e-06	-9.101532e-07	-2.050313e-09	-6.765222e+00	-1.433357e+02
1.650000e-06	-8.665083e-07	-2.019754e-09	-6.440807e+00	-1.409285e+02
1.660000e-06	-8.227871e-07	-1.984595e-09	-6.115825e+00	-1.385035e+02
1.670000e-06	-7.790711e-07	-1.941680e-09	-5.790881e+00	-1.360606e+02
1.680000e-06	-7.354020e-07	-1.902387e-09	-5.466286e+00	-1.335995e+02
1.690000e-06	-6.917081e-07	-1.870334e-09	-5.141507e+00	-1.311199e+02
1.700000e-06	-6.479521e-07	-1.840917e-09	-4.816266e+00	-1.286216e+02
1.710000e-06	-6.041732e-07	-1.805035e-09	-4.490855e+00	-1.261039e+02
1.720000e-06	-5.603596e-07	-1.764475e-09	-4.165186e+00	-1.235664e+02
1.730000e-06	-5.165322e-07	-1.724358e-09	-3.839414e+00	-1.210086e+02
1.740000e-06	-4.726784e-07	-1.688151e-09	-3.513446e+00	-1.184298e+02
1.750000e-06	-4.287776e-07	-1.653687e-09	-3.187129e+00	-1.158293e+02
1.760000e-06	-3.848896e-07	-1.613362e-09	-2.860907e+00	-1.132068e+02
1.770000e-06	-3.410301e-07	-1.569960e-09	-2.534897e+00	-1.105615e+02
1.780000e-06	-2.971466e-07	-1.530445e-09	-2.208708e+00	-1.078931e+02
1.790000e-06	-2.532709e-07	-1.492330e-09	-1.882578e+00	-1.052012e+02
1.800000e-06	-2.093992e-07	-1.452600e-09	-1.556477e+00	-1.024855e+02
1.810000e-06	-1.655003e-07	-1.410569e-09	-1.230174e+00	-9.974573e+01
1.820000e-06	-1.215898e-07	-1.366457e-09	-9.037840e-01	-9.698195e+01
1.830000e-06	-7.766854e-08	-1.322437e-09	-5.773148e-01	-9.419419e+01
1.840000e-06	-3.375769e-08	-1.282150e-09	-2.509229e-01	-9.138266e+01
1.850000e-06	1.014581e-08	-1.242611e-09	7.541438e-02	-8.854768e+01
1.860000e-06	5.404144e-08	-1.197477e-09	4.016932e-01	-8.568968e+01
1.870000e-06	9.794947e-08	-1.149200e-09	7.280641e-01	-8.280919e+01
1.880000e-06	1.419056e-07	-1.106396e-09	1.054792e+00	-7.990682e+01
1.890000e-06	1.858984e-07	-1.070264e-09	1.381794e+00	-7.698325e+01
1.900000e-06	2.298959e-07	-1.031478e-09	1.708830e+00	-7.403918e+01
1.910000e-06	2.738778e-07	-9.852856e-10	2.035750e+00	-7.107534e+01
1.920000e-06	3.177736e-07	-9.393885e-10	2.362030e+00	-6.809243e+01
1.930000e-06	3.616049e-07	-8.989031e-10	2.687830e+00	-6.509113e+01
1.940000e-06	4.054594e-07	-8.583515e-10	3.013803e+00	-6.207204e+01
1.950000e-06	4.493263e-07	-8.120425e-10	3.339869e+00	-5.903569e+01
1.960000e-06	4.931925e-07	-7.604923e-10	3.665929e+00	-5.598248e+01
1.970000e-06	5.370373e-07	-7.133461e-10	3.991830e+00	-5.291271e+01
1.980000e-06	5.808618e-07	-6.674521e-10	4.317580e+00	-4.982651e+01
1.990000e-06	6.246434e-07	-6.228309e-10	4.643011e+00	-4.672391e+01
2.000000e-06	6.683668e-07	-5.771925e-10	4.968010e+00	-4.360473e+01
2.010000e-06	7.120999e-07	-5.293780e-10	5.293080e+00	-4.046870e+01
2.020000e-06	7.558530e-07	-4.814851e-10	5.618300e+00	-3.731537e+01
2.030000e-06	7.995398e-07	-4.354412e-10	5.943026e+00	-3.414419e+01
2.040000e-06	8.431995e-07	-3.892513e-10	6.267551e+00	-3.095448e+01
2.050000e-06	8.868652e-07	-3.380151e-10	6.592121e+00	-2.774548e+01
2.060000e-06	9.303935e-07	-2.844394e-10	6.915669e+00	-2.451637e+01
2.070000e-06	9.738062e-07	-2.354601e-10	7.238358e+00	-2.126630e+01
2.080000e-06	1.017197e-06	-1.897753e-10	7.560887e+00	-1.799443e+01
2.090000e-06	1.060514e-06	-1.427120e-10	7.882863e+00	-1.469993e+01
2.100000e-06	1.103738e-06	-9.062837e-11	8.204147e+00	-1.138207e+01
2.110000e-06	1.146912e-06	-3.644790e-11	8.525065e+00	-8.040191e+00
2.120000e-06	1.190008e-06	1.376166e-11	8.845397e+00	-4.673795e+00
2.130000e-06	1.232917e-06	6.084647e-11	9.164342e+00	-1.282532e+00
2.140000e-06	1.275653e-06	1.084635e-10	9.482003e+00	2.133752e+00
2.150000e-06	1.318280e-06	1.634260e-10	9.798856e+00	5.575003e+00
2.160000e-06	1.360775e-06	2.196566e-10	1.011472e+01	9.040937e+00
2.170000e-06	1.403146e-06	2.690325e-10	1.042967e+01	1.253103e+01
2.180000e-06	1.445361e-06	3.146958e-10	1.074346e+01	1.604452e+01
2.190000e-06	1.487417e-06	3.666310e-10	1.105606e+01	1.958039e+01
2.200000e-06	1.529248e-06	4.250997e-10	1.136699e+01	2.313738e+01
2.210000e-06	1.570857e-06	4.788253e-10	1.167627e+01	2.671403e+01
2.220000e-06	1.612274e-06	5.256653e-10	1.198413e+01	3.030865e+01
2.230000e-06	1.653500e-06	5.745592e-10	1.229056e+01	3.391936e+01
2.240000e-06	1.694513e-06	6.284867e-10	1.259542e+01	3.754414e+01
2.250000e-06	1.735299e-06	6.838919e-10	1.289858e+01	4.118081e+01
2.260000e-06	1.775955e-06	7.360066e-10	1.320078e+01	4.482713e+01
2.270000e-06	1.816539e-06	7.863396e-10	1.350244e+01	4.848077e+01
2.280000e-06	1.856979e-06	8.355621e-10	1.380304e+01	5.213937e+01
2.290000e-06	1.897186e-06	8.888392e-10	1.410189e+01	5.580060e+01
2.300000e-06	1.937274e-06	9.454543e-10	1.439987e+01	5.946212e+01
2.310000e-06	1.977289e-06	9.982629e-10	1.469731e+01	6.312171e+01
2.320000e-06	2.017233e-06	1.044967e-09	1.499421e+01	6.677720e+01
2.330000e-06	2.057151e-06	1.094263e-09	1.529092e+01	7.042655e+01
2.340000e-06	2.096982e-06	1.148042e-09	1.558699e+01	7.406785e+01
2.350000e-06	2.136665e-06	1.199734e-09	1.588196e+01	7.769933e+01
2.360000e-06	2.176218e-06	1.248871e-09	1.617595e+01	8.131939e+01
2.370000e-06	2.215659e-06	1.296408e-09	1.646912e+01	8.492654e+01
2.380000e-06	2.255055e-06	1.346411e-09	1.676195e+01	8.851949e+01
2.390000e-06	2.294382e-06	1.400664e-09	1.705427e+01	9.209706e+01
2.400000e-06	2.333493e-06	1.455229e-09	1.734499e+01	9.565820e+01
2.410000e-06	2.372366e-06	1.505953e-09	1.763393e+01	9.920197e+01
2.420000e-06	2.410996e-06	1.556478e-09	1.792107e+01	1.027275e+02
2.430000e-06	2.449418e-06	1.608665e-09	1.820666e+01	1.062341e+02
2.440000e-06	2.487674e-06	1.661915e-09	1.849103e+01	1.097209e+02
2.450000e-06	2.525805e-06	1.712596e-09	1.877446e+01	1.131874e+02
2.460000e-06	2.563839e-06	1.761036e-09	1.905717e+01	1.166326e+02
2.470000e-06	2.601703e-06	1.810497e-09	1.933861e+01	1.200560e+02
2.480000e-06	2.639380e-06	1.861856e-09	1.961866e+01	1.234568e+02
2.490000e-06	2.676859e-06	1.913304e-09	1.989725e+01	1.268340e+02
2.500000e-06	2.714163e-06	1.961713e-09	2.017454e+01	1.301868e+02
2.510000e-06	2.751307e-06	2.007788e-09	2.045062e+01	1.335142e+02
2.520000e-06	2.788280e-06	2.055712e-09	2.072545e+01	1.368152e+02
2.530000e-06	2.824992e-06	2.104864e-09	2.099833e+01	1.400885e+02
2.540000e-06	2.861440e-06	2.151625e-09	2.126925e+01	1.433330e+02
2.550000e-06	2.897767e-06	2.195438e-09	2.153927e+01	1.465473e+02
2.560000e-06	2.933937e-06	2.239588e-09	2.180812e+01	1.497301e+02
2.570000e-06	2.969953e-06	2.284995e-09	2.207583e+01	1.528801e+02
2.580000e-06	3.005850e-06	2.331914e-09	2.234266e+01	1.559959e+02
2.590000e-06	3.041595e-06	2.377489e-09	2.260836e+01	1.590761e+02
2.600000e-06	3.077197e-06	2.420180e-09	2.287299e+01	1.621195e+02
2.610000e-06	3.112744e-06	2.462284e-09	2.313721e+01	1.651249e+02
2.620000e-06	3.148189e-06	2.505255e-09	2.340068e+01	1.680910e+02
2.630000e-06	3.183314e-06	2.549155e-09	2.366176e+01	1.710171e+02
2.640000e-06	3.218031e-06	2.592766e-09	2.391981e+01	1.739021e+02
2.650000e-06	3.252382e-06	2.635324e-09	2.417514e+01	1.767455e+02
2.660000e-06	3.286275e-06	2.677914e-09	2.442708e+01	1.795469e+02
2.670000e-06	3.319816e-06	2.722006e-09	2.467638e+01	1.823058e+02
2.680000e-06	3.353088e-06	2.767094e-09	2.492370e+01	1.850224e+02
2.690000e-06	3.385911e-06	2.811549e-09	2.516768e+01	1.876966e+02
2.700000e-06	3.418398e-06	2.851999e-09	2.540915e+01	1.903289e+02
2.710000e-06	3.450674e-06	2.889364e-09	2.564906e+01	1.929198e+02
2.720000e-06	3.482730e-06	2.927539e-09	2.588733e+01	1.954700e+02
2.730000e-06	3.514647e-06	2.966687e-09	2.612457e+01	1.979802e+02
2.740000e-06	3.546446e-06	3.002015e-09	2.636094e+01	2.004515e+02
2.750000e-06	3.578069e-06	3.033971e-09	2.659600e+01	2.028849e+02
2.760000e-06	3.609478e-06	3.068242e-09	2.682946e+01	2.052814e+02
2.770000e-06	3.640724e-06	3.106898e-09	2.706171e+01	2.076422e+02
2.780000e-06	3.671765e-06	3.143860e-09	2.729245e+01	2.099684e+02
2.790000e-06	3.702493e-06	3.176405e-09	2.752084e+01	2.122609e+02
2.800000e-06	3.732839e-06	3.207716e-09	2.774641e+01	2.145207e+02
2.810000e-06	3.762883e-06	3.241509e-09	2.796973e+01	2.167487e+02
2.820000e-06	3.792745e-06	3.275915e-09	2.819169e+01	2.189454e+02
2.830000e-06	3.822378e-06	3.308388e-09	2.841196e+01	2.211115e+02
2.840000e-06	3.851807e-06	3.340046e-09	2.863071e+01	2.232471e+02
2.850000e-06	3.880960e-06	3.370484e-09	2.884740e+01	2.253524e+02
2.860000e-06	3.909871e-06	3.402751e-09	2.906230e+01	2.274273e+02
2.870000e-06	3.938595e-06	3.436465e-09	2.927581e+01	2.294716e+02
2.880000e-06	3.967027e-06	3.468474e-09	2.948714e+01	2.314847e+02
2.890000e-06	3.995215e-06	3.501193e-09	2.969667e+01	2.334660e+02
2.900000e-06	4.023197e-06	3.532009e-09	2.990466e+01	2.354148e+02
