# Temperatura_=_20.0
# Concentracion g/m^3_=_12600.0
# C_Vs_to_Am_M_A/Vsm_=_65563218390.804596
# pendiente_HvsI_1/m_=_3716.3
# ordenada_HvsI_A/m_=_1297.0
# frecuencia_Hz_=_135169.51265544887

Tiempo_(s)	Campo_(V.s)	Magnetizacion_(V.s)	Campo_(kA/m)	Magnetizacion_(A/m)
0.000000e+00	-5.147545e-06	-4.352448e-09	-3.843804e+01	-3.055255e+02
1.000000e-08	-5.147698e-06	-4.349871e-09	-3.843918e+01	-3.054163e+02
2.000000e-08	-5.147630e-06	-4.346090e-09	-3.843868e+01	-3.052898e+02
3.000000e-08	-5.147213e-06	-4.342323e-09	-3.843557e+01	-3.051497e+02
4.000000e-08	-5.146504e-06	-4.339338e-09	-3.843027e+01	-3.050002e+02
5.000000e-08	-5.145356e-06	-4.331303e-09	-3.842170e+01	-3.048452e+02
6.000000e-08	-5.143527e-06	-4.314614e-09	-3.840804e+01	-3.046889e+02
7.000000e-08	-5.141229e-06	-4.296534e-09	-3.839088e+01	-3.045350e+02
8.000000e-08	-5.138483e-06	-4.322861e-09	-3.837038e+01	-3.043873e+02
9.000000e-08	-5.135137e-06	-4.381189e-09	-3.834539e+01	-3.042490e+02
1.000000e-07	-5.131281e-06	-4.360839e-09	-3.831660e+01	-3.041230e+02
1.100000e-07	-5.127139e-06	-4.259040e-09	-3.828567e+01	-3.040114e+02
1.200000e-07	-5.122826e-06	-4.219022e-09	-3.825346e+01	-3.039161e+02
1.300000e-07	-5.118306e-06	-4.264319e-09	-3.821971e+01	-3.038381e+02
1.400000e-07	-5.113468e-06	-4.345579e-09	-3.818358e+01	-3.037778e+02
1.500000e-07	-5.108192e-06	-4.291458e-09	-3.814419e+01	-3.037347e+02
1.600000e-07	-5.102576e-06	-4.216810e-09	-3.810225e+01	-3.037078e+02
1.700000e-07	-5.096624e-06	-4.152209e-09	-3.805781e+01	-3.036954e+02
1.800000e-07	-5.090193e-06	-4.191139e-09	-3.800978e+01	-3.036948e+02
1.900000e-07	-5.083409e-06	-4.238259e-09	-3.795913e+01	-3.037032e+02
2.000000e-07	-5.076512e-06	-4.233685e-09	-3.790762e+01	-3.037168e+02
2.100000e-07	-5.069383e-06	-4.189241e-09	-3.785439e+01	-3.037315e+02
2.200000e-07	-5.061861e-06	-4.189706e-09	-3.779822e+01	-3.037429e+02
2.300000e-07	-5.054021e-06	-4.294469e-09	-3.773968e+01	-3.037463e+02
2.400000e-07	-5.045981e-06	-4.360450e-09	-3.767964e+01	-3.037366e+02
2.500000e-07	-5.037460e-06	-4.392943e-09	-3.761601e+01	-3.037090e+02
2.600000e-07	-5.028119e-06	-4.421802e-09	-3.754626e+01	-3.036587e+02
2.700000e-07	-5.018171e-06	-4.522055e-09	-3.747197e+01	-3.035808e+02
2.800000e-07	-5.007978e-06	-4.581553e-09	-3.739586e+01	-3.034711e+02
2.900000e-07	-4.997400e-06	-4.640025e-09	-3.731687e+01	-3.033256e+02
3.000000e-07	-4.986188e-06	-4.705201e-09	-3.723315e+01	-3.031409e+02
3.100000e-07	-4.974556e-06	-4.751724e-09	-3.714629e+01	-3.029140e+02
3.200000e-07	-4.962659e-06	-4.692744e-09	-3.705745e+01	-3.026428e+02
3.300000e-07	-4.950415e-06	-4.719420e-09	-3.696602e+01	-3.023257e+02
3.400000e-07	-4.937807e-06	-4.886251e-09	-3.687188e+01	-3.019620e+02
3.500000e-07	-4.924932e-06	-4.962161e-09	-3.677574e+01	-3.015517e+02
3.600000e-07	-4.911687e-06	-4.761953e-09	-3.667683e+01	-3.010954e+02
3.700000e-07	-4.898001e-06	-4.680610e-09	-3.657464e+01	-3.005945e+02
3.800000e-07	-4.883990e-06	-4.889600e-09	-3.647001e+01	-3.000513e+02
3.900000e-07	-4.869646e-06	-5.043781e-09	-3.636290e+01	-2.994683e+02
4.000000e-07	-4.854737e-06	-4.882260e-09	-3.625157e+01	-2.988490e+02
4.100000e-07	-4.839094e-06	-4.696216e-09	-3.613476e+01	-2.981969e+02
4.200000e-07	-4.822911e-06	-4.771964e-09	-3.601392e+01	-2.975163e+02
4.300000e-07	-4.806533e-06	-4.948262e-09	-3.589162e+01	-2.968115e+02
4.400000e-07	-4.789880e-06	-4.946899e-09	-3.576727e+01	-2.960869e+02
4.500000e-07	-4.772872e-06	-4.769446e-09	-3.564027e+01	-2.953471e+02
4.600000e-07	-4.755693e-06	-4.681124e-09	-3.551199e+01	-2.945967e+02
4.700000e-07	-4.738272e-06	-4.780323e-09	-3.538189e+01	-2.938399e+02
4.800000e-07	-4.720491e-06	-4.899796e-09	-3.524913e+01	-2.930807e+02
4.900000e-07	-4.702353e-06	-4.825777e-09	-3.511368e+01	-2.923229e+02
5.000000e-07	-4.683821e-06	-4.676348e-09	-3.497530e+01	-2.915696e+02
5.100000e-07	-4.664852e-06	-4.653550e-09	-3.483365e+01	-2.908235e+02
5.200000e-07	-4.645474e-06	-4.771349e-09	-3.468895e+01	-2.900868e+02
5.300000e-07	-4.625827e-06	-4.808005e-09	-3.454224e+01	-2.893610e+02
5.400000e-07	-4.606027e-06	-4.703815e-09	-3.439439e+01	-2.886472e+02
5.500000e-07	-4.586059e-06	-4.601236e-09	-3.424528e+01	-2.879455e+02
5.600000e-07	-4.565850e-06	-4.653208e-09	-3.409438e+01	-2.872557e+02
5.700000e-07	-4.545336e-06	-4.728448e-09	-3.394120e+01	-2.865770e+02
5.800000e-07	-4.524502e-06	-4.692553e-09	-3.378562e+01	-2.859079e+02
5.900000e-07	-4.503349e-06	-4.601172e-09	-3.362767e+01	-2.852467e+02
6.000000e-07	-4.481863e-06	-4.590968e-09	-3.346722e+01	-2.845909e+02
6.100000e-07	-4.460026e-06	-4.616158e-09	-3.330416e+01	-2.839380e+02
6.200000e-07	-4.437886e-06	-4.616092e-09	-3.313884e+01	-2.832852e+02
6.300000e-07	-4.415443e-06	-4.589509e-09	-3.297125e+01	-2.826294e+02
6.400000e-07	-4.392731e-06	-4.556077e-09	-3.280166e+01	-2.819675e+02
6.500000e-07	-4.369751e-06	-4.520676e-09	-3.263005e+01	-2.812965e+02
6.600000e-07	-4.346435e-06	-4.520260e-09	-3.245595e+01	-2.806133e+02
6.700000e-07	-4.322832e-06	-4.538965e-09	-3.227970e+01	-2.799153e+02
6.800000e-07	-4.299021e-06	-4.517320e-09	-3.210190e+01	-2.791997e+02
6.900000e-07	-4.275039e-06	-4.464645e-09	-3.192282e+01	-2.784643e+02
7.000000e-07	-4.250822e-06	-4.444638e-09	-3.174198e+01	-2.777073e+02
7.100000e-07	-4.226327e-06	-4.463705e-09	-3.155907e+01	-2.769271e+02
7.200000e-07	-4.201485e-06	-4.460109e-09	-3.137357e+01	-2.761225e+02
7.300000e-07	-4.176123e-06	-4.418004e-09	-3.118419e+01	-2.752930e+02
7.400000e-07	-4.150203e-06	-4.380087e-09	-3.099063e+01	-2.744382e+02
7.500000e-07	-4.123817e-06	-4.382744e-09	-3.079360e+01	-2.735583e+02
7.600000e-07	-4.097035e-06	-4.388496e-09	-3.059361e+01	-2.726538e+02
7.700000e-07	-4.069931e-06	-4.364291e-09	-3.039123e+01	-2.717255e+02
7.800000e-07	-4.042532e-06	-4.324127e-09	-3.018663e+01	-2.707748e+02
7.900000e-07	-4.014849e-06	-4.315786e-09	-2.997991e+01	-2.698028e+02
8.000000e-07	-3.986979e-06	-4.320176e-09	-2.977180e+01	-2.688114e+02
8.100000e-07	-3.958929e-06	-4.299835e-09	-2.956234e+01	-2.678022e+02
8.200000e-07	-3.930629e-06	-4.256894e-09	-2.935102e+01	-2.667770e+02
8.300000e-07	-3.902088e-06	-4.239374e-09	-2.913789e+01	-2.657375e+02
8.400000e-07	-3.873317e-06	-4.241679e-09	-2.892306e+01	-2.646856e+02
8.500000e-07	-3.844280e-06	-4.227408e-09	-2.870623e+01	-2.636228e+02
8.600000e-07	-3.814928e-06	-4.187447e-09	-2.848705e+01	-2.625507e+02
8.700000e-07	-3.785305e-06	-4.161166e-09	-2.826585e+01	-2.614703e+02
8.800000e-07	-3.755536e-06	-4.160343e-09	-2.804355e+01	-2.603827e+02
8.900000e-07	-3.725602e-06	-4.156723e-09	-2.782003e+01	-2.592887e+02
9.000000e-07	-3.695360e-06	-4.122857e-09	-2.759420e+01	-2.581887e+02
9.100000e-07	-3.664841e-06	-4.084556e-09	-2.736631e+01	-2.570827e+02
9.200000e-07	-3.634070e-06	-4.072338e-09	-2.713654e+01	-2.559708e+02
9.300000e-07	-3.603027e-06	-4.073793e-09	-2.690473e+01	-2.548524e+02
9.400000e-07	-3.571754e-06	-4.051507e-09	-2.667120e+01	-2.537268e+02
9.500000e-07	-3.540271e-06	-4.009613e-09	-2.643611e+01	-2.525933e+02
9.600000e-07	-3.508616e-06	-3.985777e-09	-2.619974e+01	-2.514507e+02
9.700000e-07	-3.476832e-06	-3.983922e-09	-2.596240e+01	-2.502979e+02
9.800000e-07	-3.444924e-06	-3.972469e-09	-2.572414e+01	-2.491335e+02
9.900000e-07	-3.412756e-06	-3.938138e-09	-2.548393e+01	-2.479562e+02
1.000000e-06	-3.380283e-06	-3.904254e-09	-2.524144e+01	-2.467646e+02
1.010000e-06	-3.347542e-06	-3.888198e-09	-2.499696e+01	-2.455575e+02
1.020000e-06	-3.314525e-06	-3.878526e-09	-2.475041e+01	-2.443335e+02
1.030000e-06	-3.281264e-06	-3.855433e-09	-2.450204e+01	-2.430917e+02
1.040000e-06	-3.247645e-06	-3.822382e-09	-2.425100e+01	-2.418310e+02
1.050000e-06	-3.213507e-06	-3.793228e-09	-2.399608e+01	-2.405507e+02
1.060000e-06	-3.178929e-06	-3.775013e-09	-2.373788e+01	-2.392503e+02
1.070000e-06	-3.143981e-06	-3.756381e-09	-2.347691e+01	-2.379295e+02
1.080000e-06	-3.108767e-06	-3.731350e-09	-2.321396e+01	-2.365881e+02
1.090000e-06	-3.073324e-06	-3.701802e-09	-2.294930e+01	-2.352262e+02
1.100000e-06	-3.037708e-06	-3.675861e-09	-2.268335e+01	-2.338442e+02
1.110000e-06	-3.002034e-06	-3.654305e-09	-2.241696e+01	-2.324425e+02
1.120000e-06	-2.966248e-06	-3.638911e-09	-2.214974e+01	-2.310218e+02
1.130000e-06	-2.930364e-06	-3.618972e-09	-2.188178e+01	-2.295829e+02
1.140000e-06	-2.894359e-06	-3.588662e-09	-2.161292e+01	-2.281266e+02
1.150000e-06	-2.858163e-06	-3.557512e-09	-2.134264e+01	-2.266538e+02
1.160000e-06	-2.821784e-06	-3.537127e-09	-2.107099e+01	-2.251656e+02
1.170000e-06	-2.785231e-06	-3.519824e-09	-2.079804e+01	-2.236628e+02
1.180000e-06	-2.748427e-06	-3.493002e-09	-2.052321e+01	-2.221463e+02
1.190000e-06	-2.711341e-06	-3.460335e-09	-2.024628e+01	-2.206169e+02
1.200000e-06	-2.674106e-06	-3.432579e-09	-1.996824e+01	-2.190751e+02
1.210000e-06	-2.636690e-06	-3.413063e-09	-1.968884e+01	-2.175216e+02
1.220000e-06	-2.599008e-06	-3.390935e-09	-1.940746e+01	-2.159565e+02
1.230000e-06	-2.561258e-06	-3.359853e-09	-1.912558e+01	-2.143801e+02
1.240000e-06	-2.523390e-06	-3.325029e-09	-1.884280e+01	-2.127923e+02
1.250000e-06	-2.485250e-06	-3.295285e-09	-1.855800e+01	-2.111929e+02
1.260000e-06	-2.446988e-06	-3.271644e-09	-1.827229e+01	-2.095814e+02
1.270000e-06	-2.408636e-06	-3.244854e-09	-1.798590e+01	-2.079571e+02
1.280000e-06	-2.370081e-06	-3.212797e-09	-1.769800e+01	-2.063195e+02
1.290000e-06	-2.331304e-06	-3.182368e-09	-1.740844e+01	-2.046675e+02
1.300000e-06	-2.292296e-06	-3.156274e-09	-1.711717e+01	-2.030002e+02
1.310000e-06	-2.253186e-06	-3.129874e-09	-1.682512e+01	-2.013166e+02
1.320000e-06	-2.213981e-06	-3.100768e-09	-1.653237e+01	-1.996156e+02
1.330000e-06	-2.174534e-06	-3.069757e-09	-1.623781e+01	-1.978962e+02
1.340000e-06	-2.134927e-06	-3.035644e-09	-1.594205e+01	-1.961573e+02
1.350000e-06	-2.095195e-06	-3.001881e-09	-1.564536e+01	-1.943979e+02
1.360000e-06	-2.055378e-06	-2.972953e-09	-1.534804e+01	-1.926174e+02
1.370000e-06	-2.015541e-06	-2.946834e-09	-1.505056e+01	-1.908150e+02
1.380000e-06	-1.975651e-06	-2.913641e-09	-1.475270e+01	-1.889900e+02
1.390000e-06	-1.935692e-06	-2.873945e-09	-1.445431e+01	-1.871423e+02
1.400000e-06	-1.895663e-06	-2.840457e-09	-1.415541e+01	-1.852716e+02
1.410000e-06	-1.855495e-06	-2.817391e-09	-1.385546e+01	-1.833779e+02
1.420000e-06	-1.815171e-06	-2.791261e-09	-1.355435e+01	-1.814614e+02
1.430000e-06	-1.774771e-06	-2.754200e-09	-1.325267e+01	-1.795225e+02
1.440000e-06	-1.734204e-06	-2.715744e-09	-1.294975e+01	-1.775617e+02
1.450000e-06	-1.693465e-06	-2.687150e-09	-1.264554e+01	-1.755797e+02
1.460000e-06	-1.652564e-06	-2.661048e-09	-1.234012e+01	-1.735772e+02
1.470000e-06	-1.611530e-06	-2.626218e-09	-1.203371e+01	-1.715550e+02
1.480000e-06	-1.570350e-06	-2.586221e-09	-1.172620e+01	-1.695141e+02
1.490000e-06	-1.528929e-06	-2.553276e-09	-1.141691e+01	-1.674552e+02
1.500000e-06	-1.487253e-06	-2.527380e-09	-1.110570e+01	-1.653794e+02
1.510000e-06	-1.445287e-06	-2.495948e-09	-1.079233e+01	-1.632873e+02
1.520000e-06	-1.403154e-06	-2.455561e-09	-1.047772e+01	-1.611797e+02
1.530000e-06	-1.360928e-06	-2.417229e-09	-1.016240e+01	-1.590570e+02
1.540000e-06	-1.318532e-06	-2.386238e-09	-9.845818e+00	-1.569197e+02
1.550000e-06	-1.275930e-06	-2.352336e-09	-9.527694e+00	-1.547680e+02
1.560000e-06	-1.233249e-06	-2.312763e-09	-9.208986e+00	-1.526019e+02
1.570000e-06	-1.190543e-06	-2.272009e-09	-8.890091e+00	-1.504211e+02
1.580000e-06	-1.147692e-06	-2.234741e-09	-8.570114e+00	-1.482253e+02
1.590000e-06	-1.104721e-06	-2.199141e-09	-8.249233e+00	-1.460140e+02
1.600000e-06	-1.061698e-06	-2.163046e-09	-7.927975e+00	-1.437862e+02
1.610000e-06	-1.018476e-06	-2.126639e-09	-7.605226e+00	-1.415410e+02
1.620000e-06	-9.750700e-07	-2.090545e-09	-7.281099e+00	-1.392773e+02
1.630000e-06	-9.316602e-07	-2.054170e-09	-6.956947e+00	-1.369938e+02
1.640000e-06	-8.882486e-07	-2.017354e-09	-6.632781e+00	-1.346893e+02
1.650000e-06	-8.447132e-07	-1.980278e-09	-6.307691e+00	-1.323624e+02
1.660000e-06	-8.010822e-07	-1.942634e-09	-5.981887e+00	-1.300118e+02
1.670000e-06	-7.574505e-07	-1.903113e-09	-5.656078e+00	-1.276360e+02
1.680000e-06	-7.138009e-07	-1.861446e-09	-5.330136e+00	-1.252340e+02
1.690000e-06	-6.701364e-07	-1.820476e-09	-5.004081e+00	-1.228044e+02
1.700000e-06	-6.264742e-07	-1.781803e-09	-4.678045e+00	-1.203465e+02
1.710000e-06	-5.828034e-07	-1.745323e-09	-4.351943e+00	-1.178593e+02
1.720000e-06	-5.391668e-07	-1.706254e-09	-4.026097e+00	-1.153423e+02
1.730000e-06	-4.955182e-07	-1.664666e-09	-3.700162e+00	-1.127952e+02
1.740000e-06	-4.517681e-07	-1.625580e-09	-3.373469e+00	-1.102177e+02
1.750000e-06	-4.079475e-07	-1.588199e-09	-3.046249e+00	-1.076101e+02
1.760000e-06	-3.641377e-07	-1.545229e-09	-2.719110e+00	-1.049727e+02
1.770000e-06	-3.203729e-07	-1.499501e-09	-2.392307e+00	-1.023062e+02
1.780000e-06	-2.765759e-07	-1.456659e-09	-2.065264e+00	-9.961123e+01
1.790000e-06	-2.327485e-07	-1.415322e-09	-1.737993e+00	-9.688893e+01
1.800000e-06	-1.889342e-07	-1.371749e-09	-1.410820e+00	-9.414046e+01
1.810000e-06	-1.451416e-07	-1.324497e-09	-1.083810e+00	-9.136711e+01
1.820000e-06	-1.013283e-07	-1.278254e-09	-7.566444e-01	-8.857027e+01
1.830000e-06	-5.746558e-08	-1.237228e-09	-4.291103e-01	-8.575139e+01
1.840000e-06	-1.358176e-08	-1.196077e-09	-1.014185e-01	-8.291191e+01
1.850000e-06	3.023822e-08	-1.152130e-09	2.257966e-01	-8.005322e+01
1.860000e-06	7.399422e-08	-1.106720e-09	5.525339e-01	-7.717666e+01
1.870000e-06	1.177723e-07	-1.064094e-09	8.794362e-01	-7.428343e+01
1.880000e-06	1.615892e-07	-1.022561e-09	1.206628e+00	-7.137456e+01
1.890000e-06	2.054609e-07	-9.788565e-10	1.534229e+00	-6.845093e+01
1.900000e-06	2.493601e-07	-9.329562e-10	1.862036e+00	-6.551316e+01
1.910000e-06	2.932078e-07	-8.878554e-10	2.189458e+00	-6.256168e+01
1.920000e-06	3.370276e-07	-8.447088e-10	2.516672e+00	-5.959667e+01
1.930000e-06	3.808444e-07	-7.981292e-10	2.843863e+00	-5.661804e+01
1.940000e-06	4.246379e-07	-7.495876e-10	3.170881e+00	-5.362549e+01
1.950000e-06	4.684033e-07	-7.022201e-10	3.497688e+00	-5.061848e+01
1.960000e-06	5.121260e-07	-6.583561e-10	3.824177e+00	-4.759627e+01
1.970000e-06	5.558545e-07	-6.133249e-10	4.150709e+00	-4.455792e+01
1.980000e-06	5.995908e-07	-5.639706e-10	4.477299e+00	-4.150234e+01
1.990000e-06	6.432559e-07	-5.148460e-10	4.803357e+00	-3.842836e+01
2.000000e-06	6.868956e-07	-4.684287e-10	5.129226e+00	-3.533470e+01
2.010000e-06	7.304844e-07	-4.197020e-10	5.454715e+00	-3.222007e+01
2.020000e-06	7.739891e-07	-3.673520e-10	5.779576e+00	-2.908319e+01
2.030000e-06	8.174946e-07	-3.142594e-10	6.104442e+00	-2.592282e+01
2.040000e-06	8.609556e-07	-2.644855e-10	6.428977e+00	-2.273787e+01
2.050000e-06	9.043792e-07	-2.154991e-10	6.753232e+00	-1.952733e+01
2.060000e-06	9.477776e-07	-1.654823e-10	7.077300e+00	-1.629042e+01
2.070000e-06	9.911537e-07	-1.164066e-10	7.401200e+00	-1.302653e+01
2.080000e-06	1.034431e-06	-6.780970e-11	7.724361e+00	-9.735309e+00
2.090000e-06	1.077495e-06	-1.591775e-11	8.045932e+00	-6.416643e+00
2.100000e-06	1.120389e-06	3.922507e-11	8.366236e+00	-3.070684e+00
2.110000e-06	1.163124e-06	9.303566e-11	8.685344e+00	3.021488e-01
2.120000e-06	1.205831e-06	1.449027e-10	9.004249e+00	3.701175e+00
2.130000e-06	1.248497e-06	1.969491e-10	9.322850e+00	7.125460e+00
2.140000e-06	1.290919e-06	2.499152e-10	9.639624e+00	1.057383e+01
2.150000e-06	1.333151e-06	3.033744e-10	9.954980e+00	1.404492e+01
2.160000e-06	1.375265e-06	3.535390e-10	1.026946e+01	1.753715e+01
2.170000e-06	1.417299e-06	4.019181e-10	1.058334e+01	2.104880e+01
2.180000e-06	1.459131e-06	4.549259e-10	1.089571e+01	2.457806e+01
2.190000e-06	1.500659e-06	5.114908e-10	1.120581e+01	2.812300e+01
2.200000e-06	1.542034e-06	5.682726e-10	1.151477e+01	3.168167e+01
2.210000e-06	1.583292e-06	6.216780e-10	1.182285e+01	3.525212e+01
2.220000e-06	1.624286e-06	6.758332e-10	1.212896e+01	3.883243e+01
2.230000e-06	1.664977e-06	7.319579e-10	1.243281e+01	4.242074e+01
2.240000e-06	1.705544e-06	7.872038e-10	1.273574e+01	4.601528e+01
2.250000e-06	1.746043e-06	8.407945e-10	1.303815e+01	4.961439e+01
2.260000e-06	1.786424e-06	8.940345e-10	1.333969e+01	5.321656e+01
2.270000e-06	1.826699e-06	9.477515e-10	1.364043e+01	5.682040e+01
2.280000e-06	1.866844e-06	1.001958e-09	1.394021e+01	6.042468e+01
2.290000e-06	1.906886e-06	1.058599e-09	1.423921e+01	6.402832e+01
2.300000e-06	1.946844e-06	1.116631e-09	1.453759e+01	6.763036e+01
2.310000e-06	1.986717e-06	1.172024e-09	1.483533e+01	7.122999e+01
2.320000e-06	2.026528e-06	1.225436e-09	1.513261e+01	7.482647e+01
2.330000e-06	2.066291e-06	1.279471e-09	1.542953e+01	7.841917e+01
2.340000e-06	2.105919e-06	1.333214e-09	1.572544e+01	8.200751e+01
2.350000e-06	2.145413e-06	1.387248e-09	1.602035e+01	8.559091e+01
2.360000e-06	2.184909e-06	1.439307e-09	1.631528e+01	8.916880e+01
2.370000e-06	2.224302e-06	1.489688e-09	1.660944e+01	9.274057e+01
2.380000e-06	2.263396e-06	1.541546e-09	1.690136e+01	9.630554e+01
2.390000e-06	2.302244e-06	1.596777e-09	1.719145e+01	9.986292e+01
2.400000e-06	2.340960e-06	1.651821e-09	1.748055e+01	1.034118e+02
2.410000e-06	2.379495e-06	1.704612e-09	1.776830e+01	1.069512e+02
2.420000e-06	2.417902e-06	1.757536e-09	1.805510e+01	1.104799e+02
2.430000e-06	2.456174e-06	1.812068e-09	1.834089e+01	1.139964e+02
2.440000e-06	2.494215e-06	1.865212e-09	1.862494e+01	1.174994e+02
2.450000e-06	2.532114e-06	1.914479e-09	1.890795e+01	1.209870e+02
2.460000e-06	2.569915e-06	1.964302e-09	1.919022e+01	1.244574e+02
2.470000e-06	2.607517e-06	2.016845e-09	1.947100e+01	1.279087e+02
2.480000e-06	2.644910e-06	2.071238e-09	1.975023e+01	1.313386e+02
2.490000e-06	2.682176e-06	2.124395e-09	2.002850e+01	1.347451e+02
2.500000e-06	2.719258e-06	2.174933e-09	2.030540e+01	1.381259e+02
2.510000e-06	2.756110e-06	2.224314e-09	2.058058e+01	1.414787e+02
2.520000e-06	2.792709e-06	2.274885e-09	2.085388e+01	1.448013e+02
2.530000e-06	2.829069e-06	2.326535e-09	2.112539e+01	1.480915e+02
2.540000e-06	2.865247e-06	2.375584e-09	2.139554e+01	1.513472e+02
2.550000e-06	2.901254e-06	2.421311e-09	2.166441e+01	1.545664e+02
2.560000e-06	2.937136e-06	2.466742e-09	2.193235e+01	1.577474e+02
2.570000e-06	2.972937e-06	2.512667e-09	2.219968e+01	1.608886e+02
2.580000e-06	3.008690e-06	2.557608e-09	2.246666e+01	1.639887e+02
2.590000e-06	3.044375e-06	2.601051e-09	2.273313e+01	1.670465e+02
2.600000e-06	3.079913e-06	2.644688e-09	2.299851e+01	1.700613e+02
2.610000e-06	3.115216e-06	2.690135e-09	2.326212e+01	1.730325e+02
2.620000e-06	3.150207e-06	2.736380e-09	2.352340e+01	1.759597e+02
2.630000e-06	3.184912e-06	2.782587e-09	2.378256e+01	1.788430e+02
2.640000e-06	3.219252e-06	2.827926e-09	2.403898e+01	1.816827e+02
2.650000e-06	3.253193e-06	2.872100e-09	2.429243e+01	1.844790e+02
2.660000e-06	3.286836e-06	2.916228e-09	2.454365e+01	1.872328e+02
2.670000e-06	3.320021e-06	2.959973e-09	2.479145e+01	1.899447e+02
2.680000e-06	3.352706e-06	3.003358e-09	2.503552e+01	1.926159e+02
2.690000e-06	3.385124e-06	3.046798e-09	2.527759e+01	1.952472e+02
2.700000e-06	3.417383e-06	3.089401e-09	2.551848e+01	1.978398e+02
2.710000e-06	3.449466e-06	3.131101e-09	2.575805e+01	2.003947e+02
2.720000e-06	3.481415e-06	3.172864e-09	2.599663e+01	2.029131e+02
2.730000e-06	3.513254e-06	3.213366e-09	2.623438e+01	2.053959e+02
2.740000e-06	3.544957e-06	3.250484e-09	2.647111e+01	2.078439e+02
2.750000e-06	3.576502e-06	3.285175e-09	2.670666e+01	2.102580e+02
2.760000e-06	3.607791e-06	3.320434e-09	2.694031e+01	2.126386e+02
2.770000e-06	3.638738e-06	3.356349e-09	2.717139e+01	2.149861e+02
2.780000e-06	3.669363e-06	3.390629e-09	2.740008e+01	2.173008e+02
2.790000e-06	3.699656e-06	3.422670e-09	2.762629e+01	2.195826e+02
2.800000e-06	3.729705e-06	3.455806e-09	2.785067e+01	2.218314e+02
2.810000e-06	3.759579e-06	3.491448e-09	2.807375e+01	2.240467e+02
2.820000e-06	3.789186e-06	3.528371e-09	2.829483e+01	2.262280e+02
2.830000e-06	3.818574e-06	3.564548e-09	2.851427e+01	2.283747e+02
2.840000e-06	3.847763e-06	3.597814e-09	2.873223e+01	2.304860e+02
2.850000e-06	3.876710e-06	3.630848e-09	2.894840e+01	2.325610e+02
2.860000e-06	3.905354e-06	3.664722e-09	2.916229e+01	2.345988e+02
2.870000e-06	3.933718e-06	3.697350e-09	2.937409e+01	2.365986e+02
2.880000e-06	3.961858e-06	3.729064e-09	2.958421e+01	2.385597e+02
2.890000e-06	3.989804e-06	3.759539e-09	2.979290e+01	2.404812e+02
2.900000e-06	4.017612e-06	3.789837e-09	3.000055e+01	2.423626e+02
