# Temperatura_=_20.0
# Concentracion g/m^3_=_12600.0
# C_Vs_to_Am_M_A/Vsm_=_65563218390.804596
# pendiente_HvsI_1/m_=_3716.3
# ordenada_HvsI_A/m_=_1297.0
# frecuencia_Hz_=_135167.2212317136

Tiempo_(s)	Campo_(V.s)	Magnetizacion_(V.s)	Campo_(kA/m)	Magnetizacion_(A/m)
0.000000e+00	-5.157393e-06	-4.655428e-09	-3.844879e+01	-2.990202e+02
1.000000e-08	-5.157496e-06	-4.655588e-09	-3.844955e+01	-2.989915e+02
2.000000e-08	-5.157372e-06	-4.655143e-09	-3.844863e+01	-2.989213e+02
3.000000e-08	-5.157013e-06	-4.654976e-09	-3.844596e+01	-2.988108e+02
4.000000e-08	-5.156316e-06	-4.660841e-09	-3.844076e+01	-2.986619e+02
5.000000e-08	-5.155135e-06	-4.671010e-09	-3.843196e+01	-2.984775e+02
6.000000e-08	-5.153358e-06	-4.654851e-09	-3.841871e+01	-2.982616e+02
7.000000e-08	-5.150919e-06	-4.608995e-09	-3.840053e+01	-2.980191e+02
8.000000e-08	-5.147855e-06	-4.604258e-09	-3.837768e+01	-2.977556e+02
9.000000e-08	-5.144324e-06	-4.658822e-09	-3.835136e+01	-2.974777e+02
1.000000e-07	-5.140439e-06	-4.697285e-09	-3.832239e+01	-2.971924e+02
1.100000e-07	-5.136324e-06	-4.674451e-09	-3.829172e+01	-2.969074e+02
1.200000e-07	-5.132006e-06	-4.601799e-09	-3.825953e+01	-2.966306e+02
1.300000e-07	-5.127454e-06	-4.583947e-09	-3.822559e+01	-2.963702e+02
1.400000e-07	-5.122593e-06	-4.609218e-09	-3.818935e+01	-2.961343e+02
1.500000e-07	-5.117295e-06	-4.661144e-09	-3.814986e+01	-2.959308e+02
1.600000e-07	-5.111574e-06	-4.632927e-09	-3.810721e+01	-2.957673e+02
1.700000e-07	-5.105536e-06	-4.585036e-09	-3.806219e+01	-2.956506e+02
1.800000e-07	-5.099133e-06	-4.556693e-09	-3.801446e+01	-2.955871e+02
1.900000e-07	-5.092374e-06	-4.604195e-09	-3.796407e+01	-2.955818e+02
2.000000e-07	-5.085371e-06	-4.615673e-09	-3.791186e+01	-2.956391e+02
2.100000e-07	-5.078073e-06	-4.584736e-09	-3.785745e+01	-2.957618e+02
2.200000e-07	-5.070425e-06	-4.566452e-09	-3.780044e+01	-2.959516e+02
2.300000e-07	-5.062574e-06	-4.605293e-09	-3.774190e+01	-2.962087e+02
2.400000e-07	-5.054459e-06	-4.637249e-09	-3.768141e+01	-2.965320e+02
2.500000e-07	-5.045823e-06	-4.611051e-09	-3.761703e+01	-2.969188e+02
2.600000e-07	-5.036535e-06	-4.589969e-09	-3.754778e+01	-2.973652e+02
2.700000e-07	-5.026727e-06	-4.613509e-09	-3.747466e+01	-2.978656e+02
2.800000e-07	-5.016571e-06	-4.670419e-09	-3.739895e+01	-2.984134e+02
2.900000e-07	-5.005982e-06	-4.683712e-09	-3.732001e+01	-2.990008e+02
3.000000e-07	-4.994814e-06	-4.647435e-09	-3.723675e+01	-2.996188e+02
3.100000e-07	-4.983141e-06	-4.596133e-09	-3.714973e+01	-3.002577e+02
3.200000e-07	-4.971158e-06	-4.645734e-09	-3.706039e+01	-3.009071e+02
3.300000e-07	-4.958892e-06	-4.738009e-09	-3.696895e+01	-3.015561e+02
3.400000e-07	-4.946235e-06	-4.721304e-09	-3.687459e+01	-3.021937e+02
3.500000e-07	-4.933075e-06	-4.549256e-09	-3.677648e+01	-3.028087e+02
3.600000e-07	-4.919517e-06	-4.532984e-09	-3.667540e+01	-3.033902e+02
3.700000e-07	-4.905695e-06	-4.694795e-09	-3.657236e+01	-3.039277e+02
3.800000e-07	-4.891577e-06	-4.758185e-09	-3.646711e+01	-3.044113e+02
3.900000e-07	-4.877032e-06	-4.566145e-09	-3.635867e+01	-3.048320e+02
4.000000e-07	-4.861967e-06	-4.481817e-09	-3.624636e+01	-3.051817e+02
4.100000e-07	-4.846350e-06	-4.625231e-09	-3.612994e+01	-3.054535e+02
4.200000e-07	-4.830274e-06	-4.738380e-09	-3.601009e+01	-3.056417e+02
4.300000e-07	-4.813756e-06	-4.615388e-09	-3.588695e+01	-3.057421e+02
4.400000e-07	-4.796872e-06	-4.477989e-09	-3.576107e+01	-3.057517e+02
4.500000e-07	-4.779792e-06	-4.512081e-09	-3.563374e+01	-3.056693e+02
4.600000e-07	-4.762509e-06	-4.641953e-09	-3.550489e+01	-3.054947e+02
4.700000e-07	-4.744893e-06	-4.652008e-09	-3.537357e+01	-3.052296e+02
4.800000e-07	-4.726867e-06	-4.520172e-09	-3.523919e+01	-3.048765e+02
4.900000e-07	-4.708547e-06	-4.437731e-09	-3.510261e+01	-3.044395e+02
5.000000e-07	-4.689879e-06	-4.517780e-09	-3.496344e+01	-3.039238e+02
5.100000e-07	-4.670785e-06	-4.620317e-09	-3.482109e+01	-3.033353e+02
5.200000e-07	-4.651374e-06	-4.556987e-09	-3.467638e+01	-3.026811e+02
5.300000e-07	-4.631708e-06	-4.417830e-09	-3.452976e+01	-3.019685e+02
5.400000e-07	-4.611856e-06	-4.396689e-09	-3.438177e+01	-3.012054e+02
5.500000e-07	-4.591818e-06	-4.510549e-09	-3.423238e+01	-3.004001e+02
5.600000e-07	-4.571562e-06	-4.548920e-09	-3.408137e+01	-2.995605e+02
5.700000e-07	-4.550986e-06	-4.446544e-09	-3.392798e+01	-2.986948e+02
5.800000e-07	-4.529988e-06	-4.349981e-09	-3.377143e+01	-2.978106e+02
5.900000e-07	-4.508613e-06	-4.400992e-09	-3.361208e+01	-2.969150e+02
6.000000e-07	-4.486997e-06	-4.477201e-09	-3.345093e+01	-2.960145e+02
6.100000e-07	-4.465230e-06	-4.452978e-09	-3.328866e+01	-2.951149e+02
6.200000e-07	-4.443158e-06	-4.358691e-09	-3.312411e+01	-2.942210e+02
6.300000e-07	-4.420748e-06	-4.318987e-09	-3.295704e+01	-2.933366e+02
6.400000e-07	-4.398061e-06	-4.347863e-09	-3.278791e+01	-2.924646e+02
6.500000e-07	-4.375010e-06	-4.393165e-09	-3.261606e+01	-2.916070e+02
6.600000e-07	-4.351604e-06	-4.368494e-09	-3.244157e+01	-2.907646e+02
6.700000e-07	-4.327896e-06	-4.292062e-09	-3.226482e+01	-2.899372e+02
6.800000e-07	-4.303951e-06	-4.257191e-09	-3.208631e+01	-2.891238e+02
6.900000e-07	-4.279839e-06	-4.305054e-09	-3.190655e+01	-2.883225e+02
7.000000e-07	-4.255476e-06	-4.338054e-09	-3.172493e+01	-2.875308e+02
7.100000e-07	-4.230799e-06	-4.288992e-09	-3.154095e+01	-2.867453e+02
7.200000e-07	-4.205800e-06	-4.213718e-09	-3.135459e+01	-2.859625e+02
7.300000e-07	-4.180329e-06	-4.205487e-09	-3.116470e+01	-2.851782e+02
7.400000e-07	-4.154428e-06	-4.246911e-09	-3.097160e+01	-2.843882e+02
7.500000e-07	-4.128028e-06	-4.249872e-09	-3.077479e+01	-2.835882e+02
7.600000e-07	-4.101085e-06	-4.189068e-09	-3.057392e+01	-2.827739e+02
7.700000e-07	-4.073842e-06	-4.140638e-09	-3.037083e+01	-2.819414e+02
7.800000e-07	-4.046294e-06	-4.158326e-09	-3.016546e+01	-2.810867e+02
7.900000e-07	-4.018535e-06	-4.188497e-09	-2.995851e+01	-2.802068e+02
8.000000e-07	-3.990664e-06	-4.165732e-09	-2.975073e+01	-2.792989e+02
8.100000e-07	-3.962625e-06	-4.104738e-09	-2.954169e+01	-2.783606e+02
8.200000e-07	-3.934385e-06	-4.074511e-09	-2.933117e+01	-2.773906e+02
8.300000e-07	-3.905910e-06	-4.088700e-09	-2.911888e+01	-2.763879e+02
8.400000e-07	-3.877127e-06	-4.097048e-09	-2.890430e+01	-2.753522e+02
8.500000e-07	-3.848020e-06	-4.060163e-09	-2.868730e+01	-2.742840e+02
8.600000e-07	-3.818641e-06	-4.016180e-09	-2.846828e+01	-2.731843e+02
8.700000e-07	-3.788982e-06	-4.004059e-09	-2.824717e+01	-2.720547e+02
8.800000e-07	-3.759108e-06	-4.015831e-09	-2.802446e+01	-2.708973e+02
8.900000e-07	-3.729051e-06	-4.007122e-09	-2.780038e+01	-2.697145e+02
9.000000e-07	-3.698693e-06	-3.972218e-09	-2.757406e+01	-2.685092e+02
9.100000e-07	-3.668071e-06	-3.935538e-09	-2.734577e+01	-2.672843e+02
9.200000e-07	-3.637217e-06	-3.922201e-09	-2.711575e+01	-2.660430e+02
9.300000e-07	-3.606106e-06	-3.918586e-09	-2.688381e+01	-2.647885e+02
9.400000e-07	-3.574783e-06	-3.903910e-09	-2.665030e+01	-2.635237e+02
9.500000e-07	-3.543241e-06	-3.872248e-09	-2.641515e+01	-2.622515e+02
9.600000e-07	-3.511543e-06	-3.843512e-09	-2.617884e+01	-2.609745e+02
9.700000e-07	-3.479691e-06	-3.831597e-09	-2.594138e+01	-2.596949e+02
9.800000e-07	-3.447599e-06	-3.828365e-09	-2.570214e+01	-2.584145e+02
9.900000e-07	-3.415343e-06	-3.810551e-09	-2.546166e+01	-2.571348e+02
1.000000e-06	-3.382912e-06	-3.775243e-09	-2.521989e+01	-2.558564e+02
1.010000e-06	-3.350155e-06	-3.743365e-09	-2.497568e+01	-2.545799e+02
1.020000e-06	-3.317035e-06	-3.733541e-09	-2.472877e+01	-2.533049e+02
1.030000e-06	-3.283636e-06	-3.728660e-09	-2.447978e+01	-2.520310e+02
1.040000e-06	-3.249972e-06	-3.703427e-09	-2.422881e+01	-2.507568e+02
1.050000e-06	-3.215838e-06	-3.665182e-09	-2.397434e+01	-2.494809e+02
1.060000e-06	-3.181277e-06	-3.640025e-09	-2.371668e+01	-2.482014e+02
1.070000e-06	-3.146329e-06	-3.634731e-09	-2.345615e+01	-2.469161e+02
1.080000e-06	-3.111015e-06	-3.623107e-09	-2.319287e+01	-2.456226e+02
1.090000e-06	-3.075517e-06	-3.592771e-09	-2.292824e+01	-2.443182e+02
1.100000e-06	-3.039857e-06	-3.559947e-09	-2.266239e+01	-2.430005e+02
1.110000e-06	-3.004085e-06	-3.541341e-09	-2.239570e+01	-2.416668e+02
1.120000e-06	-2.968226e-06	-3.527436e-09	-2.212837e+01	-2.403146e+02
1.130000e-06	-2.932264e-06	-3.505779e-09	-2.186027e+01	-2.389417e+02
1.140000e-06	-2.896186e-06	-3.476945e-09	-2.159131e+01	-2.375458e+02
1.150000e-06	-2.859916e-06	-3.451642e-09	-2.132091e+01	-2.361253e+02
1.160000e-06	-2.823453e-06	-3.432185e-09	-2.104907e+01	-2.346787e+02
1.170000e-06	-2.786782e-06	-3.412983e-09	-2.077569e+01	-2.332049e+02
1.180000e-06	-2.749826e-06	-3.389245e-09	-2.050018e+01	-2.317033e+02
1.190000e-06	-2.712668e-06	-3.364883e-09	-2.022316e+01	-2.301735e+02
1.200000e-06	-2.675339e-06	-3.341082e-09	-1.994487e+01	-2.286157e+02
1.210000e-06	-2.637836e-06	-3.315440e-09	-1.966528e+01	-2.270303e+02
1.220000e-06	-2.600166e-06	-3.290099e-09	-1.938445e+01	-2.254181e+02
1.230000e-06	-2.562293e-06	-3.267787e-09	-1.910211e+01	-2.237803e+02
1.240000e-06	-2.524229e-06	-3.240826e-09	-1.881834e+01	-2.221183e+02
1.250000e-06	-2.486014e-06	-3.205983e-09	-1.853344e+01	-2.204335e+02
1.260000e-06	-2.447624e-06	-3.173975e-09	-1.824724e+01	-2.187277e+02
1.270000e-06	-2.409043e-06	-3.155161e-09	-1.795961e+01	-2.170026e+02
1.280000e-06	-2.370303e-06	-3.140788e-09	-1.767080e+01	-2.152601e+02
1.290000e-06	-2.331336e-06	-3.114947e-09	-1.738031e+01	-2.135017e+02
1.300000e-06	-2.292189e-06	-3.079173e-09	-1.708846e+01	-2.117291e+02
1.310000e-06	-2.252974e-06	-3.049358e-09	-1.679611e+01	-2.099437e+02
1.320000e-06	-2.213613e-06	-3.029769e-09	-1.650266e+01	-2.081468e+02
1.330000e-06	-2.174091e-06	-3.005877e-09	-1.620803e+01	-2.063391e+02
1.340000e-06	-2.134472e-06	-2.967693e-09	-1.591266e+01	-2.045214e+02
1.350000e-06	-2.094784e-06	-2.927763e-09	-1.561679e+01	-2.026941e+02
1.360000e-06	-2.054999e-06	-2.900945e-09	-1.532019e+01	-2.008571e+02
1.370000e-06	-2.015086e-06	-2.881023e-09	-1.502263e+01	-1.990102e+02
1.380000e-06	-1.975098e-06	-2.853121e-09	-1.472452e+01	-1.971528e+02
1.390000e-06	-1.935019e-06	-2.816990e-09	-1.442572e+01	-1.952842e+02
1.400000e-06	-1.894804e-06	-2.785417e-09	-1.412592e+01	-1.934033e+02
1.410000e-06	-1.854532e-06	-2.762117e-09	-1.382569e+01	-1.915087e+02
1.420000e-06	-1.814224e-06	-2.738121e-09	-1.352519e+01	-1.895992e+02
1.430000e-06	-1.773749e-06	-2.703745e-09	-1.322344e+01	-1.876732e+02
1.440000e-06	-1.733137e-06	-2.664961e-09	-1.292068e+01	-1.857291e+02
1.450000e-06	-1.692406e-06	-2.632392e-09	-1.261702e+01	-1.837655e+02
1.460000e-06	-1.651497e-06	-2.605929e-09	-1.231204e+01	-1.817808e+02
1.470000e-06	-1.610344e-06	-2.577461e-09	-1.200525e+01	-1.797736e+02
1.480000e-06	-1.568896e-06	-2.544244e-09	-1.169625e+01	-1.777427e+02
1.490000e-06	-1.527220e-06	-2.510674e-09	-1.138555e+01	-1.756872e+02
1.500000e-06	-1.485336e-06	-2.480349e-09	-1.107330e+01	-1.736060e+02
1.510000e-06	-1.443286e-06	-2.450631e-09	-1.075982e+01	-1.714987e+02
1.520000e-06	-1.401127e-06	-2.418730e-09	-1.044552e+01	-1.693649e+02
1.530000e-06	-1.358772e-06	-2.384976e-09	-1.012976e+01	-1.672046e+02
1.540000e-06	-1.316204e-06	-2.349484e-09	-9.812413e+00	-1.650178e+02
1.550000e-06	-1.273537e-06	-2.315756e-09	-9.494320e+00	-1.628049e+02
1.560000e-06	-1.230691e-06	-2.283530e-09	-9.174899e+00	-1.605667e+02
1.570000e-06	-1.187700e-06	-2.249592e-09	-8.854401e+00	-1.583039e+02
1.580000e-06	-1.144658e-06	-2.212732e-09	-8.533518e+00	-1.560174e+02
1.590000e-06	-1.101515e-06	-2.174141e-09	-8.211884e+00	-1.537083e+02
1.600000e-06	-1.058361e-06	-2.140531e-09	-7.890170e+00	-1.513777e+02
1.610000e-06	-1.015111e-06	-2.110206e-09	-7.567740e+00	-1.490267e+02
1.620000e-06	-9.717026e-07	-2.074839e-09	-7.244123e+00	-1.466565e+02
1.630000e-06	-9.282558e-07	-2.033869e-09	-6.920224e+00	-1.442680e+02
1.640000e-06	-8.847600e-07	-1.994691e-09	-6.595959e+00	-1.418623e+02
1.650000e-06	-8.411761e-07	-1.961460e-09	-6.271037e+00	-1.394400e+02
1.660000e-06	-7.975460e-07	-1.928304e-09	-5.945771e+00	-1.370018e+02
1.670000e-06	-7.539328e-07	-1.889991e-09	-5.620631e+00	-1.345481e+02
1.680000e-06	-7.103051e-07	-1.850320e-09	-5.295383e+00	-1.320790e+02
1.690000e-06	-6.666172e-07	-1.815827e-09	-4.969687e+00	-1.295946e+02
1.700000e-06	-6.228781e-07	-1.784643e-09	-4.643608e+00	-1.270945e+02
1.710000e-06	-5.791129e-07	-1.749642e-09	-4.317334e+00	-1.245782e+02
1.720000e-06	-5.353278e-07	-1.708986e-09	-3.990913e+00	-1.220451e+02
1.730000e-06	-4.915445e-07	-1.667028e-09	-3.664505e+00	-1.194943e+02
1.740000e-06	-4.477587e-07	-1.629371e-09	-3.338078e+00	-1.169248e+02
1.750000e-06	-4.039743e-07	-1.592511e-09	-3.011662e+00	-1.143354e+02
1.760000e-06	-3.601980e-07	-1.552242e-09	-2.685306e+00	-1.117251e+02
1.770000e-06	-3.163638e-07	-1.509798e-09	-2.358518e+00	-1.090924e+02
1.780000e-06	-2.725071e-07	-1.467541e-09	-2.031563e+00	-1.064364e+02
1.790000e-06	-2.286685e-07	-1.426652e-09	-1.704742e+00	-1.037558e+02
1.800000e-06	-1.848302e-07	-1.387255e-09	-1.377925e+00	-1.010495e+02
1.810000e-06	-1.409868e-07	-1.347795e-09	-1.051068e+00	-9.831683e+01
1.820000e-06	-9.714103e-08	-1.305913e-09	-7.241944e-01	-9.555690e+01
1.830000e-06	-5.327534e-08	-1.263440e-09	-3.971720e-01	-9.276922e+01
1.840000e-06	-9.376278e-09	-1.222557e-09	-6.990092e-02	-8.995350e+01
1.850000e-06	3.448639e-08	-1.181753e-09	2.570989e-01	-8.710967e+01
1.860000e-06	7.832562e-08	-1.137700e-09	5.839240e-01	-8.423790e+01
1.870000e-06	1.222033e-07	-1.092065e-09	9.110357e-01	-8.133858e+01
1.880000e-06	1.661185e-07	-1.050673e-09	1.238427e+00	-7.841234e+01
1.890000e-06	2.099905e-07	-1.013766e-09	1.565497e+00	-7.546002e+01
1.900000e-06	2.538089e-07	-9.755219e-10	1.892166e+00	-7.248260e+01
1.910000e-06	2.976135e-07	-9.335978e-10	2.218733e+00	-6.948125e+01
1.920000e-06	3.413846e-07	-8.896907e-10	2.545050e+00	-6.645722e+01
1.930000e-06	3.851374e-07	-8.462770e-10	2.871231e+00	-6.341183e+01
1.940000e-06	4.289106e-07	-8.020551e-10	3.197564e+00	-6.034642e+01
1.950000e-06	4.726995e-07	-7.556567e-10	3.524014e+00	-5.726232e+01
1.960000e-06	5.164686e-07	-7.084551e-10	3.850316e+00	-5.416078e+01
1.970000e-06	5.602100e-07	-6.606317e-10	4.176412e+00	-5.104295e+01
1.980000e-06	6.038778e-07	-6.130624e-10	4.501959e+00	-4.790983e+01
1.990000e-06	6.474727e-07	-5.690390e-10	4.826963e+00	-4.476227e+01
2.000000e-06	6.910989e-07	-5.265157e-10	5.152199e+00	-4.160089e+01
2.010000e-06	7.347593e-07	-4.816668e-10	5.477691e+00	-3.842610e+01
2.020000e-06	7.784083e-07	-4.355618e-10	5.803098e+00	-3.523807e+01
2.030000e-06	8.219838e-07	-3.886971e-10	6.127957e+00	-3.203677e+01
2.040000e-06	8.654531e-07	-3.413884e-10	6.452024e+00	-2.882190e+01
2.050000e-06	9.088841e-07	-2.918552e-10	6.775806e+00	-2.559298e+01
2.060000e-06	9.523036e-07	-2.403751e-10	7.099502e+00	-2.234932e+01
2.070000e-06	9.957162e-07	-1.912193e-10	7.423147e+00	-1.909009e+01
2.080000e-06	1.039087e-06	-1.439775e-10	7.746483e+00	-1.581430e+01
2.090000e-06	1.082280e-06	-9.707991e-11	8.068490e+00	-1.252093e+01
2.100000e-06	1.125338e-06	-4.881520e-11	8.389484e+00	-9.208881e+00
2.110000e-06	1.168343e-06	1.961701e-14	8.710096e+00	-5.877087e+00
2.120000e-06	1.211232e-06	4.902759e-11	9.029835e+00	-2.524539e+00
2.130000e-06	1.253997e-06	9.755113e-11	9.348650e+00	8.496638e-01
2.140000e-06	1.296629e-06	1.464776e-10	9.666475e+00	4.246266e+00
2.150000e-06	1.339118e-06	1.982578e-10	9.983235e+00	7.665812e+00
2.160000e-06	1.381415e-06	2.511842e-10	1.029857e+01	1.110861e+01
2.170000e-06	1.423409e-06	3.030312e-10	1.061163e+01	1.457471e+01
2.180000e-06	1.465300e-06	3.530357e-10	1.092393e+01	1.806386e+01
2.190000e-06	1.507112e-06	4.038728e-10	1.123564e+01	2.157550e+01
2.200000e-06	1.548664e-06	4.551479e-10	1.154542e+01	2.510876e+01
2.210000e-06	1.590084e-06	5.053117e-10	1.185421e+01	2.866247e+01
2.220000e-06	1.631304e-06	5.543244e-10	1.216150e+01	3.223513e+01
2.230000e-06	1.672232e-06	6.028500e-10	1.246663e+01	3.582498e+01
2.240000e-06	1.712947e-06	6.529410e-10	1.277016e+01	3.943001e+01
2.250000e-06	1.753507e-06	7.050820e-10	1.307254e+01	4.304795e+01
2.260000e-06	1.793927e-06	7.582848e-10	1.337388e+01	4.667640e+01
2.270000e-06	1.834177e-06	8.108294e-10	1.367394e+01	5.031277e+01
2.280000e-06	1.874282e-06	8.627071e-10	1.397292e+01	5.395442e+01
2.290000e-06	1.914305e-06	9.163428e-10	1.427130e+01	5.759865e+01
2.300000e-06	1.954272e-06	9.707108e-10	1.456926e+01	6.124277e+01
2.310000e-06	1.994150e-06	1.021290e-09	1.486655e+01	6.488414e+01
2.320000e-06	2.033988e-06	1.068377e-09	1.516355e+01	6.852023e+01
2.330000e-06	2.073774e-06	1.118050e-09	1.546016e+01	7.214865e+01
2.340000e-06	2.113427e-06	1.171184e-09	1.575577e+01	7.576719e+01
2.350000e-06	2.152982e-06	1.224719e-09	1.605066e+01	7.937384e+01
2.360000e-06	2.192429e-06	1.276838e-09	1.634474e+01	8.296681e+01
2.370000e-06	2.231726e-06	1.329772e-09	1.663770e+01	8.654456e+01
2.380000e-06	2.270901e-06	1.381341e-09	1.692975e+01	9.010578e+01
2.390000e-06	2.309992e-06	1.430535e-09	1.722118e+01	9.364941e+01
2.400000e-06	2.348875e-06	1.480987e-09	1.751106e+01	9.717460e+01
2.410000e-06	2.387554e-06	1.532689e-09	1.779941e+01	1.006807e+02
2.420000e-06	2.426059e-06	1.584163e-09	1.808647e+01	1.041673e+02
2.430000e-06	2.464371e-06	1.633571e-09	1.837209e+01	1.076341e+02
2.440000e-06	2.502537e-06	1.682786e-09	1.865662e+01	1.110809e+02
2.450000e-06	2.540537e-06	1.733918e-09	1.893991e+01	1.145075e+02
2.460000e-06	2.578380e-06	1.784853e-09	1.922204e+01	1.179139e+02
2.470000e-06	2.616022e-06	1.833936e-09	1.950266e+01	1.212999e+02
2.480000e-06	2.653461e-06	1.882373e-09	1.978177e+01	1.246655e+02
2.490000e-06	2.690756e-06	1.930046e-09	2.005981e+01	1.280103e+02
2.500000e-06	2.727897e-06	1.976838e-09	2.033669e+01	1.313339e+02
2.510000e-06	2.764862e-06	2.022311e-09	2.061227e+01	1.346359e+02
2.520000e-06	2.801582e-06	2.067925e-09	2.088603e+01	1.379156e+02
2.530000e-06	2.837971e-06	2.115555e-09	2.115731e+01	1.411720e+02
2.540000e-06	2.874145e-06	2.163804e-09	2.142699e+01	1.444041e+02
2.550000e-06	2.910207e-06	2.209964e-09	2.169584e+01	1.476107e+02
2.560000e-06	2.946203e-06	2.251980e-09	2.196419e+01	1.507903e+02
2.570000e-06	2.982072e-06	2.294132e-09	2.223159e+01	1.539413e+02
2.580000e-06	3.017757e-06	2.337691e-09	2.249763e+01	1.570620e+02
2.590000e-06	3.053368e-06	2.380282e-09	2.276311e+01	1.601505e+02
2.600000e-06	3.088861e-06	2.420497e-09	2.302771e+01	1.632051e+02
2.610000e-06	3.124153e-06	2.460564e-09	2.329082e+01	1.662237e+02
2.620000e-06	3.159250e-06	2.503477e-09	2.355247e+01	1.692044e+02
2.630000e-06	3.194016e-06	2.546948e-09	2.381165e+01	1.721455e+02
2.640000e-06	3.228402e-06	2.588627e-09	2.406801e+01	1.750453e+02
2.650000e-06	3.262442e-06	2.628918e-09	2.432177e+01	1.779021e+02
2.660000e-06	3.296059e-06	2.671050e-09	2.457239e+01	1.807147e+02
2.670000e-06	3.329266e-06	2.715853e-09	2.481995e+01	1.834820e+02
2.680000e-06	3.362060e-06	2.758975e-09	2.506444e+01	1.862030e+02
2.690000e-06	3.394519e-06	2.798144e-09	2.530642e+01	1.888772e+02
2.700000e-06	3.426823e-06	2.835146e-09	2.554724e+01	1.915044e+02
2.710000e-06	3.458966e-06	2.871780e-09	2.578688e+01	1.940845e+02
2.720000e-06	3.490930e-06	2.908562e-09	2.602517e+01	1.966179e+02
2.730000e-06	3.522724e-06	2.943722e-09	2.626220e+01	1.991052e+02
2.740000e-06	3.554299e-06	2.977438e-09	2.649759e+01	2.015473e+02
2.750000e-06	3.585756e-06	3.011721e-09	2.673211e+01	2.039452e+02
2.760000e-06	3.617061e-06	3.048261e-09	2.696549e+01	2.063003e+02
2.770000e-06	3.647993e-06	3.084395e-09	2.719609e+01	2.086140e+02
2.780000e-06	3.678598e-06	3.117268e-09	2.742425e+01	2.108880e+02
2.790000e-06	3.708973e-06	3.148872e-09	2.765070e+01	2.131237e+02
2.800000e-06	3.739101e-06	3.180858e-09	2.787531e+01	2.153228e+02
2.810000e-06	3.768988e-06	3.211980e-09	2.809812e+01	2.174870e+02
2.820000e-06	3.798727e-06	3.242993e-09	2.831982e+01	2.196176e+02
2.830000e-06	3.828234e-06	3.275087e-09	2.853980e+01	2.217161e+02
2.840000e-06	3.857460e-06	3.307376e-09	2.875768e+01	2.237836e+02
2.850000e-06	3.886453e-06	3.339178e-09	2.897383e+01	2.258210e+02
2.860000e-06	3.915110e-06	3.370018e-09	2.918747e+01	2.278291e+02
2.870000e-06	3.943518e-06	3.399348e-09	2.939925e+01	2.298082e+02
2.880000e-06	3.971714e-06	3.428347e-09	2.960946e+01	2.317586e+02
2.890000e-06	3.999634e-06	3.456335e-09	2.981760e+01	2.336803e+02
2.900000e-06	4.027340e-06	3.483358e-09	3.002415e+01	2.355727e+02
