# Temperatura_=_20.0
# Concentracion g/m^3_=_12600.0
# C_Vs_to_Am_M_A/Vsm_=_65563218390.804596
# pendiente_HvsI_1/m_=_3716.3
# ordenada_HvsI_A/m_=_1297.0
# frecuencia_Hz_=_135176.99307387086

Tiempo_(s)	Campo_(V.s)	Magnetizacion_(V.s)	Campo_(kA/m)	Magnetizacion_(A/m)
0.000000e+00	-5.158950e-06	-5.194153e-09	-3.844180e+01	-3.349334e+02
1.000000e-08	-5.159055e-06	-5.193153e-09	-3.844258e+01	-3.350268e+02
2.000000e-08	-5.158902e-06	-5.193699e-09	-3.844145e+01	-3.351178e+02
3.000000e-08	-5.158434e-06	-5.193769e-09	-3.843796e+01	-3.352050e+02
4.000000e-08	-5.157490e-06	-5.189800e-09	-3.843092e+01	-3.352859e+02
5.000000e-08	-5.155993e-06	-5.180008e-09	-3.841977e+01	-3.353579e+02
6.000000e-08	-5.153950e-06	-5.164337e-09	-3.840454e+01	-3.354176e+02
7.000000e-08	-5.151387e-06	-5.182720e-09	-3.838545e+01	-3.354615e+02
8.000000e-08	-5.148224e-06	-5.242918e-09	-3.836188e+01	-3.354854e+02
9.000000e-08	-5.144482e-06	-5.209381e-09	-3.833399e+01	-3.354851e+02
1.000000e-07	-5.140421e-06	-5.035109e-09	-3.830374e+01	-3.354563e+02
1.100000e-07	-5.136285e-06	-5.092297e-09	-3.827291e+01	-3.353945e+02
1.200000e-07	-5.131975e-06	-5.258024e-09	-3.824080e+01	-3.352952e+02
1.300000e-07	-5.127270e-06	-5.316430e-09	-3.820574e+01	-3.351545e+02
1.400000e-07	-5.122195e-06	-5.119360e-09	-3.816792e+01	-3.349684e+02
1.500000e-07	-5.116842e-06	-4.985782e-09	-3.812803e+01	-3.347334e+02
1.600000e-07	-5.111098e-06	-5.094800e-09	-3.808523e+01	-3.344468e+02
1.700000e-07	-5.104844e-06	-5.191505e-09	-3.803863e+01	-3.341062e+02
1.800000e-07	-5.098306e-06	-5.230539e-09	-3.798992e+01	-3.337101e+02
1.900000e-07	-5.091658e-06	-5.106997e-09	-3.794037e+01	-3.332577e+02
2.000000e-07	-5.084677e-06	-5.013917e-09	-3.788836e+01	-3.327489e+02
2.100000e-07	-5.077200e-06	-5.028117e-09	-3.783265e+01	-3.321846e+02
2.200000e-07	-5.069443e-06	-5.226633e-09	-3.777484e+01	-3.315664e+02
2.300000e-07	-5.061579e-06	-5.193619e-09	-3.771624e+01	-3.308970e+02
2.400000e-07	-5.053303e-06	-4.954667e-09	-3.765458e+01	-3.301796e+02
2.500000e-07	-5.044282e-06	-4.905517e-09	-3.758735e+01	-3.294183e+02
2.600000e-07	-5.034741e-06	-5.149501e-09	-3.751626e+01	-3.286178e+02
2.700000e-07	-5.024944e-06	-5.140796e-09	-3.744326e+01	-3.277835e+02
2.800000e-07	-5.014541e-06	-4.826107e-09	-3.736574e+01	-3.269210e+02
2.900000e-07	-5.003493e-06	-4.789113e-09	-3.728341e+01	-3.260365e+02
3.000000e-07	-4.992143e-06	-5.069810e-09	-3.719885e+01	-3.251365e+02
3.100000e-07	-4.980475e-06	-5.023812e-09	-3.711190e+01	-3.242273e+02
3.200000e-07	-4.968442e-06	-4.719185e-09	-3.702223e+01	-3.233154e+02
3.300000e-07	-4.956029e-06	-4.808310e-09	-3.692974e+01	-3.224070e+02
3.400000e-07	-4.943255e-06	-5.059612e-09	-3.683455e+01	-3.215081e+02
3.500000e-07	-4.930130e-06	-4.857919e-09	-3.673675e+01	-3.206241e+02
3.600000e-07	-4.916717e-06	-4.626694e-09	-3.663681e+01	-3.197599e+02
3.700000e-07	-4.903007e-06	-4.896459e-09	-3.653465e+01	-3.189198e+02
3.800000e-07	-4.888956e-06	-5.011153e-09	-3.642995e+01	-3.181074e+02
3.900000e-07	-4.874299e-06	-4.734986e-09	-3.632073e+01	-3.173253e+02
4.000000e-07	-4.858892e-06	-4.644584e-09	-3.620592e+01	-3.165754e+02
4.100000e-07	-4.843104e-06	-4.856450e-09	-3.608828e+01	-3.158587e+02
4.200000e-07	-4.826981e-06	-4.863183e-09	-3.596814e+01	-3.151752e+02
4.300000e-07	-4.810425e-06	-4.764866e-09	-3.584477e+01	-3.145241e+02
4.400000e-07	-4.793590e-06	-4.746196e-09	-3.571933e+01	-3.139038e+02
4.500000e-07	-4.776522e-06	-4.717478e-09	-3.559215e+01	-3.133117e+02
4.600000e-07	-4.759160e-06	-4.699666e-09	-3.546277e+01	-3.127448e+02
4.700000e-07	-4.741489e-06	-4.824274e-09	-3.533110e+01	-3.121992e+02
4.800000e-07	-4.723417e-06	-4.818237e-09	-3.519643e+01	-3.116706e+02
4.900000e-07	-4.704962e-06	-4.630093e-09	-3.505892e+01	-3.111542e+02
5.000000e-07	-4.686099e-06	-4.592549e-09	-3.491836e+01	-3.106451e+02
5.100000e-07	-4.666793e-06	-4.773404e-09	-3.477450e+01	-3.101380e+02
5.200000e-07	-4.647322e-06	-4.812857e-09	-3.462941e+01	-3.096278e+02
5.300000e-07	-4.627740e-06	-4.639277e-09	-3.448350e+01	-3.091092e+02
5.400000e-07	-4.607864e-06	-4.528688e-09	-3.433540e+01	-3.085773e+02
5.500000e-07	-4.587728e-06	-4.631406e-09	-3.418535e+01	-3.080276e+02
5.600000e-07	-4.567425e-06	-4.740325e-09	-3.403406e+01	-3.074558e+02
5.700000e-07	-4.546837e-06	-4.660220e-09	-3.388066e+01	-3.068583e+02
5.800000e-07	-4.525822e-06	-4.533619e-09	-3.372406e+01	-3.062318e+02
5.900000e-07	-4.504512e-06	-4.550223e-09	-3.356527e+01	-3.055739e+02
6.000000e-07	-4.482888e-06	-4.612063e-09	-3.340414e+01	-3.048827e+02
6.100000e-07	-4.460937e-06	-4.599957e-09	-3.324058e+01	-3.041570e+02
6.200000e-07	-4.438674e-06	-4.572807e-09	-3.307468e+01	-3.033964e+02
6.300000e-07	-4.416032e-06	-4.524826e-09	-3.290596e+01	-3.026010e+02
6.400000e-07	-4.393088e-06	-4.467240e-09	-3.273500e+01	-3.017715e+02
6.500000e-07	-4.369876e-06	-4.489917e-09	-3.256203e+01	-3.009092e+02
6.600000e-07	-4.346393e-06	-4.561746e-09	-3.238705e+01	-3.000159e+02
6.700000e-07	-4.322688e-06	-4.515955e-09	-3.221042e+01	-2.990940e+02
6.800000e-07	-4.298833e-06	-4.407592e-09	-3.203266e+01	-2.981458e+02
6.900000e-07	-4.274768e-06	-4.392540e-09	-3.185334e+01	-2.971742e+02
7.000000e-07	-4.250362e-06	-4.469930e-09	-3.167148e+01	-2.961820e+02
7.100000e-07	-4.225526e-06	-4.486177e-09	-3.148641e+01	-2.951723e+02
7.200000e-07	-4.200236e-06	-4.402110e-09	-3.129797e+01	-2.941479e+02
7.300000e-07	-4.174460e-06	-4.318989e-09	-3.110590e+01	-2.931116e+02
7.400000e-07	-4.148213e-06	-4.343992e-09	-3.091031e+01	-2.920658e+02
7.500000e-07	-4.121619e-06	-4.403637e-09	-3.071215e+01	-2.910129e+02
7.600000e-07	-4.094639e-06	-4.379903e-09	-3.051111e+01	-2.899545e+02
7.700000e-07	-4.067325e-06	-4.285649e-09	-3.030758e+01	-2.888923e+02
7.800000e-07	-4.039793e-06	-4.245861e-09	-3.010243e+01	-2.878272e+02
7.900000e-07	-4.012047e-06	-4.286030e-09	-2.989568e+01	-2.867598e+02
8.000000e-07	-3.984115e-06	-4.312880e-09	-2.968755e+01	-2.856901e+02
8.100000e-07	-3.955992e-06	-4.256279e-09	-2.947799e+01	-2.846178e+02
8.200000e-07	-3.927641e-06	-4.183037e-09	-2.926673e+01	-2.835421e+02
8.300000e-07	-3.898964e-06	-4.174427e-09	-2.905304e+01	-2.824618e+02
8.400000e-07	-3.869991e-06	-4.205702e-09	-2.883715e+01	-2.813754e+02
8.500000e-07	-3.840729e-06	-4.201892e-09	-2.861911e+01	-2.802811e+02
8.600000e-07	-3.811228e-06	-4.150941e-09	-2.839928e+01	-2.791770e+02
8.700000e-07	-3.781546e-06	-4.102116e-09	-2.817810e+01	-2.780608e+02
8.800000e-07	-3.751596e-06	-4.099823e-09	-2.795494e+01	-2.769304e+02
8.900000e-07	-3.721374e-06	-4.121768e-09	-2.772974e+01	-2.757834e+02
9.000000e-07	-3.690982e-06	-4.105847e-09	-2.750327e+01	-2.746179e+02
9.100000e-07	-3.660342e-06	-4.053176e-09	-2.727496e+01	-2.734318e+02
9.200000e-07	-3.629383e-06	-4.015467e-09	-2.704427e+01	-2.722234e+02
9.300000e-07	-3.598145e-06	-4.015622e-09	-2.681150e+01	-2.709910e+02
9.400000e-07	-3.566684e-06	-4.015672e-09	-2.657707e+01	-2.697335e+02
9.500000e-07	-3.535075e-06	-3.990848e-09	-2.634153e+01	-2.684501e+02
9.600000e-07	-3.503318e-06	-3.947936e-09	-2.610490e+01	-2.671401e+02
9.700000e-07	-3.471458e-06	-3.913519e-09	-2.586749e+01	-2.658035e+02
9.800000e-07	-3.439438e-06	-3.901428e-09	-2.562889e+01	-2.644404e+02
9.900000e-07	-3.407135e-06	-3.902139e-09	-2.538819e+01	-2.630515e+02
1.000000e-06	-3.374487e-06	-3.881037e-09	-2.514491e+01	-2.616375e+02
1.010000e-06	-3.341502e-06	-3.834095e-09	-2.489913e+01	-2.601997e+02
1.020000e-06	-3.308185e-06	-3.798030e-09	-2.465087e+01	-2.587395e+02
1.030000e-06	-3.274543e-06	-3.797369e-09	-2.440018e+01	-2.572585e+02
1.040000e-06	-3.240474e-06	-3.794042e-09	-2.414632e+01	-2.557585e+02
1.050000e-06	-3.205967e-06	-3.756248e-09	-2.388919e+01	-2.542411e+02
1.060000e-06	-3.171164e-06	-3.705217e-09	-2.362986e+01	-2.527083e+02
1.070000e-06	-3.136014e-06	-3.685425e-09	-2.336794e+01	-2.511617e+02
1.080000e-06	-3.100594e-06	-3.689540e-09	-2.310401e+01	-2.496031e+02
1.090000e-06	-3.065043e-06	-3.674487e-09	-2.283910e+01	-2.480339e+02
1.100000e-06	-3.029391e-06	-3.628719e-09	-2.257344e+01	-2.464554e+02
1.110000e-06	-2.993592e-06	-3.591093e-09	-2.230669e+01	-2.448685e+02
1.120000e-06	-2.957606e-06	-3.582135e-09	-2.203854e+01	-2.432741e+02
1.130000e-06	-2.921552e-06	-3.571832e-09	-2.176988e+01	-2.416724e+02
1.140000e-06	-2.885367e-06	-3.538016e-09	-2.150025e+01	-2.400635e+02
1.150000e-06	-2.848907e-06	-3.495804e-09	-2.122857e+01	-2.384473e+02
1.160000e-06	-2.812281e-06	-3.469247e-09	-2.095565e+01	-2.368232e+02
1.170000e-06	-2.775482e-06	-3.451461e-09	-2.068144e+01	-2.351902e+02
1.180000e-06	-2.738401e-06	-3.428475e-09	-2.040513e+01	-2.335474e+02
1.190000e-06	-2.701141e-06	-3.398686e-09	-2.012749e+01	-2.318932e+02
1.200000e-06	-2.663726e-06	-3.369169e-09	-1.984869e+01	-2.302263e+02
1.210000e-06	-2.626125e-06	-3.344773e-09	-1.956851e+01	-2.285450e+02
1.220000e-06	-2.588336e-06	-3.320782e-09	-1.928693e+01	-2.268475e+02
1.230000e-06	-2.550321e-06	-3.293535e-09	-1.900366e+01	-2.251320e+02
1.240000e-06	-2.512195e-06	-3.262923e-09	-1.871956e+01	-2.233968e+02
1.250000e-06	-2.473931e-06	-3.229737e-09	-1.843444e+01	-2.216403e+02
1.260000e-06	-2.435451e-06	-3.195282e-09	-1.814771e+01	-2.198609e+02
1.270000e-06	-2.396887e-06	-3.163775e-09	-1.786035e+01	-2.180573e+02
1.280000e-06	-2.358159e-06	-3.139881e-09	-1.757177e+01	-2.162283e+02
1.290000e-06	-2.319216e-06	-3.115189e-09	-1.728159e+01	-2.143732e+02
1.300000e-06	-2.280164e-06	-3.079640e-09	-1.699059e+01	-2.124913e+02
1.310000e-06	-2.240972e-06	-3.041915e-09	-1.669856e+01	-2.105822e+02
1.320000e-06	-2.201552e-06	-3.018365e-09	-1.640481e+01	-2.086460e+02
1.330000e-06	-2.161971e-06	-2.997557e-09	-1.610988e+01	-2.066830e+02
1.340000e-06	-2.122347e-06	-2.960281e-09	-1.581462e+01	-2.046936e+02
1.350000e-06	-2.082623e-06	-2.915292e-09	-1.551862e+01	-2.026786e+02
1.360000e-06	-2.042812e-06	-2.883562e-09	-1.522197e+01	-2.006391e+02
1.370000e-06	-2.002929e-06	-2.859612e-09	-1.492478e+01	-1.985762e+02
1.380000e-06	-1.962943e-06	-2.827738e-09	-1.462683e+01	-1.964913e+02
1.390000e-06	-1.922818e-06	-2.787087e-09	-1.432784e+01	-1.943856e+02
1.400000e-06	-1.882641e-06	-2.749659e-09	-1.402846e+01	-1.922608e+02
1.410000e-06	-1.842377e-06	-2.720720e-09	-1.372843e+01	-1.901180e+02
1.420000e-06	-1.801953e-06	-2.694349e-09	-1.342721e+01	-1.879589e+02
1.430000e-06	-1.761378e-06	-2.660958e-09	-1.312487e+01	-1.857844e+02
1.440000e-06	-1.720597e-06	-2.620361e-09	-1.282099e+01	-1.835959e+02
1.450000e-06	-1.679657e-06	-2.583485e-09	-1.251593e+01	-1.813941e+02
1.460000e-06	-1.638501e-06	-2.553740e-09	-1.220926e+01	-1.791797e+02
1.470000e-06	-1.597210e-06	-2.520851e-09	-1.190158e+01	-1.769532e+02
1.480000e-06	-1.555838e-06	-2.482834e-09	-1.159329e+01	-1.747147e+02
1.490000e-06	-1.514172e-06	-2.446665e-09	-1.128282e+01	-1.724641e+02
1.500000e-06	-1.472277e-06	-2.412967e-09	-1.097064e+01	-1.702011e+02
1.510000e-06	-1.430186e-06	-2.380292e-09	-1.065700e+01	-1.679250e+02
1.520000e-06	-1.387882e-06	-2.346743e-09	-1.034177e+01	-1.656349e+02
1.530000e-06	-1.345457e-06	-2.312576e-09	-1.002564e+01	-1.633299e+02
1.540000e-06	-1.302892e-06	-2.275214e-09	-9.708470e+00	-1.610085e+02
1.550000e-06	-1.260211e-06	-2.232891e-09	-9.390434e+00	-1.586694e+02
1.560000e-06	-1.217385e-06	-2.189551e-09	-9.071319e+00	-1.563112e+02
1.570000e-06	-1.174426e-06	-2.151025e-09	-8.751211e+00	-1.539323e+02
1.580000e-06	-1.131331e-06	-2.112160e-09	-8.430085e+00	-1.515311e+02
1.590000e-06	-1.088093e-06	-2.071379e-09	-8.107900e+00	-1.491062e+02
1.600000e-06	-1.044789e-06	-2.033472e-09	-7.785226e+00	-1.466562e+02
1.610000e-06	-1.001484e-06	-1.999526e-09	-7.462533e+00	-1.441797e+02
1.620000e-06	-9.580969e-07	-1.961627e-09	-7.139237e+00	-1.416756e+02
1.630000e-06	-9.145872e-07	-1.918094e-09	-6.815026e+00	-1.391431e+02
1.640000e-06	-8.710456e-07	-1.875099e-09	-6.490577e+00	-1.365815e+02
1.650000e-06	-8.274334e-07	-1.835956e-09	-6.165601e+00	-1.339904e+02
1.660000e-06	-7.837734e-07	-1.798686e-09	-5.840270e+00	-1.313695e+02
1.670000e-06	-7.401477e-07	-1.757490e-09	-5.515194e+00	-1.287190e+02
1.680000e-06	-6.965606e-07	-1.712849e-09	-5.190406e+00	-1.260391e+02
1.690000e-06	-6.529636e-07	-1.671253e-09	-4.865544e+00	-1.233306e+02
1.700000e-06	-6.092866e-07	-1.636020e-09	-4.540085e+00	-1.205940e+02
1.710000e-06	-5.655381e-07	-1.599723e-09	-4.214095e+00	-1.178306e+02
1.720000e-06	-5.217696e-07	-1.555259e-09	-3.887955e+00	-1.150413e+02
1.730000e-06	-4.779514e-07	-1.510860e-09	-3.561444e+00	-1.122274e+02
1.740000e-06	-4.341280e-07	-1.473323e-09	-3.234895e+00	-1.093903e+02
1.750000e-06	-3.903484e-07	-1.433508e-09	-2.908672e+00	-1.065314e+02
1.760000e-06	-3.465087e-07	-1.388829e-09	-2.582002e+00	-1.036520e+02
1.770000e-06	-3.026107e-07	-1.344463e-09	-2.254897e+00	-1.007534e+02
1.780000e-06	-2.587338e-07	-1.301640e-09	-1.927949e+00	-9.783695e+01
1.790000e-06	-2.148904e-07	-1.257199e-09	-1.601251e+00	-9.490365e+01
1.800000e-06	-1.710777e-07	-1.213681e-09	-1.274782e+00	-9.195450e+01
1.810000e-06	-1.272360e-07	-1.171270e-09	-9.480965e-01	-8.899025e+01
1.820000e-06	-8.334473e-08	-1.128130e-09	-6.210414e-01	-8.601148e+01
1.830000e-06	-3.940901e-08	-1.084344e-09	-2.936553e-01	-8.301854e+01
1.840000e-06	4.513727e-09	-1.040751e-09	3.363393e-02	-8.001157e+01
1.850000e-06	4.841513e-08	-9.968683e-10	3.607643e-01	-7.699047e+01
1.860000e-06	9.233359e-08	-9.491625e-10	6.880217e-01	-7.395495e+01
1.870000e-06	1.362084e-07	-9.006787e-10	1.014954e+00	-7.090452e+01
1.880000e-06	1.800415e-07	-8.581193e-10	1.341575e+00	-6.783850e+01
1.890000e-06	2.238670e-07	-8.171883e-10	1.668140e+00	-6.475610e+01
1.900000e-06	2.676690e-07	-7.717728e-10	1.994530e+00	-6.165637e+01
1.910000e-06	3.114421e-07	-7.262430e-10	2.320704e+00	-5.853832e+01
1.920000e-06	3.552530e-07	-6.813942e-10	2.647160e+00	-5.540087e+01
1.930000e-06	3.990888e-07	-6.359716e-10	2.973801e+00	-5.224298e+01
1.940000e-06	4.428717e-07	-5.899295e-10	3.300049e+00	-4.906360e+01
1.950000e-06	4.866157e-07	-5.412106e-10	3.626006e+00	-4.586176e+01
1.960000e-06	5.303317e-07	-4.914627e-10	3.951755e+00	-4.263657e+01
1.970000e-06	5.741000e-07	-4.370151e-10	4.277893e+00	-3.938730e+01
1.980000e-06	6.178966e-07	-3.846028e-10	4.604243e+00	-3.611333e+01
1.990000e-06	6.616193e-07	-3.387694e-10	4.930041e+00	-3.281422e+01
2.000000e-06	7.053311e-07	-2.925592e-10	5.255759e+00	-2.948971e+01
2.010000e-06	7.490206e-07	-2.436127e-10	5.581310e+00	-2.613973e+01
2.020000e-06	7.926134e-07	-1.938596e-10	5.906141e+00	-2.276438e+01
2.030000e-06	8.361565e-07	-1.448388e-10	6.230602e+00	-1.936395e+01
2.040000e-06	8.797038e-07	-9.493700e-11	6.555093e+00	-1.593889e+01
2.050000e-06	9.232342e-07	-4.118387e-11	6.879459e+00	-1.248983e+01
2.060000e-06	9.666918e-07	1.459406e-11	7.203282e+00	-9.017495e+00
2.070000e-06	1.010029e-06	6.888428e-11	7.526208e+00	-5.522734e+00
2.080000e-06	1.053245e-06	1.210138e-10	7.848229e+00	-2.006473e+00
2.090000e-06	1.096383e-06	1.744242e-10	8.169677e+00	1.530310e+00
2.100000e-06	1.139466e-06	2.297716e-10	8.490709e+00	5.086614e+00
2.110000e-06	1.182463e-06	2.840502e-10	8.811093e+00	8.661442e+00
2.120000e-06	1.225355e-06	3.352308e-10	9.130702e+00	1.225383e+01
2.130000e-06	1.268125e-06	3.840562e-10	9.449407e+00	1.586286e+01
2.140000e-06	1.310764e-06	4.387492e-10	9.767131e+00	1.948771e+01
2.150000e-06	1.353187e-06	4.967306e-10	1.008324e+01	2.312760e+01
2.160000e-06	1.395387e-06	5.535292e-10	1.039769e+01	2.678189e+01
2.170000e-06	1.437457e-06	6.080089e-10	1.071118e+01	3.045002e+01
2.180000e-06	1.479467e-06	6.636283e-10	1.102421e+01	3.413152e+01
2.190000e-06	1.521226e-06	7.204346e-10	1.133539e+01	3.782603e+01
2.200000e-06	1.562719e-06	7.736960e-10	1.164457e+01	4.153326e+01
2.210000e-06	1.604016e-06	8.240293e-10	1.195229e+01	4.525296e+01
2.220000e-06	1.644984e-06	8.756548e-10	1.225756e+01	4.898494e+01
2.230000e-06	1.685718e-06	9.286937e-10	1.256109e+01	5.272901e+01
2.240000e-06	1.726348e-06	9.818466e-10	1.286385e+01	5.648497e+01
2.250000e-06	1.766857e-06	1.036760e-09	1.316569e+01	6.025256e+01
2.260000e-06	1.807236e-06	1.095633e-09	1.346658e+01	6.403143e+01
2.270000e-06	1.847531e-06	1.152598e-09	1.376684e+01	6.782115e+01
2.280000e-06	1.887724e-06	1.206232e-09	1.406633e+01	7.162113e+01
2.290000e-06	1.927735e-06	1.261453e-09	1.436448e+01	7.543061e+01
2.300000e-06	1.967608e-06	1.318861e-09	1.466159e+01	7.924868e+01
2.310000e-06	2.007395e-06	1.371826e-09	1.495806e+01	8.307418e+01
2.320000e-06	2.047102e-06	1.421581e-09	1.525394e+01	8.690577e+01
2.330000e-06	2.086800e-06	1.475276e-09	1.554974e+01	9.074188e+01
2.340000e-06	2.126448e-06	1.532746e-09	1.584518e+01	9.458073e+01
2.350000e-06	2.166013e-06	1.590895e-09	1.614000e+01	9.842033e+01
2.360000e-06	2.205542e-06	1.644330e-09	1.643455e+01	1.022585e+02
2.370000e-06	2.244962e-06	1.696795e-09	1.672829e+01	1.060929e+02
2.380000e-06	2.284166e-06	1.753193e-09	1.702041e+01	1.099209e+02
2.390000e-06	2.323161e-06	1.810492e-09	1.731098e+01	1.137401e+02
2.400000e-06	2.361924e-06	1.865072e-09	1.759983e+01	1.175476e+02
2.410000e-06	2.400451e-06	1.917339e-09	1.788691e+01	1.213408e+02
2.420000e-06	2.438833e-06	1.972520e-09	1.817291e+01	1.251169e+02
2.430000e-06	2.477069e-06	2.029749e-09	1.845782e+01	1.288732e+02
2.440000e-06	2.515072e-06	2.083050e-09	1.874101e+01	1.326072e+02
2.450000e-06	2.552915e-06	2.134837e-09	1.902299e+01	1.363162e+02
2.460000e-06	2.590687e-06	2.187737e-09	1.930445e+01	1.399982e+02
2.470000e-06	2.628349e-06	2.241898e-09	1.958508e+01	1.436508e+02
2.480000e-06	2.665839e-06	2.295983e-09	1.986444e+01	1.472721e+02
2.490000e-06	2.703140e-06	2.347735e-09	2.014239e+01	1.508606e+02
2.500000e-06	2.740281e-06	2.395570e-09	2.041914e+01	1.544149e+02
2.510000e-06	2.777148e-06	2.444046e-09	2.069385e+01	1.579336e+02
2.520000e-06	2.813708e-06	2.495245e-09	2.096629e+01	1.614161e+02
2.530000e-06	2.850056e-06	2.546378e-09	2.123713e+01	1.648616e+02
2.540000e-06	2.886177e-06	2.595328e-09	2.150628e+01	1.682698e+02
2.550000e-06	2.922159e-06	2.642873e-09	2.177440e+01	1.716406e+02
2.560000e-06	2.958092e-06	2.690410e-09	2.204216e+01	1.749739e+02
2.570000e-06	2.993973e-06	2.740213e-09	2.230952e+01	1.782700e+02
2.580000e-06	3.029786e-06	2.789251e-09	2.257638e+01	1.815292e+02
2.590000e-06	3.065424e-06	2.835599e-09	2.284194e+01	1.847520e+02
2.600000e-06	3.100871e-06	2.879236e-09	2.310607e+01	1.879388e+02
2.610000e-06	3.136165e-06	2.925212e-09	2.336907e+01	1.910902e+02
2.620000e-06	3.171221e-06	2.975839e-09	2.363028e+01	1.942066e+02
2.630000e-06	3.206024e-06	3.025051e-09	2.388962e+01	1.972885e+02
2.640000e-06	3.240472e-06	3.069939e-09	2.414631e+01	2.003362e+02
2.650000e-06	3.274369e-06	3.112426e-09	2.439889e+01	2.033499e+02
2.660000e-06	3.307729e-06	3.158470e-09	2.464747e+01	2.063297e+02
2.670000e-06	3.340711e-06	3.206906e-09	2.489323e+01	2.092756e+02
2.680000e-06	3.373424e-06	3.252241e-09	2.513700e+01	2.121872e+02
2.690000e-06	3.405845e-06	3.293691e-09	2.537858e+01	2.150642e+02
2.700000e-06	3.438019e-06	3.334738e-09	2.561832e+01	2.179061e+02
2.710000e-06	3.470038e-06	3.375763e-09	2.585691e+01	2.207120e+02
2.720000e-06	3.501891e-06	3.418731e-09	2.609426e+01	2.234812e+02
2.730000e-06	3.533608e-06	3.461093e-09	2.633060e+01	2.262127e+02
2.740000e-06	3.565210e-06	3.498725e-09	2.656608e+01	2.289055e+02
2.750000e-06	3.596675e-06	3.533707e-09	2.680054e+01	2.315585e+02
2.760000e-06	3.627909e-06	3.572867e-09	2.703328e+01	2.341707e+02
2.770000e-06	3.658838e-06	3.612029e-09	2.726375e+01	2.367410e+02
2.780000e-06	3.689482e-06	3.647187e-09	2.749210e+01	2.392684e+02
2.790000e-06	3.719773e-06	3.679915e-09	2.771781e+01	2.417521e+02
2.800000e-06	3.749758e-06	3.713322e-09	2.794124e+01	2.441914e+02
2.810000e-06	3.779544e-06	3.748774e-09	2.816319e+01	2.465858e+02
2.820000e-06	3.809103e-06	3.784307e-09	2.838345e+01	2.489349e+02
2.830000e-06	3.838474e-06	3.820133e-09	2.860230e+01	2.512385e+02
2.840000e-06	3.867609e-06	3.855259e-09	2.881941e+01	2.534969e+02
2.850000e-06	3.896416e-06	3.889398e-09	2.903406e+01	2.557102e+02
2.860000e-06	3.924915e-06	3.922475e-09	2.924642e+01	2.578792e+02
2.870000e-06	3.953148e-06	3.952453e-09	2.945679e+01	2.600046e+02
2.880000e-06	3.981209e-06	3.982862e-09	2.966589e+01	2.620873e+02
2.890000e-06	4.009102e-06	4.014129e-09	2.987374e+01	2.641287e+02
2.900000e-06	4.036868e-06	4.044607e-09	3.008063e+01	2.661300e+02
