# Temperatura_=_20.0
# Concentracion g/m^3_=_12600.0
# C_Vs_to_Am_M_A/Vsm_=_65563218390.804596
# pendiente_HvsI_1/m_=_3716.3
# ordenada_HvsI_A/m_=_1297.0
# frecuencia_Hz_=_135170.69162628608

Tiempo_(s)	Campo_(V.s)	Magnetizacion_(V.s)	Campo_(kA/m)	Magnetizacion_(A/m)
0.000000e+00	-5.149700e-06	-4.736189e-09	-3.843976e+01	-3.095499e+02
1.000000e-08	-5.149731e-06	-4.733921e-09	-3.843999e+01	-3.095733e+02
2.000000e-08	-5.149533e-06	-4.733165e-09	-3.843851e+01	-3.095751e+02
3.000000e-08	-5.149053e-06	-4.734162e-09	-3.843492e+01	-3.095541e+02
4.000000e-08	-5.148165e-06	-4.735269e-09	-3.842830e+01	-3.095090e+02
5.000000e-08	-5.146668e-06	-4.734846e-09	-3.841712e+01	-3.094388e+02
6.000000e-08	-5.144691e-06	-4.726349e-09	-3.840237e+01	-3.093426e+02
7.000000e-08	-5.142193e-06	-4.714754e-09	-3.838372e+01	-3.092196e+02
8.000000e-08	-5.139020e-06	-4.742124e-09	-3.836003e+01	-3.090693e+02
9.000000e-08	-5.135379e-06	-4.786405e-09	-3.833286e+01	-3.088916e+02
1.000000e-07	-5.131363e-06	-4.734636e-09	-3.830288e+01	-3.086863e+02
1.100000e-07	-5.127096e-06	-4.659984e-09	-3.827103e+01	-3.084538e+02
1.200000e-07	-5.122674e-06	-4.651797e-09	-3.823802e+01	-3.081948e+02
1.300000e-07	-5.118046e-06	-4.733148e-09	-3.820348e+01	-3.079101e+02
1.400000e-07	-5.112984e-06	-4.775545e-09	-3.816569e+01	-3.076010e+02
1.500000e-07	-5.107448e-06	-4.690883e-09	-3.812437e+01	-3.072689e+02
1.600000e-07	-5.101647e-06	-4.624082e-09	-3.808106e+01	-3.069155e+02
1.700000e-07	-5.095558e-06	-4.612327e-09	-3.803561e+01	-3.065429e+02
1.800000e-07	-5.089068e-06	-4.696406e-09	-3.798717e+01	-3.061533e+02
1.900000e-07	-5.082283e-06	-4.712164e-09	-3.793652e+01	-3.057489e+02
2.000000e-07	-5.075277e-06	-4.660421e-09	-3.788423e+01	-3.053323e+02
2.100000e-07	-5.067910e-06	-4.577816e-09	-3.782924e+01	-3.049059e+02
2.200000e-07	-5.060188e-06	-4.617263e-09	-3.777159e+01	-3.044724e+02
2.300000e-07	-5.052284e-06	-4.685744e-09	-3.771260e+01	-3.040341e+02
2.400000e-07	-5.044176e-06	-4.671404e-09	-3.765208e+01	-3.035936e+02
2.500000e-07	-5.035394e-06	-4.577582e-09	-3.758652e+01	-3.031530e+02
2.600000e-07	-5.025831e-06	-4.572252e-09	-3.751514e+01	-3.027144e+02
2.700000e-07	-5.015987e-06	-4.665643e-09	-3.744166e+01	-3.022796e+02
2.800000e-07	-5.005965e-06	-4.687964e-09	-3.736685e+01	-3.018501e+02
2.900000e-07	-4.995310e-06	-4.609273e-09	-3.728731e+01	-3.014271e+02
3.000000e-07	-4.983894e-06	-4.567077e-09	-3.720210e+01	-3.010114e+02
3.100000e-07	-4.972084e-06	-4.616343e-09	-3.711394e+01	-3.006036e+02
3.200000e-07	-4.960014e-06	-4.630815e-09	-3.702385e+01	-3.002036e+02
3.300000e-07	-4.947576e-06	-4.639147e-09	-3.693101e+01	-2.998112e+02
3.400000e-07	-4.934786e-06	-4.629057e-09	-3.683554e+01	-2.994256e+02
3.500000e-07	-4.921679e-06	-4.539676e-09	-3.673770e+01	-2.990457e+02
3.600000e-07	-4.908170e-06	-4.439497e-09	-3.663686e+01	-2.986702e+02
3.700000e-07	-4.894308e-06	-4.579480e-09	-3.653339e+01	-2.982974e+02
3.800000e-07	-4.880112e-06	-4.697949e-09	-3.642743e+01	-2.979251e+02
3.900000e-07	-4.865403e-06	-4.537075e-09	-3.631763e+01	-2.975512e+02
4.000000e-07	-4.850063e-06	-4.342785e-09	-3.620312e+01	-2.971734e+02
4.100000e-07	-4.834198e-06	-4.476831e-09	-3.608470e+01	-2.967889e+02
4.200000e-07	-4.818063e-06	-4.641693e-09	-3.596427e+01	-2.963954e+02
4.300000e-07	-4.801589e-06	-4.551609e-09	-3.584130e+01	-2.959901e+02
4.400000e-07	-4.784672e-06	-4.377980e-09	-3.571501e+01	-2.955706e+02
4.500000e-07	-4.767535e-06	-4.401829e-09	-3.558710e+01	-2.951345e+02
4.600000e-07	-4.750222e-06	-4.522925e-09	-3.545786e+01	-2.946795e+02
4.700000e-07	-4.732592e-06	-4.555813e-09	-3.532627e+01	-2.942036e+02
4.800000e-07	-4.714564e-06	-4.462372e-09	-3.519170e+01	-2.937051e+02
4.900000e-07	-4.696135e-06	-4.366379e-09	-3.505413e+01	-2.931825e+02
5.000000e-07	-4.677300e-06	-4.390197e-09	-3.491354e+01	-2.926348e+02
5.100000e-07	-4.658140e-06	-4.487280e-09	-3.477052e+01	-2.920611e+02
5.200000e-07	-4.638697e-06	-4.489094e-09	-3.462539e+01	-2.914611e+02
5.300000e-07	-4.618976e-06	-4.377764e-09	-3.447819e+01	-2.908347e+02
5.400000e-07	-4.599079e-06	-4.315753e-09	-3.432967e+01	-2.901822e+02
5.500000e-07	-4.579072e-06	-4.375557e-09	-3.418032e+01	-2.895045e+02
5.600000e-07	-4.558788e-06	-4.446944e-09	-3.402892e+01	-2.888023e+02
5.700000e-07	-4.538159e-06	-4.397224e-09	-3.387493e+01	-2.880770e+02
5.800000e-07	-4.517164e-06	-4.299663e-09	-3.371821e+01	-2.873301e+02
5.900000e-07	-4.495804e-06	-4.294008e-09	-3.355877e+01	-2.865634e+02
6.000000e-07	-4.474239e-06	-4.359135e-09	-3.339780e+01	-2.857786e+02
6.100000e-07	-4.452410e-06	-4.354822e-09	-3.323486e+01	-2.849778e+02
6.200000e-07	-4.430232e-06	-4.297718e-09	-3.306931e+01	-2.841630e+02
6.300000e-07	-4.407722e-06	-4.258417e-09	-3.290129e+01	-2.833361e+02
6.400000e-07	-4.384846e-06	-4.251598e-09	-3.273053e+01	-2.824992e+02
6.500000e-07	-4.361577e-06	-4.255825e-09	-3.255684e+01	-2.816539e+02
6.600000e-07	-4.338039e-06	-4.272864e-09	-3.238114e+01	-2.808020e+02
6.700000e-07	-4.314302e-06	-4.248774e-09	-3.220396e+01	-2.799449e+02
6.800000e-07	-4.290397e-06	-4.191147e-09	-3.202552e+01	-2.790838e+02
6.900000e-07	-4.266310e-06	-4.172831e-09	-3.184572e+01	-2.782198e+02
7.000000e-07	-4.241955e-06	-4.213812e-09	-3.166392e+01	-2.773533e+02
7.100000e-07	-4.217306e-06	-4.219920e-09	-3.147993e+01	-2.764849e+02
7.200000e-07	-4.192318e-06	-4.158669e-09	-3.129341e+01	-2.756145e+02
7.300000e-07	-4.166927e-06	-4.103177e-09	-3.110388e+01	-2.747419e+02
7.400000e-07	-4.141031e-06	-4.119331e-09	-3.091058e+01	-2.738667e+02
7.500000e-07	-4.114552e-06	-4.152125e-09	-3.071293e+01	-2.729879e+02
7.600000e-07	-4.087671e-06	-4.128252e-09	-3.051228e+01	-2.721046e+02
7.700000e-07	-4.060468e-06	-4.064797e-09	-3.030922e+01	-2.712156e+02
7.800000e-07	-4.032903e-06	-4.042193e-09	-3.010347e+01	-2.703195e+02
7.900000e-07	-4.005104e-06	-4.068592e-09	-2.989596e+01	-2.694146e+02
8.000000e-07	-3.977202e-06	-4.072302e-09	-2.968768e+01	-2.684995e+02
8.100000e-07	-3.949162e-06	-4.023611e-09	-2.947838e+01	-2.675724e+02
8.200000e-07	-3.920838e-06	-3.976703e-09	-2.926696e+01	-2.666318e+02
8.300000e-07	-3.892254e-06	-3.975444e-09	-2.905360e+01	-2.656761e+02
8.400000e-07	-3.863475e-06	-3.987639e-09	-2.883877e+01	-2.647037e+02
8.500000e-07	-3.834352e-06	-3.970584e-09	-2.862139e+01	-2.637133e+02
8.600000e-07	-3.804869e-06	-3.932689e-09	-2.840131e+01	-2.627037e+02
8.700000e-07	-3.775165e-06	-3.910119e-09	-2.817959e+01	-2.616739e+02
8.800000e-07	-3.745317e-06	-3.906823e-09	-2.795679e+01	-2.606232e+02
8.900000e-07	-3.715315e-06	-3.902476e-09	-2.773284e+01	-2.595510e+02
9.000000e-07	-3.685035e-06	-3.880776e-09	-2.750682e+01	-2.584569e+02
9.100000e-07	-3.654410e-06	-3.854004e-09	-2.727821e+01	-2.573409e+02
9.200000e-07	-3.623476e-06	-3.831148e-09	-2.704731e+01	-2.562031e+02
9.300000e-07	-3.592328e-06	-3.815968e-09	-2.681481e+01	-2.550438e+02
9.400000e-07	-3.560937e-06	-3.803726e-09	-2.658049e+01	-2.538637e+02
9.500000e-07	-3.529342e-06	-3.790317e-09	-2.634465e+01	-2.526635e+02
9.600000e-07	-3.497607e-06	-3.766693e-09	-2.610777e+01	-2.514440e+02
9.700000e-07	-3.465730e-06	-3.738434e-09	-2.586982e+01	-2.502063e+02
9.800000e-07	-3.433664e-06	-3.718768e-09	-2.563047e+01	-2.489513e+02
9.900000e-07	-3.401382e-06	-3.714154e-09	-2.538950e+01	-2.476803e+02
1.000000e-06	-3.368937e-06	-3.697439e-09	-2.514731e+01	-2.463942e+02
1.010000e-06	-3.336174e-06	-3.660521e-09	-2.490275e+01	-2.450942e+02
1.020000e-06	-3.303117e-06	-3.628461e-09	-2.465600e+01	-2.437813e+02
1.030000e-06	-3.269867e-06	-3.619580e-09	-2.440781e+01	-2.424564e+02
1.040000e-06	-3.236084e-06	-3.611926e-09	-2.415564e+01	-2.411203e+02
1.050000e-06	-3.201720e-06	-3.581104e-09	-2.389913e+01	-2.397736e+02
1.060000e-06	-3.167074e-06	-3.541904e-09	-2.364051e+01	-2.384168e+02
1.070000e-06	-3.132162e-06	-3.524046e-09	-2.337992e+01	-2.370501e+02
1.080000e-06	-3.096931e-06	-3.522244e-09	-2.311693e+01	-2.356737e+02
1.090000e-06	-3.061424e-06	-3.505803e-09	-2.285189e+01	-2.342874e+02
1.100000e-06	-3.025781e-06	-3.469095e-09	-2.258584e+01	-2.328910e+02
1.110000e-06	-2.990023e-06	-3.438491e-09	-2.231892e+01	-2.314841e+02
1.120000e-06	-2.954127e-06	-3.427477e-09	-2.205098e+01	-2.300660e+02
1.130000e-06	-2.918142e-06	-3.412596e-09	-2.178237e+01	-2.286361e+02
1.140000e-06	-2.882052e-06	-3.381758e-09	-2.151298e+01	-2.271933e+02
1.150000e-06	-2.845791e-06	-3.349792e-09	-2.124231e+01	-2.257369e+02
1.160000e-06	-2.809330e-06	-3.331393e-09	-2.097015e+01	-2.242658e+02
1.170000e-06	-2.772605e-06	-3.315004e-09	-2.069601e+01	-2.227789e+02
1.180000e-06	-2.735598e-06	-3.291920e-09	-2.041978e+01	-2.212753e+02
1.190000e-06	-2.698355e-06	-3.265697e-09	-2.014177e+01	-2.197540e+02
1.200000e-06	-2.660914e-06	-3.242158e-09	-1.986230e+01	-2.182139e+02
1.210000e-06	-2.623314e-06	-3.219570e-09	-1.958163e+01	-2.166544e+02
1.220000e-06	-2.585541e-06	-3.193067e-09	-1.929968e+01	-2.150745e+02
1.230000e-06	-2.547613e-06	-3.167661e-09	-1.901657e+01	-2.134738e+02
1.240000e-06	-2.509537e-06	-3.143738e-09	-1.873235e+01	-2.118517e+02
1.250000e-06	-2.471262e-06	-3.114070e-09	-1.844665e+01	-2.102079e+02
1.260000e-06	-2.432787e-06	-3.080393e-09	-1.815946e+01	-2.085422e+02
1.270000e-06	-2.394149e-06	-3.052844e-09	-1.787104e+01	-2.068546e+02
1.280000e-06	-2.355448e-06	-3.035668e-09	-1.758216e+01	-2.051452e+02
1.290000e-06	-2.316635e-06	-3.012701e-09	-1.729244e+01	-2.034143e+02
1.300000e-06	-2.277552e-06	-2.978862e-09	-1.700071e+01	-2.016622e+02
1.310000e-06	-2.238256e-06	-2.945076e-09	-1.670738e+01	-1.998896e+02
1.320000e-06	-2.198836e-06	-2.923524e-09	-1.641314e+01	-1.980969e+02
1.330000e-06	-2.159314e-06	-2.902684e-09	-1.611813e+01	-1.962848e+02
1.340000e-06	-2.119652e-06	-2.865327e-09	-1.582207e+01	-1.944539e+02
1.350000e-06	-2.079897e-06	-2.821419e-09	-1.552532e+01	-1.926051e+02
1.360000e-06	-2.040125e-06	-2.795198e-09	-1.522844e+01	-1.907390e+02
1.370000e-06	-2.000268e-06	-2.781796e-09	-1.493093e+01	-1.888562e+02
1.380000e-06	-1.960287e-06	-2.755015e-09	-1.463249e+01	-1.869573e+02
1.390000e-06	-1.920250e-06	-2.712670e-09	-1.433364e+01	-1.850429e+02
1.400000e-06	-1.880177e-06	-2.678474e-09	-1.403452e+01	-1.831134e+02
1.410000e-06	-1.840009e-06	-2.660319e-09	-1.373468e+01	-1.811691e+02
1.420000e-06	-1.799702e-06	-2.638400e-09	-1.343381e+01	-1.792102e+02
1.430000e-06	-1.759260e-06	-2.600209e-09	-1.313194e+01	-1.772368e+02
1.440000e-06	-1.718711e-06	-2.558209e-09	-1.282926e+01	-1.752488e+02
1.450000e-06	-1.678021e-06	-2.528854e-09	-1.252553e+01	-1.732459e+02
1.460000e-06	-1.637206e-06	-2.506249e-09	-1.222086e+01	-1.712280e+02
1.470000e-06	-1.596260e-06	-2.475706e-09	-1.191523e+01	-1.691946e+02
1.480000e-06	-1.555090e-06	-2.438834e-09	-1.160792e+01	-1.671450e+02
1.490000e-06	-1.513614e-06	-2.408417e-09	-1.129832e+01	-1.650788e+02
1.500000e-06	-1.471772e-06	-2.381795e-09	-1.098599e+01	-1.629952e+02
1.510000e-06	-1.429716e-06	-2.352243e-09	-1.067207e+01	-1.608936e+02
1.520000e-06	-1.387528e-06	-2.319002e-09	-1.035715e+01	-1.587730e+02
1.530000e-06	-1.345150e-06	-2.286554e-09	-1.004083e+01	-1.566327e+02
1.540000e-06	-1.302721e-06	-2.251090e-09	-9.724113e+00	-1.544721e+02
1.550000e-06	-1.260229e-06	-2.214137e-09	-9.406939e+00	-1.522902e+02
1.560000e-06	-1.217532e-06	-2.177953e-09	-9.088224e+00	-1.500865e+02
1.570000e-06	-1.174663e-06	-2.143554e-09	-8.768232e+00	-1.478603e+02
1.580000e-06	-1.131734e-06	-2.106507e-09	-8.447791e+00	-1.456111e+02
1.590000e-06	-1.088701e-06	-2.067334e-09	-8.126574e+00	-1.433384e+02
1.600000e-06	-1.045481e-06	-2.030979e-09	-7.803954e+00	-1.410419e+02
1.610000e-06	-1.002161e-06	-1.998375e-09	-7.480595e+00	-1.387212e+02
1.620000e-06	-9.588284e-07	-1.964376e-09	-7.157141e+00	-1.363762e+02
1.630000e-06	-9.154767e-07	-1.923564e-09	-6.833544e+00	-1.340068e+02
1.640000e-06	-8.720670e-07	-1.880319e-09	-6.509514e+00	-1.316131e+02
1.650000e-06	-8.285884e-07	-1.842138e-09	-6.184969e+00	-1.291952e+02
1.660000e-06	-7.850560e-07	-1.807055e-09	-5.860023e+00	-1.267532e+02
1.670000e-06	-7.414566e-07	-1.768607e-09	-5.534577e+00	-1.242875e+02
1.680000e-06	-6.977305e-07	-1.726545e-09	-5.208185e+00	-1.217982e+02
1.690000e-06	-6.539829e-07	-1.687177e-09	-4.881632e+00	-1.192858e+02
1.700000e-06	-6.103036e-07	-1.653877e-09	-4.555590e+00	-1.167506e+02
1.710000e-06	-5.666142e-07	-1.620243e-09	-4.229472e+00	-1.141929e+02
1.720000e-06	-5.228698e-07	-1.579862e-09	-3.902943e+00	-1.116131e+02
1.730000e-06	-4.790940e-07	-1.536631e-09	-3.576180e+00	-1.090115e+02
1.740000e-06	-4.352796e-07	-1.499532e-09	-3.249130e+00	-1.063885e+02
1.750000e-06	-3.914335e-07	-1.463296e-09	-2.921842e+00	-1.037442e+02
1.760000e-06	-3.475767e-07	-1.423055e-09	-2.594474e+00	-1.010789e+02
1.770000e-06	-3.037062e-07	-1.380445e-09	-2.267004e+00	-9.839278e+01
1.780000e-06	-2.598534e-07	-1.339008e-09	-1.939666e+00	-9.568589e+01
1.790000e-06	-2.159897e-07	-1.298435e-09	-1.612248e+00	-9.295832e+01
1.800000e-06	-1.720864e-07	-1.257426e-09	-1.284533e+00	-9.021006e+01
1.810000e-06	-1.282115e-07	-1.215271e-09	-9.570301e-01	-8.744107e+01
1.820000e-06	-8.434723e-08	-1.172277e-09	-6.296070e-01	-8.465130e+01
1.830000e-06	-4.051190e-08	-1.130376e-09	-3.023996e-01	-8.184063e+01
1.840000e-06	3.297462e-09	-1.090933e-09	2.461379e-02	-7.900895e+01
1.850000e-06	4.712414e-08	-1.050627e-09	3.517565e-01	-7.615615e+01
1.860000e-06	9.096013e-08	-1.006832e-09	6.789687e-01	-7.328210e+01
1.870000e-06	1.348326e-07	-9.616748e-10	1.006453e+00	-7.038671e+01
1.880000e-06	1.787093e-07	-9.193605e-10	1.333969e+00	-6.746991e+01
1.890000e-06	2.226001e-07	-8.806758e-10	1.661590e+00	-6.453167e+01
1.900000e-06	2.665023e-07	-8.401821e-10	1.989297e+00	-6.157200e+01
1.910000e-06	3.103723e-07	-7.985328e-10	2.316763e+00	-5.859095e+01
1.920000e-06	3.542443e-07	-7.551493e-10	2.644244e+00	-5.558865e+01
1.930000e-06	3.981188e-07	-7.117815e-10	2.971744e+00	-5.256526e+01
1.940000e-06	4.419288e-07	-6.683261e-10	3.298762e+00	-4.952101e+01
1.950000e-06	4.856980e-07	-6.222185e-10	3.625476e+00	-4.645618e+01
1.960000e-06	5.294667e-07	-5.758620e-10	3.952186e+00	-4.337107e+01
1.970000e-06	5.731918e-07	-5.274420e-10	4.278570e+00	-4.026606e+01
1.980000e-06	6.168820e-07	-4.806532e-10	4.604694e+00	-3.714151e+01
1.990000e-06	6.606073e-07	-4.382475e-10	4.931080e+00	-3.399785e+01
2.000000e-06	7.043432e-07	-3.943733e-10	5.257545e+00	-3.083547e+01
2.010000e-06	7.480486e-07	-3.463832e-10	5.583783e+00	-2.765476e+01
2.020000e-06	7.917168e-07	-2.986246e-10	5.909743e+00	-2.445612e+01
2.030000e-06	8.353034e-07	-2.529075e-10	6.235093e+00	-2.123988e+01
2.040000e-06	8.788388e-07	-2.073315e-10	6.560061e+00	-1.800635e+01
2.050000e-06	9.222744e-07	-1.589127e-10	6.884285e+00	-1.475577e+01
2.060000e-06	9.656012e-07	-1.098859e-10	7.207697e+00	-1.148833e+01
2.070000e-06	1.008925e-06	-6.243306e-11	7.531089e+00	-8.204165e+00
2.080000e-06	1.052220e-06	-1.546275e-11	7.854262e+00	-4.903316e+00
2.090000e-06	1.095438e-06	3.536704e-11	8.176859e+00	-1.585775e+00
2.100000e-06	1.138438e-06	8.698764e-11	8.497831e+00	1.748533e+00
2.110000e-06	1.181186e-06	1.362710e-10	8.816924e+00	5.099739e+00
2.120000e-06	1.223797e-06	1.835953e-10	9.134992e+00	8.468021e+00
2.130000e-06	1.266374e-06	2.301565e-10	9.452802e+00	1.185359e+01
2.140000e-06	1.308857e-06	2.807735e-10	9.769916e+00	1.525666e+01
2.150000e-06	1.351083e-06	3.330142e-10	1.008511e+01	1.867747e+01
2.160000e-06	1.393102e-06	3.846333e-10	1.039876e+01	2.211622e+01
2.170000e-06	1.435003e-06	4.351358e-10	1.071153e+01	2.557305e+01
2.180000e-06	1.476720e-06	4.874151e-10	1.102293e+01	2.904806e+01
2.190000e-06	1.518172e-06	5.410606e-10	1.133234e+01	3.254124e+01
2.200000e-06	1.559465e-06	5.904044e-10	1.164057e+01	3.605250e+01
2.210000e-06	1.600683e-06	6.398211e-10	1.194824e+01	3.958157e+01
2.220000e-06	1.641750e-06	6.894943e-10	1.225479e+01	4.312806e+01
2.230000e-06	1.682561e-06	7.387101e-10	1.255941e+01	4.669141e+01
2.240000e-06	1.723108e-06	7.884606e-10	1.286208e+01	5.027086e+01
2.250000e-06	1.763515e-06	8.404789e-10	1.316370e+01	5.386549e+01
2.260000e-06	1.803815e-06	8.954479e-10	1.346451e+01	5.747415e+01
2.270000e-06	1.844019e-06	9.480455e-10	1.376462e+01	6.109551e+01
2.280000e-06	1.884134e-06	1.000061e-09	1.406405e+01	6.472803e+01
2.290000e-06	1.924191e-06	1.055283e-09	1.436306e+01	6.836999e+01
2.300000e-06	1.964247e-06	1.109757e-09	1.466205e+01	7.201950e+01
2.310000e-06	2.004190e-06	1.159469e-09	1.496021e+01	7.567447e+01
2.320000e-06	2.043998e-06	1.208385e-09	1.525735e+01	7.933272e+01
2.330000e-06	2.083762e-06	1.260419e-09	1.555417e+01	8.299190e+01
2.340000e-06	2.123474e-06	1.314643e-09	1.585060e+01	8.664960e+01
2.350000e-06	2.163084e-06	1.367748e-09	1.614626e+01	9.030333e+01
2.360000e-06	2.202573e-06	1.418049e-09	1.644103e+01	9.395055e+01
2.370000e-06	2.241824e-06	1.467738e-09	1.673401e+01	9.758873e+01
2.380000e-06	2.280850e-06	1.521467e-09	1.702533e+01	1.012154e+02
2.390000e-06	2.319713e-06	1.576981e-09	1.731542e+01	1.048280e+02
2.400000e-06	2.358351e-06	1.627934e-09	1.760383e+01	1.084242e+02
2.410000e-06	2.396791e-06	1.675313e-09	1.789076e+01	1.120018e+02
2.420000e-06	2.435081e-06	1.722035e-09	1.817657e+01	1.155586e+02
2.430000e-06	2.473248e-06	1.772163e-09	1.846147e+01	1.190925e+02
2.440000e-06	2.511300e-06	1.822654e-09	1.874551e+01	1.226019e+02
2.450000e-06	2.549232e-06	1.871240e-09	1.902865e+01	1.260850e+02
2.460000e-06	2.587012e-06	1.920712e-09	1.931066e+01	1.295404e+02
2.470000e-06	2.624585e-06	1.971120e-09	1.959112e+01	1.329668e+02
2.480000e-06	2.661978e-06	2.022851e-09	1.987024e+01	1.363631e+02
2.490000e-06	2.699193e-06	2.072603e-09	2.014803e+01	1.397285e+02
2.500000e-06	2.736232e-06	2.119613e-09	2.042451e+01	1.430621e+02
2.510000e-06	2.773129e-06	2.165046e-09	2.069993e+01	1.463636e+02
2.520000e-06	2.809725e-06	2.210884e-09	2.097309e+01	1.496323e+02
2.530000e-06	2.846044e-06	2.255948e-09	2.124419e+01	1.528680e+02
2.540000e-06	2.882167e-06	2.300352e-09	2.151383e+01	1.560706e+02
2.550000e-06	2.918123e-06	2.344735e-09	2.178223e+01	1.592399e+02
2.560000e-06	2.954037e-06	2.388962e-09	2.205031e+01	1.623758e+02
2.570000e-06	2.989920e-06	2.433434e-09	2.231815e+01	1.654783e+02
2.580000e-06	3.025702e-06	2.478179e-09	2.258524e+01	1.685473e+02
2.590000e-06	3.061336e-06	2.522696e-09	2.285123e+01	1.715830e+02
2.600000e-06	3.096767e-06	2.565655e-09	2.311571e+01	1.745851e+02
2.610000e-06	3.131959e-06	2.606030e-09	2.337840e+01	1.775537e+02
2.620000e-06	3.166813e-06	2.646702e-09	2.363856e+01	1.804884e+02
2.630000e-06	3.201226e-06	2.688133e-09	2.389544e+01	1.833892e+02
2.640000e-06	3.235274e-06	2.728344e-09	2.414959e+01	1.862558e+02
2.650000e-06	3.269011e-06	2.768216e-09	2.440142e+01	1.890877e+02
2.660000e-06	3.302282e-06	2.810822e-09	2.464977e+01	1.918845e+02
2.670000e-06	3.335150e-06	2.854142e-09	2.489511e+01	1.946457e+02
2.680000e-06	3.367807e-06	2.896261e-09	2.513888e+01	1.973708e+02
2.690000e-06	3.400246e-06	2.937087e-09	2.538101e+01	2.000592e+02
2.700000e-06	3.432465e-06	2.976603e-09	2.562152e+01	2.027102e+02
2.710000e-06	3.464480e-06	3.014880e-09	2.586049e+01	2.053231e+02
2.720000e-06	3.496343e-06	3.051981e-09	2.609833e+01	2.078974e+02
2.730000e-06	3.528082e-06	3.088681e-09	2.633524e+01	2.104325e+02
2.740000e-06	3.559638e-06	3.125480e-09	2.657079e+01	2.129276e+02
2.750000e-06	3.590968e-06	3.160719e-09	2.680465e+01	2.153823e+02
2.760000e-06	3.622070e-06	3.195083e-09	2.703682e+01	2.177962e+02
2.770000e-06	3.652885e-06	3.229005e-09	2.726684e+01	2.201689e+02
2.780000e-06	3.683404e-06	3.263243e-09	2.749464e+01	2.225001e+02
2.790000e-06	3.713650e-06	3.297918e-09	2.772041e+01	2.247896e+02
2.800000e-06	3.743617e-06	3.331532e-09	2.794410e+01	2.270376e+02
2.810000e-06	3.773364e-06	3.363602e-09	2.816614e+01	2.292439e+02
2.820000e-06	3.802943e-06	3.395438e-09	2.838694e+01	2.314090e+02
2.830000e-06	3.832270e-06	3.429239e-09	2.860584e+01	2.335331e+02
2.840000e-06	3.861334e-06	3.462820e-09	2.882279e+01	2.356166e+02
2.850000e-06	3.890124e-06	3.495009e-09	2.903769e+01	2.376602e+02
2.860000e-06	3.918589e-06	3.525511e-09	2.925017e+01	2.396645e+02
2.870000e-06	3.946764e-06	3.556207e-09	2.946048e+01	2.416303e+02
2.880000e-06	3.974766e-06	3.589512e-09	2.966950e+01	2.435582e+02
2.890000e-06	4.002677e-06	3.621955e-09	2.987784e+01	2.454493e+02
2.900000e-06	4.030423e-06	3.651253e-09	3.008495e+01	2.473043e+02
