# Temperatura_=_20.0
# Concentracion g/m^3_=_12600.0
# C_Vs_to_Am_M_A/Vsm_=_65563218390.804596
# pendiente_HvsI_1/m_=_3716.3
# ordenada_HvsI_A/m_=_1297.0
# frecuencia_Hz_=_135170.58601492806

Tiempo_(s)	Campo_(V.s)	Magnetizacion_(V.s)	Campo_(kA/m)	Magnetizacion_(A/m)
0.000000e+00	-5.143728e-06	-4.758896e-09	-3.843841e+01	-3.185874e+02
1.000000e-08	-5.143965e-06	-4.761076e-09	-3.844018e+01	-3.187126e+02
2.000000e-08	-5.143938e-06	-4.760526e-09	-3.843998e+01	-3.188328e+02
3.000000e-08	-5.143648e-06	-4.756736e-09	-3.843781e+01	-3.189446e+02
4.000000e-08	-5.142925e-06	-4.755224e-09	-3.843241e+01	-3.190440e+02
5.000000e-08	-5.141602e-06	-4.756647e-09	-3.842252e+01	-3.191263e+02
6.000000e-08	-5.139724e-06	-4.756423e-09	-3.840849e+01	-3.191865e+02
7.000000e-08	-5.137355e-06	-4.742647e-09	-3.839078e+01	-3.192193e+02
8.000000e-08	-5.134458e-06	-4.732097e-09	-3.836914e+01	-3.192190e+02
9.000000e-08	-5.131036e-06	-4.753096e-09	-3.834356e+01	-3.191801e+02
1.000000e-07	-5.127289e-06	-4.784123e-09	-3.831556e+01	-3.190969e+02
1.100000e-07	-5.123272e-06	-4.743097e-09	-3.828554e+01	-3.189642e+02
1.200000e-07	-5.118971e-06	-4.682827e-09	-3.825340e+01	-3.187767e+02
1.300000e-07	-5.114543e-06	-4.675620e-09	-3.822031e+01	-3.185300e+02
1.400000e-07	-5.109823e-06	-4.758858e-09	-3.818504e+01	-3.182201e+02
1.500000e-07	-5.104659e-06	-4.741164e-09	-3.814645e+01	-3.178438e+02
1.600000e-07	-5.099112e-06	-4.673457e-09	-3.810500e+01	-3.173986e+02
1.700000e-07	-5.093185e-06	-4.596424e-09	-3.806070e+01	-3.168830e+02
1.800000e-07	-5.086889e-06	-4.672236e-09	-3.801366e+01	-3.162965e+02
1.900000e-07	-5.080175e-06	-4.713345e-09	-3.796348e+01	-3.156395e+02
2.000000e-07	-5.073148e-06	-4.708245e-09	-3.791097e+01	-3.149137e+02
2.100000e-07	-5.065893e-06	-4.628734e-09	-3.785675e+01	-3.141216e+02
2.200000e-07	-5.058348e-06	-4.603832e-09	-3.780037e+01	-3.132668e+02
2.300000e-07	-5.050509e-06	-4.660176e-09	-3.774180e+01	-3.123539e+02
2.400000e-07	-5.042469e-06	-4.678535e-09	-3.768171e+01	-3.113883e+02
2.500000e-07	-5.034029e-06	-4.625590e-09	-3.761864e+01	-3.103763e+02
2.600000e-07	-5.024870e-06	-4.537630e-09	-3.755019e+01	-3.093249e+02
2.700000e-07	-5.015039e-06	-4.574110e-09	-3.747673e+01	-3.082416e+02
2.800000e-07	-5.004988e-06	-4.645724e-09	-3.740162e+01	-3.071343e+02
2.900000e-07	-4.994608e-06	-4.675139e-09	-3.732405e+01	-3.060112e+02
3.000000e-07	-4.983585e-06	-4.595682e-09	-3.724168e+01	-3.048805e+02
3.100000e-07	-4.972115e-06	-4.577652e-09	-3.715597e+01	-3.037505e+02
3.200000e-07	-4.960331e-06	-4.630239e-09	-3.706791e+01	-3.026290e+02
3.300000e-07	-4.948219e-06	-4.718043e-09	-3.697739e+01	-3.015237e+02
3.400000e-07	-4.935644e-06	-4.706496e-09	-3.688342e+01	-3.004416e+02
3.500000e-07	-4.922723e-06	-4.674704e-09	-3.678687e+01	-2.993890e+02
3.600000e-07	-4.909533e-06	-4.574955e-09	-3.668830e+01	-2.983715e+02
3.700000e-07	-4.895933e-06	-4.578125e-09	-3.658667e+01	-2.973936e+02
3.800000e-07	-4.881918e-06	-4.689665e-09	-3.648194e+01	-2.964590e+02
3.900000e-07	-4.867557e-06	-4.756900e-09	-3.637462e+01	-2.955704e+02
4.000000e-07	-4.852647e-06	-4.549833e-09	-3.626320e+01	-2.947293e+02
4.100000e-07	-4.837183e-06	-4.437263e-09	-3.614763e+01	-2.939361e+02
4.200000e-07	-4.821303e-06	-4.620332e-09	-3.602897e+01	-2.931901e+02
4.300000e-07	-4.804956e-06	-4.766426e-09	-3.590681e+01	-2.924898e+02
4.400000e-07	-4.788231e-06	-4.588358e-09	-3.578182e+01	-2.918325e+02
4.500000e-07	-4.771245e-06	-4.418294e-09	-3.565489e+01	-2.912148e+02
4.600000e-07	-4.754011e-06	-4.511375e-09	-3.552610e+01	-2.906323e+02
4.700000e-07	-4.736537e-06	-4.650279e-09	-3.539552e+01	-2.900802e+02
4.800000e-07	-4.718790e-06	-4.617983e-09	-3.526290e+01	-2.895529e+02
4.900000e-07	-4.700680e-06	-4.478467e-09	-3.512756e+01	-2.890447e+02
5.000000e-07	-4.682120e-06	-4.424003e-09	-3.498887e+01	-2.885494e+02
5.100000e-07	-4.663160e-06	-4.493202e-09	-3.484718e+01	-2.880609e+02
5.200000e-07	-4.643959e-06	-4.591448e-09	-3.470370e+01	-2.875729e+02
5.300000e-07	-4.624460e-06	-4.529214e-09	-3.455798e+01	-2.870797e+02
5.400000e-07	-4.604699e-06	-4.396766e-09	-3.441031e+01	-2.865754e+02
5.500000e-07	-4.584775e-06	-4.376138e-09	-3.426142e+01	-2.860550e+02
5.600000e-07	-4.564658e-06	-4.493320e-09	-3.411109e+01	-2.855138e+02
5.700000e-07	-4.544265e-06	-4.515898e-09	-3.395870e+01	-2.849477e+02
5.800000e-07	-4.523508e-06	-4.416558e-09	-3.380358e+01	-2.843534e+02
5.900000e-07	-4.502378e-06	-4.332476e-09	-3.364569e+01	-2.837283e+02
6.000000e-07	-4.480932e-06	-4.385933e-09	-3.348542e+01	-2.830706e+02
6.100000e-07	-4.459275e-06	-4.442209e-09	-3.332358e+01	-2.823791e+02
6.200000e-07	-4.437267e-06	-4.405704e-09	-3.315912e+01	-2.816535e+02
6.300000e-07	-4.414909e-06	-4.317863e-09	-3.299204e+01	-2.808942e+02
6.400000e-07	-4.392340e-06	-4.307970e-09	-3.282338e+01	-2.801022e+02
6.500000e-07	-4.369508e-06	-4.341544e-09	-3.265276e+01	-2.792792e+02
6.600000e-07	-4.346356e-06	-4.348691e-09	-3.247975e+01	-2.784273e+02
6.700000e-07	-4.322865e-06	-4.314333e-09	-3.230420e+01	-2.775491e+02
6.800000e-07	-4.299166e-06	-4.283647e-09	-3.212710e+01	-2.766474e+02
6.900000e-07	-4.275282e-06	-4.264956e-09	-3.194862e+01	-2.757252e+02
7.000000e-07	-4.251057e-06	-4.264958e-09	-3.176760e+01	-2.747859e+02
7.100000e-07	-4.226458e-06	-4.266505e-09	-3.158377e+01	-2.738326e+02
7.200000e-07	-4.201492e-06	-4.244243e-09	-3.139720e+01	-2.728683e+02
7.300000e-07	-4.176127e-06	-4.203941e-09	-3.120765e+01	-2.718959e+02
7.400000e-07	-4.150408e-06	-4.184328e-09	-3.101545e+01	-2.709181e+02
7.500000e-07	-4.124351e-06	-4.193318e-09	-3.082074e+01	-2.699370e+02
7.600000e-07	-4.097972e-06	-4.191533e-09	-3.062361e+01	-2.689545e+02
7.700000e-07	-4.071122e-06	-4.166407e-09	-3.042296e+01	-2.679720e+02
7.800000e-07	-4.043761e-06	-4.132939e-09	-3.021850e+01	-2.669903e+02
7.900000e-07	-4.016123e-06	-4.121300e-09	-3.001196e+01	-2.660098e+02
8.000000e-07	-3.988333e-06	-4.120714e-09	-2.980429e+01	-2.650306e+02
8.100000e-07	-3.960401e-06	-4.112754e-09	-2.959556e+01	-2.640519e+02
8.200000e-07	-3.932287e-06	-4.079849e-09	-2.938547e+01	-2.630727e+02
8.300000e-07	-3.903893e-06	-4.049407e-09	-2.917328e+01	-2.620918e+02
8.400000e-07	-3.875130e-06	-4.037467e-09	-2.895834e+01	-2.611072e+02
8.500000e-07	-3.846086e-06	-4.038356e-09	-2.874130e+01	-2.601171e+02
8.600000e-07	-3.816869e-06	-4.022502e-09	-2.852297e+01	-2.591191e+02
8.700000e-07	-3.787417e-06	-3.995959e-09	-2.830288e+01	-2.581110e+02
8.800000e-07	-3.757740e-06	-3.971241e-09	-2.808110e+01	-2.570904e+02
8.900000e-07	-3.727875e-06	-3.961588e-09	-2.785793e+01	-2.560549e+02
9.000000e-07	-3.697769e-06	-3.951511e-09	-2.763295e+01	-2.550022e+02
9.100000e-07	-3.667417e-06	-3.933823e-09	-2.740613e+01	-2.539304e+02
9.200000e-07	-3.636759e-06	-3.904051e-09	-2.717702e+01	-2.528374e+02
9.300000e-07	-3.605733e-06	-3.878552e-09	-2.694517e+01	-2.517218e+02
9.400000e-07	-3.574474e-06	-3.865585e-09	-2.671157e+01	-2.505823e+02
9.500000e-07	-3.543056e-06	-3.860258e-09	-2.647679e+01	-2.494180e+02
9.600000e-07	-3.511447e-06	-3.843119e-09	-2.624058e+01	-2.482284e+02
9.700000e-07	-3.479693e-06	-3.814479e-09	-2.600329e+01	-2.470133e+02
9.800000e-07	-3.447792e-06	-3.788714e-09	-2.576490e+01	-2.457730e+02
9.900000e-07	-3.415746e-06	-3.775541e-09	-2.552543e+01	-2.445080e+02
1.000000e-06	-3.383491e-06	-3.764375e-09	-2.528438e+01	-2.432192e+02
1.010000e-06	-3.350868e-06	-3.740723e-09	-2.504060e+01	-2.419077e+02
1.020000e-06	-3.317722e-06	-3.707925e-09	-2.479291e+01	-2.405749e+02
1.030000e-06	-3.284275e-06	-3.683922e-09	-2.454296e+01	-2.392224e+02
1.040000e-06	-3.250700e-06	-3.672468e-09	-2.429206e+01	-2.378518e+02
1.050000e-06	-3.216700e-06	-3.655213e-09	-2.403798e+01	-2.364649e+02
1.060000e-06	-3.182220e-06	-3.626120e-09	-2.378031e+01	-2.350633e+02
1.070000e-06	-3.147370e-06	-3.595109e-09	-2.351988e+01	-2.336488e+02
1.080000e-06	-3.112188e-06	-3.575473e-09	-2.325697e+01	-2.322228e+02
1.090000e-06	-3.076735e-06	-3.561574e-09	-2.299204e+01	-2.307867e+02
1.100000e-06	-3.041180e-06	-3.541740e-09	-2.272634e+01	-2.293417e+02
1.110000e-06	-3.005593e-06	-3.513040e-09	-2.246041e+01	-2.278887e+02
1.120000e-06	-2.969908e-06	-3.486131e-09	-2.219373e+01	-2.264282e+02
1.130000e-06	-2.934071e-06	-3.464594e-09	-2.192593e+01	-2.249605e+02
1.140000e-06	-2.897999e-06	-3.444673e-09	-2.165637e+01	-2.234858e+02
1.150000e-06	-2.861781e-06	-3.420337e-09	-2.138572e+01	-2.220036e+02
1.160000e-06	-2.825394e-06	-3.394387e-09	-2.111380e+01	-2.205134e+02
1.170000e-06	-2.788814e-06	-3.366095e-09	-2.084044e+01	-2.190144e+02
1.180000e-06	-2.752061e-06	-3.340396e-09	-2.056579e+01	-2.175055e+02
1.190000e-06	-2.715115e-06	-3.320059e-09	-2.028970e+01	-2.159854e+02
1.200000e-06	-2.678005e-06	-3.300462e-09	-2.001238e+01	-2.144527e+02
1.210000e-06	-2.640646e-06	-3.272951e-09	-1.973321e+01	-2.129058e+02
1.220000e-06	-2.603069e-06	-3.241234e-09	-1.945239e+01	-2.113432e+02
1.230000e-06	-2.565336e-06	-3.214377e-09	-1.917042e+01	-2.097633e+02
1.240000e-06	-2.527432e-06	-3.194523e-09	-1.888717e+01	-2.081644e+02
1.250000e-06	-2.489303e-06	-3.169974e-09	-1.860223e+01	-2.065453e+02
1.260000e-06	-2.450954e-06	-3.133356e-09	-1.831566e+01	-2.049045e+02
1.270000e-06	-2.412495e-06	-3.099135e-09	-1.802826e+01	-2.032409e+02
1.280000e-06	-2.373930e-06	-3.078588e-09	-1.774007e+01	-2.015536e+02
1.290000e-06	-2.335043e-06	-3.059521e-09	-1.744947e+01	-1.998418e+02
1.300000e-06	-2.295976e-06	-3.030428e-09	-1.715753e+01	-1.981052e+02
1.310000e-06	-2.256971e-06	-2.993862e-09	-1.686605e+01	-1.963435e+02
1.320000e-06	-2.217783e-06	-2.964635e-09	-1.657320e+01	-1.945567e+02
1.330000e-06	-2.178363e-06	-2.943512e-09	-1.627862e+01	-1.927452e+02
1.340000e-06	-2.138878e-06	-2.917834e-09	-1.598355e+01	-1.909094e+02
1.350000e-06	-2.099285e-06	-2.879349e-09	-1.568768e+01	-1.890502e+02
1.360000e-06	-2.059536e-06	-2.838405e-09	-1.539064e+01	-1.871683e+02
1.370000e-06	-2.019719e-06	-2.810139e-09	-1.509310e+01	-1.852648e+02
1.380000e-06	-1.979859e-06	-2.789318e-09	-1.479523e+01	-1.833409e+02
1.390000e-06	-1.939886e-06	-2.760314e-09	-1.449652e+01	-1.813976e+02
1.400000e-06	-1.899858e-06	-2.723398e-09	-1.419739e+01	-1.794362e+02
1.410000e-06	-1.859730e-06	-2.692806e-09	-1.389752e+01	-1.774578e+02
1.420000e-06	-1.819456e-06	-2.668873e-09	-1.359656e+01	-1.754634e+02
1.430000e-06	-1.779086e-06	-2.640314e-09	-1.329488e+01	-1.734540e+02
1.440000e-06	-1.738542e-06	-2.602395e-09	-1.299190e+01	-1.714304e+02
1.450000e-06	-1.697849e-06	-2.566649e-09	-1.268780e+01	-1.693931e+02
1.460000e-06	-1.657059e-06	-2.535994e-09	-1.238299e+01	-1.673425e+02
1.470000e-06	-1.616053e-06	-2.505319e-09	-1.207655e+01	-1.652789e+02
1.480000e-06	-1.574861e-06	-2.470153e-09	-1.176873e+01	-1.632022e+02
1.490000e-06	-1.533455e-06	-2.435544e-09	-1.145931e+01	-1.611121e+02
1.500000e-06	-1.491868e-06	-2.405559e-09	-1.114854e+01	-1.590082e+02
1.510000e-06	-1.450065e-06	-2.374978e-09	-1.083615e+01	-1.568898e+02
1.520000e-06	-1.407993e-06	-2.339222e-09	-1.052175e+01	-1.547560e+02
1.530000e-06	-1.365835e-06	-2.304166e-09	-1.020671e+01	-1.526060e+02
1.540000e-06	-1.323545e-06	-2.272331e-09	-9.890680e+00	-1.504384e+02
1.550000e-06	-1.281047e-06	-2.238442e-09	-9.573098e+00	-1.482523e+02
1.560000e-06	-1.238400e-06	-2.198094e-09	-9.254402e+00	-1.460463e+02
1.570000e-06	-1.195622e-06	-2.156428e-09	-8.934729e+00	-1.438192e+02
1.580000e-06	-1.152721e-06	-2.118751e-09	-8.614137e+00	-1.415698e+02
1.590000e-06	-1.109777e-06	-2.082150e-09	-8.293219e+00	-1.392971e+02
1.600000e-06	-1.066693e-06	-2.045094e-09	-7.971260e+00	-1.370000e+02
1.610000e-06	-1.023393e-06	-2.008432e-09	-7.647679e+00	-1.346776e+02
1.620000e-06	-9.800167e-07	-1.972190e-09	-7.323537e+00	-1.323294e+02
1.630000e-06	-9.366279e-07	-1.935182e-09	-6.999298e+00	-1.299547e+02
1.640000e-06	-8.932337e-07	-1.896989e-09	-6.675019e+00	-1.275532e+02
1.650000e-06	-8.497792e-07	-1.857075e-09	-6.350289e+00	-1.251249e+02
1.660000e-06	-8.062915e-07	-1.815814e-09	-6.025311e+00	-1.226699e+02
1.670000e-06	-7.628286e-07	-1.776105e-09	-5.700519e+00	-1.201884e+02
1.680000e-06	-7.192783e-07	-1.738489e-09	-5.375073e+00	-1.176810e+02
1.690000e-06	-6.756100e-07	-1.699360e-09	-5.048745e+00	-1.151483e+02
1.700000e-06	-6.319494e-07	-1.658474e-09	-4.722475e+00	-1.125911e+02
1.710000e-06	-5.883238e-07	-1.619994e-09	-4.396467e+00	-1.100103e+02
1.720000e-06	-5.446830e-07	-1.584410e-09	-4.070345e+00	-1.074068e+02
1.730000e-06	-5.010374e-07	-1.546016e-09	-3.744187e+00	-1.047817e+02
1.740000e-06	-4.573704e-07	-1.503898e-09	-3.417870e+00	-1.021361e+02
1.750000e-06	-4.136365e-07	-1.462426e-09	-3.091052e+00	-9.947079e+01
1.760000e-06	-3.698549e-07	-1.422621e-09	-2.763877e+00	-9.678684e+01
1.770000e-06	-3.260800e-07	-1.383701e-09	-2.436753e+00	-9.408505e+01
1.780000e-06	-2.822955e-07	-1.343292e-09	-2.109558e+00	-9.136613e+01
1.790000e-06	-2.385268e-07	-1.301477e-09	-1.782480e+00	-8.863064e+01
1.800000e-06	-1.947615e-07	-1.260323e-09	-1.455427e+00	-8.587898e+01
1.810000e-06	-1.509557e-07	-1.219277e-09	-1.128072e+00	-8.311137e+01
1.820000e-06	-1.071351e-07	-1.177921e-09	-8.006068e-01	-8.032785e+01
1.830000e-06	-6.331992e-08	-1.136191e-09	-4.731815e-01	-7.752829e+01
1.840000e-06	-1.953649e-08	-1.093404e-09	-1.459937e-01	-7.471238e+01
1.850000e-06	2.422336e-08	-1.048360e-09	1.810180e-01	-7.187963e+01
1.860000e-06	6.797035e-08	-1.003031e-09	5.079336e-01	-6.902943e+01
1.870000e-06	1.117190e-07	-9.603284e-10	8.348612e-01	-6.616106e+01
1.880000e-06	1.554734e-07	-9.207820e-10	1.161833e+00	-6.327369e+01
1.890000e-06	1.991956e-07	-8.829905e-10	1.488563e+00	-6.036644e+01
1.900000e-06	2.429230e-07	-8.439271e-10	1.815332e+00	-5.743839e+01
1.910000e-06	2.866572e-07	-7.997885e-10	2.142152e+00	-5.448866e+01
1.920000e-06	3.303639e-07	-7.549548e-10	2.468766e+00	-5.151638e+01
1.930000e-06	3.740702e-07	-7.093338e-10	2.795378e+00	-4.852075e+01
1.940000e-06	4.177837e-07	-6.636678e-10	3.122043e+00	-4.550108e+01
1.950000e-06	4.614851e-07	-6.170759e-10	3.448618e+00	-4.245681e+01
1.960000e-06	5.051971e-07	-5.695765e-10	3.775272e+00	-3.938751e+01
1.970000e-06	5.488792e-07	-5.242617e-10	4.101702e+00	-3.629293e+01
1.980000e-06	5.924771e-07	-4.786022e-10	4.427504e+00	-3.317298e+01
1.990000e-06	6.360648e-07	-4.336378e-10	4.753229e+00	-3.002774e+01
2.000000e-06	6.796689e-07	-3.900352e-10	5.079077e+00	-2.685749e+01
2.010000e-06	7.232580e-07	-3.428818e-10	5.404812e+00	-2.366266e+01
2.020000e-06	7.667450e-07	-2.933239e-10	5.729785e+00	-2.044383e+01
2.030000e-06	8.101288e-07	-2.443967e-10	6.053987e+00	-1.720173e+01
2.040000e-06	8.535234e-07	-1.970964e-10	6.378269e+00	-1.393721e+01
2.050000e-06	8.969519e-07	-1.486080e-10	6.702805e+00	-1.065119e+01
2.060000e-06	9.404129e-07	-9.733378e-11	7.027582e+00	-7.344670e+00
2.070000e-06	9.837681e-07	-4.767523e-11	7.351571e+00	-4.018673e+00
2.080000e-06	1.026980e-06	-3.012688e-13	7.674486e+00	-6.742270e-01
2.090000e-06	1.070092e-06	4.709662e-11	7.996658e+00	2.687666e+00
2.100000e-06	1.113102e-06	9.797344e-11	8.318063e+00	6.066059e+00
2.110000e-06	1.155959e-06	1.509182e-10	8.638330e+00	9.460079e+00
2.120000e-06	1.198659e-06	2.023437e-10	8.957421e+00	1.286895e+01
2.130000e-06	1.241264e-06	2.500012e-10	9.275803e+00	1.629202e+01
2.140000e-06	1.283683e-06	2.995764e-10	9.592799e+00	1.972875e+01
2.150000e-06	1.325959e-06	3.525801e-10	9.908718e+00	2.317872e+01
2.160000e-06	1.368278e-06	4.051497e-10	1.022496e+01	2.664166e+01
2.170000e-06	1.410484e-06	4.541184e-10	1.054037e+01	3.011739e+01
2.180000e-06	1.452426e-06	5.030712e-10	1.085379e+01	3.360585e+01
2.190000e-06	1.494116e-06	5.558971e-10	1.116533e+01	3.710708e+01
2.200000e-06	1.535605e-06	6.094522e-10	1.147538e+01	4.062114e+01
2.210000e-06	1.576909e-06	6.612266e-10	1.178404e+01	4.414816e+01
2.220000e-06	1.617964e-06	7.131282e-10	1.209083e+01	4.768826e+01
2.230000e-06	1.658847e-06	7.664250e-10	1.239635e+01	5.124152e+01
2.240000e-06	1.699573e-06	8.198190e-10	1.270069e+01	5.480796e+01
2.250000e-06	1.740103e-06	8.734955e-10	1.300356e+01	5.838750e+01
2.260000e-06	1.780428e-06	9.286569e-10	1.330491e+01	6.197993e+01
2.270000e-06	1.820613e-06	9.820776e-10	1.360520e+01	6.558485e+01
2.280000e-06	1.860685e-06	1.033333e-09	1.390465e+01	6.920170e+01
2.290000e-06	1.900694e-06	1.087199e-09	1.420364e+01	7.282968e+01
2.300000e-06	1.940631e-06	1.142793e-09	1.450208e+01	7.646778e+01
2.310000e-06	1.980486e-06	1.196506e-09	1.479992e+01	8.011472e+01
2.320000e-06	2.020276e-06	1.247517e-09	1.509726e+01	8.376900e+01
2.330000e-06	2.059947e-06	1.298973e-09	1.539372e+01	8.742886e+01
2.340000e-06	2.099543e-06	1.352078e-09	1.568961e+01	9.109230e+01
2.350000e-06	2.139053e-06	1.405981e-09	1.598487e+01	9.475712e+01
2.360000e-06	2.178390e-06	1.458517e-09	1.627882e+01	9.842092e+01
2.370000e-06	2.217613e-06	1.509936e-09	1.657193e+01	1.020811e+02
2.380000e-06	2.256739e-06	1.560370e-09	1.686432e+01	1.057350e+02
2.390000e-06	2.295704e-06	1.610685e-09	1.715549e+01	1.093798e+02
2.400000e-06	2.334470e-06	1.663133e-09	1.744519e+01	1.130127e+02
2.410000e-06	2.373036e-06	1.717389e-09	1.773339e+01	1.166308e+02
2.420000e-06	2.411418e-06	1.771716e-09	1.802021e+01	1.202313e+02
2.430000e-06	2.449639e-06	1.824343e-09	1.830583e+01	1.238114e+02
2.440000e-06	2.487739e-06	1.875718e-09	1.859055e+01	1.273686e+02
2.450000e-06	2.525676e-06	1.926813e-09	1.887405e+01	1.309003e+02
2.460000e-06	2.563437e-06	1.978979e-09	1.915623e+01	1.344043e+02
2.470000e-06	2.601064e-06	2.030080e-09	1.943741e+01	1.378786e+02
2.480000e-06	2.638540e-06	2.080497e-09	1.971746e+01	1.413213e+02
2.490000e-06	2.675897e-06	2.129729e-09	1.999663e+01	1.447309e+02
2.500000e-06	2.713073e-06	2.178006e-09	2.027444e+01	1.481060e+02
2.510000e-06	2.749985e-06	2.225329e-09	2.055028e+01	1.514458e+02
2.520000e-06	2.786650e-06	2.272904e-09	2.082427e+01	1.547493e+02
2.530000e-06	2.823053e-06	2.321079e-09	2.109631e+01	1.580162e+02
2.540000e-06	2.859274e-06	2.368427e-09	2.136698e+01	1.612462e+02
2.550000e-06	2.895366e-06	2.415747e-09	2.163669e+01	1.644392e+02
2.560000e-06	2.931310e-06	2.461492e-09	2.190530e+01	1.675952e+02
2.570000e-06	2.967123e-06	2.505552e-09	2.217292e+01	1.707147e+02
2.580000e-06	3.002835e-06	2.548425e-09	2.243980e+01	1.737978e+02
2.590000e-06	3.038476e-06	2.590649e-09	2.270613e+01	1.768452e+02
2.600000e-06	3.073954e-06	2.632544e-09	2.297126e+01	1.798571e+02
2.610000e-06	3.109205e-06	2.675665e-09	2.323468e+01	1.828342e+02
2.620000e-06	3.144250e-06	2.717359e-09	2.349657e+01	1.857767e+02
2.630000e-06	3.178948e-06	2.758695e-09	2.375586e+01	1.886852e+02
2.640000e-06	3.213279e-06	2.802680e-09	2.401242e+01	1.915598e+02
2.650000e-06	3.247306e-06	2.848402e-09	2.426670e+01	1.944007e+02
2.660000e-06	3.280912e-06	2.892028e-09	2.451783e+01	1.972078e+02
2.670000e-06	3.313993e-06	2.933750e-09	2.476504e+01	1.999812e+02
2.680000e-06	3.346635e-06	2.974801e-09	2.500897e+01	2.027205e+02
2.690000e-06	3.379027e-06	3.016854e-09	2.525102e+01	2.054253e+02
2.700000e-06	3.411260e-06	3.058562e-09	2.549190e+01	2.080950e+02
2.710000e-06	3.443301e-06	3.096535e-09	2.573134e+01	2.107291e+02
2.720000e-06	3.475135e-06	3.132356e-09	2.596923e+01	2.133269e+02
2.730000e-06	3.506859e-06	3.170132e-09	2.620630e+01	2.158875e+02
2.740000e-06	3.538490e-06	3.208675e-09	2.644267e+01	2.184101e+02
2.750000e-06	3.569958e-06	3.244498e-09	2.667783e+01	2.208940e+02
2.760000e-06	3.601224e-06	3.278941e-09	2.691148e+01	2.233383e+02
2.770000e-06	3.632188e-06	3.313545e-09	2.714286e+01	2.257423e+02
2.780000e-06	3.662802e-06	3.347078e-09	2.737164e+01	2.281054e+02
2.790000e-06	3.693082e-06	3.379088e-09	2.759792e+01	2.304273e+02
2.800000e-06	3.723128e-06	3.410517e-09	2.782245e+01	2.327074e+02
2.810000e-06	3.753002e-06	3.442855e-09	2.804570e+01	2.349457e+02
2.820000e-06	3.782623e-06	3.476962e-09	2.826705e+01	2.371421e+02
2.830000e-06	3.811929e-06	3.510626e-09	2.848605e+01	2.392970e+02
2.840000e-06	3.841060e-06	3.543499e-09	2.870374e+01	2.414107e+02
2.850000e-06	3.870023e-06	3.576394e-09	2.892018e+01	2.434839e+02
2.860000e-06	3.898640e-06	3.609603e-09	2.913403e+01	2.455172e+02
2.870000e-06	3.926976e-06	3.640518e-09	2.934578e+01	2.475118e+02
2.880000e-06	3.955065e-06	3.670522e-09	2.955568e+01	2.494686e+02
2.890000e-06	3.982956e-06	3.701592e-09	2.976411e+01	2.513888e+02
2.900000e-06	4.010706e-06	3.732425e-09	2.997148e+01	2.532738e+02
