# Temperatura_=_20.0
# Concentracion g/m^3_=_12600.0
# C_Vs_to_Am_M_A/Vsm_=_65563218390.804596
# pendiente_HvsI_1/m_=_3716.3
# ordenada_HvsI_A/m_=_1297.0
# frecuencia_Hz_=_135176.43348991417

Tiempo_(s)	Campo_(V.s)	Magnetizacion_(V.s)	Campo_(kA/m)	Magnetizacion_(A/m)
0.000000e+00	-5.159675e-06	-5.120727e-09	-3.843274e+01	-3.292531e+02
1.000000e-08	-5.159869e-06	-5.120888e-09	-3.843418e+01	-3.293368e+02
2.000000e-08	-5.159814e-06	-5.124692e-09	-3.843377e+01	-3.293892e+02
3.000000e-08	-5.159407e-06	-5.126275e-09	-3.843075e+01	-3.294069e+02
4.000000e-08	-5.158591e-06	-5.123833e-09	-3.842467e+01	-3.293866e+02
5.000000e-08	-5.157330e-06	-5.122144e-09	-3.841528e+01	-3.293255e+02
6.000000e-08	-5.155515e-06	-5.133950e-09	-3.840175e+01	-3.292213e+02
7.000000e-08	-5.153168e-06	-5.159471e-09	-3.838427e+01	-3.290722e+02
8.000000e-08	-5.150265e-06	-5.157668e-09	-3.836265e+01	-3.288769e+02
9.000000e-08	-5.146818e-06	-5.082033e-09	-3.833697e+01	-3.286349e+02
1.000000e-07	-5.143004e-06	-4.978137e-09	-3.830857e+01	-3.283465e+02
1.100000e-07	-5.138970e-06	-5.034044e-09	-3.827851e+01	-3.280125e+02
1.200000e-07	-5.134706e-06	-5.231712e-09	-3.824675e+01	-3.276347e+02
1.300000e-07	-5.130084e-06	-5.287212e-09	-3.821233e+01	-3.272156e+02
1.400000e-07	-5.125149e-06	-5.069073e-09	-3.817557e+01	-3.267583e+02
1.500000e-07	-5.119959e-06	-4.891054e-09	-3.813691e+01	-3.262666e+02
1.600000e-07	-5.114399e-06	-4.993777e-09	-3.809549e+01	-3.257451e+02
1.700000e-07	-5.108413e-06	-5.235275e-09	-3.805091e+01	-3.251986e+02
1.800000e-07	-5.102068e-06	-5.242205e-09	-3.800364e+01	-3.246326e+02
1.900000e-07	-5.095525e-06	-5.047170e-09	-3.795491e+01	-3.240526e+02
2.000000e-07	-5.088732e-06	-4.885125e-09	-3.790431e+01	-3.234647e+02
2.100000e-07	-5.081480e-06	-4.956392e-09	-3.785029e+01	-3.228745e+02
2.200000e-07	-5.073880e-06	-5.128737e-09	-3.779368e+01	-3.222881e+02
2.300000e-07	-5.066059e-06	-5.102780e-09	-3.773543e+01	-3.217110e+02
2.400000e-07	-5.057851e-06	-4.869639e-09	-3.767429e+01	-3.211485e+02
2.500000e-07	-5.049137e-06	-4.785335e-09	-3.760938e+01	-3.206054e+02
2.600000e-07	-5.039928e-06	-4.997939e-09	-3.754079e+01	-3.200858e+02
2.700000e-07	-5.030406e-06	-5.109362e-09	-3.746986e+01	-3.195935e+02
2.800000e-07	-5.020515e-06	-4.891089e-09	-3.739618e+01	-3.191311e+02
2.900000e-07	-5.009958e-06	-4.703322e-09	-3.731754e+01	-3.187006e+02
3.000000e-07	-4.998886e-06	-4.883041e-09	-3.723507e+01	-3.183030e+02
3.100000e-07	-4.987459e-06	-5.065451e-09	-3.714996e+01	-3.179386e+02
3.200000e-07	-4.975578e-06	-4.925347e-09	-3.706146e+01	-3.176066e+02
3.300000e-07	-4.963247e-06	-4.738707e-09	-3.696961e+01	-3.173053e+02
3.400000e-07	-4.950570e-06	-4.832124e-09	-3.687519e+01	-3.170322e+02
3.500000e-07	-4.937597e-06	-4.938484e-09	-3.677856e+01	-3.167840e+02
3.600000e-07	-4.924305e-06	-4.893099e-09	-3.667954e+01	-3.165566e+02
3.700000e-07	-4.910650e-06	-4.819438e-09	-3.657783e+01	-3.163454e+02
3.800000e-07	-4.896542e-06	-4.783451e-09	-3.647275e+01	-3.161451e+02
3.900000e-07	-4.881906e-06	-4.696701e-09	-3.636373e+01	-3.159501e+02
4.000000e-07	-4.866747e-06	-4.752802e-09	-3.625082e+01	-3.157546e+02
4.100000e-07	-4.851210e-06	-4.888345e-09	-3.613509e+01	-3.155525e+02
4.200000e-07	-4.835277e-06	-4.810205e-09	-3.601640e+01	-3.153377e+02
4.300000e-07	-4.818823e-06	-4.607985e-09	-3.589385e+01	-3.151044e+02
4.400000e-07	-4.802035e-06	-4.665746e-09	-3.576880e+01	-3.148470e+02
4.500000e-07	-4.785000e-06	-4.841041e-09	-3.564191e+01	-3.145601e+02
4.600000e-07	-4.767636e-06	-4.790093e-09	-3.551257e+01	-3.142391e+02
4.700000e-07	-4.750003e-06	-4.641411e-09	-3.538123e+01	-3.138798e+02
4.800000e-07	-4.732093e-06	-4.646944e-09	-3.524782e+01	-3.134787e+02
4.900000e-07	-4.713752e-06	-4.726212e-09	-3.511120e+01	-3.130332e+02
5.000000e-07	-4.695028e-06	-4.722057e-09	-3.497174e+01	-3.125413e+02
5.100000e-07	-4.676003e-06	-4.675799e-09	-3.483003e+01	-3.120019e+02
5.200000e-07	-4.656687e-06	-4.626342e-09	-3.468615e+01	-3.114146e+02
5.300000e-07	-4.637114e-06	-4.613616e-09	-3.454036e+01	-3.107802e+02
5.400000e-07	-4.617288e-06	-4.639780e-09	-3.439268e+01	-3.100997e+02
5.500000e-07	-4.597235e-06	-4.659634e-09	-3.424331e+01	-3.093752e+02
5.600000e-07	-4.576947e-06	-4.608970e-09	-3.409219e+01	-3.086094e+02
5.700000e-07	-4.556343e-06	-4.566533e-09	-3.393872e+01	-3.078053e+02
5.800000e-07	-4.535441e-06	-4.586221e-09	-3.378303e+01	-3.069668e+02
5.900000e-07	-4.514299e-06	-4.619982e-09	-3.362555e+01	-3.060977e+02
6.000000e-07	-4.492842e-06	-4.574764e-09	-3.346572e+01	-3.052023e+02
6.100000e-07	-4.470986e-06	-4.512672e-09	-3.330292e+01	-3.042849e+02
6.200000e-07	-4.448813e-06	-4.524643e-09	-3.313776e+01	-3.033498e+02
6.300000e-07	-4.426437e-06	-4.566527e-09	-3.297109e+01	-3.024014e+02
6.400000e-07	-4.403723e-06	-4.517520e-09	-3.280190e+01	-3.014436e+02
6.500000e-07	-4.380684e-06	-4.446610e-09	-3.263029e+01	-3.004801e+02
6.600000e-07	-4.357402e-06	-4.469239e-09	-3.245687e+01	-2.995142e+02
6.700000e-07	-4.333835e-06	-4.520407e-09	-3.228133e+01	-2.985488e+02
6.800000e-07	-4.310057e-06	-4.473458e-09	-3.210421e+01	-2.975860e+02
6.900000e-07	-4.286053e-06	-4.392554e-09	-3.192541e+01	-2.966277e+02
7.000000e-07	-4.261770e-06	-4.396536e-09	-3.174454e+01	-2.956748e+02
7.100000e-07	-4.237151e-06	-4.448332e-09	-3.156116e+01	-2.947280e+02
7.200000e-07	-4.212133e-06	-4.430945e-09	-3.137481e+01	-2.937871e+02
7.300000e-07	-4.186735e-06	-4.348071e-09	-3.118563e+01	-2.928515e+02
7.400000e-07	-4.160829e-06	-4.314924e-09	-3.099266e+01	-2.919199e+02
7.500000e-07	-4.134453e-06	-4.361370e-09	-3.079620e+01	-2.909907e+02
7.600000e-07	-4.107697e-06	-4.386804e-09	-3.059690e+01	-2.900618e+02
7.700000e-07	-4.080517e-06	-4.323578e-09	-3.039444e+01	-2.891307e+02
7.800000e-07	-4.053083e-06	-4.254068e-09	-3.019009e+01	-2.881949e+02
7.900000e-07	-4.025446e-06	-4.267832e-09	-2.998424e+01	-2.872514e+02
8.000000e-07	-3.997562e-06	-4.317865e-09	-2.977654e+01	-2.862975e+02
8.100000e-07	-3.969474e-06	-4.294390e-09	-2.956732e+01	-2.853301e+02
8.200000e-07	-3.941128e-06	-4.211156e-09	-2.935618e+01	-2.843465e+02
8.300000e-07	-3.912498e-06	-4.175279e-09	-2.914293e+01	-2.833442e+02
8.400000e-07	-3.883623e-06	-4.218011e-09	-2.892784e+01	-2.823207e+02
8.500000e-07	-3.854533e-06	-4.241505e-09	-2.871116e+01	-2.812739e+02
8.600000e-07	-3.825205e-06	-4.190868e-09	-2.849271e+01	-2.802023e+02
8.700000e-07	-3.795596e-06	-4.124047e-09	-2.827216e+01	-2.791046e+02
8.800000e-07	-3.765708e-06	-4.120181e-09	-2.804954e+01	-2.779798e+02
8.900000e-07	-3.735565e-06	-4.154242e-09	-2.782501e+01	-2.768275e+02
9.000000e-07	-3.705262e-06	-4.144424e-09	-2.759929e+01	-2.756477e+02
9.100000e-07	-3.674677e-06	-4.074852e-09	-2.737147e+01	-2.744408e+02
9.200000e-07	-3.643769e-06	-4.023499e-09	-2.714125e+01	-2.732076e+02
9.300000e-07	-3.612680e-06	-4.034378e-09	-2.690968e+01	-2.719492e+02
9.400000e-07	-3.581333e-06	-4.056990e-09	-2.667618e+01	-2.706670e+02
9.500000e-07	-3.549772e-06	-4.028304e-09	-2.644110e+01	-2.693627e+02
9.600000e-07	-3.518071e-06	-3.970261e-09	-2.620497e+01	-2.680380e+02
9.700000e-07	-3.486151e-06	-3.943094e-09	-2.596720e+01	-2.666949e+02
9.800000e-07	-3.454085e-06	-3.954677e-09	-2.572836e+01	-2.653354e+02
9.900000e-07	-3.421776e-06	-3.955037e-09	-2.548770e+01	-2.639614e+02
1.000000e-06	-3.389145e-06	-3.915663e-09	-2.524464e+01	-2.625746e+02
1.010000e-06	-3.356303e-06	-3.863713e-09	-2.500001e+01	-2.611769e+02
1.020000e-06	-3.323244e-06	-3.841468e-09	-2.475376e+01	-2.597696e+02
1.030000e-06	-3.289899e-06	-3.848245e-09	-2.450539e+01	-2.583539e+02
1.040000e-06	-3.256022e-06	-3.841255e-09	-2.425305e+01	-2.569308e+02
1.050000e-06	-3.221671e-06	-3.799992e-09	-2.399718e+01	-2.555009e+02
1.060000e-06	-3.187087e-06	-3.754047e-09	-2.373958e+01	-2.540645e+02
1.070000e-06	-3.152153e-06	-3.739989e-09	-2.347936e+01	-2.526215e+02
1.080000e-06	-3.116822e-06	-3.744355e-09	-2.321619e+01	-2.511715e+02
1.090000e-06	-3.081276e-06	-3.725225e-09	-2.295142e+01	-2.497138e+02
1.100000e-06	-3.045645e-06	-3.676123e-09	-2.268602e+01	-2.482475e+02
1.110000e-06	-3.009897e-06	-3.637266e-09	-2.241974e+01	-2.467712e+02
1.120000e-06	-2.974012e-06	-3.629935e-09	-2.215245e+01	-2.452836e+02
1.130000e-06	-2.937930e-06	-3.626666e-09	-2.188368e+01	-2.437830e+02
1.140000e-06	-2.901707e-06	-3.594331e-09	-2.161387e+01	-2.422678e+02
1.150000e-06	-2.865425e-06	-3.549618e-09	-2.134362e+01	-2.407361e+02
1.160000e-06	-2.828979e-06	-3.523625e-09	-2.107214e+01	-2.391862e+02
1.170000e-06	-2.792348e-06	-3.515840e-09	-2.079929e+01	-2.376165e+02
1.180000e-06	-2.755513e-06	-3.499183e-09	-2.052492e+01	-2.360252e+02
1.190000e-06	-2.718461e-06	-3.463846e-09	-2.024893e+01	-2.344109e+02
1.200000e-06	-2.681139e-06	-3.423760e-09	-1.997093e+01	-2.327724e+02
1.210000e-06	-2.643514e-06	-3.398635e-09	-1.969068e+01	-2.311087e+02
1.220000e-06	-2.605725e-06	-3.383331e-09	-1.940919e+01	-2.294189e+02
1.230000e-06	-2.567807e-06	-3.360356e-09	-1.912676e+01	-2.277025e+02
1.240000e-06	-2.529804e-06	-3.323158e-09	-1.884368e+01	-2.259592e+02
1.250000e-06	-2.491608e-06	-3.286627e-09	-1.855918e+01	-2.241892e+02
1.260000e-06	-2.453238e-06	-3.263318e-09	-1.827338e+01	-2.223926e+02
1.270000e-06	-2.414749e-06	-3.245033e-09	-1.798668e+01	-2.205700e+02
1.280000e-06	-2.376044e-06	-3.218188e-09	-1.769838e+01	-2.187221e+02
1.290000e-06	-2.337175e-06	-3.183614e-09	-1.740885e+01	-2.168498e+02
1.300000e-06	-2.298117e-06	-3.150111e-09	-1.711792e+01	-2.149541e+02
1.310000e-06	-2.258940e-06	-3.122126e-09	-1.682611e+01	-2.130363e+02
1.320000e-06	-2.219668e-06	-3.099387e-09	-1.653359e+01	-2.110976e+02
1.330000e-06	-2.180199e-06	-3.072511e-09	-1.623960e+01	-2.091392e+02
1.340000e-06	-2.140617e-06	-3.035186e-09	-1.594476e+01	-2.071622e+02
1.350000e-06	-2.100919e-06	-2.998131e-09	-1.564907e+01	-2.051678e+02
1.360000e-06	-2.061088e-06	-2.972875e-09	-1.535237e+01	-2.031571e+02
1.370000e-06	-2.021196e-06	-2.951481e-09	-1.505523e+01	-2.011308e+02
1.380000e-06	-1.981243e-06	-2.921403e-09	-1.475764e+01	-1.990897e+02
1.390000e-06	-1.941221e-06	-2.880575e-09	-1.445953e+01	-1.970342e+02
1.400000e-06	-1.901090e-06	-2.843913e-09	-1.416060e+01	-1.949647e+02
1.410000e-06	-1.860814e-06	-2.817590e-09	-1.386060e+01	-1.928812e+02
1.420000e-06	-1.820424e-06	-2.794445e-09	-1.355974e+01	-1.907836e+02
1.430000e-06	-1.779932e-06	-2.760648e-09	-1.325814e+01	-1.886715e+02
1.440000e-06	-1.739281e-06	-2.719644e-09	-1.295534e+01	-1.865443e+02
1.450000e-06	-1.698427e-06	-2.685459e-09	-1.265103e+01	-1.844013e+02
1.460000e-06	-1.657386e-06	-2.661304e-09	-1.234533e+01	-1.822417e+02
1.470000e-06	-1.616214e-06	-2.633292e-09	-1.203865e+01	-1.800645e+02
1.480000e-06	-1.574857e-06	-2.596062e-09	-1.173060e+01	-1.778687e+02
1.490000e-06	-1.533312e-06	-2.559243e-09	-1.142115e+01	-1.756531e+02
1.500000e-06	-1.491536e-06	-2.528483e-09	-1.110997e+01	-1.734167e+02
1.510000e-06	-1.449465e-06	-2.498664e-09	-1.079659e+01	-1.711584e+02
1.520000e-06	-1.407209e-06	-2.463017e-09	-1.048184e+01	-1.688773e+02
1.530000e-06	-1.364815e-06	-2.422458e-09	-1.016607e+01	-1.665724e+02
1.540000e-06	-1.322284e-06	-2.382334e-09	-9.849261e+00	-1.642432e+02
1.550000e-06	-1.279590e-06	-2.345810e-09	-9.531253e+00	-1.618890e+02
1.560000e-06	-1.236762e-06	-2.311018e-09	-9.212238e+00	-1.595094e+02
1.570000e-06	-1.193867e-06	-2.272584e-09	-8.892728e+00	-1.571042e+02
1.580000e-06	-1.150846e-06	-2.228531e-09	-8.572274e+00	-1.546735e+02
1.590000e-06	-1.107647e-06	-2.187379e-09	-8.250502e+00	-1.522174e+02
1.600000e-06	-1.064326e-06	-2.153203e-09	-7.927815e+00	-1.497363e+02
1.610000e-06	-1.020981e-06	-2.121720e-09	-7.604958e+00	-1.472307e+02
1.620000e-06	-9.776390e-07	-2.083356e-09	-7.282115e+00	-1.447014e+02
1.630000e-06	-9.342522e-07	-2.039263e-09	-6.958941e+00	-1.421491e+02
1.640000e-06	-8.908338e-07	-1.997239e-09	-6.635531e+00	-1.395746e+02
1.650000e-06	-8.473150e-07	-1.960054e-09	-6.311374e+00	-1.369790e+02
1.660000e-06	-8.036835e-07	-1.924420e-09	-5.986377e+00	-1.343632e+02
1.670000e-06	-7.600182e-07	-1.884076e-09	-5.661129e+00	-1.317282e+02
1.680000e-06	-7.163247e-07	-1.839857e-09	-5.335670e+00	-1.290747e+02
1.690000e-06	-6.726380e-07	-1.798598e-09	-5.010262e+00	-1.264036e+02
1.700000e-06	-6.289243e-07	-1.762415e-09	-4.684653e+00	-1.237156e+02
1.710000e-06	-5.851559e-07	-1.725820e-09	-4.358636e+00	-1.210112e+02
1.720000e-06	-5.414136e-07	-1.682748e-09	-4.032814e+00	-1.182908e+02
1.730000e-06	-4.976634e-07	-1.635901e-09	-3.706933e+00	-1.155545e+02
1.740000e-06	-4.538408e-07	-1.594148e-09	-3.380513e+00	-1.128023e+02
1.750000e-06	-4.100281e-07	-1.557518e-09	-3.054166e+00	-1.100340e+02
1.760000e-06	-3.661893e-07	-1.519035e-09	-2.727625e+00	-1.072493e+02
1.770000e-06	-3.222964e-07	-1.474561e-09	-2.400681e+00	-1.044476e+02
1.780000e-06	-2.783817e-07	-1.427466e-09	-2.073575e+00	-1.016281e+02
1.790000e-06	-2.344917e-07	-1.384004e-09	-1.746652e+00	-9.878993e+01
1.800000e-06	-1.906344e-07	-1.343166e-09	-1.419974e+00	-9.593214e+01
1.810000e-06	-1.467800e-07	-1.299267e-09	-1.093317e+00	-9.305366e+01
1.820000e-06	-1.029189e-07	-1.251487e-09	-7.666095e-01	-9.015337e+01
1.830000e-06	-5.901138e-08	-1.205052e-09	-4.395566e-01	-8.723015e+01
1.840000e-06	-1.510497e-08	-1.163314e-09	-1.125120e-01	-8.428290e+01
1.850000e-06	2.875862e-08	-1.123304e-09	2.142136e-01	-8.131059e+01
1.860000e-06	7.257916e-08	-1.078886e-09	5.406185e-01	-7.831227e+01
1.870000e-06	1.163917e-07	-1.030604e-09	8.669637e-01	-7.528714e+01
1.880000e-06	1.602435e-07	-9.856402e-10	1.193602e+00	-7.223455e+01
1.890000e-06	2.041086e-07	-9.452225e-10	1.520338e+00	-6.915401e+01
1.900000e-06	2.479307e-07	-9.028112e-10	1.846755e+00	-6.604525e+01
1.910000e-06	2.917489e-07	-8.573848e-10	2.173142e+00	-6.290818e+01
1.920000e-06	3.355918e-07	-8.106550e-10	2.499714e+00	-5.974295e+01
1.930000e-06	3.794459e-07	-7.643202e-10	2.826369e+00	-5.654989e+01
1.940000e-06	4.232861e-07	-7.199048e-10	3.152921e+00	-5.332953e+01
1.950000e-06	4.671069e-07	-6.739873e-10	3.479327e+00	-5.008262e+01
1.960000e-06	5.108947e-07	-6.248394e-10	3.805488e+00	-4.681001e+01
1.970000e-06	5.546308e-07	-5.742212e-10	4.131264e+00	-4.351275e+01
1.980000e-06	5.983369e-07	-5.266961e-10	4.456817e+00	-4.019195e+01
1.990000e-06	6.420283e-07	-4.813141e-10	4.782260e+00	-3.684882e+01
2.000000e-06	6.856739e-07	-4.345127e-10	5.107362e+00	-3.348461e+01
2.010000e-06	7.292877e-07	-3.845617e-10	5.432227e+00	-3.010055e+01
2.020000e-06	7.728870e-07	-3.326858e-10	5.756984e+00	-2.669787e+01
2.030000e-06	8.164600e-07	-2.833105e-10	6.081545e+00	-2.327772e+01
2.040000e-06	8.599781e-07	-2.365893e-10	6.405697e+00	-1.984116e+01
2.050000e-06	9.034487e-07	-1.875404e-10	6.729496e+00	-1.638912e+01
2.060000e-06	9.469549e-07	-1.338696e-10	7.053559e+00	-1.292240e+01
2.070000e-06	9.904255e-07	-8.111102e-11	7.377358e+00	-9.441637e+00
2.080000e-06	1.033731e-06	-3.246337e-11	7.699929e+00	-5.947296e+00
2.090000e-06	1.076920e-06	1.619556e-11	8.021629e+00	-2.439672e+00
2.100000e-06	1.120037e-06	6.830430e-11	8.342791e+00	1.081112e+00
2.110000e-06	1.163079e-06	1.214472e-10	8.663398e+00	4.615090e+00
2.120000e-06	1.206048e-06	1.747184e-10	8.983460e+00	8.162442e+00
2.130000e-06	1.248907e-06	2.275289e-10	9.302704e+00	1.172347e+01
2.140000e-06	1.291626e-06	2.806400e-10	9.620901e+00	1.529857e+01
2.150000e-06	1.334171e-06	3.338385e-10	9.937803e+00	1.888820e+01
2.160000e-06	1.376557e-06	3.861781e-10	1.025352e+01	2.249284e+01
2.170000e-06	1.418744e-06	4.382785e-10	1.056776e+01	2.611299e+01
2.180000e-06	1.460730e-06	4.901643e-10	1.088050e+01	2.974906e+01
2.190000e-06	1.502648e-06	5.439748e-10	1.119273e+01	3.340141e+01
2.200000e-06	1.544410e-06	5.980634e-10	1.150380e+01	3.707027e+01
2.210000e-06	1.585890e-06	6.528423e-10	1.181278e+01	4.075570e+01
2.220000e-06	1.627101e-06	7.088751e-10	1.211975e+01	4.445760e+01
2.230000e-06	1.668089e-06	7.635926e-10	1.242506e+01	4.817564e+01
2.240000e-06	1.708950e-06	8.158994e-10	1.272941e+01	5.190925e+01
2.250000e-06	1.749625e-06	8.694635e-10	1.303239e+01	5.565765e+01
2.260000e-06	1.790072e-06	9.263246e-10	1.333367e+01	5.941977e+01
2.270000e-06	1.830429e-06	9.816186e-10	1.363427e+01	6.319431e+01
2.280000e-06	1.870737e-06	1.033584e-09	1.393451e+01	6.697970e+01
2.290000e-06	1.910900e-06	1.087202e-09	1.423367e+01	7.077417e+01
2.300000e-06	1.950891e-06	1.145757e-09	1.453155e+01	7.457571e+01
2.310000e-06	1.990780e-06	1.202919e-09	1.482867e+01	7.838212e+01
2.320000e-06	2.030644e-06	1.256451e-09	1.512560e+01	8.219106e+01
2.330000e-06	2.070444e-06	1.311153e-09	1.542206e+01	8.600004e+01
2.340000e-06	2.110173e-06	1.367089e-09	1.571799e+01	8.980651e+01
2.350000e-06	2.149839e-06	1.421458e-09	1.601345e+01	9.360787e+01
2.360000e-06	2.189380e-06	1.473415e-09	1.630798e+01	9.740149e+01
2.370000e-06	2.228800e-06	1.525584e-09	1.660161e+01	1.011848e+02
2.380000e-06	2.268095e-06	1.579839e-09	1.689431e+01	1.049553e+02
2.390000e-06	2.307249e-06	1.635569e-09	1.718595e+01	1.087106e+02
2.400000e-06	2.346171e-06	1.691581e-09	1.747586e+01	1.124484e+02
2.410000e-06	2.384859e-06	1.748659e-09	1.776404e+01	1.161666e+02
2.420000e-06	2.423398e-06	1.805900e-09	1.805110e+01	1.198634e+02
2.430000e-06	2.461697e-06	1.861642e-09	1.833638e+01	1.235370e+02
2.440000e-06	2.499794e-06	1.914917e-09	1.862015e+01	1.271860e+02
2.450000e-06	2.537785e-06	1.965006e-09	1.890313e+01	1.308091e+02
2.460000e-06	2.575674e-06	2.016492e-09	1.918536e+01	1.344052e+02
2.470000e-06	2.613390e-06	2.069379e-09	1.946629e+01	1.379736e+02
2.480000e-06	2.650875e-06	2.120638e-09	1.974551e+01	1.415136e+02
2.490000e-06	2.688197e-06	2.171133e-09	2.002351e+01	1.450247e+02
2.500000e-06	2.725397e-06	2.222097e-09	2.030060e+01	1.485066e+02
2.510000e-06	2.762365e-06	2.273131e-09	2.057596e+01	1.519592e+02
2.520000e-06	2.799070e-06	2.322854e-09	2.084936e+01	1.553822e+02
2.530000e-06	2.835584e-06	2.371567e-09	2.112134e+01	1.587758e+02
2.540000e-06	2.871885e-06	2.419721e-09	2.139174e+01	1.621399e+02
2.550000e-06	2.908012e-06	2.466735e-09	2.166083e+01	1.654744e+02
2.560000e-06	2.944040e-06	2.512435e-09	2.192920e+01	1.687793e+02
2.570000e-06	2.979989e-06	2.558682e-09	2.219697e+01	1.720547e+02
2.580000e-06	3.015801e-06	2.604532e-09	2.246372e+01	1.753002e+02
2.590000e-06	3.051485e-06	2.648965e-09	2.272952e+01	1.785158e+02
2.600000e-06	3.087041e-06	2.693871e-09	2.299437e+01	1.817009e+02
2.610000e-06	3.122358e-06	2.738619e-09	2.325743e+01	1.848552e+02
2.620000e-06	3.157402e-06	2.784497e-09	2.351846e+01	1.879781e+02
2.630000e-06	3.192199e-06	2.828271e-09	2.377765e+01	1.910689e+02
2.640000e-06	3.226658e-06	2.870898e-09	2.403433e+01	1.941268e+02
2.650000e-06	3.260690e-06	2.913151e-09	2.428782e+01	1.971510e+02
2.660000e-06	3.294371e-06	2.954848e-09	2.453870e+01	2.001405e+02
2.670000e-06	3.327606e-06	2.998813e-09	2.478625e+01	2.030944e+02
2.680000e-06	3.360503e-06	3.043061e-09	2.503129e+01	2.060116e+02
2.690000e-06	3.393174e-06	3.085507e-09	2.527465e+01	2.088912e+02
2.700000e-06	3.425453e-06	3.126486e-09	2.551509e+01	2.117322e+02
2.710000e-06	3.457471e-06	3.168402e-09	2.575357e+01	2.145336e+02
2.720000e-06	3.489382e-06	3.210727e-09	2.599127e+01	2.172947e+02
2.730000e-06	3.521177e-06	3.249974e-09	2.622810e+01	2.200146e+02
2.740000e-06	3.552841e-06	3.282983e-09	2.646396e+01	2.226929e+02
2.750000e-06	3.584344e-06	3.316013e-09	2.669861e+01	2.253289e+02
2.760000e-06	3.615592e-06	3.352966e-09	2.693137e+01	2.279225e+02
2.770000e-06	3.646567e-06	3.389993e-09	2.716209e+01	2.304733e+02
2.780000e-06	3.677263e-06	3.424225e-09	2.739074e+01	2.329814e+02
2.790000e-06	3.707662e-06	3.458512e-09	2.761717e+01	2.354470e+02
2.800000e-06	3.737883e-06	3.494936e-09	2.784228e+01	2.378702e+02
2.810000e-06	3.767907e-06	3.530725e-09	2.806592e+01	2.402515e+02
2.820000e-06	3.797612e-06	3.563781e-09	2.828717e+01	2.425915e+02
2.830000e-06	3.827069e-06	3.596490e-09	2.850659e+01	2.448906e+02
2.840000e-06	3.856281e-06	3.629999e-09	2.872419e+01	2.471496e+02
2.850000e-06	3.885243e-06	3.663295e-09	2.893991e+01	2.493693e+02
2.860000e-06	3.913988e-06	3.694411e-09	2.915402e+01	2.515502e+02
2.870000e-06	3.942450e-06	3.723793e-09	2.936603e+01	2.536932e+02
2.880000e-06	3.970628e-06	3.754851e-09	2.957592e+01	2.557988e+02
2.890000e-06	3.998643e-06	3.787800e-09	2.978459e+01	2.578678e+02
2.900000e-06	4.026515e-06	3.820142e-09	2.999220e+01	2.599007e+02
