# Temperatura_=_20.0
# Concentracion g/m^3_=_12600.0
# C_Vs_to_Am_M_A/Vsm_=_65563218390.804596
# pendiente_HvsI_1/m_=_3716.3
# ordenada_HvsI_A/m_=_1297.0
# frecuencia_Hz_=_135174.46021100046

Tiempo_(s)	Campo_(V.s)	Magnetizacion_(V.s)	Campo_(kA/m)	Magnetizacion_(A/m)
0.000000e+00	-5.159420e-06	-4.937508e-09	-3.843550e+01	-3.181196e+02
1.000000e-08	-5.159728e-06	-4.936947e-09	-3.843779e+01	-3.182256e+02
2.000000e-08	-5.159797e-06	-4.936219e-09	-3.843830e+01	-3.183154e+02
3.000000e-08	-5.159547e-06	-4.935295e-09	-3.843644e+01	-3.183861e+02
4.000000e-08	-5.158948e-06	-4.935021e-09	-3.843198e+01	-3.184347e+02
5.000000e-08	-5.157991e-06	-4.931885e-09	-3.842485e+01	-3.184583e+02
6.000000e-08	-5.156599e-06	-4.924177e-09	-3.841448e+01	-3.184538e+02
7.000000e-08	-5.154597e-06	-4.916952e-09	-3.839956e+01	-3.184184e+02
8.000000e-08	-5.151927e-06	-4.965456e-09	-3.837968e+01	-3.183498e+02
9.000000e-08	-5.148719e-06	-5.017044e-09	-3.835578e+01	-3.182457e+02
1.000000e-07	-5.145072e-06	-4.909897e-09	-3.832861e+01	-3.181043e+02
1.100000e-07	-5.141119e-06	-4.710050e-09	-3.829916e+01	-3.179243e+02
1.200000e-07	-5.137013e-06	-4.821154e-09	-3.826857e+01	-3.177050e+02
1.300000e-07	-5.132658e-06	-5.077469e-09	-3.823613e+01	-3.174460e+02
1.400000e-07	-5.127906e-06	-5.153287e-09	-3.820073e+01	-3.171480e+02
1.500000e-07	-5.122752e-06	-4.827433e-09	-3.816233e+01	-3.168117e+02
1.600000e-07	-5.117294e-06	-4.656580e-09	-3.812168e+01	-3.164389e+02
1.700000e-07	-5.111504e-06	-4.815459e-09	-3.807854e+01	-3.160317e+02
1.800000e-07	-5.105329e-06	-5.056251e-09	-3.803254e+01	-3.155930e+02
1.900000e-07	-5.098842e-06	-5.080275e-09	-3.798421e+01	-3.151261e+02
2.000000e-07	-5.092133e-06	-4.838672e-09	-3.793423e+01	-3.146346e+02
2.100000e-07	-5.085117e-06	-4.694779e-09	-3.788197e+01	-3.141228e+02
2.200000e-07	-5.077656e-06	-4.785097e-09	-3.782639e+01	-3.135949e+02
2.300000e-07	-5.069934e-06	-5.049211e-09	-3.776886e+01	-3.130558e+02
2.400000e-07	-5.062053e-06	-4.946546e-09	-3.771015e+01	-3.125100e+02
2.500000e-07	-5.053713e-06	-4.645184e-09	-3.764802e+01	-3.119623e+02
2.600000e-07	-5.044748e-06	-4.626178e-09	-3.758124e+01	-3.114172e+02
2.700000e-07	-5.035404e-06	-5.011527e-09	-3.751163e+01	-3.108792e+02
2.800000e-07	-5.025765e-06	-5.040098e-09	-3.743982e+01	-3.103522e+02
2.900000e-07	-5.015627e-06	-4.641235e-09	-3.736430e+01	-3.098398e+02
3.000000e-07	-5.004810e-06	-4.530680e-09	-3.728372e+01	-3.093452e+02
3.100000e-07	-4.993519e-06	-4.904489e-09	-3.719961e+01	-3.088708e+02
3.200000e-07	-4.981949e-06	-4.948506e-09	-3.711341e+01	-3.084186e+02
3.300000e-07	-4.969960e-06	-4.625436e-09	-3.702410e+01	-3.079898e+02
3.400000e-07	-4.957573e-06	-4.587678e-09	-3.693182e+01	-3.075847e+02
3.500000e-07	-4.944823e-06	-4.804804e-09	-3.683684e+01	-3.072031e+02
3.600000e-07	-4.931707e-06	-4.714854e-09	-3.673913e+01	-3.068440e+02
3.700000e-07	-4.918264e-06	-4.611390e-09	-3.663898e+01	-3.065057e+02
3.800000e-07	-4.904479e-06	-4.766058e-09	-3.653630e+01	-3.061858e+02
3.900000e-07	-4.890261e-06	-4.718323e-09	-3.643037e+01	-3.058814e+02
4.000000e-07	-4.875385e-06	-4.486421e-09	-3.631956e+01	-3.055889e+02
4.100000e-07	-4.859920e-06	-4.560888e-09	-3.620434e+01	-3.053043e+02
4.200000e-07	-4.844145e-06	-4.799802e-09	-3.608683e+01	-3.050233e+02
4.300000e-07	-4.827933e-06	-4.674572e-09	-3.596605e+01	-3.047413e+02
4.400000e-07	-4.811245e-06	-4.477271e-09	-3.584174e+01	-3.044536e+02
4.500000e-07	-4.794312e-06	-4.529523e-09	-3.571559e+01	-3.041552e+02
4.600000e-07	-4.777189e-06	-4.660929e-09	-3.558804e+01	-3.038416e+02
4.700000e-07	-4.759759e-06	-4.623691e-09	-3.545819e+01	-3.035081e+02
4.800000e-07	-4.741928e-06	-4.572141e-09	-3.532536e+01	-3.031504e+02
4.900000e-07	-4.723806e-06	-4.524728e-09	-3.519036e+01	-3.027647e+02
5.000000e-07	-4.705371e-06	-4.512066e-09	-3.505302e+01	-3.023475e+02
5.100000e-07	-4.686532e-06	-4.546146e-09	-3.491268e+01	-3.018959e+02
5.200000e-07	-4.667328e-06	-4.598436e-09	-3.476962e+01	-3.014075e+02
5.300000e-07	-4.647840e-06	-4.529705e-09	-3.462444e+01	-3.008807e+02
5.400000e-07	-4.628127e-06	-4.440351e-09	-3.447758e+01	-3.003145e+02
5.500000e-07	-4.608206e-06	-4.456475e-09	-3.432918e+01	-2.997083e+02
5.600000e-07	-4.588095e-06	-4.548198e-09	-3.417936e+01	-2.990625e+02
5.700000e-07	-4.567732e-06	-4.523359e-09	-3.402767e+01	-2.983780e+02
5.800000e-07	-4.546965e-06	-4.414605e-09	-3.387297e+01	-2.976563e+02
5.900000e-07	-4.525846e-06	-4.406852e-09	-3.371564e+01	-2.968994e+02
6.000000e-07	-4.504440e-06	-4.484039e-09	-3.355617e+01	-2.961097e+02
6.100000e-07	-4.482722e-06	-4.447551e-09	-3.339438e+01	-2.952902e+02
6.200000e-07	-4.460735e-06	-4.365756e-09	-3.323059e+01	-2.944440e+02
6.300000e-07	-4.438530e-06	-4.400901e-09	-3.306517e+01	-2.935745e+02
6.400000e-07	-4.416006e-06	-4.432780e-09	-3.289738e+01	-2.926852e+02
6.500000e-07	-4.393020e-06	-4.350504e-09	-3.272614e+01	-2.917796e+02
6.600000e-07	-4.369751e-06	-4.302926e-09	-3.255280e+01	-2.908612e+02
6.700000e-07	-4.346281e-06	-4.377323e-09	-3.237796e+01	-2.899331e+02
6.800000e-07	-4.322562e-06	-4.398270e-09	-3.220125e+01	-2.889985e+02
6.900000e-07	-4.298607e-06	-4.300554e-09	-3.202280e+01	-2.880601e+02
7.000000e-07	-4.274393e-06	-4.228758e-09	-3.184242e+01	-2.871200e+02
7.100000e-07	-4.249933e-06	-4.291786e-09	-3.166020e+01	-2.861802e+02
7.200000e-07	-4.225118e-06	-4.355901e-09	-3.147534e+01	-2.852420e+02
7.300000e-07	-4.199940e-06	-4.289869e-09	-3.128778e+01	-2.843063e+02
7.400000e-07	-4.174359e-06	-4.167260e-09	-3.109721e+01	-2.833734e+02
7.500000e-07	-4.148226e-06	-4.177957e-09	-3.090253e+01	-2.824433e+02
7.600000e-07	-4.121600e-06	-4.276809e-09	-3.070418e+01	-2.815152e+02
7.700000e-07	-4.094621e-06	-4.280001e-09	-3.050319e+01	-2.805880e+02
7.800000e-07	-4.067305e-06	-4.154468e-09	-3.029970e+01	-2.796601e+02
7.900000e-07	-4.039658e-06	-4.091122e-09	-3.009374e+01	-2.787298e+02
8.000000e-07	-4.011792e-06	-4.166319e-09	-2.988615e+01	-2.777949e+02
8.100000e-07	-3.983789e-06	-4.233194e-09	-2.967754e+01	-2.768528e+02
8.200000e-07	-3.955647e-06	-4.153205e-09	-2.946790e+01	-2.759012e+02
8.300000e-07	-3.927203e-06	-4.039320e-09	-2.925600e+01	-2.749373e+02
8.400000e-07	-3.898395e-06	-4.043887e-09	-2.904139e+01	-2.739585e+02
8.500000e-07	-3.869368e-06	-4.124385e-09	-2.882515e+01	-2.729623e+02
8.600000e-07	-3.840136e-06	-4.124611e-09	-2.860739e+01	-2.719463e+02
8.700000e-07	-3.810674e-06	-4.029767e-09	-2.838791e+01	-2.709084e+02
8.800000e-07	-3.780968e-06	-3.967645e-09	-2.816661e+01	-2.698466e+02
8.900000e-07	-3.751063e-06	-4.007192e-09	-2.794383e+01	-2.687594e+02
9.000000e-07	-3.720902e-06	-4.054161e-09	-2.771915e+01	-2.676456e+02
9.100000e-07	-3.690425e-06	-4.009265e-09	-2.749210e+01	-2.665044e+02
9.200000e-07	-3.659659e-06	-3.923900e-09	-2.726291e+01	-2.653353e+02
9.300000e-07	-3.628608e-06	-3.901794e-09	-2.703160e+01	-2.641384e+02
9.400000e-07	-3.597328e-06	-3.935772e-09	-2.679857e+01	-2.629140e+02
9.500000e-07	-3.565853e-06	-3.938131e-09	-2.656409e+01	-2.616629e+02
9.600000e-07	-3.534201e-06	-3.887833e-09	-2.632830e+01	-2.603862e+02
9.700000e-07	-3.502370e-06	-3.836647e-09	-2.609118e+01	-2.590852e+02
9.800000e-07	-3.470405e-06	-3.823784e-09	-2.585305e+01	-2.577616e+02
9.900000e-07	-3.438236e-06	-3.831359e-09	-2.561340e+01	-2.564172e+02
1.000000e-06	-3.405802e-06	-3.826602e-09	-2.537179e+01	-2.550540e+02
1.010000e-06	-3.373144e-06	-3.788698e-09	-2.512850e+01	-2.536740e+02
1.020000e-06	-3.340281e-06	-3.739358e-09	-2.488368e+01	-2.522792e+02
1.030000e-06	-3.307122e-06	-3.713640e-09	-2.463666e+01	-2.508717e+02
1.040000e-06	-3.273578e-06	-3.718568e-09	-2.438677e+01	-2.494533e+02
1.050000e-06	-3.239485e-06	-3.714111e-09	-2.413279e+01	-2.480257e+02
1.060000e-06	-3.204842e-06	-3.672649e-09	-2.387472e+01	-2.465904e+02
1.070000e-06	-3.170007e-06	-3.617809e-09	-2.361521e+01	-2.451486e+02
1.080000e-06	-3.134931e-06	-3.599707e-09	-2.335391e+01	-2.437013e+02
1.090000e-06	-3.099523e-06	-3.612112e-09	-2.309014e+01	-2.422491e+02
1.100000e-06	-3.063940e-06	-3.601311e-09	-2.282505e+01	-2.407922e+02
1.110000e-06	-3.028223e-06	-3.547235e-09	-2.255898e+01	-2.393307e+02
1.120000e-06	-2.992375e-06	-3.500069e-09	-2.229193e+01	-2.378642e+02
1.130000e-06	-2.956402e-06	-3.495700e-09	-2.202395e+01	-2.363921e+02
1.140000e-06	-2.920283e-06	-3.501371e-09	-2.175487e+01	-2.349133e+02
1.150000e-06	-2.883983e-06	-3.471288e-09	-2.148446e+01	-2.334268e+02
1.160000e-06	-2.847522e-06	-3.417243e-09	-2.121283e+01	-2.319311e+02
1.170000e-06	-2.810924e-06	-3.382801e-09	-2.094019e+01	-2.304246e+02
1.180000e-06	-2.774119e-06	-3.378242e-09	-2.066602e+01	-2.289057e+02
1.190000e-06	-2.737066e-06	-3.373110e-09	-2.038998e+01	-2.273727e+02
1.200000e-06	-2.699790e-06	-3.340455e-09	-2.011229e+01	-2.258236e+02
1.210000e-06	-2.662288e-06	-3.293920e-09	-1.983292e+01	-2.242569e+02
1.220000e-06	-2.624613e-06	-3.267781e-09	-1.955225e+01	-2.226709e+02
1.230000e-06	-2.586744e-06	-3.261230e-09	-1.927014e+01	-2.210640e+02
1.240000e-06	-2.548587e-06	-3.244931e-09	-1.898590e+01	-2.194349e+02
1.250000e-06	-2.510270e-06	-3.205384e-09	-1.870045e+01	-2.177825e+02
1.260000e-06	-2.471949e-06	-3.161678e-09	-1.841497e+01	-2.161058e+02
1.270000e-06	-2.433543e-06	-3.133333e-09	-1.812887e+01	-2.144041e+02
1.280000e-06	-2.394956e-06	-3.120178e-09	-1.784141e+01	-2.126769e+02
1.290000e-06	-2.356136e-06	-3.106048e-09	-1.755221e+01	-2.109242e+02
1.300000e-06	-2.317210e-06	-3.073098e-09	-1.726223e+01	-2.091460e+02
1.310000e-06	-2.278186e-06	-3.029255e-09	-1.697152e+01	-2.073425e+02
1.320000e-06	-2.238946e-06	-2.998824e-09	-1.667920e+01	-2.055144e+02
1.330000e-06	-2.199490e-06	-2.987844e-09	-1.638527e+01	-2.036624e+02
1.340000e-06	-2.159835e-06	-2.968093e-09	-1.608985e+01	-2.017872e+02
1.350000e-06	-2.120081e-06	-2.922449e-09	-1.579371e+01	-1.998900e+02
1.360000e-06	-2.080261e-06	-2.874338e-09	-1.549707e+01	-1.979719e+02
1.370000e-06	-2.040326e-06	-2.852694e-09	-1.519957e+01	-1.960339e+02
1.380000e-06	-2.000290e-06	-2.841760e-09	-1.490131e+01	-1.940772e+02
1.390000e-06	-1.960202e-06	-2.812571e-09	-1.460267e+01	-1.921030e+02
1.400000e-06	-1.920139e-06	-2.765247e-09	-1.430423e+01	-1.901122e+02
1.410000e-06	-1.879993e-06	-2.728546e-09	-1.400515e+01	-1.881059e+02
1.420000e-06	-1.839657e-06	-2.711949e-09	-1.370467e+01	-1.860847e+02
1.430000e-06	-1.799182e-06	-2.696883e-09	-1.340315e+01	-1.840494e+02
1.440000e-06	-1.758601e-06	-2.659666e-09	-1.310083e+01	-1.820003e+02
1.450000e-06	-1.717920e-06	-2.612438e-09	-1.279777e+01	-1.799379e+02
1.460000e-06	-1.677093e-06	-2.580649e-09	-1.249363e+01	-1.778620e+02
1.470000e-06	-1.636102e-06	-2.562199e-09	-1.218827e+01	-1.757727e+02
1.480000e-06	-1.594813e-06	-2.536484e-09	-1.188068e+01	-1.736695e+02
1.490000e-06	-1.553221e-06	-2.497207e-09	-1.157084e+01	-1.715519e+02
1.500000e-06	-1.511562e-06	-2.459915e-09	-1.126050e+01	-1.694194e+02
1.510000e-06	-1.469812e-06	-2.431559e-09	-1.094948e+01	-1.672710e+02
1.520000e-06	-1.427726e-06	-2.407080e-09	-1.063595e+01	-1.651058e+02
1.530000e-06	-1.385379e-06	-2.376010e-09	-1.032049e+01	-1.629228e+02
1.540000e-06	-1.342917e-06	-2.336915e-09	-1.000416e+01	-1.607209e+02
1.550000e-06	-1.300368e-06	-2.294434e-09	-9.687188e+00	-1.584990e+02
1.560000e-06	-1.257706e-06	-2.258066e-09	-9.369380e+00	-1.562561e+02
1.570000e-06	-1.214858e-06	-2.226647e-09	-9.050177e+00	-1.539910e+02
1.580000e-06	-1.171900e-06	-2.193748e-09	-8.730159e+00	-1.517028e+02
1.590000e-06	-1.128768e-06	-2.153704e-09	-8.408846e+00	-1.493905e+02
1.600000e-06	-1.085503e-06	-2.113336e-09	-8.086541e+00	-1.470534e+02
1.610000e-06	-1.042206e-06	-2.079835e-09	-7.763991e+00	-1.446908e+02
1.620000e-06	-9.988310e-07	-2.052510e-09	-7.440868e+00	-1.423022e+02
1.630000e-06	-9.554011e-07	-2.020092e-09	-7.117333e+00	-1.398872e+02
1.640000e-06	-9.118787e-07	-1.975840e-09	-6.793110e+00	-1.374456e+02
1.650000e-06	-8.683117e-07	-1.929584e-09	-6.468555e+00	-1.349773e+02
1.660000e-06	-8.247389e-07	-1.891719e-09	-6.143956e+00	-1.324825e+02
1.670000e-06	-7.811199e-07	-1.859740e-09	-5.819012e+00	-1.299613e+02
1.680000e-06	-7.374613e-07	-1.820882e-09	-5.493775e+00	-1.274140e+02
1.690000e-06	-6.937664e-07	-1.774610e-09	-5.168266e+00	-1.248411e+02
1.700000e-06	-6.500141e-07	-1.733463e-09	-4.842330e+00	-1.222432e+02
1.710000e-06	-6.062142e-07	-1.704168e-09	-4.516039e+00	-1.196208e+02
1.720000e-06	-5.624096e-07	-1.673411e-09	-4.189713e+00	-1.169745e+02
1.730000e-06	-5.185856e-07	-1.628340e-09	-3.863243e+00	-1.143050e+02
1.740000e-06	-4.747342e-07	-1.577290e-09	-3.536568e+00	-1.116129e+02
1.750000e-06	-4.308632e-07	-1.537314e-09	-3.209748e+00	-1.088987e+02
1.760000e-06	-3.869692e-07	-1.504719e-09	-2.882757e+00	-1.061632e+02
1.770000e-06	-3.430697e-07	-1.465680e-09	-2.555724e+00	-1.034066e+02
1.780000e-06	-2.991649e-07	-1.418077e-09	-2.228652e+00	-1.006296e+02
1.790000e-06	-2.552711e-07	-1.371003e-09	-1.901661e+00	-9.783238e+01
1.800000e-06	-2.113643e-07	-1.331380e-09	-1.574574e+00	-9.501527e+01
1.810000e-06	-1.674324e-07	-1.293420e-09	-1.247300e+00	-9.217843e+01
1.820000e-06	-1.235080e-07	-1.249551e-09	-9.200824e-01	-8.932197e+01
1.830000e-06	-7.957001e-08	-1.202752e-09	-5.927629e-01	-8.644590e+01
1.840000e-06	-3.562725e-08	-1.158702e-09	-2.654080e-01	-8.355018e+01
1.850000e-06	8.294700e-09	-1.119625e-09	6.179200e-02	-8.063469e+01
1.860000e-06	5.219731e-08	-1.079693e-09	3.888478e-01	-7.769930e+01
1.870000e-06	9.608522e-08	-1.035136e-09	7.157942e-01	-7.474383e+01
1.880000e-06	1.400079e-07	-9.896093e-10	1.042999e+00	-7.176810e+01
1.890000e-06	1.839205e-07	-9.468191e-10	1.370130e+00	-6.877191e+01
1.900000e-06	2.278514e-07	-9.070901e-10	1.697396e+00	-6.575512e+01
1.910000e-06	2.717962e-07	-8.663072e-10	2.024766e+00	-6.271758e+01
1.920000e-06	3.156901e-07	-8.229263e-10	2.351758e+00	-5.965921e+01
1.930000e-06	3.596262e-07	-7.763132e-10	2.679063e+00	-5.657999e+01
1.940000e-06	4.035652e-07	-7.306045e-10	3.006390e+00	-5.347994e+01
1.950000e-06	4.474181e-07	-6.873699e-10	3.333075e+00	-5.035917e+01
1.960000e-06	4.912437e-07	-6.428116e-10	3.659558e+00	-4.721783e+01
1.970000e-06	5.350683e-07	-5.957992e-10	3.986033e+00	-4.405617e+01
1.980000e-06	5.788493e-07	-5.435378e-10	4.312183e+00	-4.087447e+01
1.990000e-06	6.226138e-07	-4.931703e-10	4.638209e+00	-3.767308e+01
2.000000e-06	6.663660e-07	-4.518772e-10	4.964145e+00	-3.445239e+01
2.010000e-06	7.101076e-07	-4.131299e-10	5.290001e+00	-3.121280e+01
2.020000e-06	7.538599e-07	-3.663964e-10	5.615937e+00	-2.795475e+01
2.030000e-06	7.975747e-07	-3.135147e-10	5.941594e+00	-2.467867e+01
2.040000e-06	8.412474e-07	-2.654179e-10	6.266937e+00	-2.138498e+01
2.050000e-06	8.848944e-07	-2.216430e-10	6.592089e+00	-1.807404e+01
2.060000e-06	9.284693e-07	-1.744640e-10	6.916704e+00	-1.474622e+01
2.070000e-06	9.720365e-07	-1.199094e-10	7.241261e+00	-1.140178e+01
2.080000e-06	1.015561e-06	-6.708114e-11	7.565503e+00	-8.040946e+00
2.090000e-06	1.058938e-06	-2.099684e-11	7.888637e+00	-4.663861e+00
2.100000e-06	1.102161e-06	2.411683e-11	8.210636e+00	-1.270590e+00
2.110000e-06	1.145254e-06	7.384979e-11	8.531659e+00	2.138877e+00
2.120000e-06	1.188156e-06	1.285905e-10	8.851259e+00	5.564625e+00
2.130000e-06	1.230900e-06	1.809031e-10	9.169682e+00	9.006803e+00
2.140000e-06	1.273520e-06	2.297750e-10	9.487184e+00	1.246562e+01
2.150000e-06	1.315913e-06	2.808759e-10	9.802996e+00	1.594131e+01
2.160000e-06	1.358173e-06	3.336074e-10	1.011782e+01	1.943415e+01
2.170000e-06	1.400292e-06	3.847226e-10	1.043158e+01	2.294440e+01
2.180000e-06	1.442258e-06	4.350766e-10	1.074422e+01	2.647231e+01
2.190000e-06	1.484123e-06	4.847891e-10	1.105609e+01	3.001807e+01
2.200000e-06	1.525820e-06	5.363445e-10	1.136671e+01	3.358181e+01
2.210000e-06	1.567286e-06	5.878120e-10	1.167562e+01	3.716355e+01
2.220000e-06	1.608532e-06	6.398070e-10	1.198289e+01	4.076320e+01
2.230000e-06	1.649562e-06	6.933833e-10	1.228854e+01	4.438051e+01
2.240000e-06	1.690367e-06	7.453823e-10	1.259252e+01	4.801507e+01
2.250000e-06	1.731007e-06	7.936905e-10	1.289527e+01	5.166628e+01
2.260000e-06	1.771500e-06	8.445778e-10	1.319693e+01	5.533334e+01
2.270000e-06	1.811888e-06	9.013035e-10	1.349780e+01	5.901526e+01
2.280000e-06	1.852189e-06	9.581063e-10	1.379803e+01	6.271081e+01
2.290000e-06	1.892400e-06	1.011153e-09	1.409758e+01	6.641855e+01
2.300000e-06	1.932540e-06	1.064916e-09	1.439660e+01	7.013684e+01
2.310000e-06	1.972568e-06	1.122468e-09	1.469479e+01	7.386382e+01
2.320000e-06	2.012479e-06	1.178265e-09	1.499212e+01	7.759746e+01
2.330000e-06	2.052318e-06	1.231505e-09	1.528890e+01	8.133554e+01
2.340000e-06	2.092058e-06	1.282688e-09	1.558494e+01	8.507572e+01
2.350000e-06	2.131719e-06	1.335761e-09	1.588040e+01	8.881552e+01
2.360000e-06	2.171296e-06	1.390637e-09	1.617524e+01	9.255238e+01
2.370000e-06	2.210732e-06	1.444121e-09	1.646902e+01	9.628367e+01
2.380000e-06	2.250012e-06	1.497634e-09	1.676164e+01	1.000067e+02
2.390000e-06	2.289100e-06	1.552729e-09	1.705282e+01	1.037189e+02
2.400000e-06	2.327964e-06	1.607785e-09	1.734235e+01	1.074177e+02
2.410000e-06	2.366699e-06	1.661269e-09	1.763091e+01	1.111004e+02
2.420000e-06	2.405317e-06	1.717734e-09	1.791859e+01	1.147646e+02
2.430000e-06	2.443690e-06	1.775193e-09	1.820446e+01	1.184080e+02
2.440000e-06	2.481942e-06	1.828548e-09	1.848942e+01	1.220285e+02
2.450000e-06	2.520142e-06	1.878341e-09	1.877399e+01	1.256240e+02
2.460000e-06	2.558207e-06	1.930292e-09	1.905756e+01	1.291927e+02
2.470000e-06	2.596111e-06	1.983757e-09	1.933993e+01	1.327329e+02
2.480000e-06	2.633822e-06	2.033206e-09	1.962086e+01	1.362433e+02
2.490000e-06	2.671302e-06	2.081622e-09	1.990007e+01	1.397224e+02
2.500000e-06	2.708565e-06	2.131812e-09	2.017766e+01	1.431692e+02
2.510000e-06	2.745539e-06	2.182812e-09	2.045311e+01	1.465829e+02
2.520000e-06	2.782238e-06	2.232359e-09	2.072650e+01	1.499627e+02
2.530000e-06	2.818794e-06	2.281273e-09	2.099883e+01	1.533080e+02
2.540000e-06	2.855176e-06	2.329347e-09	2.126985e+01	1.566184e+02
2.550000e-06	2.891410e-06	2.377404e-09	2.153978e+01	1.598934e+02
2.560000e-06	2.927544e-06	2.422532e-09	2.180896e+01	1.631329e+02
2.570000e-06	2.963554e-06	2.466706e-09	2.207722e+01	1.663366e+02
2.580000e-06	2.999475e-06	2.512725e-09	2.234482e+01	1.695043e+02
2.590000e-06	3.035326e-06	2.558245e-09	2.261189e+01	1.726361e+02
2.600000e-06	3.071080e-06	2.603098e-09	2.287825e+01	1.757316e+02
2.610000e-06	3.106671e-06	2.646181e-09	2.314339e+01	1.787908e+02
2.620000e-06	3.142017e-06	2.687750e-09	2.340670e+01	1.818135e+02
2.630000e-06	3.177071e-06	2.729374e-09	2.366784e+01	1.847995e+02
2.640000e-06	3.211739e-06	2.772475e-09	2.392610e+01	1.877486e+02
2.650000e-06	3.245919e-06	2.817028e-09	2.418072e+01	1.906605e+02
2.660000e-06	3.279645e-06	2.858351e-09	2.443196e+01	1.935349e+02
2.670000e-06	3.313010e-06	2.898862e-09	2.468052e+01	1.963714e+02
2.680000e-06	3.346020e-06	2.941094e-09	2.492643e+01	1.991696e+02
2.690000e-06	3.378682e-06	2.983827e-09	2.516975e+01	2.019292e+02
2.700000e-06	3.411094e-06	3.024044e-09	2.541121e+01	2.046497e+02
2.710000e-06	3.443343e-06	3.060189e-09	2.565144e+01	2.073306e+02
2.720000e-06	3.475461e-06	3.096448e-09	2.589071e+01	2.099717e+02
2.730000e-06	3.507442e-06	3.135326e-09	2.612896e+01	2.125726e+02
2.740000e-06	3.539272e-06	3.172216e-09	2.636608e+01	2.151330e+02
2.750000e-06	3.570932e-06	3.204582e-09	2.660193e+01	2.176527e+02
2.760000e-06	3.602298e-06	3.236878e-09	2.683560e+01	2.201316e+02
2.770000e-06	3.633371e-06	3.271823e-09	2.706707e+01	2.225695e+02
2.780000e-06	3.664270e-06	3.306327e-09	2.729726e+01	2.249667e+02
2.790000e-06	3.694892e-06	3.338563e-09	2.752538e+01	2.273232e+02
2.800000e-06	3.725182e-06	3.369847e-09	2.775103e+01	2.296393e+02
2.810000e-06	3.755187e-06	3.401989e-09	2.797455e+01	2.319155e+02
2.820000e-06	3.784927e-06	3.435654e-09	2.819611e+01	2.341521e+02
2.830000e-06	3.814501e-06	3.470073e-09	2.841642e+01	2.363497e+02
2.840000e-06	3.843917e-06	3.502875e-09	2.863555e+01	2.385090e+02
2.850000e-06	3.873082e-06	3.533882e-09	2.885282e+01	2.406306e+02
2.860000e-06	3.901895e-06	3.564849e-09	2.906747e+01	2.427153e+02
2.870000e-06	3.930342e-06	3.594088e-09	2.927938e+01	2.447638e+02
2.880000e-06	3.958572e-06	3.621983e-09	2.948969e+01	2.467769e+02
2.890000e-06	3.986666e-06	3.650540e-09	2.969897e+01	2.487553e+02
2.900000e-06	4.014600e-06	3.680828e-09	2.990707e+01	2.506996e+02
