# Temperatura_=_20.0
# Concentracion g/m^3_=_9000.0
# C_Vs_to_Am_M_A/Vsm_=_65563218390.804596
# pendiente_HvsI_1/m_=_3716.3
# ordenada_HvsI_A/m_=_1297.0
# frecuencia_Hz_=_134983.12267967453

Tiempo_(s)	Campo_(V.s)	Magnetizacion_(V.s)	Campo_(kA/m)	Magnetizacion_(A/m)
0.000000e+00	-2.639460e-06	-2.839209e-09	-1.986966e+01	-1.863909e+02
1.000000e-08	-2.639688e-06	-2.828697e-09	-1.987138e+01	-1.864334e+02
2.000000e-08	-2.639733e-06	-2.828230e-09	-1.987172e+01	-1.864658e+02
3.000000e-08	-2.639677e-06	-2.844694e-09	-1.987130e+01	-1.864881e+02
4.000000e-08	-2.639546e-06	-2.866404e-09	-1.987031e+01	-1.865001e+02
5.000000e-08	-2.639208e-06	-2.843429e-09	-1.986777e+01	-1.865017e+02
6.000000e-08	-2.638632e-06	-2.809657e-09	-1.986343e+01	-1.864928e+02
7.000000e-08	-2.637861e-06	-2.865421e-09	-1.985763e+01	-1.864735e+02
8.000000e-08	-2.636905e-06	-2.930123e-09	-1.985043e+01	-1.864436e+02
9.000000e-08	-2.635780e-06	-2.968929e-09	-1.984196e+01	-1.864033e+02
1.000000e-07	-2.634396e-06	-2.871910e-09	-1.983155e+01	-1.863526e+02
1.100000e-07	-2.632650e-06	-2.734881e-09	-1.981840e+01	-1.862917e+02
1.200000e-07	-2.630560e-06	-2.705953e-09	-1.980267e+01	-1.862205e+02
1.300000e-07	-2.628174e-06	-2.809342e-09	-1.978470e+01	-1.861394e+02
1.400000e-07	-2.625519e-06	-2.855752e-09	-1.976472e+01	-1.860484e+02
1.500000e-07	-2.622515e-06	-2.799675e-09	-1.974210e+01	-1.859478e+02
1.600000e-07	-2.619198e-06	-2.780331e-09	-1.971714e+01	-1.858379e+02
1.700000e-07	-2.615686e-06	-2.829812e-09	-1.969070e+01	-1.857189e+02
1.800000e-07	-2.612023e-06	-2.887634e-09	-1.966312e+01	-1.855911e+02
1.900000e-07	-2.608241e-06	-2.826430e-09	-1.963465e+01	-1.854548e+02
2.000000e-07	-2.604406e-06	-2.778207e-09	-1.960578e+01	-1.853103e+02
2.100000e-07	-2.600500e-06	-2.822060e-09	-1.957638e+01	-1.851580e+02
2.200000e-07	-2.596483e-06	-2.928258e-09	-1.954614e+01	-1.849983e+02
2.300000e-07	-2.592398e-06	-2.879875e-09	-1.951538e+01	-1.848315e+02
2.400000e-07	-2.588201e-06	-2.767235e-09	-1.948379e+01	-1.846579e+02
2.500000e-07	-2.583851e-06	-2.736831e-09	-1.945105e+01	-1.844780e+02
2.600000e-07	-2.579300e-06	-2.842496e-09	-1.941678e+01	-1.842921e+02
2.700000e-07	-2.574487e-06	-2.881481e-09	-1.938055e+01	-1.841006e+02
2.800000e-07	-2.569491e-06	-2.770488e-09	-1.934295e+01	-1.839039e+02
2.900000e-07	-2.564359e-06	-2.674546e-09	-1.930431e+01	-1.837023e+02
3.000000e-07	-2.559079e-06	-2.757007e-09	-1.926456e+01	-1.834961e+02
3.100000e-07	-2.553566e-06	-2.888641e-09	-1.922306e+01	-1.832857e+02
3.200000e-07	-2.547833e-06	-2.838794e-09	-1.917991e+01	-1.830714e+02
3.300000e-07	-2.541963e-06	-2.699845e-09	-1.913572e+01	-1.828534e+02
3.400000e-07	-2.535871e-06	-2.691890e-09	-1.908986e+01	-1.826320e+02
3.500000e-07	-2.529589e-06	-2.824284e-09	-1.904256e+01	-1.824075e+02
3.600000e-07	-2.523176e-06	-2.853688e-09	-1.899429e+01	-1.821801e+02
3.700000e-07	-2.516504e-06	-2.746897e-09	-1.894406e+01	-1.819499e+02
3.800000e-07	-2.509589e-06	-2.677592e-09	-1.889200e+01	-1.817170e+02
3.900000e-07	-2.502541e-06	-2.767172e-09	-1.883895e+01	-1.814817e+02
4.000000e-07	-2.495368e-06	-2.848635e-09	-1.878495e+01	-1.812439e+02
4.100000e-07	-2.488068e-06	-2.799380e-09	-1.873000e+01	-1.810038e+02
4.200000e-07	-2.480586e-06	-2.699341e-09	-1.867367e+01	-1.807613e+02
4.300000e-07	-2.472954e-06	-2.715952e-09	-1.861622e+01	-1.805164e+02
4.400000e-07	-2.465268e-06	-2.795954e-09	-1.855836e+01	-1.802691e+02
4.500000e-07	-2.457481e-06	-2.799980e-09	-1.849974e+01	-1.800193e+02
4.600000e-07	-2.449610e-06	-2.713727e-09	-1.844049e+01	-1.797669e+02
4.700000e-07	-2.441710e-06	-2.685023e-09	-1.838102e+01	-1.795117e+02
4.800000e-07	-2.433698e-06	-2.747990e-09	-1.832070e+01	-1.792536e+02
4.900000e-07	-2.425486e-06	-2.791359e-09	-1.825889e+01	-1.789923e+02
5.000000e-07	-2.416990e-06	-2.740138e-09	-1.819493e+01	-1.787277e+02
5.100000e-07	-2.408242e-06	-2.685624e-09	-1.812908e+01	-1.784595e+02
5.200000e-07	-2.399278e-06	-2.713194e-09	-1.806159e+01	-1.781874e+02
5.300000e-07	-2.390093e-06	-2.766004e-09	-1.799245e+01	-1.779112e+02
5.400000e-07	-2.380658e-06	-2.746197e-09	-1.792142e+01	-1.776305e+02
5.500000e-07	-2.370906e-06	-2.681370e-09	-1.784801e+01	-1.773451e+02
5.600000e-07	-2.360876e-06	-2.670964e-09	-1.777250e+01	-1.770547e+02
5.700000e-07	-2.350587e-06	-2.717092e-09	-1.769505e+01	-1.767588e+02
5.800000e-07	-2.339999e-06	-2.729917e-09	-1.761535e+01	-1.764572e+02
5.900000e-07	-2.329085e-06	-2.676744e-09	-1.753318e+01	-1.761496e+02
6.000000e-07	-2.317896e-06	-2.642230e-09	-1.744896e+01	-1.758356e+02
6.100000e-07	-2.306542e-06	-2.670235e-09	-1.736348e+01	-1.755149e+02
6.200000e-07	-2.295066e-06	-2.699028e-09	-1.727709e+01	-1.751871e+02
6.300000e-07	-2.283456e-06	-2.665669e-09	-1.718969e+01	-1.748521e+02
6.400000e-07	-2.271737e-06	-2.622301e-09	-1.710148e+01	-1.745095e+02
6.500000e-07	-2.259921e-06	-2.628435e-09	-1.701252e+01	-1.741590e+02
6.600000e-07	-2.247953e-06	-2.660498e-09	-1.692243e+01	-1.738003e+02
6.700000e-07	-2.235787e-06	-2.651402e-09	-1.683085e+01	-1.734333e+02
6.800000e-07	-2.223455e-06	-2.612891e-09	-1.673801e+01	-1.730576e+02
6.900000e-07	-2.211014e-06	-2.595508e-09	-1.664436e+01	-1.726731e+02
7.000000e-07	-2.198372e-06	-2.612809e-09	-1.654918e+01	-1.722796e+02
7.100000e-07	-2.185467e-06	-2.618393e-09	-1.645204e+01	-1.718769e+02
7.200000e-07	-2.172446e-06	-2.593667e-09	-1.635401e+01	-1.714648e+02
7.300000e-07	-2.159292e-06	-2.565895e-09	-1.625499e+01	-1.710434e+02
7.400000e-07	-2.145889e-06	-2.568827e-09	-1.615410e+01	-1.706124e+02
7.500000e-07	-2.132318e-06	-2.580598e-09	-1.605194e+01	-1.701718e+02
7.600000e-07	-2.118646e-06	-2.568203e-09	-1.594902e+01	-1.697215e+02
7.700000e-07	-2.104825e-06	-2.537879e-09	-1.584497e+01	-1.692615e+02
7.800000e-07	-2.090866e-06	-2.528181e-09	-1.573989e+01	-1.687918e+02
7.900000e-07	-2.076748e-06	-2.539250e-09	-1.563361e+01	-1.683124e+02
8.000000e-07	-2.062461e-06	-2.537174e-09	-1.552606e+01	-1.678233e+02
8.100000e-07	-2.047984e-06	-2.514095e-09	-1.541708e+01	-1.673246e+02
8.200000e-07	-2.033329e-06	-2.500312e-09	-1.530675e+01	-1.668163e+02
8.300000e-07	-2.018449e-06	-2.504046e-09	-1.519474e+01	-1.662984e+02
8.400000e-07	-2.003277e-06	-2.501598e-09	-1.508053e+01	-1.657710e+02
8.500000e-07	-1.987846e-06	-2.484928e-09	-1.496436e+01	-1.652343e+02
8.600000e-07	-1.972190e-06	-2.467618e-09	-1.484651e+01	-1.646882e+02
8.700000e-07	-1.956404e-06	-2.462425e-09	-1.472767e+01	-1.641330e+02
8.800000e-07	-1.940445e-06	-2.460906e-09	-1.460753e+01	-1.635685e+02
8.900000e-07	-1.924232e-06	-2.450586e-09	-1.448548e+01	-1.629951e+02
9.000000e-07	-1.907738e-06	-2.430091e-09	-1.436131e+01	-1.624126e+02
9.100000e-07	-1.891086e-06	-2.419047e-09	-1.423596e+01	-1.618213e+02
9.200000e-07	-1.874319e-06	-2.421312e-09	-1.410974e+01	-1.612211e+02
9.300000e-07	-1.857360e-06	-2.418411e-09	-1.398207e+01	-1.606122e+02
9.400000e-07	-1.840351e-06	-2.399853e-09	-1.385403e+01	-1.599946e+02
9.500000e-07	-1.823279e-06	-2.384092e-09	-1.372551e+01	-1.593682e+02
9.600000e-07	-1.805990e-06	-2.380417e-09	-1.359536e+01	-1.587333e+02
9.700000e-07	-1.788639e-06	-2.378315e-09	-1.346475e+01	-1.580896e+02
9.800000e-07	-1.771265e-06	-2.365213e-09	-1.333395e+01	-1.574373e+02
9.900000e-07	-1.753822e-06	-2.349277e-09	-1.320265e+01	-1.567763e+02
1.000000e-06	-1.736361e-06	-2.342118e-09	-1.307120e+01	-1.561065e+02
1.010000e-06	-1.718807e-06	-2.339731e-09	-1.293906e+01	-1.554279e+02
1.020000e-06	-1.701168e-06	-2.329839e-09	-1.280627e+01	-1.547404e+02
1.030000e-06	-1.683422e-06	-2.314722e-09	-1.267268e+01	-1.540440e+02
1.040000e-06	-1.665602e-06	-2.302412e-09	-1.253853e+01	-1.533383e+02
1.050000e-06	-1.647717e-06	-2.296052e-09	-1.240390e+01	-1.526235e+02
1.060000e-06	-1.629681e-06	-2.287023e-09	-1.226812e+01	-1.518991e+02
1.070000e-06	-1.611489e-06	-2.271840e-09	-1.213117e+01	-1.511652e+02
1.080000e-06	-1.593183e-06	-2.257451e-09	-1.199336e+01	-1.504214e+02
1.090000e-06	-1.574772e-06	-2.248190e-09	-1.185477e+01	-1.496676e+02
1.100000e-06	-1.556230e-06	-2.239133e-09	-1.171519e+01	-1.489036e+02
1.110000e-06	-1.537546e-06	-2.224850e-09	-1.157454e+01	-1.481290e+02
1.120000e-06	-1.518726e-06	-2.209849e-09	-1.143286e+01	-1.473437e+02
1.130000e-06	-1.499781e-06	-2.198518e-09	-1.129024e+01	-1.465474e+02
1.140000e-06	-1.480763e-06	-2.190698e-09	-1.114707e+01	-1.457398e+02
1.150000e-06	-1.461648e-06	-2.179149e-09	-1.100318e+01	-1.449206e+02
1.160000e-06	-1.442417e-06	-2.159906e-09	-1.085841e+01	-1.440895e+02
1.170000e-06	-1.423051e-06	-2.143880e-09	-1.071262e+01	-1.432463e+02
1.180000e-06	-1.403567e-06	-2.134192e-09	-1.056595e+01	-1.423905e+02
1.190000e-06	-1.383977e-06	-2.121241e-09	-1.041848e+01	-1.415220e+02
1.200000e-06	-1.364303e-06	-2.104303e-09	-1.027038e+01	-1.406404e+02
1.210000e-06	-1.344622e-06	-2.089620e-09	-1.012221e+01	-1.397454e+02
1.220000e-06	-1.324904e-06	-2.081376e-09	-9.973779e+00	-1.388368e+02
1.230000e-06	-1.305167e-06	-2.071917e-09	-9.825201e+00	-1.379141e+02
1.240000e-06	-1.285407e-06	-2.057413e-09	-9.676451e+00	-1.369771e+02
1.250000e-06	-1.265631e-06	-2.039600e-09	-9.527578e+00	-1.360255e+02
1.260000e-06	-1.245834e-06	-2.023985e-09	-9.378551e+00	-1.350590e+02
1.270000e-06	-1.225979e-06	-2.009951e-09	-9.229080e+00	-1.340773e+02
1.280000e-06	-1.206079e-06	-1.993210e-09	-9.079277e+00	-1.330802e+02
1.290000e-06	-1.186160e-06	-1.972962e-09	-8.929330e+00	-1.320673e+02
1.300000e-06	-1.166176e-06	-1.955916e-09	-8.778891e+00	-1.310385e+02
1.310000e-06	-1.146098e-06	-1.944153e-09	-8.627743e+00	-1.299933e+02
1.320000e-06	-1.125978e-06	-1.931336e-09	-8.476279e+00	-1.289316e+02
1.330000e-06	-1.105837e-06	-1.912582e-09	-8.324658e+00	-1.278531e+02
1.340000e-06	-1.085646e-06	-1.891077e-09	-8.172662e+00	-1.267575e+02
1.350000e-06	-1.065335e-06	-1.872980e-09	-8.019769e+00	-1.256446e+02
1.360000e-06	-1.044893e-06	-1.856829e-09	-7.865878e+00	-1.245142e+02
1.370000e-06	-1.024437e-06	-1.837933e-09	-7.711892e+00	-1.233660e+02
1.380000e-06	-1.003962e-06	-1.818521e-09	-7.557753e+00	-1.221997e+02
1.390000e-06	-9.833548e-07	-1.803133e-09	-7.402624e+00	-1.210152e+02
1.400000e-06	-9.627088e-07	-1.788320e-09	-7.247203e+00	-1.198121e+02
1.410000e-06	-9.420032e-07	-1.770051e-09	-7.091333e+00	-1.185902e+02
1.420000e-06	-9.211755e-07	-1.749623e-09	-6.934543e+00	-1.173494e+02
1.430000e-06	-9.002919e-07	-1.730170e-09	-6.777333e+00	-1.160892e+02
1.440000e-06	-8.793071e-07	-1.709793e-09	-6.619360e+00	-1.148095e+02
1.450000e-06	-8.581920e-07	-1.687063e-09	-6.460408e+00	-1.135099e+02
1.460000e-06	-8.370367e-07	-1.664628e-09	-6.301152e+00	-1.121903e+02
1.470000e-06	-8.158631e-07	-1.644840e-09	-6.141759e+00	-1.108504e+02
1.480000e-06	-7.946071e-07	-1.626487e-09	-5.981745e+00	-1.094898e+02
1.490000e-06	-7.732338e-07	-1.608897e-09	-5.820849e+00	-1.081082e+02
1.500000e-06	-7.518250e-07	-1.587138e-09	-5.659685e+00	-1.067055e+02
1.510000e-06	-7.304092e-07	-1.563357e-09	-5.498468e+00	-1.052811e+02
1.520000e-06	-7.089162e-07	-1.542397e-09	-5.336670e+00	-1.038350e+02
1.530000e-06	-6.873201e-07	-1.521862e-09	-5.174096e+00	-1.023666e+02
1.540000e-06	-6.656895e-07	-1.497152e-09	-5.011263e+00	-1.008757e+02
1.550000e-06	-6.440403e-07	-1.470957e-09	-4.848289e+00	-9.936196e+01
1.560000e-06	-6.223416e-07	-1.448388e-09	-4.684943e+00	-9.782502e+01
1.570000e-06	-6.006456e-07	-1.426866e-09	-4.521617e+00	-9.626455e+01
1.580000e-06	-5.789118e-07	-1.401924e-09	-4.358007e+00	-9.468019e+01
1.590000e-06	-5.571400e-07	-1.376057e-09	-4.194110e+00	-9.307159e+01
1.600000e-06	-5.353394e-07	-1.352046e-09	-4.029997e+00	-9.143842e+01
1.610000e-06	-5.135263e-07	-1.327771e-09	-3.865789e+00	-8.978033e+01
1.620000e-06	-4.916840e-07	-1.303209e-09	-3.701362e+00	-8.809699e+01
1.630000e-06	-4.697265e-07	-1.276281e-09	-3.536067e+00	-8.638806e+01
1.640000e-06	-4.477828e-07	-1.249120e-09	-3.370877e+00	-8.465324e+01
1.650000e-06	-4.258878e-07	-1.223361e-09	-3.206053e+00	-8.289222e+01
1.660000e-06	-4.039525e-07	-1.195805e-09	-3.040926e+00	-8.110473e+01
1.670000e-06	-3.820245e-07	-1.166185e-09	-2.875853e+00	-7.929050e+01
1.680000e-06	-3.601170e-07	-1.137383e-09	-2.710935e+00	-7.744928e+01
1.690000e-06	-3.381089e-07	-1.111188e-09	-2.545260e+00	-7.558088e+01
1.700000e-06	-3.159600e-07	-1.085248e-09	-2.378524e+00	-7.368510e+01
1.710000e-06	-2.938085e-07	-1.056474e-09	-2.211770e+00	-7.176179e+01
1.720000e-06	-2.716987e-07	-1.027737e-09	-2.045328e+00	-6.981085e+01
1.730000e-06	-2.496066e-07	-9.999861e-10	-1.879021e+00	-6.783220e+01
1.740000e-06	-2.275625e-07	-9.709908e-10	-1.713074e+00	-6.582581e+01
1.750000e-06	-2.054915e-07	-9.409387e-10	-1.546925e+00	-6.379169e+01
1.760000e-06	-1.833571e-07	-9.111177e-10	-1.380299e+00	-6.172991e+01
1.770000e-06	-1.612654e-07	-8.811987e-10	-1.213995e+00	-5.964057e+01
1.780000e-06	-1.391856e-07	-8.514599e-10	-1.047779e+00	-5.752386e+01
1.790000e-06	-1.170281e-07	-8.218275e-10	-8.809789e-01	-5.537998e+01
1.800000e-06	-9.486716e-08	-7.916728e-10	-7.141532e-01	-5.320922e+01
1.810000e-06	-7.278820e-08	-7.613585e-10	-5.479443e-01	-5.101192e+01
1.820000e-06	-5.066728e-08	-7.295715e-10	-3.814197e-01	-4.878848e+01
1.830000e-06	-2.849155e-08	-6.964412e-10	-2.144823e-01	-4.653936e+01
1.840000e-06	-6.378832e-09	-6.630686e-10	-4.801939e-02	-4.426508e+01
1.850000e-06	1.576434e-08	-6.306439e-10	1.186728e-01	-4.196623e+01
1.860000e-06	3.793801e-08	-5.961960e-10	2.855946e-01	-3.964346e+01
1.870000e-06	5.999919e-08	-5.584614e-10	4.516696e-01	-3.729749e+01
1.880000e-06	8.211631e-08	-5.227099e-10	6.181657e-01	-3.492908e+01
1.890000e-06	1.043554e-07	-4.892345e-10	7.855801e-01	-3.253908e+01
1.900000e-06	1.264914e-07	-4.541898e-10	9.522180e-01	-3.012839e+01
1.910000e-06	1.485611e-07	-4.189693e-10	1.118357e+00	-2.769796e+01
1.920000e-06	1.706867e-07	-3.859103e-10	1.284917e+00	-2.524880e+01
1.930000e-06	1.928500e-07	-3.520014e-10	1.451761e+00	-2.278199e+01
1.940000e-06	2.149803e-07	-3.152413e-10	1.618356e+00	-2.029864e+01
1.950000e-06	2.371007e-07	-2.776907e-10	1.784877e+00	-1.779993e+01
1.960000e-06	2.591838e-07	-2.401417e-10	1.951117e+00	-1.528707e+01
1.970000e-06	2.811723e-07	-2.034688e-10	2.116645e+00	-1.276131e+01
1.980000e-06	3.031594e-07	-1.665608e-10	2.282162e+00	-1.022396e+01
1.990000e-06	3.252044e-07	-1.282633e-10	2.448115e+00	-7.676359e+00
2.000000e-06	3.472256e-07	-9.041506e-11	2.613890e+00	-5.119861e+00
2.010000e-06	3.691948e-07	-5.418140e-11	2.779272e+00	-2.555863e+00
2.020000e-06	3.911274e-07	-1.764708e-11	2.944379e+00	1.421956e-02
2.030000e-06	4.130471e-07	2.050834e-11	3.109389e+00	2.588953e+00
2.040000e-06	4.349910e-07	6.039565e-11	3.274581e+00	5.166888e+00
2.050000e-06	4.568531e-07	1.000067e-10	3.439157e+00	7.746567e+00
2.060000e-06	4.786667e-07	1.378484e-10	3.603368e+00	1.032653e+01
2.070000e-06	5.004877e-07	1.770763e-10	3.767636e+00	1.290531e+01
2.080000e-06	5.222563e-07	2.178178e-10	3.931508e+00	1.548145e+01
2.090000e-06	5.439489e-07	2.562365e-10	4.094808e+00	1.805350e+01
2.100000e-06	5.656579e-07	2.930368e-10	4.258232e+00	2.062003e+01
2.110000e-06	5.874414e-07	3.305849e-10	4.422217e+00	2.317961e+01
2.120000e-06	6.091795e-07	3.693570e-10	4.585860e+00	2.573084e+01
2.130000e-06	6.308226e-07	4.078254e-10	4.748787e+00	2.827237e+01
2.140000e-06	6.524208e-07	4.436672e-10	4.911377e+00	3.080284e+01
2.150000e-06	6.739665e-07	4.783784e-10	5.073572e+00	3.332094e+01
2.160000e-06	6.954601e-07	5.144363e-10	5.235374e+00	3.582541e+01
2.170000e-06	7.168926e-07	5.522421e-10	5.396716e+00	3.831501e+01
2.180000e-06	7.382670e-07	5.880296e-10	5.557621e+00	4.078855e+01
2.190000e-06	7.596363e-07	6.223741e-10	5.718488e+00	4.324489e+01
2.200000e-06	7.809863e-07	6.567112e-10	5.879209e+00	4.568294e+01
2.210000e-06	8.022894e-07	6.914794e-10	6.039577e+00	4.810164e+01
2.220000e-06	8.234824e-07	7.252661e-10	6.199116e+00	5.050002e+01
2.230000e-06	8.446259e-07	7.580814e-10	6.358283e+00	5.287712e+01
2.240000e-06	8.657774e-07	7.905977e-10	6.517510e+00	5.523207e+01
2.250000e-06	8.868073e-07	8.239846e-10	6.675822e+00	5.756404e+01
2.260000e-06	9.076873e-07	8.590782e-10	6.833005e+00	5.987226e+01
2.270000e-06	9.284645e-07	8.931611e-10	6.989414e+00	6.215601e+01
2.280000e-06	9.491451e-07	9.251374e-10	7.145096e+00	6.441465e+01
2.290000e-06	9.697650e-07	9.559225e-10	7.300322e+00	6.664758e+01
2.300000e-06	9.903537e-07	9.861966e-10	7.455311e+00	6.885426e+01
2.310000e-06	1.010889e-06	1.016629e-09	7.609899e+00	7.103422e+01
2.320000e-06	1.031326e-06	1.047968e-09	7.763747e+00	7.318702e+01
2.330000e-06	1.051706e-06	1.078722e-09	7.917166e+00	7.531231e+01
2.340000e-06	1.072029e-06	1.108847e-09	8.070159e+00	7.740977e+01
2.350000e-06	1.092220e-06	1.138771e-09	8.222155e+00	7.947914e+01
2.360000e-06	1.112363e-06	1.169949e-09	8.373792e+00	8.152022e+01
2.370000e-06	1.132466e-06	1.202170e-09	8.525126e+00	8.353286e+01
2.380000e-06	1.152523e-06	1.233589e-09	8.676111e+00	8.551694e+01
2.390000e-06	1.172520e-06	1.262444e-09	8.826648e+00	8.747242e+01
2.400000e-06	1.192443e-06	1.290237e-09	8.976621e+00	8.939928e+01
2.410000e-06	1.212346e-06	1.319059e-09	9.126456e+00	9.129754e+01
2.420000e-06	1.232195e-06	1.346531e-09	9.275875e+00	9.316729e+01
2.430000e-06	1.251983e-06	1.372093e-09	9.424836e+00	9.500863e+01
2.440000e-06	1.271735e-06	1.399307e-09	9.573530e+00	9.682171e+01
2.450000e-06	1.291473e-06	1.426373e-09	9.722116e+00	9.860672e+01
2.460000e-06	1.311209e-06	1.453514e-09	9.870691e+00	1.003639e+02
2.470000e-06	1.330904e-06	1.480468e-09	1.001895e+01	1.020934e+02
2.480000e-06	1.350543e-06	1.504780e-09	1.016679e+01	1.037956e+02
2.490000e-06	1.370131e-06	1.529307e-09	1.031425e+01	1.054708e+02
2.500000e-06	1.389659e-06	1.554906e-09	1.046125e+01	1.071192e+02
2.510000e-06	1.409130e-06	1.579802e-09	1.060783e+01	1.087412e+02
2.520000e-06	1.428475e-06	1.603754e-09	1.075346e+01	1.103373e+02
2.530000e-06	1.447707e-06	1.629361e-09	1.089823e+01	1.119077e+02
2.540000e-06	1.466893e-06	1.654997e-09	1.104267e+01	1.134529e+02
2.550000e-06	1.485977e-06	1.678084e-09	1.118633e+01	1.149732e+02
2.560000e-06	1.504891e-06	1.700828e-09	1.132871e+01	1.164691e+02
2.570000e-06	1.523636e-06	1.725679e-09	1.146982e+01	1.179410e+02
2.580000e-06	1.542236e-06	1.752026e-09	1.160984e+01	1.193893e+02
2.590000e-06	1.560717e-06	1.775863e-09	1.174897e+01	1.208145e+02
2.600000e-06	1.579025e-06	1.796664e-09	1.188679e+01	1.222169e+02
2.610000e-06	1.597169e-06	1.817528e-09	1.202338e+01	1.235971e+02
2.620000e-06	1.615213e-06	1.838753e-09	1.215920e+01	1.249554e+02
2.630000e-06	1.633132e-06	1.859802e-09	1.229410e+01	1.262924e+02
2.640000e-06	1.650896e-06	1.879983e-09	1.242783e+01	1.276083e+02
2.650000e-06	1.668608e-06	1.900481e-09	1.256116e+01	1.289037e+02
2.660000e-06	1.686270e-06	1.923582e-09	1.269412e+01	1.301789e+02
2.670000e-06	1.703776e-06	1.945330e-09	1.282591e+01	1.314343e+02
2.680000e-06	1.721191e-06	1.962958e-09	1.295700e+01	1.326704e+02
2.690000e-06	1.738542e-06	1.982507e-09	1.308762e+01	1.338875e+02
2.700000e-06	1.755848e-06	2.005882e-09	1.321790e+01	1.350859e+02
2.710000e-06	1.773112e-06	2.027085e-09	1.334786e+01	1.362661e+02
2.720000e-06	1.790309e-06	2.043361e-09	1.347732e+01	1.374284e+02
2.730000e-06	1.807470e-06	2.059110e-09	1.360650e+01	1.385730e+02
2.740000e-06	1.824593e-06	2.077409e-09	1.373541e+01	1.397003e+02
2.750000e-06	1.841497e-06	2.096001e-09	1.386266e+01	1.408106e+02
2.760000e-06	1.858298e-06	2.113695e-09	1.398913e+01	1.419042e+02
2.770000e-06	1.875034e-06	2.131040e-09	1.411512e+01	1.429812e+02
2.780000e-06	1.891518e-06	2.148836e-09	1.423921e+01	1.440420e+02
2.790000e-06	1.907875e-06	2.168506e-09	1.436235e+01	1.450867e+02
2.800000e-06	1.924090e-06	2.186958e-09	1.448441e+01	1.461156e+02
2.810000e-06	1.940101e-06	2.200962e-09	1.460494e+01	1.471288e+02
2.820000e-06	1.955929e-06	2.214872e-09	1.472409e+01	1.481264e+02
2.830000e-06	1.971518e-06	2.230838e-09	1.484144e+01	1.491087e+02
2.840000e-06	1.986787e-06	2.245573e-09	1.495639e+01	1.500757e+02
2.850000e-06	2.001808e-06	2.260121e-09	1.506947e+01	1.510276e+02
2.860000e-06	2.016668e-06	2.276321e-09	1.518133e+01	1.519643e+02
2.870000e-06	2.031268e-06	2.293046e-09	1.529124e+01	1.528861e+02
2.880000e-06	2.045625e-06	2.307983e-09	1.539932e+01	1.537929e+02
2.890000e-06	2.059844e-06	2.320749e-09	1.550635e+01	1.546848e+02
2.900000e-06	2.073985e-06	2.333446e-09	1.561281e+01	1.555618e+02
