# Temperatura_=_20.0
# Concentracion g/m^3_=_9000.0
# C_Vs_to_Am_M_A/Vsm_=_65563218390.804596
# pendiente_HvsI_1/m_=_3716.3
# ordenada_HvsI_A/m_=_1297.0
# frecuencia_Hz_=_134987.46511369498

Tiempo_(s)	Campo_(V.s)	Magnetizacion_(V.s)	Campo_(kA/m)	Magnetizacion_(A/m)
0.000000e+00	-2.642973e-06	-2.825911e-09	-1.986083e+01	-1.861789e+02
1.000000e-08	-2.643294e-06	-2.820585e-09	-1.986325e+01	-1.861982e+02
2.000000e-08	-2.643475e-06	-2.822352e-09	-1.986460e+01	-1.862065e+02
3.000000e-08	-2.643502e-06	-2.842665e-09	-1.986481e+01	-1.862037e+02
4.000000e-08	-2.643427e-06	-2.874088e-09	-1.986425e+01	-1.861899e+02
5.000000e-08	-2.643238e-06	-2.881878e-09	-1.986283e+01	-1.861653e+02
6.000000e-08	-2.642812e-06	-2.819877e-09	-1.985963e+01	-1.861299e+02
7.000000e-08	-2.642069e-06	-2.789815e-09	-1.985405e+01	-1.860841e+02
8.000000e-08	-2.641118e-06	-2.820236e-09	-1.984689e+01	-1.860279e+02
9.000000e-08	-2.640079e-06	-2.840643e-09	-1.983909e+01	-1.859616e+02
1.000000e-07	-2.638846e-06	-2.862475e-09	-1.982983e+01	-1.858855e+02
1.100000e-07	-2.637358e-06	-2.869635e-09	-1.981864e+01	-1.857999e+02
1.200000e-07	-2.635579e-06	-2.832681e-09	-1.980528e+01	-1.857051e+02
1.300000e-07	-2.633481e-06	-2.844930e-09	-1.978951e+01	-1.856014e+02
1.400000e-07	-2.631009e-06	-2.853081e-09	-1.977093e+01	-1.854892e+02
1.500000e-07	-2.628073e-06	-2.792593e-09	-1.974887e+01	-1.853689e+02
1.600000e-07	-2.624861e-06	-2.775061e-09	-1.972473e+01	-1.852408e+02
1.700000e-07	-2.621527e-06	-2.870143e-09	-1.969968e+01	-1.851053e+02
1.800000e-07	-2.618086e-06	-2.872662e-09	-1.967382e+01	-1.849629e+02
1.900000e-07	-2.614497e-06	-2.810417e-09	-1.964685e+01	-1.848140e+02
2.000000e-07	-2.610721e-06	-2.764447e-09	-1.961848e+01	-1.846590e+02
2.100000e-07	-2.606805e-06	-2.803302e-09	-1.958905e+01	-1.844983e+02
2.200000e-07	-2.602871e-06	-2.831404e-09	-1.955948e+01	-1.843322e+02
2.300000e-07	-2.598902e-06	-2.808462e-09	-1.952966e+01	-1.841613e+02
2.400000e-07	-2.594782e-06	-2.741914e-09	-1.949870e+01	-1.839859e+02
2.500000e-07	-2.590489e-06	-2.744500e-09	-1.946644e+01	-1.838063e+02
2.600000e-07	-2.585995e-06	-2.805735e-09	-1.943267e+01	-1.836229e+02
2.700000e-07	-2.581296e-06	-2.806019e-09	-1.939736e+01	-1.834360e+02
2.800000e-07	-2.576353e-06	-2.758607e-09	-1.936021e+01	-1.832460e+02
2.900000e-07	-2.571251e-06	-2.705813e-09	-1.932187e+01	-1.830531e+02
3.000000e-07	-2.566112e-06	-2.760433e-09	-1.928326e+01	-1.828575e+02
3.100000e-07	-2.560764e-06	-2.809198e-09	-1.924307e+01	-1.826595e+02
3.200000e-07	-2.555190e-06	-2.783395e-09	-1.920119e+01	-1.824592e+02
3.300000e-07	-2.549445e-06	-2.691993e-09	-1.915801e+01	-1.822568e+02
3.400000e-07	-2.543480e-06	-2.736298e-09	-1.911319e+01	-1.820524e+02
3.500000e-07	-2.537371e-06	-2.813313e-09	-1.906728e+01	-1.818460e+02
3.600000e-07	-2.531138e-06	-2.795942e-09	-1.902044e+01	-1.816376e+02
3.700000e-07	-2.524676e-06	-2.699576e-09	-1.897188e+01	-1.814274e+02
3.800000e-07	-2.517919e-06	-2.713618e-09	-1.892110e+01	-1.812151e+02
3.900000e-07	-2.510934e-06	-2.782942e-09	-1.886862e+01	-1.810008e+02
4.000000e-07	-2.503854e-06	-2.787278e-09	-1.881542e+01	-1.807842e+02
4.100000e-07	-2.496720e-06	-2.718274e-09	-1.876180e+01	-1.805653e+02
4.200000e-07	-2.489423e-06	-2.697625e-09	-1.870697e+01	-1.803438e+02
4.300000e-07	-2.481940e-06	-2.739685e-09	-1.865074e+01	-1.801196e+02
4.400000e-07	-2.474291e-06	-2.766790e-09	-1.859326e+01	-1.798923e+02
4.500000e-07	-2.466511e-06	-2.733516e-09	-1.853480e+01	-1.796617e+02
4.600000e-07	-2.458682e-06	-2.688307e-09	-1.847597e+01	-1.794275e+02
4.700000e-07	-2.450790e-06	-2.699022e-09	-1.841666e+01	-1.791894e+02
4.800000e-07	-2.442798e-06	-2.733732e-09	-1.835660e+01	-1.789470e+02
4.900000e-07	-2.434706e-06	-2.731031e-09	-1.829580e+01	-1.787000e+02
5.000000e-07	-2.426460e-06	-2.683968e-09	-1.823383e+01	-1.784479e+02
5.100000e-07	-2.418029e-06	-2.671279e-09	-1.817048e+01	-1.781906e+02
5.200000e-07	-2.409352e-06	-2.699062e-09	-1.810527e+01	-1.779275e+02
5.300000e-07	-2.400371e-06	-2.718260e-09	-1.803779e+01	-1.776583e+02
5.400000e-07	-2.391064e-06	-2.685612e-09	-1.796785e+01	-1.773827e+02
5.500000e-07	-2.381497e-06	-2.657055e-09	-1.789595e+01	-1.771002e+02
5.600000e-07	-2.371677e-06	-2.664830e-09	-1.782216e+01	-1.768106e+02
5.700000e-07	-2.361545e-06	-2.694023e-09	-1.774602e+01	-1.765135e+02
5.800000e-07	-2.351141e-06	-2.685558e-09	-1.766784e+01	-1.762086e+02
5.900000e-07	-2.340447e-06	-2.653649e-09	-1.758748e+01	-1.758957e+02
6.000000e-07	-2.329499e-06	-2.641089e-09	-1.750521e+01	-1.755744e+02
6.100000e-07	-2.318379e-06	-2.665448e-09	-1.742165e+01	-1.752445e+02
6.200000e-07	-2.307023e-06	-2.666935e-09	-1.733631e+01	-1.749058e+02
6.300000e-07	-2.295442e-06	-2.635044e-09	-1.724928e+01	-1.745582e+02
6.400000e-07	-2.283765e-06	-2.614015e-09	-1.716154e+01	-1.742014e+02
6.500000e-07	-2.271981e-06	-2.631800e-09	-1.707298e+01	-1.738354e+02
6.600000e-07	-2.260013e-06	-2.638051e-09	-1.698305e+01	-1.734601e+02
6.700000e-07	-2.247923e-06	-2.613649e-09	-1.689220e+01	-1.730755e+02
6.800000e-07	-2.235731e-06	-2.594006e-09	-1.680058e+01	-1.726814e+02
6.900000e-07	-2.223396e-06	-2.601710e-09	-1.670789e+01	-1.722780e+02
7.000000e-07	-2.210892e-06	-2.602517e-09	-1.661393e+01	-1.718652e+02
7.100000e-07	-2.198153e-06	-2.586607e-09	-1.651820e+01	-1.714432e+02
7.200000e-07	-2.185202e-06	-2.573345e-09	-1.642088e+01	-1.710120e+02
7.300000e-07	-2.172048e-06	-2.566752e-09	-1.632203e+01	-1.705718e+02
7.400000e-07	-2.158693e-06	-2.558586e-09	-1.622167e+01	-1.701228e+02
7.500000e-07	-2.145234e-06	-2.554187e-09	-1.612054e+01	-1.696650e+02
7.600000e-07	-2.131617e-06	-2.549319e-09	-1.601821e+01	-1.691986e+02
7.700000e-07	-2.117847e-06	-2.532677e-09	-1.591473e+01	-1.687240e+02
7.800000e-07	-2.103947e-06	-2.524639e-09	-1.581028e+01	-1.682412e+02
7.900000e-07	-2.089816e-06	-2.530801e-09	-1.570409e+01	-1.677506e+02
8.000000e-07	-2.075527e-06	-2.523633e-09	-1.559672e+01	-1.672522e+02
8.100000e-07	-2.061034e-06	-2.497041e-09	-1.548781e+01	-1.667464e+02
8.200000e-07	-2.046307e-06	-2.490356e-09	-1.537714e+01	-1.662334e+02
8.300000e-07	-2.031356e-06	-2.497870e-09	-1.526479e+01	-1.657133e+02
8.400000e-07	-2.016237e-06	-2.487661e-09	-1.515118e+01	-1.651864e+02
8.500000e-07	-2.000999e-06	-2.464521e-09	-1.503667e+01	-1.646528e+02
8.600000e-07	-1.985546e-06	-2.461637e-09	-1.492055e+01	-1.641128e+02
8.700000e-07	-1.969859e-06	-2.463446e-09	-1.480267e+01	-1.635664e+02
8.800000e-07	-1.953966e-06	-2.451657e-09	-1.468323e+01	-1.630139e+02
8.900000e-07	-1.937762e-06	-2.435623e-09	-1.456147e+01	-1.624552e+02
9.000000e-07	-1.921397e-06	-2.427928e-09	-1.443849e+01	-1.618904e+02
9.100000e-07	-1.904962e-06	-2.418516e-09	-1.431499e+01	-1.613197e+02
9.200000e-07	-1.888294e-06	-2.410166e-09	-1.418974e+01	-1.607429e+02
9.300000e-07	-1.871496e-06	-2.403565e-09	-1.406351e+01	-1.601601e+02
9.400000e-07	-1.854632e-06	-2.393357e-09	-1.393678e+01	-1.595712e+02
9.500000e-07	-1.837649e-06	-2.382212e-09	-1.380916e+01	-1.589760e+02
9.600000e-07	-1.820524e-06	-2.377986e-09	-1.368048e+01	-1.583746e+02
9.700000e-07	-1.803297e-06	-2.369359e-09	-1.355102e+01	-1.577665e+02
9.800000e-07	-1.786051e-06	-2.351898e-09	-1.342143e+01	-1.571518e+02
9.900000e-07	-1.768765e-06	-2.337419e-09	-1.329153e+01	-1.565300e+02
1.000000e-06	-1.751352e-06	-2.333817e-09	-1.316067e+01	-1.559011e+02
1.010000e-06	-1.733814e-06	-2.328367e-09	-1.302888e+01	-1.552645e+02
1.020000e-06	-1.716195e-06	-2.311469e-09	-1.289649e+01	-1.546200e+02
1.030000e-06	-1.698499e-06	-2.295907e-09	-1.276351e+01	-1.539673e+02
1.040000e-06	-1.680717e-06	-2.288757e-09	-1.262988e+01	-1.533059e+02
1.050000e-06	-1.662791e-06	-2.282189e-09	-1.249518e+01	-1.526355e+02
1.060000e-06	-1.644709e-06	-2.268436e-09	-1.235930e+01	-1.519556e+02
1.070000e-06	-1.626555e-06	-2.254249e-09	-1.222288e+01	-1.512657e+02
1.080000e-06	-1.608345e-06	-2.243145e-09	-1.208604e+01	-1.505654e+02
1.090000e-06	-1.590054e-06	-2.234293e-09	-1.194859e+01	-1.498543e+02
1.100000e-06	-1.571615e-06	-2.223703e-09	-1.181003e+01	-1.491318e+02
1.110000e-06	-1.553009e-06	-2.210941e-09	-1.167022e+01	-1.483976e+02
1.120000e-06	-1.534232e-06	-2.195788e-09	-1.152911e+01	-1.476511e+02
1.130000e-06	-1.515306e-06	-2.182586e-09	-1.138689e+01	-1.468919e+02
1.140000e-06	-1.496208e-06	-2.171721e-09	-1.124337e+01	-1.461195e+02
1.150000e-06	-1.477002e-06	-2.162259e-09	-1.109905e+01	-1.453335e+02
1.160000e-06	-1.457779e-06	-2.148520e-09	-1.095460e+01	-1.445335e+02
1.170000e-06	-1.438410e-06	-2.134137e-09	-1.080905e+01	-1.437191e+02
1.180000e-06	-1.418933e-06	-2.122147e-09	-1.066269e+01	-1.428898e+02
1.190000e-06	-1.399433e-06	-2.109732e-09	-1.051616e+01	-1.420454e+02
1.200000e-06	-1.379844e-06	-2.091822e-09	-1.036895e+01	-1.411854e+02
1.210000e-06	-1.360195e-06	-2.075046e-09	-1.022130e+01	-1.403096e+02
1.220000e-06	-1.340490e-06	-2.063083e-09	-1.007322e+01	-1.394178e+02
1.230000e-06	-1.320735e-06	-2.050151e-09	-9.924768e+00	-1.385095e+02
1.240000e-06	-1.300997e-06	-2.034997e-09	-9.776446e+00	-1.375847e+02
1.250000e-06	-1.281247e-06	-2.021056e-09	-9.628039e+00	-1.366431e+02
1.260000e-06	-1.261412e-06	-2.008449e-09	-9.478981e+00	-1.356846e+02
1.270000e-06	-1.241537e-06	-1.995172e-09	-9.329632e+00	-1.347090e+02
1.280000e-06	-1.221692e-06	-1.980443e-09	-9.180507e+00	-1.337161e+02
1.290000e-06	-1.201814e-06	-1.963998e-09	-9.031133e+00	-1.327060e+02
1.300000e-06	-1.181879e-06	-1.947093e-09	-8.881330e+00	-1.316785e+02
1.310000e-06	-1.161894e-06	-1.931999e-09	-8.731147e+00	-1.306336e+02
1.320000e-06	-1.141833e-06	-1.918497e-09	-8.580399e+00	-1.295713e+02
1.330000e-06	-1.121633e-06	-1.900896e-09	-8.428600e+00	-1.284915e+02
1.340000e-06	-1.101347e-06	-1.882137e-09	-8.276165e+00	-1.273943e+02
1.350000e-06	-1.081089e-06	-1.865493e-09	-8.123931e+00	-1.262796e+02
1.360000e-06	-1.060801e-06	-1.849760e-09	-7.971476e+00	-1.251474e+02
1.370000e-06	-1.040389e-06	-1.832128e-09	-7.818089e+00	-1.239978e+02
1.380000e-06	-1.019801e-06	-1.813628e-09	-7.663379e+00	-1.228308e+02
1.390000e-06	-9.991479e-07	-1.795915e-09	-7.508178e+00	-1.216463e+02
1.400000e-06	-9.784566e-07	-1.780974e-09	-7.352692e+00	-1.204444e+02
1.410000e-06	-9.577124e-07	-1.764242e-09	-7.196808e+00	-1.192250e+02
1.420000e-06	-9.368553e-07	-1.745879e-09	-7.040076e+00	-1.179881e+02
1.430000e-06	-9.158550e-07	-1.728993e-09	-6.882267e+00	-1.167336e+02
1.440000e-06	-8.948692e-07	-1.709986e-09	-6.724568e+00	-1.154615e+02
1.450000e-06	-8.738440e-07	-1.688239e-09	-6.566572e+00	-1.141716e+02
1.460000e-06	-8.526625e-07	-1.668092e-09	-6.407402e+00	-1.128637e+02
1.470000e-06	-8.313361e-07	-1.648956e-09	-6.247143e+00	-1.115378e+02
1.480000e-06	-8.099854e-07	-1.629277e-09	-6.086701e+00	-1.101936e+02
1.490000e-06	-7.886227e-07	-1.610562e-09	-5.926169e+00	-1.088308e+02
1.500000e-06	-7.672097e-07	-1.592762e-09	-5.765259e+00	-1.074492e+02
1.510000e-06	-7.457668e-07	-1.572557e-09	-5.604125e+00	-1.060485e+02
1.520000e-06	-7.242289e-07	-1.550906e-09	-5.442277e+00	-1.046283e+02
1.530000e-06	-7.026526e-07	-1.530089e-09	-5.280140e+00	-1.031883e+02
1.540000e-06	-6.810204e-07	-1.509076e-09	-5.117583e+00	-1.017280e+02
1.550000e-06	-6.593107e-07	-1.485686e-09	-4.954444e+00	-1.002470e+02
1.560000e-06	-6.376010e-07	-1.461311e-09	-4.791305e+00	-9.874474e+01
1.570000e-06	-6.158849e-07	-1.435900e-09	-4.628117e+00	-9.722083e+01
1.580000e-06	-5.941796e-07	-1.410445e-09	-4.465011e+00	-9.567470e+01
1.590000e-06	-5.724125e-07	-1.386717e-09	-4.301440e+00	-9.410578e+01
1.600000e-06	-5.505923e-07	-1.363677e-09	-4.137471e+00	-9.251351e+01
1.610000e-06	-5.287909e-07	-1.338877e-09	-3.973642e+00	-9.089731e+01
1.620000e-06	-5.069780e-07	-1.312964e-09	-3.809728e+00	-8.925659e+01
1.630000e-06	-4.851120e-07	-1.287505e-09	-3.645413e+00	-8.759076e+01
1.640000e-06	-4.631920e-07	-1.260011e-09	-3.480694e+00	-8.589922e+01
1.650000e-06	-4.412536e-07	-1.234036e-09	-3.315836e+00	-8.418140e+01
1.660000e-06	-4.193165e-07	-1.208097e-09	-3.150988e+00	-8.243672e+01
1.670000e-06	-3.973088e-07	-1.179581e-09	-2.985609e+00	-8.066464e+01
1.680000e-06	-3.753314e-07	-1.150802e-09	-2.820459e+00	-7.886464e+01
1.690000e-06	-3.533709e-07	-1.123322e-09	-2.655435e+00	-7.703622e+01
1.700000e-06	-3.312953e-07	-1.096724e-09	-2.489545e+00	-7.517894e+01
1.710000e-06	-3.091986e-07	-1.068659e-09	-2.323498e+00	-7.329238e+01
1.720000e-06	-2.870915e-07	-1.037973e-09	-2.157372e+00	-7.137620e+01
1.730000e-06	-2.649449e-07	-1.008070e-09	-1.990950e+00	-6.943008e+01
1.740000e-06	-2.427007e-07	-9.787699e-10	-1.823794e+00	-6.745379e+01
1.750000e-06	-2.204501e-07	-9.494082e-10	-1.656590e+00	-6.544717e+01
1.760000e-06	-1.982655e-07	-9.183860e-10	-1.489882e+00	-6.341009e+01
1.770000e-06	-1.760527e-07	-8.856261e-10	-1.322962e+00	-6.134255e+01
1.780000e-06	-1.539052e-07	-8.552204e-10	-1.156533e+00	-5.924459e+01
1.790000e-06	-1.317854e-07	-8.255779e-10	-9.903121e-01	-5.711636e+01
1.800000e-06	-1.096323e-07	-7.939192e-10	-8.238406e-01	-5.495807e+01
1.810000e-06	-8.750315e-08	-7.614960e-10	-6.575496e-01	-5.277004e+01
1.820000e-06	-6.540241e-08	-7.297746e-10	-4.914718e-01	-5.055267e+01
1.830000e-06	-4.325645e-08	-6.970465e-10	-3.250542e-01	-4.830646e+01
1.840000e-06	-2.100153e-08	-6.635111e-10	-1.578177e-01	-4.603198e+01
1.850000e-06	1.239604e-09	-6.302044e-10	9.315103e-03	-4.372994e+01
1.860000e-06	2.338453e-08	-5.975996e-10	1.757250e-01	-4.140108e+01
1.870000e-06	4.548852e-08	-5.640495e-10	3.418272e-01	-3.904628e+01
1.880000e-06	6.758552e-08	-5.294086e-10	5.078769e-01	-3.666649e+01
1.890000e-06	8.974202e-08	-4.955957e-10	6.743737e-01	-3.426273e+01
1.900000e-06	1.119388e-07	-4.611793e-10	8.411734e-01	-3.183614e+01
1.910000e-06	1.340655e-07	-4.265609e-10	1.007446e+00	-2.938790e+01
1.920000e-06	1.561310e-07	-3.938993e-10	1.173259e+00	-2.691929e+01
1.930000e-06	1.781823e-07	-3.602354e-10	1.338965e+00	-2.443165e+01
1.940000e-06	2.002574e-07	-3.241924e-10	1.504850e+00	-2.192640e+01
1.950000e-06	2.223099e-07	-2.873181e-10	1.670566e+00	-1.940498e+01
1.960000e-06	2.443432e-07	-2.507214e-10	1.836137e+00	-1.686894e+01
1.970000e-06	2.663994e-07	-2.146510e-10	2.001880e+00	-1.431982e+01
1.980000e-06	2.884843e-07	-1.782697e-10	2.167839e+00	-1.175925e+01
1.990000e-06	3.105964e-07	-1.411281e-10	2.334002e+00	-9.188862e+00
2.000000e-06	3.326738e-07	-1.021621e-10	2.499905e+00	-6.610318e+00
2.010000e-06	3.547007e-07	-6.408020e-11	2.665428e+00	-4.025309e+00
2.020000e-06	3.766544e-07	-2.715361e-11	2.830400e+00	-1.435531e+00
2.030000e-06	3.985308e-07	1.096621e-11	2.994792e+00	1.157313e+00
2.040000e-06	4.203712e-07	5.082136e-11	3.158913e+00	3.751523e+00
2.050000e-06	4.422230e-07	9.259408e-11	3.323121e+00	6.345408e+00
2.060000e-06	4.641024e-07	1.322718e-10	3.487535e+00	8.937293e+00
2.070000e-06	4.859135e-07	1.680773e-10	3.651437e+00	1.152553e+01
2.080000e-06	5.077059e-07	2.060925e-10	3.815197e+00	1.410849e+01
2.090000e-06	5.295075e-07	2.462252e-10	3.979027e+00	1.668460e+01
2.100000e-06	5.512775e-07	2.834902e-10	4.142620e+00	1.925231e+01
2.110000e-06	5.730571e-07	3.187810e-10	4.306284e+00	2.181012e+01
2.120000e-06	5.948243e-07	3.551368e-10	4.469856e+00	2.435659e+01
2.130000e-06	6.165644e-07	3.911831e-10	4.633223e+00	2.689032e+01
2.140000e-06	6.382362e-07	4.269659e-10	4.796078e+00	2.941000e+01
2.150000e-06	6.598120e-07	4.632593e-10	4.958211e+00	3.191435e+01
2.160000e-06	6.813835e-07	4.985213e-10	5.120311e+00	3.440217e+01
2.170000e-06	7.029629e-07	5.332271e-10	5.282472e+00	3.687234e+01
2.180000e-06	7.244459e-07	5.681251e-10	5.443908e+00	3.932381e+01
2.190000e-06	7.458801e-07	6.036651e-10	5.604977e+00	4.175558e+01
2.200000e-06	7.672923e-07	6.377714e-10	5.765881e+00	4.416675e+01
2.210000e-06	7.885654e-07	6.699435e-10	5.925739e+00	4.655649e+01
2.220000e-06	8.097142e-07	7.032421e-10	6.084663e+00	4.892402e+01
2.230000e-06	8.308843e-07	7.381699e-10	6.243748e+00	5.126866e+01
2.240000e-06	8.521016e-07	7.714686e-10	6.403187e+00	5.358980e+01
2.250000e-06	8.732156e-07	8.036494e-10	6.561850e+00	5.588689e+01
2.260000e-06	8.941867e-07	8.375918e-10	6.719439e+00	5.815946e+01
2.270000e-06	9.151110e-07	8.728542e-10	6.876676e+00	6.040709e+01
2.280000e-06	9.360010e-07	9.070491e-10	7.033655e+00	6.262945e+01
2.290000e-06	9.567984e-07	9.377594e-10	7.189939e+00	6.482624e+01
2.300000e-06	9.774701e-07	9.676632e-10	7.345279e+00	6.699725e+01
2.310000e-06	9.980204e-07	1.000437e-09	7.499706e+00	6.914229e+01
2.320000e-06	1.018491e-06	1.034013e-09	7.653534e+00	7.126127e+01
2.330000e-06	1.038943e-06	1.066476e-09	7.807224e+00	7.335410e+01
2.340000e-06	1.059236e-06	1.094251e-09	7.959715e+00	7.542075e+01
2.350000e-06	1.079445e-06	1.121708e-09	8.111581e+00	7.746124e+01
2.360000e-06	1.099670e-06	1.153674e-09	8.263562e+00	7.947561e+01
2.370000e-06	1.119774e-06	1.185199e-09	8.414630e+00	8.146395e+01
2.380000e-06	1.139829e-06	1.213038e-09	8.565336e+00	8.342637e+01
2.390000e-06	1.159801e-06	1.241542e-09	8.715416e+00	8.536299e+01
2.400000e-06	1.179696e-06	1.272192e-09	8.864925e+00	8.727397e+01
2.410000e-06	1.199575e-06	1.302587e-09	9.014306e+00	8.915948e+01
2.420000e-06	1.219402e-06	1.329984e-09	9.163296e+00	9.101971e+01
2.430000e-06	1.239219e-06	1.356008e-09	9.312209e+00	9.285485e+01
2.440000e-06	1.259024e-06	1.384066e-09	9.461040e+00	9.466510e+01
2.450000e-06	1.278805e-06	1.411051e-09	9.609684e+00	9.645068e+01
2.460000e-06	1.298560e-06	1.435860e-09	9.758132e+00	9.821180e+01
2.470000e-06	1.318281e-06	1.460716e-09	9.906332e+00	9.994867e+01
2.480000e-06	1.337983e-06	1.487489e-09	1.005438e+01	1.016615e+02
2.490000e-06	1.357643e-06	1.514389e-09	1.020212e+01	1.033505e+02
2.500000e-06	1.377249e-06	1.541714e-09	1.034945e+01	1.050159e+02
2.510000e-06	1.396819e-06	1.568259e-09	1.049651e+01	1.066578e+02
2.520000e-06	1.416336e-06	1.593592e-09	1.064317e+01	1.082765e+02
2.530000e-06	1.435720e-06	1.619927e-09	1.078883e+01	1.098722e+02
2.540000e-06	1.454972e-06	1.646831e-09	1.093351e+01	1.114450e+02
2.550000e-06	1.474165e-06	1.670527e-09	1.107773e+01	1.129952e+02
2.560000e-06	1.493242e-06	1.691486e-09	1.122109e+01	1.145228e+02
2.570000e-06	1.512189e-06	1.712844e-09	1.136347e+01	1.160280e+02
2.580000e-06	1.530969e-06	1.738359e-09	1.150459e+01	1.175111e+02
2.590000e-06	1.549563e-06	1.765400e-09	1.164432e+01	1.189721e+02
2.600000e-06	1.568060e-06	1.787265e-09	1.178332e+01	1.204111e+02
2.610000e-06	1.586415e-06	1.806920e-09	1.192125e+01	1.218284e+02
2.620000e-06	1.604652e-06	1.828248e-09	1.205829e+01	1.232241e+02
2.630000e-06	1.622775e-06	1.850203e-09	1.219447e+01	1.245983e+02
2.640000e-06	1.640677e-06	1.871862e-09	1.232900e+01	1.259511e+02
2.650000e-06	1.658492e-06	1.891703e-09	1.246287e+01	1.272826e+02
2.660000e-06	1.676221e-06	1.911400e-09	1.259610e+01	1.285931e+02
2.670000e-06	1.693781e-06	1.931981e-09	1.272806e+01	1.298826e+02
2.680000e-06	1.711292e-06	1.950414e-09	1.285964e+01	1.311512e+02
2.690000e-06	1.728746e-06	1.966934e-09	1.299080e+01	1.323992e+02
2.700000e-06	1.746093e-06	1.985199e-09	1.312116e+01	1.336267e+02
2.710000e-06	1.763430e-06	2.005783e-09	1.325144e+01	1.348337e+02
2.720000e-06	1.780767e-06	2.024812e-09	1.338172e+01	1.360206e+02
2.730000e-06	1.797950e-06	2.042690e-09	1.351084e+01	1.371873e+02
2.740000e-06	1.814985e-06	2.061602e-09	1.363885e+01	1.383342e+02
2.750000e-06	1.831933e-06	2.080420e-09	1.376621e+01	1.394614e+02
2.760000e-06	1.848737e-06	2.096805e-09	1.389248e+01	1.405690e+02
2.770000e-06	1.865522e-06	2.111044e-09	1.401861e+01	1.416573e+02
2.780000e-06	1.882257e-06	2.126957e-09	1.414438e+01	1.427264e+02
2.790000e-06	1.898783e-06	2.145275e-09	1.426856e+01	1.437767e+02
2.800000e-06	1.915168e-06	2.163941e-09	1.439168e+01	1.448082e+02
2.810000e-06	1.931372e-06	2.179713e-09	1.451346e+01	1.458212e+02
2.820000e-06	1.947486e-06	2.194944e-09	1.463454e+01	1.468159e+02
2.830000e-06	1.963420e-06	2.213511e-09	1.475428e+01	1.477926e+02
2.840000e-06	1.979057e-06	2.229459e-09	1.487178e+01	1.487514e+02
2.850000e-06	1.994512e-06	2.239779e-09	1.498792e+01	1.496927e+02
2.860000e-06	2.009715e-06	2.252376e-09	1.510217e+01	1.506167e+02
2.870000e-06	2.024669e-06	2.270485e-09	1.521454e+01	1.515236e+02
2.880000e-06	2.039426e-06	2.286503e-09	1.532543e+01	1.524136e+02
2.890000e-06	2.053965e-06	2.298454e-09	1.543469e+01	1.532871e+02
2.900000e-06	2.068289e-06	2.310804e-09	1.554233e+01	1.541442e+02
