# Temperatura_=_20.0
# Concentracion g/m^3_=_9000.0
# C_Vs_to_Am_M_A/Vsm_=_65563218390.804596
# pendiente_HvsI_1/m_=_3716.3
# ordenada_HvsI_A/m_=_1297.0
# frecuencia_Hz_=_134987.85504342432

Tiempo_(s)	Campo_(V.s)	Magnetizacion_(V.s)	Campo_(kA/m)	Magnetizacion_(A/m)
0.000000e+00	-2.642596e-06	-2.877028e-09	-1.987169e+01	-1.851601e+02
1.000000e-08	-2.642745e-06	-2.892501e-09	-1.987280e+01	-1.851957e+02
2.000000e-08	-2.642686e-06	-2.879790e-09	-1.987236e+01	-1.852199e+02
3.000000e-08	-2.642549e-06	-2.833468e-09	-1.987133e+01	-1.852327e+02
4.000000e-08	-2.642316e-06	-2.696094e-09	-1.986958e+01	-1.852340e+02
5.000000e-08	-2.641930e-06	-2.581892e-09	-1.986668e+01	-1.852237e+02
6.000000e-08	-2.641311e-06	-2.621125e-09	-1.986202e+01	-1.852017e+02
7.000000e-08	-2.640399e-06	-2.797310e-09	-1.985517e+01	-1.851681e+02
8.000000e-08	-2.639326e-06	-2.999684e-09	-1.984710e+01	-1.851230e+02
9.000000e-08	-2.638085e-06	-3.060185e-09	-1.983776e+01	-1.850665e+02
1.000000e-07	-2.636546e-06	-2.955307e-09	-1.982619e+01	-1.849987e+02
1.100000e-07	-2.634674e-06	-2.843436e-09	-1.981211e+01	-1.849198e+02
1.200000e-07	-2.632543e-06	-2.793455e-09	-1.979609e+01	-1.848300e+02
1.300000e-07	-2.630209e-06	-2.811059e-09	-1.977854e+01	-1.847297e+02
1.400000e-07	-2.627556e-06	-2.782330e-09	-1.975859e+01	-1.846191e+02
1.500000e-07	-2.624624e-06	-2.772905e-09	-1.973654e+01	-1.844986e+02
1.600000e-07	-2.621539e-06	-2.827981e-09	-1.971334e+01	-1.843686e+02
1.700000e-07	-2.618171e-06	-2.829518e-09	-1.968801e+01	-1.842294e+02
1.800000e-07	-2.614510e-06	-2.737731e-09	-1.966049e+01	-1.840816e+02
1.900000e-07	-2.610740e-06	-2.673630e-09	-1.963214e+01	-1.839255e+02
2.000000e-07	-2.606916e-06	-2.736345e-09	-1.960338e+01	-1.837616e+02
2.100000e-07	-2.603018e-06	-2.808187e-09	-1.957407e+01	-1.835906e+02
2.200000e-07	-2.599025e-06	-2.814968e-09	-1.954405e+01	-1.834127e+02
2.300000e-07	-2.594875e-06	-2.732153e-09	-1.951284e+01	-1.832286e+02
2.400000e-07	-2.590551e-06	-2.723873e-09	-1.948032e+01	-1.830387e+02
2.500000e-07	-2.586073e-06	-2.790554e-09	-1.944665e+01	-1.828436e+02
2.600000e-07	-2.581489e-06	-2.843750e-09	-1.941218e+01	-1.826437e+02
2.700000e-07	-2.576785e-06	-2.752321e-09	-1.937680e+01	-1.824396e+02
2.800000e-07	-2.571846e-06	-2.666929e-09	-1.933966e+01	-1.822317e+02
2.900000e-07	-2.566675e-06	-2.692857e-09	-1.930078e+01	-1.820204e+02
3.000000e-07	-2.561353e-06	-2.799956e-09	-1.926076e+01	-1.818062e+02
3.100000e-07	-2.555828e-06	-2.792138e-09	-1.921921e+01	-1.815895e+02
3.200000e-07	-2.550131e-06	-2.694818e-09	-1.917637e+01	-1.813706e+02
3.300000e-07	-2.544289e-06	-2.687308e-09	-1.913244e+01	-1.811498e+02
3.400000e-07	-2.538259e-06	-2.774721e-09	-1.908710e+01	-1.809276e+02
3.500000e-07	-2.532009e-06	-2.791258e-09	-1.904010e+01	-1.807040e+02
3.600000e-07	-2.525472e-06	-2.697628e-09	-1.899094e+01	-1.804794e+02
3.700000e-07	-2.518758e-06	-2.660274e-09	-1.894045e+01	-1.802538e+02
3.800000e-07	-2.511981e-06	-2.707629e-09	-1.888949e+01	-1.800275e+02
3.900000e-07	-2.505029e-06	-2.755820e-09	-1.883721e+01	-1.798004e+02
4.000000e-07	-2.497825e-06	-2.721149e-09	-1.878304e+01	-1.795727e+02
4.100000e-07	-2.490508e-06	-2.689929e-09	-1.872802e+01	-1.793443e+02
4.200000e-07	-2.483072e-06	-2.704876e-09	-1.867210e+01	-1.791152e+02
4.300000e-07	-2.475496e-06	-2.758483e-09	-1.861514e+01	-1.788852e+02
4.400000e-07	-2.467806e-06	-2.753916e-09	-1.855731e+01	-1.786543e+02
4.500000e-07	-2.459969e-06	-2.712274e-09	-1.849838e+01	-1.784221e+02
4.600000e-07	-2.452024e-06	-2.684051e-09	-1.843863e+01	-1.781886e+02
4.700000e-07	-2.444013e-06	-2.710731e-09	-1.837839e+01	-1.779534e+02
4.800000e-07	-2.435897e-06	-2.718648e-09	-1.831736e+01	-1.777162e+02
4.900000e-07	-2.427552e-06	-2.686869e-09	-1.825461e+01	-1.774768e+02
5.000000e-07	-2.419012e-06	-2.647902e-09	-1.819039e+01	-1.772347e+02
5.100000e-07	-2.410318e-06	-2.665198e-09	-1.812501e+01	-1.769896e+02
5.200000e-07	-2.401450e-06	-2.700697e-09	-1.805832e+01	-1.767411e+02
5.300000e-07	-2.392304e-06	-2.698579e-09	-1.798955e+01	-1.764888e+02
5.400000e-07	-2.382859e-06	-2.662913e-09	-1.791852e+01	-1.762321e+02
5.500000e-07	-2.373212e-06	-2.656537e-09	-1.784598e+01	-1.759708e+02
5.600000e-07	-2.363220e-06	-2.685521e-09	-1.777085e+01	-1.757042e+02
5.700000e-07	-2.352880e-06	-2.695007e-09	-1.769309e+01	-1.754321e+02
5.800000e-07	-2.342220e-06	-2.661801e-09	-1.761293e+01	-1.751539e+02
5.900000e-07	-2.331262e-06	-2.636128e-09	-1.753053e+01	-1.748692e+02
6.000000e-07	-2.320079e-06	-2.656173e-09	-1.744644e+01	-1.745775e+02
6.100000e-07	-2.308727e-06	-2.669521e-09	-1.736107e+01	-1.742785e+02
6.200000e-07	-2.297255e-06	-2.642532e-09	-1.727480e+01	-1.739718e+02
6.300000e-07	-2.285572e-06	-2.611706e-09	-1.718695e+01	-1.736568e+02
6.400000e-07	-2.273712e-06	-2.620011e-09	-1.709777e+01	-1.733334e+02
6.500000e-07	-2.261719e-06	-2.632288e-09	-1.700758e+01	-1.730011e+02
6.600000e-07	-2.249550e-06	-2.624143e-09	-1.691607e+01	-1.726596e+02
6.700000e-07	-2.237308e-06	-2.604177e-09	-1.682402e+01	-1.723087e+02
6.800000e-07	-2.224995e-06	-2.599886e-09	-1.673143e+01	-1.719480e+02
6.900000e-07	-2.212440e-06	-2.597808e-09	-1.663701e+01	-1.715774e+02
7.000000e-07	-2.199646e-06	-2.596400e-09	-1.654081e+01	-1.711967e+02
7.100000e-07	-2.186717e-06	-2.586206e-09	-1.644359e+01	-1.708056e+02
7.200000e-07	-2.173644e-06	-2.571538e-09	-1.634528e+01	-1.704041e+02
7.300000e-07	-2.160409e-06	-2.560488e-09	-1.624575e+01	-1.699921e+02
7.400000e-07	-2.147031e-06	-2.566997e-09	-1.614515e+01	-1.695694e+02
7.500000e-07	-2.133514e-06	-2.565292e-09	-1.604351e+01	-1.691361e+02
7.600000e-07	-2.119769e-06	-2.545418e-09	-1.594015e+01	-1.686921e+02
7.700000e-07	-2.105803e-06	-2.527222e-09	-1.583513e+01	-1.682374e+02
7.800000e-07	-2.091676e-06	-2.530926e-09	-1.572890e+01	-1.677721e+02
7.900000e-07	-2.077397e-06	-2.527289e-09	-1.562152e+01	-1.672962e+02
8.000000e-07	-2.063015e-06	-2.504043e-09	-1.551337e+01	-1.668098e+02
8.100000e-07	-2.048411e-06	-2.488064e-09	-1.540356e+01	-1.663130e+02
8.200000e-07	-2.033580e-06	-2.490003e-09	-1.529203e+01	-1.658059e+02
8.300000e-07	-2.018588e-06	-2.483613e-09	-1.517929e+01	-1.652887e+02
8.400000e-07	-2.003364e-06	-2.465619e-09	-1.506481e+01	-1.647614e+02
8.500000e-07	-1.987833e-06	-2.455143e-09	-1.494802e+01	-1.642242e+02
8.600000e-07	-1.972044e-06	-2.450827e-09	-1.482930e+01	-1.636772e+02
8.700000e-07	-1.956008e-06	-2.444832e-09	-1.470871e+01	-1.631207e+02
8.800000e-07	-1.939845e-06	-2.435923e-09	-1.458717e+01	-1.625546e+02
8.900000e-07	-1.923637e-06	-2.425978e-09	-1.446529e+01	-1.619793e+02
9.000000e-07	-1.907285e-06	-2.412805e-09	-1.434232e+01	-1.613947e+02
9.100000e-07	-1.890730e-06	-2.405465e-09	-1.421783e+01	-1.608011e+02
9.200000e-07	-1.874023e-06	-2.399536e-09	-1.409221e+01	-1.601985e+02
9.300000e-07	-1.857186e-06	-2.386350e-09	-1.396559e+01	-1.595871e+02
9.400000e-07	-1.840225e-06	-2.369175e-09	-1.383805e+01	-1.589669e+02
9.500000e-07	-1.823227e-06	-2.361872e-09	-1.371023e+01	-1.583379e+02
9.600000e-07	-1.806126e-06	-2.355494e-09	-1.358163e+01	-1.577003e+02
9.700000e-07	-1.788840e-06	-2.342574e-09	-1.345165e+01	-1.570540e+02
9.800000e-07	-1.771453e-06	-2.328838e-09	-1.332090e+01	-1.563991e+02
9.900000e-07	-1.754078e-06	-2.323230e-09	-1.319024e+01	-1.557356e+02
1.000000e-06	-1.736581e-06	-2.316935e-09	-1.305867e+01	-1.550633e+02
1.010000e-06	-1.718915e-06	-2.304975e-09	-1.292582e+01	-1.543822e+02
1.020000e-06	-1.701176e-06	-2.291676e-09	-1.279243e+01	-1.536923e+02
1.030000e-06	-1.683389e-06	-2.283526e-09	-1.265868e+01	-1.529935e+02
1.040000e-06	-1.665533e-06	-2.274996e-09	-1.252441e+01	-1.522856e+02
1.050000e-06	-1.647579e-06	-2.265125e-09	-1.238940e+01	-1.515684e+02
1.060000e-06	-1.629420e-06	-2.252992e-09	-1.225285e+01	-1.508419e+02
1.070000e-06	-1.611147e-06	-2.239926e-09	-1.211544e+01	-1.501058e+02
1.080000e-06	-1.592813e-06	-2.229311e-09	-1.197757e+01	-1.493599e+02
1.090000e-06	-1.574282e-06	-2.221785e-09	-1.183822e+01	-1.486040e+02
1.100000e-06	-1.555622e-06	-2.212155e-09	-1.169790e+01	-1.478379e+02
1.110000e-06	-1.536884e-06	-2.198744e-09	-1.155699e+01	-1.470613e+02
1.120000e-06	-1.517999e-06	-2.185231e-09	-1.141499e+01	-1.462740e+02
1.130000e-06	-1.498994e-06	-2.175726e-09	-1.127208e+01	-1.454756e+02
1.140000e-06	-1.479934e-06	-2.166457e-09	-1.112875e+01	-1.446661e+02
1.150000e-06	-1.460772e-06	-2.151955e-09	-1.098465e+01	-1.438449e+02
1.160000e-06	-1.441448e-06	-2.137209e-09	-1.083934e+01	-1.430120e+02
1.170000e-06	-1.422010e-06	-2.125786e-09	-1.069317e+01	-1.421669e+02
1.180000e-06	-1.402535e-06	-2.114712e-09	-1.054673e+01	-1.413094e+02
1.190000e-06	-1.383042e-06	-2.099008e-09	-1.040015e+01	-1.404393e+02
1.200000e-06	-1.363478e-06	-2.082325e-09	-1.025302e+01	-1.395562e+02
1.210000e-06	-1.343798e-06	-2.069085e-09	-1.010504e+01	-1.386599e+02
1.220000e-06	-1.324073e-06	-2.057428e-09	-9.956709e+00	-1.377500e+02
1.230000e-06	-1.304337e-06	-2.041735e-09	-9.808297e+00	-1.368264e+02
1.240000e-06	-1.284574e-06	-2.025298e-09	-9.659684e+00	-1.358887e+02
1.250000e-06	-1.264787e-06	-2.010049e-09	-9.510896e+00	-1.349366e+02
1.260000e-06	-1.244977e-06	-1.995694e-09	-9.361924e+00	-1.339700e+02
1.270000e-06	-1.225082e-06	-1.979541e-09	-9.212321e+00	-1.329886e+02
1.280000e-06	-1.205086e-06	-1.962268e-09	-9.061955e+00	-1.319920e+02
1.290000e-06	-1.185102e-06	-1.944941e-09	-8.911683e+00	-1.309802e+02
1.300000e-06	-1.165148e-06	-1.930254e-09	-8.761634e+00	-1.299528e+02
1.310000e-06	-1.145121e-06	-1.915427e-09	-8.611036e+00	-1.289096e+02
1.320000e-06	-1.125072e-06	-1.899210e-09	-8.460269e+00	-1.278504e+02
1.330000e-06	-1.105034e-06	-1.880231e-09	-8.309592e+00	-1.267749e+02
1.340000e-06	-1.084942e-06	-1.864665e-09	-8.158502e+00	-1.256829e+02
1.350000e-06	-1.064708e-06	-1.850999e-09	-8.006346e+00	-1.245742e+02
1.360000e-06	-1.044338e-06	-1.834706e-09	-7.853173e+00	-1.234485e+02
1.370000e-06	-1.023873e-06	-1.815785e-09	-7.699277e+00	-1.223057e+02
1.380000e-06	-1.003388e-06	-1.796148e-09	-7.545236e+00	-1.211454e+02
1.390000e-06	-9.828721e-07	-1.779932e-09	-7.390962e+00	-1.199674e+02
1.400000e-06	-9.621883e-07	-1.763575e-09	-7.235424e+00	-1.187715e+02
1.410000e-06	-9.413763e-07	-1.744421e-09	-7.078923e+00	-1.175574e+02
1.420000e-06	-9.205104e-07	-1.725909e-09	-6.922016e+00	-1.163248e+02
1.430000e-06	-8.995462e-07	-1.710543e-09	-6.764371e+00	-1.150734e+02
1.440000e-06	-8.784693e-07	-1.692626e-09	-6.605877e+00	-1.138030e+02
1.450000e-06	-8.573352e-07	-1.671379e-09	-6.446954e+00	-1.125132e+02
1.460000e-06	-8.360924e-07	-1.650592e-09	-6.287213e+00	-1.112036e+02
1.470000e-06	-8.148002e-07	-1.633536e-09	-6.127101e+00	-1.098741e+02
1.480000e-06	-7.934918e-07	-1.615698e-09	-5.966868e+00	-1.085241e+02
1.490000e-06	-7.720746e-07	-1.593904e-09	-5.805815e+00	-1.071534e+02
1.500000e-06	-7.506335e-07	-1.568522e-09	-5.644583e+00	-1.057616e+02
1.510000e-06	-7.291478e-07	-1.545919e-09	-5.483016e+00	-1.043482e+02
1.520000e-06	-7.075870e-07	-1.528047e-09	-5.320884e+00	-1.029130e+02
1.530000e-06	-6.859969e-07	-1.507143e-09	-5.158532e+00	-1.014553e+02
1.540000e-06	-6.643639e-07	-1.480041e-09	-4.995856e+00	-9.997498e+01
1.550000e-06	-6.426964e-07	-1.453517e-09	-4.832922e+00	-9.847144e+01
1.560000e-06	-6.210041e-07	-1.427941e-09	-4.669802e+00	-9.694430e+01
1.570000e-06	-5.993188e-07	-1.404250e-09	-4.506733e+00	-9.539311e+01
1.580000e-06	-5.775563e-07	-1.381133e-09	-4.343084e+00	-9.381745e+01
1.590000e-06	-5.557063e-07	-1.355498e-09	-4.178778e+00	-9.221689e+01
1.600000e-06	-5.338695e-07	-1.329032e-09	-4.014570e+00	-9.059100e+01
1.610000e-06	-5.120500e-07	-1.304316e-09	-3.850493e+00	-8.893937e+01
1.620000e-06	-4.901740e-07	-1.279222e-09	-3.685991e+00	-8.726160e+01
1.630000e-06	-4.682478e-07	-1.250622e-09	-3.521111e+00	-8.555730e+01
1.640000e-06	-4.463186e-07	-1.223330e-09	-3.356209e+00	-8.382611e+01
1.650000e-06	-4.244068e-07	-1.199220e-09	-3.191437e+00	-8.206768e+01
1.660000e-06	-4.025312e-07	-1.172012e-09	-3.026937e+00	-8.028170e+01
1.670000e-06	-3.806296e-07	-1.142921e-09	-2.862243e+00	-7.846789e+01
1.680000e-06	-3.586258e-07	-1.116903e-09	-2.696780e+00	-7.662599e+01
1.690000e-06	-3.365678e-07	-1.091609e-09	-2.530909e+00	-7.475579e+01
1.700000e-06	-3.145103e-07	-1.064533e-09	-2.365042e+00	-7.285713e+01
1.710000e-06	-2.924129e-07	-1.035962e-09	-2.198874e+00	-7.092988e+01
1.720000e-06	-2.703568e-07	-1.006834e-09	-2.033018e+00	-6.897397e+01
1.730000e-06	-2.483687e-07	-9.774545e-10	-1.867673e+00	-6.698937e+01
1.740000e-06	-2.262440e-07	-9.483734e-10	-1.701301e+00	-6.497612e+01
1.750000e-06	-2.039774e-07	-9.187632e-10	-1.533861e+00	-6.293431e+01
1.760000e-06	-1.818056e-07	-8.890745e-10	-1.367134e+00	-6.086408e+01
1.770000e-06	-1.597424e-07	-8.596208e-10	-1.201225e+00	-5.876566e+01
1.780000e-06	-1.376289e-07	-8.305585e-10	-1.034936e+00	-5.663930e+01
1.790000e-06	-1.154575e-07	-8.010994e-10	-8.682128e-01	-5.448537e+01
1.800000e-06	-9.337382e-08	-7.727500e-10	-7.021486e-01	-5.230426e+01
1.810000e-06	-7.137976e-08	-7.411708e-10	-5.367586e-01	-5.009646e+01
1.820000e-06	-4.934564e-08	-7.072683e-10	-3.710673e-01	-4.786249e+01
1.830000e-06	-2.724780e-08	-6.748041e-10	-2.048969e-01	-4.560299e+01
1.840000e-06	-5.200441e-09	-6.432014e-10	-3.910607e-02	-4.331861e+01
1.850000e-06	1.688590e-08	-6.106238e-10	1.269779e-01	-4.101011e+01
1.860000e-06	3.905061e-08	-5.752074e-10	2.936512e-01	-3.867829e+01
1.870000e-06	6.120213e-08	-5.384447e-10	4.602253e-01	-3.632403e+01
1.880000e-06	8.346310e-08	-5.050133e-10	6.276224e-01	-3.394826e+01
1.890000e-06	1.057122e-07	-4.729130e-10	7.949302e-01	-3.155197e+01
1.900000e-06	1.278079e-07	-4.384316e-10	9.610843e-01	-2.913621e+01
1.910000e-06	1.499146e-07	-4.039163e-10	1.127322e+00	-2.670208e+01
1.920000e-06	1.720588e-07	-3.717841e-10	1.293841e+00	-2.425074e+01
1.930000e-06	1.941592e-07	-3.390476e-10	1.460030e+00	-2.178338e+01
1.940000e-06	2.163206e-07	-3.021097e-10	1.626679e+00	-1.930124e+01
1.950000e-06	2.384447e-07	-2.625573e-10	1.793047e+00	-1.680560e+01
1.960000e-06	2.604562e-07	-2.242692e-10	1.958568e+00	-1.429778e+01
1.970000e-06	2.825138e-07	-1.898032e-10	2.124436e+00	-1.177913e+01
1.980000e-06	3.045330e-07	-1.543524e-10	2.290015e+00	-9.250994e+00
1.990000e-06	3.264941e-07	-1.157845e-10	2.455157e+00	-6.714782e+00
2.000000e-06	3.484794e-07	-7.710262e-11	2.620481e+00	-4.171896e+00
2.010000e-06	3.704501e-07	-4.152901e-11	2.785696e+00	-1.623752e+00
2.020000e-06	3.924224e-07	-5.069274e-12	2.950922e+00	9.282245e-01
2.030000e-06	4.144097e-07	3.471923e-11	3.116261e+00	3.482607e+00
2.040000e-06	4.363549e-07	7.641413e-11	3.281284e+00	6.037972e+00
2.050000e-06	4.582628e-07	1.167072e-10	3.446026e+00	8.592900e+00
2.060000e-06	4.801684e-07	1.543048e-10	3.610751e+00	1.114599e+01
2.070000e-06	5.020200e-07	1.923186e-10	3.775069e+00	1.369584e+01
2.080000e-06	5.238239e-07	2.319472e-10	3.939030e+00	1.624109e+01
2.090000e-06	5.455869e-07	2.688830e-10	4.102682e+00	1.878038e+01
2.100000e-06	5.673554e-07	3.024895e-10	4.266376e+00	2.131240e+01
2.110000e-06	5.891199e-07	3.378677e-10	4.430040e+00	2.383585e+01
2.120000e-06	6.107899e-07	3.742986e-10	4.592993e+00	2.634948e+01
2.130000e-06	6.323717e-07	4.103426e-10	4.755283e+00	2.885205e+01
2.140000e-06	6.539242e-07	4.471915e-10	4.917353e+00	3.134238e+01
2.150000e-06	6.754972e-07	4.833450e-10	5.079576e+00	3.381934e+01
2.160000e-06	6.970797e-07	5.199266e-10	5.241872e+00	3.628182e+01
2.170000e-06	7.185655e-07	5.573979e-10	5.403439e+00	3.872875e+01
2.180000e-06	7.399159e-07	5.939514e-10	5.563989e+00	4.115913e+01
2.190000e-06	7.612174e-07	6.293105e-10	5.724172e+00	4.357200e+01
2.200000e-06	7.824938e-07	6.646289e-10	5.884165e+00	4.596643e+01
2.210000e-06	8.037367e-07	6.978724e-10	6.043907e+00	4.834155e+01
2.220000e-06	8.250003e-07	7.280924e-10	6.203804e+00	5.069656e+01
2.230000e-06	8.462929e-07	7.592633e-10	6.363919e+00	5.303066e+01
2.240000e-06	8.674758e-07	7.930512e-10	6.523209e+00	5.534315e+01
2.250000e-06	8.885207e-07	8.281718e-10	6.681462e+00	5.763334e+01
2.260000e-06	9.093948e-07	8.623028e-10	6.838429e+00	5.990062e+01
2.270000e-06	9.301493e-07	8.971113e-10	6.994499e+00	6.214440e+01
2.280000e-06	9.508709e-07	9.306306e-10	7.150320e+00	6.436414e+01
2.290000e-06	9.714192e-07	9.615759e-10	7.304839e+00	6.655937e+01
2.300000e-06	9.919674e-07	9.894259e-10	7.459356e+00	6.872964e+01
2.310000e-06	1.012530e-06	1.018564e-09	7.613979e+00	7.087455e+01
2.320000e-06	1.032941e-06	1.049820e-09	7.767471e+00	7.299375e+01
2.330000e-06	1.053310e-06	1.080525e-09	7.920640e+00	7.508692e+01
2.340000e-06	1.073595e-06	1.108508e-09	8.073174e+00	7.715379e+01
2.350000e-06	1.093777e-06	1.135561e-09	8.224940e+00	7.919412e+01
2.360000e-06	1.113949e-06	1.166019e-09	8.376629e+00	8.120772e+01
2.370000e-06	1.134111e-06	1.198402e-09	8.528240e+00	8.319442e+01
2.380000e-06	1.154197e-06	1.228993e-09	8.679282e+00	8.515409e+01
2.390000e-06	1.174153e-06	1.256927e-09	8.829344e+00	8.708664e+01
2.400000e-06	1.194017e-06	1.284017e-09	8.978723e+00	8.899201e+01
2.410000e-06	1.213826e-06	1.311360e-09	9.127676e+00	9.087016e+01
2.420000e-06	1.233609e-06	1.338261e-09	9.276441e+00	9.272111e+01
2.430000e-06	1.253411e-06	1.363856e-09	9.425346e+00	9.454486e+01
2.440000e-06	1.273187e-06	1.390518e-09	9.574058e+00	9.634149e+01
2.450000e-06	1.292941e-06	1.417423e-09	9.722608e+00	9.811107e+01
2.460000e-06	1.312640e-06	1.442989e-09	9.870734e+00	9.985372e+01
2.470000e-06	1.332280e-06	1.468233e-09	1.001843e+01	1.015696e+02
2.480000e-06	1.351887e-06	1.494559e-09	1.016586e+01	1.032587e+02
2.490000e-06	1.371437e-06	1.521146e-09	1.031288e+01	1.049215e+02
2.500000e-06	1.390941e-06	1.546895e-09	1.045954e+01	1.065579e+02
2.510000e-06	1.410369e-06	1.570801e-09	1.060564e+01	1.081683e+02
2.520000e-06	1.429728e-06	1.595320e-09	1.075121e+01	1.097529e+02
2.530000e-06	1.449025e-06	1.621476e-09	1.089632e+01	1.113120e+02
2.540000e-06	1.468233e-06	1.646883e-09	1.104075e+01	1.128458e+02
2.550000e-06	1.487324e-06	1.668451e-09	1.118432e+01	1.143546e+02
2.560000e-06	1.506303e-06	1.690335e-09	1.132704e+01	1.158388e+02
2.570000e-06	1.525222e-06	1.715298e-09	1.146930e+01	1.172987e+02
2.580000e-06	1.543934e-06	1.740376e-09	1.161001e+01	1.187346e+02
2.590000e-06	1.562493e-06	1.764222e-09	1.174957e+01	1.201469e+02
2.600000e-06	1.580952e-06	1.788698e-09	1.188838e+01	1.215359e+02
2.610000e-06	1.599164e-06	1.812212e-09	1.202533e+01	1.229021e+02
2.620000e-06	1.617278e-06	1.834575e-09	1.216154e+01	1.242459e+02
2.630000e-06	1.635368e-06	1.857058e-09	1.229757e+01	1.255675e+02
2.640000e-06	1.653291e-06	1.877296e-09	1.243235e+01	1.268675e+02
2.650000e-06	1.671038e-06	1.896934e-09	1.256580e+01	1.281462e+02
2.660000e-06	1.688762e-06	1.918614e-09	1.269909e+01	1.294041e+02
2.670000e-06	1.706444e-06	1.938977e-09	1.283205e+01	1.306416e+02
2.680000e-06	1.724050e-06	1.955976e-09	1.296444e+01	1.318591e+02
2.690000e-06	1.741492e-06	1.976110e-09	1.309560e+01	1.330569e+02
2.700000e-06	1.758738e-06	1.999341e-09	1.322528e+01	1.342356e+02
2.710000e-06	1.775954e-06	2.019834e-09	1.335475e+01	1.353956e+02
2.720000e-06	1.793190e-06	2.036236e-09	1.348436e+01	1.365372e+02
2.730000e-06	1.810297e-06	2.053381e-09	1.361299e+01	1.376608e+02
2.740000e-06	1.827270e-06	2.072561e-09	1.374063e+01	1.387668e+02
2.750000e-06	1.844160e-06	2.091815e-09	1.386764e+01	1.398556e+02
2.760000e-06	1.860876e-06	2.108074e-09	1.399334e+01	1.409276e+02
2.770000e-06	1.877404e-06	2.122019e-09	1.411763e+01	1.419830e+02
2.780000e-06	1.893807e-06	2.139429e-09	1.424097e+01	1.430223e+02
2.790000e-06	1.910133e-06	2.160537e-09	1.436374e+01	1.440457e+02
2.800000e-06	1.926419e-06	2.178789e-09	1.448620e+01	1.450535e+02
2.810000e-06	1.942513e-06	2.192347e-09	1.460723e+01	1.460460e+02
2.820000e-06	1.958273e-06	2.206779e-09	1.472574e+01	1.470234e+02
2.830000e-06	1.973842e-06	2.223720e-09	1.484281e+01	1.479860e+02
2.840000e-06	1.989195e-06	2.238399e-09	1.495827e+01	1.489340e+02
2.850000e-06	2.004324e-06	2.251258e-09	1.507204e+01	1.498675e+02
2.860000e-06	2.019310e-06	2.266328e-09	1.518472e+01	1.507867e+02
2.870000e-06	2.034061e-06	2.281781e-09	1.529565e+01	1.516917e+02
2.880000e-06	2.048563e-06	2.294901e-09	1.540470e+01	1.525827e+02
2.890000e-06	2.062892e-06	2.306767e-09	1.551245e+01	1.534597e+02
2.900000e-06	2.077074e-06	2.318778e-09	1.561909e+01	1.543228e+02
