# Temperatura_=_20.0
# Concentracion g/m^3_=_9000.0
# C_Vs_to_Am_M_A/Vsm_=_65563218390.804596
# pendiente_HvsI_1/m_=_3716.3
# ordenada_HvsI_A/m_=_1297.0
# frecuencia_Hz_=_134990.32735175325

Tiempo_(s)	Campo_(V.s)	Magnetizacion_(V.s)	Campo_(kA/m)	Magnetizacion_(A/m)
0.000000e+00	-2.645160e-06	-2.873437e-09	-1.986974e+01	-1.883805e+02
1.000000e-08	-2.645418e-06	-2.881160e-09	-1.987168e+01	-1.883747e+02
2.000000e-08	-2.645602e-06	-2.887189e-09	-1.987306e+01	-1.883549e+02
3.000000e-08	-2.645670e-06	-2.892699e-09	-1.987357e+01	-1.883212e+02
4.000000e-08	-2.645554e-06	-2.884981e-09	-1.987270e+01	-1.882738e+02
5.000000e-08	-2.645235e-06	-2.856946e-09	-1.987030e+01	-1.882129e+02
6.000000e-08	-2.644772e-06	-2.853732e-09	-1.986682e+01	-1.881389e+02
7.000000e-08	-2.644121e-06	-2.849452e-09	-1.986193e+01	-1.880521e+02
8.000000e-08	-2.643269e-06	-2.918889e-09	-1.985553e+01	-1.879529e+02
9.000000e-08	-2.642165e-06	-2.953590e-09	-1.984724e+01	-1.878418e+02
1.000000e-07	-2.640779e-06	-2.975436e-09	-1.983683e+01	-1.877192e+02
1.100000e-07	-2.639096e-06	-2.902012e-09	-1.982419e+01	-1.875856e+02
1.200000e-07	-2.637083e-06	-2.804431e-09	-1.980906e+01	-1.874417e+02
1.300000e-07	-2.634795e-06	-2.801663e-09	-1.979188e+01	-1.872879e+02
1.400000e-07	-2.632179e-06	-2.838752e-09	-1.977223e+01	-1.871249e+02
1.500000e-07	-2.629278e-06	-2.893366e-09	-1.975043e+01	-1.869534e+02
1.600000e-07	-2.626157e-06	-2.873516e-09	-1.972699e+01	-1.867739e+02
1.700000e-07	-2.622806e-06	-2.856142e-09	-1.970182e+01	-1.865872e+02
1.800000e-07	-2.619264e-06	-2.821665e-09	-1.967522e+01	-1.863939e+02
1.900000e-07	-2.615572e-06	-2.872969e-09	-1.964748e+01	-1.861946e+02
2.000000e-07	-2.611754e-06	-2.832881e-09	-1.961880e+01	-1.859901e+02
2.100000e-07	-2.607864e-06	-2.807315e-09	-1.958958e+01	-1.857810e+02
2.200000e-07	-2.603909e-06	-2.803507e-09	-1.955987e+01	-1.855680e+02
2.300000e-07	-2.599841e-06	-2.860457e-09	-1.952932e+01	-1.853516e+02
2.400000e-07	-2.595579e-06	-2.841336e-09	-1.949730e+01	-1.851326e+02
2.500000e-07	-2.591168e-06	-2.778277e-09	-1.946417e+01	-1.849113e+02
2.600000e-07	-2.586583e-06	-2.742732e-09	-1.942972e+01	-1.846884e+02
2.700000e-07	-2.581796e-06	-2.780373e-09	-1.939377e+01	-1.844644e+02
2.800000e-07	-2.576857e-06	-2.831836e-09	-1.935667e+01	-1.842397e+02
2.900000e-07	-2.571725e-06	-2.772676e-09	-1.931811e+01	-1.840148e+02
3.000000e-07	-2.566394e-06	-2.718913e-09	-1.927807e+01	-1.837899e+02
3.100000e-07	-2.560887e-06	-2.731191e-09	-1.923670e+01	-1.835653e+02
3.200000e-07	-2.555207e-06	-2.823046e-09	-1.919403e+01	-1.833414e+02
3.300000e-07	-2.549338e-06	-2.816008e-09	-1.914995e+01	-1.831182e+02
3.400000e-07	-2.543230e-06	-2.743142e-09	-1.910407e+01	-1.828960e+02
3.500000e-07	-2.536914e-06	-2.686540e-09	-1.905662e+01	-1.826747e+02
3.600000e-07	-2.530462e-06	-2.763229e-09	-1.900816e+01	-1.824544e+02
3.700000e-07	-2.523835e-06	-2.813942e-09	-1.895837e+01	-1.822350e+02
3.800000e-07	-2.516992e-06	-2.764008e-09	-1.890698e+01	-1.820164e+02
3.900000e-07	-2.510071e-06	-2.676916e-09	-1.885498e+01	-1.817983e+02
4.000000e-07	-2.502992e-06	-2.713761e-09	-1.880181e+01	-1.815806e+02
4.100000e-07	-2.495654e-06	-2.791436e-09	-1.874669e+01	-1.813630e+02
4.200000e-07	-2.488209e-06	-2.787399e-09	-1.869076e+01	-1.811451e+02
4.300000e-07	-2.480619e-06	-2.705619e-09	-1.863375e+01	-1.809266e+02
4.400000e-07	-2.472870e-06	-2.689005e-09	-1.857554e+01	-1.807069e+02
4.500000e-07	-2.465071e-06	-2.746881e-09	-1.851696e+01	-1.804856e+02
4.600000e-07	-2.457227e-06	-2.774779e-09	-1.845803e+01	-1.802623e+02
4.700000e-07	-2.449309e-06	-2.720553e-09	-1.839856e+01	-1.800363e+02
4.800000e-07	-2.441276e-06	-2.671530e-09	-1.833822e+01	-1.798072e+02
4.900000e-07	-2.433057e-06	-2.698394e-09	-1.827647e+01	-1.795743e+02
5.000000e-07	-2.424571e-06	-2.742530e-09	-1.821273e+01	-1.793370e+02
5.100000e-07	-2.415895e-06	-2.726850e-09	-1.814756e+01	-1.790947e+02
5.200000e-07	-2.406994e-06	-2.677041e-09	-1.808070e+01	-1.788469e+02
5.300000e-07	-2.397803e-06	-2.677332e-09	-1.801166e+01	-1.785930e+02
5.400000e-07	-2.388425e-06	-2.714848e-09	-1.794122e+01	-1.783322e+02
5.500000e-07	-2.378740e-06	-2.722355e-09	-1.786846e+01	-1.780642e+02
5.600000e-07	-2.368663e-06	-2.679346e-09	-1.779277e+01	-1.777883e+02
5.700000e-07	-2.358331e-06	-2.657921e-09	-1.771516e+01	-1.775041e+02
5.800000e-07	-2.347766e-06	-2.678948e-09	-1.763579e+01	-1.772109e+02
5.900000e-07	-2.336901e-06	-2.700580e-09	-1.755418e+01	-1.769085e+02
6.000000e-07	-2.325773e-06	-2.671996e-09	-1.747059e+01	-1.765963e+02
6.100000e-07	-2.314458e-06	-2.637598e-09	-1.738560e+01	-1.762739e+02
6.200000e-07	-2.302995e-06	-2.637568e-09	-1.729948e+01	-1.759412e+02
6.300000e-07	-2.291368e-06	-2.664788e-09	-1.721215e+01	-1.755978e+02
6.400000e-07	-2.279603e-06	-2.655663e-09	-1.712377e+01	-1.752434e+02
6.500000e-07	-2.267711e-06	-2.622242e-09	-1.703444e+01	-1.748779e+02
6.600000e-07	-2.255693e-06	-2.610889e-09	-1.694417e+01	-1.745012e+02
6.700000e-07	-2.243580e-06	-2.636660e-09	-1.685317e+01	-1.741131e+02
6.800000e-07	-2.231306e-06	-2.639373e-09	-1.676098e+01	-1.737138e+02
6.900000e-07	-2.218812e-06	-2.608292e-09	-1.666713e+01	-1.733032e+02
7.000000e-07	-2.206067e-06	-2.583842e-09	-1.657139e+01	-1.728815e+02
7.100000e-07	-2.193145e-06	-2.594787e-09	-1.647432e+01	-1.724486e+02
7.200000e-07	-2.180129e-06	-2.602954e-09	-1.637655e+01	-1.720050e+02
7.300000e-07	-2.166904e-06	-2.586929e-09	-1.627721e+01	-1.715506e+02
7.400000e-07	-2.153503e-06	-2.566500e-09	-1.617654e+01	-1.710859e+02
7.500000e-07	-2.139965e-06	-2.567227e-09	-1.607485e+01	-1.706110e+02
7.600000e-07	-2.126244e-06	-2.574623e-09	-1.597178e+01	-1.701264e+02
7.700000e-07	-2.112380e-06	-2.567285e-09	-1.586764e+01	-1.696323e+02
7.800000e-07	-2.098291e-06	-2.545309e-09	-1.576181e+01	-1.691291e+02
7.900000e-07	-2.084044e-06	-2.529256e-09	-1.565478e+01	-1.686172e+02
8.000000e-07	-2.069729e-06	-2.530710e-09	-1.554725e+01	-1.680970e+02
8.100000e-07	-2.055229e-06	-2.529415e-09	-1.543834e+01	-1.675688e+02
8.200000e-07	-2.040576e-06	-2.512087e-09	-1.532826e+01	-1.670330e+02
8.300000e-07	-2.025660e-06	-2.490163e-09	-1.521622e+01	-1.664901e+02
8.400000e-07	-2.010419e-06	-2.488344e-09	-1.510173e+01	-1.659403e+02
8.500000e-07	-1.995028e-06	-2.492880e-09	-1.498612e+01	-1.653839e+02
8.600000e-07	-1.979458e-06	-2.482608e-09	-1.486917e+01	-1.648214e+02
8.700000e-07	-1.963647e-06	-2.458947e-09	-1.475039e+01	-1.642529e+02
8.800000e-07	-1.947575e-06	-2.449193e-09	-1.462966e+01	-1.636788e+02
8.900000e-07	-1.931372e-06	-2.448851e-09	-1.450795e+01	-1.630992e+02
9.000000e-07	-1.915031e-06	-2.438995e-09	-1.438521e+01	-1.625142e+02
9.100000e-07	-1.898461e-06	-2.418022e-09	-1.426073e+01	-1.619240e+02
9.200000e-07	-1.881786e-06	-2.406191e-09	-1.413547e+01	-1.613287e+02
9.300000e-07	-1.864966e-06	-2.400540e-09	-1.400913e+01	-1.607282e+02
9.400000e-07	-1.847911e-06	-2.396042e-09	-1.388102e+01	-1.601225e+02
9.500000e-07	-1.830762e-06	-2.385298e-09	-1.375220e+01	-1.595116e+02
9.600000e-07	-1.813592e-06	-2.370730e-09	-1.362322e+01	-1.588953e+02
9.700000e-07	-1.796325e-06	-2.360768e-09	-1.349351e+01	-1.582733e+02
9.800000e-07	-1.778975e-06	-2.358752e-09	-1.336318e+01	-1.576454e+02
9.900000e-07	-1.761606e-06	-2.351351e-09	-1.323272e+01	-1.570114e+02
1.000000e-06	-1.744097e-06	-2.334687e-09	-1.310120e+01	-1.563708e+02
1.010000e-06	-1.726411e-06	-2.319377e-09	-1.296834e+01	-1.557233e+02
1.020000e-06	-1.708719e-06	-2.312607e-09	-1.283544e+01	-1.550685e+02
1.030000e-06	-1.690999e-06	-2.305508e-09	-1.270233e+01	-1.544057e+02
1.040000e-06	-1.673198e-06	-2.293623e-09	-1.256862e+01	-1.537345e+02
1.050000e-06	-1.655231e-06	-2.279433e-09	-1.243366e+01	-1.530544e+02
1.060000e-06	-1.637131e-06	-2.267575e-09	-1.229769e+01	-1.523647e+02
1.070000e-06	-1.618923e-06	-2.259721e-09	-1.216092e+01	-1.516649e+02
1.080000e-06	-1.600574e-06	-2.249988e-09	-1.202308e+01	-1.509544e+02
1.090000e-06	-1.582156e-06	-2.236371e-09	-1.188474e+01	-1.502324e+02
1.100000e-06	-1.563663e-06	-2.220245e-09	-1.174582e+01	-1.494984e+02
1.110000e-06	-1.545037e-06	-2.207995e-09	-1.160591e+01	-1.487518e+02
1.120000e-06	-1.526224e-06	-2.198407e-09	-1.146459e+01	-1.479918e+02
1.130000e-06	-1.507258e-06	-2.185484e-09	-1.132212e+01	-1.472179e+02
1.140000e-06	-1.488186e-06	-2.170465e-09	-1.117886e+01	-1.464295e+02
1.150000e-06	-1.468997e-06	-2.158059e-09	-1.103471e+01	-1.456259e+02
1.160000e-06	-1.449675e-06	-2.147035e-09	-1.088957e+01	-1.448067e+02
1.170000e-06	-1.430252e-06	-2.135420e-09	-1.074367e+01	-1.439713e+02
1.180000e-06	-1.410771e-06	-2.119113e-09	-1.059734e+01	-1.431192e+02
1.190000e-06	-1.391204e-06	-2.103023e-09	-1.045035e+01	-1.422499e+02
1.200000e-06	-1.371581e-06	-2.088202e-09	-1.030295e+01	-1.413631e+02
1.210000e-06	-1.351948e-06	-2.076199e-09	-1.015547e+01	-1.404584e+02
1.220000e-06	-1.332249e-06	-2.063040e-09	-1.000750e+01	-1.395355e+02
1.230000e-06	-1.312495e-06	-2.049904e-09	-9.859116e+00	-1.385940e+02
1.240000e-06	-1.292724e-06	-2.036229e-09	-9.710596e+00	-1.376339e+02
1.250000e-06	-1.272918e-06	-2.023668e-09	-9.561821e+00	-1.366548e+02
1.260000e-06	-1.253073e-06	-2.010433e-09	-9.412749e+00	-1.356568e+02
1.270000e-06	-1.233199e-06	-1.995531e-09	-9.263460e+00	-1.346396e+02
1.280000e-06	-1.213280e-06	-1.979465e-09	-9.113836e+00	-1.336034e+02
1.290000e-06	-1.193322e-06	-1.962897e-09	-8.963916e+00	-1.325481e+02
1.300000e-06	-1.173340e-06	-1.946930e-09	-8.813820e+00	-1.314738e+02
1.310000e-06	-1.153327e-06	-1.931594e-09	-8.663489e+00	-1.303805e+02
1.320000e-06	-1.133266e-06	-1.915852e-09	-8.512794e+00	-1.292685e+02
1.330000e-06	-1.113112e-06	-1.898479e-09	-8.361402e+00	-1.281379e+02
1.340000e-06	-1.092813e-06	-1.880783e-09	-8.208924e+00	-1.269888e+02
1.350000e-06	-1.072393e-06	-1.863127e-09	-8.055528e+00	-1.258216e+02
1.360000e-06	-1.051902e-06	-1.846224e-09	-7.901611e+00	-1.246364e+02
1.370000e-06	-1.031449e-06	-1.828738e-09	-7.747968e+00	-1.234335e+02
1.380000e-06	-1.010893e-06	-1.811711e-09	-7.593559e+00	-1.222131e+02
1.390000e-06	-9.902322e-07	-1.795477e-09	-7.438361e+00	-1.209755e+02
1.400000e-06	-9.695292e-07	-1.779288e-09	-7.282846e+00	-1.197209e+02
1.410000e-06	-9.487266e-07	-1.759840e-09	-7.126582e+00	-1.184496e+02
1.420000e-06	-9.279218e-07	-1.739182e-09	-6.970302e+00	-1.171617e+02
1.430000e-06	-9.069607e-07	-1.719230e-09	-6.812847e+00	-1.158575e+02
1.440000e-06	-8.858802e-07	-1.699490e-09	-6.654497e+00	-1.145370e+02
1.450000e-06	-8.647388e-07	-1.678145e-09	-6.495688e+00	-1.132004e+02
1.460000e-06	-8.434503e-07	-1.657465e-09	-6.335774e+00	-1.118479e+02
1.470000e-06	-8.221048e-07	-1.637549e-09	-6.175433e+00	-1.104793e+02
1.480000e-06	-8.007244e-07	-1.616427e-09	-6.014829e+00	-1.090948e+02
1.490000e-06	-7.792929e-07	-1.594266e-09	-5.853841e+00	-1.076943e+02
1.500000e-06	-7.578517e-07	-1.574422e-09	-5.692780e+00	-1.062776e+02
1.510000e-06	-7.363400e-07	-1.553443e-09	-5.531190e+00	-1.048446e+02
1.520000e-06	-7.147453e-07	-1.530582e-09	-5.368977e+00	-1.033950e+02
1.530000e-06	-6.931233e-07	-1.508109e-09	-5.206558e+00	-1.019286e+02
1.540000e-06	-6.714956e-07	-1.485155e-09	-5.044097e+00	-1.004451e+02
1.550000e-06	-6.498970e-07	-1.461345e-09	-4.881854e+00	-9.894394e+01
1.560000e-06	-6.282879e-07	-1.435911e-09	-4.719532e+00	-9.742483e+01
1.570000e-06	-6.066173e-07	-1.410212e-09	-4.556748e+00	-9.588721e+01
1.580000e-06	-5.848544e-07	-1.386120e-09	-4.393271e+00	-9.433055e+01
1.590000e-06	-5.630276e-07	-1.363820e-09	-4.229314e+00	-9.275425e+01
1.600000e-06	-5.411664e-07	-1.340373e-09	-4.065098e+00	-9.115766e+01
1.610000e-06	-5.193057e-07	-1.314810e-09	-3.900886e+00	-8.954014e+01
1.620000e-06	-4.974502e-07	-1.289784e-09	-3.736714e+00	-8.790096e+01
1.630000e-06	-4.755506e-07	-1.262877e-09	-3.572210e+00	-8.623941e+01
1.640000e-06	-4.536489e-07	-1.234957e-09	-3.407690e+00	-8.455476e+01
1.650000e-06	-4.317333e-07	-1.208487e-09	-3.243066e+00	-8.284623e+01
1.660000e-06	-4.097758e-07	-1.180596e-09	-3.078127e+00	-8.111309e+01
1.670000e-06	-3.878084e-07	-1.152390e-09	-2.913114e+00	-7.935457e+01
1.680000e-06	-3.657996e-07	-1.125212e-09	-2.747789e+00	-7.756994e+01
1.690000e-06	-3.438079e-07	-1.099853e-09	-2.582594e+00	-7.575849e+01
1.700000e-06	-3.218429e-07	-1.073893e-09	-2.417598e+00	-7.391952e+01
1.710000e-06	-2.998284e-07	-1.045983e-09	-2.252231e+00	-7.205237e+01
1.720000e-06	-2.777690e-07	-1.016919e-09	-2.086527e+00	-7.015645e+01
1.730000e-06	-2.556499e-07	-9.873902e-10	-1.920374e+00	-6.823120e+01
1.740000e-06	-2.335104e-07	-9.572962e-10	-1.754068e+00	-6.627611e+01
1.750000e-06	-2.113484e-07	-9.269914e-10	-1.587593e+00	-6.429078e+01
1.760000e-06	-1.891922e-07	-8.967695e-10	-1.421162e+00	-6.227483e+01
1.770000e-06	-1.670564e-07	-8.680899e-10	-1.254883e+00	-6.022801e+01
1.780000e-06	-1.448999e-07	-8.406064e-10	-1.088449e+00	-5.815012e+01
1.790000e-06	-1.227650e-07	-8.112225e-10	-9.221779e-01	-5.604108e+01
1.800000e-06	-1.006051e-07	-7.802237e-10	-7.557186e-01	-5.390088e+01
1.810000e-06	-7.842803e-08	-7.492897e-10	-5.891305e-01	-5.172965e+01
1.820000e-06	-5.630228e-08	-7.166560e-10	-4.229278e-01	-4.952758e+01
1.830000e-06	-3.419716e-08	-6.818728e-10	-2.568800e-01	-4.729501e+01
1.840000e-06	-1.202126e-08	-6.481202e-10	-9.030055e-02	-4.503234e+01
1.850000e-06	1.017924e-08	-6.153299e-10	7.646375e-02	-4.274013e+01
1.860000e-06	3.236624e-08	-5.814772e-10	2.431266e-01	-4.041903e+01
1.870000e-06	5.452628e-08	-5.473210e-10	4.095869e-01	-3.806978e+01
1.880000e-06	7.661158e-08	-5.129475e-10	5.754859e-01	-3.569326e+01
1.890000e-06	9.867289e-08	-4.790584e-10	7.412045e-01	-3.329045e+01
1.900000e-06	1.208412e-07	-4.464111e-10	9.077267e-01	-3.086240e+01
1.910000e-06	1.430645e-07	-4.133720e-10	1.074662e+00	-2.841031e+01
1.920000e-06	1.652242e-07	-3.798886e-10	1.241120e+00	-2.593544e+01
1.930000e-06	1.873736e-07	-3.447884e-10	1.407501e+00	-2.343915e+01
1.940000e-06	2.095830e-07	-3.087338e-10	1.574331e+00	-2.092289e+01
1.950000e-06	2.317742e-07	-2.731779e-10	1.741026e+00	-1.838817e+01
1.960000e-06	2.538504e-07	-2.363324e-10	1.906856e+00	-1.583659e+01
1.970000e-06	2.758970e-07	-1.981834e-10	2.072465e+00	-1.326980e+01
1.980000e-06	2.979500e-07	-1.630789e-10	2.238121e+00	-1.068951e+01
1.990000e-06	3.199966e-07	-1.286586e-10	2.403729e+00	-8.097483e+00
2.000000e-06	3.420234e-07	-9.148029e-11	2.569189e+00	-5.495506e+00
2.010000e-06	3.640292e-07	-5.412908e-11	2.734491e+00	-2.885408e+00
2.020000e-06	3.860181e-07	-1.734467e-11	2.899666e+00	-2.690339e-01
2.030000e-06	4.079855e-07	1.928298e-11	3.064678e+00	2.351756e+00
2.040000e-06	4.299592e-07	5.716546e-11	3.229739e+00	4.975100e+00
2.050000e-06	4.518725e-07	9.716960e-11	3.394346e+00	7.599142e+00
2.060000e-06	4.736927e-07	1.369639e-10	3.558254e+00	1.022204e+01
2.070000e-06	4.955260e-07	1.749658e-10	3.722260e+00	1.284196e+01
2.080000e-06	5.174125e-07	2.124954e-10	3.886665e+00	1.545713e+01
2.090000e-06	5.393172e-07	2.505623e-10	4.051207e+00	1.806578e+01
2.100000e-06	5.611682e-07	2.875059e-10	4.215346e+00	2.066621e+01
2.110000e-06	5.829231e-07	3.234285e-10	4.378764e+00	2.325676e+01
2.120000e-06	6.046245e-07	3.594226e-10	4.541778e+00	2.583582e+01
2.130000e-06	6.262956e-07	3.958337e-10	4.704566e+00	2.840187e+01
2.140000e-06	6.479180e-07	4.330471e-10	4.866988e+00	3.095343e+01
2.150000e-06	6.695061e-07	4.696535e-10	5.029152e+00	3.348911e+01
2.160000e-06	6.910724e-07	5.067071e-10	5.191152e+00	3.600759e+01
2.170000e-06	7.126136e-07	5.435569e-10	5.352964e+00	3.850763e+01
2.180000e-06	7.340771e-07	5.789281e-10	5.514192e+00	4.098808e+01
2.190000e-06	7.554738e-07	6.143459e-10	5.674919e+00	4.344786e+01
2.200000e-06	7.769224e-07	6.496151e-10	5.836034e+00	4.588600e+01
2.210000e-06	7.983149e-07	6.828600e-10	5.996729e+00	4.830158e+01
2.220000e-06	8.195916e-07	7.158255e-10	6.156554e+00	5.069380e+01
2.230000e-06	8.407836e-07	7.499996e-10	6.315743e+00	5.306194e+01
2.240000e-06	8.618429e-07	7.837247e-10	6.473935e+00	5.540533e+01
2.250000e-06	8.828367e-07	8.169702e-10	6.631635e+00	5.772343e+01
2.260000e-06	9.038369e-07	8.516388e-10	6.789383e+00	6.001576e+01
2.270000e-06	9.247265e-07	8.853358e-10	6.946300e+00	6.228190e+01
2.280000e-06	9.454512e-07	9.164766e-10	7.101978e+00	6.452153e+01
2.290000e-06	9.661178e-07	9.478181e-10	7.257220e+00	6.673439e+01
2.300000e-06	9.867415e-07	9.798616e-10	7.412140e+00	6.892028e+01
2.310000e-06	1.007330e-06	1.011340e-09	7.566797e+00	7.107907e+01
2.320000e-06	1.027833e-06	1.042762e-09	7.720809e+00	7.321068e+01
2.330000e-06	1.048206e-06	1.074194e-09	7.873843e+00	7.531511e+01
2.340000e-06	1.068475e-06	1.105149e-09	8.026097e+00	7.739236e+01
2.350000e-06	1.088695e-06	1.136584e-09	8.177985e+00	7.944252e+01
2.360000e-06	1.108894e-06	1.166996e-09	8.329715e+00	8.146568e+01
2.370000e-06	1.129034e-06	1.195699e-09	8.481006e+00	8.346199e+01
2.380000e-06	1.149050e-06	1.226087e-09	8.631355e+00	8.543163e+01
2.390000e-06	1.168976e-06	1.257068e-09	8.781039e+00	8.737477e+01
2.400000e-06	1.188877e-06	1.286200e-09	8.930527e+00	8.929165e+01
2.410000e-06	1.208783e-06	1.315229e-09	9.080060e+00	9.118248e+01
2.420000e-06	1.228656e-06	1.342299e-09	9.229334e+00	9.304752e+01
2.430000e-06	1.248446e-06	1.368687e-09	9.377993e+00	9.488699e+01
2.440000e-06	1.268220e-06	1.397093e-09	9.526533e+00	9.670117e+01
2.450000e-06	1.287985e-06	1.423878e-09	9.675005e+00	9.849029e+01
2.460000e-06	1.307714e-06	1.447362e-09	9.823202e+00	1.002546e+02
2.470000e-06	1.327437e-06	1.473217e-09	9.971350e+00	1.019944e+02
2.480000e-06	1.347147e-06	1.502095e-09	1.011941e+01	1.037098e+02
2.490000e-06	1.366773e-06	1.529404e-09	1.026684e+01	1.054012e+02
2.500000e-06	1.386354e-06	1.554236e-09	1.041392e+01	1.070687e+02
2.510000e-06	1.405880e-06	1.579403e-09	1.056060e+01	1.087126e+02
2.520000e-06	1.425308e-06	1.604157e-09	1.070653e+01	1.103330e+02
2.530000e-06	1.444609e-06	1.628759e-09	1.085152e+01	1.119301e+02
2.540000e-06	1.463825e-06	1.654290e-09	1.099586e+01	1.135042e+02
2.550000e-06	1.482957e-06	1.677448e-09	1.113958e+01	1.150553e+02
2.560000e-06	1.501960e-06	1.700235e-09	1.128232e+01	1.165836e+02
2.570000e-06	1.520819e-06	1.724082e-09	1.142399e+01	1.180893e+02
2.580000e-06	1.539501e-06	1.748736e-09	1.156432e+01	1.195724e+02
2.590000e-06	1.558053e-06	1.772427e-09	1.170368e+01	1.210332e+02
2.600000e-06	1.576492e-06	1.793674e-09	1.184219e+01	1.224717e+02
2.610000e-06	1.594796e-06	1.814552e-09	1.197968e+01	1.238879e+02
2.620000e-06	1.612947e-06	1.835020e-09	1.211603e+01	1.252821e+02
2.630000e-06	1.631022e-06	1.856307e-09	1.225180e+01	1.266544e+02
2.640000e-06	1.649013e-06	1.878956e-09	1.238695e+01	1.280047e+02
2.650000e-06	1.666820e-06	1.901342e-09	1.252071e+01	1.293332e+02
2.660000e-06	1.684453e-06	1.923419e-09	1.265316e+01	1.306401e+02
2.670000e-06	1.701982e-06	1.943799e-09	1.278483e+01	1.319253e+02
2.680000e-06	1.719464e-06	1.962002e-09	1.291615e+01	1.331890e+02
2.690000e-06	1.736862e-06	1.980185e-09	1.304685e+01	1.344314e+02
2.700000e-06	1.754185e-06	1.999260e-09	1.317697e+01	1.356525e+02
2.710000e-06	1.771420e-06	2.018924e-09	1.330644e+01	1.368524e+02
2.720000e-06	1.788604e-06	2.037812e-09	1.343552e+01	1.380314e+02
2.730000e-06	1.805727e-06	2.055719e-09	1.356414e+01	1.391895e+02
2.740000e-06	1.822707e-06	2.074149e-09	1.369169e+01	1.403269e+02
2.750000e-06	1.839552e-06	2.091103e-09	1.381823e+01	1.414437e+02
2.760000e-06	1.856367e-06	2.106635e-09	1.394454e+01	1.425403e+02
2.770000e-06	1.873153e-06	2.121602e-09	1.407063e+01	1.436166e+02
2.780000e-06	1.889740e-06	2.137138e-09	1.419523e+01	1.446730e+02
2.790000e-06	1.906156e-06	2.155640e-09	1.431853e+01	1.457097e+02
2.800000e-06	1.922530e-06	2.174803e-09	1.444153e+01	1.467269e+02
2.810000e-06	1.938742e-06	2.189581e-09	1.456332e+01	1.477248e+02
2.820000e-06	1.954620e-06	2.203937e-09	1.468259e+01	1.487037e+02
2.830000e-06	1.970291e-06	2.222690e-09	1.480031e+01	1.496639e+02
2.840000e-06	1.985723e-06	2.239210e-09	1.491623e+01	1.506056e+02
2.850000e-06	2.000990e-06	2.252633e-09	1.503091e+01	1.515291e+02
2.860000e-06	2.016074e-06	2.268464e-09	1.514421e+01	1.524348e+02
2.870000e-06	2.030835e-06	2.285594e-09	1.525509e+01	1.533228e+02
2.880000e-06	2.045402e-06	2.299735e-09	1.536451e+01	1.541936e+02
2.890000e-06	2.059808e-06	2.312891e-09	1.547273e+01	1.550473e+02
2.900000e-06	2.074093e-06	2.326421e-09	1.558003e+01	1.558844e+02
