# Temperatura_=_20.0
# Concentracion g/m^3_=_9000.0
# C_Vs_to_Am_M_A/Vsm_=_65563218390.804596
# pendiente_HvsI_1/m_=_3716.3
# ordenada_HvsI_A/m_=_1297.0
# frecuencia_Hz_=_134988.2347935113

Tiempo_(s)	Campo_(V.s)	Magnetizacion_(V.s)	Campo_(kA/m)	Magnetizacion_(A/m)
0.000000e+00	-2.642313e-06	-2.815242e-09	-1.988387e+01	-1.850047e+02
1.000000e-08	-2.642552e-06	-2.804282e-09	-1.988567e+01	-1.850476e+02
2.000000e-08	-2.642734e-06	-2.774674e-09	-1.988704e+01	-1.850822e+02
3.000000e-08	-2.642819e-06	-2.728450e-09	-1.988768e+01	-1.851085e+02
4.000000e-08	-2.642779e-06	-2.720603e-09	-1.988738e+01	-1.851265e+02
5.000000e-08	-2.642557e-06	-2.820751e-09	-1.988570e+01	-1.851360e+02
6.000000e-08	-2.642121e-06	-2.990354e-09	-1.988242e+01	-1.851371e+02
7.000000e-08	-2.641553e-06	-3.084745e-09	-1.987815e+01	-1.851298e+02
8.000000e-08	-2.640836e-06	-2.973462e-09	-1.987275e+01	-1.851141e+02
9.000000e-08	-2.639874e-06	-2.807873e-09	-1.986551e+01	-1.850901e+02
1.000000e-07	-2.638597e-06	-2.690516e-09	-1.985590e+01	-1.850578e+02
1.100000e-07	-2.637068e-06	-2.713486e-09	-1.984440e+01	-1.850172e+02
1.200000e-07	-2.635211e-06	-2.743114e-09	-1.983043e+01	-1.849686e+02
1.300000e-07	-2.632855e-06	-2.740684e-09	-1.981270e+01	-1.849120e+02
1.400000e-07	-2.630130e-06	-2.743455e-09	-1.979219e+01	-1.848475e+02
1.500000e-07	-2.627142e-06	-2.809318e-09	-1.976970e+01	-1.847754e+02
1.600000e-07	-2.623852e-06	-2.846572e-09	-1.974495e+01	-1.846957e+02
1.700000e-07	-2.620367e-06	-2.777059e-09	-1.971872e+01	-1.846087e+02
1.800000e-07	-2.616780e-06	-2.736970e-09	-1.969173e+01	-1.845145e+02
1.900000e-07	-2.613105e-06	-2.807646e-09	-1.966407e+01	-1.844134e+02
2.000000e-07	-2.609409e-06	-2.918933e-09	-1.963626e+01	-1.843055e+02
2.100000e-07	-2.605617e-06	-2.864246e-09	-1.960773e+01	-1.841912e+02
2.200000e-07	-2.601674e-06	-2.755357e-09	-1.957805e+01	-1.840705e+02
2.300000e-07	-2.597635e-06	-2.739600e-09	-1.954766e+01	-1.839438e+02
2.400000e-07	-2.593565e-06	-2.857103e-09	-1.951703e+01	-1.838112e+02
2.500000e-07	-2.589322e-06	-2.863870e-09	-1.948510e+01	-1.836731e+02
2.600000e-07	-2.584869e-06	-2.747665e-09	-1.945159e+01	-1.835295e+02
2.700000e-07	-2.580227e-06	-2.649259e-09	-1.941666e+01	-1.833807e+02
2.800000e-07	-2.575315e-06	-2.742645e-09	-1.937969e+01	-1.832269e+02
2.900000e-07	-2.570205e-06	-2.866403e-09	-1.934124e+01	-1.830682e+02
3.000000e-07	-2.564929e-06	-2.833661e-09	-1.930154e+01	-1.829049e+02
3.100000e-07	-2.559475e-06	-2.694804e-09	-1.926050e+01	-1.827371e+02
3.200000e-07	-2.553896e-06	-2.689046e-09	-1.921851e+01	-1.825648e+02
3.300000e-07	-2.548118e-06	-2.818113e-09	-1.917504e+01	-1.823883e+02
3.400000e-07	-2.542121e-06	-2.845649e-09	-1.912991e+01	-1.822075e+02
3.500000e-07	-2.535925e-06	-2.717338e-09	-1.908328e+01	-1.820226e+02
3.600000e-07	-2.529558e-06	-2.645797e-09	-1.903537e+01	-1.818336e+02
3.700000e-07	-2.523054e-06	-2.757113e-09	-1.898642e+01	-1.816404e+02
3.800000e-07	-2.516412e-06	-2.845763e-09	-1.893644e+01	-1.814431e+02
3.900000e-07	-2.509639e-06	-2.780681e-09	-1.888548e+01	-1.812417e+02
4.000000e-07	-2.502559e-06	-2.680006e-09	-1.883219e+01	-1.810360e+02
4.100000e-07	-2.495177e-06	-2.722690e-09	-1.877665e+01	-1.808260e+02
4.200000e-07	-2.487678e-06	-2.805084e-09	-1.872021e+01	-1.806115e+02
4.300000e-07	-2.480169e-06	-2.788207e-09	-1.866371e+01	-1.803925e+02
4.400000e-07	-2.472614e-06	-2.689207e-09	-1.860685e+01	-1.801687e+02
4.500000e-07	-2.464919e-06	-2.670828e-09	-1.854895e+01	-1.799400e+02
4.600000e-07	-2.457080e-06	-2.732350e-09	-1.848996e+01	-1.797062e+02
4.700000e-07	-2.449126e-06	-2.763794e-09	-1.843010e+01	-1.794672e+02
4.800000e-07	-2.441128e-06	-2.706060e-09	-1.836991e+01	-1.792226e+02
4.900000e-07	-2.433027e-06	-2.666350e-09	-1.830896e+01	-1.789723e+02
5.000000e-07	-2.424678e-06	-2.704144e-09	-1.824613e+01	-1.787160e+02
5.100000e-07	-2.416051e-06	-2.759708e-09	-1.818120e+01	-1.784535e+02
5.200000e-07	-2.407197e-06	-2.737362e-09	-1.811458e+01	-1.781846e+02
5.300000e-07	-2.398137e-06	-2.679795e-09	-1.804640e+01	-1.779090e+02
5.400000e-07	-2.388842e-06	-2.676438e-09	-1.797645e+01	-1.776265e+02
5.500000e-07	-2.379352e-06	-2.721861e-09	-1.790504e+01	-1.773369e+02
5.600000e-07	-2.369677e-06	-2.722640e-09	-1.783224e+01	-1.770399e+02
5.700000e-07	-2.359721e-06	-2.666373e-09	-1.775731e+01	-1.767353e+02
5.800000e-07	-2.349388e-06	-2.641475e-09	-1.767955e+01	-1.764231e+02
5.900000e-07	-2.338675e-06	-2.678986e-09	-1.759894e+01	-1.761029e+02
6.000000e-07	-2.327710e-06	-2.704765e-09	-1.751642e+01	-1.757747e+02
6.100000e-07	-2.316529e-06	-2.665580e-09	-1.743229e+01	-1.754382e+02
6.200000e-07	-2.305139e-06	-2.623760e-09	-1.734658e+01	-1.750935e+02
6.300000e-07	-2.293563e-06	-2.640398e-09	-1.725946e+01	-1.747404e+02
6.400000e-07	-2.281774e-06	-2.675561e-09	-1.717075e+01	-1.743788e+02
6.500000e-07	-2.269899e-06	-2.654544e-09	-1.708139e+01	-1.740088e+02
6.600000e-07	-2.257967e-06	-2.612054e-09	-1.699160e+01	-1.736302e+02
6.700000e-07	-2.245869e-06	-2.612294e-09	-1.690056e+01	-1.732431e+02
6.800000e-07	-2.233634e-06	-2.642609e-09	-1.680849e+01	-1.728476e+02
6.900000e-07	-2.221292e-06	-2.638102e-09	-1.671562e+01	-1.724436e+02
7.000000e-07	-2.208731e-06	-2.606326e-09	-1.662109e+01	-1.720313e+02
7.100000e-07	-2.195945e-06	-2.591022e-09	-1.652487e+01	-1.716107e+02
7.200000e-07	-2.183002e-06	-2.604467e-09	-1.642747e+01	-1.711820e+02
7.300000e-07	-2.169879e-06	-2.611147e-09	-1.632872e+01	-1.707452e+02
7.400000e-07	-2.156610e-06	-2.594911e-09	-1.622887e+01	-1.703006e+02
7.500000e-07	-2.143211e-06	-2.566155e-09	-1.612804e+01	-1.698483e+02
7.600000e-07	-2.129652e-06	-2.558670e-09	-1.602601e+01	-1.693884e+02
7.700000e-07	-2.115896e-06	-2.569612e-09	-1.592249e+01	-1.689210e+02
7.800000e-07	-2.101943e-06	-2.564891e-09	-1.581749e+01	-1.684465e+02
7.900000e-07	-2.087851e-06	-2.533609e-09	-1.571144e+01	-1.679649e+02
8.000000e-07	-2.073637e-06	-2.518550e-09	-1.560448e+01	-1.674764e+02
8.100000e-07	-2.059264e-06	-2.534890e-09	-1.549632e+01	-1.669811e+02
8.200000e-07	-2.044671e-06	-2.542134e-09	-1.538651e+01	-1.664792e+02
8.300000e-07	-2.029859e-06	-2.515431e-09	-1.527504e+01	-1.659709e+02
8.400000e-07	-2.014766e-06	-2.492400e-09	-1.516147e+01	-1.654561e+02
8.500000e-07	-1.999377e-06	-2.498488e-09	-1.504566e+01	-1.649351e+02
8.600000e-07	-1.983737e-06	-2.502306e-09	-1.492797e+01	-1.644080e+02
8.700000e-07	-1.967935e-06	-2.480668e-09	-1.480905e+01	-1.638746e+02
8.800000e-07	-1.952061e-06	-2.454866e-09	-1.468960e+01	-1.633352e+02
8.900000e-07	-1.936044e-06	-2.448450e-09	-1.456907e+01	-1.627896e+02
9.000000e-07	-1.919797e-06	-2.448820e-09	-1.444681e+01	-1.622378e+02
9.100000e-07	-1.903289e-06	-2.438050e-09	-1.432259e+01	-1.616798e+02
9.200000e-07	-1.886627e-06	-2.417204e-09	-1.419720e+01	-1.611154e+02
9.300000e-07	-1.869872e-06	-2.402185e-09	-1.407112e+01	-1.605446e+02
9.400000e-07	-1.852985e-06	-2.400228e-09	-1.394404e+01	-1.599671e+02
9.500000e-07	-1.836033e-06	-2.401083e-09	-1.381647e+01	-1.593828e+02
9.600000e-07	-1.818997e-06	-2.385977e-09	-1.368827e+01	-1.587914e+02
9.700000e-07	-1.801754e-06	-2.364699e-09	-1.355852e+01	-1.581926e+02
9.800000e-07	-1.784391e-06	-2.358027e-09	-1.342785e+01	-1.575862e+02
9.900000e-07	-1.767034e-06	-2.360301e-09	-1.329724e+01	-1.569719e+02
1.000000e-06	-1.749579e-06	-2.350710e-09	-1.316589e+01	-1.563492e+02
1.010000e-06	-1.731985e-06	-2.333182e-09	-1.303349e+01	-1.557178e+02
1.020000e-06	-1.714388e-06	-2.321301e-09	-1.290107e+01	-1.550774e+02
1.030000e-06	-1.696779e-06	-2.318960e-09	-1.276856e+01	-1.544275e+02
1.040000e-06	-1.679087e-06	-2.311972e-09	-1.263542e+01	-1.537676e+02
1.050000e-06	-1.661321e-06	-2.296885e-09	-1.250174e+01	-1.530974e+02
1.060000e-06	-1.643421e-06	-2.281303e-09	-1.236703e+01	-1.524164e+02
1.070000e-06	-1.625329e-06	-2.272419e-09	-1.223089e+01	-1.517241e+02
1.080000e-06	-1.607058e-06	-2.264102e-09	-1.209339e+01	-1.510201e+02
1.090000e-06	-1.588669e-06	-2.251293e-09	-1.195501e+01	-1.503039e+02
1.100000e-06	-1.570154e-06	-2.237522e-09	-1.181568e+01	-1.495750e+02
1.110000e-06	-1.551532e-06	-2.226097e-09	-1.167555e+01	-1.488331e+02
1.120000e-06	-1.532886e-06	-2.215578e-09	-1.153523e+01	-1.480778e+02
1.130000e-06	-1.514168e-06	-2.205341e-09	-1.139438e+01	-1.473085e+02
1.140000e-06	-1.495243e-06	-2.194970e-09	-1.125197e+01	-1.465249e+02
1.150000e-06	-1.476045e-06	-2.183922e-09	-1.110750e+01	-1.457266e+02
1.160000e-06	-1.456720e-06	-2.172334e-09	-1.096208e+01	-1.449134e+02
1.170000e-06	-1.437355e-06	-2.159059e-09	-1.081635e+01	-1.440848e+02
1.180000e-06	-1.417905e-06	-2.144436e-09	-1.066999e+01	-1.432406e+02
1.190000e-06	-1.398329e-06	-2.130033e-09	-1.052267e+01	-1.423806e+02
1.200000e-06	-1.378667e-06	-2.118198e-09	-1.037471e+01	-1.415044e+02
1.210000e-06	-1.358980e-06	-2.105229e-09	-1.022656e+01	-1.406120e+02
1.220000e-06	-1.339259e-06	-2.092020e-09	-1.007816e+01	-1.397031e+02
1.230000e-06	-1.319514e-06	-2.080364e-09	-9.929571e+00	-1.387776e+02
1.240000e-06	-1.299739e-06	-2.069646e-09	-9.780766e+00	-1.378355e+02
1.250000e-06	-1.279921e-06	-2.057041e-09	-9.631633e+00	-1.368766e+02
1.260000e-06	-1.260094e-06	-2.042639e-09	-9.482429e+00	-1.359009e+02
1.270000e-06	-1.240241e-06	-2.027394e-09	-9.333033e+00	-1.349085e+02
1.280000e-06	-1.220334e-06	-2.012024e-09	-9.183230e+00	-1.338992e+02
1.290000e-06	-1.200407e-06	-1.995503e-09	-9.033271e+00	-1.328732e+02
1.300000e-06	-1.180483e-06	-1.980173e-09	-8.883344e+00	-1.318306e+02
1.310000e-06	-1.160523e-06	-1.967510e-09	-8.733139e+00	-1.307713e+02
1.320000e-06	-1.140448e-06	-1.954818e-09	-8.582073e+00	-1.296955e+02
1.330000e-06	-1.120245e-06	-1.937815e-09	-8.430036e+00	-1.286033e+02
1.340000e-06	-1.099973e-06	-1.919108e-09	-8.277488e+00	-1.274947e+02
1.350000e-06	-1.079681e-06	-1.902272e-09	-8.124789e+00	-1.263699e+02
1.360000e-06	-1.059387e-06	-1.885524e-09	-7.972073e+00	-1.252289e+02
1.370000e-06	-1.038989e-06	-1.866717e-09	-7.818578e+00	-1.240719e+02
1.380000e-06	-1.018487e-06	-1.847708e-09	-7.664290e+00	-1.228989e+02
1.390000e-06	-9.979416e-07	-1.832106e-09	-7.509686e+00	-1.217100e+02
1.400000e-06	-9.772579e-07	-1.816947e-09	-7.354037e+00	-1.205052e+02
1.410000e-06	-9.565269e-07	-1.797371e-09	-7.198032e+00	-1.192845e+02
1.420000e-06	-9.357169e-07	-1.778885e-09	-7.041434e+00	-1.180479e+02
1.430000e-06	-9.147598e-07	-1.763811e-09	-6.883727e+00	-1.167953e+02
1.440000e-06	-8.937037e-07	-1.744038e-09	-6.725277e+00	-1.155267e+02
1.450000e-06	-8.725863e-07	-1.716250e-09	-6.566365e+00	-1.142419e+02
1.460000e-06	-8.514144e-07	-1.690760e-09	-6.407042e+00	-1.129408e+02
1.470000e-06	-8.301848e-07	-1.673675e-09	-6.247286e+00	-1.116231e+02
1.480000e-06	-8.088923e-07	-1.657639e-09	-6.087056e+00	-1.102886e+02
1.490000e-06	-7.874955e-07	-1.637689e-09	-5.926042e+00	-1.089370e+02
1.500000e-06	-7.660046e-07	-1.616911e-09	-5.764319e+00	-1.075680e+02
1.510000e-06	-7.444793e-07	-1.596160e-09	-5.602337e+00	-1.061811e+02
1.520000e-06	-7.229843e-07	-1.574942e-09	-5.440584e+00	-1.047760e+02
1.530000e-06	-7.014406e-07	-1.553035e-09	-5.278463e+00	-1.033521e+02
1.540000e-06	-6.797883e-07	-1.528813e-09	-5.115526e+00	-1.019089e+02
1.550000e-06	-6.580927e-07	-1.504850e-09	-4.952263e+00	-1.004460e+02
1.560000e-06	-6.363653e-07	-1.481247e-09	-4.788760e+00	-9.896257e+01
1.570000e-06	-6.145718e-07	-1.456030e-09	-4.624761e+00	-9.745814e+01
1.580000e-06	-5.927707e-07	-1.430632e-09	-4.460703e+00	-9.593203e+01
1.590000e-06	-5.709659e-07	-1.406619e-09	-4.296619e+00	-9.438356e+01
1.600000e-06	-5.491178e-07	-1.383443e-09	-4.132208e+00	-9.281204e+01
1.610000e-06	-5.271975e-07	-1.359666e-09	-3.967253e+00	-9.121676e+01
1.620000e-06	-5.052552e-07	-1.335241e-09	-3.802134e+00	-8.959702e+01
1.630000e-06	-4.832925e-07	-1.309795e-09	-3.636860e+00	-8.795211e+01
1.640000e-06	-4.613335e-07	-1.283183e-09	-3.471616e+00	-8.628133e+01
1.650000e-06	-4.394395e-07	-1.258378e-09	-3.306859e+00	-8.458398e+01
1.660000e-06	-4.175238e-07	-1.230230e-09	-3.141940e+00	-8.285940e+01
1.670000e-06	-3.955332e-07	-1.198481e-09	-2.976456e+00	-8.110693e+01
1.680000e-06	-3.735138e-07	-1.169224e-09	-2.810757e+00	-7.932599e+01
1.690000e-06	-3.514330e-07	-1.145234e-09	-2.644595e+00	-7.751598e+01
1.700000e-06	-3.293593e-07	-1.120919e-09	-2.478486e+00	-7.567641e+01
1.710000e-06	-3.073612e-07	-1.094199e-09	-2.312947e+00	-7.380678e+01
1.720000e-06	-2.852914e-07	-1.065860e-09	-2.146868e+00	-7.190671e+01
1.730000e-06	-2.631767e-07	-1.036511e-09	-1.980451e+00	-6.997585e+01
1.740000e-06	-2.409966e-07	-1.005325e-09	-1.813541e+00	-6.801393e+01
1.750000e-06	-2.187271e-07	-9.731032e-10	-1.645960e+00	-6.602076e+01
1.760000e-06	-1.965191e-07	-9.402211e-10	-1.478841e+00	-6.399622e+01
1.770000e-06	-1.743949e-07	-9.089670e-10	-1.312352e+00	-6.194031e+01
1.780000e-06	-1.523040e-07	-8.812858e-10	-1.146114e+00	-5.985308e+01
1.790000e-06	-1.301562e-07	-8.532438e-10	-9.794483e-01	-5.773469e+01
1.800000e-06	-1.079326e-07	-8.223298e-10	-8.122118e-01	-5.558540e+01
1.810000e-06	-8.571211e-08	-7.902666e-10	-6.449987e-01	-5.340556e+01
1.820000e-06	-6.347921e-08	-7.579873e-10	-4.776922e-01	-5.119563e+01
1.830000e-06	-4.122206e-08	-7.236500e-10	-3.102032e-01	-4.895614e+01
1.840000e-06	-1.894920e-08	-6.891158e-10	-1.425960e-01	-4.668775e+01
1.850000e-06	3.330718e-09	-6.551486e-10	2.506423e-02	-4.439120e+01
1.860000e-06	2.559418e-08	-6.215611e-10	1.926007e-01	-4.206733e+01
1.870000e-06	4.782696e-08	-5.850870e-10	3.599063e-01	-3.971708e+01
1.880000e-06	7.006615e-08	-5.495251e-10	5.272600e-01	-3.734146e+01
1.890000e-06	9.231748e-08	-5.168831e-10	6.947052e-01	-3.494159e+01
1.900000e-06	1.145255e-07	-4.836476e-10	8.618246e-01	-3.251866e+01
1.910000e-06	1.366720e-07	-4.489491e-10	1.028481e+00	-3.007393e+01
1.920000e-06	1.587902e-07	-4.138911e-10	1.194924e+00	-2.760875e+01
1.930000e-06	1.809338e-07	-3.788257e-10	1.361558e+00	-2.512451e+01
1.940000e-06	2.030938e-07	-3.455863e-10	1.528316e+00	-2.262269e+01
1.950000e-06	2.252560e-07	-3.080570e-10	1.695091e+00	-2.010481e+01
1.960000e-06	2.474033e-07	-2.681829e-10	1.861753e+00	-1.757242e+01
1.970000e-06	2.695250e-07	-2.316870e-10	2.028223e+00	-1.502713e+01
1.980000e-06	2.916055e-07	-1.961547e-10	2.194382e+00	-1.247057e+01
1.990000e-06	3.136200e-07	-1.594097e-10	2.360045e+00	-9.904401e+00
2.000000e-06	3.356377e-07	-1.207418e-10	2.525733e+00	-7.330290e+00
2.010000e-06	3.576538e-07	-8.447657e-11	2.691407e+00	-4.749920e+00
2.020000e-06	3.796252e-07	-4.919050e-11	2.856746e+00	-2.164973e+00
2.030000e-06	4.015641e-07	-1.307191e-11	3.021840e+00	4.228766e-01
2.040000e-06	4.235164e-07	2.452428e-11	3.187035e+00	3.011968e+00
2.050000e-06	4.454353e-07	6.434548e-11	3.351979e+00	5.600660e+00
2.060000e-06	4.673156e-07	1.031549e-10	3.516632e+00	8.187341e+00
2.070000e-06	4.891709e-07	1.423173e-10	3.681097e+00	1.077043e+01
2.080000e-06	5.110159e-07	1.819555e-10	3.845484e+00	1.334839e+01
2.090000e-06	5.328726e-07	2.204078e-10	4.009960e+00	1.591972e+01
2.100000e-06	5.547262e-07	2.563975e-10	4.174412e+00	1.848298e+01
2.110000e-06	5.765669e-07	2.903851e-10	4.338767e+00	2.103678e+01
2.120000e-06	5.984036e-07	3.259550e-10	4.503092e+00	2.357978e+01
2.130000e-06	6.202167e-07	3.626044e-10	4.667239e+00	2.611072e+01
2.140000e-06	6.418564e-07	3.996725e-10	4.830082e+00	2.862838e+01
2.150000e-06	6.634129e-07	4.351471e-10	4.992298e+00	3.113162e+01
2.160000e-06	6.849890e-07	4.716629e-10	5.154663e+00	3.361938e+01
2.170000e-06	7.065563e-07	5.098037e-10	5.316960e+00	3.609064e+01
2.180000e-06	7.280982e-07	5.471074e-10	5.479066e+00	3.854447e+01
2.190000e-06	7.495698e-07	5.821763e-10	5.640644e+00	4.098001e+01
2.200000e-06	7.708911e-07	6.165791e-10	5.801091e+00	4.339644e+01
2.210000e-06	7.921128e-07	6.519646e-10	5.960788e+00	4.579305e+01
2.220000e-06	8.133170e-07	6.860827e-10	6.120353e+00	4.816917e+01
2.230000e-06	8.344289e-07	7.195670e-10	6.279224e+00	5.052420e+01
2.240000e-06	8.554467e-07	7.529370e-10	6.437386e+00	5.285758e+01
2.250000e-06	8.764229e-07	7.871816e-10	6.595236e+00	5.516884e+01
2.260000e-06	8.974519e-07	8.228542e-10	6.753483e+00	5.745756e+01
2.270000e-06	9.184151e-07	8.596152e-10	6.911234e+00	5.972334e+01
2.280000e-06	9.391888e-07	8.955638e-10	7.067560e+00	6.196587e+01
2.290000e-06	9.598587e-07	9.282801e-10	7.223105e+00	6.418486e+01
2.300000e-06	9.804563e-07	9.590211e-10	7.378105e+00	6.638005e+01
2.310000e-06	1.000949e-06	9.907087e-10	7.532315e+00	6.855125e+01
2.320000e-06	1.021349e-06	1.024274e-09	7.685827e+00	7.069827e+01
2.330000e-06	1.041617e-06	1.057141e-09	7.838348e+00	7.282096e+01
2.340000e-06	1.061753e-06	1.086818e-09	7.989877e+00	7.491921e+01
2.350000e-06	1.081814e-06	1.115175e-09	8.140840e+00	7.699290e+01
2.360000e-06	1.101866e-06	1.143970e-09	8.291737e+00	7.904194e+01
2.370000e-06	1.121946e-06	1.173143e-09	8.442837e+00	8.106627e+01
2.380000e-06	1.142015e-06	1.203294e-09	8.593865e+00	8.306582e+01
2.390000e-06	1.162059e-06	1.234004e-09	8.744694e+00	8.504054e+01
2.400000e-06	1.182011e-06	1.263696e-09	8.894844e+00	8.699038e+01
2.410000e-06	1.201899e-06	1.292336e-09	9.044499e+00	8.891529e+01
2.420000e-06	1.221780e-06	1.320575e-09	9.194111e+00	9.081522e+01
2.430000e-06	1.241668e-06	1.348004e-09	9.343767e+00	9.269014e+01
2.440000e-06	1.261532e-06	1.376618e-09	9.493248e+00	9.453999e+01
2.450000e-06	1.281380e-06	1.404878e-09	9.642606e+00	9.636473e+01
2.460000e-06	1.301203e-06	1.430486e-09	9.791779e+00	9.816432e+01
2.470000e-06	1.320980e-06	1.453912e-09	9.940606e+00	9.993868e+01
2.480000e-06	1.340688e-06	1.479567e-09	1.008891e+01	1.016878e+02
2.490000e-06	1.360352e-06	1.508685e-09	1.023689e+01	1.034116e+02
2.500000e-06	1.379952e-06	1.537050e-09	1.038438e+01	1.051100e+02
2.510000e-06	1.399457e-06	1.561521e-09	1.053116e+01	1.067829e+02
2.520000e-06	1.418877e-06	1.584878e-09	1.067730e+01	1.084304e+02
2.530000e-06	1.438191e-06	1.611813e-09	1.082264e+01	1.100523e+02
2.540000e-06	1.457438e-06	1.640096e-09	1.096748e+01	1.116487e+02
2.550000e-06	1.476627e-06	1.662109e-09	1.111187e+01	1.132194e+02
2.560000e-06	1.495721e-06	1.680671e-09	1.125556e+01	1.147645e+02
2.570000e-06	1.514695e-06	1.703013e-09	1.139834e+01	1.162839e+02
2.580000e-06	1.533434e-06	1.730057e-09	1.153936e+01	1.177777e+02
2.590000e-06	1.551954e-06	1.755638e-09	1.167873e+01	1.192458e+02
2.600000e-06	1.570364e-06	1.775112e-09	1.181726e+01	1.206883e+02
2.610000e-06	1.588650e-06	1.794096e-09	1.195487e+01	1.221052e+02
2.620000e-06	1.606815e-06	1.816388e-09	1.209156e+01	1.234967e+02
2.630000e-06	1.624826e-06	1.840084e-09	1.222710e+01	1.248628e+02
2.640000e-06	1.642701e-06	1.859950e-09	1.236161e+01	1.262037e+02
2.650000e-06	1.660470e-06	1.878218e-09	1.249533e+01	1.275194e+02
2.660000e-06	1.678125e-06	1.898952e-09	1.262818e+01	1.288103e+02
2.670000e-06	1.695711e-06	1.920960e-09	1.276052e+01	1.300764e+02
2.680000e-06	1.713178e-06	1.938540e-09	1.289196e+01	1.313182e+02
2.690000e-06	1.730590e-06	1.952609e-09	1.302299e+01	1.325357e+02
2.700000e-06	1.747965e-06	1.970398e-09	1.315375e+01	1.337293e+02
2.710000e-06	1.765246e-06	1.993198e-09	1.328379e+01	1.348995e+02
2.720000e-06	1.782404e-06	2.013033e-09	1.341290e+01	1.360464e+02
2.730000e-06	1.799411e-06	2.027829e-09	1.354088e+01	1.371706e+02
2.740000e-06	1.816419e-06	2.044283e-09	1.366887e+01	1.382724e+02
2.750000e-06	1.833361e-06	2.063239e-09	1.379636e+01	1.393522e+02
2.760000e-06	1.850203e-06	2.079668e-09	1.392311e+01	1.404107e+02
2.770000e-06	1.866965e-06	2.090945e-09	1.404924e+01	1.414481e+02
2.780000e-06	1.883619e-06	2.103932e-09	1.417457e+01	1.424651e+02
2.790000e-06	1.900132e-06	2.122481e-09	1.429882e+01	1.434622e+02
2.800000e-06	1.916403e-06	2.142216e-09	1.442127e+01	1.444399e+02
2.810000e-06	1.932471e-06	2.157235e-09	1.454218e+01	1.453987e+02
2.820000e-06	1.948317e-06	2.170411e-09	1.466143e+01	1.463393e+02
2.830000e-06	1.963987e-06	2.188337e-09	1.477934e+01	1.472621e+02
2.840000e-06	1.979403e-06	2.204693e-09	1.489535e+01	1.481678e+02
2.850000e-06	1.994572e-06	2.215883e-09	1.500951e+01	1.490569e+02
2.860000e-06	2.009550e-06	2.228800e-09	1.512222e+01	1.499299e+02
2.870000e-06	2.024353e-06	2.245280e-09	1.523361e+01	1.507874e+02
2.880000e-06	2.038953e-06	2.260547e-09	1.534348e+01	1.516300e+02
2.890000e-06	2.053278e-06	2.271184e-09	1.545128e+01	1.524581e+02
2.900000e-06	2.067504e-06	2.283379e-09	1.555833e+01	1.532722e+02
