# Temperatura_=_20.0
# Concentracion g/m^3_=_9000.0
# C_Vs_to_Am_M_A/Vsm_=_65563218390.804596
# pendiente_HvsI_1/m_=_3716.3
# ordenada_HvsI_A/m_=_1297.0
# frecuencia_Hz_=_134981.3740193953

Tiempo_(s)	Campo_(V.s)	Magnetizacion_(V.s)	Campo_(kA/m)	Magnetizacion_(A/m)
0.000000e+00	-2.642486e-06	-2.831059e-09	-1.986620e+01	-1.851544e+02
1.000000e-08	-2.642790e-06	-2.830622e-09	-1.986848e+01	-1.851893e+02
2.000000e-08	-2.642978e-06	-2.779821e-09	-1.986990e+01	-1.852130e+02
3.000000e-08	-2.642994e-06	-2.713501e-09	-1.987001e+01	-1.852253e+02
4.000000e-08	-2.642861e-06	-2.705792e-09	-1.986902e+01	-1.852264e+02
5.000000e-08	-2.642609e-06	-2.788264e-09	-1.986712e+01	-1.852161e+02
6.000000e-08	-2.642226e-06	-2.880370e-09	-1.986424e+01	-1.851944e+02
7.000000e-08	-2.641665e-06	-2.902908e-09	-1.986003e+01	-1.851615e+02
8.000000e-08	-2.640814e-06	-2.860982e-09	-1.985362e+01	-1.851175e+02
9.000000e-08	-2.639659e-06	-2.840261e-09	-1.984494e+01	-1.850624e+02
1.000000e-07	-2.638322e-06	-2.893179e-09	-1.983489e+01	-1.849964e+02
1.100000e-07	-2.636758e-06	-2.834659e-09	-1.982314e+01	-1.849198e+02
1.200000e-07	-2.634843e-06	-2.735807e-09	-1.980873e+01	-1.848329e+02
1.300000e-07	-2.632534e-06	-2.691676e-09	-1.979138e+01	-1.847358e+02
1.400000e-07	-2.629862e-06	-2.783652e-09	-1.977129e+01	-1.846290e+02
1.500000e-07	-2.626901e-06	-2.850449e-09	-1.974903e+01	-1.845127e+02
1.600000e-07	-2.623676e-06	-2.821422e-09	-1.972478e+01	-1.843873e+02
1.700000e-07	-2.620236e-06	-2.715212e-09	-1.969892e+01	-1.842533e+02
1.800000e-07	-2.616676e-06	-2.749611e-09	-1.967216e+01	-1.841111e+02
1.900000e-07	-2.613045e-06	-2.870963e-09	-1.964486e+01	-1.839610e+02
2.000000e-07	-2.609334e-06	-2.859609e-09	-1.961696e+01	-1.838036e+02
2.100000e-07	-2.605517e-06	-2.740191e-09	-1.958826e+01	-1.836394e+02
2.200000e-07	-2.601612e-06	-2.712372e-09	-1.955891e+01	-1.834687e+02
2.300000e-07	-2.597632e-06	-2.845155e-09	-1.952898e+01	-1.832921e+02
2.400000e-07	-2.593576e-06	-2.888848e-09	-1.949849e+01	-1.831100e+02
2.500000e-07	-2.589333e-06	-2.773470e-09	-1.946659e+01	-1.829229e+02
2.600000e-07	-2.584871e-06	-2.629843e-09	-1.943305e+01	-1.827313e+02
2.700000e-07	-2.580197e-06	-2.714750e-09	-1.939791e+01	-1.825356e+02
2.800000e-07	-2.575261e-06	-2.838278e-09	-1.936080e+01	-1.823363e+02
2.900000e-07	-2.570196e-06	-2.800303e-09	-1.932272e+01	-1.821337e+02
3.000000e-07	-2.564940e-06	-2.629203e-09	-1.928321e+01	-1.819283e+02
3.100000e-07	-2.559431e-06	-2.633690e-09	-1.924179e+01	-1.817203e+02
3.200000e-07	-2.553851e-06	-2.791797e-09	-1.919984e+01	-1.815102e+02
3.300000e-07	-2.548182e-06	-2.857479e-09	-1.915722e+01	-1.812981e+02
3.400000e-07	-2.542292e-06	-2.703714e-09	-1.911294e+01	-1.810844e+02
3.500000e-07	-2.536105e-06	-2.593956e-09	-1.906643e+01	-1.808692e+02
3.600000e-07	-2.529709e-06	-2.699502e-09	-1.901834e+01	-1.806528e+02
3.700000e-07	-2.523234e-06	-2.834014e-09	-1.896966e+01	-1.804352e+02
3.800000e-07	-2.516534e-06	-2.764060e-09	-1.891929e+01	-1.802165e+02
3.900000e-07	-2.509557e-06	-2.621115e-09	-1.886684e+01	-1.799968e+02
4.000000e-07	-2.502401e-06	-2.655986e-09	-1.881304e+01	-1.797760e+02
4.100000e-07	-2.495137e-06	-2.799646e-09	-1.875843e+01	-1.795541e+02
4.200000e-07	-2.487794e-06	-2.809804e-09	-1.870322e+01	-1.793309e+02
4.300000e-07	-2.480269e-06	-2.676546e-09	-1.864665e+01	-1.791065e+02
4.400000e-07	-2.472596e-06	-2.630354e-09	-1.858897e+01	-1.788804e+02
4.500000e-07	-2.464860e-06	-2.723010e-09	-1.853081e+01	-1.786527e+02
4.600000e-07	-2.457024e-06	-2.781338e-09	-1.847189e+01	-1.784228e+02
4.700000e-07	-2.449104e-06	-2.695009e-09	-1.841235e+01	-1.781907e+02
4.800000e-07	-2.441089e-06	-2.613915e-09	-1.835210e+01	-1.779559e+02
4.900000e-07	-2.432865e-06	-2.655857e-09	-1.829027e+01	-1.777181e+02
5.000000e-07	-2.424486e-06	-2.742150e-09	-1.822728e+01	-1.774769e+02
5.100000e-07	-2.416033e-06	-2.721315e-09	-1.816373e+01	-1.772319e+02
5.200000e-07	-2.407353e-06	-2.642391e-09	-1.809847e+01	-1.769826e+02
5.300000e-07	-2.398275e-06	-2.632431e-09	-1.803022e+01	-1.767288e+02
5.400000e-07	-2.388876e-06	-2.704991e-09	-1.795956e+01	-1.764698e+02
5.500000e-07	-2.379200e-06	-2.721901e-09	-1.788682e+01	-1.762052e+02
5.600000e-07	-2.369154e-06	-2.652668e-09	-1.781129e+01	-1.759347e+02
5.700000e-07	-2.358768e-06	-2.605200e-09	-1.773321e+01	-1.756577e+02
5.800000e-07	-2.348182e-06	-2.653897e-09	-1.765362e+01	-1.753738e+02
5.900000e-07	-2.337490e-06	-2.698717e-09	-1.757324e+01	-1.750827e+02
6.000000e-07	-2.326605e-06	-2.660656e-09	-1.749141e+01	-1.747838e+02
6.100000e-07	-2.315445e-06	-2.597426e-09	-1.740750e+01	-1.744768e+02
6.200000e-07	-2.304057e-06	-2.608526e-09	-1.732189e+01	-1.741613e+02
6.300000e-07	-2.292495e-06	-2.658609e-09	-1.723497e+01	-1.738370e+02
6.400000e-07	-2.280841e-06	-2.651330e-09	-1.714735e+01	-1.735035e+02
6.500000e-07	-2.269056e-06	-2.591566e-09	-1.705875e+01	-1.731606e+02
6.600000e-07	-2.257068e-06	-2.575996e-09	-1.696863e+01	-1.728081e+02
6.700000e-07	-2.244924e-06	-2.620236e-09	-1.687733e+01	-1.724456e+02
6.800000e-07	-2.232629e-06	-2.637184e-09	-1.678489e+01	-1.720731e+02
6.900000e-07	-2.220133e-06	-2.593936e-09	-1.669095e+01	-1.716904e+02
7.000000e-07	-2.207458e-06	-2.559867e-09	-1.659566e+01	-1.712974e+02
7.100000e-07	-2.194674e-06	-2.579903e-09	-1.649955e+01	-1.708940e+02
7.200000e-07	-2.181739e-06	-2.603515e-09	-1.640231e+01	-1.704802e+02
7.300000e-07	-2.168623e-06	-2.582759e-09	-1.630370e+01	-1.700559e+02
7.400000e-07	-2.155289e-06	-2.545159e-09	-1.620345e+01	-1.696213e+02
7.500000e-07	-2.141779e-06	-2.540410e-09	-1.610189e+01	-1.691764e+02
7.600000e-07	-2.128155e-06	-2.557941e-09	-1.599946e+01	-1.687213e+02
7.700000e-07	-2.114309e-06	-2.557828e-09	-1.589537e+01	-1.682562e+02
7.800000e-07	-2.100310e-06	-2.524625e-09	-1.579012e+01	-1.677811e+02
7.900000e-07	-2.086168e-06	-2.501678e-09	-1.568380e+01	-1.672963e+02
8.000000e-07	-2.071744e-06	-2.511741e-09	-1.557536e+01	-1.668020e+02
8.100000e-07	-2.057089e-06	-2.526104e-09	-1.546519e+01	-1.662984e+02
8.200000e-07	-2.042267e-06	-2.506853e-09	-1.535375e+01	-1.657857e+02
8.300000e-07	-2.027309e-06	-2.478657e-09	-1.524130e+01	-1.652642e+02
8.400000e-07	-2.012257e-06	-2.476308e-09	-1.512814e+01	-1.647341e+02
8.500000e-07	-1.996890e-06	-2.490087e-09	-1.501261e+01	-1.641956e+02
8.600000e-07	-1.981150e-06	-2.478624e-09	-1.489428e+01	-1.636490e+02
8.700000e-07	-1.965219e-06	-2.448200e-09	-1.477451e+01	-1.630946e+02
8.800000e-07	-1.949109e-06	-2.434881e-09	-1.465340e+01	-1.625325e+02
8.900000e-07	-1.932858e-06	-2.443059e-09	-1.453121e+01	-1.619630e+02
9.000000e-07	-1.916516e-06	-2.438819e-09	-1.440836e+01	-1.613862e+02
9.100000e-07	-1.899931e-06	-2.416191e-09	-1.428368e+01	-1.608024e+02
9.200000e-07	-1.883171e-06	-2.399057e-09	-1.415767e+01	-1.602117e+02
9.300000e-07	-1.866367e-06	-2.400832e-09	-1.403133e+01	-1.596141e+02
9.400000e-07	-1.849402e-06	-2.402901e-09	-1.390380e+01	-1.590099e+02
9.500000e-07	-1.832369e-06	-2.388257e-09	-1.377574e+01	-1.583991e+02
9.600000e-07	-1.815240e-06	-2.365639e-09	-1.364696e+01	-1.577816e+02
9.700000e-07	-1.797967e-06	-2.355875e-09	-1.351711e+01	-1.571576e+02
9.800000e-07	-1.780652e-06	-2.359101e-09	-1.338694e+01	-1.565269e+02
9.900000e-07	-1.763293e-06	-2.351319e-09	-1.325643e+01	-1.558895e+02
1.000000e-06	-1.745831e-06	-2.330629e-09	-1.312515e+01	-1.552453e+02
1.010000e-06	-1.728254e-06	-2.315968e-09	-1.299301e+01	-1.545941e+02
1.020000e-06	-1.710587e-06	-2.314423e-09	-1.286019e+01	-1.539357e+02
1.030000e-06	-1.692845e-06	-2.308878e-09	-1.272680e+01	-1.532700e+02
1.040000e-06	-1.675028e-06	-2.292497e-09	-1.259285e+01	-1.525968e+02
1.050000e-06	-1.657091e-06	-2.275704e-09	-1.245800e+01	-1.519156e+02
1.060000e-06	-1.639002e-06	-2.267046e-09	-1.232201e+01	-1.512262e+02
1.070000e-06	-1.620810e-06	-2.259270e-09	-1.218524e+01	-1.505283e+02
1.080000e-06	-1.602513e-06	-2.247032e-09	-1.204769e+01	-1.498215e+02
1.090000e-06	-1.584137e-06	-2.231920e-09	-1.190954e+01	-1.491055e+02
1.100000e-06	-1.565670e-06	-2.220129e-09	-1.177070e+01	-1.483798e+02
1.110000e-06	-1.547075e-06	-2.213900e-09	-1.163091e+01	-1.476440e+02
1.120000e-06	-1.528318e-06	-2.206543e-09	-1.148989e+01	-1.468976e+02
1.130000e-06	-1.509377e-06	-2.191846e-09	-1.134749e+01	-1.461404e+02
1.140000e-06	-1.490376e-06	-2.178126e-09	-1.120464e+01	-1.453717e+02
1.150000e-06	-1.471248e-06	-2.169243e-09	-1.106084e+01	-1.445911e+02
1.160000e-06	-1.451845e-06	-2.162367e-09	-1.091496e+01	-1.437983e+02
1.170000e-06	-1.432324e-06	-2.147034e-09	-1.076821e+01	-1.429927e+02
1.180000e-06	-1.412818e-06	-2.128961e-09	-1.062156e+01	-1.421739e+02
1.190000e-06	-1.393290e-06	-2.115580e-09	-1.047474e+01	-1.413415e+02
1.200000e-06	-1.373680e-06	-2.104647e-09	-1.032732e+01	-1.404951e+02
1.210000e-06	-1.353982e-06	-2.092952e-09	-1.017923e+01	-1.396342e+02
1.220000e-06	-1.334289e-06	-2.079457e-09	-1.003118e+01	-1.387584e+02
1.230000e-06	-1.314564e-06	-2.066364e-09	-9.882886e+00	-1.378675e+02
1.240000e-06	-1.294796e-06	-2.055796e-09	-9.734268e+00	-1.369609e+02
1.250000e-06	-1.274985e-06	-2.045239e-09	-9.585334e+00	-1.360385e+02
1.260000e-06	-1.255127e-06	-2.029045e-09	-9.436042e+00	-1.350998e+02
1.270000e-06	-1.235277e-06	-2.010262e-09	-9.286810e+00	-1.341447e+02
1.280000e-06	-1.215410e-06	-1.992396e-09	-9.137448e+00	-1.331727e+02
1.290000e-06	-1.195523e-06	-1.975288e-09	-8.987936e+00	-1.321838e+02
1.300000e-06	-1.175611e-06	-1.958784e-09	-8.838241e+00	-1.311776e+02
1.310000e-06	-1.155614e-06	-1.944844e-09	-8.687903e+00	-1.301539e+02
1.320000e-06	-1.135593e-06	-1.930282e-09	-8.537386e+00	-1.291126e+02
1.330000e-06	-1.115504e-06	-1.913365e-09	-8.386354e+00	-1.280535e+02
1.340000e-06	-1.095307e-06	-1.894933e-09	-8.234510e+00	-1.269764e+02
1.350000e-06	-1.075056e-06	-1.877348e-09	-8.082266e+00	-1.258812e+02
1.360000e-06	-1.054695e-06	-1.860021e-09	-7.929191e+00	-1.247677e+02
1.370000e-06	-1.034239e-06	-1.841621e-09	-7.775403e+00	-1.236360e+02
1.380000e-06	-1.013779e-06	-1.821102e-09	-7.621583e+00	-1.224857e+02
1.390000e-06	-9.932410e-07	-1.803019e-09	-7.467181e+00	-1.213169e+02
1.400000e-06	-9.725145e-07	-1.787585e-09	-7.311359e+00	-1.201294e+02
1.410000e-06	-9.516786e-07	-1.770707e-09	-7.154715e+00	-1.189230e+02
1.420000e-06	-9.308466e-07	-1.752735e-09	-6.998101e+00	-1.176978e+02
1.430000e-06	-9.100117e-07	-1.736696e-09	-6.841464e+00	-1.164536e+02
1.440000e-06	-8.890834e-07	-1.719696e-09	-6.684125e+00	-1.151902e+02
1.450000e-06	-8.679880e-07	-1.697984e-09	-6.525530e+00	-1.139074e+02
1.460000e-06	-8.467877e-07	-1.677026e-09	-6.366146e+00	-1.126052e+02
1.470000e-06	-8.255296e-07	-1.658164e-09	-6.206328e+00	-1.112834e+02
1.480000e-06	-8.041552e-07	-1.639215e-09	-6.045635e+00	-1.099417e+02
1.490000e-06	-7.827440e-07	-1.621252e-09	-5.884666e+00	-1.085800e+02
1.500000e-06	-7.613175e-07	-1.601504e-09	-5.723581e+00	-1.071979e+02
1.510000e-06	-7.398464e-07	-1.579838e-09	-5.562162e+00	-1.057953e+02
1.520000e-06	-7.183435e-07	-1.559308e-09	-5.400503e+00	-1.043718e+02
1.530000e-06	-6.967687e-07	-1.537234e-09	-5.238304e+00	-1.029272e+02
1.540000e-06	-6.751291e-07	-1.511898e-09	-5.075618e+00	-1.014610e+02
1.550000e-06	-6.534370e-07	-1.487802e-09	-4.912536e+00	-9.997307e+01
1.560000e-06	-6.317336e-07	-1.463869e-09	-4.749370e+00	-9.846287e+01
1.570000e-06	-6.100140e-07	-1.440109e-09	-4.586082e+00	-9.693005e+01
1.580000e-06	-5.882356e-07	-1.416171e-09	-4.422353e+00	-9.537419e+01
1.590000e-06	-5.664497e-07	-1.392035e-09	-4.258566e+00	-9.379487e+01
1.600000e-06	-5.446239e-07	-1.369710e-09	-4.094480e+00	-9.219163e+01
1.610000e-06	-5.227524e-07	-1.346953e-09	-3.930050e+00	-9.056404e+01
1.620000e-06	-5.008802e-07	-1.323215e-09	-3.765615e+00	-8.891162e+01
1.630000e-06	-4.790032e-07	-1.295504e-09	-3.601144e+00	-8.723393e+01
1.640000e-06	-4.570995e-07	-1.266917e-09	-3.436472e+00	-8.553050e+01
1.650000e-06	-4.351385e-07	-1.241866e-09	-3.271370e+00	-8.380088e+01
1.660000e-06	-4.131517e-07	-1.215157e-09	-3.106073e+00	-8.204463e+01
1.670000e-06	-3.911387e-07	-1.183556e-09	-2.940579e+00	-8.026133e+01
1.680000e-06	-3.691010e-07	-1.154150e-09	-2.774900e+00	-7.845058e+01
1.690000e-06	-3.470314e-07	-1.128419e-09	-2.608981e+00	-7.661200e+01
1.700000e-06	-3.249505e-07	-1.102433e-09	-2.442976e+00	-7.474525e+01
1.710000e-06	-3.028491e-07	-1.074094e-09	-2.276818e+00	-7.285002e+01
1.720000e-06	-2.806712e-07	-1.044461e-09	-2.110085e+00	-7.092605e+01
1.730000e-06	-2.585229e-07	-1.015587e-09	-1.943574e+00	-6.897312e+01
1.740000e-06	-2.363697e-07	-9.863266e-10	-1.777026e+00	-6.699106e+01
1.750000e-06	-2.142041e-07	-9.552308e-10	-1.610385e+00	-6.497976e+01
1.760000e-06	-1.920539e-07	-9.246504e-10	-1.443861e+00	-6.293919e+01
1.770000e-06	-1.698853e-07	-8.968270e-10	-1.277197e+00	-6.086934e+01
1.780000e-06	-1.477424e-07	-8.686296e-10	-1.110726e+00	-5.877032e+01
1.790000e-06	-1.256108e-07	-8.367997e-10	-9.443412e-01	-5.664227e+01
1.800000e-06	-1.034795e-07	-8.039731e-10	-7.779586e-01	-5.448544e+01
1.810000e-06	-8.133555e-08	-7.715402e-10	-6.114803e-01	-5.230013e+01
1.820000e-06	-5.922242e-08	-7.388500e-10	-4.452339e-01	-5.008673e+01
1.830000e-06	-3.707363e-08	-7.036636e-10	-2.787194e-01	-4.784572e+01
1.840000e-06	-1.488351e-08	-6.669188e-10	-1.118942e-01	-4.557765e+01
1.850000e-06	7.238818e-09	-6.328827e-10	5.442140e-02	-4.328315e+01
1.860000e-06	2.939000e-08	-6.001400e-10	2.209539e-01	-4.096295e+01
1.870000e-06	5.156827e-08	-5.651325e-10	3.876900e-01	-3.861784e+01
1.880000e-06	7.371267e-08	-5.288546e-10	5.541715e-01	-3.624871e+01
1.890000e-06	9.584200e-08	-4.940401e-10	7.205397e-01	-3.385652e+01
1.900000e-06	1.179961e-07	-4.594953e-10	8.870942e-01	-3.144230e+01
1.910000e-06	1.400807e-07	-4.242763e-10	1.053126e+00	-2.900717e+01
1.920000e-06	1.620657e-07	-3.877214e-10	1.218409e+00	-2.655230e+01
1.930000e-06	1.841133e-07	-3.510246e-10	1.384163e+00	-2.407893e+01
1.940000e-06	2.062231e-07	-3.159712e-10	1.550385e+00	-2.158838e+01
1.950000e-06	2.283400e-07	-2.801273e-10	1.716659e+00	-1.908200e+01
1.960000e-06	2.504214e-07	-2.425554e-10	1.882667e+00	-1.656122e+01
1.970000e-06	2.725074e-07	-2.058335e-10	2.048709e+00	-1.402750e+01
1.980000e-06	2.946124e-07	-1.706107e-10	2.214895e+00	-1.148233e+01
1.990000e-06	3.166343e-07	-1.343586e-10	2.380455e+00	-8.927256e+00
2.000000e-06	3.386273e-07	-9.566824e-11	2.545799e+00	-6.363842e+00
2.010000e-06	3.606684e-07	-5.846695e-11	2.711503e+00	-3.793673e+00
2.020000e-06	3.826357e-07	-2.363494e-11	2.876654e+00	-1.218352e+00
2.030000e-06	4.045385e-07	1.150857e-11	3.041318e+00	1.360510e+00
2.040000e-06	4.264639e-07	4.828546e-11	3.206154e+00	3.941301e+00
2.050000e-06	4.484032e-07	8.813907e-11	3.371093e+00	6.522411e+00
2.060000e-06	4.703675e-07	1.282716e-10	3.536220e+00	9.102243e+00
2.070000e-06	4.922469e-07	1.656368e-10	3.700710e+00	1.167921e+01
2.080000e-06	5.140298e-07	2.034423e-10	3.864474e+00	1.425177e+01
2.090000e-06	5.358465e-07	2.431138e-10	4.028491e+00	1.681837e+01
2.100000e-06	5.576646e-07	2.805402e-10	4.192520e+00	1.937753e+01
2.110000e-06	5.794242e-07	3.151054e-10	4.356108e+00	2.192778e+01
2.120000e-06	6.011204e-07	3.499993e-10	4.519220e+00	2.446772e+01
2.130000e-06	6.227981e-07	3.870386e-10	4.682193e+00	2.699598e+01
2.140000e-06	6.444581e-07	4.242242e-10	4.845033e+00	2.951124e+01
2.150000e-06	6.660571e-07	4.588345e-10	5.007414e+00	3.201225e+01
2.160000e-06	6.876301e-07	4.938139e-10	5.169600e+00	3.449782e+01
2.170000e-06	7.091856e-07	5.307057e-10	5.331654e+00	3.696680e+01
2.180000e-06	7.306853e-07	5.660745e-10	5.493289e+00	3.941813e+01
2.190000e-06	7.521021e-07	5.998948e-10	5.654300e+00	4.185079e+01
2.200000e-06	7.734210e-07	6.347187e-10	5.814576e+00	4.426385e+01
2.210000e-06	7.947179e-07	6.696364e-10	5.974686e+00	4.665643e+01
2.220000e-06	8.160447e-07	7.043081e-10	6.135020e+00	4.902772e+01
2.230000e-06	8.373577e-07	7.394627e-10	6.295251e+00	5.137700e+01
2.240000e-06	8.585691e-07	7.721569e-10	6.454718e+00	5.370358e+01
2.250000e-06	8.796647e-07	8.052049e-10	6.613315e+00	5.600687e+01
2.260000e-06	9.006560e-07	8.418017e-10	6.771127e+00	5.828632e+01
2.270000e-06	9.214770e-07	8.771718e-10	6.927660e+00	6.054145e+01
2.280000e-06	9.421892e-07	9.086240e-10	7.083374e+00	6.277185e+01
2.290000e-06	9.628536e-07	9.388405e-10	7.238729e+00	6.497715e+01
2.300000e-06	9.834426e-07	9.681431e-10	7.393517e+00	6.715706e+01
2.310000e-06	1.003988e-06	9.975679e-10	7.547976e+00	6.931131e+01
2.320000e-06	1.024432e-06	1.029401e-09	7.701675e+00	7.143972e+01
2.330000e-06	1.044805e-06	1.060388e-09	7.854841e+00	7.354212e+01
2.340000e-06	1.065143e-06	1.088791e-09	8.007742e+00	7.561840e+01
2.350000e-06	1.085375e-06	1.118170e-09	8.159847e+00	7.766849e+01
2.360000e-06	1.105570e-06	1.149795e-09	8.311668e+00	7.969236e+01
2.370000e-06	1.125696e-06	1.179715e-09	8.462976e+00	8.169001e+01
2.380000e-06	1.145681e-06	1.208701e-09	8.613223e+00	8.366145e+01
2.390000e-06	1.165603e-06	1.238718e-09	8.762995e+00	8.560676e+01
2.400000e-06	1.185497e-06	1.267643e-09	8.912558e+00	8.752600e+01
2.410000e-06	1.205366e-06	1.296372e-09	9.061934e+00	8.941927e+01
2.420000e-06	1.225197e-06	1.323969e-09	9.211027e+00	9.128670e+01
2.430000e-06	1.245009e-06	1.348693e-09	9.359970e+00	9.312840e+01
2.440000e-06	1.264851e-06	1.375959e-09	9.509141e+00	9.494452e+01
2.450000e-06	1.284649e-06	1.406396e-09	9.657981e+00	9.673523e+01
2.460000e-06	1.304383e-06	1.433123e-09	9.806349e+00	9.850066e+01
2.470000e-06	1.324085e-06	1.456745e-09	9.954463e+00	1.002410e+02
2.480000e-06	1.343705e-06	1.482236e-09	1.010197e+01	1.019564e+02
2.490000e-06	1.363235e-06	1.508991e-09	1.024880e+01	1.036471e+02
2.500000e-06	1.382757e-06	1.534769e-09	1.039556e+01	1.053132e+02
2.510000e-06	1.402284e-06	1.559718e-09	1.054236e+01	1.069548e+02
2.520000e-06	1.421751e-06	1.582875e-09	1.068871e+01	1.085723e+02
2.530000e-06	1.441096e-06	1.607237e-09	1.083415e+01	1.101656e+02
2.540000e-06	1.460332e-06	1.634724e-09	1.097877e+01	1.117351e+02
2.550000e-06	1.479542e-06	1.659920e-09	1.112319e+01	1.132809e+02
2.560000e-06	1.498652e-06	1.681558e-09	1.126686e+01	1.148032e+02
2.570000e-06	1.517589e-06	1.703451e-09	1.140923e+01	1.163021e+02
2.580000e-06	1.536412e-06	1.728736e-09	1.155074e+01	1.177777e+02
2.590000e-06	1.555042e-06	1.754491e-09	1.169080e+01	1.192304e+02
2.600000e-06	1.573476e-06	1.776296e-09	1.182939e+01	1.206602e+02
2.610000e-06	1.591762e-06	1.794973e-09	1.196686e+01	1.220673e+02
2.620000e-06	1.609882e-06	1.814763e-09	1.210309e+01	1.234518e+02
2.630000e-06	1.627896e-06	1.838699e-09	1.223851e+01	1.248140e+02
2.640000e-06	1.645816e-06	1.863274e-09	1.237323e+01	1.261541e+02
2.650000e-06	1.663646e-06	1.883394e-09	1.250728e+01	1.274721e+02
2.660000e-06	1.681404e-06	1.903229e-09	1.264078e+01	1.287684e+02
2.670000e-06	1.699034e-06	1.925080e-09	1.277333e+01	1.300430e+02
2.680000e-06	1.716467e-06	1.944602e-09	1.290439e+01	1.312963e+02
2.690000e-06	1.733790e-06	1.961447e-09	1.303462e+01	1.325283e+02
2.700000e-06	1.751081e-06	1.979583e-09	1.316462e+01	1.337393e+02
2.710000e-06	1.768366e-06	2.001214e-09	1.329457e+01	1.349294e+02
2.720000e-06	1.785579e-06	2.021091e-09	1.342397e+01	1.360991e+02
2.730000e-06	1.802732e-06	2.036857e-09	1.355293e+01	1.372483e+02
2.740000e-06	1.819830e-06	2.053480e-09	1.368147e+01	1.383775e+02
2.750000e-06	1.836789e-06	2.071808e-09	1.380897e+01	1.394868e+02
2.760000e-06	1.853712e-06	2.089590e-09	1.393620e+01	1.405764e+02
2.770000e-06	1.870482e-06	2.103925e-09	1.406228e+01	1.416467e+02
2.780000e-06	1.887060e-06	2.117573e-09	1.418691e+01	1.426978e+02
2.790000e-06	1.903514e-06	2.134443e-09	1.431061e+01	1.437301e+02
2.800000e-06	1.919824e-06	2.153507e-09	1.443322e+01	1.447438e+02
2.810000e-06	1.936018e-06	2.170214e-09	1.455497e+01	1.457392e+02
2.820000e-06	1.951951e-06	2.184403e-09	1.467476e+01	1.467165e+02
2.830000e-06	1.967719e-06	2.200203e-09	1.479330e+01	1.476761e+02
2.840000e-06	1.983428e-06	2.216033e-09	1.491140e+01	1.486181e+02
2.850000e-06	1.998903e-06	2.229359e-09	1.502775e+01	1.495429e+02
2.860000e-06	2.014122e-06	2.243541e-09	1.514216e+01	1.504508e+02
2.870000e-06	2.029049e-06	2.259447e-09	1.525438e+01	1.513419e+02
2.880000e-06	2.043642e-06	2.273657e-09	1.536409e+01	1.522166e+02
2.890000e-06	2.058025e-06	2.286884e-09	1.547222e+01	1.530752e+02
2.900000e-06	2.072257e-06	2.300239e-09	1.557922e+01	1.539178e+02
