# Temperatura_=_20.0
# Concentracion g/m^3_=_9000.0
# C_Vs_to_Am_M_A/Vsm_=_65563218390.804596
# pendiente_HvsI_1/m_=_3716.3
# ordenada_HvsI_A/m_=_1297.0
# frecuencia_Hz_=_134991.13709999545

Tiempo_(s)	Campo_(V.s)	Magnetizacion_(V.s)	Campo_(kA/m)	Magnetizacion_(A/m)
0.000000e+00	-2.641440e-06	-2.875858e-09	-1.986369e+01	-1.885508e+02
1.000000e-08	-2.641739e-06	-2.874352e-09	-1.986594e+01	-1.885610e+02
2.000000e-08	-2.641963e-06	-2.865005e-09	-1.986762e+01	-1.885598e+02
3.000000e-08	-2.642047e-06	-2.848815e-09	-1.986825e+01	-1.885471e+02
4.000000e-08	-2.642019e-06	-2.850086e-09	-1.986804e+01	-1.885230e+02
5.000000e-08	-2.641864e-06	-2.885709e-09	-1.986688e+01	-1.884875e+02
6.000000e-08	-2.641515e-06	-2.923902e-09	-1.986426e+01	-1.884409e+02
7.000000e-08	-2.640997e-06	-2.975785e-09	-1.986036e+01	-1.883832e+02
8.000000e-08	-2.640228e-06	-2.949568e-09	-1.985458e+01	-1.883147e+02
9.000000e-08	-2.639169e-06	-2.928670e-09	-1.984661e+01	-1.882356e+02
1.000000e-07	-2.637920e-06	-2.902004e-09	-1.983723e+01	-1.881461e+02
1.100000e-07	-2.636372e-06	-2.856099e-09	-1.982558e+01	-1.880466e+02
1.200000e-07	-2.634447e-06	-2.788106e-09	-1.981111e+01	-1.879373e+02
1.300000e-07	-2.632179e-06	-2.779745e-09	-1.979405e+01	-1.878185e+02
1.400000e-07	-2.629600e-06	-2.808820e-09	-1.977465e+01	-1.876908e+02
1.500000e-07	-2.626736e-06	-2.865113e-09	-1.975312e+01	-1.875544e+02
1.600000e-07	-2.623598e-06	-2.890768e-09	-1.972952e+01	-1.874097e+02
1.700000e-07	-2.620251e-06	-2.845010e-09	-1.970435e+01	-1.872573e+02
1.800000e-07	-2.616714e-06	-2.820186e-09	-1.967775e+01	-1.870975e+02
1.900000e-07	-2.613087e-06	-2.859898e-09	-1.965048e+01	-1.869307e+02
2.000000e-07	-2.609428e-06	-2.901434e-09	-1.962296e+01	-1.867575e+02
2.100000e-07	-2.605686e-06	-2.854233e-09	-1.959482e+01	-1.865783e+02
2.200000e-07	-2.601840e-06	-2.822296e-09	-1.956590e+01	-1.863936e+02
2.300000e-07	-2.597826e-06	-2.838462e-09	-1.953571e+01	-1.862038e+02
2.400000e-07	-2.593698e-06	-2.882467e-09	-1.950467e+01	-1.860094e+02
2.500000e-07	-2.589440e-06	-2.830718e-09	-1.947265e+01	-1.858107e+02
2.600000e-07	-2.585033e-06	-2.762722e-09	-1.943951e+01	-1.856083e+02
2.700000e-07	-2.580419e-06	-2.745814e-09	-1.940482e+01	-1.854025e+02
2.800000e-07	-2.575579e-06	-2.814747e-09	-1.936842e+01	-1.851937e+02
2.900000e-07	-2.570547e-06	-2.821791e-09	-1.933058e+01	-1.849822e+02
3.000000e-07	-2.565300e-06	-2.773975e-09	-1.929112e+01	-1.847683e+02
3.100000e-07	-2.559920e-06	-2.731991e-09	-1.925066e+01	-1.845524e+02
3.200000e-07	-2.554406e-06	-2.782859e-09	-1.920920e+01	-1.843345e+02
3.300000e-07	-2.548734e-06	-2.836349e-09	-1.916654e+01	-1.841151e+02
3.400000e-07	-2.542858e-06	-2.802509e-09	-1.912235e+01	-1.838941e+02
3.500000e-07	-2.536806e-06	-2.720281e-09	-1.907684e+01	-1.836717e+02
3.600000e-07	-2.530577e-06	-2.722791e-09	-1.903000e+01	-1.834480e+02
3.700000e-07	-2.524111e-06	-2.806508e-09	-1.898137e+01	-1.832229e+02
3.800000e-07	-2.517424e-06	-2.816178e-09	-1.893109e+01	-1.829966e+02
3.900000e-07	-2.510527e-06	-2.738860e-09	-1.887922e+01	-1.827688e+02
4.000000e-07	-2.503453e-06	-2.704840e-09	-1.882603e+01	-1.825395e+02
4.100000e-07	-2.496243e-06	-2.775800e-09	-1.877181e+01	-1.823085e+02
4.200000e-07	-2.488890e-06	-2.810252e-09	-1.871652e+01	-1.820757e+02
4.300000e-07	-2.481378e-06	-2.756151e-09	-1.866003e+01	-1.818406e+02
4.400000e-07	-2.473796e-06	-2.696064e-09	-1.860301e+01	-1.816032e+02
4.500000e-07	-2.466125e-06	-2.725820e-09	-1.854532e+01	-1.813631e+02
4.600000e-07	-2.458284e-06	-2.767630e-09	-1.848636e+01	-1.811198e+02
4.700000e-07	-2.450376e-06	-2.753099e-09	-1.842689e+01	-1.808731e+02
4.800000e-07	-2.442382e-06	-2.697318e-09	-1.836677e+01	-1.806226e+02
4.900000e-07	-2.434242e-06	-2.697257e-09	-1.830556e+01	-1.803677e+02
5.000000e-07	-2.425947e-06	-2.740509e-09	-1.824318e+01	-1.801082e+02
5.100000e-07	-2.417516e-06	-2.760564e-09	-1.817978e+01	-1.798434e+02
5.200000e-07	-2.408827e-06	-2.720534e-09	-1.811444e+01	-1.795730e+02
5.300000e-07	-2.399807e-06	-2.693406e-09	-1.804661e+01	-1.792965e+02
5.400000e-07	-2.390553e-06	-2.713062e-09	-1.797702e+01	-1.790134e+02
5.500000e-07	-2.380997e-06	-2.738133e-09	-1.790515e+01	-1.787234e+02
5.600000e-07	-2.371106e-06	-2.711887e-09	-1.783077e+01	-1.784258e+02
5.700000e-07	-2.360938e-06	-2.670330e-09	-1.775431e+01	-1.781204e+02
5.800000e-07	-2.350536e-06	-2.672029e-09	-1.767608e+01	-1.778066e+02
5.900000e-07	-2.339871e-06	-2.701842e-09	-1.759588e+01	-1.774842e+02
6.000000e-07	-2.328915e-06	-2.698680e-09	-1.751349e+01	-1.771527e+02
6.100000e-07	-2.317775e-06	-2.660986e-09	-1.742972e+01	-1.768119e+02
6.200000e-07	-2.306452e-06	-2.644848e-09	-1.734457e+01	-1.764614e+02
6.300000e-07	-2.294916e-06	-2.665905e-09	-1.725783e+01	-1.761010e+02
6.400000e-07	-2.283249e-06	-2.675946e-09	-1.717009e+01	-1.757305e+02
6.500000e-07	-2.271474e-06	-2.644710e-09	-1.708154e+01	-1.753496e+02
6.600000e-07	-2.259536e-06	-2.618020e-09	-1.699176e+01	-1.749583e+02
6.700000e-07	-2.247517e-06	-2.630672e-09	-1.690138e+01	-1.745564e+02
6.800000e-07	-2.235365e-06	-2.650051e-09	-1.680999e+01	-1.741440e+02
6.900000e-07	-2.223015e-06	-2.628559e-09	-1.671712e+01	-1.737209e+02
7.000000e-07	-2.210525e-06	-2.598204e-09	-1.662320e+01	-1.732873e+02
7.100000e-07	-2.197779e-06	-2.597525e-09	-1.652735e+01	-1.728432e+02
7.200000e-07	-2.184794e-06	-2.611428e-09	-1.642971e+01	-1.723887e+02
7.300000e-07	-2.171658e-06	-2.600456e-09	-1.633092e+01	-1.719240e+02
7.400000e-07	-2.158405e-06	-2.576907e-09	-1.623126e+01	-1.714492e+02
7.500000e-07	-2.144939e-06	-2.564794e-09	-1.613000e+01	-1.709646e+02
7.600000e-07	-2.131320e-06	-2.568510e-09	-1.602758e+01	-1.704704e+02
7.700000e-07	-2.117591e-06	-2.565911e-09	-1.592433e+01	-1.699669e+02
7.800000e-07	-2.103693e-06	-2.550323e-09	-1.581982e+01	-1.694544e+02
7.900000e-07	-2.089622e-06	-2.527815e-09	-1.571400e+01	-1.689332e+02
8.000000e-07	-2.075334e-06	-2.521627e-09	-1.560656e+01	-1.684035e+02
8.100000e-07	-2.060891e-06	-2.528022e-09	-1.549795e+01	-1.678657e+02
8.200000e-07	-2.046278e-06	-2.522876e-09	-1.538806e+01	-1.673202e+02
8.300000e-07	-2.031410e-06	-2.499576e-09	-1.527625e+01	-1.667672e+02
8.400000e-07	-2.016288e-06	-2.486384e-09	-1.516253e+01	-1.662071e+02
8.500000e-07	-2.000916e-06	-2.490304e-09	-1.504693e+01	-1.656401e+02
8.600000e-07	-1.985371e-06	-2.484409e-09	-1.493004e+01	-1.650666e+02
8.700000e-07	-1.969602e-06	-2.460365e-09	-1.481145e+01	-1.644867e+02
8.800000e-07	-1.953554e-06	-2.443621e-09	-1.469077e+01	-1.639009e+02
8.900000e-07	-1.937358e-06	-2.443509e-09	-1.456898e+01	-1.633091e+02
9.000000e-07	-1.920964e-06	-2.439313e-09	-1.444570e+01	-1.627117e+02
9.100000e-07	-1.904446e-06	-2.422768e-09	-1.432148e+01	-1.621087e+02
9.200000e-07	-1.887859e-06	-2.407745e-09	-1.419675e+01	-1.615003e+02
9.300000e-07	-1.871164e-06	-2.402192e-09	-1.407120e+01	-1.608865e+02
9.400000e-07	-1.854321e-06	-2.398058e-09	-1.394454e+01	-1.602673e+02
9.500000e-07	-1.837334e-06	-2.388801e-09	-1.381680e+01	-1.596427e+02
9.600000e-07	-1.820264e-06	-2.372639e-09	-1.368843e+01	-1.590126e+02
9.700000e-07	-1.803139e-06	-2.359791e-09	-1.355965e+01	-1.583769e+02
9.800000e-07	-1.785936e-06	-2.354647e-09	-1.343028e+01	-1.577354e+02
9.900000e-07	-1.768614e-06	-2.349294e-09	-1.330002e+01	-1.570879e+02
1.000000e-06	-1.751185e-06	-2.334527e-09	-1.316896e+01	-1.564341e+02
1.010000e-06	-1.733702e-06	-2.319273e-09	-1.303748e+01	-1.557738e+02
1.020000e-06	-1.716158e-06	-2.310331e-09	-1.290555e+01	-1.551066e+02
1.030000e-06	-1.698501e-06	-2.303358e-09	-1.277277e+01	-1.544320e+02
1.040000e-06	-1.680722e-06	-2.289951e-09	-1.263907e+01	-1.537498e+02
1.050000e-06	-1.662860e-06	-2.276249e-09	-1.250475e+01	-1.530594e+02
1.060000e-06	-1.644960e-06	-2.266593e-09	-1.237014e+01	-1.523604e+02
1.070000e-06	-1.626965e-06	-2.257515e-09	-1.223482e+01	-1.516522e+02
1.080000e-06	-1.608839e-06	-2.244866e-09	-1.209851e+01	-1.509344e+02
1.090000e-06	-1.590539e-06	-2.233002e-09	-1.196089e+01	-1.502064e+02
1.100000e-06	-1.572092e-06	-2.221207e-09	-1.182217e+01	-1.494677e+02
1.110000e-06	-1.553497e-06	-2.210325e-09	-1.168233e+01	-1.487176e+02
1.120000e-06	-1.534720e-06	-2.198852e-09	-1.154113e+01	-1.479557e+02
1.130000e-06	-1.515792e-06	-2.186019e-09	-1.139880e+01	-1.471813e+02
1.140000e-06	-1.496743e-06	-2.173247e-09	-1.125555e+01	-1.463941e+02
1.150000e-06	-1.477569e-06	-2.161956e-09	-1.111136e+01	-1.455933e+02
1.160000e-06	-1.458271e-06	-2.149904e-09	-1.096623e+01	-1.447785e+02
1.170000e-06	-1.438889e-06	-2.134659e-09	-1.082048e+01	-1.439492e+02
1.180000e-06	-1.419442e-06	-2.118135e-09	-1.067424e+01	-1.431049e+02
1.190000e-06	-1.399922e-06	-2.103154e-09	-1.052745e+01	-1.422451e+02
1.200000e-06	-1.380325e-06	-2.089326e-09	-1.038008e+01	-1.413695e+02
1.210000e-06	-1.360692e-06	-2.075105e-09	-1.023244e+01	-1.404777e+02
1.220000e-06	-1.341000e-06	-2.061399e-09	-1.008435e+01	-1.395693e+02
1.230000e-06	-1.321265e-06	-2.047779e-09	-9.935945e+00	-1.386440e+02
1.240000e-06	-1.301507e-06	-2.035738e-09	-9.787367e+00	-1.377015e+02
1.250000e-06	-1.281717e-06	-2.023415e-09	-9.638542e+00	-1.367415e+02
1.260000e-06	-1.261943e-06	-2.010617e-09	-9.489845e+00	-1.357640e+02
1.270000e-06	-1.242160e-06	-1.996344e-09	-9.341070e+00	-1.347687e+02
1.280000e-06	-1.222315e-06	-1.981603e-09	-9.191835e+00	-1.337554e+02
1.290000e-06	-1.202426e-06	-1.964215e-09	-9.042273e+00	-1.327242e+02
1.300000e-06	-1.182499e-06	-1.946961e-09	-8.892422e+00	-1.316749e+02
1.310000e-06	-1.162547e-06	-1.930496e-09	-8.742383e+00	-1.306076e+02
1.320000e-06	-1.142517e-06	-1.914746e-09	-8.591756e+00	-1.295221e+02
1.330000e-06	-1.122343e-06	-1.896918e-09	-8.440045e+00	-1.284186e+02
1.340000e-06	-1.102082e-06	-1.881182e-09	-8.287681e+00	-1.272971e+02
1.350000e-06	-1.081732e-06	-1.868102e-09	-8.134648e+00	-1.261577e+02
1.360000e-06	-1.061320e-06	-1.852362e-09	-7.981151e+00	-1.250004e+02
1.370000e-06	-1.040881e-06	-1.833080e-09	-7.827449e+00	-1.238253e+02
1.380000e-06	-1.020404e-06	-1.814282e-09	-7.673465e+00	-1.226326e+02
1.390000e-06	-9.998667e-07	-1.798589e-09	-7.519021e+00	-1.214222e+02
1.400000e-06	-9.792380e-07	-1.782074e-09	-7.363893e+00	-1.201943e+02
1.410000e-06	-9.584756e-07	-1.760667e-09	-7.207759e+00	-1.189490e+02
1.420000e-06	-9.375680e-07	-1.741060e-09	-7.050534e+00	-1.176863e+02
1.430000e-06	-9.166097e-07	-1.726838e-09	-6.892927e+00	-1.164062e+02
1.440000e-06	-8.956108e-07	-1.709945e-09	-6.735015e+00	-1.151088e+02
1.450000e-06	-8.745322e-07	-1.689385e-09	-6.576503e+00	-1.137940e+02
1.460000e-06	-8.533295e-07	-1.666527e-09	-6.417059e+00	-1.124617e+02
1.470000e-06	-8.320598e-07	-1.646877e-09	-6.257110e+00	-1.111120e+02
1.480000e-06	-8.107773e-07	-1.627479e-09	-6.097065e+00	-1.097447e+02
1.490000e-06	-7.894329e-07	-1.605656e-09	-5.936554e+00	-1.083595e+02
1.500000e-06	-7.680487e-07	-1.581757e-09	-5.775745e+00	-1.069564e+02
1.510000e-06	-7.466674e-07	-1.558284e-09	-5.614957e+00	-1.055350e+02
1.520000e-06	-7.252141e-07	-1.537009e-09	-5.453628e+00	-1.040951e+02
1.530000e-06	-7.036524e-07	-1.515912e-09	-5.291483e+00	-1.026363e+02
1.540000e-06	-6.820525e-07	-1.493636e-09	-5.129051e+00	-1.011581e+02
1.550000e-06	-6.604044e-07	-1.469823e-09	-4.966257e+00	-9.966033e+01
1.560000e-06	-6.386875e-07	-1.446236e-09	-4.802946e+00	-9.814234e+01
1.570000e-06	-6.169719e-07	-1.421932e-09	-4.639644e+00	-9.660365e+01
1.580000e-06	-5.952534e-07	-1.395947e-09	-4.476320e+00	-9.504372e+01
1.590000e-06	-5.735252e-07	-1.370871e-09	-4.312924e+00	-9.346198e+01
1.600000e-06	-5.517893e-07	-1.346902e-09	-4.149469e+00	-9.185781e+01
1.610000e-06	-5.299695e-07	-1.322073e-09	-3.985383e+00	-9.023058e+01
1.620000e-06	-5.080558e-07	-1.297390e-09	-3.820592e+00	-8.857965e+01
1.630000e-06	-4.861289e-07	-1.271113e-09	-3.655701e+00	-8.690434e+01
1.640000e-06	-4.642328e-07	-1.244007e-09	-3.491042e+00	-8.520400e+01
1.650000e-06	-4.423162e-07	-1.216657e-09	-3.326228e+00	-8.347795e+01
1.660000e-06	-4.204048e-07	-1.189424e-09	-3.161454e+00	-8.172554e+01
1.670000e-06	-3.984739e-07	-1.160828e-09	-2.996534e+00	-7.994612e+01
1.680000e-06	-3.764663e-07	-1.131757e-09	-2.831035e+00	-7.813906e+01
1.690000e-06	-3.544880e-07	-1.103462e-09	-2.665759e+00	-7.630377e+01
1.700000e-06	-3.325271e-07	-1.075273e-09	-2.500612e+00	-7.443969e+01
1.710000e-06	-3.104950e-07	-1.045129e-09	-2.334930e+00	-7.254630e+01
1.720000e-06	-2.884650e-07	-1.014739e-09	-2.169264e+00	-7.062315e+01
1.730000e-06	-2.664399e-07	-9.861324e-10	-2.003634e+00	-6.866983e+01
1.740000e-06	-2.443823e-07	-9.574438e-10	-1.837761e+00	-6.668599e+01
1.750000e-06	-2.222913e-07	-9.261295e-10	-1.671636e+00	-6.467138e+01
1.760000e-06	-2.001847e-07	-8.953189e-10	-1.505394e+00	-6.262579e+01
1.770000e-06	-1.781014e-07	-8.679890e-10	-1.339327e+00	-6.054912e+01
1.780000e-06	-1.560440e-07	-8.408036e-10	-1.173455e+00	-5.844135e+01
1.790000e-06	-1.339520e-07	-8.104562e-10	-1.007322e+00	-5.630255e+01
1.800000e-06	-1.118051e-07	-7.786095e-10	-8.407773e-01	-5.413290e+01
1.810000e-06	-8.959201e-08	-7.485261e-10	-6.737341e-01	-5.193265e+01
1.820000e-06	-6.731876e-08	-7.170058e-10	-5.062387e-01	-4.970219e+01
1.830000e-06	-4.508313e-08	-6.826105e-10	-3.390262e-01	-4.744198e+01
1.840000e-06	-2.286726e-08	-6.479832e-10	-1.719624e-01	-4.515262e+01
1.850000e-06	-6.994144e-10	-6.149695e-10	-5.259613e-03	-4.283477e+01
1.860000e-06	2.144413e-08	-5.821175e-10	1.612604e-01	-4.048924e+01
1.870000e-06	4.365471e-08	-5.478246e-10	3.282845e-01	-3.811692e+01
1.880000e-06	6.589362e-08	-5.122044e-10	4.955216e-01	-3.571879e+01
1.890000e-06	8.812360e-08	-4.772967e-10	6.626916e-01	-3.329595e+01
1.900000e-06	1.103050e-07	-4.421110e-10	8.294963e-01	-3.084960e+01
1.910000e-06	1.323926e-07	-4.073651e-10	9.955952e-01	-2.838100e+01
1.920000e-06	1.544082e-07	-3.731777e-10	1.161154e+00	-2.589151e+01
1.930000e-06	1.764534e-07	-3.393114e-10	1.326934e+00	-2.338258e+01
1.940000e-06	1.985603e-07	-3.044296e-10	1.493178e+00	-2.085572e+01
1.950000e-06	2.206382e-07	-2.679942e-10	1.659205e+00	-1.831252e+01
1.960000e-06	2.427002e-07	-2.314355e-10	1.825111e+00	-1.575459e+01
1.970000e-06	2.647883e-07	-1.966635e-10	1.991215e+00	-1.318365e+01
1.980000e-06	2.868371e-07	-1.613352e-10	2.157022e+00	-1.060142e+01
1.990000e-06	3.088406e-07	-1.243969e-10	2.322489e+00	-8.009670e+00
2.000000e-06	3.308120e-07	-8.727628e-11	2.487714e+00	-5.410191e+00
2.010000e-06	3.527892e-07	-5.141120e-11	2.652983e+00	-2.804796e+00
2.020000e-06	3.748143e-07	-1.532050e-11	2.818612e+00	-1.953065e-01
2.030000e-06	3.968138e-07	2.204797e-11	2.984049e+00	2.416457e+00
2.040000e-06	4.186885e-07	6.006695e-11	3.148548e+00	5.028682e+00
2.050000e-06	4.405195e-07	9.998549e-11	3.312717e+00	7.639573e+00
2.060000e-06	4.624223e-07	1.398434e-10	3.477426e+00	1.024736e+01
2.070000e-06	4.842884e-07	1.783684e-10	3.641860e+00	1.285030e+01
2.080000e-06	5.061234e-07	2.170741e-10	3.806060e+00	1.544670e+01
2.090000e-06	5.279648e-07	2.549492e-10	3.970308e+00	1.803491e+01
2.100000e-06	5.497475e-07	2.905721e-10	4.134115e+00	2.061333e+01
2.110000e-06	5.715143e-07	3.257594e-10	4.297801e+00	2.318042e+01
2.120000e-06	5.932661e-07	3.609479e-10	4.461375e+00	2.573472e+01
2.130000e-06	6.149682e-07	3.966268e-10	4.624576e+00	2.827482e+01
2.140000e-06	6.366176e-07	4.336852e-10	4.787380e+00	3.079940e+01
2.150000e-06	6.582223e-07	4.704155e-10	4.949848e+00	3.330720e+01
2.160000e-06	6.798072e-07	5.058239e-10	5.112167e+00	3.579706e+01
2.170000e-06	7.013548e-07	5.418816e-10	5.274205e+00	3.826791e+01
2.180000e-06	7.228807e-07	5.771995e-10	5.436080e+00	4.071872e+01
2.190000e-06	7.443774e-07	6.127520e-10	5.597736e+00	4.314861e+01
2.200000e-06	7.657731e-07	6.482098e-10	5.758632e+00	4.555673e+01
2.210000e-06	7.870821e-07	6.813873e-10	5.918877e+00	4.794235e+01
2.220000e-06	8.083386e-07	7.135406e-10	6.078726e+00	5.030480e+01
2.230000e-06	8.294807e-07	7.475735e-10	6.237714e+00	5.264351e+01
2.240000e-06	8.505274e-07	7.818256e-10	6.395987e+00	5.495799e+01
2.250000e-06	8.715700e-07	8.148077e-10	6.554227e+00	5.724782e+01
2.260000e-06	8.926004e-07	8.484485e-10	6.712376e+00	5.951265e+01
2.270000e-06	9.135991e-07	8.831875e-10	6.870287e+00	6.175222e+01
2.280000e-06	9.344998e-07	9.176423e-10	7.027461e+00	6.396630e+01
2.290000e-06	9.552756e-07	9.486057e-10	7.183696e+00	6.615476e+01
2.300000e-06	9.760226e-07	9.770809e-10	7.339714e+00	6.831750e+01
2.310000e-06	9.966669e-07	1.006364e-09	7.494959e+00	7.045450e+01
2.320000e-06	1.017164e-06	1.038134e-09	7.649096e+00	7.256575e+01
2.330000e-06	1.037548e-06	1.071788e-09	7.802387e+00	7.465130e+01
2.340000e-06	1.057861e-06	1.102106e-09	7.955137e+00	7.671126e+01
2.350000e-06	1.078129e-06	1.130359e-09	8.107558e+00	7.874572e+01
2.360000e-06	1.098309e-06	1.160203e-09	8.259310e+00	8.075484e+01
2.370000e-06	1.118376e-06	1.190686e-09	8.410213e+00	8.273878e+01
2.380000e-06	1.138347e-06	1.219783e-09	8.560398e+00	8.469772e+01
2.390000e-06	1.158286e-06	1.246459e-09	8.710337e+00	8.663186e+01
2.400000e-06	1.178158e-06	1.272220e-09	8.859773e+00	8.854138e+01
2.410000e-06	1.197985e-06	1.301090e-09	9.008875e+00	9.042651e+01
2.420000e-06	1.217827e-06	1.332107e-09	9.158090e+00	9.228742e+01
2.430000e-06	1.237638e-06	1.359810e-09	9.307066e+00	9.412433e+01
2.440000e-06	1.257381e-06	1.386982e-09	9.455534e+00	9.593743e+01
2.450000e-06	1.277101e-06	1.415382e-09	9.603829e+00	9.772689e+01
2.460000e-06	1.296808e-06	1.442799e-09	9.752028e+00	9.949288e+01
2.470000e-06	1.316484e-06	1.468386e-09	9.899993e+00	1.012356e+02
2.480000e-06	1.336157e-06	1.492320e-09	1.004793e+01	1.029551e+02
2.490000e-06	1.355763e-06	1.517350e-09	1.019537e+01	1.046515e+02
2.500000e-06	1.375283e-06	1.544778e-09	1.034216e+01	1.063251e+02
2.510000e-06	1.394821e-06	1.570247e-09	1.048909e+01	1.079758e+02
2.520000e-06	1.414316e-06	1.591999e-09	1.063569e+01	1.096037e+02
2.530000e-06	1.433697e-06	1.615012e-09	1.078144e+01	1.112090e+02
2.540000e-06	1.452997e-06	1.642361e-09	1.092657e+01	1.127916e+02
2.550000e-06	1.472205e-06	1.668144e-09	1.107101e+01	1.143516e+02
2.560000e-06	1.491239e-06	1.690431e-09	1.121416e+01	1.158890e+02
2.570000e-06	1.510134e-06	1.711867e-09	1.135624e+01	1.174039e+02
2.580000e-06	1.528828e-06	1.735254e-09	1.149682e+01	1.188963e+02
2.590000e-06	1.547416e-06	1.760122e-09	1.163660e+01	1.203661e+02
2.600000e-06	1.565978e-06	1.782789e-09	1.177619e+01	1.218135e+02
2.610000e-06	1.584283e-06	1.804461e-09	1.191385e+01	1.232383e+02
2.620000e-06	1.602416e-06	1.825897e-09	1.205021e+01	1.246407e+02
2.630000e-06	1.620444e-06	1.847187e-09	1.218578e+01	1.260206e+02
2.640000e-06	1.638276e-06	1.869494e-09	1.231988e+01	1.273780e+02
2.650000e-06	1.655958e-06	1.890423e-09	1.245284e+01	1.287131e+02
2.660000e-06	1.673595e-06	1.911489e-09	1.258548e+01	1.300259e+02
2.670000e-06	1.691238e-06	1.934026e-09	1.271815e+01	1.313164e+02
2.680000e-06	1.708793e-06	1.954995e-09	1.285016e+01	1.325847e+02
2.690000e-06	1.726239e-06	1.973774e-09	1.298136e+01	1.338309e+02
2.700000e-06	1.743598e-06	1.992820e-09	1.311190e+01	1.350552e+02
2.710000e-06	1.760866e-06	2.012451e-09	1.324176e+01	1.362577e+02
2.720000e-06	1.778076e-06	2.031074e-09	1.337118e+01	1.374386e+02
2.730000e-06	1.795173e-06	2.049260e-09	1.349975e+01	1.385981e+02
2.740000e-06	1.812228e-06	2.067080e-09	1.362800e+01	1.397364e+02
2.750000e-06	1.829139e-06	2.085744e-09	1.375517e+01	1.408537e+02
2.760000e-06	1.845877e-06	2.103000e-09	1.388104e+01	1.419503e+02
2.770000e-06	1.862594e-06	2.118348e-09	1.400675e+01	1.430265e+02
2.780000e-06	1.879241e-06	2.133905e-09	1.413194e+01	1.440826e+02
2.790000e-06	1.895715e-06	2.150158e-09	1.425582e+01	1.451190e+02
2.800000e-06	1.912002e-06	2.167582e-09	1.437830e+01	1.461360e+02
2.810000e-06	1.928219e-06	2.181917e-09	1.450025e+01	1.471339e+02
2.820000e-06	1.944348e-06	2.195022e-09	1.462154e+01	1.481131e+02
2.830000e-06	1.960258e-06	2.212261e-09	1.474119e+01	1.490741e+02
2.840000e-06	1.975841e-06	2.230590e-09	1.485837e+01	1.500173e+02
2.850000e-06	1.991220e-06	2.244650e-09	1.497402e+01	1.509431e+02
2.860000e-06	2.006472e-06	2.258075e-09	1.508872e+01	1.518519e+02
2.870000e-06	2.021464e-06	2.275056e-09	1.520146e+01	1.527441e+02
2.880000e-06	2.036208e-06	2.289616e-09	1.531233e+01	1.536202e+02
2.890000e-06	2.050751e-06	2.300651e-09	1.542170e+01	1.544806e+02
2.900000e-06	2.065069e-06	2.313053e-09	1.552937e+01	1.553257e+02
