# Temperatura_=_20.0
# Concentracion g/m^3_=_9000.0
# C_Vs_to_Am_M_A/Vsm_=_65563218390.804596
# pendiente_HvsI_1/m_=_3716.3
# ordenada_HvsI_A/m_=_1297.0
# frecuencia_Hz_=_134988.06632218495

Tiempo_(s)	Campo_(V.s)	Magnetizacion_(V.s)	Campo_(kA/m)	Magnetizacion_(A/m)
0.000000e+00	-2.641688e-06	-2.838728e-09	-1.986866e+01	-1.866096e+02
1.000000e-08	-2.641944e-06	-2.822871e-09	-1.987059e+01	-1.866461e+02
2.000000e-08	-2.642097e-06	-2.805440e-09	-1.987173e+01	-1.866743e+02
3.000000e-08	-2.642101e-06	-2.809347e-09	-1.987177e+01	-1.866941e+02
4.000000e-08	-2.641931e-06	-2.866775e-09	-1.987049e+01	-1.867057e+02
5.000000e-08	-2.641623e-06	-2.961971e-09	-1.986817e+01	-1.867092e+02
6.000000e-08	-2.641095e-06	-2.993814e-09	-1.986420e+01	-1.867045e+02
7.000000e-08	-2.640424e-06	-2.934706e-09	-1.985915e+01	-1.866919e+02
8.000000e-08	-2.639560e-06	-2.794325e-09	-1.985265e+01	-1.866715e+02
9.000000e-08	-2.638326e-06	-2.714535e-09	-1.984337e+01	-1.866434e+02
1.000000e-07	-2.636831e-06	-2.732145e-09	-1.983213e+01	-1.866077e+02
1.100000e-07	-2.635145e-06	-2.815046e-09	-1.981945e+01	-1.865647e+02
1.200000e-07	-2.633094e-06	-2.848849e-09	-1.980402e+01	-1.865144e+02
1.300000e-07	-2.630689e-06	-2.862636e-09	-1.978593e+01	-1.864570e+02
1.400000e-07	-2.627999e-06	-2.853342e-09	-1.976570e+01	-1.863927e+02
1.500000e-07	-2.624986e-06	-2.835742e-09	-1.974304e+01	-1.863217e+02
1.600000e-07	-2.621705e-06	-2.836153e-09	-1.971836e+01	-1.862441e+02
1.700000e-07	-2.618232e-06	-2.810300e-09	-1.969224e+01	-1.861601e+02
1.800000e-07	-2.614680e-06	-2.838368e-09	-1.966552e+01	-1.860699e+02
1.900000e-07	-2.611069e-06	-2.874887e-09	-1.963837e+01	-1.859736e+02
2.000000e-07	-2.607370e-06	-2.892715e-09	-1.961055e+01	-1.858714e+02
2.100000e-07	-2.603569e-06	-2.815999e-09	-1.958195e+01	-1.857634e+02
2.200000e-07	-2.599706e-06	-2.785151e-09	-1.955291e+01	-1.856498e+02
2.300000e-07	-2.595686e-06	-2.794950e-09	-1.952267e+01	-1.855308e+02
2.400000e-07	-2.591475e-06	-2.845142e-09	-1.949099e+01	-1.854063e+02
2.500000e-07	-2.587078e-06	-2.811748e-09	-1.945792e+01	-1.852766e+02
2.600000e-07	-2.582545e-06	-2.750995e-09	-1.942383e+01	-1.851417e+02
2.700000e-07	-2.577810e-06	-2.743078e-09	-1.938822e+01	-1.850017e+02
2.800000e-07	-2.572790e-06	-2.809714e-09	-1.935047e+01	-1.848567e+02
2.900000e-07	-2.567592e-06	-2.836220e-09	-1.931136e+01	-1.847066e+02
3.000000e-07	-2.562223e-06	-2.787028e-09	-1.927098e+01	-1.845516e+02
3.100000e-07	-2.556701e-06	-2.751022e-09	-1.922945e+01	-1.843916e+02
3.200000e-07	-2.551064e-06	-2.769043e-09	-1.918706e+01	-1.842267e+02
3.300000e-07	-2.545275e-06	-2.821828e-09	-1.914352e+01	-1.840568e+02
3.400000e-07	-2.539249e-06	-2.803267e-09	-1.909819e+01	-1.838818e+02
3.500000e-07	-2.532929e-06	-2.755231e-09	-1.905066e+01	-1.837019e+02
3.600000e-07	-2.526375e-06	-2.739109e-09	-1.900136e+01	-1.835168e+02
3.700000e-07	-2.519689e-06	-2.801239e-09	-1.895108e+01	-1.833265e+02
3.800000e-07	-2.512891e-06	-2.821411e-09	-1.889995e+01	-1.831310e+02
3.900000e-07	-2.505919e-06	-2.784419e-09	-1.884751e+01	-1.829301e+02
4.000000e-07	-2.498734e-06	-2.739969e-09	-1.879347e+01	-1.827237e+02
4.100000e-07	-2.491407e-06	-2.769545e-09	-1.873837e+01	-1.825118e+02
4.200000e-07	-2.484020e-06	-2.794620e-09	-1.868280e+01	-1.822943e+02
4.300000e-07	-2.476561e-06	-2.774041e-09	-1.862671e+01	-1.820709e+02
4.400000e-07	-2.468972e-06	-2.728570e-09	-1.856963e+01	-1.818417e+02
4.500000e-07	-2.461266e-06	-2.734108e-09	-1.851167e+01	-1.816064e+02
4.600000e-07	-2.453468e-06	-2.763953e-09	-1.845301e+01	-1.813650e+02
4.700000e-07	-2.445584e-06	-2.770953e-09	-1.839372e+01	-1.811174e+02
4.800000e-07	-2.437590e-06	-2.743294e-09	-1.833360e+01	-1.808634e+02
4.900000e-07	-2.429425e-06	-2.735144e-09	-1.827219e+01	-1.806029e+02
5.000000e-07	-2.421022e-06	-2.755821e-09	-1.820899e+01	-1.803360e+02
5.100000e-07	-2.412354e-06	-2.765018e-09	-1.814379e+01	-1.800623e+02
5.200000e-07	-2.403428e-06	-2.739523e-09	-1.807666e+01	-1.797820e+02
5.300000e-07	-2.394175e-06	-2.714215e-09	-1.800706e+01	-1.794949e+02
5.400000e-07	-2.384591e-06	-2.721709e-09	-1.793498e+01	-1.792009e+02
5.500000e-07	-2.374775e-06	-2.735633e-09	-1.786116e+01	-1.789001e+02
5.600000e-07	-2.364805e-06	-2.726337e-09	-1.778617e+01	-1.785923e+02
5.700000e-07	-2.354563e-06	-2.701506e-09	-1.770913e+01	-1.782776e+02
5.800000e-07	-2.343908e-06	-2.701583e-09	-1.762899e+01	-1.779559e+02
5.900000e-07	-2.332972e-06	-2.717406e-09	-1.754674e+01	-1.776273e+02
6.000000e-07	-2.321819e-06	-2.718898e-09	-1.746286e+01	-1.772917e+02
6.100000e-07	-2.310490e-06	-2.691567e-09	-1.737765e+01	-1.769492e+02
6.200000e-07	-2.299043e-06	-2.675383e-09	-1.729155e+01	-1.765997e+02
6.300000e-07	-2.287481e-06	-2.681168e-09	-1.720459e+01	-1.762434e+02
6.400000e-07	-2.275792e-06	-2.689534e-09	-1.711668e+01	-1.758802e+02
6.500000e-07	-2.263949e-06	-2.671173e-09	-1.702761e+01	-1.755102e+02
6.600000e-07	-2.251992e-06	-2.652208e-09	-1.693768e+01	-1.751334e+02
6.700000e-07	-2.239882e-06	-2.652499e-09	-1.684659e+01	-1.747500e+02
6.800000e-07	-2.227633e-06	-2.664648e-09	-1.675447e+01	-1.743598e+02
6.900000e-07	-2.215243e-06	-2.654009e-09	-1.666128e+01	-1.739631e+02
7.000000e-07	-2.202663e-06	-2.631902e-09	-1.656666e+01	-1.735598e+02
7.100000e-07	-2.189884e-06	-2.622202e-09	-1.647055e+01	-1.731500e+02
7.200000e-07	-2.176913e-06	-2.627823e-09	-1.637299e+01	-1.727337e+02
7.300000e-07	-2.163735e-06	-2.622838e-09	-1.627388e+01	-1.723108e+02
7.400000e-07	-2.150352e-06	-2.606921e-09	-1.617322e+01	-1.718816e+02
7.500000e-07	-2.136877e-06	-2.591960e-09	-1.607188e+01	-1.714458e+02
7.600000e-07	-2.123253e-06	-2.587715e-09	-1.596941e+01	-1.710036e+02
7.700000e-07	-2.109427e-06	-2.585297e-09	-1.586542e+01	-1.705549e+02
7.800000e-07	-2.095483e-06	-2.576416e-09	-1.576054e+01	-1.700996e+02
7.900000e-07	-2.081462e-06	-2.561741e-09	-1.565508e+01	-1.696377e+02
8.000000e-07	-2.067311e-06	-2.552940e-09	-1.554865e+01	-1.691691e+02
8.100000e-07	-2.053003e-06	-2.552775e-09	-1.544104e+01	-1.686937e+02
8.200000e-07	-2.038437e-06	-2.547669e-09	-1.533149e+01	-1.682114e+02
8.300000e-07	-2.023461e-06	-2.531403e-09	-1.521885e+01	-1.677220e+02
8.400000e-07	-2.008203e-06	-2.515685e-09	-1.510409e+01	-1.672254e+02
8.500000e-07	-1.992689e-06	-2.511786e-09	-1.498741e+01	-1.667214e+02
8.600000e-07	-1.976974e-06	-2.507428e-09	-1.486921e+01	-1.662098e+02
8.700000e-07	-1.961103e-06	-2.494098e-09	-1.474984e+01	-1.656904e+02
8.800000e-07	-1.944905e-06	-2.479539e-09	-1.462801e+01	-1.651630e+02
8.900000e-07	-1.928565e-06	-2.474023e-09	-1.450512e+01	-1.646272e+02
9.000000e-07	-1.912114e-06	-2.468066e-09	-1.438138e+01	-1.640829e+02
9.100000e-07	-1.895489e-06	-2.457883e-09	-1.425635e+01	-1.635297e+02
9.200000e-07	-1.878905e-06	-2.444444e-09	-1.413162e+01	-1.629674e+02
9.300000e-07	-1.862087e-06	-2.437585e-09	-1.400512e+01	-1.623957e+02
9.400000e-07	-1.845011e-06	-2.432988e-09	-1.387669e+01	-1.618142e+02
9.500000e-07	-1.827948e-06	-2.427427e-09	-1.374836e+01	-1.612227e+02
9.600000e-07	-1.810787e-06	-2.417071e-09	-1.361929e+01	-1.606209e+02
9.700000e-07	-1.793523e-06	-2.406249e-09	-1.348944e+01	-1.600083e+02
9.800000e-07	-1.776224e-06	-2.398139e-09	-1.335933e+01	-1.593848e+02
9.900000e-07	-1.758816e-06	-2.392331e-09	-1.322841e+01	-1.587500e+02
1.000000e-06	-1.741275e-06	-2.383177e-09	-1.309647e+01	-1.581035e+02
1.010000e-06	-1.723695e-06	-2.369355e-09	-1.296425e+01	-1.574452e+02
1.020000e-06	-1.706067e-06	-2.354811e-09	-1.283167e+01	-1.567747e+02
1.030000e-06	-1.688358e-06	-2.345530e-09	-1.269848e+01	-1.560918e+02
1.040000e-06	-1.670545e-06	-2.336908e-09	-1.256450e+01	-1.553962e+02
1.050000e-06	-1.652601e-06	-2.324978e-09	-1.242954e+01	-1.546876e+02
1.060000e-06	-1.634547e-06	-2.311689e-09	-1.229375e+01	-1.539660e+02
1.070000e-06	-1.616373e-06	-2.300752e-09	-1.215706e+01	-1.532310e+02
1.080000e-06	-1.598091e-06	-2.290643e-09	-1.201956e+01	-1.524824e+02
1.090000e-06	-1.579702e-06	-2.278715e-09	-1.188125e+01	-1.517203e+02
1.100000e-06	-1.561147e-06	-2.264958e-09	-1.174169e+01	-1.509443e+02
1.110000e-06	-1.542367e-06	-2.250695e-09	-1.160045e+01	-1.501545e+02
1.120000e-06	-1.523460e-06	-2.238083e-09	-1.145825e+01	-1.493507e+02
1.130000e-06	-1.504570e-06	-2.226488e-09	-1.131617e+01	-1.485328e+02
1.140000e-06	-1.485544e-06	-2.214517e-09	-1.117307e+01	-1.477010e+02
1.150000e-06	-1.466298e-06	-2.199357e-09	-1.102832e+01	-1.468550e+02
1.160000e-06	-1.446936e-06	-2.184344e-09	-1.088269e+01	-1.459950e+02
1.170000e-06	-1.427545e-06	-2.171117e-09	-1.073685e+01	-1.451210e+02
1.180000e-06	-1.408090e-06	-2.156726e-09	-1.059052e+01	-1.442330e+02
1.190000e-06	-1.388484e-06	-2.139376e-09	-1.044306e+01	-1.433311e+02
1.200000e-06	-1.368850e-06	-2.124312e-09	-1.029539e+01	-1.424153e+02
1.210000e-06	-1.349217e-06	-2.113368e-09	-1.014773e+01	-1.414857e+02
1.220000e-06	-1.329500e-06	-2.102669e-09	-9.999432e+00	-1.405425e+02
1.230000e-06	-1.309734e-06	-2.087843e-09	-9.850772e+00	-1.395857e+02
1.240000e-06	-1.289976e-06	-2.073750e-09	-9.702165e+00	-1.386154e+02
1.250000e-06	-1.270211e-06	-2.060166e-09	-9.553506e+00	-1.376317e+02
1.260000e-06	-1.250453e-06	-2.043418e-09	-9.404903e+00	-1.366347e+02
1.270000e-06	-1.230652e-06	-2.024153e-09	-9.255975e+00	-1.356244e+02
1.280000e-06	-1.210768e-06	-2.005625e-09	-9.106427e+00	-1.346010e+02
1.290000e-06	-1.190856e-06	-1.989619e-09	-8.956662e+00	-1.335644e+02
1.300000e-06	-1.170875e-06	-1.977005e-09	-8.806384e+00	-1.325148e+02
1.310000e-06	-1.150883e-06	-1.963349e-09	-8.656020e+00	-1.314520e+02
1.320000e-06	-1.130844e-06	-1.946600e-09	-8.505303e+00	-1.303761e+02
1.330000e-06	-1.110634e-06	-1.928789e-09	-8.353296e+00	-1.292871e+02
1.340000e-06	-1.090307e-06	-1.913011e-09	-8.200416e+00	-1.281848e+02
1.350000e-06	-1.069984e-06	-1.897356e-09	-8.047559e+00	-1.270691e+02
1.360000e-06	-1.049600e-06	-1.879392e-09	-7.894249e+00	-1.259398e+02
1.370000e-06	-1.029094e-06	-1.860337e-09	-7.740020e+00	-1.247968e+02
1.380000e-06	-1.008541e-06	-1.842547e-09	-7.585435e+00	-1.236399e+02
1.390000e-06	-9.879674e-07	-1.827676e-09	-7.430698e+00	-1.224687e+02
1.400000e-06	-9.672797e-07	-1.812479e-09	-7.275101e+00	-1.212829e+02
1.410000e-06	-9.464075e-07	-1.793425e-09	-7.118118e+00	-1.200822e+02
1.420000e-06	-9.254932e-07	-1.773588e-09	-6.960817e+00	-1.188661e+02
1.430000e-06	-9.045209e-07	-1.755361e-09	-6.803080e+00	-1.176343e+02
1.440000e-06	-8.833936e-07	-1.735751e-09	-6.644178e+00	-1.163861e+02
1.450000e-06	-8.621597e-07	-1.714991e-09	-6.484473e+00	-1.151212e+02
1.460000e-06	-8.408524e-07	-1.694023e-09	-6.324217e+00	-1.138389e+02
1.470000e-06	-8.195723e-07	-1.674436e-09	-6.164165e+00	-1.125386e+02
1.480000e-06	-7.983157e-07	-1.653438e-09	-6.004290e+00	-1.112196e+02
1.490000e-06	-7.769788e-07	-1.632033e-09	-5.843811e+00	-1.098814e+02
1.500000e-06	-7.555471e-07	-1.611668e-09	-5.682619e+00	-1.085233e+02
1.510000e-06	-7.340278e-07	-1.590976e-09	-5.520768e+00	-1.071444e+02
1.520000e-06	-7.124563e-07	-1.569471e-09	-5.358525e+00	-1.057441e+02
1.530000e-06	-6.908557e-07	-1.546648e-09	-5.196063e+00	-1.043217e+02
1.540000e-06	-6.692105e-07	-1.521670e-09	-5.033264e+00	-1.028763e+02
1.550000e-06	-6.475855e-07	-1.496101e-09	-4.870619e+00	-1.014073e+02
1.560000e-06	-6.259544e-07	-1.470395e-09	-4.707927e+00	-9.991382e+01
1.570000e-06	-6.042558e-07	-1.444064e-09	-4.544727e+00	-9.839517e+01
1.580000e-06	-5.825308e-07	-1.418926e-09	-4.381329e+00	-9.685062e+01
1.590000e-06	-5.607491e-07	-1.395122e-09	-4.217505e+00	-9.527944e+01
1.600000e-06	-5.389108e-07	-1.372054e-09	-4.053255e+00	-9.368093e+01
1.610000e-06	-5.170228e-07	-1.346962e-09	-3.888631e+00	-9.205445e+01
1.620000e-06	-4.950924e-07	-1.321054e-09	-3.723688e+00	-9.039936e+01
1.630000e-06	-4.732164e-07	-1.295686e-09	-3.559154e+00	-8.871507e+01
1.640000e-06	-4.513622e-07	-1.269995e-09	-3.394784e+00	-8.700105e+01
1.650000e-06	-4.294340e-07	-1.243383e-09	-3.229858e+00	-8.525680e+01
1.660000e-06	-4.074340e-07	-1.213542e-09	-3.064392e+00	-8.348189e+01
1.670000e-06	-3.854147e-07	-1.184348e-09	-2.898780e+00	-8.167595e+01
1.680000e-06	-3.634047e-07	-1.157987e-09	-2.733239e+00	-7.983866e+01
1.690000e-06	-3.414002e-07	-1.131713e-09	-2.567738e+00	-7.796980e+01
1.700000e-06	-3.193816e-07	-1.105178e-09	-2.402132e+00	-7.606918e+01
1.710000e-06	-2.973208e-07	-1.077347e-09	-2.236208e+00	-7.413670e+01
1.720000e-06	-2.752104e-07	-1.048228e-09	-2.069912e+00	-7.217236e+01
1.730000e-06	-2.530681e-07	-1.018474e-09	-1.903375e+00	-7.017621e+01
1.740000e-06	-2.309167e-07	-9.877291e-10	-1.736770e+00	-6.814839e+01
1.750000e-06	-2.087490e-07	-9.571627e-10	-1.570042e+00	-6.608912e+01
1.760000e-06	-1.866189e-07	-9.271100e-10	-1.403598e+00	-6.399870e+01
1.770000e-06	-1.645032e-07	-8.966056e-10	-1.237261e+00	-6.187753e+01
1.780000e-06	-1.424478e-07	-8.662706e-10	-1.071378e+00	-5.972606e+01
1.790000e-06	-1.203526e-07	-8.356252e-10	-9.051961e-01	-5.754484e+01
1.800000e-06	-9.814723e-08	-8.039321e-10	-7.381847e-01	-5.533450e+01
1.810000e-06	-7.602157e-08	-7.715600e-10	-5.717732e-01	-5.309574e+01
1.820000e-06	-5.388567e-08	-7.369522e-10	-4.052847e-01	-5.082933e+01
1.830000e-06	-3.168162e-08	-7.009438e-10	-2.382837e-01	-4.853614e+01
1.840000e-06	-9.472459e-09	-6.671430e-10	-7.124423e-02	-4.621706e+01
1.850000e-06	1.273839e-08	-6.339204e-10	9.580798e-02	-4.387310e+01
1.860000e-06	3.490471e-08	-6.006310e-10	2.625252e-01	-4.150529e+01
1.870000e-06	5.703752e-08	-5.658047e-10	4.289905e-01	-3.911473e+01
1.880000e-06	7.914404e-08	-5.313816e-10	5.952580e-01	-3.670258e+01
1.890000e-06	1.012544e-07	-4.984188e-10	7.615547e-01	-3.427003e+01
1.900000e-06	1.234283e-07	-4.630043e-10	9.283288e-01	-3.181834e+01
1.910000e-06	1.455858e-07	-4.260059e-10	1.094980e+00	-2.934879e+01
1.920000e-06	1.676719e-07	-3.916966e-10	1.261094e+00	-2.686268e+01
1.930000e-06	1.897911e-07	-3.569158e-10	1.427456e+00	-2.436138e+01
1.940000e-06	2.118978e-07	-3.187744e-10	1.593725e+00	-2.184623e+01
1.950000e-06	2.339037e-07	-2.800313e-10	1.759236e+00	-1.931864e+01
1.960000e-06	2.559163e-07	-2.429481e-10	1.924797e+00	-1.677998e+01
1.970000e-06	2.779023e-07	-2.062906e-10	2.090158e+00	-1.423168e+01
1.980000e-06	2.998893e-07	-1.690989e-10	2.255527e+00	-1.167512e+01
1.990000e-06	3.219286e-07	-1.322600e-10	2.421289e+00	-9.111732e+00
2.000000e-06	3.439139e-07	-9.520226e-11	2.586645e+00	-6.542898e+00
2.010000e-06	3.659276e-07	-5.997247e-11	2.752214e+00	-3.970010e+00
2.020000e-06	3.879338e-07	-2.400654e-11	2.917727e+00	-1.394441e+00
2.030000e-06	4.098989e-07	1.340456e-11	3.082931e+00	1.182452e+00
2.040000e-06	4.318361e-07	5.386384e-11	3.247925e+00	3.759336e+00
2.050000e-06	4.537421e-07	9.608660e-11	3.412684e+00	6.334903e+00
2.060000e-06	4.756486e-07	1.359902e-10	3.577447e+00	8.907870e+00
2.070000e-06	4.974861e-07	1.733305e-10	3.741691e+00	1.147699e+01
2.080000e-06	5.192882e-07	2.109129e-10	3.905669e+00	1.404104e+01
2.090000e-06	5.411203e-07	2.482289e-10	4.069873e+00	1.659883e+01
2.100000e-06	5.629090e-07	2.829506e-10	4.233750e+00	1.914922e+01
2.110000e-06	5.846374e-07	3.177997e-10	4.397173e+00	2.169109e+01
2.120000e-06	6.063428e-07	3.543826e-10	4.560424e+00	2.422337e+01
2.130000e-06	6.279717e-07	3.922794e-10	4.723099e+00	2.674501e+01
2.140000e-06	6.495668e-07	4.309899e-10	4.885520e+00	2.925503e+01
2.150000e-06	6.711250e-07	4.677067e-10	5.047664e+00	3.175245e+01
2.160000e-06	6.926281e-07	5.041093e-10	5.209393e+00	3.423636e+01
2.170000e-06	7.141488e-07	5.409945e-10	5.371254e+00	3.670588e+01
2.180000e-06	7.356423e-07	5.759672e-10	5.532911e+00	3.916014e+01
2.190000e-06	7.570461e-07	6.107047e-10	5.693893e+00	4.159835e+01
2.200000e-06	7.783982e-07	6.462285e-10	5.854487e+00	4.401973e+01
2.210000e-06	7.997245e-07	6.808967e-10	6.014886e+00	4.642353e+01
2.220000e-06	8.210115e-07	7.153500e-10	6.174990e+00	4.880906e+01
2.230000e-06	8.422414e-07	7.510826e-10	6.334664e+00	5.117562e+01
2.240000e-06	8.634329e-07	7.868308e-10	6.494049e+00	5.352259e+01
2.250000e-06	8.844845e-07	8.223565e-10	6.652383e+00	5.584935e+01
2.260000e-06	9.053045e-07	8.564181e-10	6.808974e+00	5.815530e+01
2.270000e-06	9.260494e-07	8.898703e-10	6.965001e+00	6.043990e+01
2.280000e-06	9.467805e-07	9.236355e-10	7.120923e+00	6.270262e+01
2.290000e-06	9.673649e-07	9.561583e-10	7.275742e+00	6.494294e+01
2.300000e-06	9.878804e-07	9.868941e-10	7.430043e+00	6.716040e+01
2.310000e-06	1.008339e-06	1.019004e-09	7.583916e+00	6.935452e+01
2.320000e-06	1.028656e-06	1.053080e-09	7.736727e+00	7.152489e+01
2.330000e-06	1.048924e-06	1.083612e-09	7.889161e+00	7.367109e+01
2.340000e-06	1.069097e-06	1.110680e-09	8.040892e+00	7.579273e+01
2.350000e-06	1.089246e-06	1.139568e-09	8.192434e+00	7.788944e+01
2.360000e-06	1.109356e-06	1.170408e-09	8.343689e+00	7.996090e+01
2.370000e-06	1.129409e-06	1.200034e-09	8.494505e+00	8.200676e+01
2.380000e-06	1.149479e-06	1.229794e-09	8.645457e+00	8.402673e+01
2.390000e-06	1.169475e-06	1.259784e-09	8.795849e+00	8.602054e+01
2.400000e-06	1.189366e-06	1.289213e-09	8.945453e+00	8.798792e+01
2.410000e-06	1.209228e-06	1.318080e-09	9.094844e+00	8.992866e+01
2.420000e-06	1.229084e-06	1.344177e-09	9.244182e+00	9.184253e+01
2.430000e-06	1.248891e-06	1.369412e-09	9.393155e+00	9.372935e+01
2.440000e-06	1.268648e-06	1.397876e-09	9.541749e+00	9.558898e+01
2.450000e-06	1.288383e-06	1.426101e-09	9.690181e+00	9.742126e+01
2.460000e-06	1.308105e-06	1.451247e-09	9.838517e+00	9.922611e+01
2.470000e-06	1.327765e-06	1.477870e-09	9.986384e+00	1.010034e+02
2.480000e-06	1.347411e-06	1.506375e-09	1.013414e+01	1.027532e+02
2.490000e-06	1.367034e-06	1.532592e-09	1.028174e+01	1.044753e+02
2.500000e-06	1.386564e-06	1.556371e-09	1.042862e+01	1.061699e+02
2.510000e-06	1.405967e-06	1.579041e-09	1.057456e+01	1.078369e+02
2.520000e-06	1.425249e-06	1.603385e-09	1.071958e+01	1.094764e+02
2.530000e-06	1.444506e-06	1.631882e-09	1.086441e+01	1.110885e+02
2.540000e-06	1.463743e-06	1.659077e-09	1.100910e+01	1.126733e+02
2.550000e-06	1.482857e-06	1.681090e-09	1.115286e+01	1.142310e+02
2.560000e-06	1.501794e-06	1.703852e-09	1.129529e+01	1.157618e+02
2.570000e-06	1.520577e-06	1.730140e-09	1.143656e+01	1.172659e+02
2.580000e-06	1.539261e-06	1.756488e-09	1.157709e+01	1.187435e+02
2.590000e-06	1.557838e-06	1.779986e-09	1.171681e+01	1.201949e+02
2.600000e-06	1.576253e-06	1.800505e-09	1.185531e+01	1.216205e+02
2.610000e-06	1.594478e-06	1.820718e-09	1.199238e+01	1.230205e+02
2.620000e-06	1.612554e-06	1.841024e-09	1.212834e+01	1.243953e+02
2.630000e-06	1.630504e-06	1.863160e-09	1.226334e+01	1.257452e+02
2.640000e-06	1.648404e-06	1.884497e-09	1.239798e+01	1.270708e+02
2.650000e-06	1.666182e-06	1.904583e-09	1.253168e+01	1.283724e+02
2.660000e-06	1.683797e-06	1.927297e-09	1.266417e+01	1.296504e+02
2.670000e-06	1.701401e-06	1.949123e-09	1.279657e+01	1.309054e+02
2.680000e-06	1.718894e-06	1.966215e-09	1.292814e+01	1.321377e+02
2.690000e-06	1.736289e-06	1.982967e-09	1.305897e+01	1.333479e+02
2.700000e-06	1.753659e-06	2.002415e-09	1.318962e+01	1.345365e+02
2.710000e-06	1.770933e-06	2.022170e-09	1.331954e+01	1.357039e+02
2.720000e-06	1.788156e-06	2.039086e-09	1.344908e+01	1.368507e+02
2.730000e-06	1.805364e-06	2.055478e-09	1.357850e+01	1.379774e+02
2.740000e-06	1.822422e-06	2.074564e-09	1.370680e+01	1.390846e+02
2.750000e-06	1.839343e-06	2.094275e-09	1.383406e+01	1.401726e+02
2.760000e-06	1.856154e-06	2.111102e-09	1.396050e+01	1.412420e+02
2.770000e-06	1.872753e-06	2.125249e-09	1.408534e+01	1.422933e+02
2.780000e-06	1.889205e-06	2.141282e-09	1.420908e+01	1.433269e+02
2.790000e-06	1.905601e-06	2.159402e-09	1.433240e+01	1.443435e+02
2.800000e-06	1.921822e-06	2.176547e-09	1.445440e+01	1.453433e+02
2.810000e-06	1.937823e-06	2.190529e-09	1.457475e+01	1.463268e+02
2.820000e-06	1.953618e-06	2.205810e-09	1.469355e+01	1.472945e+02
2.830000e-06	1.969246e-06	2.223451e-09	1.481109e+01	1.482467e+02
2.840000e-06	1.984761e-06	2.239284e-09	1.492778e+01	1.491838e+02
2.850000e-06	1.999947e-06	2.252383e-09	1.504200e+01	1.501062e+02
2.860000e-06	2.014746e-06	2.267276e-09	1.515330e+01	1.510141e+02
2.870000e-06	2.029419e-06	2.284999e-09	1.526366e+01	1.519080e+02
2.880000e-06	2.044002e-06	2.299152e-09	1.537335e+01	1.527880e+02
2.890000e-06	2.058393e-06	2.309343e-09	1.548158e+01	1.536544e+02
2.900000e-06	2.072578e-06	2.320247e-09	1.558827e+01	1.545075e+02
