# Temperatura_=_20.0
# Concentracion g/m^3_=_9000.0
# C_Vs_to_Am_M_A/Vsm_=_65563218390.804596
# pendiente_HvsI_1/m_=_3716.3
# ordenada_HvsI_A/m_=_1297.0
# frecuencia_Hz_=_134988.14794264967

Tiempo_(s)	Campo_(V.s)	Magnetizacion_(V.s)	Campo_(kA/m)	Magnetizacion_(A/m)
0.000000e+00	-2.644341e-06	-2.854089e-09	-1.986730e+01	-1.865434e+02
1.000000e-08	-2.644604e-06	-2.836184e-09	-1.986928e+01	-1.865576e+02
2.000000e-08	-2.644724e-06	-2.818080e-09	-1.987017e+01	-1.865587e+02
3.000000e-08	-2.644733e-06	-2.816325e-09	-1.987024e+01	-1.865469e+02
4.000000e-08	-2.644640e-06	-2.855772e-09	-1.986954e+01	-1.865219e+02
5.000000e-08	-2.644386e-06	-2.907926e-09	-1.986764e+01	-1.864838e+02
6.000000e-08	-2.643974e-06	-2.966587e-09	-1.986455e+01	-1.864327e+02
7.000000e-08	-2.643318e-06	-2.964454e-09	-1.985961e+01	-1.863688e+02
8.000000e-08	-2.642408e-06	-2.918710e-09	-1.985278e+01	-1.862920e+02
9.000000e-08	-2.641270e-06	-2.857518e-09	-1.984423e+01	-1.862027e+02
1.000000e-07	-2.639758e-06	-2.802852e-09	-1.983287e+01	-1.861012e+02
1.100000e-07	-2.637942e-06	-2.783033e-09	-1.981922e+01	-1.859876e+02
1.200000e-07	-2.635761e-06	-2.755376e-09	-1.980284e+01	-1.858623e+02
1.300000e-07	-2.633250e-06	-2.809778e-09	-1.978397e+01	-1.857257e+02
1.400000e-07	-2.630530e-06	-2.815738e-09	-1.976354e+01	-1.855783e+02
1.500000e-07	-2.627518e-06	-2.845234e-09	-1.974091e+01	-1.854204e+02
1.600000e-07	-2.624173e-06	-2.817265e-09	-1.971578e+01	-1.852526e+02
1.700000e-07	-2.620643e-06	-2.830420e-09	-1.968925e+01	-1.850753e+02
1.800000e-07	-2.617033e-06	-2.814721e-09	-1.966213e+01	-1.848891e+02
1.900000e-07	-2.613293e-06	-2.862227e-09	-1.963403e+01	-1.846945e+02
2.000000e-07	-2.609465e-06	-2.851209e-09	-1.960527e+01	-1.844922e+02
2.100000e-07	-2.605568e-06	-2.830553e-09	-1.957599e+01	-1.842828e+02
2.200000e-07	-2.601606e-06	-2.814852e-09	-1.954623e+01	-1.840667e+02
2.300000e-07	-2.597595e-06	-2.814325e-09	-1.951609e+01	-1.838447e+02
2.400000e-07	-2.593403e-06	-2.813605e-09	-1.948460e+01	-1.836173e+02
2.500000e-07	-2.589041e-06	-2.768643e-09	-1.945182e+01	-1.833851e+02
2.600000e-07	-2.584393e-06	-2.754648e-09	-1.941690e+01	-1.831488e+02
2.700000e-07	-2.579534e-06	-2.734244e-09	-1.938039e+01	-1.829088e+02
2.800000e-07	-2.574628e-06	-2.777567e-09	-1.934354e+01	-1.826658e+02
2.900000e-07	-2.569512e-06	-2.754694e-09	-1.930510e+01	-1.824202e+02
3.000000e-07	-2.564154e-06	-2.765983e-09	-1.926484e+01	-1.821726e+02
3.100000e-07	-2.558616e-06	-2.737324e-09	-1.922324e+01	-1.819235e+02
3.200000e-07	-2.552938e-06	-2.768943e-09	-1.918058e+01	-1.816732e+02
3.300000e-07	-2.547024e-06	-2.755246e-09	-1.913614e+01	-1.814221e+02
3.400000e-07	-2.540848e-06	-2.753944e-09	-1.908974e+01	-1.811707e+02
3.500000e-07	-2.534507e-06	-2.714680e-09	-1.904210e+01	-1.809192e+02
3.600000e-07	-2.528032e-06	-2.734504e-09	-1.899346e+01	-1.806678e+02
3.700000e-07	-2.521377e-06	-2.754458e-09	-1.894346e+01	-1.804169e+02
3.800000e-07	-2.514495e-06	-2.762732e-09	-1.889175e+01	-1.801665e+02
3.900000e-07	-2.507391e-06	-2.734555e-09	-1.883838e+01	-1.799167e+02
4.000000e-07	-2.500145e-06	-2.733057e-09	-1.878394e+01	-1.796676e+02
4.100000e-07	-2.492716e-06	-2.750175e-09	-1.872812e+01	-1.794192e+02
4.200000e-07	-2.485154e-06	-2.749446e-09	-1.867131e+01	-1.791714e+02
4.300000e-07	-2.477555e-06	-2.725849e-09	-1.861421e+01	-1.789242e+02
4.400000e-07	-2.469879e-06	-2.706175e-09	-1.855654e+01	-1.786774e+02
4.500000e-07	-2.462137e-06	-2.716189e-09	-1.849838e+01	-1.784308e+02
4.600000e-07	-2.454299e-06	-2.719472e-09	-1.843949e+01	-1.781841e+02
4.700000e-07	-2.446294e-06	-2.715307e-09	-1.837935e+01	-1.779370e+02
4.800000e-07	-2.438149e-06	-2.694867e-09	-1.831815e+01	-1.776893e+02
4.900000e-07	-2.429859e-06	-2.698444e-09	-1.825587e+01	-1.774404e+02
5.000000e-07	-2.421405e-06	-2.703848e-09	-1.819235e+01	-1.771902e+02
5.100000e-07	-2.412742e-06	-2.712314e-09	-1.812727e+01	-1.769380e+02
5.200000e-07	-2.403729e-06	-2.693643e-09	-1.805955e+01	-1.766834e+02
5.300000e-07	-2.394360e-06	-2.686444e-09	-1.798916e+01	-1.764260e+02
5.400000e-07	-2.384799e-06	-2.681727e-09	-1.791732e+01	-1.761653e+02
5.500000e-07	-2.375036e-06	-2.686962e-09	-1.784397e+01	-1.759006e+02
5.600000e-07	-2.364993e-06	-2.670309e-09	-1.776852e+01	-1.756316e+02
5.700000e-07	-2.354697e-06	-2.662973e-09	-1.769116e+01	-1.753577e+02
5.800000e-07	-2.344133e-06	-2.657080e-09	-1.761180e+01	-1.750782e+02
5.900000e-07	-2.333299e-06	-2.662204e-09	-1.753040e+01	-1.747928e+02
6.000000e-07	-2.322213e-06	-2.653880e-09	-1.744711e+01	-1.745009e+02
6.100000e-07	-2.310917e-06	-2.646018e-09	-1.736224e+01	-1.742020e+02
6.200000e-07	-2.299408e-06	-2.634150e-09	-1.727577e+01	-1.738956e+02
6.300000e-07	-2.287708e-06	-2.634109e-09	-1.718787e+01	-1.735812e+02
6.400000e-07	-2.275866e-06	-2.629384e-09	-1.709890e+01	-1.732584e+02
6.500000e-07	-2.263906e-06	-2.621090e-09	-1.700904e+01	-1.729268e+02
6.600000e-07	-2.251844e-06	-2.609342e-09	-1.691842e+01	-1.725859e+02
6.700000e-07	-2.239619e-06	-2.607940e-09	-1.682657e+01	-1.722355e+02
6.800000e-07	-2.227206e-06	-2.605526e-09	-1.673331e+01	-1.718752e+02
6.900000e-07	-2.214688e-06	-2.595709e-09	-1.663926e+01	-1.715047e+02
7.000000e-07	-2.201898e-06	-2.585418e-09	-1.654317e+01	-1.711238e+02
7.100000e-07	-2.188882e-06	-2.580228e-09	-1.644538e+01	-1.707322e+02
7.200000e-07	-2.175773e-06	-2.574990e-09	-1.634688e+01	-1.703298e+02
7.300000e-07	-2.162476e-06	-2.563698e-09	-1.624699e+01	-1.699165e+02
7.400000e-07	-2.148988e-06	-2.553914e-09	-1.614564e+01	-1.694921e+02
7.500000e-07	-2.135297e-06	-2.542725e-09	-1.604279e+01	-1.690566e+02
7.600000e-07	-2.121541e-06	-2.534416e-09	-1.593943e+01	-1.686100e+02
7.700000e-07	-2.107741e-06	-2.525010e-09	-1.583575e+01	-1.681522e+02
7.800000e-07	-2.093749e-06	-2.520141e-09	-1.573062e+01	-1.676834e+02
7.900000e-07	-2.079535e-06	-2.511778e-09	-1.562383e+01	-1.672036e+02
8.000000e-07	-2.065059e-06	-2.505153e-09	-1.551507e+01	-1.667129e+02
8.100000e-07	-2.050424e-06	-2.496328e-09	-1.540512e+01	-1.662115e+02
8.200000e-07	-2.035683e-06	-2.492975e-09	-1.529437e+01	-1.656994e+02
8.300000e-07	-2.020604e-06	-2.482641e-09	-1.518108e+01	-1.651768e+02
8.400000e-07	-2.005227e-06	-2.472938e-09	-1.506555e+01	-1.646440e+02
8.500000e-07	-1.989672e-06	-2.464125e-09	-1.494868e+01	-1.641011e+02
8.600000e-07	-1.973960e-06	-2.457969e-09	-1.483064e+01	-1.635484e+02
8.700000e-07	-1.958025e-06	-2.444718e-09	-1.471091e+01	-1.629860e+02
8.800000e-07	-1.941761e-06	-2.434676e-09	-1.458872e+01	-1.624141e+02
8.900000e-07	-1.925376e-06	-2.424732e-09	-1.446561e+01	-1.618330e+02
9.000000e-07	-1.908945e-06	-2.416703e-09	-1.434217e+01	-1.612429e+02
9.100000e-07	-1.892284e-06	-2.407634e-09	-1.421699e+01	-1.606439e+02
9.200000e-07	-1.875438e-06	-2.400338e-09	-1.409043e+01	-1.600362e+02
9.300000e-07	-1.858522e-06	-2.391268e-09	-1.396334e+01	-1.594201e+02
9.400000e-07	-1.841529e-06	-2.382701e-09	-1.383567e+01	-1.587955e+02
9.500000e-07	-1.824441e-06	-2.373942e-09	-1.370728e+01	-1.581627e+02
9.600000e-07	-1.807221e-06	-2.363759e-09	-1.357790e+01	-1.575218e+02
9.700000e-07	-1.789933e-06	-2.353924e-09	-1.344802e+01	-1.568727e+02
9.800000e-07	-1.772609e-06	-2.345456e-09	-1.331786e+01	-1.562157e+02
9.900000e-07	-1.755151e-06	-2.339083e-09	-1.318669e+01	-1.555506e+02
1.000000e-06	-1.737576e-06	-2.330954e-09	-1.305465e+01	-1.548775e+02
1.010000e-06	-1.719941e-06	-2.319921e-09	-1.292216e+01	-1.541964e+02
1.020000e-06	-1.702210e-06	-2.308751e-09	-1.278894e+01	-1.535070e+02
1.030000e-06	-1.684372e-06	-2.302012e-09	-1.265492e+01	-1.528094e+02
1.040000e-06	-1.666490e-06	-2.291893e-09	-1.252057e+01	-1.521035e+02
1.050000e-06	-1.648514e-06	-2.277737e-09	-1.238551e+01	-1.513889e+02
1.060000e-06	-1.630431e-06	-2.262890e-09	-1.224966e+01	-1.506656e+02
1.070000e-06	-1.612306e-06	-2.254169e-09	-1.211348e+01	-1.499332e+02
1.080000e-06	-1.594007e-06	-2.245951e-09	-1.197600e+01	-1.491916e+02
1.090000e-06	-1.575505e-06	-2.234214e-09	-1.183699e+01	-1.484405e+02
1.100000e-06	-1.556837e-06	-2.218366e-09	-1.169673e+01	-1.476795e+02
1.110000e-06	-1.538018e-06	-2.206071e-09	-1.155534e+01	-1.469083e+02
1.120000e-06	-1.519122e-06	-2.196281e-09	-1.141337e+01	-1.461266e+02
1.130000e-06	-1.500079e-06	-2.185057e-09	-1.127030e+01	-1.453340e+02
1.140000e-06	-1.480886e-06	-2.169658e-09	-1.112610e+01	-1.445302e+02
1.150000e-06	-1.461616e-06	-2.154825e-09	-1.098133e+01	-1.437147e+02
1.160000e-06	-1.442263e-06	-2.141205e-09	-1.083592e+01	-1.428871e+02
1.170000e-06	-1.422818e-06	-2.128087e-09	-1.068983e+01	-1.420471e+02
1.180000e-06	-1.403303e-06	-2.112020e-09	-1.054321e+01	-1.411942e+02
1.190000e-06	-1.383745e-06	-2.095758e-09	-1.039627e+01	-1.403280e+02
1.200000e-06	-1.364109e-06	-2.080602e-09	-1.024874e+01	-1.394481e+02
1.210000e-06	-1.344410e-06	-2.070960e-09	-1.010074e+01	-1.385542e+02
1.220000e-06	-1.324695e-06	-2.059344e-09	-9.952620e+00	-1.376457e+02
1.230000e-06	-1.304954e-06	-2.043463e-09	-9.804299e+00	-1.367224e+02
1.240000e-06	-1.285199e-06	-2.028181e-09	-9.655875e+00	-1.357838e+02
1.250000e-06	-1.265431e-06	-2.016831e-09	-9.507359e+00	-1.348296e+02
1.260000e-06	-1.245633e-06	-2.002504e-09	-9.358612e+00	-1.338594e+02
1.270000e-06	-1.225801e-06	-1.983579e-09	-9.209613e+00	-1.328729e+02
1.280000e-06	-1.205890e-06	-1.965785e-09	-9.060018e+00	-1.318698e+02
1.290000e-06	-1.185886e-06	-1.948045e-09	-8.909729e+00	-1.308497e+02
1.300000e-06	-1.165879e-06	-1.931405e-09	-8.759408e+00	-1.298123e+02
1.310000e-06	-1.145876e-06	-1.915532e-09	-8.609123e+00	-1.287575e+02
1.320000e-06	-1.125767e-06	-1.898189e-09	-8.458042e+00	-1.276849e+02
1.330000e-06	-1.105568e-06	-1.877217e-09	-8.306283e+00	-1.265943e+02
1.340000e-06	-1.085315e-06	-1.860121e-09	-8.154124e+00	-1.254855e+02
1.350000e-06	-1.064996e-06	-1.843401e-09	-8.001464e+00	-1.243582e+02
1.360000e-06	-1.044640e-06	-1.825329e-09	-7.848523e+00	-1.232123e+02
1.370000e-06	-1.024203e-06	-1.806585e-09	-7.694978e+00	-1.220476e+02
1.380000e-06	-1.003645e-06	-1.790922e-09	-7.540522e+00	-1.208640e+02
1.390000e-06	-9.830352e-07	-1.775780e-09	-7.385679e+00	-1.196612e+02
1.400000e-06	-9.623528e-07	-1.759746e-09	-7.230290e+00	-1.184391e+02
1.410000e-06	-9.415807e-07	-1.740460e-09	-7.074226e+00	-1.171976e+02
1.420000e-06	-9.206748e-07	-1.721599e-09	-6.917157e+00	-1.159366e+02
1.430000e-06	-8.995859e-07	-1.702497e-09	-6.758713e+00	-1.146558e+02
1.440000e-06	-8.783752e-07	-1.680548e-09	-6.599355e+00	-1.133552e+02
1.450000e-06	-8.570933e-07	-1.655442e-09	-6.439460e+00	-1.120347e+02
1.460000e-06	-8.358312e-07	-1.633240e-09	-6.279716e+00	-1.106940e+02
1.470000e-06	-8.145321e-07	-1.616104e-09	-6.119693e+00	-1.093330e+02
1.480000e-06	-7.931278e-07	-1.596130e-09	-5.958879e+00	-1.079517e+02
1.490000e-06	-7.716670e-07	-1.573314e-09	-5.797641e+00	-1.065498e+02
1.500000e-06	-7.501888e-07	-1.551698e-09	-5.636272e+00	-1.051271e+02
1.510000e-06	-7.286880e-07	-1.530541e-09	-5.474734e+00	-1.036835e+02
1.520000e-06	-7.071251e-07	-1.508405e-09	-5.312729e+00	-1.022188e+02
1.530000e-06	-6.855235e-07	-1.486999e-09	-5.150433e+00	-1.007328e+02
1.540000e-06	-6.638856e-07	-1.464948e-09	-4.987865e+00	-9.922532e+01
1.550000e-06	-6.422153e-07	-1.440728e-09	-4.825052e+00	-9.769605e+01
1.560000e-06	-6.205390e-07	-1.415786e-09	-4.662196e+00	-9.614479e+01
1.570000e-06	-5.987949e-07	-1.391122e-09	-4.498829e+00	-9.457130e+01
1.580000e-06	-5.770172e-07	-1.365130e-09	-4.335210e+00	-9.297531e+01
1.590000e-06	-5.552004e-07	-1.339733e-09	-4.171298e+00	-9.135655e+01
1.600000e-06	-5.333516e-07	-1.314983e-09	-4.007145e+00	-8.971476e+01
1.610000e-06	-5.115168e-07	-1.290374e-09	-3.843097e+00	-8.804964e+01
1.620000e-06	-4.896728e-07	-1.265939e-09	-3.678980e+00	-8.636092e+01
1.630000e-06	-4.678185e-07	-1.240722e-09	-3.514785e+00	-8.464829e+01
1.640000e-06	-4.459328e-07	-1.215389e-09	-3.350355e+00	-8.291149e+01
1.650000e-06	-4.240543e-07	-1.190461e-09	-3.185978e+00	-8.115021e+01
1.660000e-06	-4.021075e-07	-1.161628e-09	-3.021090e+00	-7.936419e+01
1.670000e-06	-3.801108e-07	-1.131221e-09	-2.855825e+00	-7.755317e+01
1.680000e-06	-3.581573e-07	-1.104164e-09	-2.690885e+00	-7.571688e+01
1.690000e-06	-3.361323e-07	-1.078278e-09	-2.525409e+00	-7.385509e+01
1.700000e-06	-3.140272e-07	-1.050326e-09	-2.359330e+00	-7.196760e+01
1.710000e-06	-2.919758e-07	-1.020771e-09	-2.193655e+00	-7.005420e+01
1.720000e-06	-2.699274e-07	-9.899163e-10	-2.028002e+00	-6.811474e+01
1.730000e-06	-2.478250e-07	-9.595624e-10	-1.861944e+00	-6.614910e+01
1.740000e-06	-2.257352e-07	-9.295860e-10	-1.695980e+00	-6.415718e+01
1.750000e-06	-2.036242e-07	-8.997586e-10	-1.529857e+00	-6.213892e+01
1.760000e-06	-1.814976e-07	-8.694808e-10	-1.363617e+00	-6.009433e+01
1.770000e-06	-1.593566e-07	-8.387546e-10	-1.197268e+00	-5.802343e+01
1.780000e-06	-1.371750e-07	-8.090125e-10	-1.030615e+00	-5.592632e+01
1.790000e-06	-1.150473e-07	-7.792728e-10	-8.643667e-01	-5.380313e+01
1.800000e-06	-9.290828e-08	-7.478524e-10	-6.980328e-01	-5.165407e+01
1.810000e-06	-7.072903e-08	-7.142640e-10	-5.313970e-01	-4.947940e+01
1.820000e-06	-4.860079e-08	-6.809813e-10	-3.651445e-01	-4.727942e+01
1.830000e-06	-2.645818e-08	-6.482323e-10	-1.987840e-01	-4.505452e+01
1.840000e-06	-4.234922e-09	-6.152367e-10	-3.181756e-02	-4.280514e+01
1.850000e-06	1.797916e-08	-5.813425e-10	1.350799e-01	-4.053180e+01
1.860000e-06	4.021259e-08	-5.461281e-10	3.021227e-01	-3.823506e+01
1.870000e-06	6.255016e-08	-5.112013e-10	4.699480e-01	-3.591558e+01
1.880000e-06	8.479360e-08	-4.776526e-10	6.370660e-01	-3.357405e+01
1.890000e-06	1.069873e-07	-4.435657e-10	8.038101e-01	-3.121125e+01
1.900000e-06	1.291504e-07	-4.077037e-10	9.703251e-01	-2.882803e+01
1.910000e-06	1.512653e-07	-3.724263e-10	1.136477e+00	-2.642528e+01
1.920000e-06	1.733437e-07	-3.391003e-10	1.302355e+00	-2.400398e+01
1.930000e-06	1.954122e-07	-3.052041e-10	1.468159e+00	-2.156514e+01
1.940000e-06	2.175265e-07	-2.687346e-10	1.634306e+00	-1.910986e+01
1.950000e-06	2.396344e-07	-2.312111e-10	1.800406e+00	-1.663928e+01
1.960000e-06	2.617488e-07	-1.947334e-10	1.966555e+00	-1.415458e+01
1.970000e-06	2.838275e-07	-1.588370e-10	2.132435e+00	-1.165700e+01
1.980000e-06	3.059111e-07	-1.216337e-10	2.298353e+00	-9.147835e+00
1.990000e-06	3.279347e-07	-8.314795e-11	2.463819e+00	-6.628403e+00
2.000000e-06	3.498857e-07	-4.606925e-11	2.628739e+00	-4.100066e+00
2.010000e-06	3.718459e-07	-1.050264e-11	2.793730e+00	-1.564216e+00
2.020000e-06	3.937981e-07	2.588488e-11	2.958659e+00	9.777268e-01
2.030000e-06	4.157444e-07	6.336250e-11	3.123546e+00	3.524322e+00
2.040000e-06	4.376260e-07	1.029251e-10	3.287945e+00	6.074110e+00
2.050000e-06	4.594707e-07	1.419945e-10	3.452067e+00	8.625621e+00
2.060000e-06	4.813470e-07	1.793739e-10	3.616426e+00	1.117738e+01
2.070000e-06	5.031523e-07	2.183222e-10	3.780253e+00	1.372790e+01
2.080000e-06	5.249222e-07	2.583833e-10	3.943813e+00	1.627572e+01
2.090000e-06	5.467226e-07	2.958433e-10	4.107603e+00	1.881936e+01
2.100000e-06	5.684741e-07	3.319097e-10	4.271024e+00	2.135737e+01
2.110000e-06	5.901581e-07	3.672170e-10	4.433940e+00	2.388831e+01
2.120000e-06	6.118127e-07	4.018683e-10	4.596633e+00	2.641078e+01
2.130000e-06	6.334751e-07	4.374193e-10	4.759386e+00	2.892339e+01
2.140000e-06	6.551469e-07	4.722269e-10	4.922209e+00	3.142478e+01
2.150000e-06	6.767855e-07	5.061594e-10	5.084784e+00	3.391363e+01
2.160000e-06	6.983577e-07	5.414693e-10	5.246858e+00	3.638868e+01
2.170000e-06	7.199066e-07	5.788970e-10	5.408758e+00	3.884868e+01
2.180000e-06	7.414416e-07	6.146391e-10	5.570554e+00	4.129244e+01
2.190000e-06	7.628843e-07	6.497778e-10	5.731655e+00	4.371882e+01
2.200000e-06	7.842341e-07	6.841987e-10	5.892060e+00	4.612675e+01
2.210000e-06	8.055374e-07	7.173778e-10	6.052114e+00	4.851517e+01
2.220000e-06	8.267772e-07	7.514915e-10	6.211692e+00	5.088312e+01
2.230000e-06	8.479631e-07	7.850749e-10	6.370864e+00	5.322968e+01
2.240000e-06	8.690784e-07	8.149305e-10	6.529506e+00	5.555398e+01
2.250000e-06	8.900752e-07	8.462269e-10	6.687258e+00	5.785523e+01
2.260000e-06	9.110159e-07	8.802330e-10	6.844589e+00	6.013267e+01
2.270000e-06	9.319058e-07	9.127973e-10	7.001537e+00	6.238564e+01
2.280000e-06	9.526831e-07	9.434602e-10	7.157640e+00	6.461352e+01
2.290000e-06	9.733635e-07	9.735105e-10	7.313015e+00	6.681575e+01
2.300000e-06	9.940037e-07	1.004129e-09	7.468088e+00	6.899183e+01
2.310000e-06	1.014511e-06	1.036003e-09	7.622165e+00	7.114132e+01
2.320000e-06	1.034909e-06	1.068410e-09	7.775418e+00	7.326385e+01
2.330000e-06	1.055308e-06	1.098448e-09	7.928672e+00	7.535909e+01
2.340000e-06	1.075645e-06	1.126241e-09	8.081468e+00	7.742678e+01
2.350000e-06	1.095886e-06	1.155373e-09	8.233540e+00	7.946670e+01
2.360000e-06	1.116003e-06	1.185720e-09	8.384682e+00	8.147871e+01
2.370000e-06	1.136000e-06	1.214694e-09	8.534927e+00	8.346268e+01
2.380000e-06	1.155950e-06	1.243503e-09	8.684815e+00	8.541855e+01
2.390000e-06	1.175893e-06	1.271777e-09	8.834646e+00	8.734632e+01
2.400000e-06	1.195803e-06	1.301726e-09	8.984236e+00	8.924601e+01
2.410000e-06	1.215617e-06	1.331367e-09	9.133096e+00	9.111769e+01
2.420000e-06	1.235365e-06	1.357879e-09	9.281471e+00	9.296146e+01
2.430000e-06	1.255143e-06	1.384274e-09	9.430060e+00	9.477748e+01
2.440000e-06	1.274923e-06	1.413254e-09	9.578675e+00	9.656592e+01
2.450000e-06	1.294644e-06	1.442068e-09	9.726837e+00	9.832699e+01
2.460000e-06	1.314331e-06	1.467429e-09	9.874755e+00	1.000609e+02
2.470000e-06	1.334016e-06	1.491394e-09	1.002265e+01	1.017680e+02
2.480000e-06	1.353656e-06	1.518708e-09	1.017021e+01	1.034485e+02
2.490000e-06	1.373250e-06	1.545924e-09	1.031741e+01	1.051027e+02
2.500000e-06	1.392818e-06	1.570816e-09	1.046444e+01	1.067310e+02
2.510000e-06	1.412301e-06	1.593872e-09	1.061081e+01	1.083337e+02
2.520000e-06	1.431666e-06	1.618528e-09	1.075630e+01	1.099112e+02
2.530000e-06	1.450851e-06	1.646668e-09	1.090044e+01	1.114638e+02
2.540000e-06	1.469971e-06	1.673127e-09	1.104410e+01	1.129920e+02
2.550000e-06	1.489166e-06	1.695518e-09	1.118831e+01	1.144960e+02
2.560000e-06	1.508261e-06	1.717069e-09	1.133177e+01	1.159764e+02
2.570000e-06	1.527175e-06	1.742755e-09	1.147388e+01	1.174335e+02
2.580000e-06	1.545907e-06	1.768537e-09	1.161461e+01	1.188677e+02
2.590000e-06	1.564457e-06	1.789780e-09	1.175398e+01	1.202795e+02
2.600000e-06	1.582797e-06	1.810154e-09	1.189178e+01	1.216691e+02
2.610000e-06	1.600978e-06	1.832956e-09	1.202837e+01	1.230372e+02
2.620000e-06	1.619062e-06	1.855614e-09	1.216424e+01	1.243839e+02
2.630000e-06	1.637054e-06	1.876988e-09	1.229941e+01	1.257098e+02
2.640000e-06	1.654998e-06	1.896879e-09	1.243423e+01	1.270153e+02
2.650000e-06	1.672785e-06	1.918092e-09	1.256787e+01	1.283006e+02
2.660000e-06	1.690404e-06	1.940496e-09	1.270024e+01	1.295662e+02
2.670000e-06	1.707950e-06	1.960793e-09	1.283207e+01	1.308125e+02
2.680000e-06	1.725415e-06	1.977896e-09	1.296328e+01	1.320398e+02
2.690000e-06	1.742752e-06	1.994957e-09	1.309354e+01	1.332484e+02
2.700000e-06	1.759971e-06	2.015701e-09	1.322291e+01	1.344387e+02
2.710000e-06	1.777156e-06	2.036776e-09	1.335202e+01	1.356111e+02
2.720000e-06	1.794290e-06	2.053598e-09	1.348075e+01	1.367657e+02
2.730000e-06	1.811335e-06	2.070052e-09	1.360881e+01	1.379029e+02
2.740000e-06	1.828303e-06	2.089605e-09	1.373629e+01	1.390230e+02
2.750000e-06	1.845179e-06	2.109226e-09	1.386308e+01	1.401263e+02
2.760000e-06	1.861980e-06	2.125676e-09	1.398931e+01	1.412130e+02
2.770000e-06	1.878765e-06	2.139686e-09	1.411542e+01	1.422832e+02
2.780000e-06	1.895430e-06	2.155386e-09	1.424063e+01	1.433373e+02
2.790000e-06	1.911968e-06	2.173258e-09	1.436488e+01	1.443755e+02
2.800000e-06	1.928338e-06	2.190419e-09	1.448787e+01	1.453979e+02
2.810000e-06	1.944458e-06	2.204569e-09	1.460898e+01	1.464047e+02
2.820000e-06	1.960424e-06	2.219149e-09	1.472893e+01	1.473960e+02
2.830000e-06	1.976016e-06	2.236044e-09	1.484609e+01	1.483721e+02
2.840000e-06	1.991327e-06	2.250935e-09	1.496112e+01	1.493329e+02
2.850000e-06	2.006550e-06	2.263041e-09	1.507549e+01	1.502787e+02
2.860000e-06	2.021487e-06	2.277143e-09	1.518771e+01	1.512095e+02
2.870000e-06	2.036113e-06	2.292537e-09	1.529760e+01	1.521254e+02
2.880000e-06	2.050535e-06	2.304037e-09	1.540595e+01	1.530264e+02
2.890000e-06	2.064820e-06	2.314926e-09	1.551328e+01	1.539127e+02
2.900000e-06	2.078947e-06	2.328373e-09	1.561941e+01	1.547843e+02
