# Temperatura_=_20.0
# Concentracion g/m^3_=_9000.0
# C_Vs_to_Am_M_A/Vsm_=_65563218390.804596
# pendiente_HvsI_1/m_=_3716.3
# ordenada_HvsI_A/m_=_1297.0
# frecuencia_Hz_=_212906.68357362415

Tiempo_(s)	Campo_(V.s)	Magnetizacion_(V.s)	Campo_(kA/m)	Magnetizacion_(A/m)
0.000000e+00	-6.674270e-06	-4.323246e-09	-5.696681e+01	-2.832096e+02
1.000000e-08	-6.673965e-06	-4.321219e-09	-5.696420e+01	-2.832249e+02
2.000000e-08	-6.672365e-06	-4.320789e-09	-5.695054e+01	-2.832338e+02
3.000000e-08	-6.669406e-06	-4.321694e-09	-5.692529e+01	-2.832354e+02
4.000000e-08	-6.665356e-06	-4.324777e-09	-5.689072e+01	-2.832287e+02
5.000000e-08	-6.660335e-06	-4.325895e-09	-5.684787e+01	-2.832125e+02
6.000000e-08	-6.654276e-06	-4.324204e-09	-5.679615e+01	-2.831856e+02
7.000000e-08	-6.647198e-06	-4.322250e-09	-5.673574e+01	-2.831470e+02
8.000000e-08	-6.639154e-06	-4.311460e-09	-5.666708e+01	-2.830958e+02
9.000000e-08	-6.629822e-06	-4.309886e-09	-5.658742e+01	-2.830316e+02
1.000000e-07	-6.618880e-06	-4.337760e-09	-5.649404e+01	-2.829543e+02
1.100000e-07	-6.606356e-06	-4.361475e-09	-5.638714e+01	-2.828643e+02
1.200000e-07	-6.592294e-06	-4.356277e-09	-5.626711e+01	-2.827621e+02
1.300000e-07	-6.576723e-06	-4.286136e-09	-5.613421e+01	-2.826486e+02
1.400000e-07	-6.559998e-06	-4.234960e-09	-5.599146e+01	-2.825247e+02
1.500000e-07	-6.542382e-06	-4.322188e-09	-5.584110e+01	-2.823913e+02
1.600000e-07	-6.523830e-06	-4.356630e-09	-5.568276e+01	-2.822493e+02
1.700000e-07	-6.504451e-06	-4.300258e-09	-5.551735e+01	-2.820991e+02
1.800000e-07	-6.484121e-06	-4.267721e-09	-5.534383e+01	-2.819406e+02
1.900000e-07	-6.462618e-06	-4.229121e-09	-5.516029e+01	-2.817733e+02
2.000000e-07	-6.440235e-06	-4.275308e-09	-5.496925e+01	-2.815959e+02
2.100000e-07	-6.416967e-06	-4.369419e-09	-5.477065e+01	-2.814068e+02
2.200000e-07	-6.392368e-06	-4.293398e-09	-5.456069e+01	-2.812035e+02
2.300000e-07	-6.366381e-06	-4.218550e-09	-5.433888e+01	-2.809833e+02
2.400000e-07	-6.339226e-06	-4.301686e-09	-5.410711e+01	-2.807430e+02
2.500000e-07	-6.311057e-06	-4.324657e-09	-5.386667e+01	-2.804794e+02
2.600000e-07	-6.281880e-06	-4.279791e-09	-5.361764e+01	-2.801892e+02
2.700000e-07	-6.251595e-06	-4.216684e-09	-5.335915e+01	-2.798696e+02
2.800000e-07	-6.220247e-06	-4.192661e-09	-5.309159e+01	-2.795182e+02
2.900000e-07	-6.187894e-06	-4.269041e-09	-5.281545e+01	-2.791331e+02
3.000000e-07	-6.154391e-06	-4.275624e-09	-5.252949e+01	-2.787136e+02
3.100000e-07	-6.119600e-06	-4.186915e-09	-5.223254e+01	-2.782595e+02
3.200000e-07	-6.083574e-06	-4.176341e-09	-5.192505e+01	-2.777716e+02
3.300000e-07	-6.046380e-06	-4.215711e-09	-5.160759e+01	-2.772516e+02
3.400000e-07	-6.008106e-06	-4.215698e-09	-5.128090e+01	-2.767020e+02
3.500000e-07	-5.968928e-06	-4.215302e-09	-5.094651e+01	-2.761259e+02
3.600000e-07	-5.928715e-06	-4.184793e-09	-5.060328e+01	-2.755265e+02
3.700000e-07	-5.887182e-06	-4.136328e-09	-5.024878e+01	-2.749075e+02
3.800000e-07	-5.844410e-06	-4.181730e-09	-4.988371e+01	-2.742723e+02
3.900000e-07	-5.800630e-06	-4.220156e-09	-4.951004e+01	-2.736240e+02
4.000000e-07	-5.755808e-06	-4.133974e-09	-4.912747e+01	-2.729651e+02
4.100000e-07	-5.709950e-06	-4.095586e-09	-4.873606e+01	-2.722973e+02
4.200000e-07	-5.663216e-06	-4.157344e-09	-4.833717e+01	-2.716216e+02
4.300000e-07	-5.615517e-06	-4.161369e-09	-4.793005e+01	-2.709380e+02
4.400000e-07	-5.566563e-06	-4.103463e-09	-4.751221e+01	-2.702455e+02
4.500000e-07	-5.516262e-06	-4.082790e-09	-4.708288e+01	-2.695424e+02
4.600000e-07	-5.464770e-06	-4.100078e-09	-4.664338e+01	-2.688262e+02
4.700000e-07	-5.412237e-06	-4.095601e-09	-4.619499e+01	-2.680942e+02
4.800000e-07	-5.358743e-06	-4.070551e-09	-4.573840e+01	-2.673430e+02
4.900000e-07	-5.304362e-06	-4.044901e-09	-4.527425e+01	-2.665696e+02
5.000000e-07	-5.249143e-06	-4.029893e-09	-4.480294e+01	-2.657709e+02
5.100000e-07	-5.193141e-06	-4.030364e-09	-4.432494e+01	-2.649445e+02
5.200000e-07	-5.136320e-06	-4.024655e-09	-4.383996e+01	-2.640884e+02
5.300000e-07	-5.078437e-06	-4.005904e-09	-4.334591e+01	-2.632013e+02
5.400000e-07	-5.019357e-06	-3.980421e-09	-4.284165e+01	-2.622830e+02
5.500000e-07	-4.959408e-06	-3.972084e-09	-4.232996e+01	-2.613336e+02
5.600000e-07	-4.898755e-06	-3.981206e-09	-4.181227e+01	-2.603541e+02
5.700000e-07	-4.837311e-06	-3.962370e-09	-4.128783e+01	-2.593462e+02
5.800000e-07	-4.775042e-06	-3.920405e-09	-4.075635e+01	-2.583115e+02
5.900000e-07	-4.711943e-06	-3.905920e-09	-4.021778e+01	-2.572519e+02
6.000000e-07	-4.648124e-06	-3.911112e-09	-3.967307e+01	-2.561694e+02
6.100000e-07	-4.583536e-06	-3.886415e-09	-3.912179e+01	-2.550653e+02
6.200000e-07	-4.517941e-06	-3.848451e-09	-3.856192e+01	-2.539403e+02
6.300000e-07	-4.451250e-06	-3.839572e-09	-3.799269e+01	-2.527947e+02
6.400000e-07	-4.383751e-06	-3.836484e-09	-3.741657e+01	-2.516276e+02
6.500000e-07	-4.315622e-06	-3.814247e-09	-3.683507e+01	-2.504376e+02
6.600000e-07	-4.246738e-06	-3.789164e-09	-3.624713e+01	-2.492221e+02
6.700000e-07	-4.177071e-06	-3.771613e-09	-3.565249e+01	-2.479782e+02
6.800000e-07	-4.106728e-06	-3.754259e-09	-3.505210e+01	-2.467021e+02
6.900000e-07	-4.035745e-06	-3.735307e-09	-3.444624e+01	-2.453899e+02
7.000000e-07	-3.964080e-06	-3.714857e-09	-3.383456e+01	-2.440376e+02
7.100000e-07	-3.891643e-06	-3.688097e-09	-3.321628e+01	-2.426413e+02
7.200000e-07	-3.818279e-06	-3.662214e-09	-3.259010e+01	-2.411976e+02
7.300000e-07	-3.744059e-06	-3.644793e-09	-3.195662e+01	-2.397035e+02
7.400000e-07	-3.668995e-06	-3.622554e-09	-3.131592e+01	-2.381570e+02
7.500000e-07	-3.593076e-06	-3.590926e-09	-3.066793e+01	-2.365567e+02
7.600000e-07	-3.516453e-06	-3.564650e-09	-3.001394e+01	-2.349020e+02
7.700000e-07	-3.439201e-06	-3.547109e-09	-2.935457e+01	-2.331929e+02
7.800000e-07	-3.361443e-06	-3.522820e-09	-2.869088e+01	-2.314301e+02
7.900000e-07	-3.283076e-06	-3.485162e-09	-2.802199e+01	-2.296144e+02
8.000000e-07	-3.203793e-06	-3.452977e-09	-2.734529e+01	-2.277469e+02
8.100000e-07	-3.123721e-06	-3.433044e-09	-2.666185e+01	-2.258281e+02
8.200000e-07	-3.043099e-06	-3.405475e-09	-2.597372e+01	-2.238581e+02
8.300000e-07	-2.961981e-06	-3.364971e-09	-2.528136e+01	-2.218363e+02
8.400000e-07	-2.880439e-06	-3.330293e-09	-2.458537e+01	-2.197609e+02
8.500000e-07	-2.798468e-06	-3.306222e-09	-2.388573e+01	-2.176291e+02
8.600000e-07	-2.716109e-06	-3.276769e-09	-2.318277e+01	-2.154370e+02
8.700000e-07	-2.633377e-06	-3.238060e-09	-2.247662e+01	-2.131795e+02
8.800000e-07	-2.550233e-06	-3.199276e-09	-2.176697e+01	-2.108505e+02
8.900000e-07	-2.466697e-06	-3.164340e-09	-2.105397e+01	-2.084432e+02
9.000000e-07	-2.382880e-06	-3.129782e-09	-2.033857e+01	-2.059503e+02
9.100000e-07	-2.298847e-06	-3.089222e-09	-1.962132e+01	-2.033645e+02
9.200000e-07	-2.214592e-06	-3.042307e-09	-1.890217e+01	-2.006786e+02
9.300000e-07	-2.130024e-06	-2.995753e-09	-1.818037e+01	-1.978859e+02
9.400000e-07	-2.045096e-06	-2.954739e-09	-1.745548e+01	-1.949803e+02
9.500000e-07	-1.959825e-06	-2.913616e-09	-1.672767e+01	-1.919566e+02
9.600000e-07	-1.874191e-06	-2.864076e-09	-1.599676e+01	-1.888105e+02
9.700000e-07	-1.788233e-06	-2.810125e-09	-1.526308e+01	-1.855385e+02
9.800000e-07	-1.701928e-06	-2.760031e-09	-1.452645e+01	-1.821375e+02
9.900000e-07	-1.615291e-06	-2.709910e-09	-1.378697e+01	-1.786044e+02
1.000000e-06	-1.528386e-06	-2.652880e-09	-1.304521e+01	-1.749360e+02
1.010000e-06	-1.441265e-06	-2.590399e-09	-1.230161e+01	-1.711279e+02
1.020000e-06	-1.353902e-06	-2.529613e-09	-1.155594e+01	-1.671740e+02
1.030000e-06	-1.266249e-06	-2.470934e-09	-1.080780e+01	-1.630663e+02
1.040000e-06	-1.178371e-06	-2.405567e-09	-1.005774e+01	-1.587935e+02
1.050000e-06	-1.090370e-06	-2.334969e-09	-9.306623e+00	-1.543415e+02
1.060000e-06	-1.002245e-06	-2.262736e-09	-8.554447e+00	-1.496924e+02
1.070000e-06	-9.139139e-07	-2.188843e-09	-7.800516e+00	-1.448246e+02
1.080000e-06	-8.254433e-07	-2.111901e-09	-7.045395e+00	-1.397132e+02
1.090000e-06	-7.368296e-07	-2.031056e-09	-6.289051e+00	-1.343302e+02
1.100000e-06	-6.479819e-07	-1.945438e-09	-5.530711e+00	-1.286453e+02
1.110000e-06	-5.589924e-07	-1.852602e-09	-4.771160e+00	-1.226269e+02
1.120000e-06	-4.698879e-07	-1.755426e-09	-4.010628e+00	-1.162434e+02
1.130000e-06	-3.806660e-07	-1.654056e-09	-3.249093e+00	-1.094645e+02
1.140000e-06	-2.913093e-07	-1.545699e-09	-2.486408e+00	-1.022628e+02
1.150000e-06	-2.018382e-07	-1.427238e-09	-1.722747e+00	-9.461557e+01
1.160000e-06	-1.123763e-07	-1.302115e-09	-9.591640e-01	-8.650614e+01
1.170000e-06	-2.295531e-08	-1.173240e-09	-1.959302e-01	-7.792548e+01
1.180000e-06	6.643300e-08	-1.035915e-09	5.670246e-01	-6.887348e+01
1.190000e-06	1.557979e-07	-8.900264e-10	1.329780e+00	-5.935995e+01
1.200000e-06	2.450589e-07	-7.362271e-10	2.091648e+00	-4.940526e+01
1.210000e-06	3.342097e-07	-5.761116e-10	2.852575e+00	-3.904064e+01
1.220000e-06	4.232524e-07	-4.128856e-10	3.612581e+00	-2.830798e+01
1.230000e-06	5.121100e-07	-2.473993e-10	4.371005e+00	-1.725922e+01
1.240000e-06	6.008421e-07	-7.724069e-11	5.128359e+00	-5.955337e+00
1.250000e-06	6.893972e-07	9.788336e-11	5.884202e+00	5.535137e+00
1.260000e-06	7.777793e-07	2.747769e-10	6.638569e+00	1.713785e+01
1.270000e-06	8.660478e-07	4.521042e-10	7.391966e+00	2.877468e+01
1.280000e-06	9.541552e-07	6.296618e-10	8.143987e+00	4.036597e+01
1.290000e-06	1.042119e-06	8.059665e-10	8.894781e+00	5.183276e+01
1.300000e-06	1.129957e-06	9.777666e-10	9.644506e+00	6.309911e+01
1.310000e-06	1.217646e-06	1.144873e-09	1.039295e+01	7.409415e+01
1.320000e-06	1.305142e-06	1.308401e-09	1.113976e+01	8.475407e+01
1.330000e-06	1.392442e-06	1.467343e-09	1.188489e+01	9.502361e+01
1.340000e-06	1.479508e-06	1.617220e-09	1.262802e+01	1.048574e+02
1.350000e-06	1.566371e-06	1.758325e-09	1.336942e+01	1.142205e+02
1.360000e-06	1.653062e-06	1.893479e-09	1.410935e+01	1.230893e+02
1.370000e-06	1.739523e-06	2.017856e-09	1.484733e+01	1.314508e+02
1.380000e-06	1.825694e-06	2.130893e-09	1.558282e+01	1.393025e+02
1.390000e-06	1.911586e-06	2.237833e-09	1.631594e+01	1.466513e+02
1.400000e-06	1.997235e-06	2.339412e-09	1.704697e+01	1.535128e+02
1.410000e-06	2.082522e-06	2.431628e-09	1.777492e+01	1.599093e+02
1.420000e-06	2.167353e-06	2.518025e-09	1.849898e+01	1.658684e+02
1.430000e-06	2.251765e-06	2.602116e-09	1.921946e+01	1.714218e+02
1.440000e-06	2.335874e-06	2.680013e-09	1.993735e+01	1.766029e+02
1.450000e-06	2.419749e-06	2.753073e-09	2.065325e+01	1.814460e+02
1.460000e-06	2.503374e-06	2.824455e-09	2.136701e+01	1.859847e+02
1.470000e-06	2.586600e-06	2.892565e-09	2.207737e+01	1.902505e+02
1.480000e-06	2.669344e-06	2.953676e-09	2.278361e+01	1.942725e+02
1.490000e-06	2.751621e-06	3.010343e-09	2.348587e+01	1.980763e+02
1.500000e-06	2.833329e-06	3.066956e-09	2.418328e+01	2.016837e+02
1.510000e-06	2.914527e-06	3.120356e-09	2.487632e+01	2.051132e+02
1.520000e-06	2.995339e-06	3.168871e-09	2.556608e+01	2.083795e+02
1.530000e-06	3.075646e-06	3.212720e-09	2.625152e+01	2.114942e+02
1.540000e-06	3.155359e-06	3.254288e-09	2.693189e+01	2.144663e+02
1.550000e-06	3.234380e-06	3.295992e-09	2.760636e+01	2.173026e+02
1.560000e-06	3.312687e-06	3.335291e-09	2.827473e+01	2.200088e+02
1.570000e-06	3.390440e-06	3.370558e-09	2.893837e+01	2.225893e+02
1.580000e-06	3.467611e-06	3.403254e-09	2.959706e+01	2.250487e+02
1.590000e-06	3.544096e-06	3.437162e-09	3.024987e+01	2.273914e+02
1.600000e-06	3.619927e-06	3.470970e-09	3.089711e+01	2.296224e+02
1.610000e-06	3.695126e-06	3.501717e-09	3.153896e+01	2.317474e+02
1.620000e-06	3.769405e-06	3.529970e-09	3.217295e+01	2.337728e+02
1.630000e-06	3.842574e-06	3.555989e-09	3.279747e+01	2.357056e+02
1.640000e-06	3.914867e-06	3.581745e-09	3.341451e+01	2.375533e+02
1.650000e-06	3.986511e-06	3.606690e-09	3.402601e+01	2.393237e+02
1.660000e-06	4.057535e-06	3.630457e-09	3.463222e+01	2.410243e+02
1.670000e-06	4.127900e-06	3.653323e-09	3.523280e+01	2.426625e+02
1.680000e-06	4.197519e-06	3.674768e-09	3.582702e+01	2.442448e+02
1.690000e-06	4.266400e-06	3.698462e-09	3.641494e+01	2.457770e+02
1.700000e-06	4.334621e-06	3.721317e-09	3.699723e+01	2.472636e+02
1.710000e-06	4.402254e-06	3.742064e-09	3.757450e+01	2.487081e+02
1.720000e-06	4.469270e-06	3.761567e-09	3.814650e+01	2.501125e+02
1.730000e-06	4.535373e-06	3.779144e-09	3.871071e+01	2.514781e+02
1.740000e-06	4.600355e-06	3.796309e-09	3.926535e+01	2.528049e+02
1.750000e-06	4.664424e-06	3.813331e-09	3.981219e+01	2.540924e+02
1.760000e-06	4.727856e-06	3.830425e-09	4.035360e+01	2.553394e+02
1.770000e-06	4.790612e-06	3.847270e-09	4.088925e+01	2.565448e+02
1.780000e-06	4.852510e-06	3.864680e-09	4.141756e+01	2.577074e+02
1.790000e-06	4.913525e-06	3.881233e-09	4.193834e+01	2.588263e+02
1.800000e-06	4.973803e-06	3.895704e-09	4.245283e+01	2.599013e+02
1.810000e-06	5.033488e-06	3.909702e-09	4.296226e+01	2.609327e+02
1.820000e-06	5.092399e-06	3.924145e-09	4.346508e+01	2.619217e+02
1.830000e-06	5.150218e-06	3.939511e-09	4.395859e+01	2.628701e+02
1.840000e-06	5.206913e-06	3.954088e-09	4.444249e+01	2.637803e+02
1.850000e-06	5.262655e-06	3.966176e-09	4.491826e+01	2.646555e+02
1.860000e-06	5.317527e-06	3.978160e-09	4.538662e+01	2.654988e+02
1.870000e-06	5.371529e-06	3.992579e-09	4.584754e+01	2.663138e+02
1.880000e-06	5.424639e-06	4.008372e-09	4.630085e+01	2.671036e+02
1.890000e-06	5.476728e-06	4.022081e-09	4.674544e+01	2.678713e+02
1.900000e-06	5.527557e-06	4.034269e-09	4.717928e+01	2.686192e+02
1.910000e-06	5.576971e-06	4.047865e-09	4.760104e+01	2.693492e+02
1.920000e-06	5.625126e-06	4.061486e-09	4.801206e+01	2.700622e+02
1.930000e-06	5.672295e-06	4.071738e-09	4.841466e+01	2.707586e+02
1.940000e-06	5.718538e-06	4.080965e-09	4.880936e+01	2.714379e+02
1.950000e-06	5.763777e-06	4.091682e-09	4.919548e+01	2.720992e+02
1.960000e-06	5.808108e-06	4.102359e-09	4.957386e+01	2.727409e+02
1.970000e-06	5.851636e-06	4.112842e-09	4.994539e+01	2.733614e+02
1.980000e-06	5.894061e-06	4.123568e-09	5.030750e+01	2.739588e+02
1.990000e-06	5.935125e-06	4.133704e-09	5.065799e+01	2.745317e+02
2.000000e-06	5.975054e-06	4.142333e-09	5.099880e+01	2.750786e+02
2.010000e-06	6.014041e-06	4.150104e-09	5.133156e+01	2.755989e+02
2.020000e-06	6.052003e-06	4.157827e-09	5.165558e+01	2.760922e+02
2.030000e-06	6.088940e-06	4.165453e-09	5.197085e+01	2.765592e+02
2.040000e-06	6.124974e-06	4.174112e-09	5.227840e+01	2.770008e+02
2.050000e-06	6.160074e-06	4.183295e-09	5.257800e+01	2.774188e+02
2.060000e-06	6.193994e-06	4.192235e-09	5.286751e+01	2.778153e+02
2.070000e-06	6.226632e-06	4.199114e-09	5.314609e+01	2.781928e+02
2.080000e-06	6.258147e-06	4.204321e-09	5.341508e+01	2.785539e+02
2.090000e-06	6.288628e-06	4.210306e-09	5.367524e+01	2.789011e+02
2.100000e-06	6.318093e-06	4.215562e-09	5.392673e+01	2.792368e+02
2.110000e-06	6.346602e-06	4.220174e-09	5.417006e+01	2.795628e+02
2.120000e-06	6.374190e-06	4.225666e-09	5.440553e+01	2.798806e+02
2.130000e-06	6.400670e-06	4.233288e-09	5.463155e+01	2.801909e+02
2.140000e-06	6.425767e-06	4.239218e-09	5.484576e+01	2.804938e+02
2.150000e-06	6.449559e-06	4.242347e-09	5.504883e+01	2.807888e+02
2.160000e-06	6.472215e-06	4.246624e-09	5.524221e+01	2.810748e+02
2.170000e-06	6.493756e-06	4.251944e-09	5.542606e+01	2.813503e+02
2.180000e-06	6.514313e-06	4.256530e-09	5.560153e+01	2.816134e+02
2.190000e-06	6.533945e-06	4.259271e-09	5.576909e+01	2.818623e+02
2.200000e-06	6.552569e-06	4.261809e-09	5.592805e+01	2.820950e+02
2.210000e-06	6.570038e-06	4.265310e-09	5.607715e+01	2.823100e+02
2.220000e-06	6.586287e-06	4.270546e-09	5.621585e+01	2.825059e+02
2.230000e-06	6.601316e-06	4.275118e-09	5.634412e+01	2.826820e+02
2.240000e-06	6.615006e-06	4.277039e-09	5.646097e+01	2.828380e+02
2.250000e-06	6.627456e-06	4.279530e-09	5.656723e+01	2.829742e+02
2.260000e-06	6.638679e-06	4.283807e-09	5.666302e+01	2.830916e+02
2.270000e-06	6.648378e-06	4.288246e-09	5.674581e+01	2.831915e+02
2.280000e-06	6.656683e-06	4.290541e-09	5.681669e+01	2.832755e+02
2.290000e-06	6.663835e-06	4.290918e-09	5.687774e+01	2.833456e+02
2.300000e-06	6.669859e-06	4.292953e-09	5.692915e+01	2.834038e+02
2.310000e-06	6.674825e-06	4.296534e-09	5.697154e+01	2.834520e+02
2.320000e-06	6.678782e-06	4.298184e-09	5.700532e+01	2.834917e+02
2.330000e-06	6.681583e-06	4.297618e-09	5.702922e+01	2.835243e+02
2.340000e-06	6.682944e-06	4.299433e-09	5.704084e+01	2.835506e+02
2.350000e-06	6.683021e-06	4.301659e-09	5.704150e+01	2.835710e+02
2.360000e-06	6.682032e-06	4.300794e-09	5.703305e+01	2.835854e+02
2.370000e-06	6.679978e-06	4.298659e-09	5.701552e+01	2.835933e+02
2.380000e-06	6.676891e-06	4.297661e-09	5.698917e+01	2.835938e+02
2.390000e-06	6.672874e-06	4.298633e-09	5.695489e+01	2.835858e+02
2.400000e-06	6.667819e-06	4.299075e-09	5.691175e+01	2.835680e+02
2.410000e-06	6.661367e-06	4.298772e-09	5.685667e+01	2.835395e+02
2.420000e-06	6.653613e-06	4.301598e-09	5.679049e+01	2.834990e+02
2.430000e-06	6.644957e-06	4.310746e-09	5.671661e+01	2.834459e+02
2.440000e-06	6.635386e-06	4.275789e-09	5.663492e+01	2.833798e+02
2.450000e-06	6.624388e-06	4.235799e-09	5.654104e+01	2.833006e+02
2.460000e-06	6.611391e-06	4.222949e-09	5.643012e+01	2.832087e+02
2.470000e-06	6.596529e-06	4.295655e-09	5.630326e+01	2.831048e+02
2.480000e-06	6.580643e-06	4.388672e-09	5.616767e+01	2.829897e+02
2.490000e-06	6.564292e-06	4.307180e-09	5.602811e+01	2.828643e+02
2.500000e-06	6.547062e-06	4.246860e-09	5.588105e+01	2.827297e+02
2.510000e-06	6.528460e-06	4.299324e-09	5.572227e+01	2.825864e+02
2.520000e-06	6.508964e-06	4.313725e-09	5.555587e+01	2.824350e+02
2.530000e-06	6.488682e-06	4.352585e-09	5.538276e+01	2.822753e+02
2.540000e-06	6.466899e-06	4.336357e-09	5.519683e+01	2.821065e+02
2.550000e-06	6.443661e-06	4.209271e-09	5.499849e+01	2.819276e+02
2.560000e-06	6.419503e-06	4.260801e-09	5.479229e+01	2.817366e+02
2.570000e-06	6.394458e-06	4.365959e-09	5.457853e+01	2.815310e+02
2.580000e-06	6.368288e-06	4.280797e-09	5.435516e+01	2.813080e+02
2.590000e-06	6.340990e-06	4.268228e-09	5.412216e+01	2.810644e+02
2.600000e-06	6.312833e-06	4.334418e-09	5.388184e+01	2.807970e+02
2.610000e-06	6.283683e-06	4.349573e-09	5.363303e+01	2.805026e+02
2.620000e-06	6.253065e-06	4.353296e-09	5.337170e+01	2.801784e+02
2.630000e-06	6.221108e-06	4.275151e-09	5.309893e+01	2.798220e+02
2.640000e-06	6.188162e-06	4.268755e-09	5.281773e+01	2.794319e+02
2.650000e-06	6.154068e-06	4.333258e-09	5.252674e+01	2.790072e+02
2.660000e-06	6.118820e-06	4.294132e-09	5.222588e+01	2.785479e+02
2.670000e-06	6.082611e-06	4.289354e-09	5.191682e+01	2.780551e+02
2.680000e-06	6.045236e-06	4.271598e-09	5.159782e+01	2.775306e+02
2.690000e-06	6.006453e-06	4.216636e-09	5.126680e+01	2.769768e+02
2.700000e-06	5.966527e-06	4.261418e-09	5.092601e+01	2.763970e+02
2.710000e-06	5.925739e-06	4.285024e-09	5.057788e+01	2.757945e+02
2.720000e-06	5.883833e-06	4.219488e-09	5.022020e+01	2.751729e+02
2.730000e-06	5.840745e-06	4.168134e-09	4.985243e+01	2.745355e+02
2.740000e-06	5.796809e-06	4.227229e-09	4.947743e+01	2.738855e+02
2.750000e-06	5.752109e-06	4.255891e-09	4.909590e+01	2.732252e+02
2.760000e-06	5.706368e-06	4.167781e-09	4.870548e+01	2.725562e+02
2.770000e-06	5.659530e-06	4.152423e-09	4.830571e+01	2.718794e+02
2.780000e-06	5.611774e-06	4.186508e-09	4.789810e+01	2.711945e+02
2.790000e-06	5.562988e-06	4.180365e-09	4.748169e+01	2.705006e+02
2.800000e-06	5.513069e-06	4.146904e-09	4.705562e+01	2.697957e+02
2.810000e-06	5.462102e-06	4.126121e-09	4.662060e+01	2.690774e+02
2.820000e-06	5.410167e-06	4.139735e-09	4.617732e+01	2.683427e+02
2.830000e-06	5.357128e-06	4.118814e-09	4.572462e+01	2.675885e+02
2.840000e-06	5.302742e-06	4.103020e-09	4.526042e+01	2.668115e+02
2.850000e-06	5.247260e-06	4.101447e-09	4.478686e+01	2.660088e+02
2.860000e-06	5.190987e-06	4.078117e-09	4.430656e+01	2.651780e+02
2.870000e-06	5.133908e-06	4.060325e-09	4.381938e+01	2.643174e+02
2.880000e-06	5.076024e-06	4.056502e-09	4.332532e+01	2.634257e+02
2.890000e-06	5.017280e-06	4.049628e-09	4.282392e+01	2.625026e+02
2.900000e-06	4.957691e-06	4.010740e-09	4.231531e+01	2.615487e+02
2.910000e-06	4.897402e-06	3.996005e-09	4.180073e+01	2.605649e+02
2.920000e-06	4.836393e-06	4.008009e-09	4.127999e+01	2.595528e+02
2.930000e-06	4.774377e-06	3.986034e-09	4.075068e+01	2.585143e+02
2.940000e-06	4.711228e-06	3.952860e-09	4.021168e+01	2.574512e+02
2.950000e-06	4.647173e-06	3.947016e-09	3.966495e+01	2.563654e+02
