# Temperatura_=_20.0
# Concentracion g/m^3_=_9000.0
# C_Vs_to_Am_M_A/Vsm_=_65563218390.804596
# pendiente_HvsI_1/m_=_3716.3
# ordenada_HvsI_A/m_=_1297.0
# frecuencia_Hz_=_212904.70354212038

Tiempo_(s)	Campo_(V.s)	Magnetizacion_(V.s)	Campo_(kA/m)	Magnetizacion_(A/m)
0.000000e+00	-6.728471e-06	-4.302871e-09	-5.697176e+01	-2.827118e+02
1.000000e-08	-6.727953e-06	-4.303991e-09	-5.696738e+01	-2.827240e+02
2.000000e-08	-6.725981e-06	-4.307589e-09	-5.695068e+01	-2.827273e+02
3.000000e-08	-6.722703e-06	-4.308284e-09	-5.692292e+01	-2.827212e+02
4.000000e-08	-6.718528e-06	-4.308296e-09	-5.688756e+01	-2.827054e+02
5.000000e-08	-6.713315e-06	-4.306577e-09	-5.684343e+01	-2.826797e+02
6.000000e-08	-6.706920e-06	-4.303507e-09	-5.678928e+01	-2.826441e+02
7.000000e-08	-6.699551e-06	-4.298505e-09	-5.672688e+01	-2.825990e+02
8.000000e-08	-6.691248e-06	-4.280939e-09	-5.665658e+01	-2.825451e+02
9.000000e-08	-6.681533e-06	-4.294983e-09	-5.657432e+01	-2.824835e+02
1.000000e-07	-6.670091e-06	-4.357740e-09	-5.647744e+01	-2.824154e+02
1.100000e-07	-6.657115e-06	-4.369843e-09	-5.636757e+01	-2.823420e+02
1.200000e-07	-6.642600e-06	-4.342936e-09	-5.624466e+01	-2.822649e+02
1.300000e-07	-6.626521e-06	-4.212275e-09	-5.610852e+01	-2.821850e+02
1.400000e-07	-6.609376e-06	-4.149416e-09	-5.596335e+01	-2.821031e+02
1.500000e-07	-6.591403e-06	-4.376532e-09	-5.581116e+01	-2.820196e+02
1.600000e-07	-6.572529e-06	-4.358753e-09	-5.565135e+01	-2.819339e+02
1.700000e-07	-6.552889e-06	-4.231440e-09	-5.548506e+01	-2.818451e+02
1.800000e-07	-6.532223e-06	-4.266554e-09	-5.531007e+01	-2.817510e+02
1.900000e-07	-6.510315e-06	-4.155583e-09	-5.512457e+01	-2.816490e+02
2.000000e-07	-6.487581e-06	-4.253264e-09	-5.493208e+01	-2.815355e+02
2.100000e-07	-6.464021e-06	-4.466074e-09	-5.473259e+01	-2.814066e+02
2.200000e-07	-6.439022e-06	-4.226130e-09	-5.452092e+01	-2.812576e+02
2.300000e-07	-6.412548e-06	-4.139666e-09	-5.429675e+01	-2.810839e+02
2.400000e-07	-6.384999e-06	-4.378428e-09	-5.406349e+01	-2.808808e+02
2.500000e-07	-6.356444e-06	-4.352599e-09	-5.382171e+01	-2.806440e+02
2.600000e-07	-6.326804e-06	-4.290056e-09	-5.357074e+01	-2.803698e+02
2.700000e-07	-6.296018e-06	-4.212533e-09	-5.331007e+01	-2.800551e+02
2.800000e-07	-6.264264e-06	-4.167408e-09	-5.304120e+01	-2.796982e+02
2.900000e-07	-6.231504e-06	-4.313674e-09	-5.276380e+01	-2.792983e+02
3.000000e-07	-6.197369e-06	-4.319583e-09	-5.247478e+01	-2.788557e+02
3.100000e-07	-6.161914e-06	-4.190267e-09	-5.217457e+01	-2.783722e+02
3.200000e-07	-6.125333e-06	-4.175219e-09	-5.186483e+01	-2.778505e+02
3.300000e-07	-6.087608e-06	-4.206979e-09	-5.154540e+01	-2.772943e+02
3.400000e-07	-6.048814e-06	-4.237587e-09	-5.121692e+01	-2.767079e+02
3.500000e-07	-6.009095e-06	-4.263793e-09	-5.088061e+01	-2.760960e+02
3.600000e-07	-5.968287e-06	-4.185279e-09	-5.053508e+01	-2.754636e+02
3.700000e-07	-5.926140e-06	-4.093840e-09	-5.017821e+01	-2.748154e+02
3.800000e-07	-5.882817e-06	-4.197768e-09	-4.981138e+01	-2.741553e+02
3.900000e-07	-5.838436e-06	-4.276358e-09	-4.943559e+01	-2.734869e+02
4.000000e-07	-5.792943e-06	-4.119509e-09	-4.905039e+01	-2.728125e+02
4.100000e-07	-5.746466e-06	-4.071024e-09	-4.865686e+01	-2.721333e+02
4.200000e-07	-5.699155e-06	-4.167253e-09	-4.825626e+01	-2.714495e+02
4.300000e-07	-5.650773e-06	-4.171652e-09	-4.784660e+01	-2.707598e+02
4.400000e-07	-5.600975e-06	-4.108595e-09	-4.742495e+01	-2.700623e+02
4.500000e-07	-5.549832e-06	-4.081220e-09	-4.699191e+01	-2.693540e+02
4.600000e-07	-5.497632e-06	-4.092573e-09	-4.654991e+01	-2.686312e+02
4.700000e-07	-5.444427e-06	-4.084090e-09	-4.609941e+01	-2.678902e+02
4.800000e-07	-5.390289e-06	-4.085329e-09	-4.564102e+01	-2.671270e+02
4.900000e-07	-5.335305e-06	-4.061582e-09	-4.517545e+01	-2.663380e+02
5.000000e-07	-5.279458e-06	-4.008842e-09	-4.470258e+01	-2.655201e+02
5.100000e-07	-5.222775e-06	-4.012806e-09	-4.422263e+01	-2.646710e+02
5.200000e-07	-5.165092e-06	-4.038955e-09	-4.373421e+01	-2.637892e+02
5.300000e-07	-5.106306e-06	-4.019151e-09	-4.323645e+01	-2.628742e+02
5.400000e-07	-5.046553e-06	-3.959668e-09	-4.273051e+01	-2.619266e+02
5.500000e-07	-4.986006e-06	-3.948820e-09	-4.221784e+01	-2.609477e+02
5.600000e-07	-4.924739e-06	-3.983426e-09	-4.169908e+01	-2.599394e+02
5.700000e-07	-4.862682e-06	-3.964484e-09	-4.117362e+01	-2.589042e+02
5.800000e-07	-4.799794e-06	-3.903968e-09	-4.064113e+01	-2.578447e+02
5.900000e-07	-4.736117e-06	-3.879615e-09	-4.010196e+01	-2.567635e+02
6.000000e-07	-4.671636e-06	-3.897602e-09	-3.955599e+01	-2.556624e+02
6.100000e-07	-4.606219e-06	-3.887007e-09	-3.900209e+01	-2.545431e+02
6.200000e-07	-4.539738e-06	-3.844351e-09	-3.843917e+01	-2.534060e+02
6.300000e-07	-4.472319e-06	-3.820463e-09	-3.786832e+01	-2.522507e+02
6.400000e-07	-4.404218e-06	-3.812126e-09	-3.729168e+01	-2.510758e+02
6.500000e-07	-4.335448e-06	-3.803947e-09	-3.670939e+01	-2.498787e+02
6.600000e-07	-4.265884e-06	-3.785386e-09	-3.612038e+01	-2.486560e+02
6.700000e-07	-4.195570e-06	-3.756131e-09	-3.552501e+01	-2.474037e+02
6.800000e-07	-4.124595e-06	-3.727838e-09	-3.492405e+01	-2.461172e+02
6.900000e-07	-4.052942e-06	-3.715912e-09	-3.431734e+01	-2.447918e+02
7.000000e-07	-3.980469e-06	-3.710633e-09	-3.370369e+01	-2.434229e+02
7.100000e-07	-3.907052e-06	-3.676043e-09	-3.308205e+01	-2.420066e+02
7.200000e-07	-3.832671e-06	-3.630685e-09	-3.245225e+01	-2.405391e+02
7.300000e-07	-3.757453e-06	-3.618193e-09	-3.181536e+01	-2.390181e+02
7.400000e-07	-3.681569e-06	-3.615728e-09	-3.117282e+01	-2.374418e+02
7.500000e-07	-3.604992e-06	-3.581569e-09	-3.052443e+01	-2.358098e+02
7.600000e-07	-3.527603e-06	-3.537745e-09	-2.986916e+01	-2.341222e+02
7.700000e-07	-3.449456e-06	-3.518565e-09	-2.920747e+01	-2.323802e+02
7.800000e-07	-3.370656e-06	-3.502700e-09	-2.854025e+01	-2.305854e+02
7.900000e-07	-3.291193e-06	-3.466316e-09	-2.786741e+01	-2.287396e+02
8.000000e-07	-3.211031e-06	-3.425981e-09	-2.718866e+01	-2.268446e+02
8.100000e-07	-3.130230e-06	-3.397824e-09	-2.650449e+01	-2.249016e+02
8.200000e-07	-3.048979e-06	-3.372782e-09	-2.581652e+01	-2.229110e+02
8.300000e-07	-2.967335e-06	-3.341841e-09	-2.512521e+01	-2.208722e+02
8.400000e-07	-2.885151e-06	-3.306593e-09	-2.442934e+01	-2.187833e+02
8.500000e-07	-2.802505e-06	-3.270165e-09	-2.372955e+01	-2.166412e+02
8.600000e-07	-2.719565e-06	-3.239086e-09	-2.302728e+01	-2.144411e+02
8.700000e-07	-2.636323e-06	-3.212481e-09	-2.232245e+01	-2.121772e+02
8.800000e-07	-2.552666e-06	-3.175105e-09	-2.161410e+01	-2.098424e+02
8.900000e-07	-2.468543e-06	-3.127849e-09	-2.090181e+01	-2.074291e+02
9.000000e-07	-2.384117e-06	-3.087375e-09	-2.018695e+01	-2.049291e+02
9.100000e-07	-2.299476e-06	-3.055499e-09	-1.947027e+01	-2.023342e+02
9.200000e-07	-2.214565e-06	-3.016790e-09	-1.875131e+01	-1.996364e+02
9.300000e-07	-2.129266e-06	-2.964010e-09	-1.802906e+01	-1.968287e+02
9.400000e-07	-2.043494e-06	-2.914335e-09	-1.730281e+01	-1.939045e+02
9.500000e-07	-1.957325e-06	-2.876541e-09	-1.657319e+01	-1.908588e+02
9.600000e-07	-1.870872e-06	-2.836120e-09	-1.584118e+01	-1.876871e+02
9.700000e-07	-1.784192e-06	-2.782770e-09	-1.510723e+01	-1.843861e+02
9.800000e-07	-1.697296e-06	-2.724267e-09	-1.437146e+01	-1.809529e+02
9.900000e-07	-1.610157e-06	-2.670740e-09	-1.363362e+01	-1.773849e+02
1.000000e-06	-1.522728e-06	-2.619163e-09	-1.289335e+01	-1.736790e+02
1.010000e-06	-1.435028e-06	-2.562377e-09	-1.215076e+01	-1.698308e+02
1.020000e-06	-1.347057e-06	-2.498369e-09	-1.140589e+01	-1.658344e+02
1.030000e-06	-1.258796e-06	-2.433050e-09	-1.065856e+01	-1.616814e+02
1.040000e-06	-1.170303e-06	-2.370842e-09	-9.909268e+00	-1.573604e+02
1.050000e-06	-1.081557e-06	-2.308248e-09	-9.157832e+00	-1.528565e+02
1.060000e-06	-9.925465e-07	-2.234028e-09	-8.404156e+00	-1.481512e+02
1.070000e-06	-9.033183e-07	-2.150012e-09	-7.648637e+00	-1.432222e+02
1.080000e-06	-8.138577e-07	-2.067446e-09	-6.891150e+00	-1.380438e+02
1.090000e-06	-7.241874e-07	-1.988704e-09	-6.131888e+00	-1.325871e+02
1.100000e-06	-6.343421e-07	-1.906426e-09	-5.371144e+00	-1.268214e+02
1.110000e-06	-5.443121e-07	-1.811570e-09	-4.608836e+00	-1.207148e+02
1.120000e-06	-4.541692e-07	-1.713580e-09	-3.845572e+00	-1.142357e+02
1.130000e-06	-3.639734e-07	-1.616838e-09	-3.081860e+00	-1.073541e+02
1.140000e-06	-2.736728e-07	-1.511797e-09	-2.317261e+00	-1.000436e+02
1.150000e-06	-1.833137e-07	-1.390141e-09	-1.552166e+00	-9.228283e+01
1.160000e-06	-9.293465e-08	-1.260119e-09	-7.869024e-01	-8.405689e+01
1.170000e-06	-2.509308e-09	-1.129313e-09	-2.124698e-02	-7.535902e+01
1.180000e-06	8.788617e-08	-9.906335e-10	7.441556e-01	-6.619172e+01
1.190000e-06	1.782176e-07	-8.431461e-10	1.509016e+00	-5.656765e+01
1.200000e-06	2.685259e-07	-6.862281e-10	2.273681e+00	-4.651024e+01
1.210000e-06	3.587120e-07	-5.241842e-10	3.037310e+00	-3.605373e+01
1.220000e-06	4.487752e-07	-3.623577e-10	3.799899e+00	-2.524293e+01
1.230000e-06	5.387691e-07	-1.974690e-10	4.561902e+00	-1.413241e+01
1.240000e-06	6.286386e-07	-2.558146e-11	5.322851e+00	-2.785364e+00
1.250000e-06	7.183223e-07	1.536105e-10	6.082226e+00	8.727953e+00
1.260000e-06	8.077995e-07	3.302845e-10	6.839854e+00	2.033210e+01
1.270000e-06	8.970665e-07	5.040798e-10	7.595701e+00	3.194854e+01
1.280000e-06	9.861080e-07	6.807303e-10	8.349639e+00	4.349788e+01
1.290000e-06	1.074898e-06	8.567800e-10	9.101450e+00	5.490215e+01
1.300000e-06	1.163404e-06	1.027631e-09	9.850848e+00	6.608702e+01
1.310000e-06	1.251623e-06	1.192490e-09	1.059783e+01	7.698382e+01
1.320000e-06	1.339546e-06	1.355606e-09	1.134229e+01	8.753138e+01
1.330000e-06	1.427262e-06	1.513691e-09	1.208501e+01	9.767745e+01
1.340000e-06	1.514818e-06	1.661950e-09	1.282636e+01	1.073798e+02
1.350000e-06	1.602156e-06	1.800471e-09	1.356589e+01	1.166070e+02
1.360000e-06	1.689264e-06	1.933310e-09	1.430345e+01	1.253383e+02
1.370000e-06	1.776161e-06	2.057028e-09	1.503923e+01	1.335637e+02
1.380000e-06	1.862827e-06	2.170331e-09	1.577305e+01	1.412836e+02
1.390000e-06	1.949218e-06	2.275516e-09	1.650455e+01	1.485070e+02
1.400000e-06	2.035305e-06	2.372607e-09	1.723347e+01	1.552513e+02
1.410000e-06	2.121073e-06	2.463247e-09	1.795969e+01	1.615401e+02
1.420000e-06	2.206530e-06	2.550396e-09	1.868328e+01	1.674018e+02
1.430000e-06	2.291634e-06	2.634412e-09	1.940387e+01	1.728685e+02
1.440000e-06	2.376392e-06	2.710452e-09	2.012154e+01	1.779735e+02
1.450000e-06	2.460786e-06	2.782556e-09	2.083614e+01	1.827508e+02
1.460000e-06	2.544785e-06	2.854061e-09	2.154737e+01	1.872331e+02
1.470000e-06	2.628399e-06	2.921431e-09	2.225536e+01	1.914514e+02
1.480000e-06	2.711582e-06	2.981303e-09	2.295969e+01	1.954335e+02
1.490000e-06	2.794345e-06	3.036231e-09	2.366046e+01	1.992041e+02
1.500000e-06	2.876700e-06	3.091287e-09	2.435779e+01	2.027842e+02
1.510000e-06	2.958516e-06	3.143578e-09	2.505054e+01	2.061914e+02
1.520000e-06	3.039724e-06	3.189625e-09	2.573816e+01	2.094394e+02
1.530000e-06	3.120364e-06	3.232291e-09	2.642095e+01	2.125394e+02
1.540000e-06	3.200420e-06	3.275232e-09	2.709881e+01	2.154998e+02
1.550000e-06	3.279901e-06	3.318374e-09	2.777179e+01	2.183271e+02
1.560000e-06	3.358814e-06	3.356175e-09	2.843997e+01	2.210264e+02
1.570000e-06	3.437025e-06	3.390909e-09	2.910221e+01	2.236020e+02
1.580000e-06	3.514483e-06	3.425610e-09	2.975807e+01	2.260580e+02
1.590000e-06	3.591287e-06	3.460577e-09	3.040839e+01	2.283984e+02
1.600000e-06	3.667474e-06	3.494210e-09	3.105348e+01	2.306279e+02
1.610000e-06	3.742953e-06	3.524259e-09	3.169259e+01	2.327516e+02
1.620000e-06	3.817649e-06	3.551755e-09	3.232505e+01	2.347753e+02
1.630000e-06	3.891466e-06	3.577305e-09	3.295008e+01	2.367054e+02
1.640000e-06	3.964325e-06	3.602765e-09	3.356700e+01	2.385487e+02
1.650000e-06	4.036339e-06	3.625662e-09	3.417676e+01	2.403121e+02
1.660000e-06	4.107679e-06	3.648338e-09	3.478082e+01	2.420028e+02
1.670000e-06	4.178383e-06	3.672245e-09	3.537949e+01	2.436274e+02
1.680000e-06	4.248345e-06	3.694546e-09	3.597187e+01	2.451920e+02
1.690000e-06	4.317588e-06	3.717777e-09	3.655817e+01	2.467021e+02
1.700000e-06	4.386170e-06	3.739406e-09	3.713887e+01	2.481622e+02
1.710000e-06	4.454084e-06	3.760051e-09	3.771392e+01	2.495758e+02
1.720000e-06	4.521348e-06	3.779931e-09	3.828346e+01	2.509454e+02
1.730000e-06	4.587742e-06	3.797313e-09	3.884564e+01	2.522729e+02
1.740000e-06	4.653052e-06	3.812867e-09	3.939863e+01	2.535590e+02
1.750000e-06	4.717416e-06	3.828805e-09	3.994362e+01	2.548040e+02
1.760000e-06	4.781030e-06	3.848445e-09	4.048226e+01	2.560080e+02
1.770000e-06	4.843959e-06	3.865955e-09	4.101509e+01	2.571705e+02
1.780000e-06	4.906128e-06	3.881499e-09	4.154149e+01	2.582914e+02
1.790000e-06	4.967492e-06	3.897986e-09	4.206108e+01	2.593708e+02
1.800000e-06	5.028113e-06	3.914134e-09	4.257438e+01	2.604089e+02
1.810000e-06	5.088010e-06	3.929093e-09	4.308154e+01	2.614066e+02
1.820000e-06	5.147137e-06	3.943231e-09	4.358218e+01	2.623653e+02
1.830000e-06	5.205224e-06	3.957451e-09	4.407402e+01	2.632868e+02
1.840000e-06	5.262054e-06	3.971226e-09	4.455522e+01	2.641732e+02
1.850000e-06	5.317871e-06	3.984138e-09	4.502784e+01	2.650271e+02
1.860000e-06	5.372918e-06	3.998488e-09	4.549393e+01	2.658511e+02
1.870000e-06	5.427119e-06	4.012936e-09	4.595286e+01	2.666478e+02
1.880000e-06	5.480392e-06	4.026171e-09	4.640394e+01	2.674197e+02
1.890000e-06	5.532669e-06	4.039360e-09	4.684658e+01	2.681689e+02
1.900000e-06	5.583786e-06	4.052592e-09	4.727940e+01	2.688970e+02
1.910000e-06	5.633544e-06	4.065421e-09	4.770072e+01	2.696052e+02
1.920000e-06	5.681968e-06	4.075770e-09	4.811074e+01	2.702942e+02
1.930000e-06	5.729284e-06	4.086240e-09	4.851137e+01	2.709640e+02
1.940000e-06	5.775606e-06	4.098146e-09	4.890360e+01	2.716143e+02
1.950000e-06	5.820978e-06	4.109999e-09	4.928777e+01	2.722444e+02
1.960000e-06	5.865434e-06	4.119761e-09	4.966419e+01	2.728533e+02
1.970000e-06	5.909075e-06	4.129123e-09	5.003371e+01	2.734401e+02
1.980000e-06	5.951658e-06	4.140983e-09	5.039428e+01	2.740037e+02
1.990000e-06	5.992849e-06	4.152165e-09	5.074305e+01	2.745433e+02
2.000000e-06	6.032832e-06	4.160152e-09	5.108160e+01	2.750586e+02
2.010000e-06	6.071868e-06	4.166662e-09	5.141213e+01	2.755494e+02
2.020000e-06	6.109914e-06	4.173708e-09	5.173427e+01	2.760161e+02
2.030000e-06	6.146881e-06	4.181261e-09	5.204728e+01	2.764597e+02
2.040000e-06	6.182923e-06	4.189997e-09	5.235246e+01	2.768814e+02
2.050000e-06	6.218059e-06	4.197968e-09	5.264996e+01	2.772827e+02
2.060000e-06	6.251950e-06	4.205274e-09	5.293693e+01	2.776654e+02
2.070000e-06	6.284551e-06	4.212636e-09	5.321297e+01	2.780316e+02
2.080000e-06	6.316087e-06	4.219792e-09	5.347999e+01	2.783830e+02
2.090000e-06	6.346634e-06	4.227700e-09	5.373864e+01	2.787213e+02
2.100000e-06	6.376140e-06	4.234005e-09	5.398847e+01	2.790480e+02
2.110000e-06	6.404627e-06	4.239448e-09	5.422969e+01	2.793641e+02
2.120000e-06	6.432127e-06	4.244425e-09	5.446253e+01	2.796703e+02
2.130000e-06	6.458317e-06	4.249371e-09	5.468429e+01	2.799665e+02
2.140000e-06	6.483058e-06	4.253616e-09	5.489378e+01	2.802527e+02
2.150000e-06	6.506701e-06	4.257832e-09	5.509398e+01	2.805281e+02
2.160000e-06	6.529324e-06	4.263579e-09	5.528552e+01	2.807918e+02
2.170000e-06	6.550792e-06	4.267975e-09	5.546730e+01	2.810426e+02
2.180000e-06	6.571235e-06	4.271201e-09	5.564040e+01	2.812794e+02
2.190000e-06	6.590795e-06	4.274646e-09	5.580602e+01	2.815010e+02
2.200000e-06	6.609308e-06	4.279252e-09	5.596278e+01	2.817064e+02
2.210000e-06	6.626600e-06	4.283875e-09	5.610919e+01	2.818951e+02
2.220000e-06	6.642644e-06	4.287806e-09	5.624504e+01	2.820668e+02
2.230000e-06	6.657385e-06	4.291103e-09	5.636986e+01	2.822213e+02
2.240000e-06	6.670872e-06	4.293512e-09	5.648405e+01	2.823593e+02
2.250000e-06	6.683222e-06	4.296394e-09	5.658862e+01	2.824814e+02
2.260000e-06	6.694308e-06	4.299512e-09	5.668249e+01	2.825888e+02
2.270000e-06	6.703798e-06	4.302153e-09	5.676285e+01	2.826825e+02
2.280000e-06	6.711876e-06	4.303694e-09	5.683125e+01	2.827640e+02
2.290000e-06	6.718872e-06	4.304805e-09	5.689048e+01	2.828345e+02
2.300000e-06	6.724721e-06	4.305836e-09	5.694001e+01	2.828951e+02
2.310000e-06	6.729409e-06	4.308619e-09	5.697970e+01	2.829467e+02
2.320000e-06	6.733111e-06	4.311609e-09	5.701104e+01	2.829901e+02
2.330000e-06	6.735652e-06	4.312347e-09	5.703256e+01	2.830255e+02
2.340000e-06	6.736708e-06	4.315630e-09	5.704150e+01	2.830530e+02
2.350000e-06	6.736486e-06	4.319849e-09	5.703962e+01	2.830724e+02
2.360000e-06	6.735186e-06	4.320431e-09	5.702862e+01	2.830833e+02
2.370000e-06	6.732787e-06	4.317799e-09	5.700831e+01	2.830853e+02
2.380000e-06	6.729316e-06	4.317854e-09	5.697891e+01	2.830778e+02
2.390000e-06	6.724954e-06	4.318316e-09	5.694198e+01	2.830605e+02
2.400000e-06	6.719545e-06	4.318822e-09	5.689618e+01	2.830333e+02
2.410000e-06	6.712735e-06	4.320944e-09	5.683851e+01	2.829963e+02
2.420000e-06	6.704743e-06	4.331635e-09	5.677085e+01	2.829498e+02
2.430000e-06	6.695809e-06	4.340399e-09	5.669520e+01	2.828948e+02
2.440000e-06	6.685806e-06	4.251560e-09	5.661050e+01	2.828321e+02
2.450000e-06	6.674256e-06	4.223695e-09	5.651270e+01	2.827631e+02
2.460000e-06	6.660600e-06	4.234456e-09	5.639708e+01	2.826892e+02
2.470000e-06	6.645180e-06	4.373567e-09	5.626651e+01	2.826116e+02
2.480000e-06	6.629081e-06	4.486155e-09	5.613020e+01	2.825314e+02
2.490000e-06	6.612663e-06	4.229934e-09	5.599118e+01	2.824493e+02
2.500000e-06	6.595117e-06	4.225978e-09	5.584261e+01	2.823655e+02
2.510000e-06	6.576059e-06	4.354100e-09	5.568125e+01	2.822795e+02
2.520000e-06	6.556337e-06	4.255702e-09	5.551425e+01	2.821900e+02
2.530000e-06	6.535801e-06	4.425090e-09	5.534037e+01	2.820949e+02
2.540000e-06	6.513410e-06	4.402998e-09	5.515078e+01	2.819915e+02
2.550000e-06	6.489652e-06	4.111432e-09	5.494961e+01	2.818760e+02
2.560000e-06	6.465183e-06	4.357106e-09	5.474243e+01	2.817444e+02
2.570000e-06	6.439677e-06	4.474195e-09	5.452646e+01	2.815920e+02
2.580000e-06	6.413040e-06	4.181644e-09	5.430092e+01	2.814142e+02
2.590000e-06	6.385357e-06	4.264407e-09	5.406652e+01	2.812064e+02
2.600000e-06	6.356803e-06	4.334269e-09	5.382475e+01	2.809642e+02
2.610000e-06	6.327143e-06	4.300556e-09	5.357361e+01	2.806841e+02
2.620000e-06	6.295872e-06	4.378813e-09	5.330883e+01	2.803632e+02
2.630000e-06	6.263397e-06	4.203999e-09	5.303385e+01	2.799999e+02
2.640000e-06	6.229988e-06	4.235109e-09	5.275097e+01	2.795935e+02
2.650000e-06	6.195321e-06	4.321270e-09	5.245744e+01	2.791447e+02
2.660000e-06	6.159574e-06	4.224737e-09	5.215475e+01	2.786553e+02
2.670000e-06	6.122919e-06	4.333177e-09	5.184439e+01	2.781282e+02
2.680000e-06	6.084904e-06	4.225915e-09	5.152250e+01	2.775672e+02
2.690000e-06	6.045431e-06	4.127516e-09	5.118827e+01	2.769767e+02
2.700000e-06	6.005042e-06	4.282770e-09	5.084629e+01	2.763615e+02
2.710000e-06	5.963790e-06	4.296823e-09	5.049700e+01	2.757264e+02
2.720000e-06	5.921264e-06	4.192053e-09	5.013692e+01	2.750762e+02
2.730000e-06	5.877668e-06	4.078547e-09	4.976779e+01	2.744147e+02
2.740000e-06	5.833333e-06	4.223711e-09	4.939239e+01	2.737453e+02
2.750000e-06	5.788082e-06	4.274698e-09	4.900923e+01	2.730702e+02
2.760000e-06	5.741693e-06	4.104490e-09	4.861645e+01	2.723903e+02
2.770000e-06	5.694196e-06	4.137254e-09	4.821428e+01	2.717057e+02
2.780000e-06	5.645786e-06	4.151790e-09	4.780438e+01	2.710151e+02
2.790000e-06	5.596233e-06	4.156061e-09	4.738480e+01	2.703162e+02
2.800000e-06	5.545471e-06	4.138066e-09	4.695498e+01	2.696059e+02
2.810000e-06	5.493853e-06	4.103626e-09	4.651792e+01	2.688807e+02
2.820000e-06	5.441274e-06	4.109443e-09	4.607272e+01	2.681366e+02
2.830000e-06	5.387442e-06	4.044986e-09	4.561691e+01	2.673698e+02
2.840000e-06	5.332388e-06	4.095062e-09	4.515076e+01	2.665767e+02
2.850000e-06	5.276318e-06	4.101318e-09	4.467600e+01	2.657542e+02
2.860000e-06	5.219393e-06	4.029764e-09	4.419399e+01	2.649003e+02
2.870000e-06	5.161610e-06	4.016307e-09	4.370473e+01	2.640135e+02
2.880000e-06	5.103048e-06	4.039272e-09	4.320887e+01	2.630937e+02
2.890000e-06	5.043795e-06	4.058040e-09	4.270716e+01	2.621413e+02
2.900000e-06	4.983712e-06	3.972180e-09	4.219841e+01	2.611578e+02
2.910000e-06	4.922743e-06	3.954148e-09	4.168218e+01	2.601454e+02
2.920000e-06	4.860800e-06	3.986218e-09	4.115769e+01	2.591064e+02
2.930000e-06	4.797788e-06	3.963893e-09	4.062415e+01	2.580435e+02
2.940000e-06	4.733820e-06	3.923387e-09	4.008251e+01	2.569592e+02
2.950000e-06	4.669091e-06	3.904159e-09	3.953444e+01	2.558554e+02
