# Temperatura_=_20.0
# Concentracion g/m^3_=_9000.0
# C_Vs_to_Am_M_A/Vsm_=_65563218390.804596
# pendiente_HvsI_1/m_=_3716.3
# ordenada_HvsI_A/m_=_1297.0
# frecuencia_Hz_=_212903.4255868111

Tiempo_(s)	Campo_(V.s)	Magnetizacion_(V.s)	Campo_(kA/m)	Magnetizacion_(A/m)
0.000000e+00	-6.759043e-06	-4.395174e-09	-5.696418e+01	-2.883680e+02
1.000000e-08	-6.757802e-06	-4.395866e-09	-5.695372e+01	-2.883782e+02
2.000000e-08	-6.755128e-06	-4.395777e-09	-5.693119e+01	-2.883792e+02
3.000000e-08	-6.751352e-06	-4.395603e-09	-5.689937e+01	-2.883699e+02
4.000000e-08	-6.746568e-06	-4.397491e-09	-5.685905e+01	-2.883493e+02
5.000000e-08	-6.740644e-06	-4.397397e-09	-5.680912e+01	-2.883164e+02
6.000000e-08	-6.733651e-06	-4.393802e-09	-5.675018e+01	-2.882699e+02
7.000000e-08	-6.725705e-06	-4.384900e-09	-5.668322e+01	-2.882093e+02
8.000000e-08	-6.716521e-06	-4.372240e-09	-5.660582e+01	-2.881338e+02
9.000000e-08	-6.705745e-06	-4.414492e-09	-5.651500e+01	-2.880432e+02
1.000000e-07	-6.693372e-06	-4.461587e-09	-5.641072e+01	-2.879376e+02
1.100000e-07	-6.679437e-06	-4.444724e-09	-5.629328e+01	-2.878172e+02
1.200000e-07	-6.663905e-06	-4.381108e-09	-5.616238e+01	-2.876825e+02
1.300000e-07	-6.647124e-06	-4.254830e-09	-5.602095e+01	-2.875340e+02
1.400000e-07	-6.629520e-06	-4.318329e-09	-5.587259e+01	-2.873722e+02
1.500000e-07	-6.610989e-06	-4.490249e-09	-5.571641e+01	-2.871974e+02
1.600000e-07	-6.591622e-06	-4.370733e-09	-5.555319e+01	-2.870098e+02
1.700000e-07	-6.571431e-06	-4.307201e-09	-5.538302e+01	-2.868091e+02
1.800000e-07	-6.550079e-06	-4.325188e-09	-5.520307e+01	-2.865944e+02
1.900000e-07	-6.527609e-06	-4.261218e-09	-5.501369e+01	-2.863646e+02
2.000000e-07	-6.504251e-06	-4.423822e-09	-5.481684e+01	-2.861179e+02
2.100000e-07	-6.479659e-06	-4.451533e-09	-5.460958e+01	-2.858525e+02
2.200000e-07	-6.453491e-06	-4.212946e-09	-5.438904e+01	-2.855658e+02
2.300000e-07	-6.426172e-06	-4.279739e-09	-5.415880e+01	-2.852553e+02
2.400000e-07	-6.397939e-06	-4.431852e-09	-5.392086e+01	-2.849187e+02
2.500000e-07	-6.368657e-06	-4.375486e-09	-5.367407e+01	-2.845536e+02
2.600000e-07	-6.338282e-06	-4.321397e-09	-5.341808e+01	-2.841580e+02
2.700000e-07	-6.306914e-06	-4.237540e-09	-5.315371e+01	-2.837308e+02
2.800000e-07	-6.274582e-06	-4.295124e-09	-5.288122e+01	-2.832711e+02
2.900000e-07	-6.240894e-06	-4.401352e-09	-5.259731e+01	-2.827793e+02
3.000000e-07	-6.205793e-06	-4.292873e-09	-5.230148e+01	-2.822562e+02
3.100000e-07	-6.169577e-06	-4.229828e-09	-5.199625e+01	-2.817037e+02
3.200000e-07	-6.132213e-06	-4.265203e-09	-5.168135e+01	-2.811242e+02
3.300000e-07	-6.093735e-06	-4.265132e-09	-5.135707e+01	-2.805209e+02
3.400000e-07	-6.054376e-06	-4.286031e-09	-5.102536e+01	-2.798972e+02
3.500000e-07	-6.014037e-06	-4.287416e-09	-5.068539e+01	-2.792567e+02
3.600000e-07	-5.972204e-06	-4.193026e-09	-5.033283e+01	-2.786031e+02
3.700000e-07	-5.929030e-06	-4.178387e-09	-4.996896e+01	-2.779395e+02
3.800000e-07	-5.884947e-06	-4.298850e-09	-4.959744e+01	-2.772686e+02
3.900000e-07	-5.839803e-06	-4.255944e-09	-4.921697e+01	-2.765922e+02
4.000000e-07	-5.793608e-06	-4.127098e-09	-4.882765e+01	-2.759115e+02
4.100000e-07	-5.746537e-06	-4.179283e-09	-4.843094e+01	-2.752262e+02
4.200000e-07	-5.698506e-06	-4.234841e-09	-4.802614e+01	-2.745354e+02
4.300000e-07	-5.649099e-06	-4.180880e-09	-4.760974e+01	-2.738371e+02
4.400000e-07	-5.598207e-06	-4.137141e-09	-4.718083e+01	-2.731285e+02
4.500000e-07	-5.546139e-06	-4.146614e-09	-4.674202e+01	-2.724060e+02
4.600000e-07	-5.493123e-06	-4.154206e-09	-4.629520e+01	-2.716660e+02
4.700000e-07	-5.439193e-06	-4.131598e-09	-4.584069e+01	-2.709043e+02
4.800000e-07	-5.384340e-06	-4.112305e-09	-4.537840e+01	-2.701171e+02
4.900000e-07	-5.328763e-06	-4.085784e-09	-4.491001e+01	-2.693010e+02
5.000000e-07	-5.272314e-06	-4.072372e-09	-4.443426e+01	-2.684533e+02
5.100000e-07	-5.214601e-06	-4.078148e-09	-4.394787e+01	-2.675719e+02
5.200000e-07	-5.155754e-06	-4.063634e-09	-4.345191e+01	-2.666557e+02
5.300000e-07	-5.096101e-06	-4.030297e-09	-4.294917e+01	-2.657046e+02
5.400000e-07	-5.035690e-06	-4.006922e-09	-4.244003e+01	-2.647194e+02
5.500000e-07	-4.974483e-06	-4.022903e-09	-4.192418e+01	-2.637018e+02
5.600000e-07	-4.912498e-06	-4.025733e-09	-4.140179e+01	-2.626537e+02
5.700000e-07	-4.849734e-06	-3.975017e-09	-4.087282e+01	-2.615779e+02
5.800000e-07	-4.786199e-06	-3.936464e-09	-4.033736e+01	-2.604770e+02
5.900000e-07	-4.721800e-06	-3.952215e-09	-3.979461e+01	-2.593533e+02
6.000000e-07	-4.656347e-06	-3.956494e-09	-3.924298e+01	-2.582088e+02
6.100000e-07	-4.589821e-06	-3.907292e-09	-3.868231e+01	-2.570450e+02
6.200000e-07	-4.522511e-06	-3.871058e-09	-3.811503e+01	-2.558621e+02
6.300000e-07	-4.454587e-06	-3.872351e-09	-3.754258e+01	-2.546596e+02
6.400000e-07	-4.385940e-06	-3.866367e-09	-3.696403e+01	-2.534360e+02
6.500000e-07	-4.316469e-06	-3.838418e-09	-3.637855e+01	-2.521888e+02
6.600000e-07	-4.246160e-06	-3.806239e-09	-3.578599e+01	-2.509145e+02
6.700000e-07	-4.175154e-06	-3.781310e-09	-3.518757e+01	-2.496091e+02
6.800000e-07	-4.103636e-06	-3.768407e-09	-3.458482e+01	-2.482683e+02
6.900000e-07	-4.031398e-06	-3.760879e-09	-3.397601e+01	-2.468875e+02
7.000000e-07	-3.958037e-06	-3.733360e-09	-3.335773e+01	-2.454624e+02
7.100000e-07	-3.883525e-06	-3.691281e-09	-3.272976e+01	-2.439891e+02
7.200000e-07	-3.808197e-06	-3.669506e-09	-3.209490e+01	-2.424644e+02
7.300000e-07	-3.732288e-06	-3.666055e-09	-3.145516e+01	-2.408859e+02
7.400000e-07	-3.655677e-06	-3.642151e-09	-3.080949e+01	-2.392522e+02
7.500000e-07	-3.578279e-06	-3.597180e-09	-3.015719e+01	-2.375627e+02
7.600000e-07	-3.500156e-06	-3.566820e-09	-2.949878e+01	-2.358176e+02
7.700000e-07	-3.421255e-06	-3.553151e-09	-2.883382e+01	-2.340180e+02
7.800000e-07	-3.341575e-06	-3.529401e-09	-2.816228e+01	-2.321651e+02
7.900000e-07	-3.261195e-06	-3.489077e-09	-2.748485e+01	-2.302603e+02
8.000000e-07	-3.180239e-06	-3.452741e-09	-2.680257e+01	-2.283049e+02
8.100000e-07	-3.098841e-06	-3.427175e-09	-2.611656e+01	-2.262996e+02
8.200000e-07	-3.017011e-06	-3.399205e-09	-2.542691e+01	-2.242442e+02
8.300000e-07	-2.934652e-06	-3.365142e-09	-2.473280e+01	-2.221374e+02
8.400000e-07	-2.851836e-06	-3.328008e-09	-2.403484e+01	-2.199768e+02
8.500000e-07	-2.768726e-06	-3.290098e-09	-2.333440e+01	-2.177586e+02
8.600000e-07	-2.685341e-06	-3.257899e-09	-2.263164e+01	-2.154776e+02
8.700000e-07	-2.601618e-06	-3.227721e-09	-2.192604e+01	-2.131279e+02
8.800000e-07	-2.517524e-06	-3.189049e-09	-2.121731e+01	-2.107022e+02
8.900000e-07	-2.433046e-06	-3.145089e-09	-2.050534e+01	-2.081929e+02
9.000000e-07	-2.348230e-06	-3.104113e-09	-1.979053e+01	-2.055920e+02
9.100000e-07	-2.263097e-06	-3.066550e-09	-1.907304e+01	-2.028918e+02
9.200000e-07	-2.177641e-06	-3.022536e-09	-1.835283e+01	-2.000849e+02
9.300000e-07	-2.091788e-06	-2.973063e-09	-1.762927e+01	-1.971646e+02
9.400000e-07	-2.005484e-06	-2.925976e-09	-1.690191e+01	-1.941253e+02
9.500000e-07	-1.918844e-06	-2.880094e-09	-1.617173e+01	-1.909621e+02
9.600000e-07	-1.831894e-06	-2.832022e-09	-1.543893e+01	-1.876712e+02
9.700000e-07	-1.744693e-06	-2.779235e-09	-1.470401e+01	-1.842494e+02
9.800000e-07	-1.657316e-06	-2.724525e-09	-1.396760e+01	-1.806938e+02
9.900000e-07	-1.569708e-06	-2.667732e-09	-1.322926e+01	-1.770013e+02
1.000000e-06	-1.481840e-06	-2.609427e-09	-1.248872e+01	-1.731678e+02
1.010000e-06	-1.393618e-06	-2.551657e-09	-1.174520e+01	-1.691878e+02
1.020000e-06	-1.304959e-06	-2.490214e-09	-1.099799e+01	-1.650536e+02
1.030000e-06	-1.215957e-06	-2.422007e-09	-1.024790e+01	-1.607548e+02
1.040000e-06	-1.126658e-06	-2.350708e-09	-9.495304e+00	-1.562775e+02
1.050000e-06	-1.037094e-06	-2.278629e-09	-8.740467e+00	-1.516040e+02
1.060000e-06	-9.473115e-07	-2.202189e-09	-7.983797e+00	-1.467131e+02
1.070000e-06	-8.573019e-07	-2.121331e-09	-7.225210e+00	-1.415795e+02
1.080000e-06	-7.671181e-07	-2.038284e-09	-6.465155e+00	-1.361747e+02
1.090000e-06	-6.768260e-07	-1.952576e-09	-5.704186e+00	-1.304677e+02
1.100000e-06	-5.864170e-07	-1.860777e-09	-4.942233e+00	-1.244258e+02
1.110000e-06	-4.958787e-07	-1.763009e-09	-4.179190e+00	-1.180158e+02
1.120000e-06	-4.052450e-07	-1.662319e-09	-3.415343e+00	-1.112057e+02
1.130000e-06	-3.145560e-07	-1.555301e-09	-2.651030e+00	-1.039662e+02
1.140000e-06	-2.238215e-07	-1.434725e-09	-1.886333e+00	-9.627246e+01
1.150000e-06	-1.330718e-07	-1.306133e-09	-1.121509e+00	-8.810566e+01
1.160000e-06	-4.230074e-08	-1.176700e-09	-3.565042e-01	-7.945478e+01
1.170000e-06	4.848473e-08	-1.039626e-09	4.086219e-01	-7.031786e+01
1.180000e-06	1.392406e-07	-8.912151e-10	1.173499e+00	-6.070320e+01
1.190000e-06	2.299589e-07	-7.349910e-10	1.938059e+00	-5.063007e+01
1.200000e-06	3.206744e-07	-5.750357e-10	2.702595e+00	-4.012909e+01
1.210000e-06	4.112969e-07	-4.118026e-10	3.466347e+00	-2.924214e+01
1.220000e-06	5.017250e-07	-2.426155e-10	4.228462e+00	-1.802173e+01
1.230000e-06	5.920516e-07	-6.688627e-11	4.989721e+00	-6.530038e+00
1.240000e-06	6.822825e-07	1.127340e-10	5.750173e+00	5.162572e+00
1.250000e-06	7.723622e-07	2.910929e-10	6.509351e+00	1.697939e+01
1.260000e-06	8.622956e-07	4.695028e-10	7.267296e+00	2.883947e+01
1.270000e-06	9.520584e-07	6.518732e-10	8.023803e+00	4.065993e+01
1.280000e-06	1.041543e-06	8.345804e-10	8.777962e+00	5.235840e+01
1.290000e-06	1.130753e-06	1.008058e-09	9.529812e+00	6.385537e+01
1.300000e-06	1.219776e-06	1.174944e-09	1.028009e+01	7.507650e+01
1.310000e-06	1.308516e-06	1.340513e-09	1.102798e+01	8.595465e+01
1.320000e-06	1.396937e-06	1.503185e-09	1.177317e+01	9.643161e+01
1.330000e-06	1.485021e-06	1.657650e-09	1.251553e+01	1.064594e+02
1.340000e-06	1.572785e-06	1.801465e-09	1.325520e+01	1.160013e+02
1.350000e-06	1.660316e-06	1.939079e-09	1.399289e+01	1.250320e+02
1.360000e-06	1.747632e-06	2.069411e-09	1.472878e+01	1.335380e+02
1.370000e-06	1.834712e-06	2.188242e-09	1.546268e+01	1.415165e+02
1.380000e-06	1.921537e-06	2.295844e-09	1.619442e+01	1.489751e+02
1.390000e-06	2.008117e-06	2.397112e-09	1.692410e+01	1.559303e+02
1.400000e-06	2.094368e-06	2.492419e-09	1.765102e+01	1.624060e+02
1.410000e-06	2.180283e-06	2.579948e-09	1.837509e+01	1.684318e+02
1.420000e-06	2.265892e-06	2.663641e-09	1.909659e+01	1.740412e+02
1.430000e-06	2.351129e-06	2.743417e-09	1.981496e+01	1.792703e+02
1.440000e-06	2.435946e-06	2.817886e-09	2.052978e+01	1.841554e+02
1.450000e-06	2.520394e-06	2.890708e-09	2.124150e+01	1.887322e+02
1.460000e-06	2.604486e-06	2.959382e-09	2.195021e+01	1.930344e+02
1.470000e-06	2.688128e-06	3.021048e-09	2.265513e+01	1.970923e+02
1.480000e-06	2.771318e-06	3.077126e-09	2.335625e+01	2.009330e+02
1.490000e-06	2.854087e-06	3.131431e-09	2.405381e+01	2.045793e+02
1.500000e-06	2.936450e-06	3.183225e-09	2.474795e+01	2.080498e+02
1.510000e-06	3.018323e-06	3.231138e-09	2.543796e+01	2.113596e+02
1.520000e-06	3.099605e-06	3.276383e-09	2.612300e+01	2.145200e+02
1.530000e-06	3.180223e-06	3.318460e-09	2.680243e+01	2.175395e+02
1.540000e-06	3.260263e-06	3.359094e-09	2.747700e+01	2.204243e+02
1.550000e-06	3.339790e-06	3.399442e-09	2.814724e+01	2.231793e+02
1.560000e-06	3.418705e-06	3.437944e-09	2.881233e+01	2.258083e+02
1.570000e-06	3.496877e-06	3.472798e-09	2.947115e+01	2.283149e+02
1.580000e-06	3.574314e-06	3.505721e-09	3.012378e+01	2.307032e+02
1.590000e-06	3.651120e-06	3.538818e-09	3.077108e+01	2.329778e+02
1.600000e-06	3.727236e-06	3.570959e-09	3.141258e+01	2.351441e+02
1.610000e-06	3.802597e-06	3.601121e-09	3.204771e+01	2.372087e+02
1.620000e-06	3.877191e-06	3.628300e-09	3.267638e+01	2.391790e+02
1.630000e-06	3.951028e-06	3.654769e-09	3.329866e+01	2.410628e+02
1.640000e-06	4.023979e-06	3.681235e-09	3.391348e+01	2.428687e+02
1.650000e-06	4.096004e-06	3.706874e-09	3.452050e+01	2.446050e+02
1.660000e-06	4.167269e-06	3.730815e-09	3.512111e+01	2.462798e+02
1.670000e-06	4.237857e-06	3.752243e-09	3.571602e+01	2.479004e+02
1.680000e-06	4.307748e-06	3.774196e-09	3.630504e+01	2.494732e+02
1.690000e-06	4.376935e-06	3.797057e-09	3.688814e+01	2.510031e+02
1.700000e-06	4.445434e-06	3.820579e-09	3.746544e+01	2.524940e+02
1.710000e-06	4.513184e-06	3.842031e-09	3.803643e+01	2.539479e+02
1.720000e-06	4.580128e-06	3.861482e-09	3.860062e+01	2.553657e+02
1.730000e-06	4.646294e-06	3.882602e-09	3.915826e+01	2.567470e+02
1.740000e-06	4.711603e-06	3.902067e-09	3.970867e+01	2.580906e+02
1.750000e-06	4.775917e-06	3.919024e-09	4.025070e+01	2.593943e+02
1.760000e-06	4.839364e-06	3.934630e-09	4.078542e+01	2.606560e+02
1.770000e-06	4.902103e-06	3.950935e-09	4.131418e+01	2.618733e+02
1.780000e-06	4.964117e-06	3.968216e-09	4.183682e+01	2.630444e+02
1.790000e-06	5.025402e-06	3.984649e-09	4.235333e+01	2.641678e+02
1.800000e-06	5.085928e-06	4.000535e-09	4.286343e+01	2.652431e+02
1.810000e-06	5.145646e-06	4.016653e-09	4.336672e+01	2.662709e+02
1.820000e-06	5.204514e-06	4.033849e-09	4.386285e+01	2.672525e+02
1.830000e-06	5.262475e-06	4.050226e-09	4.435134e+01	2.681904e+02
1.840000e-06	5.319322e-06	4.065101e-09	4.483043e+01	2.690877e+02
1.850000e-06	5.374981e-06	4.079451e-09	4.529952e+01	2.699484e+02
1.860000e-06	5.429677e-06	4.092868e-09	4.576049e+01	2.707765e+02
1.870000e-06	5.483449e-06	4.104919e-09	4.621367e+01	2.715763e+02
1.880000e-06	5.536300e-06	4.116344e-09	4.665910e+01	2.723520e+02
1.890000e-06	5.588145e-06	4.129229e-09	4.709603e+01	2.731073e+02
1.900000e-06	5.638726e-06	4.143766e-09	4.752232e+01	2.738450e+02
1.910000e-06	5.688024e-06	4.157445e-09	4.793780e+01	2.745676e+02
1.920000e-06	5.736092e-06	4.169212e-09	4.834291e+01	2.752763e+02
1.930000e-06	5.783040e-06	4.180560e-09	4.873858e+01	2.759715e+02
1.940000e-06	5.829014e-06	4.192681e-09	4.912604e+01	2.766530e+02
1.950000e-06	5.874063e-06	4.204072e-09	4.950570e+01	2.773195e+02
1.960000e-06	5.918149e-06	4.213072e-09	4.987726e+01	2.779694e+02
1.970000e-06	5.961225e-06	4.222631e-09	5.024029e+01	2.786005e+02
1.980000e-06	6.003180e-06	4.234216e-09	5.059388e+01	2.792108e+02
1.990000e-06	6.043846e-06	4.244561e-09	5.093662e+01	2.797981e+02
2.000000e-06	6.083364e-06	4.252686e-09	5.126967e+01	2.803607e+02
2.010000e-06	6.121935e-06	4.260910e-09	5.159474e+01	2.808972e+02
2.020000e-06	6.159490e-06	4.270200e-09	5.191124e+01	2.814068e+02
2.030000e-06	6.195992e-06	4.279944e-09	5.221887e+01	2.818896e+02
2.040000e-06	6.231561e-06	4.289187e-09	5.251865e+01	2.823459e+02
2.050000e-06	6.266133e-06	4.296718e-09	5.281001e+01	2.827771e+02
2.060000e-06	6.299506e-06	4.303016e-09	5.309127e+01	2.831847e+02
2.070000e-06	6.331635e-06	4.309003e-09	5.336206e+01	2.835709e+02
2.080000e-06	6.362709e-06	4.315335e-09	5.362394e+01	2.839379e+02
2.090000e-06	6.392812e-06	4.323136e-09	5.387765e+01	2.842880e+02
2.100000e-06	6.421837e-06	4.329071e-09	5.412227e+01	2.846232e+02
2.110000e-06	6.449847e-06	4.334746e-09	5.435833e+01	2.849454e+02
2.120000e-06	6.476856e-06	4.342377e-09	5.458596e+01	2.852561e+02
2.130000e-06	6.502617e-06	4.350100e-09	5.480307e+01	2.855561e+02
2.140000e-06	6.526968e-06	4.355867e-09	5.500829e+01	2.858459e+02
2.150000e-06	6.550127e-06	4.359211e-09	5.520348e+01	2.861252e+02
2.160000e-06	6.572228e-06	4.363438e-09	5.538974e+01	2.863936e+02
2.170000e-06	6.593239e-06	4.367185e-09	5.556682e+01	2.866501e+02
2.180000e-06	6.613249e-06	4.371096e-09	5.573545e+01	2.868935e+02
2.190000e-06	6.632346e-06	4.374719e-09	5.589640e+01	2.871225e+02
2.200000e-06	6.650328e-06	4.378246e-09	5.604795e+01	2.873361e+02
2.210000e-06	6.667007e-06	4.382324e-09	5.618852e+01	2.875330e+02
2.220000e-06	6.682429e-06	4.386703e-09	5.631850e+01	2.877128e+02
2.230000e-06	6.696588e-06	4.390595e-09	5.643783e+01	2.878750e+02
2.240000e-06	6.709495e-06	4.392509e-09	5.654661e+01	2.880196e+02
2.250000e-06	6.721160e-06	4.395521e-09	5.664491e+01	2.881472e+02
2.260000e-06	6.731434e-06	4.400020e-09	5.673150e+01	2.882587e+02
2.270000e-06	6.740220e-06	4.404304e-09	5.680555e+01	2.883552e+02
2.280000e-06	6.747731e-06	4.406961e-09	5.686885e+01	2.884380e+02
2.290000e-06	6.754112e-06	4.409449e-09	5.692263e+01	2.885085e+02
2.300000e-06	6.759280e-06	4.413330e-09	5.696619e+01	2.885682e+02
2.310000e-06	6.763319e-06	4.416765e-09	5.700022e+01	2.886183e+02
2.320000e-06	6.766327e-06	4.418422e-09	5.702557e+01	2.886597e+02
2.330000e-06	6.767997e-06	4.419631e-09	5.703965e+01	2.886930e+02
2.340000e-06	6.768217e-06	4.422707e-09	5.704150e+01	2.887185e+02
2.350000e-06	6.767319e-06	4.425461e-09	5.703394e+01	2.887359e+02
2.360000e-06	6.765422e-06	4.423636e-09	5.701794e+01	2.887447e+02
2.370000e-06	6.762491e-06	4.421367e-09	5.699325e+01	2.887442e+02
2.380000e-06	6.758582e-06	4.421210e-09	5.696030e+01	2.887334e+02
2.390000e-06	6.753638e-06	4.422757e-09	5.691863e+01	2.887111e+02
2.400000e-06	6.747381e-06	4.425222e-09	5.686590e+01	2.886761e+02
2.410000e-06	6.739813e-06	4.429430e-09	5.680212e+01	2.886276e+02
2.420000e-06	6.731263e-06	4.446360e-09	5.673006e+01	2.885648e+02
2.430000e-06	6.721713e-06	4.407871e-09	5.664957e+01	2.884871e+02
2.440000e-06	6.710798e-06	4.326891e-09	5.655759e+01	2.883943e+02
2.450000e-06	6.698010e-06	4.327466e-09	5.644980e+01	2.882864e+02
2.460000e-06	6.683206e-06	4.381437e-09	5.632504e+01	2.881639e+02
2.470000e-06	6.667206e-06	4.539988e-09	5.619019e+01	2.880271e+02
2.480000e-06	6.650817e-06	4.495961e-09	5.605207e+01	2.878766e+02
2.490000e-06	6.633724e-06	4.269618e-09	5.590802e+01	2.877128e+02
2.500000e-06	6.615230e-06	4.402659e-09	5.575215e+01	2.875362e+02
2.510000e-06	6.595650e-06	4.437180e-09	5.558714e+01	2.873467e+02
2.520000e-06	6.575384e-06	4.382299e-09	5.541634e+01	2.871439e+02
2.530000e-06	6.553721e-06	4.537819e-09	5.523376e+01	2.869270e+02
2.540000e-06	6.530389e-06	4.358127e-09	5.503712e+01	2.866948e+02
2.550000e-06	6.506054e-06	4.239097e-09	5.483203e+01	2.864456e+02
2.560000e-06	6.480870e-06	4.516567e-09	5.461979e+01	2.861771e+02
2.570000e-06	6.454580e-06	4.428381e-09	5.439821e+01	2.858870e+02
2.580000e-06	6.427170e-06	4.240023e-09	5.416721e+01	2.855728e+02
2.590000e-06	6.398842e-06	4.363033e-09	5.392847e+01	2.852321e+02
2.600000e-06	6.369559e-06	4.347653e-09	5.368167e+01	2.848625e+02
2.610000e-06	6.338804e-06	4.388771e-09	5.342247e+01	2.844623e+02
2.620000e-06	6.306606e-06	4.343641e-09	5.315111e+01	2.840302e+02
2.630000e-06	6.273403e-06	4.208532e-09	5.287128e+01	2.835658e+02
2.640000e-06	6.239062e-06	4.361064e-09	5.258187e+01	2.830692e+02
2.650000e-06	6.203496e-06	4.310991e-09	5.228212e+01	2.825416e+02
2.660000e-06	6.167061e-06	4.277058e-09	5.197505e+01	2.819849e+02
2.670000e-06	6.129537e-06	4.362817e-09	5.165881e+01	2.814016e+02
2.680000e-06	6.090455e-06	4.210680e-09	5.132942e+01	2.807950e+02
2.690000e-06	6.050161e-06	4.227578e-09	5.098984e+01	2.801686e+02
2.700000e-06	6.009032e-06	4.324464e-09	5.064321e+01	2.795260e+02
2.710000e-06	5.966787e-06	4.285847e-09	5.028717e+01	2.788706e+02
2.720000e-06	5.923371e-06	4.178808e-09	4.992127e+01	2.782058e+02
2.730000e-06	5.879186e-06	4.169507e-09	4.954889e+01	2.775340e+02
2.740000e-06	5.834227e-06	4.318281e-09	4.916998e+01	2.768570e+02
2.750000e-06	5.788104e-06	4.218435e-09	4.878126e+01	2.761756e+02
2.760000e-06	5.740819e-06	4.130634e-09	4.838275e+01	2.754896e+02
2.770000e-06	5.692603e-06	4.201808e-09	4.797639e+01	2.747979e+02
2.780000e-06	5.643394e-06	4.194272e-09	4.756167e+01	2.740983e+02
2.790000e-06	5.592996e-06	4.180727e-09	4.713692e+01	2.733878e+02
2.800000e-06	5.541562e-06	4.122796e-09	4.670344e+01	2.726630e+02
2.810000e-06	5.489292e-06	4.150646e-09	4.626292e+01	2.719200e+02
2.820000e-06	5.435811e-06	4.150397e-09	4.581219e+01	2.711547e+02
2.830000e-06	5.380879e-06	4.097406e-09	4.534923e+01	2.703634e+02
2.840000e-06	5.324881e-06	4.123999e-09	4.487729e+01	2.695428e+02
2.850000e-06	5.268123e-06	4.094040e-09	4.439894e+01	2.686901e+02
2.860000e-06	5.210544e-06	4.075905e-09	4.391367e+01	2.678035e+02
2.870000e-06	5.152107e-06	4.066550e-09	4.342118e+01	2.668821e+02
2.880000e-06	5.092843e-06	4.074160e-09	4.292171e+01	2.659259e+02
2.890000e-06	5.032870e-06	4.043391e-09	4.241626e+01	2.649358e+02
2.900000e-06	4.972100e-06	3.987091e-09	4.190410e+01	2.639134e+02
2.910000e-06	4.910283e-06	4.023778e-09	4.138312e+01	2.628611e+02
2.920000e-06	4.847383e-06	4.022509e-09	4.085300e+01	2.617813e+02
2.930000e-06	4.783536e-06	3.968998e-09	4.031491e+01	2.606768e+02
2.940000e-06	4.718891e-06	3.933377e-09	3.977010e+01	2.595499e+02
2.950000e-06	4.653456e-06	3.957468e-09	3.921862e+01	2.584026e+02
