# Temperatura_=_20.0
# Concentracion g/m^3_=_9000.0
# C_Vs_to_Am_M_A/Vsm_=_65563218390.804596
# pendiente_HvsI_1/m_=_3716.3
# ordenada_HvsI_A/m_=_1297.0
# frecuencia_Hz_=_212901.84656367308

Tiempo_(s)	Campo_(V.s)	Magnetizacion_(V.s)	Campo_(kA/m)	Magnetizacion_(A/m)
0.000000e+00	-6.785419e-06	-4.383342e-09	-5.697633e+01	-2.879588e+02
1.000000e-08	-6.785117e-06	-4.382473e-09	-5.697380e+01	-2.879514e+02
2.000000e-08	-6.783534e-06	-4.385758e-09	-5.696051e+01	-2.879371e+02
3.000000e-08	-6.780536e-06	-4.390105e-09	-5.693533e+01	-2.879134e+02
4.000000e-08	-6.776424e-06	-4.391445e-09	-5.690080e+01	-2.878777e+02
5.000000e-08	-6.771319e-06	-4.389024e-09	-5.685794e+01	-2.878276e+02
6.000000e-08	-6.765131e-06	-4.384978e-09	-5.680598e+01	-2.877606e+02
7.000000e-08	-6.757871e-06	-4.380726e-09	-5.674502e+01	-2.876751e+02
8.000000e-08	-6.749651e-06	-4.367682e-09	-5.667599e+01	-2.875698e+02
9.000000e-08	-6.740115e-06	-4.359406e-09	-5.659592e+01	-2.874445e+02
1.000000e-07	-6.728860e-06	-4.420820e-09	-5.650142e+01	-2.872996e+02
1.100000e-07	-6.715964e-06	-4.460498e-09	-5.639313e+01	-2.871366e+02
1.200000e-07	-6.701453e-06	-4.437882e-09	-5.627128e+01	-2.869575e+02
1.300000e-07	-6.685429e-06	-4.350215e-09	-5.613673e+01	-2.867647e+02
1.400000e-07	-6.668320e-06	-4.216003e-09	-5.599307e+01	-2.865613e+02
1.500000e-07	-6.650413e-06	-4.368896e-09	-5.584271e+01	-2.863501e+02
1.600000e-07	-6.631625e-06	-4.513399e-09	-5.568495e+01	-2.861338e+02
1.700000e-07	-6.612043e-06	-4.328108e-09	-5.552052e+01	-2.859146e+02
1.800000e-07	-6.591465e-06	-4.298943e-09	-5.534772e+01	-2.856939e+02
1.900000e-07	-6.569510e-06	-4.306032e-09	-5.516338e+01	-2.854721e+02
2.000000e-07	-6.546622e-06	-4.286194e-09	-5.497118e+01	-2.852487e+02
2.100000e-07	-6.523009e-06	-4.484048e-09	-5.477291e+01	-2.850220e+02
2.200000e-07	-6.498040e-06	-4.381560e-09	-5.456325e+01	-2.847893e+02
2.300000e-07	-6.471539e-06	-4.155687e-09	-5.434072e+01	-2.845470e+02
2.400000e-07	-6.443925e-06	-4.341988e-09	-5.410885e+01	-2.842909e+02
2.500000e-07	-6.415360e-06	-4.458077e-09	-5.386900e+01	-2.840162e+02
2.600000e-07	-6.385738e-06	-4.341652e-09	-5.362026e+01	-2.837182e+02
2.700000e-07	-6.354903e-06	-4.243699e-09	-5.336134e+01	-2.833922e+02
2.800000e-07	-6.323041e-06	-4.214824e-09	-5.309380e+01	-2.830342e+02
2.900000e-07	-6.290233e-06	-4.351608e-09	-5.281832e+01	-2.826412e+02
3.000000e-07	-6.256091e-06	-4.374959e-09	-5.253163e+01	-2.822108e+02
3.100000e-07	-6.220573e-06	-4.214153e-09	-5.223340e+01	-2.817423e+02
3.200000e-07	-6.183923e-06	-4.211328e-09	-5.192565e+01	-2.812359e+02
3.300000e-07	-6.146131e-06	-4.273305e-09	-5.160831e+01	-2.806934e+02
3.400000e-07	-6.107209e-06	-4.278403e-09	-5.128149e+01	-2.801172e+02
3.500000e-07	-6.067385e-06	-4.278332e-09	-5.094709e+01	-2.795112e+02
3.600000e-07	-6.026426e-06	-4.228251e-09	-5.060317e+01	-2.788795e+02
3.700000e-07	-5.983972e-06	-4.159957e-09	-5.024668e+01	-2.782267e+02
3.800000e-07	-5.940375e-06	-4.225853e-09	-4.988060e+01	-2.775573e+02
3.900000e-07	-5.895895e-06	-4.306536e-09	-4.950711e+01	-2.768753e+02
4.000000e-07	-5.850297e-06	-4.169193e-09	-4.912423e+01	-2.761841e+02
4.100000e-07	-5.803664e-06	-4.097121e-09	-4.873266e+01	-2.754862e+02
4.200000e-07	-5.756177e-06	-4.213925e-09	-4.833392e+01	-2.747828e+02
4.300000e-07	-5.707629e-06	-4.227345e-09	-4.792626e+01	-2.740739e+02
4.400000e-07	-5.657717e-06	-4.131859e-09	-4.750716e+01	-2.733584e+02
4.500000e-07	-5.606426e-06	-4.101388e-09	-4.707647e+01	-2.726338e+02
4.600000e-07	-5.553979e-06	-4.143324e-09	-4.663608e+01	-2.718969e+02
4.700000e-07	-5.500574e-06	-4.149415e-09	-4.618765e+01	-2.711437e+02
4.800000e-07	-5.446262e-06	-4.104955e-09	-4.573160e+01	-2.703698e+02
4.900000e-07	-5.391071e-06	-4.069005e-09	-4.526817e+01	-2.695708e+02
5.000000e-07	-5.335045e-06	-4.060030e-09	-4.479772e+01	-2.687425e+02
5.100000e-07	-5.277880e-06	-4.077197e-09	-4.431771e+01	-2.678815e+02
5.200000e-07	-5.219531e-06	-4.070264e-09	-4.382776e+01	-2.669850e+02
5.300000e-07	-5.160298e-06	-4.032526e-09	-4.333039e+01	-2.660513e+02
5.400000e-07	-5.100245e-06	-4.007811e-09	-4.282614e+01	-2.650799e+02
5.500000e-07	-5.039391e-06	-4.012047e-09	-4.231515e+01	-2.640712e+02
5.600000e-07	-4.977785e-06	-4.027592e-09	-4.179785e+01	-2.630267e+02
5.700000e-07	-4.915427e-06	-3.998650e-09	-4.127424e+01	-2.619487e+02
5.800000e-07	-4.852294e-06	-3.942712e-09	-4.074412e+01	-2.608400e+02
5.900000e-07	-4.788343e-06	-3.932760e-09	-4.020713e+01	-2.597038e+02
6.000000e-07	-4.723382e-06	-3.955855e-09	-3.966166e+01	-2.585429e+02
6.100000e-07	-4.657333e-06	-3.926120e-09	-3.910706e+01	-2.573600e+02
6.200000e-07	-4.590354e-06	-3.867322e-09	-3.854464e+01	-2.561570e+02
6.300000e-07	-4.522606e-06	-3.863897e-09	-3.797577e+01	-2.549348e+02
6.400000e-07	-4.454165e-06	-3.878521e-09	-3.740108e+01	-2.536933e+02
6.500000e-07	-4.384967e-06	-3.853310e-09	-3.682004e+01	-2.524313e+02
6.600000e-07	-4.314939e-06	-3.811715e-09	-3.623202e+01	-2.511464e+02
6.700000e-07	-4.244179e-06	-3.792789e-09	-3.563785e+01	-2.498353e+02
6.800000e-07	-4.172893e-06	-3.786094e-09	-3.503927e+01	-2.484939e+02
6.900000e-07	-4.100999e-06	-3.770737e-09	-3.443559e+01	-2.471177e+02
7.000000e-07	-4.028060e-06	-3.743068e-09	-3.382313e+01	-2.457018e+02
7.100000e-07	-3.953925e-06	-3.705696e-09	-3.320063e+01	-2.442417e+02
7.200000e-07	-3.878924e-06	-3.680629e-09	-3.257085e+01	-2.427331e+02
7.300000e-07	-3.803294e-06	-3.671868e-09	-3.193579e+01	-2.411726e+02
7.400000e-07	-3.726943e-06	-3.653222e-09	-3.129469e+01	-2.395576e+02
7.500000e-07	-3.649822e-06	-3.612649e-09	-3.064711e+01	-2.378865e+02
7.600000e-07	-3.571870e-06	-3.577599e-09	-2.999256e+01	-2.361590e+02
7.700000e-07	-3.493070e-06	-3.563887e-09	-2.933088e+01	-2.343753e+02
7.800000e-07	-3.413606e-06	-3.542209e-09	-2.866363e+01	-2.325367e+02
7.900000e-07	-3.333489e-06	-3.497264e-09	-2.799090e+01	-2.306448e+02
8.000000e-07	-3.252712e-06	-3.454535e-09	-2.731262e+01	-2.287014e+02
8.100000e-07	-3.171401e-06	-3.433930e-09	-2.662987e+01	-2.267080e+02
8.200000e-07	-3.089649e-06	-3.412815e-09	-2.594340e+01	-2.246657e+02
8.300000e-07	-3.007403e-06	-3.371167e-09	-2.525280e+01	-2.225746e+02
8.400000e-07	-2.924637e-06	-3.330225e-09	-2.455782e+01	-2.204336e+02
8.500000e-07	-2.841495e-06	-3.303338e-09	-2.385968e+01	-2.182403e+02
8.600000e-07	-2.758050e-06	-3.275909e-09	-2.315901e+01	-2.159909e+02
8.700000e-07	-2.674307e-06	-3.238886e-09	-2.245583e+01	-2.136803e+02
8.800000e-07	-2.590129e-06	-3.195639e-09	-2.174900e+01	-2.113018e+02
8.900000e-07	-2.505450e-06	-3.154365e-09	-2.103795e+01	-2.088483e+02
9.000000e-07	-2.420443e-06	-3.116722e-09	-2.032416e+01	-2.063116e+02
9.100000e-07	-2.335159e-06	-3.076763e-09	-1.960804e+01	-2.036835e+02
9.200000e-07	-2.249569e-06	-3.031611e-09	-1.888935e+01	-2.009558e+02
9.300000e-07	-2.163628e-06	-2.982532e-09	-1.816772e+01	-1.981210e+02
9.400000e-07	-2.077327e-06	-2.938804e-09	-1.744306e+01	-1.951723e+02
9.500000e-07	-1.990674e-06	-2.897570e-09	-1.671544e+01	-1.921039e+02
9.600000e-07	-1.903711e-06	-2.849274e-09	-1.598523e+01	-1.889111e+02
9.700000e-07	-1.816531e-06	-2.795950e-09	-1.525319e+01	-1.855901e+02
9.800000e-07	-1.729106e-06	-2.743448e-09	-1.451909e+01	-1.821380e+02
9.900000e-07	-1.641403e-06	-2.691880e-09	-1.378266e+01	-1.785519e+02
1.000000e-06	-1.553410e-06	-2.632912e-09	-1.304380e+01	-1.748288e+02
1.010000e-06	-1.465128e-06	-2.568456e-09	-1.230250e+01	-1.709646e+02
1.020000e-06	-1.376523e-06	-2.507058e-09	-1.155850e+01	-1.669537e+02
1.030000e-06	-1.287468e-06	-2.447568e-09	-1.081071e+01	-1.627877e+02
1.040000e-06	-1.197932e-06	-2.381031e-09	-1.005889e+01	-1.584555e+02
1.050000e-06	-1.108032e-06	-2.309218e-09	-9.304011e+00	-1.539423e+02
1.060000e-06	-1.017888e-06	-2.235738e-09	-8.547080e+00	-1.492290e+02
1.070000e-06	-9.275626e-07	-2.161078e-09	-7.788630e+00	-1.442929e+02
1.080000e-06	-8.370475e-07	-2.081384e-09	-7.028585e+00	-1.391070e+02
1.090000e-06	-7.463633e-07	-1.995274e-09	-6.267122e+00	-1.336410e+02
1.100000e-06	-6.555643e-07	-1.906652e-09	-5.504694e+00	-1.278623e+02
1.110000e-06	-5.646786e-07	-1.815644e-09	-4.741537e+00	-1.217363e+02
1.120000e-06	-4.737492e-07	-1.720709e-09	-3.978014e+00	-1.152287e+02
1.130000e-06	-3.828009e-07	-1.618552e-09	-3.214333e+00	-1.083067e+02
1.140000e-06	-2.917711e-07	-1.506124e-09	-2.449966e+00	-1.009406e+02
1.150000e-06	-2.006428e-07	-1.385564e-09	-1.684773e+00	-9.310592e+01
1.160000e-06	-1.095052e-07	-1.263323e-09	-9.195020e-01	-8.478500e+01
1.170000e-06	-1.837513e-08	-1.132583e-09	-1.542937e-01	-7.596866e+01
1.180000e-06	7.271445e-08	-9.873512e-10	6.105744e-01	-6.665762e+01
1.190000e-06	1.637651e-07	-8.338853e-10	1.375116e+00	-5.686354e+01
1.200000e-06	2.548071e-07	-6.770562e-10	2.139584e+00	-4.660969e+01
1.210000e-06	3.457842e-07	-5.163512e-10	2.903508e+00	-3.593118e+01
1.220000e-06	4.366702e-07	-3.488334e-10	3.666666e+00	-2.487465e+01
1.230000e-06	5.274925e-07	-1.750033e-10	4.429290e+00	-1.349752e+01
1.240000e-06	6.182249e-07	1.695997e-12	5.191159e+00	-1.866725e+00
1.250000e-06	7.088335e-07	1.783636e-10	5.951989e+00	9.942976e+00
1.260000e-06	7.993200e-07	3.549474e-10	6.711793e+00	2.185102e+01
1.270000e-06	8.896604e-07	5.352068e-10	7.470370e+00	3.377339e+01
1.280000e-06	9.798225e-07	7.173190e-10	8.227450e+00	4.562504e+01
1.290000e-06	1.069681e-06	8.980890e-10	8.981978e+00	5.732249e+01
1.300000e-06	1.159242e-06	1.071033e-09	9.734014e+00	6.878622e+01
1.310000e-06	1.248539e-06	1.238838e-09	1.048383e+01	7.994300e+01
1.320000e-06	1.337540e-06	1.405440e-09	1.123116e+01	9.072783e+01
1.330000e-06	1.426244e-06	1.565361e-09	1.197600e+01	1.010856e+02
1.340000e-06	1.514580e-06	1.713913e-09	1.271774e+01	1.109723e+02
1.350000e-06	1.602508e-06	1.852409e-09	1.345607e+01	1.203556e+02
1.360000e-06	1.690093e-06	1.986969e-09	1.419150e+01	1.292152e+02
1.370000e-06	1.777457e-06	2.112529e-09	1.492509e+01	1.375423e+02
1.380000e-06	1.864638e-06	2.227363e-09	1.565713e+01	1.453393e+02
1.390000e-06	1.951652e-06	2.333747e-09	1.638778e+01	1.526181e+02
1.400000e-06	2.038509e-06	2.433683e-09	1.711711e+01	1.593993e+02
1.410000e-06	2.125081e-06	2.526530e-09	1.784404e+01	1.657099e+02
1.420000e-06	2.211229e-06	2.613722e-09	1.856742e+01	1.715821e+02
1.430000e-06	2.296974e-06	2.697273e-09	1.928741e+01	1.770509e+02
1.440000e-06	2.382377e-06	2.773905e-09	2.000453e+01	1.821530e+02
1.450000e-06	2.467425e-06	2.845919e-09	2.071866e+01	1.869248e+02
1.460000e-06	2.552095e-06	2.917285e-09	2.142963e+01	1.914008e+02
1.470000e-06	2.636312e-06	2.984893e-09	2.213679e+01	1.956134e+02
1.480000e-06	2.720055e-06	3.045973e-09	2.283997e+01	1.995909e+02
1.490000e-06	2.803402e-06	3.104465e-09	2.353982e+01	2.033582e+02
1.500000e-06	2.886382e-06	3.161380e-09	2.423660e+01	2.069358e+02
1.510000e-06	2.968971e-06	3.212707e-09	2.493009e+01	2.103405e+02
1.520000e-06	3.051025e-06	3.260187e-09	2.561909e+01	2.135851e+02
1.530000e-06	3.132464e-06	3.305575e-09	2.630292e+01	2.166797e+02
1.540000e-06	3.213274e-06	3.346156e-09	2.698147e+01	2.196318e+02
1.550000e-06	3.293489e-06	3.384486e-09	2.765502e+01	2.224471e+02
1.560000e-06	3.373190e-06	3.423306e-09	2.832427e+01	2.251305e+02
1.570000e-06	3.452279e-06	3.461498e-09	2.898836e+01	2.276863e+02
1.580000e-06	3.530609e-06	3.496016e-09	2.964609e+01	2.301192e+02
1.590000e-06	3.608173e-06	3.529701e-09	3.029738e+01	2.324343e+02
1.600000e-06	3.685066e-06	3.563605e-09	3.094305e+01	2.346376e+02
1.610000e-06	3.761324e-06	3.595165e-09	3.158337e+01	2.367359e+02
1.620000e-06	3.836852e-06	3.625252e-09	3.221758e+01	2.387370e+02
1.630000e-06	3.911599e-06	3.651575e-09	3.284522e+01	2.406491e+02
1.640000e-06	3.985514e-06	3.675861e-09	3.346587e+01	2.424810e+02
1.650000e-06	4.058529e-06	3.699766e-09	3.407897e+01	2.442412e+02
1.660000e-06	4.130611e-06	3.724098e-09	3.468424e+01	2.459381e+02
1.670000e-06	4.201969e-06	3.747636e-09	3.528342e+01	2.475791e+02
1.680000e-06	4.272718e-06	3.769697e-09	3.587749e+01	2.491707e+02
1.690000e-06	4.342706e-06	3.794119e-09	3.646518e+01	2.507179e+02
1.700000e-06	4.411940e-06	3.818080e-09	3.704652e+01	2.522245e+02
1.710000e-06	4.480449e-06	3.840365e-09	3.762178e+01	2.536925e+02
1.720000e-06	4.548263e-06	3.860683e-09	3.819121e+01	2.551229e+02
1.730000e-06	4.615409e-06	3.879043e-09	3.875503e+01	2.565153e+02
1.740000e-06	4.681775e-06	3.896329e-09	3.931229e+01	2.578683e+02
1.750000e-06	4.747158e-06	3.912766e-09	3.986131e+01	2.591800e+02
1.760000e-06	4.811477e-06	3.929987e-09	4.040139e+01	2.604484e+02
1.770000e-06	4.874942e-06	3.946247e-09	4.093429e+01	2.616713e+02
1.780000e-06	4.937763e-06	3.961477e-09	4.146179e+01	2.628472e+02
1.790000e-06	4.999806e-06	3.977139e-09	4.198276e+01	2.639752e+02
1.800000e-06	5.060984e-06	3.993042e-09	4.249647e+01	2.650552e+02
1.810000e-06	5.121401e-06	4.008381e-09	4.300378e+01	2.660884e+02
1.820000e-06	5.181101e-06	4.022537e-09	4.350507e+01	2.670767e+02
1.830000e-06	5.239950e-06	4.036743e-09	4.399922e+01	2.680230e+02
1.840000e-06	5.297682e-06	4.051536e-09	4.448399e+01	2.689308e+02
1.850000e-06	5.354262e-06	4.064932e-09	4.495908e+01	2.698044e+02
1.860000e-06	5.409854e-06	4.077161e-09	4.542588e+01	2.706481e+02
1.870000e-06	5.464589e-06	4.090184e-09	4.588548e+01	2.714660e+02
1.880000e-06	5.518432e-06	4.104135e-09	4.633760e+01	2.722620e+02
1.890000e-06	5.571266e-06	4.118051e-09	4.678124e+01	2.730393e+02
1.900000e-06	5.622993e-06	4.131421e-09	4.721558e+01	2.738004e+02
1.910000e-06	5.673446e-06	4.145510e-09	4.763923e+01	2.745467e+02
1.920000e-06	5.722537e-06	4.158756e-09	4.805144e+01	2.752786e+02
1.930000e-06	5.770399e-06	4.169508e-09	4.845334e+01	2.759956e+02
1.940000e-06	5.817267e-06	4.179713e-09	4.884688e+01	2.766964e+02
1.950000e-06	5.863151e-06	4.190591e-09	4.923216e+01	2.773790e+02
1.960000e-06	5.908026e-06	4.200574e-09	4.960897e+01	2.780410e+02
1.970000e-06	5.951958e-06	4.209753e-09	4.997786e+01	2.786799e+02
1.980000e-06	5.994916e-06	4.221475e-09	5.033858e+01	2.792933e+02
1.990000e-06	6.036653e-06	4.232855e-09	5.068904e+01	2.798791e+02
2.000000e-06	6.077123e-06	4.240914e-09	5.102886e+01	2.804359e+02
2.010000e-06	6.116552e-06	4.248661e-09	5.135994e+01	2.809630e+02
2.020000e-06	6.155021e-06	4.257252e-09	5.168296e+01	2.814606e+02
2.030000e-06	6.192514e-06	4.265376e-09	5.199778e+01	2.819295e+02
2.040000e-06	6.229008e-06	4.273062e-09	5.230422e+01	2.823717e+02
2.050000e-06	6.264549e-06	4.281008e-09	5.260265e+01	2.827895e+02
2.060000e-06	6.298951e-06	4.290392e-09	5.289153e+01	2.831858e+02
2.070000e-06	6.332006e-06	4.299332e-09	5.316908e+01	2.835636e+02
2.080000e-06	6.363864e-06	4.307191e-09	5.343659e+01	2.839260e+02
2.090000e-06	6.394727e-06	4.314558e-09	5.369574e+01	2.842757e+02
2.100000e-06	6.424577e-06	4.322487e-09	5.394639e+01	2.846151e+02
2.110000e-06	6.453422e-06	4.329728e-09	5.418860e+01	2.849458e+02
2.120000e-06	6.481338e-06	4.335959e-09	5.442300e+01	2.852685e+02
2.130000e-06	6.508178e-06	4.342085e-09	5.464838e+01	2.855832e+02
2.140000e-06	6.533656e-06	4.347119e-09	5.486231e+01	2.858891e+02
2.150000e-06	6.557782e-06	4.352196e-09	5.506490e+01	2.861846e+02
2.160000e-06	6.580743e-06	4.356774e-09	5.525770e+01	2.864676e+02
2.170000e-06	6.602600e-06	4.362180e-09	5.544122e+01	2.867356e+02
2.180000e-06	6.623394e-06	4.367649e-09	5.561583e+01	2.869860e+02
2.190000e-06	6.643248e-06	4.373318e-09	5.578254e+01	2.872163e+02
2.200000e-06	6.662121e-06	4.378508e-09	5.594102e+01	2.874243e+02
2.210000e-06	6.679784e-06	4.381187e-09	5.608933e+01	2.876087e+02
2.220000e-06	6.696148e-06	4.383598e-09	5.622674e+01	2.877684e+02
2.230000e-06	6.711226e-06	4.386234e-09	5.635334e+01	2.879035e+02
2.240000e-06	6.725049e-06	4.388355e-09	5.646942e+01	2.880147e+02
2.250000e-06	6.737671e-06	4.389596e-09	5.657540e+01	2.881037e+02
2.260000e-06	6.749043e-06	4.391860e-09	5.667089e+01	2.881727e+02
2.270000e-06	6.758885e-06	4.395371e-09	5.675353e+01	2.882243e+02
2.280000e-06	6.767211e-06	4.399614e-09	5.682344e+01	2.882617e+02
2.290000e-06	6.774392e-06	4.402639e-09	5.688374e+01	2.882879e+02
2.300000e-06	6.780476e-06	4.405757e-09	5.693483e+01	2.883056e+02
2.310000e-06	6.785407e-06	4.409759e-09	5.697623e+01	2.883173e+02
2.320000e-06	6.789297e-06	4.411892e-09	5.700890e+01	2.883246e+02
2.330000e-06	6.791983e-06	4.411228e-09	5.703145e+01	2.883286e+02
2.340000e-06	6.793180e-06	4.411826e-09	5.704150e+01	2.883294e+02
2.350000e-06	6.793106e-06	4.414769e-09	5.704088e+01	2.883263e+02
2.360000e-06	6.792001e-06	4.415129e-09	5.703160e+01	2.883180e+02
2.370000e-06	6.789832e-06	4.411148e-09	5.701339e+01	2.883024e+02
2.380000e-06	6.786584e-06	4.409839e-09	5.698612e+01	2.882771e+02
2.390000e-06	6.782369e-06	4.411110e-09	5.695072e+01	2.882394e+02
2.400000e-06	6.777031e-06	4.412150e-09	5.690590e+01	2.881869e+02
2.410000e-06	6.770274e-06	4.411493e-09	5.684916e+01	2.881172e+02
2.420000e-06	6.762349e-06	4.414879e-09	5.678262e+01	2.880288e+02
2.430000e-06	6.753509e-06	4.433705e-09	5.670839e+01	2.879205e+02
2.440000e-06	6.743672e-06	4.364122e-09	5.662579e+01	2.877922e+02
2.450000e-06	6.732341e-06	4.290197e-09	5.653064e+01	2.876445e+02
2.460000e-06	6.718914e-06	4.297498e-09	5.641790e+01	2.874789e+02
2.470000e-06	6.703647e-06	4.385483e-09	5.628970e+01	2.872976e+02
2.480000e-06	6.687494e-06	4.570754e-09	5.615407e+01	2.871031e+02
2.490000e-06	6.670976e-06	4.417314e-09	5.601537e+01	2.868983e+02
2.500000e-06	6.653512e-06	4.211418e-09	5.586873e+01	2.866862e+02
2.510000e-06	6.634559e-06	4.422601e-09	5.570958e+01	2.864693e+02
2.520000e-06	6.614786e-06	4.407115e-09	5.554355e+01	2.862498e+02
2.530000e-06	6.594329e-06	4.396021e-09	5.537177e+01	2.860289e+02
2.540000e-06	6.572194e-06	4.498538e-09	5.518591e+01	2.858069e+02
2.550000e-06	6.548505e-06	4.217717e-09	5.498699e+01	2.855831e+02
2.560000e-06	6.524000e-06	4.256209e-09	5.478123e+01	2.853557e+02
2.570000e-06	6.498507e-06	4.535918e-09	5.456717e+01	2.851218e+02
2.580000e-06	6.471855e-06	4.299608e-09	5.434338e+01	2.848778e+02
2.590000e-06	6.444120e-06	4.196471e-09	5.411049e+01	2.846192e+02
2.600000e-06	6.415411e-06	4.397280e-09	5.386942e+01	2.843413e+02
2.610000e-06	6.385619e-06	4.390193e-09	5.361926e+01	2.840393e+02
2.620000e-06	6.354314e-06	4.408262e-09	5.335640e+01	2.837088e+02
2.630000e-06	6.321682e-06	4.260192e-09	5.308239e+01	2.833458e+02
2.640000e-06	6.288077e-06	4.225973e-09	5.280021e+01	2.829472e+02
2.650000e-06	6.253308e-06	4.422716e-09	5.250826e+01	2.825111e+02
2.660000e-06	6.217466e-06	4.291116e-09	5.220731e+01	2.820369e+02
2.670000e-06	6.180688e-06	4.297541e-09	5.189848e+01	2.815250e+02
2.680000e-06	6.142568e-06	4.317219e-09	5.157840e+01	2.809771e+02
2.690000e-06	6.102995e-06	4.190777e-09	5.124610e+01	2.803963e+02
2.700000e-06	6.062366e-06	4.305182e-09	5.090495e+01	2.797861e+02
2.710000e-06	6.020860e-06	4.332512e-09	5.055643e+01	2.791510e+02
2.720000e-06	5.978224e-06	4.242951e-09	5.019841e+01	2.784954e+02
2.730000e-06	5.934564e-06	4.153996e-09	4.983181e+01	2.778238e+02
2.740000e-06	5.890091e-06	4.237148e-09	4.945838e+01	2.771403e+02
2.750000e-06	5.844549e-06	4.346161e-09	4.907597e+01	2.764480e+02
2.760000e-06	5.797854e-06	4.155228e-09	4.868387e+01	2.757492e+02
2.770000e-06	5.750160e-06	4.137989e-09	4.828339e+01	2.750450e+02
2.780000e-06	5.701487e-06	4.229747e-09	4.787469e+01	2.743352e+02
2.790000e-06	5.651678e-06	4.215534e-09	4.745645e+01	2.736185e+02
2.800000e-06	5.600727e-06	4.171080e-09	4.702862e+01	2.728923e+02
2.810000e-06	5.548873e-06	4.112375e-09	4.659321e+01	2.721532e+02
2.820000e-06	5.496062e-06	4.181913e-09	4.614976e+01	2.713971e+02
2.830000e-06	5.441939e-06	4.154963e-09	4.569529e+01	2.706197e+02
2.840000e-06	5.386535e-06	4.109114e-09	4.523008e+01	2.698166e+02
2.850000e-06	5.330201e-06	4.123333e-09	4.475705e+01	2.689836e+02
2.860000e-06	5.273084e-06	4.092667e-09	4.427744e+01	2.681174e+02
2.870000e-06	5.215131e-06	4.095248e-09	4.379082e+01	2.672154e+02
2.880000e-06	5.156299e-06	4.074545e-09	4.329681e+01	2.662761e+02
2.890000e-06	5.096688e-06	4.069496e-09	4.279626e+01	2.652990e+02
2.900000e-06	5.036319e-06	4.023937e-09	4.228935e+01	2.642848e+02
2.910000e-06	4.974997e-06	4.009156e-09	4.177444e+01	2.632351e+02
2.920000e-06	4.912571e-06	4.051295e-09	4.125026e+01	2.621523e+02
2.930000e-06	4.849131e-06	4.010049e-09	4.071756e+01	2.610393e+02
2.940000e-06	4.784858e-06	3.956941e-09	4.017787e+01	2.598992e+02
2.950000e-06	4.719813e-06	3.953006e-09	3.963169e+01	2.587349e+02
