# Temperatura_=_20.0
# Concentracion g/m^3_=_9000.0
# C_Vs_to_Am_M_A/Vsm_=_65563218390.804596
# pendiente_HvsI_1/m_=_3716.3
# ordenada_HvsI_A/m_=_1297.0
# frecuencia_Hz_=_212906.98908331525

Tiempo_(s)	Campo_(V.s)	Magnetizacion_(V.s)	Campo_(kA/m)	Magnetizacion_(A/m)
0.000000e+00	-6.713192e-06	-4.316053e-09	-5.696625e+01	-2.841528e+02
1.000000e-08	-6.712847e-06	-4.315785e-09	-5.696332e+01	-2.841697e+02
2.000000e-08	-6.711094e-06	-4.318888e-09	-5.694845e+01	-2.841870e+02
3.000000e-08	-6.707974e-06	-4.318243e-09	-5.692198e+01	-2.842050e+02
4.000000e-08	-6.703884e-06	-4.316597e-09	-5.688727e+01	-2.842233e+02
5.000000e-08	-6.698770e-06	-4.315730e-09	-5.684387e+01	-2.842405e+02
6.000000e-08	-6.692536e-06	-4.314223e-09	-5.679098e+01	-2.842541e+02
7.000000e-08	-6.685314e-06	-4.308667e-09	-5.672969e+01	-2.842609e+02
8.000000e-08	-6.677196e-06	-4.298877e-09	-5.666080e+01	-2.842570e+02
9.000000e-08	-6.667750e-06	-4.295383e-09	-5.658065e+01	-2.842380e+02
1.000000e-07	-6.656571e-06	-4.347034e-09	-5.648578e+01	-2.841993e+02
1.100000e-07	-6.643800e-06	-4.370367e-09	-5.637742e+01	-2.841363e+02
1.200000e-07	-6.629492e-06	-4.348451e-09	-5.625600e+01	-2.840446e+02
1.300000e-07	-6.613684e-06	-4.281461e-09	-5.612186e+01	-2.839204e+02
1.400000e-07	-6.596791e-06	-4.179721e-09	-5.597851e+01	-2.837603e+02
1.500000e-07	-6.578971e-06	-4.307106e-09	-5.582729e+01	-2.835620e+02
1.600000e-07	-6.560150e-06	-4.382698e-09	-5.566759e+01	-2.833240e+02
1.700000e-07	-6.540610e-06	-4.251816e-09	-5.550178e+01	-2.830457e+02
1.800000e-07	-6.520193e-06	-4.279495e-09	-5.532852e+01	-2.827278e+02
1.900000e-07	-6.498514e-06	-4.239029e-09	-5.514456e+01	-2.823715e+02
2.000000e-07	-6.475858e-06	-4.189071e-09	-5.495231e+01	-2.819793e+02
2.100000e-07	-6.452381e-06	-4.387531e-09	-5.475308e+01	-2.815540e+02
2.200000e-07	-6.427564e-06	-4.321233e-09	-5.454249e+01	-2.810993e+02
2.300000e-07	-6.401228e-06	-4.142906e-09	-5.431902e+01	-2.806191e+02
2.400000e-07	-6.373779e-06	-4.261403e-09	-5.408609e+01	-2.801175e+02
2.500000e-07	-6.345348e-06	-4.323033e-09	-5.384483e+01	-2.795987e+02
2.600000e-07	-6.315879e-06	-4.311360e-09	-5.359477e+01	-2.790665e+02
2.700000e-07	-6.285347e-06	-4.260528e-09	-5.333569e+01	-2.785247e+02
2.800000e-07	-6.253845e-06	-4.150835e-09	-5.306837e+01	-2.779764e+02
2.900000e-07	-6.221348e-06	-4.231280e-09	-5.279260e+01	-2.774243e+02
3.000000e-07	-6.187454e-06	-4.319839e-09	-5.250499e+01	-2.768702e+02
3.100000e-07	-6.152211e-06	-4.233252e-09	-5.220592e+01	-2.763154e+02
3.200000e-07	-6.115903e-06	-4.188034e-09	-5.189783e+01	-2.757605e+02
3.300000e-07	-6.078439e-06	-4.178509e-09	-5.157992e+01	-2.752055e+02
3.400000e-07	-6.039794e-06	-4.190498e-09	-5.125199e+01	-2.746495e+02
3.500000e-07	-6.000297e-06	-4.258134e-09	-5.091683e+01	-2.740912e+02
3.600000e-07	-5.959832e-06	-4.233044e-09	-5.057346e+01	-2.735288e+02
3.700000e-07	-5.917948e-06	-4.102344e-09	-5.021804e+01	-2.729601e+02
3.800000e-07	-5.874830e-06	-4.119615e-09	-4.985216e+01	-2.723825e+02
3.900000e-07	-5.830714e-06	-4.253881e-09	-4.947780e+01	-2.717934e+02
4.000000e-07	-5.785503e-06	-4.183283e-09	-4.909415e+01	-2.711899e+02
4.100000e-07	-5.739240e-06	-4.073075e-09	-4.870157e+01	-2.705694e+02
4.200000e-07	-5.692115e-06	-4.112426e-09	-4.830168e+01	-2.699292e+02
4.300000e-07	-5.644119e-06	-4.153102e-09	-4.789440e+01	-2.692671e+02
4.400000e-07	-5.594810e-06	-4.132558e-09	-4.747598e+01	-2.685809e+02
4.500000e-07	-5.544052e-06	-4.094084e-09	-4.704526e+01	-2.678690e+02
4.600000e-07	-5.492111e-06	-4.070313e-09	-4.660451e+01	-2.671304e+02
4.700000e-07	-5.439190e-06	-4.063275e-09	-4.615543e+01	-2.663641e+02
4.800000e-07	-5.385352e-06	-4.083517e-09	-4.569858e+01	-2.655701e+02
4.900000e-07	-5.330614e-06	-4.074038e-09	-4.523409e+01	-2.647486e+02
5.000000e-07	-5.275071e-06	-4.008202e-09	-4.476277e+01	-2.639002e+02
5.100000e-07	-5.218670e-06	-3.986439e-09	-4.428417e+01	-2.630260e+02
5.200000e-07	-5.161189e-06	-4.018706e-09	-4.379639e+01	-2.621273e+02
5.300000e-07	-5.102581e-06	-4.023756e-09	-4.329907e+01	-2.612055e+02
5.400000e-07	-5.043084e-06	-3.971208e-09	-4.279419e+01	-2.602620e+02
5.500000e-07	-4.982829e-06	-3.931814e-09	-4.228289e+01	-2.592984e+02
5.600000e-07	-4.921839e-06	-3.955751e-09	-4.176534e+01	-2.583157e+02
5.700000e-07	-4.860058e-06	-3.968243e-09	-4.124109e+01	-2.573147e+02
5.800000e-07	-4.797412e-06	-3.920781e-09	-4.070949e+01	-2.562959e+02
5.900000e-07	-4.734016e-06	-3.870281e-09	-4.017152e+01	-2.552588e+02
6.000000e-07	-4.669853e-06	-3.876980e-09	-3.962705e+01	-2.542028e+02
6.100000e-07	-4.604669e-06	-3.889646e-09	-3.907392e+01	-2.531264e+02
6.200000e-07	-4.538354e-06	-3.856527e-09	-3.851119e+01	-2.520274e+02
6.300000e-07	-4.471124e-06	-3.814843e-09	-3.794070e+01	-2.509033e+02
6.400000e-07	-4.403245e-06	-3.798641e-09	-3.736469e+01	-2.497509e+02
6.500000e-07	-4.334743e-06	-3.803075e-09	-3.678341e+01	-2.485669e+02
6.600000e-07	-4.265488e-06	-3.794635e-09	-3.619573e+01	-2.473477e+02
6.700000e-07	-4.195382e-06	-3.760983e-09	-3.560083e+01	-2.460898e+02
6.800000e-07	-4.124548e-06	-3.720510e-09	-3.499975e+01	-2.447898e+02
6.900000e-07	-4.053125e-06	-3.706437e-09	-3.439368e+01	-2.434449e+02
7.000000e-07	-3.980992e-06	-3.711072e-09	-3.378158e+01	-2.420526e+02
7.100000e-07	-3.907951e-06	-3.683153e-09	-3.316177e+01	-2.406112e+02
7.200000e-07	-3.833936e-06	-3.630601e-09	-3.253370e+01	-2.391195e+02
7.300000e-07	-3.759006e-06	-3.606707e-09	-3.189787e+01	-2.375773e+02
7.400000e-07	-3.683342e-06	-3.611870e-09	-3.125580e+01	-2.359848e+02
7.500000e-07	-3.607032e-06	-3.592910e-09	-3.060826e+01	-2.343431e+02
7.600000e-07	-3.529903e-06	-3.543772e-09	-2.995377e+01	-2.326534e+02
7.700000e-07	-3.451994e-06	-3.507762e-09	-2.929265e+01	-2.309172e+02
7.800000e-07	-3.373533e-06	-3.494461e-09	-2.862685e+01	-2.291360e+02
7.900000e-07	-3.294504e-06	-3.474881e-09	-2.795623e+01	-2.273111e+02
8.000000e-07	-3.214666e-06	-3.433899e-09	-2.727875e+01	-2.254430e+02
8.100000e-07	-3.134041e-06	-3.393512e-09	-2.659459e+01	-2.235316e+02
8.200000e-07	-3.052996e-06	-3.368659e-09	-2.590687e+01	-2.215759e+02
8.300000e-07	-2.971558e-06	-3.349072e-09	-2.521581e+01	-2.195735e+02
8.400000e-07	-2.889597e-06	-3.319938e-09	-2.452030e+01	-2.175210e+02
8.500000e-07	-2.807138e-06	-3.276939e-09	-2.382058e+01	-2.154140e+02
8.600000e-07	-2.724318e-06	-3.238122e-09	-2.311779e+01	-2.132466e+02
8.700000e-07	-2.641204e-06	-3.214433e-09	-2.241251e+01	-2.110123e+02
8.800000e-07	-2.557767e-06	-3.186135e-09	-2.170449e+01	-2.087040e+02
8.900000e-07	-2.473987e-06	-3.139327e-09	-2.099356e+01	-2.063139e+02
9.000000e-07	-2.389862e-06	-3.090618e-09	-2.027969e+01	-2.038345e+02
9.100000e-07	-2.305424e-06	-3.055853e-09	-1.956318e+01	-2.012582e+02
9.200000e-07	-2.220716e-06	-3.024612e-09	-1.884437e+01	-1.985783e+02
9.300000e-07	-2.135655e-06	-2.977849e-09	-1.812257e+01	-1.957885e+02
9.400000e-07	-2.050139e-06	-2.923142e-09	-1.739690e+01	-1.928836e+02
9.500000e-07	-1.964221e-06	-2.878362e-09	-1.666782e+01	-1.898594e+02
9.600000e-07	-1.877994e-06	-2.839984e-09	-1.593613e+01	-1.867125e+02
9.700000e-07	-1.791538e-06	-2.792005e-09	-1.520249e+01	-1.834401e+02
9.800000e-07	-1.704846e-06	-2.731660e-09	-1.446684e+01	-1.800397e+02
9.900000e-07	-1.617863e-06	-2.672398e-09	-1.372873e+01	-1.765088e+02
1.000000e-06	-1.530584e-06	-2.621825e-09	-1.298811e+01	-1.728439e+02
1.010000e-06	-1.443084e-06	-2.570186e-09	-1.224560e+01	-1.690406e+02
1.020000e-06	-1.355355e-06	-2.506172e-09	-1.150116e+01	-1.650923e+02
1.030000e-06	-1.267296e-06	-2.436511e-09	-1.075391e+01	-1.609899e+02
1.040000e-06	-1.178932e-06	-2.371824e-09	-1.000409e+01	-1.567215e+02
1.050000e-06	-1.090337e-06	-2.310840e-09	-9.252293e+00	-1.522715e+02
1.060000e-06	-1.001602e-06	-2.240643e-09	-8.499309e+00	-1.476209e+02
1.070000e-06	-9.127119e-07	-2.157947e-09	-7.745016e+00	-1.427472e+02
1.080000e-06	-8.235423e-07	-2.073641e-09	-6.988348e+00	-1.376242e+02
1.090000e-06	-7.341749e-07	-1.994630e-09	-6.230002e+00	-1.322234e+02
1.100000e-06	-6.446305e-07	-1.912881e-09	-5.470152e+00	-1.265139e+02
1.110000e-06	-5.548918e-07	-1.817613e-09	-4.708656e+00	-1.204640e+02
1.120000e-06	-4.649906e-07	-1.716558e-09	-3.945779e+00	-1.140421e+02
1.130000e-06	-3.749644e-07	-1.617564e-09	-3.181842e+00	-1.072184e+02
1.140000e-06	-2.848986e-07	-1.515000e-09	-2.417569e+00	-9.996647e+01
1.150000e-06	-1.947554e-07	-1.395473e-09	-1.652639e+00	-9.226435e+01
1.160000e-06	-1.045850e-07	-1.264229e-09	-8.874792e-01	-8.409660e+01
1.170000e-06	-1.444153e-08	-1.132451e-09	-1.225468e-01	-7.545548e+01
1.180000e-06	7.566573e-08	-9.960798e-10	6.420780e-01	-6.634217e+01
1.190000e-06	1.657329e-07	-8.503323e-10	1.406363e+00	-5.676779e+01
1.200000e-06	2.557415e-07	-6.930988e-10	2.170151e+00	-4.675389e+01
1.210000e-06	3.456591e-07	-5.299629e-10	2.933165e+00	-3.633278e+01
1.220000e-06	4.354939e-07	-3.668676e-10	3.695479e+00	-2.554724e+01
1.230000e-06	5.251597e-07	-2.031403e-10	4.456357e+00	-1.444997e+01
1.240000e-06	6.146340e-07	-3.125166e-11	5.215611e+00	-3.102516e+00
1.250000e-06	7.039642e-07	1.476262e-10	5.973642e+00	8.426159e+00
1.260000e-06	7.931719e-07	3.251558e-10	6.730633e+00	2.006138e+01
1.270000e-06	8.822254e-07	5.005875e-10	7.486316e+00	3.172480e+01
1.280000e-06	9.711133e-07	6.778530e-10	8.240594e+00	4.333655e+01
1.290000e-06	1.059767e-06	8.584760e-10	8.992884e+00	5.481749e+01
1.300000e-06	1.148145e-06	1.032536e-09	9.742836e+00	6.609146e+01
1.310000e-06	1.236299e-06	1.198993e-09	1.049088e+01	7.708737e+01
1.320000e-06	1.324214e-06	1.360442e-09	1.123691e+01	8.774112e+01
1.330000e-06	1.411897e-06	1.516384e-09	1.198096e+01	9.799717e+01
1.340000e-06	1.499368e-06	1.665311e-09	1.272322e+01	1.078098e+02
1.350000e-06	1.586610e-06	1.805292e-09	1.346353e+01	1.171441e+02
1.360000e-06	1.673599e-06	1.939100e-09	1.420169e+01	1.259760e+02
1.370000e-06	1.760402e-06	2.063334e-09	1.493827e+01	1.342926e+02
1.380000e-06	1.847007e-06	2.180951e-09	1.567318e+01	1.420917e+02
1.390000e-06	1.933309e-06	2.289914e-09	1.640551e+01	1.493807e+02
1.400000e-06	2.019276e-06	2.389866e-09	1.713501e+01	1.561757e+02
1.410000e-06	2.104911e-06	2.482346e-09	1.786168e+01	1.625000e+02
1.420000e-06	2.190164e-06	2.567766e-09	1.858511e+01	1.683827e+02
1.430000e-06	2.275018e-06	2.649905e-09	1.930516e+01	1.738565e+02
1.440000e-06	2.359578e-06	2.726900e-09	2.002271e+01	1.789568e+02
1.450000e-06	2.443895e-06	2.798707e-09	2.073820e+01	1.837195e+02
1.460000e-06	2.527934e-06	2.868681e-09	2.145133e+01	1.881798e+02
1.470000e-06	2.611558e-06	2.936999e-09	2.216094e+01	1.923711e+02
1.480000e-06	2.694646e-06	2.998972e-09	2.286601e+01	1.963239e+02
1.490000e-06	2.777256e-06	3.056014e-09	2.356701e+01	2.000649e+02
1.500000e-06	2.859365e-06	3.112214e-09	2.426377e+01	2.036172e+02
1.510000e-06	2.941003e-06	3.164612e-09	2.495653e+01	2.069995e+02
1.520000e-06	3.022177e-06	3.211305e-09	2.564534e+01	2.102267e+02
1.530000e-06	3.102770e-06	3.254965e-09	2.632923e+01	2.133102e+02
1.540000e-06	3.182763e-06	3.296344e-09	2.700803e+01	2.162581e+02
1.550000e-06	3.262071e-06	3.336064e-09	2.768102e+01	2.190764e+02
1.560000e-06	3.340782e-06	3.373245e-09	2.834894e+01	2.217692e+02
1.570000e-06	3.418946e-06	3.409714e-09	2.901221e+01	2.243395e+02
1.580000e-06	3.496381e-06	3.445464e-09	2.966930e+01	2.267902e+02
1.590000e-06	3.573108e-06	3.481506e-09	3.032039e+01	2.291242e+02
1.600000e-06	3.649211e-06	3.517087e-09	3.096618e+01	2.313450e+02
1.610000e-06	3.724578e-06	3.547235e-09	3.160572e+01	2.334570e+02
1.620000e-06	3.799131e-06	3.574606e-09	3.223836e+01	2.354657e+02
1.630000e-06	3.872859e-06	3.599806e-09	3.286399e+01	2.373776e+02
1.640000e-06	3.945742e-06	3.624372e-09	3.348246e+01	2.392001e+02
1.650000e-06	4.017750e-06	3.647167e-09	3.409349e+01	2.409412e+02
1.660000e-06	4.088978e-06	3.669853e-09	3.469792e+01	2.426089e+02
1.670000e-06	4.159647e-06	3.693469e-09	3.529759e+01	2.442116e+02
1.680000e-06	4.229631e-06	3.715685e-09	3.589146e+01	2.457569e+02
1.690000e-06	4.298845e-06	3.740171e-09	3.647879e+01	2.472518e+02
1.700000e-06	4.367393e-06	3.763842e-09	3.706046e+01	2.487018e+02
1.710000e-06	4.435257e-06	3.785684e-09	3.763634e+01	2.501117e+02
1.720000e-06	4.502380e-06	3.804998e-09	3.820593e+01	2.514844e+02
1.730000e-06	4.568705e-06	3.821747e-09	3.876874e+01	2.528217e+02
1.740000e-06	4.634143e-06	3.838095e-09	3.932403e+01	2.541240e+02
1.750000e-06	4.698610e-06	3.855090e-09	3.987108e+01	2.553905e+02
1.760000e-06	4.762232e-06	3.874011e-09	4.041096e+01	2.566197e+02
1.770000e-06	4.825168e-06	3.891545e-09	4.094501e+01	2.578096e+02
1.780000e-06	4.887372e-06	3.908139e-09	4.147287e+01	2.589580e+02
1.790000e-06	4.948774e-06	3.924312e-09	4.199390e+01	2.600629e+02
1.800000e-06	5.009393e-06	3.938556e-09	4.250830e+01	2.611225e+02
1.810000e-06	5.069275e-06	3.952553e-09	4.301644e+01	2.621362e+02
1.820000e-06	5.128433e-06	3.967847e-09	4.351844e+01	2.631039e+02
1.830000e-06	5.186631e-06	3.982068e-09	4.401229e+01	2.640266e+02
1.840000e-06	5.243555e-06	3.994629e-09	4.449533e+01	2.649064e+02
1.850000e-06	5.299380e-06	4.007488e-09	4.496905e+01	2.657462e+02
1.860000e-06	5.354397e-06	4.022072e-09	4.543591e+01	2.665496e+02
1.870000e-06	5.408591e-06	4.036528e-09	4.589578e+01	2.673208e+02
1.880000e-06	5.461869e-06	4.048748e-09	4.634788e+01	2.680642e+02
1.890000e-06	5.514142e-06	4.059907e-09	4.679146e+01	2.687842e+02
1.900000e-06	5.565215e-06	4.072358e-09	4.722485e+01	2.694849e+02
1.910000e-06	5.614880e-06	4.087060e-09	4.764629e+01	2.701697e+02
1.920000e-06	5.663239e-06	4.098493e-09	4.805665e+01	2.708414e+02
1.930000e-06	5.710598e-06	4.107112e-09	4.845852e+01	2.715017e+02
1.940000e-06	5.757026e-06	4.118306e-09	4.885250e+01	2.721515e+02
1.950000e-06	5.802444e-06	4.130718e-09	4.923791e+01	2.727906e+02
1.960000e-06	5.846944e-06	4.140539e-09	4.961552e+01	2.734178e+02
1.970000e-06	5.890606e-06	4.149514e-09	4.998602e+01	2.740313e+02
1.980000e-06	5.933231e-06	4.160517e-09	5.034773e+01	2.746289e+02
1.990000e-06	5.974505e-06	4.171269e-09	5.069797e+01	2.752078e+02
2.000000e-06	6.014510e-06	4.180203e-09	5.103743e+01	2.757655e+02
2.010000e-06	6.053523e-06	4.188390e-09	5.136849e+01	2.762994e+02
2.020000e-06	6.091541e-06	4.196714e-09	5.169110e+01	2.768076e+02
2.030000e-06	6.128566e-06	4.205277e-09	5.200528e+01	2.772888e+02
2.040000e-06	6.164653e-06	4.215084e-09	5.231151e+01	2.777425e+02
2.050000e-06	6.199799e-06	4.223840e-09	5.260974e+01	2.781691e+02
2.060000e-06	6.233780e-06	4.231366e-09	5.289810e+01	2.785698e+02
2.070000e-06	6.266383e-06	4.237798e-09	5.317476e+01	2.789465e+02
2.080000e-06	6.297881e-06	4.243248e-09	5.344205e+01	2.793018e+02
2.090000e-06	6.328393e-06	4.250499e-09	5.370096e+01	2.796389e+02
2.100000e-06	6.357909e-06	4.258646e-09	5.395142e+01	2.799610e+02
2.110000e-06	6.386487e-06	4.265072e-09	5.419393e+01	2.802713e+02
2.120000e-06	6.414122e-06	4.270267e-09	5.442843e+01	2.805729e+02
2.130000e-06	6.440655e-06	4.277256e-09	5.465359e+01	2.808682e+02
2.140000e-06	6.465746e-06	4.283163e-09	5.486650e+01	2.811590e+02
2.150000e-06	6.489531e-06	4.287612e-09	5.506833e+01	2.814465e+02
2.160000e-06	6.512242e-06	4.291992e-09	5.526105e+01	2.817309e+02
2.170000e-06	6.533851e-06	4.295679e-09	5.544442e+01	2.820114e+02
2.180000e-06	6.554411e-06	4.300059e-09	5.561888e+01	2.822866e+02
2.190000e-06	6.574073e-06	4.305505e-09	5.578573e+01	2.825544e+02
2.200000e-06	6.592707e-06	4.310603e-09	5.594385e+01	2.828122e+02
2.210000e-06	6.610093e-06	4.314164e-09	5.609139e+01	2.830573e+02
2.220000e-06	6.626259e-06	4.317696e-09	5.622857e+01	2.832867e+02
2.230000e-06	6.641249e-06	4.320757e-09	5.635576e+01	2.834979e+02
2.240000e-06	6.655011e-06	4.323068e-09	5.647255e+01	2.836885e+02
2.250000e-06	6.667488e-06	4.326213e-09	5.657842e+01	2.838571e+02
2.260000e-06	6.678693e-06	4.330351e-09	5.667350e+01	2.840027e+02
2.270000e-06	6.688355e-06	4.334162e-09	5.675550e+01	2.841254e+02
2.280000e-06	6.696546e-06	4.337881e-09	5.682500e+01	2.842261e+02
2.290000e-06	6.703634e-06	4.341304e-09	5.688515e+01	2.843064e+02
2.300000e-06	6.709586e-06	4.343538e-09	5.693566e+01	2.843686e+02
2.310000e-06	6.714416e-06	4.346522e-09	5.697664e+01	2.844157e+02
2.320000e-06	6.718258e-06	4.350145e-09	5.700924e+01	2.844508e+02
2.330000e-06	6.720908e-06	4.352433e-09	5.703173e+01	2.844772e+02
2.340000e-06	6.722059e-06	4.355292e-09	5.704150e+01	2.844979e+02
2.350000e-06	6.721968e-06	4.358406e-09	5.704073e+01	2.845157e+02
2.360000e-06	6.720875e-06	4.358175e-09	5.703145e+01	2.845327e+02
2.370000e-06	6.718693e-06	4.355399e-09	5.701293e+01	2.845500e+02
2.380000e-06	6.715444e-06	4.356916e-09	5.698537e+01	2.845682e+02
2.390000e-06	6.711246e-06	4.356788e-09	5.694974e+01	2.845865e+02
2.400000e-06	6.706070e-06	4.355124e-09	5.690582e+01	2.846033e+02
2.410000e-06	6.699495e-06	4.355400e-09	5.685003e+01	2.846161e+02
2.420000e-06	6.691637e-06	4.358733e-09	5.678335e+01	2.846216e+02
2.430000e-06	6.682857e-06	4.379170e-09	5.670884e+01	2.846158e+02
2.440000e-06	6.673046e-06	4.316095e-09	5.662559e+01	2.845942e+02
2.450000e-06	6.661753e-06	4.269136e-09	5.652976e+01	2.845521e+02
2.460000e-06	6.648376e-06	4.281701e-09	5.641625e+01	2.844851e+02
2.470000e-06	6.633155e-06	4.346925e-09	5.628708e+01	2.843888e+02
2.480000e-06	6.617087e-06	4.480535e-09	5.615074e+01	2.842594e+02
2.490000e-06	6.600719e-06	4.346768e-09	5.601184e+01	2.840937e+02
2.500000e-06	6.583377e-06	4.238508e-09	5.586468e+01	2.838895e+02
2.510000e-06	6.564479e-06	4.398809e-09	5.570432e+01	2.836455e+02
2.520000e-06	6.544786e-06	4.305314e-09	5.553721e+01	2.833613e+02
2.530000e-06	6.524423e-06	4.344974e-09	5.536442e+01	2.830375e+02
2.540000e-06	6.502333e-06	4.507633e-09	5.517696e+01	2.826757e+02
2.550000e-06	6.478711e-06	4.261629e-09	5.497652e+01	2.822783e+02
2.560000e-06	6.454295e-06	4.273752e-09	5.476933e+01	2.818485e+02
2.570000e-06	6.428944e-06	4.479247e-09	5.455420e+01	2.813897e+02
2.580000e-06	6.402516e-06	4.290729e-09	5.432995e+01	2.809060e+02
2.590000e-06	6.375021e-06	4.213001e-09	5.409663e+01	2.804016e+02
2.600000e-06	6.346617e-06	4.257430e-09	5.385560e+01	2.798805e+02
2.610000e-06	6.317134e-06	4.204677e-09	5.360542e+01	2.793467e+02
2.620000e-06	6.286055e-06	4.342462e-09	5.334169e+01	2.788038e+02
2.630000e-06	6.253683e-06	4.238560e-09	5.306699e+01	2.782548e+02
2.640000e-06	6.220354e-06	4.139892e-09	5.278417e+01	2.777022e+02
2.650000e-06	6.185829e-06	4.265567e-09	5.249120e+01	2.771480e+02
2.660000e-06	6.150254e-06	4.174630e-09	5.218932e+01	2.765932e+02
2.670000e-06	6.113875e-06	4.255614e-09	5.188062e+01	2.760384e+02
2.680000e-06	6.076228e-06	4.259870e-09	5.156116e+01	2.754833e+02
2.690000e-06	6.037039e-06	4.079844e-09	5.122861e+01	2.749270e+02
2.700000e-06	5.996792e-06	4.164356e-09	5.088708e+01	2.743683e+02
2.710000e-06	5.955697e-06	4.249660e-09	5.053836e+01	2.738051e+02
2.720000e-06	5.913427e-06	4.215282e-09	5.017968e+01	2.732352e+02
2.730000e-06	5.869998e-06	4.070395e-09	4.981115e+01	2.726561e+02
2.740000e-06	5.825821e-06	4.101805e-09	4.943628e+01	2.720651e+02
2.750000e-06	5.780823e-06	4.239981e-09	4.905443e+01	2.714593e+02
2.760000e-06	5.734727e-06	4.121578e-09	4.866328e+01	2.708360e+02
2.770000e-06	5.687586e-06	4.084610e-09	4.826325e+01	2.701927e+02
2.780000e-06	5.639554e-06	4.088054e-09	4.785567e+01	2.695271e+02
2.790000e-06	5.590363e-06	4.091903e-09	4.743824e+01	2.688371e+02
2.800000e-06	5.539891e-06	4.118456e-09	4.700996e+01	2.681213e+02
2.810000e-06	5.488501e-06	4.061967e-09	4.657387e+01	2.673786e+02
2.820000e-06	5.436233e-06	4.062279e-09	4.613034e+01	2.666082e+02
2.830000e-06	5.382780e-06	4.017436e-09	4.567676e+01	2.658101e+02
2.840000e-06	5.327959e-06	4.039066e-09	4.521156e+01	2.649845e+02
2.850000e-06	5.272096e-06	4.074639e-09	4.473752e+01	2.641322e+02
2.860000e-06	5.215426e-06	4.004207e-09	4.425663e+01	2.632542e+02
2.870000e-06	5.157838e-06	3.973304e-09	4.376796e+01	2.623520e+02
2.880000e-06	5.099464e-06	3.978434e-09	4.327261e+01	2.614268e+02
2.890000e-06	5.040384e-06	4.016073e-09	4.277128e+01	2.604803e+02
2.900000e-06	4.980544e-06	3.957732e-09	4.226349e+01	2.595138e+02
2.910000e-06	4.919905e-06	3.899858e-09	4.174893e+01	2.585283e+02
2.920000e-06	4.858305e-06	3.931309e-09	4.122621e+01	2.575247e+02
2.930000e-06	4.795607e-06	3.937252e-09	4.069417e+01	2.565031e+02
2.940000e-06	4.731913e-06	3.905205e-09	4.015368e+01	2.554634e+02
2.950000e-06	4.667460e-06	3.859877e-09	3.960675e+01	2.544044e+02
