# Temperatura_=_20.0
# Concentracion g/m^3_=_9000.0
# C_Vs_to_Am_M_A/Vsm_=_65563218390.804596
# pendiente_HvsI_1/m_=_3716.3
# ordenada_HvsI_A/m_=_1297.0
# frecuencia_Hz_=_212904.76042183573

Tiempo_(s)	Campo_(V.s)	Magnetizacion_(V.s)	Campo_(kA/m)	Magnetizacion_(A/m)
0.000000e+00	-6.730059e-06	-4.351703e-09	-5.697204e+01	-2.850569e+02
1.000000e-08	-6.729761e-06	-4.349463e-09	-5.696952e+01	-2.850883e+02
2.000000e-08	-6.728086e-06	-4.352225e-09	-5.695534e+01	-2.851172e+02
3.000000e-08	-6.725018e-06	-4.354743e-09	-5.692937e+01	-2.851418e+02
4.000000e-08	-6.720977e-06	-4.356759e-09	-5.689516e+01	-2.851602e+02
5.000000e-08	-6.715993e-06	-4.356668e-09	-5.685297e+01	-2.851696e+02
6.000000e-08	-6.709881e-06	-4.354687e-09	-5.680123e+01	-2.851674e+02
7.000000e-08	-6.702702e-06	-4.352688e-09	-5.674045e+01	-2.851506e+02
8.000000e-08	-6.694585e-06	-4.339956e-09	-5.667174e+01	-2.851166e+02
9.000000e-08	-6.685134e-06	-4.339688e-09	-5.659173e+01	-2.850632e+02
1.000000e-07	-6.673937e-06	-4.398485e-09	-5.649695e+01	-2.849886e+02
1.100000e-07	-6.661177e-06	-4.427050e-09	-5.638894e+01	-2.848915e+02
1.200000e-07	-6.646959e-06	-4.407069e-09	-5.626857e+01	-2.847716e+02
1.300000e-07	-6.631210e-06	-4.304882e-09	-5.613525e+01	-2.846290e+02
1.400000e-07	-6.614276e-06	-4.199853e-09	-5.599190e+01	-2.844642e+02
1.500000e-07	-6.596480e-06	-4.381295e-09	-5.584126e+01	-2.842785e+02
1.600000e-07	-6.577756e-06	-4.451215e-09	-5.568275e+01	-2.840731e+02
1.700000e-07	-6.558217e-06	-4.295287e-09	-5.551734e+01	-2.838495e+02
1.800000e-07	-6.537744e-06	-4.306049e-09	-5.534404e+01	-2.836091e+02
1.900000e-07	-6.516024e-06	-4.258703e-09	-5.516016e+01	-2.833528e+02
2.000000e-07	-6.493386e-06	-4.270409e-09	-5.496853e+01	-2.830815e+02
2.100000e-07	-6.469956e-06	-4.478731e-09	-5.477018e+01	-2.827952e+02
2.200000e-07	-6.445175e-06	-4.328957e-09	-5.456041e+01	-2.824936e+02
2.300000e-07	-6.418920e-06	-4.145116e-09	-5.433816e+01	-2.821758e+02
2.400000e-07	-6.391521e-06	-4.341100e-09	-5.410621e+01	-2.818403e+02
2.500000e-07	-6.363099e-06	-4.397903e-09	-5.386561e+01	-2.814856e+02
2.600000e-07	-6.333618e-06	-4.307208e-09	-5.361604e+01	-2.811096e+02
2.700000e-07	-6.303023e-06	-4.225517e-09	-5.335705e+01	-2.807104e+02
2.800000e-07	-6.271417e-06	-4.185527e-09	-5.308949e+01	-2.802864e+02
2.900000e-07	-6.238875e-06	-4.316246e-09	-5.281402e+01	-2.798360e+02
3.000000e-07	-6.205120e-06	-4.341716e-09	-5.252827e+01	-2.793586e+02
3.100000e-07	-6.169965e-06	-4.200936e-09	-5.223067e+01	-2.788538e+02
3.200000e-07	-6.133598e-06	-4.188310e-09	-5.192281e+01	-2.783221e+02
3.300000e-07	-6.096100e-06	-4.230425e-09	-5.160539e+01	-2.777648e+02
3.400000e-07	-6.057480e-06	-4.243219e-09	-5.127845e+01	-2.771836e+02
3.500000e-07	-6.017909e-06	-4.265645e-09	-5.094347e+01	-2.765810e+02
3.600000e-07	-5.977330e-06	-4.205752e-09	-5.059995e+01	-2.759597e+02
3.700000e-07	-5.935417e-06	-4.117683e-09	-5.024515e+01	-2.753226e+02
3.800000e-07	-5.892259e-06	-4.196588e-09	-4.987981e+01	-2.746725e+02
3.900000e-07	-5.848091e-06	-4.282477e-09	-4.950591e+01	-2.740122e+02
4.000000e-07	-5.802795e-06	-4.141947e-09	-4.912246e+01	-2.733435e+02
4.100000e-07	-5.756477e-06	-4.074139e-09	-4.873036e+01	-2.726680e+02
4.200000e-07	-5.709295e-06	-4.178097e-09	-4.833096e+01	-2.719864e+02
4.300000e-07	-5.661101e-06	-4.192237e-09	-4.792298e+01	-2.712982e+02
4.400000e-07	-5.611617e-06	-4.117210e-09	-4.750408e+01	-2.706025e+02
4.500000e-07	-5.560720e-06	-4.085805e-09	-4.707322e+01	-2.698974e+02
4.600000e-07	-5.508671e-06	-4.106375e-09	-4.663262e+01	-2.691802e+02
4.700000e-07	-5.455673e-06	-4.108285e-09	-4.618397e+01	-2.684480e+02
4.800000e-07	-5.401717e-06	-4.088419e-09	-4.572721e+01	-2.676974e+02
4.900000e-07	-5.346836e-06	-4.057826e-09	-4.526263e+01	-2.669250e+02
5.000000e-07	-5.291106e-06	-4.027580e-09	-4.479086e+01	-2.661277e+02
5.100000e-07	-5.234565e-06	-4.034945e-09	-4.431222e+01	-2.653028e+02
5.200000e-07	-5.177085e-06	-4.042731e-09	-4.382564e+01	-2.644482e+02
5.300000e-07	-5.118473e-06	-4.019596e-09	-4.332946e+01	-2.635626e+02
5.400000e-07	-5.058832e-06	-3.983335e-09	-4.282459e+01	-2.626453e+02
5.500000e-07	-4.998440e-06	-3.972934e-09	-4.231335e+01	-2.616965e+02
5.600000e-07	-4.937325e-06	-3.993300e-09	-4.179599e+01	-2.607173e+02
5.700000e-07	-4.875351e-06	-3.976229e-09	-4.127136e+01	-2.597090e+02
5.800000e-07	-4.812579e-06	-3.918627e-09	-4.073998e+01	-2.586735e+02
5.900000e-07	-4.749040e-06	-3.896860e-09	-4.020210e+01	-2.576127e+02
6.000000e-07	-4.684652e-06	-3.918443e-09	-3.965703e+01	-2.565285e+02
6.100000e-07	-4.619313e-06	-3.900567e-09	-3.910392e+01	-2.554224e+02
6.200000e-07	-4.552919e-06	-3.848604e-09	-3.854187e+01	-2.542951e+02
6.300000e-07	-4.485608e-06	-3.836243e-09	-3.797207e+01	-2.531469e+02
6.400000e-07	-4.417659e-06	-3.839390e-09	-3.739686e+01	-2.519770e+02
6.500000e-07	-4.349090e-06	-3.819470e-09	-3.681640e+01	-2.507838e+02
6.600000e-07	-4.279692e-06	-3.791183e-09	-3.622892e+01	-2.495646e+02
6.700000e-07	-4.209512e-06	-3.771116e-09	-3.563483e+01	-2.483163e+02
6.800000e-07	-4.138625e-06	-3.752046e-09	-3.503475e+01	-2.470351e+02
6.900000e-07	-4.066980e-06	-3.736335e-09	-3.442825e+01	-2.457166e+02
7.000000e-07	-3.994617e-06	-3.720273e-09	-3.381568e+01	-2.443568e+02
7.100000e-07	-3.921331e-06	-3.686189e-09	-3.319528e+01	-2.429514e+02
7.200000e-07	-3.847023e-06	-3.654063e-09	-3.256625e+01	-2.414969e+02
7.300000e-07	-3.771948e-06	-3.643457e-09	-3.193071e+01	-2.399901e+02
7.400000e-07	-3.696207e-06	-3.630807e-09	-3.128954e+01	-2.384289e+02
7.500000e-07	-3.619762e-06	-3.593471e-09	-3.064241e+01	-2.368119e+02
7.600000e-07	-3.542530e-06	-3.557314e-09	-2.998862e+01	-2.351386e+02
7.700000e-07	-3.464536e-06	-3.542376e-09	-2.932838e+01	-2.334092e+02
7.800000e-07	-3.385988e-06	-3.523785e-09	-2.866344e+01	-2.316247e+02
7.900000e-07	-3.306798e-06	-3.483053e-09	-2.799308e+01	-2.297862e+02
8.000000e-07	-3.226715e-06	-3.441946e-09	-2.731514e+01	-2.278951e+02
8.100000e-07	-3.145871e-06	-3.421119e-09	-2.663078e+01	-2.259523e+02
8.200000e-07	-3.064592e-06	-3.400479e-09	-2.594273e+01	-2.239583e+02
8.300000e-07	-2.982963e-06	-3.362601e-09	-2.525171e+01	-2.219129e+02
8.400000e-07	-2.900818e-06	-3.323995e-09	-2.455632e+01	-2.198144e+02
8.500000e-07	-2.818166e-06	-3.295344e-09	-2.385665e+01	-2.176604e+02
8.600000e-07	-2.735214e-06	-3.267046e-09	-2.315444e+01	-2.154469e+02
8.700000e-07	-2.652012e-06	-3.233390e-09	-2.245011e+01	-2.131687e+02
8.800000e-07	-2.568445e-06	-3.193236e-09	-2.174268e+01	-2.108198e+02
8.900000e-07	-2.484416e-06	-3.149910e-09	-2.103135e+01	-2.083931e+02
9.000000e-07	-2.400043e-06	-3.111463e-09	-2.031711e+01	-2.058810e+02
9.100000e-07	-2.315453e-06	-3.077288e-09	-1.960103e+01	-2.032760e+02
9.200000e-07	-2.230585e-06	-3.036471e-09	-1.888260e+01	-2.005706e+02
9.300000e-07	-2.145359e-06	-2.985329e-09	-1.816113e+01	-1.977576e+02
9.400000e-07	-2.059698e-06	-2.938462e-09	-1.743598e+01	-1.948310e+02
9.500000e-07	-1.973655e-06	-2.899624e-09	-1.670760e+01	-1.917855e+02
9.600000e-07	-1.887335e-06	-2.855524e-09	-1.597688e+01	-1.886168e+02
9.700000e-07	-1.800690e-06	-2.800230e-09	-1.524340e+01	-1.853214e+02
9.800000e-07	-1.713721e-06	-2.743618e-09	-1.450718e+01	-1.818965e+02
9.900000e-07	-1.626492e-06	-2.692117e-09	-1.376876e+01	-1.783394e+02
1.000000e-06	-1.539030e-06	-2.638331e-09	-1.302837e+01	-1.746473e+02
1.010000e-06	-1.451326e-06	-2.579045e-09	-1.228593e+01	-1.708160e+02
1.020000e-06	-1.363298e-06	-2.515902e-09	-1.154074e+01	-1.668400e+02
1.030000e-06	-1.274923e-06	-2.452839e-09	-1.079262e+01	-1.627112e+02
1.040000e-06	-1.186318e-06	-2.388424e-09	-1.004255e+01	-1.584186e+02
1.050000e-06	-1.097556e-06	-2.321178e-09	-9.291156e+00	-1.539478e+02
1.060000e-06	-1.008572e-06	-2.248390e-09	-8.537874e+00	-1.492803e+02
1.070000e-06	-9.193134e-07	-2.170815e-09	-7.782274e+00	-1.443939e+02
1.080000e-06	-8.298561e-07	-2.091884e-09	-7.024990e+00	-1.392627e+02
1.090000e-06	-7.401938e-07	-2.010513e-09	-6.265970e+00	-1.338573e+02
1.100000e-06	-6.503829e-07	-1.923072e-09	-5.505694e+00	-1.281460e+02
1.110000e-06	-5.604775e-07	-1.827113e-09	-4.744616e+00	-1.220953e+02
1.120000e-06	-4.704217e-07	-1.728850e-09	-3.982266e+00	-1.156721e+02
1.130000e-06	-3.802677e-07	-1.629630e-09	-3.219085e+00	-1.088442e+02
1.140000e-06	-2.900026e-07	-1.522316e-09	-2.454963e+00	-1.015827e+02
1.150000e-06	-1.996030e-07	-1.401546e-09	-1.689701e+00	-9.386367e+01
1.160000e-06	-1.091973e-07	-1.275869e-09	-9.243892e-01	-8.566945e+01
1.170000e-06	-1.883455e-08	-1.146746e-09	-1.594403e-01	-7.699064e+01
1.180000e-06	7.154995e-08	-1.006602e-09	6.056926e-01	-6.782732e+01
1.190000e-06	1.618898e-07	-8.567779e-10	1.370447e+00	-5.819011e+01
1.200000e-06	2.521240e-07	-7.001929e-10	2.134308e+00	-4.810086e+01
1.210000e-06	3.423389e-07	-5.380004e-10	2.898005e+00	-3.759290e+01
1.220000e-06	4.324361e-07	-3.724267e-10	3.660706e+00	-2.671082e+01
1.230000e-06	5.223384e-07	-2.046971e-10	4.421757e+00	-1.550975e+01
1.240000e-06	6.121675e-07	-3.180360e-11	5.182188e+00	-4.054235e+00
1.250000e-06	7.018295e-07	1.462156e-10	5.941205e+00	7.583408e+00
1.260000e-06	7.912252e-07	3.243586e-10	6.697967e+00	1.932499e+01
1.270000e-06	8.804147e-07	5.021354e-10	7.452984e+00	3.108871e+01
1.280000e-06	9.694177e-07	6.805749e-10	8.206422e+00	4.279151e+01
1.290000e-06	1.058258e-06	8.589320e-10	8.958486e+00	5.435157e+01
1.300000e-06	1.146907e-06	1.031929e-09	9.708922e+00	6.569068e+01
1.310000e-06	1.235277e-06	1.198321e-09	1.045700e+01	7.673652e+01
1.320000e-06	1.323399e-06	1.361862e-09	1.120298e+01	8.742461e+01
1.330000e-06	1.411332e-06	1.520101e-09	1.194737e+01	9.769996e+01
1.340000e-06	1.499019e-06	1.668384e-09	1.268966e+01	1.075182e+02
1.350000e-06	1.586359e-06	1.808036e-09	1.342902e+01	1.168466e+02
1.360000e-06	1.673455e-06	1.942513e-09	1.416632e+01	1.256638e+02
1.370000e-06	1.760391e-06	2.066833e-09	1.490225e+01	1.339601e+02
1.380000e-06	1.847115e-06	2.180919e-09	1.563640e+01	1.417367e+02
1.390000e-06	1.933620e-06	2.288447e-09	1.636869e+01	1.490043e+02
1.400000e-06	2.019845e-06	2.387510e-09	1.709862e+01	1.557821e+02
1.410000e-06	2.105743e-06	2.477502e-09	1.782577e+01	1.620961e+02
1.420000e-06	2.191260e-06	2.562795e-09	1.854970e+01	1.679772e+02
1.430000e-06	2.276404e-06	2.645620e-09	1.927047e+01	1.734596e+02
1.440000e-06	2.361176e-06	2.723108e-09	1.998808e+01	1.785790e+02
1.450000e-06	2.445587e-06	2.794770e-09	2.070265e+01	1.833710e+02
1.460000e-06	2.529683e-06	2.864676e-09	2.141455e+01	1.878698e+02
1.470000e-06	2.613453e-06	2.931461e-09	2.212369e+01	1.921068e+02
1.480000e-06	2.696844e-06	2.992529e-09	2.282963e+01	1.961102e+02
1.490000e-06	2.779802e-06	3.049818e-09	2.353189e+01	1.999044e+02
1.500000e-06	2.862277e-06	3.105717e-09	2.423006e+01	2.035094e+02
1.510000e-06	2.944156e-06	3.158245e-09	2.492319e+01	2.069416e+02
1.520000e-06	3.025481e-06	3.206958e-09	2.561164e+01	2.102135e+02
1.530000e-06	3.106336e-06	3.251085e-09	2.629610e+01	2.133347e+02
1.540000e-06	3.186659e-06	3.290852e-09	2.697606e+01	2.163121e+02
1.550000e-06	3.266278e-06	3.330966e-09	2.765006e+01	2.191513e+02
1.560000e-06	3.345235e-06	3.368301e-09	2.831845e+01	2.218564e+02
1.570000e-06	3.423606e-06	3.402627e-09	2.898189e+01	2.244315e+02
1.580000e-06	3.501275e-06	3.436148e-09	2.963938e+01	2.268808e+02
1.590000e-06	3.578198e-06	3.470715e-09	3.029056e+01	2.292093e+02
1.600000e-06	3.654497e-06	3.506269e-09	3.093645e+01	2.314227e+02
1.610000e-06	3.730213e-06	3.536699e-09	3.157741e+01	2.335279e+02
1.620000e-06	3.805128e-06	3.562991e-09	3.221159e+01	2.355327e+02
1.630000e-06	3.879056e-06	3.586028e-09	3.283742e+01	2.374456e+02
1.640000e-06	3.952048e-06	3.608872e-09	3.345531e+01	2.392757e+02
1.650000e-06	4.024279e-06	3.632751e-09	3.406677e+01	2.410319e+02
1.660000e-06	4.095823e-06	3.656480e-09	3.467242e+01	2.427230e+02
1.670000e-06	4.166682e-06	3.681703e-09	3.527226e+01	2.443569e+02
1.680000e-06	4.236811e-06	3.705129e-09	3.586593e+01	2.459405e+02
1.690000e-06	4.306178e-06	3.730521e-09	3.645314e+01	2.474792e+02
1.700000e-06	4.374862e-06	3.755995e-09	3.703457e+01	2.489769e+02
1.710000e-06	4.442970e-06	3.777403e-09	3.761112e+01	2.504359e+02
1.720000e-06	4.510437e-06	3.797052e-09	3.818225e+01	2.518569e+02
1.730000e-06	4.577008e-06	3.816290e-09	3.874579e+01	2.532393e+02
1.740000e-06	4.642528e-06	3.833826e-09	3.930044e+01	2.545814e+02
1.750000e-06	4.707121e-06	3.849248e-09	3.984724e+01	2.558810e+02
1.760000e-06	4.770930e-06	3.866649e-09	4.038741e+01	2.571352e+02
1.770000e-06	4.834010e-06	3.885637e-09	4.092139e+01	2.583415e+02
1.780000e-06	4.896398e-06	3.904022e-09	4.144953e+01	2.594977e+02
1.790000e-06	4.958040e-06	3.920513e-09	4.197135e+01	2.606026e+02
1.800000e-06	5.018830e-06	3.936056e-09	4.248595e+01	2.616558e+02
1.810000e-06	5.078857e-06	3.951096e-09	4.299410e+01	2.626582e+02
1.820000e-06	5.138176e-06	3.965423e-09	4.349626e+01	2.636120e+02
1.830000e-06	5.196470e-06	3.979480e-09	4.398973e+01	2.645205e+02
1.840000e-06	5.253590e-06	3.992824e-09	4.447327e+01	2.653879e+02
1.850000e-06	5.309731e-06	4.005753e-09	4.494853e+01	2.662192e+02
1.860000e-06	5.364974e-06	4.018831e-09	4.541617e+01	2.670199e+02
1.870000e-06	5.419328e-06	4.032814e-09	4.587629e+01	2.677954e+02
1.880000e-06	5.472781e-06	4.046338e-09	4.632879e+01	2.685508e+02
1.890000e-06	5.525216e-06	4.058934e-09	4.677267e+01	2.692908e+02
1.900000e-06	5.576452e-06	4.071607e-09	4.720640e+01	2.700190e+02
1.910000e-06	5.626317e-06	4.084806e-09	4.762852e+01	2.707379e+02
1.920000e-06	5.674943e-06	4.096323e-09	4.804016e+01	2.714488e+02
1.930000e-06	5.722548e-06	4.105305e-09	4.844315e+01	2.721518e+02
1.940000e-06	5.769136e-06	4.114990e-09	4.883753e+01	2.728455e+02
1.950000e-06	5.814667e-06	4.126010e-09	4.922296e+01	2.735281e+02
1.960000e-06	5.859219e-06	4.135986e-09	4.960011e+01	2.741964e+02
1.970000e-06	5.902938e-06	4.145289e-09	4.997021e+01	2.748472e+02
1.980000e-06	5.945679e-06	4.157623e-09	5.033202e+01	2.754768e+02
1.990000e-06	5.987069e-06	4.171248e-09	5.068240e+01	2.760819e+02
2.000000e-06	6.027218e-06	4.181611e-09	5.102227e+01	2.766595e+02
2.010000e-06	6.066415e-06	4.188837e-09	5.135409e+01	2.772076e+02
2.020000e-06	6.104626e-06	4.196497e-09	5.167756e+01	2.777249e+02
2.030000e-06	6.141783e-06	4.205148e-09	5.199210e+01	2.782111e+02
2.040000e-06	6.178021e-06	4.213894e-09	5.229886e+01	2.786671e+02
2.050000e-06	6.213383e-06	4.221822e-09	5.259821e+01	2.790946e+02
2.060000e-06	6.247449e-06	4.228549e-09	5.288660e+01	2.794963e+02
2.070000e-06	6.280133e-06	4.234361e-09	5.316328e+01	2.798754e+02
2.080000e-06	6.311756e-06	4.240388e-09	5.343098e+01	2.802356e+02
2.090000e-06	6.342360e-06	4.248939e-09	5.369005e+01	2.805805e+02
2.100000e-06	6.371935e-06	4.256679e-09	5.394041e+01	2.809136e+02
2.110000e-06	6.400535e-06	4.261784e-09	5.418252e+01	2.812379e+02
2.120000e-06	6.428249e-06	4.265461e-09	5.441712e+01	2.815557e+02
2.130000e-06	6.454864e-06	4.270014e-09	5.464243e+01	2.818685e+02
2.140000e-06	6.480028e-06	4.274791e-09	5.485545e+01	2.821768e+02
2.150000e-06	6.503900e-06	4.278898e-09	5.505754e+01	2.824803e+02
2.160000e-06	6.526682e-06	4.283296e-09	5.525040e+01	2.827777e+02
2.170000e-06	6.548397e-06	4.288249e-09	5.543421e+01	2.830671e+02
2.180000e-06	6.569083e-06	4.293829e-09	5.560933e+01	2.833459e+02
2.190000e-06	6.588857e-06	4.299246e-09	5.577672e+01	2.836114e+02
2.200000e-06	6.607620e-06	4.304090e-09	5.593556e+01	2.838608e+02
2.210000e-06	6.625181e-06	4.307606e-09	5.608422e+01	2.840915e+02
2.220000e-06	6.641537e-06	4.310656e-09	5.622268e+01	2.843015e+02
2.230000e-06	6.656641e-06	4.311905e-09	5.635054e+01	2.844893e+02
2.240000e-06	6.670405e-06	4.312735e-09	5.646705e+01	2.846542e+02
2.250000e-06	6.682881e-06	4.314393e-09	5.657267e+01	2.847965e+02
2.260000e-06	6.694118e-06	4.316821e-09	5.666779e+01	2.849171e+02
2.270000e-06	6.703849e-06	4.321247e-09	5.675017e+01	2.850178e+02
2.280000e-06	6.712151e-06	4.326191e-09	5.682044e+01	2.851009e+02
2.290000e-06	6.719353e-06	4.329439e-09	5.688141e+01	2.851693e+02
2.300000e-06	6.725404e-06	4.330968e-09	5.693264e+01	2.852259e+02
2.310000e-06	6.730294e-06	4.334849e-09	5.697403e+01	2.852737e+02
2.320000e-06	6.734161e-06	4.337531e-09	5.700677e+01	2.853153e+02
2.330000e-06	6.736892e-06	4.336449e-09	5.702989e+01	2.853528e+02
2.340000e-06	6.738214e-06	4.337451e-09	5.704107e+01	2.853877e+02
2.350000e-06	6.738264e-06	4.340476e-09	5.704150e+01	2.854209e+02
2.360000e-06	6.737234e-06	4.341162e-09	5.703278e+01	2.854521e+02
2.370000e-06	6.735081e-06	4.338568e-09	5.701456e+01	2.854804e+02
2.380000e-06	6.731867e-06	4.339262e-09	5.698735e+01	2.855043e+02
2.390000e-06	6.727726e-06	4.340680e-09	5.695229e+01	2.855216e+02
2.400000e-06	6.722506e-06	4.340991e-09	5.690810e+01	2.855295e+02
2.410000e-06	6.715897e-06	4.341950e-09	5.685216e+01	2.855253e+02
2.420000e-06	6.708062e-06	4.349200e-09	5.678583e+01	2.855061e+02
2.430000e-06	6.699284e-06	4.368940e-09	5.671152e+01	2.854694e+02
2.440000e-06	6.689502e-06	4.295747e-09	5.662871e+01	2.854129e+02
2.450000e-06	6.678221e-06	4.237695e-09	5.653322e+01	2.853350e+02
2.460000e-06	6.664860e-06	4.240643e-09	5.642011e+01	2.852346e+02
2.470000e-06	6.649657e-06	4.344643e-09	5.629141e+01	2.851114e+02
2.480000e-06	6.633585e-06	4.501302e-09	5.615536e+01	2.849654e+02
2.490000e-06	6.617188e-06	4.314220e-09	5.601656e+01	2.847974e+02
2.500000e-06	6.599848e-06	4.200385e-09	5.586976e+01	2.846087e+02
2.510000e-06	6.581017e-06	4.378358e-09	5.571036e+01	2.844005e+02
2.520000e-06	6.561364e-06	4.312742e-09	5.554398e+01	2.841744e+02
2.530000e-06	6.541013e-06	4.372479e-09	5.537171e+01	2.839315e+02
2.540000e-06	6.519045e-06	4.457430e-09	5.518574e+01	2.836731e+02
2.550000e-06	6.495564e-06	4.175001e-09	5.498697e+01	2.833995e+02
2.560000e-06	6.471295e-06	4.272253e-09	5.478152e+01	2.831110e+02
2.570000e-06	6.446097e-06	4.499042e-09	5.456822e+01	2.828071e+02
2.580000e-06	6.419721e-06	4.252577e-09	5.434494e+01	2.824868e+02
2.590000e-06	6.392201e-06	4.215715e-09	5.411197e+01	2.821486e+02
2.600000e-06	6.363781e-06	4.372866e-09	5.387138e+01	2.817908e+02
2.610000e-06	6.334344e-06	4.345749e-09	5.362219e+01	2.814115e+02
2.620000e-06	6.303354e-06	4.387648e-09	5.335985e+01	2.810087e+02
2.630000e-06	6.271029e-06	4.253291e-09	5.308621e+01	2.805809e+02
2.640000e-06	6.237743e-06	4.221233e-09	5.280443e+01	2.801266e+02
2.650000e-06	6.203269e-06	4.368466e-09	5.251260e+01	2.796450e+02
2.660000e-06	6.167651e-06	4.268113e-09	5.221108e+01	2.791362e+02
2.670000e-06	6.131128e-06	4.310602e-09	5.190190e+01	2.786006e+02
2.680000e-06	6.093374e-06	4.284193e-09	5.158230e+01	2.780396e+02
2.690000e-06	6.054144e-06	4.151938e-09	5.125021e+01	2.774551e+02
2.700000e-06	6.013851e-06	4.280903e-09	5.090912e+01	2.768496e+02
2.710000e-06	5.972712e-06	4.320460e-09	5.056087e+01	2.762257e+02
2.720000e-06	5.930412e-06	4.222906e-09	5.020278e+01	2.755866e+02
2.730000e-06	5.887010e-06	4.121565e-09	4.983537e+01	2.749349e+02
2.740000e-06	5.842821e-06	4.212932e-09	4.946130e+01	2.742732e+02
2.750000e-06	5.797735e-06	4.313083e-09	4.907963e+01	2.736035e+02
2.760000e-06	5.751513e-06	4.146369e-09	4.868835e+01	2.729271e+02
2.770000e-06	5.704180e-06	4.126319e-09	4.828766e+01	2.722445e+02
2.780000e-06	5.655963e-06	4.184156e-09	4.787949e+01	2.715554e+02
2.790000e-06	5.606659e-06	4.182472e-09	4.746211e+01	2.708585e+02
2.800000e-06	5.556105e-06	4.160719e-09	4.703416e+01	2.701517e+02
2.810000e-06	5.504609e-06	4.110030e-09	4.659822e+01	2.694326e+02
2.820000e-06	5.452257e-06	4.146019e-09	4.615505e+01	2.686978e+02
2.830000e-06	5.398743e-06	4.107939e-09	4.570204e+01	2.679442e+02
2.840000e-06	5.343868e-06	4.094847e-09	4.523750e+01	2.671683e+02
2.850000e-06	5.287945e-06	4.117226e-09	4.476410e+01	2.663671e+02
2.860000e-06	5.231198e-06	4.066887e-09	4.428372e+01	2.655379e+02
2.870000e-06	5.173542e-06	4.050719e-09	4.379564e+01	2.646787e+02
2.880000e-06	5.115072e-06	4.051220e-09	4.330067e+01	2.637884e+02
2.890000e-06	5.055888e-06	4.065551e-09	4.279966e+01	2.628664e+02
2.900000e-06	4.995943e-06	4.012176e-09	4.229221e+01	2.619130e+02
2.910000e-06	4.935191e-06	3.983140e-09	4.177793e+01	2.609294e+02
2.920000e-06	4.873573e-06	4.019099e-09	4.125631e+01	2.599169e+02
2.930000e-06	4.810905e-06	3.991717e-09	4.072581e+01	2.588775e+02
2.940000e-06	4.747081e-06	3.945175e-09	4.018552e+01	2.578132e+02
2.950000e-06	4.682455e-06	3.932582e-09	3.963844e+01	2.567257e+02
