# Temperatura_=_20.0
# Concentracion g/m^3_=_9000.0
# C_Vs_to_Am_M_A/Vsm_=_65563218390.804596
# pendiente_HvsI_1/m_=_3716.3
# ordenada_HvsI_A/m_=_1297.0
# frecuencia_Hz_=_212902.98115943765

Tiempo_(s)	Campo_(V.s)	Magnetizacion_(V.s)	Campo_(kA/m)	Magnetizacion_(A/m)
0.000000e+00	-6.771400e-06	-4.344357e-09	-5.697388e+01	-2.847830e+02
1.000000e-08	-6.771180e-06	-4.340868e-09	-5.697204e+01	-2.847599e+02
2.000000e-08	-6.769675e-06	-4.342720e-09	-5.695937e+01	-2.847300e+02
3.000000e-08	-6.766790e-06	-4.342768e-09	-5.693510e+01	-2.846941e+02
4.000000e-08	-6.762817e-06	-4.341977e-09	-5.690167e+01	-2.846532e+02
5.000000e-08	-6.757821e-06	-4.340282e-09	-5.685963e+01	-2.846075e+02
6.000000e-08	-6.751686e-06	-4.338307e-09	-5.680802e+01	-2.845573e+02
7.000000e-08	-6.744507e-06	-4.336546e-09	-5.674761e+01	-2.845023e+02
8.000000e-08	-6.736346e-06	-4.327373e-09	-5.667894e+01	-2.844420e+02
9.000000e-08	-6.726877e-06	-4.329762e-09	-5.659927e+01	-2.843757e+02
1.000000e-07	-6.715746e-06	-4.372984e-09	-5.650562e+01	-2.843023e+02
1.100000e-07	-6.702995e-06	-4.401378e-09	-5.639833e+01	-2.842205e+02
1.200000e-07	-6.688707e-06	-4.384818e-09	-5.627812e+01	-2.841288e+02
1.300000e-07	-6.672854e-06	-4.304385e-09	-5.614473e+01	-2.840256e+02
1.400000e-07	-6.655829e-06	-4.209524e-09	-5.600148e+01	-2.839091e+02
1.500000e-07	-6.638002e-06	-4.308081e-09	-5.585149e+01	-2.837772e+02
1.600000e-07	-6.619273e-06	-4.399181e-09	-5.569390e+01	-2.836280e+02
1.700000e-07	-6.599687e-06	-4.314576e-09	-5.552911e+01	-2.834592e+02
1.800000e-07	-6.579171e-06	-4.284670e-09	-5.535650e+01	-2.832687e+02
1.900000e-07	-6.557465e-06	-4.249458e-09	-5.517386e+01	-2.830544e+02
2.000000e-07	-6.534800e-06	-4.241535e-09	-5.498316e+01	-2.828143e+02
2.100000e-07	-6.511269e-06	-4.390561e-09	-5.478517e+01	-2.825466e+02
2.200000e-07	-6.486404e-06	-4.353184e-09	-5.457596e+01	-2.822496e+02
2.300000e-07	-6.460040e-06	-4.191725e-09	-5.435413e+01	-2.819222e+02
2.400000e-07	-6.432535e-06	-4.262720e-09	-5.412271e+01	-2.815637e+02
2.500000e-07	-6.404071e-06	-4.348683e-09	-5.388321e+01	-2.811738e+02
2.600000e-07	-6.374508e-06	-4.339258e-09	-5.363447e+01	-2.807527e+02
2.700000e-07	-6.343803e-06	-4.270663e-09	-5.337613e+01	-2.803015e+02
2.800000e-07	-6.312141e-06	-4.186907e-09	-5.310972e+01	-2.798217e+02
2.900000e-07	-6.279435e-06	-4.258059e-09	-5.283454e+01	-2.793153e+02
3.000000e-07	-6.245398e-06	-4.335867e-09	-5.254816e+01	-2.787848e+02
3.100000e-07	-6.210086e-06	-4.264030e-09	-5.225105e+01	-2.782333e+02
3.200000e-07	-6.173609e-06	-4.195921e-09	-5.194413e+01	-2.776640e+02
3.300000e-07	-6.135986e-06	-4.191843e-09	-5.162758e+01	-2.770801e+02
3.400000e-07	-6.097280e-06	-4.211951e-09	-5.130191e+01	-2.764848e+02
3.500000e-07	-6.057625e-06	-4.254079e-09	-5.096826e+01	-2.758810e+02
3.600000e-07	-6.016868e-06	-4.228940e-09	-5.062533e+01	-2.752713e+02
3.700000e-07	-5.974735e-06	-4.122268e-09	-5.027082e+01	-2.746573e+02
3.800000e-07	-5.931458e-06	-4.132653e-09	-4.990670e+01	-2.740403e+02
3.900000e-07	-5.887177e-06	-4.247308e-09	-4.953412e+01	-2.734203e+02
4.000000e-07	-5.841740e-06	-4.206417e-09	-4.915182e+01	-2.727968e+02
4.100000e-07	-5.795229e-06	-4.099385e-09	-4.876048e+01	-2.721682e+02
4.200000e-07	-5.747798e-06	-4.124344e-09	-4.836140e+01	-2.715322e+02
4.300000e-07	-5.699344e-06	-4.172921e-09	-4.795371e+01	-2.708859e+02
4.400000e-07	-5.649459e-06	-4.146853e-09	-4.753399e+01	-2.702257e+02
4.500000e-07	-5.598160e-06	-4.102922e-09	-4.710236e+01	-2.695479e+02
4.600000e-07	-5.545816e-06	-4.089173e-09	-4.666194e+01	-2.688487e+02
4.700000e-07	-5.492555e-06	-4.084928e-09	-4.621381e+01	-2.681244e+02
4.800000e-07	-5.438289e-06	-4.090442e-09	-4.575722e+01	-2.673718e+02
4.900000e-07	-5.383108e-06	-4.084421e-09	-4.529293e+01	-2.665882e+02
5.000000e-07	-5.327217e-06	-4.037601e-09	-4.482268e+01	-2.657718e+02
5.100000e-07	-5.270399e-06	-4.013224e-09	-4.434461e+01	-2.649216e+02
5.200000e-07	-5.212428e-06	-4.033334e-09	-4.385685e+01	-2.640373e+02
5.300000e-07	-5.153441e-06	-4.036599e-09	-4.336054e+01	-2.631198e+02
5.400000e-07	-5.093585e-06	-3.992172e-09	-4.285692e+01	-2.621705e+02
5.500000e-07	-5.032863e-06	-3.955983e-09	-4.234601e+01	-2.611915e+02
5.600000e-07	-4.971402e-06	-3.971906e-09	-4.182888e+01	-2.601853e+02
5.700000e-07	-4.909214e-06	-3.980937e-09	-4.130563e+01	-2.591544e+02
5.800000e-07	-4.846192e-06	-3.941249e-09	-4.077537e+01	-2.581014e+02
5.900000e-07	-4.782353e-06	-3.900275e-09	-4.023825e+01	-2.570284e+02
6.000000e-07	-4.717632e-06	-3.903145e-09	-3.969369e+01	-2.559370e+02
6.100000e-07	-4.651857e-06	-3.907969e-09	-3.914026e+01	-2.548278e+02
6.200000e-07	-4.585102e-06	-3.872599e-09	-3.857859e+01	-2.537007e+02
6.300000e-07	-4.517608e-06	-3.833688e-09	-3.801071e+01	-2.525546e+02
6.400000e-07	-4.449401e-06	-3.821432e-09	-3.743682e+01	-2.513873e+02
6.500000e-07	-4.380447e-06	-3.818351e-09	-3.685665e+01	-2.501958e+02
6.600000e-07	-4.310664e-06	-3.800015e-09	-3.626949e+01	-2.489765e+02
6.700000e-07	-4.240018e-06	-3.769752e-09	-3.567509e+01	-2.477249e+02
6.800000e-07	-4.168729e-06	-3.742647e-09	-3.507527e+01	-2.464368e+02
6.900000e-07	-4.096869e-06	-3.729178e-09	-3.447065e+01	-2.451077e+02
7.000000e-07	-4.024173e-06	-3.723720e-09	-3.385900e+01	-2.437334e+02
7.100000e-07	-3.950422e-06	-3.696560e-09	-3.323846e+01	-2.423106e+02
7.200000e-07	-3.875715e-06	-3.652074e-09	-3.260988e+01	-2.408362e+02
7.300000e-07	-3.800303e-06	-3.630445e-09	-3.197537e+01	-2.393087e+02
7.400000e-07	-3.724220e-06	-3.629515e-09	-3.133521e+01	-2.377269e+02
7.500000e-07	-3.647355e-06	-3.605610e-09	-3.068848e+01	-2.360911e+02
7.600000e-07	-3.569709e-06	-3.557307e-09	-3.003518e+01	-2.344020e+02
7.700000e-07	-3.491312e-06	-3.526905e-09	-2.937555e+01	-2.326612e+02
7.800000e-07	-3.412169e-06	-3.516118e-09	-2.870965e+01	-2.308706e+02
7.900000e-07	-3.332292e-06	-3.490907e-09	-2.803757e+01	-2.290319e+02
8.000000e-07	-3.251736e-06	-3.448262e-09	-2.735979e+01	-2.271470e+02
8.100000e-07	-3.170587e-06	-3.412002e-09	-2.667700e+01	-2.252166e+02
8.200000e-07	-3.088979e-06	-3.389751e-09	-2.599036e+01	-2.232409e+02
8.300000e-07	-3.006907e-06	-3.367516e-09	-2.529981e+01	-2.212187e+02
8.400000e-07	-2.924344e-06	-3.332496e-09	-2.460514e+01	-2.191476e+02
8.500000e-07	-2.841389e-06	-3.288483e-09	-2.390716e+01	-2.170238e+02
8.600000e-07	-2.758119e-06	-3.253095e-09	-2.320654e+01	-2.148419e+02
8.700000e-07	-2.674546e-06	-3.229764e-09	-2.250336e+01	-2.125956e+02
8.800000e-07	-2.590599e-06	-3.198818e-09	-2.179704e+01	-2.102775e+02
8.900000e-07	-2.506217e-06	-3.152796e-09	-2.108706e+01	-2.078794e+02
9.000000e-07	-2.421416e-06	-3.107802e-09	-2.037355e+01	-2.053929e+02
9.100000e-07	-2.336281e-06	-3.075622e-09	-1.965724e+01	-2.028099e+02
9.200000e-07	-2.250813e-06	-3.043164e-09	-1.893812e+01	-2.001225e+02
9.300000e-07	-2.165041e-06	-2.994047e-09	-1.821644e+01	-1.973238e+02
9.400000e-07	-2.078961e-06	-2.937393e-09	-1.749217e+01	-1.944077e+02
9.500000e-07	-1.992532e-06	-2.891365e-09	-1.676497e+01	-1.913696e+02
9.600000e-07	-1.905792e-06	-2.853177e-09	-1.603514e+01	-1.882059e+02
9.700000e-07	-1.818797e-06	-2.803980e-09	-1.530318e+01	-1.849138e+02
9.800000e-07	-1.731554e-06	-2.742097e-09	-1.456912e+01	-1.814913e+02
9.900000e-07	-1.644021e-06	-2.683146e-09	-1.383263e+01	-1.779366e+02
1.000000e-06	-1.556165e-06	-2.632338e-09	-1.309342e+01	-1.742473e+02
1.010000e-06	-1.467977e-06	-2.579789e-09	-1.235141e+01	-1.704201e+02
1.020000e-06	-1.379442e-06	-2.516929e-09	-1.160649e+01	-1.664496e+02
1.030000e-06	-1.290578e-06	-2.448485e-09	-1.085880e+01	-1.623281e+02
1.040000e-06	-1.201341e-06	-2.382105e-09	-1.010796e+01	-1.580446e+02
1.050000e-06	-1.111762e-06	-2.318870e-09	-9.354255e+00	-1.535844e+02
1.060000e-06	-1.021994e-06	-2.248773e-09	-8.598959e+00	-1.489291e+02
1.070000e-06	-9.320277e-07	-2.167897e-09	-7.841989e+00	-1.440561e+02
1.080000e-06	-8.418002e-07	-2.084857e-09	-7.082823e+00	-1.389391e+02
1.090000e-06	-7.513921e-07	-2.005525e-09	-6.322138e+00	-1.335484e+02
1.100000e-06	-6.608765e-07	-1.923738e-09	-5.560549e+00	-1.278519e+02
1.110000e-06	-5.702410e-07	-1.829989e-09	-4.797951e+00	-1.218163e+02
1.120000e-06	-4.794949e-07	-1.728178e-09	-4.034423e+00	-1.154079e+02
1.130000e-06	-3.886565e-07	-1.627030e-09	-3.270118e+00	-1.085947e+02
1.140000e-06	-2.977806e-07	-1.522282e-09	-2.505496e+00	-1.013477e+02
1.150000e-06	-2.068437e-07	-1.403213e-09	-1.740363e+00	-9.364303e+01
1.160000e-06	-1.158213e-07	-1.274455e-09	-9.745087e-01	-8.546295e+01
1.170000e-06	-2.482356e-08	-1.142735e-09	-2.088630e-01	-7.679802e+01
1.180000e-06	6.615164e-08	-1.004863e-09	5.565933e-01	-6.764808e+01
1.190000e-06	1.571345e-07	-8.581139e-10	1.322114e+00	-5.802340e+01
1.200000e-06	2.480536e-07	-7.018109e-10	2.087098e+00	-4.794531e+01
1.210000e-06	3.388854e-07	-5.393217e-10	2.851348e+00	-3.744640e+01
1.220000e-06	4.296572e-07	-3.747780e-10	3.615093e+00	-2.657034e+01
1.230000e-06	5.203414e-07	-2.071527e-10	4.378101e+00	-1.537123e+01
1.240000e-06	6.108545e-07	-3.436067e-11	5.139669e+00	-3.912435e+00
1.250000e-06	7.012058e-07	1.433289e-10	5.899876e+00	7.734924e+00
1.260000e-06	7.913925e-07	3.218274e-10	6.658698e+00	1.949381e+01
1.270000e-06	8.814198e-07	4.992696e-10	7.416179e+00	3.128343e+01
1.280000e-06	9.713127e-07	6.781119e-10	8.172529e+00	4.302152e+01
1.290000e-06	1.060988e-06	8.579724e-10	8.927052e+00	5.462673e+01
1.300000e-06	1.150381e-06	1.032239e-09	9.679191e+00	6.602092e+01
1.310000e-06	1.239447e-06	1.199750e-09	1.042858e+01	7.713142e+01
1.320000e-06	1.328251e-06	1.365164e-09	1.117577e+01	8.789291e+01
1.330000e-06	1.416777e-06	1.525744e-09	1.192062e+01	9.824910e+01
1.340000e-06	1.504943e-06	1.675292e-09	1.266244e+01	1.081539e+02
1.350000e-06	1.592767e-06	1.816862e-09	1.340138e+01	1.175725e+02
1.360000e-06	1.680306e-06	1.953232e-09	1.413792e+01	1.264811e+02
1.370000e-06	1.767622e-06	2.080461e-09	1.487260e+01	1.348675e+02
1.380000e-06	1.854717e-06	2.196170e-09	1.560540e+01	1.427303e+02
1.390000e-06	1.941607e-06	2.302093e-09	1.633649e+01	1.500778e+02
1.400000e-06	2.028294e-06	2.401280e-09	1.706586e+01	1.569270e+02
1.410000e-06	2.114701e-06	2.493893e-09	1.779288e+01	1.633020e+02
1.420000e-06	2.200797e-06	2.581938e-09	1.851728e+01	1.692323e+02
1.430000e-06	2.286567e-06	2.666019e-09	1.923895e+01	1.747514e+02
1.440000e-06	2.371918e-06	2.744552e-09	1.995708e+01	1.798948e+02
1.450000e-06	2.456835e-06	2.817211e-09	2.067156e+01	1.846985e+02
1.460000e-06	2.541388e-06	2.889042e-09	2.138299e+01	1.891975e+02
1.470000e-06	2.625535e-06	2.958451e-09	2.209099e+01	1.934248e+02
1.480000e-06	2.709226e-06	3.018725e-09	2.279516e+01	1.974105e+02
1.490000e-06	2.792523e-06	3.072922e-09	2.349601e+01	2.011809e+02
1.500000e-06	2.875446e-06	3.126386e-09	2.419372e+01	2.047585e+02
1.510000e-06	2.957942e-06	3.178633e-09	2.488783e+01	2.081616e+02
1.520000e-06	3.039909e-06	3.226610e-09	2.557749e+01	2.114048e+02
1.530000e-06	3.121292e-06	3.270642e-09	2.626224e+01	2.144993e+02
1.540000e-06	3.202074e-06	3.312813e-09	2.694193e+01	2.174533e+02
1.550000e-06	3.282210e-06	3.354887e-09	2.761619e+01	2.202729e+02
1.560000e-06	3.361669e-06	3.393743e-09	2.828475e+01	2.229625e+02
1.570000e-06	3.440476e-06	3.429806e-09	2.894782e+01	2.255259e+02
1.580000e-06	3.518646e-06	3.463671e-09	2.960554e+01	2.279664e+02
1.590000e-06	3.596126e-06	3.497322e-09	3.025745e+01	2.302876e+02
1.600000e-06	3.672889e-06	3.530585e-09	3.090332e+01	2.324938e+02
1.610000e-06	3.749002e-06	3.559808e-09	3.154373e+01	2.345900e+02
1.620000e-06	3.824454e-06	3.587485e-09	3.217858e+01	2.365825e+02
1.630000e-06	3.899088e-06	3.612467e-09	3.280654e+01	2.384781e+02
1.640000e-06	3.972793e-06	3.636677e-09	3.342669e+01	2.402846e+02
1.650000e-06	4.045573e-06	3.661267e-09	3.403905e+01	2.420102e+02
1.660000e-06	4.117574e-06	3.686095e-09	3.464486e+01	2.436633e+02
1.670000e-06	4.188877e-06	3.710165e-09	3.524479e+01	2.452519e+02
1.680000e-06	4.259514e-06	3.731868e-09	3.583913e+01	2.467836e+02
1.690000e-06	4.329461e-06	3.754788e-09	3.642765e+01	2.482652e+02
1.700000e-06	4.398643e-06	3.776526e-09	3.700974e+01	2.497022e+02
1.710000e-06	4.467104e-06	3.796902e-09	3.758577e+01	2.510989e+02
1.720000e-06	4.534879e-06	3.815489e-09	3.815602e+01	2.524585e+02
1.730000e-06	4.601917e-06	3.833007e-09	3.872007e+01	2.537825e+02
1.740000e-06	4.668114e-06	3.850785e-09	3.927705e+01	2.550715e+02
1.750000e-06	4.733341e-06	3.867297e-09	3.982586e+01	2.563251e+02
1.760000e-06	4.797566e-06	3.885933e-09	4.036625e+01	2.575420e+02
1.770000e-06	4.860977e-06	3.904326e-09	4.089978e+01	2.587208e+02
1.780000e-06	4.923719e-06	3.921300e-09	4.142768e+01	2.598598e+02
1.790000e-06	4.985714e-06	3.936353e-09	4.194930e+01	2.609575e+02
1.800000e-06	5.046890e-06	3.950219e-09	4.246403e+01	2.620129e+02
1.810000e-06	5.107314e-06	3.965233e-09	4.297244e+01	2.630255e+02
1.820000e-06	5.166959e-06	3.980152e-09	4.347428e+01	2.639959e+02
1.830000e-06	5.225696e-06	3.994379e-09	4.396849e+01	2.649252e+02
1.840000e-06	5.283302e-06	4.008655e-09	4.445318e+01	2.658156e+02
1.850000e-06	5.339780e-06	4.023420e-09	4.492838e+01	2.666697e+02
1.860000e-06	5.395360e-06	4.038173e-09	4.539603e+01	2.674909e+02
1.870000e-06	5.450080e-06	4.053027e-09	4.585644e+01	2.682829e+02
1.880000e-06	5.503916e-06	4.066543e-09	4.630940e+01	2.690493e+02
1.890000e-06	5.556775e-06	4.078154e-09	4.675415e+01	2.697939e+02
1.900000e-06	5.608512e-06	4.089428e-09	4.718946e+01	2.705199e+02
1.910000e-06	5.658961e-06	4.102080e-09	4.761394e+01	2.712299e+02
1.920000e-06	5.708021e-06	4.113747e-09	4.802672e+01	2.719258e+02
1.930000e-06	5.755880e-06	4.123031e-09	4.842940e+01	2.726089e+02
1.940000e-06	5.802719e-06	4.133223e-09	4.882350e+01	2.732793e+02
1.950000e-06	5.848580e-06	4.144799e-09	4.920937e+01	2.739366e+02
1.960000e-06	5.893497e-06	4.156579e-09	4.958730e+01	2.745794e+02
1.970000e-06	5.937485e-06	4.166092e-09	4.995741e+01	2.752061e+02
1.980000e-06	5.980493e-06	4.176061e-09	5.031928e+01	2.758144e+02
1.990000e-06	6.022269e-06	4.187692e-09	5.067077e+01	2.764020e+02
2.000000e-06	6.062747e-06	4.198223e-09	5.101136e+01	2.769666e+02
2.010000e-06	6.102159e-06	4.206605e-09	5.134296e+01	2.775063e+02
2.020000e-06	6.140558e-06	4.212061e-09	5.166605e+01	2.780193e+02
2.030000e-06	6.177957e-06	4.218837e-09	5.198072e+01	2.785048e+02
2.040000e-06	6.214400e-06	4.228274e-09	5.228734e+01	2.789625e+02
2.050000e-06	6.249926e-06	4.237584e-09	5.258625e+01	2.793927e+02
2.060000e-06	6.284357e-06	4.245684e-09	5.287595e+01	2.797964e+02
2.070000e-06	6.317427e-06	4.252630e-09	5.315420e+01	2.801755e+02
2.080000e-06	6.349253e-06	4.259054e-09	5.342198e+01	2.805319e+02
2.090000e-06	6.380088e-06	4.265546e-09	5.368143e+01	2.808682e+02
2.100000e-06	6.409951e-06	4.272380e-09	5.393269e+01	2.811870e+02
2.110000e-06	6.438795e-06	4.277352e-09	5.417539e+01	2.814910e+02
2.120000e-06	6.466720e-06	4.281448e-09	5.441034e+01	2.817826e+02
2.130000e-06	6.493571e-06	4.287619e-09	5.463626e+01	2.820637e+02
2.140000e-06	6.519013e-06	4.293544e-09	5.485033e+01	2.823361e+02
2.150000e-06	6.543153e-06	4.297758e-09	5.505344e+01	2.826006e+02
2.160000e-06	6.566208e-06	4.301183e-09	5.524742e+01	2.828578e+02
2.170000e-06	6.588157e-06	4.304762e-09	5.543210e+01	2.831075e+02
2.180000e-06	6.609060e-06	4.309742e-09	5.560797e+01	2.833490e+02
2.190000e-06	6.628989e-06	4.315462e-09	5.577565e+01	2.835811e+02
2.200000e-06	6.647804e-06	4.319677e-09	5.593396e+01	2.838023e+02
2.210000e-06	6.665390e-06	4.322132e-09	5.608193e+01	2.840110e+02
2.220000e-06	6.681791e-06	4.325446e-09	5.621993e+01	2.842054e+02
2.230000e-06	6.696956e-06	4.330252e-09	5.634752e+01	2.843838e+02
2.240000e-06	6.710801e-06	4.333620e-09	5.646401e+01	2.845448e+02
2.250000e-06	6.723404e-06	4.335584e-09	5.657005e+01	2.846874e+02
2.260000e-06	6.734747e-06	4.339178e-09	5.666549e+01	2.848108e+02
2.270000e-06	6.744597e-06	4.344046e-09	5.674837e+01	2.849147e+02
2.280000e-06	6.753066e-06	4.348451e-09	5.681963e+01	2.849995e+02
2.290000e-06	6.760384e-06	4.350537e-09	5.688120e+01	2.850656e+02
2.300000e-06	6.766504e-06	4.351631e-09	5.693270e+01	2.851141e+02
2.310000e-06	6.771483e-06	4.354597e-09	5.697458e+01	2.851464e+02
2.320000e-06	6.775423e-06	4.357717e-09	5.700774e+01	2.851641e+02
2.330000e-06	6.778120e-06	4.358498e-09	5.703043e+01	2.851688e+02
2.340000e-06	6.779394e-06	4.358774e-09	5.704115e+01	2.851623e+02
2.350000e-06	6.779436e-06	4.361115e-09	5.704150e+01	2.851462e+02
2.360000e-06	6.778405e-06	4.363183e-09	5.703283e+01	2.851221e+02
2.370000e-06	6.776297e-06	4.361714e-09	5.701509e+01	2.850912e+02
2.380000e-06	6.773141e-06	4.360322e-09	5.698854e+01	2.850545e+02
2.390000e-06	6.769016e-06	4.359289e-09	5.695383e+01	2.850128e+02
2.400000e-06	6.763841e-06	4.360058e-09	5.691029e+01	2.849664e+02
2.410000e-06	6.757281e-06	4.362535e-09	5.685509e+01	2.849155e+02
2.420000e-06	6.749441e-06	4.365765e-09	5.678912e+01	2.848597e+02
2.430000e-06	6.740653e-06	4.374331e-09	5.671519e+01	2.847986e+02
2.440000e-06	6.730882e-06	4.322959e-09	5.663298e+01	2.847312e+02
2.450000e-06	6.719690e-06	4.271170e-09	5.653881e+01	2.846566e+02
2.460000e-06	6.706468e-06	4.271353e-09	5.642755e+01	2.845734e+02
2.470000e-06	6.691371e-06	4.352799e-09	5.630053e+01	2.844801e+02
2.480000e-06	6.675368e-06	4.478014e-09	5.616588e+01	2.843750e+02
2.490000e-06	6.658971e-06	4.370571e-09	5.602792e+01	2.842563e+02
2.500000e-06	6.641630e-06	4.252963e-09	5.588201e+01	2.841219e+02
2.510000e-06	6.622870e-06	4.344743e-09	5.572417e+01	2.839698e+02
2.520000e-06	6.603184e-06	4.334000e-09	5.555853e+01	2.837979e+02
2.530000e-06	6.582657e-06	4.374213e-09	5.538582e+01	2.836040e+02
2.540000e-06	6.560541e-06	4.461209e-09	5.519974e+01	2.833859e+02
2.550000e-06	6.537015e-06	4.284676e-09	5.500180e+01	2.831418e+02
2.560000e-06	6.512642e-06	4.281224e-09	5.479672e+01	2.828697e+02
2.570000e-06	6.487319e-06	4.457409e-09	5.458366e+01	2.825682e+02
2.580000e-06	6.460900e-06	4.342214e-09	5.436137e+01	2.822362e+02
2.590000e-06	6.433329e-06	4.244505e-09	5.412939e+01	2.818729e+02
2.600000e-06	6.404755e-06	4.271992e-09	5.388898e+01	2.814783e+02
2.610000e-06	6.375082e-06	4.277743e-09	5.363931e+01	2.810526e+02
2.620000e-06	6.343955e-06	4.350171e-09	5.337740e+01	2.805970e+02
2.630000e-06	6.311521e-06	4.267724e-09	5.310451e+01	2.801130e+02
2.640000e-06	6.278068e-06	4.194547e-09	5.282304e+01	2.796028e+02
2.650000e-06	6.243490e-06	4.264477e-09	5.253210e+01	2.790690e+02
2.660000e-06	6.207835e-06	4.236528e-09	5.223211e+01	2.785146e+02
2.670000e-06	6.171236e-06	4.280058e-09	5.192416e+01	2.779428e+02
2.680000e-06	6.133264e-06	4.271231e-09	5.160468e+01	2.773570e+02
2.690000e-06	6.093797e-06	4.143148e-09	5.127260e+01	2.767602e+02
2.700000e-06	6.053297e-06	4.181029e-09	5.093184e+01	2.761554e+02
2.710000e-06	6.011964e-06	4.276124e-09	5.058407e+01	2.755449e+02
2.720000e-06	5.969517e-06	4.249338e-09	5.022692e+01	2.749304e+02
2.730000e-06	5.925959e-06	4.114140e-09	4.986043e+01	2.743129e+02
2.740000e-06	5.881582e-06	4.137780e-09	4.948705e+01	2.736925e+02
2.750000e-06	5.836248e-06	4.246610e-09	4.910561e+01	2.730683e+02
2.760000e-06	5.789752e-06	4.167437e-09	4.871440e+01	2.724387e+02
2.770000e-06	5.742190e-06	4.112998e-09	4.831422e+01	2.718014e+02
2.780000e-06	5.693674e-06	4.123269e-09	4.790601e+01	2.711532e+02
2.790000e-06	5.644084e-06	4.131190e-09	4.748876e+01	2.704906e+02
2.800000e-06	5.593364e-06	4.127037e-09	4.706201e+01	2.698098e+02
2.810000e-06	5.541706e-06	4.099806e-09	4.662737e+01	2.691070e+02
2.820000e-06	5.489072e-06	4.100091e-09	4.618451e+01	2.683786e+02
2.830000e-06	5.435093e-06	4.061334e-09	4.573033e+01	2.676215e+02
2.840000e-06	5.379793e-06	4.061709e-09	4.526505e+01	2.668331e+02
2.850000e-06	5.323592e-06	4.085329e-09	4.479218e+01	2.660117e+02
2.860000e-06	5.266608e-06	4.049002e-09	4.431271e+01	2.651563e+02
2.870000e-06	5.208737e-06	4.011963e-09	4.382579e+01	2.642669e+02
2.880000e-06	5.150022e-06	4.010640e-09	4.333177e+01	2.633445e+02
2.890000e-06	5.090565e-06	4.036428e-09	4.283151e+01	2.623906e+02
2.900000e-06	5.030383e-06	3.994067e-09	4.232514e+01	2.614073e+02
2.910000e-06	4.969245e-06	3.948576e-09	4.181073e+01	2.603972e+02
2.920000e-06	4.906971e-06	3.965684e-09	4.128676e+01	2.593628e+02
2.930000e-06	4.843715e-06	3.968347e-09	4.075454e+01	2.583067e+02
2.940000e-06	4.779604e-06	3.928814e-09	4.021511e+01	2.572308e+02
2.950000e-06	4.714672e-06	3.894720e-09	3.966878e+01	2.561367e+02
