# Temperatura_=_20.0
# Concentracion g/m^3_=_9000.0
# C_Vs_to_Am_M_A/Vsm_=_65563218390.804596
# pendiente_HvsI_1/m_=_3716.3
# ordenada_HvsI_A/m_=_1297.0
# frecuencia_Hz_=_212906.4699609401

Tiempo_(s)	Campo_(V.s)	Magnetizacion_(V.s)	Campo_(kA/m)	Magnetizacion_(A/m)
0.000000e+00	-6.731146e-06	1.675245e-12	-5.695955e+01	-5.131944e+00
1.000000e-08	-6.729946e-06	4.043471e-13	-5.694940e+01	-5.130322e+00
2.000000e-08	-6.727231e-06	-1.073642e-12	-5.692642e+01	-5.150635e+00
3.000000e-08	-6.723407e-06	-2.224540e-12	-5.689406e+01	-5.195368e+00
4.000000e-08	-6.718642e-06	-3.522433e-12	-5.685374e+01	-5.264727e+00
5.000000e-08	-6.712781e-06	-1.705168e-12	-5.680414e+01	-5.356360e+00
6.000000e-08	-6.705798e-06	3.179044e-12	-5.674505e+01	-5.465240e+00
7.000000e-08	-6.697850e-06	1.511905e-11	-5.667779e+01	-5.583735e+00
8.000000e-08	-6.688747e-06	3.406547e-11	-5.660077e+01	-5.701870e+00
9.000000e-08	-6.678041e-06	-3.301939e-11	-5.651017e+01	-5.807765e+00
1.000000e-07	-6.665649e-06	-9.516569e-11	-5.640531e+01	-5.888233e+00
1.100000e-07	-6.651766e-06	-7.933533e-11	-5.628783e+01	-5.929505e+00
1.200000e-07	-6.636443e-06	8.674867e-13	-5.615816e+01	-5.918039e+00
1.300000e-07	-6.619867e-06	2.155116e-10	-5.601789e+01	-5.841354e+00
1.400000e-07	-6.602379e-06	8.625328e-11	-5.586991e+01	-5.688855e+00
1.500000e-07	-6.583914e-06	-1.853593e-10	-5.571366e+01	-5.452570e+00
1.600000e-07	-6.564605e-06	-1.185817e-11	-5.555027e+01	-5.127772e+00
1.700000e-07	-6.544501e-06	-3.472380e-11	-5.538014e+01	-4.713425e+00
1.800000e-07	-6.523117e-06	-4.809222e-12	-5.519919e+01	-4.212431e+00
1.900000e-07	-6.500654e-06	2.533563e-10	-5.500910e+01	-3.631656e+00
2.000000e-07	-6.477488e-06	-9.657666e-11	-5.481307e+01	-2.981720e+00
2.100000e-07	-6.453122e-06	-2.719410e-10	-5.460688e+01	-2.276576e+00
2.200000e-07	-6.427268e-06	1.706649e-10	-5.438810e+01	-1.532881e+00
2.300000e-07	-6.400223e-06	1.706713e-10	-5.415925e+01	-7.692132e-01
2.400000e-07	-6.372169e-06	-9.054497e-11	-5.392186e+01	-5.163452e-03
2.500000e-07	-6.343016e-06	-1.261896e-10	-5.367516e+01	7.396265e-01
2.600000e-07	-6.312711e-06	-1.267068e-10	-5.341872e+01	1.446437e+00
2.700000e-07	-6.281380e-06	5.079665e-11	-5.315359e+01	2.098384e+00
2.800000e-07	-6.249047e-06	1.048534e-10	-5.287998e+01	2.681229e+00
2.900000e-07	-6.215450e-06	-7.089233e-11	-5.259568e+01	3.184027e+00
3.000000e-07	-6.180586e-06	-1.487618e-10	-5.230066e+01	3.599582e+00
3.100000e-07	-6.144607e-06	-1.159147e-10	-5.199621e+01	3.924684e+00
3.200000e-07	-6.107448e-06	5.706605e-11	-5.168176e+01	4.160115e+00
3.300000e-07	-6.069113e-06	1.220670e-10	-5.135737e+01	4.310429e+00
3.400000e-07	-6.029832e-06	-1.085779e-10	-5.102497e+01	4.383528e+00
3.500000e-07	-5.989637e-06	-2.387984e-10	-5.068484e+01	4.390055e+00
3.600000e-07	-5.948132e-06	4.017868e-12	-5.033361e+01	4.342662e+00
3.700000e-07	-5.905270e-06	1.763997e-10	-4.997092e+01	4.255187e+00
3.800000e-07	-5.861349e-06	-6.067582e-11	-4.959925e+01	4.141804e+00
3.900000e-07	-5.816354e-06	-1.856631e-10	-4.921850e+01	4.016196e+00
4.000000e-07	-5.770215e-06	-1.200521e-11	-4.882807e+01	3.890804e+00
4.100000e-07	-5.723177e-06	5.706864e-11	-4.843003e+01	3.776196e+00
4.200000e-07	-5.675301e-06	4.270783e-12	-4.802489e+01	3.680589e+00
4.300000e-07	-5.626200e-06	-4.007157e-11	-4.760939e+01	3.609553e+00
4.400000e-07	-5.575607e-06	-7.292884e-11	-4.718127e+01	3.565904e+00
4.500000e-07	-5.523723e-06	-5.868933e-11	-4.674223e+01	3.549786e+00
4.600000e-07	-5.470871e-06	3.281311e-11	-4.629499e+01	3.558920e+00
4.700000e-07	-5.417111e-06	4.904044e-11	-4.584007e+01	3.589010e+00
4.800000e-07	-5.362495e-06	-9.193709e-11	-4.537791e+01	3.634251e+00
4.900000e-07	-5.307075e-06	-1.000585e-10	-4.490893e+01	3.687912e+00
5.000000e-07	-5.250718e-06	5.496479e-11	-4.443203e+01	3.742943e+00
5.100000e-07	-5.193300e-06	6.399600e-11	-4.394616e+01	3.792562e+00
5.200000e-07	-5.134800e-06	-6.884431e-11	-4.345113e+01	3.830785e+00
5.300000e-07	-5.075362e-06	-7.843954e-11	-4.294816e+01	3.852857e+00
5.400000e-07	-5.015179e-06	3.452709e-11	-4.243888e+01	3.855564e+00
5.500000e-07	-4.954245e-06	3.584344e-11	-4.192326e+01	3.837405e+00
5.600000e-07	-4.892484e-06	-4.505068e-11	-4.140063e+01	3.798620e+00
5.700000e-07	-4.829913e-06	-4.851484e-11	-4.087115e+01	3.741084e+00
5.800000e-07	-4.766547e-06	-1.384733e-12	-4.033494e+01	3.668071e+00
5.900000e-07	-4.702390e-06	9.685722e-12	-3.979204e+01	3.583923e+00
6.000000e-07	-4.637325e-06	-8.925730e-12	-3.924145e+01	3.493655e+00
6.100000e-07	-4.571200e-06	-2.649775e-11	-3.868189e+01	3.402518e+00
6.200000e-07	-4.504138e-06	-3.064253e-11	-3.811441e+01	3.315573e+00
6.300000e-07	-4.436359e-06	9.912943e-13	-3.754086e+01	3.237292e+00
6.400000e-07	-4.367962e-06	2.433808e-11	-3.696208e+01	3.171233e+00
6.500000e-07	-4.298824e-06	-1.071682e-11	-3.637703e+01	3.119804e+00
6.600000e-07	-4.228826e-06	-4.604502e-11	-3.578470e+01	3.084127e+00
6.700000e-07	-4.158127e-06	-1.254839e-11	-3.518644e+01	3.064022e+00
6.800000e-07	-4.086826e-06	3.128011e-11	-3.458308e+01	3.058094e+00
6.900000e-07	-4.014762e-06	1.184646e-12	-3.397327e+01	3.063925e+00
7.000000e-07	-3.941720e-06	-4.353394e-11	-3.335518e+01	3.078341e+00
7.100000e-07	-3.867682e-06	-1.518734e-11	-3.272867e+01	3.097737e+00
7.200000e-07	-3.792827e-06	3.292531e-11	-3.209523e+01	3.118430e+00
7.300000e-07	-3.717194e-06	1.040033e-11	-3.145522e+01	3.137005e+00
7.400000e-07	-3.640861e-06	-3.627499e-11	-3.080929e+01	3.150636e+00
7.500000e-07	-3.563812e-06	-2.752546e-11	-3.015729e+01	3.157344e+00
7.600000e-07	-3.485932e-06	3.862405e-12	-2.949827e+01	3.156180e+00
7.700000e-07	-3.407352e-06	5.082312e-12	-2.883331e+01	3.147316e+00
7.800000e-07	-3.328204e-06	-1.343779e-11	-2.816356e+01	3.132041e+00
7.900000e-07	-3.248365e-06	-1.799859e-11	-2.748795e+01	3.112657e+00
8.000000e-07	-3.167759e-06	-5.428777e-12	-2.680585e+01	3.092294e+00
8.100000e-07	-3.086604e-06	9.585331e-12	-2.611911e+01	3.074653e+00
8.200000e-07	-3.005077e-06	1.129364e-11	-2.542922e+01	3.063703e+00
8.300000e-07	-2.923153e-06	-8.931735e-12	-2.473598e+01	3.063353e+00
8.400000e-07	-2.840744e-06	-1.472427e-11	-2.403863e+01	3.077132e+00
8.500000e-07	-2.757935e-06	1.018976e-11	-2.333789e+01	3.107892e+00
8.600000e-07	-2.674781e-06	1.905186e-11	-2.263423e+01	3.157575e+00
8.700000e-07	-2.591207e-06	-5.408480e-12	-2.192702e+01	3.227038e+00
8.800000e-07	-2.507271e-06	-1.675696e-11	-2.121675e+01	3.315970e+00
8.900000e-07	-2.423040e-06	7.301946e-12	-2.050398e+01	3.422899e+00
9.000000e-07	-2.338463e-06	2.140320e-11	-1.978828e+01	3.545283e+00
9.100000e-07	-2.253540e-06	2.361911e-12	-1.906965e+01	3.679683e+00
9.200000e-07	-2.168340e-06	-9.425405e-12	-1.834869e+01	3.822000e+00
9.300000e-07	-2.082775e-06	5.439378e-12	-1.762462e+01	3.967760e+00
9.400000e-07	-1.996750e-06	1.910704e-11	-1.689668e+01	4.112416e+00
9.500000e-07	-1.910414e-06	1.329959e-11	-1.616609e+01	4.251658e+00
9.600000e-07	-1.823859e-06	3.306645e-12	-1.543365e+01	4.381692e+00
9.700000e-07	-1.737023e-06	7.525963e-12	-1.469884e+01	4.499474e+00
9.800000e-07	-1.649861e-06	2.227934e-11	-1.396127e+01	4.602880e+00
9.900000e-07	-1.562393e-06	3.160421e-11	-1.322111e+01	4.690810e+00
1.000000e-06	-1.474621e-06	2.688816e-11	-1.247837e+01	4.763199e+00
1.010000e-06	-1.386613e-06	2.052123e-11	-1.173364e+01	4.820959e+00
1.020000e-06	-1.298356e-06	2.946964e-11	-1.098680e+01	4.865846e+00
1.030000e-06	-1.209879e-06	4.492507e-11	-1.023810e+01	4.900261e+00
1.040000e-06	-1.121193e-06	4.287985e-11	-9.487633e+00	4.927022e+00
1.050000e-06	-1.032175e-06	2.873842e-11	-8.734352e+00	4.949102e+00
1.060000e-06	-9.428818e-07	3.001447e-11	-7.978749e+00	4.969371e+00
1.070000e-06	-8.533756e-07	4.622071e-11	-7.221339e+00	4.990359e+00
1.080000e-06	-7.636639e-07	5.081521e-11	-6.462191e+00	5.014054e+00
1.090000e-06	-6.737980e-07	4.073334e-11	-5.701738e+00	5.041760e+00
1.100000e-06	-5.838355e-07	3.839454e-11	-4.940467e+00	5.074015e+00
1.110000e-06	-4.937099e-07	4.983874e-11	-4.177817e+00	5.110574e+00
1.120000e-06	-4.033533e-07	5.702256e-11	-3.413211e+00	5.150474e+00
1.130000e-06	-3.129339e-07	5.137108e-11	-2.648074e+00	5.192144e+00
1.140000e-06	-2.225197e-07	4.675168e-11	-1.882982e+00	5.233573e+00
1.150000e-06	-1.320356e-07	5.034589e-11	-1.117297e+00	5.272516e+00
1.160000e-06	-4.154357e-08	5.779385e-11	-3.515454e-01	5.306706e+00
1.170000e-06	4.892247e-08	6.258912e-11	4.139863e-01	5.334074e+00
1.180000e-06	1.393724e-07	6.087421e-11	1.179381e+00	5.352937e+00
1.190000e-06	2.297892e-07	6.000625e-11	1.944496e+00	5.362158e+00
1.200000e-06	3.201098e-07	6.546594e-11	2.708797e+00	5.361252e+00
1.210000e-06	4.103160e-07	7.155862e-11	3.472130e+00	5.350431e+00
1.220000e-06	5.004055e-07	6.971653e-11	4.234476e+00	5.330589e+00
1.230000e-06	5.903090e-07	6.447346e-11	4.995247e+00	5.303231e+00
1.240000e-06	6.800452e-07	6.669278e-11	5.754602e+00	5.270343e+00
1.250000e-06	7.696297e-07	7.239099e-11	6.512674e+00	5.234229e+00
1.260000e-06	8.590252e-07	7.509003e-11	7.269146e+00	5.197313e+00
1.270000e-06	9.482191e-07	7.438745e-11	8.023913e+00	5.161943e+00
1.280000e-06	1.037170e-06	7.805052e-11	8.776623e+00	5.130193e+00
1.290000e-06	1.125928e-06	8.282879e-11	9.527701e+00	5.103703e+00
1.300000e-06	1.214522e-06	8.386686e-11	1.027739e+01	5.083545e+00
1.310000e-06	1.302815e-06	8.391332e-11	1.102454e+01	5.070152e+00
1.320000e-06	1.390785e-06	8.537860e-11	1.176894e+01	5.063301e+00
1.330000e-06	1.478508e-06	8.577005e-11	1.251127e+01	5.062145e+00
1.340000e-06	1.566008e-06	8.458755e-11	1.325170e+01	5.065316e+00
1.350000e-06	1.653275e-06	8.511466e-11	1.399016e+01	5.071061e+00
1.360000e-06	1.740318e-06	8.426712e-11	1.472672e+01	5.077419e+00
1.370000e-06	1.827167e-06	8.265559e-11	1.546165e+01	5.082413e+00
1.380000e-06	1.913772e-06	8.408817e-11	1.619451e+01	5.084244e+00
1.390000e-06	2.000064e-06	8.777318e-11	1.692472e+01	5.081472e+00
1.400000e-06	2.085973e-06	8.750784e-11	1.765169e+01	5.073160e+00
1.410000e-06	2.171552e-06	8.599707e-11	1.837586e+01	5.058981e+00
1.420000e-06	2.256798e-06	8.749026e-11	1.909722e+01	5.039263e+00
1.430000e-06	2.341664e-06	8.854520e-11	1.981537e+01	5.014983e+00
1.440000e-06	2.426189e-06	8.535163e-11	2.053062e+01	4.987694e+00
1.450000e-06	2.510388e-06	8.475018e-11	2.124312e+01	4.959407e+00
1.460000e-06	2.594255e-06	8.888411e-11	2.195281e+01	4.932424e+00
1.470000e-06	2.677708e-06	9.040135e-11	2.265900e+01	4.909144e+00
1.480000e-06	2.760702e-06	8.857194e-11	2.336130e+01	4.891859e+00
1.490000e-06	2.843235e-06	9.011578e-11	2.405971e+01	4.882546e+00
1.500000e-06	2.925285e-06	9.383365e-11	2.475402e+01	4.882689e+00
1.510000e-06	3.006817e-06	9.587942e-11	2.544395e+01	4.893134e+00
1.520000e-06	3.087762e-06	9.578359e-11	2.612891e+01	4.913998e+00
1.530000e-06	3.168117e-06	9.410114e-11	2.680888e+01	4.944630e+00
1.540000e-06	3.247901e-06	9.515684e-11	2.748403e+01	4.983644e+00
1.550000e-06	3.327108e-06	9.706178e-11	2.815428e+01	5.029006e+00
1.560000e-06	3.405660e-06	9.781019e-11	2.881899e+01	5.078175e+00
1.570000e-06	3.483449e-06	9.617566e-11	2.947725e+01	5.128296e+00
1.580000e-06	3.560594e-06	9.603141e-11	3.013006e+01	5.176406e+00
1.590000e-06	3.637158e-06	1.003451e-10	3.077795e+01	5.219670e+00
1.600000e-06	3.713074e-06	1.038345e-10	3.142035e+01	5.255589e+00
1.610000e-06	3.788273e-06	1.042014e-10	3.205670e+01	5.282198e+00
1.620000e-06	3.862611e-06	1.011125e-10	3.268576e+01	5.298216e+00
1.630000e-06	3.935917e-06	1.001032e-10	3.330608e+01	5.303137e+00
1.640000e-06	4.008246e-06	1.006502e-10	3.391813e+01	5.297269e+00
1.650000e-06	4.079884e-06	9.942319e-11	3.452434e+01	5.281696e+00
1.660000e-06	4.150975e-06	9.821712e-11	3.512592e+01	5.258184e+00
1.670000e-06	4.221398e-06	9.785249e-11	3.572184e+01	5.229027e+00
1.680000e-06	4.291066e-06	1.012127e-10	3.631138e+01	5.196851e+00
1.690000e-06	4.359971e-06	1.046436e-10	3.689446e+01	5.164393e+00
1.700000e-06	4.428131e-06	1.064012e-10	3.747124e+01	5.134266e+00
1.710000e-06	4.495712e-06	1.075466e-10	3.804311e+01	5.108737e+00
1.720000e-06	4.562692e-06	1.093210e-10	3.860990e+01	5.089537e+00
1.730000e-06	4.628680e-06	1.122250e-10	3.916830e+01	5.077715e+00
1.740000e-06	4.693471e-06	1.130099e-10	3.971656e+01	5.073545e+00
1.750000e-06	4.757350e-06	1.128816e-10	4.025712e+01	5.076509e+00
1.760000e-06	4.820597e-06	1.133379e-10	4.079232e+01	5.085341e+00
1.770000e-06	4.883163e-06	1.158956e-10	4.132176e+01	5.098143e+00
1.780000e-06	4.944932e-06	1.184673e-10	4.184445e+01	5.112548e+00
1.790000e-06	5.005882e-06	1.179435e-10	4.236021e+01	5.125937e+00
1.800000e-06	5.066064e-06	1.164779e-10	4.286948e+01	5.135671e+00
1.810000e-06	5.125615e-06	1.168823e-10	4.337341e+01	5.139338e+00
1.820000e-06	5.184375e-06	1.192231e-10	4.387064e+01	5.134975e+00
1.830000e-06	5.241880e-06	1.207543e-10	4.435725e+01	5.121260e+00
1.840000e-06	5.298177e-06	1.213680e-10	4.483364e+01	5.097652e+00
1.850000e-06	5.353652e-06	1.237411e-10	4.530308e+01	5.064466e+00
1.860000e-06	5.408265e-06	1.266270e-10	4.576522e+01	5.022872e+00
1.870000e-06	5.461911e-06	1.279217e-10	4.621917e+01	4.974823e+00
1.880000e-06	5.514599e-06	1.284133e-10	4.666502e+01	4.922915e+00
1.890000e-06	5.566214e-06	1.290634e-10	4.710179e+01	4.870182e+00
1.900000e-06	5.616583e-06	1.305569e-10	4.752802e+01	4.819856e+00
1.910000e-06	5.665582e-06	1.322434e-10	4.794266e+01	4.775093e+00
1.920000e-06	5.713385e-06	1.320618e-10	4.834717e+01	4.738712e+00
1.930000e-06	5.760155e-06	1.320448e-10	4.874294e+01	4.712939e+00
1.940000e-06	5.805936e-06	1.338475e-10	4.913034e+01	4.699212e+00
1.950000e-06	5.850733e-06	1.353355e-10	4.950942e+01	4.698026e+00
1.960000e-06	5.894640e-06	1.354068e-10	4.988096e+01	4.708877e+00
1.970000e-06	5.937693e-06	1.361090e-10	5.024528e+01	4.730268e+00
1.980000e-06	5.979503e-06	1.380279e-10	5.059908e+01	4.759808e+00
1.990000e-06	6.019945e-06	1.387279e-10	5.094130e+01	4.794393e+00
2.000000e-06	6.059307e-06	1.383305e-10	5.127439e+01	4.830445e+00
2.010000e-06	6.097699e-06	1.383346e-10	5.159926e+01	4.864196e+00
2.020000e-06	6.135093e-06	1.389121e-10	5.191570e+01	4.892008e+00
2.030000e-06	6.171488e-06	1.403925e-10	5.222368e+01	4.910684e+00
2.040000e-06	6.207030e-06	1.425220e-10	5.252444e+01	4.917748e+00
2.050000e-06	6.241630e-06	1.438115e-10	5.281722e+01	4.911688e+00
2.060000e-06	6.274834e-06	1.433152e-10	5.309819e+01	4.892110e+00
2.070000e-06	6.306737e-06	1.422932e-10	5.336816e+01	4.859822e+00
2.080000e-06	6.337629e-06	1.425306e-10	5.362958e+01	4.816807e+00
2.090000e-06	6.367499e-06	1.443943e-10	5.388233e+01	4.766105e+00
2.100000e-06	6.396381e-06	1.453142e-10	5.412674e+01	4.711608e+00
2.110000e-06	6.424322e-06	1.437364e-10	5.436318e+01	4.657769e+00
2.120000e-06	6.451242e-06	1.441892e-10	5.459098e+01	4.609263e+00
2.130000e-06	6.476848e-06	1.473548e-10	5.480766e+01	4.570621e+00
2.140000e-06	6.501056e-06	1.490854e-10	5.501251e+01	4.545851e+00
2.150000e-06	6.524088e-06	1.482326e-10	5.520741e+01	4.538102e+00
2.160000e-06	6.546085e-06	1.469953e-10	5.539355e+01	4.549385e+00
2.170000e-06	6.567013e-06	1.470374e-10	5.557064e+01	4.580366e+00
2.180000e-06	6.586936e-06	1.472046e-10	5.573923e+01	4.630279e+00
2.190000e-06	6.605946e-06	1.473260e-10	5.590009e+01	4.696936e+00
2.200000e-06	6.623740e-06	1.483898e-10	5.605067e+01	4.776862e+00
2.210000e-06	6.640258e-06	1.499874e-10	5.619044e+01	4.865538e+00
2.220000e-06	6.655576e-06	1.520754e-10	5.632007e+01	4.957733e+00
2.230000e-06	6.669623e-06	1.538584e-10	5.643893e+01	5.047912e+00
2.240000e-06	6.682479e-06	1.550649e-10	5.654773e+01	5.130674e+00
2.250000e-06	6.694152e-06	1.564879e-10	5.664650e+01	5.201203e+00
2.260000e-06	6.704357e-06	1.567477e-10	5.673286e+01	5.255684e+00
2.270000e-06	6.712961e-06	1.585604e-10	5.680567e+01	5.291647e+00
2.280000e-06	6.720348e-06	1.601749e-10	5.686818e+01	5.308226e+00
2.290000e-06	6.726686e-06	1.606048e-10	5.692180e+01	5.306279e+00
2.300000e-06	6.731864e-06	1.629612e-10	5.696562e+01	5.288386e+00
2.310000e-06	6.735930e-06	1.670180e-10	5.700003e+01	5.258688e+00
2.320000e-06	6.738901e-06	1.698456e-10	5.702518e+01	5.222595e+00
2.330000e-06	6.740538e-06	1.717033e-10	5.703902e+01	5.186371e+00
2.340000e-06	6.740830e-06	1.766319e-10	5.704150e+01	5.156615e+00
2.350000e-06	6.740041e-06	1.812103e-10	5.703482e+01	5.139683e+00
2.360000e-06	6.738153e-06	1.794875e-10	5.701884e+01	5.141091e+00
2.370000e-06	6.735123e-06	1.775506e-10	5.699320e+01	5.164937e+00
2.380000e-06	6.731166e-06	1.780469e-10	5.695972e+01	5.213388e+00
2.390000e-06	6.726340e-06	1.805082e-10	5.691888e+01	5.286281e+00
2.400000e-06	6.720156e-06	1.854392e-10	5.686655e+01	5.380864e+00
2.410000e-06	6.712517e-06	1.970659e-10	5.680191e+01	5.491711e+00
2.420000e-06	6.703916e-06	2.383668e-10	5.672913e+01	5.610817e+00
2.430000e-06	6.694453e-06	1.867237e-10	5.664905e+01	5.727890e+00
2.440000e-06	6.683680e-06	8.100139e-11	5.655788e+01	5.830812e+00
2.450000e-06	6.670998e-06	8.592141e-11	5.645057e+01	5.906259e+00
2.460000e-06	6.656251e-06	1.444636e-10	5.632578e+01	5.940445e+00
2.470000e-06	6.640262e-06	3.902934e-10	5.619048e+01	5.919932e+00
2.480000e-06	6.623951e-06	2.925855e-10	5.605245e+01	5.832471e+00
2.490000e-06	6.607004e-06	-3.530368e-11	5.590905e+01	5.667816e+00
2.500000e-06	6.588569e-06	1.675495e-10	5.575305e+01	5.418447e+00
2.510000e-06	6.569029e-06	4.779741e-11	5.558770e+01	5.080165e+00
2.520000e-06	6.548941e-06	1.984442e-11	5.541771e+01	4.652516e+00
2.530000e-06	6.527388e-06	5.055611e-10	5.523533e+01	4.139000e+00
2.540000e-06	6.504051e-06	2.138633e-10	5.503785e+01	3.547063e+00
2.550000e-06	6.479732e-06	-8.299672e-11	5.483206e+01	2.887860e+00
2.560000e-06	6.454570e-06	3.742681e-10	5.461914e+01	2.175792e+00
2.570000e-06	6.428415e-06	2.489922e-10	5.439781e+01	1.427859e+00
2.580000e-06	6.401187e-06	-1.550053e-10	5.416741e+01	6.628493e-01
2.590000e-06	6.372935e-06	-1.147486e-10	5.392834e+01	-9.957466e-02
2.600000e-06	6.343784e-06	-2.139880e-10	5.368166e+01	-8.398489e-01
2.610000e-06	6.313120e-06	-9.047915e-11	5.342218e+01	-1.539472e+00
2.620000e-06	6.280934e-06	-1.304905e-11	5.314982e+01	-2.181911e+00
2.630000e-06	6.247836e-06	-1.568629e-10	5.286974e+01	-2.753382e+00
2.640000e-06	6.213622e-06	-1.281949e-10	5.258022e+01	-3.243479e+00
2.650000e-06	6.178177e-06	-3.227742e-10	5.228028e+01	-3.645595e+00
2.660000e-06	6.141859e-06	-1.116775e-10	5.197295e+01	-3.957123e+00
2.670000e-06	6.104520e-06	1.592426e-10	5.165699e+01	-4.179432e+00
2.680000e-06	6.065738e-06	-2.696242e-10	5.132881e+01	-4.317609e+00
2.690000e-06	6.025646e-06	-3.681521e-10	5.098955e+01	-4.380008e+00
2.700000e-06	5.984750e-06	-6.218777e-11	5.064348e+01	-4.377625e+00
2.710000e-06	5.942864e-06	6.205458e-11	5.028904e+01	-4.323342e+00
2.720000e-06	5.899654e-06	-1.793806e-10	4.992339e+01	-4.231103e+00
2.730000e-06	5.855551e-06	-3.227234e-10	4.955019e+01	-4.115059e+00
2.740000e-06	5.810719e-06	-4.983645e-11	4.917082e+01	-3.988752e+00
2.750000e-06	5.764824e-06	-8.939334e-11	4.878245e+01	-3.864380e+00
2.760000e-06	5.717763e-06	-1.575932e-10	4.838421e+01	-3.752183e+00
2.770000e-06	5.669708e-06	-9.589508e-11	4.797757e+01	-3.659997e+00
2.780000e-06	5.620675e-06	-2.003031e-10	4.756265e+01	-3.592979e+00
2.790000e-06	5.570493e-06	-1.804696e-10	4.713800e+01	-3.553536e+00
2.800000e-06	5.519251e-06	-9.899139e-11	4.670438e+01	-3.541428e+00
2.810000e-06	5.467110e-06	-3.913145e-11	4.626317e+01	-3.554045e+00
2.820000e-06	5.413928e-06	-2.009205e-10	4.581314e+01	-3.586830e+00
2.830000e-06	5.359467e-06	-2.702127e-10	4.535228e+01	-3.633801e+00
2.840000e-06	5.303787e-06	-4.124587e-11	4.488112e+01	-3.688139e+00
2.850000e-06	5.247250e-06	-4.638294e-11	4.440269e+01	-3.742799e+00
2.860000e-06	5.189912e-06	-1.858511e-10	4.391749e+01	-3.791088e+00
2.870000e-06	5.131721e-06	-2.097487e-10	4.342507e+01	-3.827179e+00
2.880000e-06	5.072706e-06	-8.223016e-11	4.292569e+01	-3.846534e+00
2.890000e-06	5.012888e-06	-6.086130e-11	4.241950e+01	-3.846186e+00
2.900000e-06	4.952332e-06	-1.728446e-10	4.190707e+01	-3.824899e+00
2.910000e-06	4.890890e-06	-1.459936e-10	4.138714e+01	-3.783168e+00
2.920000e-06	4.828365e-06	-1.100425e-10	4.085805e+01	-3.723094e+00
2.930000e-06	4.764755e-06	-1.127252e-10	4.031978e+01	-3.648135e+00
2.940000e-06	4.700321e-06	-1.287016e-10	3.977453e+01	-3.562761e+00
2.950000e-06	4.635235e-06	-1.218556e-10	3.922376e+01	-3.472051e+00
2.960000e-06	4.569338e-06	-1.327934e-10	3.866614e+01	-3.381254e+00
