# Temperatura_=_20.0
# Concentracion g/m^3_=_9000.0
# C_Vs_to_Am_M_A/Vsm_=_65563218390.804596
# pendiente_HvsI_1/m_=_3716.3
# ordenada_HvsI_A/m_=_1297.0
# frecuencia_Hz_=_135018.8424877939

Tiempo_(s)	Campo_(V.s)	Magnetizacion_(V.s)	Campo_(kA/m)	Magnetizacion_(A/m)
0.000000e+00	-3.909151e-06	-3.108540e-10	-2.915092e+01	-1.663975e+01
1.000000e-08	-3.909294e-06	-3.118862e-10	-2.915199e+01	-1.664493e+01
2.000000e-08	-3.909265e-06	-3.126032e-10	-2.915177e+01	-1.665251e+01
3.000000e-08	-3.909041e-06	-3.130659e-10	-2.915010e+01	-1.666270e+01
4.000000e-08	-3.908575e-06	-3.198699e-10	-2.914662e+01	-1.667567e+01
5.000000e-08	-3.907746e-06	-3.333197e-10	-2.914044e+01	-1.669161e+01
6.000000e-08	-3.906384e-06	-3.283771e-10	-2.913028e+01	-1.671065e+01
7.000000e-08	-3.904499e-06	-2.820831e-10	-2.911623e+01	-1.673290e+01
8.000000e-08	-3.902160e-06	-2.509979e-10	-2.909879e+01	-1.675845e+01
9.000000e-08	-3.899362e-06	-2.598976e-10	-2.907792e+01	-1.678737e+01
1.000000e-07	-3.896256e-06	-2.339574e-10	-2.905476e+01	-1.681968e+01
1.100000e-07	-3.892939e-06	-2.710059e-10	-2.903002e+01	-1.685540e+01
1.200000e-07	-3.889302e-06	-3.455372e-10	-2.900290e+01	-1.689451e+01
1.300000e-07	-3.885453e-06	-2.909569e-10	-2.897420e+01	-1.693694e+01
1.400000e-07	-3.881488e-06	-2.695704e-10	-2.894463e+01	-1.698264e+01
1.500000e-07	-3.877316e-06	-3.002139e-10	-2.891352e+01	-1.703150e+01
1.600000e-07	-3.872939e-06	-2.930948e-10	-2.888089e+01	-1.708338e+01
1.700000e-07	-3.868359e-06	-2.816986e-10	-2.884673e+01	-1.713815e+01
1.800000e-07	-3.863527e-06	-2.887017e-10	-2.881070e+01	-1.719562e+01
1.900000e-07	-3.858468e-06	-2.969204e-10	-2.877297e+01	-1.725560e+01
2.000000e-07	-3.853122e-06	-2.736699e-10	-2.873311e+01	-1.731787e+01
2.100000e-07	-3.847439e-06	-2.817309e-10	-2.869073e+01	-1.738219e+01
2.200000e-07	-3.841502e-06	-3.104206e-10	-2.864646e+01	-1.744832e+01
2.300000e-07	-3.835297e-06	-2.896887e-10	-2.860018e+01	-1.751599e+01
2.400000e-07	-3.828799e-06	-2.413707e-10	-2.855173e+01	-1.758490e+01
2.500000e-07	-3.822051e-06	-2.951508e-10	-2.850141e+01	-1.765478e+01
2.600000e-07	-3.814983e-06	-3.432761e-10	-2.844870e+01	-1.772533e+01
2.700000e-07	-3.807532e-06	-2.783219e-10	-2.839314e+01	-1.779622e+01
2.800000e-07	-3.799861e-06	-2.475001e-10	-2.833593e+01	-1.786716e+01
2.900000e-07	-3.792073e-06	-3.157539e-10	-2.827786e+01	-1.793782e+01
3.000000e-07	-3.784145e-06	-3.284410e-10	-2.821874e+01	-1.800789e+01
3.100000e-07	-3.776071e-06	-2.673936e-10	-2.815853e+01	-1.807706e+01
3.200000e-07	-3.767755e-06	-2.658286e-10	-2.809651e+01	-1.814502e+01
3.300000e-07	-3.759175e-06	-3.045849e-10	-2.803253e+01	-1.821145e+01
3.400000e-07	-3.750238e-06	-3.091609e-10	-2.796589e+01	-1.827607e+01
3.500000e-07	-3.740901e-06	-2.869247e-10	-2.789627e+01	-1.833859e+01
3.600000e-07	-3.731240e-06	-2.855365e-10	-2.782422e+01	-1.839873e+01
3.700000e-07	-3.721095e-06	-2.909985e-10	-2.774857e+01	-1.845623e+01
3.800000e-07	-3.710489e-06	-2.906898e-10	-2.766948e+01	-1.851085e+01
3.900000e-07	-3.699535e-06	-2.884063e-10	-2.758780e+01	-1.856234e+01
4.000000e-07	-3.688243e-06	-2.929085e-10	-2.750358e+01	-1.861050e+01
4.100000e-07	-3.676628e-06	-2.800809e-10	-2.741697e+01	-1.865513e+01
4.200000e-07	-3.664790e-06	-2.684647e-10	-2.732870e+01	-1.869606e+01
4.300000e-07	-3.652767e-06	-2.892997e-10	-2.723904e+01	-1.873313e+01
4.400000e-07	-3.640354e-06	-3.122991e-10	-2.714648e+01	-1.876622e+01
4.500000e-07	-3.627574e-06	-2.826891e-10	-2.705117e+01	-1.879521e+01
4.600000e-07	-3.614581e-06	-2.590774e-10	-2.695428e+01	-1.882001e+01
4.700000e-07	-3.601368e-06	-2.949358e-10	-2.685575e+01	-1.884058e+01
4.800000e-07	-3.587868e-06	-3.170718e-10	-2.675508e+01	-1.885686e+01
4.900000e-07	-3.574115e-06	-2.739620e-10	-2.665253e+01	-1.886884e+01
5.000000e-07	-3.560131e-06	-2.546021e-10	-2.654825e+01	-1.887654e+01
5.100000e-07	-3.545804e-06	-2.914526e-10	-2.644141e+01	-1.887999e+01
5.200000e-07	-3.531168e-06	-2.941962e-10	-2.633227e+01	-1.887924e+01
5.300000e-07	-3.516230e-06	-2.587051e-10	-2.622087e+01	-1.887438e+01
5.400000e-07	-3.500915e-06	-2.634240e-10	-2.610666e+01	-1.886550e+01
5.500000e-07	-3.485293e-06	-2.893311e-10	-2.599017e+01	-1.885274e+01
5.600000e-07	-3.469343e-06	-2.748685e-10	-2.587123e+01	-1.883623e+01
5.700000e-07	-3.452944e-06	-2.630030e-10	-2.574894e+01	-1.881615e+01
5.800000e-07	-3.436254e-06	-2.794584e-10	-2.562448e+01	-1.879267e+01
5.900000e-07	-3.419340e-06	-2.771316e-10	-2.549835e+01	-1.876601e+01
6.000000e-07	-3.402243e-06	-2.567828e-10	-2.537086e+01	-1.873637e+01
6.100000e-07	-3.385066e-06	-2.696619e-10	-2.524277e+01	-1.870399e+01
6.200000e-07	-3.367668e-06	-2.830667e-10	-2.511303e+01	-1.866912e+01
6.300000e-07	-3.350088e-06	-2.650973e-10	-2.498193e+01	-1.863202e+01
6.400000e-07	-3.332299e-06	-2.597837e-10	-2.484928e+01	-1.859296e+01
6.500000e-07	-3.314197e-06	-2.817888e-10	-2.471429e+01	-1.855220e+01
6.600000e-07	-3.295845e-06	-2.764582e-10	-2.457744e+01	-1.851005e+01
6.700000e-07	-3.277230e-06	-2.547744e-10	-2.443863e+01	-1.846679e+01
6.800000e-07	-3.258323e-06	-2.621120e-10	-2.429763e+01	-1.842271e+01
6.900000e-07	-3.239160e-06	-2.762001e-10	-2.415474e+01	-1.837810e+01
7.000000e-07	-3.219703e-06	-2.639021e-10	-2.400964e+01	-1.833327e+01
7.100000e-07	-3.199989e-06	-2.571340e-10	-2.386263e+01	-1.828849e+01
7.200000e-07	-3.180208e-06	-2.715278e-10	-2.371512e+01	-1.824406e+01
7.300000e-07	-3.160382e-06	-2.746759e-10	-2.356728e+01	-1.820026e+01
7.400000e-07	-3.140393e-06	-2.634031e-10	-2.341822e+01	-1.815736e+01
7.500000e-07	-3.120299e-06	-2.629349e-10	-2.326838e+01	-1.811563e+01
7.600000e-07	-3.100091e-06	-2.680707e-10	-2.311768e+01	-1.807531e+01
7.700000e-07	-3.079712e-06	-2.630084e-10	-2.296571e+01	-1.803664e+01
7.800000e-07	-3.059146e-06	-2.596175e-10	-2.281235e+01	-1.799984e+01
7.900000e-07	-3.038387e-06	-2.632349e-10	-2.265755e+01	-1.796512e+01
8.000000e-07	-3.017379e-06	-2.617807e-10	-2.250089e+01	-1.793267e+01
8.100000e-07	-2.996056e-06	-2.571688e-10	-2.234188e+01	-1.790265e+01
8.200000e-07	-2.974464e-06	-2.600874e-10	-2.218087e+01	-1.787520e+01
8.300000e-07	-2.952647e-06	-2.594714e-10	-2.201817e+01	-1.785047e+01
8.400000e-07	-2.930642e-06	-2.526983e-10	-2.185409e+01	-1.782853e+01
8.500000e-07	-2.908516e-06	-2.532385e-10	-2.168909e+01	-1.780948e+01
8.600000e-07	-2.886258e-06	-2.628912e-10	-2.152311e+01	-1.779336e+01
8.700000e-07	-2.863798e-06	-2.645918e-10	-2.135562e+01	-1.778020e+01
8.800000e-07	-2.841224e-06	-2.579509e-10	-2.118728e+01	-1.777001e+01
8.900000e-07	-2.818528e-06	-2.568879e-10	-2.101804e+01	-1.776275e+01
9.000000e-07	-2.795499e-06	-2.625227e-10	-2.084631e+01	-1.775838e+01
9.100000e-07	-2.772076e-06	-2.623216e-10	-2.067164e+01	-1.775682e+01
9.200000e-07	-2.748473e-06	-2.579445e-10	-2.049563e+01	-1.775797e+01
9.300000e-07	-2.724812e-06	-2.586711e-10	-2.031919e+01	-1.776170e+01
9.400000e-07	-2.701052e-06	-2.638068e-10	-2.014200e+01	-1.776785e+01
9.500000e-07	-2.677126e-06	-2.648640e-10	-1.996359e+01	-1.777625e+01
9.600000e-07	-2.653120e-06	-2.619541e-10	-1.978458e+01	-1.778670e+01
9.700000e-07	-2.629095e-06	-2.606266e-10	-1.960542e+01	-1.779898e+01
9.800000e-07	-2.604916e-06	-2.611014e-10	-1.942511e+01	-1.781285e+01
9.900000e-07	-2.580537e-06	-2.604648e-10	-1.924332e+01	-1.782805e+01
1.000000e-06	-2.555997e-06	-2.588256e-10	-1.906032e+01	-1.784429e+01
1.010000e-06	-2.531195e-06	-2.584365e-10	-1.887537e+01	-1.786129e+01
1.020000e-06	-2.506048e-06	-2.594647e-10	-1.868785e+01	-1.787874e+01
1.030000e-06	-2.480595e-06	-2.624223e-10	-1.849804e+01	-1.789632e+01
1.040000e-06	-2.454832e-06	-2.657723e-10	-1.830592e+01	-1.791370e+01
1.050000e-06	-2.428734e-06	-2.658785e-10	-1.811131e+01	-1.793055e+01
1.060000e-06	-2.402311e-06	-2.633716e-10	-1.791427e+01	-1.794653e+01
1.070000e-06	-2.375603e-06	-2.624679e-10	-1.771511e+01	-1.796130e+01
1.080000e-06	-2.348664e-06	-2.611533e-10	-1.751422e+01	-1.797451e+01
1.090000e-06	-2.321469e-06	-2.562484e-10	-1.731142e+01	-1.798583e+01
1.100000e-06	-2.294060e-06	-2.516996e-10	-1.710703e+01	-1.799492e+01
1.110000e-06	-2.266541e-06	-2.542853e-10	-1.690182e+01	-1.800146e+01
1.120000e-06	-2.238882e-06	-2.576416e-10	-1.669556e+01	-1.800512e+01
1.130000e-06	-2.211078e-06	-2.555961e-10	-1.648822e+01	-1.800560e+01
1.140000e-06	-2.183230e-06	-2.521137e-10	-1.628056e+01	-1.800261e+01
1.150000e-06	-2.155354e-06	-2.522020e-10	-1.607268e+01	-1.799587e+01
1.160000e-06	-2.127384e-06	-2.506721e-10	-1.586411e+01	-1.798513e+01
1.170000e-06	-2.099306e-06	-2.442426e-10	-1.565473e+01	-1.797014e+01
1.180000e-06	-2.071177e-06	-2.408302e-10	-1.544497e+01	-1.795069e+01
1.190000e-06	-2.042955e-06	-2.419221e-10	-1.523452e+01	-1.792660e+01
1.200000e-06	-2.014547e-06	-2.420172e-10	-1.502267e+01	-1.789768e+01
1.210000e-06	-1.986046e-06	-2.407758e-10	-1.481014e+01	-1.786380e+01
1.220000e-06	-1.957426e-06	-2.409185e-10	-1.459672e+01	-1.782484e+01
1.230000e-06	-1.928637e-06	-2.415773e-10	-1.438204e+01	-1.778071e+01
1.240000e-06	-1.899674e-06	-2.397752e-10	-1.416605e+01	-1.773135e+01
1.250000e-06	-1.870563e-06	-2.384448e-10	-1.394897e+01	-1.767673e+01
1.260000e-06	-1.841358e-06	-2.374309e-10	-1.373119e+01	-1.761683e+01
1.270000e-06	-1.811955e-06	-2.359921e-10	-1.351193e+01	-1.755168e+01
1.280000e-06	-1.782385e-06	-2.339915e-10	-1.329142e+01	-1.748133e+01
1.290000e-06	-1.752691e-06	-2.311119e-10	-1.306999e+01	-1.740584e+01
1.300000e-06	-1.722922e-06	-2.298585e-10	-1.284799e+01	-1.732532e+01
1.310000e-06	-1.693125e-06	-2.315014e-10	-1.262579e+01	-1.723988e+01
1.320000e-06	-1.663255e-06	-2.323765e-10	-1.240306e+01	-1.714967e+01
1.330000e-06	-1.633309e-06	-2.314942e-10	-1.217975e+01	-1.705484e+01
1.340000e-06	-1.603230e-06	-2.318633e-10	-1.195545e+01	-1.695557e+01
1.350000e-06	-1.572929e-06	-2.314465e-10	-1.172948e+01	-1.685207e+01
1.360000e-06	-1.542448e-06	-2.302296e-10	-1.150219e+01	-1.674453e+01
1.370000e-06	-1.511979e-06	-2.298007e-10	-1.127498e+01	-1.663318e+01
1.380000e-06	-1.481477e-06	-2.296689e-10	-1.104752e+01	-1.651823e+01
1.390000e-06	-1.450864e-06	-2.279553e-10	-1.081924e+01	-1.639993e+01
1.400000e-06	-1.420232e-06	-2.276012e-10	-1.059081e+01	-1.627850e+01
1.410000e-06	-1.389410e-06	-2.277148e-10	-1.036097e+01	-1.615417e+01
1.420000e-06	-1.358351e-06	-2.266941e-10	-1.012935e+01	-1.602718e+01
1.430000e-06	-1.327230e-06	-2.271759e-10	-9.897280e+00	-1.589775e+01
1.440000e-06	-1.296065e-06	-2.296569e-10	-9.664881e+00	-1.576608e+01
1.450000e-06	-1.264766e-06	-2.288519e-10	-9.431481e+00	-1.563239e+01
1.460000e-06	-1.233334e-06	-2.242202e-10	-9.197092e+00	-1.549685e+01
1.470000e-06	-1.201869e-06	-2.206580e-10	-8.962456e+00	-1.535963e+01
1.480000e-06	-1.170372e-06	-2.174689e-10	-8.727576e+00	-1.522089e+01
1.490000e-06	-1.138802e-06	-2.119014e-10	-8.492155e+00	-1.508075e+01
1.500000e-06	-1.107163e-06	-2.081493e-10	-8.256220e+00	-1.493931e+01
1.510000e-06	-1.075475e-06	-2.076742e-10	-8.019923e+00	-1.479665e+01
1.520000e-06	-1.043723e-06	-2.087584e-10	-7.783147e+00	-1.465282e+01
1.530000e-06	-1.011940e-06	-2.085792e-10	-7.546136e+00	-1.450784e+01
1.540000e-06	-9.801376e-07	-2.058821e-10	-7.308982e+00	-1.436170e+01
1.550000e-06	-9.482720e-07	-2.028639e-10	-7.071357e+00	-1.421435e+01
1.560000e-06	-9.163597e-07	-2.005025e-10	-6.833383e+00	-1.406574e+01
1.570000e-06	-8.844507e-07	-1.995511e-10	-6.595435e+00	-1.391575e+01
1.580000e-06	-8.525319e-07	-1.969705e-10	-6.357414e+00	-1.376425e+01
1.590000e-06	-8.205533e-07	-1.936104e-10	-6.118946e+00	-1.361109e+01
1.600000e-06	-7.885555e-07	-1.927319e-10	-5.880335e+00	-1.345606e+01
1.610000e-06	-7.565269e-07	-1.907590e-10	-5.641495e+00	-1.329896e+01
1.620000e-06	-7.244200e-07	-1.841887e-10	-5.402070e+00	-1.313953e+01
1.630000e-06	-6.922522e-07	-1.794721e-10	-5.162192e+00	-1.297750e+01
1.640000e-06	-6.600497e-07	-1.759856e-10	-4.922055e+00	-1.281259e+01
1.650000e-06	-6.278227e-07	-1.694373e-10	-4.681735e+00	-1.264448e+01
1.660000e-06	-5.956021e-07	-1.613183e-10	-4.441463e+00	-1.247285e+01
1.670000e-06	-5.633958e-07	-1.577955e-10	-4.201297e+00	-1.229734e+01
1.680000e-06	-5.311270e-07	-1.581004e-10	-3.960666e+00	-1.211762e+01
1.690000e-06	-4.988484e-07	-1.564636e-10	-3.719961e+00	-1.193332e+01
1.700000e-06	-4.665591e-07	-1.530738e-10	-3.479177e+00	-1.174407e+01
1.710000e-06	-4.342385e-07	-1.499248e-10	-3.238158e+00	-1.154952e+01
1.720000e-06	-4.019164e-07	-1.490028e-10	-2.997130e+00	-1.134931e+01
1.730000e-06	-3.695423e-07	-1.482195e-10	-2.755713e+00	-1.114308e+01
1.740000e-06	-3.371200e-07	-1.438563e-10	-2.513936e+00	-1.093051e+01
1.750000e-06	-3.046654e-07	-1.384533e-10	-2.271920e+00	-1.071125e+01
1.760000e-06	-2.721607e-07	-1.364723e-10	-2.029529e+00	-1.048501e+01
1.770000e-06	-2.396675e-07	-1.354574e-10	-1.787224e+00	-1.025152e+01
1.780000e-06	-2.071849e-07	-1.318609e-10	-1.544998e+00	-1.001051e+01
1.790000e-06	-1.746771e-07	-1.267301e-10	-1.302584e+00	-9.761757e+00
1.800000e-06	-1.421958e-07	-1.207941e-10	-1.060368e+00	-9.505078e+00
1.810000e-06	-1.096571e-07	-1.150770e-10	-8.177234e-01	-9.240316e+00
1.820000e-06	-7.707966e-08	-1.107710e-10	-5.747905e-01	-8.967357e+00
1.830000e-06	-4.449390e-08	-1.071720e-10	-3.317953e-01	-8.686126e+00
1.840000e-06	-1.192090e-08	-1.037769e-10	-8.889535e-02	-8.396594e+00
1.850000e-06	2.061983e-08	-1.009808e-10	1.537640e-01	-8.098777e+00
1.860000e-06	5.321488e-08	-9.779664e-11	3.968286e-01	-7.792736e+00
1.870000e-06	8.589717e-08	-9.049600e-11	6.405436e-01	-7.478584e+00
1.880000e-06	1.185663e-07	-8.342321e-11	8.841605e-01	-7.156477e+00
1.890000e-06	1.511476e-07	-7.967746e-11	1.127122e+00	-6.826623e+00
1.900000e-06	1.836793e-07	-7.764212e-11	1.369714e+00	-6.489278e+00
1.910000e-06	2.161813e-07	-7.288648e-11	1.612085e+00	-6.144746e+00
1.920000e-06	2.487136e-07	-6.596157e-11	1.854682e+00	-5.793375e+00
1.930000e-06	2.812257e-07	-6.098118e-11	2.097128e+00	-5.435563e+00
1.940000e-06	3.136462e-07	-5.488199e-11	2.338890e+00	-5.071746e+00
1.950000e-06	3.460702e-07	-4.825094e-11	2.580679e+00	-4.702406e+00
1.960000e-06	3.785733e-07	-4.242316e-11	2.823058e+00	-4.328059e+00
1.970000e-06	4.110917e-07	-3.594947e-11	3.065551e+00	-3.949260e+00
1.980000e-06	4.434759e-07	-3.017880e-11	3.307043e+00	-3.566593e+00
1.990000e-06	4.757497e-07	-2.594756e-11	3.547712e+00	-3.180672e+00
2.000000e-06	5.080659e-07	-1.887565e-11	3.788697e+00	-2.792137e+00
2.010000e-06	5.403825e-07	-9.977700e-12	4.029685e+00	-2.401646e+00
2.020000e-06	5.726387e-07	-4.114842e-12	4.270222e+00	-2.009872e+00
2.030000e-06	6.048244e-07	1.795248e-13	4.510234e+00	-1.617504e+00
2.040000e-06	6.369286e-07	4.250077e-12	4.749639e+00	-1.225233e+00
2.050000e-06	6.690073e-07	8.248826e-12	4.988852e+00	-8.337555e-01
2.060000e-06	7.010515e-07	1.218915e-11	5.227809e+00	-4.437632e-01
2.070000e-06	7.330592e-07	1.638055e-11	5.466494e+00	-5.594160e-02
2.080000e-06	7.650896e-07	2.038496e-11	5.705347e+00	3.290364e-01
2.090000e-06	7.970808e-07	2.494865e-11	5.943909e+00	7.105145e-01
2.100000e-06	8.290103e-07	3.121001e-11	6.182010e+00	1.087858e+00
2.110000e-06	8.609411e-07	3.848802e-11	6.420122e+00	1.460457e+00
2.120000e-06	8.928517e-07	4.527195e-11	6.658082e+00	1.827732e+00
2.130000e-06	9.247112e-07	4.999359e-11	6.895662e+00	2.189136e+00
2.140000e-06	9.565520e-07	5.415459e-11	7.133101e+00	2.544162e+00
2.150000e-06	9.883652e-07	5.937579e-11	7.370336e+00	2.892340e+00
2.160000e-06	1.020130e-06	6.583085e-11	7.607211e+00	3.233246e+00
2.170000e-06	1.051897e-06	6.926843e-11	7.844095e+00	3.566500e+00
2.180000e-06	1.083661e-06	7.107240e-11	8.080966e+00	3.891770e+00
2.190000e-06	1.115343e-06	7.399289e-11	8.317219e+00	4.208777e+00
2.200000e-06	1.146985e-06	7.699460e-11	8.553181e+00	4.517288e+00
2.210000e-06	1.178617e-06	8.148254e-11	8.789060e+00	4.817127e+00
2.220000e-06	1.210148e-06	8.591123e-11	9.024192e+00	5.108167e+00
2.230000e-06	1.241525e-06	8.890959e-11	9.258173e+00	5.390334e+00
2.240000e-06	1.272806e-06	9.217887e-11	9.491442e+00	5.663608e+00
2.250000e-06	1.303988e-06	9.558619e-11	9.723962e+00	5.928016e+00
2.260000e-06	1.335011e-06	9.768337e-11	9.955304e+00	6.183639e+00
2.270000e-06	1.365971e-06	9.876295e-11	1.018618e+01	6.430602e+00
2.280000e-06	1.396811e-06	1.024158e-10	1.041616e+01	6.669079e+00
2.290000e-06	1.427452e-06	1.085283e-10	1.064465e+01	6.899283e+00
2.300000e-06	1.458031e-06	1.136309e-10	1.087268e+01	7.121470e+00
2.310000e-06	1.488576e-06	1.187805e-10	1.110045e+01	7.335933e+00
2.320000e-06	1.518960e-06	1.231956e-10	1.132703e+01	7.542998e+00
2.330000e-06	1.549217e-06	1.260583e-10	1.155266e+01	7.743018e+00
2.340000e-06	1.579392e-06	1.291869e-10	1.177768e+01	7.936374e+00
2.350000e-06	1.609477e-06	1.318157e-10	1.200203e+01	8.123470e+00
2.360000e-06	1.639469e-06	1.342010e-10	1.222568e+01	8.304722e+00
2.370000e-06	1.669371e-06	1.387099e-10	1.244866e+01	8.480563e+00
2.380000e-06	1.699155e-06	1.439559e-10	1.267077e+01	8.651433e+00
2.390000e-06	1.728841e-06	1.474771e-10	1.289214e+01	8.817775e+00
2.400000e-06	1.758483e-06	1.504741e-10	1.311318e+01	8.980030e+00
2.410000e-06	1.788013e-06	1.550115e-10	1.333338e+01	9.138637e+00
2.420000e-06	1.817393e-06	1.587154e-10	1.355248e+01	9.294023e+00
2.430000e-06	1.846699e-06	1.599867e-10	1.377102e+01	9.446602e+00
2.440000e-06	1.875903e-06	1.624274e-10	1.398879e+01	9.596771e+00
2.450000e-06	1.904863e-06	1.679028e-10	1.420475e+01	9.744906e+00
2.460000e-06	1.933654e-06	1.735892e-10	1.441945e+01	9.891358e+00
2.470000e-06	1.962355e-06	1.766388e-10	1.463347e+01	1.003645e+01
2.480000e-06	1.990920e-06	1.776767e-10	1.484649e+01	1.018048e+01
2.490000e-06	2.019377e-06	1.799889e-10	1.505869e+01	1.032370e+01
2.500000e-06	2.047747e-06	1.855107e-10	1.527025e+01	1.046634e+01
2.510000e-06	2.075993e-06	1.890558e-10	1.548088e+01	1.060860e+01
2.520000e-06	2.104094e-06	1.894410e-10	1.569044e+01	1.075061e+01
2.530000e-06	2.132069e-06	1.904171e-10	1.589905e+01	1.089250e+01
2.540000e-06	2.159965e-06	1.915492e-10	1.610707e+01	1.103434e+01
2.550000e-06	2.187800e-06	1.914409e-10	1.631464e+01	1.117617e+01
2.560000e-06	2.215589e-06	1.890418e-10	1.652186e+01	1.131799e+01
2.570000e-06	2.243307e-06	1.886155e-10	1.672856e+01	1.145974e+01
2.580000e-06	2.270922e-06	1.921009e-10	1.693449e+01	1.160137e+01
2.590000e-06	2.298409e-06	1.963322e-10	1.713946e+01	1.174275e+01
2.600000e-06	2.325698e-06	2.005060e-10	1.734296e+01	1.188375e+01
2.610000e-06	2.352708e-06	2.047893e-10	1.754437e+01	1.202418e+01
2.620000e-06	2.379494e-06	2.083379e-10	1.774412e+01	1.216385e+01
2.630000e-06	2.406101e-06	2.100090e-10	1.794253e+01	1.230253e+01
2.640000e-06	2.432399e-06	2.094309e-10	1.813864e+01	1.243997e+01
2.650000e-06	2.458269e-06	2.085349e-10	1.833155e+01	1.257591e+01
2.660000e-06	2.483700e-06	2.100886e-10	1.852119e+01	1.271006e+01
2.670000e-06	2.508839e-06	2.122377e-10	1.870866e+01	1.284213e+01
2.680000e-06	2.533723e-06	2.128968e-10	1.889422e+01	1.297182e+01
2.690000e-06	2.558346e-06	2.134361e-10	1.907783e+01	1.309882e+01
2.700000e-06	2.582824e-06	2.169815e-10	1.926037e+01	1.322284e+01
2.710000e-06	2.607150e-06	2.200053e-10	1.944177e+01	1.334356e+01
2.720000e-06	2.631299e-06	2.214936e-10	1.962185e+01	1.346071e+01
2.730000e-06	2.655384e-06	2.205755e-10	1.980145e+01	1.357399e+01
2.740000e-06	2.679381e-06	2.171800e-10	1.998041e+01	1.368315e+01
2.750000e-06	2.703206e-06	2.138094e-10	2.015807e+01	1.378793e+01
2.760000e-06	2.726845e-06	2.125792e-10	2.033435e+01	1.388812e+01
2.770000e-06	2.750234e-06	2.137004e-10	2.050876e+01	1.398350e+01
2.780000e-06	2.773454e-06	2.144669e-10	2.068191e+01	1.407390e+01
2.790000e-06	2.796553e-06	2.168793e-10	2.085417e+01	1.415919e+01
2.800000e-06	2.819435e-06	2.183412e-10	2.102480e+01	1.423923e+01
2.810000e-06	2.842116e-06	2.195268e-10	2.119394e+01	1.431396e+01
2.820000e-06	2.864599e-06	2.219254e-10	2.136159e+01	1.438333e+01
2.830000e-06	2.886896e-06	2.229676e-10	2.152787e+01	1.444733e+01
2.840000e-06	2.909028e-06	2.211530e-10	2.169290e+01	1.450597e+01
2.850000e-06	2.931004e-06	2.192250e-10	2.185678e+01	1.455932e+01
2.860000e-06	2.952774e-06	2.163678e-10	2.201912e+01	1.460748e+01
2.870000e-06	2.974311e-06	2.137808e-10	2.217973e+01	1.465058e+01
2.880000e-06	2.995654e-06	2.133445e-10	2.233888e+01	1.468878e+01
2.890000e-06	3.016769e-06	2.135607e-10	2.249634e+01	1.472228e+01
2.900000e-06	3.037653e-06	2.143906e-10	2.265207e+01	1.475132e+01
