# Temperatura_=_20.0
# Concentracion g/m^3_=_9000.0
# C_Vs_to_Am_M_A/Vsm_=_65563218390.804596
# pendiente_HvsI_1/m_=_3716.3
# ordenada_HvsI_A/m_=_1297.0
# frecuencia_Hz_=_135016.94689234195

Tiempo_(s)	Campo_(V.s)	Magnetizacion_(V.s)	Campo_(kA/m)	Magnetizacion_(A/m)
0.000000e+00	-3.900652e-06	-3.593550e-09	-2.913786e+01	-2.354289e+02
1.000000e-08	-3.900886e-06	-3.594115e-09	-2.913960e+01	-2.354575e+02
2.000000e-08	-3.900979e-06	-3.592656e-09	-2.914030e+01	-2.354771e+02
3.000000e-08	-3.900891e-06	-3.591941e-09	-2.913965e+01	-2.354875e+02
4.000000e-08	-3.900538e-06	-3.590065e-09	-2.913700e+01	-2.354888e+02
5.000000e-08	-3.899873e-06	-3.591043e-09	-2.913204e+01	-2.354810e+02
6.000000e-08	-3.898827e-06	-3.608762e-09	-2.912422e+01	-2.354639e+02
7.000000e-08	-3.897308e-06	-3.603267e-09	-2.911288e+01	-2.354376e+02
8.000000e-08	-3.895268e-06	-3.581403e-09	-2.909764e+01	-2.354021e+02
9.000000e-08	-3.892613e-06	-3.591510e-09	-2.907780e+01	-2.353575e+02
1.000000e-07	-3.889543e-06	-3.620495e-09	-2.905487e+01	-2.353036e+02
1.100000e-07	-3.886300e-06	-3.537102e-09	-2.903065e+01	-2.352407e+02
1.200000e-07	-3.882867e-06	-3.567658e-09	-2.900500e+01	-2.351688e+02
1.300000e-07	-3.879254e-06	-3.554732e-09	-2.897801e+01	-2.350878e+02
1.400000e-07	-3.875480e-06	-3.533397e-09	-2.894982e+01	-2.349980e+02
1.500000e-07	-3.871518e-06	-3.592167e-09	-2.892023e+01	-2.348994e+02
1.600000e-07	-3.867378e-06	-3.613716e-09	-2.888930e+01	-2.347921e+02
1.700000e-07	-3.863062e-06	-3.610190e-09	-2.885706e+01	-2.346762e+02
1.800000e-07	-3.858531e-06	-3.546879e-09	-2.882322e+01	-2.345519e+02
1.900000e-07	-3.853672e-06	-3.559460e-09	-2.878692e+01	-2.344194e+02
2.000000e-07	-3.848466e-06	-3.550781e-09	-2.874803e+01	-2.342786e+02
2.100000e-07	-3.842949e-06	-3.585168e-09	-2.870682e+01	-2.341298e+02
2.200000e-07	-3.837184e-06	-3.558602e-09	-2.866375e+01	-2.339732e+02
2.300000e-07	-3.831208e-06	-3.569215e-09	-2.861911e+01	-2.338089e+02
2.400000e-07	-3.824898e-06	-3.520693e-09	-2.857197e+01	-2.336370e+02
2.500000e-07	-3.818237e-06	-3.530722e-09	-2.852222e+01	-2.334576e+02
2.600000e-07	-3.811352e-06	-3.575124e-09	-2.847079e+01	-2.332710e+02
2.700000e-07	-3.804175e-06	-3.574743e-09	-2.841718e+01	-2.330773e+02
2.800000e-07	-3.796700e-06	-3.497582e-09	-2.836134e+01	-2.328765e+02
2.900000e-07	-3.789093e-06	-3.505654e-09	-2.830451e+01	-2.326689e+02
3.000000e-07	-3.781348e-06	-3.579265e-09	-2.824666e+01	-2.324545e+02
3.100000e-07	-3.773479e-06	-3.570438e-09	-2.818788e+01	-2.322335e+02
3.200000e-07	-3.765450e-06	-3.515637e-09	-2.812790e+01	-2.320059e+02
3.300000e-07	-3.757173e-06	-3.495563e-09	-2.806607e+01	-2.317718e+02
3.400000e-07	-3.748490e-06	-3.542008e-09	-2.800121e+01	-2.315313e+02
3.500000e-07	-3.739449e-06	-3.545538e-09	-2.793367e+01	-2.312845e+02
3.600000e-07	-3.730131e-06	-3.521472e-09	-2.786407e+01	-2.310313e+02
3.700000e-07	-3.720366e-06	-3.478569e-09	-2.779112e+01	-2.307719e+02
3.800000e-07	-3.710104e-06	-3.505126e-09	-2.771446e+01	-2.305061e+02
3.900000e-07	-3.699362e-06	-3.516690e-09	-2.763422e+01	-2.302341e+02
4.000000e-07	-3.688253e-06	-3.521345e-09	-2.755124e+01	-2.299558e+02
4.100000e-07	-3.676826e-06	-3.483443e-09	-2.746588e+01	-2.296712e+02
4.200000e-07	-3.665167e-06	-3.479968e-09	-2.737879e+01	-2.293802e+02
4.300000e-07	-3.653268e-06	-3.479831e-09	-2.728990e+01	-2.290828e+02
4.400000e-07	-3.641038e-06	-3.508245e-09	-2.719854e+01	-2.287789e+02
4.500000e-07	-3.628567e-06	-3.485132e-09	-2.710539e+01	-2.284685e+02
4.600000e-07	-3.615877e-06	-3.446855e-09	-2.701059e+01	-2.281515e+02
4.700000e-07	-3.602847e-06	-3.437888e-09	-2.691325e+01	-2.278278e+02
4.800000e-07	-3.589474e-06	-3.482254e-09	-2.681336e+01	-2.274972e+02
4.900000e-07	-3.575898e-06	-3.473215e-09	-2.671195e+01	-2.271598e+02
5.000000e-07	-3.562140e-06	-3.422419e-09	-2.660917e+01	-2.268154e+02
5.100000e-07	-3.548123e-06	-3.415652e-09	-2.650446e+01	-2.264640e+02
5.200000e-07	-3.533763e-06	-3.452602e-09	-2.639720e+01	-2.261054e+02
5.300000e-07	-3.519039e-06	-3.447549e-09	-2.628721e+01	-2.257396e+02
5.400000e-07	-3.503966e-06	-3.405130e-09	-2.617462e+01	-2.253665e+02
5.500000e-07	-3.488587e-06	-3.397440e-09	-2.605973e+01	-2.249860e+02
5.600000e-07	-3.472820e-06	-3.408588e-09	-2.594195e+01	-2.245981e+02
5.700000e-07	-3.456668e-06	-3.407293e-09	-2.582130e+01	-2.242026e+02
5.800000e-07	-3.440185e-06	-3.386412e-09	-2.569817e+01	-2.237997e+02
5.900000e-07	-3.423365e-06	-3.376378e-09	-2.557253e+01	-2.233892e+02
6.000000e-07	-3.406460e-06	-3.363257e-09	-2.544625e+01	-2.229712e+02
6.100000e-07	-3.389462e-06	-3.370790e-09	-2.531927e+01	-2.225456e+02
6.200000e-07	-3.372157e-06	-3.374168e-09	-2.519000e+01	-2.221124e+02
6.300000e-07	-3.354613e-06	-3.361994e-09	-2.505895e+01	-2.216717e+02
6.400000e-07	-3.336877e-06	-3.337170e-09	-2.492646e+01	-2.212235e+02
6.500000e-07	-3.318944e-06	-3.347579e-09	-2.479250e+01	-2.207679e+02
6.600000e-07	-3.300873e-06	-3.352100e-09	-2.465751e+01	-2.203050e+02
6.700000e-07	-3.282579e-06	-3.332012e-09	-2.452085e+01	-2.198347e+02
6.800000e-07	-3.263925e-06	-3.304405e-09	-2.438151e+01	-2.193572e+02
6.900000e-07	-3.244877e-06	-3.310321e-09	-2.423922e+01	-2.188727e+02
7.000000e-07	-3.225597e-06	-3.311604e-09	-2.409520e+01	-2.183811e+02
7.100000e-07	-3.206156e-06	-3.297623e-09	-2.394997e+01	-2.178827e+02
7.200000e-07	-3.186489e-06	-3.280201e-09	-2.380307e+01	-2.173774e+02
7.300000e-07	-3.166701e-06	-3.277836e-09	-2.365525e+01	-2.168655e+02
7.400000e-07	-3.146830e-06	-3.271351e-09	-2.350681e+01	-2.163471e+02
7.500000e-07	-3.126873e-06	-3.262950e-09	-2.335773e+01	-2.158222e+02
7.600000e-07	-3.106812e-06	-3.250423e-09	-2.320788e+01	-2.152909e+02
7.700000e-07	-3.086625e-06	-3.234918e-09	-2.305708e+01	-2.147534e+02
7.800000e-07	-3.066253e-06	-3.222951e-09	-2.290490e+01	-2.142098e+02
7.900000e-07	-3.045601e-06	-3.217023e-09	-2.275063e+01	-2.136600e+02
8.000000e-07	-3.024699e-06	-3.207201e-09	-2.259450e+01	-2.131042e+02
8.100000e-07	-3.003563e-06	-3.191370e-09	-2.243660e+01	-2.125423e+02
8.200000e-07	-2.982139e-06	-3.182188e-09	-2.227657e+01	-2.119745e+02
8.300000e-07	-2.960512e-06	-3.176346e-09	-2.211502e+01	-2.114006e+02
8.400000e-07	-2.938732e-06	-3.165760e-09	-2.195231e+01	-2.108207e+02
8.500000e-07	-2.916729e-06	-3.149850e-09	-2.178796e+01	-2.102347e+02
8.600000e-07	-2.894580e-06	-3.143021e-09	-2.162250e+01	-2.096424e+02
8.700000e-07	-2.872294e-06	-3.136775e-09	-2.145603e+01	-2.090438e+02
8.800000e-07	-2.849830e-06	-3.127947e-09	-2.128822e+01	-2.084387e+02
8.900000e-07	-2.827226e-06	-3.112289e-09	-2.111937e+01	-2.078270e+02
9.000000e-07	-2.804406e-06	-3.101900e-09	-2.094891e+01	-2.072084e+02
9.100000e-07	-2.781315e-06	-3.092589e-09	-2.077641e+01	-2.065826e+02
9.200000e-07	-2.757918e-06	-3.081870e-09	-2.060164e+01	-2.059494e+02
9.300000e-07	-2.734245e-06	-3.066847e-09	-2.042480e+01	-2.053085e+02
9.400000e-07	-2.710536e-06	-3.057866e-09	-2.024769e+01	-2.046596e+02
9.500000e-07	-2.686805e-06	-3.050092e-09	-2.007042e+01	-2.040022e+02
9.600000e-07	-2.662961e-06	-3.041245e-09	-1.989231e+01	-2.033360e+02
9.700000e-07	-2.639018e-06	-3.024779e-09	-1.971346e+01	-2.026606e+02
9.800000e-07	-2.614941e-06	-3.010629e-09	-1.953360e+01	-2.019755e+02
9.900000e-07	-2.590726e-06	-2.999013e-09	-1.935271e+01	-2.012803e+02
1.000000e-06	-2.566361e-06	-2.988653e-09	-1.917071e+01	-2.005745e+02
1.010000e-06	-2.541747e-06	-2.975667e-09	-1.898684e+01	-1.998577e+02
1.020000e-06	-2.516853e-06	-2.963985e-09	-1.880088e+01	-1.991293e+02
1.030000e-06	-2.491683e-06	-2.954772e-09	-1.861286e+01	-1.983888e+02
1.040000e-06	-2.466126e-06	-2.946780e-09	-1.842196e+01	-1.976358e+02
1.050000e-06	-2.440340e-06	-2.936116e-09	-1.822933e+01	-1.968697e+02
1.060000e-06	-2.414374e-06	-2.922194e-09	-1.803537e+01	-1.960900e+02
1.070000e-06	-2.387994e-06	-2.906675e-09	-1.783831e+01	-1.952963e+02
1.080000e-06	-2.361198e-06	-2.890921e-09	-1.763814e+01	-1.944882e+02
1.090000e-06	-2.334136e-06	-2.876158e-09	-1.743599e+01	-1.936650e+02
1.100000e-06	-2.306913e-06	-2.857979e-09	-1.723263e+01	-1.928265e+02
1.110000e-06	-2.279527e-06	-2.840697e-09	-1.702806e+01	-1.919721e+02
1.120000e-06	-2.251964e-06	-2.826473e-09	-1.682216e+01	-1.911015e+02
1.130000e-06	-2.224273e-06	-2.815036e-09	-1.661531e+01	-1.902144e+02
1.140000e-06	-2.196518e-06	-2.801151e-09	-1.640798e+01	-1.893103e+02
1.150000e-06	-2.168674e-06	-2.785707e-09	-1.619999e+01	-1.883891e+02
1.160000e-06	-2.140785e-06	-2.771673e-09	-1.599165e+01	-1.874503e+02
1.170000e-06	-2.112893e-06	-2.758934e-09	-1.578330e+01	-1.864938e+02
1.180000e-06	-2.084884e-06	-2.740380e-09	-1.557408e+01	-1.855194e+02
1.190000e-06	-2.056706e-06	-2.720892e-09	-1.536359e+01	-1.845269e+02
1.200000e-06	-2.028429e-06	-2.704055e-09	-1.515236e+01	-1.835162e+02
1.210000e-06	-2.000066e-06	-2.689475e-09	-1.494049e+01	-1.824871e+02
1.220000e-06	-1.971567e-06	-2.672224e-09	-1.472760e+01	-1.814395e+02
1.230000e-06	-1.942884e-06	-2.657400e-09	-1.451334e+01	-1.803734e+02
1.240000e-06	-1.914082e-06	-2.642333e-09	-1.429819e+01	-1.792888e+02
1.250000e-06	-1.885162e-06	-2.626880e-09	-1.408215e+01	-1.781857e+02
1.260000e-06	-1.856042e-06	-2.613027e-09	-1.386463e+01	-1.770640e+02
1.270000e-06	-1.826731e-06	-2.597001e-09	-1.364568e+01	-1.759237e+02
1.280000e-06	-1.797289e-06	-2.576441e-09	-1.342574e+01	-1.747650e+02
1.290000e-06	-1.767742e-06	-2.556161e-09	-1.320503e+01	-1.735877e+02
1.300000e-06	-1.738080e-06	-2.538970e-09	-1.298346e+01	-1.723919e+02
1.310000e-06	-1.708322e-06	-2.521666e-09	-1.276116e+01	-1.711776e+02
1.320000e-06	-1.678487e-06	-2.504258e-09	-1.253829e+01	-1.699449e+02
1.330000e-06	-1.648587e-06	-2.485232e-09	-1.231494e+01	-1.686936e+02
1.340000e-06	-1.618607e-06	-2.467556e-09	-1.209099e+01	-1.674237e+02
1.350000e-06	-1.588502e-06	-2.451000e-09	-1.186611e+01	-1.661352e+02
1.360000e-06	-1.558279e-06	-2.433241e-09	-1.164034e+01	-1.648278e+02
1.370000e-06	-1.527983e-06	-2.411277e-09	-1.141403e+01	-1.635014e+02
1.380000e-06	-1.497664e-06	-2.388841e-09	-1.118754e+01	-1.621557e+02
1.390000e-06	-1.467232e-06	-2.365505e-09	-1.096022e+01	-1.607906e+02
1.400000e-06	-1.436607e-06	-2.342279e-09	-1.073145e+01	-1.594055e+02
1.410000e-06	-1.405806e-06	-2.320933e-09	-1.050136e+01	-1.580001e+02
1.420000e-06	-1.374817e-06	-2.301116e-09	-1.026988e+01	-1.565738e+02
1.430000e-06	-1.343845e-06	-2.278675e-09	-1.003852e+01	-1.551262e+02
1.440000e-06	-1.312882e-06	-2.255301e-09	-9.807228e+00	-1.536564e+02
1.450000e-06	-1.281777e-06	-2.234000e-09	-9.574870e+00	-1.521639e+02
1.460000e-06	-1.250573e-06	-2.211923e-09	-9.341775e+00	-1.506477e+02
1.470000e-06	-1.219229e-06	-2.187833e-09	-9.107639e+00	-1.491070e+02
1.480000e-06	-1.187756e-06	-2.160960e-09	-8.872533e+00	-1.475407e+02
1.490000e-06	-1.156247e-06	-2.131522e-09	-8.637159e+00	-1.459478e+02
1.500000e-06	-1.124677e-06	-2.103056e-09	-8.401332e+00	-1.443271e+02
1.510000e-06	-1.092985e-06	-2.077261e-09	-8.164596e+00	-1.426774e+02
1.520000e-06	-1.061263e-06	-2.051031e-09	-7.927634e+00	-1.409972e+02
1.530000e-06	-1.029558e-06	-2.025572e-09	-7.690793e+00	-1.392853e+02
1.540000e-06	-9.977903e-07	-2.000191e-09	-7.453490e+00	-1.375402e+02
1.550000e-06	-9.659439e-07	-1.976092e-09	-7.215598e+00	-1.357603e+02
1.560000e-06	-9.340633e-07	-1.947900e-09	-6.977450e+00	-1.339441e+02
1.570000e-06	-9.021910e-07	-1.917226e-09	-6.739364e+00	-1.320899e+02
1.580000e-06	-8.703040e-07	-1.889003e-09	-6.501168e+00	-1.301960e+02
1.590000e-06	-8.383865e-07	-1.860242e-09	-6.262744e+00	-1.282608e+02
1.600000e-06	-8.064514e-07	-1.828684e-09	-6.024190e+00	-1.262826e+02
1.610000e-06	-7.744929e-07	-1.796452e-09	-5.785460e+00	-1.242595e+02
1.620000e-06	-7.424913e-07	-1.762874e-09	-5.546407e+00	-1.221900e+02
1.630000e-06	-7.104361e-07	-1.726925e-09	-5.306956e+00	-1.200723e+02
1.640000e-06	-6.783005e-07	-1.694214e-09	-5.066903e+00	-1.179047e+02
1.650000e-06	-6.461463e-07	-1.662128e-09	-4.826711e+00	-1.156857e+02
1.660000e-06	-6.140071e-07	-1.626697e-09	-4.586631e+00	-1.134135e+02
1.670000e-06	-5.818061e-07	-1.589621e-09	-4.346090e+00	-1.110868e+02
1.680000e-06	-5.495197e-07	-1.556413e-09	-4.104910e+00	-1.087040e+02
1.690000e-06	-5.172492e-07	-1.523646e-09	-3.863850e+00	-1.062638e+02
1.700000e-06	-4.850191e-07	-1.486353e-09	-3.623091e+00	-1.037651e+02
1.710000e-06	-4.527330e-07	-1.448639e-09	-3.381914e+00	-1.012067e+02
1.720000e-06	-4.203389e-07	-1.412326e-09	-3.139931e+00	-9.858753e+01
1.730000e-06	-3.879054e-07	-1.374299e-09	-2.897652e+00	-9.590684e+01
1.740000e-06	-3.555131e-07	-1.335360e-09	-2.655682e+00	-9.316391e+01
1.750000e-06	-3.231026e-07	-1.295994e-09	-2.413576e+00	-9.035821e+01
1.760000e-06	-2.906651e-07	-1.255936e-09	-2.171267e+00	-8.748938e+01
1.770000e-06	-2.582243e-07	-1.215319e-09	-1.928935e+00	-8.455725e+01
1.780000e-06	-2.257184e-07	-1.173754e-09	-1.686116e+00	-8.156182e+01
1.790000e-06	-1.931235e-07	-1.129592e-09	-1.442632e+00	-7.850330e+01
1.800000e-06	-1.605124e-07	-1.083771e-09	-1.199027e+00	-7.538209e+01
1.810000e-06	-1.279348e-07	-1.038686e-09	-9.556723e-01	-7.219881e+01
1.820000e-06	-9.535136e-08	-9.947325e-10	-7.122743e-01	-6.895427e+01
1.830000e-06	-6.278237e-08	-9.508989e-10	-4.689841e-01	-6.564950e+01
1.840000e-06	-3.025065e-08	-9.038525e-10	-2.259722e-01	-6.228573e+01
1.850000e-06	2.298461e-09	-8.557609e-10	1.716950e-02	-5.886441e+01
1.860000e-06	3.480518e-08	-8.069766e-10	2.599946e-01	-5.538719e+01
1.870000e-06	6.729717e-08	-7.552589e-10	5.027096e-01	-5.185594e+01
1.880000e-06	9.980746e-08	-7.000047e-10	7.455614e-01	-4.827271e+01
1.890000e-06	1.322768e-07	-6.446829e-10	9.881069e-01	-4.463975e+01
1.900000e-06	1.647359e-07	-5.939753e-10	1.230577e+00	-4.095950e+01
1.910000e-06	1.972413e-07	-5.448761e-10	1.473392e+00	-3.723458e+01
1.920000e-06	2.298869e-07	-4.920671e-10	1.717254e+00	-3.346778e+01
1.930000e-06	2.625445e-07	-4.371130e-10	1.961207e+00	-2.966205e+01
1.940000e-06	2.950608e-07	-3.811612e-10	2.204103e+00	-2.582048e+01
1.950000e-06	3.275569e-07	-3.232815e-10	2.446849e+00	-2.194630e+01
1.960000e-06	3.600484e-07	-2.619543e-10	2.689561e+00	-1.804287e+01
1.970000e-06	3.924757e-07	-2.009704e-10	2.931792e+00	-1.411364e+01
1.980000e-06	4.248704e-07	-1.428522e-10	3.173781e+00	-1.016219e+01
1.990000e-06	4.572187e-07	-8.506468e-11	3.415422e+00	-6.192137e+00
2.000000e-06	4.895156e-07	-2.647185e-11	3.656680e+00	-2.207190e+00
2.010000e-06	5.217432e-07	3.331512e-11	3.897420e+00	1.788902e+00
2.020000e-06	5.538810e-07	9.329947e-11	4.137489e+00	5.792358e+00
2.030000e-06	5.859916e-07	1.509843e-10	4.377355e+00	9.799381e+00
2.040000e-06	6.181247e-07	2.066318e-10	4.617390e+00	1.380617e+01
2.050000e-06	6.502131e-07	2.642242e-10	4.857089e+00	1.780895e+01
2.060000e-06	6.822593e-07	3.239707e-10	5.096475e+00	2.180396e+01
2.070000e-06	7.143376e-07	3.833892e-10	5.336099e+00	2.578750e+01
2.080000e-06	7.463744e-07	4.421634e-10	5.575414e+00	2.975592e+01
2.090000e-06	7.783527e-07	5.001936e-10	5.814292e+00	3.370567e+01
2.100000e-06	8.103430e-07	5.592016e-10	6.053260e+00	3.763325e+01
2.110000e-06	8.423399e-07	6.186760e-10	6.292277e+00	4.153531e+01
2.120000e-06	8.742945e-07	6.765062e-10	6.530977e+00	4.540857e+01
2.130000e-06	9.062205e-07	7.327462e-10	6.769464e+00	4.924992e+01
2.140000e-06	9.380972e-07	7.879041e-10	7.007583e+00	5.305634e+01
2.150000e-06	9.699338e-07	8.422889e-10	7.245402e+00	5.682499e+01
2.160000e-06	1.001745e-06	8.964181e-10	7.483035e+00	6.055318e+01
2.170000e-06	1.033531e-06	9.518233e-10	7.720472e+00	6.423837e+01
2.180000e-06	1.065280e-06	1.005816e-09	7.957635e+00	6.787821e+01
2.190000e-06	1.096945e-06	1.058204e-09	8.194176e+00	7.147049e+01
2.200000e-06	1.128504e-06	1.108381e-09	8.429921e+00	7.501321e+01
2.210000e-06	1.160045e-06	1.157730e-09	8.665530e+00	7.850453e+01
2.220000e-06	1.191569e-06	1.207429e-09	8.901016e+00	8.194281e+01
2.230000e-06	1.222933e-06	1.255176e-09	9.135304e+00	8.532658e+01
2.240000e-06	1.254139e-06	1.301741e-09	9.368416e+00	8.865454e+01
2.250000e-06	1.285276e-06	1.350020e-09	9.601009e+00	9.192561e+01
2.260000e-06	1.316435e-06	1.399155e-09	9.833764e+00	9.513885e+01
2.270000e-06	1.347473e-06	1.445350e-09	1.006562e+01	9.829352e+01
2.280000e-06	1.378304e-06	1.489584e-09	1.029592e+01	1.013890e+02
2.290000e-06	1.409008e-06	1.535173e-09	1.052528e+01	1.044250e+02
2.300000e-06	1.439667e-06	1.581269e-09	1.075431e+01	1.074011e+02
2.310000e-06	1.470271e-06	1.625160e-09	1.098292e+01	1.103173e+02
2.320000e-06	1.500787e-06	1.666528e-09	1.121087e+01	1.131736e+02
2.330000e-06	1.531173e-06	1.707449e-09	1.143785e+01	1.159703e+02
2.340000e-06	1.561341e-06	1.747830e-09	1.166321e+01	1.187075e+02
2.350000e-06	1.591414e-06	1.786274e-09	1.188786e+01	1.213858e+02
2.360000e-06	1.621457e-06	1.824877e-09	1.211228e+01	1.240057e+02
2.370000e-06	1.651371e-06	1.863426e-09	1.233574e+01	1.265679e+02
2.380000e-06	1.681179e-06	1.900817e-09	1.255840e+01	1.290731e+02
2.390000e-06	1.710926e-06	1.937600e-09	1.278061e+01	1.315221e+02
2.400000e-06	1.740600e-06	1.972311e-09	1.300228e+01	1.339158e+02
2.410000e-06	1.770177e-06	2.006948e-09	1.322321e+01	1.362552e+02
2.420000e-06	1.799578e-06	2.042191e-09	1.344284e+01	1.385413e+02
2.430000e-06	1.828793e-06	2.074753e-09	1.366108e+01	1.407752e+02
2.440000e-06	1.857952e-06	2.104386e-09	1.387890e+01	1.429580e+02
2.450000e-06	1.887012e-06	2.135431e-09	1.409598e+01	1.450908e+02
2.460000e-06	1.915873e-06	2.168082e-09	1.431156e+01	1.471749e+02
2.470000e-06	1.944573e-06	2.197986e-09	1.452596e+01	1.492113e+02
2.480000e-06	1.973079e-06	2.226585e-09	1.473889e+01	1.512013e+02
2.490000e-06	2.001406e-06	2.255215e-09	1.495050e+01	1.531460e+02
2.500000e-06	2.029686e-06	2.284460e-09	1.516175e+01	1.550467e+02
2.510000e-06	2.057942e-06	2.315592e-09	1.537282e+01	1.569045e+02
2.520000e-06	2.086087e-06	2.345192e-09	1.558306e+01	1.587205e+02
2.530000e-06	2.114127e-06	2.369544e-09	1.579252e+01	1.604960e+02
2.540000e-06	2.142079e-06	2.392289e-09	1.600133e+01	1.622319e+02
2.550000e-06	2.169956e-06	2.415540e-09	1.620956e+01	1.639294e+02
2.560000e-06	2.197760e-06	2.438974e-09	1.641726e+01	1.655896e+02
2.570000e-06	2.225458e-06	2.460408e-09	1.662416e+01	1.672135e+02
2.580000e-06	2.253059e-06	2.483912e-09	1.683034e+01	1.688020e+02
2.590000e-06	2.280664e-06	2.510700e-09	1.703655e+01	1.703562e+02
2.600000e-06	2.308100e-06	2.537475e-09	1.724150e+01	1.718769e+02
2.610000e-06	2.335222e-06	2.563250e-09	1.744410e+01	1.733650e+02
2.620000e-06	2.362082e-06	2.585101e-09	1.764475e+01	1.748215e+02
2.630000e-06	2.388675e-06	2.604829e-09	1.784340e+01	1.762470e+02
2.640000e-06	2.414871e-06	2.626829e-09	1.803908e+01	1.776424e+02
2.650000e-06	2.440715e-06	2.648931e-09	1.823213e+01	1.790085e+02
2.660000e-06	2.466332e-06	2.667732e-09	1.842350e+01	1.803459e+02
2.670000e-06	2.491613e-06	2.684539e-09	1.861234e+01	1.816554e+02
2.680000e-06	2.516535e-06	2.705251e-09	1.879851e+01	1.829376e+02
2.690000e-06	2.541202e-06	2.729736e-09	1.898277e+01	1.841931e+02
2.700000e-06	2.565751e-06	2.750430e-09	1.916615e+01	1.854226e+02
2.710000e-06	2.590148e-06	2.768715e-09	1.934840e+01	1.866267e+02
2.720000e-06	2.614347e-06	2.786880e-09	1.952916e+01	1.878058e+02
2.730000e-06	2.638398e-06	2.805438e-09	1.970883e+01	1.889607e+02
2.740000e-06	2.662338e-06	2.821540e-09	1.988766e+01	1.900917e+02
2.750000e-06	2.686182e-06	2.835370e-09	2.006577e+01	1.911994e+02
2.760000e-06	2.709880e-06	2.849034e-09	2.024279e+01	1.922844e+02
2.770000e-06	2.733384e-06	2.865801e-09	2.041837e+01	1.933471e+02
2.780000e-06	2.756680e-06	2.885807e-09	2.059239e+01	1.943879e+02
2.790000e-06	2.779816e-06	2.904006e-09	2.076522e+01	1.954075e+02
2.800000e-06	2.802831e-06	2.920613e-09	2.093714e+01	1.964061e+02
2.810000e-06	2.825569e-06	2.937846e-09	2.110699e+01	1.973844e+02
2.820000e-06	2.847990e-06	2.955370e-09	2.127448e+01	1.983427e+02
2.830000e-06	2.870256e-06	2.972216e-09	2.144080e+01	1.992815e+02
2.840000e-06	2.892378e-06	2.988127e-09	2.160606e+01	2.002013e+02
2.850000e-06	2.914324e-06	3.001730e-09	2.176999e+01	2.011024e+02
2.860000e-06	2.936118e-06	3.013431e-09	2.193279e+01	2.019853e+02
2.870000e-06	2.957732e-06	3.027818e-09	2.209425e+01	2.028505e+02
2.880000e-06	2.979137e-06	3.043958e-09	2.225414e+01	2.036983e+02
2.890000e-06	3.000412e-06	3.060183e-09	2.241307e+01	2.045292e+02
2.900000e-06	3.021502e-06	3.075115e-09	2.257061e+01	2.053436e+02
