# Temperatura_=_20.0
# Concentracion g/m^3_=_9000.0
# C_Vs_to_Am_M_A/Vsm_=_65563218390.804596
# pendiente_HvsI_1/m_=_3716.3
# ordenada_HvsI_A/m_=_1297.0
# frecuencia_Hz_=_135019.16248216294

Tiempo_(s)	Campo_(V.s)	Magnetizacion_(V.s)	Campo_(kA/m)	Magnetizacion_(A/m)
0.000000e+00	-3.898650e-06	-3.609251e-09	-2.914556e+01	-2.363865e+02
1.000000e-08	-3.898812e-06	-3.610426e-09	-2.914678e+01	-2.364200e+02
2.000000e-08	-3.898890e-06	-3.608872e-09	-2.914736e+01	-2.364409e+02
3.000000e-08	-3.898826e-06	-3.606970e-09	-2.914688e+01	-2.364488e+02
4.000000e-08	-3.898504e-06	-3.605769e-09	-2.914447e+01	-2.364438e+02
5.000000e-08	-3.897934e-06	-3.600095e-09	-2.914021e+01	-2.364255e+02
6.000000e-08	-3.897015e-06	-3.594561e-09	-2.913334e+01	-2.363940e+02
7.000000e-08	-3.895543e-06	-3.593931e-09	-2.912234e+01	-2.363492e+02
8.000000e-08	-3.893436e-06	-3.614625e-09	-2.910659e+01	-2.362911e+02
9.000000e-08	-3.890767e-06	-3.637304e-09	-2.908663e+01	-2.362199e+02
1.000000e-07	-3.887720e-06	-3.637093e-09	-2.906385e+01	-2.361356e+02
1.100000e-07	-3.884381e-06	-3.603367e-09	-2.903889e+01	-2.360384e+02
1.200000e-07	-3.880771e-06	-3.585069e-09	-2.901190e+01	-2.359285e+02
1.300000e-07	-3.877066e-06	-3.560590e-09	-2.898421e+01	-2.358063e+02
1.400000e-07	-3.873310e-06	-3.572850e-09	-2.895613e+01	-2.356720e+02
1.500000e-07	-3.869392e-06	-3.580971e-09	-2.892684e+01	-2.355260e+02
1.600000e-07	-3.865198e-06	-3.561928e-09	-2.889548e+01	-2.353687e+02
1.700000e-07	-3.860766e-06	-3.562036e-09	-2.886235e+01	-2.352006e+02
1.800000e-07	-3.856073e-06	-3.558557e-09	-2.882727e+01	-2.350221e+02
1.900000e-07	-3.851065e-06	-3.576409e-09	-2.878983e+01	-2.348337e+02
2.000000e-07	-3.845868e-06	-3.568491e-09	-2.875098e+01	-2.346360e+02
2.100000e-07	-3.840369e-06	-3.567494e-09	-2.870987e+01	-2.344296e+02
2.200000e-07	-3.834496e-06	-3.554526e-09	-2.866596e+01	-2.342149e+02
2.300000e-07	-3.828427e-06	-3.570176e-09	-2.862059e+01	-2.339925e+02
2.400000e-07	-3.822132e-06	-3.570827e-09	-2.857353e+01	-2.337631e+02
2.500000e-07	-3.815546e-06	-3.564475e-09	-2.852429e+01	-2.335272e+02
2.600000e-07	-3.808640e-06	-3.544835e-09	-2.847267e+01	-2.332855e+02
2.700000e-07	-3.801428e-06	-3.542988e-09	-2.841875e+01	-2.330384e+02
2.800000e-07	-3.793941e-06	-3.547598e-09	-2.836278e+01	-2.327864e+02
2.900000e-07	-3.786282e-06	-3.542532e-09	-2.830552e+01	-2.325303e+02
3.000000e-07	-3.778531e-06	-3.527106e-09	-2.824758e+01	-2.322703e+02
3.100000e-07	-3.770606e-06	-3.522379e-09	-2.818833e+01	-2.320070e+02
3.200000e-07	-3.762423e-06	-3.534037e-09	-2.812716e+01	-2.317409e+02
3.300000e-07	-3.754035e-06	-3.530703e-09	-2.806445e+01	-2.314722e+02
3.400000e-07	-3.745456e-06	-3.524012e-09	-2.800031e+01	-2.312014e+02
3.500000e-07	-3.736545e-06	-3.510570e-09	-2.793370e+01	-2.309287e+02
3.600000e-07	-3.727182e-06	-3.509323e-09	-2.786370e+01	-2.306545e+02
3.700000e-07	-3.717303e-06	-3.503685e-09	-2.778985e+01	-2.303788e+02
3.800000e-07	-3.706901e-06	-3.505991e-09	-2.771209e+01	-2.301019e+02
3.900000e-07	-3.696077e-06	-3.493436e-09	-2.763116e+01	-2.298237e+02
4.000000e-07	-3.684893e-06	-3.491349e-09	-2.754756e+01	-2.295445e+02
4.100000e-07	-3.673395e-06	-3.489333e-09	-2.746160e+01	-2.292641e+02
4.200000e-07	-3.661636e-06	-3.496943e-09	-2.737369e+01	-2.289825e+02
4.300000e-07	-3.649646e-06	-3.488280e-09	-2.728406e+01	-2.286995e+02
4.400000e-07	-3.637462e-06	-3.481839e-09	-2.719297e+01	-2.284150e+02
4.500000e-07	-3.625020e-06	-3.474400e-09	-2.709996e+01	-2.281288e+02
4.600000e-07	-3.612324e-06	-3.472865e-09	-2.700504e+01	-2.278405e+02
4.700000e-07	-3.599349e-06	-3.463564e-09	-2.690804e+01	-2.275499e+02
4.800000e-07	-3.586091e-06	-3.455271e-09	-2.680893e+01	-2.272567e+02
4.900000e-07	-3.572597e-06	-3.448445e-09	-2.670806e+01	-2.269604e+02
5.000000e-07	-3.558829e-06	-3.444566e-09	-2.660513e+01	-2.266607e+02
5.100000e-07	-3.544720e-06	-3.438964e-09	-2.649965e+01	-2.263571e+02
5.200000e-07	-3.530311e-06	-3.434109e-09	-2.639193e+01	-2.260491e+02
5.300000e-07	-3.515599e-06	-3.432445e-09	-2.628195e+01	-2.257363e+02
5.400000e-07	-3.500446e-06	-3.427678e-09	-2.616867e+01	-2.254183e+02
5.500000e-07	-3.484891e-06	-3.420747e-09	-2.605238e+01	-2.250944e+02
5.600000e-07	-3.468956e-06	-3.414013e-09	-2.593325e+01	-2.247643e+02
5.700000e-07	-3.452684e-06	-3.409417e-09	-2.581161e+01	-2.244274e+02
5.800000e-07	-3.436166e-06	-3.398372e-09	-2.568812e+01	-2.240833e+02
5.900000e-07	-3.419424e-06	-3.388548e-09	-2.556297e+01	-2.237316e+02
6.000000e-07	-3.402444e-06	-3.378860e-09	-2.543602e+01	-2.233717e+02
6.100000e-07	-3.385191e-06	-3.373662e-09	-2.530704e+01	-2.230033e+02
6.200000e-07	-3.367782e-06	-3.368366e-09	-2.517690e+01	-2.226261e+02
6.300000e-07	-3.350262e-06	-3.366391e-09	-2.504592e+01	-2.222395e+02
6.400000e-07	-3.332529e-06	-3.358457e-09	-2.491335e+01	-2.218435e+02
6.500000e-07	-3.314541e-06	-3.353104e-09	-2.477887e+01	-2.214375e+02
6.600000e-07	-3.296310e-06	-3.346976e-09	-2.464259e+01	-2.210215e+02
6.700000e-07	-3.277892e-06	-3.340507e-09	-2.450489e+01	-2.205952e+02
6.800000e-07	-3.259230e-06	-3.327496e-09	-2.436538e+01	-2.201585e+02
6.900000e-07	-3.240193e-06	-3.316724e-09	-2.422306e+01	-2.197112e+02
7.000000e-07	-3.220879e-06	-3.307908e-09	-2.407868e+01	-2.192532e+02
7.100000e-07	-3.201447e-06	-3.303084e-09	-2.393341e+01	-2.187846e+02
7.200000e-07	-3.181861e-06	-3.294791e-09	-2.378699e+01	-2.183053e+02
7.300000e-07	-3.162098e-06	-3.286036e-09	-2.363924e+01	-2.178154e+02
7.400000e-07	-3.142252e-06	-3.278466e-09	-2.349088e+01	-2.173148e+02
7.500000e-07	-3.122359e-06	-3.273785e-09	-2.334216e+01	-2.168039e+02
7.600000e-07	-3.102347e-06	-3.266047e-09	-2.319256e+01	-2.162826e+02
7.700000e-07	-3.082145e-06	-3.252463e-09	-2.304153e+01	-2.157512e+02
7.800000e-07	-3.061837e-06	-3.238055e-09	-2.288971e+01	-2.152098e+02
7.900000e-07	-3.041362e-06	-3.227399e-09	-2.273665e+01	-2.146587e+02
8.000000e-07	-3.020557e-06	-3.218718e-09	-2.258111e+01	-2.140981e+02
8.100000e-07	-2.999411e-06	-3.208009e-09	-2.242303e+01	-2.135281e+02
8.200000e-07	-2.978026e-06	-3.195293e-09	-2.226316e+01	-2.129491e+02
8.300000e-07	-2.956535e-06	-3.184189e-09	-2.210249e+01	-2.123612e+02
8.400000e-07	-2.934826e-06	-3.176501e-09	-2.194020e+01	-2.117647e+02
8.500000e-07	-2.912912e-06	-3.167160e-09	-2.177638e+01	-2.111598e+02
8.600000e-07	-2.890888e-06	-3.156932e-09	-2.161173e+01	-2.105468e+02
8.700000e-07	-2.868587e-06	-3.146454e-09	-2.144501e+01	-2.099257e+02
8.800000e-07	-2.846080e-06	-3.137438e-09	-2.127675e+01	-2.092968e+02
8.900000e-07	-2.823423e-06	-3.126488e-09	-2.110737e+01	-2.086602e+02
9.000000e-07	-2.800506e-06	-3.114341e-09	-2.093605e+01	-2.080160e+02
9.100000e-07	-2.777322e-06	-3.101443e-09	-2.076273e+01	-2.073642e+02
9.200000e-07	-2.753958e-06	-3.090008e-09	-2.058806e+01	-2.067050e+02
9.300000e-07	-2.730454e-06	-3.079584e-09	-2.041236e+01	-2.060382e+02
9.400000e-07	-2.706800e-06	-3.070459e-09	-2.023552e+01	-2.053639e+02
9.500000e-07	-2.683032e-06	-3.061373e-09	-2.005784e+01	-2.046819e+02
9.600000e-07	-2.659178e-06	-3.052633e-09	-1.987951e+01	-2.039922e+02
9.700000e-07	-2.635229e-06	-3.039247e-09	-1.970047e+01	-2.032946e+02
9.800000e-07	-2.611162e-06	-3.026282e-09	-1.952055e+01	-2.025888e+02
9.900000e-07	-2.586909e-06	-3.014399e-09	-1.933924e+01	-2.018745e+02
1.000000e-06	-2.562506e-06	-3.003762e-09	-1.915681e+01	-2.011516e+02
1.010000e-06	-2.537910e-06	-2.991273e-09	-1.897293e+01	-2.004196e+02
1.020000e-06	-2.513053e-06	-2.980144e-09	-1.878711e+01	-1.996782e+02
1.030000e-06	-2.487873e-06	-2.971652e-09	-1.859886e+01	-1.989269e+02
1.040000e-06	-2.462348e-06	-2.961975e-09	-1.840804e+01	-1.981654e+02
1.050000e-06	-2.436604e-06	-2.950026e-09	-1.821559e+01	-1.973931e+02
1.060000e-06	-2.410516e-06	-2.936070e-09	-1.802056e+01	-1.966095e+02
1.070000e-06	-2.384007e-06	-2.920328e-09	-1.782238e+01	-1.958143e+02
1.080000e-06	-2.357174e-06	-2.905807e-09	-1.762178e+01	-1.950067e+02
1.090000e-06	-2.330113e-06	-2.891701e-09	-1.741948e+01	-1.941864e+02
1.100000e-06	-2.302857e-06	-2.874672e-09	-1.721572e+01	-1.933527e+02
1.110000e-06	-2.275442e-06	-2.857939e-09	-1.701077e+01	-1.925051e+02
1.120000e-06	-2.247889e-06	-2.846190e-09	-1.680479e+01	-1.916431e+02
1.130000e-06	-2.220232e-06	-2.835208e-09	-1.659803e+01	-1.907661e+02
1.140000e-06	-2.192484e-06	-2.817641e-09	-1.639059e+01	-1.898736e+02
1.150000e-06	-2.164666e-06	-2.800815e-09	-1.618263e+01	-1.889651e+02
1.160000e-06	-2.136808e-06	-2.788753e-09	-1.597437e+01	-1.880401e+02
1.170000e-06	-2.108900e-06	-2.774460e-09	-1.576573e+01	-1.870982e+02
1.180000e-06	-2.080873e-06	-2.754591e-09	-1.555621e+01	-1.861388e+02
1.190000e-06	-2.052676e-06	-2.734553e-09	-1.534542e+01	-1.851616e+02
1.200000e-06	-2.024391e-06	-2.719496e-09	-1.513396e+01	-1.841662e+02
1.210000e-06	-1.996012e-06	-2.708496e-09	-1.492180e+01	-1.831522e+02
1.220000e-06	-1.967427e-06	-2.693275e-09	-1.470811e+01	-1.821193e+02
1.230000e-06	-1.938620e-06	-2.674456e-09	-1.449275e+01	-1.810672e+02
1.240000e-06	-1.909735e-06	-2.656121e-09	-1.427682e+01	-1.799956e+02
1.250000e-06	-1.880748e-06	-2.640603e-09	-1.406011e+01	-1.789044e+02
1.260000e-06	-1.851577e-06	-2.623946e-09	-1.384204e+01	-1.777932e+02
1.270000e-06	-1.822245e-06	-2.602470e-09	-1.362276e+01	-1.766619e+02
1.280000e-06	-1.792765e-06	-2.580764e-09	-1.340237e+01	-1.755103e+02
1.290000e-06	-1.763176e-06	-2.562994e-09	-1.318117e+01	-1.743383e+02
1.300000e-06	-1.733473e-06	-2.545270e-09	-1.295911e+01	-1.731458e+02
1.310000e-06	-1.703715e-06	-2.525233e-09	-1.273665e+01	-1.719326e+02
1.320000e-06	-1.673902e-06	-2.505925e-09	-1.251377e+01	-1.706987e+02
1.330000e-06	-1.643997e-06	-2.488282e-09	-1.229021e+01	-1.694438e+02
1.340000e-06	-1.613984e-06	-2.471590e-09	-1.206584e+01	-1.681679e+02
1.350000e-06	-1.583817e-06	-2.453515e-09	-1.184031e+01	-1.668708e+02
1.360000e-06	-1.553531e-06	-2.431414e-09	-1.161390e+01	-1.655525e+02
1.370000e-06	-1.523190e-06	-2.407146e-09	-1.138708e+01	-1.642126e+02
1.380000e-06	-1.492765e-06	-2.386197e-09	-1.115963e+01	-1.628510e+02
1.390000e-06	-1.462295e-06	-2.366219e-09	-1.093184e+01	-1.614675e+02
1.400000e-06	-1.431814e-06	-2.344061e-09	-1.070397e+01	-1.600618e+02
1.410000e-06	-1.401235e-06	-2.321636e-09	-1.047537e+01	-1.586334e+02
1.420000e-06	-1.370526e-06	-2.301143e-09	-1.024579e+01	-1.571821e+02
1.430000e-06	-1.339633e-06	-2.282067e-09	-1.001484e+01	-1.557073e+02
1.440000e-06	-1.308585e-06	-2.263202e-09	-9.782729e+00	-1.542086e+02
1.450000e-06	-1.277454e-06	-2.241099e-09	-9.550001e+00	-1.526854e+02
1.460000e-06	-1.246268e-06	-2.214164e-09	-9.316861e+00	-1.511369e+02
1.470000e-06	-1.215008e-06	-2.186218e-09	-9.083166e+00	-1.495625e+02
1.480000e-06	-1.183601e-06	-2.162396e-09	-8.848372e+00	-1.479613e+02
1.490000e-06	-1.152110e-06	-2.140783e-09	-8.612957e+00	-1.463324e+02
1.500000e-06	-1.120609e-06	-2.117640e-09	-8.377456e+00	-1.446750e+02
1.510000e-06	-1.089022e-06	-2.094079e-09	-8.141319e+00	-1.429878e+02
1.520000e-06	-1.057345e-06	-2.068476e-09	-7.904507e+00	-1.412698e+02
1.530000e-06	-1.025639e-06	-2.041526e-09	-7.667480e+00	-1.395198e+02
1.540000e-06	-9.938848e-07	-2.013289e-09	-7.430094e+00	-1.377364e+02
1.550000e-06	-9.621014e-07	-1.984115e-09	-7.192487e+00	-1.359184e+02
1.560000e-06	-9.303034e-07	-1.953611e-09	-6.954771e+00	-1.340644e+02
1.570000e-06	-8.984819e-07	-1.923547e-09	-6.716879e+00	-1.321728e+02
1.580000e-06	-8.665979e-07	-1.894722e-09	-6.478521e+00	-1.302422e+02
1.590000e-06	-8.346916e-07	-1.863526e-09	-6.239995e+00	-1.282710e+02
1.600000e-06	-8.027775e-07	-1.829384e-09	-6.001412e+00	-1.262577e+02
1.610000e-06	-7.707862e-07	-1.794725e-09	-5.762251e+00	-1.242006e+02
1.620000e-06	-7.387422e-07	-1.760857e-09	-5.522696e+00	-1.220981e+02
1.630000e-06	-7.066743e-07	-1.727776e-09	-5.282962e+00	-1.199486e+02
1.640000e-06	-6.745923e-07	-1.694852e-09	-5.043123e+00	-1.177506e+02
1.650000e-06	-6.425321e-07	-1.657968e-09	-4.803447e+00	-1.155024e+02
1.660000e-06	-6.104344e-07	-1.619746e-09	-4.563491e+00	-1.132026e+02
1.670000e-06	-5.783057e-07	-1.584713e-09	-4.323303e+00	-1.108495e+02
1.680000e-06	-5.462017e-07	-1.551564e-09	-4.083300e+00	-1.084419e+02
1.690000e-06	-5.140640e-07	-1.516217e-09	-3.843044e+00	-1.059784e+02
1.700000e-06	-4.818315e-07	-1.479738e-09	-3.602080e+00	-1.034577e+02
1.710000e-06	-4.494732e-07	-1.444309e-09	-3.360176e+00	-1.008787e+02
1.720000e-06	-4.170692e-07	-1.408776e-09	-3.117930e+00	-9.824036e+01
1.730000e-06	-3.846891e-07	-1.370092e-09	-2.875862e+00	-9.554180e+01
1.740000e-06	-3.523361e-07	-1.328964e-09	-2.633998e+00	-9.278226e+01
1.750000e-06	-3.199652e-07	-1.288724e-09	-2.391999e+00	-8.996112e+01
1.760000e-06	-2.875234e-07	-1.249309e-09	-2.149470e+00	-8.707796e+01
1.770000e-06	-2.550835e-07	-1.207891e-09	-1.906956e+00	-8.413251e+01
1.780000e-06	-2.226489e-07	-1.163659e-09	-1.664481e+00	-8.112469e+01
1.790000e-06	-1.901845e-07	-1.119524e-09	-1.421783e+00	-7.805460e+01
1.800000e-06	-1.577122e-07	-1.075008e-09	-1.179026e+00	-7.492255e+01
1.810000e-06	-1.251681e-07	-1.028765e-09	-9.357327e-01	-7.172904e+01
1.820000e-06	-9.255263e-08	-9.825738e-10	-6.919058e-01	-6.847479e+01
1.830000e-06	-5.994464e-08	-9.354758e-10	-4.481347e-01	-6.516071e+01
1.840000e-06	-2.734148e-08	-8.867314e-10	-2.043997e-01	-6.178795e+01
1.850000e-06	5.302053e-09	-8.394271e-10	3.963714e-02	-5.835785e+01
1.860000e-06	3.789845e-08	-7.907161e-10	2.833216e-01	-5.487197e+01
1.870000e-06	7.045424e-08	-7.382204e-10	5.267025e-01	-5.133207e+01
1.880000e-06	1.030363e-07	-6.845957e-10	7.702800e-01	-4.774013e+01
1.890000e-06	1.355810e-07	-6.315920e-10	1.013578e+00	-4.409833e+01
1.900000e-06	1.681355e-07	-5.780154e-10	1.256949e+00	-4.040903e+01
1.910000e-06	2.007008e-07	-5.231834e-10	1.500401e+00	-3.667478e+01
1.920000e-06	2.332240e-07	-4.680448e-10	1.743538e+00	-3.289833e+01
1.930000e-06	2.657347e-07	-4.111953e-10	1.986582e+00	-2.908257e+01
1.940000e-06	2.981747e-07	-3.524499e-10	2.229097e+00	-2.523055e+01
1.950000e-06	3.305284e-07	-2.953148e-10	2.470968e+00	-2.134549e+01
1.960000e-06	3.628835e-07	-2.395780e-10	2.712848e+00	-1.743072e+01
1.970000e-06	3.952641e-07	-1.812123e-10	2.954919e+00	-1.348969e+01
1.980000e-06	4.276269e-07	-1.211390e-10	3.196858e+00	-9.525964e+00
1.990000e-06	4.599537e-07	-6.275134e-11	3.438526e+00	-5.543179e+00
2.000000e-06	4.922794e-07	-5.515461e-12	3.680187e+00	-1.545055e+00
2.010000e-06	5.245728e-07	5.430341e-11	3.921606e+00	2.464633e+00
2.020000e-06	5.568152e-07	1.174870e-10	4.162644e+00	6.482072e+00
2.030000e-06	5.890330e-07	1.776085e-10	4.403499e+00	1.050343e+01
2.040000e-06	6.211699e-07	2.327743e-10	4.643748e+00	1.452485e+01
2.050000e-06	6.532627e-07	2.879699e-10	4.883668e+00	1.854251e+01
2.060000e-06	6.853466e-07	3.480394e-10	5.123520e+00	2.255260e+01
2.070000e-06	7.173655e-07	4.098065e-10	5.362888e+00	2.655136e+01
2.080000e-06	7.493430e-07	4.673875e-10	5.601945e+00	3.053507e+01
2.090000e-06	7.813327e-07	5.220864e-10	5.841094e+00	3.450011e+01
2.100000e-06	8.133079e-07	5.802563e-10	6.080135e+00	3.844293e+01
2.110000e-06	8.452074e-07	6.422548e-10	6.318609e+00	4.236008e+01
2.120000e-06	8.770919e-07	7.010531e-10	6.556972e+00	4.624825e+01
2.130000e-06	9.089895e-07	7.559232e-10	6.795433e+00	5.010421e+01
2.140000e-06	9.408486e-07	8.115310e-10	7.033605e+00	5.392491e+01
2.150000e-06	9.726272e-07	8.677170e-10	7.271176e+00	5.770744e+01
2.160000e-06	1.004383e-06	9.223796e-10	7.508573e+00	6.144902e+01
2.170000e-06	1.036163e-06	9.744069e-10	7.746155e+00	6.514707e+01
2.180000e-06	1.067906e-06	1.024965e-09	7.983464e+00	6.879916e+01
2.190000e-06	1.099634e-06	1.078120e-09	8.220658e+00	7.240304e+01
2.200000e-06	1.131305e-06	1.129772e-09	8.457417e+00	7.595664e+01
2.210000e-06	1.162912e-06	1.178409e-09	8.693707e+00	7.945809e+01
2.220000e-06	1.194438e-06	1.227409e-09	8.929390e+00	8.290568e+01
2.230000e-06	1.225826e-06	1.275626e-09	9.164042e+00	8.629791e+01
2.240000e-06	1.257173e-06	1.322302e-09	9.398385e+00	8.963347e+01
2.250000e-06	1.288455e-06	1.367840e-09	9.632242e+00	9.291120e+01
2.260000e-06	1.319547e-06	1.411106e-09	9.864680e+00	9.613017e+01
2.270000e-06	1.350544e-06	1.453452e-09	1.009641e+01	9.928960e+01
2.280000e-06	1.381412e-06	1.497206e-09	1.032717e+01	1.023889e+02
2.290000e-06	1.412106e-06	1.541431e-09	1.055664e+01	1.054276e+02
2.300000e-06	1.442686e-06	1.583904e-09	1.078524e+01	1.084056e+02
2.310000e-06	1.473093e-06	1.625788e-09	1.101256e+01	1.113225e+02
2.320000e-06	1.503443e-06	1.668380e-09	1.123945e+01	1.141787e+02
2.330000e-06	1.533777e-06	1.708076e-09	1.146623e+01	1.169741e+02
2.340000e-06	1.563996e-06	1.745004e-09	1.169214e+01	1.197092e+02
2.350000e-06	1.594079e-06	1.783888e-09	1.191703e+01	1.223843e+02
2.360000e-06	1.624013e-06	1.824884e-09	1.214081e+01	1.250001e+02
2.370000e-06	1.653819e-06	1.861833e-09	1.236363e+01	1.275572e+02
2.380000e-06	1.683537e-06	1.896053e-09	1.258580e+01	1.300565e+02
2.390000e-06	1.713209e-06	1.932165e-09	1.280763e+01	1.324986e+02
2.400000e-06	1.742879e-06	1.969069e-09	1.302943e+01	1.348847e+02
2.410000e-06	1.772444e-06	2.005201e-09	1.325045e+01	1.372156e+02
2.420000e-06	1.801884e-06	2.039096e-09	1.347054e+01	1.394925e+02
2.430000e-06	1.831209e-06	2.069849e-09	1.368977e+01	1.417164e+02
2.440000e-06	1.860360e-06	2.101574e-09	1.390770e+01	1.438886e+02
2.450000e-06	1.889352e-06	2.136406e-09	1.412444e+01	1.460102e+02
2.460000e-06	1.918206e-06	2.169727e-09	1.434014e+01	1.480824e+02
2.470000e-06	1.946904e-06	2.199249e-09	1.455469e+01	1.501064e+02
2.480000e-06	1.975446e-06	2.227708e-09	1.476806e+01	1.520835e+02
2.490000e-06	2.003792e-06	2.257392e-09	1.497997e+01	1.540150e+02
2.500000e-06	2.032002e-06	2.288598e-09	1.519086e+01	1.559020e+02
2.510000e-06	2.060146e-06	2.319434e-09	1.540126e+01	1.577459e+02
2.520000e-06	2.088180e-06	2.346834e-09	1.561083e+01	1.595477e+02
2.530000e-06	2.116143e-06	2.373197e-09	1.581988e+01	1.613088e+02
2.540000e-06	2.144047e-06	2.399600e-09	1.602849e+01	1.630304e+02
2.550000e-06	2.171889e-06	2.423555e-09	1.623663e+01	1.647135e+02
2.560000e-06	2.199674e-06	2.446014e-09	1.644434e+01	1.663593e+02
2.570000e-06	2.227386e-06	2.469010e-09	1.665151e+01	1.679690e+02
2.580000e-06	2.255035e-06	2.495336e-09	1.685821e+01	1.695435e+02
2.590000e-06	2.282569e-06	2.522194e-09	1.706405e+01	1.710840e+02
2.600000e-06	2.309943e-06	2.547922e-09	1.726869e+01	1.725913e+02
2.610000e-06	2.337090e-06	2.575245e-09	1.747164e+01	1.740666e+02
2.620000e-06	2.363961e-06	2.599636e-09	1.767253e+01	1.755107e+02
2.630000e-06	2.390498e-06	2.620051e-09	1.787090e+01	1.769245e+02
2.640000e-06	2.416700e-06	2.639788e-09	1.806679e+01	1.783089e+02
2.650000e-06	2.442683e-06	2.659058e-09	1.826103e+01	1.796648e+02
2.660000e-06	2.468374e-06	2.678047e-09	1.845309e+01	1.809928e+02
2.670000e-06	2.493700e-06	2.697656e-09	1.864243e+01	1.822938e+02
2.680000e-06	2.518728e-06	2.720484e-09	1.882953e+01	1.835686e+02
2.690000e-06	2.543426e-06	2.744774e-09	1.901417e+01	1.848177e+02
2.700000e-06	2.567791e-06	2.766142e-09	1.919632e+01	1.860420e+02
2.710000e-06	2.592073e-06	2.786139e-09	1.937784e+01	1.872420e+02
2.720000e-06	2.616295e-06	2.805175e-09	1.955893e+01	1.884184e+02
2.730000e-06	2.640341e-06	2.821746e-09	1.973869e+01	1.895717e+02
2.740000e-06	2.664205e-06	2.836991e-09	1.991709e+01	1.907026e+02
2.750000e-06	2.687911e-06	2.851373e-09	2.009431e+01	1.918115e+02
2.760000e-06	2.711569e-06	2.866466e-09	2.027118e+01	1.928991e+02
2.770000e-06	2.735088e-06	2.884433e-09	2.044699e+01	1.939658e+02
2.780000e-06	2.758423e-06	2.902479e-09	2.062145e+01	1.950122e+02
2.790000e-06	2.781543e-06	2.918466e-09	2.079428e+01	1.960386e+02
2.800000e-06	2.804379e-06	2.934696e-09	2.096500e+01	1.970455e+02
2.810000e-06	2.827010e-06	2.950807e-09	2.113419e+01	1.980335e+02
2.820000e-06	2.849486e-06	2.966313e-09	2.130222e+01	1.990028e+02
2.830000e-06	2.871806e-06	2.981875e-09	2.146908e+01	1.999539e+02
2.840000e-06	2.893885e-06	2.996627e-09	2.163413e+01	2.008872e+02
2.850000e-06	2.915787e-06	3.010303e-09	2.179787e+01	2.018030e+02
2.860000e-06	2.937559e-06	3.024556e-09	2.196063e+01	2.027017e+02
2.870000e-06	2.959171e-06	3.040516e-09	2.212220e+01	2.035836e+02
2.880000e-06	2.980651e-06	3.055923e-09	2.228278e+01	2.044491e+02
2.890000e-06	3.001927e-06	3.072772e-09	2.244183e+01	2.052984e+02
2.900000e-06	3.022882e-06	3.091302e-09	2.259849e+01	2.061318e+02
