# Temperatura_=_20.0
# Concentracion g/m^3_=_9000.0
# C_Vs_to_Am_M_A/Vsm_=_65563218390.804596
# pendiente_HvsI_1/m_=_3716.3
# ordenada_HvsI_A/m_=_1297.0
# frecuencia_Hz_=_135017.78374614587

Tiempo_(s)	Campo_(V.s)	Magnetizacion_(V.s)	Campo_(kA/m)	Magnetizacion_(A/m)
0.000000e+00	-3.909847e-06	-3.601507e-09	-2.913758e+01	-2.342169e+02
1.000000e-08	-3.910036e-06	-3.599016e-09	-2.913899e+01	-2.342776e+02
2.000000e-08	-3.910029e-06	-3.597530e-09	-2.913894e+01	-2.343267e+02
3.000000e-08	-3.909819e-06	-3.597903e-09	-2.913737e+01	-2.343640e+02
4.000000e-08	-3.909417e-06	-3.593315e-09	-2.913438e+01	-2.343891e+02
5.000000e-08	-3.908803e-06	-3.580898e-09	-2.912981e+01	-2.344018e+02
6.000000e-08	-3.907814e-06	-3.559579e-09	-2.912244e+01	-2.344020e+02
7.000000e-08	-3.906322e-06	-3.551598e-09	-2.911132e+01	-2.343896e+02
8.000000e-08	-3.904256e-06	-3.598049e-09	-2.909592e+01	-2.343645e+02
9.000000e-08	-3.901586e-06	-3.667290e-09	-2.907602e+01	-2.343265e+02
1.000000e-07	-3.898456e-06	-3.662987e-09	-2.905270e+01	-2.342759e+02
1.100000e-07	-3.895072e-06	-3.608095e-09	-2.902747e+01	-2.342125e+02
1.200000e-07	-3.891488e-06	-3.563633e-09	-2.900077e+01	-2.341366e+02
1.300000e-07	-3.887681e-06	-3.475365e-09	-2.897240e+01	-2.340482e+02
1.400000e-07	-3.883737e-06	-3.489470e-09	-2.894301e+01	-2.339476e+02
1.500000e-07	-3.879697e-06	-3.571510e-09	-2.891290e+01	-2.338349e+02
1.600000e-07	-3.875496e-06	-3.602511e-09	-2.888159e+01	-2.337106e+02
1.700000e-07	-3.871110e-06	-3.551526e-09	-2.884890e+01	-2.335747e+02
1.800000e-07	-3.866457e-06	-3.497406e-09	-2.881423e+01	-2.334279e+02
1.900000e-07	-3.861430e-06	-3.525183e-09	-2.877677e+01	-2.332703e+02
2.000000e-07	-3.856010e-06	-3.567534e-09	-2.873637e+01	-2.331024e+02
2.100000e-07	-3.850296e-06	-3.586424e-09	-2.869379e+01	-2.329247e+02
2.200000e-07	-3.844400e-06	-3.549094e-09	-2.864985e+01	-2.327377e+02
2.300000e-07	-3.838298e-06	-3.514554e-09	-2.860437e+01	-2.325417e+02
2.400000e-07	-3.831953e-06	-3.512414e-09	-2.855709e+01	-2.323373e+02
2.500000e-07	-3.825275e-06	-3.595679e-09	-2.850733e+01	-2.321251e+02
2.600000e-07	-3.818264e-06	-3.600571e-09	-2.845507e+01	-2.319054e+02
2.700000e-07	-3.811000e-06	-3.491044e-09	-2.840095e+01	-2.316788e+02
2.800000e-07	-3.803478e-06	-3.440022e-09	-2.834489e+01	-2.314458e+02
2.900000e-07	-3.795781e-06	-3.554898e-09	-2.828753e+01	-2.312068e+02
3.000000e-07	-3.787954e-06	-3.596177e-09	-2.822920e+01	-2.309624e+02
3.100000e-07	-3.779967e-06	-3.495383e-09	-2.816968e+01	-2.307130e+02
3.200000e-07	-3.771735e-06	-3.435759e-09	-2.810832e+01	-2.304590e+02
3.300000e-07	-3.763219e-06	-3.510574e-09	-2.804486e+01	-2.302009e+02
3.400000e-07	-3.754499e-06	-3.568254e-09	-2.797988e+01	-2.299389e+02
3.500000e-07	-3.745514e-06	-3.515001e-09	-2.791292e+01	-2.296734e+02
3.600000e-07	-3.736085e-06	-3.453965e-09	-2.784265e+01	-2.294048e+02
3.700000e-07	-3.726094e-06	-3.465797e-09	-2.776819e+01	-2.291332e+02
3.800000e-07	-3.715613e-06	-3.518155e-09	-2.769008e+01	-2.288589e+02
3.900000e-07	-3.704643e-06	-3.516411e-09	-2.760833e+01	-2.285820e+02
4.000000e-07	-3.693210e-06	-3.478812e-09	-2.752313e+01	-2.283027e+02
4.100000e-07	-3.681521e-06	-3.442850e-09	-2.743602e+01	-2.280211e+02
4.200000e-07	-3.669647e-06	-3.464155e-09	-2.734753e+01	-2.277371e+02
4.300000e-07	-3.657550e-06	-3.500181e-09	-2.725738e+01	-2.274508e+02
4.400000e-07	-3.645193e-06	-3.497598e-09	-2.716529e+01	-2.271622e+02
4.500000e-07	-3.632510e-06	-3.432367e-09	-2.707077e+01	-2.268710e+02
4.600000e-07	-3.619568e-06	-3.415384e-09	-2.697432e+01	-2.265772e+02
4.700000e-07	-3.606456e-06	-3.465114e-09	-2.687660e+01	-2.262805e+02
4.800000e-07	-3.593055e-06	-3.484006e-09	-2.677673e+01	-2.259808e+02
4.900000e-07	-3.579359e-06	-3.409715e-09	-2.667467e+01	-2.256778e+02
5.000000e-07	-3.565461e-06	-3.374119e-09	-2.657110e+01	-2.253712e+02
5.100000e-07	-3.551260e-06	-3.421775e-09	-2.646527e+01	-2.250606e+02
5.200000e-07	-3.536783e-06	-3.447249e-09	-2.635738e+01	-2.247458e+02
5.300000e-07	-3.521948e-06	-3.396967e-09	-2.624682e+01	-2.244263e+02
5.400000e-07	-3.506594e-06	-3.374239e-09	-2.613240e+01	-2.241018e+02
5.500000e-07	-3.490704e-06	-3.402334e-09	-2.601398e+01	-2.237719e+02
5.600000e-07	-3.474504e-06	-3.413062e-09	-2.589325e+01	-2.234361e+02
5.700000e-07	-3.458242e-06	-3.388079e-09	-2.577206e+01	-2.230941e+02
5.800000e-07	-3.441643e-06	-3.367613e-09	-2.564836e+01	-2.227454e+02
5.900000e-07	-3.424751e-06	-3.356828e-09	-2.552247e+01	-2.223896e+02
6.000000e-07	-3.407714e-06	-3.353130e-09	-2.539551e+01	-2.220264e+02
6.100000e-07	-3.390429e-06	-3.359073e-09	-2.526670e+01	-2.216553e+02
6.200000e-07	-3.372925e-06	-3.349892e-09	-2.513625e+01	-2.212760e+02
6.300000e-07	-3.355255e-06	-3.324913e-09	-2.500457e+01	-2.208881e+02
6.400000e-07	-3.337427e-06	-3.321688e-09	-2.487171e+01	-2.204913e+02
6.500000e-07	-3.319434e-06	-3.342997e-09	-2.473761e+01	-2.200853e+02
6.600000e-07	-3.301254e-06	-3.331234e-09	-2.460213e+01	-2.196698e+02
6.700000e-07	-3.282817e-06	-3.297322e-09	-2.446473e+01	-2.192445e+02
6.800000e-07	-3.264061e-06	-3.287205e-09	-2.432496e+01	-2.188093e+02
6.900000e-07	-3.244961e-06	-3.300325e-09	-2.418261e+01	-2.183640e+02
7.000000e-07	-3.225661e-06	-3.286894e-09	-2.403878e+01	-2.179083e+02
7.100000e-07	-3.206172e-06	-3.261153e-09	-2.389355e+01	-2.174423e+02
7.200000e-07	-3.186425e-06	-3.253732e-09	-2.374638e+01	-2.169657e+02
7.300000e-07	-3.166545e-06	-3.259497e-09	-2.359823e+01	-2.164787e+02
7.400000e-07	-3.146594e-06	-3.250488e-09	-2.344955e+01	-2.159810e+02
7.500000e-07	-3.126553e-06	-3.236265e-09	-2.330020e+01	-2.154728e+02
7.600000e-07	-3.106420e-06	-3.223796e-09	-2.315016e+01	-2.149541e+02
7.700000e-07	-3.086179e-06	-3.217799e-09	-2.299932e+01	-2.144249e+02
7.800000e-07	-3.065708e-06	-3.210171e-09	-2.284676e+01	-2.138854e+02
7.900000e-07	-3.045006e-06	-3.200849e-09	-2.269248e+01	-2.133356e+02
8.000000e-07	-3.024009e-06	-3.183515e-09	-2.253601e+01	-2.127757e+02
8.100000e-07	-3.002716e-06	-3.170161e-09	-2.237732e+01	-2.122058e+02
8.200000e-07	-2.981214e-06	-3.167483e-09	-2.221708e+01	-2.116261e+02
8.300000e-07	-2.959512e-06	-3.161113e-09	-2.205535e+01	-2.110367e+02
8.400000e-07	-2.937686e-06	-3.140049e-09	-2.189269e+01	-2.104378e+02
8.500000e-07	-2.915644e-06	-3.125285e-09	-2.172842e+01	-2.098296e+02
8.600000e-07	-2.893352e-06	-3.126148e-09	-2.156230e+01	-2.092122e+02
8.700000e-07	-2.870898e-06	-3.122559e-09	-2.139496e+01	-2.085858e+02
8.800000e-07	-2.848355e-06	-3.104817e-09	-2.122696e+01	-2.079505e+02
8.900000e-07	-2.825577e-06	-3.086857e-09	-2.105722e+01	-2.073064e+02
9.000000e-07	-2.802449e-06	-3.082152e-09	-2.088486e+01	-2.066536e+02
9.100000e-07	-2.779139e-06	-3.076159e-09	-2.071114e+01	-2.059923e+02
9.200000e-07	-2.755662e-06	-3.058581e-09	-2.053619e+01	-2.053225e+02
9.300000e-07	-2.732022e-06	-3.038809e-09	-2.036001e+01	-2.046442e+02
9.400000e-07	-2.708297e-06	-3.032092e-09	-2.018320e+01	-2.039574e+02
9.500000e-07	-2.684447e-06	-3.029093e-09	-2.000546e+01	-2.032621e+02
9.600000e-07	-2.660483e-06	-3.018149e-09	-1.982688e+01	-2.025583e+02
9.700000e-07	-2.636399e-06	-2.998513e-09	-1.964740e+01	-2.018458e+02
9.800000e-07	-2.612166e-06	-2.983873e-09	-1.946680e+01	-2.011245e+02
9.900000e-07	-2.587667e-06	-2.976662e-09	-1.928423e+01	-2.003944e+02
1.000000e-06	-2.562997e-06	-2.969116e-09	-1.910038e+01	-1.996551e+02
1.010000e-06	-2.538276e-06	-2.953264e-09	-1.891614e+01	-1.989065e+02
1.020000e-06	-2.513361e-06	-2.937930e-09	-1.873047e+01	-1.981483e+02
1.030000e-06	-2.488126e-06	-2.930106e-09	-1.854241e+01	-1.973802e+02
1.040000e-06	-2.462514e-06	-2.926692e-09	-1.835154e+01	-1.966019e+02
1.050000e-06	-2.436499e-06	-2.913503e-09	-1.815767e+01	-1.958131e+02
1.060000e-06	-2.410205e-06	-2.894181e-09	-1.796171e+01	-1.950135e+02
1.070000e-06	-2.383628e-06	-2.879260e-09	-1.776365e+01	-1.942025e+02
1.080000e-06	-2.356669e-06	-2.869980e-09	-1.756275e+01	-1.933800e+02
1.090000e-06	-2.329436e-06	-2.856607e-09	-1.735979e+01	-1.925453e+02
1.100000e-06	-2.302016e-06	-2.838039e-09	-1.715545e+01	-1.916981e+02
1.110000e-06	-2.274497e-06	-2.823586e-09	-1.695037e+01	-1.908380e+02
1.120000e-06	-2.246907e-06	-2.814378e-09	-1.674476e+01	-1.899645e+02
1.130000e-06	-2.219193e-06	-2.802848e-09	-1.653822e+01	-1.890772e+02
1.140000e-06	-2.191357e-06	-2.786342e-09	-1.633078e+01	-1.881756e+02
1.150000e-06	-2.163457e-06	-2.770814e-09	-1.612286e+01	-1.872593e+02
1.160000e-06	-2.135486e-06	-2.756323e-09	-1.591441e+01	-1.863278e+02
1.170000e-06	-2.107430e-06	-2.740927e-09	-1.570532e+01	-1.853808e+02
1.180000e-06	-2.079287e-06	-2.722984e-09	-1.549560e+01	-1.844178e+02
1.190000e-06	-2.051067e-06	-2.704222e-09	-1.528529e+01	-1.834384e+02
1.200000e-06	-2.022759e-06	-2.688115e-09	-1.507432e+01	-1.824423e+02
1.210000e-06	-1.994303e-06	-2.673953e-09	-1.486226e+01	-1.814291e+02
1.220000e-06	-1.965569e-06	-2.656019e-09	-1.464813e+01	-1.803984e+02
1.230000e-06	-1.936649e-06	-2.635118e-09	-1.443260e+01	-1.793498e+02
1.240000e-06	-1.907653e-06	-2.614362e-09	-1.421652e+01	-1.782832e+02
1.250000e-06	-1.878527e-06	-2.598221e-09	-1.399946e+01	-1.771982e+02
1.260000e-06	-1.849251e-06	-2.580867e-09	-1.378128e+01	-1.760945e+02
1.270000e-06	-1.819815e-06	-2.560697e-09	-1.356192e+01	-1.749718e+02
1.280000e-06	-1.790242e-06	-2.540323e-09	-1.334153e+01	-1.738299e+02
1.290000e-06	-1.760587e-06	-2.522206e-09	-1.312053e+01	-1.726685e+02
1.300000e-06	-1.730871e-06	-2.504086e-09	-1.289908e+01	-1.714875e+02
1.310000e-06	-1.701037e-06	-2.484253e-09	-1.267674e+01	-1.702865e+02
1.320000e-06	-1.671012e-06	-2.462797e-09	-1.245299e+01	-1.690654e+02
1.330000e-06	-1.640842e-06	-2.442528e-09	-1.222814e+01	-1.678238e+02
1.340000e-06	-1.610630e-06	-2.425330e-09	-1.200300e+01	-1.665617e+02
1.350000e-06	-1.580386e-06	-2.406800e-09	-1.177761e+01	-1.652786e+02
1.360000e-06	-1.550099e-06	-2.384749e-09	-1.155190e+01	-1.639743e+02
1.370000e-06	-1.519716e-06	-2.362457e-09	-1.132547e+01	-1.626485e+02
1.380000e-06	-1.489122e-06	-2.342131e-09	-1.109748e+01	-1.613010e+02
1.390000e-06	-1.458420e-06	-2.321524e-09	-1.086867e+01	-1.599312e+02
1.400000e-06	-1.427702e-06	-2.301254e-09	-1.063975e+01	-1.585389e+02
1.410000e-06	-1.396894e-06	-2.279658e-09	-1.041015e+01	-1.571235e+02
1.420000e-06	-1.365921e-06	-2.256486e-09	-1.017934e+01	-1.556847e+02
1.430000e-06	-1.334840e-06	-2.235080e-09	-9.947710e+00	-1.542218e+02
1.440000e-06	-1.303702e-06	-2.215680e-09	-9.715653e+00	-1.527342e+02
1.450000e-06	-1.272439e-06	-2.193009e-09	-9.482673e+00	-1.512214e+02
1.460000e-06	-1.241010e-06	-2.168295e-09	-9.248452e+00	-1.496826e+02
1.470000e-06	-1.209491e-06	-2.144033e-09	-9.013562e+00	-1.481170e+02
1.480000e-06	-1.177929e-06	-2.120181e-09	-8.778348e+00	-1.465238e+02
1.490000e-06	-1.146254e-06	-2.096057e-09	-8.542298e+00	-1.449021e+02
1.500000e-06	-1.114506e-06	-2.071499e-09	-8.305702e+00	-1.432509e+02
1.510000e-06	-1.082716e-06	-2.045264e-09	-8.068791e+00	-1.415691e+02
1.520000e-06	-1.050907e-06	-2.018591e-09	-7.831740e+00	-1.398557e+02
1.530000e-06	-1.019068e-06	-1.993642e-09	-7.594462e+00	-1.381096e+02
1.540000e-06	-9.871767e-07	-1.967422e-09	-7.356796e+00	-1.363294e+02
1.550000e-06	-9.552548e-07	-1.936707e-09	-7.118903e+00	-1.345140e+02
1.560000e-06	-9.233142e-07	-1.904414e-09	-6.880869e+00	-1.326619e+02
1.570000e-06	-8.913581e-07	-1.875735e-09	-6.642722e+00	-1.307719e+02
1.580000e-06	-8.593438e-07	-1.848628e-09	-6.404139e+00	-1.288424e+02
1.590000e-06	-8.272949e-07	-1.817755e-09	-6.165299e+00	-1.268722e+02
1.600000e-06	-7.952415e-07	-1.784877e-09	-5.926426e+00	-1.248596e+02
1.610000e-06	-7.631410e-07	-1.753288e-09	-5.687201e+00	-1.228032e+02
1.620000e-06	-7.310012e-07	-1.722713e-09	-5.447684e+00	-1.207016e+02
1.630000e-06	-6.988363e-07	-1.690280e-09	-5.207979e+00	-1.185532e+02
1.640000e-06	-6.666939e-07	-1.654976e-09	-4.968443e+00	-1.163566e+02
1.650000e-06	-6.345205e-07	-1.618892e-09	-4.728675e+00	-1.141103e+02
1.660000e-06	-6.022579e-07	-1.584471e-09	-4.488243e+00	-1.118129e+02
1.670000e-06	-5.699251e-07	-1.551147e-09	-4.247287e+00	-1.094632e+02
1.680000e-06	-5.376199e-07	-1.517930e-09	-4.006537e+00	-1.070597e+02
1.690000e-06	-5.053896e-07	-1.483567e-09	-3.766345e+00	-1.046012e+02
1.700000e-06	-4.731178e-07	-1.448712e-09	-3.525844e+00	-1.020867e+02
1.710000e-06	-4.407840e-07	-1.414811e-09	-3.284881e+00	-9.951500e+01
1.720000e-06	-4.083497e-07	-1.379549e-09	-3.043169e+00	-9.688527e+01
1.730000e-06	-3.758280e-07	-1.341087e-09	-2.800805e+00	-9.419665e+01
1.740000e-06	-3.432889e-07	-1.300326e-09	-2.558312e+00	-9.144846e+01
1.750000e-06	-3.107245e-07	-1.261372e-09	-2.315631e+00	-8.864016e+01
1.760000e-06	-2.781757e-07	-1.222272e-09	-2.073066e+00	-8.577134e+01
1.770000e-06	-2.455977e-07	-1.181196e-09	-1.830282e+00	-8.284179e+01
1.780000e-06	-2.129721e-07	-1.139407e-09	-1.587144e+00	-7.985143e+01
1.790000e-06	-1.803682e-07	-1.097695e-09	-1.344169e+00	-7.680038e+01
1.800000e-06	-1.478064e-07	-1.053358e-09	-1.101507e+00	-7.368892e+01
1.810000e-06	-1.153594e-07	-1.006282e-09	-8.596994e-01	-7.051755e+01
1.820000e-06	-8.288140e-08	-9.603207e-10	-6.176620e-01	-6.728693e+01
1.830000e-06	-5.037302e-08	-9.131950e-10	-3.753979e-01	-6.399795e+01
1.840000e-06	-1.786561e-08	-8.636580e-10	-1.331410e-01	-6.065168e+01
1.850000e-06	1.476547e-08	-8.151498e-10	1.100376e-01	-5.724939e+01
1.860000e-06	4.744929e-08	-7.669095e-10	3.536091e-01	-5.379255e+01
1.870000e-06	8.008964e-08	-7.167078e-10	5.968568e-01	-5.028284e+01
1.880000e-06	1.127155e-07	-6.640621e-10	8.399968e-01	-4.672213e+01
1.890000e-06	1.453513e-07	-6.090820e-10	1.083210e+00	-4.311248e+01
1.900000e-06	1.779277e-07	-5.545991e-10	1.325982e+00	-3.945615e+01
1.910000e-06	2.105190e-07	-5.020164e-10	1.568863e+00	-3.575555e+01
1.920000e-06	2.431772e-07	-4.473532e-10	1.812244e+00	-3.201330e+01
1.930000e-06	2.757456e-07	-3.894744e-10	2.054955e+00	-2.823218e+01
1.940000e-06	3.081529e-07	-3.303429e-10	2.296466e+00	-2.441509e+01
1.950000e-06	3.405564e-07	-2.728717e-10	2.537949e+00	-2.056512e+01
1.960000e-06	3.730059e-07	-2.160538e-10	2.779774e+00	-1.668547e+01
1.970000e-06	4.053980e-07	-1.571506e-10	3.021172e+00	-1.277946e+01
1.980000e-06	4.377392e-07	-9.836536e-11	3.262190e+00	-8.850518e+00
1.990000e-06	4.700534e-07	-4.153628e-11	3.503007e+00	-4.902174e+00
2.000000e-06	5.023466e-07	1.460875e-11	3.743668e+00	-9.380286e-01
2.010000e-06	5.346147e-07	7.388232e-11	3.984141e+00	3.038252e+00
2.020000e-06	5.668612e-07	1.362858e-10	4.224454e+00	7.022955e+00
2.030000e-06	5.990707e-07	1.965249e-10	4.464490e+00	1.101233e+01
2.040000e-06	6.312926e-07	2.520973e-10	4.704619e+00	1.500262e+01
2.050000e-06	6.635143e-07	3.066641e-10	4.944747e+00	1.899006e+01
2.060000e-06	6.956593e-07	3.648354e-10	5.184303e+00	2.297091e+01
2.070000e-06	7.277447e-07	4.231437e-10	5.423416e+00	2.694143e+01
2.080000e-06	7.598229e-07	4.770017e-10	5.662473e+00	3.089798e+01
2.090000e-06	7.918903e-07	5.317584e-10	5.901451e+00	3.483693e+01
2.100000e-06	8.239234e-07	5.922263e-10	6.140174e+00	3.875476e+01
2.110000e-06	8.559516e-07	6.526308e-10	6.378859e+00	4.264801e+01
2.120000e-06	8.879429e-07	7.091421e-10	6.617270e+00	4.651336e+01
2.130000e-06	9.199235e-07	7.648181e-10	6.855601e+00	5.034758e+01
2.140000e-06	9.519009e-07	8.199311e-10	7.093908e+00	5.414756e+01
2.150000e-06	9.838100e-07	8.739438e-10	7.331706e+00	5.791036e+01
2.160000e-06	1.015686e-06	9.273496e-10	7.569256e+00	6.163316e+01
2.170000e-06	1.047554e-06	9.770741e-10	7.806748e+00	6.531330e+01
2.180000e-06	1.079341e-06	1.026080e-09	8.043640e+00	6.894829e+01
2.190000e-06	1.111062e-06	1.077186e-09	8.280036e+00	7.253582e+01
2.200000e-06	1.142769e-06	1.126259e-09	8.516322e+00	7.607374e+01
2.210000e-06	1.174418e-06	1.173608e-09	8.752185e+00	7.956009e+01
2.220000e-06	1.205966e-06	1.223171e-09	8.987291e+00	8.299308e+01
2.230000e-06	1.237404e-06	1.272287e-09	9.221580e+00	8.637112e+01
2.240000e-06	1.268762e-06	1.318140e-09	9.455272e+00	8.969280e+01
2.250000e-06	1.300056e-06	1.362893e-09	9.688484e+00	9.295690e+01
2.260000e-06	1.331200e-06	1.406798e-09	9.920580e+00	9.616239e+01
2.270000e-06	1.362211e-06	1.450115e-09	1.015169e+01	9.930840e+01
2.280000e-06	1.393115e-06	1.493742e-09	1.038200e+01	1.023943e+02
2.290000e-06	1.423826e-06	1.536564e-09	1.061086e+01	1.054195e+02
2.300000e-06	1.454352e-06	1.577608e-09	1.083836e+01	1.083837e+02
2.310000e-06	1.484816e-06	1.618720e-09	1.106538e+01	1.112868e+02
2.320000e-06	1.515269e-06	1.659946e-09	1.129233e+01	1.141288e+02
2.330000e-06	1.545692e-06	1.700145e-09	1.151905e+01	1.169097e+02
2.340000e-06	1.575984e-06	1.738910e-09	1.174480e+01	1.196299e+02
2.350000e-06	1.606091e-06	1.777566e-09	1.196917e+01	1.222898e+02
2.360000e-06	1.636100e-06	1.814813e-09	1.219281e+01	1.248900e+02
2.370000e-06	1.666054e-06	1.851706e-09	1.241603e+01	1.274310e+02
2.380000e-06	1.695953e-06	1.889719e-09	1.263885e+01	1.299137e+02
2.390000e-06	1.725788e-06	1.925905e-09	1.286119e+01	1.323389e+02
2.400000e-06	1.755537e-06	1.959952e-09	1.308289e+01	1.347076e+02
2.410000e-06	1.785104e-06	1.994650e-09	1.330323e+01	1.370207e+02
2.420000e-06	1.814511e-06	2.028748e-09	1.352239e+01	1.392795e+02
2.430000e-06	1.843908e-06	2.060926e-09	1.374147e+01	1.414850e+02
2.440000e-06	1.873186e-06	2.094207e-09	1.395966e+01	1.436384e+02
2.450000e-06	1.902290e-06	2.129013e-09	1.417655e+01	1.457410e+02
2.460000e-06	1.931235e-06	2.162739e-09	1.439226e+01	1.477940e+02
2.470000e-06	1.960001e-06	2.194032e-09	1.460663e+01	1.497988e+02
2.480000e-06	1.988628e-06	2.223249e-09	1.481997e+01	1.517566e+02
2.490000e-06	2.017064e-06	2.251469e-09	1.503189e+01	1.536688e+02
2.500000e-06	2.045320e-06	2.279699e-09	1.524246e+01	1.555367e+02
2.510000e-06	2.073457e-06	2.308203e-09	1.545215e+01	1.573615e+02
2.520000e-06	2.101522e-06	2.335188e-09	1.566130e+01	1.591445e+02
2.530000e-06	2.129514e-06	2.360412e-09	1.586990e+01	1.608871e+02
2.540000e-06	2.157486e-06	2.384505e-09	1.607836e+01	1.625904e+02
2.550000e-06	2.185424e-06	2.407276e-09	1.628656e+01	1.642558e+02
2.560000e-06	2.213250e-06	2.430347e-09	1.649393e+01	1.658843e+02
2.570000e-06	2.241015e-06	2.454914e-09	1.670085e+01	1.674772e+02
2.580000e-06	2.268723e-06	2.480648e-09	1.690734e+01	1.690355e+02
2.590000e-06	2.296371e-06	2.504636e-09	1.711338e+01	1.705603e+02
2.600000e-06	2.323848e-06	2.529585e-09	1.731815e+01	1.720526e+02
2.610000e-06	2.350986e-06	2.556351e-09	1.752040e+01	1.735135e+02
2.620000e-06	2.377771e-06	2.579107e-09	1.772001e+01	1.749439e+02
2.630000e-06	2.404319e-06	2.599025e-09	1.791785e+01	1.763447e+02
2.640000e-06	2.430573e-06	2.621012e-09	1.811350e+01	1.777167e+02
2.650000e-06	2.456409e-06	2.644702e-09	1.830604e+01	1.790607e+02
2.660000e-06	2.481913e-06	2.666506e-09	1.849611e+01	1.803776e+02
2.670000e-06	2.507055e-06	2.687599e-09	1.868347e+01	1.816680e+02
2.680000e-06	2.531917e-06	2.710243e-09	1.886875e+01	1.829327e+02
2.690000e-06	2.556576e-06	2.732525e-09	1.905252e+01	1.841723e+02
2.700000e-06	2.581013e-06	2.753784e-09	1.923464e+01	1.853874e+02
2.710000e-06	2.605301e-06	2.773868e-09	1.941564e+01	1.865785e+02
2.720000e-06	2.629427e-06	2.791895e-09	1.959544e+01	1.877464e+02
2.730000e-06	2.653447e-06	2.809556e-09	1.977444e+01	1.888913e+02
2.740000e-06	2.677426e-06	2.826788e-09	1.995314e+01	1.900139e+02
2.750000e-06	2.701289e-06	2.842374e-09	2.013098e+01	1.911146e+02
2.760000e-06	2.725010e-06	2.857688e-09	2.030776e+01	1.921938e+02
2.770000e-06	2.748615e-06	2.874203e-09	2.048367e+01	1.932519e+02
2.780000e-06	2.772034e-06	2.890015e-09	2.065820e+01	1.942894e+02
2.790000e-06	2.795134e-06	2.903840e-09	2.083035e+01	1.953065e+02
2.800000e-06	2.817918e-06	2.918134e-09	2.100014e+01	1.963037e+02
2.810000e-06	2.840537e-06	2.932130e-09	2.116870e+01	1.972812e+02
2.820000e-06	2.863015e-06	2.946328e-09	2.133622e+01	1.982394e+02
2.830000e-06	2.885294e-06	2.961581e-09	2.150225e+01	1.991787e+02
2.840000e-06	2.907353e-06	2.976092e-09	2.166664e+01	2.000991e+02
2.850000e-06	2.929277e-06	2.990007e-09	2.183002e+01	2.010012e+02
2.860000e-06	2.951113e-06	3.004367e-09	2.199275e+01	2.018851e+02
2.870000e-06	2.972853e-06	3.018784e-09	2.215477e+01	2.027511e+02
2.880000e-06	2.994378e-06	3.032071e-09	2.231518e+01	2.035994e+02
2.890000e-06	3.015607e-06	3.046452e-09	2.247339e+01	2.044304e+02
2.900000e-06	3.036598e-06	3.062645e-09	2.262982e+01	2.052441e+02
