# Temperatura_=_20.0
# Concentracion g/m^3_=_9000.0
# C_Vs_to_Am_M_A/Vsm_=_65563218390.804596
# pendiente_HvsI_1/m_=_3716.3
# ordenada_HvsI_A/m_=_1297.0
# frecuencia_Hz_=_135021.23727709314

Tiempo_(s)	Campo_(V.s)	Magnetizacion_(V.s)	Campo_(kA/m)	Magnetizacion_(A/m)
0.000000e+00	-3.907149e-06	-3.584487e-09	-2.913347e+01	-2.350222e+02
1.000000e-08	-3.907313e-06	-3.586179e-09	-2.913469e+01	-2.350548e+02
2.000000e-08	-3.907292e-06	-3.585384e-09	-2.913454e+01	-2.350794e+02
3.000000e-08	-3.907115e-06	-3.582540e-09	-2.913322e+01	-2.350955e+02
4.000000e-08	-3.906641e-06	-3.586652e-09	-2.912968e+01	-2.351030e+02
5.000000e-08	-3.905702e-06	-3.603156e-09	-2.912268e+01	-2.351017e+02
6.000000e-08	-3.904255e-06	-3.601919e-09	-2.911189e+01	-2.350914e+02
7.000000e-08	-3.902319e-06	-3.568230e-09	-2.909745e+01	-2.350718e+02
8.000000e-08	-3.899910e-06	-3.544412e-09	-2.907949e+01	-2.350430e+02
9.000000e-08	-3.897064e-06	-3.580872e-09	-2.905827e+01	-2.350047e+02
1.000000e-07	-3.893800e-06	-3.545757e-09	-2.903393e+01	-2.349569e+02
1.100000e-07	-3.890220e-06	-3.583240e-09	-2.900724e+01	-2.348996e+02
1.200000e-07	-3.886510e-06	-3.598740e-09	-2.897957e+01	-2.348327e+02
1.300000e-07	-3.882704e-06	-3.555109e-09	-2.895120e+01	-2.347563e+02
1.400000e-07	-3.878723e-06	-3.536425e-09	-2.892151e+01	-2.346705e+02
1.500000e-07	-3.874586e-06	-3.538246e-09	-2.889066e+01	-2.345752e+02
1.600000e-07	-3.870332e-06	-3.599304e-09	-2.885895e+01	-2.344708e+02
1.700000e-07	-3.865800e-06	-3.576935e-09	-2.882515e+01	-2.343572e+02
1.800000e-07	-3.860976e-06	-3.569870e-09	-2.878918e+01	-2.342347e+02
1.900000e-07	-3.855884e-06	-3.524204e-09	-2.875122e+01	-2.341034e+02
2.000000e-07	-3.850472e-06	-3.545640e-09	-2.871086e+01	-2.339637e+02
2.100000e-07	-3.844818e-06	-3.566261e-09	-2.866870e+01	-2.338157e+02
2.200000e-07	-3.838910e-06	-3.597588e-09	-2.862465e+01	-2.336597e+02
2.300000e-07	-3.832729e-06	-3.542376e-09	-2.857856e+01	-2.334960e+02
2.400000e-07	-3.826239e-06	-3.490074e-09	-2.853017e+01	-2.333249e+02
2.500000e-07	-3.819470e-06	-3.539176e-09	-2.847969e+01	-2.331466e+02
2.600000e-07	-3.812395e-06	-3.600547e-09	-2.842694e+01	-2.329614e+02
2.700000e-07	-3.804998e-06	-3.556630e-09	-2.837179e+01	-2.327696e+02
2.800000e-07	-3.797381e-06	-3.470703e-09	-2.831499e+01	-2.325715e+02
2.900000e-07	-3.789641e-06	-3.510455e-09	-2.825728e+01	-2.323673e+02
3.000000e-07	-3.781801e-06	-3.572260e-09	-2.819882e+01	-2.321573e+02
3.100000e-07	-3.773806e-06	-3.558594e-09	-2.813920e+01	-2.319417e+02
3.200000e-07	-3.765572e-06	-3.482607e-09	-2.807781e+01	-2.317208e+02
3.300000e-07	-3.757006e-06	-3.493194e-09	-2.801394e+01	-2.314946e+02
3.400000e-07	-3.748126e-06	-3.536245e-09	-2.794773e+01	-2.312635e+02
3.500000e-07	-3.738859e-06	-3.550950e-09	-2.787862e+01	-2.310274e+02
3.600000e-07	-3.729123e-06	-3.496514e-09	-2.780602e+01	-2.307866e+02
3.700000e-07	-3.718933e-06	-3.478626e-09	-2.773004e+01	-2.305411e+02
3.800000e-07	-3.708364e-06	-3.489581e-09	-2.765124e+01	-2.302908e+02
3.900000e-07	-3.697436e-06	-3.519672e-09	-2.756976e+01	-2.300359e+02
4.000000e-07	-3.686120e-06	-3.504280e-09	-2.748538e+01	-2.297763e+02
4.100000e-07	-3.674506e-06	-3.477725e-09	-2.739878e+01	-2.295119e+02
4.200000e-07	-3.662654e-06	-3.453483e-09	-2.731040e+01	-2.292426e+02
4.300000e-07	-3.650532e-06	-3.479415e-09	-2.722002e+01	-2.289684e+02
4.400000e-07	-3.638084e-06	-3.499629e-09	-2.712720e+01	-2.286890e+02
4.500000e-07	-3.625355e-06	-3.466984e-09	-2.703228e+01	-2.284043e+02
4.600000e-07	-3.612476e-06	-3.422067e-09	-2.693626e+01	-2.281141e+02
4.700000e-07	-3.599306e-06	-3.445687e-09	-2.683805e+01	-2.278181e+02
4.800000e-07	-3.585825e-06	-3.485377e-09	-2.673753e+01	-2.275161e+02
4.900000e-07	-3.572205e-06	-3.450839e-09	-2.663598e+01	-2.272079e+02
5.000000e-07	-3.558233e-06	-3.405169e-09	-2.653179e+01	-2.268932e+02
5.100000e-07	-3.543817e-06	-3.419151e-09	-2.642430e+01	-2.265716e+02
5.200000e-07	-3.529075e-06	-3.452884e-09	-2.631438e+01	-2.262429e+02
5.300000e-07	-3.513934e-06	-3.426316e-09	-2.620148e+01	-2.259069e+02
5.400000e-07	-3.498337e-06	-3.398388e-09	-2.608518e+01	-2.255632e+02
5.500000e-07	-3.482376e-06	-3.400715e-09	-2.596617e+01	-2.252116e+02
5.600000e-07	-3.466211e-06	-3.415449e-09	-2.584564e+01	-2.248518e+02
5.700000e-07	-3.449775e-06	-3.402864e-09	-2.572308e+01	-2.244835e+02
5.800000e-07	-3.433050e-06	-3.391541e-09	-2.559838e+01	-2.241066e+02
5.900000e-07	-3.416134e-06	-3.374504e-09	-2.547224e+01	-2.237208e+02
6.000000e-07	-3.399097e-06	-3.370910e-09	-2.534520e+01	-2.233259e+02
6.100000e-07	-3.381883e-06	-3.374128e-09	-2.521685e+01	-2.229218e+02
6.200000e-07	-3.364371e-06	-3.376519e-09	-2.508627e+01	-2.225083e+02
6.300000e-07	-3.346618e-06	-3.350561e-09	-2.495390e+01	-2.220855e+02
6.400000e-07	-3.328704e-06	-3.339871e-09	-2.482033e+01	-2.216530e+02
6.500000e-07	-3.310607e-06	-3.350854e-09	-2.468538e+01	-2.212111e+02
6.600000e-07	-3.292184e-06	-3.349670e-09	-2.454801e+01	-2.207595e+02
6.700000e-07	-3.273475e-06	-3.318999e-09	-2.440851e+01	-2.202985e+02
6.800000e-07	-3.254491e-06	-3.305367e-09	-2.426696e+01	-2.198280e+02
6.900000e-07	-3.235268e-06	-3.313500e-09	-2.412362e+01	-2.193480e+02
7.000000e-07	-3.215868e-06	-3.311831e-09	-2.397896e+01	-2.188588e+02
7.100000e-07	-3.196292e-06	-3.292967e-09	-2.383300e+01	-2.183605e+02
7.200000e-07	-3.176613e-06	-3.280868e-09	-2.368627e+01	-2.178533e+02
7.300000e-07	-3.156860e-06	-3.277587e-09	-2.353897e+01	-2.173372e+02
7.400000e-07	-3.137003e-06	-3.272909e-09	-2.339091e+01	-2.168126e+02
7.500000e-07	-3.117011e-06	-3.265537e-09	-2.324184e+01	-2.162796e+02
7.600000e-07	-3.096882e-06	-3.251858e-09	-2.309175e+01	-2.157385e+02
7.700000e-07	-3.076552e-06	-3.239390e-09	-2.294016e+01	-2.151894e+02
7.800000e-07	-3.055902e-06	-3.231552e-09	-2.278619e+01	-2.146328e+02
7.900000e-07	-3.034956e-06	-3.228617e-09	-2.263000e+01	-2.140686e+02
8.000000e-07	-3.013843e-06	-3.215167e-09	-2.247257e+01	-2.134973e+02
8.100000e-07	-2.992501e-06	-3.199446e-09	-2.231344e+01	-2.129189e+02
8.200000e-07	-2.970900e-06	-3.189795e-09	-2.215237e+01	-2.123337e+02
8.300000e-07	-2.949154e-06	-3.187520e-09	-2.199022e+01	-2.117418e+02
8.400000e-07	-2.927240e-06	-3.176413e-09	-2.182683e+01	-2.111434e+02
8.500000e-07	-2.905162e-06	-3.163231e-09	-2.166220e+01	-2.105386e+02
8.600000e-07	-2.882897e-06	-3.153319e-09	-2.149619e+01	-2.099274e+02
8.700000e-07	-2.860365e-06	-3.149924e-09	-2.132818e+01	-2.093100e+02
8.800000e-07	-2.837612e-06	-3.138043e-09	-2.115852e+01	-2.086862e+02
8.900000e-07	-2.814697e-06	-3.121777e-09	-2.098765e+01	-2.080561e+02
9.000000e-07	-2.791553e-06	-3.107739e-09	-2.081509e+01	-2.074196e+02
9.100000e-07	-2.768178e-06	-3.098272e-09	-2.064079e+01	-2.067765e+02
9.200000e-07	-2.744654e-06	-3.086180e-09	-2.046538e+01	-2.061267e+02
9.300000e-07	-2.721042e-06	-3.074590e-09	-2.028932e+01	-2.054699e+02
9.400000e-07	-2.697310e-06	-3.063819e-09	-2.011236e+01	-2.048059e+02
9.500000e-07	-2.673401e-06	-3.054940e-09	-1.993409e+01	-2.041344e+02
9.600000e-07	-2.649399e-06	-3.043347e-09	-1.975512e+01	-2.034549e+02
9.700000e-07	-2.625304e-06	-3.030725e-09	-1.957545e+01	-2.027671e+02
9.800000e-07	-2.601007e-06	-3.016594e-09	-1.939428e+01	-2.020705e+02
9.900000e-07	-2.576502e-06	-3.002762e-09	-1.921156e+01	-2.013647e+02
1.000000e-06	-2.551767e-06	-2.990949e-09	-1.902713e+01	-2.006491e+02
1.010000e-06	-2.526750e-06	-2.980262e-09	-1.884059e+01	-1.999232e+02
1.020000e-06	-2.501542e-06	-2.967982e-09	-1.865263e+01	-1.991864e+02
1.030000e-06	-2.476095e-06	-2.954217e-09	-1.846288e+01	-1.984382e+02
1.040000e-06	-2.450258e-06	-2.944550e-09	-1.827023e+01	-1.976779e+02
1.050000e-06	-2.424132e-06	-2.933502e-09	-1.807543e+01	-1.969049e+02
1.060000e-06	-2.397717e-06	-2.917989e-09	-1.787846e+01	-1.961187e+02
1.070000e-06	-2.370966e-06	-2.900329e-09	-1.767899e+01	-1.953185e+02
1.080000e-06	-2.343983e-06	-2.887533e-09	-1.747779e+01	-1.945038e+02
1.090000e-06	-2.316794e-06	-2.872941e-09	-1.727507e+01	-1.936739e+02
1.100000e-06	-2.289421e-06	-2.856450e-09	-1.707096e+01	-1.928284e+02
1.110000e-06	-2.261876e-06	-2.840579e-09	-1.686557e+01	-1.919665e+02
1.120000e-06	-2.234237e-06	-2.827302e-09	-1.665948e+01	-1.910879e+02
1.130000e-06	-2.206511e-06	-2.812541e-09	-1.645274e+01	-1.901920e+02
1.140000e-06	-2.178688e-06	-2.797491e-09	-1.624528e+01	-1.892783e+02
1.150000e-06	-2.150852e-06	-2.784395e-09	-1.603773e+01	-1.883464e+02
1.160000e-06	-2.122952e-06	-2.771370e-09	-1.582969e+01	-1.873959e+02
1.170000e-06	-2.094952e-06	-2.755264e-09	-1.562091e+01	-1.864265e+02
1.180000e-06	-2.066886e-06	-2.738587e-09	-1.541164e+01	-1.854379e+02
1.190000e-06	-2.038674e-06	-2.722827e-09	-1.520128e+01	-1.844299e+02
1.200000e-06	-2.010240e-06	-2.708087e-09	-1.498926e+01	-1.834021e+02
1.210000e-06	-1.981743e-06	-2.690835e-09	-1.477677e+01	-1.823545e+02
1.220000e-06	-1.953110e-06	-2.675006e-09	-1.456327e+01	-1.812870e+02
1.230000e-06	-1.924217e-06	-2.657217e-09	-1.434783e+01	-1.801995e+02
1.240000e-06	-1.895177e-06	-2.640507e-09	-1.413130e+01	-1.790920e+02
1.250000e-06	-1.865973e-06	-2.627953e-09	-1.391354e+01	-1.779644e+02
1.260000e-06	-1.836682e-06	-2.611948e-09	-1.369513e+01	-1.768169e+02
1.270000e-06	-1.807283e-06	-2.592994e-09	-1.347592e+01	-1.756494e+02
1.280000e-06	-1.777744e-06	-2.573739e-09	-1.325566e+01	-1.744622e+02
1.290000e-06	-1.748114e-06	-2.555203e-09	-1.303473e+01	-1.732552e+02
1.300000e-06	-1.718365e-06	-2.534498e-09	-1.281291e+01	-1.720286e+02
1.310000e-06	-1.688487e-06	-2.514662e-09	-1.259012e+01	-1.707826e+02
1.320000e-06	-1.658536e-06	-2.493968e-09	-1.236679e+01	-1.695172e+02
1.330000e-06	-1.628568e-06	-2.474897e-09	-1.214334e+01	-1.682325e+02
1.340000e-06	-1.598534e-06	-2.460016e-09	-1.191939e+01	-1.669286e+02
1.350000e-06	-1.568340e-06	-2.443681e-09	-1.169425e+01	-1.656056e+02
1.360000e-06	-1.537937e-06	-2.423119e-09	-1.146755e+01	-1.642635e+02
1.370000e-06	-1.507419e-06	-2.401816e-09	-1.124000e+01	-1.629021e+02
1.380000e-06	-1.476877e-06	-2.380270e-09	-1.101226e+01	-1.615215e+02
1.390000e-06	-1.446303e-06	-2.355565e-09	-1.078429e+01	-1.601214e+02
1.400000e-06	-1.415601e-06	-2.330628e-09	-1.055536e+01	-1.587017e+02
1.410000e-06	-1.384763e-06	-2.308816e-09	-1.032542e+01	-1.572620e+02
1.420000e-06	-1.353763e-06	-2.286714e-09	-1.009427e+01	-1.558019e+02
1.430000e-06	-1.322642e-06	-2.264789e-09	-9.862216e+00	-1.543210e+02
1.440000e-06	-1.291516e-06	-2.242829e-09	-9.630130e+00	-1.528187e+02
1.450000e-06	-1.260335e-06	-2.218546e-09	-9.397625e+00	-1.512943e+02
1.460000e-06	-1.229009e-06	-2.193488e-09	-9.164045e+00	-1.497470e+02
1.470000e-06	-1.197555e-06	-2.168694e-09	-8.929514e+00	-1.481760e+02
1.480000e-06	-1.166030e-06	-2.140774e-09	-8.694444e+00	-1.465803e+02
1.490000e-06	-1.134416e-06	-2.111332e-09	-8.458716e+00	-1.449588e+02
1.500000e-06	-1.102712e-06	-2.086136e-09	-8.222319e+00	-1.433104e+02
1.510000e-06	-1.070947e-06	-2.061025e-09	-7.985464e+00	-1.416336e+02
1.520000e-06	-1.039193e-06	-2.035605e-09	-7.748695e+00	-1.399273e+02
1.530000e-06	-1.007446e-06	-2.010005e-09	-7.511974e+00	-1.381899e+02
1.540000e-06	-9.756352e-07	-1.984102e-09	-7.274778e+00	-1.364198e+02
1.550000e-06	-9.438040e-07	-1.954494e-09	-7.037429e+00	-1.346154e+02
1.560000e-06	-9.119539e-07	-1.922461e-09	-6.799940e+00	-1.327750e+02
1.570000e-06	-8.800386e-07	-1.891709e-09	-6.561966e+00	-1.308969e+02
1.580000e-06	-8.480353e-07	-1.861919e-09	-6.323335e+00	-1.289792e+02
1.590000e-06	-8.160026e-07	-1.830817e-09	-6.084485e+00	-1.270200e+02
1.600000e-06	-7.839593e-07	-1.798304e-09	-5.845555e+00	-1.250176e+02
1.610000e-06	-7.519052e-07	-1.763042e-09	-5.606546e+00	-1.229700e+02
1.620000e-06	-7.198430e-07	-1.725826e-09	-5.367475e+00	-1.208754e+02
1.630000e-06	-6.877089e-07	-1.694553e-09	-5.127869e+00	-1.187318e+02
1.640000e-06	-6.555645e-07	-1.663375e-09	-4.888185e+00	-1.165374e+02
1.650000e-06	-6.234098e-07	-1.627838e-09	-4.648425e+00	-1.142904e+02
1.660000e-06	-5.911411e-07	-1.590711e-09	-4.407815e+00	-1.119892e+02
1.670000e-06	-5.588177e-07	-1.558325e-09	-4.166798e+00	-1.096320e+02
1.680000e-06	-5.264474e-07	-1.526734e-09	-3.925430e+00	-1.072172e+02
1.690000e-06	-4.940507e-07	-1.491141e-09	-3.683866e+00	-1.047435e+02
1.700000e-06	-4.616438e-07	-1.452909e-09	-3.442225e+00	-1.022094e+02
1.710000e-06	-4.291898e-07	-1.416705e-09	-3.200234e+00	-9.961382e+01
1.720000e-06	-3.967978e-07	-1.380107e-09	-2.958704e+00	-9.695567e+01
1.730000e-06	-3.643789e-07	-1.339267e-09	-2.716974e+00	-9.423408e+01
1.740000e-06	-3.318561e-07	-1.296936e-09	-2.474469e+00	-9.144834e+01
1.750000e-06	-2.992802e-07	-1.256948e-09	-2.231569e+00	-8.859793e+01
1.760000e-06	-2.666428e-07	-1.220176e-09	-1.988209e+00	-8.568254e+01
1.770000e-06	-2.339863e-07	-1.180883e-09	-1.744708e+00	-8.270205e+01
1.780000e-06	-2.012818e-07	-1.137883e-09	-1.500848e+00	-7.965657e+01
1.790000e-06	-1.685139e-07	-1.092993e-09	-1.256516e+00	-7.654642e+01
1.800000e-06	-1.358165e-07	-1.046559e-09	-1.012709e+00	-7.337215e+01
1.810000e-06	-1.031646e-07	-9.999622e-10	-7.692416e-01	-7.013456e+01
1.820000e-06	-7.048636e-08	-9.543174e-10	-5.255782e-01	-6.683466e+01
1.830000e-06	-3.779053e-08	-9.062068e-10	-2.817833e-01	-6.347369e+01
1.840000e-06	-5.084408e-09	-8.582771e-10	-3.791165e-02	-6.005314e+01
1.850000e-06	2.766337e-08	-8.122183e-10	2.062706e-01	-5.657471e+01
1.860000e-06	6.042469e-08	-7.637983e-10	4.505538e-01	-5.304036e+01
1.870000e-06	9.312698e-08	-7.094335e-10	6.943969e-01	-4.945222e+01
1.880000e-06	1.258139e-07	-6.534247e-10	9.381253e-01	-4.581267e+01
1.890000e-06	1.584560e-07	-5.991384e-10	1.181520e+00	-4.212429e+01
1.900000e-06	1.910001e-07	-5.456706e-10	1.424183e+00	-3.838983e+01
1.910000e-06	2.235508e-07	-4.896013e-10	1.666896e+00	-3.461225e+01
1.920000e-06	2.561987e-07	-4.299604e-10	1.910334e+00	-3.079466e+01
1.930000e-06	2.888048e-07	-3.706831e-10	2.153459e+00	-2.694034e+01
1.940000e-06	3.213151e-07	-3.122632e-10	2.395871e+00	-2.305270e+01
1.950000e-06	3.537692e-07	-2.550135e-10	2.637863e+00	-1.913527e+01
1.960000e-06	3.862085e-07	-1.962983e-10	2.879745e+00	-1.519172e+01
1.970000e-06	4.186320e-07	-1.363403e-10	3.121509e+00	-1.122579e+01
1.980000e-06	4.510014e-07	-7.804246e-11	3.362871e+00	-7.241275e+00
1.990000e-06	4.833771e-07	-2.243238e-11	3.604279e+00	-3.242064e+00
2.000000e-06	5.157087e-07	3.467426e-11	3.845357e+00	7.679361e-01
2.010000e-06	5.479274e-07	9.473646e-11	4.085595e+00	4.784796e+00
2.020000e-06	5.800688e-07	1.535687e-10	4.325255e+00	8.804581e+00
2.030000e-06	6.122287e-07	2.097883e-10	4.565054e+00	1.282338e+01
2.040000e-06	6.444103e-07	2.641308e-10	4.805014e+00	1.683730e+01
2.050000e-06	6.765370e-07	3.202068e-10	5.044566e+00	2.084252e+01
2.060000e-06	7.086472e-07	3.802475e-10	5.283994e+00	2.483526e+01
2.070000e-06	7.407151e-07	4.389653e-10	5.523107e+00	2.881186e+01
2.080000e-06	7.726964e-07	4.955542e-10	5.761574e+00	3.276873e+01
2.090000e-06	8.046591e-07	5.525184e-10	5.999902e+00	3.670240e+01
2.100000e-06	8.365955e-07	6.089738e-10	6.238035e+00	4.060952e+01
2.110000e-06	8.684830e-07	6.647611e-10	6.475802e+00	4.448690e+01
2.120000e-06	9.003593e-07	7.217148e-10	6.713486e+00	4.833146e+01
2.130000e-06	9.321917e-07	7.788191e-10	6.950843e+00	5.214033e+01
2.140000e-06	9.639949e-07	8.321373e-10	7.187982e+00	5.591076e+01
2.150000e-06	9.957882e-07	8.867782e-10	7.425048e+00	5.964020e+01
2.160000e-06	1.027522e-06	9.453313e-10	7.661668e+00	6.332627e+01
2.170000e-06	1.059225e-06	1.002054e-09	7.898063e+00	6.696678e+01
2.180000e-06	1.090931e-06	1.054549e-09	8.134477e+00	7.055972e+01
2.190000e-06	1.122614e-06	1.102369e-09	8.370719e+00	7.410327e+01
2.200000e-06	1.154210e-06	1.149484e-09	8.606310e+00	7.759581e+01
2.210000e-06	1.185737e-06	1.199301e-09	8.841394e+00	8.103589e+01
2.220000e-06	1.217223e-06	1.246963e-09	9.076166e+00	8.442225e+01
2.230000e-06	1.248535e-06	1.293207e-09	9.309638e+00	8.775383e+01
2.240000e-06	1.279671e-06	1.340152e-09	9.541803e+00	9.102972e+01
2.250000e-06	1.310770e-06	1.388255e-09	9.773692e+00	9.424922e+01
2.260000e-06	1.341789e-06	1.435271e-09	1.000499e+01	9.741176e+01
2.270000e-06	1.372716e-06	1.480709e-09	1.023559e+01	1.005170e+02
2.280000e-06	1.403546e-06	1.524286e-09	1.046548e+01	1.035645e+02
2.290000e-06	1.434256e-06	1.566173e-09	1.069446e+01	1.065544e+02
2.300000e-06	1.464870e-06	1.608013e-09	1.092273e+01	1.094867e+02
2.310000e-06	1.495354e-06	1.649485e-09	1.115003e+01	1.123614e+02
2.320000e-06	1.525760e-06	1.689737e-09	1.137676e+01	1.151789e+02
2.330000e-06	1.556059e-06	1.728600e-09	1.160268e+01	1.179396e+02
2.340000e-06	1.586249e-06	1.768539e-09	1.182779e+01	1.206439e+02
2.350000e-06	1.616372e-06	1.809357e-09	1.205240e+01	1.232923e+02
2.360000e-06	1.646351e-06	1.848236e-09	1.227593e+01	1.258856e+02
2.370000e-06	1.676184e-06	1.885762e-09	1.249838e+01	1.284243e+02
2.380000e-06	1.705937e-06	1.924266e-09	1.272024e+01	1.309094e+02
2.390000e-06	1.735653e-06	1.961196e-09	1.294181e+01	1.333415e+02
2.400000e-06	1.765293e-06	1.996119e-09	1.316283e+01	1.357214e+02
2.410000e-06	1.794838e-06	2.029949e-09	1.338313e+01	1.380502e+02
2.420000e-06	1.824277e-06	2.061797e-09	1.360263e+01	1.403285e+02
2.430000e-06	1.853570e-06	2.092057e-09	1.382106e+01	1.425574e+02
2.440000e-06	1.882666e-06	2.124769e-09	1.403801e+01	1.447378e+02
2.450000e-06	1.911564e-06	2.158521e-09	1.425349e+01	1.468705e+02
2.460000e-06	1.940357e-06	2.189333e-09	1.446818e+01	1.489564e+02
2.470000e-06	1.969081e-06	2.217682e-09	1.468236e+01	1.509965e+02
2.480000e-06	1.997669e-06	2.246640e-09	1.489553e+01	1.529916e+02
2.490000e-06	2.026058e-06	2.277036e-09	1.510721e+01	1.549427e+02
2.500000e-06	2.054295e-06	2.308349e-09	1.531775e+01	1.568505e+02
2.510000e-06	2.082380e-06	2.335703e-09	1.552716e+01	1.587158e+02
2.520000e-06	2.110335e-06	2.358954e-09	1.573561e+01	1.605396e+02
2.530000e-06	2.138251e-06	2.385069e-09	1.594377e+01	1.623226e+02
2.540000e-06	2.166141e-06	2.412411e-09	1.615172e+01	1.640655e+02
2.550000e-06	2.193977e-06	2.435532e-09	1.635928e+01	1.657692e+02
2.560000e-06	2.221732e-06	2.456391e-09	1.656624e+01	1.674344e+02
2.570000e-06	2.249431e-06	2.481261e-09	1.677278e+01	1.690617e+02
2.580000e-06	2.277070e-06	2.507886e-09	1.697887e+01	1.706519e+02
2.590000e-06	2.304573e-06	2.531889e-09	1.718394e+01	1.722058e+02
2.600000e-06	2.331863e-06	2.555497e-09	1.738742e+01	1.737239e+02
2.610000e-06	2.358942e-06	2.578546e-09	1.758934e+01	1.752070e+02
2.620000e-06	2.385788e-06	2.600920e-09	1.778952e+01	1.766557e+02
2.630000e-06	2.412293e-06	2.623798e-09	1.798715e+01	1.780707e+02
2.640000e-06	2.438443e-06	2.643806e-09	1.818213e+01	1.794527e+02
2.650000e-06	2.464320e-06	2.663039e-09	1.837508e+01	1.808023e+02
2.660000e-06	2.489917e-06	2.684747e-09	1.856595e+01	1.821203e+02
2.670000e-06	2.515227e-06	2.707710e-09	1.875467e+01	1.834073e+02
2.680000e-06	2.540281e-06	2.730089e-09	1.894149e+01	1.846640e+02
2.690000e-06	2.565033e-06	2.750586e-09	1.912605e+01	1.858912e+02
2.700000e-06	2.589517e-06	2.770002e-09	1.930861e+01	1.870895e+02
2.710000e-06	2.613794e-06	2.789443e-09	1.948963e+01	1.882597e+02
2.720000e-06	2.637958e-06	2.808290e-09	1.966981e+01	1.894025e+02
2.730000e-06	2.662029e-06	2.825712e-09	1.984929e+01	1.905187e+02
2.740000e-06	2.685868e-06	2.841317e-09	2.002705e+01	1.916090e+02
2.750000e-06	2.709564e-06	2.856690e-09	2.020373e+01	1.926743e+02
2.760000e-06	2.733171e-06	2.874966e-09	2.037976e+01	1.937153e+02
2.770000e-06	2.756677e-06	2.893402e-09	2.055503e+01	1.947328e+02
2.780000e-06	2.780018e-06	2.909214e-09	2.072907e+01	1.957277e+02
2.790000e-06	2.803018e-06	2.925957e-09	2.090057e+01	1.967007e+02
2.800000e-06	2.825743e-06	2.943198e-09	2.107002e+01	1.976526e+02
2.810000e-06	2.848341e-06	2.959012e-09	2.123852e+01	1.985844e+02
2.820000e-06	2.870754e-06	2.974980e-09	2.140564e+01	1.994966e+02
2.830000e-06	2.892946e-06	2.989640e-09	2.157111e+01	2.003903e+02
2.840000e-06	2.915005e-06	3.003875e-09	2.173559e+01	2.012661e+02
2.850000e-06	2.936938e-06	3.019641e-09	2.189914e+01	2.021249e+02
2.860000e-06	2.958652e-06	3.034673e-09	2.206105e+01	2.029673e+02
2.870000e-06	2.980157e-06	3.049601e-09	2.222140e+01	2.037941e+02
2.880000e-06	3.001486e-06	3.066013e-09	2.238043e+01	2.046060e+02
2.890000e-06	3.022547e-06	3.081437e-09	2.253748e+01	2.054036e+02
2.900000e-06	3.043390e-06	3.095618e-09	2.269289e+01	2.061877e+02
