# Temperatura_=_20.0
# Concentracion g/m^3_=_9000.0
# C_Vs_to_Am_M_A/Vsm_=_65563218390.804596
# pendiente_HvsI_1/m_=_3716.3
# ordenada_HvsI_A/m_=_1297.0
# frecuencia_Hz_=_135020.9167198367

Tiempo_(s)	Campo_(V.s)	Magnetizacion_(V.s)	Campo_(kA/m)	Magnetizacion_(A/m)
0.000000e+00	-3.900350e-06	-3.607905e-09	-2.914836e+01	-2.351166e+02
1.000000e-08	-3.900425e-06	-3.608167e-09	-2.914891e+01	-2.351499e+02
2.000000e-08	-3.900301e-06	-3.606067e-09	-2.914799e+01	-2.351719e+02
3.000000e-08	-3.900004e-06	-3.606808e-09	-2.914577e+01	-2.351821e+02
4.000000e-08	-3.899450e-06	-3.620823e-09	-2.914163e+01	-2.351806e+02
5.000000e-08	-3.898502e-06	-3.638207e-09	-2.913454e+01	-2.351671e+02
6.000000e-08	-3.897068e-06	-3.631739e-09	-2.912383e+01	-2.351416e+02
7.000000e-08	-3.895063e-06	-3.603149e-09	-2.910884e+01	-2.351040e+02
8.000000e-08	-3.892556e-06	-3.587281e-09	-2.909011e+01	-2.350545e+02
9.000000e-08	-3.889734e-06	-3.579620e-09	-2.906902e+01	-2.349929e+02
1.000000e-07	-3.886694e-06	-3.523723e-09	-2.904630e+01	-2.349194e+02
1.100000e-07	-3.883343e-06	-3.578410e-09	-2.902126e+01	-2.348342e+02
1.200000e-07	-3.879680e-06	-3.630647e-09	-2.899388e+01	-2.347374e+02
1.300000e-07	-3.875890e-06	-3.618321e-09	-2.896556e+01	-2.346293e+02
1.400000e-07	-3.872022e-06	-3.617253e-09	-2.893665e+01	-2.345100e+02
1.500000e-07	-3.867976e-06	-3.593698e-09	-2.890642e+01	-2.343800e+02
1.600000e-07	-3.863661e-06	-3.575792e-09	-2.887417e+01	-2.342395e+02
1.700000e-07	-3.859064e-06	-3.550349e-09	-2.883981e+01	-2.340890e+02
1.800000e-07	-3.854195e-06	-3.591460e-09	-2.880342e+01	-2.339287e+02
1.900000e-07	-3.849026e-06	-3.580673e-09	-2.876479e+01	-2.337591e+02
2.000000e-07	-3.843592e-06	-3.554925e-09	-2.872419e+01	-2.335807e+02
2.100000e-07	-3.837972e-06	-3.545371e-09	-2.868219e+01	-2.333940e+02
2.200000e-07	-3.832106e-06	-3.580563e-09	-2.863835e+01	-2.331992e+02
2.300000e-07	-3.825911e-06	-3.556707e-09	-2.859205e+01	-2.329970e+02
2.400000e-07	-3.819389e-06	-3.530426e-09	-2.854331e+01	-2.327878e+02
2.500000e-07	-3.812570e-06	-3.559180e-09	-2.849235e+01	-2.325721e+02
2.600000e-07	-3.805456e-06	-3.557661e-09	-2.843919e+01	-2.323503e+02
2.700000e-07	-3.798102e-06	-3.520671e-09	-2.838423e+01	-2.321229e+02
2.800000e-07	-3.790564e-06	-3.531009e-09	-2.832790e+01	-2.318903e+02
2.900000e-07	-3.782902e-06	-3.571450e-09	-2.827063e+01	-2.316529e+02
3.000000e-07	-3.775102e-06	-3.534296e-09	-2.821234e+01	-2.314110e+02
3.100000e-07	-3.767063e-06	-3.501565e-09	-2.815227e+01	-2.311651e+02
3.200000e-07	-3.758777e-06	-3.519712e-09	-2.809034e+01	-2.309155e+02
3.300000e-07	-3.750200e-06	-3.547350e-09	-2.802625e+01	-2.306624e+02
3.400000e-07	-3.741240e-06	-3.512970e-09	-2.795928e+01	-2.304062e+02
3.500000e-07	-3.731849e-06	-3.489124e-09	-2.788910e+01	-2.301469e+02
3.600000e-07	-3.721991e-06	-3.495161e-09	-2.781543e+01	-2.298847e+02
3.700000e-07	-3.711734e-06	-3.518602e-09	-2.773877e+01	-2.296198e+02
3.800000e-07	-3.701150e-06	-3.498234e-09	-2.765968e+01	-2.293523e+02
3.900000e-07	-3.690142e-06	-3.479869e-09	-2.757742e+01	-2.290822e+02
4.000000e-07	-3.678788e-06	-3.476375e-09	-2.749256e+01	-2.288094e+02
4.100000e-07	-3.667224e-06	-3.487279e-09	-2.740614e+01	-2.285339e+02
4.200000e-07	-3.655399e-06	-3.475647e-09	-2.731777e+01	-2.282556e+02
4.300000e-07	-3.643279e-06	-3.469696e-09	-2.722720e+01	-2.279744e+02
4.400000e-07	-3.630891e-06	-3.462740e-09	-2.713461e+01	-2.276900e+02
4.500000e-07	-3.618200e-06	-3.449532e-09	-2.703977e+01	-2.274023e+02
4.600000e-07	-3.605219e-06	-3.446980e-09	-2.694276e+01	-2.271110e+02
4.700000e-07	-3.592040e-06	-3.461727e-09	-2.684427e+01	-2.268158e+02
4.800000e-07	-3.578620e-06	-3.451940e-09	-2.674398e+01	-2.265164e+02
4.900000e-07	-3.564909e-06	-3.419895e-09	-2.664151e+01	-2.262126e+02
5.000000e-07	-3.550943e-06	-3.428358e-09	-2.653714e+01	-2.259039e+02
5.100000e-07	-3.536606e-06	-3.448299e-09	-2.643000e+01	-2.255899e+02
5.200000e-07	-3.521836e-06	-3.426909e-09	-2.631962e+01	-2.252704e+02
5.300000e-07	-3.506763e-06	-3.389125e-09	-2.620698e+01	-2.249450e+02
5.400000e-07	-3.491384e-06	-3.404276e-09	-2.609204e+01	-2.246132e+02
5.500000e-07	-3.475707e-06	-3.418824e-09	-2.597488e+01	-2.242748e+02
5.600000e-07	-3.459645e-06	-3.397076e-09	-2.585485e+01	-2.239293e+02
5.700000e-07	-3.443215e-06	-3.374070e-09	-2.573206e+01	-2.235764e+02
5.800000e-07	-3.426613e-06	-3.386184e-09	-2.560799e+01	-2.232158e+02
5.900000e-07	-3.409783e-06	-3.382594e-09	-2.548222e+01	-2.228472e+02
6.000000e-07	-3.392708e-06	-3.365851e-09	-2.535461e+01	-2.224703e+02
6.100000e-07	-3.375471e-06	-3.361055e-09	-2.522580e+01	-2.220848e+02
6.200000e-07	-3.358063e-06	-3.362424e-09	-2.509570e+01	-2.216905e+02
6.300000e-07	-3.340492e-06	-3.345279e-09	-2.496438e+01	-2.212873e+02
6.400000e-07	-3.322719e-06	-3.340710e-09	-2.483156e+01	-2.208749e+02
6.500000e-07	-3.304619e-06	-3.341307e-09	-2.469630e+01	-2.204533e+02
6.600000e-07	-3.286252e-06	-3.323592e-09	-2.455904e+01	-2.200223e+02
6.700000e-07	-3.267661e-06	-3.302239e-09	-2.442010e+01	-2.195818e+02
6.800000e-07	-3.248834e-06	-3.305756e-09	-2.427940e+01	-2.191320e+02
6.900000e-07	-3.229791e-06	-3.303696e-09	-2.413709e+01	-2.186727e+02
7.000000e-07	-3.210502e-06	-3.283601e-09	-2.399294e+01	-2.182040e+02
7.100000e-07	-3.191013e-06	-3.273286e-09	-2.384729e+01	-2.177260e+02
7.200000e-07	-3.171361e-06	-3.275787e-09	-2.370042e+01	-2.172388e+02
7.300000e-07	-3.151556e-06	-3.266021e-09	-2.355241e+01	-2.167425e+02
7.400000e-07	-3.131624e-06	-3.248583e-09	-2.340346e+01	-2.162373e+02
7.500000e-07	-3.111623e-06	-3.241723e-09	-2.325398e+01	-2.157234e+02
7.600000e-07	-3.091485e-06	-3.233090e-09	-2.310349e+01	-2.152008e+02
7.700000e-07	-3.071132e-06	-3.220122e-09	-2.295139e+01	-2.146699e+02
7.800000e-07	-3.050564e-06	-3.209472e-09	-2.279768e+01	-2.141307e+02
7.900000e-07	-3.029732e-06	-3.202902e-09	-2.264199e+01	-2.135836e+02
8.000000e-07	-3.008571e-06	-3.192485e-09	-2.248386e+01	-2.130288e+02
8.100000e-07	-2.987201e-06	-3.184780e-09	-2.232415e+01	-2.124663e+02
8.200000e-07	-2.965719e-06	-3.175345e-09	-2.216361e+01	-2.118964e+02
8.300000e-07	-2.944068e-06	-3.161958e-09	-2.200180e+01	-2.113193e+02
8.400000e-07	-2.922222e-06	-3.146914e-09	-2.183854e+01	-2.107351e+02
8.500000e-07	-2.900213e-06	-3.140628e-09	-2.167406e+01	-2.101439e+02
8.600000e-07	-2.877941e-06	-3.134366e-09	-2.150762e+01	-2.095458e+02
8.700000e-07	-2.855376e-06	-3.123356e-09	-2.133899e+01	-2.089409e+02
8.800000e-07	-2.832701e-06	-3.108346e-09	-2.116953e+01	-2.083292e+02
8.900000e-07	-2.809857e-06	-3.100123e-09	-2.099881e+01	-2.077106e+02
9.000000e-07	-2.786757e-06	-3.093272e-09	-2.082618e+01	-2.070852e+02
9.100000e-07	-2.763483e-06	-3.079626e-09	-2.065224e+01	-2.064529e+02
9.200000e-07	-2.739987e-06	-3.063395e-09	-2.047666e+01	-2.058134e+02
9.300000e-07	-2.716259e-06	-3.053440e-09	-2.029933e+01	-2.051667e+02
9.400000e-07	-2.692479e-06	-3.045211e-09	-2.012161e+01	-2.045124e+02
9.500000e-07	-2.668646e-06	-3.034503e-09	-1.994350e+01	-2.038504e+02
9.600000e-07	-2.644636e-06	-3.020335e-09	-1.976407e+01	-2.031802e+02
9.700000e-07	-2.620469e-06	-3.006947e-09	-1.958346e+01	-2.025016e+02
9.800000e-07	-2.596204e-06	-2.995692e-09	-1.940212e+01	-2.018142e+02
9.900000e-07	-2.571820e-06	-2.984482e-09	-1.921989e+01	-2.011175e+02
1.000000e-06	-2.547237e-06	-2.971959e-09	-1.903618e+01	-2.004110e+02
1.010000e-06	-2.522397e-06	-2.958236e-09	-1.885054e+01	-1.996943e+02
1.020000e-06	-2.497374e-06	-2.945923e-09	-1.866354e+01	-1.989668e+02
1.030000e-06	-2.472137e-06	-2.936588e-09	-1.847494e+01	-1.982280e+02
1.040000e-06	-2.446503e-06	-2.928331e-09	-1.828337e+01	-1.974774e+02
1.050000e-06	-2.420503e-06	-2.913088e-09	-1.808906e+01	-1.967142e+02
1.060000e-06	-2.394207e-06	-2.895680e-09	-1.789255e+01	-1.959381e+02
1.070000e-06	-2.367573e-06	-2.882122e-09	-1.769350e+01	-1.951482e+02
1.080000e-06	-2.340656e-06	-2.868891e-09	-1.749234e+01	-1.943442e+02
1.090000e-06	-2.313514e-06	-2.849868e-09	-1.728950e+01	-1.935254e+02
1.100000e-06	-2.286121e-06	-2.832958e-09	-1.708479e+01	-1.926911e+02
1.110000e-06	-2.258565e-06	-2.822215e-09	-1.687886e+01	-1.918410e+02
1.120000e-06	-2.230901e-06	-2.813808e-09	-1.667212e+01	-1.909743e+02
1.130000e-06	-2.203120e-06	-2.800979e-09	-1.646450e+01	-1.900907e+02
1.140000e-06	-2.175286e-06	-2.784714e-09	-1.625649e+01	-1.891896e+02
1.150000e-06	-2.147381e-06	-2.770299e-09	-1.604795e+01	-1.882706e+02
1.160000e-06	-2.119403e-06	-2.757786e-09	-1.583887e+01	-1.873332e+02
1.170000e-06	-2.091384e-06	-2.741877e-09	-1.562947e+01	-1.863772e+02
1.180000e-06	-2.063286e-06	-2.723448e-09	-1.541948e+01	-1.854021e+02
1.190000e-06	-2.035096e-06	-2.706378e-09	-1.520881e+01	-1.844077e+02
1.200000e-06	-2.006725e-06	-2.692061e-09	-1.499679e+01	-1.833937e+02
1.210000e-06	-1.978168e-06	-2.675889e-09	-1.478337e+01	-1.823599e+02
1.220000e-06	-1.949496e-06	-2.658459e-09	-1.456911e+01	-1.813061e+02
1.230000e-06	-1.920671e-06	-2.639762e-09	-1.435369e+01	-1.802322e+02
1.240000e-06	-1.891684e-06	-2.622057e-09	-1.413706e+01	-1.791381e+02
1.250000e-06	-1.862520e-06	-2.607537e-09	-1.391911e+01	-1.780237e+02
1.260000e-06	-1.833176e-06	-2.589958e-09	-1.369981e+01	-1.768891e+02
1.270000e-06	-1.803698e-06	-2.570185e-09	-1.347952e+01	-1.757341e+02
1.280000e-06	-1.774149e-06	-2.552276e-09	-1.325869e+01	-1.745589e+02
1.290000e-06	-1.744535e-06	-2.535786e-09	-1.303737e+01	-1.733635e+02
1.300000e-06	-1.714789e-06	-2.516814e-09	-1.281508e+01	-1.721478e+02
1.310000e-06	-1.684894e-06	-2.497843e-09	-1.259166e+01	-1.709120e+02
1.320000e-06	-1.654938e-06	-2.479045e-09	-1.236780e+01	-1.696560e+02
1.330000e-06	-1.624919e-06	-2.459432e-09	-1.214345e+01	-1.683800e+02
1.340000e-06	-1.594853e-06	-2.440492e-09	-1.191876e+01	-1.670839e+02
1.350000e-06	-1.564760e-06	-2.421576e-09	-1.169387e+01	-1.657678e+02
1.360000e-06	-1.534530e-06	-2.399903e-09	-1.146795e+01	-1.644315e+02
1.370000e-06	-1.504065e-06	-2.378692e-09	-1.124028e+01	-1.630751e+02
1.380000e-06	-1.473461e-06	-2.357450e-09	-1.101157e+01	-1.616983e+02
1.390000e-06	-1.442837e-06	-2.335985e-09	-1.078270e+01	-1.603011e+02
1.400000e-06	-1.412182e-06	-2.315258e-09	-1.055361e+01	-1.588831e+02
1.410000e-06	-1.381493e-06	-2.294508e-09	-1.032427e+01	-1.574441e+02
1.420000e-06	-1.350720e-06	-2.272683e-09	-1.009429e+01	-1.559836e+02
1.430000e-06	-1.319773e-06	-2.252099e-09	-9.863018e+00	-1.545013e+02
1.440000e-06	-1.288670e-06	-2.231277e-09	-9.630571e+00	-1.529965e+02
1.450000e-06	-1.257470e-06	-2.207409e-09	-9.397407e+00	-1.514686e+02
1.460000e-06	-1.226162e-06	-2.182283e-09	-9.163438e+00	-1.499170e+02
1.470000e-06	-1.194779e-06	-2.155915e-09	-8.928899e+00	-1.483408e+02
1.480000e-06	-1.163319e-06	-2.129606e-09	-8.693792e+00	-1.467391e+02
1.490000e-06	-1.131714e-06	-2.104060e-09	-8.457599e+00	-1.451109e+02
1.500000e-06	-1.100014e-06	-2.079950e-09	-8.220696e+00	-1.434550e+02
1.510000e-06	-1.068348e-06	-2.054300e-09	-7.984046e+00	-1.417704e+02
1.520000e-06	-1.036656e-06	-2.030328e-09	-7.747209e+00	-1.400558e+02
1.530000e-06	-1.004865e-06	-2.005633e-09	-7.509625e+00	-1.383097e+02
1.540000e-06	-9.730192e-07	-1.976844e-09	-7.271632e+00	-1.365308e+02
1.550000e-06	-9.411626e-07	-1.943061e-09	-7.033559e+00	-1.347175e+02
1.560000e-06	-9.093111e-07	-1.909460e-09	-6.795524e+00	-1.328683e+02
1.570000e-06	-8.774055e-07	-1.881296e-09	-6.557085e+00	-1.309816e+02
1.580000e-06	-8.454309e-07	-1.853920e-09	-6.318131e+00	-1.290556e+02
1.590000e-06	-8.134330e-07	-1.823779e-09	-6.079001e+00	-1.270887e+02
1.600000e-06	-7.814049e-07	-1.791320e-09	-5.839647e+00	-1.250790e+02
1.610000e-06	-7.493468e-07	-1.757587e-09	-5.600068e+00	-1.230250e+02
1.620000e-06	-7.172876e-07	-1.723103e-09	-5.360481e+00	-1.209247e+02
1.630000e-06	-6.852165e-07	-1.689055e-09	-5.120805e+00	-1.187765e+02
1.640000e-06	-6.531261e-07	-1.652485e-09	-4.880985e+00	-1.165786e+02
1.650000e-06	-6.210185e-07	-1.615667e-09	-4.641037e+00	-1.143293e+02
1.660000e-06	-5.888391e-07	-1.580595e-09	-4.400551e+00	-1.120271e+02
1.670000e-06	-5.566130e-07	-1.546375e-09	-4.159717e+00	-1.096703e+02
1.680000e-06	-5.243776e-07	-1.512256e-09	-3.918814e+00	-1.072575e+02
1.690000e-06	-4.921263e-07	-1.477333e-09	-3.677791e+00	-1.047872e+02
1.700000e-06	-4.598602e-07	-1.441028e-09	-3.436658e+00	-1.022583e+02
1.710000e-06	-4.275559e-07	-1.406109e-09	-3.195239e+00	-9.966950e+01
1.720000e-06	-3.952110e-07	-1.369737e-09	-2.953517e+00	-9.701984e+01
1.730000e-06	-3.627743e-07	-1.330454e-09	-2.711109e+00	-9.430846e+01
1.740000e-06	-3.302015e-07	-1.291129e-09	-2.467684e+00	-9.153463e+01
1.750000e-06	-2.976235e-07	-1.251489e-09	-2.224220e+00	-8.869784e+01
1.760000e-06	-2.651148e-07	-1.210469e-09	-1.981274e+00	-8.579772e+01
1.770000e-06	-2.325955e-07	-1.168941e-09	-1.738248e+00	-8.283412e+01
1.780000e-06	-2.001267e-07	-1.127929e-09	-1.495600e+00	-7.980708e+01
1.790000e-06	-1.676500e-07	-1.084782e-09	-1.252893e+00	-7.671684e+01
1.800000e-06	-1.350453e-07	-1.036941e-09	-1.009229e+00	-7.356388e+01
1.810000e-06	-1.024307e-07	-9.906102e-10	-7.654918e-01	-7.034885e+01
1.820000e-06	-6.987099e-08	-9.468841e-10	-5.221645e-01	-6.707266e+01
1.830000e-06	-3.733150e-08	-8.980384e-10	-2.789882e-01	-6.373642e+01
1.840000e-06	-4.825079e-09	-8.486654e-10	-3.605910e-02	-6.034147e+01
1.850000e-06	2.775044e-08	-8.009299e-10	2.073864e-01	-5.688936e+01
1.860000e-06	6.042323e-08	-7.495547e-10	4.515589e-01	-5.338187e+01
1.870000e-06	9.304803e-08	-6.944728e-10	6.953727e-01	-4.982098e+01
1.880000e-06	1.256457e-07	-6.397147e-10	9.389839e-01	-4.620888e+01
1.890000e-06	1.582496e-07	-5.860790e-10	1.182642e+00	-4.254797e+01
1.900000e-06	1.908100e-07	-5.340630e-10	1.425974e+00	-3.884082e+01
1.910000e-06	2.232657e-07	-4.819703e-10	1.668524e+00	-3.509019e+01
1.920000e-06	2.556365e-07	-4.284283e-10	1.910440e+00	-3.129903e+01
1.930000e-06	2.879915e-07	-3.743119e-10	2.152237e+00	-2.747042e+01
1.940000e-06	3.203213e-07	-3.182951e-10	2.393847e+00	-2.360761e+01
1.950000e-06	3.526447e-07	-2.617266e-10	2.635408e+00	-1.971396e+01
1.960000e-06	3.850306e-07	-2.037618e-10	2.877436e+00	-1.579295e+01
1.970000e-06	4.174143e-07	-1.436155e-10	3.119448e+00	-1.184818e+01
1.980000e-06	4.497326e-07	-8.518093e-11	3.360972e+00	-7.883327e+00
1.990000e-06	4.820033e-07	-2.869099e-11	3.602139e+00	-3.902127e+00
2.000000e-06	5.142148e-07	2.958952e-11	3.842865e+00	9.162102e-02
2.010000e-06	5.464365e-07	9.066738e-11	4.083666e+00	4.094086e+00
2.020000e-06	5.786575e-07	1.503513e-10	4.324462e+00	8.101417e+00
2.030000e-06	6.108238e-07	2.064978e-10	4.564849e+00	1.210976e+01
2.040000e-06	6.429856e-07	2.621926e-10	4.805203e+00	1.611529e+01
2.050000e-06	6.751422e-07	3.199332e-10	5.045517e+00	2.011419e+01
2.060000e-06	7.072492e-07	3.791589e-10	5.285461e+00	2.410271e+01
2.070000e-06	7.392952e-07	4.374246e-10	5.524950e+00	2.807717e+01
2.080000e-06	7.713318e-07	4.934589e-10	5.764368e+00	3.203394e+01
2.090000e-06	8.033319e-07	5.502676e-10	6.003513e+00	3.596950e+01
2.100000e-06	8.352098e-07	6.067713e-10	6.241745e+00	3.988046e+01
2.110000e-06	8.670467e-07	6.629972e-10	6.479671e+00	4.376351e+01
2.120000e-06	8.989206e-07	7.192383e-10	6.717873e+00	4.761549e+01
2.130000e-06	9.308061e-07	7.745473e-10	6.956162e+00	5.143338e+01
2.140000e-06	9.626769e-07	8.284145e-10	7.194341e+00	5.521431e+01
2.150000e-06	9.944968e-07	8.827309e-10	7.432140e+00	5.895558e+01
2.160000e-06	1.026246e-06	9.382376e-10	7.669411e+00	6.265463e+01
2.170000e-06	1.057946e-06	9.904465e-10	7.906314e+00	6.630910e+01
2.180000e-06	1.089624e-06	1.041527e-09	8.143049e+00	6.991679e+01
2.190000e-06	1.121220e-06	1.089713e-09	8.379176e+00	7.347570e+01
2.200000e-06	1.152787e-06	1.137120e-09	8.615081e+00	7.698398e+01
2.210000e-06	1.184316e-06	1.186717e-09	8.850707e+00	8.043999e+01
2.220000e-06	1.215697e-06	1.235306e-09	9.085228e+00	8.384226e+01
2.230000e-06	1.246914e-06	1.280969e-09	9.318524e+00	8.718953e+01
2.240000e-06	1.277942e-06	1.326670e-09	9.550398e+00	9.048067e+01
2.250000e-06	1.308975e-06	1.373499e-09	9.782322e+00	9.371478e+01
2.260000e-06	1.339979e-06	1.420470e-09	1.001402e+01	9.689109e+01
2.270000e-06	1.370873e-06	1.465237e-09	1.024490e+01	1.000090e+02
2.280000e-06	1.401649e-06	1.509702e-09	1.047490e+01	1.030682e+02
2.290000e-06	1.432208e-06	1.553122e-09	1.070327e+01	1.060683e+02
2.300000e-06	1.462621e-06	1.595780e-09	1.093055e+01	1.090092e+02
2.310000e-06	1.492962e-06	1.637825e-09	1.115730e+01	1.118909e+02
2.320000e-06	1.523264e-06	1.677472e-09	1.138376e+01	1.147136e+02
2.330000e-06	1.553485e-06	1.715647e-09	1.160961e+01	1.174776e+02
2.340000e-06	1.583626e-06	1.753638e-09	1.183486e+01	1.201833e+02
2.350000e-06	1.613655e-06	1.793660e-09	1.205927e+01	1.228311e+02
2.360000e-06	1.643547e-06	1.832306e-09	1.228266e+01	1.254216e+02
2.370000e-06	1.673424e-06	1.871356e-09	1.250594e+01	1.279556e+02
2.380000e-06	1.703294e-06	1.909742e-09	1.272917e+01	1.304337e+02
2.390000e-06	1.733051e-06	1.946755e-09	1.295155e+01	1.328569e+02
2.400000e-06	1.762620e-06	1.981696e-09	1.317253e+01	1.352259e+02
2.410000e-06	1.792113e-06	2.014301e-09	1.339294e+01	1.375417e+02
2.420000e-06	1.821553e-06	2.045430e-09	1.361295e+01	1.398052e+02
2.430000e-06	1.850804e-06	2.076517e-09	1.383155e+01	1.420176e+02
2.440000e-06	1.879882e-06	2.111352e-09	1.404886e+01	1.441797e+02
2.450000e-06	1.908791e-06	2.147414e-09	1.426490e+01	1.462928e+02
2.460000e-06	1.937475e-06	2.180999e-09	1.447927e+01	1.483577e+02
2.470000e-06	1.965963e-06	2.211009e-09	1.469216e+01	1.503757e+02
2.480000e-06	1.994301e-06	2.238334e-09	1.490394e+01	1.523477e+02
2.490000e-06	2.022559e-06	2.266014e-09	1.511512e+01	1.542749e+02
2.500000e-06	2.050754e-06	2.294608e-09	1.532583e+01	1.561583e+02
2.510000e-06	2.078858e-06	2.321516e-09	1.553586e+01	1.579989e+02
2.520000e-06	2.106888e-06	2.347438e-09	1.574534e+01	1.597979e+02
2.530000e-06	2.134841e-06	2.374422e-09	1.595423e+01	1.615562e+02
2.540000e-06	2.162746e-06	2.398558e-09	1.616277e+01	1.632748e+02
2.550000e-06	2.190608e-06	2.421268e-09	1.637100e+01	1.649547e+02
2.560000e-06	2.218365e-06	2.444129e-09	1.657843e+01	1.665969e+02
2.570000e-06	2.246000e-06	2.467237e-09	1.678495e+01	1.682023e+02
2.580000e-06	2.273514e-06	2.491262e-09	1.699058e+01	1.697718e+02
2.590000e-06	2.300864e-06	2.515959e-09	1.719497e+01	1.713063e+02
2.600000e-06	2.328079e-06	2.541862e-09	1.739836e+01	1.728067e+02
2.610000e-06	2.355045e-06	2.566067e-09	1.759988e+01	1.742738e+02
2.620000e-06	2.381702e-06	2.588572e-09	1.779909e+01	1.757085e+02
2.630000e-06	2.407984e-06	2.610882e-09	1.799550e+01	1.771116e+02
2.640000e-06	2.433917e-06	2.633591e-09	1.818931e+01	1.784837e+02
2.650000e-06	2.459544e-06	2.654180e-09	1.838083e+01	1.798258e+02
2.660000e-06	2.484862e-06	2.672767e-09	1.857003e+01	1.811386e+02
2.670000e-06	2.509911e-06	2.693159e-09	1.875723e+01	1.824228e+02
2.680000e-06	2.534630e-06	2.716597e-09	1.894196e+01	1.836791e+02
2.690000e-06	2.559161e-06	2.740393e-09	1.912529e+01	1.849083e+02
2.700000e-06	2.583585e-06	2.761717e-09	1.930782e+01	1.861110e+02
2.710000e-06	2.607800e-06	2.781720e-09	1.948878e+01	1.872879e+02
2.720000e-06	2.631832e-06	2.800486e-09	1.966838e+01	1.884397e+02
2.730000e-06	2.655777e-06	2.818093e-09	1.984733e+01	1.895670e+02
2.740000e-06	2.679633e-06	2.832896e-09	2.002561e+01	1.906706e+02
2.750000e-06	2.703392e-06	2.844117e-09	2.020317e+01	1.917511e+02
2.760000e-06	2.726958e-06	2.856959e-09	2.037928e+01	1.928090e+02
2.770000e-06	2.750245e-06	2.874451e-09	2.055331e+01	1.938451e+02
2.780000e-06	2.773337e-06	2.892842e-09	2.072589e+01	1.948599e+02
2.790000e-06	2.796305e-06	2.911139e-09	2.089754e+01	1.958541e+02
2.800000e-06	2.819081e-06	2.928064e-09	2.106775e+01	1.968281e+02
2.810000e-06	2.841622e-06	2.943540e-09	2.123620e+01	1.977828e+02
2.820000e-06	2.863937e-06	2.958521e-09	2.140296e+01	1.987184e+02
2.830000e-06	2.886088e-06	2.972000e-09	2.156850e+01	1.996358e+02
2.840000e-06	2.908074e-06	2.985097e-09	2.173281e+01	2.005353e+02
2.850000e-06	2.929936e-06	2.998873e-09	2.189619e+01	2.014175e+02
2.860000e-06	2.951682e-06	3.013750e-09	2.205871e+01	2.022828e+02
2.870000e-06	2.973149e-06	3.029706e-09	2.221913e+01	2.031319e+02
2.880000e-06	2.994406e-06	3.045860e-09	2.237799e+01	2.039651e+02
2.890000e-06	3.015465e-06	3.061766e-09	2.253537e+01	2.047828e+02
2.900000e-06	3.036275e-06	3.078247e-09	2.269090e+01	2.055855e+02
