# Temperatura_=_20.0
# Concentracion g/m^3_=_9000.0
# C_Vs_to_Am_M_A/Vsm_=_65563218390.804596
# pendiente_HvsI_1/m_=_3716.3
# ordenada_HvsI_A/m_=_1297.0
# frecuencia_Hz_=_135022.0662752299

Tiempo_(s)	Campo_(V.s)	Magnetizacion_(V.s)	Campo_(kA/m)	Magnetizacion_(A/m)
0.000000e+00	-3.905501e-06	-3.612555e-09	-2.914240e+01	-2.357869e+02
1.000000e-08	-3.905619e-06	-3.611090e-09	-2.914327e+01	-2.358112e+02
2.000000e-08	-3.905521e-06	-3.609308e-09	-2.914255e+01	-2.358259e+02
3.000000e-08	-3.905207e-06	-3.609240e-09	-2.914020e+01	-2.358307e+02
4.000000e-08	-3.904557e-06	-3.611384e-09	-2.913536e+01	-2.358255e+02
5.000000e-08	-3.903504e-06	-3.623956e-09	-2.912750e+01	-2.358101e+02
6.000000e-08	-3.902166e-06	-3.622803e-09	-2.911751e+01	-2.357845e+02
7.000000e-08	-3.900461e-06	-3.599188e-09	-2.910479e+01	-2.357484e+02
8.000000e-08	-3.898252e-06	-3.571904e-09	-2.908830e+01	-2.357019e+02
9.000000e-08	-3.895506e-06	-3.609612e-09	-2.906781e+01	-2.356448e+02
1.000000e-07	-3.892397e-06	-3.582027e-09	-2.904462e+01	-2.355773e+02
1.100000e-07	-3.889070e-06	-3.578288e-09	-2.901979e+01	-2.354993e+02
1.200000e-07	-3.885492e-06	-3.616253e-09	-2.899309e+01	-2.354110e+02
1.300000e-07	-3.881777e-06	-3.556264e-09	-2.896537e+01	-2.353123e+02
1.400000e-07	-3.877926e-06	-3.540439e-09	-2.893663e+01	-2.352035e+02
1.500000e-07	-3.873872e-06	-3.552922e-09	-2.890639e+01	-2.350847e+02
1.600000e-07	-3.869696e-06	-3.580519e-09	-2.887522e+01	-2.349561e+02
1.700000e-07	-3.865309e-06	-3.563766e-09	-2.884249e+01	-2.348180e+02
1.800000e-07	-3.860549e-06	-3.557312e-09	-2.880697e+01	-2.346706e+02
1.900000e-07	-3.855467e-06	-3.545436e-09	-2.876905e+01	-2.345141e+02
2.000000e-07	-3.850172e-06	-3.545700e-09	-2.872954e+01	-2.343489e+02
2.100000e-07	-3.844607e-06	-3.552921e-09	-2.868801e+01	-2.341754e+02
2.200000e-07	-3.838716e-06	-3.577137e-09	-2.864405e+01	-2.339938e+02
2.300000e-07	-3.832532e-06	-3.562591e-09	-2.859791e+01	-2.338045e+02
2.400000e-07	-3.826037e-06	-3.506592e-09	-2.854945e+01	-2.336079e+02
2.500000e-07	-3.819196e-06	-3.530791e-09	-2.849840e+01	-2.334042e+02
2.600000e-07	-3.812102e-06	-3.582481e-09	-2.844547e+01	-2.331940e+02
2.700000e-07	-3.804819e-06	-3.548332e-09	-2.839112e+01	-2.329776e+02
2.800000e-07	-3.797326e-06	-3.484548e-09	-2.833521e+01	-2.327552e+02
2.900000e-07	-3.789666e-06	-3.515797e-09	-2.827805e+01	-2.325273e+02
3.000000e-07	-3.781804e-06	-3.552110e-09	-2.821938e+01	-2.322942e+02
3.100000e-07	-3.773715e-06	-3.527839e-09	-2.815902e+01	-2.320561e+02
3.200000e-07	-3.765446e-06	-3.486783e-09	-2.809732e+01	-2.318135e+02
3.300000e-07	-3.756908e-06	-3.498276e-09	-2.803361e+01	-2.315665e+02
3.400000e-07	-3.747999e-06	-3.515540e-09	-2.796714e+01	-2.313154e+02
3.500000e-07	-3.738725e-06	-3.512476e-09	-2.789793e+01	-2.310604e+02
3.600000e-07	-3.729012e-06	-3.486296e-09	-2.782545e+01	-2.308016e+02
3.700000e-07	-3.718799e-06	-3.482715e-09	-2.774925e+01	-2.305393e+02
3.800000e-07	-3.708115e-06	-3.484892e-09	-2.766952e+01	-2.302734e+02
3.900000e-07	-3.697044e-06	-3.488772e-09	-2.758691e+01	-2.300042e+02
4.000000e-07	-3.685715e-06	-3.486022e-09	-2.750238e+01	-2.297316e+02
4.100000e-07	-3.674166e-06	-3.477994e-09	-2.741620e+01	-2.294555e+02
4.200000e-07	-3.662358e-06	-3.454842e-09	-2.732809e+01	-2.291760e+02
4.300000e-07	-3.650231e-06	-3.455758e-09	-2.723760e+01	-2.288931e+02
4.400000e-07	-3.637910e-06	-3.476098e-09	-2.714566e+01	-2.286064e+02
4.500000e-07	-3.625436e-06	-3.459792e-09	-2.705258e+01	-2.283160e+02
4.600000e-07	-3.612598e-06	-3.421460e-09	-2.695679e+01	-2.280216e+02
4.700000e-07	-3.599392e-06	-3.430113e-09	-2.685825e+01	-2.277231e+02
4.800000e-07	-3.585932e-06	-3.459704e-09	-2.675781e+01	-2.274201e+02
4.900000e-07	-3.572242e-06	-3.432357e-09	-2.665566e+01	-2.271125e+02
5.000000e-07	-3.558268e-06	-3.395504e-09	-2.655139e+01	-2.267998e+02
5.100000e-07	-3.543986e-06	-3.408806e-09	-2.644481e+01	-2.264820e+02
5.200000e-07	-3.529393e-06	-3.426640e-09	-2.633592e+01	-2.261585e+02
5.300000e-07	-3.514528e-06	-3.397394e-09	-2.622500e+01	-2.258292e+02
5.400000e-07	-3.499363e-06	-3.380885e-09	-2.611184e+01	-2.254937e+02
5.500000e-07	-3.483626e-06	-3.393330e-09	-2.599441e+01	-2.251516e+02
5.600000e-07	-3.467401e-06	-3.393935e-09	-2.587335e+01	-2.248026e+02
5.700000e-07	-3.451013e-06	-3.375230e-09	-2.575106e+01	-2.244464e+02
5.800000e-07	-3.434495e-06	-3.373460e-09	-2.562781e+01	-2.240827e+02
5.900000e-07	-3.417702e-06	-3.369117e-09	-2.550249e+01	-2.237112e+02
6.000000e-07	-3.400606e-06	-3.354789e-09	-2.537493e+01	-2.233316e+02
6.100000e-07	-3.383269e-06	-3.353053e-09	-2.524556e+01	-2.229436e+02
6.200000e-07	-3.365748e-06	-3.358128e-09	-2.511482e+01	-2.225470e+02
6.300000e-07	-3.348124e-06	-3.337996e-09	-2.498331e+01	-2.221415e+02
6.400000e-07	-3.330299e-06	-3.323503e-09	-2.485031e+01	-2.217271e+02
6.500000e-07	-3.312242e-06	-3.333688e-09	-2.471557e+01	-2.213034e+02
6.600000e-07	-3.293951e-06	-3.331544e-09	-2.457908e+01	-2.208705e+02
6.700000e-07	-3.275367e-06	-3.305214e-09	-2.444041e+01	-2.204281e+02
6.800000e-07	-3.256469e-06	-3.295333e-09	-2.429940e+01	-2.199762e+02
6.900000e-07	-3.237255e-06	-3.304085e-09	-2.415602e+01	-2.195147e+02
7.000000e-07	-3.217793e-06	-3.297757e-09	-2.401080e+01	-2.190438e+02
7.100000e-07	-3.198193e-06	-3.277788e-09	-2.386455e+01	-2.185632e+02
7.200000e-07	-3.178444e-06	-3.269146e-09	-2.371718e+01	-2.180732e+02
7.300000e-07	-3.158560e-06	-3.267030e-09	-2.356881e+01	-2.175738e+02
7.400000e-07	-3.138637e-06	-3.258106e-09	-2.342015e+01	-2.170650e+02
7.500000e-07	-3.118685e-06	-3.247273e-09	-2.327127e+01	-2.165471e+02
7.600000e-07	-3.098609e-06	-3.237652e-09	-2.312146e+01	-2.160200e+02
7.700000e-07	-3.078342e-06	-3.229000e-09	-2.297023e+01	-2.154841e+02
7.800000e-07	-3.057830e-06	-3.221499e-09	-2.281717e+01	-2.149394e+02
7.900000e-07	-3.037100e-06	-3.214901e-09	-2.266249e+01	-2.143861e+02
8.000000e-07	-3.016033e-06	-3.201072e-09	-2.250529e+01	-2.138244e+02
8.100000e-07	-2.994645e-06	-3.184784e-09	-2.234569e+01	-2.132544e+02
8.200000e-07	-2.973126e-06	-3.174443e-09	-2.218512e+01	-2.126764e+02
8.300000e-07	-2.951394e-06	-3.168317e-09	-2.202296e+01	-2.120905e+02
8.400000e-07	-2.929486e-06	-3.156321e-09	-2.185949e+01	-2.114968e+02
8.500000e-07	-2.907448e-06	-3.143801e-09	-2.169504e+01	-2.108955e+02
8.600000e-07	-2.885243e-06	-3.137696e-09	-2.152935e+01	-2.102867e+02
8.700000e-07	-2.862889e-06	-3.135535e-09	-2.136255e+01	-2.096705e+02
8.800000e-07	-2.840303e-06	-3.125733e-09	-2.119402e+01	-2.090470e+02
8.900000e-07	-2.817522e-06	-3.112791e-09	-2.102402e+01	-2.084161e+02
9.000000e-07	-2.794562e-06	-3.102581e-09	-2.085270e+01	-2.077779e+02
9.100000e-07	-2.771325e-06	-3.092055e-09	-2.067931e+01	-2.071324e+02
9.200000e-07	-2.747816e-06	-3.078476e-09	-2.050388e+01	-2.064795e+02
9.300000e-07	-2.724092e-06	-3.065842e-09	-2.032686e+01	-2.058191e+02
9.400000e-07	-2.700280e-06	-3.055898e-09	-2.014918e+01	-2.051510e+02
9.500000e-07	-2.676435e-06	-3.046558e-09	-1.997125e+01	-2.044750e+02
9.600000e-07	-2.652527e-06	-3.034360e-09	-1.979285e+01	-2.037910e+02
9.700000e-07	-2.628420e-06	-3.022275e-09	-1.961297e+01	-2.030986e+02
9.800000e-07	-2.604098e-06	-3.011433e-09	-1.943148e+01	-2.023976e+02
9.900000e-07	-2.579618e-06	-2.999424e-09	-1.924881e+01	-2.016876e+02
1.000000e-06	-2.555006e-06	-2.985605e-09	-1.906516e+01	-2.009682e+02
1.010000e-06	-2.530307e-06	-2.973998e-09	-1.888086e+01	-2.002391e+02
1.020000e-06	-2.505368e-06	-2.963147e-09	-1.869477e+01	-1.994997e+02
1.030000e-06	-2.479986e-06	-2.950999e-09	-1.850537e+01	-1.987496e+02
1.040000e-06	-2.454241e-06	-2.940370e-09	-1.831326e+01	-1.979884e+02
1.050000e-06	-2.428172e-06	-2.926866e-09	-1.811874e+01	-1.972155e+02
1.060000e-06	-2.401828e-06	-2.910914e-09	-1.792216e+01	-1.964303e+02
1.070000e-06	-2.375262e-06	-2.897233e-09	-1.772393e+01	-1.956323e+02
1.080000e-06	-2.348412e-06	-2.885058e-09	-1.752358e+01	-1.948210e+02
1.090000e-06	-2.321353e-06	-2.869113e-09	-1.732167e+01	-1.939959e+02
1.100000e-06	-2.294068e-06	-2.852769e-09	-1.711807e+01	-1.931563e+02
1.110000e-06	-2.266598e-06	-2.840794e-09	-1.691309e+01	-1.923017e+02
1.120000e-06	-2.239025e-06	-2.829334e-09	-1.670734e+01	-1.914316e+02
1.130000e-06	-2.211340e-06	-2.812893e-09	-1.650076e+01	-1.905454e+02
1.140000e-06	-2.183565e-06	-2.794823e-09	-1.629351e+01	-1.896426e+02
1.150000e-06	-2.155729e-06	-2.780679e-09	-1.608580e+01	-1.887228e+02
1.160000e-06	-2.127809e-06	-2.768185e-09	-1.587747e+01	-1.877854e+02
1.170000e-06	-2.099776e-06	-2.751621e-09	-1.566829e+01	-1.868300e+02
1.180000e-06	-2.071663e-06	-2.734527e-09	-1.545851e+01	-1.858563e+02
1.190000e-06	-2.043435e-06	-2.719275e-09	-1.524788e+01	-1.848638e+02
1.200000e-06	-2.015051e-06	-2.707190e-09	-1.503608e+01	-1.838521e+02
1.210000e-06	-1.986436e-06	-2.692812e-09	-1.482256e+01	-1.828210e+02
1.220000e-06	-1.957619e-06	-2.674580e-09	-1.460753e+01	-1.817702e+02
1.230000e-06	-1.928734e-06	-2.655765e-09	-1.439199e+01	-1.806994e+02
1.240000e-06	-1.899770e-06	-2.638104e-09	-1.417586e+01	-1.796084e+02
1.250000e-06	-1.870665e-06	-2.623379e-09	-1.395869e+01	-1.784970e+02
1.260000e-06	-1.841343e-06	-2.606856e-09	-1.373989e+01	-1.773651e+02
1.270000e-06	-1.811831e-06	-2.587528e-09	-1.351967e+01	-1.762124e+02
1.280000e-06	-1.782254e-06	-2.569027e-09	-1.329898e+01	-1.750389e+02
1.290000e-06	-1.752639e-06	-2.553321e-09	-1.307799e+01	-1.738445e+02
1.300000e-06	-1.722908e-06	-2.536773e-09	-1.285614e+01	-1.726291e+02
1.310000e-06	-1.693041e-06	-2.519418e-09	-1.263328e+01	-1.713926e+02
1.320000e-06	-1.663107e-06	-2.500727e-09	-1.240991e+01	-1.701349e+02
1.330000e-06	-1.633126e-06	-2.481962e-09	-1.218620e+01	-1.688560e+02
1.340000e-06	-1.603008e-06	-2.463683e-09	-1.196146e+01	-1.675557e+02
1.350000e-06	-1.572672e-06	-2.443265e-09	-1.173509e+01	-1.662340e+02
1.360000e-06	-1.542248e-06	-2.420729e-09	-1.150808e+01	-1.648906e+02
1.370000e-06	-1.511856e-06	-2.399201e-09	-1.128130e+01	-1.635256e+02
1.380000e-06	-1.481390e-06	-2.378313e-09	-1.105396e+01	-1.621386e+02
1.390000e-06	-1.450809e-06	-2.357151e-09	-1.082577e+01	-1.607294e+02
1.400000e-06	-1.420013e-06	-2.335291e-09	-1.059597e+01	-1.592978e+02
1.410000e-06	-1.389089e-06	-2.312790e-09	-1.036522e+01	-1.578434e+02
1.420000e-06	-1.358225e-06	-2.290517e-09	-1.013492e+01	-1.563659e+02
1.430000e-06	-1.327277e-06	-2.270284e-09	-9.903988e+00	-1.548647e+02
1.440000e-06	-1.296130e-06	-2.249401e-09	-9.671570e+00	-1.533394e+02
1.450000e-06	-1.264851e-06	-2.224655e-09	-9.438175e+00	-1.517894e+02
1.460000e-06	-1.233467e-06	-2.199085e-09	-9.203990e+00	-1.502139e+02
1.470000e-06	-1.202026e-06	-2.174643e-09	-8.969377e+00	-1.486123e+02
1.480000e-06	-1.170611e-06	-2.149176e-09	-8.734968e+00	-1.469838e+02
1.490000e-06	-1.139160e-06	-2.120133e-09	-8.500283e+00	-1.453273e+02
1.500000e-06	-1.107554e-06	-2.091197e-09	-8.264442e+00	-1.436420e+02
1.510000e-06	-1.075857e-06	-2.063841e-09	-8.027924e+00	-1.419268e+02
1.520000e-06	-1.044111e-06	-2.038616e-09	-7.791032e+00	-1.401805e+02
1.530000e-06	-1.012285e-06	-2.012037e-09	-7.553555e+00	-1.384019e+02
1.540000e-06	-9.804568e-07	-1.984335e-09	-7.316055e+00	-1.365897e+02
1.550000e-06	-9.486151e-07	-1.954217e-09	-7.078456e+00	-1.347426e+02
1.560000e-06	-9.167158e-07	-1.920620e-09	-6.840427e+00	-1.328593e+02
1.570000e-06	-8.847863e-07	-1.889618e-09	-6.602173e+00	-1.309381e+02
1.580000e-06	-8.528635e-07	-1.860708e-09	-6.363969e+00	-1.289777e+02
1.590000e-06	-8.209006e-07	-1.829014e-09	-6.125466e+00	-1.269764e+02
1.600000e-06	-7.889113e-07	-1.795115e-09	-5.886765e+00	-1.249327e+02
1.610000e-06	-7.568587e-07	-1.761210e-09	-5.647592e+00	-1.228451e+02
1.620000e-06	-7.247227e-07	-1.727006e-09	-5.407797e+00	-1.207119e+02
1.630000e-06	-6.925868e-07	-1.693164e-09	-5.168003e+00	-1.185316e+02
1.640000e-06	-6.604591e-07	-1.659217e-09	-4.928269e+00	-1.163026e+02
1.650000e-06	-6.283031e-07	-1.622494e-09	-4.688325e+00	-1.140234e+02
1.660000e-06	-5.960385e-07	-1.584865e-09	-4.447570e+00	-1.116925e+02
1.670000e-06	-5.637226e-07	-1.551470e-09	-4.206433e+00	-1.093084e+02
1.680000e-06	-5.313615e-07	-1.519201e-09	-3.964958e+00	-1.068699e+02
1.690000e-06	-4.989929e-07	-1.482905e-09	-3.723427e+00	-1.043756e+02
1.700000e-06	-4.666516e-07	-1.444790e-09	-3.482100e+00	-1.018244e+02
1.710000e-06	-4.342484e-07	-1.409077e-09	-3.240312e+00	-9.921516e+01
1.720000e-06	-4.018409e-07	-1.372590e-09	-2.998491e+00	-9.654702e+01
1.730000e-06	-3.694613e-07	-1.333594e-09	-2.756878e+00	-9.381916e+01
1.740000e-06	-3.370396e-07	-1.293203e-09	-2.514951e+00	-9.103091e+01
1.750000e-06	-3.045777e-07	-1.253633e-09	-2.272724e+00	-8.818178e+01
1.760000e-06	-2.720495e-07	-1.215194e-09	-2.030002e+00	-8.527142e+01
1.770000e-06	-2.394490e-07	-1.175569e-09	-1.786741e+00	-8.229969e+01
1.780000e-06	-2.067993e-07	-1.133154e-09	-1.543112e+00	-7.926662e+01
1.790000e-06	-1.741518e-07	-1.088626e-09	-1.299501e+00	-7.617243e+01
1.800000e-06	-1.415512e-07	-1.042825e-09	-1.056239e+00	-7.301754e+01
1.810000e-06	-1.089789e-07	-9.969918e-10	-8.131883e-01	-6.980258e+01
1.820000e-06	-7.644903e-08	-9.510691e-10	-5.704538e-01	-6.652838e+01
1.830000e-06	-4.392843e-08	-9.039509e-10	-3.277889e-01	-6.319598e+01
1.840000e-06	-1.145773e-08	-8.567804e-10	-8.549625e-02	-5.980663e+01
1.850000e-06	2.106321e-08	-8.092168e-10	1.571713e-01	-5.636179e+01
1.860000e-06	5.369088e-08	-7.603730e-10	4.006351e-01	-5.286313e+01
1.870000e-06	8.631824e-08	-7.085670e-10	6.440967e-01	-4.931252e+01
1.880000e-06	1.188883e-07	-6.550029e-10	8.871309e-01	-4.571204e+01
1.890000e-06	1.514354e-07	-6.020544e-10	1.129993e+00	-4.206395e+01
1.900000e-06	1.840276e-07	-5.514919e-10	1.373193e+00	-3.837070e+01
1.910000e-06	2.165751e-07	-4.989755e-10	1.616059e+00	-3.463494e+01
1.920000e-06	2.490061e-07	-4.427267e-10	1.858055e+00	-3.085946e+01
1.930000e-06	2.814466e-07	-3.840581e-10	2.100122e+00	-2.704723e+01
1.940000e-06	3.139446e-07	-3.270822e-10	2.342618e+00	-2.320134e+01
1.950000e-06	3.463677e-07	-2.727864e-10	2.584556e+00	-1.932504e+01
1.960000e-06	3.787441e-07	-2.178062e-10	2.826145e+00	-1.542168e+01
1.970000e-06	4.111248e-07	-1.601716e-10	3.067766e+00	-1.149474e+01
1.980000e-06	4.434549e-07	-1.023954e-10	3.309010e+00	-7.547760e+00
1.990000e-06	4.757890e-07	-4.617121e-11	3.550283e+00	-3.584379e+00
2.000000e-06	5.081048e-07	1.290451e-11	3.791419e+00	3.917200e-01
2.010000e-06	5.404064e-07	7.549094e-11	4.032450e+00	4.376806e+00
2.020000e-06	5.727059e-07	1.367445e-10	4.273465e+00	8.367125e+00
2.030000e-06	6.049441e-07	1.933029e-10	4.514023e+00	1.235891e+01
2.040000e-06	6.371397e-07	2.474343e-10	4.754263e+00	1.634841e+01
2.050000e-06	6.692480e-07	3.050012e-10	4.993851e+00	2.033189e+01
2.060000e-06	7.012784e-07	3.638645e-10	5.232858e+00	2.430566e+01
2.070000e-06	7.332783e-07	4.207512e-10	5.471638e+00	2.826608e+01
2.080000e-06	7.652547e-07	4.748882e-10	5.710242e+00	3.220960e+01
2.090000e-06	7.972138e-07	5.317341e-10	5.948717e+00	3.613272e+01
2.100000e-06	8.291415e-07	5.930528e-10	6.186958e+00	4.003207e+01
2.110000e-06	8.610766e-07	6.539634e-10	6.425254e+00	4.390438e+01
2.120000e-06	8.930094e-07	7.112070e-10	6.663533e+00	4.774651e+01
2.130000e-06	9.248927e-07	7.644882e-10	6.901442e+00	5.155545e+01
2.140000e-06	9.567547e-07	8.181494e-10	7.139193e+00	5.532833e+01
2.150000e-06	9.885810e-07	8.726637e-10	7.376677e+00	5.906246e+01
2.160000e-06	1.020343e-06	9.263621e-10	7.613684e+00	6.275527e+01
2.170000e-06	1.052119e-06	9.763742e-10	7.850793e+00	6.640439e+01
2.180000e-06	1.083909e-06	1.028008e-09	8.088007e+00	7.000762e+01
2.190000e-06	1.115654e-06	1.080123e-09	8.324884e+00	7.356293e+01
2.200000e-06	1.147339e-06	1.130066e-09	8.561310e+00	7.706847e+01
2.210000e-06	1.178948e-06	1.179868e-09	8.797173e+00	8.052258e+01
2.220000e-06	1.210448e-06	1.230110e-09	9.032220e+00	8.392377e+01
2.230000e-06	1.241810e-06	1.277221e-09	9.266244e+00	8.727074e+01
2.240000e-06	1.273125e-06	1.323890e-09	9.499915e+00	9.056239e+01
2.250000e-06	1.304380e-06	1.370920e-09	9.733135e+00	9.379776e+01
2.260000e-06	1.335468e-06	1.415111e-09	9.965109e+00	9.697608e+01
2.270000e-06	1.366434e-06	1.458084e-09	1.019618e+01	1.000968e+02
2.280000e-06	1.397334e-06	1.502097e-09	1.042674e+01	1.031594e+02
2.290000e-06	1.428083e-06	1.545967e-09	1.065619e+01	1.061637e+02
2.300000e-06	1.458669e-06	1.589102e-09	1.088442e+01	1.091094e+02
2.310000e-06	1.489138e-06	1.632491e-09	1.111177e+01	1.119968e+02
2.320000e-06	1.519504e-06	1.675004e-09	1.133836e+01	1.148258e+02
2.330000e-06	1.549783e-06	1.714522e-09	1.156430e+01	1.175967e+02
2.340000e-06	1.579964e-06	1.752925e-09	1.178951e+01	1.203101e+02
2.350000e-06	1.609997e-06	1.792413e-09	1.201361e+01	1.229662e+02
2.360000e-06	1.639873e-06	1.831442e-09	1.223655e+01	1.255658e+02
2.370000e-06	1.669733e-06	1.869163e-09	1.245935e+01	1.281095e+02
2.380000e-06	1.699664e-06	1.907187e-09	1.268270e+01	1.305981e+02
2.390000e-06	1.729570e-06	1.946212e-09	1.290585e+01	1.330324e+02
2.400000e-06	1.759269e-06	1.982801e-09	1.312746e+01	1.354133e+02
2.410000e-06	1.788774e-06	2.016469e-09	1.334762e+01	1.377417e+02
2.420000e-06	1.818185e-06	2.047437e-09	1.356709e+01	1.400187e+02
2.430000e-06	1.847467e-06	2.077641e-09	1.378558e+01	1.422451e+02
2.440000e-06	1.876604e-06	2.110111e-09	1.400300e+01	1.444221e+02
2.450000e-06	1.905560e-06	2.143692e-09	1.421907e+01	1.465507e+02
2.460000e-06	1.934353e-06	2.174986e-09	1.443392e+01	1.486319e+02
2.470000e-06	1.963015e-06	2.204637e-09	1.464779e+01	1.506668e+02
2.480000e-06	1.991453e-06	2.233672e-09	1.485999e+01	1.526566e+02
2.490000e-06	2.019714e-06	2.263530e-09	1.507087e+01	1.546022e+02
2.500000e-06	2.047870e-06	2.295155e-09	1.528097e+01	1.565046e+02
2.510000e-06	2.075931e-06	2.325655e-09	1.549036e+01	1.583650e+02
2.520000e-06	2.103912e-06	2.351042e-09	1.569915e+01	1.601843e+02
2.530000e-06	2.131821e-06	2.375876e-09	1.590740e+01	1.619635e+02
2.540000e-06	2.159719e-06	2.401373e-09	1.611557e+01	1.637036e+02
2.550000e-06	2.187603e-06	2.424248e-09	1.632364e+01	1.654055e+02
2.560000e-06	2.215424e-06	2.444933e-09	1.653124e+01	1.670701e+02
2.570000e-06	2.243188e-06	2.468780e-09	1.673841e+01	1.686982e+02
2.580000e-06	2.270838e-06	2.496525e-09	1.694473e+01	1.702909e+02
2.590000e-06	2.298290e-06	2.521763e-09	1.714957e+01	1.718488e+02
2.600000e-06	2.325627e-06	2.545371e-09	1.735356e+01	1.733728e+02
2.610000e-06	2.352764e-06	2.570163e-09	1.755606e+01	1.748636e+02
2.620000e-06	2.379600e-06	2.594460e-09	1.775630e+01	1.763220e+02
2.630000e-06	2.406153e-06	2.617044e-09	1.795444e+01	1.777488e+02
2.640000e-06	2.432423e-06	2.638739e-09	1.815046e+01	1.791446e+02
2.650000e-06	2.458375e-06	2.659015e-09	1.834411e+01	1.805101e+02
2.660000e-06	2.483948e-06	2.678572e-09	1.853493e+01	1.818461e+02
2.670000e-06	2.509192e-06	2.700183e-09	1.872330e+01	1.831531e+02
2.680000e-06	2.534186e-06	2.722401e-09	1.890981e+01	1.844318e+02
2.690000e-06	2.558943e-06	2.741312e-09	1.909454e+01	1.856829e+02
2.700000e-06	2.583412e-06	2.759759e-09	1.927712e+01	1.869069e+02
2.710000e-06	2.607640e-06	2.779582e-09	1.945791e+01	1.881045e+02
2.720000e-06	2.631756e-06	2.798849e-09	1.963786e+01	1.892763e+02
2.730000e-06	2.655771e-06	2.815863e-09	1.981705e+01	1.904229e+02
2.740000e-06	2.679672e-06	2.831211e-09	1.999540e+01	1.915449e+02
2.750000e-06	2.703486e-06	2.845391e-09	2.017310e+01	1.926429e+02
2.760000e-06	2.727133e-06	2.861048e-09	2.034955e+01	1.937175e+02
2.770000e-06	2.750516e-06	2.879455e-09	2.052403e+01	1.947693e+02
2.780000e-06	2.773670e-06	2.897292e-09	2.069680e+01	1.957988e+02
2.790000e-06	2.796653e-06	2.912539e-09	2.086830e+01	1.968068e+02
2.800000e-06	2.819471e-06	2.926649e-09	2.103856e+01	1.977937e+02
2.810000e-06	2.842155e-06	2.943091e-09	2.120783e+01	1.987602e+02
2.820000e-06	2.864638e-06	2.960851e-09	2.137560e+01	1.997067e+02
2.830000e-06	2.886889e-06	2.974500e-09	2.154163e+01	2.006340e+02
2.840000e-06	2.908979e-06	2.986087e-09	2.170646e+01	2.015426e+02
2.850000e-06	2.930900e-06	3.001442e-09	2.187004e+01	2.024330e+02
2.860000e-06	2.952620e-06	3.019732e-09	2.203211e+01	2.033057e+02
2.870000e-06	2.974205e-06	3.035737e-09	2.219317e+01	2.041614e+02
2.880000e-06	2.995570e-06	3.049047e-09	2.235260e+01	2.050005e+02
2.890000e-06	3.016631e-06	3.064250e-09	2.250975e+01	2.058235e+02
2.900000e-06	3.037449e-06	3.080578e-09	2.266509e+01	2.066310e+02
