# Temperatura_=_20.0
# Concentracion g/m^3_=_9000.0
# C_Vs_to_Am_M_A/Vsm_=_65563218390.804596
# pendiente_HvsI_1/m_=_3716.3
# ordenada_HvsI_A/m_=_1297.0
# frecuencia_Hz_=_135018.55174288707

Tiempo_(s)	Campo_(V.s)	Magnetizacion_(V.s)	Campo_(kA/m)	Magnetizacion_(A/m)
0.000000e+00	-3.898661e-06	-3.586030e-09	-2.914045e+01	-2.350703e+02
1.000000e-08	-3.898984e-06	-3.586568e-09	-2.914287e+01	-2.351282e+02
2.000000e-08	-3.899076e-06	-3.585606e-09	-2.914355e+01	-2.351743e+02
3.000000e-08	-3.898969e-06	-3.582688e-09	-2.914275e+01	-2.352084e+02
4.000000e-08	-3.898627e-06	-3.581517e-09	-2.914020e+01	-2.352302e+02
5.000000e-08	-3.898010e-06	-3.586641e-09	-2.913559e+01	-2.352395e+02
6.000000e-08	-3.897001e-06	-3.605736e-09	-2.912805e+01	-2.352361e+02
7.000000e-08	-3.895480e-06	-3.619729e-09	-2.911667e+01	-2.352198e+02
8.000000e-08	-3.893392e-06	-3.607122e-09	-2.910107e+01	-2.351906e+02
9.000000e-08	-3.890877e-06	-3.556895e-09	-2.908227e+01	-2.351483e+02
1.000000e-07	-3.888110e-06	-3.551075e-09	-2.906159e+01	-2.350931e+02
1.100000e-07	-3.884986e-06	-3.516028e-09	-2.903824e+01	-2.350249e+02
1.200000e-07	-3.881556e-06	-3.521639e-09	-2.901260e+01	-2.349439e+02
1.300000e-07	-3.878023e-06	-3.570784e-09	-2.898620e+01	-2.348502e+02
1.400000e-07	-3.874325e-06	-3.603068e-09	-2.895856e+01	-2.347440e+02
1.500000e-07	-3.870417e-06	-3.580022e-09	-2.892935e+01	-2.346255e+02
1.600000e-07	-3.866304e-06	-3.527742e-09	-2.889860e+01	-2.344950e+02
1.700000e-07	-3.861941e-06	-3.564912e-09	-2.886599e+01	-2.343528e+02
1.800000e-07	-3.857337e-06	-3.569629e-09	-2.883158e+01	-2.341993e+02
1.900000e-07	-3.852458e-06	-3.570274e-09	-2.879511e+01	-2.340349e+02
2.000000e-07	-3.847332e-06	-3.530984e-09	-2.875679e+01	-2.338600e+02
2.100000e-07	-3.841934e-06	-3.523168e-09	-2.871645e+01	-2.336750e+02
2.200000e-07	-3.836217e-06	-3.524037e-09	-2.867372e+01	-2.334804e+02
2.300000e-07	-3.830226e-06	-3.565543e-09	-2.862894e+01	-2.332767e+02
2.400000e-07	-3.823946e-06	-3.560647e-09	-2.858200e+01	-2.330644e+02
2.500000e-07	-3.817393e-06	-3.491609e-09	-2.853301e+01	-2.328439e+02
2.600000e-07	-3.810505e-06	-3.467228e-09	-2.848153e+01	-2.326159e+02
2.700000e-07	-3.803303e-06	-3.545466e-09	-2.842770e+01	-2.323807e+02
2.800000e-07	-3.795923e-06	-3.580783e-09	-2.837254e+01	-2.321390e+02
2.900000e-07	-3.788333e-06	-3.491933e-09	-2.831581e+01	-2.318911e+02
3.000000e-07	-3.780579e-06	-3.459169e-09	-2.825785e+01	-2.316376e+02
3.100000e-07	-3.772697e-06	-3.533827e-09	-2.819894e+01	-2.313789e+02
3.200000e-07	-3.764634e-06	-3.567399e-09	-2.813867e+01	-2.311154e+02
3.300000e-07	-3.756256e-06	-3.490839e-09	-2.807605e+01	-2.308476e+02
3.400000e-07	-3.747542e-06	-3.457185e-09	-2.801092e+01	-2.305757e+02
3.500000e-07	-3.738588e-06	-3.488697e-09	-2.794399e+01	-2.303003e+02
3.600000e-07	-3.729281e-06	-3.519607e-09	-2.787442e+01	-2.300214e+02
3.700000e-07	-3.719421e-06	-3.489846e-09	-2.780072e+01	-2.297394e+02
3.800000e-07	-3.708991e-06	-3.470029e-09	-2.772277e+01	-2.294546e+02
3.900000e-07	-3.698164e-06	-3.465182e-09	-2.764184e+01	-2.291670e+02
4.000000e-07	-3.687024e-06	-3.487303e-09	-2.755857e+01	-2.288768e+02
4.100000e-07	-3.675596e-06	-3.491594e-09	-2.747316e+01	-2.285841e+02
4.200000e-07	-3.663989e-06	-3.478275e-09	-2.738640e+01	-2.282890e+02
4.300000e-07	-3.652126e-06	-3.438100e-09	-2.729773e+01	-2.279914e+02
4.400000e-07	-3.639966e-06	-3.433672e-09	-2.720684e+01	-2.276913e+02
4.500000e-07	-3.627553e-06	-3.462604e-09	-2.711406e+01	-2.273885e+02
4.600000e-07	-3.614820e-06	-3.467734e-09	-2.701889e+01	-2.270831e+02
4.700000e-07	-3.601764e-06	-3.421310e-09	-2.692130e+01	-2.267748e+02
4.800000e-07	-3.588377e-06	-3.408142e-09	-2.682124e+01	-2.264634e+02
4.900000e-07	-3.574758e-06	-3.450877e-09	-2.671945e+01	-2.261487e+02
5.000000e-07	-3.560893e-06	-3.458653e-09	-2.661582e+01	-2.258304e+02
5.100000e-07	-3.546636e-06	-3.408361e-09	-2.650925e+01	-2.255083e+02
5.200000e-07	-3.532118e-06	-3.387793e-09	-2.640074e+01	-2.251820e+02
5.300000e-07	-3.517321e-06	-3.418860e-09	-2.629013e+01	-2.248513e+02
5.400000e-07	-3.502161e-06	-3.414764e-09	-2.617682e+01	-2.245158e+02
5.500000e-07	-3.486691e-06	-3.379202e-09	-2.606119e+01	-2.241752e+02
5.600000e-07	-3.470897e-06	-3.368872e-09	-2.594314e+01	-2.238291e+02
5.700000e-07	-3.454766e-06	-3.384347e-09	-2.582257e+01	-2.234771e+02
5.800000e-07	-3.438332e-06	-3.375424e-09	-2.569973e+01	-2.231190e+02
5.900000e-07	-3.421642e-06	-3.364549e-09	-2.557498e+01	-2.227544e+02
6.000000e-07	-3.404755e-06	-3.360338e-09	-2.544876e+01	-2.223829e+02
6.100000e-07	-3.387653e-06	-3.352759e-09	-2.532093e+01	-2.220043e+02
6.200000e-07	-3.370324e-06	-3.341626e-09	-2.519141e+01	-2.216183e+02
6.300000e-07	-3.352891e-06	-3.347932e-09	-2.506111e+01	-2.212245e+02
6.400000e-07	-3.335322e-06	-3.339636e-09	-2.492979e+01	-2.208227e+02
6.500000e-07	-3.317545e-06	-3.318236e-09	-2.479692e+01	-2.204128e+02
6.600000e-07	-3.299472e-06	-3.311631e-09	-2.466183e+01	-2.199944e+02
6.700000e-07	-3.280994e-06	-3.319316e-09	-2.452372e+01	-2.195674e+02
6.800000e-07	-3.262229e-06	-3.302174e-09	-2.438346e+01	-2.191316e+02
6.900000e-07	-3.243254e-06	-3.279678e-09	-2.424163e+01	-2.186870e+02
7.000000e-07	-3.224024e-06	-3.280977e-09	-2.409789e+01	-2.182334e+02
7.100000e-07	-3.204587e-06	-3.287044e-09	-2.395261e+01	-2.177707e+02
7.200000e-07	-3.184996e-06	-3.268922e-09	-2.380618e+01	-2.172989e+02
7.300000e-07	-3.165314e-06	-3.249997e-09	-2.365907e+01	-2.168180e+02
7.400000e-07	-3.145540e-06	-3.245257e-09	-2.351127e+01	-2.163280e+02
7.500000e-07	-3.125638e-06	-3.240999e-09	-2.336251e+01	-2.158288e+02
7.600000e-07	-3.105574e-06	-3.229505e-09	-2.321255e+01	-2.153206e+02
7.700000e-07	-3.085321e-06	-3.216427e-09	-2.306116e+01	-2.148034e+02
7.800000e-07	-3.064860e-06	-3.204312e-09	-2.290823e+01	-2.142773e+02
7.900000e-07	-3.044174e-06	-3.193068e-09	-2.275361e+01	-2.137423e+02
8.000000e-07	-3.023248e-06	-3.187084e-09	-2.259719e+01	-2.131985e+02
8.100000e-07	-3.002096e-06	-3.179540e-09	-2.243910e+01	-2.126461e+02
8.200000e-07	-2.980770e-06	-3.164202e-09	-2.227970e+01	-2.120851e+02
8.300000e-07	-2.959239e-06	-3.146890e-09	-2.211876e+01	-2.115156e+02
8.400000e-07	-2.937517e-06	-3.142350e-09	-2.195640e+01	-2.109377e+02
8.500000e-07	-2.915601e-06	-3.138149e-09	-2.179259e+01	-2.103514e+02
8.600000e-07	-2.893459e-06	-3.124402e-09	-2.162709e+01	-2.097569e+02
8.700000e-07	-2.871109e-06	-3.111496e-09	-2.146004e+01	-2.091541e+02
8.800000e-07	-2.848565e-06	-3.110575e-09	-2.129153e+01	-2.085431e+02
8.900000e-07	-2.825887e-06	-3.105203e-09	-2.112202e+01	-2.079238e+02
9.000000e-07	-2.802954e-06	-3.090392e-09	-2.095062e+01	-2.072964e+02
9.100000e-07	-2.779731e-06	-3.075503e-09	-2.077704e+01	-2.066606e+02
9.200000e-07	-2.756333e-06	-3.068175e-09	-2.060215e+01	-2.060164e+02
9.300000e-07	-2.732820e-06	-3.060400e-09	-2.042640e+01	-2.053638e+02
9.400000e-07	-2.709226e-06	-3.048035e-09	-2.025005e+01	-2.047025e+02
9.500000e-07	-2.685554e-06	-3.035264e-09	-2.007311e+01	-2.040324e+02
9.600000e-07	-2.661768e-06	-3.027045e-09	-1.989532e+01	-2.033533e+02
9.700000e-07	-2.637777e-06	-3.016489e-09	-1.971600e+01	-2.026650e+02
9.800000e-07	-2.613570e-06	-3.005492e-09	-1.953507e+01	-2.019672e+02
9.900000e-07	-2.589273e-06	-2.994144e-09	-1.935346e+01	-2.012596e+02
1.000000e-06	-2.564833e-06	-2.980720e-09	-1.917078e+01	-2.005419e+02
1.010000e-06	-2.540133e-06	-2.967649e-09	-1.898616e+01	-1.998138e+02
1.020000e-06	-2.515084e-06	-2.959419e-09	-1.879893e+01	-1.990748e+02
1.030000e-06	-2.489666e-06	-2.951787e-09	-1.860895e+01	-1.983247e+02
1.040000e-06	-2.464007e-06	-2.939992e-09	-1.841717e+01	-1.975629e+02
1.050000e-06	-2.438155e-06	-2.927971e-09	-1.822393e+01	-1.967892e+02
1.060000e-06	-2.411994e-06	-2.917743e-09	-1.802839e+01	-1.960030e+02
1.070000e-06	-2.385450e-06	-2.906443e-09	-1.782999e+01	-1.952039e+02
1.080000e-06	-2.358587e-06	-2.890302e-09	-1.762920e+01	-1.943915e+02
1.090000e-06	-2.331454e-06	-2.873348e-09	-1.742640e+01	-1.935653e+02
1.100000e-06	-2.304194e-06	-2.859269e-09	-1.722265e+01	-1.927250e+02
1.110000e-06	-2.276816e-06	-2.848907e-09	-1.701801e+01	-1.918700e+02
1.120000e-06	-2.249248e-06	-2.838627e-09	-1.681195e+01	-1.909999e+02
1.130000e-06	-2.221584e-06	-2.826235e-09	-1.660518e+01	-1.901144e+02
1.140000e-06	-2.193888e-06	-2.812280e-09	-1.639816e+01	-1.892130e+02
1.150000e-06	-2.166092e-06	-2.798753e-09	-1.619041e+01	-1.882954e+02
1.160000e-06	-2.138207e-06	-2.784740e-09	-1.598198e+01	-1.873612e+02
1.170000e-06	-2.110260e-06	-2.767996e-09	-1.577309e+01	-1.864101e+02
1.180000e-06	-2.082202e-06	-2.747138e-09	-1.556337e+01	-1.854417e+02
1.190000e-06	-2.053988e-06	-2.728465e-09	-1.535248e+01	-1.844558e+02
1.200000e-06	-2.025675e-06	-2.712348e-09	-1.514086e+01	-1.834521e+02
1.210000e-06	-1.997250e-06	-2.698056e-09	-1.492840e+01	-1.824304e+02
1.220000e-06	-1.968701e-06	-2.681585e-09	-1.471501e+01	-1.813905e+02
1.230000e-06	-1.940046e-06	-2.664222e-09	-1.450083e+01	-1.803321e+02
1.240000e-06	-1.911240e-06	-2.647654e-09	-1.428552e+01	-1.792552e+02
1.250000e-06	-1.882202e-06	-2.631941e-09	-1.406848e+01	-1.781596e+02
1.260000e-06	-1.852993e-06	-2.615707e-09	-1.385016e+01	-1.770451e+02
1.270000e-06	-1.823668e-06	-2.595259e-09	-1.363097e+01	-1.759116e+02
1.280000e-06	-1.794230e-06	-2.575023e-09	-1.341093e+01	-1.747591e+02
1.290000e-06	-1.764754e-06	-2.556933e-09	-1.319061e+01	-1.735874e+02
1.300000e-06	-1.735182e-06	-2.538400e-09	-1.296958e+01	-1.723964e+02
1.310000e-06	-1.705462e-06	-2.518701e-09	-1.274744e+01	-1.711861e+02
1.320000e-06	-1.675624e-06	-2.501340e-09	-1.252441e+01	-1.699564e+02
1.330000e-06	-1.645721e-06	-2.484450e-09	-1.230090e+01	-1.687071e+02
1.340000e-06	-1.615684e-06	-2.465671e-09	-1.207639e+01	-1.674381e+02
1.350000e-06	-1.585499e-06	-2.446489e-09	-1.185078e+01	-1.661492e+02
1.360000e-06	-1.555254e-06	-2.426646e-09	-1.162471e+01	-1.648403e+02
1.370000e-06	-1.524902e-06	-2.405837e-09	-1.139784e+01	-1.635111e+02
1.380000e-06	-1.494452e-06	-2.385981e-09	-1.117024e+01	-1.621613e+02
1.390000e-06	-1.463964e-06	-2.365077e-09	-1.094237e+01	-1.607907e+02
1.400000e-06	-1.433382e-06	-2.342207e-09	-1.071378e+01	-1.593989e+02
1.410000e-06	-1.402722e-06	-2.318611e-09	-1.048461e+01	-1.579854e+02
1.420000e-06	-1.371948e-06	-2.297582e-09	-1.025460e+01	-1.565497e+02
1.430000e-06	-1.341038e-06	-2.276667e-09	-1.002356e+01	-1.550914e+02
1.440000e-06	-1.310016e-06	-2.255057e-09	-9.791684e+00	-1.536097e+02
1.450000e-06	-1.278891e-06	-2.234492e-09	-9.559042e+00	-1.521041e+02
1.460000e-06	-1.247648e-06	-2.211850e-09	-9.325518e+00	-1.505736e+02
1.470000e-06	-1.216314e-06	-2.185808e-09	-9.091310e+00	-1.490175e+02
1.480000e-06	-1.184979e-06	-2.159580e-09	-8.857099e+00	-1.474349e+02
1.490000e-06	-1.153554e-06	-2.132349e-09	-8.622215e+00	-1.458247e+02
1.500000e-06	-1.121998e-06	-2.103141e-09	-8.386345e+00	-1.441858e+02
1.510000e-06	-1.090382e-06	-2.075888e-09	-8.150036e+00	-1.425172e+02
1.520000e-06	-1.058693e-06	-2.049206e-09	-7.913180e+00	-1.408175e+02
1.530000e-06	-1.026963e-06	-2.023575e-09	-7.676009e+00	-1.390855e+02
1.540000e-06	-9.952069e-07	-1.997298e-09	-7.438651e+00	-1.373199e+02
1.550000e-06	-9.634551e-07	-1.968876e-09	-7.201323e+00	-1.355191e+02
1.560000e-06	-9.317270e-07	-1.938828e-09	-6.964172e+00	-1.336818e+02
1.570000e-06	-8.999457e-07	-1.907911e-09	-6.726624e+00	-1.318063e+02
1.580000e-06	-8.681205e-07	-1.876808e-09	-6.488747e+00	-1.298913e+02
1.590000e-06	-8.362939e-07	-1.845528e-09	-6.250860e+00	-1.279350e+02
1.600000e-06	-8.044006e-07	-1.812474e-09	-6.012474e+00	-1.259358e+02
1.610000e-06	-7.723813e-07	-1.777496e-09	-5.773146e+00	-1.238923e+02
1.620000e-06	-7.403577e-07	-1.743240e-09	-5.533787e+00	-1.218027e+02
1.630000e-06	-7.083130e-07	-1.710326e-09	-5.294269e+00	-1.196655e+02
1.640000e-06	-6.762555e-07	-1.677483e-09	-5.054656e+00	-1.174790e+02
1.650000e-06	-6.441773e-07	-1.641894e-09	-4.814888e+00	-1.152418e+02
1.660000e-06	-6.119566e-07	-1.605511e-09	-4.574056e+00	-1.129524e+02
1.670000e-06	-5.797075e-07	-1.573024e-09	-4.333011e+00	-1.106093e+02
1.680000e-06	-5.474662e-07	-1.542382e-09	-4.092024e+00	-1.082112e+02
1.690000e-06	-5.151799e-07	-1.507971e-09	-3.850701e+00	-1.057568e+02
1.700000e-06	-4.828522e-07	-1.471278e-09	-3.609068e+00	-1.032450e+02
1.710000e-06	-4.505898e-07	-1.436455e-09	-3.367923e+00	-1.006747e+02
1.720000e-06	-4.183343e-07	-1.403180e-09	-3.126830e+00	-9.804500e+01
1.730000e-06	-3.858900e-07	-1.366766e-09	-2.884326e+00	-9.535509e+01
1.740000e-06	-3.534233e-07	-1.326680e-09	-2.641654e+00	-9.260432e+01
1.750000e-06	-3.210630e-07	-1.285979e-09	-2.399778e+00	-8.979221e+01
1.760000e-06	-2.887324e-07	-1.245538e-09	-2.158124e+00	-8.691841e+01
1.770000e-06	-2.563319e-07	-1.205486e-09	-1.915947e+00	-8.398278e+01
1.780000e-06	-2.238585e-07	-1.163441e-09	-1.673225e+00	-8.098534e+01
1.790000e-06	-1.914261e-07	-1.118994e-09	-1.430810e+00	-7.792629e+01
1.800000e-06	-1.589396e-07	-1.074070e-09	-1.187991e+00	-7.480605e+01
1.810000e-06	-1.263824e-07	-1.030562e-09	-9.446421e-01	-7.162521e+01
1.820000e-06	-9.383975e-08	-9.871866e-10	-7.014030e-01	-6.838457e+01
1.830000e-06	-6.134211e-08	-9.396337e-10	-4.585002e-01	-6.508514e+01
1.840000e-06	-2.890196e-08	-8.884087e-10	-2.160270e-01	-6.172812e+01
1.850000e-06	3.569525e-09	-8.386879e-10	2.668033e-02	-5.831492e+01
1.860000e-06	3.609942e-08	-7.896423e-10	2.698243e-01	-5.484714e+01
1.870000e-06	6.866569e-08	-7.365131e-10	5.132401e-01	-5.132661e+01
1.880000e-06	1.012606e-07	-6.802250e-10	7.568699e-01	-4.775530e+01
1.890000e-06	1.338222e-07	-6.258454e-10	1.000251e+00	-4.413541e+01
1.900000e-06	1.663533e-07	-5.735275e-10	1.243404e+00	-4.046931e+01
1.910000e-06	1.989502e-07	-5.206881e-10	1.487049e+00	-3.675953e+01
1.920000e-06	2.315337e-07	-4.657307e-10	1.730593e+00	-3.300878e+01
1.930000e-06	2.640592e-07	-4.098210e-10	1.973704e+00	-2.921993e+01
1.940000e-06	2.966026e-07	-3.531191e-10	2.216949e+00	-2.539596e+01
1.950000e-06	3.290778e-07	-2.942908e-10	2.459684e+00	-2.154002e+01
1.960000e-06	3.614289e-07	-2.360716e-10	2.701492e+00	-1.765535e+01
1.970000e-06	3.938035e-07	-1.770895e-10	2.943475e+00	-1.374531e+01
1.980000e-06	4.261485e-07	-1.175096e-10	3.185237e+00	-9.813347e+00
1.990000e-06	4.584044e-07	-6.008775e-11	3.426333e+00	-5.862990e+00
2.000000e-06	4.905996e-07	-4.752561e-12	3.666975e+00	-1.897825e+00
2.010000e-06	5.227112e-07	5.228310e-11	3.906993e+00	2.078516e+00
2.020000e-06	5.547960e-07	1.136136e-10	4.146810e+00	6.062367e+00
2.030000e-06	5.869038e-07	1.736957e-10	4.386799e+00	1.005005e+01
2.040000e-06	6.190529e-07	2.307724e-10	4.627097e+00	1.403787e+01
2.050000e-06	6.511714e-07	2.893596e-10	4.867166e+00	1.802217e+01
2.060000e-06	6.832320e-07	3.501715e-10	5.106802e+00	2.199932e+01
2.070000e-06	7.152552e-07	4.118503e-10	5.346158e+00	2.596570e+01
2.080000e-06	7.471950e-07	4.724583e-10	5.584892e+00	2.991780e+01
2.090000e-06	7.790776e-07	5.292608e-10	5.823198e+00	3.385213e+01
2.100000e-06	8.109297e-07	5.859041e-10	6.061276e+00	3.776533e+01
2.110000e-06	8.427510e-07	6.438230e-10	6.299123e+00	4.165411e+01
2.120000e-06	8.745978e-07	7.009389e-10	6.537161e+00	4.551530e+01
2.130000e-06	9.064255e-07	7.559672e-10	6.775056e+00	4.934584e+01
2.140000e-06	9.382024e-07	8.077864e-10	7.012573e+00	5.314280e+01
2.150000e-06	9.699432e-07	8.605959e-10	7.249818e+00	5.690340e+01
2.160000e-06	1.001680e-06	9.183970e-10	7.487035e+00	6.062499e+01
2.170000e-06	1.033434e-06	9.753367e-10	7.724376e+00	6.430509e+01
2.180000e-06	1.065165e-06	1.026535e-09	7.961555e+00	6.794136e+01
2.190000e-06	1.096813e-06	1.075708e-09	8.198103e+00	7.153163e+01
2.200000e-06	1.128368e-06	1.125643e-09	8.433957e+00	7.507391e+01
2.210000e-06	1.159885e-06	1.175893e-09	8.669535e+00	7.856635e+01
2.220000e-06	1.191381e-06	1.225096e-09	8.904946e+00	8.200729e+01
2.230000e-06	1.222782e-06	1.272244e-09	9.139657e+00	8.539525e+01
2.240000e-06	1.254142e-06	1.318858e-09	9.374057e+00	8.872891e+01
2.250000e-06	1.285495e-06	1.367698e-09	9.608404e+00	9.200710e+01
2.260000e-06	1.316733e-06	1.415318e-09	9.841893e+00	9.522885e+01
2.270000e-06	1.347767e-06	1.461176e-09	1.007385e+01	9.839333e+01
2.280000e-06	1.378601e-06	1.506152e-09	1.030432e+01	1.014999e+02
2.290000e-06	1.409260e-06	1.549122e-09	1.053348e+01	1.045480e+02
2.300000e-06	1.439791e-06	1.591713e-09	1.076168e+01	1.075373e+02
2.310000e-06	1.470276e-06	1.634011e-09	1.098954e+01	1.104677e+02
2.320000e-06	1.500666e-06	1.674757e-09	1.121670e+01	1.133389e+02
2.330000e-06	1.530903e-06	1.714879e-09	1.144270e+01	1.161512e+02
2.340000e-06	1.561038e-06	1.754914e-09	1.166794e+01	1.189046e+02
2.350000e-06	1.591134e-06	1.794756e-09	1.189289e+01	1.215994e+02
2.360000e-06	1.621144e-06	1.833731e-09	1.211720e+01	1.242361e+02
2.370000e-06	1.651085e-06	1.870903e-09	1.234099e+01	1.268151e+02
2.380000e-06	1.680969e-06	1.907620e-09	1.256436e+01	1.293371e+02
2.390000e-06	1.710681e-06	1.944434e-09	1.278645e+01	1.318027e+02
2.400000e-06	1.740244e-06	1.979725e-09	1.300741e+01	1.342126e+02
2.410000e-06	1.769753e-06	2.013487e-09	1.322798e+01	1.365677e+02
2.420000e-06	1.799201e-06	2.045485e-09	1.344809e+01	1.388689e+02
2.430000e-06	1.828556e-06	2.075142e-09	1.366750e+01	1.411171e+02
2.440000e-06	1.857834e-06	2.105215e-09	1.388634e+01	1.433132e+02
2.450000e-06	1.886934e-06	2.138821e-09	1.410385e+01	1.454582e+02
2.460000e-06	1.915831e-06	2.173671e-09	1.431983e+01	1.475533e+02
2.470000e-06	1.944587e-06	2.204444e-09	1.453477e+01	1.495994e+02
2.480000e-06	1.973156e-06	2.231854e-09	1.474831e+01	1.515976e+02
2.490000e-06	2.001593e-06	2.259353e-09	1.496086e+01	1.535490e+02
2.500000e-06	2.029864e-06	2.290587e-09	1.517217e+01	1.554548e+02
2.510000e-06	2.058007e-06	2.321931e-09	1.538252e+01	1.573161e+02
2.520000e-06	2.086030e-06	2.348349e-09	1.559198e+01	1.591338e+02
2.530000e-06	2.113928e-06	2.373254e-09	1.580051e+01	1.609092e+02
2.540000e-06	2.141811e-06	2.400163e-09	1.600892e+01	1.626433e+02
2.550000e-06	2.169645e-06	2.425758e-09	1.621697e+01	1.643373e+02
2.560000e-06	2.197418e-06	2.448190e-09	1.642455e+01	1.659920e+02
2.570000e-06	2.225144e-06	2.470259e-09	1.663179e+01	1.676087e+02
2.580000e-06	2.252798e-06	2.496676e-09	1.683849e+01	1.691884e+02
2.590000e-06	2.280375e-06	2.524299e-09	1.704461e+01	1.707320e+02
2.600000e-06	2.307859e-06	2.548691e-09	1.725004e+01	1.722406e+02
2.610000e-06	2.335163e-06	2.573205e-09	1.745412e+01	1.737150e+02
2.620000e-06	2.362157e-06	2.596855e-09	1.765589e+01	1.751564e+02
2.630000e-06	2.388872e-06	2.620077e-09	1.785557e+01	1.765656e+02
2.640000e-06	2.415261e-06	2.642518e-09	1.805282e+01	1.779435e+02
2.650000e-06	2.441200e-06	2.663244e-09	1.824670e+01	1.792909e+02
2.660000e-06	2.466840e-06	2.683322e-09	1.843834e+01	1.806089e+02
2.670000e-06	2.492267e-06	2.703963e-09	1.862840e+01	1.818981e+02
2.680000e-06	2.517411e-06	2.726593e-09	1.881633e+01	1.831595e+02
2.690000e-06	2.542164e-06	2.749992e-09	1.900134e+01	1.843938e+02
2.700000e-06	2.566586e-06	2.770872e-09	1.918389e+01	1.856018e+02
2.710000e-06	2.590871e-06	2.789350e-09	1.936541e+01	1.867842e+02
2.720000e-06	2.615061e-06	2.808773e-09	1.954622e+01	1.879418e+02
2.730000e-06	2.639117e-06	2.827755e-09	1.972602e+01	1.890754e+02
2.740000e-06	2.663070e-06	2.843418e-09	1.990505e+01	1.901855e+02
2.750000e-06	2.686931e-06	2.857633e-09	2.008340e+01	1.912729e+02
2.760000e-06	2.710585e-06	2.872529e-09	2.026021e+01	1.923383e+02
2.770000e-06	2.734022e-06	2.889945e-09	2.043539e+01	1.933822e+02
2.780000e-06	2.757287e-06	2.906966e-09	2.060928e+01	1.944053e+02
2.790000e-06	2.780373e-06	2.923080e-09	2.078183e+01	1.954081e+02
2.800000e-06	2.803300e-06	2.940122e-09	2.095320e+01	1.963913e+02
2.810000e-06	2.826045e-06	2.956119e-09	2.112321e+01	1.973554e+02
2.820000e-06	2.848562e-06	2.971561e-09	2.129151e+01	1.983009e+02
2.830000e-06	2.870892e-06	2.987970e-09	2.145841e+01	1.992283e+02
2.840000e-06	2.893015e-06	3.001913e-09	2.162377e+01	2.001380e+02
2.850000e-06	2.914970e-06	3.013701e-09	2.178788e+01	2.010307e+02
2.860000e-06	2.936779e-06	3.029101e-09	2.195089e+01	2.019066e+02
2.870000e-06	2.958319e-06	3.046126e-09	2.211189e+01	2.027663e+02
2.880000e-06	2.979650e-06	3.060031e-09	2.227133e+01	2.036100e+02
2.890000e-06	3.000823e-06	3.073402e-09	2.242958e+01	2.044381e+02
2.900000e-06	3.021780e-06	3.089284e-09	2.258623e+01	2.052511e+02
