# Temperatura_=_20.0
# Concentracion g/m^3_=_9000.0
# C_Vs_to_Am_M_A/Vsm_=_65563218390.804596
# pendiente_HvsI_1/m_=_3716.3
# ordenada_HvsI_A/m_=_1297.0
# frecuencia_Hz_=_135016.48413436525

Tiempo_(s)	Campo_(V.s)	Magnetizacion_(V.s)	Campo_(kA/m)	Magnetizacion_(A/m)
0.000000e+00	-3.903670e-06	-3.633406e-09	-2.913920e+01	-2.361201e+02
1.000000e-08	-3.903877e-06	-3.631505e-09	-2.914074e+01	-2.361532e+02
2.000000e-08	-3.903978e-06	-3.631027e-09	-2.914149e+01	-2.361792e+02
3.000000e-08	-3.903915e-06	-3.633527e-09	-2.914102e+01	-2.361982e+02
4.000000e-08	-3.903650e-06	-3.632614e-09	-2.913904e+01	-2.362103e+02
5.000000e-08	-3.903116e-06	-3.629322e-09	-2.913506e+01	-2.362153e+02
6.000000e-08	-3.902207e-06	-3.610411e-09	-2.912827e+01	-2.362132e+02
7.000000e-08	-3.900840e-06	-3.574288e-09	-2.911807e+01	-2.362042e+02
8.000000e-08	-3.898965e-06	-3.593295e-09	-2.910407e+01	-2.361882e+02
9.000000e-08	-3.896458e-06	-3.699117e-09	-2.908536e+01	-2.361651e+02
1.000000e-07	-3.893447e-06	-3.747126e-09	-2.906288e+01	-2.361351e+02
1.100000e-07	-3.890164e-06	-3.671127e-09	-2.903837e+01	-2.360981e+02
1.200000e-07	-3.886677e-06	-3.643910e-09	-2.901235e+01	-2.360542e+02
1.300000e-07	-3.882983e-06	-3.537928e-09	-2.898478e+01	-2.360033e+02
1.400000e-07	-3.879082e-06	-3.462822e-09	-2.895565e+01	-2.359456e+02
1.500000e-07	-3.875049e-06	-3.570023e-09	-2.892555e+01	-2.358810e+02
1.600000e-07	-3.870861e-06	-3.680275e-09	-2.889429e+01	-2.358097e+02
1.700000e-07	-3.866521e-06	-3.637449e-09	-2.886189e+01	-2.357316e+02
1.800000e-07	-3.861980e-06	-3.514741e-09	-2.882800e+01	-2.356468e+02
1.900000e-07	-3.857119e-06	-3.515832e-09	-2.879171e+01	-2.355554e+02
2.000000e-07	-3.851923e-06	-3.572680e-09	-2.875293e+01	-2.354575e+02
2.100000e-07	-3.846409e-06	-3.630777e-09	-2.871176e+01	-2.353530e+02
2.200000e-07	-3.840657e-06	-3.609418e-09	-2.866883e+01	-2.352421e+02
2.300000e-07	-3.834633e-06	-3.542386e-09	-2.862386e+01	-2.351249e+02
2.400000e-07	-3.828245e-06	-3.475961e-09	-2.857618e+01	-2.350013e+02
2.500000e-07	-3.821576e-06	-3.581402e-09	-2.852640e+01	-2.348715e+02
2.600000e-07	-3.814701e-06	-3.699012e-09	-2.847508e+01	-2.347355e+02
2.700000e-07	-3.807545e-06	-3.574217e-09	-2.842166e+01	-2.345933e+02
2.800000e-07	-3.800064e-06	-3.389211e-09	-2.836582e+01	-2.344451e+02
2.900000e-07	-3.792385e-06	-3.498444e-09	-2.830850e+01	-2.342907e+02
3.000000e-07	-3.784626e-06	-3.683079e-09	-2.825059e+01	-2.341303e+02
3.100000e-07	-3.776782e-06	-3.587861e-09	-2.819203e+01	-2.339639e+02
3.200000e-07	-3.768794e-06	-3.409522e-09	-2.813240e+01	-2.337914e+02
3.300000e-07	-3.760607e-06	-3.458462e-09	-2.807129e+01	-2.336128e+02
3.400000e-07	-3.752108e-06	-3.613417e-09	-2.800785e+01	-2.334281e+02
3.500000e-07	-3.743228e-06	-3.592725e-09	-2.794156e+01	-2.332373e+02
3.600000e-07	-3.733932e-06	-3.467422e-09	-2.787217e+01	-2.330404e+02
3.700000e-07	-3.724145e-06	-3.431235e-09	-2.779912e+01	-2.328371e+02
3.800000e-07	-3.713795e-06	-3.516161e-09	-2.772186e+01	-2.326275e+02
3.900000e-07	-3.702959e-06	-3.555910e-09	-2.764097e+01	-2.324115e+02
4.000000e-07	-3.691810e-06	-3.518041e-09	-2.755775e+01	-2.321889e+02
4.100000e-07	-3.680382e-06	-3.452207e-09	-2.747245e+01	-2.319596e+02
4.200000e-07	-3.668671e-06	-3.454451e-09	-2.738503e+01	-2.317235e+02
4.300000e-07	-3.656693e-06	-3.510851e-09	-2.729562e+01	-2.314804e+02
4.400000e-07	-3.644510e-06	-3.554446e-09	-2.720468e+01	-2.312301e+02
4.500000e-07	-3.632090e-06	-3.481998e-09	-2.711197e+01	-2.309725e+02
4.600000e-07	-3.619377e-06	-3.397931e-09	-2.701707e+01	-2.307075e+02
4.700000e-07	-3.606398e-06	-3.443527e-09	-2.692019e+01	-2.304347e+02
4.800000e-07	-3.593161e-06	-3.536304e-09	-2.682138e+01	-2.301541e+02
4.900000e-07	-3.579595e-06	-3.470319e-09	-2.672012e+01	-2.298655e+02
5.000000e-07	-3.565685e-06	-3.355185e-09	-2.661629e+01	-2.295686e+02
5.100000e-07	-3.551545e-06	-3.401771e-09	-2.651073e+01	-2.292632e+02
5.200000e-07	-3.537164e-06	-3.500967e-09	-2.640339e+01	-2.289493e+02
5.300000e-07	-3.522479e-06	-3.451133e-09	-2.629377e+01	-2.286265e+02
5.400000e-07	-3.507388e-06	-3.361360e-09	-2.618112e+01	-2.282948e+02
5.500000e-07	-3.491777e-06	-3.396331e-09	-2.606459e+01	-2.279540e+02
5.600000e-07	-3.475835e-06	-3.452595e-09	-2.594559e+01	-2.276039e+02
5.700000e-07	-3.459643e-06	-3.423291e-09	-2.582473e+01	-2.272445e+02
5.800000e-07	-3.443140e-06	-3.378453e-09	-2.570153e+01	-2.268756e+02
5.900000e-07	-3.426362e-06	-3.377513e-09	-2.557630e+01	-2.264971e+02
6.000000e-07	-3.409335e-06	-3.379436e-09	-2.544920e+01	-2.261089e+02
6.100000e-07	-3.392184e-06	-3.386885e-09	-2.532118e+01	-2.257111e+02
6.200000e-07	-3.374913e-06	-3.388855e-09	-2.519225e+01	-2.253035e+02
6.300000e-07	-3.357473e-06	-3.358182e-09	-2.506207e+01	-2.248862e+02
6.400000e-07	-3.339829e-06	-3.332997e-09	-2.493036e+01	-2.244592e+02
6.500000e-07	-3.321905e-06	-3.369185e-09	-2.479657e+01	-2.240224e+02
6.600000e-07	-3.303685e-06	-3.382273e-09	-2.466057e+01	-2.235761e+02
6.700000e-07	-3.285170e-06	-3.326041e-09	-2.452236e+01	-2.231202e+02
6.800000e-07	-3.266406e-06	-3.292018e-09	-2.438230e+01	-2.226549e+02
6.900000e-07	-3.247411e-06	-3.331512e-09	-2.424051e+01	-2.221802e+02
7.000000e-07	-3.228084e-06	-3.343271e-09	-2.409624e+01	-2.216963e+02
7.100000e-07	-3.208496e-06	-3.297711e-09	-2.395002e+01	-2.212035e+02
7.200000e-07	-3.188816e-06	-3.272369e-09	-2.380312e+01	-2.207017e+02
7.300000e-07	-3.169046e-06	-3.293987e-09	-2.365555e+01	-2.201913e+02
7.400000e-07	-3.149216e-06	-3.300268e-09	-2.350752e+01	-2.196723e+02
7.500000e-07	-3.129275e-06	-3.279553e-09	-2.335867e+01	-2.191450e+02
7.600000e-07	-3.109180e-06	-3.259377e-09	-2.320867e+01	-2.186096e+02
7.700000e-07	-3.088982e-06	-3.251478e-09	-2.305790e+01	-2.180663e+02
7.800000e-07	-3.068590e-06	-3.250738e-09	-2.290569e+01	-2.175153e+02
7.900000e-07	-3.047888e-06	-3.248670e-09	-2.275115e+01	-2.169566e+02
8.000000e-07	-3.026899e-06	-3.229394e-09	-2.259448e+01	-2.163906e+02
8.100000e-07	-3.005657e-06	-3.207203e-09	-2.243592e+01	-2.158174e+02
8.200000e-07	-2.984193e-06	-3.209195e-09	-2.227570e+01	-2.152371e+02
8.300000e-07	-2.962589e-06	-3.216337e-09	-2.211443e+01	-2.146498e+02
8.400000e-07	-2.940819e-06	-3.198808e-09	-2.195193e+01	-2.140556e+02
8.500000e-07	-2.918849e-06	-3.168997e-09	-2.178794e+01	-2.134546e+02
8.600000e-07	-2.896717e-06	-3.168450e-09	-2.162273e+01	-2.128468e+02
8.700000e-07	-2.874493e-06	-3.179456e-09	-2.145683e+01	-2.122322e+02
8.800000e-07	-2.852053e-06	-3.166657e-09	-2.128933e+01	-2.116109e+02
8.900000e-07	-2.829312e-06	-3.138433e-09	-2.111958e+01	-2.109826e+02
9.000000e-07	-2.806278e-06	-3.130250e-09	-2.094764e+01	-2.103474e+02
9.100000e-07	-2.782967e-06	-3.134277e-09	-2.077364e+01	-2.097051e+02
9.200000e-07	-2.759519e-06	-3.122825e-09	-2.059861e+01	-2.090555e+02
9.300000e-07	-2.735957e-06	-3.097389e-09	-2.042272e+01	-2.083984e+02
9.400000e-07	-2.712258e-06	-3.085699e-09	-2.024582e+01	-2.077335e+02
9.500000e-07	-2.688449e-06	-3.085833e-09	-2.006810e+01	-2.070605e+02
9.600000e-07	-2.664556e-06	-3.078926e-09	-1.988975e+01	-2.063791e+02
9.700000e-07	-2.640602e-06	-3.058980e-09	-1.971094e+01	-2.056890e+02
9.800000e-07	-2.616566e-06	-3.041211e-09	-1.953152e+01	-2.049896e+02
9.900000e-07	-2.592361e-06	-3.030598e-09	-1.935084e+01	-2.042806e+02
1.000000e-06	-2.567894e-06	-3.022615e-09	-1.916821e+01	-2.035615e+02
1.010000e-06	-2.543119e-06	-3.008066e-09	-1.898327e+01	-2.028318e+02
1.020000e-06	-2.518183e-06	-2.988959e-09	-1.879714e+01	-2.020909e+02
1.030000e-06	-2.493030e-06	-2.977796e-09	-1.860938e+01	-2.013384e+02
1.040000e-06	-2.467473e-06	-2.975333e-09	-1.841861e+01	-2.005737e+02
1.050000e-06	-2.441529e-06	-2.967053e-09	-1.822495e+01	-1.997962e+02
1.060000e-06	-2.415317e-06	-2.946341e-09	-1.802929e+01	-1.990054e+02
1.070000e-06	-2.388831e-06	-2.927237e-09	-1.783158e+01	-1.982006e+02
1.080000e-06	-2.362082e-06	-2.915260e-09	-1.763191e+01	-1.973813e+02
1.090000e-06	-2.335099e-06	-2.902470e-09	-1.743050e+01	-1.965469e+02
1.100000e-06	-2.307816e-06	-2.881191e-09	-1.722684e+01	-1.956969e+02
1.110000e-06	-2.280442e-06	-2.861348e-09	-1.702251e+01	-1.948307e+02
1.120000e-06	-2.252975e-06	-2.849947e-09	-1.681747e+01	-1.939478e+02
1.130000e-06	-2.225276e-06	-2.840686e-09	-1.661072e+01	-1.930477e+02
1.140000e-06	-2.197457e-06	-2.823805e-09	-1.640305e+01	-1.921299e+02
1.150000e-06	-2.169557e-06	-2.804396e-09	-1.619480e+01	-1.911940e+02
1.160000e-06	-2.141580e-06	-2.788454e-09	-1.598596e+01	-1.902395e+02
1.170000e-06	-2.113574e-06	-2.774716e-09	-1.577691e+01	-1.892662e+02
1.180000e-06	-2.085467e-06	-2.756347e-09	-1.556710e+01	-1.882735e+02
1.190000e-06	-2.057290e-06	-2.736370e-09	-1.535677e+01	-1.872613e+02
1.200000e-06	-2.029070e-06	-2.720429e-09	-1.514612e+01	-1.862292e+02
1.210000e-06	-2.000686e-06	-2.705440e-09	-1.493425e+01	-1.851771e+02
1.220000e-06	-1.972122e-06	-2.688701e-09	-1.472103e+01	-1.841047e+02
1.230000e-06	-1.943368e-06	-2.672049e-09	-1.450639e+01	-1.830119e+02
1.240000e-06	-1.914443e-06	-2.653309e-09	-1.429048e+01	-1.818986e+02
1.250000e-06	-1.885344e-06	-2.633897e-09	-1.407327e+01	-1.807647e+02
1.260000e-06	-1.856070e-06	-2.616232e-09	-1.385475e+01	-1.796101e+02
1.270000e-06	-1.826689e-06	-2.598170e-09	-1.363544e+01	-1.784349e+02
1.280000e-06	-1.797221e-06	-2.579066e-09	-1.341547e+01	-1.772389e+02
1.290000e-06	-1.767638e-06	-2.560222e-09	-1.319465e+01	-1.760223e+02
1.300000e-06	-1.737918e-06	-2.541188e-09	-1.297280e+01	-1.747851e+02
1.310000e-06	-1.708071e-06	-2.522792e-09	-1.275001e+01	-1.735272e+02
1.320000e-06	-1.678180e-06	-2.506378e-09	-1.252688e+01	-1.722489e+02
1.330000e-06	-1.648212e-06	-2.488172e-09	-1.230319e+01	-1.709499e+02
1.340000e-06	-1.618153e-06	-2.469432e-09	-1.207880e+01	-1.696306e+02
1.350000e-06	-1.588061e-06	-2.452126e-09	-1.185418e+01	-1.682907e+02
1.360000e-06	-1.557884e-06	-2.434311e-09	-1.162892e+01	-1.669303e+02
1.370000e-06	-1.527557e-06	-2.414013e-09	-1.140255e+01	-1.655494e+02
1.380000e-06	-1.497083e-06	-2.392260e-09	-1.117507e+01	-1.641478e+02
1.390000e-06	-1.466478e-06	-2.369308e-09	-1.094662e+01	-1.627255e+02
1.400000e-06	-1.435707e-06	-2.348462e-09	-1.071692e+01	-1.612823e+02
1.410000e-06	-1.404829e-06	-2.330263e-09	-1.048644e+01	-1.598179e+02
1.420000e-06	-1.373946e-06	-2.311153e-09	-1.025591e+01	-1.583320e+02
1.430000e-06	-1.343027e-06	-2.288895e-09	-1.002511e+01	-1.568242e+02
1.440000e-06	-1.311987e-06	-2.267043e-09	-9.793408e+00	-1.552942e+02
1.450000e-06	-1.280849e-06	-2.245845e-09	-9.560980e+00	-1.537413e+02
1.460000e-06	-1.249651e-06	-2.222104e-09	-9.328103e+00	-1.521649e+02
1.470000e-06	-1.218348e-06	-2.195343e-09	-9.094440e+00	-1.505644e+02
1.480000e-06	-1.186877e-06	-2.169744e-09	-8.859516e+00	-1.489390e+02
1.490000e-06	-1.155345e-06	-2.143850e-09	-8.624150e+00	-1.472878e+02
1.500000e-06	-1.123783e-06	-2.115470e-09	-8.388552e+00	-1.456099e+02
1.510000e-06	-1.092115e-06	-2.086178e-09	-8.152163e+00	-1.439041e+02
1.520000e-06	-1.060409e-06	-2.058097e-09	-7.915489e+00	-1.421694e+02
1.530000e-06	-1.028662e-06	-2.032471e-09	-7.678512e+00	-1.404045e+02
1.540000e-06	-9.968284e-07	-2.005799e-09	-7.440889e+00	-1.386082e+02
1.550000e-06	-9.649732e-07	-1.975796e-09	-7.203104e+00	-1.367790e+02
1.560000e-06	-9.331109e-07	-1.942449e-09	-6.965266e+00	-1.349155e+02
1.570000e-06	-9.012395e-07	-1.911972e-09	-6.727360e+00	-1.330161e+02
1.580000e-06	-8.693498e-07	-1.882786e-09	-6.489317e+00	-1.310794e+02
1.590000e-06	-8.373928e-07	-1.849744e-09	-6.250772e+00	-1.291037e+02
1.600000e-06	-8.053954e-07	-1.814639e-09	-6.011926e+00	-1.270873e+02
1.610000e-06	-7.733661e-07	-1.783222e-09	-5.772841e+00	-1.250285e+02
1.620000e-06	-7.413326e-07	-1.751789e-09	-5.533724e+00	-1.229257e+02
1.630000e-06	-7.092809e-07	-1.715681e-09	-5.294473e+00	-1.207772e+02
1.640000e-06	-6.771528e-07	-1.679498e-09	-5.054650e+00	-1.185812e+02
1.650000e-06	-6.449835e-07	-1.644392e-09	-4.814520e+00	-1.163360e+02
1.660000e-06	-6.127857e-07	-1.608511e-09	-4.574178e+00	-1.140401e+02
1.670000e-06	-5.805079e-07	-1.573138e-09	-4.333238e+00	-1.116918e+02
1.680000e-06	-5.482442e-07	-1.538164e-09	-4.092404e+00	-1.092897e+02
1.690000e-06	-5.160462e-07	-1.502361e-09	-3.852060e+00	-1.068321e+02
1.700000e-06	-4.838268e-07	-1.466552e-09	-3.611556e+00	-1.043179e+02
1.710000e-06	-4.515247e-07	-1.431326e-09	-3.370435e+00	-1.017457e+02
1.720000e-06	-4.191362e-07	-1.394463e-09	-3.128669e+00	-9.911430e+01
1.730000e-06	-3.867473e-07	-1.355821e-09	-2.886900e+00	-9.642280e+01
1.740000e-06	-3.543697e-07	-1.317720e-09	-2.645215e+00	-9.367029e+01
1.750000e-06	-3.218991e-07	-1.279120e-09	-2.402837e+00	-9.085605e+01
1.760000e-06	-2.893490e-07	-1.237540e-09	-2.159864e+00	-8.797953e+01
1.770000e-06	-2.567938e-07	-1.194803e-09	-1.916854e+00	-8.504037e+01
1.780000e-06	-2.242586e-07	-1.155338e-09	-1.673992e+00	-8.203838e+01
1.790000e-06	-1.916693e-07	-1.115970e-09	-1.430728e+00	-7.897356e+01
1.800000e-06	-1.589919e-07	-1.070707e-09	-1.186806e+00	-7.584614e+01
1.810000e-06	-1.263996e-07	-1.022768e-09	-9.435180e-01	-7.265654e+01
1.820000e-06	-9.381764e-08	-9.783346e-10	-7.003078e-01	-6.940540e+01
1.830000e-06	-6.119822e-08	-9.341798e-10	-4.568180e-01	-6.609357e+01
1.840000e-06	-2.866056e-08	-8.853833e-10	-2.139386e-01	-6.272214e+01
1.850000e-06	3.888081e-09	-8.356341e-10	2.902283e-02	-5.929239e+01
1.860000e-06	3.650116e-08	-7.883047e-10	2.724652e-01	-5.580586e+01
1.870000e-06	6.913510e-08	-7.373497e-10	5.160633e-01	-5.226427e+01
1.880000e-06	1.017495e-07	-6.822612e-10	7.595160e-01	-4.866960e+01
1.890000e-06	1.343203e-07	-6.270816e-10	1.002643e+00	-4.502399e+01
1.900000e-06	1.668443e-07	-5.750363e-10	1.245420e+00	-4.132982e+01
1.910000e-06	1.993301e-07	-5.240500e-10	1.487912e+00	-3.758966e+01
1.920000e-06	2.318441e-07	-4.699961e-10	1.730615e+00	-3.380626e+01
1.930000e-06	2.643756e-07	-4.137050e-10	1.973448e+00	-2.998256e+01
1.940000e-06	2.969496e-07	-3.563676e-10	2.216599e+00	-2.612165e+01
1.950000e-06	3.295067e-07	-2.989208e-10	2.459624e+00	-2.222680e+01
1.960000e-06	3.619732e-07	-2.414517e-10	2.701972e+00	-1.830139e+01
1.970000e-06	3.944196e-07	-1.830847e-10	2.944170e+00	-1.434895e+01
1.980000e-06	4.268497e-07	-1.239118e-10	3.186247e+00	-1.037312e+01
1.990000e-06	4.591651e-07	-6.600110e-11	3.427467e+00	-6.377608e+00
2.000000e-06	4.913540e-07	-9.889633e-12	3.667743e+00	-2.366233e+00
2.010000e-06	5.235686e-07	4.791350e-11	3.908211e+00	1.657140e+00
2.020000e-06	5.557703e-07	1.090505e-10	4.148583e+00	5.688600e+00
2.030000e-06	5.879853e-07	1.687006e-10	4.389054e+00	9.724210e+00
2.040000e-06	6.202877e-07	2.246792e-10	4.630177e+00	1.376002e+01
2.050000e-06	6.525456e-07	2.826321e-10	4.870968e+00	1.779210e+01
2.060000e-06	6.846923e-07	3.436584e-10	5.110930e+00	2.181653e+01
2.070000e-06	7.167572e-07	4.037597e-10	5.350280e+00	2.582945e+01
2.080000e-06	7.487599e-07	4.624688e-10	5.589166e+00	2.982705e+01
2.090000e-06	7.807878e-07	5.187051e-10	5.828240e+00	3.380560e+01
2.100000e-06	8.128278e-07	5.744566e-10	6.067405e+00	3.776147e+01
2.110000e-06	8.448186e-07	6.299160e-10	6.306202e+00	4.169112e+01
2.120000e-06	8.767640e-07	6.854021e-10	6.544661e+00	4.559114e+01
2.130000e-06	9.086668e-07	7.408416e-10	6.782801e+00	4.945826e+01
2.140000e-06	9.405193e-07	7.945894e-10	7.020566e+00	5.328936e+01
2.150000e-06	9.723190e-07	8.468888e-10	7.257937e+00	5.708146e+01
2.160000e-06	1.004081e-06	9.006682e-10	7.495029e+00	6.083175e+01
2.170000e-06	1.035816e-06	9.540179e-10	7.731912e+00	6.453761e+01
2.180000e-06	1.067550e-06	1.005320e-09	7.968794e+00	6.819660e+01
2.190000e-06	1.099272e-06	1.057424e-09	8.205588e+00	7.180645e+01
2.200000e-06	1.130949e-06	1.107388e-09	8.442045e+00	7.536511e+01
2.210000e-06	1.162563e-06	1.156587e-09	8.678026e+00	7.887071e+01
2.220000e-06	1.194108e-06	1.208562e-09	8.913497e+00	8.232157e+01
2.230000e-06	1.225523e-06	1.258732e-09	9.147992e+00	8.571624e+01
2.240000e-06	1.256791e-06	1.305448e-09	9.381397e+00	8.905344e+01
2.250000e-06	1.288019e-06	1.353398e-09	9.614496e+00	9.233210e+01
2.260000e-06	1.319172e-06	1.401118e-09	9.847045e+00	9.555135e+01
2.270000e-06	1.350139e-06	1.445235e-09	1.007820e+01	9.871049e+01
2.280000e-06	1.380966e-06	1.488337e-09	1.030831e+01	1.018090e+02
2.290000e-06	1.411637e-06	1.532196e-09	1.053725e+01	1.048467e+02
2.300000e-06	1.442225e-06	1.576585e-09	1.076558e+01	1.078232e+02
2.310000e-06	1.472766e-06	1.621573e-09	1.099356e+01	1.107387e+02
2.320000e-06	1.503113e-06	1.663991e-09	1.122008e+01	1.135933e+02
2.330000e-06	1.533346e-06	1.703407e-09	1.144576e+01	1.163873e+02
2.340000e-06	1.563552e-06	1.742973e-09	1.167124e+01	1.191212e+02
2.350000e-06	1.593682e-06	1.782598e-09	1.189614e+01	1.217955e+02
2.360000e-06	1.623735e-06	1.818951e-09	1.212047e+01	1.244110e+02
2.370000e-06	1.653663e-06	1.855104e-09	1.234387e+01	1.269685e+02
2.380000e-06	1.683510e-06	1.893749e-09	1.256667e+01	1.294688e+02
2.390000e-06	1.713334e-06	1.931363e-09	1.278929e+01	1.319128e+02
2.400000e-06	1.743153e-06	1.967492e-09	1.301187e+01	1.343018e+02
2.410000e-06	1.772889e-06	2.003882e-09	1.323384e+01	1.366367e+02
2.420000e-06	1.802428e-06	2.037099e-09	1.345434e+01	1.389187e+02
2.430000e-06	1.831815e-06	2.068738e-09	1.367370e+01	1.411490e+02
2.440000e-06	1.861045e-06	2.102218e-09	1.389189e+01	1.433289e+02
2.450000e-06	1.890094e-06	2.137393e-09	1.410873e+01	1.454595e+02
2.460000e-06	1.918919e-06	2.171086e-09	1.432390e+01	1.475421e+02
2.470000e-06	1.947612e-06	2.203082e-09	1.453808e+01	1.495781e+02
2.480000e-06	1.976211e-06	2.234345e-09	1.475155e+01	1.515685e+02
2.490000e-06	2.004673e-06	2.262714e-09	1.496401e+01	1.535147e+02
2.500000e-06	2.032967e-06	2.290489e-09	1.517521e+01	1.554179e+02
2.510000e-06	2.061135e-06	2.319845e-09	1.538548e+01	1.572792e+02
2.520000e-06	2.089247e-06	2.348825e-09	1.559532e+01	1.590999e+02
2.530000e-06	2.117227e-06	2.374419e-09	1.580418e+01	1.608810e+02
2.540000e-06	2.145139e-06	2.400181e-09	1.601252e+01	1.626237e+02
2.550000e-06	2.173024e-06	2.425765e-09	1.622068e+01	1.643289e+02
2.560000e-06	2.200836e-06	2.449357e-09	1.642828e+01	1.659977e+02
2.570000e-06	2.228579e-06	2.470972e-09	1.663537e+01	1.676310e+02
2.580000e-06	2.256271e-06	2.494807e-09	1.684208e+01	1.692298e+02
2.590000e-06	2.283879e-06	2.519769e-09	1.704816e+01	1.707950e+02
2.600000e-06	2.311312e-06	2.543179e-09	1.725293e+01	1.723272e+02
2.610000e-06	2.338506e-06	2.567711e-09	1.745593e+01	1.738274e+02
2.620000e-06	2.365511e-06	2.592244e-09	1.765751e+01	1.752963e+02
2.630000e-06	2.392224e-06	2.616115e-09	1.785691e+01	1.767344e+02
2.640000e-06	2.418504e-06	2.636723e-09	1.805308e+01	1.781426e+02
2.650000e-06	2.444457e-06	2.654866e-09	1.824681e+01	1.795215e+02
2.660000e-06	2.470060e-06	2.673343e-09	1.843792e+01	1.808715e+02
2.670000e-06	2.495301e-06	2.690796e-09	1.862634e+01	1.821933e+02
2.680000e-06	2.520292e-06	2.711220e-09	1.881288e+01	1.834875e+02
2.690000e-06	2.545090e-06	2.733709e-09	1.899799e+01	1.847545e+02
2.700000e-06	2.569656e-06	2.752752e-09	1.918136e+01	1.859948e+02
2.710000e-06	2.593920e-06	2.773097e-09	1.936248e+01	1.872089e+02
2.720000e-06	2.617984e-06	2.797592e-09	1.954211e+01	1.883973e+02
2.730000e-06	2.641995e-06	2.817147e-09	1.972134e+01	1.895604e+02
2.740000e-06	2.665960e-06	2.830835e-09	1.990023e+01	1.906987e+02
2.750000e-06	2.689823e-06	2.844023e-09	2.007835e+01	1.918126e+02
2.760000e-06	2.713528e-06	2.858396e-09	2.025531e+01	1.929026e+02
2.770000e-06	2.737039e-06	2.873453e-09	2.043080e+01	1.939691e+02
2.780000e-06	2.760403e-06	2.888833e-09	2.060520e+01	1.950126e+02
2.790000e-06	2.783689e-06	2.907013e-09	2.077902e+01	1.960336e+02
2.800000e-06	2.806712e-06	2.926297e-09	2.095088e+01	1.970324e+02
2.810000e-06	2.829435e-06	2.944955e-09	2.112050e+01	1.980097e+02
2.820000e-06	2.851977e-06	2.961532e-09	2.128876e+01	1.989658e+02
2.830000e-06	2.874287e-06	2.976273e-09	2.145530e+01	1.999013e+02
2.840000e-06	2.896403e-06	2.989423e-09	2.162039e+01	2.008167e+02
2.850000e-06	2.918373e-06	3.001778e-09	2.178438e+01	2.017124e+02
2.860000e-06	2.940216e-06	3.013907e-09	2.194743e+01	2.025890e+02
2.870000e-06	2.961895e-06	3.027029e-09	2.210925e+01	2.034470e+02
2.880000e-06	2.983363e-06	3.040920e-09	2.226950e+01	2.042870e+02
2.890000e-06	3.004612e-06	3.055580e-09	2.242812e+01	2.051094e+02
2.900000e-06	3.025638e-06	3.071331e-09	2.258506e+01	2.059148e+02
