# Temperatura_=_20.0
# Concentracion g/m^3_=_9000.0
# C_Vs_to_Am_M_A/Vsm_=_65563218390.804596
# pendiente_HvsI_1/m_=_3716.3
# ordenada_HvsI_A/m_=_1297.0
# frecuencia_Hz_=_135022.61341252315

Tiempo_(s)	Campo_(V.s)	Magnetizacion_(V.s)	Campo_(kA/m)	Magnetizacion_(A/m)
0.000000e+00	-3.906508e-06	-3.614402e-09	-2.913989e+01	-2.356592e+02
1.000000e-08	-3.906609e-06	-3.617001e-09	-2.914065e+01	-2.357068e+02
2.000000e-08	-3.906600e-06	-3.618688e-09	-2.914058e+01	-2.357458e+02
3.000000e-08	-3.906420e-06	-3.616600e-09	-2.913924e+01	-2.357760e+02
4.000000e-08	-3.906035e-06	-3.613191e-09	-2.913636e+01	-2.357972e+02
5.000000e-08	-3.905375e-06	-3.617220e-09	-2.913144e+01	-2.358092e+02
6.000000e-08	-3.904277e-06	-3.618202e-09	-2.912325e+01	-2.358119e+02
7.000000e-08	-3.902737e-06	-3.620653e-09	-2.911176e+01	-2.358051e+02
8.000000e-08	-3.900731e-06	-3.614340e-09	-2.909680e+01	-2.357888e+02
9.000000e-08	-3.898158e-06	-3.647370e-09	-2.907760e+01	-2.357627e+02
1.000000e-07	-3.895137e-06	-3.616168e-09	-2.905507e+01	-2.357270e+02
1.100000e-07	-3.891829e-06	-3.603255e-09	-2.903040e+01	-2.356814e+02
1.200000e-07	-3.888319e-06	-3.600151e-09	-2.900422e+01	-2.356261e+02
1.300000e-07	-3.884668e-06	-3.572352e-09	-2.897698e+01	-2.355610e+02
1.400000e-07	-3.880835e-06	-3.616816e-09	-2.894839e+01	-2.354862e+02
1.500000e-07	-3.876825e-06	-3.609943e-09	-2.891847e+01	-2.354017e+02
1.600000e-07	-3.872601e-06	-3.631872e-09	-2.888697e+01	-2.353076e+02
1.700000e-07	-3.868125e-06	-3.598545e-09	-2.885358e+01	-2.352041e+02
1.800000e-07	-3.863451e-06	-3.575105e-09	-2.881872e+01	-2.350913e+02
1.900000e-07	-3.858512e-06	-3.567754e-09	-2.878188e+01	-2.349693e+02
2.000000e-07	-3.853250e-06	-3.599240e-09	-2.874262e+01	-2.348384e+02
2.100000e-07	-3.847704e-06	-3.600374e-09	-2.870126e+01	-2.346986e+02
2.200000e-07	-3.841960e-06	-3.583206e-09	-2.865841e+01	-2.345503e+02
2.300000e-07	-3.835932e-06	-3.568855e-09	-2.861344e+01	-2.343936e+02
2.400000e-07	-3.829550e-06	-3.555251e-09	-2.856583e+01	-2.342287e+02
2.500000e-07	-3.822873e-06	-3.585995e-09	-2.851603e+01	-2.340559e+02
2.600000e-07	-3.815917e-06	-3.590684e-09	-2.846414e+01	-2.338754e+02
2.700000e-07	-3.808611e-06	-3.564455e-09	-2.840965e+01	-2.336875e+02
2.800000e-07	-3.801062e-06	-3.519404e-09	-2.835334e+01	-2.334923e+02
2.900000e-07	-3.793387e-06	-3.553795e-09	-2.829609e+01	-2.332901e+02
3.000000e-07	-3.785551e-06	-3.584434e-09	-2.823763e+01	-2.330811e+02
3.100000e-07	-3.777566e-06	-3.570305e-09	-2.817807e+01	-2.328654e+02
3.200000e-07	-3.769398e-06	-3.509152e-09	-2.811714e+01	-2.326434e+02
3.300000e-07	-3.760933e-06	-3.520705e-09	-2.805400e+01	-2.324151e+02
3.400000e-07	-3.752137e-06	-3.558463e-09	-2.798839e+01	-2.321808e+02
3.500000e-07	-3.742978e-06	-3.555994e-09	-2.792007e+01	-2.319405e+02
3.600000e-07	-3.733371e-06	-3.502383e-09	-2.784840e+01	-2.316944e+02
3.700000e-07	-3.723358e-06	-3.495783e-09	-2.777372e+01	-2.314426e+02
3.800000e-07	-3.712910e-06	-3.522706e-09	-2.769578e+01	-2.311851e+02
3.900000e-07	-3.702107e-06	-3.535703e-09	-2.761520e+01	-2.309221e+02
4.000000e-07	-3.690963e-06	-3.513491e-09	-2.753207e+01	-2.306535e+02
4.100000e-07	-3.679483e-06	-3.491423e-09	-2.744644e+01	-2.303794e+02
4.200000e-07	-3.667722e-06	-3.490207e-09	-2.735871e+01	-2.300997e+02
4.300000e-07	-3.655698e-06	-3.506313e-09	-2.726902e+01	-2.298145e+02
4.400000e-07	-3.643461e-06	-3.512173e-09	-2.717774e+01	-2.295236e+02
4.500000e-07	-3.630992e-06	-3.480463e-09	-2.708473e+01	-2.292271e+02
4.600000e-07	-3.618258e-06	-3.456805e-09	-2.698975e+01	-2.289248e+02
4.700000e-07	-3.605149e-06	-3.469426e-09	-2.689196e+01	-2.286167e+02
4.800000e-07	-3.591765e-06	-3.495189e-09	-2.679212e+01	-2.283025e+02
4.900000e-07	-3.578185e-06	-3.467914e-09	-2.669083e+01	-2.279823e+02
5.000000e-07	-3.564359e-06	-3.436371e-09	-2.658769e+01	-2.276558e+02
5.100000e-07	-3.550302e-06	-3.439052e-09	-2.648284e+01	-2.273230e+02
5.200000e-07	-3.535873e-06	-3.465544e-09	-2.637521e+01	-2.269836e+02
5.300000e-07	-3.520934e-06	-3.448266e-09	-2.626377e+01	-2.266376e+02
5.400000e-07	-3.505580e-06	-3.420783e-09	-2.614924e+01	-2.262848e+02
5.500000e-07	-3.489925e-06	-3.413999e-09	-2.603247e+01	-2.259250e+02
5.600000e-07	-3.473967e-06	-3.430618e-09	-2.591343e+01	-2.255581e+02
5.700000e-07	-3.457699e-06	-3.423493e-09	-2.579208e+01	-2.251841e+02
5.800000e-07	-3.441123e-06	-3.405950e-09	-2.566844e+01	-2.248026e+02
5.900000e-07	-3.424319e-06	-3.391077e-09	-2.554309e+01	-2.244138e+02
6.000000e-07	-3.407322e-06	-3.392842e-09	-2.541630e+01	-2.240173e+02
6.100000e-07	-3.390173e-06	-3.390305e-09	-2.528839e+01	-2.236132e+02
6.200000e-07	-3.372848e-06	-3.382995e-09	-2.515915e+01	-2.232015e+02
6.300000e-07	-3.355233e-06	-3.367016e-09	-2.502775e+01	-2.227819e+02
6.400000e-07	-3.337388e-06	-3.357052e-09	-2.489465e+01	-2.223545e+02
6.500000e-07	-3.319303e-06	-3.356087e-09	-2.475975e+01	-2.219193e+02
6.600000e-07	-3.300994e-06	-3.352394e-09	-2.462317e+01	-2.214762e+02
6.700000e-07	-3.282460e-06	-3.333747e-09	-2.448492e+01	-2.210252e+02
6.800000e-07	-3.263676e-06	-3.314808e-09	-2.434480e+01	-2.205665e+02
6.900000e-07	-3.244603e-06	-3.313861e-09	-2.420253e+01	-2.200999e+02
7.000000e-07	-3.225221e-06	-3.312006e-09	-2.405795e+01	-2.196255e+02
7.100000e-07	-3.205658e-06	-3.298749e-09	-2.391203e+01	-2.191435e+02
7.200000e-07	-3.185977e-06	-3.282724e-09	-2.376522e+01	-2.186538e+02
7.300000e-07	-3.166218e-06	-3.279888e-09	-2.361783e+01	-2.181565e+02
7.400000e-07	-3.146379e-06	-3.275231e-09	-2.346985e+01	-2.176517e+02
7.500000e-07	-3.126391e-06	-3.265509e-09	-2.332075e+01	-2.171395e+02
7.600000e-07	-3.106249e-06	-3.250765e-09	-2.317051e+01	-2.166200e+02
7.700000e-07	-3.085953e-06	-3.243628e-09	-2.301911e+01	-2.160931e+02
7.800000e-07	-3.065488e-06	-3.236014e-09	-2.286645e+01	-2.155590e+02
7.900000e-07	-3.044802e-06	-3.229779e-09	-2.271215e+01	-2.150178e+02
8.000000e-07	-3.023880e-06	-3.218545e-09	-2.255609e+01	-2.144694e+02
8.100000e-07	-3.002725e-06	-3.207887e-09	-2.239829e+01	-2.139138e+02
8.200000e-07	-2.981271e-06	-3.196471e-09	-2.223825e+01	-2.133512e+02
8.300000e-07	-2.959567e-06	-3.188604e-09	-2.207636e+01	-2.127815e+02
8.400000e-07	-2.937731e-06	-3.176707e-09	-2.191347e+01	-2.122046e+02
8.500000e-07	-2.915752e-06	-3.165332e-09	-2.174953e+01	-2.116205e+02
8.600000e-07	-2.893639e-06	-3.156657e-09	-2.158458e+01	-2.110291e+02
8.700000e-07	-2.871364e-06	-3.153638e-09	-2.141842e+01	-2.104303e+02
8.800000e-07	-2.848790e-06	-3.144582e-09	-2.125003e+01	-2.098240e+02
8.900000e-07	-2.825953e-06	-3.129791e-09	-2.107969e+01	-2.092099e+02
9.000000e-07	-2.802888e-06	-3.116932e-09	-2.090764e+01	-2.085878e+02
9.100000e-07	-2.779573e-06	-3.107564e-09	-2.073372e+01	-2.079576e+02
9.200000e-07	-2.756092e-06	-3.093761e-09	-2.055857e+01	-2.073190e+02
9.300000e-07	-2.732451e-06	-3.077621e-09	-2.038223e+01	-2.066716e+02
9.400000e-07	-2.708655e-06	-3.067710e-09	-2.020472e+01	-2.060151e+02
9.500000e-07	-2.684781e-06	-3.061660e-09	-2.002664e+01	-2.053493e+02
9.600000e-07	-2.660838e-06	-3.052861e-09	-1.984804e+01	-2.046736e+02
9.700000e-07	-2.636742e-06	-3.037089e-09	-1.966830e+01	-2.039877e+02
9.800000e-07	-2.612481e-06	-3.022632e-09	-1.948733e+01	-2.032911e+02
9.900000e-07	-2.588116e-06	-3.010566e-09	-1.930558e+01	-2.025835e+02
1.000000e-06	-2.563567e-06	-2.998393e-09	-1.912246e+01	-2.018642e+02
1.010000e-06	-2.538730e-06	-2.982691e-09	-1.893720e+01	-2.011330e+02
1.020000e-06	-2.513663e-06	-2.968465e-09	-1.875022e+01	-2.003892e+02
1.030000e-06	-2.488395e-06	-2.955997e-09	-1.856174e+01	-1.996324e+02
1.040000e-06	-2.462788e-06	-2.945670e-09	-1.837072e+01	-1.988620e+02
1.050000e-06	-2.436787e-06	-2.933389e-09	-1.817677e+01	-1.980776e+02
1.060000e-06	-2.410496e-06	-2.919232e-09	-1.798066e+01	-1.972787e+02
1.070000e-06	-2.383961e-06	-2.904335e-09	-1.778273e+01	-1.964648e+02
1.080000e-06	-2.357174e-06	-2.892082e-09	-1.758291e+01	-1.956355e+02
1.090000e-06	-2.330168e-06	-2.879503e-09	-1.738147e+01	-1.947902e+02
1.100000e-06	-2.302910e-06	-2.864046e-09	-1.717814e+01	-1.939285e+02
1.110000e-06	-2.275378e-06	-2.848541e-09	-1.697277e+01	-1.930501e+02
1.120000e-06	-2.247714e-06	-2.837451e-09	-1.676642e+01	-1.921546e+02
1.130000e-06	-2.220003e-06	-2.824725e-09	-1.655971e+01	-1.912415e+02
1.140000e-06	-2.192231e-06	-2.807441e-09	-1.635255e+01	-1.903106e+02
1.150000e-06	-2.164402e-06	-2.789902e-09	-1.614497e+01	-1.893615e+02
1.160000e-06	-2.136498e-06	-2.777316e-09	-1.593682e+01	-1.883941e+02
1.170000e-06	-2.108510e-06	-2.764560e-09	-1.572805e+01	-1.874081e+02
1.180000e-06	-2.080438e-06	-2.748489e-09	-1.551865e+01	-1.864032e+02
1.190000e-06	-2.052267e-06	-2.731332e-09	-1.530852e+01	-1.853794e+02
1.200000e-06	-2.023989e-06	-2.715730e-09	-1.509758e+01	-1.843365e+02
1.210000e-06	-1.995535e-06	-2.699325e-09	-1.488533e+01	-1.832745e+02
1.220000e-06	-1.966883e-06	-2.680550e-09	-1.467161e+01	-1.821932e+02
1.230000e-06	-1.938123e-06	-2.659675e-09	-1.445708e+01	-1.810926e+02
1.240000e-06	-1.909227e-06	-2.638439e-09	-1.424154e+01	-1.799728e+02
1.250000e-06	-1.880141e-06	-2.622369e-09	-1.402457e+01	-1.788338e+02
1.260000e-06	-1.850947e-06	-2.606537e-09	-1.380681e+01	-1.776755e+02
1.270000e-06	-1.821628e-06	-2.591316e-09	-1.358811e+01	-1.764980e+02
1.280000e-06	-1.792140e-06	-2.575831e-09	-1.336814e+01	-1.753013e+02
1.290000e-06	-1.762538e-06	-2.559096e-09	-1.314733e+01	-1.740856e+02
1.300000e-06	-1.732810e-06	-2.540464e-09	-1.292558e+01	-1.728508e+02
1.310000e-06	-1.702994e-06	-2.521558e-09	-1.270317e+01	-1.715971e+02
1.320000e-06	-1.673094e-06	-2.501230e-09	-1.248014e+01	-1.703243e+02
1.330000e-06	-1.643102e-06	-2.480608e-09	-1.225642e+01	-1.690325e+02
1.340000e-06	-1.613004e-06	-2.461653e-09	-1.203191e+01	-1.677217e+02
1.350000e-06	-1.582751e-06	-2.442895e-09	-1.180625e+01	-1.663918e+02
1.360000e-06	-1.552422e-06	-2.420626e-09	-1.158001e+01	-1.650426e+02
1.370000e-06	-1.522082e-06	-2.399141e-09	-1.135369e+01	-1.636741e+02
1.380000e-06	-1.491687e-06	-2.381617e-09	-1.112697e+01	-1.622859e+02
1.390000e-06	-1.461111e-06	-2.361225e-09	-1.089890e+01	-1.608779e+02
1.400000e-06	-1.430326e-06	-2.338176e-09	-1.066926e+01	-1.594496e+02
1.410000e-06	-1.399459e-06	-2.316150e-09	-1.043901e+01	-1.580007e+02
1.420000e-06	-1.368569e-06	-2.294606e-09	-1.020859e+01	-1.565306e+02
1.430000e-06	-1.337589e-06	-2.272001e-09	-9.977501e+00	-1.550387e+02
1.440000e-06	-1.306384e-06	-2.248676e-09	-9.744733e+00	-1.535245e+02
1.450000e-06	-1.275001e-06	-2.223536e-09	-9.510643e+00	-1.519872e+02
1.460000e-06	-1.243619e-06	-2.198388e-09	-9.276555e+00	-1.504259e+02
1.470000e-06	-1.212199e-06	-2.173804e-09	-9.042177e+00	-1.488397e+02
1.480000e-06	-1.180658e-06	-2.149673e-09	-8.806905e+00	-1.472277e+02
1.490000e-06	-1.149064e-06	-2.123571e-09	-8.571236e+00	-1.455887e+02
1.500000e-06	-1.117411e-06	-2.098401e-09	-8.335127e+00	-1.439216e+02
1.510000e-06	-1.085667e-06	-2.073798e-09	-8.098336e+00	-1.422251e+02
1.520000e-06	-1.053875e-06	-2.047655e-09	-7.861193e+00	-1.404980e+02
1.530000e-06	-1.022063e-06	-2.019188e-09	-7.623898e+00	-1.387387e+02
1.540000e-06	-9.902384e-07	-1.990240e-09	-7.386504e+00	-1.369459e+02
1.550000e-06	-9.583796e-07	-1.961040e-09	-7.148859e+00	-1.351180e+02
1.560000e-06	-9.264865e-07	-1.929609e-09	-6.910959e+00	-1.332534e+02
1.570000e-06	-8.945910e-07	-1.897883e-09	-6.673040e+00	-1.313506e+02
1.580000e-06	-8.626879e-07	-1.866253e-09	-6.435065e+00	-1.294079e+02
1.590000e-06	-8.307010e-07	-1.834484e-09	-6.196464e+00	-1.274236e+02
1.600000e-06	-7.986514e-07	-1.802997e-09	-5.957396e+00	-1.253960e+02
1.610000e-06	-7.666313e-07	-1.771849e-09	-5.718548e+00	-1.233235e+02
1.620000e-06	-7.346186e-07	-1.738775e-09	-5.479755e+00	-1.212044e+02
1.630000e-06	-7.025560e-07	-1.705764e-09	-5.240590e+00	-1.190370e+02
1.640000e-06	-6.704579e-07	-1.671521e-09	-5.001160e+00	-1.168197e+02
1.650000e-06	-6.383725e-07	-1.635676e-09	-4.761824e+00	-1.145510e+02
1.660000e-06	-6.062368e-07	-1.598160e-09	-4.522114e+00	-1.122294e+02
1.670000e-06	-5.740636e-07	-1.562012e-09	-4.282124e+00	-1.098534e+02
1.680000e-06	-5.418825e-07	-1.528788e-09	-4.042075e+00	-1.074217e+02
1.690000e-06	-5.096352e-07	-1.495362e-09	-3.801532e+00	-1.049331e+02
1.700000e-06	-4.773528e-07	-1.459387e-09	-3.560727e+00	-1.023864e+02
1.710000e-06	-4.450115e-07	-1.422705e-09	-3.319483e+00	-9.978073e+01
1.720000e-06	-4.126181e-07	-1.386808e-09	-3.077850e+00	-9.711512e+01
1.730000e-06	-3.802377e-07	-1.349218e-09	-2.836315e+00	-9.438888e+01
1.740000e-06	-3.478027e-07	-1.309970e-09	-2.594372e+00	-9.160148e+01
1.750000e-06	-3.153498e-07	-1.269760e-09	-2.352295e+00	-8.875253e+01
1.760000e-06	-2.829417e-07	-1.228339e-09	-2.110553e+00	-8.584180e+01
1.770000e-06	-2.504324e-07	-1.186486e-09	-1.868056e+00	-8.286930e+01
1.780000e-06	-2.178575e-07	-1.145538e-09	-1.625069e+00	-7.983516e+01
1.790000e-06	-1.853690e-07	-1.102454e-09	-1.382727e+00	-7.673976e+01
1.800000e-06	-1.528208e-07	-1.056847e-09	-1.139939e+00	-7.358366e+01
1.810000e-06	-1.201545e-07	-1.011407e-09	-8.962710e-01	-7.036762e+01
1.820000e-06	-8.749768e-08	-9.659583e-10	-6.526732e-01	-6.709261e+01
1.830000e-06	-5.480871e-08	-9.176526e-10	-4.088357e-01	-6.375980e+01
1.840000e-06	-2.209157e-08	-8.684072e-10	-1.647880e-01	-6.037057e+01
1.850000e-06	1.055225e-08	-8.195113e-10	7.871262e-02	-5.692650e+01
1.860000e-06	4.311550e-08	-7.700042e-10	3.216123e-01	-5.342936e+01
1.870000e-06	7.573073e-08	-7.177924e-10	5.648998e-01	-4.988114e+01
1.880000e-06	1.083840e-07	-6.635552e-10	8.084712e-01	-4.628399e+01
1.890000e-06	1.409839e-07	-6.085218e-10	1.051644e+00	-4.264026e+01
1.900000e-06	1.735365e-07	-5.537644e-10	1.294464e+00	-3.895245e+01
1.910000e-06	2.060728e-07	-5.011356e-10	1.537163e+00	-3.522326e+01
1.920000e-06	2.386292e-07	-4.472014e-10	1.780011e+00	-3.145552e+01
1.930000e-06	2.711887e-07	-3.904713e-10	2.022883e+00	-2.765220e+01
1.940000e-06	3.037035e-07	-3.318376e-10	2.265422e+00	-2.381641e+01
1.950000e-06	3.361907e-07	-2.736226e-10	2.507754e+00	-1.995137e+01
1.960000e-06	3.687187e-07	-2.171612e-10	2.750391e+00	-1.606042e+01
1.970000e-06	4.012156e-07	-1.579620e-10	2.992795e+00	-1.214697e+01
1.980000e-06	4.336244e-07	-9.723290e-11	3.234543e+00	-8.214503e+00
1.990000e-06	4.659903e-07	-4.035258e-11	3.475970e+00	-4.266584e+00
2.000000e-06	4.983388e-07	1.564574e-11	3.717269e+00	-3.068057e-01
2.010000e-06	5.306411e-07	7.512266e-11	3.958221e+00	3.661205e+00
2.020000e-06	5.628857e-07	1.358372e-10	4.198744e+00	7.633808e+00
2.030000e-06	5.950952e-07	1.936770e-10	4.439005e+00	1.160737e+01
2.040000e-06	6.272832e-07	2.497142e-10	4.679106e+00	1.557825e+01
2.050000e-06	6.594232e-07	3.075122e-10	4.918848e+00	1.954288e+01
2.060000e-06	6.915112e-07	3.670896e-10	5.158203e+00	2.349771e+01
2.070000e-06	7.235920e-07	4.256358e-10	5.397504e+00	2.743925e+01
2.080000e-06	7.556551e-07	4.825501e-10	5.636673e+00	3.136409e+01
2.090000e-06	7.876788e-07	5.395703e-10	5.875548e+00	3.526891e+01
2.100000e-06	8.196370e-07	5.978069e-10	6.113934e+00	3.915048e+01
2.110000e-06	8.515705e-07	6.552136e-10	6.352136e+00	4.300568e+01
2.120000e-06	8.834989e-07	7.107350e-10	6.590301e+00	4.683152e+01
2.130000e-06	9.153926e-07	7.659244e-10	6.828206e+00	5.062512e+01
2.140000e-06	9.472497e-07	8.204502e-10	7.065838e+00	5.438377e+01
2.150000e-06	9.790917e-07	8.744307e-10	7.303358e+00	5.810486e+01
2.160000e-06	1.010947e-06	9.292904e-10	7.540977e+00	6.178597e+01
2.170000e-06	1.042791e-06	9.830188e-10	7.778512e+00	6.542481e+01
2.180000e-06	1.074590e-06	1.033982e-09	8.015710e+00	6.901927e+01
2.190000e-06	1.106334e-06	1.084504e-09	8.252499e+00	7.256739e+01
2.200000e-06	1.138047e-06	1.134122e-09	8.489057e+00	7.606738e+01
2.210000e-06	1.169675e-06	1.181351e-09	8.724976e+00	7.951763e+01
2.220000e-06	1.201188e-06	1.228579e-09	8.960045e+00	8.291667e+01
2.230000e-06	1.232609e-06	1.276831e-09	9.194425e+00	8.626321e+01
2.240000e-06	1.263970e-06	1.324246e-09	9.428360e+00	8.955613e+01
2.250000e-06	1.295262e-06	1.369337e-09	9.661777e+00	9.279447e+01
2.260000e-06	1.326388e-06	1.414081e-09	9.893953e+00	9.597740e+01
2.270000e-06	1.357382e-06	1.459835e-09	1.012515e+01	9.910429e+01
2.280000e-06	1.388314e-06	1.505499e-09	1.035588e+01	1.021746e+02
2.290000e-06	1.419096e-06	1.550481e-09	1.058549e+01	1.051880e+02
2.300000e-06	1.449764e-06	1.592345e-09	1.081425e+01	1.081443e+02
2.310000e-06	1.480378e-06	1.632256e-09	1.104261e+01	1.110433e+02
2.320000e-06	1.510857e-06	1.672588e-09	1.126997e+01	1.138850e+02
2.330000e-06	1.541218e-06	1.712040e-09	1.149644e+01	1.166697e+02
2.340000e-06	1.571453e-06	1.749151e-09	1.172197e+01	1.193975e+02
2.350000e-06	1.601554e-06	1.785895e-09	1.194650e+01	1.220688e+02
2.360000e-06	1.631548e-06	1.824640e-09	1.217024e+01	1.246841e+02
2.370000e-06	1.661479e-06	1.863761e-09	1.239351e+01	1.272438e+02
2.380000e-06	1.691349e-06	1.900872e-09	1.261631e+01	1.297485e+02
2.390000e-06	1.721110e-06	1.935362e-09	1.283831e+01	1.321989e+02
2.400000e-06	1.750810e-06	1.970978e-09	1.305985e+01	1.345957e+02
2.410000e-06	1.780423e-06	2.007404e-09	1.328075e+01	1.369397e+02
2.420000e-06	1.809911e-06	2.040408e-09	1.350071e+01	1.392318e+02
2.430000e-06	1.839259e-06	2.069587e-09	1.371962e+01	1.414726e+02
2.440000e-06	1.868437e-06	2.100915e-09	1.393727e+01	1.436633e+02
2.450000e-06	1.897452e-06	2.137602e-09	1.415370e+01	1.458045e+02
2.460000e-06	1.926278e-06	2.173027e-09	1.436872e+01	1.478974e+02
2.470000e-06	1.955039e-06	2.203279e-09	1.458326e+01	1.499428e+02
2.480000e-06	1.983730e-06	2.230936e-09	1.479728e+01	1.519417e+02
2.490000e-06	2.012201e-06	2.259962e-09	1.500965e+01	1.538951e+02
2.500000e-06	2.040459e-06	2.290624e-09	1.522043e+01	1.558039e+02
2.510000e-06	2.068566e-06	2.319657e-09	1.543009e+01	1.576690e+02
2.520000e-06	2.096581e-06	2.344267e-09	1.563906e+01	1.594916e+02
2.530000e-06	2.124559e-06	2.368195e-09	1.584776e+01	1.612724e+02
2.540000e-06	2.152493e-06	2.393574e-09	1.605613e+01	1.630125e+02
2.550000e-06	2.180347e-06	2.416270e-09	1.626391e+01	1.647128e+02
2.560000e-06	2.208169e-06	2.437929e-09	1.647143e+01	1.663742e+02
2.570000e-06	2.235991e-06	2.462543e-09	1.667897e+01	1.679977e+02
2.580000e-06	2.263737e-06	2.489889e-09	1.688594e+01	1.695841e+02
2.590000e-06	2.291301e-06	2.517014e-09	1.709155e+01	1.711343e+02
2.600000e-06	2.318624e-06	2.543334e-09	1.729536e+01	1.726492e+02
2.610000e-06	2.345688e-06	2.567893e-09	1.749724e+01	1.741297e+02
2.620000e-06	2.372557e-06	2.588560e-09	1.769766e+01	1.755766e+02
2.630000e-06	2.399212e-06	2.607649e-09	1.789649e+01	1.769908e+02
2.640000e-06	2.425491e-06	2.628122e-09	1.809251e+01	1.783730e+02
2.650000e-06	2.451309e-06	2.647758e-09	1.828509e+01	1.797242e+02
2.660000e-06	2.476777e-06	2.666471e-09	1.847507e+01	1.810452e+02
2.670000e-06	2.501919e-06	2.688458e-09	1.866262e+01	1.823366e+02
2.680000e-06	2.526767e-06	2.712895e-09	1.884796e+01	1.835994e+02
2.690000e-06	2.551431e-06	2.736397e-09	1.903194e+01	1.848342e+02
2.700000e-06	2.575953e-06	2.757285e-09	1.921486e+01	1.860420e+02
2.710000e-06	2.600393e-06	2.776254e-09	1.939716e+01	1.872234e+02
2.720000e-06	2.624636e-06	2.792425e-09	1.957800e+01	1.883792e+02
2.730000e-06	2.648706e-06	2.805996e-09	1.975754e+01	1.895101e+02
2.740000e-06	2.672671e-06	2.819217e-09	1.993631e+01	1.906170e+02
2.750000e-06	2.696491e-06	2.833091e-09	2.011399e+01	1.917004e+02
2.760000e-06	2.720259e-06	2.849170e-09	2.029128e+01	1.927613e+02
2.770000e-06	2.743904e-06	2.868213e-09	2.046766e+01	1.938002e+02
2.780000e-06	2.767270e-06	2.887771e-09	2.064195e+01	1.948179e+02
2.790000e-06	2.790348e-06	2.906775e-09	2.081409e+01	1.958150e+02
2.800000e-06	2.813217e-06	2.924953e-09	2.098468e+01	1.967923e+02
2.810000e-06	2.835946e-06	2.941038e-09	2.115422e+01	1.977504e+02
2.820000e-06	2.858488e-06	2.956446e-09	2.132237e+01	1.986899e+02
2.830000e-06	2.880737e-06	2.971315e-09	2.148834e+01	1.996115e+02
2.840000e-06	2.902758e-06	2.984581e-09	2.165260e+01	2.005158e+02
2.850000e-06	2.924662e-06	2.996950e-09	2.181599e+01	2.014034e+02
2.860000e-06	2.946442e-06	3.011825e-09	2.197845e+01	2.022748e+02
2.870000e-06	2.968087e-06	3.029018e-09	2.213991e+01	2.031305e+02
2.880000e-06	2.989524e-06	3.043954e-09	2.229982e+01	2.039712e+02
2.890000e-06	3.010678e-06	3.057701e-09	2.245761e+01	2.047972e+02
2.900000e-06	3.031572e-06	3.074150e-09	2.261347e+01	2.056090e+02
