# Temperatura_=_20.0
# Concentracion g/m^3_=_9000.0
# C_Vs_to_Am_M_A/Vsm_=_65563218390.804596
# pendiente_HvsI_1/m_=_3716.3
# ordenada_HvsI_A/m_=_1297.0
# frecuencia_Hz_=_135023.1587326805

Tiempo_(s)	Campo_(V.s)	Magnetizacion_(V.s)	Campo_(kA/m)	Magnetizacion_(A/m)
0.000000e+00	-3.909250e-06	-3.610695e-09	-2.914360e+01	-2.351430e+02
1.000000e-08	-3.909454e-06	-3.610904e-09	-2.914511e+01	-2.351757e+02
2.000000e-08	-3.909512e-06	-3.609970e-09	-2.914555e+01	-2.351978e+02
3.000000e-08	-3.909375e-06	-3.607963e-09	-2.914453e+01	-2.352089e+02
4.000000e-08	-3.909000e-06	-3.603807e-09	-2.914173e+01	-2.352091e+02
5.000000e-08	-3.908330e-06	-3.593623e-09	-2.913673e+01	-2.351983e+02
6.000000e-08	-3.907226e-06	-3.577740e-09	-2.912850e+01	-2.351763e+02
7.000000e-08	-3.905590e-06	-3.579432e-09	-2.911631e+01	-2.351432e+02
8.000000e-08	-3.903382e-06	-3.623798e-09	-2.909985e+01	-2.350990e+02
9.000000e-08	-3.900582e-06	-3.680442e-09	-2.907897e+01	-2.350438e+02
1.000000e-07	-3.897397e-06	-3.673330e-09	-2.905523e+01	-2.349776e+02
1.100000e-07	-3.894027e-06	-3.605150e-09	-2.903010e+01	-2.349006e+02
1.200000e-07	-3.890461e-06	-3.563082e-09	-2.900352e+01	-2.348128e+02
1.300000e-07	-3.886744e-06	-3.513578e-09	-2.897581e+01	-2.347146e+02
1.400000e-07	-3.882928e-06	-3.515924e-09	-2.894736e+01	-2.346060e+02
1.500000e-07	-3.878945e-06	-3.598860e-09	-2.891767e+01	-2.344874e+02
1.600000e-07	-3.874741e-06	-3.625601e-09	-2.888633e+01	-2.343591e+02
1.700000e-07	-3.870361e-06	-3.580026e-09	-2.885368e+01	-2.342212e+02
1.800000e-07	-3.865757e-06	-3.534808e-09	-2.881935e+01	-2.340742e+02
1.900000e-07	-3.860781e-06	-3.553057e-09	-2.878225e+01	-2.339183e+02
2.000000e-07	-3.855486e-06	-3.584664e-09	-2.874278e+01	-2.337540e+02
2.100000e-07	-3.849897e-06	-3.609122e-09	-2.870111e+01	-2.335816e+02
2.200000e-07	-3.844003e-06	-3.584191e-09	-2.865717e+01	-2.334016e+02
2.300000e-07	-3.837870e-06	-3.540167e-09	-2.861145e+01	-2.332142e+02
2.400000e-07	-3.831463e-06	-3.544367e-09	-2.856369e+01	-2.330199e+02
2.500000e-07	-3.824736e-06	-3.612027e-09	-2.851354e+01	-2.328191e+02
2.600000e-07	-3.817647e-06	-3.622530e-09	-2.846069e+01	-2.326123e+02
2.700000e-07	-3.810251e-06	-3.521980e-09	-2.840555e+01	-2.323997e+02
2.800000e-07	-3.802698e-06	-3.481003e-09	-2.834925e+01	-2.321817e+02
2.900000e-07	-3.795051e-06	-3.567847e-09	-2.829223e+01	-2.319588e+02
3.000000e-07	-3.787278e-06	-3.622530e-09	-2.823429e+01	-2.317313e+02
3.100000e-07	-3.779362e-06	-3.535887e-09	-2.817527e+01	-2.314995e+02
3.200000e-07	-3.771259e-06	-3.479168e-09	-2.811486e+01	-2.312637e+02
3.300000e-07	-3.762899e-06	-3.536405e-09	-2.805254e+01	-2.310241e+02
3.400000e-07	-3.754253e-06	-3.598975e-09	-2.798809e+01	-2.307810e+02
3.500000e-07	-3.745150e-06	-3.556024e-09	-2.792022e+01	-2.305346e+02
3.600000e-07	-3.735506e-06	-3.489738e-09	-2.784832e+01	-2.302852e+02
3.700000e-07	-3.725393e-06	-3.492175e-09	-2.777294e+01	-2.300327e+02
3.800000e-07	-3.714744e-06	-3.542285e-09	-2.769354e+01	-2.297772e+02
3.900000e-07	-3.703648e-06	-3.551777e-09	-2.761082e+01	-2.295190e+02
4.000000e-07	-3.692283e-06	-3.513037e-09	-2.752609e+01	-2.292579e+02
4.100000e-07	-3.680703e-06	-3.483556e-09	-2.743977e+01	-2.289939e+02
4.200000e-07	-3.668906e-06	-3.502671e-09	-2.735182e+01	-2.287270e+02
4.300000e-07	-3.656877e-06	-3.536205e-09	-2.726214e+01	-2.284570e+02
4.400000e-07	-3.644577e-06	-3.528519e-09	-2.717044e+01	-2.281838e+02
4.500000e-07	-3.631945e-06	-3.474841e-09	-2.707627e+01	-2.279072e+02
4.600000e-07	-3.618984e-06	-3.449463e-09	-2.697965e+01	-2.276270e+02
4.700000e-07	-3.605708e-06	-3.490214e-09	-2.688068e+01	-2.273429e+02
4.800000e-07	-3.592251e-06	-3.506322e-09	-2.678036e+01	-2.270547e+02
4.900000e-07	-3.578619e-06	-3.449381e-09	-2.667873e+01	-2.267619e+02
5.000000e-07	-3.564759e-06	-3.410169e-09	-2.657540e+01	-2.264644e+02
5.100000e-07	-3.550606e-06	-3.455451e-09	-2.646989e+01	-2.261618e+02
5.200000e-07	-3.536007e-06	-3.484262e-09	-2.636105e+01	-2.258535e+02
5.300000e-07	-3.520983e-06	-3.442214e-09	-2.624905e+01	-2.255394e+02
5.400000e-07	-3.505586e-06	-3.408459e-09	-2.613426e+01	-2.252190e+02
5.500000e-07	-3.489744e-06	-3.435000e-09	-2.601616e+01	-2.248918e+02
5.600000e-07	-3.473536e-06	-3.445284e-09	-2.589533e+01	-2.245575e+02
5.700000e-07	-3.457173e-06	-3.416092e-09	-2.577334e+01	-2.242157e+02
5.800000e-07	-3.440657e-06	-3.390098e-09	-2.565022e+01	-2.238659e+02
5.900000e-07	-3.423876e-06	-3.386618e-09	-2.552511e+01	-2.235079e+02
6.000000e-07	-3.406791e-06	-3.386340e-09	-2.539774e+01	-2.231413e+02
6.100000e-07	-3.389464e-06	-3.387881e-09	-2.526857e+01	-2.227656e+02
6.200000e-07	-3.372007e-06	-3.378270e-09	-2.513843e+01	-2.223806e+02
6.300000e-07	-3.354456e-06	-3.358476e-09	-2.500759e+01	-2.219860e+02
6.400000e-07	-3.336702e-06	-3.354531e-09	-2.487523e+01	-2.215816e+02
6.500000e-07	-3.318702e-06	-3.368482e-09	-2.474104e+01	-2.211669e+02
6.600000e-07	-3.300424e-06	-3.357303e-09	-2.460477e+01	-2.207420e+02
6.700000e-07	-3.281784e-06	-3.325766e-09	-2.446582e+01	-2.203066e+02
6.800000e-07	-3.262853e-06	-3.320515e-09	-2.432468e+01	-2.198605e+02
6.900000e-07	-3.243697e-06	-3.332185e-09	-2.418187e+01	-2.194037e+02
7.000000e-07	-3.224342e-06	-3.318770e-09	-2.403758e+01	-2.189361e+02
7.100000e-07	-3.204845e-06	-3.290660e-09	-2.389223e+01	-2.184576e+02
7.200000e-07	-3.185192e-06	-3.286163e-09	-2.374571e+01	-2.179683e+02
7.300000e-07	-3.165432e-06	-3.292130e-09	-2.359841e+01	-2.174682e+02
7.400000e-07	-3.145591e-06	-3.284160e-09	-2.345049e+01	-2.169574e+02
7.500000e-07	-3.125649e-06	-3.266570e-09	-2.330182e+01	-2.164360e+02
7.600000e-07	-3.105529e-06	-3.254966e-09	-2.315182e+01	-2.159041e+02
7.700000e-07	-3.085232e-06	-3.246494e-09	-2.300051e+01	-2.153619e+02
7.800000e-07	-3.064715e-06	-3.240202e-09	-2.284755e+01	-2.148095e+02
7.900000e-07	-3.043973e-06	-3.228889e-09	-2.269293e+01	-2.142472e+02
8.000000e-07	-3.022990e-06	-3.212905e-09	-2.253650e+01	-2.136751e+02
8.100000e-07	-3.001717e-06	-3.202165e-09	-2.237790e+01	-2.130935e+02
8.200000e-07	-2.980245e-06	-3.202098e-09	-2.221783e+01	-2.125026e+02
8.300000e-07	-2.958573e-06	-3.195132e-09	-2.205626e+01	-2.119027e+02
8.400000e-07	-2.936677e-06	-3.175715e-09	-2.189303e+01	-2.112940e+02
8.500000e-07	-2.914611e-06	-3.159963e-09	-2.172852e+01	-2.106767e+02
8.600000e-07	-2.892444e-06	-3.158678e-09	-2.156327e+01	-2.100510e+02
8.700000e-07	-2.870143e-06	-3.154208e-09	-2.139701e+01	-2.094172e+02
8.800000e-07	-2.847598e-06	-3.135869e-09	-2.122894e+01	-2.087754e+02
8.900000e-07	-2.824770e-06	-3.118007e-09	-2.105876e+01	-2.081259e+02
9.000000e-07	-2.801771e-06	-3.111286e-09	-2.088730e+01	-2.074687e+02
9.100000e-07	-2.778541e-06	-3.104288e-09	-2.071412e+01	-2.068040e+02
9.200000e-07	-2.755044e-06	-3.088483e-09	-2.053895e+01	-2.061319e+02
9.300000e-07	-2.731394e-06	-3.070772e-09	-2.036264e+01	-2.054524e+02
9.400000e-07	-2.707650e-06	-3.061403e-09	-2.018562e+01	-2.047656e+02
9.500000e-07	-2.683829e-06	-3.057053e-09	-2.000804e+01	-2.040713e+02
9.600000e-07	-2.659941e-06	-3.046660e-09	-1.982995e+01	-2.033697e+02
9.700000e-07	-2.635922e-06	-3.030942e-09	-1.965089e+01	-2.026605e+02
9.800000e-07	-2.611703e-06	-3.017167e-09	-1.947034e+01	-2.019437e+02
9.900000e-07	-2.587279e-06	-3.008693e-09	-1.928825e+01	-2.012190e+02
1.000000e-06	-2.562728e-06	-2.998425e-09	-1.910522e+01	-2.004862e+02
1.010000e-06	-2.537989e-06	-2.983468e-09	-1.892080e+01	-1.997452e+02
1.020000e-06	-2.512857e-06	-2.967386e-09	-1.873344e+01	-1.989955e+02
1.030000e-06	-2.487366e-06	-2.957849e-09	-1.854340e+01	-1.982368e+02
1.040000e-06	-2.461630e-06	-2.951331e-09	-1.835154e+01	-1.974689e+02
1.050000e-06	-2.435475e-06	-2.939183e-09	-1.815655e+01	-1.966912e+02
1.060000e-06	-2.408998e-06	-2.921734e-09	-1.795916e+01	-1.959034e+02
1.070000e-06	-2.382295e-06	-2.907207e-09	-1.776009e+01	-1.951050e+02
1.080000e-06	-2.355330e-06	-2.895964e-09	-1.755906e+01	-1.942955e+02
1.090000e-06	-2.328189e-06	-2.882102e-09	-1.735673e+01	-1.934744e+02
1.100000e-06	-2.300867e-06	-2.863647e-09	-1.715305e+01	-1.926412e+02
1.110000e-06	-2.273348e-06	-2.847491e-09	-1.694789e+01	-1.917954e+02
1.120000e-06	-2.245660e-06	-2.837673e-09	-1.674147e+01	-1.909364e+02
1.130000e-06	-2.217934e-06	-2.828160e-09	-1.653477e+01	-1.900638e+02
1.140000e-06	-2.190171e-06	-2.813180e-09	-1.632780e+01	-1.891769e+02
1.150000e-06	-2.162349e-06	-2.796894e-09	-1.612039e+01	-1.882753e+02
1.160000e-06	-2.134435e-06	-2.781039e-09	-1.591229e+01	-1.873583e+02
1.170000e-06	-2.106440e-06	-2.764257e-09	-1.570358e+01	-1.864255e+02
1.180000e-06	-2.078393e-06	-2.745583e-09	-1.549449e+01	-1.854764e+02
1.190000e-06	-2.050173e-06	-2.727419e-09	-1.528411e+01	-1.845104e+02
1.200000e-06	-2.021829e-06	-2.709915e-09	-1.507281e+01	-1.835272e+02
1.210000e-06	-1.993391e-06	-2.694649e-09	-1.486080e+01	-1.825262e+02
1.220000e-06	-1.964673e-06	-2.679595e-09	-1.464670e+01	-1.815069e+02
1.230000e-06	-1.935749e-06	-2.661053e-09	-1.443108e+01	-1.804691e+02
1.240000e-06	-1.906794e-06	-2.640769e-09	-1.421522e+01	-1.794122e+02
1.250000e-06	-1.877743e-06	-2.622889e-09	-1.399864e+01	-1.783360e+02
1.260000e-06	-1.848531e-06	-2.606398e-09	-1.378086e+01	-1.772400e+02
1.270000e-06	-1.819163e-06	-2.585670e-09	-1.356193e+01	-1.761240e+02
1.280000e-06	-1.789613e-06	-2.563683e-09	-1.334163e+01	-1.749875e+02
1.290000e-06	-1.759907e-06	-2.543070e-09	-1.312017e+01	-1.738304e+02
1.300000e-06	-1.730123e-06	-2.525614e-09	-1.289812e+01	-1.726523e+02
1.310000e-06	-1.700302e-06	-2.508256e-09	-1.267581e+01	-1.714530e+02
1.320000e-06	-1.670424e-06	-2.489266e-09	-1.245306e+01	-1.702322e+02
1.330000e-06	-1.640441e-06	-2.469486e-09	-1.222955e+01	-1.689897e+02
1.340000e-06	-1.610314e-06	-2.451984e-09	-1.200495e+01	-1.677251e+02
1.350000e-06	-1.580041e-06	-2.433395e-09	-1.177926e+01	-1.664383e+02
1.360000e-06	-1.549699e-06	-2.411718e-09	-1.155306e+01	-1.651288e+02
1.370000e-06	-1.519336e-06	-2.390215e-09	-1.132670e+01	-1.637966e+02
1.380000e-06	-1.488877e-06	-2.369307e-09	-1.109963e+01	-1.624411e+02
1.390000e-06	-1.458303e-06	-2.347261e-09	-1.087170e+01	-1.610621e+02
1.400000e-06	-1.427609e-06	-2.325284e-09	-1.064287e+01	-1.596593e+02
1.410000e-06	-1.396819e-06	-2.304429e-09	-1.041333e+01	-1.582322e+02
1.420000e-06	-1.365929e-06	-2.283487e-09	-1.018305e+01	-1.567804e+02
1.430000e-06	-1.334887e-06	-2.262093e-09	-9.951625e+00	-1.553033e+02
1.440000e-06	-1.303743e-06	-2.240382e-09	-9.719452e+00	-1.538005e+02
1.450000e-06	-1.272450e-06	-2.216221e-09	-9.486160e+00	-1.522714e+02
1.460000e-06	-1.241017e-06	-2.189694e-09	-9.251826e+00	-1.507152e+02
1.470000e-06	-1.209505e-06	-2.163583e-09	-9.016902e+00	-1.491314e+02
1.480000e-06	-1.177984e-06	-2.138026e-09	-8.781910e+00	-1.475191e+02
1.490000e-06	-1.146447e-06	-2.112249e-09	-8.546804e+00	-1.458776e+02
1.500000e-06	-1.114804e-06	-2.086884e-09	-8.310904e+00	-1.442058e+02
1.510000e-06	-1.083099e-06	-2.061747e-09	-8.074537e+00	-1.425030e+02
1.520000e-06	-1.051353e-06	-2.034916e-09	-7.837875e+00	-1.407679e+02
1.530000e-06	-1.019569e-06	-2.007933e-09	-7.600924e+00	-1.389996e+02
1.540000e-06	-9.877571e-07	-1.981397e-09	-7.363763e+00	-1.371970e+02
1.550000e-06	-9.559346e-07	-1.952320e-09	-7.126525e+00	-1.353587e+02
1.560000e-06	-9.240875e-07	-1.920822e-09	-6.889104e+00	-1.334836e+02
1.570000e-06	-8.922043e-07	-1.889861e-09	-6.651413e+00	-1.315704e+02
1.580000e-06	-8.603077e-07	-1.858862e-09	-6.413624e+00	-1.296177e+02
1.590000e-06	-8.284073e-07	-1.827767e-09	-6.175805e+00	-1.276242e+02
1.600000e-06	-7.964459e-07	-1.795746e-09	-5.937531e+00	-1.255885e+02
1.610000e-06	-7.643924e-07	-1.762408e-09	-5.698571e+00	-1.235090e+02
1.620000e-06	-7.322972e-07	-1.728907e-09	-5.459301e+00	-1.213845e+02
1.630000e-06	-7.002219e-07	-1.696184e-09	-5.220178e+00	-1.192134e+02
1.640000e-06	-6.681080e-07	-1.663841e-09	-4.980768e+00	-1.169944e+02
1.650000e-06	-6.358885e-07	-1.629982e-09	-4.740571e+00	-1.147260e+02
1.660000e-06	-6.036307e-07	-1.593475e-09	-4.500088e+00	-1.124069e+02
1.670000e-06	-5.713516e-07	-1.556768e-09	-4.259446e+00	-1.100357e+02
1.680000e-06	-5.390465e-07	-1.522382e-09	-4.018610e+00	-1.076112e+02
1.690000e-06	-5.066903e-07	-1.487252e-09	-3.777393e+00	-1.051322e+02
1.700000e-06	-4.742935e-07	-1.449928e-09	-3.535874e+00	-1.025975e+02
1.710000e-06	-4.419578e-07	-1.413181e-09	-3.294810e+00	-1.000060e+02
1.720000e-06	-4.096202e-07	-1.377011e-09	-3.053733e+00	-9.735692e+01
1.730000e-06	-3.771192e-07	-1.338020e-09	-2.811437e+00	-9.464935e+01
1.740000e-06	-3.445462e-07	-1.297008e-09	-2.568604e+00	-9.188261e+01
1.750000e-06	-3.119539e-07	-1.257465e-09	-2.325627e+00	-8.905614e+01
1.760000e-06	-2.792990e-07	-1.217752e-09	-2.082184e+00	-8.616951e+01
1.770000e-06	-2.466539e-07	-1.176399e-09	-1.838813e+00	-8.322248e+01
1.780000e-06	-2.139902e-07	-1.133648e-09	-1.595304e+00	-8.021495e+01
1.790000e-06	-1.813469e-07	-1.089237e-09	-1.351947e+00	-7.714700e+01
1.800000e-06	-1.487030e-07	-1.044148e-09	-1.108586e+00	-7.401888e+01
1.810000e-06	-1.159486e-07	-9.987623e-10	-8.644004e-01	-7.083106e+01
1.820000e-06	-8.326249e-08	-9.529584e-10	-6.207247e-01	-6.758417e+01
1.830000e-06	-5.066421e-08	-9.062148e-10	-3.777034e-01	-6.427904e+01
1.840000e-06	-1.811367e-08	-8.587043e-10	-1.350380e-01	-6.091671e+01
1.850000e-06	1.445445e-08	-8.096417e-10	1.077585e-01	-5.749841e+01
1.860000e-06	4.709297e-08	-7.598816e-10	3.510797e-01	-5.402560e+01
1.870000e-06	7.969454e-08	-7.080794e-10	5.941256e-01	-5.049989e+01
1.880000e-06	1.123147e-07	-6.526568e-10	8.373099e-01	-4.692313e+01
1.890000e-06	1.450160e-07	-5.976436e-10	1.081099e+00	-4.329735e+01
1.900000e-06	1.777365e-07	-5.448790e-10	1.325031e+00	-3.962477e+01
1.910000e-06	2.104278e-07	-4.927210e-10	1.568747e+00	-3.590780e+01
1.920000e-06	2.431291e-07	-4.377282e-10	1.812536e+00	-3.214901e+01
1.930000e-06	2.757210e-07	-3.808991e-10	2.055509e+00	-2.835115e+01
1.940000e-06	3.082424e-07	-3.242696e-10	2.297958e+00	-2.451715e+01
1.950000e-06	3.407674e-07	-2.665571e-10	2.540433e+00	-2.065005e+01
1.960000e-06	3.732276e-07	-2.071958e-10	2.782424e+00	-1.675304e+01
1.970000e-06	4.057558e-07	-1.471331e-10	3.024924e+00	-1.282946e+01
1.980000e-06	4.382728e-07	-8.742227e-11	3.267339e+00	-8.882734e+00
1.990000e-06	4.706343e-07	-2.862842e-11	3.508595e+00	-4.916385e+00
2.000000e-06	5.029131e-07	2.981487e-11	3.749235e+00	-9.340262e-01
2.010000e-06	5.351562e-07	8.975137e-11	3.989608e+00	3.060663e+00
2.020000e-06	5.674156e-07	1.495104e-10	4.230103e+00	7.063952e+00
2.030000e-06	5.996970e-07	2.058405e-10	4.470762e+00	1.107208e+01
2.040000e-06	6.319129e-07	2.610788e-10	4.710932e+00	1.508125e+01
2.050000e-06	6.640300e-07	3.185466e-10	4.950366e+00	1.908768e+01
2.060000e-06	6.960658e-07	3.772476e-10	5.189194e+00	2.308760e+01
2.070000e-06	7.281022e-07	4.362042e-10	5.428027e+00	2.707726e+01
2.080000e-06	7.601983e-07	4.941068e-10	5.667305e+00	3.105295e+01
2.090000e-06	7.922160e-07	5.503145e-10	5.905998e+00	3.501104e+01
2.100000e-06	8.241463e-07	6.059469e-10	6.144039e+00	3.894795e+01
2.110000e-06	8.560544e-07	6.627688e-10	6.381915e+00	4.286021e+01
2.120000e-06	8.879248e-07	7.196628e-10	6.619509e+00	4.674444e+01
2.130000e-06	9.197700e-07	7.751096e-10	6.856917e+00	5.059739e+01
2.140000e-06	9.515916e-07	8.280702e-10	7.094148e+00	5.441592e+01
2.150000e-06	9.833672e-07	8.811372e-10	7.331036e+00	5.819705e+01
2.160000e-06	1.015088e-06	9.368356e-10	7.567517e+00	6.193792e+01
2.170000e-06	1.046786e-06	9.898815e-10	7.803827e+00	6.563586e+01
2.180000e-06	1.078476e-06	1.040514e-09	8.040075e+00	6.928835e+01
2.190000e-06	1.110122e-06	1.091587e-09	8.276000e+00	7.289304e+01
2.200000e-06	1.141702e-06	1.142240e-09	8.511427e+00	7.644778e+01
2.210000e-06	1.173215e-06	1.190360e-09	8.746359e+00	7.995057e+01
2.220000e-06	1.204680e-06	1.236998e-09	8.980934e+00	8.339962e+01
2.230000e-06	1.236087e-06	1.283968e-09	9.215071e+00	8.679333e+01
2.240000e-06	1.267446e-06	1.331934e-09	9.448855e+00	9.013028e+01
2.250000e-06	1.298715e-06	1.379355e-09	9.681962e+00	9.340924e+01
2.260000e-06	1.329821e-06	1.423858e-09	9.913858e+00	9.662917e+01
2.270000e-06	1.360842e-06	1.467462e-09	1.014512e+01	9.978923e+01
2.280000e-06	1.391822e-06	1.513323e-09	1.037608e+01	1.028887e+02
2.290000e-06	1.422676e-06	1.559197e-09	1.060610e+01	1.059272e+02
2.300000e-06	1.453317e-06	1.601270e-09	1.083453e+01	1.089043e+02
2.310000e-06	1.483850e-06	1.641120e-09	1.106215e+01	1.118200e+02
2.320000e-06	1.514300e-06	1.681587e-09	1.128916e+01	1.146741e+02
2.330000e-06	1.544586e-06	1.723359e-09	1.151494e+01	1.174668e+02
2.340000e-06	1.574817e-06	1.763743e-09	1.174031e+01	1.201986e+02
2.350000e-06	1.604940e-06	1.802317e-09	1.196489e+01	1.228697e+02
2.360000e-06	1.634894e-06	1.840484e-09	1.218819e+01	1.254808e+02
2.370000e-06	1.664767e-06	1.878677e-09	1.241090e+01	1.280326e+02
2.380000e-06	1.694594e-06	1.917651e-09	1.263326e+01	1.305258e+02
2.390000e-06	1.724395e-06	1.955475e-09	1.285542e+01	1.329613e+02
2.400000e-06	1.754116e-06	1.989766e-09	1.307699e+01	1.353400e+02
2.410000e-06	1.783693e-06	2.024008e-09	1.329749e+01	1.376632e+02
2.420000e-06	1.813166e-06	2.058605e-09	1.351721e+01	1.399317e+02
2.430000e-06	1.842534e-06	2.089858e-09	1.373616e+01	1.421469e+02
2.440000e-06	1.871733e-06	2.121092e-09	1.395383e+01	1.443098e+02
2.450000e-06	1.900801e-06	2.155183e-09	1.417054e+01	1.464218e+02
2.460000e-06	1.929795e-06	2.188629e-09	1.438669e+01	1.484842e+02
2.470000e-06	1.958553e-06	2.218625e-09	1.460108e+01	1.504981e+02
2.480000e-06	1.987038e-06	2.247479e-09	1.481344e+01	1.524650e+02
2.490000e-06	2.015380e-06	2.277753e-09	1.502473e+01	1.543861e+02
2.500000e-06	2.043567e-06	2.308365e-09	1.523487e+01	1.562628e+02
2.510000e-06	2.071632e-06	2.338676e-09	1.544409e+01	1.580962e+02
2.520000e-06	2.099632e-06	2.367259e-09	1.565283e+01	1.598878e+02
2.530000e-06	2.127571e-06	2.394633e-09	1.586111e+01	1.616386e+02
2.540000e-06	2.155436e-06	2.420355e-09	1.606885e+01	1.633500e+02
2.550000e-06	2.183254e-06	2.443111e-09	1.627623e+01	1.650232e+02
2.560000e-06	2.211057e-06	2.464169e-09	1.648350e+01	1.666592e+02
2.570000e-06	2.238775e-06	2.487291e-09	1.669015e+01	1.682593e+02
2.580000e-06	2.266381e-06	2.513950e-09	1.689595e+01	1.698244e+02
2.590000e-06	2.293907e-06	2.538992e-09	1.710116e+01	1.713556e+02
2.600000e-06	2.321342e-06	2.562839e-09	1.730568e+01	1.728539e+02
2.610000e-06	2.348575e-06	2.587938e-09	1.750871e+01	1.743202e+02
2.620000e-06	2.375455e-06	2.612523e-09	1.770910e+01	1.757555e+02
2.630000e-06	2.402038e-06	2.632971e-09	1.790728e+01	1.771605e+02
2.640000e-06	2.428377e-06	2.651066e-09	1.810363e+01	1.785362e+02
2.650000e-06	2.454444e-06	2.671184e-09	1.829796e+01	1.798832e+02
2.660000e-06	2.480154e-06	2.692082e-09	1.848963e+01	1.812023e+02
2.670000e-06	2.505461e-06	2.712454e-09	1.867830e+01	1.824942e+02
2.680000e-06	2.530452e-06	2.733059e-09	1.886461e+01	1.837595e+02
2.690000e-06	2.555121e-06	2.754190e-09	1.904852e+01	1.849989e+02
2.700000e-06	2.579595e-06	2.774228e-09	1.923097e+01	1.862129e+02
2.710000e-06	2.603933e-06	2.793185e-09	1.941241e+01	1.874021e+02
2.720000e-06	2.628077e-06	2.811131e-09	1.959240e+01	1.885671e+02
2.730000e-06	2.652068e-06	2.828606e-09	1.977126e+01	1.897082e+02
2.740000e-06	2.675926e-06	2.844512e-09	1.994912e+01	1.908261e+02
2.750000e-06	2.699716e-06	2.858609e-09	2.012648e+01	1.919212e+02
2.760000e-06	2.723434e-06	2.873428e-09	2.030329e+01	1.929938e+02
2.770000e-06	2.746996e-06	2.890150e-09	2.047895e+01	1.940446e+02
2.780000e-06	2.770345e-06	2.908224e-09	2.065302e+01	1.950737e+02
2.790000e-06	2.793438e-06	2.924652e-09	2.082518e+01	1.960818e+02
2.800000e-06	2.816330e-06	2.938501e-09	2.099584e+01	1.970691e+02
2.810000e-06	2.839056e-06	2.952725e-09	2.116526e+01	1.980361e+02
2.820000e-06	2.861597e-06	2.968792e-09	2.133330e+01	1.989831e+02
2.830000e-06	2.883933e-06	2.983228e-09	2.149982e+01	1.999105e+02
2.840000e-06	2.906038e-06	2.994777e-09	2.166461e+01	2.008187e+02
2.850000e-06	2.927934e-06	3.007056e-09	2.182785e+01	2.017080e+02
2.860000e-06	2.949665e-06	3.021634e-09	2.198986e+01	2.025789e+02
2.870000e-06	2.971255e-06	3.037480e-09	2.215081e+01	2.034316e+02
2.880000e-06	2.992679e-06	3.053987e-09	2.231052e+01	2.042666e+02
2.890000e-06	3.013955e-06	3.068282e-09	2.246914e+01	2.050842e+02
2.900000e-06	3.035028e-06	3.080536e-09	2.262624e+01	2.058847e+02
