# Temperatura_=_20.0
# Concentracion g/m^3_=_9000.0
# C_Vs_to_Am_M_A/Vsm_=_65563218390.804596
# pendiente_HvsI_1/m_=_3716.3
# ordenada_HvsI_A/m_=_1297.0
# frecuencia_Hz_=_135017.9797088565

Tiempo_(s)	Campo_(V.s)	Magnetizacion_(V.s)	Campo_(kA/m)	Magnetizacion_(A/m)
0.000000e+00	-3.907796e-06	-3.596873e-09	-2.914291e+01	-2.338565e+02
1.000000e-08	-3.907953e-06	-3.598317e-09	-2.914407e+01	-2.339016e+02
2.000000e-08	-3.907929e-06	-3.597067e-09	-2.914390e+01	-2.339390e+02
3.000000e-08	-3.907757e-06	-3.597375e-09	-2.914262e+01	-2.339685e+02
4.000000e-08	-3.907409e-06	-3.595768e-09	-2.914002e+01	-2.339897e+02
5.000000e-08	-3.906799e-06	-3.587156e-09	-2.913547e+01	-2.340026e+02
6.000000e-08	-3.905794e-06	-3.574162e-09	-2.912797e+01	-2.340066e+02
7.000000e-08	-3.904279e-06	-3.575670e-09	-2.911668e+01	-2.340017e+02
8.000000e-08	-3.902187e-06	-3.594753e-09	-2.910108e+01	-2.339876e+02
9.000000e-08	-3.899564e-06	-3.625067e-09	-2.908151e+01	-2.339641e+02
1.000000e-07	-3.896530e-06	-3.655553e-09	-2.905889e+01	-2.339310e+02
1.100000e-07	-3.893169e-06	-3.634643e-09	-2.903382e+01	-2.338882e+02
1.200000e-07	-3.889619e-06	-3.570271e-09	-2.900735e+01	-2.338356e+02
1.300000e-07	-3.885960e-06	-3.538524e-09	-2.898006e+01	-2.337730e+02
1.400000e-07	-3.882165e-06	-3.523596e-09	-2.895176e+01	-2.337004e+02
1.500000e-07	-3.878196e-06	-3.535502e-09	-2.892216e+01	-2.336179e+02
1.600000e-07	-3.874050e-06	-3.585452e-09	-2.889124e+01	-2.335253e+02
1.700000e-07	-3.869700e-06	-3.583604e-09	-2.885880e+01	-2.334228e+02
1.800000e-07	-3.865106e-06	-3.539753e-09	-2.882454e+01	-2.333104e+02
1.900000e-07	-3.860164e-06	-3.526857e-09	-2.878768e+01	-2.331883e+02
2.000000e-07	-3.854891e-06	-3.555216e-09	-2.874836e+01	-2.330565e+02
2.100000e-07	-3.849403e-06	-3.577161e-09	-2.870743e+01	-2.329153e+02
2.200000e-07	-3.843637e-06	-3.564090e-09	-2.866443e+01	-2.327648e+02
2.300000e-07	-3.837547e-06	-3.537972e-09	-2.861902e+01	-2.326051e+02
2.400000e-07	-3.831172e-06	-3.530492e-09	-2.857147e+01	-2.324367e+02
2.500000e-07	-3.824486e-06	-3.546918e-09	-2.852161e+01	-2.322597e+02
2.600000e-07	-3.817468e-06	-3.566656e-09	-2.846927e+01	-2.320743e+02
2.700000e-07	-3.810193e-06	-3.546692e-09	-2.841502e+01	-2.318809e+02
2.800000e-07	-3.802724e-06	-3.493817e-09	-2.835931e+01	-2.316797e+02
2.900000e-07	-3.795080e-06	-3.488122e-09	-2.830231e+01	-2.314710e+02
3.000000e-07	-3.787311e-06	-3.545342e-09	-2.824437e+01	-2.312552e+02
3.100000e-07	-3.779405e-06	-3.554280e-09	-2.818541e+01	-2.310324e+02
3.200000e-07	-3.771323e-06	-3.490442e-09	-2.812514e+01	-2.308031e+02
3.300000e-07	-3.763068e-06	-3.473518e-09	-2.806358e+01	-2.305673e+02
3.400000e-07	-3.754446e-06	-3.524529e-09	-2.799928e+01	-2.303255e+02
3.500000e-07	-3.745319e-06	-3.540838e-09	-2.793121e+01	-2.300778e+02
3.600000e-07	-3.735711e-06	-3.490537e-09	-2.785956e+01	-2.298246e+02
3.700000e-07	-3.725706e-06	-3.460434e-09	-2.778495e+01	-2.295659e+02
3.800000e-07	-3.715234e-06	-3.483473e-09	-2.770685e+01	-2.293019e+02
3.900000e-07	-3.704300e-06	-3.509598e-09	-2.762531e+01	-2.290329e+02
4.000000e-07	-3.693088e-06	-3.498616e-09	-2.754169e+01	-2.287590e+02
4.100000e-07	-3.681572e-06	-3.471728e-09	-2.745581e+01	-2.284802e+02
4.200000e-07	-3.669788e-06	-3.465764e-09	-2.736793e+01	-2.281966e+02
4.300000e-07	-3.657799e-06	-3.482359e-09	-2.727852e+01	-2.279083e+02
4.400000e-07	-3.645577e-06	-3.492298e-09	-2.718737e+01	-2.276152e+02
4.500000e-07	-3.633138e-06	-3.469794e-09	-2.709461e+01	-2.273175e+02
4.600000e-07	-3.620423e-06	-3.434577e-09	-2.699978e+01	-2.270149e+02
4.700000e-07	-3.607305e-06	-3.432569e-09	-2.690195e+01	-2.267075e+02
4.800000e-07	-3.593901e-06	-3.458076e-09	-2.680200e+01	-2.263950e+02
4.900000e-07	-3.580319e-06	-3.452964e-09	-2.670070e+01	-2.260775e+02
5.000000e-07	-3.566381e-06	-3.411749e-09	-2.659675e+01	-2.257547e+02
5.100000e-07	-3.552098e-06	-3.399687e-09	-2.649024e+01	-2.254265e+02
5.200000e-07	-3.537597e-06	-3.429258e-09	-2.638210e+01	-2.250927e+02
5.300000e-07	-3.522741e-06	-3.433929e-09	-2.627131e+01	-2.247530e+02
5.400000e-07	-3.507456e-06	-3.395762e-09	-2.615731e+01	-2.244072e+02
5.500000e-07	-3.491739e-06	-3.378611e-09	-2.604010e+01	-2.240551e+02
5.600000e-07	-3.475560e-06	-3.397579e-09	-2.591945e+01	-2.236965e+02
5.700000e-07	-3.459215e-06	-3.400732e-09	-2.579756e+01	-2.233310e+02
5.800000e-07	-3.442672e-06	-3.376164e-09	-2.567418e+01	-2.229586e+02
5.900000e-07	-3.425813e-06	-3.358138e-09	-2.554845e+01	-2.225788e+02
6.000000e-07	-3.408741e-06	-3.358023e-09	-2.542114e+01	-2.221914e+02
6.100000e-07	-3.391424e-06	-3.357779e-09	-2.529199e+01	-2.217963e+02
6.200000e-07	-3.373982e-06	-3.351316e-09	-2.516192e+01	-2.213932e+02
6.300000e-07	-3.356429e-06	-3.339291e-09	-2.503101e+01	-2.209818e+02
6.400000e-07	-3.338710e-06	-3.325572e-09	-2.489887e+01	-2.205621e+02
6.500000e-07	-3.320754e-06	-3.321935e-09	-2.476496e+01	-2.201337e+02
6.600000e-07	-3.302559e-06	-3.324224e-09	-2.462927e+01	-2.196966e+02
6.700000e-07	-3.284044e-06	-3.308928e-09	-2.449119e+01	-2.192507e+02
6.800000e-07	-3.265162e-06	-3.284513e-09	-2.435038e+01	-2.187957e+02
6.900000e-07	-3.246055e-06	-3.281653e-09	-2.420788e+01	-2.183317e+02
7.000000e-07	-3.226754e-06	-3.289362e-09	-2.406395e+01	-2.178585e+02
7.100000e-07	-3.207230e-06	-3.277009e-09	-2.391834e+01	-2.173761e+02
7.200000e-07	-3.187546e-06	-3.259432e-09	-2.377155e+01	-2.168845e+02
7.300000e-07	-3.167779e-06	-3.255338e-09	-2.362413e+01	-2.163838e+02
7.400000e-07	-3.147958e-06	-3.252979e-09	-2.347632e+01	-2.158739e+02
7.500000e-07	-3.128040e-06	-3.240852e-09	-2.332778e+01	-2.153549e+02
7.600000e-07	-3.107975e-06	-3.227290e-09	-2.317814e+01	-2.148268e+02
7.700000e-07	-3.087742e-06	-3.216593e-09	-2.302725e+01	-2.142898e+02
7.800000e-07	-3.067347e-06	-3.205534e-09	-2.287514e+01	-2.137440e+02
7.900000e-07	-3.046725e-06	-3.196807e-09	-2.272135e+01	-2.131894e+02
8.000000e-07	-3.025769e-06	-3.188971e-09	-2.256507e+01	-2.126263e+02
8.100000e-07	-3.004520e-06	-3.178677e-09	-2.240661e+01	-2.120547e+02
8.200000e-07	-2.983051e-06	-3.168523e-09	-2.224650e+01	-2.114748e+02
8.300000e-07	-2.961389e-06	-3.161702e-09	-2.208495e+01	-2.108867e+02
8.400000e-07	-2.939537e-06	-3.152953e-09	-2.192198e+01	-2.102906e+02
8.500000e-07	-2.917565e-06	-3.140458e-09	-2.175813e+01	-2.096866e+02
8.600000e-07	-2.895521e-06	-3.130363e-09	-2.159373e+01	-2.090747e+02
8.700000e-07	-2.873306e-06	-3.124567e-09	-2.142806e+01	-2.084552e+02
8.800000e-07	-2.850825e-06	-3.114463e-09	-2.126041e+01	-2.078281e+02
8.900000e-07	-2.828031e-06	-3.098856e-09	-2.109042e+01	-2.071934e+02
9.000000e-07	-2.804887e-06	-3.086888e-09	-2.091782e+01	-2.065513e+02
9.100000e-07	-2.781501e-06	-3.079035e-09	-2.074341e+01	-2.059017e+02
9.200000e-07	-2.758021e-06	-3.065711e-09	-2.056831e+01	-2.052446e+02
9.300000e-07	-2.734440e-06	-3.047986e-09	-2.039245e+01	-2.045801e+02
9.400000e-07	-2.710715e-06	-3.034583e-09	-2.021552e+01	-2.039080e+02
9.500000e-07	-2.686890e-06	-3.027625e-09	-2.003783e+01	-2.032282e+02
9.600000e-07	-2.663030e-06	-3.018576e-09	-1.985990e+01	-2.025407e+02
9.700000e-07	-2.639079e-06	-3.003251e-09	-1.968128e+01	-2.018452e+02
9.800000e-07	-2.614968e-06	-2.988242e-09	-1.950147e+01	-2.011416e+02
9.900000e-07	-2.590735e-06	-2.978123e-09	-1.932075e+01	-2.004296e+02
1.000000e-06	-2.566288e-06	-2.968235e-09	-1.913843e+01	-1.997089e+02
1.010000e-06	-2.541579e-06	-2.954209e-09	-1.895416e+01	-1.989793e+02
1.020000e-06	-2.516587e-06	-2.940103e-09	-1.876778e+01	-1.982405e+02
1.030000e-06	-2.491211e-06	-2.930815e-09	-1.857853e+01	-1.974920e+02
1.040000e-06	-2.465424e-06	-2.923497e-09	-1.838623e+01	-1.967335e+02
1.050000e-06	-2.439297e-06	-2.913646e-09	-1.819138e+01	-1.959646e+02
1.060000e-06	-2.412922e-06	-2.899129e-09	-1.799468e+01	-1.951849e+02
1.070000e-06	-2.386351e-06	-2.881069e-09	-1.779653e+01	-1.943938e+02
1.080000e-06	-2.359551e-06	-2.865961e-09	-1.759666e+01	-1.935910e+02
1.090000e-06	-2.332493e-06	-2.853663e-09	-1.739487e+01	-1.927760e+02
1.100000e-06	-2.305182e-06	-2.837109e-09	-1.719120e+01	-1.919482e+02
1.110000e-06	-2.277723e-06	-2.819341e-09	-1.698642e+01	-1.911071e+02
1.120000e-06	-2.250153e-06	-2.808312e-09	-1.678081e+01	-1.902524e+02
1.130000e-06	-2.222455e-06	-2.799184e-09	-1.657425e+01	-1.893834e+02
1.140000e-06	-2.194704e-06	-2.785589e-09	-1.636730e+01	-1.884997e+02
1.150000e-06	-2.166916e-06	-2.770677e-09	-1.616006e+01	-1.876008e+02
1.160000e-06	-2.139098e-06	-2.757434e-09	-1.595260e+01	-1.866862e+02
1.170000e-06	-2.111191e-06	-2.740954e-09	-1.574448e+01	-1.857554e+02
1.180000e-06	-2.083129e-06	-2.722928e-09	-1.553521e+01	-1.848081e+02
1.190000e-06	-2.054955e-06	-2.708321e-09	-1.532510e+01	-1.838437e+02
1.200000e-06	-2.026626e-06	-2.692458e-09	-1.511383e+01	-1.828618e+02
1.210000e-06	-1.998086e-06	-2.674090e-09	-1.490099e+01	-1.818621e+02
1.220000e-06	-1.969484e-06	-2.658886e-09	-1.468769e+01	-1.808442e+02
1.230000e-06	-1.940804e-06	-2.644782e-09	-1.447381e+01	-1.798078e+02
1.240000e-06	-1.911865e-06	-2.627912e-09	-1.425799e+01	-1.787524e+02
1.250000e-06	-1.882707e-06	-2.610582e-09	-1.404054e+01	-1.776778e+02
1.260000e-06	-1.853448e-06	-2.594496e-09	-1.382234e+01	-1.765837e+02
1.270000e-06	-1.824070e-06	-2.575799e-09	-1.360324e+01	-1.754698e+02
1.280000e-06	-1.794552e-06	-2.557035e-09	-1.338311e+01	-1.743358e+02
1.290000e-06	-1.764948e-06	-2.537847e-09	-1.316233e+01	-1.731816e+02
1.300000e-06	-1.735240e-06	-2.519624e-09	-1.294078e+01	-1.720067e+02
1.310000e-06	-1.705407e-06	-2.503730e-09	-1.271830e+01	-1.708112e+02
1.320000e-06	-1.675505e-06	-2.487118e-09	-1.249530e+01	-1.695946e+02
1.330000e-06	-1.645554e-06	-2.468218e-09	-1.227194e+01	-1.683567e+02
1.340000e-06	-1.615506e-06	-2.450716e-09	-1.204785e+01	-1.670974e+02
1.350000e-06	-1.585351e-06	-2.434770e-09	-1.182297e+01	-1.658163e+02
1.360000e-06	-1.555122e-06	-2.414986e-09	-1.159753e+01	-1.645132e+02
1.370000e-06	-1.524828e-06	-2.393266e-09	-1.137161e+01	-1.631878e+02
1.380000e-06	-1.494484e-06	-2.372430e-09	-1.114531e+01	-1.618397e+02
1.390000e-06	-1.464004e-06	-2.349102e-09	-1.091801e+01	-1.604687e+02
1.400000e-06	-1.433354e-06	-2.324482e-09	-1.068943e+01	-1.590742e+02
1.410000e-06	-1.402580e-06	-2.303165e-09	-1.045993e+01	-1.576560e+02
1.420000e-06	-1.371668e-06	-2.283820e-09	-1.022940e+01	-1.562135e+02
1.430000e-06	-1.340608e-06	-2.263878e-09	-9.997765e+00	-1.547462e+02
1.440000e-06	-1.309434e-06	-2.242956e-09	-9.765281e+00	-1.532534e+02
1.450000e-06	-1.278265e-06	-2.222381e-09	-9.532834e+00	-1.517347e+02
1.460000e-06	-1.247045e-06	-2.197260e-09	-9.300000e+00	-1.501892e+02
1.470000e-06	-1.215654e-06	-2.170089e-09	-9.065899e+00	-1.486161e+02
1.480000e-06	-1.184149e-06	-2.143780e-09	-8.830948e+00	-1.470148e+02
1.490000e-06	-1.152615e-06	-2.116460e-09	-8.595781e+00	-1.453842e+02
1.500000e-06	-1.121032e-06	-2.087603e-09	-8.360248e+00	-1.437234e+02
1.510000e-06	-1.089356e-06	-2.061475e-09	-8.124017e+00	-1.420314e+02
1.520000e-06	-1.057655e-06	-2.036941e-09	-7.887600e+00	-1.403071e+02
1.530000e-06	-1.025928e-06	-2.011417e-09	-7.650993e+00	-1.385493e+02
1.540000e-06	-9.941910e-07	-1.984463e-09	-7.414311e+00	-1.367568e+02
1.550000e-06	-9.623945e-07	-1.955676e-09	-7.177184e+00	-1.349284e+02
1.560000e-06	-9.305255e-07	-1.924328e-09	-6.939517e+00	-1.330627e+02
1.570000e-06	-8.986760e-07	-1.893346e-09	-6.701995e+00	-1.311584e+02
1.580000e-06	-8.668495e-07	-1.863795e-09	-6.464645e+00	-1.292140e+02
1.590000e-06	-8.349478e-07	-1.833086e-09	-6.226734e+00	-1.272282e+02
1.600000e-06	-8.029363e-07	-1.801170e-09	-5.988004e+00	-1.251995e+02
1.610000e-06	-7.709245e-07	-1.768731e-09	-5.749271e+00	-1.231265e+02
1.620000e-06	-7.389501e-07	-1.735489e-09	-5.510818e+00	-1.210076e+02
1.630000e-06	-7.068872e-07	-1.702441e-09	-5.271704e+00	-1.188414e+02
1.640000e-06	-6.747495e-07	-1.671752e-09	-5.032034e+00	-1.166265e+02
1.650000e-06	-6.426579e-07	-1.639669e-09	-4.792707e+00	-1.143615e+02
1.660000e-06	-6.105632e-07	-1.604413e-09	-4.553356e+00	-1.120450e+02
1.670000e-06	-5.784643e-07	-1.570439e-09	-4.313974e+00	-1.096756e+02
1.680000e-06	-5.463524e-07	-1.539294e-09	-4.074496e+00	-1.072522e+02
1.690000e-06	-5.141649e-07	-1.505549e-09	-3.834453e+00	-1.047735e+02
1.700000e-06	-4.819238e-07	-1.467560e-09	-3.594011e+00	-1.022385e+02
1.710000e-06	-4.496493e-07	-1.428751e-09	-3.353319e+00	-9.964616e+01
1.720000e-06	-4.172440e-07	-1.391481e-09	-3.111653e+00	-9.699563e+01
1.730000e-06	-3.847095e-07	-1.354002e-09	-2.869022e+00	-9.428615e+01
1.740000e-06	-3.521393e-07	-1.314832e-09	-2.626126e+00	-9.151712e+01
1.750000e-06	-3.195815e-07	-1.273968e-09	-2.383321e+00	-8.868807e+01
1.760000e-06	-2.870354e-07	-1.234033e-09	-2.140605e+00	-8.579868e+01
1.770000e-06	-2.545267e-07	-1.193914e-09	-1.898166e+00	-8.284882e+01
1.780000e-06	-2.219121e-07	-1.151542e-09	-1.654939e+00	-7.983850e+01
1.790000e-06	-1.891099e-07	-1.107698e-09	-1.410312e+00	-7.676794e+01
1.800000e-06	-1.564523e-07	-1.062283e-09	-1.166764e+00	-7.363753e+01
1.810000e-06	-1.239143e-07	-1.016083e-09	-9.241073e-01	-7.044786e+01
1.820000e-06	-9.131279e-08	-9.707127e-10	-6.809772e-01	-6.719970e+01
1.830000e-06	-5.866221e-08	-9.258264e-10	-4.374812e-01	-6.389404e+01
1.840000e-06	-2.601299e-08	-8.794523e-10	-1.939953e-01	-6.053206e+01
1.850000e-06	6.564611e-09	-8.325331e-10	4.895646e-02	-5.711515e+01
1.860000e-06	3.920320e-08	-7.847303e-10	2.923630e-01	-5.364487e+01
1.870000e-06	7.187891e-08	-7.334515e-10	5.360465e-01	-5.012303e+01
1.880000e-06	1.045108e-07	-6.797149e-10	7.794028e-01	-4.655158e+01
1.890000e-06	1.371629e-07	-6.258566e-10	1.022911e+00	-4.293270e+01
1.900000e-06	1.698012e-07	-5.717579e-10	1.266315e+00	-3.926873e+01
1.910000e-06	2.024062e-07	-5.167165e-10	1.509471e+00	-3.556219e+01
1.920000e-06	2.349304e-07	-4.605739e-10	1.752025e+00	-3.181579e+01
1.930000e-06	2.674531e-07	-4.035449e-10	1.994567e+00	-2.803236e+01
1.940000e-06	2.999893e-07	-3.453548e-10	2.237210e+00	-2.421492e+01
1.950000e-06	3.324733e-07	-2.873078e-10	2.479464e+00	-2.036658e+01
1.960000e-06	3.649624e-07	-2.299955e-10	2.721755e+00	-1.649062e+01
1.970000e-06	3.973798e-07	-1.727357e-10	2.963512e+00	-1.259039e+01
1.980000e-06	4.297200e-07	-1.157009e-10	3.204694e+00	-8.669364e+00
1.990000e-06	4.620476e-07	-5.827111e-11	3.445781e+00	-4.731083e+00
2.000000e-06	4.943869e-07	-5.118226e-13	3.686956e+00	-7.791595e-01
2.010000e-06	5.267411e-07	5.884253e-11	3.928241e+00	3.182748e+00
2.020000e-06	5.589965e-07	1.199523e-10	4.168790e+00	7.150943e+00
2.030000e-06	5.911809e-07	1.787677e-10	4.408810e+00	1.112171e+01
2.040000e-06	6.233514e-07	2.350544e-10	4.648726e+00	1.509134e+01
2.050000e-06	6.554573e-07	2.912730e-10	4.888159e+00	1.905614e+01
2.060000e-06	6.875094e-07	3.486524e-10	5.127192e+00	2.301242e+01
2.070000e-06	7.195872e-07	4.067594e-10	5.366416e+00	2.695656e+01
2.080000e-06	7.516575e-07	4.641190e-10	5.605585e+00	3.088501e+01
2.090000e-06	7.836211e-07	5.202212e-10	5.843958e+00	3.479426e+01
2.100000e-06	8.155008e-07	5.755604e-10	6.081705e+00	3.868093e+01
2.110000e-06	8.473972e-07	6.314470e-10	6.319577e+00	4.254172e+01
2.120000e-06	8.793386e-07	6.891818e-10	6.557784e+00	4.637345e+01
2.130000e-06	9.111965e-07	7.468746e-10	6.795369e+00	5.017306e+01
2.140000e-06	9.429506e-07	7.998700e-10	7.032179e+00	5.393764e+01
2.150000e-06	9.746978e-07	8.516363e-10	7.268938e+00	5.766442e+01
2.160000e-06	1.006471e-06	9.061300e-10	7.505892e+00	6.135079e+01
2.170000e-06	1.038271e-06	9.597838e-10	7.743045e+00	6.499430e+01
2.180000e-06	1.070045e-06	1.010177e-09	7.979998e+00	6.859267e+01
2.190000e-06	1.101724e-06	1.059666e-09	8.216250e+00	7.214379e+01
2.200000e-06	1.133350e-06	1.109938e-09	8.452110e+00	7.564575e+01
2.210000e-06	1.164965e-06	1.160029e-09	8.687880e+00	7.909679e+01
2.220000e-06	1.196574e-06	1.210553e-09	8.923606e+00	8.249536e+01
2.230000e-06	1.228156e-06	1.259024e-09	9.159133e+00	8.584007e+01
2.240000e-06	1.259628e-06	1.306481e-09	9.393844e+00	8.912973e+01
2.250000e-06	1.290955e-06	1.354359e-09	9.627468e+00	9.236332e+01
2.260000e-06	1.322179e-06	1.399683e-09	9.860326e+00	9.554001e+01
2.270000e-06	1.353299e-06	1.442968e-09	1.009241e+01	9.865912e+01
2.280000e-06	1.384276e-06	1.485763e-09	1.032342e+01	1.017202e+02
2.290000e-06	1.415092e-06	1.529131e-09	1.055323e+01	1.047228e+02
2.300000e-06	1.445702e-06	1.573115e-09	1.078152e+01	1.076669e+02
2.310000e-06	1.476144e-06	1.616762e-09	1.100854e+01	1.105523e+02
2.320000e-06	1.506512e-06	1.658741e-09	1.123501e+01	1.133793e+02
2.330000e-06	1.536759e-06	1.698494e-09	1.146058e+01	1.161480e+02
2.340000e-06	1.566880e-06	1.738500e-09	1.168521e+01	1.188588e+02
2.350000e-06	1.596917e-06	1.779175e-09	1.190922e+01	1.215122e+02
2.360000e-06	1.626934e-06	1.819075e-09	1.213308e+01	1.241088e+02
2.370000e-06	1.656933e-06	1.857390e-09	1.235679e+01	1.266492e+02
2.380000e-06	1.686846e-06	1.895306e-09	1.257988e+01	1.291343e+02
2.390000e-06	1.716640e-06	1.932717e-09	1.280207e+01	1.315648e+02
2.400000e-06	1.746271e-06	1.968040e-09	1.302304e+01	1.339417e+02
2.410000e-06	1.775763e-06	2.002556e-09	1.324298e+01	1.362660e+02
2.420000e-06	1.805224e-06	2.036213e-09	1.346269e+01	1.385386e+02
2.430000e-06	1.834637e-06	2.068475e-09	1.368205e+01	1.407606e+02
2.440000e-06	1.863871e-06	2.100306e-09	1.390007e+01	1.429330e+02
2.450000e-06	1.892947e-06	2.134868e-09	1.411690e+01	1.450571e+02
2.460000e-06	1.921945e-06	2.170418e-09	1.433316e+01	1.471338e+02
2.470000e-06	1.950806e-06	2.201436e-09	1.454839e+01	1.491643e+02
2.480000e-06	1.979407e-06	2.229144e-09	1.476169e+01	1.511497e+02
2.490000e-06	2.007836e-06	2.258707e-09	1.497370e+01	1.530911e+02
2.500000e-06	2.036129e-06	2.289074e-09	1.518470e+01	1.549896e+02
2.510000e-06	2.064287e-06	2.317640e-09	1.539469e+01	1.568463e+02
2.520000e-06	2.092319e-06	2.345298e-09	1.560374e+01	1.586622e+02
2.530000e-06	2.120223e-06	2.372603e-09	1.581184e+01	1.604385e+02
2.540000e-06	2.148060e-06	2.399702e-09	1.601944e+01	1.621760e+02
2.550000e-06	2.175875e-06	2.424904e-09	1.622688e+01	1.638757e+02
2.560000e-06	2.203677e-06	2.447540e-09	1.643421e+01	1.655387e+02
2.570000e-06	2.231400e-06	2.469132e-09	1.664096e+01	1.671658e+02
2.580000e-06	2.259057e-06	2.492952e-09	1.684721e+01	1.687579e+02
2.590000e-06	2.286669e-06	2.518720e-09	1.705314e+01	1.703158e+02
2.600000e-06	2.314189e-06	2.544276e-09	1.725837e+01	1.718404e+02
2.610000e-06	2.341463e-06	2.569591e-09	1.746177e+01	1.733324e+02
2.620000e-06	2.368399e-06	2.592619e-09	1.766265e+01	1.747927e+02
2.630000e-06	2.395023e-06	2.614236e-09	1.786120e+01	1.762218e+02
2.640000e-06	2.421428e-06	2.636389e-09	1.805812e+01	1.776206e+02
2.650000e-06	2.447501e-06	2.657733e-09	1.825256e+01	1.789897e+02
2.660000e-06	2.473198e-06	2.678537e-09	1.844420e+01	1.803297e+02
2.670000e-06	2.498641e-06	2.699696e-09	1.863394e+01	1.816413e+02
2.680000e-06	2.523804e-06	2.722439e-09	1.882160e+01	1.829250e+02
2.690000e-06	2.548600e-06	2.745000e-09	1.900652e+01	1.841816e+02
2.700000e-06	2.573118e-06	2.764410e-09	1.918937e+01	1.854115e+02
2.710000e-06	2.597508e-06	2.783003e-09	1.937126e+01	1.866154e+02
2.720000e-06	2.621707e-06	2.802104e-09	1.955173e+01	1.877938e+02
2.730000e-06	2.645735e-06	2.821142e-09	1.973092e+01	1.889472e+02
2.740000e-06	2.669630e-06	2.838593e-09	1.990912e+01	1.900763e+02
2.750000e-06	2.693408e-06	2.855514e-09	2.008644e+01	1.911815e+02
2.760000e-06	2.717074e-06	2.871759e-09	2.026294e+01	1.922634e+02
2.770000e-06	2.740620e-06	2.888216e-09	2.043854e+01	1.933225e+02
2.780000e-06	2.764078e-06	2.907060e-09	2.061348e+01	1.943594e+02
2.790000e-06	2.787364e-06	2.926163e-09	2.078713e+01	1.953745e+02
2.800000e-06	2.810398e-06	2.943513e-09	2.095892e+01	1.963686e+02
2.810000e-06	2.833176e-06	2.959312e-09	2.112879e+01	1.973420e+02
2.820000e-06	2.855718e-06	2.976401e-09	2.129689e+01	1.982952e+02
2.830000e-06	2.878080e-06	2.993826e-09	2.146366e+01	1.992290e+02
2.840000e-06	2.900247e-06	3.009562e-09	2.162897e+01	2.001436e+02
2.850000e-06	2.922225e-06	3.024222e-09	2.179288e+01	2.010398e+02
2.860000e-06	2.944041e-06	3.037672e-09	2.195558e+01	2.019179e+02
2.870000e-06	2.965678e-06	3.052536e-09	2.211693e+01	2.027785e+02
2.880000e-06	2.987138e-06	3.068934e-09	2.227698e+01	2.036221e+02
2.890000e-06	3.008407e-06	3.082905e-09	2.243559e+01	2.044492e+02
2.900000e-06	3.029366e-06	3.094095e-09	2.259190e+01	2.052602e+02
