# Temperatura_=_20.0
# Concentracion g/m^3_=_12600.0
# C_Vs_to_Am_M_A/Vsm_=_65563218390.804596
# pendiente_HvsI_1/m_=_3716.3
# ordenada_HvsI_A/m_=_1297.0
# frecuencia_Hz_=_213020.835548359

Tiempo_(s)	Campo_(V.s)	Magnetizacion_(V.s)	Campo_(kA/m)	Magnetizacion_(A/m)
0.000000e+00	-2.520709e-06	-1.683600e-09	-1.983393e+01	-1.106089e+02
1.000000e-08	-2.520949e-06	-1.683116e-09	-1.983582e+01	-1.105836e+02
2.000000e-08	-2.520865e-06	-1.683611e-09	-1.983516e+01	-1.105345e+02
3.000000e-08	-2.520280e-06	-1.683854e-09	-1.983056e+01	-1.104623e+02
4.000000e-08	-2.519121e-06	-1.679893e-09	-1.982143e+01	-1.103679e+02
5.000000e-08	-2.517332e-06	-1.673561e-09	-1.980736e+01	-1.102526e+02
6.000000e-08	-2.514850e-06	-1.664986e-09	-1.978783e+01	-1.101177e+02
7.000000e-08	-2.511736e-06	-1.675667e-09	-1.976333e+01	-1.099644e+02
8.000000e-08	-2.508150e-06	-1.693346e-09	-1.973511e+01	-1.097942e+02
9.000000e-08	-2.504311e-06	-1.646200e-09	-1.970491e+01	-1.096086e+02
1.000000e-07	-2.500270e-06	-1.651607e-09	-1.967311e+01	-1.094088e+02
1.100000e-07	-2.495782e-06	-1.670407e-09	-1.963780e+01	-1.091959e+02
1.200000e-07	-2.490806e-06	-1.681911e-09	-1.959864e+01	-1.089709e+02
1.300000e-07	-2.485498e-06	-1.631343e-09	-1.955688e+01	-1.087344e+02
1.400000e-07	-2.479804e-06	-1.660380e-09	-1.951207e+01	-1.084868e+02
1.500000e-07	-2.473488e-06	-1.651960e-09	-1.946238e+01	-1.082280e+02
1.600000e-07	-2.466594e-06	-1.621236e-09	-1.940813e+01	-1.079578e+02
1.700000e-07	-2.459437e-06	-1.655627e-09	-1.935182e+01	-1.076757e+02
1.800000e-07	-2.452014e-06	-1.634835e-09	-1.929341e+01	-1.073807e+02
1.900000e-07	-2.444205e-06	-1.606260e-09	-1.923197e+01	-1.070718e+02
2.000000e-07	-2.436073e-06	-1.586699e-09	-1.916798e+01	-1.067479e+02
2.100000e-07	-2.427607e-06	-1.668223e-09	-1.910136e+01	-1.064075e+02
2.200000e-07	-2.418576e-06	-1.630219e-09	-1.903030e+01	-1.060496e+02
2.300000e-07	-2.408676e-06	-1.543878e-09	-1.895241e+01	-1.056727e+02
2.400000e-07	-2.397975e-06	-1.559474e-09	-1.886821e+01	-1.052759e+02
2.500000e-07	-2.386824e-06	-1.659143e-09	-1.878047e+01	-1.048584e+02
2.600000e-07	-2.375286e-06	-1.629117e-09	-1.868968e+01	-1.044196e+02
2.700000e-07	-2.363316e-06	-1.524616e-09	-1.859550e+01	-1.039591e+02
2.800000e-07	-2.350947e-06	-1.529121e-09	-1.849818e+01	-1.034771e+02
2.900000e-07	-2.338121e-06	-1.588512e-09	-1.839726e+01	-1.029739e+02
3.000000e-07	-2.324851e-06	-1.599488e-09	-1.829284e+01	-1.024502e+02
3.100000e-07	-2.311178e-06	-1.567932e-09	-1.818526e+01	-1.019070e+02
3.200000e-07	-2.297034e-06	-1.500853e-09	-1.807397e+01	-1.013455e+02
3.300000e-07	-2.282289e-06	-1.463707e-09	-1.795795e+01	-1.007668e+02
3.400000e-07	-2.266908e-06	-1.553302e-09	-1.783693e+01	-1.001725e+02
3.500000e-07	-2.250894e-06	-1.610132e-09	-1.771092e+01	-9.956399e+01
3.600000e-07	-2.234355e-06	-1.483509e-09	-1.758078e+01	-9.894248e+01
3.700000e-07	-2.217483e-06	-1.367321e-09	-1.744803e+01	-9.830921e+01
3.800000e-07	-2.200332e-06	-1.482808e-09	-1.731308e+01	-9.766514e+01
3.900000e-07	-2.182951e-06	-1.590624e-09	-1.717632e+01	-9.701100e+01
4.000000e-07	-2.165247e-06	-1.480090e-09	-1.703702e+01	-9.634723e+01
4.100000e-07	-2.147047e-06	-1.344504e-09	-1.689381e+01	-9.567396e+01
4.200000e-07	-2.128386e-06	-1.383632e-09	-1.674698e+01	-9.499103e+01
4.300000e-07	-2.109373e-06	-1.497861e-09	-1.659738e+01	-9.429801e+01
4.400000e-07	-2.090053e-06	-1.493612e-09	-1.644536e+01	-9.359421e+01
4.500000e-07	-2.070494e-06	-1.374542e-09	-1.629146e+01	-9.287878e+01
4.600000e-07	-2.050731e-06	-1.314239e-09	-1.613596e+01	-9.215072e+01
4.700000e-07	-2.030790e-06	-1.382962e-09	-1.597905e+01	-9.140894e+01
4.800000e-07	-2.010568e-06	-1.447669e-09	-1.581994e+01	-9.065239e+01
4.900000e-07	-1.989906e-06	-1.388150e-09	-1.565737e+01	-8.988005e+01
5.000000e-07	-1.968880e-06	-1.290265e-09	-1.549192e+01	-8.909104e+01
5.100000e-07	-1.947515e-06	-1.278811e-09	-1.532382e+01	-8.828463e+01
5.200000e-07	-1.925811e-06	-1.338307e-09	-1.515304e+01	-8.746032e+01
5.300000e-07	-1.903857e-06	-1.366398e-09	-1.498030e+01	-8.661783e+01
5.400000e-07	-1.881564e-06	-1.302503e-09	-1.480489e+01	-8.575711e+01
5.500000e-07	-1.858874e-06	-1.228934e-09	-1.462636e+01	-8.487836e+01
5.600000e-07	-1.835834e-06	-1.242231e-09	-1.444507e+01	-8.398200e+01
5.700000e-07	-1.812543e-06	-1.291561e-09	-1.426180e+01	-8.306861e+01
5.800000e-07	-1.789055e-06	-1.280960e-09	-1.407699e+01	-8.213894e+01
5.900000e-07	-1.765315e-06	-1.213617e-09	-1.389019e+01	-8.119385e+01
6.000000e-07	-1.741352e-06	-1.172480e-09	-1.370164e+01	-8.023423e+01
6.100000e-07	-1.717172e-06	-1.186193e-09	-1.351138e+01	-7.926100e+01
6.200000e-07	-1.692686e-06	-1.210895e-09	-1.331872e+01	-7.827502e+01
6.300000e-07	-1.667782e-06	-1.196180e-09	-1.312276e+01	-7.727709e+01
6.400000e-07	-1.642360e-06	-1.140679e-09	-1.292274e+01	-7.626792e+01
6.500000e-07	-1.616395e-06	-1.103951e-09	-1.271844e+01	-7.524805e+01
6.600000e-07	-1.589881e-06	-1.119819e-09	-1.250981e+01	-7.421791e+01
6.700000e-07	-1.562911e-06	-1.141883e-09	-1.229760e+01	-7.317778e+01
6.800000e-07	-1.535672e-06	-1.110993e-09	-1.208327e+01	-7.212782e+01
6.900000e-07	-1.508214e-06	-1.046671e-09	-1.186722e+01	-7.106804e+01
7.000000e-07	-1.480597e-06	-1.025808e-09	-1.164992e+01	-6.999836e+01
7.100000e-07	-1.452867e-06	-1.052094e-09	-1.143173e+01	-6.891865e+01
7.200000e-07	-1.424994e-06	-1.053316e-09	-1.121241e+01	-6.782869e+01
7.300000e-07	-1.396956e-06	-1.005847e-09	-1.099180e+01	-6.672828e+01
7.400000e-07	-1.368682e-06	-9.621214e-10	-1.076933e+01	-6.561719e+01
7.500000e-07	-1.340073e-06	-9.628451e-10	-1.054422e+01	-6.449521e+01
7.600000e-07	-1.311144e-06	-9.753686e-10	-1.031659e+01	-6.336219e+01
7.700000e-07	-1.282026e-06	-9.556660e-10	-1.008748e+01	-6.221801e+01
7.800000e-07	-1.252737e-06	-9.129861e-10	-9.857030e+00	-6.106260e+01
7.900000e-07	-1.223201e-06	-8.884309e-10	-9.624631e+00	-5.989593e+01
8.000000e-07	-1.193491e-06	-8.902378e-10	-9.390858e+00	-5.871803e+01
8.100000e-07	-1.163683e-06	-8.841579e-10	-9.156318e+00	-5.752895e+01
8.200000e-07	-1.133756e-06	-8.570910e-10	-8.920843e+00	-5.632875e+01
8.300000e-07	-1.103611e-06	-8.280521e-10	-8.683643e+00	-5.511753e+01
8.400000e-07	-1.073162e-06	-8.093556e-10	-8.444062e+00	-5.389535e+01
8.500000e-07	-1.042548e-06	-7.978416e-10	-8.203178e+00	-5.266229e+01
8.600000e-07	-1.011818e-06	-7.834011e-10	-7.961382e+00	-5.141838e+01
8.700000e-07	-9.808577e-07	-7.631271e-10	-7.717775e+00	-5.016366e+01
8.800000e-07	-9.497152e-07	-7.365833e-10	-7.472733e+00	-4.889814e+01
8.900000e-07	-9.184493e-07	-7.092487e-10	-7.226721e+00	-4.762180e+01
9.000000e-07	-8.870354e-07	-6.935202e-10	-6.979544e+00	-4.633463e+01
9.100000e-07	-8.555274e-07	-6.839443e-10	-6.731627e+00	-4.503664e+01
9.200000e-07	-8.239394e-07	-6.645507e-10	-6.483079e+00	-4.372785e+01
9.300000e-07	-7.922478e-07	-6.309432e-10	-6.233717e+00	-4.240831e+01
9.400000e-07	-7.604538e-07	-6.031115e-10	-5.983550e+00	-4.107811e+01
9.500000e-07	-7.285793e-07	-5.955615e-10	-5.732749e+00	-3.973741e+01
9.600000e-07	-6.966856e-07	-5.859639e-10	-5.481796e+00	-3.838644e+01
9.700000e-07	-6.647053e-07	-5.570303e-10	-5.230163e+00	-3.702546e+01
9.800000e-07	-6.326370e-07	-5.214369e-10	-4.977837e+00	-3.565484e+01
9.900000e-07	-6.004796e-07	-5.029814e-10	-4.724810e+00	-3.427498e+01
1.000000e-06	-5.682089e-07	-4.956848e-10	-4.470891e+00	-3.288632e+01
1.010000e-06	-5.358310e-07	-4.758649e-10	-4.216129e+00	-3.148936e+01
1.020000e-06	-5.032729e-07	-4.437020e-10	-3.959949e+00	-3.008461e+01
1.030000e-06	-4.705437e-07	-4.175494e-10	-3.702423e+00	-2.867255e+01
1.040000e-06	-4.377147e-07	-4.050152e-10	-3.444112e+00	-2.725369e+01
1.050000e-06	-4.048156e-07	-3.905794e-10	-3.185249e+00	-2.582845e+01
1.060000e-06	-3.718251e-07	-3.631609e-10	-2.925666e+00	-2.439726e+01
1.070000e-06	-3.386855e-07	-3.341609e-10	-2.664911e+00	-2.296043e+01
1.080000e-06	-3.054092e-07	-3.138821e-10	-2.403080e+00	-2.151824e+01
1.090000e-06	-2.720059e-07	-2.967709e-10	-2.140250e+00	-2.007088e+01
1.100000e-06	-2.384970e-07	-2.751380e-10	-1.876588e+00	-1.861849e+01
1.110000e-06	-2.050394e-07	-2.503984e-10	-1.613331e+00	-1.716114e+01
1.120000e-06	-1.715528e-07	-2.268391e-10	-1.349845e+00	-1.569885e+01
1.130000e-06	-1.378883e-07	-2.035933e-10	-1.084959e+00	-1.423160e+01
1.140000e-06	-1.041536e-07	-1.814647e-10	-8.195218e-01	-1.275938e+01
1.150000e-06	-7.044478e-08	-1.614078e-10	-5.542872e-01	-1.128216e+01
1.160000e-06	-3.672232e-08	-1.404604e-10	-2.889457e-01	-9.799938e+00
1.170000e-06	-2.998344e-09	-1.153117e-10	-2.359215e-02	-8.312756e+00
1.180000e-06	3.078057e-08	-9.018821e-11	2.421936e-01	-6.820706e+00
1.190000e-06	6.451984e-08	-7.107353e-11	5.076675e-01	-5.323948e+00
1.200000e-06	9.808388e-08	-5.505268e-11	7.717626e-01	-3.822718e+00
1.210000e-06	1.316623e-07	-3.229372e-11	1.035971e+00	-2.317329e+00
1.220000e-06	1.652329e-07	-2.990567e-12	1.300118e+00	-8.081774e-01
1.230000e-06	1.987922e-07	2.085889e-11	1.564176e+00	7.042694e-01
1.240000e-06	2.322859e-07	3.761902e-11	1.827717e+00	2.219474e+00
1.250000e-06	2.655911e-07	5.854534e-11	2.089775e+00	3.736842e+00
1.260000e-06	2.988686e-07	8.715409e-11	2.351616e+00	5.255735e+00
1.270000e-06	3.321420e-07	1.125035e-10	2.613424e+00	6.775482e+00
1.280000e-06	3.652753e-07	1.312286e-10	2.874130e+00	8.295397e+00
1.290000e-06	3.982885e-07	1.491657e-10	3.133891e+00	9.814792e+00
1.300000e-06	4.311307e-07	1.721036e-10	3.392306e+00	1.133299e+01
1.310000e-06	4.638094e-07	1.983842e-10	3.649435e+00	1.284934e+01
1.320000e-06	4.964548e-07	2.225309e-10	3.906302e+00	1.436322e+01
1.330000e-06	5.289665e-07	2.429497e-10	4.162117e+00	1.587406e+01
1.340000e-06	5.612970e-07	2.634592e-10	4.416506e+00	1.738134e+01
1.350000e-06	5.935068e-07	2.859788e-10	4.669945e+00	1.888458e+01
1.360000e-06	6.256250e-07	3.084435e-10	4.922664e+00	2.038339e+01
1.370000e-06	6.576720e-07	3.301140e-10	5.174822e+00	2.187742e+01
1.380000e-06	6.896387e-07	3.520053e-10	5.426349e+00	2.336641e+01
1.390000e-06	7.215158e-07	3.739866e-10	5.677171e+00	2.485015e+01
1.400000e-06	7.533323e-07	3.952178e-10	5.927515e+00	2.632850e+01
1.410000e-06	7.851160e-07	4.185580e-10	6.177602e+00	2.780141e+01
1.420000e-06	8.168738e-07	4.431285e-10	6.427485e+00	2.926889e+01
1.430000e-06	8.485684e-07	4.656318e-10	6.676870e+00	3.073100e+01
1.440000e-06	8.801833e-07	4.852235e-10	6.925628e+00	3.218790e+01
1.450000e-06	9.117204e-07	5.069507e-10	7.173775e+00	3.363977e+01
1.460000e-06	9.431228e-07	5.306339e-10	7.420861e+00	3.508687e+01
1.470000e-06	9.742756e-07	5.535523e-10	7.665984e+00	3.652948e+01
1.480000e-06	1.005221e-06	5.728435e-10	7.909473e+00	3.796791e+01
1.490000e-06	1.035921e-06	5.901746e-10	8.151032e+00	3.940247e+01
1.500000e-06	1.066318e-06	6.121544e-10	8.390211e+00	4.083347e+01
1.510000e-06	1.096522e-06	6.370787e-10	8.627868e+00	4.226116e+01
1.520000e-06	1.126559e-06	6.583001e-10	8.864209e+00	4.368575e+01
1.530000e-06	1.156461e-06	6.770843e-10	9.099489e+00	4.510736e+01
1.540000e-06	1.186243e-06	6.996106e-10	9.333825e+00	4.652602e+01
1.550000e-06	1.215874e-06	7.247547e-10	9.566978e+00	4.794161e+01
1.560000e-06	1.245349e-06	7.467601e-10	9.798894e+00	4.935387e+01
1.570000e-06	1.274671e-06	7.651677e-10	1.002961e+01	5.076240e+01
1.580000e-06	1.303763e-06	7.846585e-10	1.025852e+01	5.216664e+01
1.590000e-06	1.332515e-06	8.060415e-10	1.048475e+01	5.356584e+01
1.600000e-06	1.360989e-06	8.273448e-10	1.070880e+01	5.495913e+01
1.610000e-06	1.389264e-06	8.475725e-10	1.093127e+01	5.634548e+01
1.620000e-06	1.417343e-06	8.679888e-10	1.115221e+01	5.772376e+01
1.630000e-06	1.445279e-06	8.891896e-10	1.137202e+01	5.909275e+01
1.640000e-06	1.473093e-06	9.097065e-10	1.159088e+01	6.045118e+01
1.650000e-06	1.500794e-06	9.296399e-10	1.180884e+01	6.179776e+01
1.660000e-06	1.528363e-06	9.491778e-10	1.202576e+01	6.313123e+01
1.670000e-06	1.555713e-06	9.679189e-10	1.224096e+01	6.445039e+01
1.680000e-06	1.582773e-06	9.857381e-10	1.245388e+01	6.575416e+01
1.690000e-06	1.609405e-06	1.003913e-09	1.266344e+01	6.704159e+01
1.700000e-06	1.635521e-06	1.022637e-09	1.286892e+01	6.831186e+01
1.710000e-06	1.661090e-06	1.040566e-09	1.307011e+01	6.956437e+01
1.720000e-06	1.686125e-06	1.058604e-09	1.326710e+01	7.079870e+01
1.730000e-06	1.710682e-06	1.077281e-09	1.346032e+01	7.201461e+01
1.740000e-06	1.734846e-06	1.095499e-09	1.365045e+01	7.321205e+01
1.750000e-06	1.758792e-06	1.113139e-09	1.383887e+01	7.439114e+01
1.760000e-06	1.782567e-06	1.130110e-09	1.402594e+01	7.555213e+01
1.770000e-06	1.806124e-06	1.146883e-09	1.421129e+01	7.669538e+01
1.780000e-06	1.829439e-06	1.163855e-09	1.439474e+01	7.782133e+01
1.790000e-06	1.852413e-06	1.181617e-09	1.457551e+01	7.893044e+01
1.800000e-06	1.875015e-06	1.199943e-09	1.475336e+01	8.002318e+01
1.810000e-06	1.897304e-06	1.216772e-09	1.492874e+01	8.109997e+01
1.820000e-06	1.919254e-06	1.232865e-09	1.510145e+01	8.216115e+01
1.830000e-06	1.940925e-06	1.250126e-09	1.527196e+01	8.320697e+01
1.840000e-06	1.962329e-06	1.266490e-09	1.544038e+01	8.423756e+01
1.850000e-06	1.983384e-06	1.280316e-09	1.560605e+01	8.525292e+01
1.860000e-06	2.004031e-06	1.294232e-09	1.576850e+01	8.625289e+01
1.870000e-06	2.024313e-06	1.309234e-09	1.592809e+01	8.723722e+01
1.880000e-06	2.044321e-06	1.324305e-09	1.608552e+01	8.820550e+01
1.890000e-06	2.064109e-06	1.338955e-09	1.624122e+01	8.915726e+01
1.900000e-06	2.083743e-06	1.352907e-09	1.639571e+01	9.009190e+01
1.910000e-06	2.103134e-06	1.366314e-09	1.654828e+01	9.100881e+01
1.920000e-06	2.122176e-06	1.380384e-09	1.669812e+01	9.190734e+01
1.930000e-06	2.140783e-06	1.395461e-09	1.684453e+01	9.278684e+01
1.940000e-06	2.158897e-06	1.409173e-09	1.698705e+01	9.364666e+01
1.950000e-06	2.176599e-06	1.420770e-09	1.712633e+01	9.448624e+01
1.960000e-06	2.193927e-06	1.432027e-09	1.726268e+01	9.530506e+01
1.970000e-06	2.210977e-06	1.444505e-09	1.739684e+01	9.610266e+01
1.980000e-06	2.227746e-06	1.457487e-09	1.752878e+01	9.687869e+01
1.990000e-06	2.244088e-06	1.468532e-09	1.765736e+01	9.763287e+01
2.000000e-06	2.259933e-06	1.478128e-09	1.778205e+01	9.836501e+01
2.010000e-06	2.275236e-06	1.489911e-09	1.790245e+01	9.907499e+01
2.020000e-06	2.289971e-06	1.502657e-09	1.801839e+01	9.976277e+01
2.030000e-06	2.304272e-06	1.513421e-09	1.813092e+01	1.004284e+02
2.040000e-06	2.318193e-06	1.523411e-09	1.824046e+01	1.010719e+02
2.050000e-06	2.331652e-06	1.535728e-09	1.834636e+01	1.016934e+02
2.060000e-06	2.344682e-06	1.548908e-09	1.844888e+01	1.022930e+02
2.070000e-06	2.357291e-06	1.558947e-09	1.854810e+01	1.028710e+02
2.080000e-06	2.369510e-06	1.566058e-09	1.864424e+01	1.034276e+02
2.090000e-06	2.381395e-06	1.573366e-09	1.873775e+01	1.039630e+02
2.100000e-06	2.392905e-06	1.581948e-09	1.882832e+01	1.044773e+02
2.110000e-06	2.403925e-06	1.590100e-09	1.891503e+01	1.049710e+02
2.120000e-06	2.414284e-06	1.596992e-09	1.899654e+01	1.054442e+02
2.130000e-06	2.423931e-06	1.602831e-09	1.907245e+01	1.058973e+02
2.140000e-06	2.432907e-06	1.609486e-09	1.914307e+01	1.063306e+02
2.150000e-06	2.441299e-06	1.618386e-09	1.920910e+01	1.067442e+02
2.160000e-06	2.449318e-06	1.627654e-09	1.927220e+01	1.071386e+02
2.170000e-06	2.457078e-06	1.633961e-09	1.933326e+01	1.075139e+02
2.180000e-06	2.464550e-06	1.638559e-09	1.939205e+01	1.078703e+02
2.190000e-06	2.471552e-06	1.644360e-09	1.944714e+01	1.082080e+02
2.200000e-06	2.478082e-06	1.650684e-09	1.949852e+01	1.085270e+02
2.210000e-06	2.484266e-06	1.656461e-09	1.954718e+01	1.088273e+02
2.220000e-06	2.490096e-06	1.661186e-09	1.959305e+01	1.091088e+02
2.230000e-06	2.495458e-06	1.665228e-09	1.963525e+01	1.093712e+02
2.240000e-06	2.500296e-06	1.670191e-09	1.967331e+01	1.096141e+02
2.250000e-06	2.504712e-06	1.675747e-09	1.970806e+01	1.098372e+02
2.260000e-06	2.508785e-06	1.680045e-09	1.974011e+01	1.100398e+02
2.270000e-06	2.512605e-06	1.683782e-09	1.977017e+01	1.102214e+02
2.280000e-06	2.516183e-06	1.686121e-09	1.979832e+01	1.103812e+02
2.290000e-06	2.519395e-06	1.687033e-09	1.982359e+01	1.105186e+02
2.300000e-06	2.522112e-06	1.688978e-09	1.984497e+01	1.106329e+02
2.310000e-06	2.524217e-06	1.691288e-09	1.986153e+01	1.107235e+02
2.320000e-06	2.525546e-06	1.691899e-09	1.987199e+01	1.107900e+02
2.330000e-06	2.526170e-06	1.691367e-09	1.987690e+01	1.108320e+02
2.340000e-06	2.526373e-06	1.691805e-09	1.987850e+01	1.108494e+02
2.350000e-06	2.526286e-06	1.693513e-09	1.987782e+01	1.108422e+02
2.360000e-06	2.525880e-06	1.695506e-09	1.987461e+01	1.108109e+02
2.370000e-06	2.525054e-06	1.696793e-09	1.986812e+01	1.107559e+02
2.380000e-06	2.523846e-06	1.694717e-09	1.985861e+01	1.106781e+02
2.390000e-06	2.522277e-06	1.692234e-09	1.984627e+01	1.105784e+02
2.400000e-06	2.520333e-06	1.696139e-09	1.983097e+01	1.104580e+02
2.410000e-06	2.518005e-06	1.687053e-09	1.981265e+01	1.103183e+02
2.420000e-06	2.515126e-06	1.657341e-09	1.979000e+01	1.101606e+02
2.430000e-06	2.511677e-06	1.699958e-09	1.976286e+01	1.099865e+02
2.440000e-06	2.507853e-06	1.681080e-09	1.973277e+01	1.097972e+02
2.450000e-06	2.503838e-06	1.665909e-09	1.970118e+01	1.095940e+02
2.460000e-06	2.499545e-06	1.668041e-09	1.966741e+01	1.093780e+02
2.470000e-06	2.494728e-06	1.682152e-09	1.962950e+01	1.091500e+02
2.480000e-06	2.489418e-06	1.664847e-09	1.958772e+01	1.089107e+02
2.490000e-06	2.483774e-06	1.659807e-09	1.954332e+01	1.086603e+02
2.500000e-06	2.477493e-06	1.672500e-09	1.949389e+01	1.083987e+02
2.510000e-06	2.470348e-06	1.642937e-09	1.943767e+01	1.081256e+02
2.520000e-06	2.462710e-06	1.642793e-09	1.937757e+01	1.078403e+02
2.530000e-06	2.454768e-06	1.667653e-09	1.931508e+01	1.075419e+02
2.540000e-06	2.446401e-06	1.668855e-09	1.924925e+01	1.072294e+02
2.550000e-06	2.437585e-06	1.583524e-09	1.917988e+01	1.069014e+02
2.560000e-06	2.428466e-06	1.608126e-09	1.910813e+01	1.065568e+02
2.570000e-06	2.419081e-06	1.686384e-09	1.903428e+01	1.061942e+02
2.580000e-06	2.409188e-06	1.661004e-09	1.895644e+01	1.058124e+02
2.590000e-06	2.398818e-06	1.548016e-09	1.887484e+01	1.054105e+02
2.600000e-06	2.388201e-06	1.571067e-09	1.879131e+01	1.049877e+02
2.610000e-06	2.377180e-06	1.661729e-09	1.870458e+01	1.045435e+02
2.620000e-06	2.365628e-06	1.632208e-09	1.861369e+01	1.040776e+02
2.630000e-06	2.353671e-06	1.553053e-09	1.851961e+01	1.035902e+02
2.640000e-06	2.341332e-06	1.550258e-09	1.842252e+01	1.030818e+02
2.650000e-06	2.328516e-06	1.571812e-09	1.832168e+01	1.025532e+02
2.660000e-06	2.315116e-06	1.583637e-09	1.821624e+01	1.020052e+02
2.670000e-06	2.300956e-06	1.595141e-09	1.810483e+01	1.014393e+02
2.680000e-06	2.286020e-06	1.527081e-09	1.798731e+01	1.008566e+02
2.690000e-06	2.270582e-06	1.457073e-09	1.786584e+01	1.002586e+02
2.700000e-06	2.254784e-06	1.543156e-09	1.774152e+01	9.964662e+01
2.710000e-06	2.238644e-06	1.617732e-09	1.761453e+01	9.902206e+01
2.720000e-06	2.222258e-06	1.490681e-09	1.748560e+01	9.838599e+01
2.730000e-06	2.205606e-06	1.399472e-09	1.735458e+01	9.773933e+01
2.740000e-06	2.188531e-06	1.509273e-09	1.722022e+01	9.708274e+01
2.750000e-06	2.171015e-06	1.564049e-09	1.708240e+01	9.641658e+01
2.760000e-06	2.153156e-06	1.460735e-09	1.694188e+01	9.574090e+01
2.770000e-06	2.134930e-06	1.404648e-09	1.679847e+01	9.505548e+01
2.780000e-06	2.116375e-06	1.441704e-09	1.665247e+01	9.435982e+01
2.790000e-06	2.097460e-06	1.472711e-09	1.650364e+01	9.365320e+01
2.800000e-06	2.078147e-06	1.450183e-09	1.635168e+01	9.293469e+01
2.810000e-06	2.058512e-06	1.400543e-09	1.619718e+01	9.220328e+01
2.820000e-06	2.038622e-06	1.385147e-09	1.604068e+01	9.145790e+01
2.830000e-06	2.018527e-06	1.406547e-09	1.588257e+01	9.069747e+01
2.840000e-06	1.998212e-06	1.399545e-09	1.572272e+01	8.992103e+01
2.850000e-06	1.977701e-06	1.371733e-09	1.556133e+01	8.912771e+01
2.860000e-06	1.956895e-06	1.359020e-09	1.539762e+01	8.831685e+01
2.870000e-06	1.935528e-06	1.339321e-09	1.522950e+01	8.748800e+01
2.880000e-06	1.913516e-06	1.324449e-09	1.505630e+01	8.664093e+01
2.890000e-06	1.890925e-06	1.334149e-09	1.487855e+01	8.577566e+01
2.900000e-06	1.867752e-06	1.319681e-09	1.469620e+01	8.489245e+01
2.910000e-06	1.844125e-06	1.282663e-09	1.451030e+01	8.399175e+01
2.920000e-06	1.820226e-06	1.265139e-09	1.432225e+01	8.307420e+01
2.930000e-06	1.796155e-06	1.262617e-09	1.413285e+01	8.214058e+01
2.940000e-06	1.771961e-06	1.261784e-09	1.394249e+01	8.119175e+01
2.950000e-06	1.747564e-06	1.244682e-09	1.375052e+01	8.022863e+01
