# Temperatura_=_20.0
# Concentracion g/m^3_=_12600.0
# C_Vs_to_Am_M_A/Vsm_=_65563218390.804596
# pendiente_HvsI_1/m_=_3716.3
# ordenada_HvsI_A/m_=_1297.0
# frecuencia_Hz_=_213019.71136686503

Tiempo_(s)	Campo_(V.s)	Magnetizacion_(V.s)	Campo_(kA/m)	Magnetizacion_(A/m)
0.000000e+00	-2.521594e-06	-1.477154e-09	-1.983178e+01	-9.709368e+01
1.000000e-08	-2.521583e-06	-1.477961e-09	-1.983169e+01	-9.703474e+01
2.000000e-08	-2.521211e-06	-1.475771e-09	-1.982876e+01	-9.695673e+01
3.000000e-08	-2.520351e-06	-1.472666e-09	-1.982200e+01	-9.686094e+01
4.000000e-08	-2.518947e-06	-1.472919e-09	-1.981096e+01	-9.674883e+01
5.000000e-08	-2.516920e-06	-1.474676e-09	-1.979502e+01	-9.662190e+01
6.000000e-08	-2.514159e-06	-1.458724e-09	-1.977330e+01	-9.648171e+01
7.000000e-08	-2.510819e-06	-1.448566e-09	-1.974703e+01	-9.632973e+01
8.000000e-08	-2.507134e-06	-1.464968e-09	-1.971805e+01	-9.616732e+01
9.000000e-08	-2.503145e-06	-1.507600e-09	-1.968667e+01	-9.599566e+01
1.000000e-07	-2.498803e-06	-1.465827e-09	-1.965253e+01	-9.581568e+01
1.100000e-07	-2.494036e-06	-1.424451e-09	-1.961504e+01	-9.562803e+01
1.200000e-07	-2.488841e-06	-1.438474e-09	-1.957418e+01	-9.543303e+01
1.300000e-07	-2.483251e-06	-1.500707e-09	-1.953022e+01	-9.523068e+01
1.400000e-07	-2.477201e-06	-1.465582e-09	-1.948263e+01	-9.502065e+01
1.500000e-07	-2.470700e-06	-1.423799e-09	-1.943150e+01	-9.480229e+01
1.600000e-07	-2.463765e-06	-1.424311e-09	-1.937696e+01	-9.457471e+01
1.700000e-07	-2.456444e-06	-1.411831e-09	-1.931939e+01	-9.433678e+01
1.800000e-07	-2.448799e-06	-1.454399e-09	-1.925926e+01	-9.408723e+01
1.900000e-07	-2.440848e-06	-1.468799e-09	-1.919672e+01	-9.382469e+01
2.000000e-07	-2.432595e-06	-1.429158e-09	-1.913182e+01	-9.354783e+01
2.100000e-07	-2.423881e-06	-1.337399e-09	-1.906328e+01	-9.325536e+01
2.200000e-07	-2.414521e-06	-1.407467e-09	-1.898967e+01	-9.294613e+01
2.300000e-07	-2.404424e-06	-1.496651e-09	-1.891026e+01	-9.261921e+01
2.400000e-07	-2.393611e-06	-1.420958e-09	-1.882522e+01	-9.227392e+01
2.500000e-07	-2.382229e-06	-1.300406e-09	-1.873570e+01	-9.190985e+01
2.600000e-07	-2.370455e-06	-1.362909e-09	-1.864310e+01	-9.152690e+01
2.700000e-07	-2.358273e-06	-1.473605e-09	-1.854729e+01	-9.112524e+01
2.800000e-07	-2.345617e-06	-1.401129e-09	-1.844776e+01	-9.070534e+01
2.900000e-07	-2.332522e-06	-1.300847e-09	-1.834477e+01	-9.026789e+01
3.000000e-07	-2.319020e-06	-1.339511e-09	-1.823858e+01	-8.981375e+01
3.100000e-07	-2.305064e-06	-1.394705e-09	-1.812882e+01	-8.934392e+01
3.200000e-07	-2.290599e-06	-1.373320e-09	-1.801505e+01	-8.885947e+01
3.300000e-07	-2.275604e-06	-1.336894e-09	-1.789712e+01	-8.836144e+01
3.400000e-07	-2.260006e-06	-1.309029e-09	-1.777444e+01	-8.785081e+01
3.500000e-07	-2.243881e-06	-1.304583e-09	-1.764762e+01	-8.732844e+01
3.600000e-07	-2.227269e-06	-1.337743e-09	-1.751698e+01	-8.679503e+01
3.700000e-07	-2.210209e-06	-1.352543e-09	-1.738280e+01	-8.625108e+01
3.800000e-07	-2.192828e-06	-1.276693e-09	-1.724610e+01	-8.569686e+01
3.900000e-07	-2.175166e-06	-1.233314e-09	-1.710719e+01	-8.513245e+01
4.000000e-07	-2.157208e-06	-1.294768e-09	-1.696596e+01	-8.455773e+01
4.100000e-07	-2.138850e-06	-1.328292e-09	-1.682158e+01	-8.397239e+01
4.200000e-07	-2.120028e-06	-1.261007e-09	-1.667355e+01	-8.337603e+01
4.300000e-07	-2.100788e-06	-1.196437e-09	-1.652223e+01	-8.276812e+01
4.400000e-07	-2.081249e-06	-1.229822e-09	-1.636856e+01	-8.214813e+01
4.500000e-07	-2.061517e-06	-1.278879e-09	-1.621338e+01	-8.151550e+01
4.600000e-07	-2.041595e-06	-1.241269e-09	-1.605669e+01	-8.086977e+01
4.700000e-07	-2.021425e-06	-1.172249e-09	-1.589806e+01	-8.021053e+01
4.800000e-07	-2.000967e-06	-1.168316e-09	-1.573716e+01	-7.953749e+01
4.900000e-07	-1.980146e-06	-1.208583e-09	-1.557341e+01	-7.885050e+01
5.000000e-07	-1.958960e-06	-1.202530e-09	-1.540679e+01	-7.814952e+01
5.100000e-07	-1.937461e-06	-1.156348e-09	-1.523770e+01	-7.743464e+01
5.200000e-07	-1.915606e-06	-1.130945e-09	-1.506582e+01	-7.670604e+01
5.300000e-07	-1.893385e-06	-1.131898e-09	-1.489105e+01	-7.596393e+01
5.400000e-07	-1.870839e-06	-1.148030e-09	-1.471373e+01	-7.520860e+01
5.500000e-07	-1.847899e-06	-1.144297e-09	-1.453331e+01	-7.444028e+01
5.600000e-07	-1.824611e-06	-1.102542e-09	-1.435016e+01	-7.365919e+01
5.700000e-07	-1.801095e-06	-1.071951e-09	-1.416521e+01	-7.286545e+01
5.800000e-07	-1.777366e-06	-1.084083e-09	-1.397859e+01	-7.205909e+01
5.900000e-07	-1.753455e-06	-1.097397e-09	-1.379053e+01	-7.124003e+01
6.000000e-07	-1.729337e-06	-1.065626e-09	-1.360085e+01	-7.040808e+01
6.100000e-07	-1.704873e-06	-1.026357e-09	-1.340845e+01	-6.956298e+01
6.200000e-07	-1.680015e-06	-1.022357e-09	-1.321295e+01	-6.870438e+01
6.300000e-07	-1.654805e-06	-1.031357e-09	-1.301467e+01	-6.783192e+01
6.400000e-07	-1.629120e-06	-1.020815e-09	-1.281267e+01	-6.694523e+01
6.500000e-07	-1.602859e-06	-9.908951e-10	-1.260613e+01	-6.604403e+01
6.600000e-07	-1.576190e-06	-9.689081e-10	-1.239639e+01	-6.512813e+01
6.700000e-07	-1.549177e-06	-9.634640e-10	-1.218393e+01	-6.419751e+01
6.800000e-07	-1.521787e-06	-9.594317e-10	-1.196852e+01	-6.325232e+01
6.900000e-07	-1.494148e-06	-9.464969e-10	-1.175114e+01	-6.229294e+01
7.000000e-07	-1.466338e-06	-9.196280e-10	-1.153242e+01	-6.131996e+01
7.100000e-07	-1.438425e-06	-8.977265e-10	-1.131289e+01	-6.033418e+01
7.200000e-07	-1.410390e-06	-8.928873e-10	-1.109241e+01	-5.933658e+01
7.300000e-07	-1.382176e-06	-8.865490e-10	-1.087051e+01	-5.832830e+01
7.400000e-07	-1.353742e-06	-8.658981e-10	-1.064688e+01	-5.731056e+01
7.500000e-07	-1.325070e-06	-8.415724e-10	-1.042138e+01	-5.628462e+01
7.600000e-07	-1.296187e-06	-8.295221e-10	-1.019422e+01	-5.525168e+01
7.700000e-07	-1.266998e-06	-8.214724e-10	-9.964658e+00	-5.421282e+01
7.800000e-07	-1.237516e-06	-8.068495e-10	-9.732787e+00	-5.316896e+01
7.900000e-07	-1.207911e-06	-7.873576e-10	-9.499949e+00	-5.212076e+01
8.000000e-07	-1.178131e-06	-7.678708e-10	-9.265735e+00	-5.106856e+01
8.100000e-07	-1.148124e-06	-7.550613e-10	-9.029737e+00	-5.001242e+01
8.200000e-07	-1.117946e-06	-7.429433e-10	-8.792398e+00	-4.895204e+01
8.300000e-07	-1.087596e-06	-7.248179e-10	-8.553703e+00	-4.788682e+01
8.400000e-07	-1.057070e-06	-7.059171e-10	-8.313618e+00	-4.681585e+01
8.500000e-07	-1.026407e-06	-6.903337e-10	-8.072465e+00	-4.573801e+01
8.600000e-07	-9.955778e-07	-6.767913e-10	-7.829998e+00	-4.465202e+01
8.700000e-07	-9.645045e-07	-6.580833e-10	-7.585614e+00	-4.355650e+01
8.800000e-07	-9.331923e-07	-6.396207e-10	-7.339350e+00	-4.245013e+01
8.900000e-07	-9.017588e-07	-6.263629e-10	-7.092132e+00	-4.133165e+01
9.000000e-07	-8.702764e-07	-6.095528e-10	-6.844530e+00	-4.020005e+01
9.100000e-07	-8.386640e-07	-5.880556e-10	-6.595905e+00	-3.905456e+01
9.200000e-07	-8.069025e-07	-5.695859e-10	-6.346109e+00	-3.789478e+01
9.300000e-07	-7.750615e-07	-5.562329e-10	-6.095686e+00	-3.672065e+01
9.400000e-07	-7.431592e-07	-5.385732e-10	-5.844782e+00	-3.553255e+01
9.500000e-07	-7.111848e-07	-5.137359e-10	-5.593310e+00	-3.433124e+01
9.600000e-07	-6.791563e-07	-4.924199e-10	-5.341413e+00	-3.311783e+01
9.700000e-07	-6.470447e-07	-4.774808e-10	-5.088862e+00	-3.189374e+01
9.800000e-07	-6.147914e-07	-4.627490e-10	-4.835198e+00	-3.066062e+01
9.900000e-07	-5.824608e-07	-4.401321e-10	-4.580925e+00	-2.942024e+01
1.000000e-06	-5.500452e-07	-4.150991e-10	-4.325983e+00	-2.817442e+01
1.010000e-06	-5.174770e-07	-3.996394e-10	-4.069841e+00	-2.692488e+01
1.020000e-06	-4.847926e-07	-3.880580e-10	-3.812786e+00	-2.567320e+01
1.030000e-06	-4.520439e-07	-3.704404e-10	-3.555225e+00	-2.442065e+01
1.040000e-06	-4.192506e-07	-3.455156e-10	-3.297313e+00	-2.316820e+01
1.050000e-06	-3.863567e-07	-3.233289e-10	-3.038609e+00	-2.191640e+01
1.060000e-06	-3.532934e-07	-3.086150e-10	-2.778574e+00	-2.066538e+01
1.070000e-06	-3.201399e-07	-2.917334e-10	-2.517829e+00	-1.941485e+01
1.080000e-06	-2.869344e-07	-2.682911e-10	-2.256675e+00	-1.816411e+01
1.090000e-06	-2.535762e-07	-2.440716e-10	-1.994320e+00	-1.691212e+01
1.100000e-06	-2.201253e-07	-2.275936e-10	-1.731237e+00	-1.565755e+01
1.110000e-06	-1.866836e-07	-2.165600e-10	-1.468225e+00	-1.439887e+01
1.120000e-06	-1.532251e-07	-1.976231e-10	-1.205082e+00	-1.313450e+01
1.130000e-06	-1.196714e-07	-1.709956e-10	-9.411892e-01	-1.186283e+01
1.140000e-06	-8.605265e-08	-1.491645e-10	-6.767850e-01	-1.058241e+01
1.150000e-06	-5.245127e-08	-1.340581e-10	-4.125176e-01	-9.291996e+00
1.160000e-06	-1.883332e-08	-1.156634e-10	-1.481199e-01	-7.990659e+00
1.170000e-06	1.481923e-08	-9.130850e-11	1.165500e-01	-6.677833e+00
1.180000e-06	4.845894e-08	-6.877783e-11	3.811187e-01	-5.353366e+00
1.190000e-06	8.200343e-08	-5.116120e-11	6.449387e-01	-4.017536e+00
1.200000e-06	1.154588e-07	-3.509478e-11	9.080581e-01	-2.671039e+00
1.210000e-06	1.489438e-07	-1.650068e-11	1.171410e+00	-1.314960e+00
1.220000e-06	1.824425e-07	5.898858e-12	1.434870e+00	4.928668e-02
1.230000e-06	2.158952e-07	2.815507e-11	1.697967e+00	1.420026e+00
1.240000e-06	2.493023e-07	4.893227e-11	1.960707e+00	2.795410e+00
1.250000e-06	2.826203e-07	7.054055e-11	2.222746e+00	4.173509e+00
1.260000e-06	3.158744e-07	9.296827e-11	2.484282e+00	5.552406e+00
1.270000e-06	3.490308e-07	1.151487e-10	2.745049e+00	6.930284e+00
1.280000e-06	3.819809e-07	1.347854e-10	3.004194e+00	8.305506e+00
1.290000e-06	4.147776e-07	1.522477e-10	3.262133e+00	9.676678e+00
1.300000e-06	4.474400e-07	1.692543e-10	3.519016e+00	1.104269e+01
1.310000e-06	4.800311e-07	1.886714e-10	3.775338e+00	1.240276e+01
1.320000e-06	5.125690e-07	2.091385e-10	4.031241e+00	1.375642e+01
1.330000e-06	5.449529e-07	2.277093e-10	4.285933e+00	1.510349e+01
1.340000e-06	5.772363e-07	2.460171e-10	4.539835e+00	1.644408e+01
1.350000e-06	6.094699e-07	2.655654e-10	4.793346e+00	1.777853e+01
1.360000e-06	6.416219e-07	2.872693e-10	5.046213e+00	1.910733e+01
1.370000e-06	6.737118e-07	3.085483e-10	5.298593e+00	2.043111e+01
1.380000e-06	7.057090e-07	3.267365e-10	5.550244e+00	2.175050e+01
1.390000e-06	7.376065e-07	3.442476e-10	5.801111e+00	2.306614e+01
1.400000e-06	7.694789e-07	3.638126e-10	6.051780e+00	2.437860e+01
1.410000e-06	8.013305e-07	3.846087e-10	6.302286e+00	2.568830e+01
1.420000e-06	8.331326e-07	4.031327e-10	6.552402e+00	2.699557e+01
1.430000e-06	8.648526e-07	4.191215e-10	6.801873e+00	2.830053e+01
1.440000e-06	8.964785e-07	4.390816e-10	7.050604e+00	2.960317e+01
1.450000e-06	9.279772e-07	4.612915e-10	7.298334e+00	3.090332e+01
1.460000e-06	9.592196e-07	4.806104e-10	7.544049e+00	3.220068e+01
1.470000e-06	9.902123e-07	4.970988e-10	7.787800e+00	3.349488e+01
1.480000e-06	1.021008e-06	5.142776e-10	8.030001e+00	3.478545e+01
1.490000e-06	1.051575e-06	5.340242e-10	8.270401e+00	3.607192e+01
1.500000e-06	1.081942e-06	5.544446e-10	8.509229e+00	3.735385e+01
1.510000e-06	1.112076e-06	5.736318e-10	8.746234e+00	3.863080e+01
1.520000e-06	1.142010e-06	5.910319e-10	8.981652e+00	3.990243e+01
1.530000e-06	1.171861e-06	6.095659e-10	9.216425e+00	4.116847e+01
1.540000e-06	1.201594e-06	6.308491e-10	9.450270e+00	4.242870e+01
1.550000e-06	1.231161e-06	6.507986e-10	9.682810e+00	4.368301e+01
1.560000e-06	1.260548e-06	6.688204e-10	9.913932e+00	4.493130e+01
1.570000e-06	1.289731e-06	6.866059e-10	1.014345e+01	4.617350e+01
1.580000e-06	1.318653e-06	7.047355e-10	1.037091e+01	4.740954e+01
1.590000e-06	1.347291e-06	7.234746e-10	1.059614e+01	4.863928e+01
1.600000e-06	1.375712e-06	7.412934e-10	1.081967e+01	4.986250e+01
1.610000e-06	1.403898e-06	7.591796e-10	1.104134e+01	5.107886e+01
1.620000e-06	1.431888e-06	7.775016e-10	1.126148e+01	5.228788e+01
1.630000e-06	1.459791e-06	7.960702e-10	1.148093e+01	5.348892e+01
1.640000e-06	1.487628e-06	8.145806e-10	1.169987e+01	5.468115e+01
1.650000e-06	1.515389e-06	8.332340e-10	1.191820e+01	5.586363e+01
1.660000e-06	1.542935e-06	8.515736e-10	1.213484e+01	5.703525e+01
1.670000e-06	1.570101e-06	8.689309e-10	1.234850e+01	5.819478e+01
1.680000e-06	1.596925e-06	8.865560e-10	1.255946e+01	5.934094e+01
1.690000e-06	1.623292e-06	9.029264e-10	1.276683e+01	6.047243e+01
1.700000e-06	1.649039e-06	9.177019e-10	1.296932e+01	6.158797e+01
1.710000e-06	1.674313e-06	9.339248e-10	1.316810e+01	6.268635e+01
1.720000e-06	1.699157e-06	9.516387e-10	1.336349e+01	6.376653e+01
1.730000e-06	1.723555e-06	9.687494e-10	1.355538e+01	6.482760e+01
1.740000e-06	1.747672e-06	9.846970e-10	1.374505e+01	6.586889e+01
1.750000e-06	1.771600e-06	1.000195e-09	1.393324e+01	6.688998e+01
1.760000e-06	1.795257e-06	1.016713e-09	1.411930e+01	6.789069e+01
1.770000e-06	1.818629e-06	1.032873e-09	1.430311e+01	6.887110e+01
1.780000e-06	1.841803e-06	1.047571e-09	1.448537e+01	6.983153e+01
1.790000e-06	1.864689e-06	1.061465e-09	1.466536e+01	7.077254e+01
1.800000e-06	1.887207e-06	1.076062e-09	1.484247e+01	7.169486e+01
1.810000e-06	1.909375e-06	1.091373e-09	1.501681e+01	7.259938e+01
1.820000e-06	1.931209e-06	1.104899e-09	1.518853e+01	7.348705e+01
1.830000e-06	1.952761e-06	1.116818e-09	1.535803e+01	7.435891e+01
1.840000e-06	1.973976e-06	1.128257e-09	1.552489e+01	7.521594e+01
1.850000e-06	1.994819e-06	1.140857e-09	1.568881e+01	7.605909e+01
1.860000e-06	2.015315e-06	1.154363e-09	1.585000e+01	7.688918e+01
1.870000e-06	2.035497e-06	1.167487e-09	1.600873e+01	7.770688e+01
1.880000e-06	2.055500e-06	1.180481e-09	1.616605e+01	7.851269e+01
1.890000e-06	2.075316e-06	1.193434e-09	1.632190e+01	7.930691e+01
1.900000e-06	2.094879e-06	1.206185e-09	1.647576e+01	8.008961e+01
1.910000e-06	2.114122e-06	1.218224e-09	1.662710e+01	8.086068e+01
1.920000e-06	2.132886e-06	1.229960e-09	1.677468e+01	8.161979e+01
1.930000e-06	2.151166e-06	1.242148e-09	1.691844e+01	8.236644e+01
1.940000e-06	2.168997e-06	1.253991e-09	1.705868e+01	8.309998e+01
1.950000e-06	2.186445e-06	1.264396e-09	1.719591e+01	8.381963e+01
1.960000e-06	2.203622e-06	1.274418e-09	1.733099e+01	8.452454e+01
1.970000e-06	2.220533e-06	1.284644e-09	1.746400e+01	8.521379e+01
1.980000e-06	2.237137e-06	1.293564e-09	1.759458e+01	8.588648e+01
1.990000e-06	2.253306e-06	1.300419e-09	1.772175e+01	8.654170e+01
2.000000e-06	2.268940e-06	1.307890e-09	1.784471e+01	8.717863e+01
2.010000e-06	2.284054e-06	1.317805e-09	1.796357e+01	8.779651e+01
2.020000e-06	2.298662e-06	1.328469e-09	1.807846e+01	8.839472e+01
2.030000e-06	2.312753e-06	1.337817e-09	1.818929e+01	8.897274e+01
2.040000e-06	2.326386e-06	1.346250e-09	1.829651e+01	8.953020e+01
2.050000e-06	2.339638e-06	1.355722e-09	1.840073e+01	9.006687e+01
2.060000e-06	2.352522e-06	1.366040e-09	1.850207e+01	9.058269e+01
2.070000e-06	2.365037e-06	1.375019e-09	1.860049e+01	9.107770e+01
2.080000e-06	2.377177e-06	1.382339e-09	1.869597e+01	9.155209e+01
2.090000e-06	2.388884e-06	1.387994e-09	1.878804e+01	9.200617e+01
2.100000e-06	2.400021e-06	1.394420e-09	1.887563e+01	9.244033e+01
2.110000e-06	2.410585e-06	1.401250e-09	1.895871e+01	9.285502e+01
2.120000e-06	2.420481e-06	1.406839e-09	1.903654e+01	9.325075e+01
2.130000e-06	2.429689e-06	1.413461e-09	1.910896e+01	9.362804e+01
2.140000e-06	2.438344e-06	1.420443e-09	1.917703e+01	9.398739e+01
2.150000e-06	2.446587e-06	1.426594e-09	1.924186e+01	9.432926e+01
2.160000e-06	2.454538e-06	1.431303e-09	1.930439e+01	9.465405e+01
2.170000e-06	2.462149e-06	1.436062e-09	1.936426e+01	9.496204e+01
2.180000e-06	2.469412e-06	1.440810e-09	1.942138e+01	9.525342e+01
2.190000e-06	2.476261e-06	1.444597e-09	1.947524e+01	9.552824e+01
2.200000e-06	2.482674e-06	1.449732e-09	1.952568e+01	9.578640e+01
2.210000e-06	2.488643e-06	1.455786e-09	1.957262e+01	9.602767e+01
2.220000e-06	2.494127e-06	1.460434e-09	1.961575e+01	9.625169e+01
2.230000e-06	2.499169e-06	1.463809e-09	1.965541e+01	9.645795e+01
2.240000e-06	2.503846e-06	1.467685e-09	1.969219e+01	9.664585e+01
2.250000e-06	2.508198e-06	1.472858e-09	1.972642e+01	9.681474e+01
2.260000e-06	2.512228e-06	1.478107e-09	1.975811e+01	9.696390e+01
2.270000e-06	2.515982e-06	1.480557e-09	1.978764e+01	9.709264e+01
2.280000e-06	2.519420e-06	1.480306e-09	1.981468e+01	9.720031e+01
2.290000e-06	2.522366e-06	1.480924e-09	1.983784e+01	9.728636e+01
2.300000e-06	2.524641e-06	1.482744e-09	1.985574e+01	9.735037e+01
2.310000e-06	2.526197e-06	1.484104e-09	1.986798e+01	9.739211e+01
2.320000e-06	2.527114e-06	1.484268e-09	1.987519e+01	9.741158e+01
2.330000e-06	2.527500e-06	1.485467e-09	1.987823e+01	9.740899e+01
2.340000e-06	2.527535e-06	1.488411e-09	1.987850e+01	9.738483e+01
2.350000e-06	2.527328e-06	1.490849e-09	1.987687e+01	9.733981e+01
2.360000e-06	2.526757e-06	1.490874e-09	1.987238e+01	9.727490e+01
2.370000e-06	2.525767e-06	1.489843e-09	1.986460e+01	9.719130e+01
2.380000e-06	2.524398e-06	1.487766e-09	1.985383e+01	9.709034e+01
2.390000e-06	2.522612e-06	1.482358e-09	1.983978e+01	9.697351e+01
2.400000e-06	2.520404e-06	1.492027e-09	1.982242e+01	9.684232e+01
2.410000e-06	2.517720e-06	1.499452e-09	1.980131e+01	9.669833e+01
2.420000e-06	2.514547e-06	1.489981e-09	1.977635e+01	9.654297e+01
2.430000e-06	2.510973e-06	1.445967e-09	1.974824e+01	9.637756e+01
2.440000e-06	2.507071e-06	1.478264e-09	1.971756e+01	9.620320e+01
2.450000e-06	2.502884e-06	1.504972e-09	1.968462e+01	9.602075e+01
2.460000e-06	2.498336e-06	1.483858e-09	1.964886e+01	9.583076e+01
2.470000e-06	2.493361e-06	1.447938e-09	1.960973e+01	9.563346e+01
2.480000e-06	2.487915e-06	1.469931e-09	1.956690e+01	9.542874e+01
2.490000e-06	2.481855e-06	1.481085e-09	1.951923e+01	9.521617e+01
2.500000e-06	2.475120e-06	1.456937e-09	1.946627e+01	9.499504e+01
2.510000e-06	2.467801e-06	1.463420e-09	1.940871e+01	9.476437e+01
2.520000e-06	2.460017e-06	1.447651e-09	1.934749e+01	9.452297e+01
2.530000e-06	2.451881e-06	1.429566e-09	1.928350e+01	9.426955e+01
2.540000e-06	2.443410e-06	1.446296e-09	1.921688e+01	9.400275e+01
2.550000e-06	2.434507e-06	1.500361e-09	1.914685e+01	9.372121e+01
2.560000e-06	2.425162e-06	1.429329e-09	1.907336e+01	9.342371e+01
2.570000e-06	2.415481e-06	1.362989e-09	1.899722e+01	9.310915e+01
2.580000e-06	2.405408e-06	1.442997e-09	1.891800e+01	9.277666e+01
2.590000e-06	2.394926e-06	1.521807e-09	1.883556e+01	9.242565e+01
2.600000e-06	2.384040e-06	1.405657e-09	1.874994e+01	9.205580e+01
2.610000e-06	2.372756e-06	1.313168e-09	1.866120e+01	9.166709e+01
2.620000e-06	2.361080e-06	1.423955e-09	1.856937e+01	9.125979e+01
2.630000e-06	2.348944e-06	1.490224e-09	1.847392e+01	9.083442e+01
2.640000e-06	2.336251e-06	1.377917e-09	1.837410e+01	9.039175e+01
2.650000e-06	2.322965e-06	1.320411e-09	1.826960e+01	8.993268e+01
2.660000e-06	2.309022e-06	1.391025e-09	1.815995e+01	8.945824e+01
2.670000e-06	2.294331e-06	1.399880e-09	1.804441e+01	8.896949e+01
2.680000e-06	2.279053e-06	1.356792e-09	1.792424e+01	8.846746e+01
2.690000e-06	2.263343e-06	1.356879e-09	1.780069e+01	8.795311e+01
2.700000e-06	2.247338e-06	1.336844e-09	1.767481e+01	8.742726e+01
2.710000e-06	2.231137e-06	1.302683e-09	1.754739e+01	8.689052e+01
2.720000e-06	2.214670e-06	1.345204e-09	1.741789e+01	8.634335e+01
2.730000e-06	2.197800e-06	1.371157e-09	1.728521e+01	8.578597e+01
2.740000e-06	2.180476e-06	1.288571e-09	1.714896e+01	8.521837e+01
2.750000e-06	2.162788e-06	1.246522e-09	1.700984e+01	8.464038e+01
2.760000e-06	2.144774e-06	1.310005e-09	1.686817e+01	8.405168e+01
2.770000e-06	2.126427e-06	1.331070e-09	1.672388e+01	8.345179e+01
2.780000e-06	2.107731e-06	1.266304e-09	1.657684e+01	8.284020e+01
2.790000e-06	2.088641e-06	1.220628e-09	1.642670e+01	8.221636e+01
2.800000e-06	2.069167e-06	1.248048e-09	1.627354e+01	8.157973e+01
2.810000e-06	2.049438e-06	1.278428e-09	1.611838e+01	8.092987e+01
2.820000e-06	2.029532e-06	1.244085e-09	1.596182e+01	8.026639e+01
2.830000e-06	2.009438e-06	1.196530e-09	1.580378e+01	7.958907e+01
2.840000e-06	1.989061e-06	1.202885e-09	1.564352e+01	7.889776e+01
2.850000e-06	1.968243e-06	1.217996e-09	1.547979e+01	7.819249e+01
2.860000e-06	1.946973e-06	1.194048e-09	1.531251e+01	7.747335e+01
2.870000e-06	1.925221e-06	1.172776e-09	1.514143e+01	7.674056e+01
2.880000e-06	1.902814e-06	1.165820e-09	1.496521e+01	7.599434e+01
2.890000e-06	1.879775e-06	1.145958e-09	1.478401e+01	7.523497e+01
2.900000e-06	1.856282e-06	1.141120e-09	1.459924e+01	7.446269e+01
2.910000e-06	1.832490e-06	1.143149e-09	1.441212e+01	7.367768e+01
2.920000e-06	1.808524e-06	1.116780e-09	1.422364e+01	7.288004e+01
2.930000e-06	1.784396e-06	1.091907e-09	1.403388e+01	7.206976e+01
2.940000e-06	1.760078e-06	1.093237e-09	1.384262e+01	7.124675e+01
2.950000e-06	1.735522e-06	1.093376e-09	1.364949e+01	7.041077e+01
