# Temperatura_=_20.0
# Concentracion g/m^3_=_12600.0
# C_Vs_to_Am_M_A/Vsm_=_65563218390.804596
# pendiente_HvsI_1/m_=_3716.3
# ordenada_HvsI_A/m_=_1297.0
# frecuencia_Hz_=_213018.10466568932

Tiempo_(s)	Campo_(V.s)	Magnetizacion_(V.s)	Campo_(kA/m)	Magnetizacion_(A/m)
0.000000e+00	-2.520224e-06	-1.605350e-09	-1.983335e+01	-1.056708e+02
1.000000e-08	-2.520380e-06	-1.604924e-09	-1.983457e+01	-1.056442e+02
2.000000e-08	-2.520370e-06	-1.603916e-09	-1.983450e+01	-1.055962e+02
3.000000e-08	-2.519933e-06	-1.603912e-09	-1.983106e+01	-1.055275e+02
4.000000e-08	-2.518834e-06	-1.603625e-09	-1.982241e+01	-1.054392e+02
5.000000e-08	-2.517037e-06	-1.597529e-09	-1.980827e+01	-1.053325e+02
6.000000e-08	-2.514525e-06	-1.574278e-09	-1.978850e+01	-1.052086e+02
7.000000e-08	-2.511385e-06	-1.551914e-09	-1.976379e+01	-1.050690e+02
8.000000e-08	-2.507773e-06	-1.655632e-09	-1.973537e+01	-1.049149e+02
9.000000e-08	-2.503830e-06	-1.690880e-09	-1.970433e+01	-1.047475e+02
1.000000e-07	-2.499711e-06	-1.533597e-09	-1.967192e+01	-1.045678e+02
1.100000e-07	-2.495333e-06	-1.463860e-09	-1.963746e+01	-1.043765e+02
1.200000e-07	-2.490385e-06	-1.644189e-09	-1.959853e+01	-1.041740e+02
1.300000e-07	-2.484890e-06	-1.689830e-09	-1.955528e+01	-1.039606e+02
1.400000e-07	-2.479092e-06	-1.557431e-09	-1.950965e+01	-1.037360e+02
1.500000e-07	-2.472863e-06	-1.517554e-09	-1.946063e+01	-1.034996e+02
1.600000e-07	-2.465988e-06	-1.527969e-09	-1.940653e+01	-1.032507e+02
1.700000e-07	-2.458728e-06	-1.541597e-09	-1.934940e+01	-1.029882e+02
1.800000e-07	-2.451294e-06	-1.640113e-09	-1.929089e+01	-1.027110e+02
1.900000e-07	-2.443496e-06	-1.669480e-09	-1.922952e+01	-1.024175e+02
2.000000e-07	-2.435376e-06	-1.438589e-09	-1.916562e+01	-1.021066e+02
2.100000e-07	-2.426994e-06	-1.371347e-09	-1.909965e+01	-1.017770e+02
2.200000e-07	-2.418027e-06	-1.654374e-09	-1.902909e+01	-1.014275e+02
2.300000e-07	-2.408105e-06	-1.767876e-09	-1.895101e+01	-1.010573e+02
2.400000e-07	-2.397294e-06	-1.404527e-09	-1.886593e+01	-1.006658e+02
2.500000e-07	-2.386105e-06	-1.290276e-09	-1.877787e+01	-1.002527e+02
2.600000e-07	-2.374588e-06	-1.645363e-09	-1.868724e+01	-9.981813e+01
2.700000e-07	-2.362594e-06	-1.714069e-09	-1.859285e+01	-9.936252e+01
2.800000e-07	-2.350202e-06	-1.393216e-09	-1.849533e+01	-9.888660e+01
2.900000e-07	-2.337359e-06	-1.358634e-09	-1.839426e+01	-9.839138e+01
3.000000e-07	-2.324046e-06	-1.582740e-09	-1.828949e+01	-9.787808e+01
3.100000e-07	-2.310333e-06	-1.548073e-09	-1.818157e+01	-9.734806e+01
3.200000e-07	-2.296229e-06	-1.420153e-09	-1.807058e+01	-9.680274e+01
3.300000e-07	-2.281611e-06	-1.464574e-09	-1.795554e+01	-9.624350e+01
3.400000e-07	-2.266258e-06	-1.471427e-09	-1.783471e+01	-9.567160e+01
3.500000e-07	-2.250223e-06	-1.402842e-09	-1.770853e+01	-9.508814e+01
3.600000e-07	-2.233735e-06	-1.449677e-09	-1.757878e+01	-9.449398e+01
3.700000e-07	-2.216863e-06	-1.480759e-09	-1.744600e+01	-9.388968e+01
3.800000e-07	-2.199637e-06	-1.386699e-09	-1.731043e+01	-9.327553e+01
3.900000e-07	-2.182132e-06	-1.347298e-09	-1.717267e+01	-9.265150e+01
4.000000e-07	-2.164383e-06	-1.429177e-09	-1.703300e+01	-9.201729e+01
4.100000e-07	-2.146297e-06	-1.437702e-09	-1.689066e+01	-9.137236e+01
4.200000e-07	-2.127691e-06	-1.340376e-09	-1.674424e+01	-9.071598e+01
4.300000e-07	-2.108581e-06	-1.312562e-09	-1.659385e+01	-9.004731e+01
4.400000e-07	-2.089123e-06	-1.384578e-09	-1.644073e+01	-8.936542e+01
4.500000e-07	-2.069433e-06	-1.397107e-09	-1.628577e+01	-8.866944e+01
4.600000e-07	-2.049620e-06	-1.303067e-09	-1.612984e+01	-8.795856e+01
4.700000e-07	-2.029651e-06	-1.277488e-09	-1.597270e+01	-8.723211e+01
4.800000e-07	-2.009409e-06	-1.341194e-09	-1.581340e+01	-8.648960e+01
4.900000e-07	-1.988791e-06	-1.324847e-09	-1.565114e+01	-8.573079e+01
5.000000e-07	-1.967793e-06	-1.256572e-09	-1.548590e+01	-8.495564e+01
5.100000e-07	-1.946421e-06	-1.260081e-09	-1.531770e+01	-8.416433e+01
5.200000e-07	-1.924777e-06	-1.268384e-09	-1.514737e+01	-8.335728e+01
5.300000e-07	-1.902862e-06	-1.237172e-09	-1.497491e+01	-8.253504e+01
5.400000e-07	-1.880597e-06	-1.238809e-09	-1.479969e+01	-8.169830e+01
5.500000e-07	-1.857890e-06	-1.240621e-09	-1.462099e+01	-8.084783e+01
5.600000e-07	-1.834788e-06	-1.188007e-09	-1.443919e+01	-7.998439e+01
5.700000e-07	-1.811383e-06	-1.170277e-09	-1.425500e+01	-7.910871e+01
5.800000e-07	-1.787720e-06	-1.203379e-09	-1.406878e+01	-7.822144e+01
5.900000e-07	-1.763949e-06	-1.186028e-09	-1.388171e+01	-7.732306e+01
6.000000e-07	-1.740036e-06	-1.125922e-09	-1.369352e+01	-7.641393e+01
6.100000e-07	-1.715875e-06	-1.108979e-09	-1.350338e+01	-7.549421e+01
6.200000e-07	-1.691340e-06	-1.137689e-09	-1.331030e+01	-7.456389e+01
6.300000e-07	-1.666396e-06	-1.135824e-09	-1.311400e+01	-7.362281e+01
6.400000e-07	-1.640988e-06	-1.088744e-09	-1.291404e+01	-7.267066e+01
6.500000e-07	-1.615038e-06	-1.061488e-09	-1.270982e+01	-7.170704e+01
6.600000e-07	-1.588565e-06	-1.072987e-09	-1.250149e+01	-7.073150e+01
6.700000e-07	-1.561650e-06	-1.075088e-09	-1.228968e+01	-6.974356e+01
6.800000e-07	-1.534346e-06	-1.045531e-09	-1.207480e+01	-6.874280e+01
6.900000e-07	-1.506764e-06	-1.011436e-09	-1.185775e+01	-6.772886e+01
7.000000e-07	-1.479045e-06	-9.960420e-10	-1.163960e+01	-6.670151e+01
7.100000e-07	-1.451228e-06	-9.951603e-10	-1.142069e+01	-6.566064e+01
7.200000e-07	-1.423282e-06	-9.874161e-10	-1.120077e+01	-6.460629e+01
7.300000e-07	-1.395197e-06	-9.571830e-10	-1.097975e+01	-6.353864e+01
7.400000e-07	-1.366949e-06	-9.308173e-10	-1.075744e+01	-6.245801e+01
7.500000e-07	-1.338367e-06	-9.296737e-10	-1.053252e+01	-6.136481e+01
7.600000e-07	-1.309494e-06	-9.247499e-10	-1.030530e+01	-6.025953e+01
7.700000e-07	-1.280412e-06	-9.005299e-10	-1.007643e+01	-5.914273e+01
7.800000e-07	-1.251095e-06	-8.746381e-10	-9.845714e+00	-5.801492e+01
7.900000e-07	-1.221607e-06	-8.580137e-10	-9.613655e+00	-5.687660e+01
8.000000e-07	-1.191906e-06	-8.464247e-10	-9.379913e+00	-5.572820e+01
8.100000e-07	-1.162027e-06	-8.335785e-10	-9.144778e+00	-5.457004e+01
8.200000e-07	-1.132018e-06	-8.157302e-10	-8.908615e+00	-5.340233e+01
8.300000e-07	-1.101847e-06	-7.909786e-10	-8.671179e+00	-5.222517e+01
8.400000e-07	-1.071502e-06	-7.719221e-10	-8.432375e+00	-5.103855e+01
8.500000e-07	-1.040927e-06	-7.629531e-10	-8.191759e+00	-4.984235e+01
8.600000e-07	-1.010119e-06	-7.481816e-10	-7.949310e+00	-4.863641e+01
8.700000e-07	-9.791691e-07	-7.209980e-10	-7.705744e+00	-4.742052e+01
8.800000e-07	-9.480619e-07	-6.933051e-10	-7.460940e+00	-4.619449e+01
8.900000e-07	-9.167290e-07	-6.794700e-10	-7.214361e+00	-4.495817e+01
9.000000e-07	-8.852548e-07	-6.691936e-10	-6.966669e+00	-4.371150e+01
9.100000e-07	-8.536753e-07	-6.483697e-10	-6.718149e+00	-4.245452e+01
9.200000e-07	-8.220219e-07	-6.229219e-10	-6.469047e+00	-4.118741e+01
9.300000e-07	-7.903081e-07	-6.026501e-10	-6.219469e+00	-3.991048e+01
9.400000e-07	-7.584928e-07	-5.876396e-10	-5.969093e+00	-3.862420e+01
9.500000e-07	-7.266009e-07	-5.711895e-10	-5.718114e+00	-3.732914e+01
9.600000e-07	-6.946388e-07	-5.484655e-10	-5.466583e+00	-3.602599e+01
9.700000e-07	-6.625835e-07	-5.219100e-10	-5.214318e+00	-3.471550e+01
9.800000e-07	-6.304725e-07	-4.990634e-10	-4.961615e+00	-3.339841e+01
9.900000e-07	-5.982869e-07	-4.836901e-10	-4.708324e+00	-3.207546e+01
1.000000e-06	-5.660282e-07	-4.660790e-10	-4.454459e+00	-3.074730e+01
1.010000e-06	-5.336851e-07	-4.414446e-10	-4.199929e+00	-2.941444e+01
1.020000e-06	-5.011660e-07	-4.173241e-10	-3.944014e+00	-2.807727e+01
1.030000e-06	-4.684986e-07	-3.979474e-10	-3.686932e+00	-2.673595e+01
1.040000e-06	-4.357024e-07	-3.811001e-10	-3.428837e+00	-2.539046e+01
1.050000e-06	-4.027707e-07	-3.602778e-10	-3.169675e+00	-2.404058e+01
1.060000e-06	-3.696440e-07	-3.368884e-10	-2.908979e+00	-2.268588e+01
1.070000e-06	-3.364099e-07	-3.150943e-10	-2.647437e+00	-2.132581e+01
1.080000e-06	-3.031613e-07	-2.931675e-10	-2.385782e+00	-1.995968e+01
1.090000e-06	-2.698107e-07	-2.711660e-10	-2.123323e+00	-1.858673e+01
1.100000e-06	-2.363821e-07	-2.504637e-10	-1.860250e+00	-1.720621e+01
1.110000e-06	-2.029160e-07	-2.314480e-10	-1.596883e+00	-1.581741e+01
1.120000e-06	-1.693793e-07	-2.103879e-10	-1.332960e+00	-1.441976e+01
1.130000e-06	-1.357641e-07	-1.867369e-10	-1.068420e+00	-1.301281e+01
1.140000e-06	-1.021250e-07	-1.666071e-10	-8.036911e-01	-1.159637e+01
1.150000e-06	-6.846566e-08	-1.483720e-10	-5.388026e-01	-1.017047e+01
1.160000e-06	-3.477991e-08	-1.244019e-10	-2.737067e-01	-8.735397e+00
1.170000e-06	-1.044770e-09	-9.740609e-11	-8.222005e-03	-7.291714e+00
1.180000e-06	3.269210e-08	-7.601037e-11	2.572762e-01	-5.840223e+00
1.190000e-06	6.635097e-08	-5.763722e-11	5.221606e-01	-4.381946e+00
1.200000e-06	9.998831e-08	-3.589755e-11	7.868757e-01	-2.918083e+00
1.210000e-06	1.336460e-07	-1.214211e-11	1.051750e+00	-1.449958e+00
1.220000e-06	1.672994e-07	1.129059e-11	1.316592e+00	2.104073e-02
1.230000e-06	2.008611e-07	3.108826e-11	1.580712e+00	1.493517e+00
1.240000e-06	2.343454e-07	4.950804e-11	1.844223e+00	2.966128e+00
1.250000e-06	2.677491e-07	7.266018e-11	2.107099e+00	4.437642e+00
1.260000e-06	3.010514e-07	9.842662e-11	2.369177e+00	5.906976e+00
1.270000e-06	3.341865e-07	1.203305e-10	2.629940e+00	7.373233e+00
1.280000e-06	3.671690e-07	1.380042e-10	2.889501e+00	8.835724e+00
1.290000e-06	4.001272e-07	1.565930e-10	3.148872e+00	1.029397e+01
1.300000e-06	4.329560e-07	1.799848e-10	3.407224e+00	1.174769e+01
1.310000e-06	4.656073e-07	2.022566e-10	3.664179e+00	1.319681e+01
1.320000e-06	4.981019e-07	2.204054e-10	3.919901e+00	1.464138e+01
1.330000e-06	5.305045e-07	2.385147e-10	4.174899e+00	1.608157e+01
1.340000e-06	5.628112e-07	2.605698e-10	4.429142e+00	1.751765e+01
1.350000e-06	5.949666e-07	2.832503e-10	4.682195e+00	1.894989e+01
1.360000e-06	6.270302e-07	3.039417e-10	4.934525e+00	2.037856e+01
1.370000e-06	6.590832e-07	3.246184e-10	5.186772e+00	2.180389e+01
1.380000e-06	6.910923e-07	3.472218e-10	5.438673e+00	2.322601e+01
1.390000e-06	7.229982e-07	3.708027e-10	5.689762e+00	2.464498e+01
1.400000e-06	7.548470e-07	3.927363e-10	5.940401e+00	2.606076e+01
1.410000e-06	7.866443e-07	4.132789e-10	6.190636e+00	2.747319e+01
1.420000e-06	8.183837e-07	4.336382e-10	6.440415e+00	2.888204e+01
1.430000e-06	8.500766e-07	4.561090e-10	6.689828e+00	3.028701e+01
1.440000e-06	8.817273e-07	4.782511e-10	6.938908e+00	3.168775e+01
1.450000e-06	9.132520e-07	4.991498e-10	7.186998e+00	3.308390e+01
1.460000e-06	9.446193e-07	5.183205e-10	7.433848e+00	3.447512e+01
1.470000e-06	9.758361e-07	5.389073e-10	7.679514e+00	3.586110e+01
1.480000e-06	1.006822e-06	5.593848e-10	7.923365e+00	3.724157e+01
1.490000e-06	1.037529e-06	5.787214e-10	8.165020e+00	3.861637e+01
1.500000e-06	1.067967e-06	5.983096e-10	8.404555e+00	3.998537e+01
1.510000e-06	1.098199e-06	6.191677e-10	8.642473e+00	4.134853e+01
1.520000e-06	1.128267e-06	6.410115e-10	8.879096e+00	4.270586e+01
1.530000e-06	1.158186e-06	6.626445e-10	9.114547e+00	4.405740e+01
1.540000e-06	1.187994e-06	6.840533e-10	9.349126e+00	4.540319e+01
1.550000e-06	1.217684e-06	7.042791e-10	9.582777e+00	4.674325e+01
1.560000e-06	1.247216e-06	7.234655e-10	9.815183e+00	4.807753e+01
1.570000e-06	1.276530e-06	7.437135e-10	1.004587e+01	4.940590e+01
1.580000e-06	1.305594e-06	7.636898e-10	1.027461e+01	5.072812e+01
1.590000e-06	1.334362e-06	7.820869e-10	1.050100e+01	5.204381e+01
1.600000e-06	1.362829e-06	8.010345e-10	1.072503e+01	5.335245e+01
1.610000e-06	1.391052e-06	8.202747e-10	1.094713e+01	5.465340e+01
1.620000e-06	1.419054e-06	8.394510e-10	1.116749e+01	5.594588e+01
1.630000e-06	1.446915e-06	8.591620e-10	1.138675e+01	5.722899e+01
1.640000e-06	1.474707e-06	8.787731e-10	1.160546e+01	5.850178e+01
1.650000e-06	1.502440e-06	8.983948e-10	1.182372e+01	5.976324e+01
1.660000e-06	1.530074e-06	9.174674e-10	1.204119e+01	6.101237e+01
1.670000e-06	1.557491e-06	9.361151e-10	1.225695e+01	6.224819e+01
1.680000e-06	1.584618e-06	9.540719e-10	1.247043e+01	6.346983e+01
1.690000e-06	1.611283e-06	9.714347e-10	1.268027e+01	6.467652e+01
1.700000e-06	1.637372e-06	9.886936e-10	1.288559e+01	6.586760e+01
1.710000e-06	1.662864e-06	1.005554e-09	1.308620e+01	6.704261e+01
1.720000e-06	1.687726e-06	1.023587e-09	1.328186e+01	6.820124e+01
1.730000e-06	1.712127e-06	1.041721e-09	1.347389e+01	6.934333e+01
1.740000e-06	1.736261e-06	1.058611e-09	1.366382e+01	7.046887e+01
1.750000e-06	1.760222e-06	1.073937e-09	1.385238e+01	7.157798e+01
1.760000e-06	1.783979e-06	1.089495e-09	1.403934e+01	7.267088e+01
1.770000e-06	1.807535e-06	1.107100e-09	1.422472e+01	7.374783e+01
1.780000e-06	1.830853e-06	1.124683e-09	1.440822e+01	7.480914e+01
1.790000e-06	1.853797e-06	1.139664e-09	1.458878e+01	7.585506e+01
1.800000e-06	1.876330e-06	1.154848e-09	1.476611e+01	7.688582e+01
1.810000e-06	1.898504e-06	1.172888e-09	1.494061e+01	7.790157e+01
1.820000e-06	1.920400e-06	1.190569e-09	1.511293e+01	7.890236e+01
1.830000e-06	1.942075e-06	1.205569e-09	1.528350e+01	7.988813e+01
1.840000e-06	1.963486e-06	1.218899e-09	1.545200e+01	8.085870e+01
1.850000e-06	1.984568e-06	1.232185e-09	1.561791e+01	8.181379e+01
1.860000e-06	2.005224e-06	1.247544e-09	1.578046e+01	8.275307e+01
1.870000e-06	2.025484e-06	1.263467e-09	1.593991e+01	8.367610e+01
1.880000e-06	2.045473e-06	1.276595e-09	1.609721e+01	8.458243e+01
1.890000e-06	2.065281e-06	1.288585e-09	1.625310e+01	8.547161e+01
1.900000e-06	2.084966e-06	1.301868e-09	1.640801e+01	8.634321e+01
1.910000e-06	2.104465e-06	1.316003e-09	1.656146e+01	8.719685e+01
1.920000e-06	2.123578e-06	1.329008e-09	1.671187e+01	8.803223e+01
1.930000e-06	2.142181e-06	1.342039e-09	1.685827e+01	8.884913e+01
1.940000e-06	2.160256e-06	1.354984e-09	1.700052e+01	8.964743e+01
1.950000e-06	2.177835e-06	1.366558e-09	1.713886e+01	9.042708e+01
1.960000e-06	2.195071e-06	1.378532e-09	1.727450e+01	9.118814e+01
1.970000e-06	2.212023e-06	1.390430e-09	1.740791e+01	9.193070e+01
1.980000e-06	2.228753e-06	1.401659e-09	1.753957e+01	9.265491e+01
1.990000e-06	2.245228e-06	1.411568e-09	1.766922e+01	9.336092e+01
2.000000e-06	2.261198e-06	1.419981e-09	1.779490e+01	9.404885e+01
2.010000e-06	2.276498e-06	1.429415e-09	1.791531e+01	9.471881e+01
2.020000e-06	2.291206e-06	1.439336e-09	1.803105e+01	9.537082e+01
2.030000e-06	2.305428e-06	1.449234e-09	1.814297e+01	9.600483e+01
2.040000e-06	2.319236e-06	1.459898e-09	1.825164e+01	9.662072e+01
2.050000e-06	2.332738e-06	1.472029e-09	1.835789e+01	9.721827e+01
2.060000e-06	2.345851e-06	1.484533e-09	1.846109e+01	9.779720e+01
2.070000e-06	2.358476e-06	1.494015e-09	1.856045e+01	9.835715e+01
2.080000e-06	2.370604e-06	1.502596e-09	1.865589e+01	9.889775e+01
2.090000e-06	2.382344e-06	1.510101e-09	1.874828e+01	9.941862e+01
2.100000e-06	2.393765e-06	1.516974e-09	1.883816e+01	9.991941e+01
2.110000e-06	2.404736e-06	1.524326e-09	1.892449e+01	1.003998e+02
2.120000e-06	2.415039e-06	1.529148e-09	1.900557e+01	1.008596e+02
2.130000e-06	2.424519e-06	1.534745e-09	1.908018e+01	1.012986e+02
2.140000e-06	2.433279e-06	1.543535e-09	1.914912e+01	1.017168e+02
2.150000e-06	2.441527e-06	1.551242e-09	1.921403e+01	1.021143e+02
2.160000e-06	2.449461e-06	1.557747e-09	1.927646e+01	1.024912e+02
2.170000e-06	2.457195e-06	1.562663e-09	1.933733e+01	1.028478e+02
2.180000e-06	2.464703e-06	1.568478e-09	1.939642e+01	1.031845e+02
2.190000e-06	2.471778e-06	1.575393e-09	1.945209e+01	1.035015e+02
2.200000e-06	2.478361e-06	1.580402e-09	1.950390e+01	1.037992e+02
2.210000e-06	2.484517e-06	1.584637e-09	1.955235e+01	1.040778e+02
2.220000e-06	2.490249e-06	1.590363e-09	1.959746e+01	1.043375e+02
2.230000e-06	2.495572e-06	1.596507e-09	1.963934e+01	1.045785e+02
2.240000e-06	2.500455e-06	1.599474e-09	1.967778e+01	1.048006e+02
2.250000e-06	2.504861e-06	1.602294e-09	1.971245e+01	1.050036e+02
2.260000e-06	2.508857e-06	1.606107e-09	1.974390e+01	1.051874e+02
2.270000e-06	2.512628e-06	1.610212e-09	1.977357e+01	1.053514e+02
2.280000e-06	2.516215e-06	1.611975e-09	1.980179e+01	1.054951e+02
2.290000e-06	2.519469e-06	1.611577e-09	1.982740e+01	1.056180e+02
2.300000e-06	2.522145e-06	1.614191e-09	1.984847e+01	1.057195e+02
2.310000e-06	2.524105e-06	1.617494e-09	1.986389e+01	1.057992e+02
2.320000e-06	2.525326e-06	1.619319e-09	1.987350e+01	1.058566e+02
2.330000e-06	2.525863e-06	1.620378e-09	1.987772e+01	1.058915e+02
2.340000e-06	2.525961e-06	1.620510e-09	1.987850e+01	1.059038e+02
2.350000e-06	2.525830e-06	1.621392e-09	1.987747e+01	1.058938e+02
2.360000e-06	2.525465e-06	1.623972e-09	1.987459e+01	1.058618e+02
2.370000e-06	2.524718e-06	1.626024e-09	1.986871e+01	1.058084e+02
2.380000e-06	2.523454e-06	1.622373e-09	1.985877e+01	1.057347e+02
2.390000e-06	2.521687e-06	1.616551e-09	1.984486e+01	1.056417e+02
2.400000e-06	2.519592e-06	1.630718e-09	1.982837e+01	1.055305e+02
2.410000e-06	2.517228e-06	1.662550e-09	1.980977e+01	1.054026e+02
2.420000e-06	2.514413e-06	1.565963e-09	1.978762e+01	1.052593e+02
2.430000e-06	2.510995e-06	1.511051e-09	1.976072e+01	1.051017e+02
2.440000e-06	2.507096e-06	1.638981e-09	1.973003e+01	1.049311e+02
2.450000e-06	2.503015e-06	1.683228e-09	1.969792e+01	1.047484e+02
2.460000e-06	2.498790e-06	1.549884e-09	1.966467e+01	1.045542e+02
2.470000e-06	2.494162e-06	1.544392e-09	1.962825e+01	1.043490e+02
2.480000e-06	2.488954e-06	1.630063e-09	1.958726e+01	1.041328e+02
2.490000e-06	2.483350e-06	1.620732e-09	1.954317e+01	1.039053e+02
2.500000e-06	2.477286e-06	1.586594e-09	1.949544e+01	1.036659e+02
2.510000e-06	2.470250e-06	1.600810e-09	1.944007e+01	1.034137e+02
2.520000e-06	2.462401e-06	1.550493e-09	1.937830e+01	1.031476e+02
2.530000e-06	2.454316e-06	1.501521e-09	1.931467e+01	1.028664e+02
2.540000e-06	2.446040e-06	1.652750e-09	1.924954e+01	1.025687e+02
2.550000e-06	2.437278e-06	1.679933e-09	1.918059e+01	1.022532e+02
2.560000e-06	2.428103e-06	1.435737e-09	1.910839e+01	1.019186e+02
2.570000e-06	2.418739e-06	1.393536e-09	1.903469e+01	1.015640e+02
2.580000e-06	2.409003e-06	1.717477e-09	1.895808e+01	1.011885e+02
2.590000e-06	2.398698e-06	1.703647e-09	1.887698e+01	1.007916e+02
2.600000e-06	2.387980e-06	1.330986e-09	1.879263e+01	1.003731e+02
2.610000e-06	2.376977e-06	1.386052e-09	1.870604e+01	9.993322e+01
2.620000e-06	2.365483e-06	1.738530e-09	1.861558e+01	9.947243e+01
2.630000e-06	2.353468e-06	1.600587e-09	1.852103e+01	9.899156e+01
2.640000e-06	2.341108e-06	1.295420e-09	1.842376e+01	9.849167e+01
2.650000e-06	2.328300e-06	1.480676e-09	1.832297e+01	9.797404e+01
2.660000e-06	2.314755e-06	1.656534e-09	1.821638e+01	9.744005e+01
2.670000e-06	2.300437e-06	1.433298e-09	1.810369e+01	9.689109e+01
2.680000e-06	2.285465e-06	1.367958e-09	1.798587e+01	9.632855e+01
2.690000e-06	2.269918e-06	1.558418e-09	1.786352e+01	9.575365e+01
2.700000e-06	2.253974e-06	1.492050e-09	1.773805e+01	9.516742e+01
2.710000e-06	2.237814e-06	1.343494e-09	1.761087e+01	9.457066e+01
2.720000e-06	2.221479e-06	1.455752e-09	1.748232e+01	9.396386e+01
2.730000e-06	2.204902e-06	1.519086e-09	1.735187e+01	9.334723e+01
2.740000e-06	2.187903e-06	1.386160e-09	1.721809e+01	9.272067e+01
2.750000e-06	2.170355e-06	1.351172e-09	1.707999e+01	9.208382e+01
2.760000e-06	2.152398e-06	1.437396e-09	1.693868e+01	9.143609e+01
2.770000e-06	2.134128e-06	1.439331e-09	1.679490e+01	9.077670e+01
2.780000e-06	2.115581e-06	1.362706e-09	1.664894e+01	9.010478e+01
2.790000e-06	2.096753e-06	1.329381e-09	1.650077e+01	8.941944e+01
2.800000e-06	2.077500e-06	1.377347e-09	1.634926e+01	8.871978e+01
2.810000e-06	2.057819e-06	1.391605e-09	1.619437e+01	8.800504e+01
2.820000e-06	2.037863e-06	1.314571e-09	1.603732e+01	8.727459e+01
2.830000e-06	2.017767e-06	1.302556e-09	1.587917e+01	8.652800e+01
2.840000e-06	1.997527e-06	1.355541e-09	1.571989e+01	8.576508e+01
2.850000e-06	1.977018e-06	1.308666e-09	1.555849e+01	8.498584e+01
2.860000e-06	1.956135e-06	1.264087e-09	1.539415e+01	8.419053e+01
2.870000e-06	1.934716e-06	1.310209e-09	1.522559e+01	8.337960e+01
2.880000e-06	1.912666e-06	1.289622e-09	1.505206e+01	8.255364e+01
2.890000e-06	1.889966e-06	1.227519e-09	1.487342e+01	8.171338e+01
2.900000e-06	1.866701e-06	1.252349e-09	1.469033e+01	8.085957e+01
2.910000e-06	1.843059e-06	1.264732e-09	1.450428e+01	7.999298e+01
2.920000e-06	1.819156e-06	1.205032e-09	1.431617e+01	7.911433e+01
2.930000e-06	1.795077e-06	1.184169e-09	1.412667e+01	7.822422e+01
2.940000e-06	1.770848e-06	1.207798e-09	1.393600e+01	7.732311e+01
2.950000e-06	1.746450e-06	1.198121e-09	1.374400e+01	7.641130e+01
