# Temperatura_=_20.0
# Concentracion g/m^3_=_12600.0
# C_Vs_to_Am_M_A/Vsm_=_65563218390.804596
# pendiente_HvsI_1/m_=_3716.3
# ordenada_HvsI_A/m_=_1297.0
# frecuencia_Hz_=_213017.5562854655

Tiempo_(s)	Campo_(V.s)	Magnetizacion_(V.s)	Campo_(kA/m)	Magnetizacion_(A/m)
0.000000e+00	-2.520486e-06	-1.510401e-09	-1.983032e+01	-9.957527e+01
1.000000e-08	-2.520648e-06	-1.510839e-09	-1.983159e+01	-9.955924e+01
2.000000e-08	-2.520488e-06	-1.509087e-09	-1.983033e+01	-9.952495e+01
3.000000e-08	-2.519833e-06	-1.507369e-09	-1.982518e+01	-9.947291e+01
4.000000e-08	-2.518607e-06	-1.505427e-09	-1.981553e+01	-9.940362e+01
5.000000e-08	-2.516747e-06	-1.504316e-09	-1.980090e+01	-9.931759e+01
6.000000e-08	-2.514221e-06	-1.509849e-09	-1.978103e+01	-9.921535e+01
7.000000e-08	-2.511103e-06	-1.507781e-09	-1.975649e+01	-9.909736e+01
8.000000e-08	-2.507514e-06	-1.484635e-09	-1.972826e+01	-9.896410e+01
9.000000e-08	-2.503627e-06	-1.475074e-09	-1.969768e+01	-9.881599e+01
1.000000e-07	-2.499481e-06	-1.516076e-09	-1.966505e+01	-9.865341e+01
1.100000e-07	-2.494917e-06	-1.523275e-09	-1.962914e+01	-9.847666e+01
1.200000e-07	-2.489881e-06	-1.486955e-09	-1.958952e+01	-9.828602e+01
1.300000e-07	-2.484474e-06	-1.460077e-09	-1.954699e+01	-9.808167e+01
1.400000e-07	-2.478599e-06	-1.486714e-09	-1.950076e+01	-9.786372e+01
1.500000e-07	-2.472159e-06	-1.502763e-09	-1.945010e+01	-9.763221e+01
1.600000e-07	-2.465237e-06	-1.489383e-09	-1.939563e+01	-9.738712e+01
1.700000e-07	-2.458045e-06	-1.483420e-09	-1.933905e+01	-9.712835e+01
1.800000e-07	-2.450574e-06	-1.441091e-09	-1.928027e+01	-9.685574e+01
1.900000e-07	-2.442675e-06	-1.439587e-09	-1.921812e+01	-9.656907e+01
2.000000e-07	-2.434512e-06	-1.490191e-09	-1.915390e+01	-9.626812e+01
2.100000e-07	-2.426004e-06	-1.511729e-09	-1.908696e+01	-9.595260e+01
2.200000e-07	-2.416864e-06	-1.422231e-09	-1.901505e+01	-9.562227e+01
2.300000e-07	-2.406935e-06	-1.373473e-09	-1.893694e+01	-9.527687e+01
2.400000e-07	-2.396315e-06	-1.464306e-09	-1.885338e+01	-9.491619e+01
2.500000e-07	-2.385228e-06	-1.502590e-09	-1.876615e+01	-9.454010e+01
2.600000e-07	-2.373714e-06	-1.419186e-09	-1.867557e+01	-9.414852e+01
2.700000e-07	-2.361754e-06	-1.372966e-09	-1.858146e+01	-9.374146e+01
2.800000e-07	-2.349378e-06	-1.419560e-09	-1.848409e+01	-9.331905e+01
2.900000e-07	-2.336539e-06	-1.432799e-09	-1.838308e+01	-9.288151e+01
3.000000e-07	-2.323182e-06	-1.408283e-09	-1.827800e+01	-9.242917e+01
3.100000e-07	-2.309406e-06	-1.411842e-09	-1.816961e+01	-9.196244e+01
3.200000e-07	-2.295167e-06	-1.381884e-09	-1.805758e+01	-9.148184e+01
3.300000e-07	-2.280396e-06	-1.333816e-09	-1.794137e+01	-9.098793e+01
3.400000e-07	-2.265043e-06	-1.377430e-09	-1.782058e+01	-9.048132e+01
3.500000e-07	-2.249113e-06	-1.428867e-09	-1.769524e+01	-8.996262e+01
3.600000e-07	-2.232753e-06	-1.358755e-09	-1.756653e+01	-8.943245e+01
3.700000e-07	-2.215925e-06	-1.273614e-09	-1.743413e+01	-8.889133e+01
3.800000e-07	-2.198723e-06	-1.322402e-09	-1.729879e+01	-8.833974e+01
3.900000e-07	-2.181294e-06	-1.394204e-09	-1.716167e+01	-8.777801e+01
4.000000e-07	-2.163539e-06	-1.343927e-09	-1.702198e+01	-8.720637e+01
4.100000e-07	-2.145307e-06	-1.259504e-09	-1.687854e+01	-8.662486e+01
4.200000e-07	-2.126585e-06	-1.258748e-09	-1.673123e+01	-8.603336e+01
4.300000e-07	-2.107518e-06	-1.314009e-09	-1.658122e+01	-8.543159e+01
4.400000e-07	-2.088151e-06	-1.325052e-09	-1.642885e+01	-8.481909e+01
4.500000e-07	-2.068496e-06	-1.269804e-09	-1.627421e+01	-8.419524e+01
4.600000e-07	-2.048628e-06	-1.220700e-09	-1.611790e+01	-8.355929e+01
4.700000e-07	-2.028579e-06	-1.229074e-09	-1.596016e+01	-8.291038e+01
4.800000e-07	-2.008235e-06	-1.268488e-09	-1.580010e+01	-8.224757e+01
4.900000e-07	-1.987502e-06	-1.262384e-09	-1.563698e+01	-8.156991e+01
5.000000e-07	-1.966428e-06	-1.200886e-09	-1.547118e+01	-8.087641e+01
5.100000e-07	-1.945034e-06	-1.164117e-09	-1.530285e+01	-8.016617e+01
5.200000e-07	-1.923301e-06	-1.192128e-09	-1.513187e+01	-7.943836e+01
5.300000e-07	-1.901235e-06	-1.221423e-09	-1.495826e+01	-7.869225e+01
5.400000e-07	-1.878897e-06	-1.185814e-09	-1.478251e+01	-7.792730e+01
5.500000e-07	-1.856203e-06	-1.131485e-09	-1.460396e+01	-7.714311e+01
5.600000e-07	-1.833042e-06	-1.130188e-09	-1.442174e+01	-7.633951e+01
5.700000e-07	-1.809581e-06	-1.151699e-09	-1.423716e+01	-7.551651e+01
5.800000e-07	-1.785985e-06	-1.142158e-09	-1.405152e+01	-7.467432e+01
5.900000e-07	-1.762225e-06	-1.106299e-09	-1.386458e+01	-7.381337e+01
6.000000e-07	-1.738230e-06	-1.081382e-09	-1.367580e+01	-7.293426e+01
6.100000e-07	-1.713928e-06	-1.077689e-09	-1.348459e+01	-7.203774e+01
6.200000e-07	-1.689358e-06	-1.075504e-09	-1.329129e+01	-7.112470e+01
6.300000e-07	-1.664440e-06	-1.066895e-09	-1.309524e+01	-7.019615e+01
6.400000e-07	-1.639009e-06	-1.047304e-09	-1.289516e+01	-6.925316e+01
6.500000e-07	-1.612985e-06	-1.021313e-09	-1.269041e+01	-6.829684e+01
6.600000e-07	-1.586375e-06	-1.006882e-09	-1.248105e+01	-6.732830e+01
6.700000e-07	-1.559395e-06	-1.006110e-09	-1.226878e+01	-6.634865e+01
6.800000e-07	-1.532158e-06	-1.000149e-09	-1.205449e+01	-6.535892e+01
6.900000e-07	-1.504702e-06	-9.737140e-10	-1.183848e+01	-6.436008e+01
7.000000e-07	-1.477052e-06	-9.444014e-10	-1.162094e+01	-6.335302e+01
7.100000e-07	-1.449246e-06	-9.338277e-10	-1.140217e+01	-6.233851e+01
7.200000e-07	-1.421329e-06	-9.334027e-10	-1.118253e+01	-6.131719e+01
7.300000e-07	-1.393238e-06	-9.224961e-10	-1.096152e+01	-6.028958e+01
7.400000e-07	-1.364907e-06	-8.934640e-10	-1.073862e+01	-5.925610e+01
7.500000e-07	-1.336302e-06	-8.690648e-10	-1.051356e+01	-5.821700e+01
7.600000e-07	-1.307429e-06	-8.641495e-10	-1.028640e+01	-5.717243e+01
7.700000e-07	-1.278326e-06	-8.598916e-10	-1.005743e+01	-5.612242e+01
7.800000e-07	-1.249007e-06	-8.414061e-10	-9.826758e+00	-5.506689e+01
7.900000e-07	-1.219480e-06	-8.152957e-10	-9.594450e+00	-5.400565e+01
8.000000e-07	-1.189787e-06	-7.994219e-10	-9.360836e+00	-5.293843e+01
8.100000e-07	-1.159951e-06	-7.921317e-10	-9.126091e+00	-5.186486e+01
8.200000e-07	-1.129930e-06	-7.805441e-10	-8.889897e+00	-5.078453e+01
8.300000e-07	-1.099696e-06	-7.626401e-10	-8.652029e+00	-4.969695e+01
8.400000e-07	-1.069236e-06	-7.416340e-10	-8.412379e+00	-4.860160e+01
8.500000e-07	-1.038581e-06	-7.227255e-10	-8.171199e+00	-4.749796e+01
8.600000e-07	-1.007758e-06	-7.075499e-10	-7.928693e+00	-4.638545e+01
8.700000e-07	-9.767852e-07	-6.941402e-10	-7.685009e+00	-4.526356e+01
8.800000e-07	-9.456713e-07	-6.760362e-10	-7.440216e+00	-4.413176e+01
8.900000e-07	-9.144010e-07	-6.513095e-10	-7.194192e+00	-4.298960e+01
9.000000e-07	-8.829970e-07	-6.298071e-10	-6.947116e+00	-4.183668e+01
9.100000e-07	-8.514599e-07	-6.153670e-10	-6.698993e+00	-4.067269e+01
9.200000e-07	-8.197894e-07	-6.030911e-10	-6.449820e+00	-3.949742e+01
9.300000e-07	-7.880374e-07	-5.850180e-10	-6.200007e+00	-3.831077e+01
9.400000e-07	-7.562283e-07	-5.587441e-10	-5.949743e+00	-3.711275e+01
9.500000e-07	-7.243362e-07	-5.356115e-10	-5.698827e+00	-3.590351e+01
9.600000e-07	-6.923468e-07	-5.213153e-10	-5.447146e+00	-3.468332e+01
9.700000e-07	-6.602415e-07	-5.084036e-10	-5.194552e+00	-3.345257e+01
9.800000e-07	-6.280660e-07	-4.855824e-10	-4.941407e+00	-3.221176e+01
9.900000e-07	-5.958759e-07	-4.554406e-10	-4.688146e+00	-3.096148e+01
1.000000e-06	-5.636021e-07	-4.329562e-10	-4.434227e+00	-2.970239e+01
1.010000e-06	-5.311332e-07	-4.210574e-10	-4.178773e+00	-2.843521e+01
1.020000e-06	-4.984997e-07	-4.087104e-10	-3.922023e+00	-2.716066e+01
1.030000e-06	-4.658287e-07	-3.863643e-10	-3.664980e+00	-2.587947e+01
1.040000e-06	-4.330781e-07	-3.583397e-10	-3.407309e+00	-2.459232e+01
1.050000e-06	-4.001630e-07	-3.388357e-10	-3.148345e+00	-2.329981e+01
1.060000e-06	-3.671504e-07	-3.271036e-10	-2.888612e+00	-2.200248e+01
1.070000e-06	-3.340505e-07	-3.096809e-10	-2.628194e+00	-2.070073e+01
1.080000e-06	-3.008567e-07	-2.824545e-10	-2.367036e+00	-1.939486e+01
1.090000e-06	-2.675954e-07	-2.551386e-10	-2.105349e+00	-1.808502e+01
1.100000e-06	-2.342227e-07	-2.398207e-10	-1.842783e+00	-1.677125e+01
1.110000e-06	-2.007774e-07	-2.295062e-10	-1.579647e+00	-1.545345e+01
1.120000e-06	-1.672800e-07	-2.102593e-10	-1.316101e+00	-1.413143e+01
1.130000e-06	-1.337008e-07	-1.815818e-10	-1.051912e+00	-1.280492e+01
1.140000e-06	-1.000547e-07	-1.569198e-10	-7.871956e-01	-1.147359e+01
1.150000e-06	-6.635688e-08	-1.431896e-10	-5.220731e-01	-1.013710e+01
1.160000e-06	-3.268481e-08	-1.278367e-10	-2.571528e-01	-8.795113e+00
1.170000e-06	8.987974e-10	-1.017719e-10	7.071428e-03	-7.447353e+00
1.180000e-06	3.451588e-08	-7.390219e-11	2.715591e-01	-6.093624e+00
1.190000e-06	6.821473e-08	-5.552172e-11	5.366900e-01	-4.733845e+00
1.200000e-06	1.019287e-07	-4.312286e-11	8.019396e-01	-3.368069e+00
1.210000e-06	1.356267e-07	-2.438150e-11	1.067064e+00	-1.996506e+00
1.220000e-06	1.692737e-07	1.312116e-12	1.331787e+00	-6.195266e-01
1.230000e-06	2.028589e-07	2.503943e-11	1.596024e+00	7.623323e-01
1.240000e-06	2.363298e-07	4.327600e-11	1.859361e+00	2.148379e+00
1.250000e-06	2.696620e-07	5.934509e-11	2.121608e+00	3.537782e+00
1.260000e-06	3.028628e-07	7.939362e-11	2.382820e+00	4.929593e+00
1.270000e-06	3.359727e-07	1.037856e-10	2.643318e+00	6.322775e+00
1.280000e-06	3.690147e-07	1.270182e-10	2.903281e+00	7.716239e+00
1.290000e-06	4.019315e-07	1.436685e-10	3.162258e+00	9.108877e+00
1.300000e-06	4.347356e-07	1.580100e-10	3.420350e+00	1.049960e+01
1.310000e-06	4.674515e-07	1.784415e-10	3.677747e+00	1.188737e+01
1.320000e-06	5.000178e-07	2.031153e-10	3.933968e+00	1.327124e+01
1.330000e-06	5.324197e-07	2.246259e-10	4.188895e+00	1.465037e+01
1.340000e-06	5.646848e-07	2.414858e-10	4.442745e+00	1.602406e+01
1.350000e-06	5.968629e-07	2.588480e-10	4.695911e+00	1.739176e+01
1.360000e-06	6.290038e-07	2.808639e-10	4.948785e+00	1.875305e+01
1.370000e-06	6.610794e-07	3.048973e-10	5.201145e+00	2.010769e+01
1.380000e-06	6.930540e-07	3.264064e-10	5.452710e+00	2.145558e+01
1.390000e-06	7.249320e-07	3.421185e-10	5.703515e+00	2.279676e+01
1.400000e-06	7.567790e-07	3.572426e-10	5.954076e+00	2.413136e+01
1.410000e-06	7.886197e-07	3.788072e-10	6.204588e+00	2.545963e+01
1.420000e-06	8.203934e-07	4.032341e-10	6.454572e+00	2.678188e+01
1.430000e-06	8.520900e-07	4.235372e-10	6.703950e+00	2.809845e+01
1.440000e-06	8.836903e-07	4.383488e-10	6.952570e+00	2.940971e+01
1.450000e-06	9.151620e-07	4.559833e-10	7.200179e+00	3.071603e+01
1.460000e-06	9.465182e-07	4.789846e-10	7.446879e+00	3.201774e+01
1.470000e-06	9.777097e-07	5.018205e-10	7.692283e+00	3.331514e+01
1.480000e-06	1.008637e-06	5.186632e-10	7.935605e+00	3.460847e+01
1.490000e-06	1.039335e-06	5.314004e-10	8.177126e+00	3.589789e+01
1.500000e-06	1.069821e-06	5.497839e-10	8.416980e+00	3.718350e+01
1.510000e-06	1.100059e-06	5.746845e-10	8.654884e+00	3.846534e+01
1.520000e-06	1.130120e-06	5.970301e-10	8.891395e+00	3.974334e+01
1.530000e-06	1.160044e-06	6.134667e-10	9.126828e+00	4.101737e+01
1.540000e-06	1.189829e-06	6.303079e-10	9.361167e+00	4.228725e+01
1.550000e-06	1.219489e-06	6.521551e-10	9.594520e+00	4.355270e+01
1.560000e-06	1.248986e-06	6.750186e-10	9.826592e+00	4.481340e+01
1.570000e-06	1.278258e-06	6.933844e-10	1.005689e+01	4.606897e+01
1.580000e-06	1.307265e-06	7.080282e-10	1.028511e+01	4.731897e+01
1.590000e-06	1.336030e-06	7.235950e-10	1.051142e+01	4.856292e+01
1.600000e-06	1.364579e-06	7.439237e-10	1.073604e+01	4.980028e+01
1.610000e-06	1.392885e-06	7.655583e-10	1.095874e+01	5.103048e+01
1.620000e-06	1.420998e-06	7.845529e-10	1.117992e+01	5.225292e+01
1.630000e-06	1.448970e-06	8.007296e-10	1.140000e+01	5.346694e+01
1.640000e-06	1.476812e-06	8.177416e-10	1.161905e+01	5.467189e+01
1.650000e-06	1.504530e-06	8.385918e-10	1.183712e+01	5.586708e+01
1.660000e-06	1.532064e-06	8.593413e-10	1.205375e+01	5.705182e+01
1.670000e-06	1.559307e-06	8.759100e-10	1.226809e+01	5.822542e+01
1.680000e-06	1.586222e-06	8.902059e-10	1.247985e+01	5.938721e+01
1.690000e-06	1.612733e-06	9.063595e-10	1.268843e+01	6.053655e+01
1.700000e-06	1.638710e-06	9.240853e-10	1.289281e+01	6.167284e+01
1.710000e-06	1.664148e-06	9.407233e-10	1.309294e+01	6.279556e+01
1.720000e-06	1.689066e-06	9.553274e-10	1.328899e+01	6.390422e+01
1.730000e-06	1.713540e-06	9.682353e-10	1.348154e+01	6.499846e+01
1.740000e-06	1.737759e-06	9.818684e-10	1.367208e+01	6.607797e+01
1.750000e-06	1.761773e-06	9.999493e-10	1.386103e+01	6.714255e+01
1.760000e-06	1.785581e-06	1.019836e-09	1.404834e+01	6.819208e+01
1.770000e-06	1.809182e-06	1.036818e-09	1.423402e+01	6.922653e+01
1.780000e-06	1.832468e-06	1.050749e-09	1.441723e+01	7.024595e+01
1.790000e-06	1.855359e-06	1.065457e-09	1.459732e+01	7.125044e+01
1.800000e-06	1.877907e-06	1.083172e-09	1.477473e+01	7.224014e+01
1.810000e-06	1.900184e-06	1.100383e-09	1.494999e+01	7.321522e+01
1.820000e-06	1.922162e-06	1.113597e-09	1.512290e+01	7.417582e+01
1.830000e-06	1.943832e-06	1.125059e-09	1.529340e+01	7.512207e+01
1.840000e-06	1.965182e-06	1.137216e-09	1.546137e+01	7.605404e+01
1.850000e-06	1.986133e-06	1.150054e-09	1.562621e+01	7.697171e+01
1.860000e-06	2.006683e-06	1.163358e-09	1.578789e+01	7.787500e+01
1.870000e-06	2.026943e-06	1.176080e-09	1.594729e+01	7.876370e+01
1.880000e-06	2.046995e-06	1.187601e-09	1.610505e+01	7.963749e+01
1.890000e-06	2.066878e-06	1.200154e-09	1.626148e+01	8.049596e+01
1.900000e-06	2.086536e-06	1.214934e-09	1.641615e+01	8.133859e+01
1.910000e-06	2.105875e-06	1.228824e-09	1.656830e+01	8.216477e+01
1.920000e-06	2.124830e-06	1.241393e-09	1.671743e+01	8.297382e+01
1.930000e-06	2.143337e-06	1.253832e-09	1.686304e+01	8.376503e+01
1.940000e-06	2.161339e-06	1.266349e-09	1.700467e+01	8.453768e+01
1.950000e-06	2.178927e-06	1.277973e-09	1.714305e+01	8.529107e+01
1.960000e-06	2.196251e-06	1.288418e-09	1.727934e+01	8.602452e+01
1.970000e-06	2.213252e-06	1.297550e-09	1.741310e+01	8.673748e+01
1.980000e-06	2.229939e-06	1.306961e-09	1.754439e+01	8.742948e+01
1.990000e-06	2.246309e-06	1.317537e-09	1.767319e+01	8.810018e+01
2.000000e-06	2.262200e-06	1.327057e-09	1.779821e+01	8.874937e+01
2.010000e-06	2.277440e-06	1.334856e-09	1.791811e+01	8.937703e+01
2.020000e-06	2.292042e-06	1.343099e-09	1.803300e+01	8.998325e+01
2.030000e-06	2.306272e-06	1.353352e-09	1.814495e+01	9.056829e+01
2.040000e-06	2.320166e-06	1.364469e-09	1.825426e+01	9.113254e+01
2.050000e-06	2.333626e-06	1.375825e-09	1.836016e+01	9.167648e+01
2.060000e-06	2.346609e-06	1.384801e-09	1.846231e+01	9.220070e+01
2.070000e-06	2.359168e-06	1.391323e-09	1.856112e+01	9.270582e+01
2.080000e-06	2.371378e-06	1.398886e-09	1.865719e+01	9.319248e+01
2.090000e-06	2.383186e-06	1.407746e-09	1.875008e+01	9.366133e+01
2.100000e-06	2.394603e-06	1.416872e-09	1.883991e+01	9.411296e+01
2.110000e-06	2.405411e-06	1.424172e-09	1.892494e+01	9.454789e+01
2.120000e-06	2.415434e-06	1.430305e-09	1.900380e+01	9.496654e+01
2.130000e-06	2.424798e-06	1.437265e-09	1.907748e+01	9.536925e+01
2.140000e-06	2.433659e-06	1.443331e-09	1.914719e+01	9.575619e+01
2.150000e-06	2.442129e-06	1.449681e-09	1.921383e+01	9.612742e+01
2.160000e-06	2.450260e-06	1.456191e-09	1.927780e+01	9.648289e+01
2.170000e-06	2.458097e-06	1.462154e-09	1.933946e+01	9.682241e+01
2.180000e-06	2.465515e-06	1.467902e-09	1.939782e+01	9.714569e+01
2.190000e-06	2.472488e-06	1.473969e-09	1.945268e+01	9.745236e+01
2.200000e-06	2.479087e-06	1.480589e-09	1.950460e+01	9.774196e+01
2.210000e-06	2.485244e-06	1.486431e-09	1.955305e+01	9.801402e+01
2.220000e-06	2.490924e-06	1.491347e-09	1.959773e+01	9.826804e+01
2.230000e-06	2.496199e-06	1.494996e-09	1.963923e+01	9.850352e+01
2.240000e-06	2.501069e-06	1.498434e-09	1.967755e+01	9.871999e+01
2.250000e-06	2.505522e-06	1.502806e-09	1.971258e+01	9.891705e+01
2.260000e-06	2.509636e-06	1.506766e-09	1.974495e+01	9.909435e+01
2.270000e-06	2.513447e-06	1.509098e-09	1.977493e+01	9.925161e+01
2.280000e-06	2.516970e-06	1.509515e-09	1.980265e+01	9.938865e+01
2.290000e-06	2.520056e-06	1.511576e-09	1.982693e+01	9.950538e+01
2.300000e-06	2.522566e-06	1.516774e-09	1.984668e+01	9.960181e+01
2.310000e-06	2.524438e-06	1.520530e-09	1.986141e+01	9.967803e+01
2.320000e-06	2.525648e-06	1.520863e-09	1.987093e+01	9.973423e+01
2.330000e-06	2.526332e-06	1.519295e-09	1.987631e+01	9.977066e+01
2.340000e-06	2.526611e-06	1.519171e-09	1.987850e+01	9.978766e+01
2.350000e-06	2.526543e-06	1.521452e-09	1.987797e+01	9.978562e+01
2.360000e-06	2.526158e-06	1.522488e-09	1.987494e+01	9.976497e+01
2.370000e-06	2.525351e-06	1.521064e-09	1.986859e+01	9.972619e+01
2.380000e-06	2.524046e-06	1.521539e-09	1.985832e+01	9.966978e+01
2.390000e-06	2.522316e-06	1.522570e-09	1.984471e+01	9.959626e+01
2.400000e-06	2.520247e-06	1.514977e-09	1.982844e+01	9.950613e+01
2.410000e-06	2.517811e-06	1.511552e-09	1.980927e+01	9.939990e+01
2.420000e-06	2.514871e-06	1.525718e-09	1.978614e+01	9.927805e+01
2.430000e-06	2.511423e-06	1.537644e-09	1.975901e+01	9.914103e+01
2.440000e-06	2.507643e-06	1.498155e-09	1.972927e+01	9.898927e+01
2.450000e-06	2.503622e-06	1.490464e-09	1.969763e+01	9.882311e+01
2.460000e-06	2.499221e-06	1.513592e-09	1.966301e+01	9.864286e+01
2.470000e-06	2.494357e-06	1.514163e-09	1.962474e+01	9.844877e+01
2.480000e-06	2.489091e-06	1.499619e-09	1.958331e+01	9.824101e+01
2.490000e-06	2.483333e-06	1.490504e-09	1.953801e+01	9.801966e+01
2.500000e-06	2.476865e-06	1.489691e-09	1.948712e+01	9.778477e+01
2.510000e-06	2.469651e-06	1.480712e-09	1.943036e+01	9.753626e+01
2.520000e-06	2.462021e-06	1.503479e-09	1.937033e+01	9.727404e+01
2.530000e-06	2.454159e-06	1.505060e-09	1.930848e+01	9.699793e+01
2.540000e-06	2.445867e-06	1.455780e-09	1.924324e+01	9.670772e+01
2.550000e-06	2.437109e-06	1.431206e-09	1.917433e+01	9.640314e+01
2.560000e-06	2.427989e-06	1.495910e-09	1.910258e+01	9.608394e+01
2.570000e-06	2.418525e-06	1.515783e-09	1.902812e+01	9.574986e+01
2.580000e-06	2.408637e-06	1.434866e-09	1.895033e+01	9.540065e+01
2.590000e-06	2.398334e-06	1.409951e-09	1.886927e+01	9.503613e+01
2.600000e-06	2.387672e-06	1.472495e-09	1.878538e+01	9.465616e+01
2.610000e-06	2.376493e-06	1.473956e-09	1.869743e+01	9.426070e+01
2.620000e-06	2.364818e-06	1.416553e-09	1.860557e+01	9.384979e+01
2.630000e-06	2.352815e-06	1.426929e-09	1.851113e+01	9.342357e+01
2.640000e-06	2.340371e-06	1.441247e-09	1.841323e+01	9.298229e+01
2.650000e-06	2.327302e-06	1.391955e-09	1.831041e+01	9.252630e+01
2.660000e-06	2.313592e-06	1.397354e-09	1.820255e+01	9.205605e+01
2.670000e-06	2.299239e-06	1.453865e-09	1.808962e+01	9.157206e+01
2.680000e-06	2.284251e-06	1.401972e-09	1.797170e+01	9.107491e+01
2.690000e-06	2.268774e-06	1.317529e-09	1.784993e+01	9.056522e+01
2.700000e-06	2.253014e-06	1.376840e-09	1.772593e+01	9.004359e+01
2.710000e-06	2.237020e-06	1.445889e-09	1.760011e+01	8.951063e+01
2.720000e-06	2.220743e-06	1.366181e-09	1.747204e+01	8.896685e+01
2.730000e-06	2.204050e-06	1.288855e-09	1.734071e+01	8.841269e+01
2.740000e-06	2.186881e-06	1.344225e-09	1.720562e+01	8.784847e+01
2.750000e-06	2.169360e-06	1.394306e-09	1.706777e+01	8.727436e+01
2.760000e-06	2.151500e-06	1.341893e-09	1.692726e+01	8.669036e+01
2.770000e-06	2.133238e-06	1.288182e-09	1.678358e+01	8.609633e+01
2.780000e-06	2.114604e-06	1.296391e-09	1.663698e+01	8.549192e+01
2.790000e-06	2.095627e-06	1.320070e-09	1.648767e+01	8.487664e+01
2.800000e-06	2.076271e-06	1.310923e-09	1.633538e+01	8.424983e+01
2.810000e-06	2.056578e-06	1.281534e-09	1.618045e+01	8.361072e+01
2.820000e-06	2.036663e-06	1.263781e-09	1.602376e+01	8.295842e+01
2.830000e-06	2.016562e-06	1.259227e-09	1.586561e+01	8.229199e+01
2.840000e-06	1.996226e-06	1.262166e-09	1.570562e+01	8.161045e+01
2.850000e-06	1.975615e-06	1.258983e-09	1.554345e+01	8.091285e+01
2.860000e-06	1.954619e-06	1.231655e-09	1.537827e+01	8.019829e+01
2.870000e-06	1.933001e-06	1.207811e-09	1.520819e+01	7.946595e+01
2.880000e-06	1.910702e-06	1.213427e-09	1.503275e+01	7.871518e+01
2.890000e-06	1.887892e-06	1.217327e-09	1.485328e+01	7.794544e+01
2.900000e-06	1.864639e-06	1.192357e-09	1.467033e+01	7.715641e+01
2.910000e-06	1.841068e-06	1.170903e-09	1.448489e+01	7.634794e+01
2.920000e-06	1.817264e-06	1.167058e-09	1.429761e+01	7.552011e+01
2.930000e-06	1.793235e-06	1.156353e-09	1.410856e+01	7.467318e+01
2.940000e-06	1.769017e-06	1.138217e-09	1.391801e+01	7.380762e+01
2.950000e-06	1.744518e-06	1.124329e-09	1.372526e+01	7.292407e+01
