# Temperatura_=_20.0
# Concentracion g/m^3_=_12600.0
# C_Vs_to_Am_M_A/Vsm_=_65563218390.804596
# pendiente_HvsI_1/m_=_3716.3
# ordenada_HvsI_A/m_=_1297.0
# frecuencia_Hz_=_213021.7505824335

Tiempo_(s)	Campo_(V.s)	Magnetizacion_(V.s)	Campo_(kA/m)	Magnetizacion_(A/m)
0.000000e+00	-2.521331e-06	-1.645144e-09	-1.983448e+01	-1.078137e+02
1.000000e-08	-2.521531e-06	-1.642470e-09	-1.983605e+01	-1.077756e+02
2.000000e-08	-2.521458e-06	-1.639560e-09	-1.983548e+01	-1.077136e+02
3.000000e-08	-2.521018e-06	-1.639211e-09	-1.983202e+01	-1.076283e+02
4.000000e-08	-2.520006e-06	-1.638847e-09	-1.982406e+01	-1.075210e+02
5.000000e-08	-2.518283e-06	-1.631946e-09	-1.981050e+01	-1.073926e+02
6.000000e-08	-2.515827e-06	-1.607593e-09	-1.979118e+01	-1.072448e+02
7.000000e-08	-2.512715e-06	-1.601730e-09	-1.976670e+01	-1.070788e+02
8.000000e-08	-2.509143e-06	-1.671938e-09	-1.973860e+01	-1.068964e+02
9.000000e-08	-2.505303e-06	-1.689735e-09	-1.970839e+01	-1.066991e+02
1.000000e-07	-2.501316e-06	-1.599364e-09	-1.967703e+01	-1.064884e+02
1.100000e-07	-2.496988e-06	-1.526706e-09	-1.964298e+01	-1.062657e+02
1.200000e-07	-2.492095e-06	-1.640811e-09	-1.960449e+01	-1.060324e+02
1.300000e-07	-2.486730e-06	-1.691529e-09	-1.956228e+01	-1.057893e+02
1.400000e-07	-2.481069e-06	-1.610491e-09	-1.951775e+01	-1.055372e+02
1.500000e-07	-2.474932e-06	-1.551617e-09	-1.946947e+01	-1.052763e+02
1.600000e-07	-2.468134e-06	-1.540756e-09	-1.941600e+01	-1.050067e+02
1.700000e-07	-2.460982e-06	-1.585154e-09	-1.935973e+01	-1.047279e+02
1.800000e-07	-2.453648e-06	-1.641721e-09	-1.930203e+01	-1.044392e+02
1.900000e-07	-2.445948e-06	-1.662577e-09	-1.924147e+01	-1.041395e+02
2.000000e-07	-2.437834e-06	-1.502855e-09	-1.917763e+01	-1.038275e+02
2.100000e-07	-2.429402e-06	-1.450595e-09	-1.911130e+01	-1.035018e+02
2.200000e-07	-2.420519e-06	-1.632586e-09	-1.904143e+01	-1.031606e+02
2.300000e-07	-2.410814e-06	-1.711018e-09	-1.896508e+01	-1.028024e+02
2.400000e-07	-2.400205e-06	-1.498135e-09	-1.888162e+01	-1.024256e+02
2.500000e-07	-2.389028e-06	-1.389152e-09	-1.879369e+01	-1.020290e+02
2.600000e-07	-2.377508e-06	-1.592353e-09	-1.870307e+01	-1.016114e+02
2.700000e-07	-2.365615e-06	-1.670443e-09	-1.860951e+01	-1.011721e+02
2.800000e-07	-2.353341e-06	-1.481950e-09	-1.851296e+01	-1.007106e+02
2.900000e-07	-2.340584e-06	-1.425522e-09	-1.841260e+01	-1.002272e+02
3.000000e-07	-2.327295e-06	-1.551627e-09	-1.830806e+01	-9.972211e+01
3.100000e-07	-2.313610e-06	-1.559405e-09	-1.820041e+01	-9.919626e+01
3.200000e-07	-2.299570e-06	-1.473775e-09	-1.808996e+01	-9.865078e+01
3.300000e-07	-2.284970e-06	-1.479762e-09	-1.797510e+01	-9.808713e+01
3.400000e-07	-2.269647e-06	-1.499764e-09	-1.785457e+01	-9.750690e+01
3.500000e-07	-2.253731e-06	-1.450002e-09	-1.772936e+01	-9.691183e+01
3.600000e-07	-2.237286e-06	-1.454691e-09	-1.759999e+01	-9.630362e+01
3.700000e-07	-2.220403e-06	-1.486236e-09	-1.746718e+01	-9.568386e+01
3.800000e-07	-2.203227e-06	-1.447176e-09	-1.733206e+01	-9.505395e+01
3.900000e-07	-2.185798e-06	-1.402559e-09	-1.719495e+01	-9.441503e+01
4.000000e-07	-2.168086e-06	-1.422206e-09	-1.705561e+01	-9.376787e+01
4.100000e-07	-2.149988e-06	-1.442908e-09	-1.691325e+01	-9.311290e+01
4.200000e-07	-2.131382e-06	-1.401269e-09	-1.676688e+01	-9.245014e+01
4.300000e-07	-2.112321e-06	-1.368887e-09	-1.661694e+01	-9.177925e+01
4.400000e-07	-2.092966e-06	-1.392089e-09	-1.646467e+01	-9.109954e+01
4.500000e-07	-2.073380e-06	-1.394855e-09	-1.631060e+01	-9.041003e+01
4.600000e-07	-2.053591e-06	-1.351812e-09	-1.615492e+01	-8.970954e+01
4.700000e-07	-2.033604e-06	-1.330982e-09	-1.599769e+01	-8.899675e+01
4.800000e-07	-2.013380e-06	-1.352957e-09	-1.583860e+01	-8.827032e+01
4.900000e-07	-1.992810e-06	-1.340310e-09	-1.567678e+01	-8.752893e+01
5.000000e-07	-1.971843e-06	-1.296069e-09	-1.551184e+01	-8.677140e+01
5.100000e-07	-1.950509e-06	-1.294632e-09	-1.534401e+01	-8.599678e+01
5.200000e-07	-1.928867e-06	-1.301569e-09	-1.517376e+01	-8.520432e+01
5.300000e-07	-1.906975e-06	-1.277982e-09	-1.500154e+01	-8.439361e+01
5.400000e-07	-1.884751e-06	-1.262378e-09	-1.482671e+01	-8.356451e+01
5.500000e-07	-1.862128e-06	-1.257014e-09	-1.464874e+01	-8.271717e+01
5.600000e-07	-1.839104e-06	-1.234291e-09	-1.446763e+01	-8.185203e+01
5.700000e-07	-1.815717e-06	-1.214311e-09	-1.428365e+01	-8.096970e+01
5.800000e-07	-1.792154e-06	-1.222480e-09	-1.409829e+01	-8.007100e+01
5.900000e-07	-1.768466e-06	-1.209875e-09	-1.391194e+01	-7.915680e+01
6.000000e-07	-1.744547e-06	-1.166185e-09	-1.372378e+01	-7.822801e+01
6.100000e-07	-1.720357e-06	-1.150689e-09	-1.353348e+01	-7.728550e+01
6.200000e-07	-1.695866e-06	-1.166814e-09	-1.334082e+01	-7.633002e+01
6.300000e-07	-1.670973e-06	-1.160291e-09	-1.314499e+01	-7.536219e+01
6.400000e-07	-1.645582e-06	-1.115488e-09	-1.294525e+01	-7.438244e+01
6.500000e-07	-1.619611e-06	-1.088510e-09	-1.274094e+01	-7.339102e+01
6.600000e-07	-1.593044e-06	-1.100384e-09	-1.253195e+01	-7.238800e+01
6.700000e-07	-1.566043e-06	-1.099049e-09	-1.231954e+01	-7.137327e+01
6.800000e-07	-1.538750e-06	-1.062953e-09	-1.210484e+01	-7.034663e+01
6.900000e-07	-1.511232e-06	-1.026723e-09	-1.188837e+01	-6.930777e+01
7.000000e-07	-1.483575e-06	-1.021351e-09	-1.167079e+01	-6.825638e+01
7.100000e-07	-1.455824e-06	-1.025692e-09	-1.145249e+01	-6.719219e+01
7.200000e-07	-1.427934e-06	-1.004047e-09	-1.123309e+01	-6.611503e+01
7.300000e-07	-1.399883e-06	-9.689860e-10	-1.101242e+01	-6.502482e+01
7.400000e-07	-1.371657e-06	-9.519046e-10	-1.079037e+01	-6.392171e+01
7.500000e-07	-1.343159e-06	-9.546229e-10	-1.056619e+01	-6.280598e+01
7.600000e-07	-1.314384e-06	-9.450122e-10	-1.033982e+01	-6.167813e+01
7.700000e-07	-1.285317e-06	-9.113917e-10	-1.011117e+01	-6.053879e+01
7.800000e-07	-1.255991e-06	-8.848601e-10	-9.880470e+00	-5.938874e+01
7.900000e-07	-1.226487e-06	-8.766748e-10	-9.648369e+00	-5.822884e+01
8.000000e-07	-1.196835e-06	-8.689506e-10	-9.415104e+00	-5.705996e+01
8.100000e-07	-1.167029e-06	-8.494924e-10	-9.180632e+00	-5.588292e+01
8.200000e-07	-1.137054e-06	-8.244324e-10	-8.944825e+00	-5.469846e+01
8.300000e-07	-1.106889e-06	-8.066807e-10	-8.707531e+00	-5.350712e+01
8.400000e-07	-1.076515e-06	-7.944611e-10	-8.468588e+00	-5.230924e+01
8.500000e-07	-1.046003e-06	-7.807653e-10	-8.228563e+00	-5.110491e+01
8.600000e-07	-1.015296e-06	-7.594852e-10	-7.987002e+00	-4.989394e+01
8.700000e-07	-9.843597e-07	-7.343260e-10	-7.743633e+00	-4.867589e+01
8.800000e-07	-9.532211e-07	-7.148615e-10	-7.498676e+00	-4.745008e+01
8.900000e-07	-9.219002e-07	-7.004222e-10	-7.252285e+00	-4.621561e+01
9.000000e-07	-8.904842e-07	-6.848731e-10	-7.005145e+00	-4.497148e+01
9.100000e-07	-8.589722e-07	-6.618435e-10	-6.757251e+00	-4.371661e+01
9.200000e-07	-8.273383e-07	-6.365633e-10	-6.508397e+00	-4.244993e+01
9.300000e-07	-7.956346e-07	-6.167336e-10	-6.258994e+00	-4.117048e+01
9.400000e-07	-7.638629e-07	-5.994443e-10	-6.009058e+00	-3.987747e+01
9.500000e-07	-7.320024e-07	-5.810384e-10	-5.758421e+00	-3.857038e+01
9.600000e-07	-7.000150e-07	-5.566565e-10	-5.506787e+00	-3.724897e+01
9.700000e-07	-6.679430e-07	-5.310074e-10	-5.254487e+00	-3.591334e+01
9.800000e-07	-6.357916e-07	-5.130533e-10	-5.001562e+00	-3.456394e+01
9.900000e-07	-6.035464e-07	-4.984867e-10	-4.747901e+00	-3.320154e+01
1.000000e-06	-5.712441e-07	-4.778416e-10	-4.493789e+00	-3.182725e+01
1.010000e-06	-5.388625e-07	-4.503579e-10	-4.239053e+00	-3.044238e+01
1.020000e-06	-5.063873e-07	-4.269997e-10	-3.983582e+00	-2.904845e+01
1.030000e-06	-4.737502e-07	-4.119917e-10	-3.726836e+00	-2.764704e+01
1.040000e-06	-4.409037e-07	-3.936717e-10	-3.468444e+00	-2.623976e+01
1.050000e-06	-4.078976e-07	-3.668340e-10	-3.208795e+00	-2.482809e+01
1.060000e-06	-3.748230e-07	-3.392457e-10	-2.948609e+00	-2.341338e+01
1.070000e-06	-3.416261e-07	-3.195784e-10	-2.687460e+00	-2.199670e+01
1.080000e-06	-3.083837e-07	-3.023485e-10	-2.425953e+00	-2.057882e+01
1.090000e-06	-2.750710e-07	-2.777380e-10	-2.163893e+00	-1.916019e+01
1.100000e-06	-2.416501e-07	-2.520130e-10	-1.900982e+00	-1.774092e+01
1.110000e-06	-2.082234e-07	-2.322378e-10	-1.638025e+00	-1.632078e+01
1.120000e-06	-1.747023e-07	-2.158336e-10	-1.374325e+00	-1.489927e+01
1.130000e-06	-1.410636e-07	-1.939127e-10	-1.109700e+00	-1.347566e+01
1.140000e-06	-1.073137e-07	-1.683608e-10	-8.442016e-01	-1.204906e+01
1.150000e-06	-7.348661e-08	-1.468312e-10	-5.780949e-01	-1.061853e+01
1.160000e-06	-3.972696e-08	-1.256777e-10	-3.125189e-01	-9.183155e+00
1.170000e-06	-6.006488e-09	-1.022257e-10	-4.725106e-02	-7.742147e+00
1.180000e-06	2.780978e-08	-8.013465e-11	2.187704e-01	-6.294908e+00
1.190000e-06	6.161695e-08	-6.013194e-11	4.847202e-01	-4.841111e+00
1.200000e-06	9.542351e-08	-3.979838e-11	7.506652e-01	-3.380740e+00
1.210000e-06	1.291791e-07	-1.761782e-11	1.016210e+00	-1.914116e+00
1.220000e-06	1.627857e-07	4.057016e-12	1.280582e+00	-4.418990e-01
1.230000e-06	1.963585e-07	2.424921e-11	1.544687e+00	1.034937e+00
1.240000e-06	2.298421e-07	4.634850e-11	1.808092e+00	2.515151e+00
1.250000e-06	2.632318e-07	7.089432e-11	2.070757e+00	3.997301e+00
1.260000e-06	2.965830e-07	9.582696e-11	2.333120e+00	5.479822e+00
1.270000e-06	3.297909e-07	1.167628e-10	2.594356e+00	6.961116e+00
1.280000e-06	3.628850e-07	1.346259e-10	2.854696e+00	8.439645e+00
1.290000e-06	3.958906e-07	1.552931e-10	3.114340e+00	9.914010e+00
1.300000e-06	4.286805e-07	1.789072e-10	3.372288e+00	1.138304e+01
1.310000e-06	4.613256e-07	2.007427e-10	3.629097e+00	1.284584e+01
1.320000e-06	4.938887e-07	2.175927e-10	3.885260e+00	1.430184e+01
1.330000e-06	5.263465e-07	2.370834e-10	4.140594e+00	1.575082e+01
1.340000e-06	5.586633e-07	2.618395e-10	4.394820e+00	1.719288e+01
1.350000e-06	5.908744e-07	2.837518e-10	4.648214e+00	1.862846e+01
1.360000e-06	6.230806e-07	3.020125e-10	4.901570e+00	2.005825e+01
1.370000e-06	6.551949e-07	3.215199e-10	5.154202e+00	2.148312e+01
1.380000e-06	6.871374e-07	3.449787e-10	5.405483e+00	2.290410e+01
1.390000e-06	7.189640e-07	3.687579e-10	5.655852e+00	2.432223e+01
1.400000e-06	7.507654e-07	3.897863e-10	5.906023e+00	2.573854e+01
1.410000e-06	7.825493e-07	4.096208e-10	6.156057e+00	2.715390e+01
1.420000e-06	8.142941e-07	4.294027e-10	6.405783e+00	2.856903e+01
1.430000e-06	8.459972e-07	4.514896e-10	6.655181e+00	2.998438e+01
1.440000e-06	8.776185e-07	4.747743e-10	6.903935e+00	3.140016e+01
1.450000e-06	9.091581e-07	4.970550e-10	7.152046e+00	3.281627e+01
1.460000e-06	9.405501e-07	5.172297e-10	7.398997e+00	3.423233e+01
1.470000e-06	9.717081e-07	5.369702e-10	7.644107e+00	3.564773e+01
1.480000e-06	1.002644e-06	5.574468e-10	7.887467e+00	3.706163e+01
1.490000e-06	1.033418e-06	5.773019e-10	8.129559e+00	3.847306e+01
1.500000e-06	1.063962e-06	5.980270e-10	8.369836e+00	3.988093e+01
1.510000e-06	1.094188e-06	6.190570e-10	8.607613e+00	4.128417e+01
1.520000e-06	1.124269e-06	6.397594e-10	8.844253e+00	4.268172e+01
1.530000e-06	1.154256e-06	6.610483e-10	9.080155e+00	4.407265e+01
1.540000e-06	1.184074e-06	6.838866e-10	9.314721e+00	4.545615e+01
1.550000e-06	1.213749e-06	7.063966e-10	9.548160e+00	4.683163e+01
1.560000e-06	1.243280e-06	7.259190e-10	9.780477e+00	4.819867e+01
1.570000e-06	1.272636e-06	7.453186e-10	1.001141e+01	4.955703e+01
1.580000e-06	1.301755e-06	7.652571e-10	1.024048e+01	5.090668e+01
1.590000e-06	1.330662e-06	7.842110e-10	1.046788e+01	5.224768e+01
1.600000e-06	1.359330e-06	8.029843e-10	1.069340e+01	5.358023e+01
1.610000e-06	1.387653e-06	8.213867e-10	1.091621e+01	5.490453e+01
1.620000e-06	1.415708e-06	8.420166e-10	1.113691e+01	5.622078e+01
1.630000e-06	1.443588e-06	8.642805e-10	1.135623e+01	5.752908e+01
1.640000e-06	1.471356e-06	8.846572e-10	1.157467e+01	5.882942e+01
1.650000e-06	1.499057e-06	9.037533e-10	1.179259e+01	6.012162e+01
1.660000e-06	1.526649e-06	9.228568e-10	1.200965e+01	6.140530e+01
1.670000e-06	1.554066e-06	9.424601e-10	1.222532e+01	6.267988e+01
1.680000e-06	1.581209e-06	9.619812e-10	1.243885e+01	6.394456e+01
1.690000e-06	1.607957e-06	9.802853e-10	1.264927e+01	6.519839e+01
1.700000e-06	1.634144e-06	9.974364e-10	1.285527e+01	6.644025e+01
1.710000e-06	1.659707e-06	1.015009e-09	1.305637e+01	6.766895e+01
1.720000e-06	1.684706e-06	1.034691e-09	1.325303e+01	6.888323e+01
1.730000e-06	1.709174e-06	1.054685e-09	1.344551e+01	7.008189e+01
1.740000e-06	1.733317e-06	1.071953e-09	1.363543e+01	7.126376e+01
1.750000e-06	1.757303e-06	1.088511e-09	1.382412e+01	7.242784e+01
1.760000e-06	1.781106e-06	1.106395e-09	1.401137e+01	7.357331e+01
1.770000e-06	1.804702e-06	1.123760e-09	1.419699e+01	7.469955e+01
1.780000e-06	1.828071e-06	1.139704e-09	1.438083e+01	7.580618e+01
1.790000e-06	1.851085e-06	1.154768e-09	1.456188e+01	7.689305e+01
1.800000e-06	1.873703e-06	1.170497e-09	1.473980e+01	7.796025e+01
1.810000e-06	1.895993e-06	1.188216e-09	1.491515e+01	7.900807e+01
1.820000e-06	1.917981e-06	1.206552e-09	1.508812e+01	8.003696e+01
1.830000e-06	1.939705e-06	1.222782e-09	1.525902e+01	8.104747e+01
1.840000e-06	1.961119e-06	1.236158e-09	1.542747e+01	8.204023e+01
1.850000e-06	1.982125e-06	1.249744e-09	1.559272e+01	8.301586e+01
1.860000e-06	2.002762e-06	1.266210e-09	1.575506e+01	8.397494e+01
1.870000e-06	2.023083e-06	1.282553e-09	1.591493e+01	8.491793e+01
1.880000e-06	2.043103e-06	1.295945e-09	1.607242e+01	8.584518e+01
1.890000e-06	2.062928e-06	1.308173e-09	1.622837e+01	8.675685e+01
1.900000e-06	2.082613e-06	1.321847e-09	1.638323e+01	8.765294e+01
1.910000e-06	2.102093e-06	1.335845e-09	1.653647e+01	8.853325e+01
1.920000e-06	2.121261e-06	1.347924e-09	1.668726e+01	8.939742e+01
1.930000e-06	2.139996e-06	1.359694e-09	1.683464e+01	9.024495e+01
1.940000e-06	2.158192e-06	1.372126e-09	1.697778e+01	9.107523e+01
1.950000e-06	2.175861e-06	1.384338e-09	1.711678e+01	9.188758e+01
1.960000e-06	2.193162e-06	1.396764e-09	1.725288e+01	9.268129e+01
1.970000e-06	2.210221e-06	1.408400e-09	1.738708e+01	9.345569e+01
1.980000e-06	2.227064e-06	1.420006e-09	1.751958e+01	9.421016e+01
1.990000e-06	2.243534e-06	1.431790e-09	1.764914e+01	9.494418e+01
2.000000e-06	2.259501e-06	1.442008e-09	1.777475e+01	9.565735e+01
2.010000e-06	2.274952e-06	1.452156e-09	1.789630e+01	9.634943e+01
2.020000e-06	2.289798e-06	1.463013e-09	1.801309e+01	9.702033e+01
2.030000e-06	2.304115e-06	1.473446e-09	1.812571e+01	9.767011e+01
2.040000e-06	2.318026e-06	1.483055e-09	1.823515e+01	9.829895e+01
2.050000e-06	2.331554e-06	1.492992e-09	1.834157e+01	9.890716e+01
2.060000e-06	2.344650e-06	1.503288e-09	1.844458e+01	9.949513e+01
2.070000e-06	2.357245e-06	1.513033e-09	1.854367e+01	1.000633e+02
2.080000e-06	2.369439e-06	1.522479e-09	1.863959e+01	1.006122e+02
2.090000e-06	2.381330e-06	1.530065e-09	1.873314e+01	1.011422e+02
2.100000e-06	2.392877e-06	1.537108e-09	1.882397e+01	1.016537e+02
2.110000e-06	2.403980e-06	1.545841e-09	1.891131e+01	1.021471e+02
2.120000e-06	2.414455e-06	1.553730e-09	1.899372e+01	1.026226e+02
2.130000e-06	2.424066e-06	1.559844e-09	1.906933e+01	1.030804e+02
2.140000e-06	2.432920e-06	1.566362e-09	1.913898e+01	1.035206e+02
2.150000e-06	2.441256e-06	1.574537e-09	1.920455e+01	1.039430e+02
2.160000e-06	2.449199e-06	1.582317e-09	1.926704e+01	1.043475e+02
2.170000e-06	2.456929e-06	1.588307e-09	1.932785e+01	1.047338e+02
2.180000e-06	2.464443e-06	1.593197e-09	1.938696e+01	1.051016e+02
2.190000e-06	2.471574e-06	1.598285e-09	1.944305e+01	1.054505e+02
2.200000e-06	2.478277e-06	1.603914e-09	1.949579e+01	1.057800e+02
2.210000e-06	2.484521e-06	1.609392e-09	1.954490e+01	1.060896e+02
2.220000e-06	2.490287e-06	1.614547e-09	1.959027e+01	1.063787e+02
2.230000e-06	2.495708e-06	1.619434e-09	1.963291e+01	1.066468e+02
2.240000e-06	2.500675e-06	1.623850e-09	1.967198e+01	1.068934e+02
2.250000e-06	2.505103e-06	1.627640e-09	1.970682e+01	1.071177e+02
2.260000e-06	2.509194e-06	1.631718e-09	1.973900e+01	1.073194e+02
2.270000e-06	2.513052e-06	1.635457e-09	1.976935e+01	1.074978e+02
2.280000e-06	2.516674e-06	1.637331e-09	1.979784e+01	1.076525e+02
2.290000e-06	2.519976e-06	1.638156e-09	1.982382e+01	1.077829e+02
2.300000e-06	2.522753e-06	1.640989e-09	1.984567e+01	1.078887e+02
2.310000e-06	2.524817e-06	1.645090e-09	1.986190e+01	1.079695e+02
2.320000e-06	2.526128e-06	1.647192e-09	1.987221e+01	1.080251e+02
2.330000e-06	2.526765e-06	1.647611e-09	1.987723e+01	1.080555e+02
2.340000e-06	2.526927e-06	1.647624e-09	1.987850e+01	1.080607e+02
2.350000e-06	2.526798e-06	1.649847e-09	1.987748e+01	1.080410e+02
2.360000e-06	2.526427e-06	1.653423e-09	1.987457e+01	1.079969e+02
2.370000e-06	2.525735e-06	1.654847e-09	1.986913e+01	1.079289e+02
2.380000e-06	2.524616e-06	1.651125e-09	1.986032e+01	1.078380e+02
2.390000e-06	2.523032e-06	1.647335e-09	1.984786e+01	1.077252e+02
2.400000e-06	2.521033e-06	1.663030e-09	1.983213e+01	1.075918e+02
2.410000e-06	2.518726e-06	1.676469e-09	1.981398e+01	1.074392e+02
2.420000e-06	2.516006e-06	1.604330e-09	1.979259e+01	1.072690e+02
2.430000e-06	2.512696e-06	1.579045e-09	1.976655e+01	1.070826e+02
2.440000e-06	2.508875e-06	1.636112e-09	1.973649e+01	1.068818e+02
2.450000e-06	2.504795e-06	1.683239e-09	1.970440e+01	1.066679e+02
2.460000e-06	2.500553e-06	1.611509e-09	1.967103e+01	1.064425e+02
2.470000e-06	2.495906e-06	1.574272e-09	1.963447e+01	1.062066e+02
2.480000e-06	2.490760e-06	1.634218e-09	1.959398e+01	1.059611e+02
2.490000e-06	2.485260e-06	1.643040e-09	1.955072e+01	1.057068e+02
2.500000e-06	2.479234e-06	1.626186e-09	1.950332e+01	1.054437e+02
2.510000e-06	2.472346e-06	1.610037e-09	1.944913e+01	1.051718e+02
2.520000e-06	2.464661e-06	1.581392e-09	1.938867e+01	1.048905e+02
2.530000e-06	2.456600e-06	1.562399e-09	1.932526e+01	1.045992e+02
2.540000e-06	2.448298e-06	1.656545e-09	1.925995e+01	1.042965e+02
2.550000e-06	2.439578e-06	1.667479e-09	1.919136e+01	1.039812e+02
2.560000e-06	2.430452e-06	1.514702e-09	1.911956e+01	1.036517e+02
2.570000e-06	2.421032e-06	1.483555e-09	1.904546e+01	1.033063e+02
2.580000e-06	2.411260e-06	1.673833e-09	1.896858e+01	1.029436e+02
2.590000e-06	2.401013e-06	1.682576e-09	1.888797e+01	1.025619e+02
2.600000e-06	2.390370e-06	1.453234e-09	1.880425e+01	1.021601e+02
2.610000e-06	2.379436e-06	1.460442e-09	1.871823e+01	1.017371e+02
2.620000e-06	2.367997e-06	1.674565e-09	1.862825e+01	1.012922e+02
2.630000e-06	2.356008e-06	1.617798e-09	1.853394e+01	1.008252e+02
2.640000e-06	2.343619e-06	1.418047e-09	1.843648e+01	1.003363e+02
2.650000e-06	2.330809e-06	1.496609e-09	1.833571e+01	9.982587e+01
2.660000e-06	2.317410e-06	1.622276e-09	1.823030e+01	9.929494e+01
2.670000e-06	2.303291e-06	1.499687e-09	1.811923e+01	9.874474e+01
2.680000e-06	2.288430e-06	1.424770e-09	1.800232e+01	9.817674e+01
2.690000e-06	2.272967e-06	1.534517e-09	1.788068e+01	9.759260e+01
2.700000e-06	2.257123e-06	1.532222e-09	1.775604e+01	9.699405e+01
2.710000e-06	2.241003e-06	1.418837e-09	1.762923e+01	9.638276e+01
2.720000e-06	2.224686e-06	1.446897e-09	1.750087e+01	9.576030e+01
2.730000e-06	2.208108e-06	1.514430e-09	1.737046e+01	9.512801e+01
2.740000e-06	2.191097e-06	1.453079e-09	1.723664e+01	9.448692e+01
2.750000e-06	2.173580e-06	1.393204e-09	1.709884e+01	9.383775e+01
2.760000e-06	2.155720e-06	1.426162e-09	1.695834e+01	9.318080e+01
2.770000e-06	2.137586e-06	1.453190e-09	1.681568e+01	9.251601e+01
2.780000e-06	2.119090e-06	1.408303e-09	1.667018e+01	9.184295e+01
2.790000e-06	2.100239e-06	1.369425e-09	1.652189e+01	9.116084e+01
2.800000e-06	2.080981e-06	1.387966e-09	1.637039e+01	9.046866e+01
2.810000e-06	2.061326e-06	1.397782e-09	1.621577e+01	8.976518e+01
2.820000e-06	2.041398e-06	1.358364e-09	1.605900e+01	8.904907e+01
2.830000e-06	2.021286e-06	1.339810e-09	1.590079e+01	8.831897e+01
2.840000e-06	2.000985e-06	1.356009e-09	1.574109e+01	8.757361e+01
2.850000e-06	1.980469e-06	1.336341e-09	1.557969e+01	8.681185e+01
2.860000e-06	1.959680e-06	1.304859e-09	1.541616e+01	8.603278e+01
2.870000e-06	1.938421e-06	1.317785e-09	1.524892e+01	8.523575e+01
2.880000e-06	1.916473e-06	1.309714e-09	1.507626e+01	8.442040e+01
2.890000e-06	1.893802e-06	1.270920e-09	1.489792e+01	8.358667e+01
2.900000e-06	1.870562e-06	1.268251e-09	1.471510e+01	8.273479e+01
2.910000e-06	1.846911e-06	1.272005e-09	1.452904e+01	8.186524e+01
2.920000e-06	1.822973e-06	1.239305e-09	1.434073e+01	8.097870e+01
2.930000e-06	1.798867e-06	1.217439e-09	1.415109e+01	8.007600e+01
2.940000e-06	1.774622e-06	1.229682e-09	1.396037e+01	7.915803e+01
2.950000e-06	1.750227e-06	1.218771e-09	1.376845e+01	7.822569e+01
