# Temperatura_=_20.0
# Concentracion g/m^3_=_12600.0
# C_Vs_to_Am_M_A/Vsm_=_65563218390.804596
# pendiente_HvsI_1/m_=_3716.3
# ordenada_HvsI_A/m_=_1297.0
# frecuencia_Hz_=_213019.7107702405

Tiempo_(s)	Campo_(V.s)	Magnetizacion_(V.s)	Campo_(kA/m)	Magnetizacion_(A/m)
0.000000e+00	-2.520084e-06	-1.429124e-09	-1.982880e+01	-9.414502e+01
1.000000e-08	-2.520151e-06	-1.430271e-09	-1.982932e+01	-9.415068e+01
2.000000e-08	-2.519942e-06	-1.431113e-09	-1.982768e+01	-9.413519e+01
3.000000e-08	-2.519299e-06	-1.431304e-09	-1.982263e+01	-9.409789e+01
4.000000e-08	-2.518099e-06	-1.429656e-09	-1.981318e+01	-9.403836e+01
5.000000e-08	-2.516221e-06	-1.417641e-09	-1.979841e+01	-9.395653e+01
6.000000e-08	-2.513577e-06	-1.402738e-09	-1.977760e+01	-9.385261e+01
7.000000e-08	-2.510293e-06	-1.421093e-09	-1.975177e+01	-9.372716e+01
8.000000e-08	-2.506560e-06	-1.472360e-09	-1.972239e+01	-9.358106e+01
9.000000e-08	-2.502546e-06	-1.458800e-09	-1.969081e+01	-9.341545e+01
1.000000e-07	-2.498307e-06	-1.374457e-09	-1.965745e+01	-9.323170e+01
1.100000e-07	-2.493707e-06	-1.366680e-09	-1.962125e+01	-9.303132e+01
1.200000e-07	-2.488624e-06	-1.457798e-09	-1.958126e+01	-9.281587e+01
1.300000e-07	-2.483096e-06	-1.465034e-09	-1.953777e+01	-9.258690e+01
1.400000e-07	-2.477146e-06	-1.401094e-09	-1.949095e+01	-9.234581e+01
1.500000e-07	-2.470694e-06	-1.357657e-09	-1.944018e+01	-9.209382e+01
1.600000e-07	-2.463758e-06	-1.355988e-09	-1.938561e+01	-9.183187e+01
1.700000e-07	-2.456430e-06	-1.387048e-09	-1.932795e+01	-9.156059e+01
1.800000e-07	-2.448832e-06	-1.453516e-09	-1.926817e+01	-9.128025e+01
1.900000e-07	-2.440958e-06	-1.429490e-09	-1.920621e+01	-9.099079e+01
2.000000e-07	-2.432702e-06	-1.282206e-09	-1.914126e+01	-9.069180e+01
2.100000e-07	-2.424137e-06	-1.294638e-09	-1.907386e+01	-9.038258e+01
2.200000e-07	-2.415066e-06	-1.463125e-09	-1.900249e+01	-9.006222e+01
2.300000e-07	-2.405152e-06	-1.468067e-09	-1.892448e+01	-8.972965e+01
2.400000e-07	-2.394404e-06	-1.266008e-09	-1.883991e+01	-8.938376e+01
2.500000e-07	-2.383116e-06	-1.258032e-09	-1.875110e+01	-8.902344e+01
2.600000e-07	-2.371482e-06	-1.437337e-09	-1.865956e+01	-8.864775e+01
2.700000e-07	-2.359405e-06	-1.416329e-09	-1.856453e+01	-8.825590e+01
2.800000e-07	-2.346846e-06	-1.258992e-09	-1.846571e+01	-8.784742e+01
2.900000e-07	-2.333915e-06	-1.286084e-09	-1.836397e+01	-8.742212e+01
3.000000e-07	-2.320547e-06	-1.383566e-09	-1.825878e+01	-8.698014e+01
3.100000e-07	-2.306730e-06	-1.317206e-09	-1.815006e+01	-8.652198e+01
3.200000e-07	-2.292465e-06	-1.249461e-09	-1.803783e+01	-8.604842e+01
3.300000e-07	-2.277563e-06	-1.312907e-09	-1.792057e+01	-8.556049e+01
3.400000e-07	-2.262036e-06	-1.327621e-09	-1.779840e+01	-8.505942e+01
3.500000e-07	-2.245945e-06	-1.251437e-09	-1.767179e+01	-8.454652e+01
3.600000e-07	-2.229346e-06	-1.242169e-09	-1.754119e+01	-8.402314e+01
3.700000e-07	-2.212398e-06	-1.284124e-09	-1.740783e+01	-8.349052e+01
3.800000e-07	-2.195177e-06	-1.278310e-09	-1.727233e+01	-8.294974e+01
3.900000e-07	-2.177669e-06	-1.240975e-09	-1.713457e+01	-8.240162e+01
4.000000e-07	-2.159831e-06	-1.225880e-09	-1.699422e+01	-8.184671e+01
4.100000e-07	-2.141568e-06	-1.216786e-09	-1.685052e+01	-8.128517e+01
4.200000e-07	-2.122798e-06	-1.213437e-09	-1.670283e+01	-8.071686e+01
4.300000e-07	-2.103601e-06	-1.231675e-09	-1.655178e+01	-8.014124e+01
4.400000e-07	-2.084113e-06	-1.223580e-09	-1.639844e+01	-7.955749e+01
4.500000e-07	-2.064375e-06	-1.171481e-09	-1.624314e+01	-7.896452e+01
4.600000e-07	-2.044420e-06	-1.144859e-09	-1.608613e+01	-7.836108e+01
4.700000e-07	-2.024328e-06	-1.185597e-09	-1.592804e+01	-7.774579e+01
4.800000e-07	-2.004025e-06	-1.209235e-09	-1.576828e+01	-7.711728e+01
4.900000e-07	-1.983335e-06	-1.148773e-09	-1.560550e+01	-7.647424e+01
5.000000e-07	-1.962235e-06	-1.095796e-09	-1.543947e+01	-7.581556e+01
5.100000e-07	-1.940786e-06	-1.120828e-09	-1.527071e+01	-7.514032e+01
5.200000e-07	-1.919003e-06	-1.150398e-09	-1.509931e+01	-7.444791e+01
5.300000e-07	-1.896920e-06	-1.127759e-09	-1.492555e+01	-7.373804e+01
5.400000e-07	-1.874500e-06	-1.089011e-09	-1.474914e+01	-7.301074e+01
5.500000e-07	-1.851700e-06	-1.068891e-09	-1.456975e+01	-7.226636e+01
5.600000e-07	-1.828520e-06	-1.066748e-09	-1.438736e+01	-7.150554e+01
5.700000e-07	-1.805037e-06	-1.082984e-09	-1.420259e+01	-7.072913e+01
5.800000e-07	-1.781350e-06	-1.083394e-09	-1.401621e+01	-6.993817e+01
5.900000e-07	-1.757473e-06	-1.035872e-09	-1.382834e+01	-6.913379e+01
6.000000e-07	-1.733386e-06	-9.937683e-10	-1.363882e+01	-6.831715e+01
6.100000e-07	-1.709003e-06	-1.011171e-09	-1.344697e+01	-6.748932e+01
6.200000e-07	-1.684269e-06	-1.046225e-09	-1.325235e+01	-6.665130e+01
6.300000e-07	-1.659159e-06	-1.021589e-09	-1.305477e+01	-6.580389e+01
6.400000e-07	-1.633665e-06	-9.542854e-10	-1.285418e+01	-6.494768e+01
6.500000e-07	-1.607609e-06	-9.336428e-10	-1.264916e+01	-6.408304e+01
6.600000e-07	-1.580960e-06	-9.713112e-10	-1.243948e+01	-6.321012e+01
6.700000e-07	-1.553879e-06	-9.864041e-10	-1.222640e+01	-6.232886e+01
6.800000e-07	-1.526473e-06	-9.354180e-10	-1.201076e+01	-6.143904e+01
6.900000e-07	-1.498824e-06	-8.790371e-10	-1.179321e+01	-6.054028e+01
7.000000e-07	-1.471001e-06	-8.845280e-10	-1.157429e+01	-5.963218e+01
7.100000e-07	-1.443069e-06	-9.167627e-10	-1.135452e+01	-5.871430e+01
7.200000e-07	-1.415040e-06	-9.026500e-10	-1.113397e+01	-5.778623e+01
7.300000e-07	-1.386933e-06	-8.450224e-10	-1.091282e+01	-5.684768e+01
7.400000e-07	-1.358686e-06	-8.140545e-10	-1.069056e+01	-5.589847e+01
7.500000e-07	-1.330140e-06	-8.333956e-10	-1.046596e+01	-5.493860e+01
7.600000e-07	-1.301221e-06	-8.455483e-10	-1.023841e+01	-5.396821e+01
7.700000e-07	-1.272009e-06	-8.143316e-10	-1.000856e+01	-5.298762e+01
7.800000e-07	-1.242609e-06	-7.708124e-10	-9.777230e+00	-5.199727e+01
7.900000e-07	-1.213043e-06	-7.549683e-10	-9.544595e+00	-5.099771e+01
8.000000e-07	-1.183304e-06	-7.642767e-10	-9.310603e+00	-4.998955e+01
8.100000e-07	-1.153386e-06	-7.633107e-10	-9.075197e+00	-4.897340e+01
8.200000e-07	-1.123316e-06	-7.335015e-10	-8.838599e+00	-4.794983e+01
8.300000e-07	-1.093092e-06	-6.938016e-10	-8.600784e+00	-4.691931e+01
8.400000e-07	-1.062625e-06	-6.788132e-10	-8.361065e+00	-4.588219e+01
8.500000e-07	-1.031913e-06	-6.880393e-10	-8.119412e+00	-4.483863e+01
8.600000e-07	-1.000995e-06	-6.819467e-10	-7.876138e+00	-4.378865e+01
8.700000e-07	-9.698727e-07	-6.464212e-10	-7.631258e+00	-4.273205e+01
8.800000e-07	-9.386897e-07	-6.086648e-10	-7.385901e+00	-4.166851e+01
8.900000e-07	-9.074287e-07	-5.992185e-10	-7.139930e+00	-4.059754e+01
9.000000e-07	-8.759445e-07	-6.060708e-10	-6.892202e+00	-3.951861e+01
9.100000e-07	-8.443081e-07	-5.929776e-10	-6.643277e+00	-3.843111e+01
9.200000e-07	-8.126198e-07	-5.568075e-10	-6.393944e+00	-3.733448e+01
9.300000e-07	-7.808332e-07	-5.249857e-10	-6.143837e+00	-3.622823e+01
9.400000e-07	-7.489215e-07	-5.166041e-10	-5.892746e+00	-3.511201e+01
9.500000e-07	-7.169667e-07	-5.160595e-10	-5.641316e+00	-3.398565e+01
9.600000e-07	-6.849643e-07	-4.953116e-10	-5.389511e+00	-3.284917e+01
9.700000e-07	-6.528788e-07	-4.576925e-10	-5.137052e+00	-3.170281e+01
9.800000e-07	-6.206695e-07	-4.324947e-10	-4.883620e+00	-3.054704e+01
9.900000e-07	-5.883968e-07	-4.303950e-10	-4.629688e+00	-2.938251e+01
1.000000e-06	-5.560534e-07	-4.261046e-10	-4.375200e+00	-2.821003e+01
1.010000e-06	-5.236029e-07	-3.991932e-10	-4.119870e+00	-2.703052e+01
1.020000e-06	-4.910824e-07	-3.662623e-10	-3.863988e+00	-2.584495e+01
1.030000e-06	-4.584099e-07	-3.503982e-10	-3.606911e+00	-2.465424e+01
1.040000e-06	-4.255407e-07	-3.467372e-10	-3.348286e+00	-2.345925e+01
1.050000e-06	-3.925929e-07	-3.315750e-10	-3.089043e+00	-2.226068e+01
1.060000e-06	-3.596166e-07	-3.012643e-10	-2.829575e+00	-2.105902e+01
1.070000e-06	-3.265811e-07	-2.736043e-10	-2.569641e+00	-1.985452e+01
1.080000e-06	-2.933901e-07	-2.568700e-10	-2.308484e+00	-1.864717e+01
1.090000e-06	-2.600361e-07	-2.457250e-10	-2.046044e+00	-1.743670e+01
1.100000e-06	-2.266527e-07	-2.306585e-10	-1.783374e+00	-1.622258e+01
1.110000e-06	-1.933260e-07	-2.091372e-10	-1.521149e+00	-1.500409e+01
1.120000e-06	-1.599390e-07	-1.863883e-10	-1.258450e+00	-1.378035e+01
1.130000e-06	-1.264144e-07	-1.691661e-10	-9.946679e-01	-1.255040e+01
1.140000e-06	-9.282633e-08	-1.571954e-10	-7.303863e-01	-1.131326e+01
1.150000e-06	-5.924341e-08	-1.412023e-10	-4.661455e-01	-1.006804e+01
1.160000e-06	-2.573817e-08	-1.163433e-10	-2.025159e-01	-8.813993e+00
1.170000e-06	7.732660e-09	-9.160123e-11	6.084296e-02	-7.550579e+00
1.180000e-06	4.127580e-08	-7.653812e-11	3.247708e-01	-6.277543e+00
1.190000e-06	7.490450e-08	-6.569189e-11	5.893718e-01	-4.994938e+00
1.200000e-06	1.084906e-07	-4.784873e-11	8.536375e-01	-3.703151e+00
1.210000e-06	1.419778e-07	-2.155238e-11	1.117125e+00	-2.402895e+00
1.220000e-06	1.754415e-07	2.451661e-12	1.380428e+00	-1.095193e+00
1.230000e-06	2.088630e-07	1.768019e-11	1.643399e+00	2.186716e-01
1.240000e-06	2.422154e-07	3.133537e-11	1.905826e+00	1.537209e+00
1.250000e-06	2.755087e-07	5.325676e-11	2.167788e+00	2.858800e+00
1.260000e-06	3.086848e-07	7.970901e-11	2.428827e+00	4.181772e+00
1.270000e-06	3.417527e-07	9.872134e-11	2.689016e+00	5.504481e+00
1.280000e-06	3.747070e-07	1.097960e-10	2.948311e+00	6.825390e+00
1.290000e-06	4.075693e-07	1.246344e-10	3.206881e+00	8.143139e+00
1.300000e-06	4.403559e-07	1.487395e-10	3.464857e+00	9.456599e+00
1.310000e-06	4.730247e-07	1.721171e-10	3.721904e+00	1.076491e+01
1.320000e-06	5.055456e-07	1.887262e-10	3.977789e+00	1.206751e+01
1.330000e-06	5.379371e-07	2.023773e-10	4.232655e+00	1.336412e+01
1.340000e-06	5.701992e-07	2.193998e-10	4.486504e+00	1.465473e+01
1.350000e-06	6.023786e-07	2.393865e-10	4.739701e+00	1.593960e+01
1.360000e-06	6.345634e-07	2.595706e-10	4.992941e+00	1.721913e+01
1.370000e-06	6.667112e-07	2.786914e-10	5.245890e+00	1.849388e+01
1.380000e-06	6.987572e-07	2.967847e-10	5.498038e+00	1.976448e+01
1.390000e-06	7.307213e-07	3.151330e-10	5.749541e+00	2.103155e+01
1.400000e-06	7.626465e-07	3.350294e-10	6.000738e+00	2.229565e+01
1.410000e-06	7.945323e-07	3.560059e-10	6.251626e+00	2.355724e+01
1.420000e-06	8.263340e-07	3.745437e-10	6.501852e+00	2.481663e+01
1.430000e-06	8.580012e-07	3.904637e-10	6.751019e+00	2.607396e+01
1.440000e-06	8.895605e-07	4.070507e-10	6.999338e+00	2.732920e+01
1.450000e-06	9.209739e-07	4.275145e-10	7.246508e+00	2.858215e+01
1.460000e-06	9.521660e-07	4.490284e-10	7.491937e+00	2.983245e+01
1.470000e-06	9.832173e-07	4.676231e-10	7.736258e+00	3.107964e+01
1.480000e-06	1.014146e-06	4.828354e-10	7.979617e+00	3.232318e+01
1.490000e-06	1.044807e-06	4.995712e-10	8.220862e+00	3.356249e+01
1.500000e-06	1.075176e-06	5.207174e-10	8.459815e+00	3.479702e+01
1.510000e-06	1.105356e-06	5.417846e-10	8.697285e+00	3.602626e+01
1.520000e-06	1.135392e-06	5.585119e-10	8.933615e+00	3.724980e+01
1.530000e-06	1.165303e-06	5.726876e-10	9.168962e+00	3.846733e+01
1.540000e-06	1.195096e-06	5.911404e-10	9.403385e+00	3.967865e+01
1.550000e-06	1.224752e-06	6.140206e-10	9.636725e+00	4.088369e+01
1.560000e-06	1.254255e-06	6.336314e-10	9.868864e+00	4.208245e+01
1.570000e-06	1.283554e-06	6.495116e-10	1.009940e+01	4.327501e+01
1.580000e-06	1.312542e-06	6.651708e-10	1.032748e+01	4.446147e+01
1.590000e-06	1.341195e-06	6.838518e-10	1.055293e+01	4.564191e+01
1.600000e-06	1.369610e-06	7.048247e-10	1.077652e+01	4.681637e+01
1.610000e-06	1.397835e-06	7.225764e-10	1.099860e+01	4.798475e+01
1.620000e-06	1.425891e-06	7.371699e-10	1.121935e+01	4.914685e+01
1.630000e-06	1.453823e-06	7.524153e-10	1.143913e+01	5.030227e+01
1.640000e-06	1.481667e-06	7.704513e-10	1.165822e+01	5.145046e+01
1.650000e-06	1.509435e-06	7.903354e-10	1.187670e+01	5.259067e+01
1.660000e-06	1.537014e-06	8.090154e-10	1.209370e+01	5.372200e+01
1.670000e-06	1.564258e-06	8.250196e-10	1.230806e+01	5.484341e+01
1.680000e-06	1.591185e-06	8.389581e-10	1.251993e+01	5.595377e+01
1.690000e-06	1.617700e-06	8.548667e-10	1.272856e+01	5.705191e+01
1.700000e-06	1.643586e-06	8.740401e-10	1.293225e+01	5.813665e+01
1.710000e-06	1.668884e-06	8.917130e-10	1.313130e+01	5.920692e+01
1.720000e-06	1.693711e-06	9.048113e-10	1.332664e+01	6.026173e+01
1.730000e-06	1.718144e-06	9.171633e-10	1.351889e+01	6.130029e+01
1.740000e-06	1.742286e-06	9.341171e-10	1.370885e+01	6.232201e+01
1.750000e-06	1.766258e-06	9.525994e-10	1.389746e+01	6.332652e+01
1.760000e-06	1.790073e-06	9.666669e-10	1.408485e+01	6.431370e+01
1.770000e-06	1.813647e-06	9.780048e-10	1.427033e+01	6.528367e+01
1.780000e-06	1.836889e-06	9.922873e-10	1.445321e+01	6.623675e+01
1.790000e-06	1.859745e-06	1.010256e-09	1.463305e+01	6.717343e+01
1.800000e-06	1.882235e-06	1.028013e-09	1.481001e+01	6.809434e+01
1.810000e-06	1.904454e-06	1.042016e-09	1.498483e+01	6.900018e+01
1.820000e-06	1.926426e-06	1.052986e-09	1.515772e+01	6.989164e+01
1.830000e-06	1.948063e-06	1.064618e-09	1.532796e+01	7.076941e+01
1.840000e-06	1.969359e-06	1.076972e-09	1.549553e+01	7.163406e+01
1.850000e-06	1.990311e-06	1.088646e-09	1.566038e+01	7.248601e+01
1.860000e-06	2.010898e-06	1.099813e-09	1.582237e+01	7.332554e+01
1.870000e-06	2.031201e-06	1.111457e-09	1.598212e+01	7.415271e+01
1.880000e-06	2.051295e-06	1.124554e-09	1.614022e+01	7.496740e+01
1.890000e-06	2.071212e-06	1.138403e-09	1.629694e+01	7.576931e+01
1.900000e-06	2.090903e-06	1.151812e-09	1.645187e+01	7.655798e+01
1.910000e-06	2.110245e-06	1.163872e-09	1.660406e+01	7.733281e+01
1.920000e-06	2.129136e-06	1.174762e-09	1.675270e+01	7.809313e+01
1.930000e-06	2.147525e-06	1.185980e-09	1.689739e+01	7.883824e+01
1.940000e-06	2.165436e-06	1.199085e-09	1.703832e+01	7.956743e+01
1.950000e-06	2.182966e-06	1.211337e-09	1.717625e+01	8.028007e+01
1.960000e-06	2.200206e-06	1.220247e-09	1.731190e+01	8.097561e+01
1.970000e-06	2.217190e-06	1.228032e-09	1.744554e+01	8.165360e+01
1.980000e-06	2.233846e-06	1.238253e-09	1.757659e+01	8.231374e+01
1.990000e-06	2.250033e-06	1.249351e-09	1.770395e+01	8.295588e+01
2.000000e-06	2.265607e-06	1.258007e-09	1.782649e+01	8.357997e+01
2.010000e-06	2.280560e-06	1.264410e-09	1.794415e+01	8.418609e+01
2.020000e-06	2.295135e-06	1.271093e-09	1.805883e+01	8.477437e+01
2.030000e-06	2.309383e-06	1.280315e-09	1.817094e+01	8.534503e+01
2.040000e-06	2.323183e-06	1.290594e-09	1.827952e+01	8.589827e+01
2.050000e-06	2.336530e-06	1.299741e-09	1.838454e+01	8.643426e+01
2.060000e-06	2.349447e-06	1.306815e-09	1.848617e+01	8.695314e+01
2.070000e-06	2.361945e-06	1.313374e-09	1.858452e+01	8.745495e+01
2.080000e-06	2.374014e-06	1.320685e-09	1.867948e+01	8.793965e+01
2.090000e-06	2.385684e-06	1.327332e-09	1.877130e+01	8.840708e+01
2.100000e-06	2.396974e-06	1.332841e-09	1.886014e+01	8.885704e+01
2.110000e-06	2.407740e-06	1.338660e-09	1.894484e+01	8.928923e+01
2.120000e-06	2.417757e-06	1.344522e-09	1.902366e+01	8.970331e+01
2.130000e-06	2.427019e-06	1.350670e-09	1.909654e+01	9.009895e+01
2.140000e-06	2.435646e-06	1.357810e-09	1.916441e+01	9.047586e+01
2.150000e-06	2.443853e-06	1.365451e-09	1.922900e+01	9.083381e+01
2.160000e-06	2.451834e-06	1.372336e-09	1.929178e+01	9.117268e+01
2.170000e-06	2.459544e-06	1.377513e-09	1.935246e+01	9.149248e+01
2.180000e-06	2.466878e-06	1.382659e-09	1.941016e+01	9.179335e+01
2.190000e-06	2.473826e-06	1.389491e-09	1.946483e+01	9.207560e+01
2.200000e-06	2.480393e-06	1.396204e-09	1.951650e+01	9.233966e+01
2.210000e-06	2.486510e-06	1.400749e-09	1.956463e+01	9.258608e+01
2.220000e-06	2.492173e-06	1.404555e-09	1.960919e+01	9.281547e+01
2.230000e-06	2.497398e-06	1.408145e-09	1.965030e+01	9.302847e+01
2.240000e-06	2.502162e-06	1.412201e-09	1.968779e+01	9.322572e+01
2.250000e-06	2.506494e-06	1.416345e-09	1.972187e+01	9.340774e+01
2.260000e-06	2.510532e-06	1.418692e-09	1.975364e+01	9.357496e+01
2.270000e-06	2.514338e-06	1.419839e-09	1.978359e+01	9.372762e+01
2.280000e-06	2.517811e-06	1.420815e-09	1.981092e+01	9.386573e+01
2.290000e-06	2.520842e-06	1.422179e-09	1.983476e+01	9.398912e+01
2.300000e-06	2.523236e-06	1.424718e-09	1.985360e+01	9.409735e+01
2.310000e-06	2.524891e-06	1.426981e-09	1.986662e+01	9.418979e+01
2.320000e-06	2.525889e-06	1.429133e-09	1.987447e+01	9.426561e+01
2.330000e-06	2.526329e-06	1.431362e-09	1.987794e+01	9.432386e+01
2.340000e-06	2.526400e-06	1.433092e-09	1.987850e+01	9.436351e+01
2.350000e-06	2.526236e-06	1.434934e-09	1.987721e+01	9.438354e+01
2.360000e-06	2.525813e-06	1.437104e-09	1.987388e+01	9.438299e+01
2.370000e-06	2.524973e-06	1.438089e-09	1.986727e+01	9.436106e+01
2.380000e-06	2.523649e-06	1.438346e-09	1.985685e+01	9.431717e+01
2.390000e-06	2.521912e-06	1.445447e-09	1.984318e+01	9.425100e+01
2.400000e-06	2.519779e-06	1.459514e-09	1.982640e+01	9.416255e+01
2.410000e-06	2.517224e-06	1.446658e-09	1.980629e+01	9.405215e+01
2.420000e-06	2.514134e-06	1.396235e-09	1.978198e+01	9.392045e+01
2.430000e-06	2.510536e-06	1.392889e-09	1.975368e+01	9.376842e+01
2.440000e-06	2.506643e-06	1.453252e-09	1.972304e+01	9.359727e+01
2.450000e-06	2.502588e-06	1.466915e-09	1.969114e+01	9.340842e+01
2.460000e-06	2.498244e-06	1.400747e-09	1.965696e+01	9.320341e+01
2.470000e-06	2.493362e-06	1.398084e-09	1.961855e+01	9.298380e+01
2.480000e-06	2.487921e-06	1.432387e-09	1.957573e+01	9.275110e+01
2.490000e-06	2.481997e-06	1.435163e-09	1.952912e+01	9.250667e+01
2.500000e-06	2.475444e-06	1.424978e-09	1.947756e+01	9.225166e+01
2.510000e-06	2.468132e-06	1.410028e-09	1.942002e+01	9.198691e+01
2.520000e-06	2.460319e-06	1.369646e-09	1.935855e+01	9.171295e+01
2.530000e-06	2.452294e-06	1.377157e-09	1.929541e+01	9.142995e+01
2.540000e-06	2.444003e-06	1.459188e-09	1.923017e+01	9.113774e+01
2.550000e-06	2.435255e-06	1.422932e-09	1.916134e+01	9.083582e+01
2.560000e-06	2.426103e-06	1.298790e-09	1.908933e+01	9.052341e+01
2.570000e-06	2.416584e-06	1.335806e-09	1.901443e+01	9.019956e+01
2.580000e-06	2.406621e-06	1.485982e-09	1.893604e+01	8.986316e+01
2.590000e-06	2.396255e-06	1.410128e-09	1.885448e+01	8.951310e+01
2.600000e-06	2.385475e-06	1.241863e-09	1.876966e+01	8.914832e+01
2.610000e-06	2.374277e-06	1.334328e-09	1.868155e+01	8.876790e+01
2.620000e-06	2.362624e-06	1.480524e-09	1.858986e+01	8.837115e+01
2.630000e-06	2.350467e-06	1.346668e-09	1.849420e+01	8.795768e+01
2.640000e-06	2.337879e-06	1.217640e-09	1.839515e+01	8.752739e+01
2.650000e-06	2.324796e-06	1.356712e-09	1.829221e+01	8.708055e+01
2.660000e-06	2.311018e-06	1.422639e-09	1.818380e+01	8.661772e+01
2.670000e-06	2.296434e-06	1.267158e-09	1.806905e+01	8.613978e+01
2.680000e-06	2.281219e-06	1.232686e-09	1.794933e+01	8.564783e+01
2.690000e-06	2.265619e-06	1.354445e-09	1.782659e+01	8.514312e+01
2.700000e-06	2.249725e-06	1.332044e-09	1.770153e+01	8.462699e+01
2.710000e-06	2.233610e-06	1.227816e-09	1.757473e+01	8.410077e+01
2.720000e-06	2.217264e-06	1.255467e-09	1.744612e+01	8.356564e+01
2.730000e-06	2.200546e-06	1.306173e-09	1.731458e+01	8.302264e+01
2.740000e-06	2.183361e-06	1.262840e-09	1.717936e+01	8.247250e+01
2.750000e-06	2.165741e-06	1.224321e-09	1.704072e+01	8.191564e+01
2.760000e-06	2.147792e-06	1.238956e-09	1.689949e+01	8.135216e+01
2.770000e-06	2.129535e-06	1.237670e-09	1.675584e+01	8.078177e+01
2.780000e-06	2.110909e-06	1.210318e-09	1.660928e+01	8.020387e+01
2.790000e-06	2.091886e-06	1.201290e-09	1.645960e+01	7.961753e+01
2.800000e-06	2.072469e-06	1.208812e-09	1.630683e+01	7.902161e+01
2.810000e-06	2.052742e-06	1.194364e-09	1.615161e+01	7.841481e+01
2.820000e-06	2.032815e-06	1.165331e-09	1.599482e+01	7.779575e+01
2.830000e-06	2.012726e-06	1.170637e-09	1.583675e+01	7.716306e+01
2.840000e-06	1.992382e-06	1.186173e-09	1.567668e+01	7.651549e+01
2.850000e-06	1.971687e-06	1.156272e-09	1.551385e+01	7.585197e+01
2.860000e-06	1.950562e-06	1.127593e-09	1.534762e+01	7.517169e+01
2.870000e-06	1.928862e-06	1.135280e-09	1.517689e+01	7.447411e+01
2.880000e-06	1.906472e-06	1.128718e-09	1.500071e+01	7.375904e+01
2.890000e-06	1.883469e-06	1.108221e-09	1.481971e+01	7.302662e+01
2.900000e-06	1.860069e-06	1.103670e-09	1.463560e+01	7.227728e+01
2.910000e-06	1.836377e-06	1.086733e-09	1.444918e+01	7.151173e+01
2.920000e-06	1.812471e-06	1.055377e-09	1.426108e+01	7.073089e+01
2.930000e-06	1.788420e-06	1.058942e-09	1.407184e+01	6.993584e+01
2.940000e-06	1.764197e-06	1.075618e-09	1.388125e+01	6.912771e+01
2.950000e-06	1.739724e-06	1.046686e-09	1.368869e+01	6.830765e+01
