# Temperatura_=_20.0
# Concentracion g/m^3_=_12600.0
# C_Vs_to_Am_M_A/Vsm_=_65563218390.804596
# pendiente_HvsI_1/m_=_3716.3
# ordenada_HvsI_A/m_=_1297.0
# frecuencia_Hz_=_213021.06169553442

Tiempo_(s)	Campo_(V.s)	Magnetizacion_(V.s)	Campo_(kA/m)	Magnetizacion_(A/m)
0.000000e+00	-2.519542e-06	-1.676548e-09	-1.983180e+01	-1.113479e+02
1.000000e-08	-2.519588e-06	-1.677226e-09	-1.983216e+01	-1.113186e+02
2.000000e-08	-2.519321e-06	-1.677155e-09	-1.983006e+01	-1.112673e+02
3.000000e-08	-2.518583e-06	-1.677272e-09	-1.982425e+01	-1.111943e+02
4.000000e-08	-2.517183e-06	-1.676175e-09	-1.981323e+01	-1.111007e+02
5.000000e-08	-2.515017e-06	-1.666929e-09	-1.979618e+01	-1.109875e+02
6.000000e-08	-2.512194e-06	-1.645758e-09	-1.977396e+01	-1.108560e+02
7.000000e-08	-2.508851e-06	-1.680277e-09	-1.974765e+01	-1.107075e+02
8.000000e-08	-2.505131e-06	-1.711435e-09	-1.971837e+01	-1.105434e+02
9.000000e-08	-2.501198e-06	-1.669609e-09	-1.968741e+01	-1.103650e+02
1.000000e-07	-2.496979e-06	-1.621877e-09	-1.965420e+01	-1.101737e+02
1.100000e-07	-2.492290e-06	-1.655850e-09	-1.961730e+01	-1.099703e+02
1.200000e-07	-2.487120e-06	-1.692862e-09	-1.957660e+01	-1.097555e+02
1.300000e-07	-2.481502e-06	-1.679481e-09	-1.953238e+01	-1.095299e+02
1.400000e-07	-2.475413e-06	-1.648959e-09	-1.948445e+01	-1.092934e+02
1.500000e-07	-2.468854e-06	-1.611718e-09	-1.943282e+01	-1.090457e+02
1.600000e-07	-2.461834e-06	-1.621256e-09	-1.937757e+01	-1.087862e+02
1.700000e-07	-2.454493e-06	-1.671074e-09	-1.931978e+01	-1.085140e+02
1.800000e-07	-2.446869e-06	-1.689915e-09	-1.925978e+01	-1.082277e+02
1.900000e-07	-2.438946e-06	-1.615339e-09	-1.919742e+01	-1.079260e+02
2.000000e-07	-2.430702e-06	-1.563732e-09	-1.913252e+01	-1.076073e+02
2.100000e-07	-2.421993e-06	-1.633956e-09	-1.906397e+01	-1.072703e+02
2.200000e-07	-2.412577e-06	-1.706673e-09	-1.898985e+01	-1.069133e+02
2.300000e-07	-2.402355e-06	-1.622693e-09	-1.890940e+01	-1.065353e+02
2.400000e-07	-2.391527e-06	-1.531098e-09	-1.882417e+01	-1.061351e+02
2.500000e-07	-2.380206e-06	-1.591508e-09	-1.873506e+01	-1.057120e+02
2.600000e-07	-2.368454e-06	-1.663457e-09	-1.864256e+01	-1.052656e+02
2.700000e-07	-2.356297e-06	-1.609793e-09	-1.854686e+01	-1.047959e+02
2.800000e-07	-2.343687e-06	-1.532696e-09	-1.844761e+01	-1.043034e+02
2.900000e-07	-2.330617e-06	-1.542614e-09	-1.834473e+01	-1.037886e+02
3.000000e-07	-2.317101e-06	-1.584153e-09	-1.823835e+01	-1.032525e+02
3.100000e-07	-2.303176e-06	-1.589965e-09	-1.812874e+01	-1.026965e+02
3.200000e-07	-2.288751e-06	-1.549060e-09	-1.801520e+01	-1.021218e+02
3.300000e-07	-2.273686e-06	-1.502942e-09	-1.789662e+01	-1.015301e+02
3.400000e-07	-2.257952e-06	-1.512085e-09	-1.777277e+01	-1.009226e+02
3.500000e-07	-2.241653e-06	-1.558938e-09	-1.764448e+01	-1.003010e+02
3.600000e-07	-2.224995e-06	-1.543898e-09	-1.751337e+01	-9.966631e+01
3.700000e-07	-2.208049e-06	-1.473785e-09	-1.737998e+01	-9.901970e+01
3.800000e-07	-2.190812e-06	-1.452190e-09	-1.724430e+01	-9.836192e+01
3.900000e-07	-2.173253e-06	-1.496060e-09	-1.710609e+01	-9.769347e+01
4.000000e-07	-2.155296e-06	-1.511030e-09	-1.696475e+01	-9.701455e+01
4.100000e-07	-2.136931e-06	-1.454692e-09	-1.682019e+01	-9.632510e+01
4.200000e-07	-2.118169e-06	-1.403656e-09	-1.667251e+01	-9.562480e+01
4.300000e-07	-2.099067e-06	-1.426645e-09	-1.652216e+01	-9.491310e+01
4.400000e-07	-2.079666e-06	-1.468823e-09	-1.636945e+01	-9.418933e+01
4.500000e-07	-2.060026e-06	-1.437438e-09	-1.621486e+01	-9.345272e+01
4.600000e-07	-2.040191e-06	-1.371401e-09	-1.605874e+01	-9.270244e+01
4.700000e-07	-2.020114e-06	-1.361507e-09	-1.590071e+01	-9.193773e+01
4.800000e-07	-1.999693e-06	-1.392003e-09	-1.573997e+01	-9.115787e+01
4.900000e-07	-1.978855e-06	-1.392436e-09	-1.557595e+01	-9.036232e+01
5.000000e-07	-1.957632e-06	-1.349526e-09	-1.540890e+01	-8.955065e+01
5.100000e-07	-1.936043e-06	-1.307490e-09	-1.523896e+01	-8.872264e+01
5.200000e-07	-1.914156e-06	-1.311059e-09	-1.506669e+01	-8.787823e+01
5.300000e-07	-1.891995e-06	-1.339229e-09	-1.489225e+01	-8.701755e+01
5.400000e-07	-1.869506e-06	-1.328579e-09	-1.471524e+01	-8.614086e+01
5.500000e-07	-1.846612e-06	-1.273855e-09	-1.453504e+01	-8.524856e+01
5.600000e-07	-1.823422e-06	-1.245160e-09	-1.435251e+01	-8.434110e+01
5.700000e-07	-1.800019e-06	-1.264536e-09	-1.416830e+01	-8.341899e+01
5.800000e-07	-1.776345e-06	-1.272576e-09	-1.398195e+01	-8.248274e+01
5.900000e-07	-1.752456e-06	-1.232872e-09	-1.379392e+01	-8.153280e+01
6.000000e-07	-1.728357e-06	-1.187368e-09	-1.360423e+01	-8.056956e+01
6.100000e-07	-1.703995e-06	-1.186130e-09	-1.341247e+01	-7.959333e+01
6.200000e-07	-1.679306e-06	-1.204988e-09	-1.321814e+01	-7.860431e+01
6.300000e-07	-1.654151e-06	-1.190455e-09	-1.302014e+01	-7.760261e+01
6.400000e-07	-1.628397e-06	-1.148888e-09	-1.281742e+01	-7.658822e+01
6.500000e-07	-1.602069e-06	-1.125961e-09	-1.261019e+01	-7.556110e+01
6.600000e-07	-1.575314e-06	-1.129734e-09	-1.239960e+01	-7.452113e+01
6.700000e-07	-1.548197e-06	-1.126319e-09	-1.218616e+01	-7.346820e+01
6.800000e-07	-1.520826e-06	-1.097663e-09	-1.197072e+01	-7.240220e+01
6.900000e-07	-1.493277e-06	-1.065728e-09	-1.175387e+01	-7.132308e+01
7.000000e-07	-1.465563e-06	-1.054472e-09	-1.153573e+01	-7.023085e+01
7.100000e-07	-1.437754e-06	-1.053090e-09	-1.131684e+01	-6.912561e+01
7.200000e-07	-1.409805e-06	-1.035080e-09	-1.109685e+01	-6.800756e+01
7.300000e-07	-1.381672e-06	-1.005297e-09	-1.087541e+01	-6.687701e+01
7.400000e-07	-1.353283e-06	-9.871804e-10	-1.065195e+01	-6.573434e+01
7.500000e-07	-1.324611e-06	-9.784361e-10	-1.042627e+01	-6.458001e+01
7.600000e-07	-1.295652e-06	-9.627690e-10	-1.019833e+01	-6.341452e+01
7.700000e-07	-1.266423e-06	-9.383068e-10	-9.968258e+00	-6.223840e+01
7.800000e-07	-1.237009e-06	-9.173110e-10	-9.736737e+00	-6.105212e+01
7.900000e-07	-1.207378e-06	-9.044831e-10	-9.503501e+00	-5.985615e+01
8.000000e-07	-1.177571e-06	-8.906302e-10	-9.268890e+00	-5.865082e+01
8.100000e-07	-1.147624e-06	-8.734682e-10	-9.033169e+00	-5.743639e+01
8.200000e-07	-1.117522e-06	-8.553722e-10	-8.796232e+00	-5.621297e+01
8.300000e-07	-1.087247e-06	-8.368848e-10	-8.557934e+00	-5.498057e+01
8.400000e-07	-1.056771e-06	-8.182297e-10	-8.318045e+00	-5.373904e+01
8.500000e-07	-1.026094e-06	-7.989829e-10	-8.076583e+00	-5.248814e+01
8.600000e-07	-9.951787e-07	-7.800588e-10	-7.833244e+00	-5.122751e+01
8.700000e-07	-9.640772e-07	-7.596919e-10	-7.588438e+00	-4.995678e+01
8.800000e-07	-9.328274e-07	-7.380780e-10	-7.342464e+00	-4.867553e+01
8.900000e-07	-9.014535e-07	-7.184159e-10	-7.095514e+00	-4.738336e+01
9.000000e-07	-8.700050e-07	-7.000028e-10	-6.847977e+00	-4.607995e+01
9.100000e-07	-8.384692e-07	-6.798976e-10	-6.599753e+00	-4.476506e+01
9.200000e-07	-8.068208e-07	-6.577278e-10	-6.350642e+00	-4.343860e+01
9.300000e-07	-7.750623e-07	-6.360773e-10	-6.100664e+00	-4.210061e+01
9.400000e-07	-7.432201e-07	-6.163516e-10	-5.850029e+00	-4.075128e+01
9.500000e-07	-7.113207e-07	-5.954849e-10	-5.598942e+00	-3.939098e+01
9.600000e-07	-6.793501e-07	-5.723752e-10	-5.347295e+00	-3.802022e+01
9.700000e-07	-6.472902e-07	-5.498079e-10	-5.094946e+00	-3.663962e+01
9.800000e-07	-6.151528e-07	-5.310387e-10	-4.841986e+00	-3.524988e+01
9.900000e-07	-5.829379e-07	-5.120338e-10	-4.588417e+00	-3.385176e+01
1.000000e-06	-5.506265e-07	-4.874883e-10	-4.334087e+00	-3.244601e+01
1.010000e-06	-5.182641e-07	-4.652260e-10	-4.079357e+00	-3.103333e+01
1.020000e-06	-4.857941e-07	-4.483462e-10	-3.823779e+00	-2.961435e+01
1.030000e-06	-4.531344e-07	-4.300258e-10	-3.566709e+00	-2.818955e+01
1.040000e-06	-4.203523e-07	-4.041565e-10	-3.308674e+00	-2.675927e+01
1.050000e-06	-3.874524e-07	-3.757728e-10	-3.049713e+00	-2.532369e+01
1.060000e-06	-3.544026e-07	-3.543916e-10	-2.789571e+00	-2.388280e+01
1.070000e-06	-3.212381e-07	-3.365203e-10	-2.528527e+00	-2.243645e+01
1.080000e-06	-2.879598e-07	-3.121859e-10	-2.266587e+00	-2.098432e+01
1.090000e-06	-2.546104e-07	-2.835206e-10	-2.004087e+00	-1.952601e+01
1.100000e-06	-2.212178e-07	-2.625331e-10	-1.741248e+00	-1.806104e+01
1.110000e-06	-1.877045e-07	-2.481118e-10	-1.477458e+00	-1.658893e+01
1.120000e-06	-1.540312e-07	-2.273245e-10	-1.212409e+00	-1.510921e+01
1.130000e-06	-1.202342e-07	-1.985838e-10	-9.463863e-01	-1.362154e+01
1.140000e-06	-8.643001e-08	-1.735308e-10	-6.803073e-01	-1.212568e+01
1.150000e-06	-5.272367e-08	-1.555754e-10	-4.149982e-01	-1.062160e+01
1.160000e-06	-1.906346e-08	-1.346935e-10	-1.500522e-01	-9.109446e+00
1.170000e-06	1.463752e-08	-1.075220e-10	1.152147e-01	-7.589620e+00
1.180000e-06	4.840707e-08	-8.224219e-11	3.810214e-01	-6.062739e+00
1.190000e-06	8.215704e-08	-6.310730e-11	6.466739e-01	-4.529645e+00
1.200000e-06	1.158136e-07	-4.465663e-11	9.115911e-01	-2.991380e+00
1.210000e-06	1.494827e-07	-2.001165e-11	1.176607e+00	-1.449146e+00
1.220000e-06	1.831469e-07	6.762469e-12	1.441585e+00	9.573076e-02
1.230000e-06	2.167236e-07	2.923615e-11	1.705873e+00	1.641860e+00
1.240000e-06	2.502163e-07	4.963438e-11	1.969501e+00	3.187836e+00
1.250000e-06	2.836100e-07	7.395845e-11	2.232349e+00	4.732297e+00
1.260000e-06	3.168914e-07	9.965809e-11	2.494314e+00	6.273973e+00
1.270000e-06	3.500964e-07	1.213891e-10	2.755677e+00	7.811736e+00
1.280000e-06	3.831233e-07	1.416362e-10	3.015637e+00	9.344632e+00
1.290000e-06	4.160219e-07	1.636283e-10	3.274588e+00	1.087191e+01
1.300000e-06	4.487950e-07	1.851671e-10	3.532552e+00	1.239305e+01
1.310000e-06	4.813528e-07	2.056030e-10	3.788821e+00	1.390773e+01
1.320000e-06	5.138178e-07	2.269472e-10	4.044359e+00	1.541586e+01
1.330000e-06	5.461915e-07	2.506978e-10	4.299178e+00	1.691752e+01
1.340000e-06	5.784184e-07	2.736218e-10	4.552842e+00	1.841299e+01
1.350000e-06	6.105041e-07	2.933537e-10	4.805395e+00	1.990263e+01
1.360000e-06	6.424993e-07	3.129394e-10	5.057236e+00	2.138694e+01
1.370000e-06	6.744627e-07	3.362778e-10	5.308826e+00	2.286644e+01
1.380000e-06	7.063635e-07	3.625866e-10	5.559923e+00	2.434167e+01
1.390000e-06	7.381785e-07	3.850968e-10	5.810345e+00	2.581315e+01
1.400000e-06	7.699320e-07	4.042531e-10	6.060283e+00	2.728136e+01
1.410000e-06	8.016577e-07	4.266990e-10	6.310002e+00	2.874668e+01
1.420000e-06	8.333507e-07	4.527981e-10	6.559464e+00	3.020943e+01
1.430000e-06	8.649465e-07	4.755176e-10	6.808161e+00	3.166980e+01
1.440000e-06	8.964333e-07	4.944558e-10	7.055999e+00	3.312791e+01
1.450000e-06	9.278534e-07	5.149097e-10	7.303313e+00	3.458376e+01
1.460000e-06	9.591204e-07	5.388483e-10	7.549422e+00	3.603727e+01
1.470000e-06	9.901679e-07	5.622297e-10	7.793802e+00	3.748828e+01
1.480000e-06	1.021049e-06	5.809934e-10	8.036870e+00	3.893659e+01
1.490000e-06	1.051697e-06	5.991716e-10	8.278110e+00	4.038191e+01
1.500000e-06	1.082076e-06	6.226623e-10	8.517230e+00	4.182394e+01
1.510000e-06	1.112232e-06	6.484190e-10	8.754593e+00	4.326234e+01
1.520000e-06	1.142223e-06	6.704780e-10	8.990657e+00	4.469675e+01
1.530000e-06	1.172026e-06	6.909108e-10	9.225239e+00	4.612677e+01
1.540000e-06	1.201675e-06	7.138034e-10	9.458616e+00	4.755201e+01
1.550000e-06	1.231234e-06	7.369571e-10	9.691279e+00	4.897202e+01
1.560000e-06	1.260667e-06	7.576766e-10	9.922951e+00	5.038634e+01
1.570000e-06	1.289924e-06	7.770856e-10	1.015324e+01	5.179447e+01
1.580000e-06	1.318861e-06	7.968823e-10	1.038101e+01	5.319585e+01
1.590000e-06	1.347451e-06	8.170043e-10	1.060605e+01	5.458989e+01
1.600000e-06	1.375800e-06	8.366773e-10	1.082919e+01	5.597595e+01
1.610000e-06	1.403917e-06	8.570502e-10	1.105050e+01	5.735336e+01
1.620000e-06	1.431852e-06	8.786899e-10	1.127039e+01	5.872137e+01
1.630000e-06	1.459693e-06	8.997905e-10	1.148952e+01	6.007924e+01
1.640000e-06	1.487429e-06	9.194462e-10	1.170784e+01	6.142620e+01
1.650000e-06	1.515070e-06	9.397133e-10	1.192541e+01	6.276147e+01
1.660000e-06	1.542588e-06	9.621905e-10	1.214200e+01	6.408428e+01
1.670000e-06	1.569811e-06	9.825712e-10	1.235629e+01	6.539392e+01
1.680000e-06	1.596671e-06	9.984488e-10	1.256770e+01	6.668969e+01
1.690000e-06	1.623049e-06	1.015022e-09	1.277533e+01	6.797097e+01
1.700000e-06	1.648846e-06	1.036074e-09	1.297838e+01	6.923721e+01
1.710000e-06	1.674033e-06	1.057203e-09	1.317664e+01	7.048795e+01
1.720000e-06	1.698664e-06	1.073902e-09	1.337051e+01	7.172280e+01
1.730000e-06	1.722948e-06	1.088740e-09	1.356166e+01	7.294144e+01
1.740000e-06	1.747000e-06	1.106594e-09	1.375097e+01	7.414366e+01
1.750000e-06	1.770846e-06	1.126643e-09	1.393867e+01	7.532929e+01
1.760000e-06	1.794469e-06	1.144771e-09	1.412461e+01	7.649822e+01
1.770000e-06	1.817806e-06	1.160295e-09	1.430830e+01	7.765039e+01
1.780000e-06	1.840862e-06	1.175856e-09	1.448978e+01	7.878575e+01
1.790000e-06	1.863602e-06	1.194252e-09	1.466877e+01	7.990427e+01
1.800000e-06	1.885948e-06	1.213073e-09	1.484466e+01	8.100593e+01
1.810000e-06	1.907976e-06	1.228448e-09	1.501804e+01	8.209070e+01
1.820000e-06	1.929743e-06	1.242133e-09	1.518938e+01	8.315853e+01
1.830000e-06	1.951224e-06	1.257275e-09	1.535846e+01	8.420937e+01
1.840000e-06	1.972382e-06	1.272134e-09	1.552500e+01	8.524316e+01
1.850000e-06	1.993210e-06	1.285985e-09	1.568894e+01	8.625981e+01
1.860000e-06	2.013720e-06	1.299935e-09	1.585038e+01	8.725925e+01
1.870000e-06	2.033875e-06	1.314526e-09	1.600902e+01	8.824141e+01
1.880000e-06	2.053732e-06	1.330153e-09	1.616532e+01	8.920625e+01
1.890000e-06	2.073434e-06	1.346093e-09	1.632039e+01	9.015372e+01
1.900000e-06	2.092954e-06	1.362004e-09	1.647404e+01	9.108382e+01
1.910000e-06	2.112159e-06	1.376898e-09	1.662521e+01	9.199654e+01
1.920000e-06	2.130967e-06	1.390880e-09	1.677325e+01	9.289192e+01
1.930000e-06	2.149371e-06	1.405249e-09	1.691811e+01	9.376996e+01
1.940000e-06	2.167403e-06	1.419856e-09	1.706005e+01	9.463069e+01
1.950000e-06	2.184956e-06	1.433690e-09	1.719821e+01	9.547409e+01
1.960000e-06	2.202074e-06	1.445630e-09	1.733295e+01	9.630008e+01
1.970000e-06	2.218934e-06	1.455984e-09	1.746566e+01	9.710853e+01
1.980000e-06	2.235485e-06	1.466405e-09	1.759593e+01	9.789921e+01
1.990000e-06	2.251688e-06	1.477121e-09	1.772347e+01	9.867180e+01
2.000000e-06	2.267426e-06	1.488779e-09	1.784735e+01	9.942584e+01
2.010000e-06	2.282562e-06	1.500661e-09	1.796649e+01	1.001608e+02
2.020000e-06	2.297145e-06	1.512468e-09	1.808127e+01	1.008759e+02
2.030000e-06	2.311210e-06	1.524154e-09	1.819198e+01	1.015706e+02
2.040000e-06	2.324881e-06	1.535638e-09	1.829959e+01	1.022438e+02
2.050000e-06	2.338212e-06	1.548602e-09	1.840452e+01	1.028948e+02
2.060000e-06	2.351033e-06	1.561181e-09	1.850544e+01	1.035225e+02
2.070000e-06	2.363383e-06	1.571438e-09	1.860264e+01	1.041263e+02
2.080000e-06	2.375395e-06	1.580271e-09	1.869719e+01	1.047052e+02
2.090000e-06	2.387081e-06	1.589316e-09	1.878918e+01	1.052587e+02
2.100000e-06	2.398348e-06	1.598540e-09	1.887786e+01	1.057862e+02
2.110000e-06	2.409026e-06	1.607800e-09	1.896191e+01	1.062874e+02
2.120000e-06	2.418919e-06	1.616101e-09	1.903978e+01	1.067622e+02
2.130000e-06	2.428077e-06	1.623551e-09	1.911186e+01	1.072107e+02
2.140000e-06	2.436667e-06	1.631143e-09	1.917948e+01	1.076334e+02
2.150000e-06	2.444826e-06	1.638397e-09	1.924370e+01	1.080307e+02
2.160000e-06	2.452674e-06	1.644100e-09	1.930547e+01	1.084035e+02
2.170000e-06	2.460234e-06	1.648715e-09	1.936498e+01	1.087525e+02
2.180000e-06	2.467477e-06	1.655503e-09	1.942199e+01	1.090788e+02
2.190000e-06	2.474285e-06	1.663713e-09	1.947557e+01	1.093834e+02
2.200000e-06	2.480651e-06	1.671104e-09	1.952568e+01	1.096673e+02
2.210000e-06	2.486616e-06	1.676342e-09	1.957264e+01	1.099314e+02
2.220000e-06	2.492152e-06	1.679953e-09	1.961621e+01	1.101763e+02
2.230000e-06	2.497227e-06	1.684202e-09	1.965615e+01	1.104029e+02
2.240000e-06	2.501879e-06	1.688866e-09	1.969277e+01	1.106113e+02
2.250000e-06	2.506187e-06	1.692888e-09	1.972668e+01	1.108017e+02
2.260000e-06	2.510174e-06	1.696356e-09	1.975807e+01	1.109742e+02
2.270000e-06	2.513863e-06	1.698887e-09	1.978710e+01	1.111283e+02
2.280000e-06	2.517231e-06	1.700680e-09	1.981361e+01	1.112635e+02
2.290000e-06	2.520156e-06	1.704563e-09	1.983663e+01	1.113794e+02
2.300000e-06	2.522498e-06	1.708897e-09	1.985507e+01	1.114751e+02
2.310000e-06	2.524142e-06	1.711071e-09	1.986801e+01	1.115500e+02
2.320000e-06	2.525080e-06	1.712258e-09	1.987539e+01	1.116034e+02
2.330000e-06	2.525455e-06	1.713631e-09	1.987834e+01	1.116348e+02
2.340000e-06	2.525475e-06	1.715540e-09	1.987850e+01	1.116437e+02
2.350000e-06	2.525238e-06	1.717711e-09	1.987663e+01	1.116302e+02
2.360000e-06	2.524714e-06	1.718712e-09	1.987251e+01	1.115942e+02
2.370000e-06	2.523806e-06	1.718483e-09	1.986537e+01	1.115363e+02
2.380000e-06	2.522429e-06	1.716855e-09	1.985452e+01	1.114570e+02
2.390000e-06	2.520601e-06	1.719507e-09	1.984014e+01	1.113574e+02
2.400000e-06	2.518385e-06	1.735879e-09	1.982270e+01	1.112385e+02
2.410000e-06	2.515763e-06	1.702171e-09	1.980205e+01	1.111017e+02
2.420000e-06	2.512660e-06	1.666419e-09	1.977763e+01	1.109483e+02
2.430000e-06	2.509042e-06	1.694914e-09	1.974915e+01	1.107798e+02
2.440000e-06	2.505050e-06	1.722429e-09	1.971773e+01	1.105974e+02
2.450000e-06	2.500838e-06	1.699727e-09	1.968458e+01	1.104022e+02
2.460000e-06	2.496369e-06	1.676378e-09	1.964940e+01	1.101953e+02
2.470000e-06	2.491382e-06	1.680681e-09	1.961015e+01	1.099773e+02
2.480000e-06	2.485922e-06	1.694592e-09	1.956717e+01	1.097484e+02
2.490000e-06	2.480039e-06	1.695346e-09	1.952087e+01	1.095085e+02
2.500000e-06	2.473350e-06	1.685720e-09	1.946821e+01	1.092574e+02
2.510000e-06	2.465880e-06	1.656816e-09	1.940942e+01	1.089941e+02
2.520000e-06	2.457981e-06	1.637125e-09	1.934724e+01	1.087177e+02
2.530000e-06	2.449815e-06	1.684950e-09	1.928297e+01	1.084269e+02
2.540000e-06	2.441292e-06	1.705639e-09	1.921588e+01	1.081203e+02
2.550000e-06	2.432320e-06	1.631190e-09	1.914526e+01	1.077962e+02
2.560000e-06	2.423018e-06	1.578936e-09	1.907204e+01	1.074533e+02
2.570000e-06	2.413406e-06	1.661102e-09	1.899638e+01	1.070902e+02
2.580000e-06	2.403403e-06	1.707836e-09	1.891765e+01	1.067055e+02
2.590000e-06	2.392981e-06	1.611491e-09	1.883561e+01	1.062984e+02
2.600000e-06	2.382133e-06	1.553049e-09	1.875023e+01	1.058683e+02
2.610000e-06	2.370826e-06	1.627288e-09	1.866123e+01	1.054149e+02
2.620000e-06	2.359027e-06	1.660190e-09	1.856836e+01	1.049383e+02
2.630000e-06	2.346796e-06	1.592779e-09	1.847208e+01	1.044390e+02
2.640000e-06	2.334157e-06	1.563576e-09	1.837260e+01	1.039176e+02
2.650000e-06	2.320942e-06	1.581699e-09	1.826858e+01	1.033754e+02
2.660000e-06	2.307027e-06	1.578982e-09	1.815906e+01	1.028136e+02
2.670000e-06	2.292465e-06	1.574697e-09	1.804443e+01	1.022336e+02
2.680000e-06	2.277350e-06	1.569200e-09	1.792546e+01	1.016370e+02
2.690000e-06	2.261703e-06	1.525756e-09	1.780230e+01	1.010251e+02
2.700000e-06	2.245663e-06	1.509635e-09	1.767605e+01	1.003994e+02
2.710000e-06	2.229441e-06	1.545872e-09	1.754836e+01	9.976102e+01
2.720000e-06	2.212970e-06	1.545462e-09	1.741871e+01	9.911095e+01
2.730000e-06	2.196053e-06	1.498616e-09	1.728556e+01	9.844990e+01
2.740000e-06	2.178680e-06	1.476685e-09	1.714881e+01	9.777826e+01
2.750000e-06	2.160983e-06	1.489405e-09	1.700951e+01	9.709617e+01
2.760000e-06	2.142992e-06	1.498368e-09	1.686790e+01	9.640347e+01
2.770000e-06	2.124680e-06	1.475474e-09	1.672377e+01	9.569978e+01
2.780000e-06	2.106004e-06	1.433404e-09	1.657677e+01	9.498450e+01
2.790000e-06	2.086899e-06	1.429787e-09	1.642639e+01	9.425693e+01
2.800000e-06	2.067374e-06	1.449790e-09	1.627270e+01	9.351627e+01
2.810000e-06	2.047522e-06	1.431863e-09	1.611644e+01	9.276170e+01
2.820000e-06	2.027450e-06	1.398935e-09	1.595845e+01	9.199248e+01
2.830000e-06	2.007236e-06	1.391091e-09	1.579934e+01	9.120794e+01
2.840000e-06	1.986823e-06	1.384164e-09	1.563867e+01	9.040755e+01
2.850000e-06	1.966122e-06	1.377528e-09	1.547573e+01	8.959096e+01
2.860000e-06	1.945039e-06	1.371892e-09	1.530977e+01	8.875799e+01
2.870000e-06	1.923388e-06	1.344845e-09	1.513936e+01	8.790865e+01
2.880000e-06	1.901038e-06	1.325023e-09	1.496343e+01	8.704309e+01
2.890000e-06	1.878072e-06	1.330798e-09	1.478267e+01	8.616164e+01
2.900000e-06	1.854601e-06	1.322477e-09	1.459793e+01	8.526471e+01
2.910000e-06	1.830797e-06	1.290904e-09	1.441056e+01	8.435276e+01
2.920000e-06	1.806835e-06	1.270354e-09	1.422195e+01	8.342633e+01
2.930000e-06	1.782685e-06	1.269198e-09	1.403185e+01	8.248589e+01
2.940000e-06	1.758355e-06	1.266233e-09	1.384035e+01	8.153189e+01
2.950000e-06	1.733787e-06	1.241655e-09	1.364697e+01	8.056469e+01
