# Temperatura_=_20.0
# Concentracion g/m^3_=_12600.0
# C_Vs_to_Am_M_A/Vsm_=_65563218390.804596
# pendiente_HvsI_1/m_=_3716.3
# ordenada_HvsI_A/m_=_1297.0
# frecuencia_Hz_=_213020.7259129449

Tiempo_(s)	Campo_(V.s)	Magnetizacion_(V.s)	Campo_(kA/m)	Magnetizacion_(A/m)
0.000000e+00	-2.519971e-06	-1.536868e-09	-1.983114e+01	-1.014921e+02
1.000000e-08	-2.520050e-06	-1.539096e-09	-1.983176e+01	-1.014486e+02
2.000000e-08	-2.519833e-06	-1.540305e-09	-1.983006e+01	-1.013882e+02
3.000000e-08	-2.519183e-06	-1.538519e-09	-1.982494e+01	-1.013118e+02
4.000000e-08	-2.517946e-06	-1.536748e-09	-1.981521e+01	-1.012202e+02
5.000000e-08	-2.516000e-06	-1.536501e-09	-1.979989e+01	-1.011140e+02
6.000000e-08	-2.513307e-06	-1.527450e-09	-1.977870e+01	-1.009937e+02
7.000000e-08	-2.510038e-06	-1.515577e-09	-1.975297e+01	-1.008593e+02
8.000000e-08	-2.506416e-06	-1.526386e-09	-1.972447e+01	-1.007109e+02
9.000000e-08	-2.502500e-06	-1.564797e-09	-1.969365e+01	-1.005483e+02
1.000000e-07	-2.498267e-06	-1.551105e-09	-1.966034e+01	-1.003714e+02
1.100000e-07	-2.493644e-06	-1.482778e-09	-1.962395e+01	-1.001796e+02
1.200000e-07	-2.488594e-06	-1.497242e-09	-1.958422e+01	-9.997278e+01
1.300000e-07	-2.483120e-06	-1.560648e-09	-1.954114e+01	-9.975038e+01
1.400000e-07	-2.477204e-06	-1.548505e-09	-1.949458e+01	-9.951211e+01
1.500000e-07	-2.470809e-06	-1.489289e-09	-1.944425e+01	-9.925771e+01
1.600000e-07	-2.463940e-06	-1.490113e-09	-1.939020e+01	-9.898697e+01
1.700000e-07	-2.456664e-06	-1.499425e-09	-1.933294e+01	-9.869983e+01
1.800000e-07	-2.449076e-06	-1.501573e-09	-1.927323e+01	-9.839632e+01
1.900000e-07	-2.441214e-06	-1.541345e-09	-1.921136e+01	-9.807654e+01
2.000000e-07	-2.433023e-06	-1.517150e-09	-1.914689e+01	-9.774071e+01
2.100000e-07	-2.424399e-06	-1.427928e-09	-1.907903e+01	-9.738909e+01
2.200000e-07	-2.415088e-06	-1.439481e-09	-1.900576e+01	-9.702198e+01
2.300000e-07	-2.404948e-06	-1.556001e-09	-1.892595e+01	-9.663969e+01
2.400000e-07	-2.394156e-06	-1.526777e-09	-1.884102e+01	-9.624255e+01
2.500000e-07	-2.382913e-06	-1.376810e-09	-1.875255e+01	-9.583082e+01
2.600000e-07	-2.371261e-06	-1.408719e-09	-1.866085e+01	-9.540476e+01
2.700000e-07	-2.359234e-06	-1.542596e-09	-1.856621e+01	-9.496454e+01
2.800000e-07	-2.346785e-06	-1.477452e-09	-1.846824e+01	-9.451033e+01
2.900000e-07	-2.333813e-06	-1.353409e-09	-1.836616e+01	-9.404222e+01
3.000000e-07	-2.320403e-06	-1.421659e-09	-1.826062e+01	-9.356030e+01
3.100000e-07	-2.306607e-06	-1.496301e-09	-1.815205e+01	-9.306464e+01
3.200000e-07	-2.292399e-06	-1.401333e-09	-1.804024e+01	-9.255531e+01
3.300000e-07	-2.277618e-06	-1.347701e-09	-1.792392e+01	-9.203242e+01
3.400000e-07	-2.262206e-06	-1.420562e-09	-1.780264e+01	-9.149611e+01
3.500000e-07	-2.246245e-06	-1.428425e-09	-1.767703e+01	-9.094657e+01
3.600000e-07	-2.229782e-06	-1.356949e-09	-1.754747e+01	-9.038407e+01
3.700000e-07	-2.212930e-06	-1.346749e-09	-1.741485e+01	-8.980892e+01
3.800000e-07	-2.195737e-06	-1.377064e-09	-1.727956e+01	-8.922148e+01
3.900000e-07	-2.178249e-06	-1.364330e-09	-1.714193e+01	-8.862215e+01
4.000000e-07	-2.160454e-06	-1.336584e-09	-1.700189e+01	-8.801133e+01
4.100000e-07	-2.142311e-06	-1.324223e-09	-1.685911e+01	-8.738942e+01
4.200000e-07	-2.123752e-06	-1.308618e-09	-1.671306e+01	-8.675676e+01
4.300000e-07	-2.104706e-06	-1.304618e-09	-1.656318e+01	-8.611362e+01
4.400000e-07	-2.085281e-06	-1.318195e-09	-1.641031e+01	-8.546015e+01
4.500000e-07	-2.065634e-06	-1.305186e-09	-1.625569e+01	-8.479641e+01
4.600000e-07	-2.045798e-06	-1.257844e-09	-1.609960e+01	-8.412227e+01
4.700000e-07	-2.025783e-06	-1.238024e-09	-1.594209e+01	-8.343746e+01
4.800000e-07	-2.005497e-06	-1.271216e-09	-1.578244e+01	-8.274159e+01
4.900000e-07	-1.984817e-06	-1.275645e-09	-1.561969e+01	-8.203408e+01
5.000000e-07	-1.963718e-06	-1.217051e-09	-1.545366e+01	-8.131427e+01
5.100000e-07	-1.942247e-06	-1.184639e-09	-1.528469e+01	-8.058138e+01
5.200000e-07	-1.920478e-06	-1.211507e-09	-1.511338e+01	-7.983461e+01
5.300000e-07	-1.898414e-06	-1.220385e-09	-1.493975e+01	-7.907313e+01
5.400000e-07	-1.876008e-06	-1.188923e-09	-1.476342e+01	-7.829616e+01
5.500000e-07	-1.853228e-06	-1.162708e-09	-1.458415e+01	-7.750299e+01
5.600000e-07	-1.830124e-06	-1.148744e-09	-1.440233e+01	-7.669303e+01
5.700000e-07	-1.806740e-06	-1.140735e-09	-1.421831e+01	-7.586587e+01
5.800000e-07	-1.783103e-06	-1.147180e-09	-1.403229e+01	-7.502124e+01
5.900000e-07	-1.759239e-06	-1.136852e-09	-1.384449e+01	-7.415911e+01
6.000000e-07	-1.735133e-06	-1.093973e-09	-1.365478e+01	-7.327962e+01
6.100000e-07	-1.710768e-06	-1.066518e-09	-1.346304e+01	-7.238314e+01
6.200000e-07	-1.686123e-06	-1.083871e-09	-1.326910e+01	-7.147017e+01
6.300000e-07	-1.661037e-06	-1.097680e-09	-1.307168e+01	-7.054142e+01
6.400000e-07	-1.635367e-06	-1.060907e-09	-1.286967e+01	-6.959769e+01
6.500000e-07	-1.609226e-06	-1.012472e-09	-1.266395e+01	-6.863984e+01
6.600000e-07	-1.582684e-06	-1.010246e-09	-1.245507e+01	-6.766882e+01
6.700000e-07	-1.555643e-06	-1.032348e-09	-1.224227e+01	-6.668552e+01
6.800000e-07	-1.528257e-06	-1.016803e-09	-1.202676e+01	-6.569082e+01
6.900000e-07	-1.500693e-06	-9.665263e-10	-1.180984e+01	-6.468552e+01
7.000000e-07	-1.472963e-06	-9.396763e-10	-1.159161e+01	-6.367030e+01
7.100000e-07	-1.445124e-06	-9.509516e-10	-1.137253e+01	-6.264573e+01
7.200000e-07	-1.417182e-06	-9.546069e-10	-1.115264e+01	-6.161224e+01
7.300000e-07	-1.389090e-06	-9.215334e-10	-1.093157e+01	-6.057011e+01
7.400000e-07	-1.360760e-06	-8.827259e-10	-1.070862e+01	-5.951950e+01
7.500000e-07	-1.332091e-06	-8.786684e-10	-1.048301e+01	-5.846048e+01
7.600000e-07	-1.303116e-06	-8.878824e-10	-1.025499e+01	-5.739297e+01
7.700000e-07	-1.273924e-06	-8.696003e-10	-1.002526e+01	-5.631687e+01
7.800000e-07	-1.244543e-06	-8.366621e-10	-9.794044e+00	-5.523199e+01
7.900000e-07	-1.214953e-06	-8.210835e-10	-9.561183e+00	-5.413814e+01
8.000000e-07	-1.185168e-06	-8.167276e-10	-9.326786e+00	-5.303513e+01
8.100000e-07	-1.155247e-06	-8.022348e-10	-9.091318e+00	-5.192278e+01
8.200000e-07	-1.125210e-06	-7.808357e-10	-8.854941e+00	-5.080095e+01
8.300000e-07	-1.095033e-06	-7.616964e-10	-8.617464e+00	-4.966953e+01
8.400000e-07	-1.064629e-06	-7.432347e-10	-8.378192e+00	-4.852849e+01
8.500000e-07	-1.034010e-06	-7.249189e-10	-8.137234e+00	-4.737781e+01
8.600000e-07	-1.003225e-06	-7.101752e-10	-7.894972e+00	-4.621754e+01
8.700000e-07	-9.722247e-07	-6.971940e-10	-7.651011e+00	-4.504778e+01
8.800000e-07	-9.409862e-07	-6.780198e-10	-7.405177e+00	-4.386863e+01
8.900000e-07	-9.095799e-07	-6.522249e-10	-7.158022e+00	-4.268024e+01
9.000000e-07	-8.780539e-07	-6.312169e-10	-6.909925e+00	-4.148276e+01
9.100000e-07	-8.464450e-07	-6.209234e-10	-6.661176e+00	-4.027637e+01
9.200000e-07	-8.147760e-07	-6.092101e-10	-6.411954e+00	-3.906122e+01
9.300000e-07	-7.830288e-07	-5.821653e-10	-6.162116e+00	-3.783751e+01
9.400000e-07	-7.511960e-07	-5.505427e-10	-5.911606e+00	-3.660541e+01
9.500000e-07	-7.192999e-07	-5.355649e-10	-5.660596e+00	-3.536511e+01
9.600000e-07	-6.873299e-07	-5.305812e-10	-5.409005e+00	-3.411681e+01
9.700000e-07	-6.552763e-07	-5.115247e-10	-5.156756e+00	-3.286075e+01
9.800000e-07	-6.231727e-07	-4.779021e-10	-4.904115e+00	-3.159715e+01
9.900000e-07	-5.909825e-07	-4.532741e-10	-4.650790e+00	-3.032627e+01
1.000000e-06	-5.586758e-07	-4.439085e-10	-4.396550e+00	-2.904840e+01
1.010000e-06	-5.262088e-07	-4.311243e-10	-4.141048e+00	-2.776382e+01
1.020000e-06	-4.936449e-07	-4.036218e-10	-3.884783e+00	-2.647283e+01
1.030000e-06	-4.609709e-07	-3.748958e-10	-3.627652e+00	-2.517573e+01
1.040000e-06	-4.281010e-07	-3.602826e-10	-3.368980e+00	-2.387278e+01
1.050000e-06	-3.952064e-07	-3.499652e-10	-3.110113e+00	-2.256422e+01
1.060000e-06	-3.622763e-07	-3.273778e-10	-2.850966e+00	-2.125025e+01
1.070000e-06	-3.291784e-07	-2.980542e-10	-2.590499e+00	-1.993098e+01
1.080000e-06	-2.959809e-07	-2.766510e-10	-2.329249e+00	-1.860648e+01
1.090000e-06	-2.627261e-07	-2.606422e-10	-2.067547e+00	-1.727673e+01
1.100000e-06	-2.294224e-07	-2.418676e-10	-1.805461e+00	-1.594162e+01
1.110000e-06	-1.959827e-07	-2.199451e-10	-1.542303e+00	-1.460101e+01
1.120000e-06	-1.624404e-07	-1.973546e-10	-1.278339e+00	-1.325468e+01
1.130000e-06	-1.288733e-07	-1.738353e-10	-1.014180e+00	-1.190240e+01
1.140000e-06	-9.520363e-08	-1.532754e-10	-7.492136e-01	-1.054396e+01
1.150000e-06	-6.145947e-08	-1.369557e-10	-4.836609e-01	-9.179164e+00
1.160000e-06	-2.778669e-08	-1.162679e-10	-2.186699e-01	-7.807922e+00
1.170000e-06	5.847221e-09	-9.086707e-11	4.601523e-02	-6.430246e+00
1.180000e-06	3.965752e-08	-6.783793e-11	3.120885e-01	-5.046305e+00
1.190000e-06	7.346002e-08	-5.025468e-11	5.781003e-01	-3.656450e+00
1.200000e-06	1.071177e-07	-3.302578e-11	8.429728e-01	-2.261231e+00
1.210000e-06	1.406816e-07	-1.054442e-11	1.107107e+00	-8.614119e-01
1.220000e-06	1.741920e-07	1.526158e-11	1.370820e+00	5.420378e-01
1.230000e-06	2.076273e-07	3.845242e-11	1.633942e+00	1.947957e+00
1.240000e-06	2.409834e-07	5.503323e-11	1.896441e+00	3.355024e+00
1.250000e-06	2.743606e-07	7.176392e-11	2.159106e+00	4.761800e+00
1.260000e-06	3.076192e-07	9.510638e-11	2.420837e+00	6.166784e+00
1.270000e-06	3.406892e-07	1.206754e-10	2.681085e+00	7.568472e+00
1.280000e-06	3.736938e-07	1.397490e-10	2.940818e+00	8.965426e+00
1.290000e-06	4.065914e-07	1.533078e-10	3.199708e+00	1.035634e+01
1.300000e-06	4.393554e-07	1.714884e-10	3.457547e+00	1.174010e+01
1.310000e-06	4.720127e-07	1.968797e-10	3.714547e+00	1.311585e+01
1.320000e-06	5.045281e-07	2.201218e-10	3.970429e+00	1.448301e+01
1.330000e-06	5.369497e-07	2.368496e-10	4.225575e+00	1.584134e+01
1.340000e-06	5.692932e-07	2.535277e-10	4.480104e+00	1.719091e+01
1.350000e-06	6.015414e-07	2.754915e-10	4.733885e+00	1.853215e+01
1.360000e-06	6.336835e-07	2.992885e-10	4.986830e+00	1.986573e+01
1.370000e-06	6.657199e-07	3.200143e-10	5.238943e+00	2.119262e+01
1.380000e-06	6.976826e-07	3.382562e-10	5.490477e+00	2.251397e+01
1.390000e-06	7.295766e-07	3.557455e-10	5.741469e+00	2.383102e+01
1.400000e-06	7.613816e-07	3.751251e-10	5.991762e+00	2.514510e+01
1.410000e-06	7.931312e-07	3.958378e-10	6.241618e+00	2.645746e+01
1.420000e-06	8.248699e-07	4.156160e-10	6.491388e+00	2.776925e+01
1.430000e-06	8.565702e-07	4.337160e-10	6.740857e+00	2.908144e+01
1.440000e-06	8.881537e-07	4.522522e-10	6.989406e+00	3.039474e+01
1.450000e-06	9.196320e-07	4.734130e-10	7.237128e+00	3.170957e+01
1.460000e-06	9.509763e-07	4.964045e-10	7.483795e+00	3.302604e+01
1.470000e-06	9.820951e-07	5.176404e-10	7.728687e+00	3.434394e+01
1.480000e-06	1.012971e-06	5.342399e-10	7.971671e+00	3.566278e+01
1.490000e-06	1.043646e-06	5.495765e-10	8.213068e+00	3.698177e+01
1.500000e-06	1.074163e-06	5.702434e-10	8.453223e+00	3.829993e+01
1.510000e-06	1.104441e-06	5.937027e-10	8.691497e+00	3.961610e+01
1.520000e-06	1.134466e-06	6.126158e-10	8.927781e+00	4.092907e+01
1.530000e-06	1.164352e-06	6.284015e-10	9.162973e+00	4.223760e+01
1.540000e-06	1.194106e-06	6.482819e-10	9.397129e+00	4.354051e+01
1.550000e-06	1.223708e-06	6.715472e-10	9.630080e+00	4.483673e+01
1.560000e-06	1.253148e-06	6.922206e-10	9.861762e+00	4.612538e+01
1.570000e-06	1.282393e-06	7.098085e-10	1.009191e+01	4.740578e+01
1.580000e-06	1.311414e-06	7.264882e-10	1.032029e+01	4.867745e+01
1.590000e-06	1.340180e-06	7.453976e-10	1.054667e+01	4.994015e+01
1.600000e-06	1.368688e-06	7.672621e-10	1.077102e+01	5.119379e+01
1.610000e-06	1.396955e-06	7.880839e-10	1.099346e+01	5.243849e+01
1.620000e-06	1.424995e-06	8.064462e-10	1.121413e+01	5.367440e+01
1.630000e-06	1.452866e-06	8.241572e-10	1.143346e+01	5.490177e+01
1.640000e-06	1.480621e-06	8.431210e-10	1.165189e+01	5.612077e+01
1.650000e-06	1.508242e-06	8.638731e-10	1.186924e+01	5.733150e+01
1.660000e-06	1.535731e-06	8.847411e-10	1.208558e+01	5.853391e+01
1.670000e-06	1.563044e-06	9.030707e-10	1.230052e+01	5.972773e+01
1.680000e-06	1.589980e-06	9.181938e-10	1.251249e+01	6.091248e+01
1.690000e-06	1.616394e-06	9.345227e-10	1.272036e+01	6.208742e+01
1.700000e-06	1.642295e-06	9.534212e-10	1.292419e+01	6.325160e+01
1.710000e-06	1.667701e-06	9.712892e-10	1.312412e+01	6.440383e+01
1.720000e-06	1.692611e-06	9.871514e-10	1.332016e+01	6.554279e+01
1.730000e-06	1.717105e-06	1.002532e-09	1.351291e+01	6.666705e+01
1.740000e-06	1.741258e-06	1.020288e-09	1.370299e+01	6.777516e+01
1.750000e-06	1.765158e-06	1.040511e-09	1.389107e+01	6.886572e+01
1.760000e-06	1.788915e-06	1.058499e-09	1.407803e+01	6.993748e+01
1.770000e-06	1.812471e-06	1.072908e-09	1.426341e+01	7.098940e+01
1.780000e-06	1.835718e-06	1.086417e-09	1.444635e+01	7.202071e+01
1.790000e-06	1.858617e-06	1.102394e-09	1.462655e+01	7.303098e+01
1.800000e-06	1.881146e-06	1.119487e-09	1.480385e+01	7.402014e+01
1.810000e-06	1.903326e-06	1.134200e-09	1.497840e+01	7.498847e+01
1.820000e-06	1.925214e-06	1.147611e-09	1.515065e+01	7.593660e+01
1.830000e-06	1.946854e-06	1.162293e-09	1.532094e+01	7.686546e+01
1.840000e-06	1.968172e-06	1.177166e-09	1.548871e+01	7.777624e+01
1.850000e-06	1.989075e-06	1.190725e-09	1.565321e+01	7.867027e+01
1.860000e-06	2.009595e-06	1.204325e-09	1.581469e+01	7.954898e+01
1.870000e-06	2.029818e-06	1.216904e-09	1.597383e+01	8.041375e+01
1.880000e-06	2.049795e-06	1.229149e-09	1.613105e+01	8.126588e+01
1.890000e-06	2.069569e-06	1.242562e-09	1.628666e+01	8.210642e+01
1.900000e-06	2.089145e-06	1.256165e-09	1.644072e+01	8.293617e+01
1.910000e-06	2.108455e-06	1.268792e-09	1.659268e+01	8.375557e+01
1.920000e-06	2.127378e-06	1.280363e-09	1.674159e+01	8.456470e+01
1.930000e-06	2.145826e-06	1.293112e-09	1.688677e+01	8.536322e+01
1.940000e-06	2.163786e-06	1.307573e-09	1.702811e+01	8.615043e+01
1.950000e-06	2.181305e-06	1.321230e-09	1.716598e+01	8.692530e+01
1.960000e-06	2.198489e-06	1.330970e-09	1.730121e+01	8.768650e+01
1.970000e-06	2.215353e-06	1.338642e-09	1.743393e+01	8.843252e+01
1.980000e-06	2.231881e-06	1.348387e-09	1.756399e+01	8.916171e+01
1.990000e-06	2.248056e-06	1.359830e-09	1.769128e+01	8.987243e+01
2.000000e-06	2.263788e-06	1.369272e-09	1.781509e+01	9.056310e+01
2.010000e-06	2.278987e-06	1.376230e-09	1.793469e+01	9.123234e+01
2.020000e-06	2.293609e-06	1.384374e-09	1.804976e+01	9.187899e+01
2.030000e-06	2.307728e-06	1.395595e-09	1.816088e+01	9.250222e+01
2.040000e-06	2.321449e-06	1.408475e-09	1.826885e+01	9.310153e+01
2.050000e-06	2.334800e-06	1.420145e-09	1.837392e+01	9.367681e+01
2.060000e-06	2.347741e-06	1.427923e-09	1.847576e+01	9.422829e+01
2.070000e-06	2.360276e-06	1.434199e-09	1.857441e+01	9.475653e+01
2.080000e-06	2.372444e-06	1.442465e-09	1.867017e+01	9.526234e+01
2.090000e-06	2.384242e-06	1.450113e-09	1.876301e+01	9.574675e+01
2.100000e-06	2.395570e-06	1.455426e-09	1.885216e+01	9.621091e+01
2.110000e-06	2.406347e-06	1.460083e-09	1.893697e+01	9.665599e+01
2.120000e-06	2.416539e-06	1.465578e-09	1.901717e+01	9.708309e+01
2.130000e-06	2.426028e-06	1.472418e-09	1.909185e+01	9.749319e+01
2.140000e-06	2.434824e-06	1.480573e-09	1.916107e+01	9.788707e+01
2.150000e-06	2.443147e-06	1.487736e-09	1.922657e+01	9.826521e+01
2.160000e-06	2.451145e-06	1.494007e-09	1.928951e+01	9.862783e+01
2.170000e-06	2.458840e-06	1.500937e-09	1.935006e+01	9.897483e+01
2.180000e-06	2.466175e-06	1.508463e-09	1.940778e+01	9.930581e+01
2.190000e-06	2.473075e-06	1.514555e-09	1.946209e+01	9.962010e+01
2.200000e-06	2.479505e-06	1.517972e-09	1.951269e+01	9.991682e+01
2.210000e-06	2.485533e-06	1.520707e-09	1.956013e+01	1.001949e+02
2.220000e-06	2.491178e-06	1.524157e-09	1.960455e+01	1.004533e+02
2.230000e-06	2.496378e-06	1.529115e-09	1.964547e+01	1.006908e+02
2.240000e-06	2.501130e-06	1.534058e-09	1.968287e+01	1.009064e+02
2.250000e-06	2.505475e-06	1.538007e-09	1.971707e+01	1.010993e+02
2.260000e-06	2.509527e-06	1.540898e-09	1.974895e+01	1.012686e+02
2.270000e-06	2.513331e-06	1.543101e-09	1.977888e+01	1.014139e+02
2.280000e-06	2.516833e-06	1.544934e-09	1.980645e+01	1.015352e+02
2.290000e-06	2.519900e-06	1.545597e-09	1.983058e+01	1.016324e+02
2.300000e-06	2.522368e-06	1.546235e-09	1.985000e+01	1.017061e+02
2.310000e-06	2.524159e-06	1.547322e-09	1.986410e+01	1.017568e+02
2.320000e-06	2.525294e-06	1.548332e-09	1.987303e+01	1.017855e+02
2.330000e-06	2.525859e-06	1.550446e-09	1.987747e+01	1.017931e+02
2.340000e-06	2.525989e-06	1.552364e-09	1.987850e+01	1.017808e+02
2.350000e-06	2.525795e-06	1.553320e-09	1.987697e+01	1.017497e+02
2.360000e-06	2.525299e-06	1.555004e-09	1.987307e+01	1.017009e+02
2.370000e-06	2.524439e-06	1.556727e-09	1.986631e+01	1.016356e+02
2.380000e-06	2.523150e-06	1.555904e-09	1.985616e+01	1.015545e+02
2.390000e-06	2.521442e-06	1.549761e-09	1.984272e+01	1.014584e+02
2.400000e-06	2.519326e-06	1.550694e-09	1.982607e+01	1.013478e+02
2.410000e-06	2.516815e-06	1.560655e-09	1.980630e+01	1.012231e+02
2.420000e-06	2.513831e-06	1.552457e-09	1.978282e+01	1.010845e+02
2.430000e-06	2.510364e-06	1.514414e-09	1.975554e+01	1.009318e+02
2.440000e-06	2.506542e-06	1.517695e-09	1.972546e+01	1.007649e+02
2.450000e-06	2.502434e-06	1.575617e-09	1.969313e+01	1.005834e+02
2.460000e-06	2.498003e-06	1.554432e-09	1.965826e+01	1.003871e+02
2.470000e-06	2.493131e-06	1.502117e-09	1.961992e+01	1.001756e+02
2.480000e-06	2.487788e-06	1.521052e-09	1.957788e+01	9.994836e+01
2.490000e-06	2.481925e-06	1.546712e-09	1.953173e+01	9.970520e+01
2.500000e-06	2.475438e-06	1.525028e-09	1.948068e+01	9.944583e+01
2.510000e-06	2.468291e-06	1.515755e-09	1.942444e+01	9.917010e+01
2.520000e-06	2.460597e-06	1.520567e-09	1.936389e+01	9.887796e+01
2.530000e-06	2.452518e-06	1.485733e-09	1.930031e+01	9.856947e+01
2.540000e-06	2.444097e-06	1.485571e-09	1.923405e+01	9.824477e+01
2.550000e-06	2.435301e-06	1.540408e-09	1.916482e+01	9.790409e+01
2.560000e-06	2.426098e-06	1.510804e-09	1.909240e+01	9.754771e+01
2.570000e-06	2.416551e-06	1.415298e-09	1.901727e+01	9.717594e+01
2.580000e-06	2.406643e-06	1.465289e-09	1.893930e+01	9.678908e+01
2.590000e-06	2.396272e-06	1.567037e-09	1.885768e+01	9.638746e+01
2.600000e-06	2.385427e-06	1.471487e-09	1.877233e+01	9.597132e+01
2.610000e-06	2.374171e-06	1.353577e-09	1.868375e+01	9.554091e+01
2.620000e-06	2.362517e-06	1.471351e-09	1.859204e+01	9.509641e+01
2.630000e-06	2.350419e-06	1.560347e-09	1.849684e+01	9.463793e+01
2.640000e-06	2.337843e-06	1.400559e-09	1.839787e+01	9.416560e+01
2.650000e-06	2.324715e-06	1.325789e-09	1.829456e+01	9.367947e+01
2.660000e-06	2.310928e-06	1.480552e-09	1.818605e+01	9.317962e+01
2.670000e-06	2.296528e-06	1.496754e-09	1.807273e+01	9.266613e+01
2.680000e-06	2.281566e-06	1.334566e-09	1.795499e+01	9.213911e+01
2.690000e-06	2.266089e-06	1.335202e-09	1.783319e+01	9.159873e+01
2.700000e-06	2.250248e-06	1.447452e-09	1.770853e+01	9.104520e+01
2.710000e-06	2.234105e-06	1.405525e-09	1.758149e+01	9.047879e+01
2.720000e-06	2.217698e-06	1.321650e-09	1.745237e+01	8.989983e+01
2.730000e-06	2.200952e-06	1.355545e-09	1.732059e+01	8.930870e+01
2.740000e-06	2.183797e-06	1.382422e-09	1.718559e+01	8.870580e+01
2.750000e-06	2.166208e-06	1.340184e-09	1.704717e+01	8.809154e+01
2.760000e-06	2.148255e-06	1.321424e-09	1.690589e+01	8.746629e+01
2.770000e-06	2.130018e-06	1.328934e-09	1.676237e+01	8.683038e+01
2.780000e-06	2.111430e-06	1.312653e-09	1.661609e+01	8.618405e+01
2.790000e-06	2.092475e-06	1.292159e-09	1.646692e+01	8.552742e+01
2.800000e-06	2.073130e-06	1.291512e-09	1.631468e+01	8.486050e+01
2.810000e-06	2.053418e-06	1.295873e-09	1.615956e+01	8.418311e+01
2.820000e-06	2.033454e-06	1.271951e-09	1.600245e+01	8.349496e+01
2.830000e-06	2.013337e-06	1.242599e-09	1.584414e+01	8.279558e+01
2.840000e-06	1.993036e-06	1.254136e-09	1.568438e+01	8.208437e+01
2.850000e-06	1.972432e-06	1.262984e-09	1.552224e+01	8.136064e+01
2.860000e-06	1.951367e-06	1.224881e-09	1.535646e+01	8.062360e+01
2.870000e-06	1.929684e-06	1.203730e-09	1.518582e+01	7.987242e+01
2.880000e-06	1.907448e-06	1.213631e-09	1.501084e+01	7.910629e+01
2.890000e-06	1.884667e-06	1.197153e-09	1.483156e+01	7.832445e+01
2.900000e-06	1.861330e-06	1.177749e-09	1.464791e+01	7.752622e+01
2.910000e-06	1.837618e-06	1.176031e-09	1.446130e+01	7.671106e+01
2.920000e-06	1.813681e-06	1.150595e-09	1.427293e+01	7.587859e+01
2.930000e-06	1.789582e-06	1.125016e-09	1.408328e+01	7.502863e+01
2.940000e-06	1.765272e-06	1.136446e-09	1.389197e+01	7.416119e+01
2.950000e-06	1.740687e-06	1.138711e-09	1.369850e+01	7.327648e+01
