# Temperatura_=_20.0
# Concentracion g/m^3_=_12600.0
# C_Vs_to_Am_M_A/Vsm_=_65563218390.804596
# pendiente_HvsI_1/m_=_3716.3
# ordenada_HvsI_A/m_=_1297.0
# frecuencia_Hz_=_213020.83105074812

Tiempo_(s)	Campo_(V.s)	Magnetizacion_(V.s)	Campo_(kA/m)	Magnetizacion_(A/m)
0.000000e+00	-2.520630e-06	-1.511228e-09	-1.983458e+01	-9.925903e+01
1.000000e-08	-2.520839e-06	-1.510940e-09	-1.983622e+01	-9.923974e+01
2.000000e-08	-2.520733e-06	-1.510829e-09	-1.983538e+01	-9.919981e+01
3.000000e-08	-2.520194e-06	-1.509995e-09	-1.983115e+01	-9.914005e+01
4.000000e-08	-2.519129e-06	-1.507481e-09	-1.982277e+01	-9.906141e+01
5.000000e-08	-2.517411e-06	-1.503649e-09	-1.980924e+01	-9.896493e+01
6.000000e-08	-2.514963e-06	-1.494465e-09	-1.978999e+01	-9.885168e+01
7.000000e-08	-2.511960e-06	-1.503387e-09	-1.976635e+01	-9.872271e+01
8.000000e-08	-2.508514e-06	-1.521033e-09	-1.973924e+01	-9.857897e+01
9.000000e-08	-2.504707e-06	-1.482934e-09	-1.970928e+01	-9.842129e+01
1.000000e-07	-2.500662e-06	-1.485098e-09	-1.967745e+01	-9.825033e+01
1.100000e-07	-2.496212e-06	-1.494396e-09	-1.964244e+01	-9.806656e+01
1.200000e-07	-2.491231e-06	-1.509718e-09	-1.960323e+01	-9.787026e+01
1.300000e-07	-2.485879e-06	-1.471102e-09	-1.956112e+01	-9.766148e+01
1.400000e-07	-2.480168e-06	-1.483629e-09	-1.951619e+01	-9.744014e+01
1.500000e-07	-2.473848e-06	-1.477508e-09	-1.946646e+01	-9.720596e+01
1.600000e-07	-2.466960e-06	-1.449952e-09	-1.941226e+01	-9.695859e+01
1.700000e-07	-2.459816e-06	-1.494938e-09	-1.935603e+01	-9.669757e+01
1.800000e-07	-2.452443e-06	-1.483547e-09	-1.929802e+01	-9.642244e+01
1.900000e-07	-2.444688e-06	-1.448325e-09	-1.923699e+01	-9.613273e+01
2.000000e-07	-2.436574e-06	-1.413743e-09	-1.917315e+01	-9.582805e+01
2.100000e-07	-2.428194e-06	-1.485134e-09	-1.910721e+01	-9.550806e+01
2.200000e-07	-2.419261e-06	-1.488128e-09	-1.903691e+01	-9.517255e+01
2.300000e-07	-2.409370e-06	-1.413141e-09	-1.895908e+01	-9.482142e+01
2.400000e-07	-2.398742e-06	-1.397341e-09	-1.887545e+01	-9.445469e+01
2.500000e-07	-2.387662e-06	-1.451169e-09	-1.878826e+01	-9.407247e+01
2.600000e-07	-2.376166e-06	-1.448945e-09	-1.869780e+01	-9.367501e+01
2.700000e-07	-2.364250e-06	-1.406318e-09	-1.860404e+01	-9.326258e+01
2.800000e-07	-2.351936e-06	-1.403953e-09	-1.850714e+01	-9.283554e+01
2.900000e-07	-2.339152e-06	-1.393421e-09	-1.840655e+01	-9.239425e+01
3.000000e-07	-2.325845e-06	-1.377259e-09	-1.830183e+01	-9.193905e+01
3.100000e-07	-2.312162e-06	-1.423353e-09	-1.819416e+01	-9.147027e+01
3.200000e-07	-2.298100e-06	-1.425874e-09	-1.808351e+01	-9.098819e+01
3.300000e-07	-2.283385e-06	-1.325188e-09	-1.796772e+01	-9.049302e+01
3.400000e-07	-2.267960e-06	-1.310504e-09	-1.784634e+01	-8.998490e+01
3.500000e-07	-2.252081e-06	-1.409456e-09	-1.772139e+01	-8.946392e+01
3.600000e-07	-2.235731e-06	-1.419660e-09	-1.759274e+01	-8.893010e+01
3.700000e-07	-2.218878e-06	-1.299935e-09	-1.746012e+01	-8.838343e+01
3.800000e-07	-2.201690e-06	-1.267692e-09	-1.732487e+01	-8.782388e+01
3.900000e-07	-2.184299e-06	-1.347925e-09	-1.718802e+01	-8.725138e+01
4.000000e-07	-2.166646e-06	-1.375524e-09	-1.704912e+01	-8.666589e+01
4.100000e-07	-2.148589e-06	-1.309159e-09	-1.690702e+01	-8.606739e+01
4.200000e-07	-2.130000e-06	-1.240209e-09	-1.676075e+01	-8.545588e+01
4.300000e-07	-2.110960e-06	-1.255966e-09	-1.661092e+01	-8.483140e+01
4.400000e-07	-2.091632e-06	-1.318842e-09	-1.645883e+01	-8.419401e+01
4.500000e-07	-2.072068e-06	-1.314879e-09	-1.630489e+01	-8.354380e+01
4.600000e-07	-2.052310e-06	-1.239513e-09	-1.614941e+01	-8.288087e+01
4.700000e-07	-2.032343e-06	-1.195799e-09	-1.599230e+01	-8.220530e+01
4.800000e-07	-2.012067e-06	-1.234520e-09	-1.583274e+01	-8.151716e+01
4.900000e-07	-1.991419e-06	-1.272271e-09	-1.567027e+01	-8.081646e+01
5.000000e-07	-1.970414e-06	-1.233650e-09	-1.550498e+01	-8.010318e+01
5.100000e-07	-1.949076e-06	-1.163452e-09	-1.533708e+01	-7.937720e+01
5.200000e-07	-1.927429e-06	-1.152064e-09	-1.516674e+01	-7.863834e+01
5.300000e-07	-1.905500e-06	-1.201028e-09	-1.499419e+01	-7.788635e+01
5.400000e-07	-1.883254e-06	-1.207980e-09	-1.481913e+01	-7.712091e+01
5.500000e-07	-1.860551e-06	-1.148920e-09	-1.464048e+01	-7.634166e+01
5.600000e-07	-1.837419e-06	-1.110306e-09	-1.445846e+01	-7.554821e+01
5.700000e-07	-1.814042e-06	-1.121835e-09	-1.427451e+01	-7.474019e+01
5.800000e-07	-1.790513e-06	-1.139444e-09	-1.408936e+01	-7.391727e+01
5.900000e-07	-1.766785e-06	-1.121642e-09	-1.390265e+01	-7.307917e+01
6.000000e-07	-1.742847e-06	-1.085409e-09	-1.371428e+01	-7.222575e+01
6.100000e-07	-1.718646e-06	-1.064685e-09	-1.352384e+01	-7.135696e+01
6.200000e-07	-1.694081e-06	-1.063487e-09	-1.333055e+01	-7.047294e+01
6.300000e-07	-1.669099e-06	-1.066394e-09	-1.313396e+01	-6.957396e+01
6.400000e-07	-1.643694e-06	-1.053116e-09	-1.293406e+01	-6.866045e+01
6.500000e-07	-1.617793e-06	-1.022841e-09	-1.273025e+01	-6.773300e+01
6.600000e-07	-1.591350e-06	-9.962295e-10	-1.252217e+01	-6.679230e+01
6.700000e-07	-1.564469e-06	-9.911570e-10	-1.231064e+01	-6.583915e+01
6.800000e-07	-1.537235e-06	-9.971782e-10	-1.209634e+01	-6.487440e+01
6.900000e-07	-1.509759e-06	-9.795324e-10	-1.188014e+01	-6.389890e+01
7.000000e-07	-1.482080e-06	-9.416719e-10	-1.166234e+01	-6.291347e+01
7.100000e-07	-1.454263e-06	-9.187784e-10	-1.144344e+01	-6.191884e+01
7.200000e-07	-1.426331e-06	-9.211365e-10	-1.122365e+01	-6.091564e+01
7.300000e-07	-1.398261e-06	-9.238778e-10	-1.100277e+01	-5.990430e+01
7.400000e-07	-1.369979e-06	-8.982305e-10	-1.078023e+01	-5.888513e+01
7.500000e-07	-1.341407e-06	-8.637632e-10	-1.055539e+01	-5.785823e+01
7.600000e-07	-1.312590e-06	-8.523407e-10	-1.032863e+01	-5.682352e+01
7.700000e-07	-1.283499e-06	-8.548871e-10	-1.009972e+01	-5.578076e+01
7.800000e-07	-1.254162e-06	-8.423335e-10	-9.868874e+00	-5.472960e+01
7.900000e-07	-1.224654e-06	-8.113685e-10	-9.636673e+00	-5.366956e+01
8.000000e-07	-1.195012e-06	-7.885334e-10	-9.403424e+00	-5.260014e+01
8.100000e-07	-1.165179e-06	-7.820699e-10	-9.168670e+00	-5.152083e+01
8.200000e-07	-1.135114e-06	-7.742219e-10	-8.932097e+00	-5.043120e+01
8.300000e-07	-1.104892e-06	-7.548491e-10	-8.694280e+00	-4.933088e+01
8.400000e-07	-1.074504e-06	-7.303136e-10	-8.455161e+00	-4.821966e+01
8.500000e-07	-1.043893e-06	-7.110683e-10	-8.214288e+00	-4.709750e+01
8.600000e-07	-1.013082e-06	-6.970497e-10	-7.971834e+00	-4.596452e+01
8.700000e-07	-9.821449e-07	-6.834197e-10	-7.728397e+00	-4.482103e+01
8.800000e-07	-9.510299e-07	-6.660437e-10	-7.483555e+00	-4.366753e+01
8.900000e-07	-9.196854e-07	-6.448954e-10	-7.236909e+00	-4.250464e+01
9.000000e-07	-8.882139e-07	-6.252079e-10	-6.989263e+00	-4.133307e+01
9.100000e-07	-8.566625e-07	-6.078782e-10	-6.740989e+00	-4.015363e+01
9.200000e-07	-8.250201e-07	-5.941736e-10	-6.491998e+00	-3.896709e+01
9.300000e-07	-7.932748e-07	-5.797997e-10	-6.242197e+00	-3.777421e+01
9.400000e-07	-7.614492e-07	-5.561600e-10	-5.991765e+00	-3.657564e+01
9.500000e-07	-7.295919e-07	-5.292061e-10	-5.741083e+00	-3.537187e+01
9.600000e-07	-6.976398e-07	-5.103401e-10	-5.489655e+00	-3.416324e+01
9.700000e-07	-6.655942e-07	-5.010883e-10	-5.237492e+00	-3.294989e+01
9.800000e-07	-6.335361e-07	-4.854741e-10	-4.985230e+00	-3.173175e+01
9.900000e-07	-6.013930e-07	-4.571767e-10	-4.732299e+00	-3.050857e+01
1.000000e-06	-5.690663e-07	-4.312308e-10	-4.477924e+00	-2.927994e+01
1.010000e-06	-5.366233e-07	-4.189068e-10	-4.222633e+00	-2.804531e+01
1.020000e-06	-5.040646e-07	-4.111689e-10	-3.966432e+00	-2.680404e+01
1.030000e-06	-4.713607e-07	-3.887627e-10	-3.709089e+00	-2.555548e+01
1.040000e-06	-4.385740e-07	-3.559421e-10	-3.451094e+00	-2.429900e+01
1.050000e-06	-4.056700e-07	-3.352936e-10	-3.192175e+00	-2.303404e+01
1.060000e-06	-3.727191e-07	-3.277118e-10	-2.932888e+00	-2.176020e+01
1.070000e-06	-3.396404e-07	-3.126906e-10	-2.672595e+00	-2.047723e+01
1.080000e-06	-3.063698e-07	-2.837111e-10	-2.410792e+00	-1.918508e+01
1.090000e-06	-2.730754e-07	-2.549409e-10	-2.148802e+00	-1.788391e+01
1.100000e-06	-2.396118e-07	-2.403559e-10	-1.885480e+00	-1.657409e+01
1.110000e-06	-2.059958e-07	-2.304732e-10	-1.620960e+00	-1.525618e+01
1.120000e-06	-1.723870e-07	-2.114378e-10	-1.356496e+00	-1.393088e+01
1.130000e-06	-1.387903e-07	-1.832241e-10	-1.092126e+00	-1.259901e+01
1.140000e-06	-1.051512e-07	-1.582438e-10	-8.274238e-01	-1.126146e+01
1.150000e-06	-7.143154e-08	-1.442867e-10	-5.620874e-01	-9.919108e+00
1.160000e-06	-3.767456e-08	-1.297113e-10	-2.964572e-01	-8.572802e+00
1.170000e-06	-3.951152e-09	-1.067418e-10	-3.109120e-02	-7.223286e+00
1.180000e-06	2.977993e-08	-8.076517e-11	2.343352e-01	-5.871172e+00
1.190000e-06	6.349708e-08	-6.116271e-11	4.996519e-01	-4.516917e+00
1.200000e-06	9.714334e-08	-4.710234e-11	7.644109e-01	-3.160803e+00
1.210000e-06	1.307564e-07	-2.902011e-11	1.028909e+00	-1.802953e+00
1.220000e-06	1.643368e-07	-5.206506e-12	1.293149e+00	-4.433408e-01
1.230000e-06	1.979287e-07	1.839831e-11	1.557480e+00	9.181662e-01
1.240000e-06	2.314730e-07	3.899877e-11	1.821437e+00	2.281766e+00
1.250000e-06	2.649062e-07	5.639008e-11	2.084519e+00	3.647667e+00
1.260000e-06	2.982307e-07	7.483666e-11	2.346746e+00	5.016032e+00
1.270000e-06	3.314293e-07	9.694782e-11	2.607983e+00	6.386923e+00
1.280000e-06	3.645389e-07	1.229180e-10	2.868519e+00	7.760253e+00
1.290000e-06	3.974671e-07	1.447421e-10	3.127627e+00	9.135747e+00
1.300000e-06	4.301657e-07	1.590520e-10	3.384930e+00	1.051292e+01
1.310000e-06	4.627825e-07	1.755985e-10	3.641588e+00	1.189108e+01
1.320000e-06	4.953020e-07	1.978295e-10	3.897480e+00	1.326930e+01
1.330000e-06	5.277405e-07	2.220563e-10	4.152735e+00	1.464653e+01
1.340000e-06	5.600652e-07	2.415894e-10	4.407095e+00	1.602154e+01
1.350000e-06	5.922234e-07	2.564002e-10	4.660144e+00	1.739308e+01
1.360000e-06	6.243217e-07	2.747947e-10	4.912723e+00	1.875985e+01
1.370000e-06	6.563662e-07	2.996786e-10	5.164877e+00	2.012068e+01
1.380000e-06	6.883263e-07	3.254299e-10	5.416368e+00	2.147453e+01
1.390000e-06	7.202158e-07	3.447828e-10	5.667303e+00	2.282055e+01
1.400000e-06	7.520541e-07	3.603758e-10	5.917836e+00	2.415822e+01
1.410000e-06	7.838526e-07	3.799784e-10	6.168055e+00	2.548728e+01
1.420000e-06	8.156139e-07	4.035658e-10	6.417981e+00	2.680782e+01
1.430000e-06	8.473248e-07	4.259631e-10	6.667511e+00	2.812026e+01
1.440000e-06	8.789507e-07	4.427113e-10	6.916372e+00	2.942532e+01
1.450000e-06	9.104804e-07	4.587932e-10	7.164476e+00	3.072396e+01
1.460000e-06	9.418925e-07	4.796435e-10	7.411655e+00	3.201734e+01
1.470000e-06	9.731176e-07	5.043093e-10	7.657362e+00	3.330670e+01
1.480000e-06	1.004081e-06	5.249732e-10	7.901013e+00	3.459332e+01
1.490000e-06	1.034842e-06	5.387743e-10	8.143064e+00	3.587837e+01
1.500000e-06	1.065416e-06	5.544158e-10	8.383650e+00	3.716285e+01
1.510000e-06	1.095721e-06	5.768964e-10	8.622114e+00	3.844752e+01
1.520000e-06	1.125775e-06	5.997924e-10	8.858606e+00	3.973278e+01
1.530000e-06	1.155662e-06	6.179670e-10	9.093787e+00	4.101867e+01
1.540000e-06	1.185437e-06	6.341060e-10	9.328083e+00	4.230482e+01
1.550000e-06	1.215036e-06	6.537864e-10	9.560994e+00	4.359046e+01
1.560000e-06	1.244503e-06	6.772449e-10	9.792863e+00	4.487445e+01
1.570000e-06	1.273871e-06	6.998365e-10	1.002396e+01	4.615532e+01
1.580000e-06	1.302962e-06	7.178399e-10	1.025287e+01	4.743133e+01
1.590000e-06	1.331717e-06	7.328170e-10	1.047915e+01	4.870059e+01
1.600000e-06	1.360168e-06	7.512224e-10	1.070302e+01	4.996113e+01
1.610000e-06	1.388394e-06	7.725467e-10	1.092513e+01	5.121103e+01
1.620000e-06	1.416445e-06	7.924675e-10	1.114586e+01	5.244848e+01
1.630000e-06	1.444322e-06	8.094895e-10	1.136522e+01	5.367190e+01
1.640000e-06	1.472115e-06	8.256194e-10	1.158392e+01	5.488001e+01
1.650000e-06	1.499832e-06	8.441060e-10	1.180202e+01	5.607187e+01
1.660000e-06	1.527419e-06	8.642752e-10	1.201910e+01	5.724694e+01
1.670000e-06	1.554797e-06	8.832170e-10	1.223453e+01	5.840505e+01
1.680000e-06	1.581833e-06	8.980728e-10	1.244728e+01	5.954640e+01
1.690000e-06	1.608470e-06	9.119875e-10	1.265689e+01	6.067153e+01
1.700000e-06	1.634568e-06	9.303361e-10	1.286225e+01	6.178122e+01
1.710000e-06	1.660031e-06	9.499746e-10	1.306261e+01	6.287644e+01
1.720000e-06	1.684972e-06	9.674182e-10	1.325887e+01	6.395825e+01
1.730000e-06	1.709518e-06	9.818046e-10	1.345202e+01	6.502771e+01
1.740000e-06	1.733715e-06	9.949483e-10	1.364242e+01	6.608580e+01
1.750000e-06	1.757655e-06	1.011126e-09	1.383081e+01	6.713330e+01
1.760000e-06	1.781445e-06	1.029505e-09	1.401800e+01	6.817078e+01
1.770000e-06	1.805055e-06	1.045825e-09	1.420379e+01	6.919850e+01
1.780000e-06	1.828408e-06	1.059893e-09	1.438755e+01	7.021643e+01
1.790000e-06	1.851413e-06	1.074507e-09	1.456858e+01	7.122420e+01
1.800000e-06	1.874067e-06	1.091780e-09	1.474684e+01	7.222117e+01
1.810000e-06	1.896320e-06	1.109202e-09	1.492194e+01	7.320641e+01
1.820000e-06	1.918236e-06	1.123939e-09	1.509440e+01	7.417882e+01
1.830000e-06	1.939968e-06	1.137039e-09	1.526541e+01	7.513714e+01
1.840000e-06	1.961439e-06	1.150087e-09	1.543436e+01	7.608009e+01
1.850000e-06	1.982532e-06	1.163127e-09	1.560034e+01	7.700637e+01
1.860000e-06	2.003167e-06	1.176826e-09	1.576271e+01	7.791481e+01
1.870000e-06	2.023421e-06	1.191029e-09	1.592209e+01	7.880438e+01
1.880000e-06	2.043465e-06	1.204244e-09	1.607982e+01	7.967425e+01
1.890000e-06	2.063350e-06	1.216853e-09	1.623629e+01	8.052386e+01
1.900000e-06	2.083070e-06	1.230636e-09	1.639146e+01	8.135287e+01
1.910000e-06	2.102494e-06	1.244447e-09	1.654431e+01	8.216122e+01
1.920000e-06	2.121556e-06	1.256097e-09	1.669430e+01	8.294906e+01
1.930000e-06	2.140152e-06	1.266602e-09	1.684064e+01	8.371672e+01
1.940000e-06	2.158268e-06	1.277367e-09	1.698319e+01	8.446469e+01
1.950000e-06	2.176016e-06	1.288325e-09	1.712284e+01	8.519351e+01
1.960000e-06	2.193341e-06	1.298663e-09	1.725917e+01	8.590376e+01
1.970000e-06	2.210315e-06	1.308181e-09	1.739274e+01	8.659595e+01
1.980000e-06	2.227035e-06	1.318355e-09	1.752431e+01	8.727054e+01
1.990000e-06	2.243423e-06	1.328790e-09	1.765326e+01	8.792780e+01
2.000000e-06	2.259369e-06	1.338651e-09	1.777874e+01	8.856787e+01
2.010000e-06	2.274740e-06	1.348519e-09	1.789969e+01	8.919072e+01
2.020000e-06	2.289452e-06	1.357049e-09	1.801546e+01	8.979614e+01
2.030000e-06	2.303699e-06	1.366278e-09	1.812757e+01	9.038378e+01
2.040000e-06	2.317675e-06	1.376902e-09	1.823755e+01	9.095317e+01
2.050000e-06	2.331242e-06	1.387988e-09	1.834430e+01	9.150380e+01
2.060000e-06	2.344318e-06	1.397430e-09	1.844720e+01	9.203512e+01
2.070000e-06	2.356976e-06	1.405233e-09	1.854680e+01	9.254664e+01
2.080000e-06	2.369246e-06	1.413247e-09	1.864335e+01	9.303794e+01
2.090000e-06	2.381128e-06	1.420336e-09	1.873685e+01	9.350876e+01
2.100000e-06	2.392574e-06	1.428405e-09	1.882692e+01	9.395899e+01
2.110000e-06	2.403485e-06	1.435719e-09	1.891277e+01	9.438872e+01
2.120000e-06	2.413757e-06	1.439636e-09	1.899360e+01	9.479823e+01
2.130000e-06	2.423349e-06	1.444546e-09	1.906908e+01	9.518799e+01
2.140000e-06	2.432354e-06	1.450891e-09	1.913994e+01	9.555860e+01
2.150000e-06	2.440819e-06	1.458283e-09	1.920655e+01	9.591080e+01
2.160000e-06	2.448881e-06	1.464512e-09	1.926999e+01	9.624538e+01
2.170000e-06	2.456683e-06	1.468493e-09	1.933138e+01	9.656314e+01
2.180000e-06	2.464144e-06	1.472916e-09	1.939009e+01	9.686482e+01
2.190000e-06	2.471187e-06	1.478278e-09	1.944552e+01	9.715106e+01
2.200000e-06	2.477844e-06	1.484639e-09	1.949790e+01	9.742233e+01
2.210000e-06	2.484118e-06	1.489457e-09	1.954727e+01	9.767892e+01
2.220000e-06	2.489977e-06	1.492300e-09	1.959337e+01	9.792086e+01
2.230000e-06	2.495376e-06	1.494847e-09	1.963586e+01	9.814798e+01
2.240000e-06	2.500260e-06	1.498857e-09	1.967429e+01	9.835988e+01
2.250000e-06	2.504721e-06	1.504123e-09	1.970939e+01	9.855593e+01
2.260000e-06	2.508848e-06	1.506884e-09	1.974186e+01	9.873537e+01
2.270000e-06	2.512695e-06	1.508691e-09	1.977214e+01	9.889732e+01
2.280000e-06	2.516282e-06	1.510990e-09	1.980036e+01	9.904085e+01
2.290000e-06	2.519502e-06	1.513255e-09	1.982570e+01	9.916503e+01
2.300000e-06	2.522197e-06	1.515778e-09	1.984690e+01	9.926901e+01
2.310000e-06	2.524244e-06	1.516472e-09	1.986301e+01	9.935210e+01
2.320000e-06	2.525478e-06	1.516704e-09	1.987272e+01	9.941376e+01
2.330000e-06	2.526030e-06	1.517430e-09	1.987706e+01	9.945370e+01
2.340000e-06	2.526212e-06	1.518570e-09	1.987850e+01	9.947187e+01
2.350000e-06	2.526123e-06	1.520090e-09	1.987780e+01	9.946847e+01
2.360000e-06	2.525733e-06	1.521678e-09	1.987473e+01	9.944394e+01
2.370000e-06	2.524973e-06	1.522603e-09	1.986875e+01	9.939897e+01
2.380000e-06	2.523769e-06	1.522243e-09	1.985928e+01	9.933438e+01
2.390000e-06	2.522095e-06	1.522495e-09	1.984610e+01	9.925118e+01
2.400000e-06	2.520047e-06	1.526699e-09	1.982999e+01	9.915040e+01
2.410000e-06	2.517691e-06	1.515756e-09	1.981145e+01	9.903311e+01
2.420000e-06	2.514866e-06	1.484704e-09	1.978922e+01	9.890035e+01
2.430000e-06	2.511426e-06	1.524356e-09	1.976215e+01	9.875305e+01
2.440000e-06	2.507581e-06	1.511068e-09	1.973190e+01	9.859199e+01
2.450000e-06	2.503567e-06	1.494625e-09	1.970031e+01	9.841778e+01
2.460000e-06	2.499323e-06	1.495916e-09	1.966692e+01	9.823086e+01
2.470000e-06	2.494605e-06	1.505396e-09	1.962979e+01	9.803143e+01
2.480000e-06	2.489408e-06	1.500346e-09	1.958889e+01	9.781952e+01
2.490000e-06	2.483841e-06	1.493920e-09	1.954509e+01	9.759499e+01
2.500000e-06	2.477632e-06	1.500780e-09	1.949623e+01	9.735755e+01
2.510000e-06	2.470539e-06	1.470358e-09	1.944042e+01	9.710680e+01
2.520000e-06	2.462901e-06	1.468558e-09	1.938031e+01	9.684229e+01
2.530000e-06	2.455015e-06	1.497542e-09	1.931826e+01	9.656355e+01
2.540000e-06	2.446746e-06	1.509699e-09	1.925319e+01	9.627012e+01
2.550000e-06	2.438002e-06	1.433282e-09	1.918438e+01	9.596163e+01
2.560000e-06	2.428956e-06	1.427088e-09	1.911320e+01	9.563777e+01
2.570000e-06	2.419643e-06	1.490674e-09	1.903992e+01	9.529836e+01
2.580000e-06	2.409804e-06	1.492915e-09	1.896250e+01	9.494331e+01
2.590000e-06	2.399525e-06	1.419629e-09	1.888162e+01	9.457268e+01
2.600000e-06	2.388966e-06	1.416338e-09	1.879852e+01	9.418663e+01
2.610000e-06	2.377953e-06	1.452943e-09	1.871187e+01	9.378538e+01
2.620000e-06	2.366393e-06	1.433820e-09	1.862090e+01	9.336926e+01
2.630000e-06	2.354431e-06	1.424840e-09	1.852677e+01	9.293862e+01
2.640000e-06	2.342063e-06	1.439217e-09	1.842945e+01	9.249381e+01
2.650000e-06	2.329172e-06	1.386867e-09	1.832801e+01	9.203518e+01
2.660000e-06	2.315712e-06	1.352732e-09	1.822210e+01	9.156305e+01
2.670000e-06	2.301570e-06	1.434935e-09	1.811082e+01	9.107767e+01
2.680000e-06	2.286712e-06	1.449106e-09	1.799390e+01	9.057924e+01
2.690000e-06	2.271292e-06	1.322966e-09	1.787256e+01	9.006789e+01
2.700000e-06	2.255503e-06	1.305112e-09	1.774832e+01	8.954369e+01
2.710000e-06	2.239444e-06	1.421013e-09	1.762195e+01	8.900666e+01
2.720000e-06	2.223117e-06	1.416241e-09	1.749348e+01	8.845677e+01
2.730000e-06	2.206419e-06	1.304467e-09	1.736208e+01	8.789397e+01
2.740000e-06	2.189328e-06	1.293231e-09	1.722759e+01	8.731822e+01
2.750000e-06	2.171918e-06	1.353824e-09	1.709060e+01	8.672947e+01
2.760000e-06	2.154158e-06	1.356328e-09	1.695084e+01	8.612771e+01
2.770000e-06	2.136022e-06	1.311809e-09	1.680814e+01	8.551295e+01
2.780000e-06	2.117551e-06	1.271236e-09	1.666279e+01	8.488523e+01
2.790000e-06	2.098686e-06	1.276260e-09	1.651434e+01	8.424462e+01
2.800000e-06	2.079387e-06	1.302000e-09	1.636248e+01	8.359121e+01
2.810000e-06	2.059724e-06	1.288618e-09	1.620776e+01	8.292510e+01
2.820000e-06	2.039817e-06	1.252706e-09	1.605110e+01	8.224638e+01
2.830000e-06	2.019750e-06	1.237582e-09	1.589320e+01	8.155509e+01
2.840000e-06	1.999529e-06	1.237238e-09	1.573409e+01	8.085125e+01
2.850000e-06	1.979058e-06	1.243263e-09	1.557300e+01	8.013480e+01
2.860000e-06	1.958187e-06	1.233442e-09	1.540877e+01	7.940561e+01
2.870000e-06	1.936764e-06	1.198367e-09	1.524020e+01	7.866349e+01
2.880000e-06	1.914678e-06	1.182199e-09	1.506641e+01	7.790816e+01
2.890000e-06	1.891940e-06	1.194585e-09	1.488748e+01	7.713929e+01
2.900000e-06	1.868692e-06	1.183011e-09	1.470454e+01	7.635652e+01
2.910000e-06	1.845118e-06	1.156461e-09	1.451904e+01	7.555946e+01
2.920000e-06	1.821300e-06	1.145461e-09	1.433162e+01	7.474773e+01
2.930000e-06	1.797278e-06	1.133115e-09	1.414259e+01	7.392103e+01
2.940000e-06	1.773041e-06	1.121050e-09	1.395188e+01	7.307910e+01
2.950000e-06	1.748617e-06	1.115389e-09	1.375968e+01	7.222183e+01
