# Temperatura_=_20.0
# Concentracion g/m^3_=_12600.0
# C_Vs_to_Am_M_A/Vsm_=_65563218390.804596
# pendiente_HvsI_1/m_=_3716.3
# ordenada_HvsI_A/m_=_1297.0
# frecuencia_Hz_=_135500.48442825026

Tiempo_(s)	Campo_(V.s)	Magnetizacion_(V.s)	Campo_(kA/m)	Magnetizacion_(A/m)
0.000000e+00	-7.921136e-06	-4.364503e-09	-5.690013e+01	-2.956900e+02
1.000000e-08	-7.921161e-06	-4.353093e-09	-5.690031e+01	-2.947413e+02
2.000000e-08	-7.920735e-06	-4.347967e-09	-5.689725e+01	-2.937737e+02
3.000000e-08	-7.919684e-06	-4.344708e-09	-5.688969e+01	-2.928148e+02
4.000000e-08	-7.917718e-06	-4.337154e-09	-5.687557e+01	-2.918936e+02
5.000000e-08	-7.914870e-06	-4.333509e-09	-5.685512e+01	-2.910399e+02
6.000000e-08	-7.911498e-06	-4.336670e-09	-5.683089e+01	-2.902840e+02
7.000000e-08	-7.907844e-06	-4.339211e-09	-5.680464e+01	-2.896553e+02
8.000000e-08	-7.903859e-06	-4.327822e-09	-5.677602e+01	-2.891823e+02
9.000000e-08	-7.899330e-06	-4.318663e-09	-5.674349e+01	-2.888911e+02
1.000000e-07	-7.893960e-06	-4.359852e-09	-5.670492e+01	-2.888054e+02
1.100000e-07	-7.887623e-06	-4.379422e-09	-5.665939e+01	-2.889452e+02
1.200000e-07	-7.880487e-06	-4.442346e-09	-5.660813e+01	-2.893267e+02
1.300000e-07	-7.872963e-06	-4.291538e-09	-5.655408e+01	-2.899615e+02
1.400000e-07	-7.865305e-06	-4.301727e-09	-5.649907e+01	-2.908565e+02
1.500000e-07	-7.857383e-06	-4.451688e-09	-5.644217e+01	-2.920130e+02
1.600000e-07	-7.848891e-06	-4.401004e-09	-5.638116e+01	-2.934273e+02
1.700000e-07	-7.839969e-06	-4.240263e-09	-5.631707e+01	-2.950902e+02
1.800000e-07	-7.830358e-06	-4.366399e-09	-5.624804e+01	-2.969872e+02
1.900000e-07	-7.819565e-06	-4.395831e-09	-5.617051e+01	-2.990986e+02
2.000000e-07	-7.808069e-06	-4.383190e-09	-5.608793e+01	-3.014001e+02
2.100000e-07	-7.796272e-06	-4.420603e-09	-5.600319e+01	-3.038629e+02
2.200000e-07	-7.783885e-06	-4.420356e-09	-5.591421e+01	-3.064548e+02
2.300000e-07	-7.770599e-06	-4.299275e-09	-5.581877e+01	-3.091403e+02
2.400000e-07	-7.756778e-06	-4.358229e-09	-5.571949e+01	-3.118817e+02
2.500000e-07	-7.742762e-06	-4.579576e-09	-5.561881e+01	-3.146396e+02
2.600000e-07	-7.727700e-06	-4.617570e-09	-5.551061e+01	-3.173743e+02
2.700000e-07	-7.711384e-06	-4.611809e-09	-5.539341e+01	-3.200460e+02
2.800000e-07	-7.694729e-06	-4.815643e-09	-5.527377e+01	-3.226159e+02
2.900000e-07	-7.677766e-06	-5.015850e-09	-5.515192e+01	-3.250474e+02
3.000000e-07	-7.660167e-06	-5.021799e-09	-5.502550e+01	-3.273063e+02
3.100000e-07	-7.642019e-06	-5.093811e-09	-5.489514e+01	-3.293618e+02
3.200000e-07	-7.623421e-06	-5.262012e-09	-5.476154e+01	-3.311873e+02
3.300000e-07	-7.604210e-06	-5.207595e-09	-5.462354e+01	-3.327604e+02
3.400000e-07	-7.584508e-06	-5.031526e-09	-5.448202e+01	-3.340641e+02
3.500000e-07	-7.564560e-06	-5.185454e-09	-5.433872e+01	-3.350864e+02
3.600000e-07	-7.544181e-06	-5.114091e-09	-5.419233e+01	-3.358208e+02
3.700000e-07	-7.523274e-06	-5.139761e-09	-5.404215e+01	-3.362665e+02
3.800000e-07	-7.501824e-06	-5.151566e-09	-5.388807e+01	-3.364277e+02
3.900000e-07	-7.479813e-06	-5.089799e-09	-5.372996e+01	-3.363143e+02
4.000000e-07	-7.457277e-06	-5.040310e-09	-5.356808e+01	-3.359405e+02
4.100000e-07	-7.434240e-06	-5.189111e-09	-5.340259e+01	-3.353255e+02
4.200000e-07	-7.410756e-06	-5.113296e-09	-5.323390e+01	-3.344918e+02
4.300000e-07	-7.386844e-06	-5.037517e-09	-5.306213e+01	-3.334654e+02
4.400000e-07	-7.362504e-06	-5.045766e-09	-5.288729e+01	-3.322748e+02
4.500000e-07	-7.337429e-06	-5.076660e-09	-5.270717e+01	-3.309503e+02
4.600000e-07	-7.311615e-06	-5.125076e-09	-5.252174e+01	-3.295231e+02
4.700000e-07	-7.285178e-06	-5.096685e-09	-5.233183e+01	-3.280247e+02
4.800000e-07	-7.258025e-06	-4.925589e-09	-5.213679e+01	-3.264861e+02
4.900000e-07	-7.230417e-06	-4.959682e-09	-5.193847e+01	-3.249371e+02
5.000000e-07	-7.202437e-06	-5.145582e-09	-5.173747e+01	-3.234054e+02
5.100000e-07	-7.173926e-06	-5.056757e-09	-5.153267e+01	-3.219163e+02
5.200000e-07	-7.144939e-06	-4.893916e-09	-5.132445e+01	-3.204919e+02
5.300000e-07	-7.115562e-06	-4.919008e-09	-5.111343e+01	-3.191511e+02
5.400000e-07	-7.085685e-06	-5.038655e-09	-5.089881e+01	-3.179088e+02
5.500000e-07	-7.055352e-06	-5.028566e-09	-5.068091e+01	-3.167757e+02
5.600000e-07	-7.024506e-06	-4.955880e-09	-5.045934e+01	-3.157589e+02
5.700000e-07	-6.993132e-06	-4.874027e-09	-5.023397e+01	-3.148608e+02
5.800000e-07	-6.961386e-06	-4.922489e-09	-5.000593e+01	-3.140804e+02
5.900000e-07	-6.929304e-06	-4.979716e-09	-4.977547e+01	-3.134124e+02
6.000000e-07	-6.896750e-06	-4.958974e-09	-4.954162e+01	-3.128485e+02
6.100000e-07	-6.863553e-06	-4.858838e-09	-4.930316e+01	-3.123772e+02
6.200000e-07	-6.829682e-06	-4.844936e-09	-4.905985e+01	-3.119845e+02
6.300000e-07	-6.795066e-06	-4.876655e-09	-4.881120e+01	-3.116543e+02
6.400000e-07	-6.759850e-06	-4.916348e-09	-4.855823e+01	-3.113692e+02
6.500000e-07	-6.724295e-06	-4.869062e-09	-4.830283e+01	-3.111107e+02
6.600000e-07	-6.688413e-06	-4.807725e-09	-4.804507e+01	-3.108601e+02
6.700000e-07	-6.652085e-06	-4.803067e-09	-4.778412e+01	-3.105992e+02
6.800000e-07	-6.615269e-06	-4.845660e-09	-4.751965e+01	-3.103103e+02
6.900000e-07	-6.577935e-06	-4.823503e-09	-4.725147e+01	-3.099774e+02
7.000000e-07	-6.540083e-06	-4.779501e-09	-4.697957e+01	-3.095858e+02
7.100000e-07	-6.501692e-06	-4.751581e-09	-4.670379e+01	-3.091233e+02
7.200000e-07	-6.462835e-06	-4.745329e-09	-4.642467e+01	-3.085801e+02
7.300000e-07	-6.423651e-06	-4.741260e-09	-4.614320e+01	-3.079489e+02
7.400000e-07	-6.384183e-06	-4.737629e-09	-4.585968e+01	-3.072253e+02
7.500000e-07	-6.344395e-06	-4.712015e-09	-4.557388e+01	-3.064075e+02
7.600000e-07	-6.304128e-06	-4.683755e-09	-4.528462e+01	-3.054966e+02
7.700000e-07	-6.263417e-06	-4.678980e-09	-4.499219e+01	-3.044962e+02
7.800000e-07	-6.222148e-06	-4.680945e-09	-4.469574e+01	-3.034124e+02
7.900000e-07	-6.180174e-06	-4.672517e-09	-4.439423e+01	-3.022533e+02
8.000000e-07	-6.137627e-06	-4.642154e-09	-4.408860e+01	-3.010288e+02
8.100000e-07	-6.094551e-06	-4.612398e-09	-4.377917e+01	-2.997501e+02
8.200000e-07	-6.050957e-06	-4.594712e-09	-4.346601e+01	-2.984294e+02
8.300000e-07	-6.006983e-06	-4.599854e-09	-4.315013e+01	-2.970796e+02
8.400000e-07	-5.962707e-06	-4.587859e-09	-4.283209e+01	-2.957133e+02
8.500000e-07	-5.918041e-06	-4.559270e-09	-4.251124e+01	-2.943432e+02
8.600000e-07	-5.872943e-06	-4.527906e-09	-4.218728e+01	-2.929811e+02
8.700000e-07	-5.827506e-06	-4.523267e-09	-4.186089e+01	-2.916375e+02
8.800000e-07	-5.781716e-06	-4.515706e-09	-4.153197e+01	-2.903218e+02
8.900000e-07	-5.735513e-06	-4.494404e-09	-4.120007e+01	-2.890414e+02
9.000000e-07	-5.688891e-06	-4.457051e-09	-4.086518e+01	-2.878022e+02
9.100000e-07	-5.641860e-06	-4.434149e-09	-4.052734e+01	-2.866077e+02
9.200000e-07	-5.594524e-06	-4.418940e-09	-4.018731e+01	-2.854595e+02
9.300000e-07	-5.546783e-06	-4.411255e-09	-3.984437e+01	-2.843572e+02
9.400000e-07	-5.498607e-06	-4.390666e-09	-3.949830e+01	-2.832980e+02
9.500000e-07	-5.450036e-06	-4.366839e-09	-3.914940e+01	-2.822776e+02
9.600000e-07	-5.400834e-06	-4.342954e-09	-3.879597e+01	-2.812899e+02
9.700000e-07	-5.350981e-06	-4.329882e-09	-3.843786e+01	-2.803272e+02
9.800000e-07	-5.300651e-06	-4.316559e-09	-3.807632e+01	-2.793809e+02
9.900000e-07	-5.249759e-06	-4.297771e-09	-3.771075e+01	-2.784413e+02
1.000000e-06	-5.198242e-06	-4.264936e-09	-3.734069e+01	-2.774983e+02
1.010000e-06	-5.146297e-06	-4.235925e-09	-3.696755e+01	-2.765416e+02
1.020000e-06	-5.094081e-06	-4.220381e-09	-3.659246e+01	-2.755610e+02
1.030000e-06	-5.041570e-06	-4.209211e-09	-3.621525e+01	-2.745471e+02
1.040000e-06	-4.988766e-06	-4.188491e-09	-3.583595e+01	-2.734909e+02
1.050000e-06	-4.935600e-06	-4.158176e-09	-3.545404e+01	-2.723847e+02
1.060000e-06	-4.881992e-06	-4.137087e-09	-3.506896e+01	-2.712220e+02
1.070000e-06	-4.827986e-06	-4.127430e-09	-3.468101e+01	-2.699980e+02
1.080000e-06	-4.773616e-06	-4.112270e-09	-3.429046e+01	-2.687092e+02
1.090000e-06	-4.718961e-06	-4.081158e-09	-3.389785e+01	-2.673539e+02
1.100000e-06	-4.664070e-06	-4.047931e-09	-3.350355e+01	-2.659322e+02
1.110000e-06	-4.608841e-06	-4.022689e-09	-3.310683e+01	-2.644457e+02
1.120000e-06	-4.553248e-06	-4.004897e-09	-3.270748e+01	-2.628977e+02
1.130000e-06	-4.497470e-06	-3.981732e-09	-3.230681e+01	-2.612927e+02
1.140000e-06	-4.441396e-06	-3.954883e-09	-3.190401e+01	-2.596365e+02
1.150000e-06	-4.385010e-06	-3.928294e-09	-3.149897e+01	-2.579360e+02
1.160000e-06	-4.328324e-06	-3.910247e-09	-3.109178e+01	-2.561987e+02
1.170000e-06	-4.271295e-06	-3.890084e-09	-3.068212e+01	-2.544326e+02
1.180000e-06	-4.213955e-06	-3.865332e-09	-3.027023e+01	-2.526457e+02
1.190000e-06	-4.156148e-06	-3.834568e-09	-2.985498e+01	-2.508461e+02
1.200000e-06	-4.097914e-06	-3.806484e-09	-2.943667e+01	-2.490413e+02
1.210000e-06	-4.039365e-06	-3.777877e-09	-2.901609e+01	-2.472384e+02
1.220000e-06	-3.980341e-06	-3.750454e-09	-2.859210e+01	-2.454433e+02
1.230000e-06	-3.920961e-06	-3.722971e-09	-2.816555e+01	-2.436611e+02
1.240000e-06	-3.861262e-06	-3.693222e-09	-2.773672e+01	-2.418954e+02
1.250000e-06	-3.801286e-06	-3.661857e-09	-2.730589e+01	-2.401485e+02
1.260000e-06	-3.741198e-06	-3.636839e-09	-2.687425e+01	-2.384215e+02
1.270000e-06	-3.680992e-06	-3.620861e-09	-2.644178e+01	-2.367138e+02
1.280000e-06	-3.620651e-06	-3.600221e-09	-2.600832e+01	-2.350235e+02
1.290000e-06	-3.560043e-06	-3.567138e-09	-2.557296e+01	-2.333474e+02
1.300000e-06	-3.499217e-06	-3.532208e-09	-2.513602e+01	-2.316810e+02
1.310000e-06	-3.438156e-06	-3.503204e-09	-2.469740e+01	-2.300190e+02
1.320000e-06	-3.376865e-06	-3.479434e-09	-2.425713e+01	-2.283550e+02
1.330000e-06	-3.315353e-06	-3.448372e-09	-2.381527e+01	-2.266822e+02
1.340000e-06	-3.253534e-06	-3.417663e-09	-2.337121e+01	-2.249932e+02
1.350000e-06	-3.191472e-06	-3.387651e-09	-2.292540e+01	-2.232807e+02
1.360000e-06	-3.129149e-06	-3.361359e-09	-2.247771e+01	-2.215375e+02
1.370000e-06	-3.066668e-06	-3.337239e-09	-2.202889e+01	-2.197565e+02
1.380000e-06	-3.003993e-06	-3.305810e-09	-2.157867e+01	-2.179316e+02
1.390000e-06	-2.941026e-06	-3.269696e-09	-2.112636e+01	-2.160571e+02
1.400000e-06	-2.877978e-06	-3.236161e-09	-2.067346e+01	-2.141285e+02
1.410000e-06	-2.814835e-06	-3.204632e-09	-2.021988e+01	-2.121423e+02
1.420000e-06	-2.751544e-06	-3.168839e-09	-1.976525e+01	-2.100962e+02
1.430000e-06	-2.688007e-06	-3.128858e-09	-1.930884e+01	-2.079893e+02
1.440000e-06	-2.624267e-06	-3.095203e-09	-1.885097e+01	-2.058217e+02
1.450000e-06	-2.560487e-06	-3.068858e-09	-1.839282e+01	-2.035948e+02
1.460000e-06	-2.496542e-06	-3.037570e-09	-1.793348e+01	-2.013113e+02
1.470000e-06	-2.432468e-06	-3.003082e-09	-1.747322e+01	-1.989747e+02
1.480000e-06	-2.368170e-06	-2.969995e-09	-1.701135e+01	-1.965896e+02
1.490000e-06	-2.303613e-06	-2.934868e-09	-1.654761e+01	-1.941611e+02
1.500000e-06	-2.238977e-06	-2.897489e-09	-1.608331e+01	-1.916950e+02
1.510000e-06	-2.174046e-06	-2.858796e-09	-1.561689e+01	-1.891972e+02
1.520000e-06	-2.108964e-06	-2.817749e-09	-1.514938e+01	-1.866737e+02
1.530000e-06	-2.043823e-06	-2.784429e-09	-1.468145e+01	-1.841304e+02
1.540000e-06	-1.978374e-06	-2.750977e-09	-1.421131e+01	-1.815728e+02
1.550000e-06	-1.912754e-06	-2.720130e-09	-1.373994e+01	-1.790058e+02
1.560000e-06	-1.847070e-06	-2.688974e-09	-1.326811e+01	-1.764336e+02
1.570000e-06	-1.781308e-06	-2.657695e-09	-1.279572e+01	-1.738593e+02
1.580000e-06	-1.715344e-06	-2.621454e-09	-1.232188e+01	-1.712852e+02
1.590000e-06	-1.649127e-06	-2.580553e-09	-1.184622e+01	-1.687123e+02
1.600000e-06	-1.582773e-06	-2.535010e-09	-1.136958e+01	-1.661405e+02
1.610000e-06	-1.516239e-06	-2.491492e-09	-1.089164e+01	-1.635686e+02
1.620000e-06	-1.449603e-06	-2.447104e-09	-1.041297e+01	-1.609942e+02
1.630000e-06	-1.382866e-06	-2.400613e-09	-9.933580e+00	-1.584139e+02
1.640000e-06	-1.315988e-06	-2.355622e-09	-9.453178e+00	-1.558233e+02
1.650000e-06	-1.249032e-06	-2.313500e-09	-8.972205e+00	-1.532172e+02
1.660000e-06	-1.182017e-06	-2.272926e-09	-8.490816e+00	-1.505900e+02
1.670000e-06	-1.114931e-06	-2.230789e-09	-8.008914e+00	-1.479354e+02
1.680000e-06	-1.047755e-06	-2.188049e-09	-7.526367e+00	-1.452469e+02
1.690000e-06	-9.805259e-07	-2.143069e-09	-7.043441e+00	-1.425182e+02
1.700000e-06	-9.131947e-07	-2.097935e-09	-6.559778e+00	-1.397430e+02
1.710000e-06	-8.458213e-07	-2.049383e-09	-6.075813e+00	-1.369154e+02
1.720000e-06	-7.784686e-07	-2.002311e-09	-5.591996e+00	-1.340303e+02
1.730000e-06	-7.110307e-07	-1.954691e-09	-5.107567e+00	-1.310829e+02
1.740000e-06	-6.435469e-07	-1.907565e-09	-4.622809e+00	-1.280698e+02
1.750000e-06	-5.760260e-07	-1.862830e-09	-4.137784e+00	-1.249883e+02
1.760000e-06	-5.084636e-07	-1.819349e-09	-3.652461e+00	-1.218369e+02
1.770000e-06	-4.409355e-07	-1.771215e-09	-3.167385e+00	-1.186149e+02
1.780000e-06	-3.733322e-07	-1.723322e-09	-2.681768e+00	-1.153232e+02
1.790000e-06	-3.056540e-07	-1.672424e-09	-2.195613e+00	-1.119633e+02
1.800000e-06	-2.379346e-07	-1.619174e-09	-1.709163e+00	-1.085379e+02
1.810000e-06	-1.701732e-07	-1.569488e-09	-1.222410e+00	-1.050504e+02
1.820000e-06	-1.024309e-07	-1.519291e-09	-7.357951e-01	-1.015052e+02
1.830000e-06	-3.464100e-08	-1.467719e-09	-2.488377e-01	-9.790682e+01
1.840000e-06	3.312775e-08	-1.414946e-09	2.379676e-01	-9.426054e+01
1.850000e-06	1.008209e-07	-1.364378e-09	7.242297e-01	-9.057158e+01
1.860000e-06	1.685152e-07	-1.316198e-09	1.210500e+00	-8.684519e+01
1.870000e-06	2.361407e-07	-1.267583e-09	1.696277e+00	-8.308637e+01
1.880000e-06	3.037671e-07	-1.213011e-09	2.182059e+00	-7.929970e+01
1.890000e-06	3.714597e-07	-1.156067e-09	2.668317e+00	-7.548916e+01
1.900000e-06	4.391138e-07	-1.099909e-09	3.154299e+00	-7.165799e+01
1.910000e-06	5.067199e-07	-1.042838e-09	3.639936e+00	-6.780854e+01
1.920000e-06	5.742839e-07	-9.815775e-10	4.125270e+00	-6.394223e+01
1.930000e-06	6.418772e-07	-9.180366e-10	4.610816e+00	-6.005945e+01
1.940000e-06	7.094282e-07	-8.577798e-10	5.096057e+00	-5.615956e+01
1.950000e-06	7.768042e-07	-7.990999e-10	5.580040e+00	-5.224094e+01
1.960000e-06	8.440947e-07	-7.415147e-10	6.063410e+00	-4.830103e+01
1.970000e-06	9.113258e-07	-6.832331e-10	6.546353e+00	-4.433642e+01
1.980000e-06	9.785056e-07	-6.252401e-10	7.028928e+00	-4.034301e+01
1.990000e-06	1.045617e-06	-5.653693e-10	7.511014e+00	-3.631616e+01
2.000000e-06	1.112544e-06	-5.004109e-10	7.991770e+00	-3.225089e+01
2.010000e-06	1.179402e-06	-4.345182e-10	8.472034e+00	-2.814208e+01
2.020000e-06	1.246372e-06	-3.692658e-10	8.953103e+00	-2.398466e+01
2.030000e-06	1.313224e-06	-3.019866e-10	9.433319e+00	-1.977388e+01
2.040000e-06	1.379932e-06	-2.319361e-10	9.912503e+00	-1.550549e+01
2.050000e-06	1.446512e-06	-1.651528e-10	1.039077e+01	-1.117597e+01
2.060000e-06	1.512894e-06	-1.033505e-10	1.086762e+01	-6.782701e+00
2.070000e-06	1.579222e-06	-3.943690e-11	1.134407e+01	-2.324142e+00
2.080000e-06	1.645524e-06	3.036249e-11	1.182034e+01	2.200047e+00
2.090000e-06	1.711736e-06	9.942788e-11	1.229596e+01	6.788900e+00
2.100000e-06	1.777695e-06	1.654210e-10	1.276977e+01	1.144009e+01
2.110000e-06	1.843436e-06	2.353843e-10	1.324201e+01	1.614989e+01
2.120000e-06	1.909087e-06	3.091505e-10	1.371360e+01	2.091323e+01
2.130000e-06	1.974500e-06	3.837620e-10	1.418348e+01	2.572374e+01
2.140000e-06	2.039712e-06	4.547579e-10	1.465192e+01	3.057385e+01
2.150000e-06	2.104920e-06	5.224149e-10	1.512033e+01	3.545497e+01
2.160000e-06	2.169941e-06	5.911894e-10	1.558740e+01	4.035759e+01
2.170000e-06	2.234631e-06	6.619389e-10	1.605209e+01	4.527158e+01
2.180000e-06	2.299155e-06	7.352751e-10	1.651559e+01	5.018633e+01
2.190000e-06	2.363581e-06	8.070345e-10	1.697838e+01	5.509104e+01
2.200000e-06	2.427852e-06	8.792069e-10	1.744006e+01	5.997495e+01
2.210000e-06	2.491948e-06	9.527295e-10	1.790048e+01	6.482756e+01
2.220000e-06	2.555799e-06	1.027936e-09	1.835914e+01	6.963893e+01
2.230000e-06	2.619379e-06	1.101855e-09	1.881586e+01	7.439983e+01
2.240000e-06	2.682758e-06	1.172904e-09	1.927113e+01	7.910197e+01
2.250000e-06	2.745989e-06	1.242584e-09	1.972534e+01	8.373820e+01
2.260000e-06	2.809078e-06	1.306550e-09	2.017854e+01	8.830257e+01
2.270000e-06	2.872002e-06	1.367336e-09	2.063054e+01	9.279050e+01
2.280000e-06	2.934856e-06	1.430825e-09	2.108204e+01	9.719880e+01
2.290000e-06	2.997608e-06	1.492719e-09	2.153281e+01	1.015257e+02
2.300000e-06	3.060085e-06	1.553956e-09	2.198160e+01	1.057707e+02
2.310000e-06	3.122441e-06	1.613667e-09	2.242952e+01	1.099349e+02
2.320000e-06	3.184672e-06	1.677782e-09	2.287655e+01	1.140202e+02
2.330000e-06	3.246589e-06	1.743634e-09	2.332132e+01	1.180298e+02
2.340000e-06	3.308273e-06	1.805523e-09	2.376441e+01	1.219679e+02
2.350000e-06	3.369705e-06	1.869915e-09	2.420570e+01	1.258389e+02
2.360000e-06	3.430884e-06	1.930335e-09	2.464517e+01	1.296483e+02
2.370000e-06	3.491909e-06	1.989396e-09	2.508353e+01	1.334013e+02
2.380000e-06	3.552688e-06	2.039832e-09	2.552013e+01	1.371033e+02
2.390000e-06	3.613189e-06	2.087674e-09	2.595472e+01	1.407596e+02
2.400000e-06	3.673428e-06	2.140321e-09	2.638744e+01	1.443748e+02
2.410000e-06	3.733393e-06	2.192386e-09	2.681819e+01	1.479532e+02
2.420000e-06	3.793172e-06	2.245253e-09	2.724761e+01	1.514981e+02
2.430000e-06	3.852763e-06	2.298794e-09	2.767567e+01	1.550119e+02
2.440000e-06	3.912154e-06	2.355133e-09	2.810229e+01	1.584961e+02
2.450000e-06	3.971261e-06	2.413951e-09	2.852688e+01	1.619509e+02
2.460000e-06	4.029995e-06	2.467762e-09	2.894878e+01	1.653756e+02
2.470000e-06	4.088466e-06	2.511273e-09	2.936880e+01	1.687684e+02
2.480000e-06	4.146523e-06	2.549011e-09	2.978584e+01	1.721264e+02
2.490000e-06	4.204161e-06	2.590189e-09	3.019987e+01	1.754459e+02
2.500000e-06	4.261433e-06	2.637374e-09	3.061128e+01	1.787225e+02
2.510000e-06	4.318236e-06	2.682986e-09	3.101931e+01	1.819509e+02
2.520000e-06	4.374656e-06	2.726870e-09	3.142459e+01	1.851256e+02
2.530000e-06	4.430748e-06	2.774245e-09	3.182752e+01	1.882411e+02
2.540000e-06	4.486426e-06	2.827213e-09	3.222748e+01	1.912914e+02
2.550000e-06	4.541858e-06	2.876745e-09	3.262566e+01	1.942711e+02
2.560000e-06	4.597137e-06	2.919200e-09	3.302275e+01	1.971752e+02
2.570000e-06	4.652151e-06	2.956368e-09	3.341793e+01	1.999992e+02
2.580000e-06	4.706977e-06	2.990721e-09	3.381176e+01	2.027396e+02
2.590000e-06	4.761473e-06	3.025618e-09	3.420323e+01	2.053937e+02
2.600000e-06	4.815589e-06	3.061018e-09	3.459196e+01	2.079599e+02
2.610000e-06	4.869377e-06	3.096980e-09	3.497834e+01	2.104379e+02
2.620000e-06	4.922836e-06	3.135644e-09	3.536235e+01	2.128285e+02
2.630000e-06	4.975952e-06	3.177185e-09	3.574390e+01	2.151339e+02
2.640000e-06	5.028656e-06	3.220198e-09	3.612249e+01	2.173573e+02
2.650000e-06	5.081050e-06	3.260048e-09	3.649885e+01	2.195031e+02
2.660000e-06	5.133087e-06	3.293465e-09	3.687265e+01	2.215765e+02
2.670000e-06	5.184573e-06	3.322365e-09	3.724250e+01	2.235839e+02
2.680000e-06	5.235384e-06	3.352286e-09	3.760749e+01	2.255320e+02
2.690000e-06	5.285805e-06	3.382974e-09	3.796968e+01	2.274281e+02
2.700000e-06	5.335863e-06	3.410258e-09	3.832926e+01	2.292798e+02
2.710000e-06	5.385300e-06	3.441855e-09	3.868439e+01	2.310945e+02
2.720000e-06	5.434266e-06	3.476617e-09	3.903612e+01	2.328796e+02
2.730000e-06	5.482740e-06	3.510688e-09	3.938432e+01	2.346418e+02
2.740000e-06	5.530735e-06	3.545296e-09	3.972909e+01	2.363872e+02
2.750000e-06	5.578361e-06	3.579938e-09	4.007120e+01	2.381211e+02
2.760000e-06	5.625686e-06	3.608225e-09	4.041116e+01	2.398476e+02
2.770000e-06	5.672727e-06	3.629921e-09	4.074907e+01	2.415699e+02
2.780000e-06	5.719377e-06	3.650309e-09	4.108417e+01	2.432898e+02
2.790000e-06	5.765622e-06	3.676031e-09	4.141636e+01	2.450077e+02
2.800000e-06	5.811387e-06	3.701587e-09	4.174510e+01	2.467228e+02
2.810000e-06	5.856735e-06	3.724502e-09	4.207085e+01	2.484331e+02
2.820000e-06	5.901690e-06	3.746901e-09	4.239378e+01	2.501354e+02
2.830000e-06	5.946152e-06	3.772592e-09	4.271317e+01	2.518254e+02
2.840000e-06	5.990363e-06	3.802527e-09	4.303075e+01	2.534979e+02
2.850000e-06	6.034397e-06	3.829245e-09	4.334706e+01	2.551471e+02
2.860000e-06	6.078091e-06	3.853529e-09	4.366092e+01	2.567667e+02
2.870000e-06	6.121358e-06	3.874677e-09	4.397173e+01	2.583502e+02
2.880000e-06	6.164128e-06	3.892592e-09	4.427896e+01	2.598910e+02
2.890000e-06	6.206330e-06	3.910256e-09	4.458211e+01	2.613830e+02
2.900000e-06	6.247956e-06	3.931069e-09	4.488112e+01	2.628204e+02
