# Temperatura_=_20.0
# Concentracion g/m^3_=_12600.0
# C_Vs_to_Am_M_A/Vsm_=_65563218390.804596
# pendiente_HvsI_1/m_=_3716.3
# ordenada_HvsI_A/m_=_1297.0
# frecuencia_Hz_=_135503.80284851024

Tiempo_(s)	Campo_(V.s)	Magnetizacion_(V.s)	Campo_(kA/m)	Magnetizacion_(A/m)
0.000000e+00	-7.881913e-06	-4.579310e-09	-5.705350e+01	-2.973903e+02
1.000000e-08	-7.882002e-06	-4.569799e-09	-5.705415e+01	-2.967127e+02
2.000000e-08	-7.881606e-06	-4.560918e-09	-5.705128e+01	-2.960315e+02
3.000000e-08	-7.880570e-06	-4.551679e-09	-5.704379e+01	-2.953669e+02
4.000000e-08	-7.878823e-06	-4.546842e-09	-5.703114e+01	-2.947401e+02
5.000000e-08	-7.876333e-06	-4.544802e-09	-5.701311e+01	-2.941730e+02
6.000000e-08	-7.873106e-06	-4.549214e-09	-5.698976e+01	-2.936870e+02
7.000000e-08	-7.869416e-06	-4.562132e-09	-5.696305e+01	-2.933032e+02
8.000000e-08	-7.865403e-06	-4.603971e-09	-5.693400e+01	-2.930412e+02
9.000000e-08	-7.860885e-06	-4.616751e-09	-5.690130e+01	-2.929193e+02
1.000000e-07	-7.855572e-06	-4.558633e-09	-5.686283e+01	-2.929531e+02
1.100000e-07	-7.849307e-06	-4.476423e-09	-5.681748e+01	-2.931559e+02
1.200000e-07	-7.842268e-06	-4.514539e-09	-5.676654e+01	-2.935378e+02
1.300000e-07	-7.834832e-06	-4.677288e-09	-5.671271e+01	-2.941055e+02
1.400000e-07	-7.827100e-06	-4.793828e-09	-5.665674e+01	-2.948619e+02
1.500000e-07	-7.819023e-06	-4.540943e-09	-5.659828e+01	-2.958061e+02
1.600000e-07	-7.810607e-06	-4.363385e-09	-5.653735e+01	-2.969335e+02
1.700000e-07	-7.801596e-06	-4.548676e-09	-5.647213e+01	-2.982352e+02
1.800000e-07	-7.791843e-06	-4.689833e-09	-5.640153e+01	-2.996987e+02
1.900000e-07	-7.781334e-06	-4.727626e-09	-5.632546e+01	-3.013077e+02
2.000000e-07	-7.770159e-06	-4.614378e-09	-5.624457e+01	-3.030427e+02
2.100000e-07	-7.758452e-06	-4.398189e-09	-5.615983e+01	-3.048812e+02
2.200000e-07	-7.746091e-06	-4.431998e-09	-5.607035e+01	-3.067982e+02
2.300000e-07	-7.733079e-06	-4.719022e-09	-5.597617e+01	-3.087664e+02
2.400000e-07	-7.719559e-06	-4.632528e-09	-5.587830e+01	-3.107576e+02
2.500000e-07	-7.705480e-06	-4.248849e-09	-5.577639e+01	-3.127421e+02
2.600000e-07	-7.690587e-06	-4.398929e-09	-5.566858e+01	-3.146906e+02
2.700000e-07	-7.674790e-06	-4.829362e-09	-5.555424e+01	-3.165737e+02
2.800000e-07	-7.658303e-06	-4.770153e-09	-5.543490e+01	-3.183634e+02
2.900000e-07	-7.641374e-06	-4.587899e-09	-5.531236e+01	-3.200332e+02
3.000000e-07	-7.623900e-06	-4.771953e-09	-5.518587e+01	-3.215586e+02
3.100000e-07	-7.605921e-06	-4.912856e-09	-5.505573e+01	-3.229181e+02
3.200000e-07	-7.587515e-06	-4.850840e-09	-5.492249e+01	-3.240933e+02
3.300000e-07	-7.568503e-06	-4.845688e-09	-5.478487e+01	-3.250693e+02
3.400000e-07	-7.548983e-06	-4.820680e-09	-5.464358e+01	-3.258347e+02
3.500000e-07	-7.529101e-06	-4.708888e-09	-5.449966e+01	-3.263827e+02
3.600000e-07	-7.508881e-06	-4.662875e-09	-5.435330e+01	-3.267100e+02
3.700000e-07	-7.488152e-06	-4.826090e-09	-5.420326e+01	-3.268177e+02
3.800000e-07	-7.466955e-06	-4.890434e-09	-5.404981e+01	-3.267107e+02
3.900000e-07	-7.445285e-06	-4.728383e-09	-5.389296e+01	-3.263980e+02
4.000000e-07	-7.423036e-06	-4.599886e-09	-5.373191e+01	-3.258918e+02
4.100000e-07	-7.400145e-06	-4.733509e-09	-5.356621e+01	-3.252075e+02
4.200000e-07	-7.376747e-06	-4.898701e-09	-5.339684e+01	-3.243633e+02
4.300000e-07	-7.353085e-06	-4.790637e-09	-5.322557e+01	-3.233795e+02
4.400000e-07	-7.328937e-06	-4.603963e-09	-5.305077e+01	-3.222783e+02
4.500000e-07	-7.304107e-06	-4.662003e-09	-5.287104e+01	-3.210829e+02
4.600000e-07	-7.278549e-06	-4.797895e-09	-5.268603e+01	-3.198170e+02
4.700000e-07	-7.252283e-06	-4.760849e-09	-5.249590e+01	-3.185044e+02
4.800000e-07	-7.225419e-06	-4.674033e-09	-5.230145e+01	-3.171684e+02
4.900000e-07	-7.198013e-06	-4.639599e-09	-5.210308e+01	-3.158309e+02
5.000000e-07	-7.170184e-06	-4.639321e-09	-5.190163e+01	-3.145125e+02
5.100000e-07	-7.142007e-06	-4.684565e-09	-5.169767e+01	-3.132316e+02
5.200000e-07	-7.113331e-06	-4.709703e-09	-5.149010e+01	-3.120042e+02
5.300000e-07	-7.084097e-06	-4.619114e-09	-5.127848e+01	-3.108438e+02
5.400000e-07	-7.054379e-06	-4.563358e-09	-5.106337e+01	-3.097607e+02
5.500000e-07	-7.024150e-06	-4.628009e-09	-5.084456e+01	-3.087624e+02
5.600000e-07	-6.993378e-06	-4.670123e-09	-5.062182e+01	-3.078530e+02
5.700000e-07	-6.962145e-06	-4.613294e-09	-5.039573e+01	-3.070339e+02
5.800000e-07	-6.930557e-06	-4.568071e-09	-5.016708e+01	-3.063033e+02
5.900000e-07	-6.898627e-06	-4.589420e-09	-4.993596e+01	-3.056566e+02
6.000000e-07	-6.866379e-06	-4.609771e-09	-4.970252e+01	-3.050868e+02
6.100000e-07	-6.833606e-06	-4.578639e-09	-4.946530e+01	-3.045847e+02
6.200000e-07	-6.800049e-06	-4.552541e-09	-4.922239e+01	-3.041392e+02
6.300000e-07	-6.765759e-06	-4.558515e-09	-4.897419e+01	-3.037378e+02
6.400000e-07	-6.730984e-06	-4.547282e-09	-4.872246e+01	-3.033670e+02
6.500000e-07	-6.695791e-06	-4.513700e-09	-4.846772e+01	-3.030126e+02
6.600000e-07	-6.660082e-06	-4.516224e-09	-4.820924e+01	-3.026605e+02
6.700000e-07	-6.623907e-06	-4.540932e-09	-4.794739e+01	-3.022968e+02
6.800000e-07	-6.587253e-06	-4.513981e-09	-4.768206e+01	-3.019080e+02
6.900000e-07	-6.550154e-06	-4.456923e-09	-4.741352e+01	-3.014822e+02
7.000000e-07	-6.512574e-06	-4.447019e-09	-4.714150e+01	-3.010084e+02
7.100000e-07	-6.474514e-06	-4.475784e-09	-4.686600e+01	-3.004775e+02
7.200000e-07	-6.435997e-06	-4.469562e-09	-4.658719e+01	-2.998820e+02
7.300000e-07	-6.397062e-06	-4.411831e-09	-4.630536e+01	-2.992168e+02
7.400000e-07	-6.357787e-06	-4.378795e-09	-4.602106e+01	-2.984785e+02
7.500000e-07	-6.318171e-06	-4.408455e-09	-4.573431e+01	-2.976659e+02
7.600000e-07	-6.278237e-06	-4.436653e-09	-4.544524e+01	-2.967799e+02
7.700000e-07	-6.237958e-06	-4.402212e-09	-4.515368e+01	-2.958232e+02
7.800000e-07	-6.197079e-06	-4.351868e-09	-4.485778e+01	-2.948003e+02
7.900000e-07	-6.155503e-06	-4.349318e-09	-4.455682e+01	-2.937174e+02
8.000000e-07	-6.113335e-06	-4.367817e-09	-4.425159e+01	-2.925818e+02
8.100000e-07	-6.070581e-06	-4.353060e-09	-4.394212e+01	-2.914018e+02
8.200000e-07	-6.027319e-06	-4.308114e-09	-4.362896e+01	-2.901865e+02
8.300000e-07	-5.983717e-06	-4.280849e-09	-4.331335e+01	-2.889454e+02
8.400000e-07	-5.939735e-06	-4.284090e-09	-4.299498e+01	-2.876880e+02
8.500000e-07	-5.895295e-06	-4.288676e-09	-4.267330e+01	-2.864235e+02
8.600000e-07	-5.850498e-06	-4.273055e-09	-4.234903e+01	-2.851605e+02
8.700000e-07	-5.805316e-06	-4.245254e-09	-4.202198e+01	-2.839070e+02
8.800000e-07	-5.759741e-06	-4.221952e-09	-4.169209e+01	-2.826698e+02
8.900000e-07	-5.713892e-06	-4.208580e-09	-4.136021e+01	-2.814545e+02
9.000000e-07	-5.667631e-06	-4.196801e-09	-4.102535e+01	-2.802653e+02
9.100000e-07	-5.620929e-06	-4.177461e-09	-4.068729e+01	-2.791050e+02
9.200000e-07	-5.573887e-06	-4.145708e-09	-4.034678e+01	-2.779746e+02
9.300000e-07	-5.526461e-06	-4.119975e-09	-4.000348e+01	-2.768740e+02
9.400000e-07	-5.478588e-06	-4.111423e-09	-3.965695e+01	-2.758013e+02
9.500000e-07	-5.430197e-06	-4.109794e-09	-3.930667e+01	-2.747534e+02
9.600000e-07	-5.381306e-06	-4.094959e-09	-3.895278e+01	-2.737258e+02
9.700000e-07	-5.332038e-06	-4.064839e-09	-3.859615e+01	-2.727131e+02
9.800000e-07	-5.282169e-06	-4.038232e-09	-3.823516e+01	-2.717091e+02
9.900000e-07	-5.231681e-06	-4.030218e-09	-3.786971e+01	-2.707069e+02
1.000000e-06	-5.180691e-06	-4.025837e-09	-3.750062e+01	-2.696990e+02
1.010000e-06	-5.129200e-06	-3.999524e-09	-3.712789e+01	-2.686783e+02
1.020000e-06	-5.077380e-06	-3.956464e-09	-3.675280e+01	-2.676373e+02
1.030000e-06	-5.025167e-06	-3.931059e-09	-3.637485e+01	-2.665691e+02
1.040000e-06	-4.972645e-06	-3.933539e-09	-3.599467e+01	-2.654673e+02
1.050000e-06	-4.919803e-06	-3.931619e-09	-3.561216e+01	-2.643264e+02
1.060000e-06	-4.866525e-06	-3.902262e-09	-3.522651e+01	-2.631415e+02
1.070000e-06	-4.812869e-06	-3.869842e-09	-3.483812e+01	-2.619092e+02
1.080000e-06	-4.758854e-06	-3.860977e-09	-3.444714e+01	-2.606267e+02
1.090000e-06	-4.704481e-06	-3.858726e-09	-3.405355e+01	-2.592929e+02
1.100000e-06	-4.649797e-06	-3.834607e-09	-3.365772e+01	-2.579074e+02
1.110000e-06	-4.594809e-06	-3.793638e-09	-3.325969e+01	-2.564714e+02
1.120000e-06	-4.539528e-06	-3.759619e-09	-3.285954e+01	-2.549869e+02
1.130000e-06	-4.484020e-06	-3.743795e-09	-3.245774e+01	-2.534569e+02
1.140000e-06	-4.428283e-06	-3.732107e-09	-3.205429e+01	-2.518854e+02
1.150000e-06	-4.372330e-06	-3.707110e-09	-3.164927e+01	-2.502769e+02
1.160000e-06	-4.316173e-06	-3.673821e-09	-3.124277e+01	-2.486365e+02
1.170000e-06	-4.259760e-06	-3.648456e-09	-3.083443e+01	-2.469695e+02
1.180000e-06	-4.202992e-06	-3.635952e-09	-3.042351e+01	-2.452814e+02
1.190000e-06	-4.145854e-06	-3.618903e-09	-3.000991e+01	-2.435775e+02
1.200000e-06	-4.088265e-06	-3.587736e-09	-2.959305e+01	-2.418631e+02
1.210000e-06	-4.030271e-06	-3.549797e-09	-2.917326e+01	-2.401426e+02
1.220000e-06	-3.971834e-06	-3.519216e-09	-2.875026e+01	-2.384202e+02
1.230000e-06	-3.912885e-06	-3.500411e-09	-2.832356e+01	-2.366990e+02
1.240000e-06	-3.853633e-06	-3.481972e-09	-2.789466e+01	-2.349814e+02
1.250000e-06	-3.794135e-06	-3.454189e-09	-2.746398e+01	-2.332690e+02
1.260000e-06	-3.734368e-06	-3.424190e-09	-2.703135e+01	-2.315622e+02
1.270000e-06	-3.674372e-06	-3.404962e-09	-2.659707e+01	-2.298605e+02
1.280000e-06	-3.614233e-06	-3.393750e-09	-2.616175e+01	-2.281626e+02
1.290000e-06	-3.553928e-06	-3.373735e-09	-2.572523e+01	-2.264662e+02
1.300000e-06	-3.493394e-06	-3.336155e-09	-2.528705e+01	-2.247681e+02
1.310000e-06	-3.432700e-06	-3.293911e-09	-2.484772e+01	-2.230647e+02
1.320000e-06	-3.371827e-06	-3.265866e-09	-2.440709e+01	-2.213517e+02
1.330000e-06	-3.310742e-06	-3.246384e-09	-2.396492e+01	-2.196244e+02
1.340000e-06	-3.249379e-06	-3.215207e-09	-2.352075e+01	-2.178780e+02
1.350000e-06	-3.187688e-06	-3.173713e-09	-2.307419e+01	-2.161075e+02
1.360000e-06	-3.125847e-06	-3.144017e-09	-2.262655e+01	-2.143083e+02
1.370000e-06	-3.063833e-06	-3.130176e-09	-2.217766e+01	-2.124758e+02
1.380000e-06	-3.001554e-06	-3.113651e-09	-2.172685e+01	-2.106060e+02
1.390000e-06	-2.939053e-06	-3.081127e-09	-2.127444e+01	-2.086953e+02
1.400000e-06	-2.876330e-06	-3.041872e-09	-2.082042e+01	-2.067410e+02
1.410000e-06	-2.813503e-06	-3.009443e-09	-2.036564e+01	-2.047410e+02
1.420000e-06	-2.750484e-06	-2.984056e-09	-1.990948e+01	-2.026941e+02
1.430000e-06	-2.687211e-06	-2.954076e-09	-1.945147e+01	-2.005998e+02
1.440000e-06	-2.623801e-06	-2.915181e-09	-1.899248e+01	-1.984585e+02
1.450000e-06	-2.560211e-06	-2.878766e-09	-1.853218e+01	-1.962715e+02
1.460000e-06	-2.496527e-06	-2.851461e-09	-1.807120e+01	-1.940406e+02
1.470000e-06	-2.432693e-06	-2.828500e-09	-1.760914e+01	-1.917684e+02
1.480000e-06	-2.368725e-06	-2.800141e-09	-1.714610e+01	-1.894580e+02
1.490000e-06	-2.304719e-06	-2.762553e-09	-1.668279e+01	-1.871129e+02
1.500000e-06	-2.240575e-06	-2.723149e-09	-1.621848e+01	-1.847367e+02
1.510000e-06	-2.176243e-06	-2.686029e-09	-1.575281e+01	-1.823333e+02
1.520000e-06	-2.111704e-06	-2.651495e-09	-1.528564e+01	-1.799064e+02
1.530000e-06	-2.047029e-06	-2.617039e-09	-1.481749e+01	-1.774597e+02
1.540000e-06	-1.982307e-06	-2.578703e-09	-1.434900e+01	-1.749963e+02
1.550000e-06	-1.917450e-06	-2.543074e-09	-1.387953e+01	-1.725190e+02
1.560000e-06	-1.852377e-06	-2.511349e-09	-1.340850e+01	-1.700298e+02
1.570000e-06	-1.787190e-06	-2.484378e-09	-1.293664e+01	-1.675302e+02
1.580000e-06	-1.721831e-06	-2.452345e-09	-1.246354e+01	-1.650210e+02
1.590000e-06	-1.656255e-06	-2.414919e-09	-1.198886e+01	-1.625021e+02
1.600000e-06	-1.590611e-06	-2.373691e-09	-1.151369e+01	-1.599725e+02
1.610000e-06	-1.524750e-06	-2.333228e-09	-1.103696e+01	-1.574307e+02
1.620000e-06	-1.458714e-06	-2.292956e-09	-1.055895e+01	-1.548742e+02
1.630000e-06	-1.392543e-06	-2.250056e-09	-1.007998e+01	-1.522999e+02
1.640000e-06	-1.326192e-06	-2.205718e-09	-9.599689e+00	-1.497044e+02
1.650000e-06	-1.259661e-06	-2.163431e-09	-9.118100e+00	-1.470834e+02
1.660000e-06	-1.192997e-06	-2.126824e-09	-8.635548e+00	-1.444326e+02
1.670000e-06	-1.126329e-06	-2.089844e-09	-8.152969e+00	-1.417476e+02
1.680000e-06	-1.059570e-06	-2.047824e-09	-7.669734e+00	-1.390236e+02
1.690000e-06	-9.926930e-07	-2.004122e-09	-7.185644e+00	-1.362562e+02
1.700000e-06	-9.258082e-07	-1.962082e-09	-6.701495e+00	-1.334412e+02
1.710000e-06	-8.588345e-07	-1.920570e-09	-6.216704e+00	-1.305749e+02
1.720000e-06	-7.916847e-07	-1.877065e-09	-5.730638e+00	-1.276540e+02
1.730000e-06	-7.244734e-07	-1.826165e-09	-5.244126e+00	-1.246759e+02
1.740000e-06	-6.571790e-07	-1.775572e-09	-4.757014e+00	-1.216388e+02
1.750000e-06	-5.898254e-07	-1.730029e-09	-4.269472e+00	-1.185413e+02
1.760000e-06	-5.224550e-07	-1.688339e-09	-3.781809e+00	-1.153834e+02
1.770000e-06	-4.550651e-07	-1.644491e-09	-3.294005e+00	-1.121653e+02
1.780000e-06	-3.876450e-07	-1.596923e-09	-2.805982e+00	-1.088884e+02
1.790000e-06	-3.201642e-07	-1.546819e-09	-2.317520e+00	-1.055547e+02
1.800000e-06	-2.525908e-07	-1.497707e-09	-1.828387e+00	-1.021666e+02
1.810000e-06	-1.849988e-07	-1.447114e-09	-1.339121e+00	-9.872754e+01
1.820000e-06	-1.174381e-07	-1.394287e-09	-8.500796e-01	-9.524088e+01
1.830000e-06	-4.980050e-08	-1.339277e-09	-3.604827e-01	-9.171051e+01
1.840000e-06	1.778189e-08	-1.285967e-09	1.287148e-01	-8.814039e+01
1.850000e-06	8.523758e-08	-1.235643e-09	6.169952e-01	-8.453447e+01
1.860000e-06	1.526947e-07	-1.188380e-09	1.105286e+00	-8.089652e+01
1.870000e-06	2.201614e-07	-1.141705e-09	1.593646e+00	-7.722997e+01
1.880000e-06	2.875904e-07	-1.091151e-09	2.081733e+00	-7.353783e+01
1.890000e-06	3.549819e-07	-1.040195e-09	2.569549e+00	-6.982251e+01
1.900000e-06	4.223546e-07	-9.900927e-10	3.057228e+00	-6.608576e+01
1.910000e-06	4.897375e-07	-9.372448e-10	3.544982e+00	-6.232859e+01
1.920000e-06	5.571358e-07	-8.765828e-10	4.032847e+00	-5.855120e+01
1.930000e-06	6.244627e-07	-8.121267e-10	4.520195e+00	-5.475301e+01
1.940000e-06	6.916387e-07	-7.544079e-10	5.006451e+00	-5.093260e+01
1.950000e-06	7.587530e-07	-7.011342e-10	5.492261e+00	-4.708786e+01
1.960000e-06	8.258442e-07	-6.457672e-10	5.977903e+00	-4.321593e+01
1.970000e-06	8.928104e-07	-5.878778e-10	6.462640e+00	-3.931344e+01
1.980000e-06	9.595856e-07	-5.305924e-10	6.945994e+00	-3.537651e+01
1.990000e-06	1.026273e-06	-4.746709e-10	7.428716e+00	-3.140098e+01
2.000000e-06	1.092917e-06	-4.160175e-10	7.911116e+00	-2.738255e+01
2.010000e-06	1.159501e-06	-3.514389e-10	8.393089e+00	-2.331691e+01
2.020000e-06	1.225996e-06	-2.824926e-10	8.874413e+00	-1.920001e+01
2.030000e-06	1.292391e-06	-2.145250e-10	9.355019e+00	-1.502812e+01
2.040000e-06	1.358759e-06	-1.518638e-10	9.835425e+00	-1.079812e+01
2.050000e-06	1.424919e-06	-9.208853e-11	1.031433e+01	-6.507581e+00
2.060000e-06	1.490841e-06	-3.079579e-11	1.079150e+01	-2.154928e+00
2.070000e-06	1.556685e-06	3.128603e-11	1.126812e+01	2.260421e+00
2.080000e-06	1.622410e-06	9.541590e-11	1.174388e+01	6.737971e+00
2.090000e-06	1.687921e-06	1.610144e-10	1.221808e+01	1.127609e+01
2.100000e-06	1.753130e-06	2.283320e-10	1.269009e+01	1.587196e+01
2.110000e-06	1.818094e-06	2.978438e-10	1.316033e+01	2.052158e+01
2.120000e-06	1.882915e-06	3.713175e-10	1.362955e+01	2.521983e+01
2.130000e-06	1.947582e-06	4.463632e-10	1.409764e+01	2.996049e+01
2.140000e-06	2.012175e-06	5.158954e-10	1.456520e+01	3.473636e+01
2.150000e-06	2.076701e-06	5.815689e-10	1.503227e+01	3.953939e+01
2.160000e-06	2.141105e-06	6.476458e-10	1.549846e+01	4.436084e+01
2.170000e-06	2.205362e-06	7.180693e-10	1.596359e+01	4.919143e+01
2.180000e-06	2.269551e-06	7.888776e-10	1.642822e+01	5.402155e+01
2.190000e-06	2.333656e-06	8.539985e-10	1.689226e+01	5.884146e+01
2.200000e-06	2.397614e-06	9.202116e-10	1.735521e+01	6.364146e+01
2.210000e-06	2.461388e-06	9.900073e-10	1.781684e+01	6.841213e+01
2.220000e-06	2.524938e-06	1.066213e-09	1.827685e+01	7.314454e+01
2.230000e-06	2.588295e-06	1.140564e-09	1.873547e+01	7.783035e+01
2.240000e-06	2.651499e-06	1.210458e-09	1.919297e+01	8.246205e+01
2.250000e-06	2.714566e-06	1.276651e-09	1.964948e+01	8.703308e+01
2.260000e-06	2.777430e-06	1.338771e-09	2.010453e+01	9.153790e+01
2.270000e-06	2.840076e-06	1.400177e-09	2.055799e+01	9.597211e+01
2.280000e-06	2.902600e-06	1.461724e-09	2.101058e+01	1.003325e+02
2.290000e-06	2.964973e-06	1.520759e-09	2.146206e+01	1.046170e+02
2.300000e-06	3.027161e-06	1.578867e-09	2.191221e+01	1.088247e+02
2.310000e-06	3.089143e-06	1.640332e-09	2.236087e+01	1.129559e+02
2.320000e-06	3.150828e-06	1.703502e-09	2.280738e+01	1.170118e+02
2.330000e-06	3.212331e-06	1.765790e-09	2.325257e+01	1.209945e+02
2.340000e-06	3.273596e-06	1.824976e-09	2.369604e+01	1.249069e+02
2.350000e-06	3.334539e-06	1.881595e-09	2.413718e+01	1.287526e+02
2.360000e-06	3.395306e-06	1.937023e-09	2.457704e+01	1.325354e+02
2.370000e-06	3.455916e-06	1.990124e-09	2.501577e+01	1.362596e+02
2.380000e-06	3.516277e-06	2.038730e-09	2.545269e+01	1.399295e+02
2.390000e-06	3.576411e-06	2.087670e-09	2.588798e+01	1.435492e+02
2.400000e-06	3.636343e-06	2.139605e-09	2.632180e+01	1.471226e+02
2.410000e-06	3.696112e-06	2.192963e-09	2.675444e+01	1.506532e+02
2.420000e-06	3.755745e-06	2.246979e-09	2.718609e+01	1.541440e+02
2.430000e-06	3.815158e-06	2.299051e-09	2.761615e+01	1.575970e+02
2.440000e-06	3.874292e-06	2.349472e-09	2.804420e+01	1.610139e+02
2.450000e-06	3.933050e-06	2.401708e-09	2.846952e+01	1.643954e+02
2.460000e-06	3.991468e-06	2.450346e-09	2.889238e+01	1.677412e+02
2.470000e-06	4.049446e-06	2.493889e-09	2.931206e+01	1.710504e+02
2.480000e-06	4.106947e-06	2.533101e-09	2.972828e+01	1.743214e+02
2.490000e-06	4.163980e-06	2.572423e-09	3.014112e+01	1.775517e+02
2.500000e-06	4.220558e-06	2.615973e-09	3.055065e+01	1.807382e+02
2.510000e-06	4.276879e-06	2.662548e-09	3.095834e+01	1.838774e+02
2.520000e-06	4.333009e-06	2.707975e-09	3.136464e+01	1.869655e+02
2.530000e-06	4.388921e-06	2.751749e-09	3.176936e+01	1.899984e+02
2.540000e-06	4.444571e-06	2.796054e-09	3.217218e+01	1.929720e+02
2.550000e-06	4.499899e-06	2.839747e-09	3.257268e+01	1.958823e+02
2.560000e-06	4.554802e-06	2.879594e-09	3.297010e+01	1.987256e+02
2.570000e-06	4.609380e-06	2.915400e-09	3.336516e+01	2.014987e+02
2.580000e-06	4.663789e-06	2.948520e-09	3.375900e+01	2.041990e+02
2.590000e-06	4.717980e-06	2.981782e-09	3.415127e+01	2.068242e+02
2.600000e-06	4.771852e-06	3.017508e-09	3.454122e+01	2.093734e+02
2.610000e-06	4.825424e-06	3.055552e-09	3.492900e+01	2.118460e+02
2.620000e-06	4.878651e-06	3.093222e-09	3.531429e+01	2.142426e+02
2.630000e-06	4.931423e-06	3.132537e-09	3.569628e+01	2.165646e+02
2.640000e-06	4.983800e-06	3.172366e-09	3.607541e+01	2.188143e+02
2.650000e-06	5.035871e-06	3.208892e-09	3.645233e+01	2.209947e+02
2.660000e-06	5.087456e-06	3.241915e-09	3.682573e+01	2.231096e+02
2.670000e-06	5.138550e-06	3.272144e-09	3.719558e+01	2.251634e+02
2.680000e-06	5.189145e-06	3.299944e-09	3.756181e+01	2.271612e+02
2.690000e-06	5.239045e-06	3.325851e-09	3.792301e+01	2.291082e+02
2.700000e-06	5.288388e-06	3.353249e-09	3.828018e+01	2.310097e+02
2.710000e-06	5.337309e-06	3.386014e-09	3.863430e+01	2.328714e+02
2.720000e-06	5.385859e-06	3.421130e-09	3.898573e+01	2.346986e+02
2.730000e-06	5.434084e-06	3.452446e-09	3.933481e+01	2.364962e+02
2.740000e-06	5.481923e-06	3.481928e-09	3.968109e+01	2.382689e+02
2.750000e-06	5.529374e-06	3.511484e-09	4.002457e+01	2.400206e+02
2.760000e-06	5.576495e-06	3.537649e-09	4.036565e+01	2.417546e+02
2.770000e-06	5.623238e-06	3.557926e-09	4.070401e+01	2.434732e+02
2.780000e-06	5.669581e-06	3.577862e-09	4.103947e+01	2.451781e+02
2.790000e-06	5.715506e-06	3.601031e-09	4.137189e+01	2.468698e+02
2.800000e-06	5.760985e-06	3.625433e-09	4.170109e+01	2.485480e+02
2.810000e-06	5.806044e-06	3.649755e-09	4.202725e+01	2.502117e+02
2.820000e-06	5.850727e-06	3.674573e-09	4.235069e+01	2.518586e+02
2.830000e-06	5.895112e-06	3.700113e-09	4.267198e+01	2.534862e+02
2.840000e-06	5.939207e-06	3.725389e-09	4.299116e+01	2.550909e+02
2.850000e-06	5.982975e-06	3.748036e-09	4.330798e+01	2.566690e+02
2.860000e-06	6.026410e-06	3.771387e-09	4.362238e+01	2.582162e+02
2.870000e-06	6.069405e-06	3.793944e-09	4.393360e+01	2.597282e+02
2.880000e-06	6.111892e-06	3.812271e-09	4.424115e+01	2.612005e+02
2.890000e-06	6.153766e-06	3.829862e-09	4.454425e+01	2.626290e+02
2.900000e-06	6.194896e-06	3.849821e-09	4.484197e+01	2.640099e+02
