# Temperatura_=_20.0
# Concentracion g/m^3_=_12600.0
# C_Vs_to_Am_M_A/Vsm_=_65563218390.804596
# pendiente_HvsI_1/m_=_3716.3
# ordenada_HvsI_A/m_=_1297.0
# frecuencia_Hz_=_135500.91441820067

Tiempo_(s)	Campo_(V.s)	Magnetizacion_(V.s)	Campo_(kA/m)	Magnetizacion_(A/m)
0.000000e+00	-7.888984e-06	-4.422502e-09	-5.689638e+01	-2.965201e+02
1.000000e-08	-7.888989e-06	-4.414040e-09	-5.689642e+01	-2.955930e+02
2.000000e-08	-7.888594e-06	-4.409035e-09	-5.689357e+01	-2.946841e+02
3.000000e-08	-7.887624e-06	-4.407414e-09	-5.688658e+01	-2.938232e+02
4.000000e-08	-7.885829e-06	-4.403715e-09	-5.687363e+01	-2.930409e+02
5.000000e-08	-7.883071e-06	-4.401016e-09	-5.685374e+01	-2.923678e+02
6.000000e-08	-7.879613e-06	-4.401014e-09	-5.682881e+01	-2.918337e+02
7.000000e-08	-7.875762e-06	-4.402263e-09	-5.680103e+01	-2.914667e+02
8.000000e-08	-7.871597e-06	-4.408853e-09	-5.677099e+01	-2.912926e+02
9.000000e-08	-7.866934e-06	-4.413554e-09	-5.673736e+01	-2.913341e+02
1.000000e-07	-7.861489e-06	-4.428663e-09	-5.669809e+01	-2.916100e+02
1.100000e-07	-7.855056e-06	-4.431342e-09	-5.665170e+01	-2.921351e+02
1.200000e-07	-7.847783e-06	-4.464596e-09	-5.659924e+01	-2.929190e+02
1.300000e-07	-7.840108e-06	-4.465814e-09	-5.654389e+01	-2.939662e+02
1.400000e-07	-7.832205e-06	-4.493999e-09	-5.648689e+01	-2.952757e+02
1.500000e-07	-7.823988e-06	-4.407138e-09	-5.642763e+01	-2.968408e+02
1.600000e-07	-7.815395e-06	-4.383073e-09	-5.636565e+01	-2.986493e+02
1.700000e-07	-7.806446e-06	-4.432516e-09	-5.630112e+01	-3.006834e+02
1.800000e-07	-7.796757e-06	-4.503457e-09	-5.623123e+01	-3.029203e+02
1.900000e-07	-7.785895e-06	-4.494863e-09	-5.615290e+01	-3.053322e+02
2.000000e-07	-7.774338e-06	-4.471777e-09	-5.606954e+01	-3.078871e+02
2.100000e-07	-7.762420e-06	-4.437672e-09	-5.598359e+01	-3.105496e+02
2.200000e-07	-7.749889e-06	-4.435522e-09	-5.589322e+01	-3.132813e+02
2.300000e-07	-7.736643e-06	-4.445246e-09	-5.579768e+01	-3.160417e+02
2.400000e-07	-7.722941e-06	-4.496154e-09	-5.569886e+01	-3.187891e+02
2.500000e-07	-7.708713e-06	-4.575255e-09	-5.559625e+01	-3.214818e+02
2.600000e-07	-7.693477e-06	-4.600250e-09	-5.548636e+01	-3.240784e+02
2.700000e-07	-7.677316e-06	-4.643272e-09	-5.536981e+01	-3.265394e+02
2.800000e-07	-7.660644e-06	-4.791354e-09	-5.524957e+01	-3.288275e+02
2.900000e-07	-7.643519e-06	-4.984828e-09	-5.512606e+01	-3.309086e+02
3.000000e-07	-7.625848e-06	-5.025097e-09	-5.499861e+01	-3.327529e+02
3.100000e-07	-7.607647e-06	-5.041659e-09	-5.486735e+01	-3.343347e+02
3.200000e-07	-7.588944e-06	-5.107759e-09	-5.473246e+01	-3.356339e+02
3.300000e-07	-7.569717e-06	-5.113310e-09	-5.459379e+01	-3.366358e+02
3.400000e-07	-7.550064e-06	-5.072590e-09	-5.445205e+01	-3.373312e+02
3.500000e-07	-7.530111e-06	-5.038200e-09	-5.430815e+01	-3.377173e+02
3.600000e-07	-7.509734e-06	-4.910941e-09	-5.416119e+01	-3.377969e+02
3.700000e-07	-7.488866e-06	-5.023034e-09	-5.401068e+01	-3.375786e+02
3.800000e-07	-7.467413e-06	-5.126619e-09	-5.385596e+01	-3.370766e+02
3.900000e-07	-7.445402e-06	-5.009671e-09	-5.369721e+01	-3.363099e+02
4.000000e-07	-7.422922e-06	-4.839043e-09	-5.353509e+01	-3.353020e+02
4.100000e-07	-7.399897e-06	-4.985195e-09	-5.336903e+01	-3.340805e+02
4.200000e-07	-7.376423e-06	-5.121433e-09	-5.319973e+01	-3.326758e+02
4.300000e-07	-7.352549e-06	-5.059629e-09	-5.302754e+01	-3.311209e+02
4.400000e-07	-7.328218e-06	-4.910812e-09	-5.285207e+01	-3.294500e+02
4.500000e-07	-7.303255e-06	-4.910310e-09	-5.267203e+01	-3.276982e+02
4.600000e-07	-7.277519e-06	-5.009989e-09	-5.248642e+01	-3.259004e+02
4.700000e-07	-7.251089e-06	-5.052886e-09	-5.229581e+01	-3.240903e+02
4.800000e-07	-7.223999e-06	-4.948134e-09	-5.210043e+01	-3.222999e+02
4.900000e-07	-7.196367e-06	-4.835459e-09	-5.190114e+01	-3.205586e+02
5.000000e-07	-7.168370e-06	-4.873780e-09	-5.169923e+01	-3.188930e+02
5.100000e-07	-7.140016e-06	-4.981092e-09	-5.149474e+01	-3.173255e+02
5.200000e-07	-7.111285e-06	-4.980414e-09	-5.128752e+01	-3.158749e+02
5.300000e-07	-7.082062e-06	-4.838034e-09	-5.107676e+01	-3.145552e+02
5.400000e-07	-7.052165e-06	-4.783342e-09	-5.086114e+01	-3.133760e+02
5.500000e-07	-7.021780e-06	-4.862736e-09	-5.064199e+01	-3.123424e+02
5.600000e-07	-6.990987e-06	-4.936559e-09	-5.041992e+01	-3.114546e+02
5.700000e-07	-6.959656e-06	-4.859339e-09	-5.019395e+01	-3.107086e+02
5.800000e-07	-6.927885e-06	-4.770206e-09	-4.996482e+01	-3.100964e+02
5.900000e-07	-6.895841e-06	-4.776083e-09	-4.973371e+01	-3.096062e+02
6.000000e-07	-6.863519e-06	-4.862529e-09	-4.950060e+01	-3.092231e+02
6.100000e-07	-6.830701e-06	-4.859623e-09	-4.926391e+01	-3.089293e+02
6.200000e-07	-6.796974e-06	-4.785281e-09	-4.902067e+01	-3.087054e+02
6.300000e-07	-6.762392e-06	-4.736245e-09	-4.877126e+01	-3.085303e+02
6.400000e-07	-6.727168e-06	-4.774123e-09	-4.851722e+01	-3.083822e+02
6.500000e-07	-6.691481e-06	-4.790422e-09	-4.825984e+01	-3.082395e+02
6.600000e-07	-6.655512e-06	-4.760354e-09	-4.800042e+01	-3.080809e+02
6.700000e-07	-6.619188e-06	-4.715295e-09	-4.773846e+01	-3.078865e+02
6.800000e-07	-6.582369e-06	-4.707721e-09	-4.747291e+01	-3.076379e+02
6.900000e-07	-6.545001e-06	-4.711232e-09	-4.720341e+01	-3.073191e+02
7.000000e-07	-6.507177e-06	-4.706638e-09	-4.693061e+01	-3.069167e+02
7.100000e-07	-6.468958e-06	-4.681447e-09	-4.665497e+01	-3.064199e+02
7.200000e-07	-6.430356e-06	-4.660083e-09	-4.637657e+01	-3.058214e+02
7.300000e-07	-6.391271e-06	-4.643486e-09	-4.609469e+01	-3.051168e+02
7.400000e-07	-6.351779e-06	-4.630616e-09	-4.580986e+01	-3.043051e+02
7.500000e-07	-6.312001e-06	-4.619732e-09	-4.552298e+01	-3.033882e+02
7.600000e-07	-6.271846e-06	-4.614419e-09	-4.523338e+01	-3.023712e+02
7.700000e-07	-6.231331e-06	-4.605803e-09	-4.494118e+01	-3.012616e+02
7.800000e-07	-6.190319e-06	-4.582402e-09	-4.464539e+01	-3.000694e+02
7.900000e-07	-6.148668e-06	-4.558814e-09	-4.434500e+01	-2.988064e+02
8.000000e-07	-6.106507e-06	-4.550592e-09	-4.404093e+01	-2.974861e+02
8.100000e-07	-6.063549e-06	-4.554007e-09	-4.373111e+01	-2.961226e+02
8.200000e-07	-6.019949e-06	-4.533504e-09	-4.341666e+01	-2.947308e+02
8.300000e-07	-5.976063e-06	-4.496693e-09	-4.310015e+01	-2.933256e+02
8.400000e-07	-5.931869e-06	-4.469783e-09	-4.278142e+01	-2.919213e+02
8.500000e-07	-5.887325e-06	-4.474900e-09	-4.246016e+01	-2.905312e+02
8.600000e-07	-5.842391e-06	-4.474892e-09	-4.213609e+01	-2.891675e+02
8.700000e-07	-5.797111e-06	-4.447427e-09	-4.180953e+01	-2.878406e+02
8.800000e-07	-5.751389e-06	-4.402474e-09	-4.147977e+01	-2.865588e+02
8.900000e-07	-5.705231e-06	-4.389799e-09	-4.114688e+01	-2.853283e+02
9.000000e-07	-5.658781e-06	-4.398367e-09	-4.081187e+01	-2.841530e+02
9.100000e-07	-5.611984e-06	-4.387373e-09	-4.047436e+01	-2.830343e+02
9.200000e-07	-5.564818e-06	-4.341565e-09	-4.013420e+01	-2.819713e+02
9.300000e-07	-5.517266e-06	-4.308486e-09	-3.979125e+01	-2.809607e+02
9.400000e-07	-5.469265e-06	-4.307033e-09	-3.944506e+01	-2.799971e+02
9.500000e-07	-5.420797e-06	-4.314316e-09	-3.909550e+01	-2.790733e+02
9.600000e-07	-5.371827e-06	-4.290029e-09	-3.874232e+01	-2.781803e+02
9.700000e-07	-5.322398e-06	-4.247165e-09	-3.838583e+01	-2.773078e+02
9.800000e-07	-5.272347e-06	-4.223089e-09	-3.802486e+01	-2.764449e+02
9.900000e-07	-5.221635e-06	-4.226169e-09	-3.765912e+01	-2.755797e+02
1.000000e-06	-5.170440e-06	-4.218863e-09	-3.728989e+01	-2.747004e+02
1.010000e-06	-5.118763e-06	-4.187347e-09	-3.691719e+01	-2.737955e+02
1.020000e-06	-5.066726e-06	-4.149812e-09	-3.654189e+01	-2.728539e+02
1.030000e-06	-5.014399e-06	-4.133867e-09	-3.616450e+01	-2.718655e+02
1.040000e-06	-4.961688e-06	-4.132278e-09	-3.578435e+01	-2.708216e+02
1.050000e-06	-4.908627e-06	-4.119656e-09	-3.540166e+01	-2.697149e+02
1.060000e-06	-4.855290e-06	-4.088113e-09	-3.501699e+01	-2.685396e+02
1.070000e-06	-4.801527e-06	-4.051751e-09	-3.462924e+01	-2.672922e+02
1.080000e-06	-4.747357e-06	-4.033079e-09	-3.423856e+01	-2.659708e+02
1.090000e-06	-4.692869e-06	-4.022238e-09	-3.384559e+01	-2.645753e+02
1.100000e-06	-4.638075e-06	-4.002296e-09	-3.345040e+01	-2.631079e+02
1.110000e-06	-4.582978e-06	-3.969782e-09	-3.305304e+01	-2.615722e+02
1.120000e-06	-4.527442e-06	-3.938932e-09	-3.265251e+01	-2.599736e+02
1.130000e-06	-4.471635e-06	-3.919978e-09	-3.225001e+01	-2.583187e+02
1.140000e-06	-4.415727e-06	-3.908540e-09	-3.184681e+01	-2.566153e+02
1.150000e-06	-4.359655e-06	-3.886557e-09	-3.144240e+01	-2.548719e+02
1.160000e-06	-4.303316e-06	-3.853610e-09	-3.103608e+01	-2.530978e+02
1.170000e-06	-4.246723e-06	-3.821270e-09	-3.062793e+01	-2.513022e+02
1.180000e-06	-4.189889e-06	-3.799824e-09	-3.021803e+01	-2.494943e+02
1.190000e-06	-4.132633e-06	-3.778625e-09	-2.980509e+01	-2.476826e+02
1.200000e-06	-4.074824e-06	-3.750860e-09	-2.938817e+01	-2.458752e+02
1.210000e-06	-4.016381e-06	-3.715494e-09	-2.896667e+01	-2.440790e+02
1.220000e-06	-3.957561e-06	-3.684728e-09	-2.854245e+01	-2.422997e+02
1.230000e-06	-3.898466e-06	-3.662226e-09	-2.811625e+01	-2.405416e+02
1.240000e-06	-3.838924e-06	-3.640811e-09	-2.768682e+01	-2.388074e+02
1.250000e-06	-3.779152e-06	-3.612570e-09	-2.725574e+01	-2.370983e+02
1.260000e-06	-3.719256e-06	-3.581396e-09	-2.682376e+01	-2.354140e+02
1.270000e-06	-3.659210e-06	-3.555842e-09	-2.639070e+01	-2.337523e+02
1.280000e-06	-3.598977e-06	-3.535348e-09	-2.595629e+01	-2.321098e+02
1.290000e-06	-3.538557e-06	-3.511345e-09	-2.552054e+01	-2.304816e+02
1.300000e-06	-3.477961e-06	-3.478884e-09	-2.508351e+01	-2.288617e+02
1.310000e-06	-3.417158e-06	-3.443871e-09	-2.464499e+01	-2.272432e+02
1.320000e-06	-3.356144e-06	-3.415410e-09	-2.420495e+01	-2.256184e+02
1.330000e-06	-3.294897e-06	-3.390838e-09	-2.376323e+01	-2.239792e+02
1.340000e-06	-3.233270e-06	-3.362804e-09	-2.331877e+01	-2.223174e+02
1.350000e-06	-3.171377e-06	-3.329270e-09	-2.287239e+01	-2.206249e+02
1.360000e-06	-3.109393e-06	-3.297129e-09	-2.242535e+01	-2.188940e+02
1.370000e-06	-3.047179e-06	-3.271404e-09	-2.197666e+01	-2.171177e+02
1.380000e-06	-2.984734e-06	-3.247397e-09	-2.152629e+01	-2.152897e+02
1.390000e-06	-2.922071e-06	-3.218063e-09	-2.107436e+01	-2.134049e+02
1.400000e-06	-2.859189e-06	-3.184384e-09	-2.062084e+01	-2.114594e+02
1.410000e-06	-2.796092e-06	-3.151436e-09	-2.016578e+01	-2.094507e+02
1.420000e-06	-2.732824e-06	-3.119481e-09	-1.970948e+01	-2.073775e+02
1.430000e-06	-2.669424e-06	-3.087937e-09	-1.925223e+01	-2.052400e+02
1.440000e-06	-2.605950e-06	-3.055047e-09	-1.879445e+01	-2.030398e+02
1.450000e-06	-2.542353e-06	-3.020966e-09	-1.833578e+01	-2.007797e+02
1.460000e-06	-2.478563e-06	-2.988465e-09	-1.787572e+01	-1.984636e+02
1.470000e-06	-2.414649e-06	-2.955596e-09	-1.741476e+01	-1.960966e+02
1.480000e-06	-2.350617e-06	-2.925506e-09	-1.695296e+01	-1.936843e+02
1.490000e-06	-2.286410e-06	-2.889374e-09	-1.648989e+01	-1.912332e+02
1.500000e-06	-2.221993e-06	-2.852234e-09	-1.602531e+01	-1.887498e+02
1.510000e-06	-2.157559e-06	-2.814497e-09	-1.556060e+01	-1.862409e+02
1.520000e-06	-2.092977e-06	-2.776893e-09	-1.509482e+01	-1.837130e+02
1.530000e-06	-2.028103e-06	-2.746898e-09	-1.462694e+01	-1.811723e+02
1.540000e-06	-1.963163e-06	-2.714542e-09	-1.415859e+01	-1.786242e+02
1.550000e-06	-1.898109e-06	-2.684832e-09	-1.368941e+01	-1.760736e+02
1.560000e-06	-1.832928e-06	-2.653694e-09	-1.321932e+01	-1.735241e+02
1.570000e-06	-1.767620e-06	-2.622434e-09	-1.274831e+01	-1.709782e+02
1.580000e-06	-1.702029e-06	-2.582987e-09	-1.227526e+01	-1.684373e+02
1.590000e-06	-1.636160e-06	-2.538340e-09	-1.180020e+01	-1.659014e+02
1.600000e-06	-1.570233e-06	-2.493401e-09	-1.132473e+01	-1.633694e+02
1.610000e-06	-1.504200e-06	-2.450781e-09	-1.084849e+01	-1.608389e+02
1.620000e-06	-1.437944e-06	-2.405873e-09	-1.037064e+01	-1.583062e+02
1.630000e-06	-1.371458e-06	-2.362499e-09	-9.891136e+00	-1.557666e+02
1.640000e-06	-1.304840e-06	-2.322509e-09	-9.410675e+00	-1.532148e+02
1.650000e-06	-1.238043e-06	-2.280276e-09	-8.928930e+00	-1.506446e+02
1.660000e-06	-1.171029e-06	-2.234024e-09	-8.445613e+00	-1.480492e+02
1.670000e-06	-1.104040e-06	-2.193529e-09	-7.962479e+00	-1.454217e+02
1.680000e-06	-1.037013e-06	-2.155982e-09	-7.479072e+00	-1.427553e+02
1.690000e-06	-9.698728e-07	-2.110951e-09	-6.994850e+00	-1.400431e+02
1.700000e-06	-9.027802e-07	-2.060377e-09	-6.510969e+00	-1.372789e+02
1.710000e-06	-8.356331e-07	-2.008306e-09	-6.026695e+00	-1.344569e+02
1.720000e-06	-7.683671e-07	-1.964699e-09	-5.541564e+00	-1.315723e+02
1.730000e-06	-7.010578e-07	-1.919591e-09	-5.056121e+00	-1.286211e+02
1.740000e-06	-6.336823e-07	-1.875767e-09	-4.570200e+00	-1.256005e+02
1.750000e-06	-5.662885e-07	-1.831999e-09	-4.084147e+00	-1.225088e+02
1.760000e-06	-4.987990e-07	-1.787875e-09	-3.597404e+00	-1.193455e+02
1.770000e-06	-4.312060e-07	-1.743820e-09	-3.109914e+00	-1.161112e+02
1.780000e-06	-3.636454e-07	-1.697534e-09	-2.622658e+00	-1.128079e+02
1.790000e-06	-2.960323e-07	-1.648595e-09	-2.135024e+00	-1.094383e+02
1.800000e-06	-2.283582e-07	-1.593437e-09	-1.646949e+00	-1.060063e+02
1.810000e-06	-1.608004e-07	-1.534429e-09	-1.159714e+00	-1.025164e+02
1.820000e-06	-9.325164e-08	-1.479925e-09	-6.725431e-01	-9.897391e+01
1.830000e-06	-2.565636e-08	-1.429057e-09	-1.850370e-01	-9.538425e+01
1.840000e-06	4.192171e-08	-1.380571e-09	3.023449e-01	-9.175319e+01
1.850000e-06	1.094304e-07	-1.333287e-09	7.892265e-01	-8.808643e+01
1.860000e-06	1.769451e-07	-1.284367e-09	1.276151e+00	-8.438938e+01
1.870000e-06	2.444483e-07	-1.234594e-09	1.762993e+00	-8.066700e+01
1.880000e-06	3.118756e-07	-1.183685e-09	2.249288e+00	-7.692357e+01
1.890000e-06	3.792656e-07	-1.130852e-09	2.735313e+00	-7.316257e+01
1.900000e-06	4.467703e-07	-1.068591e-09	3.222166e+00	-6.938650e+01
1.910000e-06	5.143608e-07	-1.003941e-09	3.709637e+00	-6.559681e+01
1.920000e-06	5.818545e-07	-9.427905e-10	4.196411e+00	-6.179387e+01
1.930000e-06	6.493131e-07	-8.860249e-10	4.682931e+00	-5.797686e+01
1.940000e-06	7.167732e-07	-8.295433e-10	5.169463e+00	-5.414389e+01
1.950000e-06	7.841906e-07	-7.719947e-10	5.655685e+00	-5.029205e+01
1.960000e-06	8.514069e-07	-7.166597e-10	6.140458e+00	-4.641745e+01
1.970000e-06	9.184975e-07	-6.597898e-10	6.624324e+00	-4.251547e+01
1.980000e-06	9.855283e-07	-6.014953e-10	7.107759e+00	-3.858083e+01
1.990000e-06	1.052524e-06	-5.402624e-10	7.590943e+00	-3.460788e+01
2.000000e-06	1.119531e-06	-4.749855e-10	8.074204e+00	-3.059077e+01
2.010000e-06	1.186379e-06	-4.068071e-10	8.556318e+00	-2.652372e+01
2.020000e-06	1.253134e-06	-3.400313e-10	9.037764e+00	-2.240121e+01
2.030000e-06	1.319817e-06	-2.747787e-10	9.518696e+00	-1.821828e+01
2.040000e-06	1.386465e-06	-2.115824e-10	9.999369e+00	-1.397071e+01
2.050000e-06	1.452935e-06	-1.498824e-10	1.047876e+01	-9.655213e+00
2.060000e-06	1.519083e-06	-8.912956e-11	1.095583e+01	-5.269671e+00
2.070000e-06	1.585015e-06	-2.786815e-11	1.143134e+01	-8.132270e-01
2.080000e-06	1.650871e-06	3.699621e-11	1.190630e+01	3.713583e+00
2.090000e-06	1.716578e-06	1.070783e-10	1.238019e+01	8.308767e+00
2.100000e-06	1.781959e-06	1.783008e-10	1.285172e+01	1.296885e+01
2.110000e-06	1.847172e-06	2.485387e-10	1.332205e+01	1.768891e+01
2.120000e-06	1.912244e-06	3.226042e-10	1.379135e+01	2.246262e+01
2.130000e-06	1.977130e-06	3.971474e-10	1.425932e+01	2.728239e+01
2.140000e-06	2.041842e-06	4.664252e-10	1.472603e+01	3.213949e+01
2.150000e-06	2.106371e-06	5.323501e-10	1.519142e+01	3.702425e+01
2.160000e-06	2.170811e-06	5.996929e-10	1.565618e+01	4.192626e+01
2.170000e-06	2.235156e-06	6.721731e-10	1.612024e+01	4.683464e+01
2.180000e-06	2.299339e-06	7.437430e-10	1.658313e+01	5.173826e+01
2.190000e-06	2.363417e-06	8.106888e-10	1.704527e+01	5.662599e+01
2.200000e-06	2.427406e-06	8.799104e-10	1.750677e+01	6.148703e+01
2.210000e-06	2.491284e-06	9.527727e-10	1.796747e+01	6.631106e+01
2.220000e-06	2.554928e-06	1.027338e-09	1.842648e+01	7.108857e+01
2.230000e-06	2.618422e-06	1.096856e-09	1.888440e+01	7.581098e+01
2.240000e-06	2.681758e-06	1.163246e-09	1.934119e+01	8.047089e+01
2.250000e-06	2.744850e-06	1.229280e-09	1.979622e+01	8.506220e+01
2.260000e-06	2.807840e-06	1.290720e-09	2.025051e+01	8.958017e+01
2.270000e-06	2.870683e-06	1.352247e-09	2.070374e+01	9.402154e+01
2.280000e-06	2.933255e-06	1.415062e-09	2.115502e+01	9.838451e+01
2.290000e-06	2.995574e-06	1.477250e-09	2.160447e+01	1.026687e+02
2.300000e-06	3.057758e-06	1.540869e-09	2.205295e+01	1.068751e+02
2.310000e-06	3.119855e-06	1.604503e-09	2.250080e+01	1.110058e+02
2.320000e-06	3.181668e-06	1.670992e-09	2.294661e+01	1.150642e+02
2.330000e-06	3.243240e-06	1.738906e-09	2.339067e+01	1.190545e+02
2.340000e-06	3.304549e-06	1.798928e-09	2.383284e+01	1.229814e+02
2.350000e-06	3.365589e-06	1.855376e-09	2.427307e+01	1.268503e+02
2.360000e-06	3.426521e-06	1.913396e-09	2.471252e+01	1.306666e+02
2.370000e-06	3.487175e-06	1.970610e-09	2.514996e+01	1.344357e+02
2.380000e-06	3.547543e-06	2.025366e-09	2.558534e+01	1.381630e+02
2.390000e-06	3.607772e-06	2.080231e-09	2.601973e+01	1.418529e+02
2.400000e-06	3.667899e-06	2.135870e-09	2.645337e+01	1.455097e+02
2.410000e-06	3.727817e-06	2.192100e-09	2.688551e+01	1.491362e+02
2.420000e-06	3.787459e-06	2.246478e-09	2.731565e+01	1.527348e+02
2.430000e-06	3.846943e-06	2.299981e-09	2.774466e+01	1.563063e+02
2.440000e-06	3.906054e-06	2.351729e-09	2.817097e+01	1.598508e+02
2.450000e-06	3.964827e-06	2.404346e-09	2.859485e+01	1.633670e+02
2.460000e-06	4.023327e-06	2.454509e-09	2.901676e+01	1.668524e+02
2.470000e-06	4.081401e-06	2.501471e-09	2.943560e+01	1.703036e+02
2.480000e-06	4.138980e-06	2.546905e-09	2.985087e+01	1.737162e+02
2.490000e-06	4.196102e-06	2.592136e-09	3.026284e+01	1.770851e+02
2.500000e-06	4.252863e-06	2.640613e-09	3.067221e+01	1.804046e+02
2.510000e-06	4.309237e-06	2.688481e-09	3.107878e+01	1.836684e+02
2.520000e-06	4.365367e-06	2.734175e-09	3.148360e+01	1.868703e+02
2.530000e-06	4.421257e-06	2.779745e-09	3.188668e+01	1.900041e+02
2.540000e-06	4.476940e-06	2.826451e-09	3.228828e+01	1.930639e+02
2.550000e-06	4.532301e-06	2.870496e-09	3.268755e+01	1.960441e+02
2.560000e-06	4.587256e-06	2.910849e-09	3.308389e+01	1.989403e+02
2.570000e-06	4.641973e-06	2.949814e-09	3.347851e+01	2.017486e+02
2.580000e-06	4.696475e-06	2.986973e-09	3.387159e+01	2.044665e+02
2.590000e-06	4.750721e-06	3.023140e-09	3.426283e+01	2.070925e+02
2.600000e-06	4.804661e-06	3.061282e-09	3.465185e+01	2.096265e+02
2.610000e-06	4.858242e-06	3.099873e-09	3.503828e+01	2.120698e+02
2.620000e-06	4.911454e-06	3.138131e-09	3.542205e+01	2.144250e+02
2.630000e-06	4.964300e-06	3.176289e-09	3.580318e+01	2.166958e+02
2.640000e-06	5.016749e-06	3.213456e-09	3.618145e+01	2.188874e+02
2.650000e-06	5.068856e-06	3.247746e-09	3.655726e+01	2.210058e+02
2.660000e-06	5.120548e-06	3.280232e-09	3.693006e+01	2.230579e+02
2.670000e-06	5.171763e-06	3.310445e-09	3.729943e+01	2.250515e+02
2.680000e-06	5.222449e-06	3.341971e-09	3.766499e+01	2.269946e+02
2.690000e-06	5.272466e-06	3.372054e-09	3.802572e+01	2.288956e+02
2.700000e-06	5.321966e-06	3.402583e-09	3.838272e+01	2.307625e+02
2.710000e-06	5.370918e-06	3.438831e-09	3.873577e+01	2.326033e+02
2.720000e-06	5.419417e-06	3.473875e-09	3.908555e+01	2.344255e+02
2.730000e-06	5.467645e-06	3.502557e-09	3.943338e+01	2.362354e+02
2.740000e-06	5.515523e-06	3.531488e-09	3.977867e+01	2.380388e+02
2.750000e-06	5.563094e-06	3.561864e-09	4.012176e+01	2.398399e+02
2.760000e-06	5.610273e-06	3.587995e-09	4.046203e+01	2.416418e+02
2.770000e-06	5.657006e-06	3.610485e-09	4.079907e+01	2.434461e+02
2.780000e-06	5.703310e-06	3.633523e-09	4.113302e+01	2.452531e+02
2.790000e-06	5.749257e-06	3.660355e-09	4.146439e+01	2.470616e+02
2.800000e-06	5.794863e-06	3.688251e-09	4.179331e+01	2.488688e+02
2.810000e-06	5.839971e-06	3.713546e-09	4.211864e+01	2.506708e+02
2.820000e-06	5.884673e-06	3.736118e-09	4.244104e+01	2.524626e+02
2.830000e-06	5.929067e-06	3.761797e-09	4.276121e+01	2.542380e+02
2.840000e-06	5.973241e-06	3.789631e-09	4.307980e+01	2.559902e+02
2.850000e-06	6.017142e-06	3.813791e-09	4.339642e+01	2.577119e+02
2.860000e-06	6.060597e-06	3.836590e-09	4.370982e+01	2.593956e+02
2.870000e-06	6.103671e-06	3.858901e-09	4.402047e+01	2.610337e+02
2.880000e-06	6.146238e-06	3.878982e-09	4.432748e+01	2.626189e+02
2.890000e-06	6.188034e-06	3.901371e-09	4.462892e+01	2.641447e+02
2.900000e-06	6.229093e-06	3.927328e-09	4.492504e+01	2.656051e+02
