# Temperatura_=_20.0
# Concentracion g/m^3_=_12600.0
# C_Vs_to_Am_M_A/Vsm_=_65563218390.804596
# pendiente_HvsI_1/m_=_3716.3
# ordenada_HvsI_A/m_=_1297.0
# frecuencia_Hz_=_135499.76822556328

Tiempo_(s)	Campo_(V.s)	Magnetizacion_(V.s)	Campo_(kA/m)	Magnetizacion_(A/m)
0.000000e+00	-7.934836e-06	-3.974158e-09	-5.689124e+01	-2.703356e+02
1.000000e-08	-7.935129e-06	-3.965792e-09	-5.689333e+01	-2.690755e+02
2.000000e-08	-7.934997e-06	-3.959401e-09	-5.689239e+01	-2.677471e+02
3.000000e-08	-7.934351e-06	-3.956632e-09	-5.688775e+01	-2.663881e+02
4.000000e-08	-7.933006e-06	-3.954553e-09	-5.687811e+01	-2.650394e+02
5.000000e-08	-7.930905e-06	-3.949926e-09	-5.686305e+01	-2.637454e+02
6.000000e-08	-7.927946e-06	-3.947269e-09	-5.684183e+01	-2.625520e+02
7.000000e-08	-7.924376e-06	-3.945531e-09	-5.681624e+01	-2.615061e+02
8.000000e-08	-7.920524e-06	-3.941459e-09	-5.678862e+01	-2.606545e+02
9.000000e-08	-7.916240e-06	-3.935034e-09	-5.675790e+01	-2.600423e+02
1.000000e-07	-7.911293e-06	-3.943368e-09	-5.672243e+01	-2.597124e+02
1.100000e-07	-7.905487e-06	-3.996979e-09	-5.668080e+01	-2.597040e+02
1.200000e-07	-7.898755e-06	-4.029641e-09	-5.663254e+01	-2.600515e+02
1.300000e-07	-7.891298e-06	-4.034088e-09	-5.657907e+01	-2.607838e+02
1.400000e-07	-7.883526e-06	-3.878151e-09	-5.652335e+01	-2.619233e+02
1.500000e-07	-7.875634e-06	-3.907319e-09	-5.646677e+01	-2.634853e+02
1.600000e-07	-7.867494e-06	-4.025179e-09	-5.640840e+01	-2.654773e+02
1.700000e-07	-7.858949e-06	-4.025608e-09	-5.634714e+01	-2.678988e+02
1.800000e-07	-7.849602e-06	-3.958553e-09	-5.628012e+01	-2.707409e+02
1.900000e-07	-7.839245e-06	-4.011433e-09	-5.620586e+01	-2.739866e+02
2.000000e-07	-7.828033e-06	-4.038425e-09	-5.612548e+01	-2.776108e+02
2.100000e-07	-7.816328e-06	-4.062829e-09	-5.604156e+01	-2.815807e+02
2.200000e-07	-7.804285e-06	-4.070556e-09	-5.595521e+01	-2.858565e+02
2.300000e-07	-7.791509e-06	-4.090304e-09	-5.586360e+01	-2.903920e+02
2.400000e-07	-7.777945e-06	-4.139832e-09	-5.576635e+01	-2.951357e+02
2.500000e-07	-7.763969e-06	-4.388180e-09	-5.566615e+01	-3.000317e+02
2.600000e-07	-7.749606e-06	-4.632898e-09	-5.556317e+01	-3.050207e+02
2.700000e-07	-7.734165e-06	-4.712852e-09	-5.545246e+01	-3.100416e+02
2.800000e-07	-7.717672e-06	-4.861751e-09	-5.533421e+01	-3.150325e+02
2.900000e-07	-7.700792e-06	-5.195287e-09	-5.521318e+01	-3.199320e+02
3.000000e-07	-7.683513e-06	-5.450648e-09	-5.508929e+01	-3.246806e+02
3.100000e-07	-7.665705e-06	-5.426600e-09	-5.496162e+01	-3.292216e+02
3.200000e-07	-7.647384e-06	-5.373928e-09	-5.483026e+01	-3.335027e+02
3.300000e-07	-7.628435e-06	-5.480132e-09	-5.469440e+01	-3.374769e+02
3.400000e-07	-7.608972e-06	-5.484094e-09	-5.455485e+01	-3.411032e+02
3.500000e-07	-7.589152e-06	-5.402953e-09	-5.441274e+01	-3.443474e+02
3.600000e-07	-7.568992e-06	-5.460150e-09	-5.426820e+01	-3.471831e+02
3.700000e-07	-7.548348e-06	-5.343634e-09	-5.412019e+01	-3.495915e+02
3.800000e-07	-7.527210e-06	-5.407547e-09	-5.396863e+01	-3.515622e+02
3.900000e-07	-7.505567e-06	-5.465719e-09	-5.381346e+01	-3.530927e+02
4.000000e-07	-7.483342e-06	-5.391271e-09	-5.365411e+01	-3.541887e+02
4.100000e-07	-7.460537e-06	-5.291460e-09	-5.349060e+01	-3.548634e+02
4.200000e-07	-7.437170e-06	-5.427664e-09	-5.332306e+01	-3.551373e+02
4.300000e-07	-7.413387e-06	-5.442098e-09	-5.315254e+01	-3.550371e+02
4.400000e-07	-7.389200e-06	-5.395674e-09	-5.297913e+01	-3.545954e+02
4.500000e-07	-7.364511e-06	-5.341903e-09	-5.280211e+01	-3.538493e+02
4.600000e-07	-7.339022e-06	-5.353597e-09	-5.261936e+01	-3.528397e+02
4.700000e-07	-7.312685e-06	-5.403663e-09	-5.243053e+01	-3.516099e+02
4.800000e-07	-7.285719e-06	-5.400542e-09	-5.223719e+01	-3.502049e+02
4.900000e-07	-7.258181e-06	-5.283260e-09	-5.203975e+01	-3.486700e+02
5.000000e-07	-7.230210e-06	-5.267256e-09	-5.183920e+01	-3.470497e+02
5.100000e-07	-7.202022e-06	-5.349642e-09	-5.163710e+01	-3.453870e+02
5.200000e-07	-7.173466e-06	-5.339025e-09	-5.143236e+01	-3.437218e+02
5.300000e-07	-7.144281e-06	-5.265421e-09	-5.122311e+01	-3.420907e+02
5.400000e-07	-7.114467e-06	-5.221025e-09	-5.100934e+01	-3.405261e+02
5.500000e-07	-7.084186e-06	-5.256381e-09	-5.079224e+01	-3.390553e+02
5.600000e-07	-7.053433e-06	-5.279772e-09	-5.057174e+01	-3.377005e+02
5.700000e-07	-7.022132e-06	-5.252800e-09	-5.034732e+01	-3.364781e+02
5.800000e-07	-6.990429e-06	-5.189033e-09	-5.012002e+01	-3.353988e+02
5.900000e-07	-6.958430e-06	-5.201117e-09	-4.989059e+01	-3.344679e+02
6.000000e-07	-6.926136e-06	-5.216328e-09	-4.965905e+01	-3.336848e+02
6.100000e-07	-6.893328e-06	-5.216943e-09	-4.942382e+01	-3.330441e+02
6.200000e-07	-6.859830e-06	-5.183032e-09	-4.918365e+01	-3.325354e+02
6.300000e-07	-6.825583e-06	-5.169965e-09	-4.893811e+01	-3.321445e+02
6.400000e-07	-6.790611e-06	-5.148862e-09	-4.868736e+01	-3.318535e+02
6.500000e-07	-6.755129e-06	-5.154921e-09	-4.843296e+01	-3.316417e+02
6.600000e-07	-6.719263e-06	-5.138829e-09	-4.817581e+01	-3.314867e+02
6.700000e-07	-6.683007e-06	-5.123588e-09	-4.791586e+01	-3.313648e+02
6.800000e-07	-6.646304e-06	-5.103635e-09	-4.765271e+01	-3.312521e+02
6.900000e-07	-6.609145e-06	-5.090662e-09	-4.738629e+01	-3.311250e+02
7.000000e-07	-6.571549e-06	-5.070337e-09	-4.711673e+01	-3.309611e+02
7.100000e-07	-6.533422e-06	-5.078535e-09	-4.684337e+01	-3.307398e+02
7.200000e-07	-6.494795e-06	-5.067873e-09	-4.656642e+01	-3.304430e+02
7.300000e-07	-6.455825e-06	-5.030418e-09	-4.628701e+01	-3.300554e+02
7.400000e-07	-6.416432e-06	-5.001226e-09	-4.600457e+01	-3.295652e+02
7.500000e-07	-6.376697e-06	-5.016557e-09	-4.571968e+01	-3.289637e+02
7.600000e-07	-6.336657e-06	-5.018200e-09	-4.543260e+01	-3.282463e+02
7.700000e-07	-6.296201e-06	-4.986592e-09	-4.514254e+01	-3.274118e+02
7.800000e-07	-6.255306e-06	-4.954215e-09	-4.484933e+01	-3.264625e+02
7.900000e-07	-6.213797e-06	-4.951859e-09	-4.455172e+01	-3.254044e+02
8.000000e-07	-6.171561e-06	-4.960866e-09	-4.424889e+01	-3.242461e+02
8.100000e-07	-6.128716e-06	-4.945414e-09	-4.394170e+01	-3.229991e+02
8.200000e-07	-6.085270e-06	-4.911516e-09	-4.363021e+01	-3.216770e+02
8.300000e-07	-6.041344e-06	-4.887002e-09	-4.331526e+01	-3.202950e+02
8.400000e-07	-5.997161e-06	-4.890377e-09	-4.299848e+01	-3.188693e+02
8.500000e-07	-5.952655e-06	-4.886643e-09	-4.267938e+01	-3.174168e+02
8.600000e-07	-5.907750e-06	-4.862259e-09	-4.235742e+01	-3.159540e+02
8.700000e-07	-5.862372e-06	-4.829584e-09	-4.203207e+01	-3.144971e+02
8.800000e-07	-5.816582e-06	-4.818507e-09	-4.170376e+01	-3.130607e+02
8.900000e-07	-5.770365e-06	-4.807830e-09	-4.137240e+01	-3.116582e+02
9.000000e-07	-5.723770e-06	-4.792098e-09	-4.103832e+01	-3.103007e+02
9.100000e-07	-5.676793e-06	-4.766061e-09	-4.070150e+01	-3.089969e+02
9.200000e-07	-5.629435e-06	-4.746214e-09	-4.036196e+01	-3.077532e+02
9.300000e-07	-5.581767e-06	-4.723309e-09	-4.002018e+01	-3.065729e+02
9.400000e-07	-5.533666e-06	-4.708541e-09	-3.967531e+01	-3.054568e+02
9.500000e-07	-5.485163e-06	-4.693509e-09	-3.932755e+01	-3.044028e+02
9.600000e-07	-5.436173e-06	-4.678941e-09	-3.897631e+01	-3.034063e+02
9.700000e-07	-5.386490e-06	-4.651429e-09	-3.862009e+01	-3.024604e+02
9.800000e-07	-5.336159e-06	-4.625103e-09	-3.825922e+01	-3.015559e+02
9.900000e-07	-5.285250e-06	-4.608855e-09	-3.789421e+01	-3.006820e+02
1.000000e-06	-5.233921e-06	-4.601316e-09	-3.752619e+01	-2.998266e+02
1.010000e-06	-5.182237e-06	-4.576060e-09	-3.715563e+01	-2.989766e+02
1.020000e-06	-5.130106e-06	-4.541030e-09	-3.678187e+01	-2.981186e+02
1.030000e-06	-5.077644e-06	-4.515789e-09	-3.640572e+01	-2.972392e+02
1.040000e-06	-5.024810e-06	-4.509428e-09	-3.602691e+01	-2.963254e+02
1.050000e-06	-4.971623e-06	-4.497947e-09	-3.564557e+01	-2.953651e+02
1.060000e-06	-4.918099e-06	-4.468222e-09	-3.526182e+01	-2.943477e+02
1.070000e-06	-4.864221e-06	-4.435629e-09	-3.487552e+01	-2.932640e+02
1.080000e-06	-4.810096e-06	-4.420660e-09	-3.448745e+01	-2.921069e+02
1.090000e-06	-4.755571e-06	-4.413751e-09	-3.409652e+01	-2.908711e+02
1.100000e-06	-4.700589e-06	-4.386191e-09	-3.370231e+01	-2.895538e+02
1.110000e-06	-4.645376e-06	-4.349469e-09	-3.330644e+01	-2.881543e+02
1.120000e-06	-4.589948e-06	-4.324971e-09	-3.290903e+01	-2.866743e+02
1.130000e-06	-4.534237e-06	-4.315492e-09	-3.250960e+01	-2.851175e+02
1.140000e-06	-4.478243e-06	-4.297990e-09	-3.210813e+01	-2.834896e+02
1.150000e-06	-4.421926e-06	-4.266346e-09	-3.170435e+01	-2.817980e+02
1.160000e-06	-4.365468e-06	-4.233707e-09	-3.129956e+01	-2.800515e+02
1.170000e-06	-4.308812e-06	-4.212654e-09	-3.089334e+01	-2.782601e+02
1.180000e-06	-4.251677e-06	-4.191721e-09	-3.048370e+01	-2.764345e+02
1.190000e-06	-4.194084e-06	-4.163235e-09	-3.007077e+01	-2.745856e+02
1.200000e-06	-4.136030e-06	-4.126731e-09	-2.965453e+01	-2.727243e+02
1.210000e-06	-4.077506e-06	-4.101082e-09	-2.923493e+01	-2.708612e+02
1.220000e-06	-4.018609e-06	-4.079477e-09	-2.881265e+01	-2.690059e+02
1.230000e-06	-3.959385e-06	-4.053699e-09	-2.838803e+01	-2.671671e+02
1.240000e-06	-3.899832e-06	-4.023744e-09	-2.796104e+01	-2.653518e+02
1.250000e-06	-3.840035e-06	-3.996972e-09	-2.753231e+01	-2.635655e+02
1.260000e-06	-3.779962e-06	-3.970391e-09	-2.710160e+01	-2.618119e+02
1.270000e-06	-3.719651e-06	-3.945206e-09	-2.666917e+01	-2.600927e+02
1.280000e-06	-3.659299e-06	-3.922772e-09	-2.623646e+01	-2.584078e+02
1.290000e-06	-3.598805e-06	-3.898207e-09	-2.580273e+01	-2.567548e+02
1.300000e-06	-3.538001e-06	-3.869448e-09	-2.536678e+01	-2.551298e+02
1.310000e-06	-3.476995e-06	-3.837333e-09	-2.492938e+01	-2.535270e+02
1.320000e-06	-3.415739e-06	-3.809793e-09	-2.449019e+01	-2.519392e+02
1.330000e-06	-3.354201e-06	-3.786447e-09	-2.404897e+01	-2.503580e+02
1.340000e-06	-3.292502e-06	-3.760990e-09	-2.360660e+01	-2.487738e+02
1.350000e-06	-3.230490e-06	-3.730708e-09	-2.316199e+01	-2.471766e+02
1.360000e-06	-3.168175e-06	-3.699890e-09	-2.271520e+01	-2.455563e+02
1.370000e-06	-3.105647e-06	-3.674448e-09	-2.226688e+01	-2.439026e+02
1.380000e-06	-3.042887e-06	-3.653485e-09	-2.181691e+01	-2.422057e+02
1.390000e-06	-2.979972e-06	-3.623851e-09	-2.136582e+01	-2.404566e+02
1.400000e-06	-2.916897e-06	-3.583875e-09	-2.091359e+01	-2.386471e+02
1.410000e-06	-2.853667e-06	-3.548255e-09	-2.046024e+01	-2.367707e+02
1.420000e-06	-2.790321e-06	-3.521727e-09	-2.000606e+01	-2.348220e+02
1.430000e-06	-2.726870e-06	-3.491600e-09	-1.955113e+01	-2.327975e+02
1.440000e-06	-2.663274e-06	-3.454510e-09	-1.909516e+01	-2.306953e+02
1.450000e-06	-2.599427e-06	-3.419392e-09	-1.863739e+01	-2.285152e+02
1.460000e-06	-2.535458e-06	-3.389989e-09	-1.817874e+01	-2.262591e+02
1.470000e-06	-2.471435e-06	-3.360255e-09	-1.771971e+01	-2.239300e+02
1.480000e-06	-2.407210e-06	-3.326088e-09	-1.725923e+01	-2.215330e+02
1.490000e-06	-2.342722e-06	-3.291658e-09	-1.679687e+01	-2.190741e+02
1.500000e-06	-2.277953e-06	-3.254811e-09	-1.633248e+01	-2.165606e+02
1.510000e-06	-2.213050e-06	-3.217861e-09	-1.586714e+01	-2.140005e+02
1.520000e-06	-2.148047e-06	-3.180849e-09	-1.540108e+01	-2.114024e+02
1.530000e-06	-2.082710e-06	-3.145954e-09	-1.493263e+01	-2.087750e+02
1.540000e-06	-2.017178e-06	-3.111533e-09	-1.446277e+01	-2.061270e+02
1.550000e-06	-1.951487e-06	-3.072135e-09	-1.399178e+01	-2.034666e+02
1.560000e-06	-1.885559e-06	-3.035032e-09	-1.351909e+01	-2.008013e+02
1.570000e-06	-1.819548e-06	-3.002395e-09	-1.304580e+01	-1.981377e+02
1.580000e-06	-1.753522e-06	-2.972739e-09	-1.257242e+01	-1.954810e+02
1.590000e-06	-1.687362e-06	-2.936737e-09	-1.209806e+01	-1.928352e+02
1.600000e-06	-1.620977e-06	-2.895415e-09	-1.162209e+01	-1.902027e+02
1.610000e-06	-1.554488e-06	-2.852188e-09	-1.114538e+01	-1.875842e+02
1.620000e-06	-1.487924e-06	-2.811782e-09	-1.066813e+01	-1.849789e+02
1.630000e-06	-1.421191e-06	-2.768236e-09	-1.018966e+01	-1.823843e+02
1.640000e-06	-1.354306e-06	-2.723083e-09	-9.710108e+00	-1.797963e+02
1.650000e-06	-1.287300e-06	-2.681489e-09	-9.229688e+00	-1.772097e+02
1.660000e-06	-1.220123e-06	-2.639941e-09	-8.748043e+00	-1.746178e+02
1.670000e-06	-1.152951e-06	-2.597293e-09	-8.266436e+00	-1.720131e+02
1.680000e-06	-1.085794e-06	-2.550715e-09	-7.784931e+00	-1.693872e+02
1.690000e-06	-1.018527e-06	-2.501880e-09	-7.302640e+00	-1.667316e+02
1.700000e-06	-9.511781e-07	-2.453310e-09	-6.819762e+00	-1.640373e+02
1.710000e-06	-8.837824e-07	-2.409235e-09	-6.336548e+00	-1.612956e+02
1.720000e-06	-8.162721e-07	-2.363767e-09	-5.852512e+00	-1.584983e+02
1.730000e-06	-7.486532e-07	-2.315057e-09	-5.367698e+00	-1.556378e+02
1.740000e-06	-6.810497e-07	-2.266503e-09	-4.882994e+00	-1.527076e+02
1.750000e-06	-6.134745e-07	-2.222669e-09	-4.398493e+00	-1.497023e+02
1.760000e-06	-5.457784e-07	-2.180408e-09	-3.913125e+00	-1.466177e+02
1.770000e-06	-4.779132e-07	-2.135429e-09	-3.426545e+00	-1.434513e+02
1.780000e-06	-4.100157e-07	-2.085435e-09	-2.939733e+00	-1.402020e+02
1.790000e-06	-3.421985e-07	-2.034385e-09	-2.453497e+00	-1.368703e+02
1.800000e-06	-2.744177e-07	-1.983418e-09	-1.967522e+00	-1.334581e+02
1.810000e-06	-2.066053e-07	-1.931380e-09	-1.481320e+00	-1.299689e+02
1.820000e-06	-1.387469e-07	-1.878825e-09	-9.947881e-01	-1.264073e+02
1.830000e-06	-7.090266e-08	-1.827021e-09	-5.083583e-01	-1.227791e+02
1.840000e-06	-3.077518e-09	-1.775426e-09	-2.206521e-02	-1.190909e+02
1.850000e-06	6.482322e-08	-1.724066e-09	4.647699e-01	-1.153500e+02
1.860000e-06	1.326919e-07	-1.673020e-09	9.513755e-01	-1.115640e+02
1.870000e-06	2.004512e-07	-1.622282e-09	1.437196e+00	-1.077406e+02
1.880000e-06	2.681131e-07	-1.571292e-09	1.922319e+00	-1.038873e+02
1.890000e-06	3.357196e-07	-1.516210e-09	2.407044e+00	-1.000110e+02
1.900000e-06	4.033819e-07	-1.460177e-09	2.892170e+00	-9.611806e+01
1.910000e-06	4.710816e-07	-1.406180e-09	3.377564e+00	-9.221372e+01
1.920000e-06	5.387741e-07	-1.350705e-09	3.862906e+00	-8.830211e+01
1.930000e-06	6.064518e-07	-1.288680e-09	4.348142e+00	-8.438606e+01
1.940000e-06	6.741035e-07	-1.227982e-09	4.833191e+00	-8.046698e+01
1.950000e-06	7.417126e-07	-1.173333e-09	5.317935e+00	-7.654482e+01
1.960000e-06	8.093069e-07	-1.118048e-09	5.802573e+00	-7.261812e+01
1.970000e-06	8.768421e-07	-1.058825e-09	6.286788e+00	-6.868398e+01
1.980000e-06	9.442204e-07	-9.983105e-10	6.769877e+00	-6.473826e+01
1.990000e-06	1.011478e-06	-9.401178e-10	7.252102e+00	-6.077571e+01
2.000000e-06	1.078718e-06	-8.793552e-10	7.734196e+00	-5.679014e+01
2.010000e-06	1.145917e-06	-8.137639e-10	8.216005e+00	-5.277472e+01
2.020000e-06	1.213024e-06	-7.474272e-10	8.697150e+00	-4.872222e+01
2.030000e-06	1.280069e-06	-6.821396e-10	9.177846e+00	-4.462531e+01
2.040000e-06	1.347036e-06	-6.184582e-10	9.657988e+00	-4.047682e+01
2.050000e-06	1.413918e-06	-5.565322e-10	1.013752e+01	-3.627013e+01
2.060000e-06	1.480681e-06	-4.958450e-10	1.061619e+01	-3.199936e+01
2.070000e-06	1.547337e-06	-4.327134e-10	1.109411e+01	-2.765972e+01
2.080000e-06	1.613842e-06	-3.679341e-10	1.157093e+01	-2.324768e+01
2.090000e-06	1.680219e-06	-3.019921e-10	1.204684e+01	-1.876124e+01
2.100000e-06	1.746479e-06	-2.338823e-10	1.252191e+01	-1.420004e+01
2.110000e-06	1.812536e-06	-1.636071e-10	1.299553e+01	-9.565484e+00
2.120000e-06	1.878465e-06	-9.225136e-11	1.346823e+01	-4.860784e+00
2.130000e-06	1.944334e-06	-2.085231e-11	1.394050e+01	-9.096695e-02
2.140000e-06	2.009939e-06	5.051534e-11	1.441087e+01	4.737196e+00
2.150000e-06	2.075216e-06	1.196741e-10	1.487890e+01	9.615305e+00
2.160000e-06	2.140296e-06	1.857853e-10	1.534551e+01	1.453350e+01
2.170000e-06	2.205314e-06	2.566389e-10	1.581167e+01	1.948069e+01
2.180000e-06	2.270168e-06	3.320602e-10	1.627667e+01	2.444479e+01
2.190000e-06	2.334746e-06	4.047558e-10	1.673967e+01	2.941302e+01
2.200000e-06	2.399053e-06	4.730094e-10	1.720074e+01	3.437221e+01
2.210000e-06	2.463122e-06	5.440845e-10	1.766010e+01	3.930916e+01
2.220000e-06	2.527127e-06	6.231709e-10	1.811901e+01	4.421090e+01
2.230000e-06	2.590991e-06	6.988970e-10	1.857690e+01	4.906509e+01
2.240000e-06	2.654677e-06	7.650086e-10	1.903352e+01	5.386025e+01
2.250000e-06	2.718252e-06	8.286818e-10	1.948934e+01	5.858609e+01
2.260000e-06	2.781611e-06	8.948558e-10	1.994361e+01	6.323370e+01
2.270000e-06	2.844792e-06	9.620928e-10	2.039660e+01	6.779579e+01
2.280000e-06	2.907832e-06	1.026610e-09	2.084859e+01	7.226679e+01
2.290000e-06	2.970689e-06	1.089605e-09	2.129926e+01	7.664298e+01
2.300000e-06	3.033459e-06	1.153717e-09	2.174931e+01	8.092247e+01
2.310000e-06	3.096109e-06	1.218511e-09	2.219850e+01	8.510522e+01
2.320000e-06	3.158513e-06	1.283325e-09	2.264593e+01	8.919294e+01
2.330000e-06	3.220683e-06	1.345918e-09	2.309168e+01	9.318894e+01
2.340000e-06	3.282585e-06	1.404972e-09	2.353550e+01	9.709795e+01
2.350000e-06	3.344115e-06	1.462752e-09	2.397666e+01	1.009259e+02
2.360000e-06	3.405445e-06	1.521065e-09	2.441638e+01	1.046797e+02
2.370000e-06	3.466655e-06	1.578668e-09	2.485524e+01	1.083667e+02
2.380000e-06	3.527608e-06	1.631935e-09	2.529227e+01	1.119949e+02
2.390000e-06	3.588256e-06	1.683286e-09	2.572710e+01	1.155720e+02
2.400000e-06	3.648658e-06	1.738490e-09	2.616017e+01	1.191057e+02
2.410000e-06	3.708914e-06	1.794827e-09	2.659219e+01	1.226028e+02
2.420000e-06	3.768893e-06	1.850030e-09	2.702223e+01	1.260696e+02
2.430000e-06	3.828626e-06	1.905083e-09	2.745050e+01	1.295111e+02
2.440000e-06	3.888225e-06	1.957130e-09	2.787782e+01	1.329312e+02
2.450000e-06	3.947518e-06	2.006775e-09	2.830294e+01	1.363321e+02
2.460000e-06	4.006434e-06	2.059467e-09	2.872535e+01	1.397148e+02
2.470000e-06	4.065085e-06	2.110604e-09	2.914587e+01	1.430786e+02
2.480000e-06	4.123474e-06	2.154186e-09	2.956450e+01	1.464214e+02
2.490000e-06	4.181534e-06	2.193446e-09	2.998079e+01	1.497397e+02
2.500000e-06	4.239158e-06	2.236271e-09	3.039394e+01	1.530286e+02
2.510000e-06	4.296287e-06	2.285481e-09	3.080355e+01	1.562821e+02
2.520000e-06	4.352955e-06	2.332967e-09	3.120984e+01	1.594933e+02
2.530000e-06	4.409228e-06	2.375686e-09	3.161331e+01	1.626548e+02
2.540000e-06	4.465203e-06	2.419242e-09	3.201464e+01	1.657586e+02
2.550000e-06	4.520895e-06	2.466722e-09	3.241394e+01	1.687970e+02
2.560000e-06	4.576330e-06	2.510928e-09	3.281140e+01	1.717622e+02
2.570000e-06	4.631607e-06	2.548472e-09	3.320772e+01	1.746472e+02
2.580000e-06	4.686631e-06	2.583368e-09	3.360223e+01	1.774456e+02
2.590000e-06	4.741418e-06	2.618636e-09	3.399505e+01	1.801522e+02
2.600000e-06	4.795931e-06	2.655819e-09	3.438589e+01	1.827632e+02
2.610000e-06	4.849947e-06	2.692906e-09	3.477318e+01	1.852760e+02
2.620000e-06	4.903662e-06	2.730748e-09	3.515831e+01	1.876899e+02
2.630000e-06	4.957065e-06	2.768588e-09	3.554119e+01	1.900055e+02
2.640000e-06	5.010063e-06	2.806203e-09	3.592118e+01	1.922255e+02
2.650000e-06	5.062744e-06	2.843799e-09	3.629889e+01	1.943538e+02
2.660000e-06	5.114977e-06	2.876867e-09	3.667339e+01	1.963962e+02
2.670000e-06	5.166723e-06	2.906478e-09	3.704440e+01	1.983596e+02
2.680000e-06	5.218085e-06	2.937508e-09	3.741266e+01	2.002523e+02
2.690000e-06	5.268984e-06	2.968447e-09	3.777759e+01	2.020832e+02
2.700000e-06	5.319412e-06	2.997043e-09	3.813915e+01	2.038621e+02
2.710000e-06	5.369396e-06	3.028220e-09	3.849753e+01	2.055991e+02
2.720000e-06	5.418748e-06	3.064643e-09	3.885137e+01	2.073041e+02
2.730000e-06	5.467510e-06	3.099159e-09	3.920099e+01	2.089869e+02
2.740000e-06	5.515866e-06	3.129335e-09	3.954769e+01	2.106566e+02
2.750000e-06	5.563799e-06	3.158515e-09	3.989136e+01	2.123214e+02
2.760000e-06	5.611350e-06	3.186480e-09	4.023229e+01	2.139880e+02
2.770000e-06	5.658630e-06	3.210320e-09	4.057128e+01	2.156621e+02
2.780000e-06	5.705627e-06	3.231186e-09	4.090824e+01	2.173474e+02
2.790000e-06	5.752139e-06	3.253834e-09	4.124172e+01	2.190461e+02
2.800000e-06	5.798193e-06	3.282049e-09	4.157192e+01	2.207585e+02
2.810000e-06	5.843858e-06	3.307065e-09	4.189933e+01	2.224830e+02
2.820000e-06	5.889007e-06	3.327980e-09	4.222303e+01	2.242164e+02
2.830000e-06	5.933845e-06	3.352489e-09	4.254451e+01	2.259536e+02
2.840000e-06	5.978418e-06	3.380469e-09	4.286409e+01	2.276881e+02
2.850000e-06	6.022635e-06	3.405249e-09	4.318112e+01	2.294123e+02
2.860000e-06	6.066539e-06	3.427327e-09	4.349591e+01	2.311175e+02
2.870000e-06	6.110115e-06	3.450792e-09	4.380834e+01	2.327944e+02
2.880000e-06	6.153266e-06	3.473474e-09	4.411772e+01	2.344332e+02
2.890000e-06	6.195867e-06	3.493746e-09	4.442316e+01	2.360244e+02
2.900000e-06	6.237936e-06	3.514520e-09	4.472479e+01	2.375586e+02
