# Temperatura_=_20.0
# Concentracion g/m^3_=_12600.0
# C_Vs_to_Am_M_A/Vsm_=_65563218390.804596
# pendiente_HvsI_1/m_=_3716.3
# ordenada_HvsI_A/m_=_1297.0
# frecuencia_Hz_=_135501.16950891283

Tiempo_(s)	Campo_(V.s)	Magnetizacion_(V.s)	Campo_(kA/m)	Magnetizacion_(A/m)
0.000000e+00	-7.872270e-06	-3.956026e-09	-5.689519e+01	-2.638606e+02
1.000000e-08	-7.872235e-06	-3.950725e-09	-5.689493e+01	-2.628294e+02
2.000000e-08	-7.871670e-06	-3.942819e-09	-5.689085e+01	-2.617561e+02
3.000000e-08	-7.870522e-06	-3.932893e-09	-5.688256e+01	-2.606730e+02
4.000000e-08	-7.868514e-06	-3.929155e-09	-5.686804e+01	-2.596157e+02
5.000000e-08	-7.865682e-06	-3.932125e-09	-5.684757e+01	-2.586220e+02
6.000000e-08	-7.862325e-06	-3.934762e-09	-5.682331e+01	-2.577319e+02
7.000000e-08	-7.858572e-06	-3.943700e-09	-5.679619e+01	-2.569859e+02
8.000000e-08	-7.854408e-06	-3.996615e-09	-5.676609e+01	-2.564245e+02
9.000000e-08	-7.849619e-06	-4.026193e-09	-5.673148e+01	-2.560872e+02
1.000000e-07	-7.844040e-06	-3.952066e-09	-5.669116e+01	-2.560113e+02
1.100000e-07	-7.837603e-06	-3.855270e-09	-5.664463e+01	-2.562312e+02
1.200000e-07	-7.830455e-06	-3.928060e-09	-5.659297e+01	-2.567773e+02
1.300000e-07	-7.822917e-06	-4.167990e-09	-5.653850e+01	-2.576750e+02
1.400000e-07	-7.815150e-06	-4.264496e-09	-5.648236e+01	-2.589444e+02
1.500000e-07	-7.806963e-06	-3.855732e-09	-5.642319e+01	-2.605991e+02
1.600000e-07	-7.798397e-06	-3.650143e-09	-5.636128e+01	-2.626462e+02
1.700000e-07	-7.789331e-06	-4.034092e-09	-5.629576e+01	-2.650855e+02
1.800000e-07	-7.779438e-06	-4.186427e-09	-5.622426e+01	-2.679095e+02
1.900000e-07	-7.768733e-06	-3.965494e-09	-5.614689e+01	-2.711036e+02
2.000000e-07	-7.757363e-06	-3.791163e-09	-5.606472e+01	-2.746455e+02
2.100000e-07	-7.745426e-06	-3.711973e-09	-5.597845e+01	-2.785065e+02
2.200000e-07	-7.732886e-06	-3.895449e-09	-5.588782e+01	-2.826510e+02
2.300000e-07	-7.719764e-06	-4.302447e-09	-5.579298e+01	-2.870378e+02
2.400000e-07	-7.706132e-06	-4.305246e-09	-5.569446e+01	-2.916206e+02
2.500000e-07	-7.691768e-06	-3.931936e-09	-5.559064e+01	-2.963489e+02
2.600000e-07	-7.676477e-06	-4.193623e-09	-5.548013e+01	-3.011690e+02
2.700000e-07	-7.660488e-06	-4.961106e-09	-5.536458e+01	-3.060252e+02
2.800000e-07	-7.643919e-06	-4.957157e-09	-5.524483e+01	-3.108604e+02
2.900000e-07	-7.626799e-06	-4.574690e-09	-5.512109e+01	-3.156181e+02
3.000000e-07	-7.609207e-06	-4.872356e-09	-5.499395e+01	-3.202429e+02
3.100000e-07	-7.591225e-06	-5.283371e-09	-5.486399e+01	-3.246818e+02
3.200000e-07	-7.572690e-06	-5.191298e-09	-5.473003e+01	-3.288851e+02
3.300000e-07	-7.553524e-06	-5.042205e-09	-5.459152e+01	-3.328079e+02
3.400000e-07	-7.533923e-06	-5.106275e-09	-5.444986e+01	-3.364102e+02
3.500000e-07	-7.513927e-06	-5.072712e-09	-5.430534e+01	-3.396582e+02
3.600000e-07	-7.493543e-06	-5.156144e-09	-5.415801e+01	-3.425249e+02
3.700000e-07	-7.472715e-06	-5.458752e-09	-5.400749e+01	-3.449902e+02
3.800000e-07	-7.451421e-06	-5.354970e-09	-5.385359e+01	-3.470413e+02
3.900000e-07	-7.429559e-06	-5.028272e-09	-5.369559e+01	-3.486730e+02
4.000000e-07	-7.406986e-06	-5.040616e-09	-5.353244e+01	-3.498873e+02
4.100000e-07	-7.383925e-06	-5.339429e-09	-5.336577e+01	-3.506936e+02
4.200000e-07	-7.360459e-06	-5.419758e-09	-5.319618e+01	-3.511078e+02
4.300000e-07	-7.336548e-06	-5.178510e-09	-5.302337e+01	-3.511520e+02
4.400000e-07	-7.312167e-06	-4.984425e-09	-5.284715e+01	-3.508540e+02
4.500000e-07	-7.287125e-06	-5.154317e-09	-5.266617e+01	-3.502461e+02
4.600000e-07	-7.261334e-06	-5.340757e-09	-5.247977e+01	-3.493645e+02
4.700000e-07	-7.234810e-06	-5.239484e-09	-5.228808e+01	-3.482484e+02
4.800000e-07	-7.207740e-06	-5.107065e-09	-5.209243e+01	-3.469387e+02
4.900000e-07	-7.180273e-06	-5.093615e-09	-5.189392e+01	-3.454773e+02
5.000000e-07	-7.152329e-06	-5.095401e-09	-5.169196e+01	-3.439059e+02
5.100000e-07	-7.123922e-06	-5.167821e-09	-5.148665e+01	-3.422651e+02
5.200000e-07	-7.095108e-06	-5.218829e-09	-5.127841e+01	-3.405937e+02
5.300000e-07	-7.065839e-06	-5.080802e-09	-5.106688e+01	-3.389274e+02
5.400000e-07	-7.036068e-06	-4.974867e-09	-5.085171e+01	-3.372986e+02
5.500000e-07	-7.005727e-06	-5.060573e-09	-5.063243e+01	-3.357355e+02
5.600000e-07	-6.974893e-06	-5.158782e-09	-5.040958e+01	-3.342616e+02
5.700000e-07	-6.943641e-06	-5.123994e-09	-5.018372e+01	-3.328956e+02
5.800000e-07	-6.912017e-06	-5.028923e-09	-4.995516e+01	-3.316509e+02
5.900000e-07	-6.879925e-06	-4.977823e-09	-4.972322e+01	-3.305358e+02
6.000000e-07	-6.847386e-06	-5.014487e-09	-4.948805e+01	-3.295535e+02
6.100000e-07	-6.814417e-06	-5.062989e-09	-4.924978e+01	-3.287022e+02
6.200000e-07	-6.780865e-06	-5.063202e-09	-4.900728e+01	-3.279758e+02
6.300000e-07	-6.746634e-06	-5.003911e-09	-4.875989e+01	-3.273639e+02
6.400000e-07	-6.711699e-06	-4.922928e-09	-4.850740e+01	-3.268526e+02
6.500000e-07	-6.676192e-06	-4.910133e-09	-4.825078e+01	-3.264252e+02
6.600000e-07	-6.640239e-06	-5.008511e-09	-4.799094e+01	-3.260626e+02
6.700000e-07	-6.603862e-06	-5.043943e-09	-4.772803e+01	-3.257444e+02
6.800000e-07	-6.567081e-06	-4.916150e-09	-4.746221e+01	-3.254491e+02
6.900000e-07	-6.529915e-06	-4.803964e-09	-4.719360e+01	-3.251556e+02
7.000000e-07	-6.492201e-06	-4.858222e-09	-4.692103e+01	-3.248429e+02
7.100000e-07	-6.453990e-06	-4.958144e-09	-4.664487e+01	-3.244915e+02
7.200000e-07	-6.415450e-06	-4.934816e-09	-4.636632e+01	-3.240838e+02
7.300000e-07	-6.376605e-06	-4.806894e-09	-4.608558e+01	-3.236042e+02
7.400000e-07	-6.337428e-06	-4.742562e-09	-4.580244e+01	-3.230402e+02
7.500000e-07	-6.297828e-06	-4.818161e-09	-4.551623e+01	-3.223819e+02
7.600000e-07	-6.257633e-06	-4.901844e-09	-4.522573e+01	-3.216230e+02
7.700000e-07	-6.217054e-06	-4.849925e-09	-4.493246e+01	-3.207602e+02
7.800000e-07	-6.176075e-06	-4.727947e-09	-4.463629e+01	-3.197935e+02
7.900000e-07	-6.134431e-06	-4.696919e-09	-4.433531e+01	-3.187261e+02
8.000000e-07	-6.092235e-06	-4.765813e-09	-4.403036e+01	-3.175641e+02
8.100000e-07	-6.049380e-06	-4.804943e-09	-4.372063e+01	-3.163161e+02
8.200000e-07	-6.005956e-06	-4.740495e-09	-4.340679e+01	-3.149931e+02
8.300000e-07	-5.962216e-06	-4.644734e-09	-4.309067e+01	-3.136078e+02
8.400000e-07	-5.918038e-06	-4.625579e-09	-4.277139e+01	-3.121740e+02
8.500000e-07	-5.873404e-06	-4.689614e-09	-4.244880e+01	-3.107066e+02
8.600000e-07	-5.828509e-06	-4.721642e-09	-4.212433e+01	-3.092205e+02
8.700000e-07	-5.783144e-06	-4.651784e-09	-4.179646e+01	-3.077306e+02
8.800000e-07	-5.737332e-06	-4.557965e-09	-4.146537e+01	-3.062507e+02
8.900000e-07	-5.691294e-06	-4.554372e-09	-4.113264e+01	-3.047938e+02
9.000000e-07	-5.644826e-06	-4.613716e-09	-4.079680e+01	-3.033711e+02
9.100000e-07	-5.597991e-06	-4.615143e-09	-4.045831e+01	-3.019918e+02
9.200000e-07	-5.550805e-06	-4.528736e-09	-4.011728e+01	-3.006631e+02
9.300000e-07	-5.503176e-06	-4.463144e-09	-3.977305e+01	-2.993897e+02
9.400000e-07	-5.455108e-06	-4.489788e-09	-3.942565e+01	-2.981738e+02
9.500000e-07	-5.406585e-06	-4.541684e-09	-3.907496e+01	-2.970152e+02
9.600000e-07	-5.357573e-06	-4.516827e-09	-3.872074e+01	-2.959112e+02
9.700000e-07	-5.308022e-06	-4.432944e-09	-3.836262e+01	-2.948568e+02
9.800000e-07	-5.258029e-06	-4.392808e-09	-3.800131e+01	-2.938450e+02
9.900000e-07	-5.207560e-06	-4.419339e-09	-3.763655e+01	-2.928669e+02
1.000000e-06	-5.156426e-06	-4.434162e-09	-3.726699e+01	-2.919121e+02
1.010000e-06	-5.104786e-06	-4.387749e-09	-3.689377e+01	-2.909694e+02
1.020000e-06	-5.052779e-06	-4.321320e-09	-3.651791e+01	-2.900266e+02
1.030000e-06	-5.000463e-06	-4.301865e-09	-3.613980e+01	-2.890713e+02
1.040000e-06	-4.947930e-06	-4.324807e-09	-3.576013e+01	-2.880912e+02
1.050000e-06	-4.895093e-06	-4.325249e-09	-3.537826e+01	-2.870747e+02
1.060000e-06	-4.841770e-06	-4.281632e-09	-3.499288e+01	-2.860110e+02
1.070000e-06	-4.787978e-06	-4.235714e-09	-3.460411e+01	-2.848905e+02
1.080000e-06	-4.733827e-06	-4.224550e-09	-3.421275e+01	-2.837051e+02
1.090000e-06	-4.679354e-06	-4.226019e-09	-3.381905e+01	-2.824487e+02
1.100000e-06	-4.624598e-06	-4.204436e-09	-3.342332e+01	-2.811168e+02
1.110000e-06	-4.569630e-06	-4.164156e-09	-3.302605e+01	-2.797072e+02
1.120000e-06	-4.514343e-06	-4.129731e-09	-3.262647e+01	-2.782197e+02
1.130000e-06	-4.458755e-06	-4.111317e-09	-3.222472e+01	-2.766559e+02
1.140000e-06	-4.402987e-06	-4.100139e-09	-3.182167e+01	-2.750197e+02
1.150000e-06	-4.346858e-06	-4.081985e-09	-3.141601e+01	-2.733164e+02
1.160000e-06	-4.290456e-06	-4.047153e-09	-3.100837e+01	-2.715530e+02
1.170000e-06	-4.233796e-06	-4.002696e-09	-3.059887e+01	-2.697377e+02
1.180000e-06	-4.176749e-06	-3.975172e-09	-3.018658e+01	-2.678797e+02
1.190000e-06	-4.119405e-06	-3.965320e-09	-2.977214e+01	-2.659889e+02
1.200000e-06	-4.061748e-06	-3.946095e-09	-2.935543e+01	-2.640752e+02
1.210000e-06	-4.003699e-06	-3.904321e-09	-2.893590e+01	-2.621487e+02
1.220000e-06	-3.945281e-06	-3.860420e-09	-2.851369e+01	-2.602190e+02
1.230000e-06	-3.886413e-06	-3.841108e-09	-2.808823e+01	-2.582950e+02
1.240000e-06	-3.827076e-06	-3.832491e-09	-2.765939e+01	-2.563844e+02
1.250000e-06	-3.767450e-06	-3.806467e-09	-2.722845e+01	-2.544938e+02
1.260000e-06	-3.707575e-06	-3.766779e-09	-2.679572e+01	-2.526283e+02
1.270000e-06	-3.647505e-06	-3.735951e-09	-2.636158e+01	-2.507914e+02
1.280000e-06	-3.587330e-06	-3.722330e-09	-2.592668e+01	-2.489847e+02
1.290000e-06	-3.526965e-06	-3.704431e-09	-2.549040e+01	-2.472083e+02
1.300000e-06	-3.466452e-06	-3.665214e-09	-2.505306e+01	-2.454604e+02
1.310000e-06	-3.405805e-06	-3.619879e-09	-2.461475e+01	-2.437376e+02
1.320000e-06	-3.344897e-06	-3.592693e-09	-2.417455e+01	-2.420350e+02
1.330000e-06	-3.283719e-06	-3.577475e-09	-2.373239e+01	-2.403464e+02
1.340000e-06	-3.222305e-06	-3.549215e-09	-2.328853e+01	-2.386644e+02
1.350000e-06	-3.160622e-06	-3.508004e-09	-2.284273e+01	-2.369808e+02
1.360000e-06	-3.098689e-06	-3.476669e-09	-2.239513e+01	-2.352871e+02
1.370000e-06	-3.036537e-06	-3.459546e-09	-2.194594e+01	-2.335742e+02
1.380000e-06	-2.974204e-06	-3.438481e-09	-2.149544e+01	-2.318331e+02
1.390000e-06	-2.911655e-06	-3.403481e-09	-2.104338e+01	-2.300554e+02
1.400000e-06	-2.848905e-06	-3.365032e-09	-2.058987e+01	-2.282331e+02
1.410000e-06	-2.786168e-06	-3.334638e-09	-2.013644e+01	-2.263591e+02
1.420000e-06	-2.723357e-06	-3.307381e-09	-1.968249e+01	-2.244274e+02
1.430000e-06	-2.660182e-06	-3.275504e-09	-1.922591e+01	-2.224334e+02
1.440000e-06	-2.596752e-06	-3.239671e-09	-1.876748e+01	-2.203736e+02
1.450000e-06	-2.533246e-06	-3.206541e-09	-1.830850e+01	-2.182464e+02
1.460000e-06	-2.469568e-06	-3.176790e-09	-1.784829e+01	-2.160513e+02
1.470000e-06	-2.405634e-06	-3.146445e-09	-1.738622e+01	-2.137896e+02
1.480000e-06	-2.341562e-06	-3.115145e-09	-1.692315e+01	-2.114639e+02
1.490000e-06	-2.277335e-06	-3.078873e-09	-1.645896e+01	-2.090780e+02
1.500000e-06	-2.212863e-06	-3.040670e-09	-1.599300e+01	-2.066370e+02
1.510000e-06	-2.148187e-06	-2.999394e-09	-1.552557e+01	-2.041467e+02
1.520000e-06	-2.083416e-06	-2.964236e-09	-1.505746e+01	-2.016139e+02
1.530000e-06	-2.018622e-06	-2.938330e-09	-1.458917e+01	-1.990456e+02
1.540000e-06	-1.953747e-06	-2.904856e-09	-1.412030e+01	-1.964491e+02
1.550000e-06	-1.888759e-06	-2.866551e-09	-1.365061e+01	-1.938315e+02
1.560000e-06	-1.823535e-06	-2.832393e-09	-1.317922e+01	-1.911996e+02
1.570000e-06	-1.758183e-06	-2.801814e-09	-1.270690e+01	-1.885597e+02
1.580000e-06	-1.692803e-06	-2.766877e-09	-1.223438e+01	-1.859171e+02
1.590000e-06	-1.627238e-06	-2.725614e-09	-1.176052e+01	-1.832762e+02
1.600000e-06	-1.561505e-06	-2.682169e-09	-1.128545e+01	-1.806401e+02
1.610000e-06	-1.495629e-06	-2.643288e-09	-1.080935e+01	-1.780109e+02
1.620000e-06	-1.429550e-06	-2.602993e-09	-1.033177e+01	-1.753889e+02
1.630000e-06	-1.363415e-06	-2.559572e-09	-9.853795e+00	-1.727736e+02
1.640000e-06	-1.297193e-06	-2.514314e-09	-9.375190e+00	-1.701625e+02
1.650000e-06	-1.230625e-06	-2.473603e-09	-8.894086e+00	-1.675524e+02
1.660000e-06	-1.163941e-06	-2.437088e-09	-8.412140e+00	-1.649387e+02
1.670000e-06	-1.097252e-06	-2.399972e-09	-7.930163e+00	-1.623156e+02
1.680000e-06	-1.030490e-06	-2.356282e-09	-7.447648e+00	-1.596769e+02
1.690000e-06	-9.637771e-07	-2.305157e-09	-6.965498e+00	-1.570155e+02
1.700000e-06	-8.970239e-07	-2.258396e-09	-6.483053e+00	-1.543241e+02
1.710000e-06	-8.302038e-07	-2.217878e-09	-6.000124e+00	-1.515952e+02
1.720000e-06	-7.632236e-07	-2.178355e-09	-5.516039e+00	-1.488213e+02
1.730000e-06	-6.960751e-07	-2.132611e-09	-5.030737e+00	-1.459955e+02
1.740000e-06	-6.288839e-07	-2.085187e-09	-4.545127e+00	-1.431114e+02
1.750000e-06	-5.616105e-07	-2.042809e-09	-4.058922e+00	-1.401634e+02
1.760000e-06	-4.942115e-07	-2.001624e-09	-3.571811e+00	-1.371468e+02
1.770000e-06	-4.267106e-07	-1.957744e-09	-3.083961e+00	-1.340579e+02
1.780000e-06	-3.591904e-07	-1.908195e-09	-2.595973e+00	-1.308945e+02
1.790000e-06	-2.916005e-07	-1.856833e-09	-2.107482e+00	-1.276555e+02
1.800000e-06	-2.240035e-07	-1.809416e-09	-1.618939e+00	-1.243408e+02
1.810000e-06	-1.564943e-07	-1.762189e-09	-1.131030e+00	-1.209520e+02
1.820000e-06	-8.895616e-08	-1.714145e-09	-6.429121e-01	-1.174916e+02
1.830000e-06	-2.140979e-08	-1.662110e-09	-1.547347e-01	-1.139630e+02
1.840000e-06	4.603966e-08	-1.612010e-09	3.327420e-01	-1.103707e+02
1.850000e-06	1.134602e-07	-1.566807e-09	8.200097e-01	-1.067199e+02
1.860000e-06	1.808976e-07	-1.521721e-09	1.307400e+00	-1.030162e+02
1.870000e-06	2.483533e-07	-1.471721e-09	1.794922e+00	-9.926555e+01
1.880000e-06	3.157532e-07	-1.416450e-09	2.282040e+00	-9.547394e+01
1.890000e-06	3.830415e-07	-1.364481e-09	2.768352e+00	-9.164718e+01
1.900000e-06	4.503292e-07	-1.314318e-09	3.254660e+00	-8.779073e+01
1.910000e-06	5.177304e-07	-1.259934e-09	3.741788e+00	-8.390945e+01
1.920000e-06	5.850836e-07	-1.198508e-09	4.228570e+00	-8.000746e+01
1.930000e-06	6.522680e-07	-1.137212e-09	4.714131e+00	-7.608795e+01
1.940000e-06	7.194386e-07	-1.083901e-09	5.199592e+00	-7.215313e+01
1.950000e-06	7.864937e-07	-1.031968e-09	5.684219e+00	-6.820413e+01
1.960000e-06	8.534897e-07	-9.755510e-10	6.168419e+00	-6.424095e+01
1.970000e-06	9.204837e-07	-9.137093e-10	6.652603e+00	-6.026253e+01
1.980000e-06	9.873212e-07	-8.541455e-10	7.135658e+00	-5.626676e+01
1.990000e-06	1.054045e-06	-7.970064e-10	7.617889e+00	-5.225062e+01
2.000000e-06	1.120668e-06	-7.369761e-10	8.099391e+00	-4.821030e+01
2.010000e-06	1.187203e-06	-6.731038e-10	8.580260e+00	-4.414136e+01
2.020000e-06	1.253634e-06	-6.078289e-10	9.060375e+00	-4.003897e+01
2.030000e-06	1.319958e-06	-5.409711e-10	9.539723e+00	-3.589809e+01
2.040000e-06	1.386203e-06	-4.766953e-10	1.001849e+01	-3.171373e+01
2.050000e-06	1.452222e-06	-4.181666e-10	1.049563e+01	-2.748118e+01
2.060000e-06	1.518022e-06	-3.588621e-10	1.097119e+01	-2.319627e+01
2.070000e-06	1.583840e-06	-2.940322e-10	1.144688e+01	-1.885554e+01
2.080000e-06	1.649548e-06	-2.239309e-10	1.192177e+01	-1.445651e+01
2.090000e-06	1.715009e-06	-1.550193e-10	1.239487e+01	-9.997805e+00
2.100000e-06	1.780259e-06	-8.774769e-11	1.286645e+01	-5.479335e+00
2.110000e-06	1.845335e-06	-1.640064e-11	1.333677e+01	-9.023854e-01
2.120000e-06	1.910344e-06	5.596775e-11	1.380661e+01	3.730317e+00
2.130000e-06	1.975232e-06	1.240088e-10	1.427557e+01	8.414587e+00
2.140000e-06	2.039980e-06	1.878525e-10	1.474353e+01	1.314481e+01
2.150000e-06	2.104556e-06	2.497892e-10	1.521024e+01	1.791400e+01
2.160000e-06	2.168949e-06	3.138144e-10	1.567562e+01	2.271398e+01
2.170000e-06	2.233286e-06	3.840580e-10	1.614061e+01	2.753544e+01
2.180000e-06	2.297513e-06	4.575473e-10	1.660479e+01	3.236823e+01
2.190000e-06	2.361521e-06	5.284116e-10	1.706740e+01	3.720154e+01
2.200000e-06	2.425315e-06	6.005047e-10	1.752846e+01	4.202416e+01
2.210000e-06	2.489001e-06	6.719461e-10	1.798873e+01	4.682473e+01
2.220000e-06	2.552570e-06	7.443764e-10	1.844817e+01	5.159204e+01
2.230000e-06	2.615891e-06	8.112202e-10	1.890581e+01	5.631528e+01
2.240000e-06	2.678990e-06	8.732001e-10	1.936184e+01	6.098428e+01
2.250000e-06	2.741902e-06	9.349796e-10	1.981652e+01	6.558979e+01
2.260000e-06	2.804591e-06	9.934051e-10	2.026959e+01	7.012367e+01
2.270000e-06	2.867123e-06	1.052536e-09	2.072153e+01	7.457905e+01
2.280000e-06	2.929603e-06	1.114336e-09	2.117310e+01	7.895052e+01
2.290000e-06	2.991913e-06	1.178924e-09	2.162343e+01	8.323416e+01
2.300000e-06	3.053994e-06	1.239639e-09	2.207211e+01	8.742764e+01
2.310000e-06	3.115928e-06	1.301977e-09	2.251972e+01	9.153019e+01
2.320000e-06	3.177677e-06	1.363648e-09	2.296599e+01	9.554257e+01
2.330000e-06	3.239223e-06	1.422505e-09	2.341081e+01	9.946695e+01
2.340000e-06	3.300477e-06	1.473459e-09	2.385351e+01	1.033068e+02
2.350000e-06	3.361460e-06	1.520704e-09	2.429425e+01	1.070667e+02
2.360000e-06	3.422239e-06	1.573353e-09	2.473352e+01	1.107521e+02
2.370000e-06	3.482778e-06	1.626073e-09	2.517105e+01	1.143692e+02
2.380000e-06	3.543127e-06	1.677925e-09	2.560721e+01	1.179245e+02
2.390000e-06	3.603309e-06	1.732436e-09	2.604216e+01	1.214246e+02
2.400000e-06	3.663343e-06	1.790379e-09	2.647604e+01	1.248762e+02
2.410000e-06	3.723179e-06	1.845903e-09	2.690850e+01	1.282855e+02
2.420000e-06	3.782842e-06	1.897991e-09	2.733970e+01	1.316580e+02
2.430000e-06	3.842261e-06	1.950073e-09	2.776914e+01	1.349985e+02
2.440000e-06	3.901307e-06	1.998814e-09	2.819588e+01	1.383108e+02
2.450000e-06	3.959993e-06	2.043049e-09	2.862002e+01	1.415975e+02
2.460000e-06	4.018284e-06	2.086004e-09	2.904131e+01	1.448600e+02
2.470000e-06	4.076145e-06	2.127426e-09	2.945949e+01	1.480984e+02
2.480000e-06	4.133604e-06	2.170656e-09	2.987476e+01	1.513115e+02
2.490000e-06	4.190675e-06	2.212743e-09	3.028723e+01	1.544968e+02
2.500000e-06	4.247360e-06	2.258866e-09	3.069691e+01	1.576506e+02
2.510000e-06	4.303740e-06	2.305265e-09	3.110438e+01	1.607684e+02
2.520000e-06	4.359776e-06	2.349147e-09	3.150937e+01	1.638447e+02
2.530000e-06	4.415490e-06	2.393620e-09	3.191203e+01	1.668732e+02
2.540000e-06	4.470943e-06	2.438393e-09	3.231280e+01	1.698473e+02
2.550000e-06	4.526063e-06	2.475328e-09	3.271117e+01	1.727604e+02
2.560000e-06	4.580961e-06	2.506844e-09	3.310794e+01	1.756057e+02
2.570000e-06	4.635680e-06	2.541331e-09	3.350341e+01	1.783768e+02
2.580000e-06	4.690096e-06	2.578795e-09	3.389669e+01	1.810681e+02
2.590000e-06	4.744306e-06	2.615439e-09	3.428848e+01	1.836746e+02
2.600000e-06	4.798239e-06	2.650923e-09	3.467827e+01	1.861923e+02
2.610000e-06	4.851621e-06	2.687664e-09	3.506408e+01	1.886185e+02
2.620000e-06	4.904550e-06	2.727281e-09	3.544661e+01	1.909519e+02
2.630000e-06	4.957251e-06	2.765984e-09	3.582750e+01	1.931925e+02
2.640000e-06	5.009692e-06	2.798129e-09	3.620650e+01	1.953416e+02
2.650000e-06	5.061678e-06	2.827628e-09	3.658222e+01	1.974023e+02
2.660000e-06	5.113162e-06	2.855891e-09	3.695431e+01	1.993787e+02
2.670000e-06	5.164155e-06	2.883631e-09	3.732285e+01	2.012765e+02
2.680000e-06	5.214659e-06	2.911835e-09	3.768786e+01	2.031023e+02
2.690000e-06	5.264600e-06	2.939982e-09	3.804880e+01	2.048636e+02
2.700000e-06	5.314022e-06	2.968392e-09	3.840598e+01	2.065688e+02
2.710000e-06	5.363061e-06	3.003573e-09	3.876040e+01	2.082266e+02
2.720000e-06	5.411581e-06	3.038075e-09	3.911107e+01	2.098458e+02
2.730000e-06	5.459700e-06	3.066644e-09	3.945884e+01	2.114353e+02
2.740000e-06	5.507426e-06	3.092535e-09	3.980377e+01	2.130034e+02
2.750000e-06	5.554718e-06	3.118608e-09	4.014556e+01	2.145579e+02
2.760000e-06	5.601687e-06	3.140207e-09	4.048502e+01	2.161057e+02
2.770000e-06	5.648323e-06	3.157557e-09	4.082208e+01	2.176524e+02
2.780000e-06	5.694567e-06	3.177343e-09	4.115629e+01	2.192025e+02
2.790000e-06	5.740365e-06	3.201406e-09	4.148729e+01	2.207588e+02
2.800000e-06	5.785758e-06	3.224305e-09	4.181536e+01	2.223229e+02
2.810000e-06	5.830721e-06	3.246999e-09	4.214031e+01	2.238945e+02
2.820000e-06	5.875352e-06	3.271141e-09	4.246288e+01	2.254719e+02
2.830000e-06	5.919652e-06	3.297545e-09	4.278304e+01	2.270518e+02
2.840000e-06	5.963558e-06	3.321655e-09	4.310037e+01	2.286296e+02
2.850000e-06	6.007163e-06	3.340852e-09	4.341551e+01	2.301995e+02
2.860000e-06	6.050490e-06	3.358293e-09	4.372865e+01	2.317546e+02
2.870000e-06	6.093278e-06	3.374122e-09	4.403789e+01	2.332871e+02
2.880000e-06	6.135444e-06	3.391701e-09	4.434264e+01	2.347891e+02
2.890000e-06	6.177050e-06	3.412255e-09	4.464334e+01	2.362522e+02
2.900000e-06	6.218049e-06	3.435100e-09	4.493965e+01	2.376681e+02
