# Temperatura_=_20.0
# Concentracion g/m^3_=_12600.0
# C_Vs_to_Am_M_A/Vsm_=_65563218390.804596
# pendiente_HvsI_1/m_=_3716.3
# ordenada_HvsI_A/m_=_1297.0
# frecuencia_Hz_=_135500.67760156054

Tiempo_(s)	Campo_(V.s)	Magnetizacion_(V.s)	Campo_(kA/m)	Magnetizacion_(A/m)
0.000000e+00	-7.909172e-06	-4.497249e-09	-5.689927e+01	-2.979274e+02
1.000000e-08	-7.909279e-06	-4.488600e-09	-5.690004e+01	-2.973777e+02
2.000000e-08	-7.908956e-06	-4.487074e-09	-5.689771e+01	-2.967905e+02
3.000000e-08	-7.908009e-06	-4.487690e-09	-5.689090e+01	-2.961788e+02
4.000000e-08	-7.906192e-06	-4.489319e-09	-5.687783e+01	-2.955570e+02
5.000000e-08	-7.903462e-06	-4.491002e-09	-5.685819e+01	-2.949410e+02
6.000000e-08	-7.900239e-06	-4.492319e-09	-5.683500e+01	-2.943474e+02
7.000000e-08	-7.896663e-06	-4.495840e-09	-5.680927e+01	-2.937936e+02
8.000000e-08	-7.892539e-06	-4.498635e-09	-5.677961e+01	-2.932972e+02
9.000000e-08	-7.887884e-06	-4.518588e-09	-5.674612e+01	-2.928753e+02
1.000000e-07	-7.882430e-06	-4.524335e-09	-5.670688e+01	-2.925448e+02
1.100000e-07	-7.876005e-06	-4.490058e-09	-5.666066e+01	-2.923213e+02
1.200000e-07	-7.868848e-06	-4.467763e-09	-5.660917e+01	-2.922189e+02
1.300000e-07	-7.861310e-06	-4.459755e-09	-5.655494e+01	-2.922501e+02
1.400000e-07	-7.853584e-06	-4.588953e-09	-5.649936e+01	-2.924250e+02
1.500000e-07	-7.845581e-06	-4.628469e-09	-5.644179e+01	-2.927514e+02
1.600000e-07	-7.837210e-06	-4.416329e-09	-5.638157e+01	-2.932341e+02
1.700000e-07	-7.828324e-06	-4.401314e-09	-5.631764e+01	-2.938754e+02
1.800000e-07	-7.818596e-06	-4.570505e-09	-5.624765e+01	-2.946741e+02
1.900000e-07	-7.807850e-06	-4.583925e-09	-5.617035e+01	-2.956263e+02
2.000000e-07	-7.796439e-06	-4.563624e-09	-5.608826e+01	-2.967248e+02
2.100000e-07	-7.784743e-06	-4.516243e-09	-5.600411e+01	-2.979594e+02
2.200000e-07	-7.772275e-06	-4.453615e-09	-5.591442e+01	-2.993173e+02
2.300000e-07	-7.758873e-06	-4.438055e-09	-5.581800e+01	-3.007828e+02
2.400000e-07	-7.745187e-06	-4.600596e-09	-5.571955e+01	-3.023382e+02
2.500000e-07	-7.731187e-06	-4.638826e-09	-5.561883e+01	-3.039635e+02
2.600000e-07	-7.716244e-06	-4.540812e-09	-5.551132e+01	-3.056375e+02
2.700000e-07	-7.700312e-06	-4.630299e-09	-5.539671e+01	-3.073377e+02
2.800000e-07	-7.683667e-06	-4.816407e-09	-5.527696e+01	-3.090408e+02
2.900000e-07	-7.666512e-06	-4.794706e-09	-5.515355e+01	-3.107235e+02
3.000000e-07	-7.649014e-06	-4.783914e-09	-5.502767e+01	-3.123628e+02
3.100000e-07	-7.631058e-06	-4.931722e-09	-5.489849e+01	-3.139362e+02
3.200000e-07	-7.612517e-06	-4.951757e-09	-5.476510e+01	-3.154227e+02
3.300000e-07	-7.593363e-06	-4.786802e-09	-5.462731e+01	-3.168027e+02
3.400000e-07	-7.573755e-06	-4.848632e-09	-5.448625e+01	-3.180588e+02
3.500000e-07	-7.553835e-06	-5.008984e-09	-5.434294e+01	-3.191759e+02
3.600000e-07	-7.533559e-06	-4.831357e-09	-5.419708e+01	-3.201414e+02
3.700000e-07	-7.512748e-06	-4.753987e-09	-5.404736e+01	-3.209456e+02
3.800000e-07	-7.491375e-06	-4.878651e-09	-5.389360e+01	-3.215818e+02
3.900000e-07	-7.469441e-06	-4.910966e-09	-5.373580e+01	-3.220465e+02
4.000000e-07	-7.446909e-06	-4.826080e-09	-5.357371e+01	-3.223389e+02
4.100000e-07	-7.423837e-06	-4.792347e-09	-5.340773e+01	-3.224615e+02
4.200000e-07	-7.400301e-06	-4.760075e-09	-5.323841e+01	-3.224194e+02
4.300000e-07	-7.376460e-06	-4.821756e-09	-5.306689e+01	-3.222205e+02
4.400000e-07	-7.352145e-06	-4.861642e-09	-5.289197e+01	-3.218751e+02
4.500000e-07	-7.327061e-06	-4.819249e-09	-5.271151e+01	-3.213955e+02
4.600000e-07	-7.301217e-06	-4.761287e-09	-5.252558e+01	-3.207956e+02
4.700000e-07	-7.274765e-06	-4.752280e-09	-5.233529e+01	-3.200908e+02
4.800000e-07	-7.247735e-06	-4.773627e-09	-5.214084e+01	-3.192974e+02
4.900000e-07	-7.220195e-06	-4.841521e-09	-5.194271e+01	-3.184320e+02
5.000000e-07	-7.192276e-06	-4.790692e-09	-5.174186e+01	-3.175117e+02
5.100000e-07	-7.163922e-06	-4.661800e-09	-5.153787e+01	-3.165529e+02
5.200000e-07	-7.135146e-06	-4.678725e-09	-5.133086e+01	-3.155715e+02
5.300000e-07	-7.105838e-06	-4.792863e-09	-5.112001e+01	-3.145823e+02
5.400000e-07	-7.075969e-06	-4.777405e-09	-5.090513e+01	-3.135987e+02
5.500000e-07	-7.045570e-06	-4.671904e-09	-5.068644e+01	-3.126326e+02
5.600000e-07	-7.014707e-06	-4.629728e-09	-5.046441e+01	-3.116939e+02
5.700000e-07	-6.983433e-06	-4.690783e-09	-5.023942e+01	-3.107905e+02
5.800000e-07	-6.951824e-06	-4.739721e-09	-5.001203e+01	-3.099284e+02
5.900000e-07	-6.919824e-06	-4.697154e-09	-4.978181e+01	-3.091113e+02
6.000000e-07	-6.887251e-06	-4.626036e-09	-4.954748e+01	-3.083408e+02
6.100000e-07	-6.854026e-06	-4.600615e-09	-4.930846e+01	-3.076165e+02
6.200000e-07	-6.820116e-06	-4.637067e-09	-4.906451e+01	-3.069359e+02
6.300000e-07	-6.785582e-06	-4.665854e-09	-4.881606e+01	-3.062951e+02
6.400000e-07	-6.750474e-06	-4.640688e-09	-4.856349e+01	-3.056884e+02
6.500000e-07	-6.714914e-06	-4.566078e-09	-4.830767e+01	-3.051090e+02
6.600000e-07	-6.678948e-06	-4.551301e-09	-4.804893e+01	-3.045490e+02
6.700000e-07	-6.642532e-06	-4.607678e-09	-4.778695e+01	-3.039999e+02
6.800000e-07	-6.605633e-06	-4.629126e-09	-4.752149e+01	-3.034527e+02
6.900000e-07	-6.568365e-06	-4.552885e-09	-4.725339e+01	-3.028984e+02
7.000000e-07	-6.530619e-06	-4.494700e-09	-4.698184e+01	-3.023282e+02
7.100000e-07	-6.492254e-06	-4.510131e-09	-4.670583e+01	-3.017337e+02
7.200000e-07	-6.453435e-06	-4.551398e-09	-4.642657e+01	-3.011073e+02
7.300000e-07	-6.414300e-06	-4.528802e-09	-4.614503e+01	-3.004423e+02
7.400000e-07	-6.374871e-06	-4.469143e-09	-4.586138e+01	-2.997332e+02
7.500000e-07	-6.335117e-06	-4.439698e-09	-4.557538e+01	-2.989756e+02
7.600000e-07	-6.294964e-06	-4.473042e-09	-4.528651e+01	-2.981665e+02
7.700000e-07	-6.254387e-06	-4.488468e-09	-4.499460e+01	-2.973043e+02
7.800000e-07	-6.213333e-06	-4.449125e-09	-4.469926e+01	-2.963889e+02
7.900000e-07	-6.171594e-06	-4.400672e-09	-4.439898e+01	-2.954214e+02
8.000000e-07	-6.129073e-06	-4.395677e-09	-4.409308e+01	-2.944041e+02
8.100000e-07	-6.085913e-06	-4.405169e-09	-4.378258e+01	-2.933407e+02
8.200000e-07	-6.042382e-06	-4.391761e-09	-4.346942e+01	-2.922357e+02
8.300000e-07	-5.998532e-06	-4.358579e-09	-4.315396e+01	-2.910944e+02
8.400000e-07	-5.954342e-06	-4.333584e-09	-4.283605e+01	-2.899228e+02
8.500000e-07	-5.909808e-06	-4.330442e-09	-4.251567e+01	-2.887273e+02
8.600000e-07	-5.864780e-06	-4.333735e-09	-4.219173e+01	-2.875143e+02
8.700000e-07	-5.819374e-06	-4.317342e-09	-4.186508e+01	-2.862904e+02
8.800000e-07	-5.773551e-06	-4.281049e-09	-4.153542e+01	-2.850618e+02
8.900000e-07	-5.727289e-06	-4.253873e-09	-4.120261e+01	-2.838342e+02
9.000000e-07	-5.680717e-06	-4.243401e-09	-4.086757e+01	-2.826127e+02
9.100000e-07	-5.633757e-06	-4.233339e-09	-4.052973e+01	-2.814016e+02
9.200000e-07	-5.586419e-06	-4.208085e-09	-4.018918e+01	-2.802044e+02
9.300000e-07	-5.538693e-06	-4.184268e-09	-3.984584e+01	-2.790234e+02
9.400000e-07	-5.490550e-06	-4.164866e-09	-3.949949e+01	-2.778601e+02
9.500000e-07	-5.442008e-06	-4.153985e-09	-3.915028e+01	-2.767146e+02
9.600000e-07	-5.392943e-06	-4.143072e-09	-3.879730e+01	-2.755862e+02
9.700000e-07	-5.343263e-06	-4.126562e-09	-3.843989e+01	-2.744730e+02
9.800000e-07	-5.292997e-06	-4.097801e-09	-3.807828e+01	-2.733722e+02
9.900000e-07	-5.242089e-06	-4.071503e-09	-3.771204e+01	-2.722803e+02
1.000000e-06	-5.190776e-06	-4.054896e-09	-3.734289e+01	-2.711930e+02
1.010000e-06	-5.139137e-06	-4.045338e-09	-3.697140e+01	-2.701054e+02
1.020000e-06	-5.087020e-06	-4.023090e-09	-3.659646e+01	-2.690124e+02
1.030000e-06	-5.034516e-06	-3.990538e-09	-3.621874e+01	-2.679084e+02
1.040000e-06	-4.981639e-06	-3.966542e-09	-3.583834e+01	-2.667881e+02
1.050000e-06	-4.928461e-06	-3.960483e-09	-3.545577e+01	-2.656461e+02
1.060000e-06	-4.874899e-06	-3.948931e-09	-3.507044e+01	-2.644774e+02
1.070000e-06	-4.820958e-06	-3.922402e-09	-3.468239e+01	-2.632774e+02
1.080000e-06	-4.766696e-06	-3.889871e-09	-3.429203e+01	-2.620423e+02
1.090000e-06	-4.712040e-06	-3.871388e-09	-3.389882e+01	-2.607687e+02
1.100000e-06	-4.657077e-06	-3.858608e-09	-3.350342e+01	-2.594541e+02
1.110000e-06	-4.601863e-06	-3.835272e-09	-3.310620e+01	-2.580968e+02
1.120000e-06	-4.546376e-06	-3.802712e-09	-3.270702e+01	-2.566961e+02
1.130000e-06	-4.490593e-06	-3.776591e-09	-3.230572e+01	-2.552520e+02
1.140000e-06	-4.434607e-06	-3.761457e-09	-3.190294e+01	-2.537654e+02
1.150000e-06	-4.378419e-06	-3.744829e-09	-3.149872e+01	-2.522379e+02
1.160000e-06	-4.321895e-06	-3.719719e-09	-3.109209e+01	-2.506720e+02
1.170000e-06	-4.265063e-06	-3.688910e-09	-3.068323e+01	-2.490705e+02
1.180000e-06	-4.207942e-06	-3.662944e-09	-3.027230e+01	-2.474368e+02
1.190000e-06	-4.150406e-06	-3.643036e-09	-2.985838e+01	-2.457747e+02
1.200000e-06	-4.092442e-06	-3.621259e-09	-2.944138e+01	-2.440882e+02
1.210000e-06	-4.034096e-06	-3.590691e-09	-2.902164e+01	-2.423812e+02
1.220000e-06	-3.975393e-06	-3.560628e-09	-2.859932e+01	-2.406577e+02
1.230000e-06	-3.916236e-06	-3.533838e-09	-2.817374e+01	-2.389214e+02
1.240000e-06	-3.856804e-06	-3.510006e-09	-2.774618e+01	-2.371755e+02
1.250000e-06	-3.797169e-06	-3.485102e-09	-2.731716e+01	-2.354230e+02
1.260000e-06	-3.737250e-06	-3.463129e-09	-2.688610e+01	-2.336663e+02
1.270000e-06	-3.677109e-06	-3.440389e-09	-2.645344e+01	-2.319069e+02
1.280000e-06	-3.616678e-06	-3.415644e-09	-2.601870e+01	-2.301460e+02
1.290000e-06	-3.556025e-06	-3.391090e-09	-2.558235e+01	-2.283839e+02
1.300000e-06	-3.495244e-06	-3.367368e-09	-2.514509e+01	-2.266202e+02
1.310000e-06	-3.434286e-06	-3.337974e-09	-2.470655e+01	-2.248538e+02
1.320000e-06	-3.373079e-06	-3.303934e-09	-2.426622e+01	-2.230830e+02
1.330000e-06	-3.311630e-06	-3.275195e-09	-2.382416e+01	-2.213056e+02
1.340000e-06	-3.249899e-06	-3.253424e-09	-2.338006e+01	-2.195188e+02
1.350000e-06	-3.187922e-06	-3.229887e-09	-2.293419e+01	-2.177195e+02
1.360000e-06	-3.125711e-06	-3.201218e-09	-2.248664e+01	-2.159041e+02
1.370000e-06	-3.063241e-06	-3.173301e-09	-2.203722e+01	-2.140690e+02
1.380000e-06	-3.000584e-06	-3.150567e-09	-2.158646e+01	-2.122106e+02
1.390000e-06	-2.937827e-06	-3.125135e-09	-2.113498e+01	-2.103252e+02
1.400000e-06	-2.874947e-06	-3.091136e-09	-2.068262e+01	-2.084094e+02
1.410000e-06	-2.811835e-06	-3.051678e-09	-2.022858e+01	-2.064601e+02
1.420000e-06	-2.748565e-06	-3.015734e-09	-1.977341e+01	-2.044743e+02
1.430000e-06	-2.685129e-06	-2.988736e-09	-1.931705e+01	-2.024499e+02
1.440000e-06	-2.621477e-06	-2.963163e-09	-1.885913e+01	-2.003850e+02
1.450000e-06	-2.557750e-06	-2.931135e-09	-1.840067e+01	-1.982782e+02
1.460000e-06	-2.493903e-06	-2.897363e-09	-1.794135e+01	-1.961288e+02
1.470000e-06	-2.429811e-06	-2.867416e-09	-1.748027e+01	-1.939368e+02
1.480000e-06	-2.365507e-06	-2.841555e-09	-1.701766e+01	-1.917024e+02
1.490000e-06	-2.301020e-06	-2.810791e-09	-1.655373e+01	-1.894267e+02
1.500000e-06	-2.236371e-06	-2.774924e-09	-1.608864e+01	-1.871110e+02
1.510000e-06	-2.171572e-06	-2.736479e-09	-1.562248e+01	-1.847569e+02
1.520000e-06	-2.106605e-06	-2.701162e-09	-1.515510e+01	-1.823667e+02
1.530000e-06	-2.041423e-06	-2.671149e-09	-1.468618e+01	-1.799425e+02
1.540000e-06	-1.976147e-06	-2.637572e-09	-1.421657e+01	-1.774866e+02
1.550000e-06	-1.910682e-06	-2.603486e-09	-1.374561e+01	-1.750015e+02
1.560000e-06	-1.845055e-06	-2.569518e-09	-1.327349e+01	-1.724894e+02
1.570000e-06	-1.779356e-06	-2.538663e-09	-1.280084e+01	-1.699525e+02
1.580000e-06	-1.713499e-06	-2.504358e-09	-1.232706e+01	-1.673924e+02
1.590000e-06	-1.647508e-06	-2.465485e-09	-1.185231e+01	-1.648107e+02
1.600000e-06	-1.581457e-06	-2.421058e-09	-1.137714e+01	-1.622085e+02
1.610000e-06	-1.515271e-06	-2.373526e-09	-1.090099e+01	-1.595863e+02
1.620000e-06	-1.448903e-06	-2.329812e-09	-1.042353e+01	-1.569443e+02
1.630000e-06	-1.382370e-06	-2.289331e-09	-9.944887e+00	-1.542821e+02
1.640000e-06	-1.315675e-06	-2.252492e-09	-9.465079e+00	-1.515989e+02
1.650000e-06	-1.248869e-06	-2.211561e-09	-8.984468e+00	-1.488933e+02
1.660000e-06	-1.181945e-06	-2.167097e-09	-8.503016e+00	-1.461636e+02
1.670000e-06	-1.115032e-06	-2.126010e-09	-8.021634e+00	-1.434078e+02
1.680000e-06	-1.048009e-06	-2.086931e-09	-7.539467e+00	-1.406233e+02
1.690000e-06	-9.807631e-07	-2.042302e-09	-7.055694e+00	-1.378077e+02
1.700000e-06	-9.135075e-07	-1.988654e-09	-6.571852e+00	-1.349582e+02
1.710000e-06	-8.462680e-07	-1.935989e-09	-6.088125e+00	-1.320720e+02
1.720000e-06	-7.789501e-07	-1.891917e-09	-5.603834e+00	-1.291463e+02
1.730000e-06	-7.115997e-07	-1.849342e-09	-5.119310e+00	-1.261785e+02
1.740000e-06	-6.442058e-07	-1.803287e-09	-4.634472e+00	-1.231663e+02
1.750000e-06	-5.766911e-07	-1.756681e-09	-4.148765e+00	-1.201075e+02
1.760000e-06	-5.091537e-07	-1.713549e-09	-3.662896e+00	-1.170003e+02
1.770000e-06	-4.415737e-07	-1.671724e-09	-3.176720e+00	-1.138433e+02
1.780000e-06	-3.738877e-07	-1.626939e-09	-2.689780e+00	-1.106356e+02
1.790000e-06	-3.062178e-07	-1.578868e-09	-2.202957e+00	-1.073766e+02
1.800000e-06	-2.385502e-07	-1.526470e-09	-1.716151e+00	-1.040661e+02
1.810000e-06	-1.709280e-07	-1.473945e-09	-1.229671e+00	-1.007046e+02
1.820000e-06	-1.032875e-07	-1.425618e-09	-7.430595e-01	-9.729260e+01
1.830000e-06	-3.556075e-08	-1.376714e-09	-2.558271e-01	-9.383121e+01
1.840000e-06	3.213106e-08	-1.323917e-09	2.311536e-01	-9.032170e+01
1.850000e-06	9.972914e-08	-1.271392e-09	7.174600e-01	-8.676556e+01
1.860000e-06	1.672200e-07	-1.225448e-09	1.202995e+00	-8.316441e+01
1.870000e-06	2.348115e-07	-1.181926e-09	1.689254e+00	-7.951994e+01
1.880000e-06	3.025544e-07	-1.128501e-09	2.176602e+00	-7.583379e+01
1.890000e-06	3.701331e-07	-1.071251e-09	2.662770e+00	-7.210750e+01
1.900000e-06	4.376516e-07	-1.017114e-09	3.148503e+00	-6.834242e+01
1.910000e-06	5.052829e-07	-9.629142e-10	3.635049e+00	-6.453965e+01
1.920000e-06	5.729774e-07	-9.049162e-10	4.122049e+00	-6.070001e+01
1.930000e-06	6.405631e-07	-8.464717e-10	4.608266e+00	-5.682396e+01
1.940000e-06	7.079626e-07	-7.913313e-10	5.093144e+00	-5.291163e+01
1.950000e-06	7.752763e-07	-7.373163e-10	5.577404e+00	-4.896275e+01
1.960000e-06	8.425379e-07	-6.818756e-10	6.061290e+00	-4.497671e+01
1.970000e-06	9.097508e-07	-6.255057e-10	6.544826e+00	-4.095258e+01
1.980000e-06	9.768515e-07	-5.675340e-10	7.027554e+00	-3.688913e+01
1.990000e-06	1.043782e-06	-5.043064e-10	7.509061e+00	-3.278494e+01
2.000000e-06	1.110707e-06	-4.387471e-10	7.990524e+00	-2.863842e+01
2.010000e-06	1.177686e-06	-3.740580e-10	8.472377e+00	-2.444795e+01
2.020000e-06	1.244514e-06	-3.106401e-10	8.953138e+00	-2.021194e+01
2.030000e-06	1.311206e-06	-2.459947e-10	9.432930e+00	-1.592895e+01
2.040000e-06	1.377771e-06	-1.812824e-10	9.911802e+00	-1.159779e+01
2.050000e-06	1.444215e-06	-1.198754e-10	1.038981e+01	-7.217643e+00
2.060000e-06	1.510520e-06	-6.068588e-11	1.086681e+01	-2.788133e+00
2.070000e-06	1.576726e-06	4.958411e-13	1.134311e+01	1.690561e+00
2.080000e-06	1.642820e-06	6.652224e-11	1.181859e+01	6.217636e+00
2.090000e-06	1.708758e-06	1.364655e-10	1.229295e+01	1.079159e+01
2.100000e-06	1.774428e-06	2.070695e-10	1.276539e+01	1.541020e+01
2.110000e-06	1.839832e-06	2.771127e-10	1.323591e+01	2.007044e+01
2.120000e-06	1.905170e-06	3.491382e-10	1.370596e+01	2.476856e+01
2.130000e-06	1.970482e-06	4.217765e-10	1.417582e+01	2.950001e+01
2.140000e-06	2.035697e-06	4.898834e-10	1.464498e+01	3.425953e+01
2.150000e-06	2.100718e-06	5.542401e-10	1.511275e+01	3.904121e+01
2.160000e-06	2.165565e-06	6.205054e-10	1.557926e+01	4.383855e+01
2.170000e-06	2.230325e-06	6.922990e-10	1.604515e+01	4.864455e+01
2.180000e-06	2.294966e-06	7.669028e-10	1.651019e+01	5.345186e+01
2.190000e-06	2.359381e-06	8.384421e-10	1.697359e+01	5.825285e+01
2.200000e-06	2.423581e-06	9.097647e-10	1.743545e+01	6.303980e+01
2.210000e-06	2.487580e-06	9.833903e-10	1.789587e+01	6.780499e+01
2.220000e-06	2.551437e-06	1.058582e-09	1.835526e+01	7.254089e+01
2.230000e-06	2.615085e-06	1.130920e-09	1.881315e+01	7.724025e+01
2.240000e-06	2.678571e-06	1.200604e-09	1.926987e+01	8.189625e+01
2.250000e-06	2.741893e-06	1.268827e-09	1.972542e+01	8.650263e+01
2.260000e-06	2.805021e-06	1.331576e-09	2.017956e+01	9.105380e+01
2.270000e-06	2.867845e-06	1.391884e-09	2.063152e+01	9.554487e+01
2.280000e-06	2.930551e-06	1.454005e-09	2.108263e+01	9.997181e+01
2.290000e-06	2.993205e-06	1.516030e-09	2.153338e+01	1.043314e+02
2.300000e-06	3.055625e-06	1.577053e-09	2.198243e+01	1.086214e+02
2.310000e-06	3.117851e-06	1.639947e-09	2.243009e+01	1.128402e+02
2.320000e-06	3.179877e-06	1.705021e-09	2.287631e+01	1.169874e+02
2.330000e-06	3.241673e-06	1.767650e-09	2.332088e+01	1.210630e+02
2.340000e-06	3.303250e-06	1.825771e-09	2.376387e+01	1.250681e+02
2.350000e-06	3.364612e-06	1.882543e-09	2.420531e+01	1.290042e+02
2.360000e-06	3.425729e-06	1.939449e-09	2.464499e+01	1.328735e+02
2.370000e-06	3.486591e-06	1.995262e-09	2.508283e+01	1.366784e+02
2.380000e-06	3.547190e-06	2.048935e-09	2.551879e+01	1.404218e+02
2.390000e-06	3.607612e-06	2.103718e-09	2.595347e+01	1.441066e+02
2.400000e-06	3.667852e-06	2.160096e-09	2.638684e+01	1.477359e+02
2.410000e-06	3.727888e-06	2.216715e-09	2.681875e+01	1.513125e+02
2.420000e-06	3.787689e-06	2.272401e-09	2.724896e+01	1.548392e+02
2.430000e-06	3.847142e-06	2.326440e-09	2.767667e+01	1.583183e+02
2.440000e-06	3.906289e-06	2.376327e-09	2.810218e+01	1.617518e+02
2.450000e-06	3.965196e-06	2.424581e-09	2.852597e+01	1.651410e+02
2.460000e-06	4.023797e-06	2.472739e-09	2.894755e+01	1.684869e+02
2.470000e-06	4.082062e-06	2.518907e-09	2.936670e+01	1.717897e+02
2.480000e-06	4.139938e-06	2.561005e-09	2.978307e+01	1.750492e+02
2.490000e-06	4.197478e-06	2.601261e-09	3.019702e+01	1.782645e+02
2.500000e-06	4.254682e-06	2.645566e-09	3.060855e+01	1.814343e+02
2.510000e-06	4.311392e-06	2.693795e-09	3.101652e+01	1.845564e+02
2.520000e-06	4.367615e-06	2.740863e-09	3.142100e+01	1.876288e+02
2.530000e-06	4.423639e-06	2.785829e-09	3.182404e+01	1.906486e+02
2.540000e-06	4.479433e-06	2.831010e-09	3.222543e+01	1.936132e+02
2.550000e-06	4.534837e-06	2.870951e-09	3.262401e+01	1.965194e+02
2.560000e-06	4.590007e-06	2.908149e-09	3.302091e+01	1.993645e+02
2.570000e-06	4.645001e-06	2.946089e-09	3.341654e+01	2.021455e+02
2.580000e-06	4.699663e-06	2.983333e-09	3.380978e+01	2.048600e+02
2.590000e-06	4.754048e-06	3.017217e-09	3.420104e+01	2.075058e+02
2.600000e-06	4.808176e-06	3.051305e-09	3.459044e+01	2.100813e+02
2.610000e-06	4.861958e-06	3.090920e-09	3.497735e+01	2.125853e+02
2.620000e-06	4.915338e-06	3.131995e-09	3.536137e+01	2.150173e+02
2.630000e-06	4.968334e-06	3.169423e-09	3.574262e+01	2.173774e+02
2.640000e-06	5.020959e-06	3.204505e-09	3.612121e+01	2.196666e+02
2.650000e-06	5.073242e-06	3.238140e-09	3.649734e+01	2.218864e+02
2.660000e-06	5.125114e-06	3.268678e-09	3.687051e+01	2.240390e+02
2.670000e-06	5.176475e-06	3.298504e-09	3.724001e+01	2.261273e+02
2.680000e-06	5.227383e-06	3.327123e-09	3.760625e+01	2.281547e+02
2.690000e-06	5.277703e-06	3.352084e-09	3.796825e+01	2.301252e+02
2.700000e-06	5.327450e-06	3.378515e-09	3.832613e+01	2.320430e+02
2.710000e-06	5.376772e-06	3.413122e-09	3.868097e+01	2.339126e+02
2.720000e-06	5.425739e-06	3.448941e-09	3.903323e+01	2.357389e+02
2.730000e-06	5.474276e-06	3.477579e-09	3.938242e+01	2.375264e+02
2.740000e-06	5.522390e-06	3.504104e-09	3.972855e+01	2.392798e+02
2.750000e-06	5.570070e-06	3.534021e-09	4.007157e+01	2.410034e+02
2.760000e-06	5.617305e-06	3.561126e-09	4.041138e+01	2.427010e+02
2.770000e-06	5.664165e-06	3.580271e-09	4.074849e+01	2.443762e+02
2.780000e-06	5.710639e-06	3.598986e-09	4.108283e+01	2.460318e+02
2.790000e-06	5.756753e-06	3.625174e-09	4.141458e+01	2.476701e+02
2.800000e-06	5.802489e-06	3.654775e-09	4.174361e+01	2.492925e+02
2.810000e-06	5.847753e-06	3.680126e-09	4.206924e+01	2.508998e+02
2.820000e-06	5.892649e-06	3.701734e-09	4.239223e+01	2.524919e+02
2.830000e-06	5.937187e-06	3.728154e-09	4.271263e+01	2.540683e+02
2.840000e-06	5.981320e-06	3.757329e-09	4.303013e+01	2.556274e+02
2.850000e-06	6.025181e-06	3.783577e-09	4.334568e+01	2.571672e+02
2.860000e-06	6.068694e-06	3.806229e-09	4.365871e+01	2.586852e+02
2.870000e-06	6.111793e-06	3.824822e-09	4.396877e+01	2.601783e+02
2.880000e-06	6.154454e-06	3.841861e-09	4.427568e+01	2.616432e+02
2.890000e-06	6.196439e-06	3.862891e-09	4.457772e+01	2.630764e+02
2.900000e-06	6.237738e-06	3.886794e-09	4.487482e+01	2.644744e+02
