# Temperatura_=_20.0
# Concentracion g/m^3_=_12600.0
# C_Vs_to_Am_M_A/Vsm_=_65563218390.804596
# pendiente_HvsI_1/m_=_3716.3
# ordenada_HvsI_A/m_=_1297.0
# frecuencia_Hz_=_135500.84824264928

Tiempo_(s)	Campo_(V.s)	Magnetizacion_(V.s)	Campo_(kA/m)	Magnetizacion_(A/m)
0.000000e+00	-7.918153e-06	-4.511963e-09	-5.689169e+01	-2.879877e+02
1.000000e-08	-7.918369e-06	-4.503499e-09	-5.689324e+01	-2.872512e+02
2.000000e-08	-7.918193e-06	-4.498392e-09	-5.689198e+01	-2.864688e+02
3.000000e-08	-7.917484e-06	-4.495760e-09	-5.688689e+01	-2.856631e+02
4.000000e-08	-7.916046e-06	-4.492920e-09	-5.687656e+01	-2.848596e+02
5.000000e-08	-7.913646e-06	-4.492641e-09	-5.685931e+01	-2.840854e+02
6.000000e-08	-7.910495e-06	-4.493132e-09	-5.683667e+01	-2.833694e+02
7.000000e-08	-7.906935e-06	-4.494310e-09	-5.681109e+01	-2.827411e+02
8.000000e-08	-7.903023e-06	-4.491516e-09	-5.678298e+01	-2.822300e+02
9.000000e-08	-7.898692e-06	-4.514961e-09	-5.675187e+01	-2.818650e+02
1.000000e-07	-7.893679e-06	-4.548277e-09	-5.671585e+01	-2.816736e+02
1.100000e-07	-7.887778e-06	-4.559570e-09	-5.667345e+01	-2.816813e+02
1.200000e-07	-7.880938e-06	-4.553931e-09	-5.662431e+01	-2.819106e+02
1.300000e-07	-7.873463e-06	-4.502411e-09	-5.657060e+01	-2.823806e+02
1.400000e-07	-7.865807e-06	-4.565720e-09	-5.651559e+01	-2.831064e+02
1.500000e-07	-7.857922e-06	-4.621225e-09	-5.645893e+01	-2.840986e+02
1.600000e-07	-7.849741e-06	-4.465128e-09	-5.640015e+01	-2.853627e+02
1.700000e-07	-7.841154e-06	-4.435270e-09	-5.633846e+01	-2.868993e+02
1.800000e-07	-7.831763e-06	-4.557786e-09	-5.627098e+01	-2.887034e+02
1.900000e-07	-7.821385e-06	-4.555233e-09	-5.619641e+01	-2.907646e+02
2.000000e-07	-7.810187e-06	-4.561831e-09	-5.611596e+01	-2.930675e+02
2.100000e-07	-7.798486e-06	-4.524439e-09	-5.603189e+01	-2.955911e+02
2.200000e-07	-7.786406e-06	-4.496130e-09	-5.594509e+01	-2.983101e+02
2.300000e-07	-7.773639e-06	-4.477973e-09	-5.585336e+01	-3.011946e+02
2.400000e-07	-7.760158e-06	-4.535708e-09	-5.575650e+01	-3.042113e+02
2.500000e-07	-7.746331e-06	-4.494334e-09	-5.565716e+01	-3.073236e+02
2.600000e-07	-7.731774e-06	-4.426072e-09	-5.555256e+01	-3.104926e+02
2.700000e-07	-7.716096e-06	-4.553058e-09	-5.543992e+01	-3.136778e+02
2.800000e-07	-7.699509e-06	-4.701829e-09	-5.532074e+01	-3.168382e+02
2.900000e-07	-7.682476e-06	-4.675403e-09	-5.519836e+01	-3.199329e+02
3.000000e-07	-7.665107e-06	-4.739416e-09	-5.507357e+01	-3.229218e+02
3.100000e-07	-7.647232e-06	-4.968690e-09	-5.494513e+01	-3.257669e+02
3.200000e-07	-7.628931e-06	-5.061326e-09	-5.481364e+01	-3.284326e+02
3.300000e-07	-7.610045e-06	-4.885871e-09	-5.467795e+01	-3.308868e+02
3.400000e-07	-7.590501e-06	-4.815526e-09	-5.453752e+01	-3.331014e+02
3.500000e-07	-7.570587e-06	-4.977152e-09	-5.439444e+01	-3.350527e+02
3.600000e-07	-7.550412e-06	-4.954991e-09	-5.424948e+01	-3.367221e+02
3.700000e-07	-7.529739e-06	-4.835749e-09	-5.410095e+01	-3.380962e+02
3.800000e-07	-7.508581e-06	-4.813974e-09	-5.394893e+01	-3.391671e+02
3.900000e-07	-7.486948e-06	-4.915280e-09	-5.379350e+01	-3.399325e+02
4.000000e-07	-7.464733e-06	-4.920131e-09	-5.363389e+01	-3.403956e+02
4.100000e-07	-7.441902e-06	-4.869080e-09	-5.346985e+01	-3.405648e+02
4.200000e-07	-7.418490e-06	-4.848330e-09	-5.330163e+01	-3.404535e+02
4.300000e-07	-7.394726e-06	-4.919313e-09	-5.313088e+01	-3.400796e+02
4.400000e-07	-7.370670e-06	-4.903448e-09	-5.295804e+01	-3.394652e+02
4.500000e-07	-7.346016e-06	-4.872371e-09	-5.278091e+01	-3.386355e+02
4.600000e-07	-7.320507e-06	-4.873931e-09	-5.259762e+01	-3.376186e+02
4.700000e-07	-7.294226e-06	-4.842937e-09	-5.240879e+01	-3.364447e+02
4.800000e-07	-7.267257e-06	-4.802323e-09	-5.221503e+01	-3.351451e+02
4.900000e-07	-7.239726e-06	-4.867736e-09	-5.201722e+01	-3.337516e+02
5.000000e-07	-7.211913e-06	-4.858676e-09	-5.181738e+01	-3.322956e+02
5.100000e-07	-7.183844e-06	-4.765286e-09	-5.161570e+01	-3.308077e+02
5.200000e-07	-7.155251e-06	-4.774557e-09	-5.141026e+01	-3.293166e+02
5.300000e-07	-7.126014e-06	-4.830487e-09	-5.120020e+01	-3.278488e+02
5.400000e-07	-7.096330e-06	-4.794092e-09	-5.098692e+01	-3.264280e+02
5.500000e-07	-7.066130e-06	-4.748718e-09	-5.076993e+01	-3.250743e+02
5.600000e-07	-7.035319e-06	-4.758393e-09	-5.054855e+01	-3.238046e+02
5.700000e-07	-7.004011e-06	-4.766443e-09	-5.032361e+01	-3.226315e+02
5.800000e-07	-6.972330e-06	-4.760409e-09	-5.009598e+01	-3.215637e+02
5.900000e-07	-6.940401e-06	-4.746413e-09	-4.986657e+01	-3.206060e+02
6.000000e-07	-6.908157e-06	-4.744933e-09	-4.963490e+01	-3.197590e+02
6.100000e-07	-6.875339e-06	-4.738906e-09	-4.939910e+01	-3.190196e+02
6.200000e-07	-6.841840e-06	-4.721706e-09	-4.915842e+01	-3.183813e+02
6.300000e-07	-6.807527e-06	-4.708136e-09	-4.891187e+01	-3.178344e+02
6.400000e-07	-6.772493e-06	-4.723687e-09	-4.866016e+01	-3.173666e+02
6.500000e-07	-6.737071e-06	-4.700432e-09	-4.840565e+01	-3.169633e+02
6.600000e-07	-6.701308e-06	-4.658167e-09	-4.814870e+01	-3.166083e+02
6.700000e-07	-6.665186e-06	-4.656641e-09	-4.788916e+01	-3.162843e+02
6.800000e-07	-6.628577e-06	-4.684312e-09	-4.762613e+01	-3.159736e+02
6.900000e-07	-6.591498e-06	-4.661132e-09	-4.735972e+01	-3.156584e+02
7.000000e-07	-6.553931e-06	-4.616437e-09	-4.708980e+01	-3.153215e+02
7.100000e-07	-6.515800e-06	-4.594921e-09	-4.681583e+01	-3.149470e+02
7.200000e-07	-6.477146e-06	-4.614139e-09	-4.653810e+01	-3.145202e+02
7.300000e-07	-6.437986e-06	-4.614446e-09	-4.625674e+01	-3.140286e+02
7.400000e-07	-6.398455e-06	-4.574160e-09	-4.597271e+01	-3.134618e+02
7.500000e-07	-6.358731e-06	-4.533754e-09	-4.568729e+01	-3.128118e+02
7.600000e-07	-6.318813e-06	-4.549137e-09	-4.540048e+01	-3.120734e+02
7.700000e-07	-6.278500e-06	-4.569861e-09	-4.511084e+01	-3.112438e+02
7.800000e-07	-6.237562e-06	-4.543582e-09	-4.481669e+01	-3.103231e+02
7.900000e-07	-6.195955e-06	-4.497134e-09	-4.451775e+01	-3.093139e+02
8.000000e-07	-6.153666e-06	-4.492083e-09	-4.421390e+01	-3.082210e+02
8.100000e-07	-6.110686e-06	-4.507835e-09	-4.390510e+01	-3.070515e+02
8.200000e-07	-6.067257e-06	-4.494310e-09	-4.359306e+01	-3.058142e+02
8.300000e-07	-6.023487e-06	-4.452038e-09	-4.327857e+01	-3.045194e+02
8.400000e-07	-5.979341e-06	-4.424683e-09	-4.296139e+01	-3.031785e+02
8.500000e-07	-5.934832e-06	-4.426857e-09	-4.264159e+01	-3.018036e+02
8.600000e-07	-5.889849e-06	-4.427011e-09	-4.231839e+01	-3.004070e+02
8.700000e-07	-5.844421e-06	-4.399979e-09	-4.199199e+01	-2.990009e+02
8.800000e-07	-5.798622e-06	-4.360722e-09	-4.166293e+01	-2.975969e+02
8.900000e-07	-5.752509e-06	-4.344657e-09	-4.133160e+01	-2.962057e+02
9.000000e-07	-5.705999e-06	-4.347215e-09	-4.099743e+01	-2.948368e+02
9.100000e-07	-5.659085e-06	-4.336687e-09	-4.066035e+01	-2.934983e+02
9.200000e-07	-5.611943e-06	-4.299620e-09	-4.032164e+01	-2.921964e+02
9.300000e-07	-5.564433e-06	-4.272178e-09	-3.998028e+01	-2.909355e+02
9.400000e-07	-5.516477e-06	-4.263289e-09	-3.963572e+01	-2.897180e+02
9.500000e-07	-5.468137e-06	-4.260389e-09	-3.928840e+01	-2.885446e+02
9.600000e-07	-5.419181e-06	-4.239994e-09	-3.893666e+01	-2.874136e+02
9.700000e-07	-5.369523e-06	-4.210322e-09	-3.857986e+01	-2.863217e+02
9.800000e-07	-5.319347e-06	-4.186424e-09	-3.821935e+01	-2.852640e+02
9.900000e-07	-5.268706e-06	-4.175596e-09	-3.785549e+01	-2.842339e+02
1.000000e-06	-5.217571e-06	-4.164377e-09	-3.748809e+01	-2.832238e+02
1.010000e-06	-5.165920e-06	-4.145660e-09	-3.711698e+01	-2.822250e+02
1.020000e-06	-5.113894e-06	-4.116323e-09	-3.674318e+01	-2.812283e+02
1.030000e-06	-5.061540e-06	-4.087281e-09	-3.636701e+01	-2.802241e+02
1.040000e-06	-5.008819e-06	-4.068877e-09	-3.598822e+01	-2.792028e+02
1.050000e-06	-4.955760e-06	-4.061968e-09	-3.560699e+01	-2.781553e+02
1.060000e-06	-4.902359e-06	-4.048143e-09	-3.522330e+01	-2.770727e+02
1.070000e-06	-4.848527e-06	-4.018075e-09	-3.483652e+01	-2.759476e+02
1.080000e-06	-4.794329e-06	-3.990410e-09	-3.444711e+01	-2.747731e+02
1.090000e-06	-4.739773e-06	-3.981819e-09	-3.405513e+01	-2.735440e+02
1.100000e-06	-4.684798e-06	-3.975893e-09	-3.366013e+01	-2.722564e+02
1.110000e-06	-4.629656e-06	-3.949961e-09	-3.326394e+01	-2.709078e+02
1.120000e-06	-4.574323e-06	-3.912588e-09	-3.286637e+01	-2.694976e+02
1.130000e-06	-4.518687e-06	-3.889809e-09	-3.246663e+01	-2.680263e+02
1.140000e-06	-4.462748e-06	-3.883257e-09	-3.206471e+01	-2.664962e+02
1.150000e-06	-4.406498e-06	-3.869120e-09	-3.166056e+01	-2.649107e+02
1.160000e-06	-4.350050e-06	-3.838303e-09	-3.125498e+01	-2.632746e+02
1.170000e-06	-4.293223e-06	-3.806671e-09	-3.084668e+01	-2.615936e+02
1.180000e-06	-4.236066e-06	-3.788833e-09	-3.043601e+01	-2.598740e+02
1.190000e-06	-4.178650e-06	-3.778794e-09	-3.002347e+01	-2.581228e+02
1.200000e-06	-4.120740e-06	-3.759579e-09	-2.960739e+01	-2.563472e+02
1.210000e-06	-4.062347e-06	-3.725028e-09	-2.918784e+01	-2.545543e+02
1.220000e-06	-4.003608e-06	-3.691949e-09	-2.876580e+01	-2.527512e+02
1.230000e-06	-3.944451e-06	-3.669873e-09	-2.834076e+01	-2.509441e+02
1.240000e-06	-3.884907e-06	-3.653218e-09	-2.791294e+01	-2.491388e+02
1.250000e-06	-3.825136e-06	-3.629182e-09	-2.748349e+01	-2.473399e+02
1.260000e-06	-3.765112e-06	-3.597733e-09	-2.705221e+01	-2.455512e+02
1.270000e-06	-3.704883e-06	-3.571866e-09	-2.661948e+01	-2.437750e+02
1.280000e-06	-3.644502e-06	-3.554656e-09	-2.618564e+01	-2.420127e+02
1.290000e-06	-3.583943e-06	-3.537139e-09	-2.575052e+01	-2.402640e+02
1.300000e-06	-3.523138e-06	-3.510418e-09	-2.531364e+01	-2.385276e+02
1.310000e-06	-3.462200e-06	-3.474866e-09	-2.487581e+01	-2.368010e+02
1.320000e-06	-3.401167e-06	-3.440690e-09	-2.443728e+01	-2.350804e+02
1.330000e-06	-3.339903e-06	-3.417016e-09	-2.399711e+01	-2.333612e+02
1.340000e-06	-3.278287e-06	-3.396243e-09	-2.355439e+01	-2.316379e+02
1.350000e-06	-3.216384e-06	-3.365117e-09	-2.310962e+01	-2.299044e+02
1.360000e-06	-3.154215e-06	-3.330003e-09	-2.266294e+01	-2.281541e+02
1.370000e-06	-3.091798e-06	-3.303999e-09	-2.221448e+01	-2.263806e+02
1.380000e-06	-3.029205e-06	-3.287012e-09	-2.176475e+01	-2.245771e+02
1.390000e-06	-2.966448e-06	-3.266001e-09	-2.131384e+01	-2.227373e+02
1.400000e-06	-2.903549e-06	-3.232841e-09	-2.086191e+01	-2.208554e+02
1.410000e-06	-2.840460e-06	-3.193045e-09	-2.040862e+01	-2.189263e+02
1.420000e-06	-2.777241e-06	-3.160787e-09	-1.995439e+01	-2.169455e+02
1.430000e-06	-2.713808e-06	-3.136820e-09	-1.949863e+01	-2.149098e+02
1.440000e-06	-2.650124e-06	-3.106786e-09	-1.904106e+01	-2.128167e+02
1.450000e-06	-2.586278e-06	-3.065820e-09	-1.858233e+01	-2.106652e+02
1.460000e-06	-2.522289e-06	-3.028196e-09	-1.812257e+01	-2.084551e+02
1.470000e-06	-2.458152e-06	-3.001342e-09	-1.766175e+01	-2.061876e+02
1.480000e-06	-2.393828e-06	-2.976334e-09	-1.719958e+01	-2.038646e+02
1.490000e-06	-2.329486e-06	-2.943904e-09	-1.673729e+01	-2.014894e+02
1.500000e-06	-2.264927e-06	-2.904444e-09	-1.627343e+01	-1.990658e+02
1.510000e-06	-2.200039e-06	-2.862914e-09	-1.580721e+01	-1.965985e+02
1.520000e-06	-2.135045e-06	-2.823812e-09	-1.534023e+01	-1.940923e+02
1.530000e-06	-2.069955e-06	-2.793807e-09	-1.487256e+01	-1.915529e+02
1.540000e-06	-2.004730e-06	-2.767143e-09	-1.440392e+01	-1.889856e+02
1.550000e-06	-1.939327e-06	-2.734956e-09	-1.393401e+01	-1.863957e+02
1.560000e-06	-1.873797e-06	-2.699143e-09	-1.346318e+01	-1.837885e+02
1.570000e-06	-1.808094e-06	-2.665692e-09	-1.299110e+01	-1.811684e+02
1.580000e-06	-1.742301e-06	-2.634710e-09	-1.251838e+01	-1.785395e+02
1.590000e-06	-1.676348e-06	-2.594635e-09	-1.204451e+01	-1.759047e+02
1.600000e-06	-1.610176e-06	-2.549080e-09	-1.156907e+01	-1.732664e+02
1.610000e-06	-1.543941e-06	-2.501793e-09	-1.109317e+01	-1.706257e+02
1.620000e-06	-1.477573e-06	-2.461165e-09	-1.061632e+01	-1.679828e+02
1.630000e-06	-1.411024e-06	-2.423240e-09	-1.013816e+01	-1.653368e+02
1.640000e-06	-1.344370e-06	-2.381282e-09	-9.659260e+00	-1.626859e+02
1.650000e-06	-1.277624e-06	-2.339815e-09	-9.179691e+00	-1.600271e+02
1.660000e-06	-1.210745e-06	-2.296862e-09	-8.699169e+00	-1.573567e+02
1.670000e-06	-1.143701e-06	-2.256482e-09	-8.217454e+00	-1.546702e+02
1.680000e-06	-1.076480e-06	-2.216727e-09	-7.734480e+00	-1.519625e+02
1.690000e-06	-1.009131e-06	-2.172675e-09	-7.250575e+00	-1.492280e+02
1.700000e-06	-9.418204e-07	-2.123319e-09	-6.766951e+00	-1.464611e+02
1.710000e-06	-8.745592e-07	-2.076216e-09	-6.283681e+00	-1.436559e+02
1.720000e-06	-8.072384e-07	-2.037370e-09	-5.799984e+00	-1.408066e+02
1.730000e-06	-7.398298e-07	-1.996034e-09	-5.315655e+00	-1.379080e+02
1.740000e-06	-6.723243e-07	-1.948327e-09	-4.830630e+00	-1.349550e+02
1.750000e-06	-6.047857e-07	-1.902339e-09	-4.345367e+00	-1.319434e+02
1.760000e-06	-5.371693e-07	-1.860059e-09	-3.859546e+00	-1.288698e+02
1.770000e-06	-4.694764e-07	-1.817701e-09	-3.373174e+00	-1.257314e+02
1.780000e-06	-4.017505e-07	-1.770703e-09	-2.886566e+00	-1.225265e+02
1.790000e-06	-3.340709e-07	-1.722405e-09	-2.400289e+00	-1.192545e+02
1.800000e-06	-2.663348e-07	-1.673191e-09	-1.913607e+00	-1.159155e+02
1.810000e-06	-1.984520e-07	-1.625483e-09	-1.425872e+00	-1.125107e+02
1.820000e-06	-1.306108e-07	-1.579579e-09	-9.384346e-01	-1.090422e+02
1.830000e-06	-6.280776e-08	-1.531913e-09	-4.512719e-01	-1.055128e+02
1.840000e-06	5.046052e-09	-1.480423e-09	3.625573e-02	-1.019259e+02
1.850000e-06	7.289506e-08	-1.430407e-09	5.237488e-01	-9.828554e+01
1.860000e-06	1.406447e-07	-1.385603e-09	1.010528e+00	-9.459609e+01
1.870000e-06	2.083454e-07	-1.340445e-09	1.496955e+00	-9.086204e+01
1.880000e-06	2.759763e-07	-1.287332e-09	1.982881e+00	-8.708790e+01
1.890000e-06	3.436559e-07	-1.230690e-09	2.469157e+00	-8.327800e+01
1.900000e-06	4.113878e-07	-1.177827e-09	2.955809e+00	-7.943634e+01
1.910000e-06	4.790629e-07	-1.125613e-09	3.442053e+00	-7.556643e+01
1.920000e-06	5.467682e-07	-1.069226e-09	3.928513e+00	-7.167112e+01
1.930000e-06	6.144227e-07	-1.009349e-09	4.414608e+00	-6.775257e+01
1.940000e-06	6.819890e-07	-9.531541e-10	4.900070e+00	-6.381208e+01
1.950000e-06	7.494749e-07	-9.004753e-10	5.384954e+00	-5.985014e+01
1.960000e-06	8.168523e-07	-8.437490e-10	5.869059e+00	-5.586633e+01
1.970000e-06	8.841759e-07	-7.847135e-10	6.352777e+00	-5.185941e+01
1.980000e-06	9.514576e-07	-7.275421e-10	6.836194e+00	-4.782733e+01
1.990000e-06	1.018582e-06	-6.691915e-10	7.318482e+00	-4.376736e+01
2.000000e-06	1.085686e-06	-6.077572e-10	7.800622e+00	-3.967618e+01
2.010000e-06	1.152838e-06	-5.451519e-10	8.283108e+00	-3.555006e+01
2.020000e-06	1.219784e-06	-4.821912e-10	8.764110e+00	-3.138499e+01
2.030000e-06	1.286580e-06	-4.182048e-10	9.244037e+00	-2.717689e+01
2.040000e-06	1.353300e-06	-3.542828e-10	9.723419e+00	-2.292180e+01
2.050000e-06	1.419865e-06	-2.926904e-10	1.020169e+01	-1.861608e+01
2.060000e-06	1.486303e-06	-2.320578e-10	1.067904e+01	-1.425659e+01
2.070000e-06	1.552574e-06	-1.696875e-10	1.115520e+01	-9.840900e+00
2.080000e-06	1.618661e-06	-1.046940e-10	1.163003e+01	-5.367414e+00
2.090000e-06	1.684625e-06	-3.734090e-11	1.210398e+01	-8.355541e-01
2.100000e-06	1.750514e-06	2.930920e-11	1.257739e+01	3.754142e+00
2.110000e-06	1.816280e-06	9.673766e-11	1.304992e+01	8.399937e+00
2.120000e-06	1.881807e-06	1.680468e-10	1.352073e+01	1.309885e+01
2.130000e-06	1.947138e-06	2.433173e-10	1.399013e+01	1.784662e+01
2.140000e-06	2.012444e-06	3.150347e-10	1.445935e+01	2.263780e+01
2.150000e-06	2.077655e-06	3.821169e-10	1.492789e+01	2.746573e+01
2.160000e-06	2.142629e-06	4.508296e-10	1.539473e+01	3.232271e+01
2.170000e-06	2.207522e-06	5.230467e-10	1.586098e+01	3.720015e+01
2.180000e-06	2.272325e-06	5.961837e-10	1.632659e+01	4.208864e+01
2.190000e-06	2.336955e-06	6.665886e-10	1.679095e+01	4.697827e+01
2.200000e-06	2.401360e-06	7.379686e-10	1.725370e+01	5.185874e+01
2.210000e-06	2.465531e-06	8.113445e-10	1.771476e+01	5.671963e+01
2.220000e-06	2.529493e-06	8.853175e-10	1.817433e+01	6.155063e+01
2.230000e-06	2.593301e-06	9.570114e-10	1.863279e+01	6.634175e+01
2.240000e-06	2.656980e-06	1.024532e-09	1.909032e+01	7.108355e+01
2.250000e-06	2.720369e-06	1.091925e-09	1.954577e+01	7.576736e+01
2.260000e-06	2.783559e-06	1.154851e-09	1.999979e+01	8.038541e+01
2.270000e-06	2.846634e-06	1.214486e-09	2.045298e+01	8.493105e+01
2.280000e-06	2.909521e-06	1.273120e-09	2.090482e+01	8.939885e+01
2.290000e-06	2.972233e-06	1.332751e-09	2.135540e+01	9.378466e+01
2.300000e-06	3.034891e-06	1.392726e-09	2.180560e+01	9.808570e+01
2.310000e-06	3.097449e-06	1.454857e-09	2.225507e+01	1.023005e+02
2.320000e-06	3.159696e-06	1.519456e-09	2.270232e+01	1.064290e+02
2.330000e-06	3.221699e-06	1.583585e-09	2.314781e+01	1.104724e+02
2.340000e-06	3.283541e-06	1.645663e-09	2.359214e+01	1.144329e+02
2.350000e-06	3.345054e-06	1.703509e-09	2.403411e+01	1.183138e+02
2.360000e-06	3.406361e-06	1.759778e-09	2.447460e+01	1.221194e+02
2.370000e-06	3.467490e-06	1.815239e-09	2.491381e+01	1.258543e+02
2.380000e-06	3.528349e-06	1.868227e-09	2.535108e+01	1.295240e+02
2.390000e-06	3.588990e-06	1.918187e-09	2.578679e+01	1.331338e+02
2.400000e-06	3.649400e-06	1.967535e-09	2.622083e+01	1.366893e+02
2.410000e-06	3.709689e-06	2.019533e-09	2.665401e+01	1.401958e+02
2.420000e-06	3.769694e-06	2.075730e-09	2.708514e+01	1.436581e+02
2.430000e-06	3.829352e-06	2.130863e-09	2.751378e+01	1.470806e+02
2.440000e-06	3.888825e-06	2.180581e-09	2.794109e+01	1.504669e+02
2.450000e-06	3.947969e-06	2.225476e-09	2.836604e+01	1.538198e+02
2.460000e-06	4.006703e-06	2.271686e-09	2.878804e+01	1.571409e+02
2.470000e-06	4.065106e-06	2.318090e-09	2.920767e+01	1.604310e+02
2.480000e-06	4.123203e-06	2.359245e-09	2.962509e+01	1.636899e+02
2.490000e-06	4.180913e-06	2.396353e-09	3.003973e+01	1.669162e+02
2.500000e-06	4.238226e-06	2.437923e-09	3.045152e+01	1.701077e+02
2.510000e-06	4.295301e-06	2.485903e-09	3.086161e+01	1.732612e+02
2.520000e-06	4.352084e-06	2.532745e-09	3.126959e+01	1.763730e+02
2.530000e-06	4.408467e-06	2.575459e-09	3.167471e+01	1.794385e+02
2.540000e-06	4.464464e-06	2.617241e-09	3.207704e+01	1.824529e+02
2.550000e-06	4.520051e-06	2.657337e-09	3.247643e+01	1.854111e+02
2.560000e-06	4.575368e-06	2.696557e-09	3.287389e+01	1.883081e+02
2.570000e-06	4.630471e-06	2.728303e-09	3.326979e+01	1.911389e+02
2.580000e-06	4.685333e-06	2.758921e-09	3.366398e+01	1.938989e+02
2.590000e-06	4.739920e-06	2.788028e-09	3.405618e+01	1.965844e+02
2.600000e-06	4.794143e-06	2.822124e-09	3.444578e+01	1.991919e+02
2.610000e-06	4.848062e-06	2.859533e-09	3.483318e+01	2.017193e+02
2.620000e-06	4.901731e-06	2.896971e-09	3.521879e+01	2.041651e+02
2.630000e-06	4.954948e-06	2.932431e-09	3.560115e+01	2.065291e+02
2.640000e-06	5.007770e-06	2.969568e-09	3.598068e+01	2.088122e+02
2.650000e-06	5.060249e-06	3.005384e-09	3.635774e+01	2.110162e+02
2.660000e-06	5.112240e-06	3.037200e-09	3.673129e+01	2.131443e+02
2.670000e-06	5.163738e-06	3.064479e-09	3.710130e+01	2.152005e+02
2.680000e-06	5.214733e-06	3.091205e-09	3.746770e+01	2.171898e+02
2.690000e-06	5.265330e-06	3.118859e-09	3.783124e+01	2.191179e+02
2.700000e-06	5.315405e-06	3.145724e-09	3.819103e+01	2.209911e+02
2.710000e-06	5.364841e-06	3.175288e-09	3.854622e+01	2.228161e+02
2.720000e-06	5.413812e-06	3.207497e-09	3.889808e+01	2.246000e+02
2.730000e-06	5.462427e-06	3.239572e-09	3.924738e+01	2.263495e+02
2.740000e-06	5.510735e-06	3.268208e-09	3.959447e+01	2.280713e+02
2.750000e-06	5.558718e-06	3.298488e-09	3.993922e+01	2.297717e+02
2.760000e-06	5.606204e-06	3.327703e-09	4.028041e+01	2.314562e+02
2.770000e-06	5.653262e-06	3.351397e-09	4.061852e+01	2.331297e+02
2.780000e-06	5.699908e-06	3.369945e-09	4.095367e+01	2.347958e+02
2.790000e-06	5.746094e-06	3.393615e-09	4.128551e+01	2.364573e+02
2.800000e-06	5.791944e-06	3.419578e-09	4.161494e+01	2.381157e+02
2.810000e-06	5.837364e-06	3.444539e-09	4.194129e+01	2.397714e+02
2.820000e-06	5.882358e-06	3.466334e-09	4.226457e+01	2.414234e+02
2.830000e-06	5.927067e-06	3.491467e-09	4.258580e+01	2.430698e+02
2.840000e-06	5.971502e-06	3.518723e-09	4.290507e+01	2.447074e+02
2.850000e-06	6.015630e-06	3.544220e-09	4.322212e+01	2.463320e+02
2.860000e-06	6.059361e-06	3.565486e-09	4.353633e+01	2.479388e+02
2.870000e-06	6.102711e-06	3.588669e-09	4.384779e+01	2.495222e+02
2.880000e-06	6.145680e-06	3.610231e-09	4.415653e+01	2.510762e+02
2.890000e-06	6.187975e-06	3.630655e-09	4.446041e+01	2.525947e+02
2.900000e-06	6.229660e-06	3.649963e-09	4.475992e+01	2.540714e+02
