# Temperatura_=_20.0
# Concentracion g/m^3_=_12600.0
# C_Vs_to_Am_M_A/Vsm_=_65563218390.804596
# pendiente_HvsI_1/m_=_3716.3
# ordenada_HvsI_A/m_=_1297.0
# frecuencia_Hz_=_135501.02791367096

Tiempo_(s)	Campo_(V.s)	Magnetizacion_(V.s)	Campo_(kA/m)	Magnetizacion_(A/m)
0.000000e+00	-7.932866e-06	-4.503243e-09	-5.689253e+01	-2.995267e+02
1.000000e-08	-7.932860e-06	-4.494620e-09	-5.689249e+01	-2.988900e+02
2.000000e-08	-7.932401e-06	-4.489301e-09	-5.688920e+01	-2.982305e+02
3.000000e-08	-7.931242e-06	-4.488362e-09	-5.688089e+01	-2.975649e+02
4.000000e-08	-7.929239e-06	-4.486550e-09	-5.686652e+01	-2.969108e+02
5.000000e-08	-7.926455e-06	-4.484167e-09	-5.684655e+01	-2.962866e+02
6.000000e-08	-7.923143e-06	-4.482510e-09	-5.682280e+01	-2.957108e+02
7.000000e-08	-7.919387e-06	-4.483943e-09	-5.679586e+01	-2.952021e+02
8.000000e-08	-7.915228e-06	-4.502909e-09	-5.676604e+01	-2.947781e+02
9.000000e-08	-7.910468e-06	-4.497252e-09	-5.673190e+01	-2.944556e+02
1.000000e-07	-7.904880e-06	-4.491975e-09	-5.669183e+01	-2.942497e+02
1.100000e-07	-7.898394e-06	-4.482931e-09	-5.664531e+01	-2.941737e+02
1.200000e-07	-7.891149e-06	-4.506802e-09	-5.659335e+01	-2.942382e+02
1.300000e-07	-7.883556e-06	-4.530923e-09	-5.653889e+01	-2.944513e+02
1.400000e-07	-7.875794e-06	-4.573799e-09	-5.648322e+01	-2.948181e+02
1.500000e-07	-7.867703e-06	-4.425589e-09	-5.642520e+01	-2.953405e+02
1.600000e-07	-7.859161e-06	-4.440547e-09	-5.636394e+01	-2.960171e+02
1.700000e-07	-7.850051e-06	-4.515075e-09	-5.629861e+01	-2.968432e+02
1.800000e-07	-7.840149e-06	-4.545917e-09	-5.622759e+01	-2.978106e+02
1.900000e-07	-7.829268e-06	-4.565208e-09	-5.614955e+01	-2.989081e+02
2.000000e-07	-7.817725e-06	-4.514676e-09	-5.606677e+01	-3.001213e+02
2.100000e-07	-7.805820e-06	-4.446674e-09	-5.598139e+01	-3.014331e+02
2.200000e-07	-7.793276e-06	-4.493687e-09	-5.589143e+01	-3.028243e+02
2.300000e-07	-7.779958e-06	-4.544167e-09	-5.579591e+01	-3.042731e+02
2.400000e-07	-7.766190e-06	-4.448336e-09	-5.569718e+01	-3.057568e+02
2.500000e-07	-7.751860e-06	-4.484518e-09	-5.559441e+01	-3.072512e+02
2.600000e-07	-7.736650e-06	-4.667983e-09	-5.548532e+01	-3.087316e+02
2.700000e-07	-7.720490e-06	-4.692289e-09	-5.536943e+01	-3.101737e+02
2.800000e-07	-7.703701e-06	-4.575697e-09	-5.524902e+01	-3.115532e+02
2.900000e-07	-7.686550e-06	-4.748676e-09	-5.512602e+01	-3.128472e+02
3.000000e-07	-7.668874e-06	-4.927274e-09	-5.499925e+01	-3.140343e+02
3.100000e-07	-7.650631e-06	-4.810774e-09	-5.486842e+01	-3.150952e+02
3.200000e-07	-7.631753e-06	-4.680337e-09	-5.473303e+01	-3.160128e+02
3.300000e-07	-7.612327e-06	-4.811547e-09	-5.459371e+01	-3.167730e+02
3.400000e-07	-7.592535e-06	-4.974931e-09	-5.445177e+01	-3.173647e+02
3.500000e-07	-7.572509e-06	-4.881142e-09	-5.430814e+01	-3.177801e+02
3.600000e-07	-7.552051e-06	-4.563843e-09	-5.416142e+01	-3.180148e+02
3.700000e-07	-7.530918e-06	-4.661765e-09	-5.400986e+01	-3.180678e+02
3.800000e-07	-7.509294e-06	-4.951067e-09	-5.385478e+01	-3.179414e+02
3.900000e-07	-7.487293e-06	-4.921902e-09	-5.369700e+01	-3.176414e+02
4.000000e-07	-7.464632e-06	-4.568599e-09	-5.353448e+01	-3.171767e+02
4.100000e-07	-7.441376e-06	-4.539690e-09	-5.336769e+01	-3.165586e+02
4.200000e-07	-7.417755e-06	-4.816398e-09	-5.319829e+01	-3.158014e+02
4.300000e-07	-7.393770e-06	-4.939640e-09	-5.302627e+01	-3.149210e+02
4.400000e-07	-7.369236e-06	-4.728394e-09	-5.285032e+01	-3.139353e+02
4.500000e-07	-7.343896e-06	-4.537723e-09	-5.266858e+01	-3.128633e+02
4.600000e-07	-7.317720e-06	-4.610970e-09	-5.248086e+01	-3.117246e+02
4.700000e-07	-7.290987e-06	-4.816830e-09	-5.228914e+01	-3.105390e+02
4.800000e-07	-7.263750e-06	-4.865123e-09	-5.209380e+01	-3.093261e+02
4.900000e-07	-7.236002e-06	-4.630679e-09	-5.189480e+01	-3.081048e+02
5.000000e-07	-7.207892e-06	-4.456119e-09	-5.169320e+01	-3.068927e+02
5.100000e-07	-7.179392e-06	-4.620113e-09	-5.148881e+01	-3.057059e+02
5.200000e-07	-7.150400e-06	-4.851730e-09	-5.128088e+01	-3.045587e+02
5.300000e-07	-7.120846e-06	-4.715370e-09	-5.106893e+01	-3.034630e+02
5.400000e-07	-7.090732e-06	-4.474681e-09	-5.085296e+01	-3.024285e+02
5.500000e-07	-7.060082e-06	-4.486190e-09	-5.063314e+01	-3.014622e+02
5.600000e-07	-7.028962e-06	-4.694749e-09	-5.040996e+01	-3.005687e+02
5.700000e-07	-6.997414e-06	-4.727636e-09	-5.018370e+01	-2.997496e+02
5.800000e-07	-6.965564e-06	-4.578052e-09	-4.995529e+01	-2.990044e+02
5.900000e-07	-6.933418e-06	-4.449181e-09	-4.972474e+01	-2.983299e+02
6.000000e-07	-6.900745e-06	-4.519685e-09	-4.949042e+01	-2.977208e+02
6.100000e-07	-6.867431e-06	-4.630736e-09	-4.925150e+01	-2.971697e+02
6.200000e-07	-6.833388e-06	-4.622596e-09	-4.900735e+01	-2.966677e+02
6.300000e-07	-6.798635e-06	-4.496307e-09	-4.875811e+01	-2.962045e+02
6.400000e-07	-6.763290e-06	-4.433119e-09	-4.850462e+01	-2.957687e+02
6.500000e-07	-6.727556e-06	-4.479161e-09	-4.824835e+01	-2.953485e+02
6.600000e-07	-6.691559e-06	-4.563246e-09	-4.799019e+01	-2.949316e+02
6.700000e-07	-6.655093e-06	-4.546146e-09	-4.772866e+01	-2.945062e+02
6.800000e-07	-6.618073e-06	-4.437126e-09	-4.746317e+01	-2.940607e+02
6.900000e-07	-6.580562e-06	-4.376172e-09	-4.719415e+01	-2.935843e+02
7.000000e-07	-6.542606e-06	-4.438491e-09	-4.692194e+01	-2.930675e+02
7.100000e-07	-6.504263e-06	-4.503748e-09	-4.664695e+01	-2.925020e+02
7.200000e-07	-6.465416e-06	-4.450000e-09	-4.636835e+01	-2.918810e+02
7.300000e-07	-6.426040e-06	-4.344125e-09	-4.608595e+01	-2.911996e+02
7.400000e-07	-6.386399e-06	-4.330335e-09	-4.580166e+01	-2.904544e+02
7.500000e-07	-6.346537e-06	-4.405466e-09	-4.551578e+01	-2.896439e+02
7.600000e-07	-6.306252e-06	-4.427811e-09	-4.522686e+01	-2.887685e+02
7.700000e-07	-6.265437e-06	-4.357849e-09	-4.493415e+01	-2.878301e+02
7.800000e-07	-6.224193e-06	-4.290054e-09	-4.463836e+01	-2.868323e+02
7.900000e-07	-6.182255e-06	-4.305458e-09	-4.433759e+01	-2.857800e+02
8.000000e-07	-6.139413e-06	-4.341811e-09	-4.403034e+01	-2.846793e+02
8.100000e-07	-6.096070e-06	-4.329312e-09	-4.371949e+01	-2.835373e+02
8.200000e-07	-6.052425e-06	-4.262824e-09	-4.340648e+01	-2.823618e+02
8.300000e-07	-6.008415e-06	-4.227542e-09	-4.309085e+01	-2.811607e+02
8.400000e-07	-5.963951e-06	-4.242390e-09	-4.277196e+01	-2.799425e+02
8.500000e-07	-5.919072e-06	-4.267722e-09	-4.245011e+01	-2.787151e+02
8.600000e-07	-5.873871e-06	-4.242294e-09	-4.212594e+01	-2.774864e+02
8.700000e-07	-5.828269e-06	-4.193185e-09	-4.179889e+01	-2.762631e+02
8.800000e-07	-5.782229e-06	-4.165149e-09	-4.146870e+01	-2.750517e+02
8.900000e-07	-5.735869e-06	-4.170823e-09	-4.113622e+01	-2.738571e+02
9.000000e-07	-5.689105e-06	-4.165898e-09	-4.080084e+01	-2.726833e+02
9.100000e-07	-5.641967e-06	-4.135327e-09	-4.046278e+01	-2.715330e+02
9.200000e-07	-5.594571e-06	-4.095521e-09	-4.012287e+01	-2.704074e+02
9.300000e-07	-5.546770e-06	-4.077452e-09	-3.978005e+01	-2.693066e+02
9.400000e-07	-5.498481e-06	-4.074732e-09	-3.943373e+01	-2.682292e+02
9.500000e-07	-5.449634e-06	-4.071915e-09	-3.908341e+01	-2.671726e+02
9.600000e-07	-5.400192e-06	-4.052867e-09	-3.872883e+01	-2.661332e+02
9.700000e-07	-5.350106e-06	-4.019098e-09	-3.836963e+01	-2.651064e+02
9.800000e-07	-5.299296e-06	-3.989689e-09	-3.800523e+01	-2.640867e+02
9.900000e-07	-5.247924e-06	-3.980099e-09	-3.763680e+01	-2.630681e+02
1.000000e-06	-5.196223e-06	-3.975331e-09	-3.726601e+01	-2.620441e+02
1.010000e-06	-5.144179e-06	-3.950549e-09	-3.689277e+01	-2.610083e+02
1.020000e-06	-5.091744e-06	-3.908960e-09	-3.651672e+01	-2.599541e+02
1.030000e-06	-5.038932e-06	-3.880640e-09	-3.613796e+01	-2.588752e+02
1.040000e-06	-4.985836e-06	-3.882108e-09	-3.575717e+01	-2.577658e+02
1.050000e-06	-4.932510e-06	-3.881016e-09	-3.537473e+01	-2.566208e+02
1.060000e-06	-4.878859e-06	-3.852329e-09	-3.498996e+01	-2.554359e+02
1.070000e-06	-4.824780e-06	-3.811508e-09	-3.460212e+01	-2.542075e+02
1.080000e-06	-4.770257e-06	-3.793959e-09	-3.421109e+01	-2.529331e+02
1.090000e-06	-4.715365e-06	-3.788935e-09	-3.381742e+01	-2.516114e+02
1.100000e-06	-4.660194e-06	-3.771244e-09	-3.342175e+01	-2.502421e+02
1.110000e-06	-4.604749e-06	-3.734867e-09	-3.302411e+01	-2.488257e+02
1.120000e-06	-4.549074e-06	-3.700277e-09	-3.262482e+01	-2.473640e+02
1.130000e-06	-4.493273e-06	-3.680972e-09	-3.222463e+01	-2.458596e+02
1.140000e-06	-4.437252e-06	-3.671901e-09	-3.182286e+01	-2.443157e+02
1.150000e-06	-4.380968e-06	-3.653154e-09	-3.141921e+01	-2.427365e+02
1.160000e-06	-4.324312e-06	-3.622157e-09	-3.101288e+01	-2.411265e+02
1.170000e-06	-4.267289e-06	-3.588402e-09	-3.060393e+01	-2.394904e+02
1.180000e-06	-4.209854e-06	-3.565943e-09	-3.019202e+01	-2.378331e+02
1.190000e-06	-4.151954e-06	-3.548972e-09	-2.977678e+01	-2.361597e+02
1.200000e-06	-4.093565e-06	-3.524774e-09	-2.935803e+01	-2.344748e+02
1.210000e-06	-4.034649e-06	-3.488655e-09	-2.893550e+01	-2.327827e+02
1.220000e-06	-3.975404e-06	-3.452936e-09	-2.851061e+01	-2.310872e+02
1.230000e-06	-3.915889e-06	-3.431515e-09	-2.808378e+01	-2.293914e+02
1.240000e-06	-3.856157e-06	-3.417934e-09	-2.765540e+01	-2.276976e+02
1.250000e-06	-3.796236e-06	-3.395106e-09	-2.722565e+01	-2.260075e+02
1.260000e-06	-3.736239e-06	-3.361551e-09	-2.679537e+01	-2.243215e+02
1.270000e-06	-3.676057e-06	-3.332722e-09	-2.636376e+01	-2.226396e+02
1.280000e-06	-3.615515e-06	-3.316989e-09	-2.592957e+01	-2.209605e+02
1.290000e-06	-3.554757e-06	-3.301535e-09	-2.549383e+01	-2.192823e+02
1.300000e-06	-3.493804e-06	-3.268540e-09	-2.505669e+01	-2.176023e+02
1.310000e-06	-3.432595e-06	-3.222955e-09	-2.461771e+01	-2.159172e+02
1.320000e-06	-3.371147e-06	-3.190486e-09	-2.417703e+01	-2.142229e+02
1.330000e-06	-3.309512e-06	-3.179490e-09	-2.373499e+01	-2.125152e+02
1.340000e-06	-3.247656e-06	-3.162032e-09	-2.329138e+01	-2.107895e+02
1.350000e-06	-3.185596e-06	-3.123595e-09	-2.284630e+01	-2.090412e+02
1.360000e-06	-3.123194e-06	-3.085125e-09	-2.239877e+01	-2.072657e+02
1.370000e-06	-3.060389e-06	-3.064002e-09	-2.194835e+01	-2.054586e+02
1.380000e-06	-2.997386e-06	-3.049217e-09	-2.149650e+01	-2.036157e+02
1.390000e-06	-2.934262e-06	-3.018635e-09	-2.104379e+01	-2.017336e+02
1.400000e-06	-2.870945e-06	-2.974265e-09	-2.058970e+01	-1.998092e+02
1.410000e-06	-2.807528e-06	-2.934403e-09	-2.013489e+01	-1.978402e+02
1.420000e-06	-2.744037e-06	-2.908512e-09	-1.967954e+01	-1.958249e+02
1.430000e-06	-2.680397e-06	-2.885700e-09	-1.922313e+01	-1.937627e+02
1.440000e-06	-2.616706e-06	-2.852426e-09	-1.876636e+01	-1.916533e+02
1.450000e-06	-2.552886e-06	-2.813583e-09	-1.830866e+01	-1.894974e+02
1.460000e-06	-2.488975e-06	-2.779420e-09	-1.785031e+01	-1.872965e+02
1.470000e-06	-2.424973e-06	-2.752834e-09	-1.739130e+01	-1.850525e+02
1.480000e-06	-2.360701e-06	-2.726973e-09	-1.693036e+01	-1.827680e+02
1.490000e-06	-2.296213e-06	-2.688940e-09	-1.646787e+01	-1.804460e+02
1.500000e-06	-2.231500e-06	-2.644513e-09	-1.600376e+01	-1.780898e+02
1.510000e-06	-2.166603e-06	-2.604006e-09	-1.553834e+01	-1.757029e+02
1.520000e-06	-2.101613e-06	-2.572445e-09	-1.507224e+01	-1.732886e+02
1.530000e-06	-2.036378e-06	-2.545511e-09	-1.460439e+01	-1.708505e+02
1.540000e-06	-1.970817e-06	-2.511219e-09	-1.413421e+01	-1.683917e+02
1.550000e-06	-1.905029e-06	-2.476018e-09	-1.366239e+01	-1.659150e+02
1.560000e-06	-1.839103e-06	-2.444327e-09	-1.318958e+01	-1.634226e+02
1.570000e-06	-1.773161e-06	-2.418998e-09	-1.271666e+01	-1.609163e+02
1.580000e-06	-1.706958e-06	-2.386396e-09	-1.224187e+01	-1.583972e+02
1.590000e-06	-1.640387e-06	-2.342512e-09	-1.176445e+01	-1.558658e+02
1.600000e-06	-1.573699e-06	-2.292164e-09	-1.128618e+01	-1.533217e+02
1.610000e-06	-1.506897e-06	-2.246131e-09	-1.080709e+01	-1.507639e+02
1.620000e-06	-1.439934e-06	-2.208205e-09	-1.032685e+01	-1.481907e+02
1.630000e-06	-1.372816e-06	-2.166165e-09	-9.845493e+00	-1.455998e+02
1.640000e-06	-1.305564e-06	-2.121530e-09	-9.363182e+00	-1.429883e+02
1.650000e-06	-1.238205e-06	-2.078930e-09	-8.880097e+00	-1.403527e+02
1.660000e-06	-1.170752e-06	-2.040006e-09	-8.396337e+00	-1.376895e+02
1.670000e-06	-1.103208e-06	-2.002599e-09	-7.911935e+00	-1.349946e+02
1.680000e-06	-1.035713e-06	-1.961546e-09	-7.427874e+00	-1.322639e+02
1.690000e-06	-9.681954e-07	-1.912685e-09	-6.943656e+00	-1.294934e+02
1.700000e-06	-9.006280e-07	-1.860772e-09	-6.459079e+00	-1.266792e+02
1.710000e-06	-8.330848e-07	-1.813797e-09	-5.974676e+00	-1.238177e+02
1.720000e-06	-7.654795e-07	-1.772607e-09	-5.489828e+00	-1.209056e+02
1.730000e-06	-6.977790e-07	-1.726625e-09	-5.004297e+00	-1.179403e+02
1.740000e-06	-6.300402e-07	-1.678419e-09	-4.518491e+00	-1.149194e+02
1.750000e-06	-5.623600e-07	-1.636070e-09	-4.033105e+00	-1.118416e+02
1.760000e-06	-4.946949e-07	-1.594331e-09	-3.547828e+00	-1.087059e+02
1.770000e-06	-4.269457e-07	-1.551940e-09	-3.061948e+00	-1.055122e+02
1.780000e-06	-3.591737e-07	-1.502201e-09	-2.575904e+00	-1.022610e+02
1.790000e-06	-2.914109e-07	-1.451316e-09	-2.089926e+00	-9.895354e+01
1.800000e-06	-2.236199e-07	-1.402546e-09	-1.603746e+00	-9.559149e+01
1.810000e-06	-1.558160e-07	-1.352922e-09	-1.117474e+00	-9.217713e+01
1.820000e-06	-8.802701e-08	-1.305461e-09	-6.313077e-01	-8.871312e+01
1.830000e-06	-2.025192e-08	-1.251617e-09	-1.452417e-01	-8.520245e+01
1.840000e-06	4.752241e-08	-1.196991e-09	3.408189e-01	-8.164825e+01
1.850000e-06	1.152908e-07	-1.144000e-09	8.268368e-01	-7.805373e+01
1.860000e-06	1.830902e-07	-1.095102e-09	1.313078e+00	-7.442200e+01
1.870000e-06	2.508944e-07	-1.049485e-09	1.799352e+00	-7.075597e+01
1.880000e-06	3.186607e-07	-9.976452e-10	2.285355e+00	-6.705823e+01
1.890000e-06	3.864323e-07	-9.436375e-10	2.771396e+00	-6.333094e+01
1.900000e-06	4.541407e-07	-8.895077e-10	3.256984e+00	-5.957571e+01
1.910000e-06	5.218604e-07	-8.350948e-10	3.742652e+00	-5.579359e+01
1.920000e-06	5.896294e-07	-7.772657e-10	4.228675e+00	-5.198499e+01
1.930000e-06	6.573245e-07	-7.147411e-10	4.714167e+00	-4.814964e+01
1.940000e-06	7.249431e-07	-6.555466e-10	5.199111e+00	-4.428663e+01
1.950000e-06	7.925762e-07	-5.989435e-10	5.684158e+00	-4.039441e+01
1.960000e-06	8.602215e-07	-5.460984e-10	6.169294e+00	-3.647086e+01
1.970000e-06	9.277985e-07	-4.917512e-10	6.653939e+00	-3.251340e+01
1.980000e-06	9.952801e-07	-4.348043e-10	7.137900e+00	-2.851901e+01
1.990000e-06	1.062707e-06	-3.756095e-10	7.621467e+00	-2.448445e+01
2.000000e-06	1.130098e-06	-3.130693e-10	8.104781e+00	-2.040634e+01
2.010000e-06	1.197436e-06	-2.498465e-10	8.587709e+00	-1.628130e+01
2.020000e-06	1.264708e-06	-1.846506e-10	9.070173e+00	-1.210616e+01
2.030000e-06	1.331903e-06	-1.177860e-10	9.552079e+00	-7.878048e+00
2.040000e-06	1.399020e-06	-5.356426e-11	1.003342e+01	-3.594596e+00
2.050000e-06	1.466001e-06	9.389412e-12	1.051379e+01	7.459479e-01
2.060000e-06	1.532829e-06	7.084022e-11	1.099307e+01	5.144579e+00
2.070000e-06	1.599592e-06	1.316155e-10	1.147187e+01	9.601429e+00
2.080000e-06	1.666229e-06	1.966593e-10	1.194978e+01	1.411568e+01
2.090000e-06	1.732650e-06	2.633743e-10	1.242613e+01	1.868549e+01
2.100000e-06	1.798851e-06	3.326991e-10	1.290091e+01	2.330798e+01
2.110000e-06	1.864741e-06	4.042614e-10	1.337345e+01	2.797920e+01
2.120000e-06	1.930283e-06	4.787944e-10	1.384351e+01	3.269420e+01
2.130000e-06	1.995568e-06	5.504873e-10	1.431172e+01	3.744702e+01
2.140000e-06	2.060601e-06	6.208712e-10	1.477811e+01	4.223083e+01
2.150000e-06	2.125489e-06	6.891723e-10	1.524347e+01	4.703801e+01
2.160000e-06	2.190268e-06	7.565420e-10	1.570806e+01	5.186032e+01
2.170000e-06	2.254787e-06	8.243867e-10	1.617077e+01	5.668898e+01
2.180000e-06	2.319154e-06	8.958550e-10	1.663239e+01	6.151494e+01
2.190000e-06	2.383365e-06	9.696919e-10	1.709290e+01	6.632897e+01
2.200000e-06	2.447330e-06	1.042942e-09	1.755164e+01	7.112189e+01
2.210000e-06	2.511152e-06	1.115343e-09	1.800935e+01	7.588474e+01
2.220000e-06	2.574946e-06	1.189834e-09	1.846687e+01	8.060897e+01
2.230000e-06	2.638690e-06	1.262585e-09	1.892403e+01	8.528660e+01
2.240000e-06	2.702377e-06	1.331402e-09	1.938077e+01	8.991035e+01
2.250000e-06	2.765938e-06	1.399387e-09	1.983662e+01	9.447383e+01
2.260000e-06	2.829218e-06	1.463466e-09	2.029044e+01	9.897156e+01
2.270000e-06	2.892301e-06	1.525346e-09	2.074286e+01	1.033991e+02
2.280000e-06	2.955325e-06	1.586912e-09	2.119485e+01	1.077532e+02
2.290000e-06	3.018081e-06	1.649003e-09	2.164492e+01	1.120314e+02
2.300000e-06	3.080587e-06	1.710242e-09	2.209320e+01	1.162328e+02
2.310000e-06	3.142923e-06	1.771319e-09	2.254026e+01	1.203571e+02
2.320000e-06	3.205018e-06	1.833723e-09	2.298559e+01	1.244053e+02
2.330000e-06	3.266940e-06	1.897104e-09	2.342968e+01	1.283790e+02
2.340000e-06	3.328631e-06	1.954723e-09	2.387211e+01	1.322808e+02
2.350000e-06	3.390171e-06	2.007805e-09	2.431346e+01	1.361136e+02
2.360000e-06	3.451550e-06	2.061974e-09	2.475365e+01	1.398811e+02
2.370000e-06	3.512535e-06	2.116520e-09	2.519102e+01	1.435870e+02
2.380000e-06	3.573076e-06	2.168242e-09	2.562521e+01	1.472354e+02
2.390000e-06	3.633366e-06	2.221576e-09	2.605759e+01	1.508301e+02
2.400000e-06	3.693468e-06	2.275032e-09	2.648863e+01	1.543748e+02
2.410000e-06	3.753433e-06	2.326319e-09	2.691868e+01	1.578728e+02
2.420000e-06	3.813289e-06	2.379175e-09	2.734796e+01	1.613271e+02
2.430000e-06	3.872991e-06	2.433922e-09	2.777612e+01	1.647399e+02
2.440000e-06	3.932558e-06	2.484538e-09	2.820332e+01	1.681129e+02
2.450000e-06	3.991806e-06	2.533341e-09	2.862823e+01	1.714469e+02
2.460000e-06	4.050730e-06	2.580355e-09	2.905083e+01	1.747420e+02
2.470000e-06	4.109266e-06	2.625345e-09	2.947063e+01	1.779977e+02
2.480000e-06	4.167442e-06	2.666746e-09	2.988785e+01	1.812127e+02
2.490000e-06	4.225157e-06	2.706557e-09	3.030177e+01	1.843848e+02
2.500000e-06	4.282205e-06	2.752118e-09	3.071091e+01	1.875115e+02
2.510000e-06	4.338759e-06	2.799970e-09	3.111650e+01	1.905897e+02
2.520000e-06	4.394931e-06	2.844539e-09	3.151935e+01	1.936160e+02
2.530000e-06	4.450836e-06	2.888487e-09	3.192028e+01	1.965867e+02
2.540000e-06	4.506608e-06	2.934288e-09	3.232026e+01	1.994981e+02
2.550000e-06	4.562229e-06	2.977399e-09	3.271917e+01	2.023465e+02
2.560000e-06	4.617613e-06	3.016924e-09	3.311637e+01	2.051286e+02
2.570000e-06	4.672791e-06	3.055093e-09	3.351209e+01	2.078411e+02
2.580000e-06	4.727680e-06	3.090863e-09	3.390574e+01	2.104817e+02
2.590000e-06	4.782161e-06	3.122781e-09	3.429646e+01	2.130483e+02
2.600000e-06	4.836224e-06	3.157691e-09	3.468419e+01	2.155397e+02
2.610000e-06	4.890000e-06	3.195819e-09	3.506986e+01	2.179554e+02
2.620000e-06	4.943498e-06	3.232285e-09	3.545353e+01	2.202959e+02
2.630000e-06	4.996694e-06	3.267929e-09	3.583504e+01	2.225623e+02
2.640000e-06	5.049521e-06	3.305150e-09	3.621390e+01	2.247567e+02
2.650000e-06	5.101885e-06	3.340201e-09	3.658944e+01	2.268818e+02
2.660000e-06	5.153728e-06	3.371198e-09	3.696125e+01	2.289414e+02
2.670000e-06	5.205154e-06	3.397647e-09	3.733007e+01	2.309395e+02
2.680000e-06	5.256337e-06	3.424615e-09	3.769713e+01	2.328809e+02
2.690000e-06	5.306893e-06	3.454019e-09	3.805971e+01	2.347706e+02
2.700000e-06	5.356715e-06	3.484937e-09	3.841702e+01	2.366139e+02
2.710000e-06	5.406001e-06	3.516632e-09	3.877049e+01	2.384163e+02
2.720000e-06	5.454723e-06	3.546428e-09	3.911991e+01	2.401831e+02
2.730000e-06	5.503037e-06	3.575125e-09	3.946641e+01	2.419193e+02
2.740000e-06	5.551020e-06	3.605269e-09	3.981053e+01	2.436297e+02
2.750000e-06	5.598713e-06	3.635820e-09	4.015257e+01	2.453184e+02
2.760000e-06	5.646080e-06	3.660034e-09	4.049227e+01	2.469889e+02
2.770000e-06	5.693041e-06	3.678002e-09	4.082907e+01	2.486439e+02
2.780000e-06	5.739515e-06	3.698030e-09	4.116237e+01	2.502855e+02
2.790000e-06	5.785486e-06	3.725467e-09	4.149206e+01	2.519146e+02
2.800000e-06	5.831136e-06	3.754546e-09	4.181945e+01	2.535314e+02
2.810000e-06	5.876456e-06	3.779024e-09	4.214448e+01	2.551353e+02
2.820000e-06	5.921419e-06	3.801742e-09	4.246694e+01	2.567246e+02
2.830000e-06	5.965946e-06	3.827589e-09	4.278627e+01	2.582971e+02
2.840000e-06	6.010118e-06	3.853677e-09	4.310306e+01	2.598497e+02
2.850000e-06	6.054046e-06	3.877537e-09	4.341810e+01	2.613790e+02
2.860000e-06	6.097645e-06	3.900149e-09	4.373079e+01	2.628810e+02
2.870000e-06	6.140994e-06	3.920878e-09	4.404168e+01	2.643514e+02
2.880000e-06	6.183955e-06	3.938535e-09	4.434978e+01	2.657860e+02
2.890000e-06	6.226202e-06	3.958467e-09	4.465276e+01	2.671805e+02
2.900000e-06	6.267618e-06	3.983144e-09	4.494979e+01	2.685310e+02
