# Temperatura_=_20.0
# Concentracion g/m^3_=_12600.0
# C_Vs_to_Am_M_A/Vsm_=_65563218390.804596
# pendiente_HvsI_1/m_=_3716.3
# ordenada_HvsI_A/m_=_1297.0
# frecuencia_Hz_=_301835.15311717446

Tiempo_(s)	Campo_(V.s)	Magnetizacion_(V.s)	Campo_(kA/m)	Magnetizacion_(A/m)
0.000000e+00	-5.356889e-06	-3.006151e-09	-3.827545e+01	-1.974828e+02
1.000000e-08	-5.354255e-06	-3.004090e-09	-3.825663e+01	-1.974193e+02
2.000000e-08	-5.349770e-06	-3.001460e-09	-3.822459e+01	-1.973008e+02
3.000000e-08	-5.343645e-06	-2.999541e-09	-3.818082e+01	-1.971269e+02
4.000000e-08	-5.335946e-06	-2.998069e-09	-3.812582e+01	-1.968994e+02
5.000000e-08	-5.326383e-06	-2.996145e-09	-3.805749e+01	-1.966223e+02
6.000000e-08	-5.314764e-06	-2.991392e-09	-3.797447e+01	-1.963015e+02
7.000000e-08	-5.301297e-06	-2.981125e-09	-3.787824e+01	-1.959446e+02
8.000000e-08	-5.285782e-06	-2.985708e-09	-3.776739e+01	-1.955601e+02
9.000000e-08	-5.268048e-06	-2.999914e-09	-3.764068e+01	-1.951565e+02
1.000000e-07	-5.248295e-06	-2.992052e-09	-3.749954e+01	-1.947417e+02
1.100000e-07	-5.226684e-06	-2.976437e-09	-3.734513e+01	-1.943218e+02
1.200000e-07	-5.203308e-06	-2.946019e-09	-3.717810e+01	-1.939006e+02
1.300000e-07	-5.178243e-06	-2.901027e-09	-3.699901e+01	-1.934792e+02
1.400000e-07	-5.151623e-06	-2.942457e-09	-3.680881e+01	-1.930554e+02
1.500000e-07	-5.123523e-06	-2.962437e-09	-3.660803e+01	-1.926244e+02
1.600000e-07	-5.093971e-06	-2.906311e-09	-3.639688e+01	-1.921788e+02
1.700000e-07	-5.062886e-06	-2.920837e-09	-3.617477e+01	-1.917094e+02
1.800000e-07	-5.029703e-06	-2.888800e-09	-3.593768e+01	-1.912061e+02
1.900000e-07	-4.994555e-06	-2.864005e-09	-3.568654e+01	-1.906592e+02
2.000000e-07	-4.957978e-06	-2.922444e-09	-3.542520e+01	-1.900595e+02
2.100000e-07	-4.919716e-06	-2.875446e-09	-3.515181e+01	-1.893998e+02
2.200000e-07	-4.879565e-06	-2.821537e-09	-3.486493e+01	-1.886750e+02
2.300000e-07	-4.837400e-06	-2.844382e-09	-3.456366e+01	-1.878826e+02
2.400000e-07	-4.793352e-06	-2.835206e-09	-3.424893e+01	-1.870226e+02
2.500000e-07	-4.747642e-06	-2.830213e-09	-3.392233e+01	-1.860972e+02
2.600000e-07	-4.699974e-06	-2.805651e-09	-3.358174e+01	-1.851100e+02
2.700000e-07	-4.650097e-06	-2.761009e-09	-3.322536e+01	-1.840659e+02
2.800000e-07	-4.598240e-06	-2.766342e-09	-3.285484e+01	-1.829699e+02
2.900000e-07	-4.544688e-06	-2.779138e-09	-3.247220e+01	-1.818267e+02
3.000000e-07	-4.489548e-06	-2.744957e-09	-3.207822e+01	-1.806400e+02
3.100000e-07	-4.432681e-06	-2.693446e-09	-3.167190e+01	-1.794122e+02
3.200000e-07	-4.373977e-06	-2.689344e-09	-3.125246e+01	-1.781443e+02
3.300000e-07	-4.313735e-06	-2.693001e-09	-3.082202e+01	-1.768361e+02
3.400000e-07	-4.252112e-06	-2.669989e-09	-3.038172e+01	-1.754860e+02
3.500000e-07	-4.189052e-06	-2.644451e-09	-2.993115e+01	-1.740918e+02
3.600000e-07	-4.124443e-06	-2.608164e-09	-2.946952e+01	-1.726510e+02
3.700000e-07	-4.058168e-06	-2.591712e-09	-2.899597e+01	-1.711613e+02
3.800000e-07	-3.990368e-06	-2.592661e-09	-2.851153e+01	-1.696206e+02
3.900000e-07	-3.921281e-06	-2.560167e-09	-2.801791e+01	-1.680280e+02
4.000000e-07	-3.850999e-06	-2.513201e-09	-2.751573e+01	-1.663830e+02
4.100000e-07	-3.779431e-06	-2.486275e-09	-2.700437e+01	-1.646860e+02
4.200000e-07	-3.706441e-06	-2.482920e-09	-2.648285e+01	-1.629382e+02
4.300000e-07	-3.631898e-06	-2.463454e-09	-2.595024e+01	-1.611410e+02
4.400000e-07	-3.555858e-06	-2.419541e-09	-2.540692e+01	-1.592959e+02
4.500000e-07	-3.478345e-06	-2.381643e-09	-2.485309e+01	-1.574039e+02
4.600000e-07	-3.399350e-06	-2.365667e-09	-2.428866e+01	-1.554660e+02
4.700000e-07	-3.319067e-06	-2.352360e-09	-2.371503e+01	-1.534821e+02
4.800000e-07	-3.237578e-06	-2.312158e-09	-2.313279e+01	-1.514518e+02
4.900000e-07	-3.154993e-06	-2.265163e-09	-2.254271e+01	-1.493739e+02
5.000000e-07	-3.071449e-06	-2.234527e-09	-2.194578e+01	-1.472468e+02
5.100000e-07	-2.986990e-06	-2.215987e-09	-2.134231e+01	-1.450686e+02
5.200000e-07	-2.901550e-06	-2.189019e-09	-2.073183e+01	-1.428375e+02
5.300000e-07	-2.815120e-06	-2.143851e-09	-2.011429e+01	-1.405516e+02
5.400000e-07	-2.727789e-06	-2.097676e-09	-1.949030e+01	-1.382095e+02
5.500000e-07	-2.639431e-06	-2.070793e-09	-1.885897e+01	-1.358101e+02
5.600000e-07	-2.549898e-06	-2.052558e-09	-1.821925e+01	-1.333526e+02
5.700000e-07	-2.459253e-06	-2.015483e-09	-1.757158e+01	-1.308365e+02
5.800000e-07	-2.367658e-06	-1.960829e-09	-1.691713e+01	-1.282614e+02
5.900000e-07	-2.275242e-06	-1.912756e-09	-1.625681e+01	-1.256270e+02
6.000000e-07	-2.182081e-06	-1.880641e-09	-1.559116e+01	-1.229327e+02
6.100000e-07	-2.088168e-06	-1.849234e-09	-1.492015e+01	-1.201780e+02
6.200000e-07	-1.993542e-06	-1.803753e-09	-1.424404e+01	-1.173618e+02
6.300000e-07	-1.898295e-06	-1.748214e-09	-1.356348e+01	-1.144832e+02
6.400000e-07	-1.802334e-06	-1.700780e-09	-1.287784e+01	-1.115410e+02
6.500000e-07	-1.705627e-06	-1.666428e-09	-1.218686e+01	-1.085342e+02
6.600000e-07	-1.608165e-06	-1.630063e-09	-1.149048e+01	-1.054619e+02
6.700000e-07	-1.509961e-06	-1.579242e-09	-1.078880e+01	-1.023237e+02
6.800000e-07	-1.411176e-06	-1.519720e-09	-1.008298e+01	-9.911941e+01
6.900000e-07	-1.311915e-06	-1.466357e-09	-9.373748e+00	-9.584957e+01
7.000000e-07	-1.212291e-06	-1.421740e-09	-8.661925e+00	-9.251496e+01
7.100000e-07	-1.112380e-06	-1.374265e-09	-7.948058e+00	-8.911663e+01
7.200000e-07	-1.012201e-06	-1.314977e-09	-7.232270e+00	-8.565566e+01
7.300000e-07	-9.117336e-07	-1.252991e-09	-6.514418e+00	-8.213300e+01
7.400000e-07	-8.109526e-07	-1.200496e-09	-5.794329e+00	-7.854916e+01
7.500000e-07	-7.098129e-07	-1.155919e-09	-5.071677e+00	-7.490410e+01
7.600000e-07	-6.083528e-07	-1.104596e-09	-4.346735e+00	-7.119711e+01
7.700000e-07	-5.067130e-07	-1.039492e-09	-3.620510e+00	-6.742677e+01
7.800000e-07	-4.048841e-07	-9.723299e-10	-2.892933e+00	-6.359109e+01
7.900000e-07	-3.029070e-07	-9.144000e-10	-2.164298e+00	-5.968761e+01
8.000000e-07	-2.008598e-07	-8.616498e-10	-1.435161e+00	-5.571370e+01
8.100000e-07	-9.873732e-08	-7.991121e-10	-7.054870e-01	-5.166677e+01
8.200000e-07	3.447520e-09	-7.261174e-10	2.463284e-02	-4.754454e+01
8.300000e-07	1.056810e-07	-6.573205e-10	7.550999e-01	-4.334520e+01
8.400000e-07	2.078997e-07	-5.986697e-10	1.485462e+00	-3.906761e+01
8.500000e-07	3.100263e-07	-5.402978e-10	2.215165e+00	-3.471122e+01
8.600000e-07	4.120904e-07	-4.716410e-10	2.944423e+00	-3.027610e+01
8.700000e-07	5.140313e-07	-3.949209e-10	3.672799e+00	-2.576274e+01
8.800000e-07	6.157931e-07	-3.233326e-10	4.399897e+00	-2.117193e+01
8.900000e-07	7.173777e-07	-2.597989e-10	5.125728e+00	-1.650453e+01
9.000000e-07	8.187114e-07	-1.905654e-10	5.849766e+00	-1.176138e+01
9.100000e-07	9.197055e-07	-1.115621e-10	6.571378e+00	-6.943247e+00
9.200000e-07	1.020339e-06	-3.233818e-11	7.290412e+00	-2.050889e+00
9.300000e-07	1.120616e-06	3.848612e-11	8.006899e+00	2.914738e+00
9.400000e-07	1.220522e-06	1.083158e-10	8.720740e+00	7.952189e+00
9.500000e-07	1.320133e-06	1.871908e-10	9.432470e+00	1.305913e+01
9.600000e-07	1.419428e-06	2.708525e-10	1.014194e+01	1.823195e+01
9.700000e-07	1.518198e-06	3.512990e-10	1.084766e+01	2.346530e+01
9.800000e-07	1.616161e-06	4.290829e-10	1.154761e+01	2.875185e+01
9.900000e-07	1.713215e-06	5.102625e-10	1.224107e+01	3.408208e+01
1.000000e-06	1.809496e-06	5.961639e-10	1.292901e+01	3.944426e+01
1.010000e-06	1.905161e-06	6.810830e-10	1.361255e+01	4.482469e+01
1.020000e-06	2.000181e-06	7.600422e-10	1.429148e+01	5.020802e+01
1.030000e-06	2.094437e-06	8.371770e-10	1.496494e+01	5.557785e+01
1.040000e-06	2.187948e-06	9.171535e-10	1.563308e+01	6.091733e+01
1.050000e-06	2.280792e-06	9.998840e-10	1.629646e+01	6.620990e+01
1.060000e-06	2.372967e-06	1.081562e-09	1.695506e+01	7.143988e+01
1.070000e-06	2.464479e-06	1.160561e-09	1.760893e+01	7.659312e+01
1.080000e-06	2.555151e-06	1.238392e-09	1.825678e+01	8.165738e+01
1.090000e-06	2.644599e-06	1.316574e-09	1.889590e+01	8.662254e+01
1.100000e-06	2.732832e-06	1.393686e-09	1.952633e+01	9.148069e+01
1.110000e-06	2.820166e-06	1.468099e-09	2.015034e+01	9.622594e+01
1.120000e-06	2.906627e-06	1.538901e-09	2.076811e+01	1.008542e+02
1.130000e-06	2.992107e-06	1.605619e-09	2.137887e+01	1.053626e+02
1.140000e-06	3.076614e-06	1.669501e-09	2.198268e+01	1.097493e+02
1.150000e-06	3.160293e-06	1.733861e-09	2.258058e+01	1.140132e+02
1.160000e-06	3.243054e-06	1.798007e-09	2.317191e+01	1.181531e+02
1.170000e-06	3.324517e-06	1.858187e-09	2.375397e+01	1.221680e+02
1.180000e-06	3.404684e-06	1.916019e-09	2.432678e+01	1.260570e+02
1.190000e-06	3.483629e-06	1.975200e-09	2.489084e+01	1.298191e+02
1.200000e-06	3.561331e-06	2.035341e-09	2.544603e+01	1.334535e+02
1.210000e-06	3.637825e-06	2.091853e-09	2.599258e+01	1.369598e+02
1.220000e-06	3.712997e-06	2.142138e-09	2.652970e+01	1.403381e+02
1.230000e-06	3.786468e-06	2.188033e-09	2.705465e+01	1.435895e+02
1.240000e-06	3.858302e-06	2.234061e-09	2.756791e+01	1.467157e+02
1.250000e-06	3.928838e-06	2.280407e-09	2.807190e+01	1.497195e+02
1.260000e-06	3.998033e-06	2.323017e-09	2.856630e+01	1.526043e+02
1.270000e-06	4.065943e-06	2.361068e-09	2.905153e+01	1.553742e+02
1.280000e-06	4.132407e-06	2.400186e-09	2.952642e+01	1.580334e+02
1.290000e-06	4.197100e-06	2.443079e-09	2.998866e+01	1.605861e+02
1.300000e-06	4.260246e-06	2.486027e-09	3.043984e+01	1.630363e+02
1.310000e-06	4.322008e-06	2.523433e-09	3.088113e+01	1.653874e+02
1.320000e-06	4.382339e-06	2.553359e-09	3.131221e+01	1.676421e+02
1.330000e-06	4.441298e-06	2.582636e-09	3.173347e+01	1.698025e+02
1.340000e-06	4.498508e-06	2.614444e-09	3.214224e+01	1.718699e+02
1.350000e-06	4.553902e-06	2.644906e-09	3.253804e+01	1.738453e+02
1.360000e-06	4.607744e-06	2.670233e-09	3.292274e+01	1.757293e+02
1.370000e-06	4.659865e-06	2.693360e-09	3.329515e+01	1.775228e+02
1.380000e-06	4.710042e-06	2.720674e-09	3.365367e+01	1.792265e+02
1.390000e-06	4.758272e-06	2.750483e-09	3.399828e+01	1.808416e+02
1.400000e-06	4.804712e-06	2.776428e-09	3.433010e+01	1.823699e+02
1.410000e-06	4.849537e-06	2.797758e-09	3.465038e+01	1.838134e+02
1.420000e-06	4.892782e-06	2.818717e-09	3.495937e+01	1.851743e+02
1.430000e-06	4.934149e-06	2.840005e-09	3.525494e+01	1.864552e+02
1.440000e-06	4.973669e-06	2.859173e-09	3.553731e+01	1.876583e+02
1.450000e-06	5.011574e-06	2.874682e-09	3.580814e+01	1.887859e+02
1.460000e-06	5.047869e-06	2.886677e-09	3.606748e+01	1.898397e+02
1.470000e-06	5.082412e-06	2.898134e-09	3.631429e+01	1.908212e+02
1.480000e-06	5.114995e-06	2.912682e-09	3.654710e+01	1.917316e+02
1.490000e-06	5.145761e-06	2.928218e-09	3.676692e+01	1.925719e+02
1.500000e-06	5.174884e-06	2.940872e-09	3.697501e+01	1.933429e+02
1.510000e-06	5.202354e-06	2.951018e-09	3.717129e+01	1.940462e+02
1.520000e-06	5.227828e-06	2.961105e-09	3.735330e+01	1.946834e+02
1.530000e-06	5.251212e-06	2.971234e-09	3.752038e+01	1.952571e+02
1.540000e-06	5.272809e-06	2.979934e-09	3.767470e+01	1.957705e+02
1.550000e-06	5.292735e-06	2.985552e-09	3.781706e+01	1.962273e+02
1.560000e-06	5.310839e-06	2.987722e-09	3.794642e+01	1.966316e+02
1.570000e-06	5.326879e-06	2.990966e-09	3.806103e+01	1.969879e+02
1.580000e-06	5.340916e-06	2.996641e-09	3.816132e+01	1.972999e+02
1.590000e-06	5.352990e-06	3.003359e-09	3.824759e+01	1.975709e+02
1.600000e-06	5.362812e-06	3.009088e-09	3.831777e+01	1.978030e+02
1.610000e-06	5.370479e-06	3.012328e-09	3.837256e+01	1.979968e+02
1.620000e-06	5.376312e-06	3.015341e-09	3.841423e+01	1.981517e+02
1.630000e-06	5.380402e-06	3.019659e-09	3.844345e+01	1.982655e+02
1.640000e-06	5.382594e-06	3.023645e-09	3.845912e+01	1.983352e+02
1.650000e-06	5.382718e-06	3.023810e-09	3.846000e+01	1.983573e+02
1.660000e-06	5.381006e-06	3.020528e-09	3.844777e+01	1.983281e+02
1.670000e-06	5.377672e-06	3.019262e-09	3.842395e+01	1.982450e+02
1.680000e-06	5.372647e-06	3.018555e-09	3.838804e+01	1.981065e+02
1.690000e-06	5.365726e-06	3.016424e-09	3.833859e+01	1.979131e+02
1.700000e-06	5.357041e-06	3.013466e-09	3.827654e+01	1.976672e+02
1.710000e-06	5.346835e-06	3.009988e-09	3.820362e+01	1.973736e+02
1.720000e-06	5.334943e-06	3.011009e-09	3.811865e+01	1.970388e+02
1.730000e-06	5.321068e-06	2.999265e-09	3.801951e+01	1.966709e+02
1.740000e-06	5.305101e-06	2.969578e-09	3.790542e+01	1.962785e+02
1.750000e-06	5.286850e-06	2.957286e-09	3.777502e+01	1.958700e+02
1.760000e-06	5.266016e-06	2.951617e-09	3.762616e+01	1.954526e+02
1.770000e-06	5.242837e-06	2.976660e-09	3.746054e+01	1.950319e+02
1.780000e-06	5.218266e-06	3.001420e-09	3.728498e+01	1.946105e+02
1.790000e-06	5.192983e-06	2.935946e-09	3.710433e+01	1.941885e+02
1.800000e-06	5.166233e-06	2.932695e-09	3.691320e+01	1.937628e+02
1.810000e-06	5.137198e-06	2.950843e-09	3.670574e+01	1.933274e+02
1.820000e-06	5.106465e-06	2.918769e-09	3.648615e+01	1.928742e+02
1.830000e-06	5.074196e-06	2.969631e-09	3.625559e+01	1.923938e+02
1.840000e-06	5.039917e-06	2.949592e-09	3.601066e+01	1.918759e+02
1.850000e-06	5.003963e-06	2.887079e-09	3.575377e+01	1.913109e+02
1.860000e-06	4.966306e-06	2.941212e-09	3.548470e+01	1.906904e+02
1.870000e-06	4.926772e-06	2.930532e-09	3.520223e+01	1.900078e+02
1.880000e-06	4.885555e-06	2.891316e-09	3.490773e+01	1.892589e+02
1.890000e-06	4.842464e-06	2.896102e-09	3.459984e+01	1.884421e+02
1.900000e-06	4.797736e-06	2.862332e-09	3.428026e+01	1.875583e+02
1.910000e-06	4.751334e-06	2.883807e-09	3.394871e+01	1.866102e+02
1.920000e-06	4.702942e-06	2.873282e-09	3.360294e+01	1.856020e+02
1.930000e-06	4.652836e-06	2.812028e-09	3.324493e+01	1.845386e+02
1.940000e-06	4.600862e-06	2.806726e-09	3.287357e+01	1.834252e+02
1.950000e-06	4.546835e-06	2.813257e-09	3.248755e+01	1.822659e+02
1.960000e-06	4.491031e-06	2.815306e-09	3.208882e+01	1.810642e+02
1.970000e-06	4.433602e-06	2.759044e-09	3.167848e+01	1.798219e+02
1.980000e-06	4.374632e-06	2.714616e-09	3.125714e+01	1.785397e+02
1.990000e-06	4.314110e-06	2.719838e-09	3.082470e+01	1.772166e+02
2.000000e-06	4.251986e-06	2.704601e-09	3.038082e+01	1.758509e+02
2.010000e-06	4.188304e-06	2.703871e-09	2.992581e+01	1.744402e+02
2.020000e-06	4.123077e-06	2.653462e-09	2.945975e+01	1.729821e+02
2.030000e-06	4.056386e-06	2.602236e-09	2.898324e+01	1.714742e+02
2.040000e-06	3.988327e-06	2.608663e-09	2.849696e+01	1.699150e+02
2.050000e-06	3.918868e-06	2.600361e-09	2.800066e+01	1.683035e+02
2.060000e-06	3.847926e-06	2.569029e-09	2.749378e+01	1.666397e+02
2.070000e-06	3.775514e-06	2.504635e-09	2.697639e+01	1.649243e+02
2.080000e-06	3.701808e-06	2.476374e-09	2.644975e+01	1.631586e+02
2.090000e-06	3.626831e-06	2.482003e-09	2.591404e+01	1.613440e+02
2.100000e-06	3.550401e-06	2.458180e-09	2.536793e+01	1.594819e+02
2.110000e-06	3.472369e-06	2.408039e-09	2.481039e+01	1.575733e+02
2.120000e-06	3.392889e-06	2.360778e-09	2.424250e+01	1.556189e+02
2.130000e-06	3.312292e-06	2.351740e-09	2.366662e+01	1.536184e+02
2.140000e-06	3.230598e-06	2.336652e-09	2.308291e+01	1.515712e+02
2.150000e-06	3.147794e-06	2.296110e-09	2.249127e+01	1.494757e+02
2.160000e-06	3.064009e-06	2.242326e-09	2.189262e+01	1.473305e+02
2.170000e-06	2.979206e-06	2.199586e-09	2.128669e+01	1.451335e+02
2.180000e-06	2.893176e-06	2.182070e-09	2.067201e+01	1.428829e+02
2.190000e-06	2.805862e-06	2.156573e-09	2.004814e+01	1.405769e+02
2.200000e-06	2.717521e-06	2.111242e-09	1.941693e+01	1.382144e+02
2.210000e-06	2.628281e-06	2.059010e-09	1.877930e+01	1.357941e+02
2.220000e-06	2.538114e-06	2.024772e-09	1.813505e+01	1.333156e+02
2.230000e-06	2.447089e-06	1.998030e-09	1.748467e+01	1.307784e+02
2.240000e-06	2.355305e-06	1.959899e-09	1.682887e+01	1.281820e+02
2.250000e-06	2.262812e-06	1.911200e-09	1.616799e+01	1.255262e+02
2.260000e-06	2.169468e-06	1.860966e-09	1.550104e+01	1.228103e+02
2.270000e-06	2.075130e-06	1.820973e-09	1.482699e+01	1.200336e+02
2.280000e-06	1.979794e-06	1.784933e-09	1.414580e+01	1.171951e+02
2.290000e-06	1.883664e-06	1.742251e-09	1.345895e+01	1.142938e+02
2.300000e-06	1.787013e-06	1.691223e-09	1.276837e+01	1.113286e+02
2.310000e-06	1.689935e-06	1.641745e-09	1.207474e+01	1.082983e+02
2.320000e-06	1.592271e-06	1.599132e-09	1.137692e+01	1.052024e+02
2.330000e-06	1.494002e-06	1.556300e-09	1.067478e+01	1.020404e+02
2.340000e-06	1.395304e-06	1.503093e-09	9.969569e+00	9.881252e+01
2.350000e-06	1.296169e-06	1.444584e-09	9.261246e+00	9.551932e+01
2.360000e-06	1.196652e-06	1.390678e-09	8.550183e+00	9.216170e+01
2.370000e-06	1.096846e-06	1.344547e-09	7.837066e+00	8.874075e+01
2.380000e-06	9.968323e-07	1.298304e-09	7.122456e+00	8.525754e+01
2.390000e-06	8.966289e-07	1.241569e-09	6.406494e+00	8.171287e+01
2.400000e-06	7.961396e-07	1.179624e-09	5.688488e+00	7.810709e+01
2.410000e-06	6.952882e-07	1.124498e-09	4.967896e+00	7.443990e+01
2.420000e-06	5.941015e-07	1.078124e-09	4.244908e+00	7.071036e+01
2.430000e-06	4.926853e-07	1.024867e-09	3.520280e+00	6.691682e+01
2.440000e-06	3.910918e-07	9.570583e-10	2.794386e+00	6.305709e+01
2.450000e-06	2.891977e-07	8.883683e-10	2.066344e+00	5.912865e+01
2.460000e-06	1.870335e-07	8.316129e-10	1.336371e+00	5.512882e+01
2.470000e-06	8.474710e-08	7.785992e-10	6.055256e-01	5.105511e+01
2.480000e-06	-1.759454e-08	7.145544e-10	-1.257146e-01	4.690539e+01
2.490000e-06	-1.199359e-07	6.420406e-10	-8.569530e-01	4.267809e+01
2.500000e-06	-2.222179e-07	5.757651e-10	-1.587767e+00	3.837225e+01
2.510000e-06	-3.244012e-07	5.185982e-10	-2.317876e+00	3.398759e+01
2.520000e-06	-4.264095e-07	4.577348e-10	-3.046734e+00	2.952433e+01
2.530000e-06	-5.281156e-07	3.832052e-10	-3.773433e+00	2.498309e+01
2.540000e-06	-6.295583e-07	3.027003e-10	-4.498251e+00	2.036470e+01
2.550000e-06	-7.307080e-07	2.316373e-10	-5.220974e+00	1.567004e+01
2.560000e-06	-8.315100e-07	1.673456e-10	-5.941213e+00	1.089990e+01
2.570000e-06	-9.319474e-07	9.521183e-11	-6.658848e+00	6.055039e+00
2.580000e-06	-1.032050e-06	1.154469e-11	-7.374092e+00	1.136262e+00
2.590000e-06	-1.131915e-06	-7.118045e-11	-8.087636e+00	-3.855343e+00
2.600000e-06	-1.231527e-06	-1.430594e-10	-8.799373e+00	-8.918062e+00
2.610000e-06	-1.330715e-06	-2.112029e-10	-9.508081e+00	-1.404915e+01
2.620000e-06	-1.429375e-06	-2.881415e-10	-1.021301e+01	-1.924442e+01
2.630000e-06	-1.527523e-06	-3.748606e-10	-1.091429e+01	-2.449785e+01
2.640000e-06	-1.625140e-06	-4.606252e-10	-1.161177e+01	-2.980133e+01
2.650000e-06	-1.722162e-06	-5.396671e-10	-1.230500e+01	-3.514455e+01
2.660000e-06	-1.818582e-06	-6.184789e-10	-1.299393e+01	-4.051504e+01
2.670000e-06	-1.914532e-06	-7.050879e-10	-1.367950e+01	-4.589846e+01
2.680000e-06	-2.010053e-06	-7.948244e-10	-1.436201e+01	-5.127901e+01
2.690000e-06	-2.104809e-06	-8.781264e-10	-1.503905e+01	-5.664006e+01
2.700000e-06	-2.198353e-06	-9.530436e-10	-1.570743e+01	-6.196478e+01
2.710000e-06	-2.290785e-06	-1.025084e-09	-1.636786e+01	-6.723684e+01
2.720000e-06	-2.382446e-06	-1.102140e-09	-1.702279e+01	-7.244108e+01
2.730000e-06	-2.473397e-06	-1.182673e-09	-1.767264e+01	-7.756396e+01
2.740000e-06	-2.563506e-06	-1.260127e-09	-1.831648e+01	-8.259400e+01
2.750000e-06	-2.652601e-06	-1.332904e-09	-1.895307e+01	-8.752186e+01
2.760000e-06	-2.740833e-06	-1.404103e-09	-1.958350e+01	-9.234039e+01
2.770000e-06	-2.828407e-06	-1.478158e-09	-2.020922e+01	-9.704436e+01
2.780000e-06	-2.915023e-06	-1.553617e-09	-2.082810e+01	-1.016302e+02
2.790000e-06	-3.000315e-06	-1.623185e-09	-2.143752e+01	-1.060954e+02
2.800000e-06	-3.084391e-06	-1.683756e-09	-2.203825e+01	-1.104385e+02
2.810000e-06	-3.167481e-06	-1.742101e-09	-2.263193e+01	-1.146583e+02
2.820000e-06	-3.249595e-06	-1.805054e-09	-2.321865e+01	-1.187539e+02
2.830000e-06	-3.330668e-06	-1.870122e-09	-2.379792e+01	-1.227241e+02
2.840000e-06	-3.410700e-06	-1.929584e-09	-2.436976e+01	-1.265680e+02
2.850000e-06	-3.489343e-06	-1.981288e-09	-2.493167e+01	-1.302847e+02
2.860000e-06	-3.566402e-06	-2.033240e-09	-2.548226e+01	-1.338735e+02
2.870000e-06	-3.642077e-06	-2.091335e-09	-2.602297e+01	-1.373341e+02
2.880000e-06	-3.716358e-06	-2.147674e-09	-2.655371e+01	-1.406670e+02
2.890000e-06	-3.789300e-06	-2.193553e-09	-2.707489e+01	-1.438736e+02
2.900000e-06	-3.860917e-06	-2.233186e-09	-2.758660e+01	-1.469558e+02
2.910000e-06	-3.930957e-06	-2.277945e-09	-2.808704e+01	-1.499169e+02
2.920000e-06	-3.999403e-06	-2.327880e-09	-2.857609e+01	-1.527603e+02
2.930000e-06	-4.066445e-06	-2.372895e-09	-2.905511e+01	-1.554902e+02
2.940000e-06	-4.132100e-06	-2.410000e-09	-2.952423e+01	-1.581110e+02
