# Temperatura_=_20.0
# Concentracion g/m^3_=_12600.0
# C_Vs_to_Am_M_A/Vsm_=_65563218390.804596
# pendiente_HvsI_1/m_=_3716.3
# ordenada_HvsI_A/m_=_1297.0
# frecuencia_Hz_=_301838.2074224363

Tiempo_(s)	Campo_(V.s)	Magnetizacion_(V.s)	Campo_(kA/m)	Magnetizacion_(A/m)
0.000000e+00	-5.381322e-06	-2.101727e-10	-3.827582e+01	-1.408239e+01
1.000000e-08	-5.378361e-06	-2.071334e-10	-3.825475e+01	-1.404430e+01
2.000000e-08	-5.373649e-06	-2.033188e-10	-3.822124e+01	-1.399641e+01
3.000000e-08	-5.367326e-06	-2.043403e-10	-3.817626e+01	-1.393637e+01
4.000000e-08	-5.359413e-06	-2.046658e-10	-3.811998e+01	-1.386250e+01
5.000000e-08	-5.349591e-06	-2.030871e-10	-3.805012e+01	-1.377423e+01
6.000000e-08	-5.337719e-06	-1.954124e-10	-3.796568e+01	-1.367247e+01
7.000000e-08	-5.323994e-06	-1.696652e-10	-3.786806e+01	-1.355972e+01
8.000000e-08	-5.308131e-06	-1.954224e-10	-3.775523e+01	-1.344010e+01
9.000000e-08	-5.290041e-06	-2.609140e-10	-3.762656e+01	-1.331901e+01
1.000000e-07	-5.269985e-06	-2.344201e-10	-3.748391e+01	-1.320257e+01
1.100000e-07	-5.248059e-06	-2.020969e-10	-3.732796e+01	-1.309700e+01
1.200000e-07	-5.224363e-06	-1.714014e-10	-3.715941e+01	-1.300775e+01
1.300000e-07	-5.198927e-06	-6.713148e-11	-3.697849e+01	-1.293871e+01
1.400000e-07	-5.171879e-06	-2.284909e-10	-3.678611e+01	-1.289155e+01
1.500000e-07	-5.143423e-06	-3.253313e-10	-3.658371e+01	-1.286526e+01
1.600000e-07	-5.113571e-06	-1.058236e-10	-3.637138e+01	-1.285595e+01
1.700000e-07	-5.082108e-06	-1.871514e-10	-3.614759e+01	-1.285712e+01
1.800000e-07	-5.048427e-06	-1.763369e-10	-3.590803e+01	-1.286013e+01
1.900000e-07	-5.012939e-06	-1.071164e-10	-3.565561e+01	-1.285508e+01
2.000000e-07	-4.976089e-06	-3.199182e-10	-3.539351e+01	-1.283181e+01
2.100000e-07	-4.937424e-06	-1.967006e-10	-3.511850e+01	-1.278108e+01
2.200000e-07	-4.896826e-06	-6.531449e-11	-3.482973e+01	-1.269560e+01
2.300000e-07	-4.854193e-06	-2.018150e-10	-3.452649e+01	-1.257091e+01
2.400000e-07	-4.809726e-06	-2.051984e-10	-3.421022e+01	-1.240599e+01
2.500000e-07	-4.763637e-06	-2.236680e-10	-3.388240e+01	-1.220339e+01
2.600000e-07	-4.715569e-06	-1.741509e-10	-3.354050e+01	-1.196903e+01
2.700000e-07	-4.665222e-06	-9.628439e-11	-3.318240e+01	-1.171155e+01
2.800000e-07	-4.612875e-06	-1.836957e-10	-3.281007e+01	-1.144133e+01
2.900000e-07	-4.558881e-06	-2.103658e-10	-3.242602e+01	-1.116939e+01
3.000000e-07	-4.503357e-06	-1.671042e-10	-3.203110e+01	-1.090611e+01
3.100000e-07	-4.446001e-06	-1.274880e-10	-3.162314e+01	-1.066015e+01
3.200000e-07	-4.386803e-06	-1.532373e-10	-3.120209e+01	-1.043752e+01
3.300000e-07	-4.326194e-06	-1.807967e-10	-3.077099e+01	-1.024102e+01
3.400000e-07	-4.264173e-06	-1.579796e-10	-3.032985e+01	-1.007012e+01
3.500000e-07	-4.200735e-06	-1.777758e-10	-2.987864e+01	-9.921184e+00
3.600000e-07	-4.135708e-06	-1.510996e-10	-2.941612e+01	-9.788094e+00
3.700000e-07	-4.068923e-06	-1.374574e-10	-2.894109e+01	-9.663157e+00
3.800000e-07	-4.000681e-06	-1.603720e-10	-2.845571e+01	-9.538147e+00
3.900000e-07	-3.931204e-06	-1.468441e-10	-2.796154e+01	-9.405361e+00
4.000000e-07	-3.860463e-06	-1.573815e-10	-2.745838e+01	-9.258541e+00
4.100000e-07	-3.788465e-06	-1.434959e-10	-2.694628e+01	-9.093557e+00
4.200000e-07	-3.714910e-06	-1.314843e-10	-2.642310e+01	-8.908748e+00
4.300000e-07	-3.639631e-06	-1.277728e-10	-2.588766e+01	-8.704926e+00
4.400000e-07	-3.562911e-06	-1.386426e-10	-2.534197e+01	-8.485029e+00
4.500000e-07	-3.484771e-06	-1.585613e-10	-2.478619e+01	-8.253499e+00
4.600000e-07	-3.405116e-06	-1.409371e-10	-2.421962e+01	-8.015499e+00
4.700000e-07	-3.324222e-06	-1.123612e-10	-2.364425e+01	-7.776066e+00
4.800000e-07	-3.242261e-06	-1.008005e-10	-2.306128e+01	-7.539339e+00
4.900000e-07	-3.159225e-06	-1.348391e-10	-2.247067e+01	-7.307966e+00
5.000000e-07	-3.075238e-06	-1.500134e-10	-2.187330e+01	-7.082763e+00
5.100000e-07	-2.990302e-06	-1.107460e-10	-2.126917e+01	-6.862666e+00
5.200000e-07	-2.904387e-06	-8.028385e-11	-2.065808e+01	-6.644969e+00
5.300000e-07	-2.817519e-06	-1.000138e-10	-2.004021e+01	-6.425801e+00
5.400000e-07	-2.729779e-06	-1.362315e-10	-1.941614e+01	-6.200759e+00
5.500000e-07	-2.640950e-06	-1.287006e-10	-1.878433e+01	-5.965602e+00
5.600000e-07	-2.550762e-06	-8.659184e-11	-1.814284e+01	-5.716893e+00
5.700000e-07	-2.459519e-06	-6.941305e-11	-1.749386e+01	-5.452506e+00
5.800000e-07	-2.367496e-06	-9.414082e-11	-1.683933e+01	-5.171927e+00
5.900000e-07	-2.274653e-06	-1.175666e-10	-1.617896e+01	-4.876314e+00
6.000000e-07	-2.181004e-06	-9.488029e-11	-1.551286e+01	-4.568319e+00
6.100000e-07	-2.086617e-06	-5.411408e-11	-1.484152e+01	-4.251710e+00
6.200000e-07	-1.991563e-06	-5.186103e-11	-1.416542e+01	-3.930867e+00
6.300000e-07	-1.895889e-06	-7.943608e-11	-1.348492e+01	-3.610220e+00
6.400000e-07	-1.799498e-06	-8.603772e-11	-1.279932e+01	-3.293731e+00
6.500000e-07	-1.702223e-06	-5.761488e-11	-1.210743e+01	-2.984479e+00
6.600000e-07	-1.604044e-06	-3.492312e-11	-1.140911e+01	-2.684421e+00
6.700000e-07	-1.505187e-06	-4.226209e-11	-1.070597e+01	-2.394328e+00
6.800000e-07	-1.405905e-06	-5.843685e-11	-9.999801e+00	-2.113921e+00
6.900000e-07	-1.306289e-06	-5.443930e-11	-9.291261e+00	-1.842132e+00
7.000000e-07	-1.206358e-06	-3.187501e-11	-8.580484e+00	-1.577474e+00
7.100000e-07	-1.106020e-06	-1.591018e-11	-7.866803e+00	-1.318415e+00
7.200000e-07	-1.005317e-06	-1.946583e-11	-7.150535e+00	-1.063710e+00
7.300000e-07	-9.042861e-07	-3.101077e-11	-6.431930e+00	-8.126196e-01
7.400000e-07	-8.029380e-07	-2.738153e-11	-5.711070e+00	-5.649929e-01
7.500000e-07	-7.013486e-07	-1.281385e-11	-4.988494e+00	-3.211943e-01
7.600000e-07	-5.994973e-07	-2.502150e-12	-4.264054e+00	-8.189959e-02
7.700000e-07	-4.974063e-07	-2.763343e-12	-3.537910e+00	1.521981e-01
7.800000e-07	-3.950958e-07	-7.857374e-12	-2.810204e+00	3.807128e-01
7.900000e-07	-2.926721e-07	-4.350899e-12	-2.081693e+00	6.038551e-01
8.000000e-07	-1.902055e-07	8.103090e-12	-1.352878e+00	8.226284e-01
8.100000e-07	-8.759375e-08	2.063600e-11	-6.230295e-01	1.038885e+00
8.200000e-07	1.514178e-08	2.059564e-11	1.076992e-01	1.255225e+00
8.300000e-07	1.178905e-07	1.072027e-11	8.385216e-01	1.474739e+00
8.400000e-07	2.205769e-07	8.577310e-12	1.568901e+00	1.700636e+00
8.500000e-07	3.231692e-07	2.361793e-11	2.298611e+00	1.935799e+00
8.600000e-07	4.256934e-07	3.797379e-11	3.027836e+00	2.182353e+00
8.700000e-07	5.281612e-07	3.688218e-11	3.756660e+00	2.441296e+00
8.800000e-07	6.304688e-07	2.946914e-11	4.484345e+00	2.712273e+00
8.900000e-07	7.324284e-07	3.579271e-11	5.209555e+00	2.993513e+00
9.000000e-07	8.340828e-07	5.612997e-11	5.932594e+00	3.281977e+00
9.100000e-07	9.354968e-07	6.653015e-11	6.653923e+00	3.573663e+00
9.200000e-07	1.036612e-06	5.700113e-11	7.373126e+00	3.864068e+00
9.300000e-07	1.137369e-06	4.543684e-11	8.089785e+00	4.148718e+00
9.400000e-07	1.237709e-06	5.513063e-11	8.803471e+00	4.423702e+00
9.500000e-07	1.337630e-06	7.619210e-11	9.514180e+00	4.686134e+00
9.600000e-07	1.437156e-06	8.131814e-11	1.022208e+01	4.934483e+00
9.700000e-07	1.536277e-06	6.944381e-11	1.092710e+01	5.168715e+00
9.800000e-07	1.634760e-06	6.667748e-11	1.162758e+01	5.390239e+00
9.900000e-07	1.732400e-06	8.359310e-11	1.232207e+01	5.601661e+00
1.000000e-06	1.829179e-06	1.003324e-10	1.301043e+01	5.806396e+00
1.010000e-06	1.925149e-06	9.866345e-11	1.369304e+01	6.008178e+00
1.020000e-06	2.020464e-06	8.642093e-11	1.437099e+01	6.210558e+00
1.030000e-06	2.115122e-06	8.711568e-11	1.504426e+01	6.416455e+00
1.040000e-06	2.209000e-06	9.967329e-11	1.571199e+01	6.627824e+00
1.050000e-06	2.302175e-06	1.074730e-10	1.637472e+01	6.845475e+00
1.060000e-06	2.394684e-06	1.044144e-10	1.703271e+01	7.069077e+00
1.070000e-06	2.486428e-06	1.022144e-10	1.768526e+01	7.297328e+00
1.080000e-06	2.577380e-06	1.108728e-10	1.833217e+01	7.528250e+00
1.090000e-06	2.667347e-06	1.250399e-10	1.897208e+01	7.759570e+00
1.100000e-06	2.756136e-06	1.315108e-10	1.960361e+01	7.989109e+00
1.110000e-06	2.843842e-06	1.291903e-10	2.022744e+01	8.215125e+00
1.120000e-06	2.930596e-06	1.281417e-10	2.084450e+01	8.436554e+00
1.130000e-06	3.016379e-06	1.312204e-10	2.145465e+01	8.653107e+00
1.140000e-06	3.101185e-06	1.357469e-10	2.205785e+01	8.865232e+00
1.150000e-06	3.185116e-06	1.383969e-10	2.265483e+01	9.073932e+00
1.160000e-06	3.268076e-06	1.399708e-10	2.324490e+01	9.280495e+00
1.170000e-06	3.349719e-06	1.413553e-10	2.382560e+01	9.486177e+00
1.180000e-06	3.430056e-06	1.445285e-10	2.439702e+01	9.691902e+00
1.190000e-06	3.509357e-06	1.498487e-10	2.496106e+01	9.898027e+00
1.200000e-06	3.587478e-06	1.578060e-10	2.551672e+01	1.010423e+01
1.210000e-06	3.664213e-06	1.624359e-10	2.606251e+01	1.030953e+01
1.220000e-06	3.739514e-06	1.617389e-10	2.659810e+01	1.051241e+01
1.230000e-06	3.813185e-06	1.606576e-10	2.712210e+01	1.071112e+01
1.240000e-06	3.885260e-06	1.640263e-10	2.763475e+01	1.090397e+01
1.250000e-06	3.956042e-06	1.672812e-10	2.813820e+01	1.108968e+01
1.260000e-06	4.025476e-06	1.672602e-10	2.863207e+01	1.126764e+01
1.270000e-06	4.093509e-06	1.674277e-10	2.911596e+01	1.143813e+01
1.280000e-06	4.160098e-06	1.713420e-10	2.958960e+01	1.160232e+01
1.290000e-06	4.224978e-06	1.790811e-10	3.005107e+01	1.176218e+01
1.300000e-06	4.288257e-06	1.847311e-10	3.050115e+01	1.192023e+01
1.310000e-06	4.350081e-06	1.849768e-10	3.094089e+01	1.207916e+01
1.320000e-06	4.410509e-06	1.825779e-10	3.137070e+01	1.224143e+01
1.330000e-06	4.469626e-06	1.849181e-10	3.179118e+01	1.240885e+01
1.340000e-06	4.527064e-06	1.901210e-10	3.219972e+01	1.258223e+01
1.350000e-06	4.582633e-06	1.911181e-10	3.259497e+01	1.276118e+01
1.360000e-06	4.636504e-06	1.885350e-10	3.297814e+01	1.294403e+01
1.370000e-06	4.688618e-06	1.895635e-10	3.334881e+01	1.312798e+01
1.380000e-06	4.738643e-06	1.981399e-10	3.370462e+01	1.330933e+01
1.390000e-06	4.786629e-06	2.074957e-10	3.404593e+01	1.348390e+01
1.400000e-06	4.832957e-06	2.101188e-10	3.437545e+01	1.364748e+01
1.410000e-06	4.877735e-06	2.087730e-10	3.469395e+01	1.379633e+01
1.420000e-06	4.920892e-06	2.099834e-10	3.500091e+01	1.392751e+01
1.430000e-06	4.962128e-06	2.135337e-10	3.529421e+01	1.403922e+01
1.440000e-06	5.001536e-06	2.145468e-10	3.557451e+01	1.413093e+01
1.450000e-06	5.039372e-06	2.134831e-10	3.584362e+01	1.420331e+01
1.460000e-06	5.075615e-06	2.119360e-10	3.610141e+01	1.425810e+01
1.470000e-06	5.110053e-06	2.118941e-10	3.634636e+01	1.429776e+01
1.480000e-06	5.142493e-06	2.152502e-10	3.657709e+01	1.432514e+01
1.490000e-06	5.173146e-06	2.184017e-10	3.679512e+01	1.434311e+01
1.500000e-06	5.202151e-06	2.199333e-10	3.700142e+01	1.435422e+01
1.510000e-06	5.229469e-06	2.201119e-10	3.719573e+01	1.436048e+01
1.520000e-06	5.254776e-06	2.199235e-10	3.737573e+01	1.436325e+01
1.530000e-06	5.277965e-06	2.200956e-10	3.754067e+01	1.436328e+01
1.540000e-06	5.299347e-06	2.194965e-10	3.769275e+01	1.436079e+01
1.550000e-06	5.319094e-06	2.176535e-10	3.783321e+01	1.435568e+01
1.560000e-06	5.337005e-06	2.147390e-10	3.796060e+01	1.434777e+01
1.570000e-06	5.352814e-06	2.130267e-10	3.807305e+01	1.433695e+01
1.580000e-06	5.366634e-06	2.146118e-10	3.817134e+01	1.432333e+01
1.590000e-06	5.378487e-06	2.164781e-10	3.825565e+01	1.430725e+01
1.600000e-06	5.388136e-06	2.158897e-10	3.832428e+01	1.428924e+01
1.610000e-06	5.395689e-06	2.144286e-10	3.837800e+01	1.426978e+01
1.620000e-06	5.401347e-06	2.152321e-10	3.841825e+01	1.424915e+01
1.630000e-06	5.405239e-06	2.180635e-10	3.844593e+01	1.422719e+01
1.640000e-06	5.407217e-06	2.212147e-10	3.846000e+01	1.420313e+01
1.650000e-06	5.407154e-06	2.204869e-10	3.845955e+01	1.417548e+01
1.660000e-06	5.405315e-06	2.124641e-10	3.844647e+01	1.414219e+01
1.670000e-06	5.401833e-06	2.131142e-10	3.842170e+01	1.410075e+01
1.680000e-06	5.396607e-06	2.153136e-10	3.838453e+01	1.404862e+01
1.690000e-06	5.389447e-06	2.139521e-10	3.833361e+01	1.398365e+01
1.700000e-06	5.380574e-06	2.132282e-10	3.827050e+01	1.390449e+01
1.710000e-06	5.370161e-06	2.156451e-10	3.819643e+01	1.381107e+01
1.720000e-06	5.357952e-06	2.419496e-10	3.810959e+01	1.370487e+01
1.730000e-06	5.343660e-06	2.213209e-10	3.800794e+01	1.358898e+01
1.740000e-06	5.327317e-06	1.376938e-10	3.789169e+01	1.346802e+01
1.750000e-06	5.308716e-06	1.594216e-10	3.775939e+01	1.334772e+01
1.760000e-06	5.287404e-06	1.765039e-10	3.760780e+01	1.323434e+01
1.770000e-06	5.263838e-06	2.535432e-10	3.744018e+01	1.313389e+01
1.780000e-06	5.239084e-06	3.390633e-10	3.726412e+01	1.305137e+01
1.790000e-06	5.213582e-06	7.757240e-11	3.708273e+01	1.298995e+01
1.800000e-06	5.186513e-06	1.196456e-10	3.689019e+01	1.295037e+01
1.810000e-06	5.157150e-06	2.689829e-10	3.668134e+01	1.293058e+01
1.820000e-06	5.126098e-06	1.166552e-10	3.646048e+01	1.292575e+01
1.830000e-06	5.093477e-06	3.017678e-10	3.622846e+01	1.292852e+01
1.840000e-06	5.058866e-06	2.248615e-10	3.598227e+01	1.292968e+01
1.850000e-06	5.022598e-06	-1.923315e-11	3.572431e+01	1.291912e+01
1.860000e-06	4.984456e-06	2.866626e-10	3.545302e+01	1.288689e+01
1.870000e-06	4.944512e-06	2.839637e-10	3.516891e+01	1.282431e+01
1.880000e-06	4.902993e-06	1.500762e-10	3.487360e+01	1.272502e+01
1.890000e-06	4.859554e-06	2.174725e-10	3.456463e+01	1.258576e+01
1.900000e-06	4.814569e-06	1.068226e-10	3.424466e+01	1.240676e+01
1.910000e-06	4.767876e-06	2.785559e-10	3.391255e+01	1.219184e+01
1.920000e-06	4.719120e-06	2.570402e-10	3.356576e+01	1.194798e+01
1.930000e-06	4.668652e-06	8.013254e-11	3.320679e+01	1.168455e+01
1.940000e-06	4.616232e-06	2.223941e-10	3.283395e+01	1.141232e+01
1.950000e-06	4.561678e-06	1.688530e-10	3.244592e+01	1.114221e+01
1.960000e-06	4.505367e-06	1.751867e-10	3.204539e+01	1.088410e+01
1.970000e-06	4.447383e-06	1.564267e-10	3.163297e+01	1.064580e+01
1.980000e-06	4.387969e-06	1.293552e-10	3.121038e+01	1.043221e+01
1.990000e-06	4.327078e-06	2.228146e-10	3.077728e+01	1.024494e+01
2.000000e-06	4.264459e-06	1.065742e-10	3.033189e+01	1.008231e+01
2.010000e-06	4.200238e-06	1.591471e-10	2.987510e+01	9.939697e+00
2.020000e-06	4.134539e-06	1.699586e-10	2.940781e+01	9.810311e+00
2.030000e-06	4.067480e-06	1.404658e-10	2.893083e+01	9.686145e+00
2.040000e-06	3.998989e-06	1.835271e-10	2.844367e+01	9.559044e+00
2.050000e-06	3.928890e-06	9.085703e-11	2.794508e+01	9.421724e+00
2.060000e-06	3.857286e-06	1.435274e-10	2.743578e+01	9.268625e+00
2.070000e-06	3.784404e-06	1.437772e-10	2.691739e+01	9.096477e+00
2.080000e-06	3.710252e-06	1.501674e-10	2.638997e+01	8.904523e+00
2.090000e-06	3.634781e-06	1.472515e-10	2.585317e+01	8.694388e+00
2.100000e-06	3.557866e-06	7.417300e-11	2.530609e+01	8.469629e+00
2.110000e-06	3.479320e-06	1.216284e-10	2.474741e+01	8.235043e+00
2.120000e-06	3.399462e-06	1.429527e-10	2.417941e+01	7.995843e+00
2.130000e-06	3.318526e-06	1.582658e-10	2.360374e+01	7.756827e+00
2.140000e-06	3.236405e-06	8.885284e-11	2.301963e+01	7.521658e+00
2.150000e-06	3.153211e-06	6.347079e-11	2.242790e+01	7.292354e+00
2.160000e-06	3.069076e-06	1.235088e-10	2.182947e+01	7.069048e+00
2.170000e-06	2.983800e-06	1.345259e-10	2.122293e+01	6.850050e+00
2.180000e-06	2.897108e-06	1.098925e-10	2.060631e+01	6.632172e+00
2.190000e-06	2.809273e-06	5.010306e-11	1.998156e+01	6.411277e+00
2.200000e-06	2.720558e-06	7.087017e-11	1.935056e+01	6.182939e+00
2.210000e-06	2.630952e-06	1.122901e-10	1.871321e+01	5.943136e+00
2.220000e-06	2.540431e-06	1.160482e-10	1.806936e+01	5.688851e+00
2.230000e-06	2.449008e-06	7.385985e-11	1.741910e+01	5.418510e+00
2.240000e-06	2.356824e-06	3.871054e-11	1.676342e+01	5.132204e+00
2.250000e-06	2.263821e-06	6.955953e-11	1.610192e+01	4.831656e+00
2.260000e-06	2.169738e-06	9.493607e-11	1.543273e+01	4.519967e+00
2.270000e-06	2.074571e-06	7.874730e-11	1.475584e+01	4.201187e+00
2.280000e-06	1.978631e-06	3.850528e-11	1.407344e+01	3.879778e+00
2.290000e-06	1.882094e-06	3.099876e-11	1.338680e+01	3.560059e+00
2.300000e-06	1.785016e-06	5.227542e-11	1.269631e+01	3.245714e+00
2.310000e-06	1.687460e-06	6.609226e-11	1.200243e+01	2.939442e+00
2.320000e-06	1.589345e-06	5.222283e-11	1.130456e+01	2.642772e+00
2.330000e-06	1.490644e-06	2.721936e-11	1.060253e+01	2.356077e+00
2.340000e-06	1.391437e-06	1.837931e-11	9.896895e+00	2.078758e+00
2.350000e-06	1.291868e-06	2.752211e-11	9.188690e+00	1.809556e+00
2.360000e-06	1.192097e-06	3.670827e-11	8.479047e+00	1.546924e+00
2.370000e-06	1.092099e-06	2.380596e-11	7.767789e+00	1.289398e+00
2.380000e-06	9.918437e-07	4.399393e-12	7.054703e+00	1.035897e+00
2.390000e-06	8.912701e-07	-2.469028e-12	6.339352e+00	7.858901e-01
2.400000e-06	7.902391e-07	5.685382e-12	5.620746e+00	5.394257e-01
2.410000e-06	6.887296e-07	1.437168e-11	4.898738e+00	2.970090e-01
2.420000e-06	5.867681e-07	9.162553e-12	4.173515e+00	5.935846e-02
2.430000e-06	4.845236e-07	-9.532350e-12	3.446279e+00	-1.729055e-01
2.440000e-06	3.821489e-07	-2.158699e-11	2.718117e+00	-3.995804e-01
2.450000e-06	2.795793e-07	-1.145404e-11	1.988568e+00	-6.211441e-01
2.460000e-06	1.767897e-07	3.776120e-12	1.257455e+00	-8.389048e-01
2.470000e-06	7.389428e-08	-6.324359e-12	5.255890e-01	-1.055002e+00
2.480000e-06	-2.903608e-08	-3.499266e-11	-2.065254e-01	-1.272247e+00
2.490000e-06	-1.319933e-07	-4.192393e-11	-9.388310e-01	-1.493821e+00
2.500000e-06	-2.349302e-07	-1.983139e-11	-1.670992e+00	-1.722867e+00
2.510000e-06	-3.377773e-07	-6.730236e-12	-2.402514e+00	-1.962048e+00
2.520000e-06	-4.404937e-07	-2.821325e-11	-3.133107e+00	-2.213121e+00
2.530000e-06	-5.429786e-07	-5.433471e-11	-3.862053e+00	-2.476618e+00
2.540000e-06	-6.451507e-07	-5.011665e-11	-4.588774e+00	-2.751676e+00
2.550000e-06	-7.470503e-07	-2.906168e-11	-5.313557e+00	-3.036045e+00
2.560000e-06	-8.485686e-07	-2.990364e-11	-6.035628e+00	-3.326296e+00
2.570000e-06	-9.496252e-07	-5.710858e-11	-6.754415e+00	-3.618194e+00
2.580000e-06	-1.050249e-06	-7.567166e-11	-7.470124e+00	-3.907180e+00
2.590000e-06	-1.150425e-06	-6.559561e-11	-8.182643e+00	-4.188924e+00
2.600000e-06	-1.250255e-06	-4.955933e-11	-8.892712e+00	-4.459832e+00
2.610000e-06	-1.349799e-06	-5.661348e-11	-9.600734e+00	-4.717475e+00
2.620000e-06	-1.448914e-06	-7.791369e-11	-1.030571e+01	-4.960850e+00
2.630000e-06	-1.547437e-06	-8.399485e-11	-1.100648e+01	-5.190454e+00
2.640000e-06	-1.645383e-06	-7.277531e-11	-1.170314e+01	-5.408160e+00
2.650000e-06	-1.742822e-06	-6.835154e-11	-1.239620e+01	-5.616917e+00
2.660000e-06	-1.839646e-06	-8.318122e-11	-1.308488e+01	-5.820308e+00
2.670000e-06	-1.935852e-06	-1.018299e-10	-1.376916e+01	-6.022061e+00
2.680000e-06	-2.031543e-06	-1.031175e-10	-1.444979e+01	-6.225548e+00
2.690000e-06	-2.126599e-06	-9.416414e-11	-1.512590e+01	-6.433374e+00
2.700000e-06	-2.220715e-06	-9.237102e-11	-1.579532e+01	-6.647096e+00
2.710000e-06	-2.313729e-06	-9.978492e-11	-1.645690e+01	-6.867107e+00
2.720000e-06	-2.405730e-06	-1.055349e-10	-1.711127e+01	-7.092704e+00
2.730000e-06	-2.496854e-06	-1.037847e-10	-1.775942e+01	-7.322301e+00
2.740000e-06	-2.587188e-06	-1.014004e-10	-1.840193e+01	-7.553770e+00
2.750000e-06	-2.676711e-06	-1.051993e-10	-1.903869e+01	-7.784829e+00
2.760000e-06	-2.765316e-06	-1.142831e-10	-1.966891e+01	-8.013420e+00
2.770000e-06	-2.853029e-06	-1.213593e-10	-2.029278e+01	-8.238022e+00
2.780000e-06	-2.939841e-06	-1.237722e-10	-2.091026e+01	-8.457843e+00
2.790000e-06	-3.025485e-06	-1.242570e-10	-2.151942e+01	-8.672871e+00
2.800000e-06	-3.109930e-06	-1.254992e-10	-2.212005e+01	-8.883778e+00
2.810000e-06	-3.193296e-06	-1.290638e-10	-2.271301e+01	-9.091703e+00
2.820000e-06	-3.275559e-06	-1.346094e-10	-2.329812e+01	-9.297960e+00
2.830000e-06	-3.356790e-06	-1.396655e-10	-2.387590e+01	-9.503718e+00
2.840000e-06	-3.436975e-06	-1.404027e-10	-2.444623e+01	-9.709720e+00
2.850000e-06	-3.515868e-06	-1.393413e-10	-2.500737e+01	-9.916088e+00
2.860000e-06	-3.593183e-06	-1.435551e-10	-2.555729e+01	-1.012225e+01
2.870000e-06	-3.668966e-06	-1.529100e-10	-2.609631e+01	-1.032702e+01
2.880000e-06	-3.743363e-06	-1.580855e-10	-2.662548e+01	-1.052876e+01
2.890000e-06	-3.816401e-06	-1.550371e-10	-2.714498e+01	-1.072570e+01
2.900000e-06	-3.888116e-06	-1.527158e-10	-2.765506e+01	-1.091626e+01
2.910000e-06	-3.958291e-06	-1.591565e-10	-2.815420e+01	-1.109937e+01
2.920000e-06	-4.026853e-06	-1.678903e-10	-2.864186e+01	-1.127473e+01
2.930000e-06	-4.094000e-06	-1.697719e-10	-2.911946e+01	-1.144292e+01
2.940000e-06	-4.159729e-06	-1.662790e-10	-2.958697e+01	-1.160545e+01
