# Temperatura_=_20.0
# Concentracion g/m^3_=_12600.0
# C_Vs_to_Am_M_A/Vsm_=_65563218390.804596
# pendiente_HvsI_1/m_=_3716.3
# ordenada_HvsI_A/m_=_1297.0
# frecuencia_Hz_=_301833.68286590464

Tiempo_(s)	Campo_(V.s)	Magnetizacion_(V.s)	Campo_(kA/m)	Magnetizacion_(A/m)
0.000000e+00	-5.333620e-06	-3.026050e-09	-3.827739e+01	-1.969068e+02
1.000000e-08	-5.330934e-06	-3.027628e-09	-3.825811e+01	-1.968921e+02
2.000000e-08	-5.326482e-06	-3.022567e-09	-3.822616e+01	-1.968148e+02
3.000000e-08	-5.320438e-06	-3.017566e-09	-3.818278e+01	-1.966677e+02
4.000000e-08	-5.312812e-06	-3.017835e-09	-3.812805e+01	-1.964474e+02
5.000000e-08	-5.303391e-06	-3.018051e-09	-3.806044e+01	-1.961550e+02
6.000000e-08	-5.291945e-06	-3.011147e-09	-3.797830e+01	-1.957966e+02
7.000000e-08	-5.278612e-06	-2.997901e-09	-3.788261e+01	-1.953835e+02
8.000000e-08	-5.263247e-06	-2.986320e-09	-3.777235e+01	-1.949307e+02
9.000000e-08	-5.245684e-06	-2.990369e-09	-3.764630e+01	-1.944560e+02
1.000000e-07	-5.226083e-06	-2.997844e-09	-3.750563e+01	-1.939780e+02
1.100000e-07	-5.204561e-06	-2.994804e-09	-3.735118e+01	-1.935136e+02
1.200000e-07	-5.181243e-06	-2.980065e-09	-3.718383e+01	-1.930764e+02
1.300000e-07	-5.156260e-06	-2.948033e-09	-3.700454e+01	-1.926746e+02
1.400000e-07	-5.129697e-06	-2.933299e-09	-3.681391e+01	-1.923097e+02
1.500000e-07	-5.101700e-06	-2.948514e-09	-3.661298e+01	-1.919760e+02
1.600000e-07	-5.072334e-06	-2.938955e-09	-3.640224e+01	-1.916608e+02
1.700000e-07	-5.041390e-06	-2.920115e-09	-3.618016e+01	-1.913455e+02
1.800000e-07	-5.008385e-06	-2.884798e-09	-3.594329e+01	-1.910073e+02
1.900000e-07	-4.973433e-06	-2.832542e-09	-3.569246e+01	-1.906216e+02
2.000000e-07	-4.937036e-06	-2.856915e-09	-3.543125e+01	-1.901640e+02
2.100000e-07	-4.898958e-06	-2.903150e-09	-3.515798e+01	-1.896135e+02
2.200000e-07	-4.858997e-06	-2.866694e-09	-3.487120e+01	-1.889539e+02
2.300000e-07	-4.817059e-06	-2.794773e-09	-3.457022e+01	-1.881757e+02
2.400000e-07	-4.773186e-06	-2.774638e-09	-3.425536e+01	-1.872767e+02
2.500000e-07	-4.727699e-06	-2.821877e-09	-3.392892e+01	-1.862620e+02
2.600000e-07	-4.680435e-06	-2.848889e-09	-3.358972e+01	-1.851428e+02
2.700000e-07	-4.631025e-06	-2.781797e-09	-3.323512e+01	-1.839355e+02
2.800000e-07	-4.579499e-06	-2.697242e-09	-3.286534e+01	-1.826589e+02
2.900000e-07	-4.526173e-06	-2.686594e-09	-3.248264e+01	-1.813323e+02
3.000000e-07	-4.471209e-06	-2.755684e-09	-3.208819e+01	-1.799736e+02
3.100000e-07	-4.414604e-06	-2.782687e-09	-3.168195e+01	-1.785970e+02
3.200000e-07	-4.356190e-06	-2.678961e-09	-3.126274e+01	-1.772120e+02
3.300000e-07	-4.296146e-06	-2.578283e-09	-3.083183e+01	-1.758226e+02
3.400000e-07	-4.234759e-06	-2.601278e-09	-3.039127e+01	-1.744275e+02
3.500000e-07	-4.171966e-06	-2.683168e-09	-2.994063e+01	-1.730211e+02
3.600000e-07	-4.107664e-06	-2.672708e-09	-2.947916e+01	-1.715942e+02
3.700000e-07	-4.041672e-06	-2.541342e-09	-2.900556e+01	-1.701359e+02
3.800000e-07	-3.974118e-06	-2.455618e-09	-2.852075e+01	-1.686355e+02
3.900000e-07	-3.905265e-06	-2.512331e-09	-2.802662e+01	-1.670835e+02
4.000000e-07	-3.835201e-06	-2.582301e-09	-2.752380e+01	-1.654732e+02
4.100000e-07	-3.763946e-06	-2.519239e-09	-2.701243e+01	-1.638009e+02
4.200000e-07	-3.691367e-06	-2.388553e-09	-2.649155e+01	-1.620667e+02
4.300000e-07	-3.617188e-06	-2.357328e-09	-2.595920e+01	-1.602735e+02
4.400000e-07	-3.541454e-06	-2.428288e-09	-2.541568e+01	-1.584265e+02
4.500000e-07	-3.464395e-06	-2.453937e-09	-2.486266e+01	-1.565321e+02
4.600000e-07	-3.385918e-06	-2.353544e-09	-2.429946e+01	-1.545964e+02
4.700000e-07	-3.305984e-06	-2.237271e-09	-2.372581e+01	-1.526244e+02
4.800000e-07	-3.224793e-06	-2.239097e-09	-2.314313e+01	-1.506190e+02
4.900000e-07	-3.142495e-06	-2.301121e-09	-2.255250e+01	-1.485804e+02
5.000000e-07	-3.059192e-06	-2.277964e-09	-2.195467e+01	-1.465059e+02
5.100000e-07	-2.974999e-06	-2.160417e-09	-2.135045e+01	-1.443906e+02
5.200000e-07	-2.889868e-06	-2.084057e-09	-2.073950e+01	-1.422278e+02
5.300000e-07	-2.803779e-06	-2.112264e-09	-2.012167e+01	-1.400100e+02
5.400000e-07	-2.716747e-06	-2.146584e-09	-1.949707e+01	-1.377299e+02
5.500000e-07	-2.628820e-06	-2.087273e-09	-1.886605e+01	-1.353812e+02
5.600000e-07	-2.539763e-06	-1.980638e-09	-1.822693e+01	-1.329598e+02
5.700000e-07	-2.449378e-06	-1.937203e-09	-1.757827e+01	-1.304638e+02
5.800000e-07	-2.358059e-06	-1.958055e-09	-1.692290e+01	-1.278935e+02
5.900000e-07	-2.266042e-06	-1.948570e-09	-1.626253e+01	-1.252518e+02
6.000000e-07	-2.173227e-06	-1.867629e-09	-1.559643e+01	-1.225429e+02
6.100000e-07	-2.079647e-06	-1.781732e-09	-1.492485e+01	-1.197718e+02
6.200000e-07	-1.985340e-06	-1.756039e-09	-1.424804e+01	-1.169437e+02
6.300000e-07	-1.890384e-06	-1.756389e-09	-1.356657e+01	-1.140628e+02
6.400000e-07	-1.794932e-06	-1.714747e-09	-1.288155e+01	-1.111320e+02
6.500000e-07	-1.698979e-06	-1.636145e-09	-1.219293e+01	-1.081522e+02
6.600000e-07	-1.602237e-06	-1.576741e-09	-1.149865e+01	-1.051227e+02
6.700000e-07	-1.504548e-06	-1.551696e-09	-1.079758e+01	-1.020407e+02
6.800000e-07	-1.406099e-06	-1.522804e-09	-1.009105e+01	-9.890253e+01
6.900000e-07	-1.307093e-06	-1.463837e-09	-9.380517e+00	-9.570355e+01
7.000000e-07	-1.207755e-06	-1.394486e-09	-8.667607e+00	-9.243921e+01
7.100000e-07	-1.108212e-06	-1.342455e-09	-7.953223e+00	-8.910552e+01
7.200000e-07	-1.008484e-06	-1.302460e-09	-7.237512e+00	-8.569953e+01
7.300000e-07	-9.085490e-07	-1.253853e-09	-6.520315e+00	-8.221960e+01
7.400000e-07	-8.082224e-07	-1.194523e-09	-5.800309e+00	-7.866542e+01
7.500000e-07	-7.074926e-07	-1.137347e-09	-5.077408e+00	-7.503781e+01
7.600000e-07	-6.065345e-07	-1.085160e-09	-4.352870e+00	-7.133840e+01
7.700000e-07	-5.053772e-07	-1.028409e-09	-3.626902e+00	-6.756911e+01
7.800000e-07	-4.040790e-07	-9.647741e-10	-2.899923e+00	-6.373167e+01
7.900000e-07	-3.026312e-07	-9.045632e-10	-2.171870e+00	-5.982716e+01
8.000000e-07	-2.010265e-07	-8.498714e-10	-1.442691e+00	-5.585574e+01
8.100000e-07	-9.935419e-08	-7.888356e-10	-7.130277e-01	-5.181645e+01
8.200000e-07	2.359454e-09	-7.165731e-10	1.693292e-02	-4.770731e+01
8.300000e-07	1.041374e-07	-6.463289e-10	7.473548e-01	-4.352553e+01
8.400000e-07	2.059066e-07	-5.899390e-10	1.477714e+00	-3.926789e+01
8.500000e-07	3.075518e-07	-5.353535e-10	2.207183e+00	-3.493113e+01
8.600000e-07	4.091119e-07	-4.640242e-10	2.936042e+00	-3.051244e+01
8.700000e-07	5.106174e-07	-3.805512e-10	3.664509e+00	-2.600980e+01
8.800000e-07	6.120004e-07	-3.093846e-10	4.392097e+00	-2.142228e+01
8.900000e-07	7.132002e-07	-2.548190e-10	5.118370e+00	-1.675017e+01
9.000000e-07	8.141295e-07	-1.924639e-10	5.842701e+00	-1.199495e+01
9.100000e-07	9.146835e-07	-1.071237e-10	6.564340e+00	-7.159217e+00
9.200000e-07	1.014882e-06	-1.529374e-11	7.283428e+00	-2.246483e+00
9.300000e-07	1.114752e-06	5.497229e-11	8.000155e+00	2.739042e+00
9.400000e-07	1.214352e-06	1.096395e-10	8.714949e+00	7.792611e+00
9.500000e-07	1.313746e-06	1.810886e-10	9.428259e+00	1.290904e+01
9.600000e-07	1.412825e-06	2.791727e-10	1.013931e+01	1.808270e+01
9.700000e-07	1.511236e-06	3.770724e-10	1.084558e+01	2.330740e+01
9.800000e-07	1.608646e-06	4.474430e-10	1.154465e+01	2.857622e+01
9.900000e-07	1.705110e-06	5.042298e-10	1.223693e+01	3.388122e+01
1.000000e-06	1.800900e-06	5.840261e-10	1.292438e+01	3.921325e+01
1.010000e-06	1.896181e-06	6.901493e-10	1.360818e+01	4.456176e+01
1.020000e-06	1.990840e-06	7.859339e-10	1.428751e+01	4.991475e+01
1.030000e-06	2.084741e-06	8.480113e-10	1.496140e+01	5.525885e+01
1.040000e-06	2.177937e-06	9.027838e-10	1.563023e+01	6.057960e+01
1.050000e-06	2.270395e-06	9.875647e-10	1.629377e+01	6.586179e+01
1.060000e-06	2.362167e-06	1.095426e-09	1.695238e+01	7.109005e+01
1.070000e-06	2.453363e-06	1.183571e-09	1.760686e+01	7.624936e+01
1.080000e-06	2.543605e-06	1.236461e-09	1.825449e+01	8.132562e+01
1.090000e-06	2.632512e-06	1.291175e-09	1.889255e+01	8.630617e+01
1.100000e-06	2.720318e-06	1.379574e-09	1.952270e+01	9.118015e+01
1.110000e-06	2.807319e-06	1.481357e-09	2.014707e+01	9.593870e+01
1.120000e-06	2.893474e-06	1.553439e-09	2.076538e+01	1.005750e+02
1.130000e-06	2.978662e-06	1.593287e-09	2.137674e+01	1.050842e+02
1.140000e-06	3.062889e-06	1.643504e-09	2.198120e+01	1.094631e+02
1.150000e-06	3.146278e-06	1.729541e-09	2.257966e+01	1.137099e+02
1.160000e-06	3.228681e-06	1.818702e-09	2.317103e+01	1.178239e+02
1.170000e-06	3.309758e-06	1.870354e-09	2.375289e+01	1.218048e+02
1.180000e-06	3.389555e-06	1.898636e-09	2.432556e+01	1.256531e+02
1.190000e-06	3.468172e-06	1.948451e-09	2.488977e+01	1.293695e+02
1.200000e-06	3.545579e-06	2.028748e-09	2.544529e+01	1.329551e+02
1.210000e-06	3.621797e-06	2.101565e-09	2.599228e+01	1.364113e+02
1.220000e-06	3.696704e-06	2.136788e-09	2.652986e+01	1.397399e+02
1.230000e-06	3.769921e-06	2.156901e-09	2.705530e+01	1.429432e+02
1.240000e-06	3.841517e-06	2.202851e-09	2.756912e+01	1.460243e+02
1.250000e-06	3.911849e-06	2.272208e-09	2.807387e+01	1.489868e+02
1.260000e-06	3.980853e-06	2.326962e-09	2.856909e+01	1.518348e+02
1.270000e-06	4.048489e-06	2.350005e-09	2.905448e+01	1.545727e+02
1.280000e-06	4.114624e-06	2.370432e-09	2.952911e+01	1.572047e+02
1.290000e-06	4.179059e-06	2.417641e-09	2.999154e+01	1.597352e+02
1.300000e-06	4.241971e-06	2.479624e-09	3.044303e+01	1.621675e+02
1.310000e-06	4.303488e-06	2.521564e-09	3.088452e+01	1.645043e+02
1.320000e-06	4.363639e-06	2.533478e-09	3.131620e+01	1.667476e+02
1.330000e-06	4.422309e-06	2.547076e-09	3.173725e+01	1.688981e+02
1.340000e-06	4.479231e-06	2.587284e-09	3.214575e+01	1.709563e+02
1.350000e-06	4.534453e-06	2.635535e-09	3.254207e+01	1.729221e+02
1.360000e-06	4.588077e-06	2.661564e-09	3.292690e+01	1.747954e+02
1.370000e-06	4.639974e-06	2.668093e-09	3.329935e+01	1.765764e+02
1.380000e-06	4.689819e-06	2.686033e-09	3.365707e+01	1.782665e+02
1.390000e-06	4.737684e-06	2.726642e-09	3.400058e+01	1.798675e+02
1.400000e-06	4.783867e-06	2.764897e-09	3.433202e+01	1.813826e+02
1.410000e-06	4.828460e-06	2.780685e-09	3.465204e+01	1.828158e+02
1.420000e-06	4.871510e-06	2.784665e-09	3.496100e+01	1.841716e+02
1.430000e-06	4.912711e-06	2.800278e-09	3.525668e+01	1.854545e+02
1.440000e-06	4.952042e-06	2.831907e-09	3.553894e+01	1.866687e+02
1.450000e-06	4.989788e-06	2.858700e-09	3.580983e+01	1.878174e+02
1.460000e-06	5.025978e-06	2.866640e-09	3.606956e+01	1.889026e+02
1.470000e-06	5.060383e-06	2.868051e-09	3.631647e+01	1.899244e+02
1.480000e-06	5.092804e-06	2.883154e-09	3.654914e+01	1.908819e+02
1.490000e-06	5.123426e-06	2.910137e-09	3.676890e+01	1.917727e+02
1.500000e-06	5.152401e-06	2.928621e-09	3.697685e+01	1.925938e+02
1.510000e-06	5.179699e-06	2.929436e-09	3.717275e+01	1.933423e+02
1.520000e-06	5.205001e-06	2.927239e-09	3.735433e+01	1.940162e+02
1.530000e-06	5.228263e-06	2.938614e-09	3.752128e+01	1.946147e+02
1.540000e-06	5.249731e-06	2.957250e-09	3.767535e+01	1.951394e+02
1.550000e-06	5.269526e-06	2.965450e-09	3.781741e+01	1.955941e+02
1.560000e-06	5.287531e-06	2.960931e-09	3.794662e+01	1.959845e+02
1.570000e-06	5.303451e-06	2.959410e-09	3.806088e+01	1.963185e+02
1.580000e-06	5.317371e-06	2.970271e-09	3.816077e+01	1.966045e+02
1.590000e-06	5.329357e-06	2.984810e-09	3.824679e+01	1.968511e+02
1.600000e-06	5.339157e-06	2.990885e-09	3.831712e+01	1.970657e+02
1.610000e-06	5.346850e-06	2.987105e-09	3.837233e+01	1.972534e+02
1.620000e-06	5.352679e-06	2.984433e-09	3.841417e+01	1.974164e+02
1.630000e-06	5.356740e-06	2.990715e-09	3.844331e+01	1.975535e+02
1.640000e-06	5.358912e-06	2.999306e-09	3.845890e+01	1.976599e+02
1.650000e-06	5.359066e-06	3.000717e-09	3.846000e+01	1.977283e+02
1.660000e-06	5.357418e-06	2.995274e-09	3.844817e+01	1.977493e+02
1.670000e-06	5.354157e-06	2.991769e-09	3.842477e+01	1.977133e+02
1.680000e-06	5.349217e-06	2.994920e-09	3.838932e+01	1.976118e+02
1.690000e-06	5.342356e-06	2.998725e-09	3.834008e+01	1.974388e+02
1.700000e-06	5.333696e-06	2.996093e-09	3.827793e+01	1.971925e+02
1.710000e-06	5.323482e-06	2.987330e-09	3.820463e+01	1.968757e+02
1.720000e-06	5.311582e-06	2.982144e-09	3.811923e+01	1.964964e+02
1.730000e-06	5.297690e-06	2.986265e-09	3.801953e+01	1.960673e+02
1.740000e-06	5.281708e-06	2.970716e-09	3.790483e+01	1.956046e+02
1.750000e-06	5.263481e-06	2.945654e-09	3.777403e+01	1.951267e+02
1.760000e-06	5.242695e-06	2.931287e-09	3.762485e+01	1.946518e+02
1.770000e-06	5.219572e-06	2.928260e-09	3.745890e+01	1.941959e+02
1.780000e-06	5.195122e-06	2.951202e-09	3.728344e+01	1.937709e+02
1.790000e-06	5.169978e-06	2.948060e-09	3.710299e+01	1.933825e+02
1.800000e-06	5.143433e-06	2.916836e-09	3.691249e+01	1.930299e+02
1.810000e-06	5.114680e-06	2.927136e-09	3.670613e+01	1.927047e+02
1.820000e-06	5.084125e-06	2.925656e-09	3.648685e+01	1.923920e+02
1.830000e-06	5.051998e-06	2.938907e-09	3.625629e+01	1.920714e+02
1.840000e-06	5.017872e-06	2.978012e-09	3.601138e+01	1.917192e+02
1.850000e-06	4.982009e-06	2.928381e-09	3.575401e+01	1.913105e+02
1.860000e-06	4.944398e-06	2.890275e-09	3.548409e+01	1.908221e+02
1.870000e-06	4.904904e-06	2.942887e-09	3.520065e+01	1.902342e+02
1.880000e-06	4.863794e-06	2.982772e-09	3.490562e+01	1.895331e+02
1.890000e-06	4.820895e-06	2.966410e-09	3.459775e+01	1.887117e+02
1.900000e-06	4.776381e-06	2.873804e-09	3.427829e+01	1.877706e+02
1.910000e-06	4.730239e-06	2.808893e-09	3.394715e+01	1.867170e+02
1.920000e-06	4.682143e-06	2.867337e-09	3.360198e+01	1.855644e+02
1.930000e-06	4.632335e-06	2.902111e-09	3.324453e+01	1.843302e+02
1.940000e-06	4.580692e-06	2.849519e-09	3.287390e+01	1.830337e+02
1.950000e-06	4.527025e-06	2.728888e-09	3.248875e+01	1.816939e+02
1.960000e-06	4.471507e-06	2.673543e-09	3.209033e+01	1.803275e+02
1.970000e-06	4.414291e-06	2.781516e-09	3.167971e+01	1.789471e+02
1.980000e-06	4.355580e-06	2.834212e-09	3.125836e+01	1.775604e+02
1.990000e-06	4.295442e-06	2.732416e-09	3.082677e+01	1.761695e+02
2.000000e-06	4.233690e-06	2.590881e-09	3.038360e+01	1.747714e+02
2.010000e-06	4.170240e-06	2.584595e-09	2.992824e+01	1.733589e+02
2.020000e-06	4.105263e-06	2.719476e-09	2.946193e+01	1.719221e+02
2.030000e-06	4.038861e-06	2.722920e-09	2.898539e+01	1.704501e+02
2.040000e-06	3.971069e-06	2.568980e-09	2.849887e+01	1.689324e+02
2.050000e-06	3.901894e-06	2.457048e-09	2.800243e+01	1.673602e+02
2.060000e-06	3.831233e-06	2.509103e-09	2.749532e+01	1.657281e+02
2.070000e-06	3.759174e-06	2.611898e-09	2.697818e+01	1.640336e+02
2.080000e-06	3.685832e-06	2.552029e-09	2.645183e+01	1.622780e+02
2.090000e-06	3.611146e-06	2.400599e-09	2.591584e+01	1.604650e+02
2.100000e-06	3.535115e-06	2.336853e-09	2.537019e+01	1.586004e+02
2.110000e-06	3.457534e-06	2.415964e-09	2.481342e+01	1.566907e+02
2.120000e-06	3.378392e-06	2.473281e-09	2.424545e+01	1.547416e+02
2.130000e-06	3.298116e-06	2.369689e-09	2.366934e+01	1.527576e+02
2.140000e-06	3.216752e-06	2.236509e-09	2.308542e+01	1.507406e+02
2.150000e-06	3.134264e-06	2.219195e-09	2.249343e+01	1.486896e+02
2.160000e-06	3.050775e-06	2.293579e-09	2.189426e+01	1.466014e+02
2.170000e-06	2.966438e-06	2.290462e-09	2.128901e+01	1.444700e+02
2.180000e-06	2.880938e-06	2.174055e-09	2.067541e+01	1.422886e+02
2.190000e-06	2.793900e-06	2.078322e-09	2.005077e+01	1.400494e+02
2.200000e-06	2.705824e-06	2.084557e-09	1.941868e+01	1.377455e+02
2.210000e-06	2.616964e-06	2.124283e-09	1.878097e+01	1.353714e+02
2.220000e-06	2.527172e-06	2.078507e-09	1.813656e+01	1.329235e+02
2.230000e-06	2.436496e-06	1.973819e-09	1.748582e+01	1.304009e+02
2.240000e-06	2.345003e-06	1.908459e-09	1.682920e+01	1.278048e+02
2.250000e-06	2.252855e-06	1.911698e-09	1.616790e+01	1.251386e+02
2.260000e-06	2.160044e-06	1.907685e-09	1.550182e+01	1.224070e+02
2.270000e-06	2.066269e-06	1.841955e-09	1.482884e+01	1.196151e+02
2.280000e-06	1.971356e-06	1.761796e-09	1.414768e+01	1.167678e+02
2.290000e-06	1.875596e-06	1.720631e-09	1.346045e+01	1.138689e+02
2.300000e-06	1.779397e-06	1.704237e-09	1.277006e+01	1.109207e+02
2.310000e-06	1.682711e-06	1.668761e-09	1.207618e+01	1.079235e+02
2.320000e-06	1.585451e-06	1.609676e-09	1.137819e+01	1.048757e+02
2.330000e-06	1.487650e-06	1.551085e-09	1.067631e+01	1.017742e+02
2.340000e-06	1.389336e-06	1.504419e-09	9.970742e+00	9.861494e+01
2.350000e-06	1.290516e-06	1.459662e-09	9.261546e+00	9.539322e+01
2.360000e-06	1.191204e-06	1.408901e-09	8.548822e+00	9.210462e+01
2.370000e-06	1.091571e-06	1.356857e-09	7.833793e+00	8.874548e+01
2.380000e-06	9.917387e-07	1.306869e-09	7.117336e+00	8.531330e+01
2.390000e-06	8.917643e-07	1.251992e-09	6.399857e+00	8.180691e+01
2.400000e-06	7.916690e-07	1.190101e-09	5.681511e+00	7.822645e+01
2.410000e-06	6.914499e-07	1.134008e-09	4.962276e+00	7.457309e+01
2.420000e-06	5.910587e-07	1.090338e-09	4.241806e+00	7.084860e+01
2.430000e-06	4.904400e-07	1.040777e-09	3.519704e+00	6.705489e+01
2.440000e-06	3.896207e-07	9.699845e-10	2.796161e+00	6.319351e+01
2.450000e-06	2.885492e-07	8.927937e-10	2.070809e+00	5.926525e+01
2.460000e-06	1.871873e-07	8.348388e-10	1.343373e+00	5.526984e+01
2.470000e-06	8.557813e-08	7.936242e-10	6.141621e-01	5.120598e+01
2.480000e-06	-1.608717e-08	7.383222e-10	-1.154516e-01	4.707135e+01
2.490000e-06	-1.176807e-07	6.564682e-10	-8.445500e-01	4.286296e+01
2.500000e-06	-2.193066e-07	5.740261e-10	-1.573881e+00	3.857751e+01
2.510000e-06	-3.208773e-07	5.174218e-10	-2.302816e+00	3.421188e+01
2.520000e-06	-4.222640e-07	4.746959e-10	-3.030430e+00	2.976348e+01
2.530000e-06	-5.233319e-07	4.089008e-10	-3.755756e+00	2.523067e+01
2.540000e-06	-6.240351e-07	3.124890e-10	-4.478465e+00	2.061294e+01
2.550000e-06	-7.245190e-07	2.231435e-10	-5.199601e+00	1.591101e+01
2.560000e-06	-8.248217e-07	1.682560e-10	-5.919435e+00	1.112678e+01
2.570000e-06	-9.249373e-07	1.220435e-10	-6.637927e+00	6.263203e+00
2.580000e-06	-1.024849e-06	4.115137e-11	-7.354954e+00	1.324054e+00
2.590000e-06	-1.124509e-06	-6.844664e-11	-8.070178e+00	-3.686245e+00
2.600000e-06	-1.223813e-06	-1.575158e-10	-8.782849e+00	-8.762784e+00
2.610000e-06	-1.322635e-06	-2.066732e-10	-9.492054e+00	-1.390023e+01
2.620000e-06	-1.420924e-06	-2.569496e-10	-1.019744e+01	-1.909276e+01
2.630000e-06	-1.518713e-06	-3.518640e-10	-1.089923e+01	-2.433397e+01
2.640000e-06	-1.615993e-06	-4.706357e-10	-1.159738e+01	-2.961658e+01
2.650000e-06	-1.712718e-06	-5.569132e-10	-1.229153e+01	-3.493226e+01
2.660000e-06	-1.808925e-06	-6.038872e-10	-1.298198e+01	-4.027136e+01
2.670000e-06	-1.904714e-06	-6.650206e-10	-1.366942e+01	-4.562283e+01
2.680000e-06	-1.999879e-06	-7.733562e-10	-1.435238e+01	-5.097415e+01
2.690000e-06	-2.094008e-06	-8.901082e-10	-1.502791e+01	-5.631152e+01
2.700000e-06	-2.186981e-06	-9.621245e-10	-1.569514e+01	-6.162016e+01
2.710000e-06	-2.279066e-06	-1.001657e-09	-1.635600e+01	-6.688476e+01
2.720000e-06	-2.370458e-06	-1.069184e-09	-1.701188e+01	-7.208999e+01
2.730000e-06	-2.461051e-06	-1.182679e-09	-1.766203e+01	-7.722109e+01
2.740000e-06	-2.550779e-06	-1.288599e-09	-1.830598e+01	-8.226444e+01
2.750000e-06	-2.639618e-06	-1.344688e-09	-1.894355e+01	-8.720798e+01
2.760000e-06	-2.727631e-06	-1.381175e-09	-1.957518e+01	-9.204154e+01
2.770000e-06	-2.814837e-06	-1.454193e-09	-2.020103e+01	-9.675701e+01
2.780000e-06	-2.900902e-06	-1.561673e-09	-2.081868e+01	-1.013483e+02
2.790000e-06	-2.985715e-06	-1.646873e-09	-2.142735e+01	-1.058112e+02
2.800000e-06	-3.069573e-06	-1.684849e-09	-2.202917e+01	-1.101430e+02
2.810000e-06	-3.152481e-06	-1.718032e-09	-2.262417e+01	-1.143423e+02
2.820000e-06	-3.234337e-06	-1.792633e-09	-2.321162e+01	-1.184085e+02
2.830000e-06	-3.315145e-06	-1.889812e-09	-2.379155e+01	-1.223419e+02
2.840000e-06	-3.394862e-06	-1.956146e-09	-2.436365e+01	-1.261430e+02
2.850000e-06	-3.473123e-06	-1.980186e-09	-2.492530e+01	-1.298125e+02
2.860000e-06	-3.549791e-06	-2.009590e-09	-2.547551e+01	-1.333516e+02
2.870000e-06	-3.625116e-06	-2.081573e-09	-2.601610e+01	-1.367618e+02
2.880000e-06	-3.699064e-06	-2.164314e-09	-2.654679e+01	-1.400452e+02
2.890000e-06	-3.771704e-06	-2.208196e-09	-2.706810e+01	-1.432045e+02
2.900000e-06	-3.843098e-06	-2.220536e-09	-2.758047e+01	-1.462427e+02
2.910000e-06	-3.912911e-06	-2.252551e-09	-2.808149e+01	-1.491637e+02
2.920000e-06	-3.981129e-06	-2.322866e-09	-2.857106e+01	-1.519717e+02
2.930000e-06	-4.047973e-06	-2.391598e-09	-2.905078e+01	-1.546712e+02
2.940000e-06	-4.113412e-06	-2.421136e-09	-2.952041e+01	-1.572665e+02
