# Temperatura_=_20.0
# Concentracion g/m^3_=_12600.0
# C_Vs_to_Am_M_A/Vsm_=_65563218390.804596
# pendiente_HvsI_1/m_=_3716.3
# ordenada_HvsI_A/m_=_1297.0
# frecuencia_Hz_=_301839.58392912394

Tiempo_(s)	Campo_(V.s)	Magnetizacion_(V.s)	Campo_(kA/m)	Magnetizacion_(A/m)
0.000000e+00	-5.336543e-06	-3.149316e-09	-3.827796e+01	-2.064179e+02
1.000000e-08	-5.333891e-06	-3.150219e-09	-3.825894e+01	-2.063424e+02
2.000000e-08	-5.329530e-06	-3.148761e-09	-3.822766e+01	-2.061999e+02
3.000000e-08	-5.323533e-06	-3.147485e-09	-3.818464e+01	-2.059937e+02
4.000000e-08	-5.315925e-06	-3.145911e-09	-3.813007e+01	-2.057306e+02
5.000000e-08	-5.306474e-06	-3.142292e-09	-3.806228e+01	-2.054200e+02
6.000000e-08	-5.294977e-06	-3.132384e-09	-3.797982e+01	-2.050734e+02
7.000000e-08	-5.281644e-06	-3.109469e-09	-3.788418e+01	-2.047029e+02
8.000000e-08	-5.266204e-06	-3.112813e-09	-3.777344e+01	-2.043199e+02
9.000000e-08	-5.248525e-06	-3.153173e-09	-3.764663e+01	-2.039334e+02
1.000000e-07	-5.228881e-06	-3.146934e-09	-3.750572e+01	-2.035495e+02
1.100000e-07	-5.207340e-06	-3.119100e-09	-3.735122e+01	-2.031699e+02
1.200000e-07	-5.184056e-06	-3.083348e-09	-3.718421e+01	-2.027923e+02
1.300000e-07	-5.159209e-06	-2.993914e-09	-3.700598e+01	-2.024102e+02
1.400000e-07	-5.132752e-06	-3.082983e-09	-3.681621e+01	-2.020135e+02
1.500000e-07	-5.104773e-06	-3.163759e-09	-3.661552e+01	-2.015902e+02
1.600000e-07	-5.075395e-06	-3.019608e-09	-3.640480e+01	-2.011273e+02
1.700000e-07	-5.044480e-06	-3.043489e-09	-3.618305e+01	-2.006125e+02
1.800000e-07	-5.011449e-06	-3.024737e-09	-3.594613e+01	-2.000353e+02
1.900000e-07	-4.976444e-06	-2.961015e-09	-3.569504e+01	-1.993884e+02
2.000000e-07	-4.940106e-06	-3.102832e-09	-3.543440e+01	-1.986679e+02
2.100000e-07	-4.902068e-06	-3.034185e-09	-3.516156e+01	-1.978739e+02
2.200000e-07	-4.862148e-06	-2.903377e-09	-3.487522e+01	-1.970099e+02
2.300000e-07	-4.820311e-06	-2.973092e-09	-3.457513e+01	-1.960820e+02
2.400000e-07	-4.776562e-06	-2.989265e-09	-3.426133e+01	-1.950980e+02
2.500000e-07	-4.731129e-06	-2.980765e-09	-3.393545e+01	-1.940659e+02
2.600000e-07	-4.683806e-06	-2.930198e-09	-3.359601e+01	-1.929931e+02
2.700000e-07	-4.634337e-06	-2.861268e-09	-3.324118e+01	-1.918849e+02
2.800000e-07	-4.582775e-06	-2.903969e-09	-3.287134e+01	-1.907442e+02
2.900000e-07	-4.529398e-06	-2.916606e-09	-3.248848e+01	-1.895711e+02
3.000000e-07	-4.474421e-06	-2.864255e-09	-3.209413e+01	-1.883630e+02
3.100000e-07	-4.417801e-06	-2.808677e-09	-3.168801e+01	-1.871152e+02
3.200000e-07	-4.359352e-06	-2.809802e-09	-3.126877e+01	-1.858217e+02
3.300000e-07	-4.299336e-06	-2.828051e-09	-3.083828e+01	-1.844764e+02
3.400000e-07	-4.237973e-06	-2.790063e-09	-3.039814e+01	-1.830738e+02
3.500000e-07	-4.175203e-06	-2.761575e-09	-2.994790e+01	-1.816102e+02
3.600000e-07	-4.110975e-06	-2.726325e-09	-2.948720e+01	-1.800839e+02
3.700000e-07	-4.045018e-06	-2.705445e-09	-2.901411e+01	-1.784960e+02
3.800000e-07	-3.977451e-06	-2.701918e-09	-2.852947e+01	-1.768497e+02
3.900000e-07	-3.908621e-06	-2.658016e-09	-2.803576e+01	-1.751501e+02
4.000000e-07	-3.838536e-06	-2.628444e-09	-2.753306e+01	-1.734035e+02
4.100000e-07	-3.767237e-06	-2.607913e-09	-2.702165e+01	-1.716160e+02
4.200000e-07	-3.694645e-06	-2.590088e-09	-2.650096e+01	-1.697933e+02
4.300000e-07	-3.620447e-06	-2.558634e-09	-2.596875e+01	-1.679391e+02
4.400000e-07	-3.544655e-06	-2.522272e-09	-2.542511e+01	-1.660552e+02
4.500000e-07	-3.467492e-06	-2.505470e-09	-2.487163e+01	-1.641406e+02
4.600000e-07	-3.388929e-06	-2.484364e-09	-2.430812e+01	-1.621920e+02
4.700000e-07	-3.308947e-06	-2.446472e-09	-2.373442e+01	-1.602041e+02
4.800000e-07	-3.227739e-06	-2.396751e-09	-2.315193e+01	-1.581703e+02
4.900000e-07	-3.145446e-06	-2.372636e-09	-2.256166e+01	-1.560833e+02
5.000000e-07	-3.062130e-06	-2.361340e-09	-2.196405e+01	-1.539363e+02
5.100000e-07	-2.977916e-06	-2.324368e-09	-2.136000e+01	-1.517236e+02
5.200000e-07	-2.892721e-06	-2.272160e-09	-2.074892e+01	-1.494409e+02
5.300000e-07	-2.806517e-06	-2.236916e-09	-2.013059e+01	-1.470863e+02
5.400000e-07	-2.719419e-06	-2.221262e-09	-1.950585e+01	-1.446595e+02
5.500000e-07	-2.631477e-06	-2.195745e-09	-1.887506e+01	-1.421622e+02
5.600000e-07	-2.542430e-06	-2.142802e-09	-1.823635e+01	-1.395972e+02
5.700000e-07	-2.452057e-06	-2.085649e-09	-1.758812e+01	-1.369678e+02
5.800000e-07	-2.360663e-06	-2.049356e-09	-1.693256e+01	-1.342773e+02
5.900000e-07	-2.268583e-06	-2.027444e-09	-1.627209e+01	-1.315282e+02
6.000000e-07	-2.175770e-06	-1.988378e-09	-1.560637e+01	-1.287218e+02
6.100000e-07	-2.082192e-06	-1.925752e-09	-1.493515e+01	-1.258582e+02
6.200000e-07	-1.987934e-06	-1.871066e-09	-1.425905e+01	-1.229360e+02
6.300000e-07	-1.892984e-06	-1.837171e-09	-1.357800e+01	-1.199525e+02
6.400000e-07	-1.797375e-06	-1.806094e-09	-1.289221e+01	-1.169046e+02
6.500000e-07	-1.701169e-06	-1.756816e-09	-1.220215e+01	-1.137888e+02
6.600000e-07	-1.604304e-06	-1.695489e-09	-1.150735e+01	-1.106020e+02
6.700000e-07	-1.506699e-06	-1.641590e-09	-1.080726e+01	-1.073421e+02
6.800000e-07	-1.408365e-06	-1.600976e-09	-1.010192e+01	-1.040078e+02
6.900000e-07	-1.309398e-06	-1.559316e-09	-9.392053e+00	-1.005993e+02
7.000000e-07	-1.210007e-06	-1.500636e-09	-8.679139e+00	-9.711770e+01
7.100000e-07	-1.110317e-06	-1.431885e-09	-7.964085e+00	-9.356525e+01
7.200000e-07	-1.010442e-06	-1.372655e-09	-7.247697e+00	-8.994445e+01
7.300000e-07	-9.103352e-07	-1.331017e-09	-6.529653e+00	-8.625781e+01
7.400000e-07	-8.099101e-07	-1.285239e-09	-5.809324e+00	-8.250736e+01
7.500000e-07	-7.092308e-07	-1.218955e-09	-5.087171e+00	-7.869422e+01
7.600000e-07	-6.082381e-07	-1.144270e-09	-4.362771e+00	-7.481842e+01
7.700000e-07	-5.069850e-07	-1.082105e-09	-3.636503e+00	-7.087885e+01
7.800000e-07	-4.055596e-07	-1.034693e-09	-2.908998e+00	-6.687336e+01
7.900000e-07	-3.039977e-07	-9.797236e-10	-2.180515e+00	-6.279913e+01
8.000000e-07	-2.023637e-07	-9.051808e-10	-1.451514e+00	-5.865299e+01
8.100000e-07	-1.006257e-07	-8.251943e-10	-7.217684e-01	-5.443194e+01
8.200000e-07	1.220129e-09	-7.623615e-10	8.751740e-03	-5.013350e+01
8.300000e-07	1.031028e-07	-7.135788e-10	7.395358e-01	-4.575607e+01
8.400000e-07	2.049284e-07	-6.523698e-10	1.469911e+00	-4.129906e+01
8.500000e-07	3.066801e-07	-5.670792e-10	2.199755e+00	-3.676292e+01
8.600000e-07	4.083475e-07	-4.830412e-10	2.928996e+00	-3.214900e+01
8.700000e-07	5.099463e-07	-4.216079e-10	3.657744e+00	-2.745923e+01
8.800000e-07	6.114230e-07	-3.673387e-10	4.385616e+00	-2.269586e+01
8.900000e-07	7.126272e-07	-2.918746e-10	5.111533e+00	-1.786105e+01
9.000000e-07	8.135122e-07	-1.965830e-10	5.835161e+00	-1.295665e+01
9.100000e-07	9.141318e-07	-1.142451e-10	6.556885e+00	-7.984058e+00
9.200000e-07	1.014495e-06	-5.551027e-11	7.276768e+00	-2.944191e+00
9.300000e-07	1.114529e-06	5.634331e-12	7.994297e+00	2.162296e+00
9.400000e-07	1.214261e-06	9.425872e-11	8.709650e+00	7.334701e+00
9.500000e-07	1.313722e-06	1.937915e-10	9.423069e+00	1.257183e+01
9.600000e-07	1.412692e-06	2.726139e-10	1.013296e+01	1.787154e+01
9.700000e-07	1.510921e-06	3.343510e-10	1.083753e+01	2.323025e+01
9.800000e-07	1.608288e-06	4.109677e-10	1.153593e+01	2.864260e+01
9.900000e-07	1.704838e-06	5.121283e-10	1.222847e+01	3.410121e+01
1.000000e-06	1.800794e-06	6.105220e-10	1.291674e+01	3.959667e+01
1.010000e-06	1.896219e-06	6.849832e-10	1.360120e+01	4.511763e+01
1.020000e-06	1.990939e-06	7.499603e-10	1.428061e+01	5.065113e+01
1.030000e-06	2.084900e-06	8.347757e-10	1.495457e+01	5.618306e+01
1.040000e-06	2.178120e-06	9.355836e-10	1.562322e+01	6.169861e+01
1.050000e-06	2.270618e-06	1.026068e-09	1.628669e+01	6.718283e+01
1.060000e-06	2.362507e-06	1.096950e-09	1.694579e+01	7.262107e+01
1.070000e-06	2.453721e-06	1.169300e-09	1.760005e+01	7.799938e+01
1.080000e-06	2.543913e-06	1.259433e-09	1.824698e+01	8.330475e+01
1.090000e-06	2.632910e-06	1.354569e-09	1.888534e+01	8.852527e+01
1.100000e-06	2.720851e-06	1.434067e-09	1.951613e+01	9.365013e+01
1.110000e-06	2.807857e-06	1.499510e-09	2.014020e+01	9.866962e+01
1.120000e-06	2.893994e-06	1.570048e-09	2.075805e+01	1.035750e+02
1.130000e-06	2.979224e-06	1.651043e-09	2.136938e+01	1.083586e+02
1.140000e-06	3.063527e-06	1.727739e-09	2.197407e+01	1.130136e+02
1.150000e-06	3.146944e-06	1.790360e-09	2.257240e+01	1.175341e+02
1.160000e-06	3.229272e-06	1.848933e-09	2.316292e+01	1.219154e+02
1.170000e-06	3.310339e-06	1.913256e-09	2.374440e+01	1.261541e+02
1.180000e-06	3.390234e-06	1.982505e-09	2.431747e+01	1.302482e+02
1.190000e-06	3.468937e-06	2.046459e-09	2.488200e+01	1.341972e+02
1.200000e-06	3.546424e-06	2.100600e-09	2.543780e+01	1.380022e+02
1.210000e-06	3.622695e-06	2.151559e-09	2.598487e+01	1.416660e+02
1.220000e-06	3.697515e-06	2.205371e-09	2.652154e+01	1.451927e+02
1.230000e-06	3.770686e-06	2.259527e-09	2.704638e+01	1.485874e+02
1.240000e-06	3.842353e-06	2.308174e-09	2.756043e+01	1.518560e+02
1.250000e-06	3.912696e-06	2.350407e-09	2.806499e+01	1.550042e+02
1.260000e-06	3.981711e-06	2.393120e-09	2.856002e+01	1.580378e+02
1.270000e-06	4.049456e-06	2.439808e-09	2.904594e+01	1.609614e+02
1.280000e-06	4.115701e-06	2.487134e-09	2.952111e+01	1.637787e+02
1.290000e-06	4.180224e-06	2.530764e-09	2.998391e+01	1.664923e+02
1.300000e-06	4.243209e-06	2.569917e-09	3.043570e+01	1.691033e+02
1.310000e-06	4.304780e-06	2.607516e-09	3.087733e+01	1.716123e+02
1.320000e-06	4.365005e-06	2.641885e-09	3.130931e+01	1.740189e+02
1.330000e-06	4.423760e-06	2.673502e-09	3.173075e+01	1.763229e+02
1.340000e-06	4.480711e-06	2.703855e-09	3.213925e+01	1.785244e+02
1.350000e-06	4.535961e-06	2.733437e-09	3.253555e+01	1.806242e+02
1.360000e-06	4.589705e-06	2.762502e-09	3.292104e+01	1.826241e+02
1.370000e-06	4.641681e-06	2.790970e-09	3.329385e+01	1.845271e+02
1.380000e-06	4.691577e-06	2.821392e-09	3.365175e+01	1.863369e+02
1.390000e-06	4.739502e-06	2.852217e-09	3.399551e+01	1.880582e+02
1.400000e-06	4.785752e-06	2.878139e-09	3.432725e+01	1.896955e+02
1.410000e-06	4.830435e-06	2.899306e-09	3.464775e+01	1.912530e+02
1.420000e-06	4.873508e-06	2.921046e-09	3.495670e+01	1.927343e+02
1.430000e-06	4.914738e-06	2.942306e-09	3.525244e+01	1.941412e+02
1.440000e-06	4.954181e-06	2.960059e-09	3.553536e+01	1.954745e+02
1.450000e-06	4.992004e-06	2.975650e-09	3.580665e+01	1.967332e+02
1.460000e-06	5.028241e-06	2.991024e-09	3.606657e+01	1.979152e+02
1.470000e-06	5.062693e-06	3.006891e-09	3.631369e+01	1.990177e+02
1.480000e-06	5.095177e-06	3.023268e-09	3.654669e+01	2.000378e+02
1.490000e-06	5.125869e-06	3.039980e-09	3.676684e+01	2.009734e+02
1.500000e-06	5.154900e-06	3.054714e-09	3.697507e+01	2.018237e+02
1.510000e-06	5.182258e-06	3.066196e-09	3.717131e+01	2.025896e+02
1.520000e-06	5.207600e-06	3.077257e-09	3.735308e+01	2.032744e+02
1.530000e-06	5.230905e-06	3.086958e-09	3.752024e+01	2.038832e+02
1.540000e-06	5.252438e-06	3.093506e-09	3.767470e+01	2.044231e+02
1.550000e-06	5.272241e-06	3.098312e-09	3.781674e+01	2.049021e+02
1.560000e-06	5.290189e-06	3.101702e-09	3.794547e+01	2.053285e+02
1.570000e-06	5.306117e-06	3.106385e-09	3.805972e+01	2.057098e+02
1.580000e-06	5.320098e-06	3.113168e-09	3.816001e+01	2.060519e+02
1.590000e-06	5.332090e-06	3.120539e-09	3.824602e+01	2.063585e+02
1.600000e-06	5.341856e-06	3.125599e-09	3.831607e+01	2.066304e+02
1.610000e-06	5.349537e-06	3.127857e-09	3.837117e+01	2.068657e+02
1.620000e-06	5.355411e-06	3.130266e-09	3.841330e+01	2.070599e+02
1.630000e-06	5.359579e-06	3.133702e-09	3.844319e+01	2.072069e+02
1.640000e-06	5.361797e-06	3.137117e-09	3.845911e+01	2.073000e+02
1.650000e-06	5.361922e-06	3.137379e-09	3.846000e+01	2.073327e+02
1.660000e-06	5.360273e-06	3.133042e-09	3.844817e+01	2.073002e+02
1.670000e-06	5.357034e-06	3.133055e-09	3.842494e+01	2.072005e+02
1.680000e-06	5.352133e-06	3.134634e-09	3.838979e+01	2.070346e+02
1.690000e-06	5.345320e-06	3.134327e-09	3.834092e+01	2.068070e+02
1.700000e-06	5.336710e-06	3.131950e-09	3.827916e+01	2.065255e+02
1.710000e-06	5.326556e-06	3.127739e-09	3.820632e+01	2.062005e+02
1.720000e-06	5.314716e-06	3.136312e-09	3.812140e+01	2.058439e+02
1.730000e-06	5.300937e-06	3.129970e-09	3.802257e+01	2.054676e+02
1.740000e-06	5.285099e-06	3.067661e-09	3.790896e+01	2.050823e+02
1.750000e-06	5.266943e-06	3.051262e-09	3.777873e+01	2.046961e+02
1.760000e-06	5.246147e-06	3.052129e-09	3.762957e+01	2.043136e+02
1.770000e-06	5.223035e-06	3.098291e-09	3.746379e+01	2.039351e+02
1.780000e-06	5.198611e-06	3.178466e-09	3.728860e+01	2.035567e+02
1.790000e-06	5.173487e-06	3.030072e-09	3.710840e+01	2.031705e+02
1.800000e-06	5.146902e-06	3.004908e-09	3.691771e+01	2.027656e+02
1.810000e-06	5.118079e-06	3.090709e-09	3.671097e+01	2.023295e+02
1.820000e-06	5.087523e-06	3.008483e-09	3.649179e+01	2.018493e+02
1.830000e-06	5.055401e-06	3.112559e-09	3.626139e+01	2.013131e+02
1.840000e-06	5.021273e-06	3.098584e-09	3.601659e+01	2.007116e+02
1.850000e-06	4.985490e-06	2.927646e-09	3.575993e+01	2.000385e+02
1.860000e-06	4.948009e-06	3.072843e-09	3.549109e+01	1.992914e+02
1.870000e-06	4.908668e-06	3.098442e-09	3.520890e+01	1.984718e+02
1.880000e-06	4.867677e-06	2.985433e-09	3.491488e+01	1.975840e+02
1.890000e-06	4.824738e-06	3.000530e-09	3.460688e+01	1.966350e+02
1.900000e-06	4.780201e-06	2.941452e-09	3.428743e+01	1.956327e+02
1.910000e-06	4.734115e-06	3.014044e-09	3.395686e+01	1.945852e+02
1.920000e-06	4.686004e-06	3.025664e-09	3.361178e+01	1.934991e+02
1.930000e-06	4.636124e-06	2.900925e-09	3.325400e+01	1.923790e+02
1.940000e-06	4.584484e-06	2.958339e-09	3.288360e+01	1.912268e+02
1.950000e-06	4.530937e-06	2.947339e-09	3.249951e+01	1.900414e+02
1.960000e-06	4.475511e-06	2.930562e-09	3.210195e+01	1.888196e+02
1.970000e-06	4.418269e-06	2.893136e-09	3.169136e+01	1.875561e+02
1.980000e-06	4.359547e-06	2.825750e-09	3.127017e+01	1.862446e+02
1.990000e-06	4.299459e-06	2.880491e-09	3.083917e+01	1.848793e+02
2.000000e-06	4.237766e-06	2.825797e-09	3.039666e+01	1.834551e+02
2.010000e-06	4.174365e-06	2.807398e-09	2.994189e+01	1.819690e+02
2.020000e-06	4.109417e-06	2.784542e-09	2.947603e+01	1.804203e+02
2.030000e-06	4.043065e-06	2.731304e-09	2.900010e+01	1.788109e+02
2.040000e-06	3.975314e-06	2.757419e-09	2.851413e+01	1.771448e+02
2.050000e-06	3.906172e-06	2.691255e-09	2.801819e+01	1.754276e+02
2.060000e-06	3.835524e-06	2.663820e-09	2.751145e+01	1.736655e+02
2.070000e-06	3.763406e-06	2.636333e-09	2.699416e+01	1.718647e+02
2.080000e-06	3.689960e-06	2.615137e-09	2.646735e+01	1.700303e+02
2.090000e-06	3.615165e-06	2.615355e-09	2.593086e+01	1.681653e+02
2.100000e-06	3.539076e-06	2.544399e-09	2.538509e+01	1.662705e+02
2.110000e-06	3.461514e-06	2.516742e-09	2.482875e+01	1.643441e+02
2.120000e-06	3.382417e-06	2.497109e-09	2.426140e+01	1.623821e+02
2.130000e-06	3.302126e-06	2.490295e-09	2.368549e+01	1.603785e+02
2.140000e-06	3.220769e-06	2.440997e-09	2.310193e+01	1.583263e+02
2.150000e-06	3.138326e-06	2.372573e-09	2.251059e+01	1.562185e+02
2.160000e-06	3.054867e-06	2.358751e-09	2.191195e+01	1.540485e+02
2.170000e-06	2.970475e-06	2.340995e-09	2.130662e+01	1.518110e+02
2.180000e-06	2.884859e-06	2.311057e-09	2.069252e+01	1.495027e+02
2.190000e-06	2.797822e-06	2.246178e-09	2.006822e+01	1.471221e+02
2.200000e-06	2.709756e-06	2.202839e-09	1.943654e+01	1.446697e+02
2.210000e-06	2.620849e-06	2.186922e-09	1.879883e+01	1.421477e+02
2.220000e-06	2.531004e-06	2.163722e-09	1.815439e+01	1.395592e+02
2.230000e-06	2.440289e-06	2.114078e-09	1.750371e+01	1.369075e+02
2.240000e-06	2.348799e-06	2.043666e-09	1.684747e+01	1.341957e+02
2.250000e-06	2.256574e-06	2.004462e-09	1.618595e+01	1.314259e+02
2.260000e-06	2.163585e-06	1.980611e-09	1.551896e+01	1.285990e+02
2.270000e-06	2.069637e-06	1.945170e-09	1.484509e+01	1.257146e+02
2.280000e-06	1.974642e-06	1.885771e-09	1.416371e+01	1.227706e+02
2.290000e-06	1.878818e-06	1.823324e-09	1.347639e+01	1.197644e+02
2.300000e-06	1.782445e-06	1.781833e-09	1.278512e+01	1.166925e+02
2.310000e-06	1.685622e-06	1.754057e-09	1.209063e+01	1.135515e+02
2.320000e-06	1.588278e-06	1.714568e-09	1.139240e+01	1.103387e+02
2.330000e-06	1.490375e-06	1.647564e-09	1.069016e+01	1.070521e+02
2.340000e-06	1.391955e-06	1.576048e-09	9.984218e+00	1.036911e+02
2.350000e-06	1.293109e-06	1.528638e-09	9.275212e+00	1.002562e+02
2.360000e-06	1.193949e-06	1.499770e-09	8.563960e+00	9.674887e+01
2.370000e-06	1.094466e-06	1.450779e-09	7.850389e+00	9.317157e+01
2.380000e-06	9.946498e-07	1.373208e-09	7.134426e+00	8.952685e+01
2.390000e-06	8.945631e-07	1.299924e-09	6.416524e+00	8.581709e+01
2.400000e-06	7.942258e-07	1.255442e-09	5.696824e+00	8.204403e+01
2.410000e-06	6.936606e-07	1.222753e-09	4.975490e+00	7.820844e+01
2.420000e-06	5.928766e-07	1.164723e-09	4.252586e+00	7.430991e+01
2.430000e-06	4.919386e-07	1.077872e-09	3.528578e+00	7.034695e+01
2.440000e-06	3.908439e-07	1.001941e-09	2.803446e+00	6.631712e+01
2.450000e-06	2.895551e-07	9.597419e-10	2.076921e+00	6.221743e+01
2.460000e-06	1.881285e-07	9.219502e-10	1.349408e+00	5.804473e+01
2.470000e-06	8.654566e-08	8.492860e-10	6.207748e-01	5.379614e+01
2.480000e-06	-1.506495e-08	7.517263e-10	-1.080579e-01	4.946949e+01
2.490000e-06	-1.166950e-07	6.778990e-10	-8.370303e-01	4.506351e+01
2.500000e-06	-2.183393e-07	6.392384e-10	-1.566105e+00	4.057800e+01
2.510000e-06	-3.198353e-07	5.898441e-10	-2.294115e+00	3.601376e+01
2.520000e-06	-4.211657e-07	4.981201e-10	-3.020938e+00	3.137236e+01
2.530000e-06	-5.223631e-07	3.969897e-10	-3.746807e+00	2.665591e+01
2.540000e-06	-6.234315e-07	3.306003e-10	-4.471750e+00	2.186665e+01
2.550000e-06	-7.243039e-07	2.871113e-10	-5.195288e+00	1.700666e+01
2.560000e-06	-8.249253e-07	2.194616e-10	-5.917025e+00	1.207763e+01
2.570000e-06	-9.252181e-07	1.169386e-10	-6.636405e+00	7.080790e+00
2.580000e-06	-1.025208e-06	2.024076e-11	-7.353613e+00	2.016923e+00
2.590000e-06	-1.124875e-06	-4.210007e-11	-8.068502e+00	-3.113340e+00
2.600000e-06	-1.224116e-06	-9.676597e-11	-8.780339e+00	-8.309177e+00
2.610000e-06	-1.322927e-06	-1.812650e-10	-9.489092e+00	-1.356911e+01
2.620000e-06	-1.421276e-06	-2.874131e-10	-1.019453e+01	-1.889052e+01
2.630000e-06	-1.519115e-06	-3.752966e-10	-1.089631e+01	-2.426924e+01
2.640000e-06	-1.616419e-06	-4.378592e-10	-1.159425e+01	-2.969920e+01
2.650000e-06	-1.713203e-06	-5.083882e-10	-1.228847e+01	-3.517230e+01
2.660000e-06	-1.809519e-06	-6.065850e-10	-1.297932e+01	-4.067840e+01
2.670000e-06	-1.905338e-06	-7.111066e-10	-1.366661e+01	-4.620553e+01
2.680000e-06	-2.000465e-06	-7.915177e-10	-1.434894e+01	-5.174028e+01
2.690000e-06	-2.094644e-06	-8.555949e-10	-1.502446e+01	-5.726821e+01
2.700000e-06	-2.187804e-06	-9.321572e-10	-1.569269e+01	-6.277442e+01
2.710000e-06	-2.280024e-06	-1.028028e-09	-1.635416e+01	-6.824401e+01
2.720000e-06	-2.371389e-06	-1.119894e-09	-1.700950e+01	-7.366254e+01
2.730000e-06	-2.462027e-06	-1.192239e-09	-1.765963e+01	-7.901638e+01
2.740000e-06	-2.551821e-06	-1.259270e-09	-1.830371e+01	-8.429289e+01
2.750000e-06	-2.640690e-06	-1.339991e-09	-1.894115e+01	-8.948056e+01
2.760000e-06	-2.728796e-06	-1.430343e-09	-1.957311e+01	-9.456899e+01
2.770000e-06	-2.816076e-06	-1.510247e-09	-2.019916e+01	-9.954883e+01
2.780000e-06	-2.902252e-06	-1.575992e-09	-2.081728e+01	-1.044117e+02
2.790000e-06	-2.987254e-06	-1.641286e-09	-2.142698e+01	-1.091502e+02
2.800000e-06	-3.071149e-06	-1.714750e-09	-2.202874e+01	-1.137579e+02
2.810000e-06	-3.154006e-06	-1.789146e-09	-2.262306e+01	-1.182293e+02
2.820000e-06	-3.235877e-06	-1.854310e-09	-2.321031e+01	-1.225602e+02
2.830000e-06	-3.316732e-06	-1.914258e-09	-2.379026e+01	-1.267475e+02
2.840000e-06	-3.396506e-06	-1.976730e-09	-2.436246e+01	-1.307899e+02
2.850000e-06	-3.474836e-06	-2.040221e-09	-2.492431e+01	-1.346874e+02
2.860000e-06	-3.551653e-06	-2.099603e-09	-2.547530e+01	-1.384417e+02
2.870000e-06	-3.627073e-06	-2.154154e-09	-2.601627e+01	-1.420561e+02
2.880000e-06	-3.701049e-06	-2.206743e-09	-2.654689e+01	-1.455352e+02
2.890000e-06	-3.773772e-06	-2.257453e-09	-2.706851e+01	-1.488843e+02
2.900000e-06	-3.845114e-06	-2.306168e-09	-2.758024e+01	-1.521094e+02
2.910000e-06	-3.914835e-06	-2.353539e-09	-2.808033e+01	-1.552162e+02
2.920000e-06	-3.983065e-06	-2.399971e-09	-2.856973e+01	-1.582101e+02
2.930000e-06	-4.049924e-06	-2.445954e-09	-2.904930e+01	-1.610956e+02
2.940000e-06	-4.115423e-06	-2.489310e-09	-2.951911e+01	-1.638758e+02
