# Temperatura_=_20.0
# Concentracion g/m^3_=_12600.0
# C_Vs_to_Am_M_A/Vsm_=_65563218390.804596
# pendiente_HvsI_1/m_=_3716.3
# ordenada_HvsI_A/m_=_1297.0
# frecuencia_Hz_=_301840.214246401

Tiempo_(s)	Campo_(V.s)	Magnetizacion_(V.s)	Campo_(kA/m)	Magnetizacion_(A/m)
0.000000e+00	-5.355821e-06	-3.213674e-09	-3.827597e+01	-2.108204e+02
1.000000e-08	-5.353217e-06	-3.211975e-09	-3.825735e+01	-2.107418e+02
2.000000e-08	-5.348802e-06	-3.209354e-09	-3.822580e+01	-2.106015e+02
3.000000e-08	-5.342778e-06	-3.207822e-09	-3.818275e+01	-2.104013e+02
4.000000e-08	-5.335145e-06	-3.205936e-09	-3.812820e+01	-2.101458e+02
5.000000e-08	-5.325604e-06	-3.201041e-09	-3.806001e+01	-2.098420e+02
6.000000e-08	-5.314022e-06	-3.192450e-09	-3.797724e+01	-2.094991e+02
7.000000e-08	-5.300564e-06	-3.179518e-09	-3.788107e+01	-2.091273e+02
8.000000e-08	-5.285034e-06	-3.187806e-09	-3.777008e+01	-2.087370e+02
9.000000e-08	-5.267338e-06	-3.208892e-09	-3.764361e+01	-2.083376e+02
1.000000e-07	-5.247660e-06	-3.198046e-09	-3.750298e+01	-2.079362e+02
1.100000e-07	-5.226076e-06	-3.177727e-09	-3.734872e+01	-2.075365e+02
1.200000e-07	-5.202713e-06	-3.144999e-09	-3.718176e+01	-2.071385e+02
1.300000e-07	-5.177702e-06	-3.097280e-09	-3.700302e+01	-2.067378e+02
1.400000e-07	-5.151121e-06	-3.154743e-09	-3.681305e+01	-2.063261e+02
1.500000e-07	-5.123061e-06	-3.178559e-09	-3.661252e+01	-2.058918e+02
1.600000e-07	-5.093581e-06	-3.101439e-09	-3.640184e+01	-2.054211e+02
1.700000e-07	-5.062547e-06	-3.110917e-09	-3.618005e+01	-2.048994e+02
1.800000e-07	-5.029403e-06	-3.076667e-09	-3.594318e+01	-2.043128e+02
1.900000e-07	-4.994284e-06	-3.058040e-09	-3.569220e+01	-2.036493e+02
2.000000e-07	-4.957763e-06	-3.136745e-09	-3.543120e+01	-2.029005e+02
2.100000e-07	-4.919541e-06	-3.079230e-09	-3.515804e+01	-2.020618e+02
2.200000e-07	-4.879394e-06	-3.001685e-09	-3.487113e+01	-2.011332e+02
2.300000e-07	-4.837283e-06	-3.023519e-09	-3.457017e+01	-2.001189e+02
2.400000e-07	-4.793310e-06	-3.026885e-09	-3.425592e+01	-1.990266e+02
2.500000e-07	-4.747691e-06	-3.026538e-09	-3.392989e+01	-1.978667e+02
2.600000e-07	-4.700099e-06	-2.985935e-09	-3.358978e+01	-1.966507e+02
2.700000e-07	-4.650273e-06	-2.939374e-09	-3.323368e+01	-1.953900e+02
2.800000e-07	-4.598453e-06	-2.942493e-09	-3.286335e+01	-1.940947e+02
2.900000e-07	-4.544933e-06	-2.932069e-09	-3.248086e+01	-1.927720e+02
3.000000e-07	-4.489833e-06	-2.909288e-09	-3.208708e+01	-1.914264e+02
3.100000e-07	-4.433010e-06	-2.881292e-09	-3.168099e+01	-1.900588e+02
3.200000e-07	-4.374355e-06	-2.866183e-09	-3.126181e+01	-1.886670e+02
3.300000e-07	-4.314125e-06	-2.850087e-09	-3.083137e+01	-1.872462e+02
3.400000e-07	-4.252517e-06	-2.821373e-09	-3.039108e+01	-1.857901e+02
3.500000e-07	-4.189578e-06	-2.811743e-09	-2.994128e+01	-1.842918e+02
3.600000e-07	-4.125142e-06	-2.787119e-09	-2.948078e+01	-1.827450e+02
3.700000e-07	-4.058955e-06	-2.749854e-09	-2.900777e+01	-1.811447e+02
3.800000e-07	-3.991176e-06	-2.718779e-09	-2.852338e+01	-1.794880e+02
3.900000e-07	-3.922098e-06	-2.695727e-09	-2.802971e+01	-1.777746e+02
4.000000e-07	-3.851756e-06	-2.689050e-09	-2.752700e+01	-1.760060e+02
4.100000e-07	-3.780130e-06	-2.657882e-09	-2.701511e+01	-1.741858e+02
4.200000e-07	-3.707108e-06	-2.609016e-09	-2.649325e+01	-1.723186e+02
4.300000e-07	-3.632531e-06	-2.571585e-09	-2.596028e+01	-1.704092e+02
4.400000e-07	-3.556451e-06	-2.564779e-09	-2.541656e+01	-1.684618e+02
4.500000e-07	-3.478990e-06	-2.561347e-09	-2.486299e+01	-1.664791e+02
4.600000e-07	-3.400092e-06	-2.516760e-09	-2.429913e+01	-1.644619e+02
4.700000e-07	-3.319831e-06	-2.453294e-09	-2.372553e+01	-1.624087e+02
4.800000e-07	-3.238377e-06	-2.417242e-09	-2.314342e+01	-1.603163e+02
4.900000e-07	-3.155802e-06	-2.420722e-09	-2.255329e+01	-1.581792e+02
5.000000e-07	-3.072236e-06	-2.406961e-09	-2.195607e+01	-1.559914e+02
5.100000e-07	-2.987748e-06	-2.343507e-09	-2.135227e+01	-1.537464e+02
5.200000e-07	-2.902289e-06	-2.278866e-09	-2.074153e+01	-1.514382e+02
5.300000e-07	-2.815840e-06	-2.262251e-09	-2.012371e+01	-1.490622e+02
5.400000e-07	-2.728471e-06	-2.265694e-09	-1.949932e+01	-1.466153e+02
5.500000e-07	-2.640155e-06	-2.228882e-09	-1.886816e+01	-1.440965e+02
5.600000e-07	-2.550662e-06	-2.153632e-09	-1.822858e+01	-1.415067e+02
5.700000e-07	-2.459955e-06	-2.096625e-09	-1.758034e+01	-1.388483e+02
5.800000e-07	-2.368342e-06	-2.083101e-09	-1.692562e+01	-1.361248e+02
5.900000e-07	-2.276007e-06	-2.069532e-09	-1.626573e+01	-1.333399e+02
6.000000e-07	-2.182890e-06	-2.010778e-09	-1.560026e+01	-1.304969e+02
6.100000e-07	-2.088990e-06	-1.931870e-09	-1.492920e+01	-1.275982e+02
6.200000e-07	-1.994394e-06	-1.887408e-09	-1.425316e+01	-1.246443e+02
6.300000e-07	-1.899165e-06	-1.875065e-09	-1.357259e+01	-1.216344e+02
6.400000e-07	-1.803270e-06	-1.845113e-09	-1.288727e+01	-1.185657e+02
6.500000e-07	-1.706647e-06	-1.776639e-09	-1.219674e+01	-1.154342e+02
6.600000e-07	-1.609195e-06	-1.704832e-09	-1.150029e+01	-1.122349e+02
6.700000e-07	-1.510980e-06	-1.662789e-09	-1.079838e+01	-1.089626e+02
6.800000e-07	-1.412226e-06	-1.634852e-09	-1.009263e+01	-1.056122e+02
6.900000e-07	-1.312978e-06	-1.585381e-09	-9.383343e+00	-1.021800e+02
7.000000e-07	-1.213322e-06	-1.509876e-09	-8.671142e+00	-9.866330e+01
7.100000e-07	-1.113383e-06	-1.440255e-09	-7.956912e+00	-9.506134e+01
7.200000e-07	-1.013175e-06	-1.396351e-09	-7.240764e+00	-9.137489e+01
7.300000e-07	-9.126697e-07	-1.360358e-09	-6.522494e+00	-8.760619e+01
7.400000e-07	-8.118597e-07	-1.303402e-09	-5.802044e+00	-8.375855e+01
7.500000e-07	-7.107709e-07	-1.227514e-09	-5.079602e+00	-7.983582e+01
7.600000e-07	-6.094403e-07	-1.157927e-09	-4.355432e+00	-7.584186e+01
7.700000e-07	-5.079041e-07	-1.105675e-09	-3.629793e+00	-7.178001e+01
7.800000e-07	-4.061752e-07	-1.055781e-09	-2.902775e+00	-6.765270e+01
7.900000e-07	-3.043106e-07	-9.879191e-10	-2.174789e+00	-6.346119e+01
8.000000e-07	-2.022986e-07	-9.057024e-10	-1.445749e+00	-5.920552e+01
8.100000e-07	-1.001448e-07	-8.303385e-10	-7.156955e-01	-5.488463e+01
8.200000e-07	2.043329e-09	-7.730179e-10	1.460288e-02	-5.049660e+01
8.300000e-07	1.042821e-07	-7.192618e-10	7.452638e-01	-4.603897e+01
8.400000e-07	2.065003e-07	-6.487254e-10	1.475777e+00	-4.150918e+01
8.500000e-07	3.086254e-07	-5.639036e-10	2.205626e+00	-3.690486e+01
8.600000e-07	4.106710e-07	-4.873462e-10	2.934905e+00	-3.222410e+01
8.700000e-07	5.125779e-07	-4.270417e-10	3.663194e+00	-2.746569e+01
8.800000e-07	6.142876e-07	-3.639625e-10	4.390074e+00	-2.262905e+01
8.900000e-07	7.158011e-07	-2.803179e-10	5.115551e+00	-1.771431e+01
9.000000e-07	8.171000e-07	-1.858507e-10	5.839495e+00	-1.272208e+01
9.100000e-07	9.181427e-07	-1.072442e-10	6.561607e+00	-7.653407e+00
9.200000e-07	1.018858e-06	-4.495563e-11	7.281377e+00	-2.509614e+00
9.300000e-07	1.119171e-06	2.550456e-11	7.998276e+00	2.707704e+00
9.400000e-07	1.219143e-06	1.170000e-10	8.712738e+00	7.996615e+00
9.500000e-07	1.318792e-06	2.121991e-10	9.424890e+00	1.335466e+01
9.600000e-07	1.418058e-06	2.876172e-10	1.013431e+01	1.877856e+01
9.700000e-07	1.516794e-06	3.541322e-10	1.083994e+01	2.426390e+01
9.800000e-07	1.614798e-06	4.386661e-10	1.154033e+01	2.980472e+01
9.900000e-07	1.711897e-06	5.415686e-10	1.223426e+01	3.539323e+01
1.000000e-06	1.808195e-06	6.380093e-10	1.292247e+01	4.101956e+01
1.010000e-06	1.903862e-06	7.156553e-10	1.360616e+01	4.667176e+01
1.020000e-06	1.998882e-06	7.906610e-10	1.428523e+01	5.233582e+01
1.030000e-06	2.093209e-06	8.799659e-10	1.495934e+01	5.799606e+01
1.040000e-06	2.186756e-06	9.770211e-10	1.562789e+01	6.363556e+01
1.050000e-06	2.279586e-06	1.063868e-09	1.629131e+01	6.923676e+01
1.060000e-06	2.371731e-06	1.137380e-09	1.694983e+01	7.478216e+01
1.070000e-06	2.463148e-06	1.215306e-09	1.760316e+01	8.025500e+01
1.080000e-06	2.553707e-06	1.306661e-09	1.825035e+01	8.563987e+01
1.090000e-06	2.643155e-06	1.399486e-09	1.888960e+01	9.092323e+01
1.100000e-06	2.731434e-06	1.479002e-09	1.952050e+01	9.609378e+01
1.110000e-06	2.818756e-06	1.549721e-09	2.014455e+01	1.011426e+02
1.120000e-06	2.905262e-06	1.624724e-09	2.076277e+01	1.060631e+02
1.130000e-06	2.990825e-06	1.703678e-09	2.137426e+01	1.108510e+02
1.140000e-06	3.075356e-06	1.776226e-09	2.197837e+01	1.155039e+02
1.150000e-06	3.159005e-06	1.840833e-09	2.257617e+01	1.200209e+02
1.160000e-06	3.241706e-06	1.903628e-09	2.316720e+01	1.244025e+02
1.170000e-06	3.323151e-06	1.967704e-09	2.374926e+01	1.286497e+02
1.180000e-06	3.403296e-06	2.034243e-09	2.432203e+01	1.327644e+02
1.190000e-06	3.482215e-06	2.098013e-09	2.488603e+01	1.367484e+02
1.200000e-06	3.559930e-06	2.155949e-09	2.544143e+01	1.406040e+02
1.210000e-06	3.636443e-06	2.210356e-09	2.598824e+01	1.443333e+02
1.220000e-06	3.711640e-06	2.264922e-09	2.652564e+01	1.479384e+02
1.230000e-06	3.785200e-06	2.319061e-09	2.705135e+01	1.514214e+02
1.240000e-06	3.857129e-06	2.370348e-09	2.756539e+01	1.547844e+02
1.250000e-06	3.927690e-06	2.417352e-09	2.806967e+01	1.580293e+02
1.260000e-06	3.996895e-06	2.462471e-09	2.856425e+01	1.611578e+02
1.270000e-06	4.064774e-06	2.507788e-09	2.904935e+01	1.641717e+02
1.280000e-06	4.131241e-06	2.553706e-09	2.952437e+01	1.670721e+02
1.290000e-06	4.196035e-06	2.598820e-09	2.998742e+01	1.698603e+02
1.300000e-06	4.259220e-06	2.640169e-09	3.043899e+01	1.725370e+02
1.310000e-06	4.320982e-06	2.678262e-09	3.088038e+01	1.751027e+02
1.320000e-06	4.381360e-06	2.712822e-09	3.131187e+01	1.775582e+02
1.330000e-06	4.440331e-06	2.746191e-09	3.173331e+01	1.799039e+02
1.340000e-06	4.497629e-06	2.779229e-09	3.214280e+01	1.821410e+02
1.350000e-06	4.553153e-06	2.810775e-09	3.253961e+01	1.842710e+02
1.360000e-06	4.606980e-06	2.839444e-09	3.292429e+01	1.862961e+02
1.370000e-06	4.659070e-06	2.867071e-09	3.329655e+01	1.882194e+02
1.380000e-06	4.709202e-06	2.898005e-09	3.365483e+01	1.900448e+02
1.390000e-06	4.757330e-06	2.929369e-09	3.399878e+01	1.917766e+02
1.400000e-06	4.803723e-06	2.955408e-09	3.433033e+01	1.934200e+02
1.410000e-06	4.848564e-06	2.976979e-09	3.465080e+01	1.949800e+02
1.420000e-06	4.891789e-06	2.998511e-09	3.495970e+01	1.964613e+02
1.430000e-06	4.933103e-06	3.019894e-09	3.525496e+01	1.978681e+02
1.440000e-06	4.972602e-06	3.039505e-09	3.553725e+01	1.992035e+02
1.450000e-06	5.010489e-06	3.056829e-09	3.580801e+01	2.004697e+02
1.460000e-06	5.046781e-06	3.072244e-09	3.606737e+01	2.016672e+02
1.470000e-06	5.081324e-06	3.088350e-09	3.631424e+01	2.027958e+02
1.480000e-06	5.113910e-06	3.106480e-09	3.654712e+01	2.038543e+02
1.490000e-06	5.144658e-06	3.124152e-09	3.676686e+01	2.048411e+02
1.500000e-06	5.173749e-06	3.138799e-09	3.697477e+01	2.057545e+02
1.510000e-06	5.201206e-06	3.150843e-09	3.717099e+01	2.065934e+02
1.520000e-06	5.226675e-06	3.162249e-09	3.735300e+01	2.073578e+02
1.530000e-06	5.250058e-06	3.173962e-09	3.752012e+01	2.080486e+02
1.540000e-06	5.271639e-06	3.184117e-09	3.767435e+01	2.086683e+02
1.550000e-06	5.291526e-06	3.190452e-09	3.781647e+01	2.092203e+02
1.560000e-06	5.309564e-06	3.193883e-09	3.794538e+01	2.097090e+02
1.570000e-06	5.325578e-06	3.199136e-09	3.805983e+01	2.101390e+02
1.580000e-06	5.339633e-06	3.207779e-09	3.816027e+01	2.105150e+02
1.590000e-06	5.351680e-06	3.216036e-09	3.824637e+01	2.108405e+02
1.600000e-06	5.361469e-06	3.221066e-09	3.831633e+01	2.111180e+02
1.610000e-06	5.369121e-06	3.222942e-09	3.837101e+01	2.113482e+02
1.620000e-06	5.374993e-06	3.226480e-09	3.841298e+01	2.115304e+02
1.630000e-06	5.379141e-06	3.231680e-09	3.844262e+01	2.116622e+02
1.640000e-06	5.381366e-06	3.234230e-09	3.845852e+01	2.117404e+02
1.650000e-06	5.381573e-06	3.232116e-09	3.846000e+01	2.117614e+02
1.660000e-06	5.379952e-06	3.227982e-09	3.844842e+01	2.117224e+02
1.670000e-06	5.376703e-06	3.228585e-09	3.842520e+01	2.116215e+02
1.680000e-06	5.371798e-06	3.229920e-09	3.839014e+01	2.114593e+02
1.690000e-06	5.364943e-06	3.228699e-09	3.834115e+01	2.112385e+02
1.700000e-06	5.356267e-06	3.225790e-09	3.827915e+01	2.109647e+02
1.710000e-06	5.346035e-06	3.222889e-09	3.820603e+01	2.106456e+02
1.720000e-06	5.334088e-06	3.227357e-09	3.812064e+01	2.102910e+02
1.730000e-06	5.320206e-06	3.214484e-09	3.802143e+01	2.099112e+02
1.740000e-06	5.304276e-06	3.176233e-09	3.790759e+01	2.095166e+02
1.750000e-06	5.286034e-06	3.162606e-09	3.777722e+01	2.091156e+02
1.760000e-06	5.265175e-06	3.160036e-09	3.762815e+01	2.087144e+02
1.770000e-06	5.242036e-06	3.197562e-09	3.746279e+01	2.083154e+02
1.780000e-06	5.217523e-06	3.229454e-09	3.728760e+01	2.079170e+02
1.790000e-06	5.192216e-06	3.145640e-09	3.710674e+01	2.075133e+02
1.800000e-06	5.165512e-06	3.144658e-09	3.691590e+01	2.070948e+02
1.810000e-06	5.136647e-06	3.173544e-09	3.670961e+01	2.066490e+02
1.820000e-06	5.106041e-06	3.148592e-09	3.649088e+01	2.061616e+02
1.830000e-06	5.073798e-06	3.212279e-09	3.626045e+01	2.056181e+02
1.840000e-06	5.039509e-06	3.162074e-09	3.601541e+01	2.050051e+02
1.850000e-06	5.003575e-06	3.071527e-09	3.575860e+01	2.043118e+02
1.860000e-06	4.965935e-06	3.143985e-09	3.548960e+01	2.035310e+02
1.870000e-06	4.926434e-06	3.137362e-09	3.520730e+01	2.026598e+02
1.880000e-06	4.885276e-06	3.089969e-09	3.491316e+01	2.016997e+02
1.890000e-06	4.842246e-06	3.078369e-09	3.460564e+01	2.006563e+02
1.900000e-06	4.797596e-06	3.020578e-09	3.428655e+01	1.995384e+02
1.910000e-06	4.751289e-06	3.043879e-09	3.395561e+01	1.983570e+02
1.920000e-06	4.702955e-06	3.025743e-09	3.361018e+01	1.971236e+02
1.930000e-06	4.652866e-06	2.985993e-09	3.325222e+01	1.958494e+02
1.940000e-06	4.600950e-06	3.008535e-09	3.288120e+01	1.945434e+02
1.950000e-06	4.547017e-06	2.951680e-09	3.249575e+01	1.932120e+02
1.960000e-06	4.491245e-06	2.917632e-09	3.209717e+01	1.918585e+02
1.970000e-06	4.433777e-06	2.893984e-09	3.168648e+01	1.904825e+02
1.980000e-06	4.374802e-06	2.888032e-09	3.126500e+01	1.890808e+02
1.990000e-06	4.314367e-06	2.902837e-09	3.083310e+01	1.876480e+02
2.000000e-06	4.252321e-06	2.826549e-09	3.038968e+01	1.861774e+02
2.010000e-06	4.188630e-06	2.800259e-09	2.993450e+01	1.846623e+02
2.020000e-06	4.123371e-06	2.799360e-09	2.946812e+01	1.830967e+02
2.030000e-06	4.056702e-06	2.792735e-09	2.899166e+01	1.814763e+02
2.040000e-06	3.988667e-06	2.767499e-09	2.850545e+01	1.797992e+02
2.050000e-06	3.919197e-06	2.681213e-09	2.800897e+01	1.780655e+02
2.060000e-06	3.848180e-06	2.663546e-09	2.750144e+01	1.762779e+02
2.070000e-06	3.775764e-06	2.672207e-09	2.698391e+01	1.744402e+02
2.080000e-06	3.702130e-06	2.664505e-09	2.645768e+01	1.725572e+02
2.090000e-06	3.627138e-06	2.607109e-09	2.592174e+01	1.706336e+02
2.100000e-06	3.550792e-06	2.528867e-09	2.537612e+01	1.686732e+02
2.110000e-06	3.472921e-06	2.526633e-09	2.481961e+01	1.666780e+02
2.120000e-06	3.393548e-06	2.539600e-09	2.425237e+01	1.646481e+02
2.130000e-06	3.313023e-06	2.515533e-09	2.367688e+01	1.625813e+02
2.140000e-06	3.231390e-06	2.429161e-09	2.309348e+01	1.604734e+02
2.150000e-06	3.148657e-06	2.368917e-09	2.250222e+01	1.583188e+02
2.160000e-06	3.064970e-06	2.377533e-09	2.190415e+01	1.561111e+02
2.170000e-06	2.980283e-06	2.373743e-09	2.129892e+01	1.538440e+02
2.180000e-06	2.894237e-06	2.315780e-09	2.068398e+01	1.515119e+02
2.190000e-06	2.806878e-06	2.231238e-09	2.005966e+01	1.491106e+02
2.200000e-06	2.718608e-06	2.202345e-09	1.942883e+01	1.466378e+02
2.210000e-06	2.629481e-06	2.209063e-09	1.879188e+01	1.440933e+02
2.220000e-06	2.539391e-06	2.183372e-09	1.814804e+01	1.414785e+02
2.230000e-06	2.448412e-06	2.105772e-09	1.749785e+01	1.387963e+02
2.240000e-06	2.356681e-06	2.031897e-09	1.684228e+01	1.360503e+02
2.250000e-06	2.264217e-06	2.011626e-09	1.618148e+01	1.332442e+02
2.260000e-06	2.170890e-06	2.001252e-09	1.551451e+01	1.303809e+02
2.270000e-06	2.076514e-06	1.952031e-09	1.484003e+01	1.274623e+02
2.280000e-06	1.981175e-06	1.872229e-09	1.415869e+01	1.244884e+02
2.290000e-06	1.885149e-06	1.814433e-09	1.347243e+01	1.214578e+02
2.300000e-06	1.788552e-06	1.794022e-09	1.278208e+01	1.183670e+02
2.310000e-06	1.691417e-06	1.772584e-09	1.208790e+01	1.152118e+02
2.320000e-06	1.593740e-06	1.714886e-09	1.138984e+01	1.119868e+02
2.330000e-06	1.495506e-06	1.635413e-09	1.068780e+01	1.086869e+02
2.340000e-06	1.396734e-06	1.574820e-09	9.981910e+00	1.053076e+02
2.350000e-06	1.297545e-06	1.542927e-09	9.273050e+00	1.018452e+02
2.360000e-06	1.198115e-06	1.507112e-09	8.562457e+00	9.829792e+01
2.370000e-06	1.098449e-06	1.439229e-09	7.850183e+00	9.466544e+01
2.380000e-06	9.985232e-07	1.358645e-09	7.136056e+00	9.094912e+01
2.390000e-06	8.983209e-07	1.300258e-09	6.419949e+00	8.715164e+01
2.400000e-06	7.977850e-07	1.264614e-09	5.701458e+00	8.327656e+01
2.410000e-06	6.969334e-07	1.219728e-09	4.980711e+00	7.932781e+01
2.420000e-06	5.957846e-07	1.145633e-09	4.257840e+00	7.530909e+01
2.430000e-06	4.943931e-07	1.059559e-09	3.533234e+00	7.122347e+01
2.440000e-06	3.928164e-07	9.959603e-10	2.807306e+00	6.707298e+01
2.450000e-06	2.909547e-07	9.545877e-10	2.079340e+00	6.285845e+01
2.460000e-06	1.888009e-07	9.003446e-10	1.349286e+00	5.857950e+01
2.470000e-06	8.650341e-08	8.156706e-10	6.182061e-01	5.423472e+01
2.480000e-06	-1.585058e-08	7.256899e-10	-1.132779e-01	4.982196e+01
2.490000e-06	-1.182068e-07	6.657136e-10	-8.447777e-01	4.533869e+01
2.500000e-06	-2.204991e-07	6.251406e-10	-1.575821e+00	4.078236e+01
2.510000e-06	-3.226511e-07	5.626725e-10	-2.305862e+00	3.615076e+01
2.520000e-06	-4.246261e-07	4.691657e-10	-3.034637e+00	3.144221e+01
2.530000e-06	-5.264005e-07	3.801639e-10	-3.761979e+00	2.665572e+01
2.540000e-06	-6.278985e-07	3.211200e-10	-4.487346e+00	2.179098e+01
2.550000e-06	-7.290989e-07	2.693756e-10	-5.210585e+00	1.684830e+01
2.560000e-06	-8.299900e-07	1.900360e-10	-5.931615e+00	1.182846e+01
2.570000e-06	-9.305128e-07	8.698659e-11	-6.650012e+00	6.732630e+00
2.580000e-06	-1.030688e-06	-1.693076e-12	-7.365925e+00	1.562214e+00
2.590000e-06	-1.130590e-06	-6.270715e-11	-8.079888e+00	-3.681084e+00
2.600000e-06	-1.230196e-06	-1.257552e-10	-8.791733e+00	-8.995169e+00
2.610000e-06	-1.329403e-06	-2.166090e-10	-9.500721e+00	-1.437733e+01
2.620000e-06	-1.428115e-06	-3.183625e-10	-1.020618e+01	-1.982392e+01
2.630000e-06	-1.526297e-06	-4.014614e-10	-1.090785e+01	-2.533002e+01
2.640000e-06	-1.623949e-06	-4.688664e-10	-1.160573e+01	-3.088903e+01
2.650000e-06	-1.721051e-06	-5.483698e-10	-1.229968e+01	-3.649246e+01
2.660000e-06	-1.817573e-06	-6.495583e-10	-1.298949e+01	-4.212968e+01
2.670000e-06	-1.913542e-06	-7.504288e-10	-1.367534e+01	-4.778798e+01
2.680000e-06	-2.008983e-06	-8.305873e-10	-1.435742e+01	-5.345272e+01
2.690000e-06	-2.103645e-06	-9.007326e-10	-1.503393e+01	-5.910771e+01
2.700000e-06	-2.197236e-06	-9.836333e-10	-1.570279e+01	-6.473572e+01
2.710000e-06	-2.289778e-06	-1.078052e-09	-1.636415e+01	-7.031915e+01
2.720000e-06	-2.381475e-06	-1.165481e-09	-1.701947e+01	-7.584066e+01
2.730000e-06	-2.472423e-06	-1.239499e-09	-1.766944e+01	-8.128393e+01
2.740000e-06	-2.562497e-06	-1.313478e-09	-1.831316e+01	-8.663416e+01
2.750000e-06	-2.651629e-06	-1.398818e-09	-1.895016e+01	-9.187858e+01
2.760000e-06	-2.739936e-06	-1.486837e-09	-1.958125e+01	-9.700671e+01
2.770000e-06	-2.827510e-06	-1.563656e-09	-2.020711e+01	-1.020105e+02
2.780000e-06	-2.914108e-06	-1.631353e-09	-2.082599e+01	-1.068842e+02
2.790000e-06	-2.999436e-06	-1.699489e-09	-2.143580e+01	-1.116242e+02
2.800000e-06	-3.083538e-06	-1.771647e-09	-2.203685e+01	-1.162288e+02
2.810000e-06	-3.166623e-06	-1.840397e-09	-2.263062e+01	-1.206975e+02
2.820000e-06	-3.248726e-06	-1.902326e-09	-2.321738e+01	-1.250311e+02
2.830000e-06	-3.329788e-06	-1.964281e-09	-2.379670e+01	-1.292309e+02
2.840000e-06	-3.409757e-06	-2.028471e-09	-2.436820e+01	-1.332989e+02
2.850000e-06	-3.488355e-06	-2.090600e-09	-2.492991e+01	-1.372370e+02
2.860000e-06	-3.565408e-06	-2.149118e-09	-2.548058e+01	-1.410474e+02
2.870000e-06	-3.641018e-06	-2.207419e-09	-2.602094e+01	-1.447322e+02
2.880000e-06	-3.715253e-06	-2.264733e-09	-2.655146e+01	-1.482936e+02
2.890000e-06	-3.788180e-06	-2.316710e-09	-2.707264e+01	-1.517337e+02
2.900000e-06	-3.859790e-06	-2.362747e-09	-2.758442e+01	-1.550545e+02
2.910000e-06	-3.929853e-06	-2.408234e-09	-2.808513e+01	-1.582578e+02
2.920000e-06	-3.998300e-06	-2.457525e-09	-2.857429e+01	-1.613454e+02
2.930000e-06	-4.065341e-06	-2.505312e-09	-2.905340e+01	-1.643188e+02
2.940000e-06	-4.131029e-06	-2.547647e-09	-2.952285e+01	-1.671792e+02
