# Temperatura_=_20.0
# Concentracion g/m^3_=_12600.0
# C_Vs_to_Am_M_A/Vsm_=_65563218390.804596
# pendiente_HvsI_1/m_=_3716.3
# ordenada_HvsI_A/m_=_1297.0
# frecuencia_Hz_=_301834.4531971351

Tiempo_(s)	Campo_(V.s)	Magnetizacion_(V.s)	Campo_(kA/m)	Magnetizacion_(A/m)
0.000000e+00	-5.370198e-06	-3.014700e-09	-3.828697e+01	-1.983641e+02
1.000000e-08	-5.368928e-06	-3.026238e-09	-3.827791e+01	-1.984375e+02
2.000000e-08	-5.365708e-06	-3.024030e-09	-3.825495e+01	-1.984579e+02
3.000000e-08	-5.360791e-06	-3.016454e-09	-3.821990e+01	-1.984126e+02
4.000000e-08	-5.354270e-06	-3.014096e-09	-3.817341e+01	-1.982913e+02
5.000000e-08	-5.346093e-06	-3.015847e-09	-3.811511e+01	-1.980877e+02
6.000000e-08	-5.335943e-06	-3.014710e-09	-3.804275e+01	-1.978014e+02
7.000000e-08	-5.323817e-06	-3.000690e-09	-3.795629e+01	-1.974382e+02
8.000000e-08	-5.309861e-06	-2.974226e-09	-3.785679e+01	-1.970104e+02
9.000000e-08	-5.293725e-06	-3.008663e-09	-3.774175e+01	-1.965355e+02
1.000000e-07	-5.275386e-06	-3.049399e-09	-3.761101e+01	-1.960349e+02
1.100000e-07	-5.255112e-06	-3.012027e-09	-3.746646e+01	-1.955309e+02
1.200000e-07	-5.232965e-06	-2.988257e-09	-3.730856e+01	-1.950446e+02
1.300000e-07	-5.209110e-06	-2.931595e-09	-3.713849e+01	-1.945931e+02
1.400000e-07	-5.183645e-06	-2.858079e-09	-3.695693e+01	-1.941867e+02
1.500000e-07	-5.156577e-06	-3.028001e-09	-3.676395e+01	-1.938281e+02
1.600000e-07	-5.128006e-06	-3.015291e-09	-3.656025e+01	-1.935107e+02
1.700000e-07	-5.098022e-06	-2.861382e-09	-3.634648e+01	-1.932197e+02
1.800000e-07	-5.066338e-06	-2.960395e-09	-3.612059e+01	-1.929330e+02
1.900000e-07	-5.032482e-06	-2.864012e-09	-3.587921e+01	-1.926235e+02
2.000000e-07	-4.996897e-06	-2.854195e-09	-3.562551e+01	-1.922619e+02
2.100000e-07	-4.959923e-06	-3.023027e-09	-3.536190e+01	-1.918197e+02
2.200000e-07	-4.921156e-06	-2.880293e-09	-3.508551e+01	-1.912724e+02
2.300000e-07	-4.880421e-06	-2.802189e-09	-3.479509e+01	-1.906017e+02
2.400000e-07	-4.837694e-06	-2.861118e-09	-3.449046e+01	-1.897976e+02
2.500000e-07	-4.793192e-06	-2.826398e-09	-3.417319e+01	-1.888590e+02
2.600000e-07	-4.746994e-06	-2.892089e-09	-3.384382e+01	-1.877933e+02
2.700000e-07	-4.698708e-06	-2.856596e-09	-3.349956e+01	-1.866155e+02
2.800000e-07	-4.648163e-06	-2.758124e-09	-3.313920e+01	-1.853460e+02
2.900000e-07	-4.595677e-06	-2.750472e-09	-3.276500e+01	-1.840077e+02
3.000000e-07	-4.541561e-06	-2.765452e-09	-3.237918e+01	-1.826238e+02
3.100000e-07	-4.485915e-06	-2.792740e-09	-3.198245e+01	-1.812147e+02
3.200000e-07	-4.428507e-06	-2.768368e-09	-3.157315e+01	-1.797961e+02
3.300000e-07	-4.369256e-06	-2.708307e-09	-3.115073e+01	-1.783776e+02
3.400000e-07	-4.308548e-06	-2.632805e-09	-3.071790e+01	-1.769622e+02
3.500000e-07	-4.246499e-06	-2.650796e-09	-3.027552e+01	-1.755465e+02
3.600000e-07	-4.182992e-06	-2.733934e-09	-2.982275e+01	-1.741222e+02
3.700000e-07	-4.117826e-06	-2.668365e-09	-2.935815e+01	-1.726774e+02
3.800000e-07	-4.050929e-06	-2.548201e-09	-2.888121e+01	-1.711987e+02
3.900000e-07	-3.982578e-06	-2.519756e-09	-2.839389e+01	-1.696736e+02
4.000000e-07	-3.912997e-06	-2.575219e-09	-2.789781e+01	-1.680919e+02
4.100000e-07	-3.842148e-06	-2.621177e-09	-2.739270e+01	-1.664471e+02
4.200000e-07	-3.769999e-06	-2.525932e-09	-2.687830e+01	-1.647371e+02
4.300000e-07	-3.696402e-06	-2.408869e-09	-2.635360e+01	-1.629638e+02
4.400000e-07	-3.621210e-06	-2.400251e-09	-2.581751e+01	-1.611329e+02
4.500000e-07	-3.544591e-06	-2.480670e-09	-2.527126e+01	-1.592523e+02
4.600000e-07	-3.466559e-06	-2.489165e-09	-2.471492e+01	-1.573307e+02
4.700000e-07	-3.387065e-06	-2.361821e-09	-2.414817e+01	-1.553759e+02
4.800000e-07	-3.306266e-06	-2.252710e-09	-2.357211e+01	-1.533938e+02
4.900000e-07	-3.224308e-06	-2.272029e-09	-2.298779e+01	-1.513871e+02
5.000000e-07	-3.141312e-06	-2.355764e-09	-2.239606e+01	-1.493549e+02
5.100000e-07	-3.057349e-06	-2.317067e-09	-2.179745e+01	-1.472927e+02
5.200000e-07	-2.972404e-06	-2.172614e-09	-2.119183e+01	-1.451931e+02
5.300000e-07	-2.886448e-06	-2.102348e-09	-2.057900e+01	-1.430468e+02
5.400000e-07	-2.799588e-06	-2.158362e-09	-1.995973e+01	-1.408436e+02
5.500000e-07	-2.711826e-06	-2.202287e-09	-1.933403e+01	-1.385738e+02
5.600000e-07	-2.623003e-06	-2.117877e-09	-1.870077e+01	-1.362297e+02
5.700000e-07	-2.532983e-06	-1.990528e-09	-1.805897e+01	-1.338056e+02
5.800000e-07	-2.441850e-06	-1.955723e-09	-1.740923e+01	-1.312992e+02
5.900000e-07	-2.349869e-06	-2.003663e-09	-1.675345e+01	-1.287108e+02
6.000000e-07	-2.257133e-06	-2.001157e-09	-1.609229e+01	-1.260434e+02
6.100000e-07	-2.163585e-06	-1.896299e-09	-1.542533e+01	-1.233017e+02
6.200000e-07	-2.069267e-06	-1.791204e-09	-1.475289e+01	-1.204912e+02
6.300000e-07	-1.974312e-06	-1.779076e-09	-1.407591e+01	-1.176175e+02
6.400000e-07	-1.878697e-06	-1.803240e-09	-1.339422e+01	-1.146852e+02
6.500000e-07	-1.782328e-06	-1.762127e-09	-1.270715e+01	-1.116972e+02
6.600000e-07	-1.685191e-06	-1.659628e-09	-1.201461e+01	-1.086548e+02
6.700000e-07	-1.587305e-06	-1.582547e-09	-1.131673e+01	-1.055574e+02
6.800000e-07	-1.488781e-06	-1.567549e-09	-1.061430e+01	-1.024030e+02
6.900000e-07	-1.389733e-06	-1.556473e-09	-9.908140e+00	-9.918844e+01
7.000000e-07	-1.290236e-06	-1.497288e-09	-9.198771e+00	-9.591048e+01
7.100000e-07	-1.190332e-06	-1.410654e-09	-8.486500e+00	-9.256600e+01
7.200000e-07	-1.090006e-06	-1.350372e-09	-7.771229e+00	-8.915271e+01
7.300000e-07	-9.893772e-07	-1.322193e-09	-7.053791e+00	-8.566935e+01
7.400000e-07	-8.885438e-07	-1.288443e-09	-6.334897e+00	-8.211577e+01
7.500000e-07	-7.874611e-07	-1.225686e-09	-5.614224e+00	-7.849271e+01
7.600000e-07	-6.860964e-07	-1.152330e-09	-4.891542e+00	-7.480143e+01
7.700000e-07	-5.844545e-07	-1.091970e-09	-4.166884e+00	-7.104324e+01
7.800000e-07	-4.825885e-07	-1.041950e-09	-3.440627e+00	-6.721898e+01
7.900000e-07	-3.805837e-07	-9.900485e-10	-2.713382e+00	-6.332865e+01
8.000000e-07	-2.784111e-07	-9.282765e-10	-1.984939e+00	-5.937115e+01
8.100000e-07	-1.760725e-07	-8.592846e-10	-1.255314e+00	-5.534429e+01
8.200000e-07	-7.363347e-08	-7.883075e-10	-5.249717e-01	-5.124494e+01
8.300000e-07	2.890082e-08	-7.248796e-10	2.060492e-01	-4.706945e+01
8.400000e-07	1.314339e-07	-6.708360e-10	9.370615e-01	-4.281417e+01
8.500000e-07	2.338944e-07	-6.130206e-10	1.667556e+00	-3.847591e+01
8.600000e-07	3.362672e-07	-5.378676e-10	2.397425e+00	-3.405250e+01
8.700000e-07	4.385698e-07	-4.545173e-10	3.126795e+00	-2.954307e+01
8.800000e-07	5.407546e-07	-3.838922e-10	3.855324e+00	-2.494820e+01
8.900000e-07	6.427615e-07	-3.270879e-10	4.582585e+00	-2.026988e+01
9.000000e-07	7.445111e-07	-2.637152e-10	5.308011e+00	-1.551120e+01
9.100000e-07	8.459619e-07	-1.781141e-10	6.031308e+00	-1.067598e+01
9.200000e-07	9.471624e-07	-8.577049e-11	6.752819e+00	-5.768315e+00
9.300000e-07	1.048072e-06	-1.308713e-11	7.472255e+00	-7.921917e-01
9.400000e-07	1.148556e-06	4.384790e-11	8.188657e+00	4.248794e+00
9.500000e-07	1.248592e-06	1.140963e-10	8.901871e+00	9.351495e+00
9.600000e-07	1.348242e-06	2.067359e-10	9.612327e+00	1.451305e+01
9.700000e-07	1.447438e-06	3.003762e-10	1.031954e+01	1.973048e+01
9.800000e-07	1.546136e-06	3.755546e-10	1.102322e+01	2.500016e+01
9.900000e-07	1.644177e-06	4.408423e-10	1.172220e+01	3.031714e+01
1.000000e-06	1.741352e-06	5.206952e-10	1.241501e+01	3.567457e+01
1.010000e-06	1.837755e-06	6.194156e-10	1.310233e+01	4.106321e+01
1.020000e-06	1.933486e-06	7.152792e-10	1.378484e+01	4.647119e+01
1.030000e-06	2.028508e-06	7.905783e-10	1.446230e+01	5.188410e+01
1.040000e-06	2.122806e-06	8.568316e-10	1.513460e+01	5.728537e+01
1.050000e-06	2.216355e-06	9.364445e-10	1.580156e+01	6.265695e+01
1.060000e-06	2.309171e-06	1.031743e-09	1.646330e+01	6.798025e+01
1.070000e-06	2.401295e-06	1.121921e-09	1.712009e+01	7.323715e+01
1.080000e-06	2.492711e-06	1.193218e-09	1.777185e+01	7.841101e+01
1.090000e-06	2.583280e-06	1.257371e-09	1.841756e+01	8.348751e+01
1.100000e-06	2.672795e-06	1.333826e-09	1.905576e+01	8.845530e+01
1.110000e-06	2.761119e-06	1.421785e-09	1.968547e+01	9.330619e+01
1.120000e-06	2.848408e-06	1.503833e-09	2.030780e+01	9.803509e+01
1.130000e-06	2.934833e-06	1.567524e-09	2.092397e+01	1.026396e+02
1.140000e-06	3.020306e-06	1.620219e-09	2.153335e+01	1.071192e+02
1.150000e-06	3.104795e-06	1.685479e-09	2.213572e+01	1.114745e+02
1.160000e-06	3.188377e-06	1.767636e-09	2.273161e+01	1.157064e+02
1.170000e-06	3.270938e-06	1.843162e-09	2.332024e+01	1.198155e+02
1.180000e-06	3.352198e-06	1.892528e-09	2.389958e+01	1.238011e+02
1.190000e-06	3.432177e-06	1.932424e-09	2.446979e+01	1.276618e+02
1.200000e-06	3.510987e-06	1.990649e-09	2.503168e+01	1.313948e+02
1.210000e-06	3.588565e-06	2.065997e-09	2.558477e+01	1.349969e+02
1.220000e-06	3.664865e-06	2.128360e-09	2.612875e+01	1.384651e+02
1.230000e-06	3.739763e-06	2.163390e-09	2.666274e+01	1.417969e+02
1.240000e-06	3.813064e-06	2.194249e-09	2.718534e+01	1.449914e+02
1.250000e-06	3.884853e-06	2.247678e-09	2.769716e+01	1.480497e+02
1.260000e-06	3.955285e-06	2.313268e-09	2.819930e+01	1.509752e+02
1.270000e-06	4.024320e-06	2.358858e-09	2.869149e+01	1.537732e+02
1.280000e-06	4.091985e-06	2.380941e-09	2.917392e+01	1.564511e+02
1.290000e-06	4.158095e-06	2.409657e-09	2.964525e+01	1.590172e+02
1.300000e-06	4.222516e-06	2.461693e-09	3.010454e+01	1.614802e+02
1.310000e-06	4.285473e-06	2.516226e-09	3.055340e+01	1.638482e+02
1.320000e-06	4.347062e-06	2.547093e-09	3.099249e+01	1.661278e+02
1.330000e-06	4.407312e-06	2.559367e-09	3.142205e+01	1.683238e+02
1.340000e-06	4.466034e-06	2.583920e-09	3.184071e+01	1.704387e+02
1.350000e-06	4.522936e-06	2.629843e-09	3.224639e+01	1.724729e+02
1.360000e-06	4.578116e-06	2.672276e-09	3.263980e+01	1.744249e+02
1.370000e-06	4.631650e-06	2.689905e-09	3.302147e+01	1.762922e+02
1.380000e-06	4.683395e-06	2.698692e-09	3.339038e+01	1.780721e+02
1.390000e-06	4.733127e-06	2.726579e-09	3.374495e+01	1.797624e+02
1.400000e-06	4.780876e-06	2.770327e-09	3.408538e+01	1.813622e+02
1.410000e-06	4.826895e-06	2.802309e-09	3.441347e+01	1.828723e+02
1.420000e-06	4.871382e-06	2.813029e-09	3.473064e+01	1.842953e+02
1.430000e-06	4.914261e-06	2.821523e-09	3.503635e+01	1.856356e+02
1.440000e-06	4.955258e-06	2.844962e-09	3.532864e+01	1.868986e+02
1.450000e-06	4.994480e-06	2.876139e-09	3.560828e+01	1.880901e+02
1.460000e-06	5.032024e-06	2.895840e-09	3.587595e+01	1.892155e+02
1.470000e-06	5.067936e-06	2.900082e-09	3.613198e+01	1.902788e+02
1.480000e-06	5.102085e-06	2.906074e-09	3.637545e+01	1.912822e+02
1.490000e-06	5.134307e-06	2.926688e-09	3.660517e+01	1.922257e+02
1.500000e-06	5.164718e-06	2.951793e-09	3.682199e+01	1.931074e+02
1.510000e-06	5.193469e-06	2.966143e-09	3.702697e+01	1.939240e+02
1.520000e-06	5.220489e-06	2.969366e-09	3.721962e+01	1.946714e+02
1.530000e-06	5.245422e-06	2.974733e-09	3.739738e+01	1.953459e+02
1.540000e-06	5.268334e-06	2.989920e-09	3.756073e+01	1.959451e+02
1.550000e-06	5.289516e-06	3.006125e-09	3.771174e+01	1.964692e+02
1.560000e-06	5.309001e-06	3.011014e-09	3.785066e+01	1.969208e+02
1.570000e-06	5.326591e-06	3.007369e-09	3.797607e+01	1.973059e+02
1.580000e-06	5.342145e-06	3.008576e-09	3.808696e+01	1.976328e+02
1.590000e-06	5.355731e-06	3.019615e-09	3.818383e+01	1.979116e+02
1.600000e-06	5.367268e-06	3.031212e-09	3.826608e+01	1.981528e+02
1.610000e-06	5.376584e-06	3.034163e-09	3.833250e+01	1.983662e+02
1.620000e-06	5.383822e-06	3.031212e-09	3.838410e+01	1.985588e+02
1.630000e-06	5.389211e-06	3.033736e-09	3.842252e+01	1.987343e+02
1.640000e-06	5.392841e-06	3.044252e-09	3.844840e+01	1.988920e+02
1.650000e-06	5.394468e-06	3.054432e-09	3.846000e+01	1.990266e+02
1.660000e-06	5.394080e-06	3.052582e-09	3.845724e+01	1.991290e+02
1.670000e-06	5.392008e-06	3.041380e-09	3.844246e+01	1.991872e+02
1.680000e-06	5.388329e-06	3.040438e-09	3.841623e+01	1.991882e+02
1.690000e-06	5.382909e-06	3.044549e-09	3.837759e+01	1.991198e+02
1.700000e-06	5.375589e-06	3.045904e-09	3.832540e+01	1.989729e+02
1.710000e-06	5.366499e-06	3.041771e-09	3.826059e+01	1.987428e+02
1.720000e-06	5.355777e-06	3.037923e-09	3.818416e+01	1.984313e+02
1.730000e-06	5.343256e-06	3.056323e-09	3.809488e+01	1.980461e+02
1.740000e-06	5.328705e-06	3.012718e-09	3.799114e+01	1.976014e+02
1.750000e-06	5.312086e-06	2.954215e-09	3.787266e+01	1.971163e+02
1.760000e-06	5.293167e-06	2.972833e-09	3.773777e+01	1.966125e+02
1.770000e-06	5.271603e-06	2.968803e-09	3.758403e+01	1.961125e+02
1.780000e-06	5.247906e-06	3.061567e-09	3.741508e+01	1.956362e+02
1.790000e-06	5.223145e-06	3.070392e-09	3.723855e+01	1.951988e+02
1.800000e-06	5.197589e-06	2.854296e-09	3.705635e+01	1.948083e+02
1.810000e-06	5.170308e-06	2.980290e-09	3.686184e+01	1.944644e+02
1.820000e-06	5.140793e-06	3.006196e-09	3.665142e+01	1.941579e+02
1.830000e-06	5.109657e-06	2.889433e-09	3.642943e+01	1.938714e+02
1.840000e-06	5.076805e-06	3.091866e-09	3.619521e+01	1.935809e+02
1.850000e-06	5.041995e-06	2.959531e-09	3.594704e+01	1.932583e+02
1.860000e-06	5.005609e-06	2.826475e-09	3.568762e+01	1.928742e+02
1.870000e-06	4.967397e-06	3.059414e-09	3.541519e+01	1.924011e+02
1.880000e-06	4.927405e-06	2.994274e-09	3.513006e+01	1.918161e+02
1.890000e-06	4.885705e-06	2.971650e-09	3.483276e+01	1.911036e+02
1.900000e-06	4.842093e-06	2.987102e-09	3.452183e+01	1.902564e+02
1.910000e-06	4.796957e-06	2.808809e-09	3.420003e+01	1.892761e+02
1.920000e-06	4.750054e-06	2.913769e-09	3.386564e+01	1.881729e+02
1.930000e-06	4.701164e-06	2.898044e-09	3.351708e+01	1.869636e+02
1.940000e-06	4.650584e-06	2.872248e-09	3.315646e+01	1.856698e+02
1.950000e-06	4.598036e-06	2.899531e-09	3.278182e+01	1.843148e+02
1.960000e-06	4.543445e-06	2.711276e-09	3.239261e+01	1.829211e+02
1.970000e-06	4.487087e-06	2.714939e-09	3.199081e+01	1.815079e+02
1.980000e-06	4.429110e-06	2.773249e-09	3.157745e+01	1.800890e+02
1.990000e-06	4.369680e-06	2.834121e-09	3.115375e+01	1.786719e+02
2.000000e-06	4.308723e-06	2.763514e-09	3.071915e+01	1.772575e+02
2.010000e-06	4.246050e-06	2.544301e-09	3.027233e+01	1.758406e+02
2.020000e-06	4.181771e-06	2.644708e-09	2.981404e+01	1.744115e+02
2.030000e-06	4.116068e-06	2.732722e-09	2.934561e+01	1.729576e+02
2.040000e-06	4.048929e-06	2.709122e-09	2.886694e+01	1.714657e+02
2.050000e-06	3.980319e-06	2.575969e-09	2.837779e+01	1.699238e+02
2.060000e-06	3.910184e-06	2.428622e-09	2.787776e+01	1.683227e+02
2.070000e-06	3.838624e-06	2.548470e-09	2.736757e+01	1.666574e+02
2.080000e-06	3.765778e-06	2.612732e-09	2.684821e+01	1.649270e+02
2.090000e-06	3.691609e-06	2.558999e-09	2.631942e+01	1.631349e+02
2.100000e-06	3.616060e-06	2.394037e-09	2.578080e+01	1.612875e+02
2.110000e-06	3.539073e-06	2.314283e-09	2.523191e+01	1.593932e+02
2.120000e-06	3.460544e-06	2.438686e-09	2.467204e+01	1.574605e+02
2.130000e-06	3.380691e-06	2.487113e-09	2.410273e+01	1.554968e+02
2.140000e-06	3.299730e-06	2.387592e-09	2.352551e+01	1.535071e+02
2.150000e-06	3.217620e-06	2.206014e-09	2.294010e+01	1.514929e+02
2.160000e-06	3.134486e-06	2.206472e-09	2.234740e+01	1.494521e+02
2.170000e-06	3.050397e-06	2.317716e-09	2.174788e+01	1.473792e+02
2.180000e-06	2.965222e-06	2.305017e-09	2.114063e+01	1.452661e+02
2.190000e-06	2.878641e-06	2.166603e-09	2.052335e+01	1.431030e+02
2.200000e-06	2.790793e-06	2.045382e-09	1.989703e+01	1.408798e+02
2.210000e-06	2.702081e-06	2.087622e-09	1.926456e+01	1.385873e+02
2.220000e-06	2.612498e-06	2.145051e-09	1.862587e+01	1.362183e+02
2.230000e-06	2.521958e-06	2.090873e-09	1.798036e+01	1.337683e+02
2.240000e-06	2.430575e-06	1.951728e-09	1.732885e+01	1.312357e+02
2.250000e-06	2.338515e-06	1.881654e-09	1.667250e+01	1.286219e+02
2.260000e-06	2.245629e-06	1.921150e-09	1.601027e+01	1.259305e+02
2.270000e-06	2.151764e-06	1.931168e-09	1.534106e+01	1.231664e+02
2.280000e-06	2.056961e-06	1.844715e-09	1.466516e+01	1.203355e+02
2.290000e-06	1.961281e-06	1.731531e-09	1.398301e+01	1.174429e+02
2.300000e-06	1.864875e-06	1.695155e-09	1.329568e+01	1.144928e+02
2.310000e-06	1.767944e-06	1.708105e-09	1.260461e+01	1.114877e+02
2.320000e-06	1.670521e-06	1.686471e-09	1.191002e+01	1.084282e+02
2.330000e-06	1.572527e-06	1.604595e-09	1.121137e+01	1.053132e+02
2.340000e-06	1.473962e-06	1.520853e-09	1.050865e+01	1.021402e+02
2.350000e-06	1.374943e-06	1.480215e-09	9.802693e+00	9.890600e+01
2.360000e-06	1.275567e-06	1.458819e-09	9.094190e+00	9.560736e+01
2.370000e-06	1.175943e-06	1.412688e-09	8.383916e+00	9.224137e+01
2.380000e-06	1.076050e-06	1.337579e-09	7.671725e+00	8.880605e+01
2.390000e-06	9.757779e-07	1.270375e-09	6.956834e+00	8.530049e+01
2.400000e-06	8.751097e-07	1.222707e-09	6.239118e+00	8.172487e+01
2.410000e-06	7.740703e-07	1.179622e-09	5.518754e+00	7.808013e+01
2.420000e-06	6.726957e-07	1.128335e-09	4.796002e+00	7.436762e+01
2.430000e-06	5.709881e-07	1.068957e-09	4.070874e+00	7.058854e+01
2.440000e-06	4.690731e-07	1.002500e-09	3.344269e+00	6.674349e+01
2.450000e-06	3.669912e-07	9.359565e-10	2.616473e+00	6.283215e+01
2.460000e-06	2.646852e-07	8.815119e-10	1.887080e+00	5.885305e+01
2.470000e-06	1.622612e-07	8.355070e-10	1.156846e+00	5.480366e+01
2.480000e-06	5.975402e-08	7.745262e-10	4.260179e-01	5.068065e+01
2.490000e-06	-4.280905e-08	6.920382e-10	-3.052083e-01	4.648031e+01
2.500000e-06	-1.453493e-07	6.142787e-10	-1.036272e+00	4.219906e+01
2.510000e-06	-2.478502e-07	5.604235e-10	-1.767055e+00	3.783402e+01
2.520000e-06	-3.502627e-07	5.135258e-10	-2.497207e+00	3.338338e+01
2.530000e-06	-4.525403e-07	4.438113e-10	-3.226398e+00	2.884676e+01
2.540000e-06	-5.546703e-07	3.532073e-10	-3.954536e+00	2.422520e+01
2.550000e-06	-6.565395e-07	2.695918e-10	-4.680815e+00	1.952107e+01
2.560000e-06	-7.581044e-07	2.106272e-10	-5.404925e+00	1.473775e+01
2.570000e-06	-8.593491e-07	1.564747e-10	-6.126752e+00	9.879195e+00
2.580000e-06	-9.601311e-07	7.701768e-11	-6.845280e+00	4.949510e+00
2.590000e-06	-1.060408e-06	-2.109963e-11	-7.560207e+00	-4.742874e-02
2.600000e-06	-1.160312e-06	-1.065860e-10	-8.272478e+00	-5.108173e+00
2.610000e-06	-1.259925e-06	-1.666395e-10	-8.982670e+00	-1.022970e+01
2.620000e-06	-1.359172e-06	-2.261774e-10	-9.690253e+00	-1.540915e+01
2.630000e-06	-1.457951e-06	-3.105533e-10	-1.039450e+01	-2.064342e+01
2.640000e-06	-1.556192e-06	-4.115059e-10	-1.109491e+01	-2.592852e+01
2.650000e-06	-1.653873e-06	-4.998673e-10	-1.179133e+01	-3.125895e+01
2.660000e-06	-1.750988e-06	-5.657267e-10	-1.248372e+01	-3.662714e+01
2.670000e-06	-1.847515e-06	-6.332583e-10	-1.317191e+01	-4.202302e+01
2.680000e-06	-1.943443e-06	-7.233876e-10	-1.385583e+01	-4.743387e+01
2.690000e-06	-2.038771e-06	-8.246984e-10	-1.453547e+01	-5.284453e+01
2.700000e-06	-2.133387e-06	-9.110636e-10	-1.521004e+01	-5.823787e+01
2.710000e-06	-2.227021e-06	-9.748488e-10	-1.587760e+01	-6.359555e+01
2.720000e-06	-2.319557e-06	-1.036835e-09	-1.653734e+01	-6.889903e+01
2.730000e-06	-2.411247e-06	-1.120753e-09	-1.719105e+01	-7.413055e+01
2.740000e-06	-2.502177e-06	-1.219519e-09	-1.783934e+01	-7.927414e+01
2.750000e-06	-2.592206e-06	-1.303075e-09	-1.848120e+01	-8.431639e+01
2.760000e-06	-2.681299e-06	-1.361201e-09	-1.911639e+01	-8.924693e+01
2.770000e-06	-2.769510e-06	-1.418223e-09	-1.974530e+01	-9.405863e+01
2.780000e-06	-2.856944e-06	-1.498735e-09	-2.036866e+01	-9.874729e+01
2.790000e-06	-2.943435e-06	-1.590962e-09	-2.098530e+01	-1.033112e+02
2.800000e-06	-3.028702e-06	-1.662020e-09	-2.159321e+01	-1.077503e+02
2.810000e-06	-3.112766e-06	-1.704431e-09	-2.219255e+01	-1.120655e+02
2.820000e-06	-3.195769e-06	-1.750525e-09	-2.278432e+01	-1.162576e+02
2.830000e-06	-3.277739e-06	-1.827599e-09	-2.336872e+01	-1.203266e+02
2.840000e-06	-3.358679e-06	-1.914313e-09	-2.394579e+01	-1.242720e+02
2.850000e-06	-3.438550e-06	-1.970369e-09	-2.451523e+01	-1.280915e+02
2.860000e-06	-3.517053e-06	-1.997788e-09	-2.507492e+01	-1.317824e+02
2.870000e-06	-3.593997e-06	-2.039371e-09	-2.562350e+01	-1.353414e+02
2.880000e-06	-3.669521e-06	-2.114111e-09	-2.616194e+01	-1.387655e+02
2.890000e-06	-3.743637e-06	-2.187068e-09	-2.669036e+01	-1.420528e+02
2.900000e-06	-3.816416e-06	-2.222002e-09	-2.720923e+01	-1.452029e+02
2.910000e-06	-3.887837e-06	-2.237914e-09	-2.771843e+01	-1.482176e+02
2.920000e-06	-3.957614e-06	-2.279583e-09	-2.821591e+01	-1.511010e+02
2.930000e-06	-4.025810e-06	-2.349501e-09	-2.870212e+01	-1.538592e+02
2.940000e-06	-4.092652e-06	-2.405756e-09	-2.917867e+01	-1.564998e+02
