# Temperatura_=_20.0
# Concentracion g/m^3_=_9000.0
# C_Vs_to_Am_M_A/Vsm_=_65563218390.804596
# pendiente_HvsI_1/m_=_3716.3
# ordenada_HvsI_A/m_=_1297.0
# frecuencia_Hz_=_134935.64365094973

Tiempo_(s)	Campo_(V.s)	Magnetizacion_(V.s)	Campo_(kA/m)	Magnetizacion_(A/m)
0.000000e+00	-2.539675e-06	-2.788636e-09	-1.982082e+01	-1.878174e+02
1.000000e-08	-2.539936e-06	-2.798938e-09	-1.982285e+01	-1.878217e+02
2.000000e-08	-2.540113e-06	-2.867828e-09	-1.982424e+01	-1.878162e+02
3.000000e-08	-2.540162e-06	-2.964424e-09	-1.982462e+01	-1.878014e+02
4.000000e-08	-2.540030e-06	-2.963572e-09	-1.982359e+01	-1.877775e+02
5.000000e-08	-2.539717e-06	-2.861585e-09	-1.982114e+01	-1.877448e+02
6.000000e-08	-2.539219e-06	-2.783607e-09	-1.981726e+01	-1.877035e+02
7.000000e-08	-2.538559e-06	-2.753715e-09	-1.981211e+01	-1.876540e+02
8.000000e-08	-2.537730e-06	-2.702231e-09	-1.980564e+01	-1.875966e+02
9.000000e-08	-2.536589e-06	-2.680860e-09	-1.979674e+01	-1.875316e+02
1.000000e-07	-2.535147e-06	-2.741292e-09	-1.978548e+01	-1.874594e+02
1.100000e-07	-2.533447e-06	-2.854426e-09	-1.977221e+01	-1.873802e+02
1.200000e-07	-2.531523e-06	-3.058670e-09	-1.975719e+01	-1.872944e+02
1.300000e-07	-2.529246e-06	-2.993346e-09	-1.973942e+01	-1.872023e+02
1.400000e-07	-2.526626e-06	-2.810863e-09	-1.971897e+01	-1.871042e+02
1.500000e-07	-2.523772e-06	-2.759366e-09	-1.969671e+01	-1.870004e+02
1.600000e-07	-2.520655e-06	-2.952467e-09	-1.967238e+01	-1.868913e+02
1.700000e-07	-2.517434e-06	-2.977605e-09	-1.964724e+01	-1.867770e+02
1.800000e-07	-2.514119e-06	-2.840361e-09	-1.962137e+01	-1.866580e+02
1.900000e-07	-2.510643e-06	-2.752391e-09	-1.959424e+01	-1.865343e+02
2.000000e-07	-2.506978e-06	-2.858561e-09	-1.956563e+01	-1.864062e+02
2.100000e-07	-2.503155e-06	-2.957062e-09	-1.953580e+01	-1.862740e+02
2.200000e-07	-2.499245e-06	-2.821647e-09	-1.950529e+01	-1.861377e+02
2.300000e-07	-2.495256e-06	-2.695842e-09	-1.947415e+01	-1.859976e+02
2.400000e-07	-2.491165e-06	-2.742655e-09	-1.944222e+01	-1.858538e+02
2.500000e-07	-2.486943e-06	-2.954354e-09	-1.940927e+01	-1.857063e+02
2.600000e-07	-2.482510e-06	-2.923827e-09	-1.937468e+01	-1.855552e+02
2.700000e-07	-2.477849e-06	-2.760751e-09	-1.933830e+01	-1.854006e+02
2.800000e-07	-2.473046e-06	-2.647367e-09	-1.930082e+01	-1.852424e+02
2.900000e-07	-2.468110e-06	-2.848020e-09	-1.926229e+01	-1.850806e+02
3.000000e-07	-2.463023e-06	-2.976128e-09	-1.922259e+01	-1.849152e+02
3.100000e-07	-2.457762e-06	-2.819714e-09	-1.918153e+01	-1.847461e+02
3.200000e-07	-2.452276e-06	-2.583971e-09	-1.913872e+01	-1.845731e+02
3.300000e-07	-2.446596e-06	-2.708003e-09	-1.909439e+01	-1.843961e+02
3.400000e-07	-2.440840e-06	-2.958398e-09	-1.904946e+01	-1.842149e+02
3.500000e-07	-2.434987e-06	-2.906958e-09	-1.900379e+01	-1.840294e+02
3.600000e-07	-2.428899e-06	-2.658290e-09	-1.895627e+01	-1.838393e+02
3.700000e-07	-2.422585e-06	-2.654278e-09	-1.890699e+01	-1.836443e+02
3.800000e-07	-2.416059e-06	-2.876973e-09	-1.885606e+01	-1.834443e+02
3.900000e-07	-2.409352e-06	-2.911243e-09	-1.880371e+01	-1.832389e+02
4.000000e-07	-2.402499e-06	-2.717357e-09	-1.875023e+01	-1.830278e+02
4.100000e-07	-2.395500e-06	-2.609617e-09	-1.869561e+01	-1.828109e+02
4.200000e-07	-2.388347e-06	-2.744802e-09	-1.863978e+01	-1.825876e+02
4.300000e-07	-2.381035e-06	-2.858640e-09	-1.858272e+01	-1.823578e+02
4.400000e-07	-2.373585e-06	-2.781502e-09	-1.852457e+01	-1.821212e+02
4.500000e-07	-2.365990e-06	-2.642528e-09	-1.846529e+01	-1.818774e+02
4.600000e-07	-2.358277e-06	-2.685560e-09	-1.840511e+01	-1.816262e+02
4.700000e-07	-2.350495e-06	-2.820130e-09	-1.834437e+01	-1.813672e+02
4.800000e-07	-2.342643e-06	-2.829704e-09	-1.828309e+01	-1.811002e+02
4.900000e-07	-2.334707e-06	-2.687724e-09	-1.822115e+01	-1.808249e+02
5.000000e-07	-2.326629e-06	-2.641930e-09	-1.815810e+01	-1.805411e+02
5.100000e-07	-2.318364e-06	-2.740189e-09	-1.809360e+01	-1.802486e+02
5.200000e-07	-2.309935e-06	-2.798678e-09	-1.802782e+01	-1.799471e+02
5.300000e-07	-2.301274e-06	-2.696845e-09	-1.796023e+01	-1.796365e+02
5.400000e-07	-2.292340e-06	-2.614716e-09	-1.789050e+01	-1.793167e+02
5.500000e-07	-2.283215e-06	-2.670823e-09	-1.781928e+01	-1.789875e+02
5.600000e-07	-2.273889e-06	-2.761819e-09	-1.774650e+01	-1.786488e+02
5.700000e-07	-2.264327e-06	-2.725606e-09	-1.767187e+01	-1.783006e+02
5.800000e-07	-2.254468e-06	-2.633157e-09	-1.759493e+01	-1.779428e+02
5.900000e-07	-2.244311e-06	-2.628190e-09	-1.751565e+01	-1.775756e+02
6.000000e-07	-2.233846e-06	-2.711419e-09	-1.743399e+01	-1.771988e+02
6.100000e-07	-2.223039e-06	-2.725022e-09	-1.734964e+01	-1.768125e+02
6.200000e-07	-2.212058e-06	-2.638496e-09	-1.726394e+01	-1.764169e+02
6.300000e-07	-2.200942e-06	-2.590575e-09	-1.717719e+01	-1.760121e+02
6.400000e-07	-2.189631e-06	-2.653461e-09	-1.708891e+01	-1.755983e+02
6.500000e-07	-2.178143e-06	-2.699507e-09	-1.699925e+01	-1.751755e+02
6.600000e-07	-2.166544e-06	-2.637925e-09	-1.690873e+01	-1.747440e+02
6.700000e-07	-2.154858e-06	-2.573636e-09	-1.681752e+01	-1.743041e+02
6.800000e-07	-2.143015e-06	-2.605344e-09	-1.672510e+01	-1.738559e+02
6.900000e-07	-2.131032e-06	-2.659012e-09	-1.663158e+01	-1.733997e+02
7.000000e-07	-2.118950e-06	-2.632550e-09	-1.653729e+01	-1.729358e+02
7.100000e-07	-2.106663e-06	-2.576498e-09	-1.644139e+01	-1.724645e+02
7.200000e-07	-2.094160e-06	-2.572265e-09	-1.634381e+01	-1.719859e+02
7.300000e-07	-2.081473e-06	-2.607411e-09	-1.624479e+01	-1.715005e+02
7.400000e-07	-2.068634e-06	-2.609927e-09	-1.614460e+01	-1.710084e+02
7.500000e-07	-2.055697e-06	-2.576324e-09	-1.604363e+01	-1.705100e+02
7.600000e-07	-2.042646e-06	-2.543852e-09	-1.594177e+01	-1.700055e+02
7.700000e-07	-2.029434e-06	-2.556570e-09	-1.583866e+01	-1.694950e+02
7.800000e-07	-2.016011e-06	-2.584560e-09	-1.573389e+01	-1.689790e+02
7.900000e-07	-2.002424e-06	-2.571790e-09	-1.562786e+01	-1.684575e+02
8.000000e-07	-1.988686e-06	-2.520635e-09	-1.552064e+01	-1.679308e+02
8.100000e-07	-1.974730e-06	-2.512050e-09	-1.541173e+01	-1.673990e+02
8.200000e-07	-1.960559e-06	-2.543138e-09	-1.530113e+01	-1.668621e+02
8.300000e-07	-1.946297e-06	-2.541249e-09	-1.518982e+01	-1.663204e+02
8.400000e-07	-1.931885e-06	-2.490895e-09	-1.507734e+01	-1.657739e+02
8.500000e-07	-1.917345e-06	-2.473012e-09	-1.496386e+01	-1.652226e+02
8.600000e-07	-1.902651e-06	-2.497731e-09	-1.484918e+01	-1.646664e+02
8.700000e-07	-1.887702e-06	-2.503451e-09	-1.473252e+01	-1.641054e+02
8.800000e-07	-1.872588e-06	-2.469964e-09	-1.461456e+01	-1.635394e+02
8.900000e-07	-1.857287e-06	-2.446842e-09	-1.449514e+01	-1.629682e+02
9.000000e-07	-1.841663e-06	-2.453622e-09	-1.437321e+01	-1.623918e+02
9.100000e-07	-1.825814e-06	-2.460514e-09	-1.424951e+01	-1.618099e+02
9.200000e-07	-1.809883e-06	-2.444872e-09	-1.412518e+01	-1.612223e+02
9.300000e-07	-1.793815e-06	-2.418102e-09	-1.399977e+01	-1.606286e+02
9.400000e-07	-1.777612e-06	-2.406622e-09	-1.387332e+01	-1.600286e+02
9.500000e-07	-1.761255e-06	-2.414221e-09	-1.374566e+01	-1.594218e+02
9.600000e-07	-1.744723e-06	-2.413772e-09	-1.361664e+01	-1.588079e+02
9.700000e-07	-1.728136e-06	-2.387211e-09	-1.348718e+01	-1.581866e+02
9.800000e-07	-1.711437e-06	-2.364231e-09	-1.335686e+01	-1.575572e+02
9.900000e-07	-1.694500e-06	-2.369395e-09	-1.322467e+01	-1.569195e+02
1.000000e-06	-1.677481e-06	-2.376325e-09	-1.309185e+01	-1.562728e+02
1.010000e-06	-1.660354e-06	-2.353434e-09	-1.295818e+01	-1.556168e+02
1.020000e-06	-1.643084e-06	-2.328429e-09	-1.282340e+01	-1.549508e+02
1.030000e-06	-1.625796e-06	-2.323921e-09	-1.268847e+01	-1.542745e+02
1.040000e-06	-1.608413e-06	-2.326128e-09	-1.255281e+01	-1.535872e+02
1.050000e-06	-1.590972e-06	-2.310186e-09	-1.241669e+01	-1.528886e+02
1.060000e-06	-1.573530e-06	-2.287384e-09	-1.228057e+01	-1.521780e+02
1.070000e-06	-1.556003e-06	-2.276440e-09	-1.214378e+01	-1.514549e+02
1.080000e-06	-1.538446e-06	-2.274665e-09	-1.200676e+01	-1.507190e+02
1.090000e-06	-1.520840e-06	-2.266347e-09	-1.186935e+01	-1.499698e+02
1.100000e-06	-1.503057e-06	-2.248909e-09	-1.173056e+01	-1.492067e+02
1.110000e-06	-1.485089e-06	-2.231765e-09	-1.159033e+01	-1.484294e+02
1.120000e-06	-1.467099e-06	-2.223658e-09	-1.144993e+01	-1.476376e+02
1.130000e-06	-1.449017e-06	-2.214356e-09	-1.130881e+01	-1.468308e+02
1.140000e-06	-1.430763e-06	-2.198515e-09	-1.116635e+01	-1.460087e+02
1.150000e-06	-1.412448e-06	-2.179792e-09	-1.102341e+01	-1.451710e+02
1.160000e-06	-1.394056e-06	-2.166160e-09	-1.087986e+01	-1.443175e+02
1.170000e-06	-1.375564e-06	-2.154539e-09	-1.073555e+01	-1.434480e+02
1.180000e-06	-1.356857e-06	-2.140187e-09	-1.058955e+01	-1.425623e+02
1.190000e-06	-1.337879e-06	-2.122112e-09	-1.044143e+01	-1.416603e+02
1.200000e-06	-1.318813e-06	-2.109043e-09	-1.029263e+01	-1.407417e+02
1.210000e-06	-1.299742e-06	-2.100277e-09	-1.014380e+01	-1.398067e+02
1.220000e-06	-1.280535e-06	-2.087438e-09	-9.993900e+00	-1.388551e+02
1.230000e-06	-1.261208e-06	-2.069478e-09	-9.843064e+00	-1.378870e+02
1.240000e-06	-1.241934e-06	-2.054347e-09	-9.692638e+00	-1.369024e+02
1.250000e-06	-1.222595e-06	-2.045368e-09	-9.541703e+00	-1.359014e+02
1.260000e-06	-1.203092e-06	-2.031937e-09	-9.389493e+00	-1.348840e+02
1.270000e-06	-1.183529e-06	-2.013825e-09	-9.236817e+00	-1.338504e+02
1.280000e-06	-1.163909e-06	-1.996863e-09	-9.083696e+00	-1.328007e+02
1.290000e-06	-1.144277e-06	-1.984714e-09	-8.930480e+00	-1.317351e+02
1.300000e-06	-1.124667e-06	-1.971214e-09	-8.777428e+00	-1.306538e+02
1.310000e-06	-1.105050e-06	-1.953810e-09	-8.624327e+00	-1.295569e+02
1.320000e-06	-1.085391e-06	-1.934463e-09	-8.470899e+00	-1.284445e+02
1.330000e-06	-1.065685e-06	-1.919467e-09	-8.317106e+00	-1.273170e+02
1.340000e-06	-1.045974e-06	-1.905523e-09	-8.163276e+00	-1.261743e+02
1.350000e-06	-1.026240e-06	-1.890692e-09	-8.009259e+00	-1.250168e+02
1.360000e-06	-1.006454e-06	-1.873793e-09	-7.854843e+00	-1.238446e+02
1.370000e-06	-9.866216e-07	-1.855643e-09	-7.700059e+00	-1.226577e+02
1.380000e-06	-9.667352e-07	-1.838118e-09	-7.544856e+00	-1.214563e+02
1.390000e-06	-9.468239e-07	-1.823094e-09	-7.389459e+00	-1.202405e+02
1.400000e-06	-9.269405e-07	-1.807775e-09	-7.234280e+00	-1.190102e+02
1.410000e-06	-9.070265e-07	-1.793756e-09	-7.078861e+00	-1.177656e+02
1.420000e-06	-8.870045e-07	-1.781001e-09	-6.922600e+00	-1.165065e+02
1.430000e-06	-8.669419e-07	-1.763702e-09	-6.766022e+00	-1.152329e+02
1.440000e-06	-8.468613e-07	-1.741949e-09	-6.609304e+00	-1.139446e+02
1.450000e-06	-8.267011e-07	-1.720037e-09	-6.451964e+00	-1.126416e+02
1.460000e-06	-8.065001e-07	-1.698088e-09	-6.294306e+00	-1.113236e+02
1.470000e-06	-7.862700e-07	-1.674732e-09	-6.136421e+00	-1.099903e+02
1.480000e-06	-7.659763e-07	-1.655251e-09	-5.978039e+00	-1.086414e+02
1.490000e-06	-7.456495e-07	-1.636547e-09	-5.819399e+00	-1.072765e+02
1.500000e-06	-7.252454e-07	-1.612831e-09	-5.660156e+00	-1.058953e+02
1.510000e-06	-7.047748e-07	-1.589197e-09	-5.500394e+00	-1.044973e+02
1.520000e-06	-6.842509e-07	-1.569477e-09	-5.340216e+00	-1.030819e+02
1.530000e-06	-6.636873e-07	-1.549408e-09	-5.179728e+00	-1.016487e+02
1.540000e-06	-6.431141e-07	-1.527079e-09	-5.019165e+00	-1.001970e+02
1.550000e-06	-6.224404e-07	-1.505166e-09	-4.857818e+00	-9.872628e+01
1.560000e-06	-6.016782e-07	-1.483438e-09	-4.695779e+00	-9.723581e+01
1.570000e-06	-5.808580e-07	-1.459301e-09	-4.533289e+00	-9.572494e+01
1.580000e-06	-5.599507e-07	-1.432669e-09	-4.370119e+00	-9.419294e+01
1.590000e-06	-5.389589e-07	-1.406452e-09	-4.206289e+00	-9.263911e+01
1.600000e-06	-5.179185e-07	-1.381555e-09	-4.042079e+00	-9.106270e+01
1.610000e-06	-4.968625e-07	-1.359539e-09	-3.877749e+00	-8.946298e+01
1.620000e-06	-4.757329e-07	-1.337130e-09	-3.712843e+00	-8.783921e+01
1.630000e-06	-4.545564e-07	-1.311369e-09	-3.547572e+00	-8.619064e+01
1.640000e-06	-4.334408e-07	-1.285039e-09	-3.382776e+00	-8.451657e+01
1.650000e-06	-4.123233e-07	-1.259454e-09	-3.217965e+00	-8.281628e+01
1.660000e-06	-3.911565e-07	-1.232555e-09	-3.052769e+00	-8.108912e+01
1.670000e-06	-3.699778e-07	-1.202559e-09	-2.887481e+00	-7.933443e+01
1.680000e-06	-3.487262e-07	-1.170775e-09	-2.721623e+00	-7.755162e+01
1.690000e-06	-3.273631e-07	-1.141462e-09	-2.554896e+00	-7.574014e+01
1.700000e-06	-3.059573e-07	-1.116463e-09	-2.387835e+00	-7.389948e+01
1.710000e-06	-2.845793e-07	-1.089748e-09	-2.220990e+00	-7.202922e+01
1.720000e-06	-2.631342e-07	-1.059056e-09	-2.053623e+00	-7.012897e+01
1.730000e-06	-2.415969e-07	-1.031020e-09	-1.885536e+00	-6.819844e+01
1.740000e-06	-2.201195e-07	-1.007507e-09	-1.717916e+00	-6.623738e+01
1.750000e-06	-1.986613e-07	-9.772632e-10	-1.550446e+00	-6.424567e+01
1.760000e-06	-1.772051e-07	-9.394089e-10	-1.382992e+00	-6.222323e+01
1.770000e-06	-1.557476e-07	-9.048972e-10	-1.215528e+00	-6.017009e+01
1.780000e-06	-1.342736e-07	-8.758350e-10	-1.047934e+00	-5.808636e+01
1.790000e-06	-1.128106e-07	-8.461423e-10	-8.804266e-01	-5.597225e+01
1.800000e-06	-9.131790e-08	-8.138516e-10	-7.126879e-01	-5.382806e+01
1.810000e-06	-6.979648e-08	-7.807456e-10	-5.447246e-01	-5.165419e+01
1.820000e-06	-4.829674e-08	-7.495208e-10	-3.769304e-01	-4.945114e+01
1.830000e-06	-2.680129e-08	-7.178320e-10	-2.091699e-01	-4.721949e+01
1.840000e-06	-5.250744e-09	-6.840648e-10	-4.097928e-02	-4.495993e+01
1.850000e-06	1.628244e-08	-6.493756e-10	1.270758e-01	-4.267323e+01
1.860000e-06	3.773559e-08	-6.168738e-10	2.945063e-01	-4.036027e+01
1.870000e-06	5.914312e-08	-5.841624e-10	4.615807e-01	-3.802200e+01
1.880000e-06	8.055425e-08	-5.495880e-10	6.286833e-01	-3.565946e+01
1.890000e-06	1.020118e-07	-5.143192e-10	7.961484e-01	-3.327378e+01
1.900000e-06	1.234788e-07	-4.792893e-10	9.636863e-01	-3.086615e+01
1.910000e-06	1.449359e-07	-4.448276e-10	1.131148e+00	-2.843785e+01
1.920000e-06	1.664574e-07	-4.097667e-10	1.299112e+00	-2.599022e+01
1.930000e-06	1.879830e-07	-3.740936e-10	1.467108e+00	-2.352464e+01
1.940000e-06	2.093809e-07	-3.373341e-10	1.634107e+00	-2.104258e+01
1.950000e-06	2.307442e-07	-3.025832e-10	1.800836e+00	-1.854554e+01
1.960000e-06	2.521460e-07	-2.691235e-10	1.967866e+00	-1.603504e+01
1.970000e-06	2.735127e-07	-2.309102e-10	2.134622e+00	-1.351267e+01
1.980000e-06	2.948315e-07	-1.912116e-10	2.301004e+00	-1.098003e+01
1.990000e-06	3.160606e-07	-1.556747e-10	2.466686e+00	-8.438743e+00
2.000000e-06	3.372337e-07	-1.206136e-10	2.631930e+00	-5.890435e+00
2.010000e-06	3.584844e-07	-8.143935e-11	2.797781e+00	-3.336750e+00
2.020000e-06	3.797883e-07	-3.998666e-11	2.964047e+00	-7.793234e-01
2.030000e-06	4.010657e-07	-1.762254e-12	3.130105e+00	1.780214e+00
2.040000e-06	4.222885e-07	3.337592e-11	3.295738e+00	4.340249e+00
2.050000e-06	4.434704e-07	6.893733e-11	3.461052e+00	6.899190e+00
2.060000e-06	4.646103e-07	1.060316e-10	3.626037e+00	9.455472e+00
2.070000e-06	4.856534e-07	1.415457e-10	3.790268e+00	1.200756e+01
2.080000e-06	5.066667e-07	1.762469e-10	3.954265e+00	1.455398e+01
2.090000e-06	5.276756e-07	2.119355e-10	4.118228e+00	1.709326e+01
2.100000e-06	5.486055e-07	2.489485e-10	4.281576e+00	1.962402e+01
2.110000e-06	5.694417e-07	2.855182e-10	4.444191e+00	2.214491e+01
2.120000e-06	5.902436e-07	3.204432e-10	4.606539e+00	2.465464e+01
2.130000e-06	6.110186e-07	3.548830e-10	4.768677e+00	2.715198e+01
2.140000e-06	6.317618e-07	3.906629e-10	4.930567e+00	2.963578e+01
2.150000e-06	6.524543e-07	4.276162e-10	5.092060e+00	3.210493e+01
2.160000e-06	6.730664e-07	4.624848e-10	5.252926e+00	3.455839e+01
2.170000e-06	6.936488e-07	4.960831e-10	5.413561e+00	3.699521e+01
2.180000e-06	7.141784e-07	5.314469e-10	5.573784e+00	3.941449e+01
2.190000e-06	7.346791e-07	5.679535e-10	5.733781e+00	4.181540e+01
2.200000e-06	7.550940e-07	6.033767e-10	5.893109e+00	4.419718e+01
2.210000e-06	7.753657e-07	6.380283e-10	6.051319e+00	4.655914e+01
2.220000e-06	7.955692e-07	6.740219e-10	6.208996e+00	4.890066e+01
2.230000e-06	8.157727e-07	7.115915e-10	6.366674e+00	5.122117e+01
2.240000e-06	8.359242e-07	7.472378e-10	6.523946e+00	5.352019e+01
2.250000e-06	8.559494e-07	7.795329e-10	6.680232e+00	5.579727e+01
2.260000e-06	8.759394e-07	8.106728e-10	6.836243e+00	5.805204e+01
2.270000e-06	8.959364e-07	8.429567e-10	6.992309e+00	6.028418e+01
2.280000e-06	9.158917e-07	8.766260e-10	7.148049e+00	6.249341e+01
2.290000e-06	9.357663e-07	9.101845e-10	7.303160e+00	6.467951e+01
2.300000e-06	9.556002e-07	9.431007e-10	7.457953e+00	6.684230e+01
2.310000e-06	9.754348e-07	9.758309e-10	7.612752e+00	6.898166e+01
2.320000e-06	9.952671e-07	1.009508e-09	7.767532e+00	7.109747e+01
2.330000e-06	1.015093e-06	1.044462e-09	7.922264e+00	7.318968e+01
2.340000e-06	1.034884e-06	1.077958e-09	8.076723e+00	7.525825e+01
2.350000e-06	1.054649e-06	1.110852e-09	8.230980e+00	7.730318e+01
2.360000e-06	1.074424e-06	1.143183e-09	8.385313e+00	7.932448e+01
2.370000e-06	1.094162e-06	1.172628e-09	8.539353e+00	8.132218e+01
2.380000e-06	1.113840e-06	1.201721e-09	8.692929e+00	8.329634e+01
2.390000e-06	1.133475e-06	1.233524e-09	8.846168e+00	8.524702e+01
2.400000e-06	1.153097e-06	1.263425e-09	8.999311e+00	8.717430e+01
2.410000e-06	1.172661e-06	1.288477e-09	9.151999e+00	8.907825e+01
2.420000e-06	1.192164e-06	1.315001e-09	9.304211e+00	9.095897e+01
2.430000e-06	1.211648e-06	1.345625e-09	9.456274e+00	9.281653e+01
2.440000e-06	1.231044e-06	1.375656e-09	9.607646e+00	9.465103e+01
2.450000e-06	1.250310e-06	1.403316e-09	9.758004e+00	9.646256e+01
2.460000e-06	1.269470e-06	1.432068e-09	9.907544e+00	9.825119e+01
2.470000e-06	1.288582e-06	1.462312e-09	1.005670e+01	1.000170e+02
2.480000e-06	1.307618e-06	1.489995e-09	1.020526e+01	1.017601e+02
2.490000e-06	1.326591e-06	1.513699e-09	1.035334e+01	1.034805e+02
2.500000e-06	1.345487e-06	1.536999e-09	1.050081e+01	1.051783e+02
2.510000e-06	1.364154e-06	1.562790e-09	1.064650e+01	1.068535e+02
2.520000e-06	1.382631e-06	1.588760e-09	1.079070e+01	1.085062e+02
2.530000e-06	1.401016e-06	1.613242e-09	1.093419e+01	1.101365e+02
2.540000e-06	1.419305e-06	1.638025e-09	1.107692e+01	1.117443e+02
2.550000e-06	1.437485e-06	1.663149e-09	1.121881e+01	1.133297e+02
2.560000e-06	1.455618e-06	1.688325e-09	1.136033e+01	1.148927e+02
2.570000e-06	1.473618e-06	1.712042e-09	1.150081e+01	1.164334e+02
2.580000e-06	1.491479e-06	1.734423e-09	1.164020e+01	1.179517e+02
2.590000e-06	1.509219e-06	1.756344e-09	1.177865e+01	1.194477e+02
2.600000e-06	1.526808e-06	1.779105e-09	1.191593e+01	1.209214e+02
2.610000e-06	1.544305e-06	1.802104e-09	1.205248e+01	1.223729e+02
2.620000e-06	1.561734e-06	1.823226e-09	1.218851e+01	1.238020e+02
2.630000e-06	1.579102e-06	1.844772e-09	1.232406e+01	1.252090e+02
2.640000e-06	1.596405e-06	1.868656e-09	1.245910e+01	1.265937e+02
2.650000e-06	1.613725e-06	1.890937e-09	1.259427e+01	1.279563e+02
2.660000e-06	1.630920e-06	1.910683e-09	1.272846e+01	1.292968e+02
2.670000e-06	1.647997e-06	1.929262e-09	1.286175e+01	1.306153e+02
2.680000e-06	1.665033e-06	1.946762e-09	1.299470e+01	1.319117e+02
2.690000e-06	1.681968e-06	1.962935e-09	1.312687e+01	1.331863e+02
2.700000e-06	1.698859e-06	1.978247e-09	1.325869e+01	1.344391e+02
2.710000e-06	1.715679e-06	1.996511e-09	1.338997e+01	1.356703e+02
2.720000e-06	1.732259e-06	2.015570e-09	1.351936e+01	1.368798e+02
2.730000e-06	1.748694e-06	2.034801e-09	1.364763e+01	1.380680e+02
2.740000e-06	1.765113e-06	2.052639e-09	1.377577e+01	1.392349e+02
2.750000e-06	1.781448e-06	2.069812e-09	1.390326e+01	1.403807e+02
2.760000e-06	1.797577e-06	2.088298e-09	1.402913e+01	1.415056e+02
2.770000e-06	1.813459e-06	2.104680e-09	1.415309e+01	1.426098e+02
2.780000e-06	1.829196e-06	2.119626e-09	1.427591e+01	1.436935e+02
2.790000e-06	1.844702e-06	2.136493e-09	1.439693e+01	1.447570e+02
2.800000e-06	1.859969e-06	2.156509e-09	1.451607e+01	1.458004e+02
2.810000e-06	1.875056e-06	2.175294e-09	1.463382e+01	1.468242e+02
2.820000e-06	1.889879e-06	2.192295e-09	1.474951e+01	1.478285e+02
2.830000e-06	1.904523e-06	2.210371e-09	1.486379e+01	1.488136e+02
2.840000e-06	1.919101e-06	2.228227e-09	1.497757e+01	1.497799e+02
2.850000e-06	1.933464e-06	2.243632e-09	1.508967e+01	1.507276e+02
2.860000e-06	1.947639e-06	2.257998e-09	1.520029e+01	1.516571e+02
2.870000e-06	1.961787e-06	2.271288e-09	1.531071e+01	1.525687e+02
2.880000e-06	1.975878e-06	2.285187e-09	1.542068e+01	1.534627e+02
2.890000e-06	1.989731e-06	2.300769e-09	1.552880e+01	1.543395e+02
2.900000e-06	2.003369e-06	2.314809e-09	1.563523e+01	1.551995e+02
