# Temperatura_=_20.0
# Concentracion g/m^3_=_9000.0
# C_Vs_to_Am_M_A/Vsm_=_65563218390.804596
# pendiente_HvsI_1/m_=_3716.3
# ordenada_HvsI_A/m_=_1297.0
# frecuencia_Hz_=_134935.01743120194

Tiempo_(s)	Campo_(V.s)	Magnetizacion_(V.s)	Campo_(kA/m)	Magnetizacion_(A/m)
0.000000e+00	-2.539347e-06	2.534104e-11	-1.982742e+01	5.038429e-02
1.000000e-08	-2.539655e-06	3.411784e-11	-1.982982e+01	4.843127e-02
2.000000e-08	-2.539850e-06	1.259568e-11	-1.983135e+01	4.642804e-02
3.000000e-08	-2.539979e-06	-5.935809e-11	-1.983236e+01	4.438055e-02
4.000000e-08	-2.539952e-06	-9.923063e-11	-1.983214e+01	4.229465e-02
5.000000e-08	-2.539691e-06	-3.745360e-11	-1.983011e+01	4.017605e-02
6.000000e-08	-2.539332e-06	2.879350e-12	-1.982730e+01	3.803022e-02
7.000000e-08	-2.538818e-06	6.304064e-11	-1.982329e+01	3.586235e-02
8.000000e-08	-2.538071e-06	7.347673e-11	-1.981745e+01	3.367733e-02
9.000000e-08	-2.537098e-06	3.187935e-11	-1.980986e+01	3.147966e-02
1.000000e-07	-2.535801e-06	-2.473294e-11	-1.979974e+01	2.927341e-02
1.100000e-07	-2.534229e-06	-2.941713e-11	-1.978745e+01	2.706220e-02
1.200000e-07	-2.532405e-06	-4.722849e-11	-1.977321e+01	2.484914e-02
1.300000e-07	-2.530226e-06	-2.340238e-11	-1.975620e+01	2.263681e-02
1.400000e-07	-2.527679e-06	4.503167e-11	-1.973632e+01	2.042725e-02
1.500000e-07	-2.524906e-06	1.074791e-11	-1.971466e+01	1.822189e-02
1.600000e-07	-2.521924e-06	-3.993473e-11	-1.969138e+01	1.602159e-02
1.700000e-07	-2.518674e-06	-6.043480e-11	-1.966600e+01	1.382660e-02
1.800000e-07	-2.515218e-06	-2.704880e-11	-1.963902e+01	1.163656e-02
1.900000e-07	-2.511664e-06	-1.689218e-11	-1.961126e+01	9.450505e-03
2.000000e-07	-2.508038e-06	3.184786e-12	-1.958296e+01	7.266892e-03
2.100000e-07	-2.504310e-06	-9.489331e-12	-1.955385e+01	5.083583e-03
2.200000e-07	-2.500494e-06	1.751460e-11	-1.952405e+01	2.897887e-03
2.300000e-07	-2.496552e-06	1.757918e-11	-1.949327e+01	7.065804e-04
2.400000e-07	-2.492516e-06	1.775386e-12	-1.946176e+01	-1.494057e-03
2.500000e-07	-2.488428e-06	-8.333757e-12	-1.942984e+01	-3.708209e-03
2.600000e-07	-2.484212e-06	8.571539e-12	-1.939692e+01	-5.940477e-03
2.700000e-07	-2.479809e-06	1.986130e-11	-1.936254e+01	-8.195835e-03
2.800000e-07	-2.475147e-06	3.221734e-12	-1.932614e+01	-1.047958e-02
2.900000e-07	-2.470308e-06	-1.329837e-11	-1.928835e+01	-1.279726e-02
3.000000e-07	-2.465366e-06	-1.526388e-11	-1.924977e+01	-1.515466e-02
3.100000e-07	-2.460190e-06	3.223384e-11	-1.920936e+01	-1.755769e-02
3.200000e-07	-2.454790e-06	3.588867e-11	-1.916719e+01	-2.001234e-02
3.300000e-07	-2.449237e-06	-1.535044e-11	-1.912383e+01	-2.252462e-02
3.400000e-07	-2.443507e-06	-4.042838e-11	-1.907910e+01	-2.510050e-02
3.500000e-07	-2.437578e-06	1.951960e-11	-1.903279e+01	-2.774584e-02
3.600000e-07	-2.431440e-06	4.021396e-11	-1.898487e+01	-3.046630e-02
3.700000e-07	-2.425135e-06	-1.664979e-11	-1.893564e+01	-3.326729e-02
3.800000e-07	-2.418671e-06	-5.244461e-11	-1.888517e+01	-3.615394e-02
3.900000e-07	-2.412001e-06	4.585630e-12	-1.883309e+01	-3.913096e-02
4.000000e-07	-2.405133e-06	4.941683e-11	-1.877947e+01	-4.220266e-02
4.100000e-07	-2.398169e-06	1.360408e-11	-1.872509e+01	-4.537282e-02
4.200000e-07	-2.391060e-06	-3.465597e-11	-1.866958e+01	-4.864471e-02
4.300000e-07	-2.383746e-06	-1.069100e-11	-1.861248e+01	-5.202098e-02
4.400000e-07	-2.376401e-06	3.900687e-11	-1.855513e+01	-5.550362e-02
4.500000e-07	-2.368968e-06	3.285127e-11	-1.849708e+01	-5.909396e-02
4.600000e-07	-2.361362e-06	-1.346364e-11	-1.843769e+01	-6.279260e-02
4.700000e-07	-2.353652e-06	-2.300775e-11	-1.837750e+01	-6.659937e-02
4.800000e-07	-2.345816e-06	1.439097e-11	-1.831632e+01	-7.051335e-02
4.900000e-07	-2.337941e-06	3.637331e-11	-1.825483e+01	-7.453279e-02
5.000000e-07	-2.330002e-06	8.030666e-12	-1.819283e+01	-7.865518e-02
5.100000e-07	-2.321909e-06	-2.258118e-11	-1.812965e+01	-8.287714e-02
5.200000e-07	-2.313568e-06	-2.529046e-12	-1.806452e+01	-8.719453e-02
5.300000e-07	-2.304996e-06	3.395952e-11	-1.799759e+01	-9.160237e-02
5.400000e-07	-2.296303e-06	2.596922e-11	-1.792971e+01	-9.609491e-02
5.500000e-07	-2.287325e-06	-1.122045e-11	-1.785961e+01	-1.006656e-01
5.600000e-07	-2.277967e-06	-1.459932e-11	-1.778654e+01	-1.053073e-01
5.700000e-07	-2.268357e-06	1.491330e-11	-1.771151e+01	-1.100118e-01
5.800000e-07	-2.258495e-06	2.657214e-11	-1.763451e+01	-1.147707e-01
5.900000e-07	-2.248380e-06	3.693499e-12	-1.755553e+01	-1.195746e-01
6.000000e-07	-2.238049e-06	-1.201830e-11	-1.747486e+01	-1.244137e-01
6.100000e-07	-2.227453e-06	4.867481e-12	-1.739213e+01	-1.292777e-01
6.200000e-07	-2.216582e-06	3.089856e-11	-1.730724e+01	-1.341558e-01
6.300000e-07	-2.205506e-06	2.298801e-11	-1.722076e+01	-1.390368e-01
6.400000e-07	-2.194183e-06	-4.031130e-12	-1.713235e+01	-1.439092e-01
6.500000e-07	-2.182630e-06	-1.070458e-13	-1.704214e+01	-1.487613e-01
6.600000e-07	-2.170984e-06	3.172433e-11	-1.695121e+01	-1.535811e-01
6.700000e-07	-2.159229e-06	3.422397e-11	-1.685943e+01	-1.583567e-01
6.800000e-07	-2.147388e-06	7.938762e-12	-1.676697e+01	-1.630759e-01
6.900000e-07	-2.135448e-06	2.826796e-12	-1.667375e+01	-1.677270e-01
7.000000e-07	-2.123455e-06	2.390203e-11	-1.658010e+01	-1.722980e-01
7.100000e-07	-2.111385e-06	2.860536e-11	-1.648586e+01	-1.767774e-01
7.200000e-07	-2.099085e-06	1.203205e-11	-1.638982e+01	-1.811538e-01
7.300000e-07	-2.086491e-06	1.662833e-12	-1.629149e+01	-1.854164e-01
7.400000e-07	-2.073671e-06	9.171838e-12	-1.619138e+01	-1.895547e-01
7.500000e-07	-2.060720e-06	1.776424e-11	-1.609026e+01	-1.935587e-01
7.600000e-07	-2.047596e-06	1.732405e-11	-1.598779e+01	-1.974191e-01
7.700000e-07	-2.034300e-06	1.153014e-11	-1.588398e+01	-2.011272e-01
7.800000e-07	-2.020884e-06	8.213591e-12	-1.577922e+01	-2.046750e-01
7.900000e-07	-2.007406e-06	1.725554e-11	-1.567398e+01	-2.080552e-01
8.000000e-07	-1.993780e-06	2.721319e-11	-1.556759e+01	-2.112614e-01
8.100000e-07	-1.979944e-06	2.026198e-11	-1.545956e+01	-2.142881e-01
8.200000e-07	-1.965961e-06	7.065513e-12	-1.535038e+01	-2.171307e-01
8.300000e-07	-1.951863e-06	1.096601e-11	-1.524030e+01	-2.197854e-01
8.400000e-07	-1.937581e-06	2.211305e-11	-1.512878e+01	-2.222493e-01
8.500000e-07	-1.923012e-06	1.615990e-11	-1.501502e+01	-2.245208e-01
8.600000e-07	-1.908236e-06	6.835138e-12	-1.489966e+01	-2.265989e-01
8.700000e-07	-1.893298e-06	1.576589e-11	-1.478302e+01	-2.284837e-01
8.800000e-07	-1.878215e-06	2.753859e-11	-1.466525e+01	-2.301765e-01
8.900000e-07	-1.862937e-06	2.562152e-11	-1.454595e+01	-2.316792e-01
9.000000e-07	-1.847418e-06	2.106219e-11	-1.442479e+01	-2.329949e-01
9.100000e-07	-1.831728e-06	2.466239e-11	-1.430227e+01	-2.341274e-01
9.200000e-07	-1.815852e-06	2.627890e-11	-1.417831e+01	-2.350817e-01
9.300000e-07	-1.799740e-06	2.329459e-11	-1.405251e+01	-2.358633e-01
9.400000e-07	-1.783499e-06	1.984350e-11	-1.392570e+01	-2.364788e-01
9.500000e-07	-1.767160e-06	1.851801e-11	-1.379812e+01	-2.369353e-01
9.600000e-07	-1.750613e-06	1.908411e-11	-1.366892e+01	-2.372408e-01
9.700000e-07	-1.733908e-06	2.154923e-11	-1.353849e+01	-2.374038e-01
9.800000e-07	-1.717078e-06	1.962570e-11	-1.340708e+01	-2.374335e-01
9.900000e-07	-1.700074e-06	1.403685e-11	-1.327431e+01	-2.373394e-01
1.000000e-06	-1.682999e-06	1.424739e-11	-1.314099e+01	-2.371315e-01
1.010000e-06	-1.665943e-06	2.037594e-11	-1.300782e+01	-2.368204e-01
1.020000e-06	-1.648874e-06	1.915348e-11	-1.287453e+01	-2.364166e-01
1.030000e-06	-1.631702e-06	1.132532e-11	-1.274046e+01	-2.359310e-01
1.040000e-06	-1.614379e-06	1.246922e-11	-1.260519e+01	-2.353746e-01
1.050000e-06	-1.597027e-06	2.070111e-11	-1.246971e+01	-2.347584e-01
1.060000e-06	-1.579636e-06	2.229688e-11	-1.233392e+01	-2.340934e-01
1.070000e-06	-1.562125e-06	1.755095e-11	-1.219720e+01	-2.333904e-01
1.080000e-06	-1.544523e-06	1.839182e-11	-1.205975e+01	-2.326599e-01
1.090000e-06	-1.526854e-06	2.209696e-11	-1.192180e+01	-2.319124e-01
1.100000e-06	-1.509049e-06	2.267589e-11	-1.178277e+01	-2.311579e-01
1.110000e-06	-1.491072e-06	2.216830e-11	-1.164241e+01	-2.304059e-01
1.120000e-06	-1.473056e-06	2.159013e-11	-1.150174e+01	-2.296655e-01
1.130000e-06	-1.454934e-06	2.219714e-11	-1.136023e+01	-2.289451e-01
1.140000e-06	-1.436703e-06	2.330969e-11	-1.121789e+01	-2.282528e-01
1.150000e-06	-1.418434e-06	2.304247e-11	-1.107524e+01	-2.275957e-01
1.160000e-06	-1.400016e-06	2.274261e-11	-1.093144e+01	-2.269804e-01
1.170000e-06	-1.381446e-06	2.571378e-11	-1.078644e+01	-2.264126e-01
1.180000e-06	-1.362742e-06	2.989213e-11	-1.064040e+01	-2.258974e-01
1.190000e-06	-1.343869e-06	3.114764e-11	-1.049303e+01	-2.254390e-01
1.200000e-06	-1.324852e-06	3.000902e-11	-1.034455e+01	-2.250407e-01
1.210000e-06	-1.305787e-06	2.921315e-11	-1.019569e+01	-2.247050e-01
1.220000e-06	-1.286641e-06	3.132101e-11	-1.004619e+01	-2.244336e-01
1.230000e-06	-1.267387e-06	3.261528e-11	-9.895856e+00	-2.242272e-01
1.240000e-06	-1.248100e-06	3.147598e-11	-9.745258e+00	-2.240858e-01
1.250000e-06	-1.228793e-06	2.811345e-11	-9.594512e+00	-2.240086e-01
1.260000e-06	-1.209422e-06	2.766097e-11	-9.443265e+00	-2.239938e-01
1.270000e-06	-1.189957e-06	3.002431e-11	-9.291274e+00	-2.240390e-01
1.280000e-06	-1.170470e-06	3.187151e-11	-9.139119e+00	-2.241408e-01
1.290000e-06	-1.150970e-06	3.275060e-11	-8.986866e+00	-2.242953e-01
1.300000e-06	-1.131388e-06	3.325266e-11	-8.833966e+00	-2.244979e-01
1.310000e-06	-1.111712e-06	3.395406e-11	-8.680336e+00	-2.247432e-01
1.320000e-06	-1.092009e-06	3.398559e-11	-8.526490e+00	-2.250254e-01
1.330000e-06	-1.072292e-06	3.250350e-11	-8.372537e+00	-2.253382e-01
1.340000e-06	-1.052564e-06	3.132746e-11	-8.218498e+00	-2.256747e-01
1.350000e-06	-1.032856e-06	3.025097e-11	-8.064624e+00	-2.260276e-01
1.360000e-06	-1.013160e-06	2.875006e-11	-7.910832e+00	-2.263894e-01
1.370000e-06	-9.933948e-07	2.952571e-11	-7.756504e+00	-2.267523e-01
1.380000e-06	-9.735560e-07	3.092831e-11	-7.601601e+00	-2.271083e-01
1.390000e-06	-9.536591e-07	3.116026e-11	-7.446245e+00	-2.274492e-01
1.400000e-06	-9.336845e-07	3.190297e-11	-7.290282e+00	-2.277669e-01
1.410000e-06	-9.137582e-07	3.170852e-11	-7.134695e+00	-2.280531e-01
1.420000e-06	-8.938614e-07	2.721682e-11	-6.979339e+00	-2.282999e-01
1.430000e-06	-8.738824e-07	2.436408e-11	-6.823342e+00	-2.284993e-01
1.440000e-06	-8.538119e-07	2.506971e-11	-6.666630e+00	-2.286437e-01
1.450000e-06	-8.336587e-07	2.520243e-11	-6.509272e+00	-2.287255e-01
1.460000e-06	-8.135099e-07	2.560003e-11	-6.351949e+00	-2.287379e-01
1.470000e-06	-7.933631e-07	2.810329e-11	-6.194641e+00	-2.286740e-01
1.480000e-06	-7.730948e-07	2.843675e-11	-6.036384e+00	-2.285278e-01
1.490000e-06	-7.526829e-07	2.563554e-11	-5.877006e+00	-2.282935e-01
1.500000e-06	-7.322340e-07	2.575068e-11	-5.717340e+00	-2.279660e-01
1.510000e-06	-7.117746e-07	2.843056e-11	-5.557592e+00	-2.275406e-01
1.520000e-06	-6.912506e-07	2.731802e-11	-5.397338e+00	-2.270135e-01
1.530000e-06	-6.706937e-07	2.711572e-11	-5.236829e+00	-2.263813e-01
1.540000e-06	-6.500856e-07	2.798219e-11	-5.075919e+00	-2.256414e-01
1.550000e-06	-6.292752e-07	2.519966e-11	-4.913430e+00	-2.247916e-01
1.560000e-06	-6.083404e-07	2.367619e-11	-4.749969e+00	-2.238309e-01
1.570000e-06	-5.874293e-07	2.624422e-11	-4.586694e+00	-2.227583e-01
1.580000e-06	-5.665218e-07	2.801032e-11	-4.423446e+00	-2.215742e-01
1.590000e-06	-5.456083e-07	2.662056e-11	-4.260152e+00	-2.202790e-01
1.600000e-06	-5.245957e-07	2.662383e-11	-4.096084e+00	-2.188742e-01
1.610000e-06	-5.035566e-07	2.648009e-11	-3.931809e+00	-2.173616e-01
1.620000e-06	-4.824417e-07	2.391957e-11	-3.766942e+00	-2.157440e-01
1.630000e-06	-4.612386e-07	2.080282e-11	-3.601387e+00	-2.140243e-01
1.640000e-06	-4.400949e-07	2.023882e-11	-3.436296e+00	-2.122063e-01
1.650000e-06	-4.189017e-07	2.015586e-11	-3.270817e+00	-2.102940e-01
1.660000e-06	-3.976105e-07	1.911811e-11	-3.104573e+00	-2.082920e-01
1.670000e-06	-3.762895e-07	2.050577e-11	-2.938098e+00	-2.062052e-01
1.680000e-06	-3.549522e-07	2.477417e-11	-2.771494e+00	-2.040389e-01
1.690000e-06	-3.336006e-07	2.726720e-11	-2.604779e+00	-2.017986e-01
1.700000e-06	-3.122727e-07	2.512066e-11	-2.438250e+00	-1.994899e-01
1.710000e-06	-2.909864e-07	2.236126e-11	-2.272045e+00	-1.971189e-01
1.720000e-06	-2.696690e-07	2.208696e-11	-2.105597e+00	-1.946915e-01
1.730000e-06	-2.482661e-07	2.222026e-11	-1.938481e+00	-1.922136e-01
1.740000e-06	-2.268702e-07	2.019816e-11	-1.771420e+00	-1.896912e-01
1.750000e-06	-2.055054e-07	1.855451e-11	-1.604602e+00	-1.871302e-01
1.760000e-06	-1.840953e-07	2.131459e-11	-1.437431e+00	-1.845362e-01
1.770000e-06	-1.626585e-07	2.616592e-11	-1.270050e+00	-1.819149e-01
1.780000e-06	-1.412399e-07	2.768189e-11	-1.102812e+00	-1.792713e-01
1.790000e-06	-1.198067e-07	2.716052e-11	-9.354601e-01	-1.766103e-01
1.800000e-06	-9.835463e-08	2.683953e-11	-7.679606e-01	-1.739366e-01
1.810000e-06	-7.689592e-08	2.738704e-11	-6.004093e-01	-1.712541e-01
1.820000e-06	-5.541755e-08	2.844256e-11	-4.327046e-01	-1.685665e-01
1.830000e-06	-3.396986e-08	2.695983e-11	-2.652393e-01	-1.658770e-01
1.840000e-06	-1.254163e-08	2.323455e-11	-9.792601e-02	-1.631881e-01
1.850000e-06	8.956461e-09	2.439714e-11	6.993275e-02	-1.605020e-01
1.860000e-06	3.052445e-08	2.727993e-11	2.383373e-01	-1.578199e-01
1.870000e-06	5.211515e-08	2.703574e-11	4.069191e-01	-1.551429e-01
1.880000e-06	7.368210e-08	2.628511e-11	5.753156e-01	-1.524713e-01
1.890000e-06	9.521012e-08	2.529199e-11	7.434080e-01	-1.498046e-01
1.900000e-06	1.166693e-07	2.452969e-11	9.109629e-01	-1.471419e-01
1.910000e-06	1.380948e-07	2.621820e-11	1.078255e+00	-1.444817e-01
1.920000e-06	1.595584e-07	2.797396e-11	1.245845e+00	-1.418220e-01
1.930000e-06	1.810319e-07	2.725620e-11	1.413511e+00	-1.391599e-01
1.940000e-06	2.025304e-07	2.569664e-11	1.581373e+00	-1.364924e-01
1.950000e-06	2.240594e-07	2.461261e-11	1.749473e+00	-1.338157e-01
1.960000e-06	2.454690e-07	2.381650e-11	1.916641e+00	-1.311257e-01
1.970000e-06	2.668334e-07	2.348583e-11	2.083456e+00	-1.284177e-01
1.980000e-06	2.882511e-07	2.287273e-11	2.250687e+00	-1.256869e-01
1.990000e-06	3.096145e-07	2.132850e-11	2.417494e+00	-1.229279e-01
2.000000e-06	3.309472e-07	1.976592e-11	2.584061e+00	-1.201351e-01
2.010000e-06	3.522578e-07	1.838998e-11	2.750457e+00	-1.173028e-01
2.020000e-06	3.735317e-07	1.892805e-11	2.916564e+00	-1.144252e-01
2.030000e-06	3.947653e-07	1.983529e-11	3.082358e+00	-1.114962e-01
2.040000e-06	4.159159e-07	1.904286e-11	3.247503e+00	-1.085097e-01
2.050000e-06	4.370339e-07	1.678131e-11	3.412395e+00	-1.054599e-01
2.060000e-06	4.582091e-07	1.674194e-11	3.577732e+00	-1.023409e-01
2.070000e-06	4.793462e-07	1.764276e-11	3.742772e+00	-9.914691e-02
2.080000e-06	5.004218e-07	1.685724e-11	3.907332e+00	-9.587263e-02
2.090000e-06	5.214650e-07	1.392885e-11	4.071639e+00	-9.251288e-02
2.100000e-06	5.423722e-07	1.172044e-11	4.234884e+00	-8.906293e-02
2.110000e-06	5.632527e-07	1.212505e-11	4.397921e+00	-8.551847e-02
2.120000e-06	5.841675e-07	1.194917e-11	4.561225e+00	-8.187567e-02
2.130000e-06	6.050145e-07	1.108475e-11	4.724000e+00	-7.813126e-02
2.140000e-06	6.257943e-07	1.069750e-11	4.886251e+00	-7.428256e-02
2.150000e-06	6.464604e-07	1.221864e-11	5.047613e+00	-7.032755e-02
2.160000e-06	6.670172e-07	1.334696e-11	5.208122e+00	-6.626489e-02
2.170000e-06	6.875852e-07	1.117526e-11	5.368719e+00	-6.209393e-02
2.180000e-06	7.081431e-07	8.328798e-12	5.529237e+00	-5.781482e-02
2.190000e-06	7.286065e-07	7.696213e-12	5.689016e+00	-5.342846e-02
2.200000e-06	7.490317e-07	7.555832e-12	5.848498e+00	-4.893654e-02
2.210000e-06	7.693788e-07	8.750089e-12	6.007370e+00	-4.434157e-02
2.220000e-06	7.896293e-07	9.497241e-12	6.165487e+00	-3.964688e-02
2.230000e-06	8.098524e-07	8.411605e-12	6.323390e+00	-3.485659e-02
2.240000e-06	8.300469e-07	9.945610e-12	6.481071e+00	-2.997564e-02
2.250000e-06	8.502320e-07	1.185103e-11	6.638678e+00	-2.500976e-02
2.260000e-06	8.703692e-07	9.369083e-12	6.795910e+00	-1.996544e-02
2.270000e-06	8.904309e-07	5.194766e-12	6.952554e+00	-1.484991e-02
2.280000e-06	9.104356e-07	4.966219e-12	7.108752e+00	-9.671125e-03
2.290000e-06	9.303561e-07	6.828607e-12	7.264293e+00	-4.437694e-03
2.300000e-06	9.501860e-07	6.274026e-12	7.419126e+00	8.411463e-04
2.310000e-06	9.700148e-07	4.775525e-12	7.573951e+00	6.155591e-03
2.320000e-06	9.898565e-07	4.556239e-12	7.728877e+00	1.149532e-02
2.330000e-06	1.009625e-06	6.213240e-12	7.883233e+00	1.684955e-02
2.340000e-06	1.029320e-06	7.201795e-12	8.037008e+00	2.220713e-02
2.350000e-06	1.049014e-06	6.141776e-12	8.190782e+00	2.755656e-02
2.360000e-06	1.068751e-06	5.483309e-12	8.344889e+00	3.288611e-02
2.370000e-06	1.088470e-06	5.908504e-12	8.498855e+00	3.818388e-02
2.380000e-06	1.108132e-06	5.249731e-12	8.652381e+00	4.343785e-02
2.390000e-06	1.127774e-06	3.823888e-12	8.805744e+00	4.863602e-02
2.400000e-06	1.147367e-06	3.324649e-12	8.958733e+00	5.376641e-02
2.410000e-06	1.166902e-06	5.661266e-13	9.111258e+00	5.881721e-02
2.420000e-06	1.186408e-06	-3.050771e-12	9.263567e+00	6.377680e-02
2.430000e-06	1.205847e-06	-5.191108e-12	9.415349e+00	6.863390e-02
2.440000e-06	1.225197e-06	-4.684769e-12	9.566435e+00	7.337755e-02
2.450000e-06	1.244525e-06	-3.004325e-12	9.717352e+00	7.799728e-02
2.460000e-06	1.263841e-06	-2.111441e-12	9.868170e+00	8.248312e-02
2.470000e-06	1.283054e-06	-1.014854e-12	1.001819e+01	8.682569e-02
2.480000e-06	1.302164e-06	-3.473919e-13	1.016739e+01	9.101626e-02
2.490000e-06	1.321136e-06	-1.338742e-12	1.031553e+01	9.504680e-02
2.500000e-06	1.339934e-06	-1.509238e-12	1.046231e+01	9.891006e-02
2.510000e-06	1.358587e-06	-2.452541e-13	1.060795e+01	1.025996e-01
2.520000e-06	1.377096e-06	-9.670048e-13	1.075247e+01	1.061098e-01
2.530000e-06	1.395521e-06	-1.614418e-12	1.089634e+01	1.094360e-01
2.540000e-06	1.413895e-06	4.347602e-13	1.103980e+01	1.125745e-01
2.550000e-06	1.432177e-06	1.418156e-12	1.118255e+01	1.155223e-01
2.560000e-06	1.450289e-06	-5.785445e-13	1.132397e+01	1.182776e-01
2.570000e-06	1.468277e-06	-7.207279e-13	1.146442e+01	1.208397e-01
2.580000e-06	1.486142e-06	6.990831e-13	1.160391e+01	1.232084e-01
2.590000e-06	1.503840e-06	1.827948e-12	1.174210e+01	1.253850e-01
2.600000e-06	1.521435e-06	1.496103e-12	1.187949e+01	1.273715e-01
2.610000e-06	1.538987e-06	-6.052045e-14	1.201653e+01	1.291707e-01
2.620000e-06	1.556525e-06	-5.365649e-13	1.215347e+01	1.307867e-01
2.630000e-06	1.573958e-06	7.197987e-13	1.228958e+01	1.322242e-01
2.640000e-06	1.591295e-06	1.213287e-12	1.242495e+01	1.334889e-01
2.650000e-06	1.608607e-06	2.512411e-13	1.256013e+01	1.345871e-01
2.660000e-06	1.625836e-06	-5.429900e-13	1.269465e+01	1.355261e-01
2.670000e-06	1.642941e-06	-2.038131e-12	1.282821e+01	1.363137e-01
2.680000e-06	1.659911e-06	-5.028653e-12	1.296071e+01	1.369585e-01
2.690000e-06	1.676848e-06	-8.805700e-12	1.309296e+01	1.374696e-01
2.700000e-06	1.693701e-06	-1.066288e-11	1.322455e+01	1.378566e-01
2.710000e-06	1.710370e-06	-9.877882e-12	1.335471e+01	1.381294e-01
2.720000e-06	1.727069e-06	-9.638108e-12	1.348509e+01	1.382985e-01
2.730000e-06	1.743723e-06	-9.921250e-12	1.361512e+01	1.383746e-01
2.740000e-06	1.760210e-06	-1.066007e-11	1.374386e+01	1.383685e-01
2.750000e-06	1.776513e-06	-1.158975e-11	1.387115e+01	1.382911e-01
2.760000e-06	1.792699e-06	-1.182704e-11	1.399753e+01	1.381535e-01
2.770000e-06	1.808762e-06	-1.213298e-11	1.412295e+01	1.379666e-01
2.780000e-06	1.824610e-06	-1.249445e-11	1.424670e+01	1.377413e-01
2.790000e-06	1.840265e-06	-1.046998e-11	1.436893e+01	1.374882e-01
2.800000e-06	1.855660e-06	-7.845167e-12	1.448914e+01	1.372177e-01
2.810000e-06	1.870836e-06	-5.916746e-12	1.460763e+01	1.369397e-01
2.820000e-06	1.885817e-06	-3.494562e-12	1.472461e+01	1.366639e-01
2.830000e-06	1.900606e-06	-1.836179e-12	1.484008e+01	1.363994e-01
2.840000e-06	1.915190e-06	-1.253446e-12	1.495395e+01	1.361546e-01
2.850000e-06	1.929611e-06	-2.220514e-12	1.506655e+01	1.359375e-01
2.860000e-06	1.943907e-06	-3.114661e-12	1.517818e+01	1.357554e-01
2.870000e-06	1.958075e-06	-2.960689e-12	1.528880e+01	1.356149e-01
2.880000e-06	1.972017e-06	-3.117853e-12	1.539766e+01	1.355217e-01
2.890000e-06	1.985760e-06	-3.268524e-12	1.550497e+01	1.354809e-01
2.900000e-06	1.999454e-06	-1.985335e-12	1.561189e+01	1.354967e-01
2.910000e-06	2.013026e-06	8.367502e-13	1.571786e+01	1.355725e-01
2.920000e-06	2.026514e-06	1.230689e-12	1.582318e+01	1.357108e-01
