# Temperatura_=_20.0
# Concentracion g/m^3_=_9000.0
# C_Vs_to_Am_M_A/Vsm_=_65563218390.804596
# pendiente_HvsI_1/m_=_3716.3
# ordenada_HvsI_A/m_=_1297.0
# frecuencia_Hz_=_134938.6671803159

Tiempo_(s)	Campo_(V.s)	Magnetizacion_(V.s)	Campo_(kA/m)	Magnetizacion_(A/m)
0.000000e+00	-2.540762e-06	-2.870991e-09	-1.982544e+01	-1.882255e+02
1.000000e-08	-2.540992e-06	-2.871124e-09	-1.982723e+01	-1.882482e+02
2.000000e-08	-2.541158e-06	-2.873358e-09	-1.982853e+01	-1.882596e+02
3.000000e-08	-2.541215e-06	-2.870451e-09	-1.982897e+01	-1.882597e+02
4.000000e-08	-2.541098e-06	-2.903961e-09	-1.982806e+01	-1.882487e+02
5.000000e-08	-2.540799e-06	-2.971010e-09	-1.982573e+01	-1.882268e+02
6.000000e-08	-2.540335e-06	-3.008786e-09	-1.982211e+01	-1.881942e+02
7.000000e-08	-2.539722e-06	-2.922815e-09	-1.981733e+01	-1.881510e+02
8.000000e-08	-2.538875e-06	-2.755026e-09	-1.981072e+01	-1.880976e+02
9.000000e-08	-2.537748e-06	-2.701036e-09	-1.980192e+01	-1.880343e+02
1.000000e-07	-2.536284e-06	-2.761010e-09	-1.979050e+01	-1.879613e+02
1.100000e-07	-2.534461e-06	-2.964824e-09	-1.977627e+01	-1.878790e+02
1.200000e-07	-2.532459e-06	-3.024822e-09	-1.976065e+01	-1.877877e+02
1.300000e-07	-2.530243e-06	-2.935788e-09	-1.974336e+01	-1.876879e+02
1.400000e-07	-2.527696e-06	-2.844314e-09	-1.972348e+01	-1.875799e+02
1.500000e-07	-2.524783e-06	-2.887892e-09	-1.970076e+01	-1.874641e+02
1.600000e-07	-2.521615e-06	-2.926711e-09	-1.967603e+01	-1.873410e+02
1.700000e-07	-2.518305e-06	-2.876296e-09	-1.965021e+01	-1.872109e+02
1.800000e-07	-2.514864e-06	-2.847439e-09	-1.962336e+01	-1.870743e+02
1.900000e-07	-2.511319e-06	-2.878335e-09	-1.959570e+01	-1.869316e+02
2.000000e-07	-2.507690e-06	-2.955248e-09	-1.956738e+01	-1.867832e+02
2.100000e-07	-2.503974e-06	-2.861585e-09	-1.953838e+01	-1.866295e+02
2.200000e-07	-2.500143e-06	-2.751651e-09	-1.950849e+01	-1.864709e+02
2.300000e-07	-2.496193e-06	-2.729483e-09	-1.947767e+01	-1.863077e+02
2.400000e-07	-2.492147e-06	-2.873452e-09	-1.944610e+01	-1.861404e+02
2.500000e-07	-2.487903e-06	-2.907594e-09	-1.941298e+01	-1.859692e+02
2.600000e-07	-2.483470e-06	-2.790565e-09	-1.937839e+01	-1.857945e+02
2.700000e-07	-2.478907e-06	-2.680474e-09	-1.934278e+01	-1.856165e+02
2.800000e-07	-2.474128e-06	-2.787395e-09	-1.930549e+01	-1.854354e+02
2.900000e-07	-2.469113e-06	-2.929151e-09	-1.926636e+01	-1.852515e+02
3.000000e-07	-2.463937e-06	-2.873039e-09	-1.922598e+01	-1.850648e+02
3.100000e-07	-2.458617e-06	-2.710239e-09	-1.918447e+01	-1.848757e+02
3.200000e-07	-2.453123e-06	-2.694100e-09	-1.914159e+01	-1.846841e+02
3.300000e-07	-2.447500e-06	-2.849901e-09	-1.909772e+01	-1.844900e+02
3.400000e-07	-2.441719e-06	-2.908031e-09	-1.905261e+01	-1.842936e+02
3.500000e-07	-2.435708e-06	-2.795812e-09	-1.900571e+01	-1.840948e+02
3.600000e-07	-2.429552e-06	-2.689961e-09	-1.895767e+01	-1.838934e+02
3.700000e-07	-2.423187e-06	-2.779545e-09	-1.890801e+01	-1.836895e+02
3.800000e-07	-2.416513e-06	-2.896452e-09	-1.885593e+01	-1.834828e+02
3.900000e-07	-2.409771e-06	-2.852605e-09	-1.880332e+01	-1.832731e+02
4.000000e-07	-2.402928e-06	-2.705031e-09	-1.874992e+01	-1.830603e+02
4.100000e-07	-2.395925e-06	-2.702204e-09	-1.869528e+01	-1.828442e+02
4.200000e-07	-2.388819e-06	-2.813694e-09	-1.863984e+01	-1.826243e+02
4.300000e-07	-2.381556e-06	-2.842346e-09	-1.858316e+01	-1.824005e+02
4.400000e-07	-2.374142e-06	-2.736176e-09	-1.852531e+01	-1.821723e+02
4.500000e-07	-2.366584e-06	-2.683443e-09	-1.846634e+01	-1.819395e+02
4.600000e-07	-2.358870e-06	-2.752451e-09	-1.840615e+01	-1.817016e+02
4.700000e-07	-2.351051e-06	-2.821735e-09	-1.834513e+01	-1.814583e+02
4.800000e-07	-2.343210e-06	-2.774937e-09	-1.828395e+01	-1.812091e+02
4.900000e-07	-2.335323e-06	-2.702629e-09	-1.822241e+01	-1.809538e+02
5.000000e-07	-2.327298e-06	-2.715846e-09	-1.815979e+01	-1.806918e+02
5.100000e-07	-2.318996e-06	-2.779885e-09	-1.809501e+01	-1.804228e+02
5.200000e-07	-2.310493e-06	-2.770236e-09	-1.802866e+01	-1.801463e+02
5.300000e-07	-2.301862e-06	-2.698300e-09	-1.796131e+01	-1.798621e+02
5.400000e-07	-2.292997e-06	-2.675808e-09	-1.789214e+01	-1.795696e+02
5.500000e-07	-2.283733e-06	-2.730863e-09	-1.781985e+01	-1.792685e+02
5.600000e-07	-2.274166e-06	-2.754475e-09	-1.774520e+01	-1.789586e+02
5.700000e-07	-2.264453e-06	-2.700858e-09	-1.766941e+01	-1.786394e+02
5.800000e-07	-2.254462e-06	-2.658980e-09	-1.759145e+01	-1.783107e+02
5.900000e-07	-2.244154e-06	-2.692181e-09	-1.751102e+01	-1.779722e+02
6.000000e-07	-2.233556e-06	-2.728392e-09	-1.742832e+01	-1.776237e+02
6.100000e-07	-2.222641e-06	-2.693866e-09	-1.734315e+01	-1.772649e+02
6.200000e-07	-2.211502e-06	-2.642460e-09	-1.725624e+01	-1.768957e+02
6.300000e-07	-2.200294e-06	-2.648274e-09	-1.716878e+01	-1.765159e+02
6.400000e-07	-2.188936e-06	-2.684756e-09	-1.708015e+01	-1.761255e+02
6.500000e-07	-2.177416e-06	-2.673315e-09	-1.699027e+01	-1.757243e+02
6.600000e-07	-2.165767e-06	-2.626600e-09	-1.689937e+01	-1.753124e+02
6.700000e-07	-2.153997e-06	-2.610763e-09	-1.680753e+01	-1.748897e+02
6.800000e-07	-2.142151e-06	-2.641034e-09	-1.671510e+01	-1.744562e+02
6.900000e-07	-2.130193e-06	-2.654502e-09	-1.662179e+01	-1.740121e+02
7.000000e-07	-2.118035e-06	-2.623589e-09	-1.652692e+01	-1.735574e+02
7.100000e-07	-2.105654e-06	-2.587733e-09	-1.643031e+01	-1.730923e+02
7.200000e-07	-2.093154e-06	-2.599162e-09	-1.633278e+01	-1.726168e+02
7.300000e-07	-2.080546e-06	-2.619747e-09	-1.623440e+01	-1.721313e+02
7.400000e-07	-2.067710e-06	-2.601053e-09	-1.613423e+01	-1.716358e+02
7.500000e-07	-2.054640e-06	-2.557856e-09	-1.603226e+01	-1.711307e+02
7.600000e-07	-2.041462e-06	-2.551233e-09	-1.592942e+01	-1.706162e+02
7.700000e-07	-2.028123e-06	-2.573221e-09	-1.582534e+01	-1.700924e+02
7.800000e-07	-2.014607e-06	-2.572799e-09	-1.571988e+01	-1.695597e+02
7.900000e-07	-2.000990e-06	-2.540094e-09	-1.561362e+01	-1.690184e+02
8.000000e-07	-1.987247e-06	-2.521601e-09	-1.550639e+01	-1.684687e+02
8.100000e-07	-1.973361e-06	-2.530969e-09	-1.539803e+01	-1.679109e+02
8.200000e-07	-1.959317e-06	-2.535692e-09	-1.528845e+01	-1.673452e+02
8.300000e-07	-1.945080e-06	-2.513156e-09	-1.517737e+01	-1.667720e+02
8.400000e-07	-1.930596e-06	-2.487629e-09	-1.506434e+01	-1.661914e+02
8.500000e-07	-1.916014e-06	-2.485087e-09	-1.495056e+01	-1.656037e+02
8.600000e-07	-1.901324e-06	-2.493490e-09	-1.483593e+01	-1.650091e+02
8.700000e-07	-1.886251e-06	-2.482944e-09	-1.471832e+01	-1.644078e+02
8.800000e-07	-1.870882e-06	-2.453693e-09	-1.459839e+01	-1.637999e+02
8.900000e-07	-1.855311e-06	-2.439380e-09	-1.447690e+01	-1.631857e+02
9.000000e-07	-1.839663e-06	-2.446730e-09	-1.435480e+01	-1.625651e+02
9.100000e-07	-1.823912e-06	-2.446299e-09	-1.423189e+01	-1.619384e+02
9.200000e-07	-1.807851e-06	-2.421032e-09	-1.410657e+01	-1.613054e+02
9.300000e-07	-1.791597e-06	-2.399318e-09	-1.397974e+01	-1.606664e+02
9.400000e-07	-1.775242e-06	-2.401686e-09	-1.385213e+01	-1.600211e+02
9.500000e-07	-1.758777e-06	-2.407418e-09	-1.372365e+01	-1.593696e+02
9.600000e-07	-1.742126e-06	-2.391139e-09	-1.359372e+01	-1.587118e+02
9.700000e-07	-1.725370e-06	-2.367755e-09	-1.346297e+01	-1.580476e+02
9.800000e-07	-1.708573e-06	-2.359352e-09	-1.333191e+01	-1.573767e+02
9.900000e-07	-1.691724e-06	-2.361468e-09	-1.320044e+01	-1.566990e+02
1.000000e-06	-1.674825e-06	-2.353097e-09	-1.306858e+01	-1.560143e+02
1.010000e-06	-1.657780e-06	-2.332421e-09	-1.293557e+01	-1.553223e+02
1.020000e-06	-1.640593e-06	-2.314425e-09	-1.280146e+01	-1.546227e+02
1.030000e-06	-1.623295e-06	-2.309389e-09	-1.266649e+01	-1.539152e+02
1.040000e-06	-1.605961e-06	-2.304845e-09	-1.253123e+01	-1.531995e+02
1.050000e-06	-1.588564e-06	-2.288734e-09	-1.239548e+01	-1.524752e+02
1.060000e-06	-1.571076e-06	-2.268275e-09	-1.225902e+01	-1.517419e+02
1.070000e-06	-1.553431e-06	-2.258812e-09	-1.212134e+01	-1.509991e+02
1.080000e-06	-1.535717e-06	-2.256602e-09	-1.198312e+01	-1.502466e+02
1.090000e-06	-1.517990e-06	-2.248463e-09	-1.184480e+01	-1.494839e+02
1.100000e-06	-1.500213e-06	-2.231396e-09	-1.170609e+01	-1.487105e+02
1.110000e-06	-1.482378e-06	-2.216665e-09	-1.156692e+01	-1.479260e+02
1.120000e-06	-1.464305e-06	-2.209305e-09	-1.142590e+01	-1.471299e+02
1.130000e-06	-1.446062e-06	-2.201535e-09	-1.128355e+01	-1.463219e+02
1.140000e-06	-1.427753e-06	-2.186932e-09	-1.114068e+01	-1.455014e+02
1.150000e-06	-1.409365e-06	-2.170212e-09	-1.099720e+01	-1.446681e+02
1.160000e-06	-1.390852e-06	-2.155503e-09	-1.085275e+01	-1.438216e+02
1.170000e-06	-1.372195e-06	-2.144259e-09	-1.070717e+01	-1.429614e+02
1.180000e-06	-1.353429e-06	-2.130242e-09	-1.056074e+01	-1.420871e+02
1.190000e-06	-1.334538e-06	-2.114610e-09	-1.041334e+01	-1.411985e+02
1.200000e-06	-1.315533e-06	-2.100268e-09	-1.026503e+01	-1.402950e+02
1.210000e-06	-1.296446e-06	-2.086238e-09	-1.011610e+01	-1.393764e+02
1.220000e-06	-1.277291e-06	-2.072594e-09	-9.966639e+00	-1.384424e+02
1.230000e-06	-1.258086e-06	-2.057122e-09	-9.816782e+00	-1.374927e+02
1.240000e-06	-1.238790e-06	-2.040202e-09	-9.666215e+00	-1.365270e+02
1.250000e-06	-1.219388e-06	-2.022822e-09	-9.514826e+00	-1.355450e+02
1.260000e-06	-1.199932e-06	-2.008065e-09	-9.363009e+00	-1.345466e+02
1.270000e-06	-1.180446e-06	-1.992046e-09	-9.210963e+00	-1.335315e+02
1.280000e-06	-1.160909e-06	-1.975656e-09	-9.058516e+00	-1.324995e+02
1.290000e-06	-1.141316e-06	-1.961052e-09	-8.905630e+00	-1.314505e+02
1.300000e-06	-1.121645e-06	-1.946688e-09	-8.752140e+00	-1.303843e+02
1.310000e-06	-1.101934e-06	-1.928748e-09	-8.598339e+00	-1.293008e+02
1.320000e-06	-1.082250e-06	-1.911262e-09	-8.444744e+00	-1.281999e+02
1.330000e-06	-1.062550e-06	-1.895955e-09	-8.291021e+00	-1.270815e+02
1.340000e-06	-1.042840e-06	-1.880907e-09	-8.137228e+00	-1.259455e+02
1.350000e-06	-1.023098e-06	-1.865186e-09	-7.983183e+00	-1.247918e+02
1.360000e-06	-1.003321e-06	-1.848985e-09	-7.828866e+00	-1.236203e+02
1.370000e-06	-9.835203e-07	-1.831509e-09	-7.674360e+00	-1.224310e+02
1.380000e-06	-9.636832e-07	-1.811992e-09	-7.519572e+00	-1.212238e+02
1.390000e-06	-9.438208e-07	-1.793510e-09	-7.364586e+00	-1.199986e+02
1.400000e-06	-9.239049e-07	-1.778828e-09	-7.209183e+00	-1.187553e+02
1.410000e-06	-9.039560e-07	-1.765527e-09	-7.053523e+00	-1.174939e+02
1.420000e-06	-8.839754e-07	-1.750297e-09	-6.897616e+00	-1.162143e+02
1.430000e-06	-8.639233e-07	-1.728565e-09	-6.741150e+00	-1.149163e+02
1.440000e-06	-8.437348e-07	-1.704373e-09	-6.583621e+00	-1.135998e+02
1.450000e-06	-8.234549e-07	-1.682510e-09	-6.425377e+00	-1.122647e+02
1.460000e-06	-8.032200e-07	-1.660411e-09	-6.267486e+00	-1.109109e+02
1.470000e-06	-7.829528e-07	-1.638423e-09	-6.109342e+00	-1.095382e+02
1.480000e-06	-7.625714e-07	-1.617818e-09	-5.950306e+00	-1.081463e+02
1.490000e-06	-7.421572e-07	-1.594257e-09	-5.791015e+00	-1.067350e+02
1.500000e-06	-7.216866e-07	-1.568478e-09	-5.631285e+00	-1.053042e+02
1.510000e-06	-7.011773e-07	-1.547079e-09	-5.471251e+00	-1.038536e+02
1.520000e-06	-6.806714e-07	-1.526340e-09	-5.311245e+00	-1.023828e+02
1.530000e-06	-6.600445e-07	-1.502841e-09	-5.150294e+00	-1.008916e+02
1.540000e-06	-6.392887e-07	-1.478862e-09	-4.988337e+00	-9.937969e+01
1.550000e-06	-6.185029e-07	-1.458195e-09	-4.826147e+00	-9.784666e+01
1.560000e-06	-5.976425e-07	-1.434636e-09	-4.663375e+00	-9.629217e+01
1.570000e-06	-5.767158e-07	-1.406260e-09	-4.500084e+00	-9.471585e+01
1.580000e-06	-5.557960e-07	-1.379842e-09	-4.336848e+00	-9.311731e+01
1.590000e-06	-5.348256e-07	-1.355709e-09	-4.173217e+00	-9.149615e+01
1.600000e-06	-5.137751e-07	-1.333117e-09	-4.008962e+00	-8.985195e+01
1.610000e-06	-4.926910e-07	-1.310238e-09	-3.844443e+00	-8.818430e+01
1.620000e-06	-4.715881e-07	-1.285628e-09	-3.679778e+00	-8.649280e+01
1.630000e-06	-4.504769e-07	-1.259506e-09	-3.515049e+00	-8.477701e+01
1.640000e-06	-4.293858e-07	-1.234941e-09	-3.350476e+00	-8.303654e+01
1.650000e-06	-4.081672e-07	-1.209782e-09	-3.184908e+00	-8.127099e+01
1.660000e-06	-3.868335e-07	-1.180398e-09	-3.018442e+00	-7.947998e+01
1.670000e-06	-3.655156e-07	-1.149207e-09	-2.852100e+00	-7.766315e+01
1.680000e-06	-3.441959e-07	-1.119133e-09	-2.685743e+00	-7.582015e+01
1.690000e-06	-3.227810e-07	-1.091468e-09	-2.518644e+00	-7.395068e+01
1.700000e-06	-3.013779e-07	-1.064920e-09	-2.351636e+00	-7.205446e+01
1.710000e-06	-2.800451e-07	-1.036443e-09	-2.185178e+00	-7.013125e+01
1.720000e-06	-2.587444e-07	-1.007296e-09	-2.018969e+00	-6.818085e+01
1.730000e-06	-2.374424e-07	-9.799814e-10	-1.852751e+00	-6.620310e+01
1.740000e-06	-2.160215e-07	-9.516313e-10	-1.685605e+00	-6.419790e+01
1.750000e-06	-1.945472e-07	-9.190190e-10	-1.518042e+00	-6.216519e+01
1.760000e-06	-1.730578e-07	-8.831806e-10	-1.350362e+00	-6.010499e+01
1.770000e-06	-1.515384e-07	-8.499101e-10	-1.182446e+00	-5.801735e+01
1.780000e-06	-1.300743e-07	-8.187728e-10	-1.014963e+00	-5.590240e+01
1.790000e-06	-1.086775e-07	-7.860139e-10	-8.480053e-01	-5.376034e+01
1.800000e-06	-8.724477e-08	-7.521623e-10	-6.807666e-01	-5.159141e+01
1.810000e-06	-6.581881e-08	-7.201859e-10	-5.135809e-01	-4.939596e+01
1.820000e-06	-4.443942e-08	-6.886967e-10	-3.467586e-01	-4.717438e+01
1.830000e-06	-2.299446e-08	-6.571195e-10	-1.794246e-01	-4.492714e+01
1.840000e-06	-1.455456e-09	-6.242269e-10	-1.135685e-02	-4.265479e+01
1.850000e-06	2.007251e-08	-5.882807e-10	1.566248e-01	-4.035793e+01
1.860000e-06	4.158911e-08	-5.518838e-10	3.245178e-01	-3.803726e+01
1.870000e-06	6.312954e-08	-5.167461e-10	4.925966e-01	-3.569354e+01
1.880000e-06	8.470512e-08	-4.840605e-10	6.609498e-01	-3.332758e+01
1.890000e-06	1.062093e-07	-4.512846e-10	8.287456e-01	-3.094030e+01
1.900000e-06	1.275569e-07	-4.153754e-10	9.953204e-01	-2.853264e+01
1.910000e-06	1.489199e-07	-3.791419e-10	1.162015e+00	-2.610565e+01
1.920000e-06	1.703851e-07	-3.441110e-10	1.329507e+00	-2.366039e+01
1.930000e-06	1.918296e-07	-3.094108e-10	1.496837e+00	-2.119802e+01
1.940000e-06	2.132346e-07	-2.739871e-10	1.663859e+00	-1.871974e+01
1.950000e-06	2.346215e-07	-2.384721e-10	1.830740e+00	-1.622680e+01
1.960000e-06	2.560134e-07	-2.029450e-10	1.997660e+00	-1.372048e+01
1.970000e-06	2.774550e-07	-1.658697e-10	2.164967e+00	-1.120213e+01
1.980000e-06	2.988363e-07	-1.278463e-10	2.331805e+00	-8.673118e+00
1.990000e-06	3.201076e-07	-8.963291e-11	2.497783e+00	-6.134848e+00
2.000000e-06	3.414240e-07	-5.082291e-11	2.664115e+00	-3.588754e+00
2.010000e-06	3.627741e-07	-1.196613e-11	2.830708e+00	-1.036290e+00
2.020000e-06	3.840739e-07	2.637944e-11	2.996910e+00	1.521075e+00
2.030000e-06	4.053074e-07	6.388968e-11	3.162593e+00	4.081856e+00
2.040000e-06	4.264862e-07	1.012451e-10	3.327851e+00	6.644566e+00
2.050000e-06	4.476619e-07	1.395356e-10	3.493084e+00	9.207714e+00
2.060000e-06	4.688345e-07	1.767062e-10	3.658292e+00	1.176981e+01
2.070000e-06	4.899002e-07	2.132780e-10	3.822667e+00	1.432939e+01
2.080000e-06	5.108149e-07	2.492078e-10	3.985863e+00	1.688498e+01
2.090000e-06	5.317366e-07	2.840323e-10	4.149114e+00	1.943514e+01
2.100000e-06	5.526760e-07	3.187219e-10	4.312503e+00	2.197844e+01
2.110000e-06	5.735677e-07	3.537858e-10	4.475520e+00	2.451350e+01
2.120000e-06	5.944729e-07	3.891257e-10	4.638642e+00	2.703896e+01
2.130000e-06	6.153042e-07	4.231269e-10	4.801188e+00	2.955347e+01
2.140000e-06	6.360029e-07	4.569128e-10	4.962699e+00	3.205577e+01
2.150000e-06	6.566254e-07	4.912021e-10	5.123615e+00	3.454461e+01
2.160000e-06	6.771939e-07	5.266199e-10	5.284110e+00	3.701879e+01
2.170000e-06	6.978222e-07	5.621437e-10	5.445071e+00	3.947715e+01
2.180000e-06	7.184283e-07	5.958416e-10	5.605860e+00	4.191860e+01
2.190000e-06	7.388683e-07	6.300975e-10	5.765352e+00	4.434210e+01
2.200000e-06	7.592101e-07	6.659710e-10	5.924078e+00	4.674664e+01
2.210000e-06	7.795233e-07	7.016128e-10	6.082581e+00	4.913131e+01
2.220000e-06	7.997804e-07	7.359534e-10	6.240646e+00	5.149521e+01
2.230000e-06	8.199488e-07	7.718301e-10	6.398019e+00	5.383752e+01
2.240000e-06	8.400564e-07	8.082431e-10	6.554918e+00	5.615749e+01
2.250000e-06	8.601721e-07	8.427376e-10	6.711880e+00	5.845441e+01
2.260000e-06	8.802515e-07	8.754657e-10	6.868558e+00	6.072763e+01
2.270000e-06	9.002382e-07	9.072619e-10	7.024513e+00	6.297657e+01
2.280000e-06	9.201549e-07	9.413311e-10	7.179922e+00	6.520070e+01
2.290000e-06	9.400238e-07	9.767951e-10	7.334958e+00	6.739955e+01
2.300000e-06	9.598848e-07	1.009321e-09	7.489933e+00	6.957270e+01
2.310000e-06	9.796908e-07	1.040045e-09	7.644478e+00	7.171978e+01
2.320000e-06	9.993983e-07	1.072784e-09	7.798255e+00	7.384049e+01
2.330000e-06	1.019098e-06	1.107736e-09	7.951970e+00	7.593457e+01
2.340000e-06	1.038818e-06	1.140731e-09	8.105846e+00	7.800180e+01
2.350000e-06	1.058530e-06	1.170175e-09	8.259655e+00	8.004204e+01
2.360000e-06	1.078258e-06	1.198828e-09	8.413594e+00	8.205517e+01
2.370000e-06	1.097971e-06	1.228171e-09	8.567413e+00	8.404110e+01
2.380000e-06	1.117617e-06	1.257810e-09	8.720711e+00	8.599982e+01
2.390000e-06	1.137207e-06	1.286075e-09	8.873572e+00	8.793134e+01
2.400000e-06	1.156755e-06	1.312879e-09	9.026100e+00	8.983570e+01
2.410000e-06	1.176280e-06	1.339824e-09	9.178457e+00	9.171297e+01
2.420000e-06	1.195773e-06	1.368046e-09	9.330555e+00	9.356329e+01
2.430000e-06	1.215204e-06	1.395735e-09	9.482173e+00	9.538678e+01
2.440000e-06	1.234595e-06	1.423002e-09	9.633486e+00	9.718363e+01
2.450000e-06	1.253910e-06	1.451876e-09	9.784193e+00	9.895403e+01
2.460000e-06	1.273046e-06	1.479559e-09	9.933516e+00	1.006982e+02
2.470000e-06	1.292110e-06	1.504318e-09	1.008227e+01	1.024164e+02
2.480000e-06	1.311176e-06	1.529745e-09	1.023104e+01	1.041089e+02
2.490000e-06	1.330189e-06	1.555824e-09	1.037940e+01	1.057759e+02
2.500000e-06	1.349131e-06	1.580557e-09	1.052720e+01	1.074178e+02
2.510000e-06	1.367898e-06	1.605110e-09	1.067364e+01	1.090348e+02
2.520000e-06	1.386487e-06	1.629974e-09	1.081869e+01	1.106273e+02
2.530000e-06	1.404921e-06	1.655636e-09	1.096253e+01	1.121957e+02
2.540000e-06	1.423208e-06	1.681683e-09	1.110522e+01	1.137401e+02
2.550000e-06	1.441340e-06	1.704807e-09	1.124671e+01	1.152611e+02
2.560000e-06	1.459290e-06	1.727544e-09	1.138676e+01	1.167589e+02
2.570000e-06	1.477139e-06	1.752271e-09	1.152604e+01	1.182339e+02
2.580000e-06	1.494940e-06	1.777843e-09	1.166494e+01	1.196865e+02
2.590000e-06	1.512643e-06	1.800316e-09	1.180308e+01	1.211170e+02
2.600000e-06	1.530254e-06	1.821240e-09	1.194049e+01	1.225257e+02
2.610000e-06	1.547812e-06	1.843451e-09	1.207750e+01	1.239130e+02
2.620000e-06	1.565290e-06	1.866056e-09	1.221388e+01	1.252792e+02
2.630000e-06	1.582689e-06	1.887696e-09	1.234964e+01	1.266248e+02
2.640000e-06	1.599970e-06	1.908157e-09	1.248448e+01	1.279500e+02
2.650000e-06	1.617206e-06	1.929106e-09	1.261898e+01	1.292552e+02
2.660000e-06	1.634337e-06	1.948617e-09	1.275265e+01	1.305406e+02
2.670000e-06	1.651291e-06	1.967317e-09	1.288494e+01	1.318066e+02
2.680000e-06	1.668251e-06	1.985126e-09	1.301728e+01	1.330536e+02
2.690000e-06	1.685124e-06	2.002445e-09	1.314894e+01	1.342817e+02
2.700000e-06	1.701842e-06	2.020331e-09	1.327939e+01	1.354914e+02
2.710000e-06	1.718461e-06	2.039145e-09	1.340906e+01	1.366828e+02
2.720000e-06	1.734965e-06	2.056798e-09	1.353785e+01	1.378562e+02
2.730000e-06	1.751382e-06	2.073848e-09	1.366595e+01	1.390119e+02
2.740000e-06	1.767702e-06	2.091388e-09	1.379329e+01	1.401502e+02
2.750000e-06	1.783936e-06	2.107795e-09	1.391996e+01	1.412711e+02
2.760000e-06	1.800138e-06	2.125573e-09	1.404639e+01	1.423750e+02
2.770000e-06	1.816100e-06	2.145296e-09	1.417093e+01	1.434621e+02
2.780000e-06	1.831744e-06	2.163820e-09	1.429301e+01	1.445325e+02
2.790000e-06	1.847213e-06	2.180782e-09	1.441371e+01	1.455864e+02
2.800000e-06	1.862419e-06	2.197941e-09	1.453236e+01	1.466240e+02
2.810000e-06	1.877415e-06	2.215406e-09	1.464937e+01	1.476454e+02
2.820000e-06	1.892247e-06	2.231306e-09	1.476511e+01	1.486507e+02
2.830000e-06	1.906903e-06	2.246984e-09	1.487947e+01	1.496402e+02
2.840000e-06	1.921442e-06	2.262103e-09	1.499291e+01	1.506138e+02
2.850000e-06	1.935854e-06	2.275621e-09	1.510537e+01	1.515717e+02
2.860000e-06	1.950071e-06	2.288075e-09	1.521631e+01	1.525140e+02
2.870000e-06	1.964090e-06	2.300364e-09	1.532570e+01	1.534407e+02
2.880000e-06	1.977982e-06	2.313294e-09	1.543410e+01	1.543520e+02
2.890000e-06	1.991782e-06	2.328118e-09	1.554177e+01	1.552478e+02
2.900000e-06	2.005462e-06	2.343713e-09	1.564852e+01	1.561283e+02
