# Temperatura_=_20.0
# Concentracion g/m^3_=_9000.0
# C_Vs_to_Am_M_A/Vsm_=_65563218390.804596
# pendiente_HvsI_1/m_=_3716.3
# ordenada_HvsI_A/m_=_1297.0
# frecuencia_Hz_=_134942.08813950024

Tiempo_(s)	Campo_(V.s)	Magnetizacion_(V.s)	Campo_(kA/m)	Magnetizacion_(A/m)
0.000000e+00	-2.536688e-06	-2.829439e-09	-1.981992e+01	-1.893509e+02
1.000000e-08	-2.536980e-06	-2.818386e-09	-1.982219e+01	-1.893375e+02
2.000000e-08	-2.537125e-06	-2.834949e-09	-1.982333e+01	-1.893092e+02
3.000000e-08	-2.537179e-06	-2.902984e-09	-1.982375e+01	-1.892661e+02
4.000000e-08	-2.537148e-06	-2.965542e-09	-1.982351e+01	-1.892086e+02
5.000000e-08	-2.536922e-06	-2.935292e-09	-1.982175e+01	-1.891370e+02
6.000000e-08	-2.536533e-06	-2.969251e-09	-1.981870e+01	-1.890517e+02
7.000000e-08	-2.536080e-06	-2.882961e-09	-1.981516e+01	-1.889532e+02
8.000000e-08	-2.535512e-06	-2.758606e-09	-1.981072e+01	-1.888420e+02
9.000000e-08	-2.534566e-06	-2.683574e-09	-1.980334e+01	-1.887187e+02
1.000000e-07	-2.533258e-06	-2.721032e-09	-1.979312e+01	-1.885838e+02
1.100000e-07	-2.531691e-06	-2.872172e-09	-1.978087e+01	-1.884380e+02
1.200000e-07	-2.529824e-06	-3.060379e-09	-1.976628e+01	-1.882820e+02
1.300000e-07	-2.527720e-06	-3.015146e-09	-1.974985e+01	-1.881164e+02
1.400000e-07	-2.525329e-06	-2.802705e-09	-1.973116e+01	-1.879420e+02
1.500000e-07	-2.522634e-06	-2.801866e-09	-1.971011e+01	-1.877595e+02
1.600000e-07	-2.519687e-06	-2.902575e-09	-1.968708e+01	-1.875697e+02
1.700000e-07	-2.516527e-06	-2.973807e-09	-1.966239e+01	-1.873733e+02
1.800000e-07	-2.513132e-06	-2.868885e-09	-1.963587e+01	-1.871710e+02
1.900000e-07	-2.509607e-06	-2.831742e-09	-1.960832e+01	-1.869637e+02
2.000000e-07	-2.505985e-06	-2.869120e-09	-1.958002e+01	-1.867520e+02
2.100000e-07	-2.502288e-06	-2.926988e-09	-1.955113e+01	-1.865366e+02
2.200000e-07	-2.498523e-06	-2.778787e-09	-1.952172e+01	-1.863183e+02
2.300000e-07	-2.494655e-06	-2.682682e-09	-1.949150e+01	-1.860976e+02
2.400000e-07	-2.490658e-06	-2.757656e-09	-1.946027e+01	-1.858752e+02
2.500000e-07	-2.486522e-06	-2.899741e-09	-1.942795e+01	-1.856516e+02
2.600000e-07	-2.482281e-06	-2.867287e-09	-1.939482e+01	-1.854275e+02
2.700000e-07	-2.477778e-06	-2.690233e-09	-1.935963e+01	-1.852031e+02
2.800000e-07	-2.473131e-06	-2.651372e-09	-1.932332e+01	-1.849790e+02
2.900000e-07	-2.468388e-06	-2.825431e-09	-1.928626e+01	-1.847555e+02
3.000000e-07	-2.463400e-06	-2.953226e-09	-1.924729e+01	-1.845329e+02
3.100000e-07	-2.458172e-06	-2.761011e-09	-1.920645e+01	-1.843114e+02
3.200000e-07	-2.452700e-06	-2.587247e-09	-1.916369e+01	-1.840912e+02
3.300000e-07	-2.447062e-06	-2.697351e-09	-1.911964e+01	-1.838723e+02
3.400000e-07	-2.441350e-06	-2.931284e-09	-1.907501e+01	-1.836548e+02
3.500000e-07	-2.435497e-06	-2.862014e-09	-1.902928e+01	-1.834387e+02
3.600000e-07	-2.429434e-06	-2.647066e-09	-1.898190e+01	-1.832237e+02
3.700000e-07	-2.423248e-06	-2.637904e-09	-1.893357e+01	-1.830098e+02
3.800000e-07	-2.416873e-06	-2.855240e-09	-1.888376e+01	-1.827966e+02
3.900000e-07	-2.410261e-06	-2.900739e-09	-1.883210e+01	-1.825839e+02
4.000000e-07	-2.403528e-06	-2.716512e-09	-1.877949e+01	-1.823713e+02
4.100000e-07	-2.396634e-06	-2.601309e-09	-1.872563e+01	-1.821584e+02
4.200000e-07	-2.389548e-06	-2.731725e-09	-1.867026e+01	-1.819447e+02
4.300000e-07	-2.382255e-06	-2.857009e-09	-1.861328e+01	-1.817297e+02
4.400000e-07	-2.374878e-06	-2.769967e-09	-1.855564e+01	-1.815129e+02
4.500000e-07	-2.367476e-06	-2.619716e-09	-1.849781e+01	-1.812936e+02
4.600000e-07	-2.359884e-06	-2.652770e-09	-1.843849e+01	-1.810712e+02
4.700000e-07	-2.352090e-06	-2.798483e-09	-1.837759e+01	-1.808452e+02
4.800000e-07	-2.344259e-06	-2.809434e-09	-1.831641e+01	-1.806147e+02
4.900000e-07	-2.336368e-06	-2.677822e-09	-1.825475e+01	-1.803793e+02
5.000000e-07	-2.328355e-06	-2.627185e-09	-1.819215e+01	-1.801381e+02
5.100000e-07	-2.320213e-06	-2.729019e-09	-1.812853e+01	-1.798905e+02
5.200000e-07	-2.311900e-06	-2.787181e-09	-1.806357e+01	-1.796360e+02
5.300000e-07	-2.303450e-06	-2.696226e-09	-1.799755e+01	-1.793738e+02
5.400000e-07	-2.294766e-06	-2.603638e-09	-1.792970e+01	-1.791032e+02
5.500000e-07	-2.285773e-06	-2.656687e-09	-1.785944e+01	-1.788239e+02
5.600000e-07	-2.276559e-06	-2.742796e-09	-1.778745e+01	-1.785350e+02
5.700000e-07	-2.267153e-06	-2.714370e-09	-1.771396e+01	-1.782363e+02
5.800000e-07	-2.257479e-06	-2.618195e-09	-1.763837e+01	-1.779270e+02
5.900000e-07	-2.247522e-06	-2.615274e-09	-1.756057e+01	-1.776070e+02
6.000000e-07	-2.237297e-06	-2.691841e-09	-1.748068e+01	-1.772756e+02
6.100000e-07	-2.226787e-06	-2.709095e-09	-1.739856e+01	-1.769328e+02
6.200000e-07	-2.215982e-06	-2.623797e-09	-1.731414e+01	-1.765780e+02
6.300000e-07	-2.204986e-06	-2.578599e-09	-1.722822e+01	-1.762112e+02
6.400000e-07	-2.193890e-06	-2.634143e-09	-1.714153e+01	-1.758322e+02
6.500000e-07	-2.182652e-06	-2.680666e-09	-1.705372e+01	-1.754408e+02
6.600000e-07	-2.171173e-06	-2.623939e-09	-1.696404e+01	-1.750371e+02
6.700000e-07	-2.159510e-06	-2.562109e-09	-1.687290e+01	-1.746211e+02
6.800000e-07	-2.147749e-06	-2.586981e-09	-1.678102e+01	-1.741927e+02
6.900000e-07	-2.135893e-06	-2.639689e-09	-1.668838e+01	-1.737522e+02
7.000000e-07	-2.123911e-06	-2.621479e-09	-1.659476e+01	-1.732998e+02
7.100000e-07	-2.111728e-06	-2.569217e-09	-1.649957e+01	-1.728356e+02
7.200000e-07	-2.099324e-06	-2.561112e-09	-1.640266e+01	-1.723599e+02
7.300000e-07	-2.086708e-06	-2.595748e-09	-1.630408e+01	-1.718730e+02
7.400000e-07	-2.073921e-06	-2.602611e-09	-1.620418e+01	-1.713752e+02
7.500000e-07	-2.061029e-06	-2.562497e-09	-1.610345e+01	-1.708670e+02
7.600000e-07	-2.048008e-06	-2.527760e-09	-1.600171e+01	-1.703487e+02
7.700000e-07	-2.034815e-06	-2.542118e-09	-1.589863e+01	-1.698207e+02
7.800000e-07	-2.021471e-06	-2.571192e-09	-1.579437e+01	-1.692835e+02
7.900000e-07	-2.007923e-06	-2.554908e-09	-1.568851e+01	-1.687375e+02
8.000000e-07	-1.994212e-06	-2.512821e-09	-1.558138e+01	-1.681830e+02
8.100000e-07	-1.980386e-06	-2.506663e-09	-1.547336e+01	-1.676206e+02
8.200000e-07	-1.966355e-06	-2.530473e-09	-1.536373e+01	-1.670507e+02
8.300000e-07	-1.952178e-06	-2.519955e-09	-1.525296e+01	-1.664735e+02
8.400000e-07	-1.937874e-06	-2.478827e-09	-1.514120e+01	-1.658896e+02
8.500000e-07	-1.923355e-06	-2.462057e-09	-1.502776e+01	-1.652992e+02
8.600000e-07	-1.908692e-06	-2.479697e-09	-1.491319e+01	-1.647027e+02
8.700000e-07	-1.893824e-06	-2.481426e-09	-1.479702e+01	-1.641003e+02
8.800000e-07	-1.878763e-06	-2.453928e-09	-1.467934e+01	-1.634922e+02
8.900000e-07	-1.863642e-06	-2.429047e-09	-1.456120e+01	-1.628787e+02
9.000000e-07	-1.848399e-06	-2.433220e-09	-1.444210e+01	-1.622598e+02
9.100000e-07	-1.832861e-06	-2.440044e-09	-1.432070e+01	-1.616357e+02
9.200000e-07	-1.816854e-06	-2.425359e-09	-1.419563e+01	-1.610063e+02
9.300000e-07	-1.800594e-06	-2.398516e-09	-1.406859e+01	-1.603716e+02
9.400000e-07	-1.784323e-06	-2.389764e-09	-1.394146e+01	-1.597316e+02
9.500000e-07	-1.767840e-06	-2.397777e-09	-1.381267e+01	-1.590861e+02
9.600000e-07	-1.751187e-06	-2.395710e-09	-1.368255e+01	-1.584349e+02
9.700000e-07	-1.734570e-06	-2.370147e-09	-1.355272e+01	-1.577778e+02
9.800000e-07	-1.717869e-06	-2.349149e-09	-1.342223e+01	-1.571144e+02
9.900000e-07	-1.700958e-06	-2.352917e-09	-1.329010e+01	-1.564444e+02
1.000000e-06	-1.683955e-06	-2.357730e-09	-1.315725e+01	-1.557673e+02
1.010000e-06	-1.666950e-06	-2.337248e-09	-1.302439e+01	-1.550828e+02
1.020000e-06	-1.649905e-06	-2.310146e-09	-1.289121e+01	-1.543904e+02
1.030000e-06	-1.632695e-06	-2.303791e-09	-1.275674e+01	-1.536895e+02
1.040000e-06	-1.615367e-06	-2.306873e-09	-1.262135e+01	-1.529796e+02
1.050000e-06	-1.598032e-06	-2.294663e-09	-1.248591e+01	-1.522600e+02
1.060000e-06	-1.580578e-06	-2.270257e-09	-1.234953e+01	-1.515303e+02
1.070000e-06	-1.563046e-06	-2.255824e-09	-1.221256e+01	-1.507897e+02
1.080000e-06	-1.545464e-06	-2.252927e-09	-1.207518e+01	-1.500377e+02
1.090000e-06	-1.527877e-06	-2.247848e-09	-1.193777e+01	-1.492737e+02
1.100000e-06	-1.510291e-06	-2.230394e-09	-1.180036e+01	-1.484969e+02
1.110000e-06	-1.492598e-06	-2.210863e-09	-1.166212e+01	-1.477068e+02
1.120000e-06	-1.474754e-06	-2.203658e-09	-1.152270e+01	-1.469028e+02
1.130000e-06	-1.456714e-06	-2.199973e-09	-1.138175e+01	-1.460844e+02
1.140000e-06	-1.438590e-06	-2.186804e-09	-1.124014e+01	-1.452508e+02
1.150000e-06	-1.420408e-06	-2.167963e-09	-1.109808e+01	-1.444017e+02
1.160000e-06	-1.402013e-06	-2.152232e-09	-1.095435e+01	-1.435365e+02
1.170000e-06	-1.383362e-06	-2.142518e-09	-1.080862e+01	-1.426548e+02
1.180000e-06	-1.364563e-06	-2.129599e-09	-1.066175e+01	-1.417561e+02
1.190000e-06	-1.345708e-06	-2.108773e-09	-1.051443e+01	-1.408401e+02
1.200000e-06	-1.326813e-06	-2.091267e-09	-1.036679e+01	-1.399065e+02
1.210000e-06	-1.307827e-06	-2.083683e-09	-1.021845e+01	-1.389549e+02
1.220000e-06	-1.288784e-06	-2.072914e-09	-1.006966e+01	-1.379852e+02
1.230000e-06	-1.269636e-06	-2.055286e-09	-9.920054e+00	-1.369972e+02
1.240000e-06	-1.250311e-06	-2.036885e-09	-9.769061e+00	-1.359907e+02
1.250000e-06	-1.230933e-06	-2.025449e-09	-9.617653e+00	-1.349657e+02
1.260000e-06	-1.211481e-06	-2.012951e-09	-9.465668e+00	-1.339222e+02
1.270000e-06	-1.191950e-06	-1.994981e-09	-9.313068e+00	-1.328602e+02
1.280000e-06	-1.172419e-06	-1.977430e-09	-9.160463e+00	-1.317798e+02
1.290000e-06	-1.152839e-06	-1.963415e-09	-9.007484e+00	-1.306810e+02
1.300000e-06	-1.133172e-06	-1.950843e-09	-8.853816e+00	-1.295640e+02
1.310000e-06	-1.113483e-06	-1.934387e-09	-8.699983e+00	-1.284291e+02
1.320000e-06	-1.093810e-06	-1.913235e-09	-8.546266e+00	-1.272764e+02
1.330000e-06	-1.074125e-06	-1.893383e-09	-8.392468e+00	-1.261061e+02
1.340000e-06	-1.054427e-06	-1.877561e-09	-8.238561e+00	-1.249186e+02
1.350000e-06	-1.034707e-06	-1.861933e-09	-8.084478e+00	-1.237141e+02
1.360000e-06	-1.014963e-06	-1.842053e-09	-7.930212e+00	-1.224929e+02
1.370000e-06	-9.951746e-07	-1.819703e-09	-7.775602e+00	-1.212553e+02
1.380000e-06	-9.753405e-07	-1.801831e-09	-7.620632e+00	-1.200015e+02
1.390000e-06	-9.554200e-07	-1.786993e-09	-7.464987e+00	-1.187319e+02
1.400000e-06	-9.354748e-07	-1.770069e-09	-7.309149e+00	-1.174466e+02
1.410000e-06	-9.155855e-07	-1.750454e-09	-7.153747e+00	-1.161460e+02
1.420000e-06	-8.956153e-07	-1.736861e-09	-6.997714e+00	-1.148303e+02
1.430000e-06	-8.755758e-07	-1.723078e-09	-6.841140e+00	-1.134995e+02
1.440000e-06	-8.554890e-07	-1.701741e-09	-6.684195e+00	-1.121540e+02
1.450000e-06	-8.353753e-07	-1.675132e-09	-6.527041e+00	-1.107937e+02
1.460000e-06	-8.152620e-07	-1.648294e-09	-6.369890e+00	-1.094188e+02
1.470000e-06	-7.950356e-07	-1.624358e-09	-6.211854e+00	-1.080292e+02
1.480000e-06	-7.747116e-07	-1.605351e-09	-6.053057e+00	-1.066249e+02
1.490000e-06	-7.543818e-07	-1.586517e-09	-5.894214e+00	-1.052059e+02
1.500000e-06	-7.339469e-07	-1.560437e-09	-5.734550e+00	-1.037718e+02
1.510000e-06	-7.133571e-07	-1.537517e-09	-5.573676e+00	-1.023227e+02
1.520000e-06	-6.928122e-07	-1.519986e-09	-5.413152e+00	-1.008581e+02
1.530000e-06	-6.722639e-07	-1.499229e-09	-5.252602e+00	-9.937777e+01
1.540000e-06	-6.515892e-07	-1.473842e-09	-5.091065e+00	-9.788131e+01
1.550000e-06	-6.308255e-07	-1.452861e-09	-4.928831e+00	-9.636830e+01
1.560000e-06	-6.099906e-07	-1.433398e-09	-4.766042e+00	-9.483824e+01
1.570000e-06	-5.890826e-07	-1.407664e-09	-4.602682e+00	-9.329059e+01
1.580000e-06	-5.680822e-07	-1.379689e-09	-4.438599e+00	-9.172477e+01
1.590000e-06	-5.471431e-07	-1.354341e-09	-4.274995e+00	-9.014016e+01
1.600000e-06	-5.261938e-07	-1.332381e-09	-4.111312e+00	-8.853610e+01
1.610000e-06	-5.051733e-07	-1.309042e-09	-3.947072e+00	-8.691190e+01
1.620000e-06	-4.841972e-07	-1.283959e-09	-3.783180e+00	-8.526684e+01
1.630000e-06	-4.631153e-07	-1.258647e-09	-3.618461e+00	-8.360020e+01
1.640000e-06	-4.419448e-07	-1.233801e-09	-3.453049e+00	-8.191123e+01
1.650000e-06	-4.207493e-07	-1.210386e-09	-3.287442e+00	-8.019918e+01
1.660000e-06	-3.995018e-07	-1.182509e-09	-3.121429e+00	-7.846331e+01
1.670000e-06	-3.782557e-07	-1.151255e-09	-2.955427e+00	-7.670290e+01
1.680000e-06	-3.569847e-07	-1.121145e-09	-2.789230e+00	-7.491722e+01
1.690000e-06	-3.356379e-07	-1.092569e-09	-2.622441e+00	-7.310560e+01
1.700000e-06	-3.142266e-07	-1.066125e-09	-2.455148e+00	-7.126739e+01
1.710000e-06	-2.928497e-07	-1.038287e-09	-2.288123e+00	-6.940199e+01
1.720000e-06	-2.714772e-07	-1.007722e-09	-2.121134e+00	-6.750883e+01
1.730000e-06	-2.500611e-07	-9.793180e-10	-1.953803e+00	-6.558743e+01
1.740000e-06	-2.287271e-07	-9.536861e-10	-1.787114e+00	-6.363735e+01
1.750000e-06	-2.073134e-07	-9.236442e-10	-1.619802e+00	-6.165824e+01
1.760000e-06	-1.858427e-07	-8.892218e-10	-1.452045e+00	-5.964980e+01
1.770000e-06	-1.645022e-07	-8.561238e-10	-1.285305e+00	-5.761185e+01
1.780000e-06	-1.431670e-07	-8.265473e-10	-1.118607e+00	-5.554427e+01
1.790000e-06	-1.217813e-07	-7.944671e-10	-9.515146e-01	-5.344705e+01
1.800000e-06	-1.003502e-07	-7.617632e-10	-7.840665e-01	-5.132027e+01
1.810000e-06	-7.885289e-08	-7.299373e-10	-6.161015e-01	-4.916411e+01
1.820000e-06	-5.734120e-08	-6.970242e-10	-4.480242e-01	-4.697885e+01
1.830000e-06	-3.584926e-08	-6.634659e-10	-2.801012e-01	-4.476488e+01
1.840000e-06	-1.432696e-08	-6.321251e-10	-1.119409e-01	-4.252269e+01
1.850000e-06	7.210388e-09	-5.978209e-10	5.633695e-02	-4.025288e+01
1.860000e-06	2.869879e-08	-5.599875e-10	2.242324e-01	-3.795614e+01
1.870000e-06	5.014351e-08	-5.251051e-10	3.917864e-01	-3.563329e+01
1.880000e-06	7.161044e-08	-4.934682e-10	5.595141e-01	-3.328523e+01
1.890000e-06	9.309561e-08	-4.602968e-10	7.273842e-01	-3.091295e+01
1.900000e-06	1.145210e-07	-4.229993e-10	8.947870e-01	-2.851757e+01
1.910000e-06	1.359147e-07	-3.860996e-10	1.061942e+00	-2.610025e+01
1.920000e-06	1.573539e-07	-3.502802e-10	1.229454e+00	-2.366228e+01
1.930000e-06	1.788133e-07	-3.152985e-10	1.397122e+00	-2.120501e+01
1.940000e-06	2.001765e-07	-2.793323e-10	1.564040e+00	-1.872985e+01
1.950000e-06	2.214680e-07	-2.413329e-10	1.730397e+00	-1.623830e+01
1.960000e-06	2.428269e-07	-2.035721e-10	1.897281e+00	-1.373190e+01
1.970000e-06	2.642543e-07	-1.677661e-10	2.064699e+00	-1.121227e+01
1.980000e-06	2.855792e-07	-1.322439e-10	2.231317e+00	-8.681034e+00
1.990000e-06	3.068114e-07	-9.522268e-11	2.397210e+00	-6.139887e+00
2.000000e-06	3.280947e-07	-5.724716e-11	2.563503e+00	-3.590536e+00
2.010000e-06	3.493501e-07	-1.979982e-11	2.729578e+00	-1.034713e+00
2.020000e-06	3.705435e-07	1.872254e-11	2.895169e+00	1.525840e+00
2.030000e-06	3.917571e-07	5.588026e-11	3.060917e+00	4.089375e+00
2.040000e-06	4.129774e-07	9.228274e-11	3.226718e+00	6.654150e+00
2.050000e-06	4.341546e-07	1.269328e-10	3.392182e+00	9.218435e+00
2.060000e-06	4.552787e-07	1.633212e-10	3.557231e+00	1.178052e+01
2.070000e-06	4.763993e-07	2.005996e-10	3.722253e+00	1.433872e+01
2.080000e-06	4.974691e-07	2.360990e-10	3.886877e+00	1.689139e+01
2.090000e-06	5.183919e-07	2.697437e-10	4.050353e+00	1.943691e+01
2.100000e-06	5.392124e-07	3.044106e-10	4.213031e+00	2.197374e+01
2.110000e-06	5.600038e-07	3.427298e-10	4.375480e+00	2.450036e+01
2.120000e-06	5.808551e-07	3.787120e-10	4.538397e+00	2.701531e+01
2.130000e-06	6.017312e-07	4.101399e-10	4.701509e+00	2.951723e+01
2.140000e-06	6.224859e-07	4.431110e-10	4.863671e+00	3.200477e+01
2.150000e-06	6.431484e-07	4.803518e-10	5.025114e+00	3.447671e+01
2.160000e-06	6.638200e-07	5.161931e-10	5.186627e+00	3.693185e+01
2.170000e-06	6.843989e-07	5.495497e-10	5.347416e+00	3.936911e+01
2.180000e-06	7.048864e-07	5.824145e-10	5.507491e+00	4.178745e+01
2.190000e-06	7.253523e-07	6.166465e-10	5.667398e+00	4.418594e+01
2.200000e-06	7.456770e-07	6.502525e-10	5.826201e+00	4.656372e+01
2.210000e-06	7.658762e-07	6.836252e-10	5.984024e+00	4.891999e+01
2.220000e-06	7.860780e-07	7.170449e-10	6.141866e+00	5.125406e+01
2.230000e-06	8.063050e-07	7.516123e-10	6.299906e+00	5.356530e+01
2.240000e-06	8.264102e-07	7.870072e-10	6.456994e+00	5.585315e+01
2.250000e-06	8.463869e-07	8.228381e-10	6.613078e+00	5.811714e+01
2.260000e-06	8.663863e-07	8.560731e-10	6.769339e+00	6.035686e+01
2.270000e-06	8.863568e-07	8.866703e-10	6.925375e+00	6.257198e+01
2.280000e-06	9.062540e-07	9.191738e-10	7.080838e+00	6.476222e+01
2.290000e-06	9.261170e-07	9.524510e-10	7.236033e+00	6.692738e+01
2.300000e-06	9.460445e-07	9.834272e-10	7.391733e+00	6.906731e+01
2.310000e-06	9.659643e-07	1.013921e-09	7.547372e+00	7.118190e+01
2.320000e-06	9.857726e-07	1.045787e-09	7.702141e+00	7.327113e+01
2.330000e-06	1.005535e-06	1.078592e-09	7.856553e+00	7.533498e+01
2.340000e-06	1.025263e-06	1.110587e-09	8.010692e+00	7.737351e+01
2.350000e-06	1.044971e-06	1.142121e-09	8.164679e+00	7.938679e+01
2.360000e-06	1.064647e-06	1.174204e-09	8.318409e+00	8.137494e+01
2.370000e-06	1.084291e-06	1.204147e-09	8.471893e+00	8.333809e+01
2.380000e-06	1.103930e-06	1.232664e-09	8.625340e+00	8.527643e+01
2.390000e-06	1.123544e-06	1.262489e-09	8.778589e+00	8.719014e+01
2.400000e-06	1.143101e-06	1.292353e-09	8.931398e+00	8.907942e+01
2.410000e-06	1.162622e-06	1.319242e-09	9.083915e+00	9.094450e+01
2.420000e-06	1.182134e-06	1.346788e-09	9.236374e+00	9.278561e+01
2.430000e-06	1.201612e-06	1.375557e-09	9.388559e+00	9.460298e+01
2.440000e-06	1.220966e-06	1.405866e-09	9.539778e+00	9.639686e+01
2.450000e-06	1.240274e-06	1.436859e-09	9.690637e+00	9.816748e+01
2.460000e-06	1.259492e-06	1.464626e-09	9.840790e+00	9.991509e+01
2.470000e-06	1.278648e-06	1.490946e-09	9.990466e+00	1.016399e+02
2.480000e-06	1.297801e-06	1.518113e-09	1.014012e+01	1.033422e+02
2.490000e-06	1.316834e-06	1.543792e-09	1.028882e+01	1.050222e+02
2.500000e-06	1.335747e-06	1.568349e-09	1.043659e+01	1.066801e+02
2.510000e-06	1.354463e-06	1.593714e-09	1.058283e+01	1.083161e+02
2.520000e-06	1.372968e-06	1.617246e-09	1.072742e+01	1.099304e+02
2.530000e-06	1.391389e-06	1.640971e-09	1.087135e+01	1.115231e+02
2.540000e-06	1.409733e-06	1.668079e-09	1.101468e+01	1.130946e+02
2.550000e-06	1.427932e-06	1.693540e-09	1.115686e+01	1.146449e+02
2.560000e-06	1.445926e-06	1.716476e-09	1.129746e+01	1.161741e+02
2.570000e-06	1.463963e-06	1.741899e-09	1.143839e+01	1.176826e+02
2.580000e-06	1.481980e-06	1.767789e-09	1.157916e+01	1.191702e+02
2.590000e-06	1.499681e-06	1.789856e-09	1.171746e+01	1.206373e+02
2.600000e-06	1.517255e-06	1.811128e-09	1.185477e+01	1.220839e+02
2.610000e-06	1.534734e-06	1.833687e-09	1.199134e+01	1.235101e+02
2.620000e-06	1.552167e-06	1.855461e-09	1.212756e+01	1.249160e+02
2.630000e-06	1.569593e-06	1.876914e-09	1.226371e+01	1.263018e+02
2.640000e-06	1.586946e-06	1.899610e-09	1.239929e+01	1.276675e+02
2.650000e-06	1.604230e-06	1.923622e-09	1.253433e+01	1.290131e+02
2.660000e-06	1.621530e-06	1.946174e-09	1.266950e+01	1.303389e+02
2.670000e-06	1.638756e-06	1.965649e-09	1.280410e+01	1.316448e+02
2.680000e-06	1.655790e-06	1.982800e-09	1.293719e+01	1.329310e+02
2.690000e-06	1.672746e-06	1.998571e-09	1.306967e+01	1.341975e+02
2.700000e-06	1.689605e-06	2.015739e-09	1.320140e+01	1.354444e+02
2.710000e-06	1.706416e-06	2.033021e-09	1.333274e+01	1.366718e+02
2.720000e-06	1.723120e-06	2.048875e-09	1.346326e+01	1.378798e+02
2.730000e-06	1.739630e-06	2.066730e-09	1.359225e+01	1.390685e+02
2.740000e-06	1.756104e-06	2.084569e-09	1.372098e+01	1.402380e+02
2.750000e-06	1.772425e-06	2.102506e-09	1.384849e+01	1.413883e+02
2.760000e-06	1.788538e-06	2.122416e-09	1.397439e+01	1.425195e+02
2.770000e-06	1.804585e-06	2.140089e-09	1.409977e+01	1.436319e+02
2.780000e-06	1.820453e-06	2.154492e-09	1.422375e+01	1.447254e+02
2.790000e-06	1.836103e-06	2.171528e-09	1.434603e+01	1.458001e+02
2.800000e-06	1.851624e-06	2.189118e-09	1.446730e+01	1.468563e+02
2.810000e-06	1.866956e-06	2.205379e-09	1.458709e+01	1.478940e+02
2.820000e-06	1.882030e-06	2.222631e-09	1.470487e+01	1.489133e+02
2.830000e-06	1.896838e-06	2.240890e-09	1.482057e+01	1.499144e+02
2.840000e-06	1.911328e-06	2.258608e-09	1.493379e+01	1.508974e+02
2.850000e-06	1.925636e-06	2.274848e-09	1.504558e+01	1.518625e+02
2.860000e-06	1.939838e-06	2.290174e-09	1.515654e+01	1.528098e+02
2.870000e-06	1.953921e-06	2.304746e-09	1.526658e+01	1.537394e+02
2.880000e-06	1.967983e-06	2.317572e-09	1.537645e+01	1.546515e+02
2.890000e-06	1.981974e-06	2.330647e-09	1.548576e+01	1.555463e+02
2.900000e-06	1.995714e-06	2.345428e-09	1.559312e+01	1.564239e+02
