# Temperatura_=_20.0
# Concentracion g/m^3_=_9000.0
# C_Vs_to_Am_M_A/Vsm_=_65563218390.804596
# pendiente_HvsI_1/m_=_3716.3
# ordenada_HvsI_A/m_=_1297.0
# frecuencia_Hz_=_134938.67683306578

Tiempo_(s)	Campo_(V.s)	Magnetizacion_(V.s)	Campo_(kA/m)	Magnetizacion_(A/m)
0.000000e+00	-2.543371e-06	-2.844591e-09	-1.981908e+01	-1.882063e+02
1.000000e-08	-2.543704e-06	-2.848270e-09	-1.982168e+01	-1.881740e+02
2.000000e-08	-2.543942e-06	-2.889188e-09	-1.982353e+01	-1.881282e+02
3.000000e-08	-2.544088e-06	-2.941445e-09	-1.982467e+01	-1.880693e+02
4.000000e-08	-2.544063e-06	-2.936686e-09	-1.982448e+01	-1.879977e+02
5.000000e-08	-2.543806e-06	-2.885847e-09	-1.982247e+01	-1.879137e+02
6.000000e-08	-2.543410e-06	-2.876108e-09	-1.981939e+01	-1.878180e+02
7.000000e-08	-2.542800e-06	-2.908463e-09	-1.981464e+01	-1.877109e+02
8.000000e-08	-2.541918e-06	-2.936992e-09	-1.980777e+01	-1.875931e+02
9.000000e-08	-2.540837e-06	-2.865508e-09	-1.979934e+01	-1.874651e+02
1.000000e-07	-2.539605e-06	-2.721787e-09	-1.978974e+01	-1.873275e+02
1.100000e-07	-2.538038e-06	-2.795984e-09	-1.977753e+01	-1.871809e+02
1.200000e-07	-2.536035e-06	-2.936879e-09	-1.976192e+01	-1.870259e+02
1.300000e-07	-2.533773e-06	-3.010654e-09	-1.974429e+01	-1.868632e+02
1.400000e-07	-2.531299e-06	-2.893227e-09	-1.972501e+01	-1.866935e+02
1.500000e-07	-2.528538e-06	-2.808098e-09	-1.970350e+01	-1.865173e+02
1.600000e-07	-2.525428e-06	-2.856842e-09	-1.967927e+01	-1.863353e+02
1.700000e-07	-2.522122e-06	-2.963706e-09	-1.965350e+01	-1.861481e+02
1.800000e-07	-2.518701e-06	-2.901482e-09	-1.962685e+01	-1.859564e+02
1.900000e-07	-2.515099e-06	-2.747855e-09	-1.959878e+01	-1.857608e+02
2.000000e-07	-2.511411e-06	-2.764024e-09	-1.957004e+01	-1.855617e+02
2.100000e-07	-2.507629e-06	-2.881551e-09	-1.954057e+01	-1.853598e+02
2.200000e-07	-2.503743e-06	-2.891164e-09	-1.951029e+01	-1.851556e+02
2.300000e-07	-2.499783e-06	-2.698843e-09	-1.947943e+01	-1.849495e+02
2.400000e-07	-2.495774e-06	-2.647392e-09	-1.944819e+01	-1.847419e+02
2.500000e-07	-2.491684e-06	-2.790573e-09	-1.941631e+01	-1.845333e+02
2.600000e-07	-2.487398e-06	-2.942004e-09	-1.938292e+01	-1.843240e+02
2.700000e-07	-2.482896e-06	-2.792376e-09	-1.934784e+01	-1.841142e+02
2.800000e-07	-2.478205e-06	-2.616675e-09	-1.931128e+01	-1.839042e+02
2.900000e-07	-2.473375e-06	-2.669609e-09	-1.927365e+01	-1.836942e+02
3.000000e-07	-2.468321e-06	-2.898980e-09	-1.923426e+01	-1.834843e+02
3.100000e-07	-2.463074e-06	-2.893502e-09	-1.919338e+01	-1.832745e+02
3.200000e-07	-2.457676e-06	-2.661915e-09	-1.915131e+01	-1.830649e+02
3.300000e-07	-2.452021e-06	-2.573396e-09	-1.910725e+01	-1.828553e+02
3.400000e-07	-2.446116e-06	-2.776530e-09	-1.906123e+01	-1.826457e+02
3.500000e-07	-2.440084e-06	-2.928278e-09	-1.901422e+01	-1.824360e+02
3.600000e-07	-2.433988e-06	-2.775214e-09	-1.896673e+01	-1.822258e+02
3.700000e-07	-2.427732e-06	-2.591431e-09	-1.891798e+01	-1.820150e+02
3.800000e-07	-2.421231e-06	-2.675906e-09	-1.886732e+01	-1.818032e+02
3.900000e-07	-2.414523e-06	-2.871429e-09	-1.881504e+01	-1.815901e+02
4.000000e-07	-2.407648e-06	-2.828186e-09	-1.876147e+01	-1.813752e+02
4.100000e-07	-2.400569e-06	-2.631963e-09	-1.870631e+01	-1.811581e+02
4.200000e-07	-2.393343e-06	-2.593018e-09	-1.865000e+01	-1.809384e+02
4.300000e-07	-2.386056e-06	-2.753712e-09	-1.859322e+01	-1.807156e+02
4.400000e-07	-2.378669e-06	-2.814561e-09	-1.853566e+01	-1.804890e+02
4.500000e-07	-2.371117e-06	-2.684884e-09	-1.847680e+01	-1.802583e+02
4.600000e-07	-2.363447e-06	-2.581937e-09	-1.841704e+01	-1.800228e+02
4.700000e-07	-2.355667e-06	-2.677335e-09	-1.835641e+01	-1.797821e+02
4.800000e-07	-2.347735e-06	-2.789542e-09	-1.829460e+01	-1.795354e+02
4.900000e-07	-2.339768e-06	-2.736586e-09	-1.823252e+01	-1.792824e+02
5.000000e-07	-2.331719e-06	-2.610544e-09	-1.816980e+01	-1.790224e+02
5.100000e-07	-2.323478e-06	-2.623489e-09	-1.810558e+01	-1.787549e+02
5.200000e-07	-2.315079e-06	-2.727234e-09	-1.804013e+01	-1.784795e+02
5.300000e-07	-2.306507e-06	-2.733317e-09	-1.797333e+01	-1.781956e+02
5.400000e-07	-2.297631e-06	-2.623036e-09	-1.790417e+01	-1.779028e+02
5.500000e-07	-2.288385e-06	-2.583524e-09	-1.783212e+01	-1.776007e+02
5.600000e-07	-2.278899e-06	-2.663729e-09	-1.775820e+01	-1.772889e+02
5.700000e-07	-2.269186e-06	-2.716170e-09	-1.768251e+01	-1.769671e+02
5.800000e-07	-2.259193e-06	-2.645165e-09	-1.760464e+01	-1.766350e+02
5.900000e-07	-2.248930e-06	-2.571122e-09	-1.752467e+01	-1.762924e+02
6.000000e-07	-2.238389e-06	-2.605491e-09	-1.744253e+01	-1.759390e+02
6.100000e-07	-2.227599e-06	-2.674240e-09	-1.735845e+01	-1.755747e+02
6.200000e-07	-2.216624e-06	-2.647440e-09	-1.727293e+01	-1.751994e+02
6.300000e-07	-2.205469e-06	-2.565493e-09	-1.718600e+01	-1.748130e+02
6.400000e-07	-2.194135e-06	-2.559498e-09	-1.709768e+01	-1.744157e+02
6.500000e-07	-2.182698e-06	-2.625131e-09	-1.700856e+01	-1.740074e+02
6.600000e-07	-2.171143e-06	-2.637285e-09	-1.691851e+01	-1.735882e+02
6.700000e-07	-2.159405e-06	-2.570879e-09	-1.682705e+01	-1.731583e+02
6.800000e-07	-2.147528e-06	-2.536941e-09	-1.673450e+01	-1.727179e+02
6.900000e-07	-2.135491e-06	-2.579923e-09	-1.664070e+01	-1.722672e+02
7.000000e-07	-2.123328e-06	-2.614071e-09	-1.654592e+01	-1.718065e+02
7.100000e-07	-2.111047e-06	-2.574507e-09	-1.645023e+01	-1.713361e+02
7.200000e-07	-2.098563e-06	-2.526666e-09	-1.635294e+01	-1.708564e+02
7.300000e-07	-2.085907e-06	-2.534704e-09	-1.625432e+01	-1.703676e+02
7.400000e-07	-2.073113e-06	-2.567857e-09	-1.615462e+01	-1.698702e+02
7.500000e-07	-2.060091e-06	-2.555518e-09	-1.605315e+01	-1.693645e+02
7.600000e-07	-2.046805e-06	-2.511653e-09	-1.594962e+01	-1.688510e+02
7.700000e-07	-2.033435e-06	-2.496049e-09	-1.584543e+01	-1.683300e+02
7.800000e-07	-2.019997e-06	-2.523033e-09	-1.574072e+01	-1.678020e+02
7.900000e-07	-2.006321e-06	-2.532950e-09	-1.563415e+01	-1.672674e+02
8.000000e-07	-1.992534e-06	-2.501092e-09	-1.552672e+01	-1.667265e+02
8.100000e-07	-1.978697e-06	-2.467109e-09	-1.541889e+01	-1.661797e+02
8.200000e-07	-1.964605e-06	-2.474657e-09	-1.530908e+01	-1.656273e+02
8.300000e-07	-1.950356e-06	-2.490964e-09	-1.519805e+01	-1.650696e+02
8.400000e-07	-1.935953e-06	-2.473703e-09	-1.508581e+01	-1.645070e+02
8.500000e-07	-1.921225e-06	-2.439649e-09	-1.497104e+01	-1.639396e+02
8.600000e-07	-1.906303e-06	-2.434576e-09	-1.485476e+01	-1.633677e+02
8.700000e-07	-1.891416e-06	-2.450469e-09	-1.473876e+01	-1.627914e+02
8.800000e-07	-1.876350e-06	-2.445333e-09	-1.462136e+01	-1.622108e+02
8.900000e-07	-1.860937e-06	-2.415509e-09	-1.450126e+01	-1.616260e+02
9.000000e-07	-1.845388e-06	-2.399439e-09	-1.438009e+01	-1.610369e+02
9.100000e-07	-1.829582e-06	-2.406992e-09	-1.425692e+01	-1.604436e+02
9.200000e-07	-1.813580e-06	-2.408559e-09	-1.413223e+01	-1.598459e+02
9.300000e-07	-1.797450e-06	-2.388331e-09	-1.400654e+01	-1.592437e+02
9.400000e-07	-1.781061e-06	-2.367930e-09	-1.387882e+01	-1.586368e+02
9.500000e-07	-1.764530e-06	-2.368455e-09	-1.375001e+01	-1.580249e+02
9.600000e-07	-1.747992e-06	-2.375413e-09	-1.362114e+01	-1.574077e+02
9.700000e-07	-1.731370e-06	-2.366677e-09	-1.349161e+01	-1.567848e+02
9.800000e-07	-1.714634e-06	-2.343757e-09	-1.336119e+01	-1.561558e+02
9.900000e-07	-1.697797e-06	-2.332197e-09	-1.323000e+01	-1.555204e+02
1.000000e-06	-1.680836e-06	-2.333989e-09	-1.309783e+01	-1.548779e+02
1.010000e-06	-1.663751e-06	-2.328320e-09	-1.296470e+01	-1.542279e+02
1.020000e-06	-1.646568e-06	-2.308916e-09	-1.283079e+01	-1.535699e+02
1.030000e-06	-1.629274e-06	-2.294486e-09	-1.269603e+01	-1.529032e+02
1.040000e-06	-1.611942e-06	-2.288937e-09	-1.256097e+01	-1.522272e+02
1.050000e-06	-1.594600e-06	-2.282442e-09	-1.242583e+01	-1.515413e+02
1.060000e-06	-1.577116e-06	-2.267762e-09	-1.228959e+01	-1.508450e+02
1.070000e-06	-1.559500e-06	-2.251467e-09	-1.215232e+01	-1.501375e+02
1.080000e-06	-1.541829e-06	-2.240138e-09	-1.201462e+01	-1.494182e+02
1.090000e-06	-1.524209e-06	-2.235072e-09	-1.187732e+01	-1.486865e+02
1.100000e-06	-1.506514e-06	-2.225615e-09	-1.173943e+01	-1.479419e+02
1.110000e-06	-1.488623e-06	-2.211590e-09	-1.160001e+01	-1.471836e+02
1.120000e-06	-1.470518e-06	-2.197246e-09	-1.145894e+01	-1.464111e+02
1.130000e-06	-1.452238e-06	-2.187497e-09	-1.131649e+01	-1.456238e+02
1.140000e-06	-1.433836e-06	-2.179141e-09	-1.117309e+01	-1.448213e+02
1.150000e-06	-1.415387e-06	-2.165177e-09	-1.102933e+01	-1.440031e+02
1.160000e-06	-1.396925e-06	-2.146878e-09	-1.088547e+01	-1.431686e+02
1.170000e-06	-1.378281e-06	-2.130798e-09	-1.074018e+01	-1.423175e+02
1.180000e-06	-1.359449e-06	-2.118446e-09	-1.059343e+01	-1.414495e+02
1.190000e-06	-1.340525e-06	-2.104002e-09	-1.044597e+01	-1.405641e+02
1.200000e-06	-1.321542e-06	-2.086816e-09	-1.029805e+01	-1.396611e+02
1.210000e-06	-1.302423e-06	-2.072695e-09	-1.014906e+01	-1.387404e+02
1.220000e-06	-1.283225e-06	-2.063283e-09	-9.999462e+00	-1.378017e+02
1.230000e-06	-1.264047e-06	-2.050862e-09	-9.850020e+00	-1.368448e+02
1.240000e-06	-1.244740e-06	-2.035654e-09	-9.699575e+00	-1.358698e+02
1.250000e-06	-1.225309e-06	-2.021285e-09	-9.548158e+00	-1.348766e+02
1.260000e-06	-1.205794e-06	-2.008155e-09	-9.396083e+00	-1.338651e+02
1.270000e-06	-1.186227e-06	-1.993373e-09	-9.243612e+00	-1.328355e+02
1.280000e-06	-1.166657e-06	-1.975503e-09	-9.091115e+00	-1.317878e+02
1.290000e-06	-1.147039e-06	-1.957220e-09	-8.938245e+00	-1.307222e+02
1.300000e-06	-1.127356e-06	-1.943840e-09	-8.784866e+00	-1.296388e+02
1.310000e-06	-1.107657e-06	-1.928949e-09	-8.631362e+00	-1.285377e+02
1.320000e-06	-1.087947e-06	-1.910200e-09	-8.477772e+00	-1.274193e+02
1.330000e-06	-1.068206e-06	-1.891904e-09	-8.323939e+00	-1.262837e+02
1.340000e-06	-1.048438e-06	-1.875809e-09	-8.169901e+00	-1.251311e+02
1.350000e-06	-1.028667e-06	-1.860426e-09	-8.015833e+00	-1.239617e+02
1.360000e-06	-1.008899e-06	-1.844917e-09	-7.861792e+00	-1.227759e+02
1.370000e-06	-9.890957e-07	-1.826014e-09	-7.707476e+00	-1.215739e+02
1.380000e-06	-9.692357e-07	-1.807649e-09	-7.552718e+00	-1.203558e+02
1.390000e-06	-9.492541e-07	-1.792942e-09	-7.397013e+00	-1.191218e+02
1.400000e-06	-9.292387e-07	-1.779961e-09	-7.241044e+00	-1.178722e+02
1.410000e-06	-9.092439e-07	-1.763424e-09	-7.085235e+00	-1.166071e+02
1.420000e-06	-8.892178e-07	-1.743768e-09	-6.929183e+00	-1.153266e+02
1.430000e-06	-8.691295e-07	-1.725879e-09	-6.772646e+00	-1.140308e+02
1.440000e-06	-8.489934e-07	-1.707172e-09	-6.615736e+00	-1.127197e+02
1.450000e-06	-8.288545e-07	-1.684971e-09	-6.458805e+00	-1.113934e+02
1.460000e-06	-8.086557e-07	-1.657982e-09	-6.301407e+00	-1.100517e+02
1.470000e-06	-7.883270e-07	-1.635497e-09	-6.142996e+00	-1.086947e+02
1.480000e-06	-7.678872e-07	-1.618781e-09	-5.983720e+00	-1.073220e+02
1.490000e-06	-7.474456e-07	-1.599846e-09	-5.824431e+00	-1.059336e+02
1.500000e-06	-7.269419e-07	-1.576238e-09	-5.664656e+00	-1.045292e+02
1.510000e-06	-7.064388e-07	-1.551523e-09	-5.504887e+00	-1.031083e+02
1.520000e-06	-6.859040e-07	-1.530190e-09	-5.344871e+00	-1.016707e+02
1.530000e-06	-6.652187e-07	-1.511372e-09	-5.183682e+00	-1.002160e+02
1.540000e-06	-6.444621e-07	-1.492335e-09	-5.021937e+00	-9.874360e+01
1.550000e-06	-6.236079e-07	-1.469866e-09	-4.859431e+00	-9.725302e+01
1.560000e-06	-6.026783e-07	-1.446325e-09	-4.696339e+00	-9.574368e+01
1.570000e-06	-5.816989e-07	-1.424038e-09	-4.532858e+00	-9.421497e+01
1.580000e-06	-5.606988e-07	-1.401309e-09	-4.369216e+00	-9.266624e+01
1.590000e-06	-5.396855e-07	-1.376668e-09	-4.205471e+00	-9.109679e+01
1.600000e-06	-5.186433e-07	-1.349918e-09	-4.041500e+00	-8.950590e+01
1.610000e-06	-4.975797e-07	-1.325062e-09	-3.877364e+00	-8.789285e+01
1.620000e-06	-4.764618e-07	-1.301644e-09	-3.712804e+00	-8.625689e+01
1.630000e-06	-4.552389e-07	-1.276190e-09	-3.547425e+00	-8.459725e+01
1.640000e-06	-4.339489e-07	-1.248437e-09	-3.381524e+00	-8.291318e+01
1.650000e-06	-4.126594e-07	-1.220744e-09	-3.215627e+00	-8.120392e+01
1.660000e-06	-3.913768e-07	-1.193518e-09	-3.049783e+00	-7.946875e+01
1.670000e-06	-3.700955e-07	-1.164468e-09	-2.883950e+00	-7.770695e+01
1.680000e-06	-3.488175e-07	-1.132734e-09	-2.718142e+00	-7.591783e+01
1.690000e-06	-3.275132e-07	-1.103209e-09	-2.552129e+00	-7.410075e+01
1.700000e-06	-3.061359e-07	-1.077472e-09	-2.385548e+00	-7.225510e+01
1.710000e-06	-2.847326e-07	-1.050090e-09	-2.218764e+00	-7.038034e+01
1.720000e-06	-2.633309e-07	-1.020943e-09	-2.051992e+00	-6.847599e+01
1.730000e-06	-2.418705e-07	-9.933227e-10	-1.884763e+00	-6.654161e+01
1.740000e-06	-2.203479e-07	-9.664229e-10	-1.717050e+00	-6.457687e+01
1.750000e-06	-1.988420e-07	-9.370740e-10	-1.549466e+00	-6.258148e+01
1.760000e-06	-1.773302e-07	-9.033772e-10	-1.381836e+00	-6.055528e+01
1.770000e-06	-1.558566e-07	-8.703977e-10	-1.214505e+00	-5.849816e+01
1.780000e-06	-1.343868e-07	-8.405345e-10	-1.047202e+00	-5.641012e+01
1.790000e-06	-1.128825e-07	-8.089721e-10	-8.796307e-01	-5.429127e+01
1.800000e-06	-9.137638e-08	-7.754778e-10	-7.120456e-01	-5.214179e+01
1.810000e-06	-6.984935e-08	-7.412702e-10	-5.442974e-01	-4.996199e+01
1.820000e-06	-4.834946e-08	-7.076132e-10	-3.767606e-01	-4.775227e+01
1.830000e-06	-2.683439e-08	-6.754449e-10	-2.091056e-01	-4.551315e+01
1.840000e-06	-5.288522e-09	-6.424816e-10	-4.121053e-02	-4.324524e+01
1.850000e-06	1.624060e-08	-6.061788e-10	1.265540e-01	-4.094925e+01
1.860000e-06	3.779577e-08	-5.702582e-10	2.945216e-01	-3.862602e+01
1.870000e-06	5.931634e-08	-5.350482e-10	4.622194e-01	-3.627647e+01
1.880000e-06	8.082580e-08	-5.002952e-10	6.298308e-01	-3.390161e+01
1.890000e-06	1.023575e-07	-4.662810e-10	7.976158e-01	-3.150257e+01
1.900000e-06	1.238278e-07	-4.304263e-10	9.649213e-01	-2.908056e+01
1.910000e-06	1.452928e-07	-3.949621e-10	1.132187e+00	-2.663685e+01
1.920000e-06	1.667301e-07	-3.601942e-10	1.299236e+00	-2.417283e+01
1.930000e-06	1.881387e-07	-3.258460e-10	1.466061e+00	-2.168993e+01
1.940000e-06	2.096020e-07	-2.879868e-10	1.633313e+00	-1.918967e+01
1.950000e-06	2.311153e-07	-2.490666e-10	1.800954e+00	-1.667362e+01
1.960000e-06	2.526225e-07	-2.127534e-10	1.968548e+00	-1.414340e+01
1.970000e-06	2.740865e-07	-1.758329e-10	2.135804e+00	-1.160068e+01
1.980000e-06	2.954384e-07	-1.378153e-10	2.302189e+00	-9.047167e+00
1.990000e-06	3.166469e-07	-1.017471e-10	2.467454e+00	-6.484589e+00
2.000000e-06	3.378364e-07	-6.634799e-11	2.632572e+00	-3.914702e+00
2.010000e-06	3.590571e-07	-2.865941e-11	2.797934e+00	-1.339274e+00
2.020000e-06	3.802773e-07	9.782716e-12	2.963291e+00	1.239925e+00
2.030000e-06	4.015127e-07	4.872704e-11	3.128766e+00	3.821127e+00
2.040000e-06	4.227292e-07	8.687708e-11	3.294095e+00	6.402577e+00
2.050000e-06	4.439222e-07	1.224330e-10	3.459241e+00	8.982538e+00
2.060000e-06	4.650913e-07	1.583649e-10	3.624200e+00	1.155930e+01
2.070000e-06	4.861628e-07	1.958533e-10	3.788398e+00	1.413120e+01
2.080000e-06	5.071785e-07	2.310576e-10	3.952162e+00	1.669658e+01
2.090000e-06	5.282179e-07	2.632654e-10	4.116110e+00	1.925387e+01
2.100000e-06	5.492567e-07	2.971565e-10	4.280054e+00	2.180154e+01
2.110000e-06	5.702875e-07	3.329972e-10	4.443936e+00	2.433810e+01
2.120000e-06	5.913082e-07	3.682862e-10	4.607738e+00	2.686214e+01
2.130000e-06	6.121966e-07	4.031616e-10	4.770510e+00	2.937232e+01
2.140000e-06	6.329685e-07	4.372325e-10	4.932374e+00	3.186737e+01
2.150000e-06	6.538126e-07	4.725332e-10	5.094800e+00	3.434607e+01
2.160000e-06	6.746115e-07	5.094532e-10	5.256874e+00	3.680731e+01
2.170000e-06	6.952738e-07	5.444867e-10	5.417885e+00	3.925003e+01
2.180000e-06	7.158223e-07	5.763996e-10	5.578008e+00	4.167328e+01
2.190000e-06	7.362859e-07	6.095149e-10	5.737469e+00	4.407616e+01
2.200000e-06	7.567142e-07	6.461474e-10	5.896656e+00	4.645786e+01
2.210000e-06	7.771210e-07	6.815687e-10	6.055674e+00	4.881766e+01
2.220000e-06	7.974448e-07	7.146170e-10	6.214047e+00	5.115491e+01
2.230000e-06	8.176073e-07	7.504926e-10	6.371162e+00	5.346903e+01
2.240000e-06	8.377413e-07	7.876554e-10	6.528055e+00	5.575953e+01
2.250000e-06	8.579022e-07	8.232416e-10	6.685158e+00	5.802597e+01
2.260000e-06	8.780012e-07	8.541926e-10	6.841778e+00	6.026801e+01
2.270000e-06	8.980254e-07	8.838901e-10	6.997816e+00	6.248534e+01
2.280000e-06	9.179951e-07	9.162204e-10	7.153428e+00	6.467776e+01
2.290000e-06	9.379417e-07	9.509250e-10	7.308861e+00	6.684507e+01
2.300000e-06	9.578711e-07	9.838174e-10	7.464160e+00	6.898718e+01
2.310000e-06	9.777516e-07	1.013567e-09	7.619078e+00	7.110401e+01
2.320000e-06	9.975939e-07	1.046043e-09	7.773698e+00	7.319555e+01
2.330000e-06	1.017418e-06	1.082052e-09	7.928179e+00	7.526181e+01
2.340000e-06	1.037206e-06	1.115398e-09	8.082371e+00	7.730288e+01
2.350000e-06	1.056938e-06	1.145154e-09	8.236137e+00	7.931882e+01
2.360000e-06	1.076633e-06	1.174946e-09	8.389603e+00	8.130978e+01
2.370000e-06	1.096317e-06	1.205710e-09	8.542995e+00	8.327588e+01
2.380000e-06	1.115984e-06	1.237274e-09	8.696246e+00	8.521731e+01
2.390000e-06	1.135579e-06	1.268283e-09	8.848937e+00	8.713423e+01
2.400000e-06	1.155150e-06	1.295457e-09	9.001448e+00	8.902685e+01
2.410000e-06	1.174682e-06	1.321150e-09	9.153650e+00	9.089536e+01
2.420000e-06	1.194180e-06	1.351567e-09	9.305585e+00	9.273998e+01
2.430000e-06	1.213664e-06	1.380637e-09	9.457410e+00	9.456090e+01
2.440000e-06	1.233042e-06	1.406788e-09	9.608415e+00	9.635834e+01
2.450000e-06	1.252344e-06	1.435363e-09	9.758828e+00	9.813250e+01
2.460000e-06	1.271603e-06	1.466598e-09	9.908898e+00	9.988357e+01
2.470000e-06	1.290736e-06	1.494592e-09	1.005799e+01	1.016118e+02
2.480000e-06	1.309752e-06	1.519365e-09	1.020617e+01	1.033172e+02
2.490000e-06	1.328656e-06	1.544247e-09	1.035348e+01	1.050002e+02
2.500000e-06	1.347454e-06	1.569872e-09	1.049996e+01	1.066607e+02
2.510000e-06	1.366069e-06	1.596021e-09	1.064502e+01	1.082991e+02
2.520000e-06	1.384569e-06	1.621578e-09	1.078918e+01	1.099153e+02
2.530000e-06	1.403017e-06	1.647028e-09	1.093293e+01	1.115096e+02
2.540000e-06	1.421270e-06	1.673694e-09	1.107517e+01	1.130820e+02
2.550000e-06	1.439476e-06	1.697633e-09	1.121704e+01	1.146326e+02
2.560000e-06	1.457537e-06	1.719552e-09	1.135778e+01	1.161616e+02
2.570000e-06	1.475359e-06	1.742399e-09	1.149666e+01	1.176689e+02
2.580000e-06	1.493108e-06	1.765202e-09	1.163496e+01	1.191548e+02
2.590000e-06	1.510821e-06	1.785782e-09	1.177299e+01	1.206192e+02
2.600000e-06	1.528459e-06	1.804994e-09	1.191044e+01	1.220622e+02
2.610000e-06	1.545963e-06	1.828257e-09	1.204683e+01	1.234838e+02
2.620000e-06	1.563356e-06	1.852481e-09	1.218237e+01	1.248841e+02
2.630000e-06	1.580745e-06	1.875625e-09	1.231787e+01	1.262631e+02
2.640000e-06	1.598109e-06	1.899714e-09	1.245318e+01	1.276210e+02
2.650000e-06	1.615394e-06	1.923293e-09	1.258787e+01	1.289576e+02
2.660000e-06	1.632535e-06	1.942258e-09	1.272144e+01	1.302731e+02
2.670000e-06	1.649566e-06	1.958704e-09	1.285416e+01	1.315675e+02
2.680000e-06	1.666615e-06	1.974892e-09	1.298701e+01	1.328409e+02
2.690000e-06	1.683591e-06	1.992365e-09	1.311929e+01	1.340933e+02
2.700000e-06	1.700488e-06	2.011181e-09	1.325096e+01	1.353248e+02
2.710000e-06	1.717292e-06	2.028485e-09	1.338191e+01	1.365355e+02
2.720000e-06	1.733904e-06	2.046353e-09	1.351136e+01	1.377254e+02
2.730000e-06	1.750466e-06	2.066924e-09	1.364041e+01	1.388947e+02
2.740000e-06	1.766909e-06	2.085750e-09	1.376854e+01	1.400435e+02
2.750000e-06	1.783145e-06	2.101499e-09	1.389506e+01	1.411719e+02
2.760000e-06	1.799210e-06	2.118796e-09	1.402025e+01	1.422800e+02
2.770000e-06	1.815104e-06	2.135626e-09	1.414410e+01	1.433680e+02
2.780000e-06	1.830880e-06	2.149146e-09	1.426703e+01	1.444360e+02
2.790000e-06	1.846367e-06	2.163542e-09	1.438772e+01	1.454843e+02
2.800000e-06	1.861606e-06	2.181124e-09	1.450647e+01	1.465129e+02
2.810000e-06	1.876656e-06	2.198122e-09	1.462375e+01	1.475222e+02
2.820000e-06	1.891710e-06	2.213550e-09	1.474105e+01	1.485123e+02
2.830000e-06	1.906765e-06	2.228686e-09	1.485837e+01	1.494834e+02
2.840000e-06	1.921391e-06	2.244015e-09	1.497234e+01	1.504359e+02
2.850000e-06	1.935706e-06	2.258411e-09	1.508388e+01	1.513699e+02
2.860000e-06	1.949880e-06	2.270825e-09	1.519433e+01	1.522856e+02
2.870000e-06	1.963905e-06	2.283051e-09	1.530363e+01	1.531835e+02
2.880000e-06	1.977803e-06	2.299211e-09	1.541193e+01	1.540638e+02
2.890000e-06	1.991584e-06	2.316084e-09	1.551932e+01	1.549267e+02
2.900000e-06	2.005281e-06	2.328690e-09	1.562605e+01	1.557725e+02
