# Temperatura_=_20.0
# Concentracion g/m^3_=_9000.0
# C_Vs_to_Am_M_A/Vsm_=_65563218390.804596
# pendiente_HvsI_1/m_=_3716.3
# ordenada_HvsI_A/m_=_1297.0
# frecuencia_Hz_=_134945.08844514875

Tiempo_(s)	Campo_(V.s)	Magnetizacion_(V.s)	Campo_(kA/m)	Magnetizacion_(A/m)
0.000000e+00	-2.539850e-06	-2.789153e-09	-1.983008e+01	-1.876021e+02
1.000000e-08	-2.540148e-06	-2.771756e-09	-1.983241e+01	-1.876015e+02
2.000000e-08	-2.540362e-06	-2.789123e-09	-1.983409e+01	-1.875913e+02
3.000000e-08	-2.540426e-06	-2.876252e-09	-1.983458e+01	-1.875717e+02
4.000000e-08	-2.540329e-06	-2.959912e-09	-1.983382e+01	-1.875431e+02
5.000000e-08	-2.540167e-06	-2.876879e-09	-1.983256e+01	-1.875059e+02
6.000000e-08	-2.539831e-06	-2.786992e-09	-1.982994e+01	-1.874603e+02
7.000000e-08	-2.539308e-06	-2.763221e-09	-1.982586e+01	-1.874069e+02
8.000000e-08	-2.538650e-06	-2.826159e-09	-1.982072e+01	-1.873459e+02
9.000000e-08	-2.537725e-06	-2.887233e-09	-1.981349e+01	-1.872778e+02
1.000000e-07	-2.536646e-06	-2.899324e-09	-1.980507e+01	-1.872029e+02
1.100000e-07	-2.535313e-06	-2.724791e-09	-1.979466e+01	-1.871218e+02
1.200000e-07	-2.533502e-06	-2.809239e-09	-1.978052e+01	-1.870347e+02
1.300000e-07	-2.531237e-06	-2.877580e-09	-1.976284e+01	-1.869422e+02
1.400000e-07	-2.528806e-06	-2.860619e-09	-1.974386e+01	-1.868445e+02
1.500000e-07	-2.526219e-06	-2.775219e-09	-1.972366e+01	-1.867421e+02
1.600000e-07	-2.523324e-06	-2.796461e-09	-1.970106e+01	-1.866354e+02
1.700000e-07	-2.520124e-06	-2.915167e-09	-1.967607e+01	-1.865246e+02
1.800000e-07	-2.516650e-06	-2.958854e-09	-1.964895e+01	-1.864101e+02
1.900000e-07	-2.513046e-06	-2.863927e-09	-1.962081e+01	-1.862923e+02
2.000000e-07	-2.509339e-06	-2.702802e-09	-1.959187e+01	-1.861713e+02
2.100000e-07	-2.505568e-06	-2.827181e-09	-1.956243e+01	-1.860475e+02
2.200000e-07	-2.501732e-06	-2.912724e-09	-1.953248e+01	-1.859211e+02
2.300000e-07	-2.497810e-06	-2.917544e-09	-1.950185e+01	-1.857921e+02
2.400000e-07	-2.493792e-06	-2.708534e-09	-1.947049e+01	-1.856608e+02
2.500000e-07	-2.489654e-06	-2.719614e-09	-1.943818e+01	-1.855273e+02
2.600000e-07	-2.485409e-06	-2.824695e-09	-1.940504e+01	-1.853917e+02
2.700000e-07	-2.480979e-06	-2.941007e-09	-1.937045e+01	-1.852539e+02
2.800000e-07	-2.476363e-06	-2.779786e-09	-1.933441e+01	-1.851139e+02
2.900000e-07	-2.471632e-06	-2.663781e-09	-1.929747e+01	-1.849717e+02
3.000000e-07	-2.466648e-06	-2.749405e-09	-1.925856e+01	-1.848273e+02
3.100000e-07	-2.461388e-06	-2.908224e-09	-1.921749e+01	-1.846804e+02
3.200000e-07	-2.455969e-06	-2.853042e-09	-1.917518e+01	-1.845309e+02
3.300000e-07	-2.450409e-06	-2.685454e-09	-1.913177e+01	-1.843786e+02
3.400000e-07	-2.444626e-06	-2.688844e-09	-1.908661e+01	-1.842232e+02
3.500000e-07	-2.438625e-06	-2.833561e-09	-1.903976e+01	-1.840645e+02
3.600000e-07	-2.432458e-06	-2.896255e-09	-1.899162e+01	-1.839022e+02
3.700000e-07	-2.426208e-06	-2.760190e-09	-1.894282e+01	-1.837359e+02
3.800000e-07	-2.419851e-06	-2.689276e-09	-1.889318e+01	-1.835653e+02
3.900000e-07	-2.413214e-06	-2.759513e-09	-1.884137e+01	-1.833900e+02
4.000000e-07	-2.406538e-06	-2.870011e-09	-1.878924e+01	-1.832097e+02
4.100000e-07	-2.399731e-06	-2.801916e-09	-1.873609e+01	-1.830239e+02
4.200000e-07	-2.392555e-06	-2.702151e-09	-1.868007e+01	-1.828322e+02
4.300000e-07	-2.385297e-06	-2.696962e-09	-1.862340e+01	-1.826342e+02
4.400000e-07	-2.377916e-06	-2.804856e-09	-1.856578e+01	-1.824295e+02
4.500000e-07	-2.370336e-06	-2.805462e-09	-1.850659e+01	-1.822176e+02
4.600000e-07	-2.362678e-06	-2.720602e-09	-1.844680e+01	-1.819982e+02
4.700000e-07	-2.354948e-06	-2.673234e-09	-1.838645e+01	-1.817710e+02
4.800000e-07	-2.347100e-06	-2.755186e-09	-1.832517e+01	-1.815354e+02
4.900000e-07	-2.339143e-06	-2.796090e-09	-1.826305e+01	-1.812911e+02
5.000000e-07	-2.331139e-06	-2.744603e-09	-1.820056e+01	-1.810379e+02
5.100000e-07	-2.322974e-06	-2.675259e-09	-1.813681e+01	-1.807754e+02
5.200000e-07	-2.314643e-06	-2.713966e-09	-1.807177e+01	-1.805032e+02
5.300000e-07	-2.306219e-06	-2.766437e-09	-1.800599e+01	-1.802213e+02
5.400000e-07	-2.297667e-06	-2.748271e-09	-1.793923e+01	-1.799293e+02
5.500000e-07	-2.288877e-06	-2.678088e-09	-1.787059e+01	-1.796271e+02
5.600000e-07	-2.279780e-06	-2.674057e-09	-1.779957e+01	-1.793146e+02
5.700000e-07	-2.270387e-06	-2.725216e-09	-1.772623e+01	-1.789916e+02
5.800000e-07	-2.260716e-06	-2.737614e-09	-1.765072e+01	-1.786581e+02
5.900000e-07	-2.250770e-06	-2.681105e-09	-1.757307e+01	-1.783140e+02
6.000000e-07	-2.240491e-06	-2.646322e-09	-1.749282e+01	-1.779594e+02
6.100000e-07	-2.229971e-06	-2.682202e-09	-1.741068e+01	-1.775943e+02
6.200000e-07	-2.219256e-06	-2.710534e-09	-1.732702e+01	-1.772189e+02
6.300000e-07	-2.208416e-06	-2.675240e-09	-1.724239e+01	-1.768332e+02
6.400000e-07	-2.197363e-06	-2.626670e-09	-1.715609e+01	-1.764374e+02
6.500000e-07	-2.185997e-06	-2.639910e-09	-1.706735e+01	-1.760317e+02
6.600000e-07	-2.174458e-06	-2.668318e-09	-1.697726e+01	-1.756164e+02
6.700000e-07	-2.162761e-06	-2.661003e-09	-1.688593e+01	-1.751916e+02
6.800000e-07	-2.150910e-06	-2.618445e-09	-1.679340e+01	-1.747577e+02
6.900000e-07	-2.138922e-06	-2.611265e-09	-1.669981e+01	-1.743149e+02
7.000000e-07	-2.126802e-06	-2.629875e-09	-1.660518e+01	-1.738636e+02
7.100000e-07	-2.114531e-06	-2.641563e-09	-1.650937e+01	-1.734040e+02
7.200000e-07	-2.102073e-06	-2.610415e-09	-1.641211e+01	-1.729365e+02
7.300000e-07	-2.089443e-06	-2.587371e-09	-1.631350e+01	-1.724614e+02
7.400000e-07	-2.076727e-06	-2.588064e-09	-1.621422e+01	-1.719791e+02
7.500000e-07	-2.063912e-06	-2.605872e-09	-1.611416e+01	-1.714897e+02
7.600000e-07	-2.050859e-06	-2.588395e-09	-1.601225e+01	-1.709938e+02
7.700000e-07	-2.037662e-06	-2.558728e-09	-1.590921e+01	-1.704914e+02
7.800000e-07	-2.024335e-06	-2.550682e-09	-1.580516e+01	-1.699830e+02
7.900000e-07	-2.010799e-06	-2.569151e-09	-1.569948e+01	-1.694687e+02
8.000000e-07	-1.997090e-06	-2.561553e-09	-1.559244e+01	-1.689487e+02
8.100000e-07	-1.983204e-06	-2.533780e-09	-1.548403e+01	-1.684234e+02
8.200000e-07	-1.969157e-06	-2.517298e-09	-1.537435e+01	-1.678927e+02
8.300000e-07	-1.955042e-06	-2.521217e-09	-1.526415e+01	-1.673568e+02
8.400000e-07	-1.940797e-06	-2.517919e-09	-1.515293e+01	-1.668158e+02
8.500000e-07	-1.926349e-06	-2.499752e-09	-1.504013e+01	-1.662697e+02
8.600000e-07	-1.911579e-06	-2.480707e-09	-1.492481e+01	-1.657185e+02
8.700000e-07	-1.896720e-06	-2.475808e-09	-1.480879e+01	-1.651622e+02
8.800000e-07	-1.881783e-06	-2.478546e-09	-1.469217e+01	-1.646006e+02
8.900000e-07	-1.866528e-06	-2.468182e-09	-1.457307e+01	-1.640336e+02
9.000000e-07	-1.851048e-06	-2.449347e-09	-1.445221e+01	-1.634611e+02
9.100000e-07	-1.835360e-06	-2.436636e-09	-1.432972e+01	-1.628827e+02
9.200000e-07	-1.819482e-06	-2.438523e-09	-1.420576e+01	-1.622983e+02
9.300000e-07	-1.803406e-06	-2.433407e-09	-1.408024e+01	-1.617074e+02
9.400000e-07	-1.787160e-06	-2.418999e-09	-1.395340e+01	-1.611099e+02
9.500000e-07	-1.770717e-06	-2.404697e-09	-1.382502e+01	-1.605051e+02
9.600000e-07	-1.754057e-06	-2.401586e-09	-1.369495e+01	-1.598929e+02
9.700000e-07	-1.737373e-06	-2.396687e-09	-1.356468e+01	-1.592726e+02
9.800000e-07	-1.720646e-06	-2.384562e-09	-1.343408e+01	-1.586438e+02
9.900000e-07	-1.703633e-06	-2.369250e-09	-1.330125e+01	-1.580061e+02
1.000000e-06	-1.686647e-06	-2.362885e-09	-1.316864e+01	-1.573589e+02
1.010000e-06	-1.669637e-06	-2.356936e-09	-1.303583e+01	-1.567017e+02
1.020000e-06	-1.652436e-06	-2.348567e-09	-1.290153e+01	-1.560339e+02
1.030000e-06	-1.635188e-06	-2.334358e-09	-1.276686e+01	-1.553551e+02
1.040000e-06	-1.617828e-06	-2.322586e-09	-1.263133e+01	-1.546646e+02
1.050000e-06	-1.600399e-06	-2.310822e-09	-1.249525e+01	-1.539621e+02
1.060000e-06	-1.582859e-06	-2.302665e-09	-1.235830e+01	-1.532469e+02
1.070000e-06	-1.565210e-06	-2.288734e-09	-1.222051e+01	-1.525185e+02
1.080000e-06	-1.547568e-06	-2.271761e-09	-1.208276e+01	-1.517766e+02
1.090000e-06	-1.529910e-06	-2.260338e-09	-1.194490e+01	-1.510206e+02
1.100000e-06	-1.512147e-06	-2.254696e-09	-1.180621e+01	-1.502501e+02
1.110000e-06	-1.494285e-06	-2.244464e-09	-1.166676e+01	-1.494648e+02
1.120000e-06	-1.476370e-06	-2.230742e-09	-1.152688e+01	-1.486642e+02
1.130000e-06	-1.458428e-06	-2.217181e-09	-1.138680e+01	-1.478480e+02
1.140000e-06	-1.440432e-06	-2.208688e-09	-1.124629e+01	-1.470161e+02
1.150000e-06	-1.422200e-06	-2.196749e-09	-1.110394e+01	-1.461681e+02
1.160000e-06	-1.403780e-06	-2.178378e-09	-1.096013e+01	-1.453038e+02
1.170000e-06	-1.385281e-06	-2.158806e-09	-1.081569e+01	-1.444232e+02
1.180000e-06	-1.366617e-06	-2.144350e-09	-1.066998e+01	-1.435261e+02
1.190000e-06	-1.347862e-06	-2.131845e-09	-1.052354e+01	-1.426124e+02
1.200000e-06	-1.329021e-06	-2.116692e-09	-1.037644e+01	-1.416821e+02
1.210000e-06	-1.310018e-06	-2.100032e-09	-1.022807e+01	-1.407354e+02
1.220000e-06	-1.291018e-06	-2.084476e-09	-1.007973e+01	-1.397721e+02
1.230000e-06	-1.271928e-06	-2.074230e-09	-9.930681e+00	-1.387925e+02
1.240000e-06	-1.252613e-06	-2.060536e-09	-9.779879e+00	-1.377966e+02
1.250000e-06	-1.233261e-06	-2.043717e-09	-9.628783e+00	-1.367847e+02
1.260000e-06	-1.213793e-06	-2.023758e-09	-9.476791e+00	-1.357569e+02
1.270000e-06	-1.194147e-06	-2.010428e-09	-9.323402e+00	-1.347135e+02
1.280000e-06	-1.174504e-06	-1.997053e-09	-9.170039e+00	-1.336547e+02
1.290000e-06	-1.154907e-06	-1.981748e-09	-9.017028e+00	-1.325808e+02
1.300000e-06	-1.135231e-06	-1.963137e-09	-8.863412e+00	-1.314919e+02
1.310000e-06	-1.115487e-06	-1.949464e-09	-8.709255e+00	-1.303884e+02
1.320000e-06	-1.095727e-06	-1.937634e-09	-8.554981e+00	-1.292706e+02
1.330000e-06	-1.075915e-06	-1.922243e-09	-8.400297e+00	-1.281386e+02
1.340000e-06	-1.056080e-06	-1.901146e-09	-8.245427e+00	-1.269928e+02
1.350000e-06	-1.036234e-06	-1.885262e-09	-8.090478e+00	-1.258333e+02
1.360000e-06	-1.016372e-06	-1.873399e-09	-7.935410e+00	-1.246603e+02
1.370000e-06	-9.965171e-07	-1.857805e-09	-7.780389e+00	-1.234740e+02
1.380000e-06	-9.765988e-07	-1.836304e-09	-7.624875e+00	-1.222746e+02
1.390000e-06	-9.566587e-07	-1.816559e-09	-7.469191e+00	-1.210621e+02
1.400000e-06	-9.367384e-07	-1.801885e-09	-7.313662e+00	-1.198365e+02
1.410000e-06	-9.167447e-07	-1.788832e-09	-7.157559e+00	-1.185979e+02
1.420000e-06	-8.967303e-07	-1.776598e-09	-7.001295e+00	-1.173462e+02
1.430000e-06	-8.767274e-07	-1.759220e-09	-6.845121e+00	-1.160813e+02
1.440000e-06	-8.566415e-07	-1.738978e-09	-6.688299e+00	-1.148030e+02
1.450000e-06	-8.364891e-07	-1.719104e-09	-6.530957e+00	-1.135112e+02
1.460000e-06	-8.163007e-07	-1.696430e-09	-6.373335e+00	-1.122055e+02
1.470000e-06	-7.960687e-07	-1.671063e-09	-6.215371e+00	-1.108856e+02
1.480000e-06	-7.757738e-07	-1.653604e-09	-6.056917e+00	-1.095510e+02
1.490000e-06	-7.554275e-07	-1.640009e-09	-5.898062e+00	-1.082014e+02
1.500000e-06	-7.350719e-07	-1.617575e-09	-5.739134e+00	-1.068362e+02
1.510000e-06	-7.145972e-07	-1.588962e-09	-5.579276e+00	-1.054548e+02
1.520000e-06	-6.939522e-07	-1.566363e-09	-5.418089e+00	-1.040566e+02
1.530000e-06	-6.732434e-07	-1.545417e-09	-5.256403e+00	-1.026409e+02
1.540000e-06	-6.524869e-07	-1.524279e-09	-5.094345e+00	-1.012070e+02
1.550000e-06	-6.317664e-07	-1.503700e-09	-4.932568e+00	-9.975413e+01
1.560000e-06	-6.110278e-07	-1.483291e-09	-4.770650e+00	-9.828149e+01
1.570000e-06	-5.901984e-07	-1.457479e-09	-4.608022e+00	-9.678825e+01
1.580000e-06	-5.693156e-07	-1.432878e-09	-4.444978e+00	-9.527355e+01
1.590000e-06	-5.483644e-07	-1.411194e-09	-4.281400e+00	-9.373651e+01
1.600000e-06	-5.274774e-07	-1.387642e-09	-4.118323e+00	-9.217626e+01
1.610000e-06	-5.065912e-07	-1.364540e-09	-3.955252e+00	-9.059190e+01
1.620000e-06	-4.855607e-07	-1.342800e-09	-3.791055e+00	-8.898256e+01
1.630000e-06	-4.644343e-07	-1.318706e-09	-3.626109e+00	-8.734737e+01
1.640000e-06	-4.433381e-07	-1.292136e-09	-3.461398e+00	-8.568547e+01
1.650000e-06	-4.222684e-07	-1.266320e-09	-3.296895e+00	-8.399605e+01
1.660000e-06	-4.011654e-07	-1.238822e-09	-3.132132e+00	-8.227831e+01
1.670000e-06	-3.799783e-07	-1.209407e-09	-2.966712e+00	-8.053152e+01
1.680000e-06	-3.586285e-07	-1.179792e-09	-2.800021e+00	-7.875498e+01
1.690000e-06	-3.373118e-07	-1.151948e-09	-2.633589e+00	-7.694806e+01
1.700000e-06	-3.160342e-07	-1.126593e-09	-2.467463e+00	-7.511018e+01
1.710000e-06	-2.946737e-07	-1.101520e-09	-2.300689e+00	-7.324086e+01
1.720000e-06	-2.732345e-07	-1.071122e-09	-2.133301e+00	-7.133967e+01
1.730000e-06	-2.517260e-07	-1.042360e-09	-1.965371e+00	-6.940627e+01
1.740000e-06	-2.302456e-07	-1.016968e-09	-1.797661e+00	-6.744042e+01
1.750000e-06	-2.087915e-07	-9.873962e-10	-1.630157e+00	-6.544197e+01
1.760000e-06	-1.873077e-07	-9.503756e-10	-1.462420e+00	-6.341085e+01
1.770000e-06	-1.658287e-07	-9.146975e-10	-1.294721e+00	-6.134711e+01
1.780000e-06	-1.443946e-07	-8.856188e-10	-1.127372e+00	-5.925089e+01
1.790000e-06	-1.229973e-07	-8.551985e-10	-9.603113e-01	-5.712246e+01
1.800000e-06	-1.015383e-07	-8.217429e-10	-7.927684e-01	-5.496217e+01
1.810000e-06	-8.000189e-08	-7.876846e-10	-6.246213e-01	-5.277047e+01
1.820000e-06	-5.850555e-08	-7.560022e-10	-4.567869e-01	-5.054795e+01
1.830000e-06	-3.703213e-08	-7.267628e-10	-2.891314e-01	-4.829529e+01
1.840000e-06	-1.559845e-08	-6.953797e-10	-1.217861e-01	-4.601325e+01
1.850000e-06	5.785755e-09	-6.595595e-10	4.517276e-02	-4.370273e+01
1.860000e-06	2.726294e-08	-6.246856e-10	2.128576e-01	-4.136470e+01
1.870000e-06	4.879660e-08	-5.919870e-10	3.809834e-01	-3.900023e+01
1.880000e-06	7.034824e-08	-5.589187e-10	5.492497e-01	-3.661049e+01
1.890000e-06	9.189260e-08	-5.235413e-10	7.174590e-01	-3.419673e+01
1.900000e-06	1.133977e-07	-4.881413e-10	8.853617e-01	-3.176027e+01
1.910000e-06	1.349568e-07	-4.530104e-10	1.053686e+00	-2.930250e+01
1.920000e-06	1.564795e-07	-4.183064e-10	1.221727e+00	-2.682491e+01
1.930000e-06	1.779157e-07	-3.819077e-10	1.389091e+00	-2.432900e+01
1.940000e-06	1.993283e-07	-3.455722e-10	1.556272e+00	-2.181635e+01
1.950000e-06	2.207424e-07	-3.096629e-10	1.723464e+00	-1.928860e+01
1.960000e-06	2.421922e-07	-2.731671e-10	1.890935e+00	-1.674739e+01
1.970000e-06	2.636698e-07	-2.370192e-10	2.058623e+00	-1.419441e+01
1.980000e-06	2.850732e-07	-1.995230e-10	2.225733e+00	-1.163137e+01
1.990000e-06	3.064447e-07	-1.624324e-10	2.392592e+00	-9.060000e+00
2.000000e-06	3.277928e-07	-1.264657e-10	2.559269e+00	-6.482015e+00
2.010000e-06	3.490162e-07	-9.018657e-11	2.724973e+00	-3.899147e+00
2.020000e-06	3.702521e-07	-5.089428e-11	2.890774e+00	-1.313109e+00
2.030000e-06	3.915173e-07	-1.090477e-11	3.056803e+00	1.274400e+00
2.040000e-06	4.126935e-07	2.716835e-11	3.222138e+00	3.861705e+00
2.050000e-06	4.338332e-07	6.352323e-11	3.387188e+00	6.447161e+00
2.060000e-06	4.549768e-07	1.005748e-10	3.552269e+00	9.029163e+00
2.070000e-06	4.761099e-07	1.383690e-10	3.717267e+00	1.160615e+01
2.080000e-06	4.971979e-07	1.753124e-10	3.881913e+00	1.417659e+01
2.090000e-06	5.182119e-07	2.098321e-10	4.045982e+00	1.673904e+01
2.100000e-06	5.391953e-07	2.451007e-10	4.209811e+00	1.929208e+01
2.110000e-06	5.600656e-07	2.811500e-10	4.372758e+00	2.183437e+01
2.120000e-06	5.807786e-07	3.180671e-10	4.534477e+00	2.436463e+01
2.130000e-06	6.013950e-07	3.539824e-10	4.695440e+00	2.688165e+01
2.140000e-06	6.220772e-07	3.870936e-10	4.856919e+00	2.938428e+01
2.150000e-06	6.428095e-07	4.214012e-10	5.018788e+00	3.187144e+01
2.160000e-06	6.633586e-07	4.585370e-10	5.179227e+00	3.434214e+01
2.170000e-06	6.838940e-07	4.948724e-10	5.339559e+00	3.679545e+01
2.180000e-06	7.044314e-07	5.299407e-10	5.499906e+00	3.923051e+01
2.190000e-06	7.248883e-07	5.650957e-10	5.659625e+00	4.164653e+01
2.200000e-06	7.453019e-07	5.980768e-10	5.819006e+00	4.404279e+01
2.210000e-06	7.656509e-07	6.335054e-10	5.977882e+00	4.641866e+01
2.220000e-06	7.859779e-07	6.700049e-10	6.136587e+00	4.877354e+01
2.230000e-06	8.062022e-07	7.030846e-10	6.294490e+00	5.110693e+01
2.240000e-06	8.263308e-07	7.360317e-10	6.451645e+00	5.341837e+01
2.250000e-06	8.464551e-07	7.728601e-10	6.608767e+00	5.570746e+01
2.260000e-06	8.665051e-07	8.106474e-10	6.765309e+00	5.797387e+01
2.270000e-06	8.864969e-07	8.431968e-10	6.921397e+00	6.021731e+01
2.280000e-06	9.065035e-07	8.748359e-10	7.077600e+00	6.243754e+01
2.290000e-06	9.264614e-07	9.103869e-10	7.233423e+00	6.463437e+01
2.300000e-06	9.463626e-07	9.456809e-10	7.388803e+00	6.680764e+01
2.310000e-06	9.662746e-07	9.760614e-10	7.544268e+00	6.895723e+01
2.320000e-06	9.861549e-07	1.004180e-09	7.699485e+00	7.108307e+01
2.330000e-06	1.005998e-06	1.037789e-09	7.854412e+00	7.318510e+01
2.340000e-06	1.025836e-06	1.074075e-09	8.009296e+00	7.526329e+01
2.350000e-06	1.045626e-06	1.106617e-09	8.163813e+00	7.731764e+01
2.360000e-06	1.065372e-06	1.135074e-09	8.317980e+00	7.934814e+01
2.370000e-06	1.085127e-06	1.163745e-09	8.472217e+00	8.135484e+01
2.380000e-06	1.104894e-06	1.193335e-09	8.626547e+00	8.333777e+01
2.390000e-06	1.124639e-06	1.225744e-09	8.780714e+00	8.529697e+01
2.400000e-06	1.144326e-06	1.257510e-09	8.934416e+00	8.723250e+01
2.410000e-06	1.163931e-06	1.283373e-09	9.087486e+00	8.914441e+01
2.420000e-06	1.183441e-06	1.308958e-09	9.239814e+00	9.103276e+01
2.430000e-06	1.202872e-06	1.341304e-09	9.391520e+00	9.289761e+01
2.440000e-06	1.222235e-06	1.372375e-09	9.542700e+00	9.473903e+01
2.450000e-06	1.241552e-06	1.399595e-09	9.693518e+00	9.655705e+01
2.460000e-06	1.260858e-06	1.426637e-09	9.844254e+00	9.835173e+01
2.470000e-06	1.280059e-06	1.455390e-09	9.994165e+00	1.001231e+02
2.480000e-06	1.299097e-06	1.483102e-09	1.014281e+01	1.018712e+02
2.490000e-06	1.318130e-06	1.506824e-09	1.029140e+01	1.035962e+02
2.500000e-06	1.337129e-06	1.531955e-09	1.043975e+01	1.052979e+02
2.510000e-06	1.355905e-06	1.561483e-09	1.058634e+01	1.069765e+02
2.520000e-06	1.374427e-06	1.589724e-09	1.073095e+01	1.086319e+02
2.530000e-06	1.392864e-06	1.613221e-09	1.087490e+01	1.102642e+02
2.540000e-06	1.411198e-06	1.639282e-09	1.101804e+01	1.118734e+02
2.550000e-06	1.429363e-06	1.664340e-09	1.115987e+01	1.134595e+02
2.560000e-06	1.447408e-06	1.684442e-09	1.130075e+01	1.150226e+02
2.570000e-06	1.465377e-06	1.705861e-09	1.144105e+01	1.165626e+02
2.580000e-06	1.483294e-06	1.730146e-09	1.158094e+01	1.180796e+02
2.590000e-06	1.501056e-06	1.752329e-09	1.171962e+01	1.195736e+02
2.600000e-06	1.518689e-06	1.774500e-09	1.185729e+01	1.210446e+02
2.610000e-06	1.536216e-06	1.798577e-09	1.199413e+01	1.224926e+02
2.620000e-06	1.553722e-06	1.822921e-09	1.213081e+01	1.239178e+02
2.630000e-06	1.571227e-06	1.844522e-09	1.226748e+01	1.253201e+02
2.640000e-06	1.588597e-06	1.863577e-09	1.240310e+01	1.266997e+02
2.650000e-06	1.605845e-06	1.880713e-09	1.253777e+01	1.280566e+02
2.660000e-06	1.623087e-06	1.900279e-09	1.267239e+01	1.293908e+02
2.670000e-06	1.640295e-06	1.919971e-09	1.280674e+01	1.307026e+02
2.680000e-06	1.657426e-06	1.937758e-09	1.294049e+01	1.319919e+02
2.690000e-06	1.674503e-06	1.954801e-09	1.307382e+01	1.332590e+02
2.700000e-06	1.691477e-06	1.974882e-09	1.320634e+01	1.345041e+02
2.710000e-06	1.708250e-06	1.995800e-09	1.333730e+01	1.357271e+02
2.720000e-06	1.724994e-06	2.013402e-09	1.346803e+01	1.369284e+02
2.730000e-06	1.741621e-06	2.033001e-09	1.359785e+01	1.381082e+02
2.740000e-06	1.758052e-06	2.052906e-09	1.372613e+01	1.392666e+02
2.750000e-06	1.774500e-06	2.071769e-09	1.385456e+01	1.404038e+02
2.760000e-06	1.790867e-06	2.090718e-09	1.398234e+01	1.415202e+02
2.770000e-06	1.806902e-06	2.107461e-09	1.410753e+01	1.426160e+02
2.780000e-06	1.822566e-06	2.121799e-09	1.422983e+01	1.436914e+02
2.790000e-06	1.838048e-06	2.138153e-09	1.435071e+01	1.447467e+02
2.800000e-06	1.853491e-06	2.156399e-09	1.447129e+01	1.457822e+02
2.810000e-06	1.868738e-06	2.173155e-09	1.459033e+01	1.467983e+02
2.820000e-06	1.883637e-06	2.190273e-09	1.470665e+01	1.477952e+02
2.830000e-06	1.898317e-06	2.209620e-09	1.482126e+01	1.487733e+02
2.840000e-06	1.912852e-06	2.228664e-09	1.493475e+01	1.497328e+02
2.850000e-06	1.927269e-06	2.246390e-09	1.504731e+01	1.506742e+02
2.860000e-06	1.941551e-06	2.259671e-09	1.515882e+01	1.515978e+02
2.870000e-06	1.955640e-06	2.271767e-09	1.526882e+01	1.525039e+02
2.880000e-06	1.969586e-06	2.285393e-09	1.537770e+01	1.533928e+02
2.890000e-06	1.983526e-06	2.298922e-09	1.548654e+01	1.542649e+02
2.900000e-06	1.997239e-06	2.311485e-09	1.559361e+01	1.551206e+02
