# Temperatura_=_20.0
# Concentracion g/m^3_=_9000.0
# C_Vs_to_Am_M_A/Vsm_=_65563218390.804596
# pendiente_HvsI_1/m_=_3716.3
# ordenada_HvsI_A/m_=_1297.0
# frecuencia_Hz_=_134939.66854125835

Tiempo_(s)	Campo_(V.s)	Magnetizacion_(V.s)	Campo_(kA/m)	Magnetizacion_(A/m)
0.000000e+00	-2.541375e-06	-2.835062e-09	-1.981955e+01	-1.890519e+02
1.000000e-08	-2.541755e-06	-2.817265e-09	-1.982252e+01	-1.890763e+02
2.000000e-08	-2.542061e-06	-2.814011e-09	-1.982490e+01	-1.890925e+02
3.000000e-08	-2.542276e-06	-2.869572e-09	-1.982658e+01	-1.891007e+02
4.000000e-08	-2.542249e-06	-2.945320e-09	-1.982636e+01	-1.891011e+02
5.000000e-08	-2.542115e-06	-2.968967e-09	-1.982532e+01	-1.890937e+02
6.000000e-08	-2.541981e-06	-2.938588e-09	-1.982428e+01	-1.890787e+02
7.000000e-08	-2.541591e-06	-2.901113e-09	-1.982124e+01	-1.890564e+02
8.000000e-08	-2.540900e-06	-2.876134e-09	-1.981585e+01	-1.890268e+02
9.000000e-08	-2.539990e-06	-2.761181e-09	-1.980875e+01	-1.889902e+02
1.000000e-07	-2.538924e-06	-2.762334e-09	-1.980044e+01	-1.889467e+02
1.100000e-07	-2.537563e-06	-2.791336e-09	-1.978982e+01	-1.888966e+02
1.200000e-07	-2.535784e-06	-2.939974e-09	-1.977595e+01	-1.888400e+02
1.300000e-07	-2.533676e-06	-2.996322e-09	-1.975951e+01	-1.887771e+02
1.400000e-07	-2.531267e-06	-2.937830e-09	-1.974072e+01	-1.887081e+02
1.500000e-07	-2.528528e-06	-2.795218e-09	-1.971936e+01	-1.886332e+02
1.600000e-07	-2.525545e-06	-2.816066e-09	-1.969609e+01	-1.885525e+02
1.700000e-07	-2.522376e-06	-2.942185e-09	-1.967138e+01	-1.884664e+02
1.800000e-07	-2.519056e-06	-2.959229e-09	-1.964549e+01	-1.883748e+02
1.900000e-07	-2.515693e-06	-2.867385e-09	-1.961926e+01	-1.882781e+02
2.000000e-07	-2.512218e-06	-2.791886e-09	-1.959217e+01	-1.881763e+02
2.100000e-07	-2.508599e-06	-2.895307e-09	-1.956394e+01	-1.880696e+02
2.200000e-07	-2.504845e-06	-2.900221e-09	-1.953467e+01	-1.879581e+02
2.300000e-07	-2.500971e-06	-2.823123e-09	-1.950445e+01	-1.878419e+02
2.400000e-07	-2.497055e-06	-2.703776e-09	-1.947391e+01	-1.877211e+02
2.500000e-07	-2.493062e-06	-2.824190e-09	-1.944277e+01	-1.875958e+02
2.600000e-07	-2.488834e-06	-2.919531e-09	-1.940980e+01	-1.874660e+02
2.700000e-07	-2.484416e-06	-2.887824e-09	-1.937534e+01	-1.873318e+02
2.800000e-07	-2.479863e-06	-2.737914e-09	-1.933984e+01	-1.871932e+02
2.900000e-07	-2.475175e-06	-2.753530e-09	-1.930327e+01	-1.870501e+02
3.000000e-07	-2.470283e-06	-2.888136e-09	-1.926512e+01	-1.869026e+02
3.100000e-07	-2.465107e-06	-2.938260e-09	-1.922476e+01	-1.867506e+02
3.200000e-07	-2.459711e-06	-2.781649e-09	-1.918267e+01	-1.865940e+02
3.300000e-07	-2.454143e-06	-2.672032e-09	-1.913925e+01	-1.864326e+02
3.400000e-07	-2.448452e-06	-2.793654e-09	-1.909487e+01	-1.862665e+02
3.500000e-07	-2.442685e-06	-2.940380e-09	-1.904990e+01	-1.860954e+02
3.600000e-07	-2.436762e-06	-2.860921e-09	-1.900370e+01	-1.859191e+02
3.700000e-07	-2.430562e-06	-2.689442e-09	-1.895535e+01	-1.857376e+02
3.800000e-07	-2.424202e-06	-2.738987e-09	-1.890575e+01	-1.855505e+02
3.900000e-07	-2.417692e-06	-2.900176e-09	-1.885498e+01	-1.853577e+02
4.000000e-07	-2.410960e-06	-2.899008e-09	-1.880248e+01	-1.851590e+02
4.100000e-07	-2.404052e-06	-2.724347e-09	-1.874861e+01	-1.849541e+02
4.200000e-07	-2.396946e-06	-2.683205e-09	-1.869319e+01	-1.847427e+02
4.300000e-07	-2.389666e-06	-2.801837e-09	-1.863641e+01	-1.845247e+02
4.400000e-07	-2.382284e-06	-2.871359e-09	-1.857884e+01	-1.842996e+02
4.500000e-07	-2.374790e-06	-2.761638e-09	-1.852040e+01	-1.840674e+02
4.600000e-07	-2.367172e-06	-2.673341e-09	-1.846098e+01	-1.838277e+02
4.700000e-07	-2.359465e-06	-2.731136e-09	-1.840088e+01	-1.835802e+02
4.800000e-07	-2.351711e-06	-2.841615e-09	-1.834041e+01	-1.833248e+02
4.900000e-07	-2.343835e-06	-2.810820e-09	-1.827899e+01	-1.830611e+02
5.000000e-07	-2.335895e-06	-2.706582e-09	-1.821706e+01	-1.827890e+02
5.100000e-07	-2.327876e-06	-2.690511e-09	-1.815453e+01	-1.825082e+02
5.200000e-07	-2.319680e-06	-2.784821e-09	-1.809060e+01	-1.822185e+02
5.300000e-07	-2.311296e-06	-2.806869e-09	-1.802522e+01	-1.819198e+02
5.400000e-07	-2.302640e-06	-2.721141e-09	-1.795772e+01	-1.816118e+02
5.500000e-07	-2.293617e-06	-2.665553e-09	-1.788735e+01	-1.812945e+02
5.600000e-07	-2.284248e-06	-2.729684e-09	-1.781428e+01	-1.809678e+02
5.700000e-07	-2.274636e-06	-2.788061e-09	-1.773932e+01	-1.806315e+02
5.800000e-07	-2.264777e-06	-2.742637e-09	-1.766243e+01	-1.802856e+02
5.900000e-07	-2.254677e-06	-2.668245e-09	-1.758366e+01	-1.799301e+02
6.000000e-07	-2.244406e-06	-2.682474e-09	-1.750356e+01	-1.795649e+02
6.100000e-07	-2.233869e-06	-2.743455e-09	-1.742139e+01	-1.791901e+02
6.200000e-07	-2.223100e-06	-2.735830e-09	-1.733740e+01	-1.788057e+02
6.300000e-07	-2.212053e-06	-2.664296e-09	-1.725125e+01	-1.784119e+02
6.400000e-07	-2.200738e-06	-2.638780e-09	-1.716301e+01	-1.780086e+02
6.500000e-07	-2.189389e-06	-2.688646e-09	-1.707450e+01	-1.775961e+02
6.600000e-07	-2.177934e-06	-2.710099e-09	-1.698517e+01	-1.771745e+02
6.700000e-07	-2.166304e-06	-2.659996e-09	-1.689447e+01	-1.767440e+02
6.800000e-07	-2.154518e-06	-2.617063e-09	-1.680255e+01	-1.763047e+02
6.900000e-07	-2.142593e-06	-2.648086e-09	-1.670955e+01	-1.758569e+02
7.000000e-07	-2.130555e-06	-2.681926e-09	-1.661567e+01	-1.754008e+02
7.100000e-07	-2.118420e-06	-2.655637e-09	-1.652103e+01	-1.749366e+02
7.200000e-07	-2.106148e-06	-2.607506e-09	-1.642533e+01	-1.744647e+02
7.300000e-07	-2.093678e-06	-2.610360e-09	-1.632807e+01	-1.739851e+02
7.400000e-07	-2.081078e-06	-2.634109e-09	-1.622981e+01	-1.734982e+02
7.500000e-07	-2.068304e-06	-2.629174e-09	-1.613019e+01	-1.730043e+02
7.600000e-07	-2.055270e-06	-2.591414e-09	-1.602854e+01	-1.725035e+02
7.700000e-07	-2.041976e-06	-2.574440e-09	-1.592486e+01	-1.719962e+02
7.800000e-07	-2.028489e-06	-2.588356e-09	-1.581968e+01	-1.714825e+02
7.900000e-07	-2.014968e-06	-2.599474e-09	-1.571424e+01	-1.709626e+02
8.000000e-07	-2.001308e-06	-2.573791e-09	-1.560770e+01	-1.704368e+02
8.100000e-07	-1.987502e-06	-2.542913e-09	-1.550003e+01	-1.699052e+02
8.200000e-07	-1.973590e-06	-2.540589e-09	-1.539154e+01	-1.693680e+02
8.300000e-07	-1.959495e-06	-2.556590e-09	-1.528161e+01	-1.688252e+02
8.400000e-07	-1.945267e-06	-2.543404e-09	-1.517065e+01	-1.682770e+02
8.500000e-07	-1.930969e-06	-2.507849e-09	-1.505915e+01	-1.677233e+02
8.600000e-07	-1.916414e-06	-2.495736e-09	-1.494563e+01	-1.671643e+02
8.700000e-07	-1.901492e-06	-2.509345e-09	-1.482926e+01	-1.665999e+02
8.800000e-07	-1.886358e-06	-2.504218e-09	-1.471123e+01	-1.660301e+02
8.900000e-07	-1.871125e-06	-2.474791e-09	-1.459244e+01	-1.654546e+02
9.000000e-07	-1.855613e-06	-2.459144e-09	-1.447146e+01	-1.648736e+02
9.100000e-07	-1.839755e-06	-2.464744e-09	-1.434779e+01	-1.642866e+02
9.200000e-07	-1.823817e-06	-2.464064e-09	-1.422349e+01	-1.636936e+02
9.300000e-07	-1.807711e-06	-2.444826e-09	-1.409789e+01	-1.630943e+02
9.400000e-07	-1.791499e-06	-2.426473e-09	-1.397146e+01	-1.624884e+02
9.500000e-07	-1.775164e-06	-2.423571e-09	-1.384406e+01	-1.618756e+02
9.600000e-07	-1.758624e-06	-2.429012e-09	-1.371507e+01	-1.612556e+02
9.700000e-07	-1.741912e-06	-2.419428e-09	-1.358474e+01	-1.606279e+02
9.800000e-07	-1.724981e-06	-2.397829e-09	-1.345270e+01	-1.599922e+02
9.900000e-07	-1.708063e-06	-2.386734e-09	-1.332076e+01	-1.593480e+02
1.000000e-06	-1.691186e-06	-2.390888e-09	-1.318914e+01	-1.586948e+02
1.010000e-06	-1.674201e-06	-2.385676e-09	-1.305668e+01	-1.580323e+02
1.020000e-06	-1.657070e-06	-2.365605e-09	-1.292307e+01	-1.573598e+02
1.030000e-06	-1.639902e-06	-2.348302e-09	-1.278919e+01	-1.566770e+02
1.040000e-06	-1.622601e-06	-2.347142e-09	-1.265426e+01	-1.559833e+02
1.050000e-06	-1.605124e-06	-2.344484e-09	-1.251796e+01	-1.552782e+02
1.060000e-06	-1.587700e-06	-2.328395e-09	-1.238208e+01	-1.545612e+02
1.070000e-06	-1.570201e-06	-2.307095e-09	-1.224561e+01	-1.538318e+02
1.080000e-06	-1.552511e-06	-2.298439e-09	-1.210765e+01	-1.530895e+02
1.090000e-06	-1.534809e-06	-2.294285e-09	-1.196960e+01	-1.523338e+02
1.100000e-06	-1.517087e-06	-2.282710e-09	-1.183138e+01	-1.515644e+02
1.110000e-06	-1.499266e-06	-2.262821e-09	-1.169240e+01	-1.507806e+02
1.120000e-06	-1.481353e-06	-2.248946e-09	-1.155270e+01	-1.499823e+02
1.130000e-06	-1.463307e-06	-2.244576e-09	-1.141196e+01	-1.491688e+02
1.140000e-06	-1.445148e-06	-2.238258e-09	-1.127035e+01	-1.483400e+02
1.150000e-06	-1.426881e-06	-2.220756e-09	-1.112789e+01	-1.474955e+02
1.160000e-06	-1.408523e-06	-2.203113e-09	-1.098472e+01	-1.466350e+02
1.170000e-06	-1.389974e-06	-2.191242e-09	-1.084006e+01	-1.457583e+02
1.180000e-06	-1.371218e-06	-2.179285e-09	-1.069379e+01	-1.448651e+02
1.190000e-06	-1.352415e-06	-2.161094e-09	-1.054715e+01	-1.439553e+02
1.200000e-06	-1.333527e-06	-2.140979e-09	-1.039984e+01	-1.430287e+02
1.210000e-06	-1.314502e-06	-2.129451e-09	-1.025147e+01	-1.420853e+02
1.220000e-06	-1.295400e-06	-2.120600e-09	-1.010250e+01	-1.411250e+02
1.230000e-06	-1.276204e-06	-2.108395e-09	-9.952799e+00	-1.401478e+02
1.240000e-06	-1.256918e-06	-2.089504e-09	-9.802394e+00	-1.391537e+02
1.250000e-06	-1.237520e-06	-2.072152e-09	-9.651106e+00	-1.381428e+02
1.260000e-06	-1.218067e-06	-2.060296e-09	-9.499402e+00	-1.371151e+02
1.270000e-06	-1.198632e-06	-2.048084e-09	-9.347836e+00	-1.360707e+02
1.280000e-06	-1.179124e-06	-2.028315e-09	-9.195696e+00	-1.350098e+02
1.290000e-06	-1.159566e-06	-2.011195e-09	-9.043163e+00	-1.339325e+02
1.300000e-06	-1.139984e-06	-1.999545e-09	-8.890450e+00	-1.328391e+02
1.310000e-06	-1.120359e-06	-1.988284e-09	-8.737400e+00	-1.317296e+02
1.320000e-06	-1.100705e-06	-1.970621e-09	-8.584121e+00	-1.306042e+02
1.330000e-06	-1.081023e-06	-1.950830e-09	-8.430626e+00	-1.294632e+02
1.340000e-06	-1.061319e-06	-1.931301e-09	-8.276964e+00	-1.283068e+02
1.350000e-06	-1.041614e-06	-1.915621e-09	-8.123289e+00	-1.271351e+02
1.360000e-06	-1.021897e-06	-1.901285e-09	-7.969522e+00	-1.259482e+02
1.370000e-06	-1.002135e-06	-1.883931e-09	-7.815404e+00	-1.247465e+02
1.380000e-06	-9.823120e-07	-1.865541e-09	-7.660807e+00	-1.235299e+02
1.390000e-06	-9.624777e-07	-1.848968e-09	-7.506124e+00	-1.222985e+02
1.400000e-06	-9.426038e-07	-1.833519e-09	-7.351132e+00	-1.210526e+02
1.410000e-06	-9.226602e-07	-1.816820e-09	-7.195597e+00	-1.197920e+02
1.420000e-06	-9.027039e-07	-1.801154e-09	-7.039963e+00	-1.185169e+02
1.430000e-06	-8.826585e-07	-1.784532e-09	-6.883634e+00	-1.172272e+02
1.440000e-06	-8.625821e-07	-1.763867e-09	-6.727063e+00	-1.159227e+02
1.450000e-06	-8.425002e-07	-1.740494e-09	-6.570449e+00	-1.146034e+02
1.460000e-06	-8.223497e-07	-1.716957e-09	-6.413300e+00	-1.132692e+02
1.470000e-06	-8.021208e-07	-1.694468e-09	-6.255540e+00	-1.119197e+02
1.480000e-06	-7.817637e-07	-1.677256e-09	-6.096780e+00	-1.105547e+02
1.490000e-06	-7.613202e-07	-1.659174e-09	-5.937347e+00	-1.091739e+02
1.500000e-06	-7.408267e-07	-1.635539e-09	-5.777523e+00	-1.077770e+02
1.510000e-06	-7.202561e-07	-1.609504e-09	-5.617098e+00	-1.063634e+02
1.520000e-06	-6.996793e-07	-1.587794e-09	-5.456625e+00	-1.049327e+02
1.530000e-06	-6.790601e-07	-1.566842e-09	-5.295821e+00	-1.034844e+02
1.540000e-06	-6.583045e-07	-1.544955e-09	-5.133953e+00	-1.020180e+02
1.550000e-06	-6.374834e-07	-1.523317e-09	-4.971574e+00	-1.005328e+02
1.560000e-06	-6.166568e-07	-1.502021e-09	-4.809153e+00	-9.902824e+01
1.570000e-06	-5.958208e-07	-1.480708e-09	-4.646658e+00	-9.750358e+01
1.580000e-06	-5.749232e-07	-1.455798e-09	-4.483682e+00	-9.595815e+01
1.590000e-06	-5.539593e-07	-1.429624e-09	-4.320191e+00	-9.439125e+01
1.600000e-06	-5.329471e-07	-1.404815e-09	-4.156322e+00	-9.280213e+01
1.610000e-06	-5.118890e-07	-1.380535e-09	-3.992095e+00	-9.119005e+01
1.620000e-06	-4.907300e-07	-1.354542e-09	-3.827081e+00	-8.955427e+01
1.630000e-06	-4.694999e-07	-1.328477e-09	-3.661513e+00	-8.789404e+01
1.640000e-06	-4.482817e-07	-1.302061e-09	-3.496037e+00	-8.620863e+01
1.650000e-06	-4.270287e-07	-1.276064e-09	-3.330290e+00	-8.449732e+01
1.660000e-06	-4.057688e-07	-1.250263e-09	-3.164489e+00	-8.275943e+01
1.670000e-06	-3.844825e-07	-1.222975e-09	-2.998483e+00	-8.099429e+01
1.680000e-06	-3.630668e-07	-1.192343e-09	-2.831468e+00	-7.920129e+01
1.690000e-06	-3.415970e-07	-1.161526e-09	-2.664030e+00	-7.737983e+01
1.700000e-06	-3.201900e-07	-1.133812e-09	-2.497082e+00	-7.552941e+01
1.710000e-06	-2.988081e-07	-1.105890e-09	-2.330330e+00	-7.364954e+01
1.720000e-06	-2.774470e-07	-1.075148e-09	-2.163740e+00	-7.173984e+01
1.730000e-06	-2.560496e-07	-1.045847e-09	-1.996867e+00	-6.979997e+01
1.740000e-06	-2.345321e-07	-1.021491e-09	-1.829057e+00	-6.782968e+01
1.750000e-06	-2.130103e-07	-9.943576e-10	-1.661215e+00	-6.582878e+01
1.760000e-06	-1.914675e-07	-9.623772e-10	-1.493208e+00	-6.379719e+01
1.770000e-06	-1.699026e-07	-9.283945e-10	-1.325028e+00	-6.173490e+01
1.780000e-06	-1.484301e-07	-8.979527e-10	-1.157569e+00	-5.964201e+01
1.790000e-06	-1.270149e-07	-8.687219e-10	-9.905573e-01	-5.751871e+01
1.800000e-06	-1.055323e-07	-8.370305e-10	-8.230204e-01	-5.536526e+01
1.810000e-06	-8.401327e-08	-8.037373e-10	-6.551986e-01	-5.318204e+01
1.820000e-06	-6.253981e-08	-7.706749e-10	-4.877324e-01	-5.096954e+01
1.830000e-06	-4.104560e-08	-7.389553e-10	-3.201044e-01	-4.872833e+01
1.840000e-06	-1.951761e-08	-7.072849e-10	-1.522130e-01	-4.645907e+01
1.850000e-06	2.019565e-09	-6.741289e-10	1.575008e-02	-4.416253e+01
1.860000e-06	2.355442e-08	-6.382054e-10	1.836950e-01	-4.183957e+01
1.870000e-06	4.508818e-08	-6.038827e-10	3.516315e-01	-3.949113e+01
1.880000e-06	6.662965e-08	-5.731165e-10	5.196280e-01	-3.711824e+01
1.890000e-06	8.815297e-08	-5.404779e-10	6.874831e-01	-3.472203e+01
1.900000e-06	1.096813e-07	-5.034556e-10	8.553769e-01	-3.230369e+01
1.910000e-06	1.312179e-07	-4.676185e-10	1.023336e+00	-2.986447e+01
1.920000e-06	1.527390e-07	-4.341860e-10	1.191174e+00	-2.740572e+01
1.930000e-06	1.742396e-07	-3.996112e-10	1.358851e+00	-2.492881e+01
1.940000e-06	1.957123e-07	-3.632138e-10	1.526312e+00	-2.243521e+01
1.950000e-06	2.171908e-07	-3.261784e-10	1.693817e+00	-1.992639e+01
1.960000e-06	2.385901e-07	-2.899566e-10	1.860705e+00	-1.740390e+01
1.970000e-06	2.598799e-07	-2.547557e-10	2.026739e+00	-1.486929e+01
1.980000e-06	2.811176e-07	-2.180699e-10	2.192366e+00	-1.232415e+01
1.990000e-06	3.024230e-07	-1.798982e-10	2.358522e+00	-9.770094e+00
2.000000e-06	3.238377e-07	-1.417985e-10	2.525530e+00	-7.208733e+00
2.010000e-06	3.451835e-07	-1.047874e-10	2.692000e+00	-4.641687e+00
2.020000e-06	3.665112e-07	-6.806637e-11	2.858330e+00	-2.070571e+00
2.030000e-06	3.878715e-07	-2.874676e-11	3.024914e+00	5.030133e-01
2.040000e-06	4.091793e-07	1.239811e-11	3.191087e+00	3.077481e+00
2.050000e-06	4.304308e-07	5.069115e-11	3.356822e+00	5.651274e+00
2.060000e-06	4.516299e-07	8.734036e-11	3.522149e+00	8.222865e+00
2.070000e-06	4.727618e-07	1.246632e-10	3.686952e+00	1.079076e+01
2.080000e-06	4.938655e-07	1.615928e-10	3.851534e+00	1.335352e+01
2.090000e-06	5.149460e-07	1.964440e-10	4.015935e+00	1.590973e+01
2.100000e-06	5.359173e-07	2.315397e-10	4.179486e+00	1.845806e+01
2.110000e-06	5.568243e-07	2.698531e-10	4.342534e+00	2.099720e+01
2.120000e-06	5.777448e-07	3.089509e-10	4.505687e+00	2.352593e+01
2.130000e-06	5.987032e-07	3.459905e-10	4.669137e+00	2.604307e+01
2.140000e-06	6.197297e-07	3.808689e-10	4.833117e+00	2.854752e+01
2.150000e-06	6.406523e-07	4.163843e-10	4.996288e+00	3.103823e+01
2.160000e-06	6.613337e-07	4.534452e-10	5.157577e+00	3.351423e+01
2.170000e-06	6.819108e-07	4.893753e-10	5.318053e+00	3.597461e+01
2.180000e-06	7.025510e-07	5.236831e-10	5.479020e+00	3.841853e+01
2.190000e-06	7.231215e-07	5.589794e-10	5.639444e+00	4.084521e+01
2.200000e-06	7.435071e-07	5.963322e-10	5.798427e+00	4.325396e+01
2.210000e-06	7.638633e-07	6.339511e-10	5.957180e+00	4.564411e+01
2.220000e-06	7.841905e-07	6.676926e-10	6.115707e+00	4.801510e+01
2.230000e-06	8.044279e-07	7.024106e-10	6.273532e+00	5.036640e+01
2.240000e-06	8.246406e-07	7.406001e-10	6.431167e+00	5.269753e+01
2.250000e-06	8.447820e-07	7.778080e-10	6.588245e+00	5.500810e+01
2.260000e-06	8.648694e-07	8.123997e-10	6.744901e+00	5.729773e+01
2.270000e-06	8.849525e-07	8.447084e-10	6.901524e+00	5.956611e+01
2.280000e-06	9.049678e-07	8.779958e-10	7.057618e+00	6.181297e+01
2.290000e-06	9.248924e-07	9.145096e-10	7.213005e+00	6.403807e+01
2.300000e-06	9.447701e-07	9.492460e-10	7.368027e+00	6.624122e+01
2.310000e-06	9.646130e-07	9.790545e-10	7.522776e+00	6.842223e+01
2.320000e-06	9.844563e-07	1.010583e-09	7.677529e+00	7.058098e+01
2.330000e-06	1.004272e-06	1.047329e-09	7.832069e+00	7.271735e+01
2.340000e-06	1.024016e-06	1.083275e-09	7.986045e+00	7.483123e+01
2.350000e-06	1.043753e-06	1.114410e-09	8.139968e+00	7.692253e+01
2.360000e-06	1.063448e-06	1.145245e-09	8.293569e+00	7.899119e+01
2.370000e-06	1.083089e-06	1.176731e-09	8.446742e+00	8.103715e+01
2.380000e-06	1.102698e-06	1.205870e-09	8.599664e+00	8.306033e+01
2.390000e-06	1.122298e-06	1.235265e-09	8.752525e+00	8.506069e+01
2.400000e-06	1.141902e-06	1.265630e-09	8.905411e+00	8.703817e+01
2.410000e-06	1.161490e-06	1.292769e-09	9.058171e+00	8.899271e+01
2.420000e-06	1.181028e-06	1.318932e-09	9.210541e+00	9.092424e+01
2.430000e-06	1.200505e-06	1.346722e-09	9.362441e+00	9.283271e+01
2.440000e-06	1.219925e-06	1.375721e-09	9.513889e+00	9.471804e+01
2.450000e-06	1.239256e-06	1.406039e-09	9.664652e+00	9.658014e+01
2.460000e-06	1.258507e-06	1.435396e-09	9.814785e+00	9.841893e+01
2.470000e-06	1.277696e-06	1.462787e-09	9.964436e+00	1.002343e+02
2.480000e-06	1.296765e-06	1.488814e-09	1.011315e+01	1.020262e+02
2.490000e-06	1.315744e-06	1.513536e-09	1.026116e+01	1.037945e+02
2.500000e-06	1.334691e-06	1.537896e-09	1.040892e+01	1.055390e+02
2.510000e-06	1.353536e-06	1.562703e-09	1.055589e+01	1.072597e+02
2.520000e-06	1.372142e-06	1.586168e-09	1.070099e+01	1.089565e+02
2.530000e-06	1.390596e-06	1.609203e-09	1.084492e+01	1.106291e+02
2.540000e-06	1.409040e-06	1.634933e-09	1.098875e+01	1.122776e+02
2.550000e-06	1.427465e-06	1.661527e-09	1.113244e+01	1.139017e+02
2.560000e-06	1.445721e-06	1.685500e-09	1.127482e+01	1.155015e+02
2.570000e-06	1.463707e-06	1.709708e-09	1.141509e+01	1.170767e+02
2.580000e-06	1.481542e-06	1.736140e-09	1.155417e+01	1.186272e+02
2.590000e-06	1.499254e-06	1.762187e-09	1.169231e+01	1.201531e+02
2.600000e-06	1.516835e-06	1.784864e-09	1.182942e+01	1.216543e+02
2.610000e-06	1.534370e-06	1.804305e-09	1.196617e+01	1.231306e+02
2.620000e-06	1.551816e-06	1.824946e-09	1.210223e+01	1.245822e+02
2.630000e-06	1.569214e-06	1.846810e-09	1.223791e+01	1.260089e+02
2.640000e-06	1.586625e-06	1.867918e-09	1.237369e+01	1.274107e+02
2.650000e-06	1.603937e-06	1.888885e-09	1.250871e+01	1.287879e+02
2.660000e-06	1.621113e-06	1.911663e-09	1.264266e+01	1.301403e+02
2.670000e-06	1.638200e-06	1.934823e-09	1.277592e+01	1.314681e+02
2.680000e-06	1.655210e-06	1.955439e-09	1.290857e+01	1.327715e+02
2.690000e-06	1.672216e-06	1.973542e-09	1.304120e+01	1.340506e+02
2.700000e-06	1.689200e-06	1.992296e-09	1.317365e+01	1.353056e+02
2.710000e-06	1.706006e-06	2.014101e-09	1.330472e+01	1.365367e+02
2.720000e-06	1.722705e-06	2.033259e-09	1.343494e+01	1.377441e+02
2.730000e-06	1.739336e-06	2.048925e-09	1.356465e+01	1.389282e+02
2.740000e-06	1.755897e-06	2.066276e-09	1.369381e+01	1.400893e+02
2.750000e-06	1.772351e-06	2.085740e-09	1.382213e+01	1.412276e+02
2.760000e-06	1.788613e-06	2.105892e-09	1.394895e+01	1.423437e+02
2.770000e-06	1.804633e-06	2.122840e-09	1.407388e+01	1.434377e+02
2.780000e-06	1.820489e-06	2.137938e-09	1.419754e+01	1.445103e+02
2.790000e-06	1.836187e-06	2.155599e-09	1.431997e+01	1.455618e+02
2.800000e-06	1.851832e-06	2.173553e-09	1.444198e+01	1.465927e+02
2.810000e-06	1.867205e-06	2.189249e-09	1.456187e+01	1.476035e+02
2.820000e-06	1.882221e-06	2.203294e-09	1.467898e+01	1.485946e+02
2.830000e-06	1.897091e-06	2.219965e-09	1.479494e+01	1.495666e+02
2.840000e-06	1.911858e-06	2.238600e-09	1.491010e+01	1.505199e+02
2.850000e-06	1.926507e-06	2.254602e-09	1.502435e+01	1.514552e+02
2.860000e-06	1.940885e-06	2.269035e-09	1.513648e+01	1.523729e+02
2.870000e-06	1.955064e-06	2.284973e-09	1.524706e+01	1.532736e+02
2.880000e-06	1.969126e-06	2.301563e-09	1.535672e+01	1.541577e+02
2.890000e-06	1.983129e-06	2.316427e-09	1.546593e+01	1.550259e+02
2.900000e-06	1.996982e-06	2.332271e-09	1.557396e+01	1.558786e+02
