# Temperatura_=_20.0
# Concentracion g/m^3_=_9000.0
# C_Vs_to_Am_M_A/Vsm_=_65563218390.804596
# pendiente_HvsI_1/m_=_3716.3
# ordenada_HvsI_A/m_=_1297.0
# frecuencia_Hz_=_134936.66492099038

Tiempo_(s)	Campo_(V.s)	Magnetizacion_(V.s)	Campo_(kA/m)	Magnetizacion_(A/m)
0.000000e+00	-2.538347e-06	-2.897444e-09	-1.982685e+01	-1.900581e+02
1.000000e-08	-2.538589e-06	-2.922422e-09	-1.982874e+01	-1.900517e+02
2.000000e-08	-2.538745e-06	-2.959338e-09	-1.982997e+01	-1.900336e+02
3.000000e-08	-2.538788e-06	-2.965669e-09	-1.983029e+01	-1.900041e+02
4.000000e-08	-2.538640e-06	-2.900744e-09	-1.982914e+01	-1.899636e+02
5.000000e-08	-2.538285e-06	-2.844542e-09	-1.982637e+01	-1.899122e+02
6.000000e-08	-2.537829e-06	-2.882695e-09	-1.982281e+01	-1.898503e+02
7.000000e-08	-2.537272e-06	-2.917323e-09	-1.981846e+01	-1.897783e+02
8.000000e-08	-2.536528e-06	-2.875075e-09	-1.981265e+01	-1.896966e+02
9.000000e-08	-2.535550e-06	-2.831891e-09	-1.980500e+01	-1.896055e+02
1.000000e-07	-2.534356e-06	-2.826899e-09	-1.979568e+01	-1.895055e+02
1.100000e-07	-2.532933e-06	-2.961321e-09	-1.978457e+01	-1.893971e+02
1.200000e-07	-2.531054e-06	-3.045305e-09	-1.976989e+01	-1.892807e+02
1.300000e-07	-2.528810e-06	-2.992600e-09	-1.975236e+01	-1.891566e+02
1.400000e-07	-2.526284e-06	-2.841103e-09	-1.973263e+01	-1.890255e+02
1.500000e-07	-2.523554e-06	-2.874659e-09	-1.971131e+01	-1.888877e+02
1.600000e-07	-2.520594e-06	-2.985175e-09	-1.968819e+01	-1.887437e+02
1.700000e-07	-2.517296e-06	-2.977956e-09	-1.966242e+01	-1.885938e+02
1.800000e-07	-2.513801e-06	-2.852649e-09	-1.963513e+01	-1.884387e+02
1.900000e-07	-2.510238e-06	-2.829857e-09	-1.960730e+01	-1.882785e+02
2.000000e-07	-2.506613e-06	-2.951332e-09	-1.957898e+01	-1.881139e+02
2.100000e-07	-2.502903e-06	-2.961567e-09	-1.955000e+01	-1.879450e+02
2.200000e-07	-2.499053e-06	-2.834279e-09	-1.951993e+01	-1.877722e+02
2.300000e-07	-2.495083e-06	-2.714955e-09	-1.948892e+01	-1.875959e+02
2.400000e-07	-2.491022e-06	-2.833574e-09	-1.945720e+01	-1.874162e+02
2.500000e-07	-2.486795e-06	-2.953459e-09	-1.942418e+01	-1.872335e+02
2.600000e-07	-2.482370e-06	-2.910005e-09	-1.938962e+01	-1.870480e+02
2.700000e-07	-2.477746e-06	-2.715596e-09	-1.935350e+01	-1.868597e+02
2.800000e-07	-2.473010e-06	-2.730814e-09	-1.931651e+01	-1.866688e+02
2.900000e-07	-2.468113e-06	-2.895191e-09	-1.927826e+01	-1.864754e+02
3.000000e-07	-2.463049e-06	-2.963892e-09	-1.923870e+01	-1.862796e+02
3.100000e-07	-2.457719e-06	-2.773067e-09	-1.919707e+01	-1.860812e+02
3.200000e-07	-2.452180e-06	-2.655383e-09	-1.915381e+01	-1.858804e+02
3.300000e-07	-2.446527e-06	-2.800116e-09	-1.910965e+01	-1.856769e+02
3.400000e-07	-2.440670e-06	-2.964950e-09	-1.906390e+01	-1.854706e+02
3.500000e-07	-2.434630e-06	-2.867719e-09	-1.901673e+01	-1.852615e+02
3.600000e-07	-2.428458e-06	-2.682256e-09	-1.896852e+01	-1.850492e+02
3.700000e-07	-2.422222e-06	-2.729337e-09	-1.891980e+01	-1.848336e+02
3.800000e-07	-2.415847e-06	-2.899705e-09	-1.887002e+01	-1.846143e+02
3.900000e-07	-2.409306e-06	-2.903696e-09	-1.881892e+01	-1.843912e+02
4.000000e-07	-2.402510e-06	-2.727752e-09	-1.876584e+01	-1.841639e+02
4.100000e-07	-2.395475e-06	-2.677892e-09	-1.871089e+01	-1.839320e+02
4.200000e-07	-2.388380e-06	-2.802472e-09	-1.865547e+01	-1.836952e+02
4.300000e-07	-2.381079e-06	-2.889731e-09	-1.859845e+01	-1.834532e+02
4.400000e-07	-2.373612e-06	-2.784581e-09	-1.854012e+01	-1.832055e+02
4.500000e-07	-2.366054e-06	-2.682628e-09	-1.848108e+01	-1.829518e+02
4.600000e-07	-2.358323e-06	-2.733458e-09	-1.842070e+01	-1.826918e+02
4.700000e-07	-2.350487e-06	-2.851391e-09	-1.835949e+01	-1.824250e+02
4.800000e-07	-2.342576e-06	-2.822786e-09	-1.829770e+01	-1.821511e+02
4.900000e-07	-2.334589e-06	-2.711028e-09	-1.823531e+01	-1.818697e+02
5.000000e-07	-2.326544e-06	-2.692650e-09	-1.817247e+01	-1.815806e+02
5.100000e-07	-2.318398e-06	-2.791292e-09	-1.810885e+01	-1.812833e+02
5.200000e-07	-2.310065e-06	-2.814281e-09	-1.804375e+01	-1.809776e+02
5.300000e-07	-2.301593e-06	-2.724333e-09	-1.797758e+01	-1.806633e+02
5.400000e-07	-2.292879e-06	-2.664294e-09	-1.790952e+01	-1.803400e+02
5.500000e-07	-2.283864e-06	-2.728459e-09	-1.783911e+01	-1.800077e+02
5.600000e-07	-2.274689e-06	-2.791731e-09	-1.776744e+01	-1.796661e+02
5.700000e-07	-2.265213e-06	-2.746751e-09	-1.769342e+01	-1.793150e+02
5.800000e-07	-2.255361e-06	-2.665174e-09	-1.761647e+01	-1.789544e+02
5.900000e-07	-2.245211e-06	-2.678420e-09	-1.753719e+01	-1.785843e+02
6.000000e-07	-2.234810e-06	-2.747832e-09	-1.745595e+01	-1.782045e+02
6.100000e-07	-2.224246e-06	-2.741620e-09	-1.737343e+01	-1.778151e+02
6.200000e-07	-2.213463e-06	-2.661465e-09	-1.728921e+01	-1.774161e+02
6.300000e-07	-2.202410e-06	-2.633246e-09	-1.720288e+01	-1.770077e+02
6.400000e-07	-2.191166e-06	-2.689425e-09	-1.711505e+01	-1.765898e+02
6.500000e-07	-2.179801e-06	-2.714650e-09	-1.702627e+01	-1.761628e+02
6.600000e-07	-2.168282e-06	-2.658547e-09	-1.693630e+01	-1.757266e+02
6.700000e-07	-2.156537e-06	-2.608863e-09	-1.684456e+01	-1.752817e+02
6.800000e-07	-2.144683e-06	-2.639635e-09	-1.675197e+01	-1.748280e+02
6.900000e-07	-2.132729e-06	-2.679038e-09	-1.665860e+01	-1.743660e+02
7.000000e-07	-2.120618e-06	-2.658937e-09	-1.656400e+01	-1.738958e+02
7.100000e-07	-2.108423e-06	-2.608407e-09	-1.646875e+01	-1.734177e+02
7.200000e-07	-2.096005e-06	-2.605474e-09	-1.637175e+01	-1.729321e+02
7.300000e-07	-2.083361e-06	-2.633074e-09	-1.627299e+01	-1.724392e+02
7.400000e-07	-2.070607e-06	-2.634896e-09	-1.617337e+01	-1.719392e+02
7.500000e-07	-2.057652e-06	-2.595228e-09	-1.607218e+01	-1.714325e+02
7.600000e-07	-2.044464e-06	-2.569272e-09	-1.596917e+01	-1.709193e+02
7.700000e-07	-2.031115e-06	-2.582666e-09	-1.586490e+01	-1.703999e+02
7.800000e-07	-2.017630e-06	-2.603674e-09	-1.575957e+01	-1.698745e+02
7.900000e-07	-2.004036e-06	-2.580484e-09	-1.565339e+01	-1.693434e+02
8.000000e-07	-1.990330e-06	-2.543726e-09	-1.554633e+01	-1.688067e+02
8.100000e-07	-1.976441e-06	-2.538686e-09	-1.543784e+01	-1.682647e+02
8.200000e-07	-1.962391e-06	-2.555527e-09	-1.532810e+01	-1.677174e+02
8.300000e-07	-1.948222e-06	-2.540960e-09	-1.521743e+01	-1.671650e+02
8.400000e-07	-1.933839e-06	-2.505700e-09	-1.510508e+01	-1.666075e+02
8.500000e-07	-1.919199e-06	-2.495676e-09	-1.499073e+01	-1.660450e+02
8.600000e-07	-1.904337e-06	-2.508878e-09	-1.487464e+01	-1.654774e+02
8.700000e-07	-1.889360e-06	-2.505767e-09	-1.475766e+01	-1.649048e+02
8.800000e-07	-1.874251e-06	-2.479813e-09	-1.463964e+01	-1.643269e+02
8.900000e-07	-1.858837e-06	-2.462099e-09	-1.451925e+01	-1.637437e+02
9.000000e-07	-1.843207e-06	-2.463504e-09	-1.439716e+01	-1.631550e+02
9.100000e-07	-1.827496e-06	-2.463496e-09	-1.427445e+01	-1.625606e+02
9.200000e-07	-1.811681e-06	-2.444393e-09	-1.415092e+01	-1.619602e+02
9.300000e-07	-1.795536e-06	-2.421790e-09	-1.402481e+01	-1.613535e+02
9.400000e-07	-1.779230e-06	-2.415706e-09	-1.389745e+01	-1.607401e+02
9.500000e-07	-1.762887e-06	-2.422820e-09	-1.376979e+01	-1.601197e+02
9.600000e-07	-1.746383e-06	-2.414314e-09	-1.364088e+01	-1.594920e+02
9.700000e-07	-1.729751e-06	-2.392180e-09	-1.351096e+01	-1.588563e+02
9.800000e-07	-1.712977e-06	-2.378147e-09	-1.337995e+01	-1.582124e+02
9.900000e-07	-1.696068e-06	-2.383185e-09	-1.324787e+01	-1.575597e+02
1.000000e-06	-1.678966e-06	-2.379766e-09	-1.311429e+01	-1.568976e+02
1.010000e-06	-1.661791e-06	-2.356540e-09	-1.298013e+01	-1.562258e+02
1.020000e-06	-1.644550e-06	-2.335080e-09	-1.284547e+01	-1.555437e+02
1.030000e-06	-1.627224e-06	-2.335122e-09	-1.271013e+01	-1.548507e+02
1.040000e-06	-1.609854e-06	-2.334421e-09	-1.257446e+01	-1.541463e+02
1.050000e-06	-1.592377e-06	-2.318334e-09	-1.243795e+01	-1.534301e+02
1.060000e-06	-1.574861e-06	-2.299262e-09	-1.230113e+01	-1.527014e+02
1.070000e-06	-1.557334e-06	-2.290935e-09	-1.216423e+01	-1.519598e+02
1.080000e-06	-1.539694e-06	-2.285691e-09	-1.202644e+01	-1.512049e+02
1.090000e-06	-1.521960e-06	-2.274562e-09	-1.188792e+01	-1.504361e+02
1.100000e-06	-1.504177e-06	-2.256668e-09	-1.174902e+01	-1.496531e+02
1.110000e-06	-1.486342e-06	-2.241607e-09	-1.160971e+01	-1.488554e+02
1.120000e-06	-1.468367e-06	-2.235227e-09	-1.146932e+01	-1.480426e+02
1.130000e-06	-1.450280e-06	-2.229926e-09	-1.132804e+01	-1.472145e+02
1.140000e-06	-1.432125e-06	-2.217149e-09	-1.118623e+01	-1.463707e+02
1.150000e-06	-1.413828e-06	-2.198805e-09	-1.104332e+01	-1.455110e+02
1.160000e-06	-1.395440e-06	-2.183210e-09	-1.089969e+01	-1.446351e+02
1.170000e-06	-1.376907e-06	-2.170545e-09	-1.075493e+01	-1.437429e+02
1.180000e-06	-1.358265e-06	-2.156040e-09	-1.060931e+01	-1.428342e+02
1.190000e-06	-1.339537e-06	-2.137400e-09	-1.046303e+01	-1.419090e+02
1.200000e-06	-1.320596e-06	-2.122604e-09	-1.031508e+01	-1.409672e+02
1.210000e-06	-1.301572e-06	-2.114157e-09	-1.016649e+01	-1.400087e+02
1.220000e-06	-1.282498e-06	-2.105612e-09	-1.001750e+01	-1.390336e+02
1.230000e-06	-1.263231e-06	-2.090309e-09	-9.867008e+00	-1.380421e+02
1.240000e-06	-1.243841e-06	-2.074875e-09	-9.715553e+00	-1.370340e+02
1.250000e-06	-1.224433e-06	-2.063081e-09	-9.563960e+00	-1.360097e+02
1.260000e-06	-1.204963e-06	-2.049946e-09	-9.411881e+00	-1.349691e+02
1.270000e-06	-1.185417e-06	-2.031730e-09	-9.259208e+00	-1.339126e+02
1.280000e-06	-1.165792e-06	-2.015144e-09	-9.105917e+00	-1.328402e+02
1.290000e-06	-1.146131e-06	-2.001563e-09	-8.952352e+00	-1.317523e+02
1.300000e-06	-1.126453e-06	-1.988627e-09	-8.798649e+00	-1.306489e+02
1.310000e-06	-1.106735e-06	-1.970254e-09	-8.644633e+00	-1.295304e+02
1.320000e-06	-1.086996e-06	-1.950444e-09	-8.490454e+00	-1.283969e+02
1.330000e-06	-1.067226e-06	-1.932768e-09	-8.336031e+00	-1.272487e+02
1.340000e-06	-1.047434e-06	-1.917444e-09	-8.181438e+00	-1.260859e+02
1.350000e-06	-1.027621e-06	-1.901034e-09	-8.026680e+00	-1.249087e+02
1.360000e-06	-1.007784e-06	-1.882212e-09	-7.871732e+00	-1.237173e+02
1.370000e-06	-9.879371e-07	-1.861881e-09	-7.716709e+00	-1.225119e+02
1.380000e-06	-9.680723e-07	-1.842833e-09	-7.561546e+00	-1.212925e+02
1.390000e-06	-9.481574e-07	-1.825450e-09	-7.405992e+00	-1.200591e+02
1.400000e-06	-9.282157e-07	-1.807384e-09	-7.250229e+00	-1.188120e+02
1.410000e-06	-9.082446e-07	-1.790408e-09	-7.094236e+00	-1.175509e+02
1.420000e-06	-8.882199e-07	-1.776287e-09	-6.937824e+00	-1.162759e+02
1.430000e-06	-8.681787e-07	-1.759807e-09	-6.781284e+00	-1.149868e+02
1.440000e-06	-8.480968e-07	-1.737464e-09	-6.624425e+00	-1.136836e+02
1.450000e-06	-8.279952e-07	-1.713908e-09	-6.467413e+00	-1.123660e+02
1.460000e-06	-8.078719e-07	-1.690098e-09	-6.310232e+00	-1.110337e+02
1.470000e-06	-7.876880e-07	-1.669570e-09	-6.152577e+00	-1.096864e+02
1.480000e-06	-7.674325e-07	-1.650301e-09	-5.994362e+00	-1.083238e+02
1.490000e-06	-7.470827e-07	-1.629582e-09	-5.835411e+00	-1.069454e+02
1.500000e-06	-7.266457e-07	-1.605830e-09	-5.675780e+00	-1.055507e+02
1.510000e-06	-7.061628e-07	-1.584847e-09	-5.515789e+00	-1.041393e+02
1.520000e-06	-6.856395e-07	-1.565580e-09	-5.355483e+00	-1.027106e+02
1.530000e-06	-6.650226e-07	-1.542138e-09	-5.194446e+00	-1.012639e+02
1.540000e-06	-6.443072e-07	-1.517759e-09	-5.032639e+00	-9.979865e+01
1.550000e-06	-6.234989e-07	-1.496037e-09	-4.870107e+00	-9.831411e+01
1.560000e-06	-6.027044e-07	-1.472593e-09	-4.707682e+00	-9.680955e+01
1.570000e-06	-5.819365e-07	-1.445354e-09	-4.545466e+00	-9.528426e+01
1.580000e-06	-5.611350e-07	-1.419350e-09	-4.382986e+00	-9.373744e+01
1.590000e-06	-5.402010e-07	-1.394949e-09	-4.219473e+00	-9.216833e+01
1.600000e-06	-5.190921e-07	-1.371417e-09	-4.054593e+00	-9.057614e+01
1.610000e-06	-4.980129e-07	-1.350124e-09	-3.889944e+00	-8.896008e+01
1.620000e-06	-4.769946e-07	-1.327007e-09	-3.725772e+00	-8.731937e+01
1.630000e-06	-4.558894e-07	-1.300758e-09	-3.560921e+00	-8.565322e+01
1.640000e-06	-4.347240e-07	-1.275251e-09	-3.395599e+00	-8.396090e+01
1.650000e-06	-4.135364e-07	-1.249239e-09	-3.230104e+00	-8.224167e+01
1.660000e-06	-3.922961e-07	-1.219784e-09	-3.064198e+00	-8.049485e+01
1.670000e-06	-3.710758e-07	-1.190085e-09	-2.898447e+00	-7.871977e+01
1.680000e-06	-3.498490e-07	-1.161986e-09	-2.732646e+00	-7.691584e+01
1.690000e-06	-3.285925e-07	-1.134659e-09	-2.566613e+00	-7.508250e+01
1.700000e-06	-3.072540e-07	-1.109289e-09	-2.399940e+00	-7.321926e+01
1.710000e-06	-2.858174e-07	-1.082541e-09	-2.232500e+00	-7.132569e+01
1.720000e-06	-2.643810e-07	-1.052131e-09	-2.065062e+00	-6.940144e+01
1.730000e-06	-2.428624e-07	-1.022658e-09	-1.896981e+00	-6.744623e+01
1.740000e-06	-2.212729e-07	-9.949042e-10	-1.728347e+00	-6.545986e+01
1.750000e-06	-1.997654e-07	-9.635146e-10	-1.560353e+00	-6.344221e+01
1.760000e-06	-1.782959e-07	-9.287297e-10	-1.392657e+00	-6.139325e+01
1.770000e-06	-1.568379e-07	-8.968563e-10	-1.225050e+00	-5.931305e+01
1.780000e-06	-1.353889e-07	-8.679372e-10	-1.057513e+00	-5.720177e+01
1.790000e-06	-1.138892e-07	-8.366025e-10	-8.895810e-01	-5.505966e+01
1.800000e-06	-9.241134e-08	-8.036287e-10	-7.218186e-01	-5.288706e+01
1.810000e-06	-7.096432e-08	-7.706957e-10	-5.542974e-01	-5.068441e+01
1.820000e-06	-4.951890e-08	-7.394260e-10	-3.867887e-01	-4.845226e+01
1.830000e-06	-2.802418e-08	-7.083923e-10	-2.188949e-01	-4.619123e+01
1.840000e-06	-6.500825e-09	-6.748216e-10	-5.077749e-02	-4.390206e+01
1.850000e-06	1.501935e-08	-6.377664e-10	1.173151e-01	-4.158554e+01
1.860000e-06	3.653285e-08	-6.028062e-10	2.853556e-01	-3.924260e+01
1.870000e-06	5.794633e-08	-5.699195e-10	4.526148e-01	-3.687420e+01
1.880000e-06	7.941480e-08	-5.346353e-10	6.203035e-01	-3.448143e+01
1.890000e-06	1.010327e-07	-4.976323e-10	7.891593e-01	-3.206542e+01
1.900000e-06	1.226202e-07	-4.612051e-10	9.577778e-01	-2.962739e+01
1.910000e-06	1.440929e-07	-4.256847e-10	1.125500e+00	-2.716861e+01
1.920000e-06	1.655138e-07	-3.906446e-10	1.292817e+00	-2.469043e+01
1.930000e-06	1.869533e-07	-3.553422e-10	1.460279e+00	-2.219423e+01
1.940000e-06	2.083853e-07	-3.179847e-10	1.627683e+00	-1.968145e+01
1.950000e-06	2.297341e-07	-2.807535e-10	1.794437e+00	-1.715359e+01
1.960000e-06	2.510200e-07	-2.439686e-10	1.960700e+00	-1.461215e+01
1.970000e-06	2.723520e-07	-2.060902e-10	2.127322e+00	-1.205868e+01
1.980000e-06	2.937033e-07	-1.672725e-10	2.294096e+00	-9.494741e+00
1.990000e-06	3.150319e-07	-1.302258e-10	2.460692e+00	-6.921917e+00
2.000000e-06	3.363317e-07	-9.350549e-11	2.627063e+00	-4.341795e+00
2.010000e-06	3.575941e-07	-5.538957e-11	2.793142e+00	-1.755964e+00
2.020000e-06	3.787907e-07	-1.670920e-11	2.958708e+00	8.339894e-01
2.030000e-06	3.999450e-07	2.265993e-11	3.123943e+00	3.426493e+00
2.040000e-06	4.210957e-07	6.267373e-11	3.289149e+00	6.019987e+00
2.050000e-06	4.421846e-07	1.020975e-10	3.453873e+00	8.612938e+00
2.060000e-06	4.631598e-07	1.414321e-10	3.617710e+00	1.120384e+01
2.070000e-06	4.840345e-07	1.784995e-10	3.780760e+00	1.379121e+01
2.080000e-06	5.049281e-07	2.147393e-10	3.943959e+00	1.637361e+01
2.090000e-06	5.258620e-07	2.505047e-10	4.107472e+00	1.894965e+01
2.100000e-06	5.467161e-07	2.864440e-10	4.270362e+00	2.151797e+01
2.110000e-06	5.675388e-07	3.226175e-10	4.433006e+00	2.407727e+01
2.120000e-06	5.883914e-07	3.588830e-10	4.595884e+00	2.662628e+01
2.130000e-06	6.091255e-07	3.958735e-10	4.757837e+00	2.916380e+01
2.140000e-06	6.297262e-07	4.343909e-10	4.918748e+00	3.168869e+01
2.150000e-06	6.502910e-07	4.729260e-10	5.079378e+00	3.419984e+01
2.160000e-06	6.707969e-07	5.094906e-10	5.239548e+00	3.669623e+01
2.170000e-06	6.912699e-07	5.445995e-10	5.399461e+00	3.917686e+01
2.180000e-06	7.117913e-07	5.799108e-10	5.559752e+00	4.164081e+01
2.190000e-06	7.322815e-07	6.160834e-10	5.719800e+00	4.408722e+01
2.200000e-06	7.526041e-07	6.520556e-10	5.878538e+00	4.651528e+01
2.210000e-06	7.728088e-07	6.876268e-10	6.036356e+00	4.892422e+01
2.220000e-06	7.930015e-07	7.218405e-10	6.194080e+00	5.131335e+01
2.230000e-06	8.131347e-07	7.577724e-10	6.351339e+00	5.368201e+01
2.240000e-06	8.332460e-07	7.954567e-10	6.508427e+00	5.602961e+01
2.250000e-06	8.534062e-07	8.307006e-10	6.665897e+00	5.835559e+01
2.260000e-06	8.735752e-07	8.625238e-10	6.823436e+00	6.065945e+01
2.270000e-06	8.936595e-07	8.951697e-10	6.980313e+00	6.294073e+01
2.280000e-06	9.136374e-07	9.294454e-10	7.136359e+00	6.519901e+01
2.290000e-06	9.335680e-07	9.636895e-10	7.292035e+00	6.743391e+01
2.300000e-06	9.534837e-07	9.960571e-10	7.447595e+00	6.964509e+01
2.310000e-06	9.733555e-07	1.028102e-09	7.602813e+00	7.183223e+01
2.320000e-06	9.931975e-07	1.061756e-09	7.757797e+00	7.399507e+01
2.330000e-06	1.013036e-06	1.097648e-09	7.912757e+00	7.613336e+01
2.340000e-06	1.032839e-06	1.131588e-09	8.067438e+00	7.824688e+01
2.350000e-06	1.052608e-06	1.163738e-09	8.221852e+00	8.033543e+01
2.360000e-06	1.072355e-06	1.194769e-09	8.376094e+00	8.239884e+01
2.370000e-06	1.092098e-06	1.225320e-09	8.530305e+00	8.443698e+01
2.380000e-06	1.111852e-06	1.255713e-09	8.684602e+00	8.644970e+01
2.390000e-06	1.131571e-06	1.285912e-09	8.838623e+00	8.843689e+01
2.400000e-06	1.151198e-06	1.314893e-09	8.991926e+00	9.039847e+01
2.410000e-06	1.170774e-06	1.342278e-09	9.144833e+00	9.233435e+01
2.420000e-06	1.190302e-06	1.370957e-09	9.297370e+00	9.424447e+01
2.430000e-06	1.209743e-06	1.400434e-09	9.449221e+00	9.612877e+01
2.440000e-06	1.229030e-06	1.429660e-09	9.599866e+00	9.798723e+01
2.450000e-06	1.248215e-06	1.458472e-09	9.749721e+00	9.981981e+01
2.460000e-06	1.267386e-06	1.487862e-09	9.899462e+00	1.016265e+02
2.470000e-06	1.286516e-06	1.515760e-09	1.004889e+01	1.034073e+02
2.480000e-06	1.305482e-06	1.540837e-09	1.019703e+01	1.051622e+02
2.490000e-06	1.324355e-06	1.564050e-09	1.034444e+01	1.068913e+02
2.500000e-06	1.343139e-06	1.588934e-09	1.049116e+01	1.085946e+02
2.510000e-06	1.361682e-06	1.615391e-09	1.063600e+01	1.102721e+02
2.520000e-06	1.380161e-06	1.639806e-09	1.078034e+01	1.119239e+02
2.530000e-06	1.398518e-06	1.663854e-09	1.092372e+01	1.135500e+02
2.540000e-06	1.416706e-06	1.692982e-09	1.106579e+01	1.151506e+02
2.550000e-06	1.434875e-06	1.718088e-09	1.120771e+01	1.167258e+02
2.560000e-06	1.453018e-06	1.737885e-09	1.134942e+01	1.182757e+02
2.570000e-06	1.471094e-06	1.758865e-09	1.149061e+01	1.198004e+02
2.580000e-06	1.489062e-06	1.781437e-09	1.163096e+01	1.213000e+02
2.590000e-06	1.506861e-06	1.803589e-09	1.176999e+01	1.227748e+02
2.600000e-06	1.524418e-06	1.825397e-09	1.190712e+01	1.242248e+02
2.610000e-06	1.541828e-06	1.849739e-09	1.204311e+01	1.256504e+02
2.620000e-06	1.559253e-06	1.874895e-09	1.217921e+01	1.270517e+02
2.630000e-06	1.576662e-06	1.901311e-09	1.231520e+01	1.284290e+02
2.640000e-06	1.593925e-06	1.926834e-09	1.245004e+01	1.297824e+02
2.650000e-06	1.611128e-06	1.950335e-09	1.258441e+01	1.311122e+02
2.660000e-06	1.628378e-06	1.970798e-09	1.271915e+01	1.324188e+02
2.670000e-06	1.645562e-06	1.989141e-09	1.285337e+01	1.337024e+02
2.680000e-06	1.662660e-06	2.004478e-09	1.298692e+01	1.349633e+02
2.690000e-06	1.679596e-06	2.021350e-09	1.311921e+01	1.362019e+02
2.700000e-06	1.696440e-06	2.042345e-09	1.325078e+01	1.374183e+02
2.710000e-06	1.713212e-06	2.062311e-09	1.338178e+01	1.386131e+02
2.720000e-06	1.729766e-06	2.080710e-09	1.351108e+01	1.397865e+02
2.730000e-06	1.746232e-06	2.100943e-09	1.363970e+01	1.409388e+02
2.740000e-06	1.762681e-06	2.120663e-09	1.376818e+01	1.420705e+02
2.750000e-06	1.779050e-06	2.136877e-09	1.389603e+01	1.431819e+02
2.760000e-06	1.795121e-06	2.152789e-09	1.402157e+01	1.442734e+02
2.770000e-06	1.810874e-06	2.169042e-09	1.414461e+01	1.453453e+02
2.780000e-06	1.826438e-06	2.184140e-09	1.426618e+01	1.463980e+02
2.790000e-06	1.841892e-06	2.200569e-09	1.438689e+01	1.474319e+02
2.800000e-06	1.857248e-06	2.218573e-09	1.450684e+01	1.484474e+02
2.810000e-06	1.872403e-06	2.235450e-09	1.462521e+01	1.494448e+02
2.820000e-06	1.887274e-06	2.253811e-09	1.474137e+01	1.504244e+02
2.830000e-06	1.901981e-06	2.272116e-09	1.485624e+01	1.513867e+02
2.840000e-06	1.916535e-06	2.290065e-09	1.496992e+01	1.523320e+02
2.850000e-06	1.930827e-06	2.304441e-09	1.508155e+01	1.532605e+02
2.860000e-06	1.945045e-06	2.317142e-09	1.519261e+01	1.541728e+02
2.870000e-06	1.959224e-06	2.331689e-09	1.530336e+01	1.550690e+02
2.880000e-06	1.973276e-06	2.346781e-09	1.541313e+01	1.559494e+02
2.890000e-06	1.987172e-06	2.360591e-09	1.552167e+01	1.568145e+02
2.900000e-06	2.000780e-06	2.374549e-09	1.562796e+01	1.576644e+02
