# Temperatura_=_20.0
# Concentracion g/m^3_=_9000.0
# C_Vs_to_Am_M_A/Vsm_=_65563218390.804596
# pendiente_HvsI_1/m_=_3716.3
# ordenada_HvsI_A/m_=_1297.0
# frecuencia_Hz_=_134939.08436831506

Tiempo_(s)	Campo_(V.s)	Magnetizacion_(V.s)	Campo_(kA/m)	Magnetizacion_(A/m)
0.000000e+00	-2.537171e-06	-2.824578e-09	-1.982637e+01	-1.886573e+02
1.000000e-08	-2.537491e-06	-2.795354e-09	-1.982888e+01	-1.886753e+02
2.000000e-08	-2.537711e-06	-2.816527e-09	-1.983059e+01	-1.886814e+02
3.000000e-08	-2.537809e-06	-2.918505e-09	-1.983136e+01	-1.886757e+02
4.000000e-08	-2.537738e-06	-3.032435e-09	-1.983080e+01	-1.886582e+02
5.000000e-08	-2.537457e-06	-3.057140e-09	-1.982860e+01	-1.886291e+02
6.000000e-08	-2.536999e-06	-3.008054e-09	-1.982503e+01	-1.885884e+02
7.000000e-08	-2.536469e-06	-2.943964e-09	-1.982089e+01	-1.885363e+02
8.000000e-08	-2.535776e-06	-2.775673e-09	-1.981547e+01	-1.884731e+02
9.000000e-08	-2.534809e-06	-2.638430e-09	-1.980791e+01	-1.883991e+02
1.000000e-07	-2.533494e-06	-2.691912e-09	-1.979764e+01	-1.883144e+02
1.100000e-07	-2.531720e-06	-2.825335e-09	-1.978377e+01	-1.882195e+02
1.200000e-07	-2.529664e-06	-3.025414e-09	-1.976771e+01	-1.881146e+02
1.300000e-07	-2.527397e-06	-3.025444e-09	-1.974999e+01	-1.880001e+02
1.400000e-07	-2.524816e-06	-2.850020e-09	-1.972983e+01	-1.878765e+02
1.500000e-07	-2.521991e-06	-2.738883e-09	-1.970775e+01	-1.877441e+02
1.600000e-07	-2.518972e-06	-2.903828e-09	-1.968416e+01	-1.876033e+02
1.700000e-07	-2.515731e-06	-2.989045e-09	-1.965883e+01	-1.874547e+02
1.800000e-07	-2.512352e-06	-2.903240e-09	-1.963242e+01	-1.872987e+02
1.900000e-07	-2.508858e-06	-2.789813e-09	-1.960512e+01	-1.871357e+02
2.000000e-07	-2.505169e-06	-2.844522e-09	-1.957630e+01	-1.869662e+02
2.100000e-07	-2.501384e-06	-2.930463e-09	-1.954672e+01	-1.867906e+02
2.200000e-07	-2.497533e-06	-2.834695e-09	-1.951662e+01	-1.866095e+02
2.300000e-07	-2.493597e-06	-2.675725e-09	-1.948587e+01	-1.864231e+02
2.400000e-07	-2.489544e-06	-2.688251e-09	-1.945420e+01	-1.862320e+02
2.500000e-07	-2.485266e-06	-2.877505e-09	-1.942077e+01	-1.860366e+02
2.600000e-07	-2.480811e-06	-2.891262e-09	-1.938595e+01	-1.858371e+02
2.700000e-07	-2.476283e-06	-2.743004e-09	-1.935057e+01	-1.856340e+02
2.800000e-07	-2.471602e-06	-2.632646e-09	-1.931399e+01	-1.854276e+02
2.900000e-07	-2.466722e-06	-2.800861e-09	-1.927585e+01	-1.852182e+02
3.000000e-07	-2.461670e-06	-2.952028e-09	-1.923638e+01	-1.850060e+02
3.100000e-07	-2.456386e-06	-2.841826e-09	-1.919509e+01	-1.847912e+02
3.200000e-07	-2.450884e-06	-2.582155e-09	-1.915209e+01	-1.845740e+02
3.300000e-07	-2.445217e-06	-2.648465e-09	-1.910781e+01	-1.843545e+02
3.400000e-07	-2.439396e-06	-2.907940e-09	-1.906232e+01	-1.841328e+02
3.500000e-07	-2.433343e-06	-2.929569e-09	-1.901502e+01	-1.839089e+02
3.600000e-07	-2.427161e-06	-2.667194e-09	-1.896671e+01	-1.836829e+02
3.700000e-07	-2.420889e-06	-2.603830e-09	-1.891770e+01	-1.834548e+02
3.800000e-07	-2.414515e-06	-2.828879e-09	-1.886789e+01	-1.832243e+02
3.900000e-07	-2.408042e-06	-2.944478e-09	-1.881731e+01	-1.829915e+02
4.000000e-07	-2.401292e-06	-2.753418e-09	-1.876456e+01	-1.827562e+02
4.100000e-07	-2.394266e-06	-2.581197e-09	-1.870966e+01	-1.825181e+02
4.200000e-07	-2.387054e-06	-2.686902e-09	-1.865331e+01	-1.822771e+02
4.300000e-07	-2.379721e-06	-2.850408e-09	-1.859600e+01	-1.820328e+02
4.400000e-07	-2.372288e-06	-2.794219e-09	-1.853792e+01	-1.817851e+02
4.500000e-07	-2.364756e-06	-2.617479e-09	-1.847906e+01	-1.815336e+02
4.600000e-07	-2.357162e-06	-2.618698e-09	-1.841972e+01	-1.812779e+02
4.700000e-07	-2.349463e-06	-2.779632e-09	-1.835955e+01	-1.810179e+02
4.800000e-07	-2.341680e-06	-2.839136e-09	-1.829873e+01	-1.807530e+02
4.900000e-07	-2.333785e-06	-2.701403e-09	-1.823704e+01	-1.804829e+02
5.000000e-07	-2.325657e-06	-2.613169e-09	-1.817353e+01	-1.802074e+02
5.100000e-07	-2.317415e-06	-2.702600e-09	-1.810911e+01	-1.799260e+02
5.200000e-07	-2.309126e-06	-2.800503e-09	-1.804435e+01	-1.796383e+02
5.300000e-07	-2.300589e-06	-2.718323e-09	-1.797764e+01	-1.793441e+02
5.400000e-07	-2.291793e-06	-2.600941e-09	-1.790890e+01	-1.790429e+02
5.500000e-07	-2.282805e-06	-2.626685e-09	-1.783866e+01	-1.787345e+02
5.600000e-07	-2.273558e-06	-2.736723e-09	-1.776640e+01	-1.784186e+02
5.700000e-07	-2.263986e-06	-2.728962e-09	-1.769160e+01	-1.780949e+02
5.800000e-07	-2.254066e-06	-2.628571e-09	-1.761409e+01	-1.777631e+02
5.900000e-07	-2.243844e-06	-2.595436e-09	-1.753421e+01	-1.774230e+02
6.000000e-07	-2.233406e-06	-2.678614e-09	-1.745264e+01	-1.770744e+02
6.100000e-07	-2.222744e-06	-2.721154e-09	-1.736932e+01	-1.767173e+02
6.200000e-07	-2.211901e-06	-2.646448e-09	-1.728459e+01	-1.763513e+02
6.300000e-07	-2.200921e-06	-2.571159e-09	-1.719879e+01	-1.759764e+02
6.400000e-07	-2.189695e-06	-2.618431e-09	-1.711107e+01	-1.755926e+02
6.500000e-07	-2.178306e-06	-2.687975e-09	-1.702207e+01	-1.751999e+02
6.600000e-07	-2.166761e-06	-2.645856e-09	-1.693185e+01	-1.747981e+02
6.700000e-07	-2.155060e-06	-2.558644e-09	-1.684042e+01	-1.743874e+02
6.800000e-07	-2.143268e-06	-2.572158e-09	-1.674827e+01	-1.739678e+02
6.900000e-07	-2.131363e-06	-2.643879e-09	-1.665524e+01	-1.735393e+02
7.000000e-07	-2.119263e-06	-2.639011e-09	-1.656069e+01	-1.731022e+02
7.100000e-07	-2.107013e-06	-2.570087e-09	-1.646496e+01	-1.726565e+02
7.200000e-07	-2.094606e-06	-2.548811e-09	-1.636801e+01	-1.722024e+02
7.300000e-07	-2.082059e-06	-2.587064e-09	-1.626996e+01	-1.717400e+02
7.400000e-07	-2.069387e-06	-2.597801e-09	-1.617094e+01	-1.712695e+02
7.500000e-07	-2.056437e-06	-2.559780e-09	-1.606974e+01	-1.707911e+02
7.600000e-07	-2.043306e-06	-2.522577e-09	-1.596713e+01	-1.703051e+02
7.700000e-07	-2.029993e-06	-2.530747e-09	-1.586310e+01	-1.698115e+02
7.800000e-07	-2.016548e-06	-2.560053e-09	-1.575803e+01	-1.693106e+02
7.900000e-07	-2.003039e-06	-2.556147e-09	-1.565247e+01	-1.688026e+02
8.000000e-07	-1.989416e-06	-2.508428e-09	-1.554602e+01	-1.682877e+02
8.100000e-07	-1.975650e-06	-2.488137e-09	-1.543844e+01	-1.677659e+02
8.200000e-07	-1.961702e-06	-2.515706e-09	-1.532944e+01	-1.672376e+02
8.300000e-07	-1.947631e-06	-2.526437e-09	-1.521949e+01	-1.667027e+02
8.400000e-07	-1.933474e-06	-2.480673e-09	-1.510886e+01	-1.661613e+02
8.500000e-07	-1.919070e-06	-2.450315e-09	-1.499630e+01	-1.656137e+02
8.600000e-07	-1.904327e-06	-2.469059e-09	-1.488110e+01	-1.650597e+02
8.700000e-07	-1.889400e-06	-2.483564e-09	-1.476445e+01	-1.644994e+02
8.800000e-07	-1.874273e-06	-2.452238e-09	-1.464625e+01	-1.639327e+02
8.900000e-07	-1.858932e-06	-2.420839e-09	-1.452636e+01	-1.633597e+02
9.000000e-07	-1.843468e-06	-2.424424e-09	-1.440552e+01	-1.627802e+02
9.100000e-07	-1.827808e-06	-2.437162e-09	-1.428315e+01	-1.621941e+02
9.200000e-07	-1.811823e-06	-2.424629e-09	-1.415824e+01	-1.616012e+02
9.300000e-07	-1.795686e-06	-2.397448e-09	-1.403214e+01	-1.610012e+02
9.400000e-07	-1.779441e-06	-2.385007e-09	-1.390519e+01	-1.603941e+02
9.500000e-07	-1.763021e-06	-2.393081e-09	-1.377688e+01	-1.597794e+02
9.600000e-07	-1.746521e-06	-2.392556e-09	-1.364794e+01	-1.591569e+02
9.700000e-07	-1.729839e-06	-2.367370e-09	-1.351759e+01	-1.585262e+02
9.800000e-07	-1.712952e-06	-2.343452e-09	-1.338563e+01	-1.578870e+02
9.900000e-07	-1.696045e-06	-2.344358e-09	-1.325351e+01	-1.572389e+02
1.000000e-06	-1.679191e-06	-2.350132e-09	-1.312181e+01	-1.565814e+02
1.010000e-06	-1.662186e-06	-2.330179e-09	-1.298892e+01	-1.559142e+02
1.020000e-06	-1.645006e-06	-2.303256e-09	-1.285467e+01	-1.552368e+02
1.030000e-06	-1.627788e-06	-2.296924e-09	-1.272013e+01	-1.545487e+02
1.040000e-06	-1.610526e-06	-2.300711e-09	-1.258523e+01	-1.538495e+02
1.050000e-06	-1.593120e-06	-2.286599e-09	-1.244921e+01	-1.531387e+02
1.060000e-06	-1.575618e-06	-2.261664e-09	-1.231245e+01	-1.524158e+02
1.070000e-06	-1.558096e-06	-2.247493e-09	-1.217553e+01	-1.516805e+02
1.080000e-06	-1.540467e-06	-2.246552e-09	-1.203776e+01	-1.509323e+02
1.090000e-06	-1.522698e-06	-2.240515e-09	-1.189891e+01	-1.501707e+02
1.100000e-06	-1.504820e-06	-2.222873e-09	-1.175921e+01	-1.493953e+02
1.110000e-06	-1.486907e-06	-2.204022e-09	-1.161923e+01	-1.486057e+02
1.120000e-06	-1.468908e-06	-2.198212e-09	-1.147857e+01	-1.478017e+02
1.130000e-06	-1.450804e-06	-2.196346e-09	-1.133711e+01	-1.469828e+02
1.140000e-06	-1.432635e-06	-2.185319e-09	-1.119512e+01	-1.461488e+02
1.150000e-06	-1.414445e-06	-2.167787e-09	-1.105299e+01	-1.452995e+02
1.160000e-06	-1.396175e-06	-2.155023e-09	-1.091021e+01	-1.444344e+02
1.170000e-06	-1.377656e-06	-2.145761e-09	-1.076550e+01	-1.435536e+02
1.180000e-06	-1.358961e-06	-2.131684e-09	-1.061941e+01	-1.426568e+02
1.190000e-06	-1.340218e-06	-2.110712e-09	-1.047295e+01	-1.417440e+02
1.200000e-06	-1.321391e-06	-2.094849e-09	-1.032583e+01	-1.408150e+02
1.210000e-06	-1.302431e-06	-2.086513e-09	-1.017767e+01	-1.398698e+02
1.220000e-06	-1.283339e-06	-2.078455e-09	-1.002848e+01	-1.389084e+02
1.230000e-06	-1.264090e-06	-2.063013e-09	-9.878053e+00	-1.379309e+02
1.240000e-06	-1.244706e-06	-2.045316e-09	-9.726581e+00	-1.369373e+02
1.250000e-06	-1.225222e-06	-2.034475e-09	-9.574330e+00	-1.359277e+02
1.260000e-06	-1.205722e-06	-2.023694e-09	-9.421950e+00	-1.349023e+02
1.270000e-06	-1.186217e-06	-2.005508e-09	-9.269526e+00	-1.338612e+02
1.280000e-06	-1.166628e-06	-1.986746e-09	-9.116454e+00	-1.328045e+02
1.290000e-06	-1.147002e-06	-1.974027e-09	-8.963090e+00	-1.317325e+02
1.300000e-06	-1.127356e-06	-1.961204e-09	-8.809566e+00	-1.306453e+02
1.310000e-06	-1.107642e-06	-1.945434e-09	-8.655517e+00	-1.295432e+02
1.320000e-06	-1.087866e-06	-1.927386e-09	-8.500980e+00	-1.284263e+02
1.330000e-06	-1.068104e-06	-1.909804e-09	-8.346553e+00	-1.272948e+02
1.340000e-06	-1.048361e-06	-1.894321e-09	-8.192269e+00	-1.261489e+02
1.350000e-06	-1.028604e-06	-1.882529e-09	-8.037886e+00	-1.249889e+02
1.360000e-06	-1.008841e-06	-1.867078e-09	-7.883445e+00	-1.238148e+02
1.370000e-06	-9.890534e-07	-1.845756e-09	-7.728820e+00	-1.226267e+02
1.380000e-06	-9.691761e-07	-1.824872e-09	-7.573492e+00	-1.214248e+02
1.390000e-06	-9.492445e-07	-1.809411e-09	-7.417739e+00	-1.202091e+02
1.400000e-06	-9.293046e-07	-1.791657e-09	-7.261922e+00	-1.189797e+02
1.410000e-06	-9.093600e-07	-1.772706e-09	-7.106068e+00	-1.177365e+02
1.420000e-06	-8.894278e-07	-1.756849e-09	-6.950310e+00	-1.164794e+02
1.430000e-06	-8.694579e-07	-1.739969e-09	-6.794258e+00	-1.152083e+02
1.440000e-06	-8.493796e-07	-1.717907e-09	-6.637359e+00	-1.139231e+02
1.450000e-06	-8.292248e-07	-1.694230e-09	-6.479862e+00	-1.126236e+02
1.460000e-06	-8.090328e-07	-1.670085e-09	-6.322074e+00	-1.113093e+02
1.470000e-06	-7.887671e-07	-1.646248e-09	-6.163711e+00	-1.099801e+02
1.480000e-06	-7.684442e-07	-1.626130e-09	-6.004901e+00	-1.086356e+02
1.490000e-06	-7.481114e-07	-1.605678e-09	-5.846013e+00	-1.072752e+02
1.500000e-06	-7.276710e-07	-1.581572e-09	-5.686284e+00	-1.058984e+02
1.510000e-06	-7.071617e-07	-1.559613e-09	-5.526017e+00	-1.045048e+02
1.520000e-06	-6.866851e-07	-1.544216e-09	-5.366005e+00	-1.030937e+02
1.530000e-06	-6.660736e-07	-1.525476e-09	-5.204940e+00	-1.016645e+02
1.540000e-06	-6.453451e-07	-1.500794e-09	-5.042960e+00	-1.002164e+02
1.550000e-06	-6.246544e-07	-1.476906e-09	-4.881275e+00	-9.874876e+01
1.560000e-06	-6.038971e-07	-1.455445e-09	-4.719070e+00	-9.726078e+01
1.570000e-06	-5.830641e-07	-1.430278e-09	-4.556274e+00	-9.575167e+01
1.580000e-06	-5.622126e-07	-1.400156e-09	-4.393332e+00	-9.422062e+01
1.590000e-06	-5.412317e-07	-1.372712e-09	-4.229380e+00	-9.266679e+01
1.600000e-06	-5.201429e-07	-1.348769e-09	-4.064585e+00	-9.108935e+01
1.610000e-06	-4.990569e-07	-1.325894e-09	-3.899811e+00	-8.948746e+01
1.620000e-06	-4.780428e-07	-1.303549e-09	-3.735599e+00	-8.786029e+01
1.630000e-06	-4.570297e-07	-1.279808e-09	-3.571395e+00	-8.620702e+01
1.640000e-06	-4.359204e-07	-1.254950e-09	-3.406439e+00	-8.452686e+01
1.650000e-06	-4.147517e-07	-1.230000e-09	-3.241020e+00	-8.281903e+01
1.660000e-06	-3.934895e-07	-1.204665e-09	-3.074869e+00	-8.108281e+01
1.670000e-06	-3.722030e-07	-1.176757e-09	-2.908529e+00	-7.931752e+01
1.680000e-06	-3.509837e-07	-1.145339e-09	-2.742714e+00	-7.752252e+01
1.690000e-06	-3.297065e-07	-1.114984e-09	-2.576445e+00	-7.569726e+01
1.700000e-06	-3.083689e-07	-1.088962e-09	-2.409706e+00	-7.384121e+01
1.710000e-06	-2.871361e-07	-1.062447e-09	-2.243785e+00	-7.195397e+01
1.720000e-06	-2.658906e-07	-1.032918e-09	-2.077766e+00	-7.003517e+01
1.730000e-06	-2.445443e-07	-1.004114e-09	-1.910958e+00	-6.808456e+01
1.740000e-06	-2.231327e-07	-9.780737e-10	-1.743640e+00	-6.610195e+01
1.750000e-06	-2.016677e-07	-9.490999e-10	-1.575904e+00	-6.408728e+01
1.760000e-06	-1.802500e-07	-9.145040e-10	-1.408539e+00	-6.204055e+01
1.770000e-06	-1.587848e-07	-8.804020e-10	-1.240801e+00	-5.996188e+01
1.780000e-06	-1.372457e-07	-8.501695e-10	-1.072488e+00	-5.785151e+01
1.790000e-06	-1.157038e-07	-8.172981e-10	-9.041514e-01	-5.570976e+01
1.800000e-06	-9.424347e-08	-7.822001e-10	-7.364526e-01	-5.353706e+01
1.810000e-06	-7.277744e-08	-7.503010e-10	-5.687092e-01	-5.133394e+01
1.820000e-06	-5.121042e-08	-7.189825e-10	-4.001767e-01	-4.910107e+01
1.830000e-06	-2.967410e-08	-6.843222e-10	-2.318841e-01	-4.683917e+01
1.840000e-06	-8.214895e-09	-6.494646e-10	-6.419416e-02	-4.454911e+01
1.850000e-06	1.323456e-08	-6.155240e-10	1.034196e-01	-4.223182e+01
1.860000e-06	3.466815e-08	-5.827433e-10	2.709095e-01	-3.988834e+01
1.870000e-06	5.613487e-08	-5.497893e-10	4.386581e-01	-3.751981e+01
1.880000e-06	7.761925e-08	-5.137757e-10	6.065449e-01	-3.512744e+01
1.890000e-06	9.911679e-08	-4.762691e-10	7.745344e-01	-3.271252e+01
1.900000e-06	1.205909e-07	-4.404625e-10	9.423406e-01	-3.027641e+01
1.910000e-06	1.420070e-07	-4.066208e-10	1.109694e+00	-2.782055e+01
1.920000e-06	1.634454e-07	-3.707497e-10	1.277222e+00	-2.534643e+01
1.930000e-06	1.849080e-07	-3.334726e-10	1.444938e+00	-2.285558e+01
1.940000e-06	2.063777e-07	-2.969723e-10	1.612710e+00	-2.034959e+01
1.950000e-06	2.277821e-07	-2.628744e-10	1.779972e+00	-1.783008e+01
1.960000e-06	2.491586e-07	-2.293814e-10	1.947015e+00	-1.529869e+01
1.970000e-06	2.704780e-07	-1.919138e-10	2.113613e+00	-1.275710e+01
1.980000e-06	2.917417e-07	-1.521112e-10	2.279775e+00	-1.020698e+01
1.990000e-06	3.130701e-07	-1.143316e-10	2.446443e+00	-7.650014e+00
2.000000e-06	3.344482e-07	-7.889638e-11	2.613499e+00	-5.087876e+00
2.010000e-06	3.556937e-07	-4.135264e-11	2.779519e+00	-2.522232e+00
2.020000e-06	3.768148e-07	-1.177247e-12	2.944567e+00	4.527430e-02
2.030000e-06	3.979316e-07	3.795039e-11	3.109582e+00	2.613025e+00
2.040000e-06	4.190928e-07	7.520248e-11	3.274943e+00	5.179435e+00
2.050000e-06	4.402661e-07	1.107552e-10	3.440399e+00	7.742960e+00
2.060000e-06	4.614239e-07	1.480114e-10	3.605733e+00	1.030210e+01
2.070000e-06	4.825407e-07	1.861398e-10	3.770747e+00	1.285541e+01
2.080000e-06	5.035617e-07	2.230708e-10	3.935013e+00	1.540150e+01
2.090000e-06	5.244730e-07	2.575499e-10	4.098422e+00	1.793902e+01
2.100000e-06	5.453442e-07	2.929891e-10	4.261517e+00	2.046672e+01
2.110000e-06	5.662086e-07	3.301982e-10	4.424559e+00	2.298339e+01
2.120000e-06	5.869662e-07	3.665187e-10	4.586766e+00	2.548789e+01
2.130000e-06	6.076824e-07	4.025008e-10	4.748650e+00	2.797915e+01
2.140000e-06	6.284467e-07	4.367512e-10	4.910910e+00	3.045618e+01
2.150000e-06	6.491470e-07	4.711490e-10	5.072669e+00	3.291805e+01
2.160000e-06	6.697328e-07	5.072245e-10	5.233534e+00	3.536392e+01
2.170000e-06	6.903281e-07	5.428726e-10	5.394473e+00	3.779298e+01
2.180000e-06	7.108536e-07	5.759491e-10	5.554867e+00	4.020454e+01
2.190000e-06	7.311952e-07	6.084870e-10	5.713824e+00	4.259794e+01
2.200000e-06	7.514105e-07	6.428267e-10	5.871793e+00	4.497259e+01
2.210000e-06	7.716522e-07	6.782136e-10	6.029970e+00	4.732797e+01
2.220000e-06	7.918723e-07	7.127136e-10	6.187977e+00	4.966363e+01
2.230000e-06	8.119843e-07	7.471364e-10	6.345139e+00	5.197914e+01
2.240000e-06	8.320923e-07	7.835713e-10	6.502270e+00	5.427415e+01
2.250000e-06	8.521642e-07	8.207003e-10	6.659119e+00	5.654835e+01
2.260000e-06	8.721243e-07	8.556172e-10	6.815095e+00	5.880148e+01
2.270000e-06	8.920289e-07	8.880573e-10	6.970636e+00	6.103330e+01
2.280000e-06	9.119468e-07	9.200265e-10	7.126282e+00	6.324363e+01
2.290000e-06	9.318561e-07	9.544696e-10	7.281861e+00	6.543229e+01
2.300000e-06	9.517173e-07	9.881288e-10	7.437063e+00	6.759916e+01
2.310000e-06	9.715290e-07	1.019524e-09	7.591879e+00	6.974411e+01
2.320000e-06	9.913224e-07	1.052415e-09	7.746551e+00	7.186705e+01
2.330000e-06	1.011121e-06	1.086962e-09	7.901268e+00	7.396791e+01
2.340000e-06	1.030899e-06	1.119420e-09	8.055814e+00	7.604660e+01
2.350000e-06	1.050658e-06	1.150470e-09	8.210220e+00	7.810307e+01
2.360000e-06	1.070410e-06	1.179730e-09	8.364574e+00	8.013725e+01
2.370000e-06	1.090153e-06	1.206523e-09	8.518847e+00	8.214909e+01
2.380000e-06	1.109867e-06	1.235851e-09	8.672905e+00	8.413853e+01
2.390000e-06	1.129572e-06	1.267151e-09	8.826880e+00	8.610550e+01
2.400000e-06	1.149220e-06	1.296064e-09	8.980422e+00	8.804995e+01
2.410000e-06	1.168753e-06	1.321955e-09	9.133059e+00	8.997180e+01
2.420000e-06	1.188205e-06	1.349761e-09	9.285061e+00	9.187097e+01
2.430000e-06	1.207610e-06	1.379731e-09	9.436698e+00	9.374739e+01
2.440000e-06	1.227010e-06	1.407272e-09	9.588301e+00	9.560096e+01
2.450000e-06	1.246328e-06	1.433683e-09	9.739260e+00	9.743158e+01
2.460000e-06	1.265482e-06	1.461043e-09	9.888937e+00	9.923916e+01
2.470000e-06	1.284579e-06	1.488220e-09	1.003816e+01	1.010236e+02
2.480000e-06	1.303606e-06	1.514751e-09	1.018685e+01	1.027847e+02
2.490000e-06	1.322514e-06	1.537985e-09	1.033460e+01	1.045225e+02
2.500000e-06	1.341330e-06	1.560319e-09	1.048164e+01	1.062368e+02
2.510000e-06	1.360102e-06	1.585753e-09	1.062833e+01	1.079275e+02
2.520000e-06	1.378691e-06	1.610304e-09	1.077359e+01	1.095945e+02
2.530000e-06	1.397033e-06	1.632614e-09	1.091692e+01	1.112377e+02
2.540000e-06	1.415354e-06	1.656920e-09	1.106008e+01	1.128569e+02
2.550000e-06	1.433635e-06	1.681840e-09	1.120294e+01	1.144522e+02
2.560000e-06	1.451791e-06	1.704689e-09	1.134482e+01	1.160234e+02
2.570000e-06	1.469817e-06	1.726812e-09	1.148568e+01	1.175706e+02
2.580000e-06	1.487662e-06	1.749453e-09	1.162513e+01	1.190935e+02
2.590000e-06	1.505353e-06	1.771610e-09	1.176337e+01	1.205923e+02
2.600000e-06	1.522956e-06	1.793345e-09	1.190093e+01	1.220669e+02
2.610000e-06	1.540518e-06	1.815142e-09	1.203816e+01	1.235174e+02
2.620000e-06	1.557944e-06	1.836662e-09	1.217434e+01	1.249438e+02
2.630000e-06	1.575194e-06	1.857790e-09	1.230913e+01	1.263462e+02
2.640000e-06	1.592450e-06	1.879514e-09	1.244398e+01	1.277246e+02
2.650000e-06	1.609666e-06	1.901815e-09	1.257851e+01	1.290793e+02
2.660000e-06	1.626736e-06	1.924224e-09	1.271190e+01	1.304104e+02
2.670000e-06	1.643797e-06	1.945363e-09	1.284523e+01	1.317180e+02
2.680000e-06	1.660874e-06	1.964022e-09	1.297867e+01	1.330024e+02
2.690000e-06	1.677831e-06	1.982697e-09	1.311118e+01	1.342638e+02
2.700000e-06	1.694695e-06	2.000547e-09	1.324296e+01	1.355024e+02
2.710000e-06	1.711485e-06	2.016823e-09	1.337416e+01	1.367187e+02
2.720000e-06	1.728154e-06	2.033101e-09	1.350442e+01	1.379129e+02
2.730000e-06	1.744710e-06	2.052331e-09	1.363379e+01	1.390853e+02
2.740000e-06	1.761029e-06	2.072640e-09	1.376131e+01	1.402363e+02
2.750000e-06	1.777117e-06	2.092014e-09	1.388704e+01	1.413662e+02
2.760000e-06	1.793241e-06	2.110728e-09	1.401303e+01	1.424756e+02
2.770000e-06	1.809197e-06	2.128235e-09	1.413772e+01	1.435647e+02
2.780000e-06	1.824874e-06	2.145216e-09	1.426023e+01	1.446340e+02
2.790000e-06	1.840328e-06	2.162976e-09	1.438098e+01	1.456840e+02
2.800000e-06	1.855494e-06	2.180128e-09	1.449950e+01	1.467151e+02
2.810000e-06	1.870531e-06	2.195075e-09	1.461701e+01	1.477276e+02
2.820000e-06	1.885482e-06	2.210774e-09	1.473384e+01	1.487221e+02
2.830000e-06	1.900291e-06	2.228078e-09	1.484956e+01	1.496990e+02
2.840000e-06	1.914902e-06	2.244946e-09	1.496374e+01	1.506587e+02
2.850000e-06	1.929248e-06	2.260337e-09	1.507584e+01	1.516017e+02
2.860000e-06	1.943441e-06	2.273992e-09	1.518675e+01	1.525282e+02
2.870000e-06	1.957626e-06	2.289098e-09	1.529760e+01	1.534389e+02
2.880000e-06	1.971707e-06	2.304665e-09	1.540763e+01	1.543340e+02
2.890000e-06	1.985559e-06	2.318425e-09	1.551588e+01	1.552138e+02
2.900000e-06	1.999176e-06	2.332419e-09	1.562228e+01	1.560788e+02
