# Temperatura_=_20.0
# Concentracion g/m^3_=_9000.0
# C_Vs_to_Am_M_A/Vsm_=_65563218390.804596
# pendiente_HvsI_1/m_=_3716.3
# ordenada_HvsI_A/m_=_1297.0
# frecuencia_Hz_=_134932.47135728487

Tiempo_(s)	Campo_(V.s)	Magnetizacion_(V.s)	Campo_(kA/m)	Magnetizacion_(A/m)
0.000000e+00	-2.549191e-06	-2.830793e-09	-1.983370e+01	-1.898745e+02
1.000000e-08	-2.549478e-06	-2.826832e-09	-1.983593e+01	-1.899357e+02
2.000000e-08	-2.549626e-06	-2.863126e-09	-1.983708e+01	-1.899886e+02
3.000000e-08	-2.549593e-06	-2.901862e-09	-1.983682e+01	-1.900331e+02
4.000000e-08	-2.549431e-06	-2.883523e-09	-1.983556e+01	-1.900694e+02
5.000000e-08	-2.549161e-06	-2.894204e-09	-1.983346e+01	-1.900976e+02
6.000000e-08	-2.548686e-06	-3.016537e-09	-1.982976e+01	-1.901176e+02
7.000000e-08	-2.548045e-06	-3.058364e-09	-1.982477e+01	-1.901296e+02
8.000000e-08	-2.547217e-06	-2.892012e-09	-1.981834e+01	-1.901337e+02
9.000000e-08	-2.546069e-06	-2.678742e-09	-1.980940e+01	-1.901299e+02
1.000000e-07	-2.544501e-06	-2.618689e-09	-1.979721e+01	-1.901183e+02
1.100000e-07	-2.542572e-06	-2.826216e-09	-1.978220e+01	-1.900991e+02
1.200000e-07	-2.540422e-06	-3.046305e-09	-1.976547e+01	-1.900724e+02
1.300000e-07	-2.537985e-06	-2.936441e-09	-1.974651e+01	-1.900382e+02
1.400000e-07	-2.535266e-06	-2.727659e-09	-1.972535e+01	-1.899967e+02
1.500000e-07	-2.532348e-06	-2.798973e-09	-1.970265e+01	-1.899480e+02
1.600000e-07	-2.529254e-06	-3.034694e-09	-1.967858e+01	-1.898921e+02
1.700000e-07	-2.525968e-06	-2.985309e-09	-1.965301e+01	-1.898292e+02
1.800000e-07	-2.522516e-06	-2.742917e-09	-1.962615e+01	-1.897594e+02
1.900000e-07	-2.518940e-06	-2.728708e-09	-1.959833e+01	-1.896829e+02
2.000000e-07	-2.515268e-06	-3.006664e-09	-1.956976e+01	-1.895995e+02
2.100000e-07	-2.511563e-06	-3.076606e-09	-1.954093e+01	-1.895096e+02
2.200000e-07	-2.507738e-06	-2.777573e-09	-1.951118e+01	-1.894132e+02
2.300000e-07	-2.503725e-06	-2.580010e-09	-1.947995e+01	-1.893102e+02
2.400000e-07	-2.499595e-06	-2.808968e-09	-1.944782e+01	-1.892009e+02
2.500000e-07	-2.495365e-06	-3.099719e-09	-1.941491e+01	-1.890853e+02
2.600000e-07	-2.491037e-06	-2.957152e-09	-1.938123e+01	-1.889633e+02
2.700000e-07	-2.486511e-06	-2.611620e-09	-1.934602e+01	-1.888351e+02
2.800000e-07	-2.481664e-06	-2.615450e-09	-1.930831e+01	-1.887007e+02
2.900000e-07	-2.476629e-06	-3.011644e-09	-1.926913e+01	-1.885601e+02
3.000000e-07	-2.471442e-06	-3.134226e-09	-1.922878e+01	-1.884132e+02
3.100000e-07	-2.466045e-06	-2.760350e-09	-1.918678e+01	-1.882601e+02
3.200000e-07	-2.460424e-06	-2.491448e-09	-1.914305e+01	-1.881007e+02
3.300000e-07	-2.454629e-06	-2.794734e-09	-1.909797e+01	-1.879350e+02
3.400000e-07	-2.448784e-06	-3.132815e-09	-1.905249e+01	-1.877629e+02
3.500000e-07	-2.442766e-06	-2.929321e-09	-1.900566e+01	-1.875844e+02
3.600000e-07	-2.436489e-06	-2.546923e-09	-1.895683e+01	-1.873993e+02
3.700000e-07	-2.430072e-06	-2.650712e-09	-1.890690e+01	-1.872077e+02
3.800000e-07	-2.423583e-06	-3.038459e-09	-1.885642e+01	-1.870093e+02
3.900000e-07	-2.416951e-06	-3.048152e-09	-1.880481e+01	-1.868041e+02
4.000000e-07	-2.410057e-06	-2.692046e-09	-1.875117e+01	-1.865919e+02
4.100000e-07	-2.402922e-06	-2.575780e-09	-1.869566e+01	-1.863726e+02
4.200000e-07	-2.395637e-06	-2.854161e-09	-1.863898e+01	-1.861460e+02
4.300000e-07	-2.388224e-06	-3.021944e-09	-1.858131e+01	-1.859121e+02
4.400000e-07	-2.380716e-06	-2.808151e-09	-1.852290e+01	-1.856706e+02
4.500000e-07	-2.373114e-06	-2.581375e-09	-1.846375e+01	-1.854214e+02
4.600000e-07	-2.365437e-06	-2.706905e-09	-1.840401e+01	-1.851644e+02
4.700000e-07	-2.357694e-06	-2.944736e-09	-1.834377e+01	-1.848993e+02
4.800000e-07	-2.349900e-06	-2.898900e-09	-1.828313e+01	-1.846261e+02
4.900000e-07	-2.341999e-06	-2.665272e-09	-1.822166e+01	-1.843446e+02
5.000000e-07	-2.333918e-06	-2.646529e-09	-1.815879e+01	-1.840546e+02
5.100000e-07	-2.325726e-06	-2.851636e-09	-1.809505e+01	-1.837561e+02
5.200000e-07	-2.317300e-06	-2.914043e-09	-1.802949e+01	-1.834488e+02
5.300000e-07	-2.308602e-06	-2.725770e-09	-1.796182e+01	-1.831328e+02
5.400000e-07	-2.299688e-06	-2.608456e-09	-1.789246e+01	-1.828078e+02
5.500000e-07	-2.290477e-06	-2.735121e-09	-1.782080e+01	-1.824738e+02
5.600000e-07	-2.280981e-06	-2.867591e-09	-1.774692e+01	-1.821308e+02
5.700000e-07	-2.271122e-06	-2.774711e-09	-1.767021e+01	-1.817786e+02
5.800000e-07	-2.260910e-06	-2.618670e-09	-1.759075e+01	-1.814172e+02
5.900000e-07	-2.250565e-06	-2.651552e-09	-1.751026e+01	-1.810467e+02
6.000000e-07	-2.240017e-06	-2.797517e-09	-1.742820e+01	-1.806670e+02
6.100000e-07	-2.229110e-06	-2.792695e-09	-1.734334e+01	-1.802781e+02
6.200000e-07	-2.217968e-06	-2.641257e-09	-1.725665e+01	-1.798801e+02
6.300000e-07	-2.206763e-06	-2.595635e-09	-1.716947e+01	-1.794731e+02
6.400000e-07	-2.195486e-06	-2.716894e-09	-1.708173e+01	-1.790570e+02
6.500000e-07	-2.184009e-06	-2.773369e-09	-1.699243e+01	-1.786321e+02
6.600000e-07	-2.172325e-06	-2.661212e-09	-1.690153e+01	-1.781983e+02
6.700000e-07	-2.160540e-06	-2.574461e-09	-1.680984e+01	-1.777559e+02
6.800000e-07	-2.148638e-06	-2.645571e-09	-1.671724e+01	-1.773050e+02
6.900000e-07	-2.136609e-06	-2.725790e-09	-1.662364e+01	-1.768457e+02
7.000000e-07	-2.124462e-06	-2.673826e-09	-1.652913e+01	-1.763782e+02
7.100000e-07	-2.112122e-06	-2.585293e-09	-1.643313e+01	-1.759027e+02
7.200000e-07	-2.099558e-06	-2.594997e-09	-1.633537e+01	-1.754193e+02
7.300000e-07	-2.086818e-06	-2.661935e-09	-1.623625e+01	-1.749283e+02
7.400000e-07	-2.073916e-06	-2.663694e-09	-1.613587e+01	-1.744299e+02
7.500000e-07	-2.060801e-06	-2.594523e-09	-1.603383e+01	-1.739242e+02
7.600000e-07	-2.047535e-06	-2.554572e-09	-1.593061e+01	-1.734114e+02
7.700000e-07	-2.034142e-06	-2.594715e-09	-1.582641e+01	-1.728917e+02
7.800000e-07	-2.020625e-06	-2.636088e-09	-1.572125e+01	-1.723653e+02
7.900000e-07	-2.007010e-06	-2.597275e-09	-1.561532e+01	-1.718325e+02
8.000000e-07	-1.993244e-06	-2.531426e-09	-1.550821e+01	-1.712932e+02
8.100000e-07	-1.979303e-06	-2.541733e-09	-1.539974e+01	-1.707477e+02
8.200000e-07	-1.965179e-06	-2.591948e-09	-1.528986e+01	-1.701962e+02
8.300000e-07	-1.950852e-06	-2.573944e-09	-1.517838e+01	-1.696387e+02
8.400000e-07	-1.936393e-06	-2.505172e-09	-1.506589e+01	-1.690752e+02
8.500000e-07	-1.921718e-06	-2.492275e-09	-1.495171e+01	-1.685060e+02
8.600000e-07	-1.906809e-06	-2.533693e-09	-1.483571e+01	-1.679309e+02
8.700000e-07	-1.891747e-06	-2.536893e-09	-1.471852e+01	-1.673501e+02
8.800000e-07	-1.876486e-06	-2.485692e-09	-1.459978e+01	-1.667635e+02
8.900000e-07	-1.860954e-06	-2.456388e-09	-1.447894e+01	-1.661710e+02
9.000000e-07	-1.845104e-06	-2.476960e-09	-1.435562e+01	-1.655726e+02
9.100000e-07	-1.829034e-06	-2.492139e-09	-1.423059e+01	-1.649682e+02
9.200000e-07	-1.812866e-06	-2.464293e-09	-1.410480e+01	-1.643576e+02
9.300000e-07	-1.796571e-06	-2.427978e-09	-1.397802e+01	-1.637407e+02
9.400000e-07	-1.780146e-06	-2.428182e-09	-1.385022e+01	-1.631172e+02
9.500000e-07	-1.763643e-06	-2.450813e-09	-1.372183e+01	-1.624869e+02
9.600000e-07	-1.746945e-06	-2.445060e-09	-1.359191e+01	-1.618496e+02
9.700000e-07	-1.730097e-06	-2.406177e-09	-1.346082e+01	-1.612049e+02
9.800000e-07	-1.713189e-06	-2.386331e-09	-1.332928e+01	-1.605525e+02
9.900000e-07	-1.696216e-06	-2.404621e-09	-1.319721e+01	-1.598922e+02
1.000000e-06	-1.679081e-06	-2.412699e-09	-1.306390e+01	-1.592234e+02
1.010000e-06	-1.661855e-06	-2.381212e-09	-1.292987e+01	-1.585459e+02
1.020000e-06	-1.644656e-06	-2.351471e-09	-1.279606e+01	-1.578592e+02
1.030000e-06	-1.627385e-06	-2.357237e-09	-1.266169e+01	-1.571628e+02
1.040000e-06	-1.610019e-06	-2.368344e-09	-1.252657e+01	-1.564565e+02
1.050000e-06	-1.592581e-06	-2.349667e-09	-1.239090e+01	-1.557396e+02
1.060000e-06	-1.575085e-06	-2.319535e-09	-1.225477e+01	-1.550117e+02
1.070000e-06	-1.557507e-06	-2.309150e-09	-1.211801e+01	-1.542724e+02
1.080000e-06	-1.539797e-06	-2.313315e-09	-1.198021e+01	-1.535213e+02
1.090000e-06	-1.521972e-06	-2.305801e-09	-1.184153e+01	-1.527578e+02
1.100000e-06	-1.504087e-06	-2.282463e-09	-1.170238e+01	-1.519816e+02
1.110000e-06	-1.486241e-06	-2.264184e-09	-1.156353e+01	-1.511921e+02
1.120000e-06	-1.468315e-06	-2.261175e-09	-1.142406e+01	-1.503889e+02
1.130000e-06	-1.450122e-06	-2.257177e-09	-1.128251e+01	-1.495717e+02
1.140000e-06	-1.431761e-06	-2.240640e-09	-1.113965e+01	-1.487401e+02
1.150000e-06	-1.413332e-06	-2.220882e-09	-1.099627e+01	-1.478936e+02
1.160000e-06	-1.394784e-06	-2.208780e-09	-1.085196e+01	-1.470319e+02
1.170000e-06	-1.376112e-06	-2.199208e-09	-1.070668e+01	-1.461547e+02
1.180000e-06	-1.357270e-06	-2.182426e-09	-1.056009e+01	-1.452617e+02
1.190000e-06	-1.338282e-06	-2.161293e-09	-1.041235e+01	-1.443526e+02
1.200000e-06	-1.319275e-06	-2.145381e-09	-1.026447e+01	-1.434272e+02
1.210000e-06	-1.300173e-06	-2.136701e-09	-1.011585e+01	-1.424853e+02
1.220000e-06	-1.280988e-06	-2.126726e-09	-9.966585e+00	-1.415266e+02
1.230000e-06	-1.261678e-06	-2.108724e-09	-9.816341e+00	-1.405512e+02
1.240000e-06	-1.242200e-06	-2.091710e-09	-9.664795e+00	-1.395587e+02
1.250000e-06	-1.222722e-06	-2.081509e-09	-9.513253e+00	-1.385492e+02
1.260000e-06	-1.203235e-06	-2.069841e-09	-9.361635e+00	-1.375226e+02
1.270000e-06	-1.183666e-06	-2.051123e-09	-9.209376e+00	-1.364788e+02
1.280000e-06	-1.164060e-06	-2.032511e-09	-9.056837e+00	-1.354179e+02
1.290000e-06	-1.144433e-06	-2.020346e-09	-8.904134e+00	-1.343398e+02
1.300000e-06	-1.124784e-06	-2.008151e-09	-8.751258e+00	-1.332447e+02
1.310000e-06	-1.105112e-06	-1.991512e-09	-8.598197e+00	-1.321325e+02
1.320000e-06	-1.085412e-06	-1.972620e-09	-8.444927e+00	-1.310034e+02
1.330000e-06	-1.065713e-06	-1.954614e-09	-8.291661e+00	-1.298573e+02
1.340000e-06	-1.045996e-06	-1.938691e-09	-8.138252e+00	-1.286945e+02
1.350000e-06	-1.026237e-06	-1.923679e-09	-7.984522e+00	-1.275150e+02
1.360000e-06	-1.006439e-06	-1.904485e-09	-7.830487e+00	-1.263189e+02
1.370000e-06	-9.865230e-07	-1.882654e-09	-7.675531e+00	-1.251062e+02
1.380000e-06	-9.665853e-07	-1.865181e-09	-7.520408e+00	-1.238772e+02
1.390000e-06	-9.467017e-07	-1.850838e-09	-7.365706e+00	-1.226318e+02
1.400000e-06	-9.268196e-07	-1.833903e-09	-7.211016e+00	-1.213701e+02
1.410000e-06	-9.069294e-07	-1.816429e-09	-7.056262e+00	-1.200921e+02
1.420000e-06	-8.869317e-07	-1.802065e-09	-6.900672e+00	-1.187980e+02
1.430000e-06	-8.668255e-07	-1.786630e-09	-6.744238e+00	-1.174876e+02
1.440000e-06	-8.467092e-07	-1.766599e-09	-6.587726e+00	-1.161609e+02
1.450000e-06	-8.265689e-07	-1.743469e-09	-6.431026e+00	-1.148179e+02
1.460000e-06	-8.062886e-07	-1.719409e-09	-6.273237e+00	-1.134585e+02
1.470000e-06	-7.858803e-07	-1.699467e-09	-6.114453e+00	-1.120825e+02
1.480000e-06	-7.654760e-07	-1.682622e-09	-5.955700e+00	-1.106897e+02
1.490000e-06	-7.450150e-07	-1.660210e-09	-5.796505e+00	-1.092800e+02
1.500000e-06	-7.244086e-07	-1.633246e-09	-5.636179e+00	-1.078531e+02
1.510000e-06	-7.037664e-07	-1.613096e-09	-5.475575e+00	-1.064086e+02
1.520000e-06	-6.831157e-07	-1.597148e-09	-5.314904e+00	-1.049463e+02
1.530000e-06	-6.624153e-07	-1.575607e-09	-5.153848e+00	-1.034657e+02
1.540000e-06	-6.416475e-07	-1.550861e-09	-4.992266e+00	-1.019665e+02
1.550000e-06	-6.207739e-07	-1.528627e-09	-4.829861e+00	-1.004481e+02
1.560000e-06	-5.998558e-07	-1.508350e-09	-4.667110e+00	-9.891013e+01
1.570000e-06	-5.788973e-07	-1.483686e-09	-4.504045e+00	-9.735202e+01
1.580000e-06	-5.577938e-07	-1.454997e-09	-4.339852e+00	-9.577321e+01
1.590000e-06	-5.366842e-07	-1.428118e-09	-4.175611e+00	-9.417311e+01
1.600000e-06	-5.156579e-07	-1.404684e-09	-4.012018e+00	-9.255112e+01
1.610000e-06	-4.945756e-07	-1.382350e-09	-3.847990e+00	-9.090660e+01
1.620000e-06	-4.733999e-07	-1.357341e-09	-3.683234e+00	-8.923892e+01
1.630000e-06	-4.521316e-07	-1.330355e-09	-3.517759e+00	-8.754742e+01
1.640000e-06	-4.308142e-07	-1.305907e-09	-3.351901e+00	-8.583146e+01
1.650000e-06	-4.095208e-07	-1.282793e-09	-3.186230e+00	-8.409038e+01
1.660000e-06	-3.882478e-07	-1.255673e-09	-3.020718e+00	-8.232353e+01
1.670000e-06	-3.669647e-07	-1.223687e-09	-2.855128e+00	-8.053030e+01
1.680000e-06	-3.456545e-07	-1.191987e-09	-2.689326e+00	-7.871008e+01
1.690000e-06	-3.242836e-07	-1.164822e-09	-2.523052e+00	-7.686230e+01
1.700000e-06	-3.028791e-07	-1.138313e-09	-2.356516e+00	-7.498640e+01
1.710000e-06	-2.814297e-07	-1.106650e-09	-2.189632e+00	-7.308188e+01
1.720000e-06	-2.599361e-07	-1.074627e-09	-2.022403e+00	-7.114830e+01
1.730000e-06	-2.384736e-07	-1.049241e-09	-1.855417e+00	-6.918525e+01
1.740000e-06	-2.170097e-07	-1.024068e-09	-1.688420e+00	-6.719238e+01
1.750000e-06	-1.955588e-07	-9.909624e-10	-1.521523e+00	-6.516942e+01
1.760000e-06	-1.741231e-07	-9.541984e-10	-1.354745e+00	-6.311615e+01
1.770000e-06	-1.526217e-07	-9.215542e-10	-1.187456e+00	-6.103246e+01
1.780000e-06	-1.310529e-07	-8.905268e-10	-1.019642e+00	-5.891828e+01
1.790000e-06	-1.095082e-07	-8.566261e-10	-8.520160e-01	-5.677365e+01
1.800000e-06	-8.799133e-08	-8.211542e-10	-6.846066e-01	-5.459868e+01
1.810000e-06	-6.647039e-08	-7.876202e-10	-5.171654e-01	-5.239359e+01
1.820000e-06	-4.495092e-08	-7.564596e-10	-3.497356e-01	-5.015868e+01
1.830000e-06	-2.338322e-08	-7.231659e-10	-1.819305e-01	-4.789434e+01
1.840000e-06	-1.787107e-09	-6.866951e-10	-1.390439e-02	-4.560108e+01
1.850000e-06	1.978993e-08	-6.507093e-10	1.539733e-01	-4.327948e+01
1.860000e-06	4.137333e-08	-6.161718e-10	3.219005e-01	-4.093024e+01
1.870000e-06	6.291923e-08	-5.800612e-10	4.895360e-01	-3.855415e+01
1.880000e-06	8.439848e-08	-5.434067e-10	6.566528e-01	-3.615207e+01
1.890000e-06	1.058702e-07	-5.073965e-10	8.237114e-01	-3.372500e+01
1.900000e-06	1.273875e-07	-4.715678e-10	9.911241e-01	-3.127400e+01
1.910000e-06	1.489408e-07	-4.352774e-10	1.158817e+00	-2.880022e+01
1.920000e-06	1.704645e-07	-3.986096e-10	1.326280e+00	-2.630490e+01
1.930000e-06	1.919709e-07	-3.614733e-10	1.493608e+00	-2.378935e+01
1.940000e-06	2.135123e-07	-3.246123e-10	1.661208e+00	-2.125498e+01
1.950000e-06	2.350102e-07	-2.884515e-10	1.828470e+00	-1.870323e+01
1.960000e-06	2.564384e-07	-2.524902e-10	1.995190e+00	-1.613565e+01
1.970000e-06	2.778482e-07	-2.150947e-10	2.161767e+00	-1.355380e+01
1.980000e-06	2.992583e-07	-1.772382e-10	2.328346e+00	-1.095932e+01
1.990000e-06	3.206657e-07	-1.411678e-10	2.494903e+00	-8.353881e+00
2.000000e-06	3.420710e-07	-1.047408e-10	2.661445e+00	-5.739201e+00
2.010000e-06	3.633915e-07	-6.587062e-11	2.827326e+00	-3.117017e+00
2.020000e-06	3.846357e-07	-2.540217e-11	2.992614e+00	-4.890886e-01
2.030000e-06	4.059517e-07	1.287559e-11	3.158461e+00	2.142810e+00
2.040000e-06	4.272798e-07	4.899549e-11	3.324402e+00	4.776898e+00
2.050000e-06	4.485071e-07	8.730994e-11	3.489559e+00	7.411400e+00
2.060000e-06	4.696189e-07	1.269140e-10	3.653817e+00	1.004455e+01
2.070000e-06	4.906975e-07	1.641058e-10	3.817817e+00	1.267459e+01
2.080000e-06	5.117778e-07	2.005635e-10	3.981829e+00	1.529981e+01
2.090000e-06	5.328004e-07	2.375689e-10	4.145393e+00	1.791850e+01
2.100000e-06	5.538617e-07	2.750775e-10	4.309258e+00	2.052901e+01
2.110000e-06	5.749931e-07	3.128436e-10	4.473669e+00	2.312973e+01
2.120000e-06	5.960275e-07	3.498418e-10	4.637325e+00	2.571911e+01
2.130000e-06	6.170260e-07	3.858386e-10	4.800702e+00	2.829563e+01
2.140000e-06	6.380293e-07	4.212213e-10	4.964115e+00	3.085785e+01
2.150000e-06	6.589336e-07	4.569143e-10	5.126758e+00	3.340441e+01
2.160000e-06	6.797174e-07	4.935374e-10	5.288465e+00	3.593398e+01
2.170000e-06	7.003446e-07	5.296522e-10	5.448952e+00	3.844535e+01
2.180000e-06	7.208004e-07	5.634091e-10	5.608106e+00	4.093735e+01
2.190000e-06	7.411294e-07	5.982419e-10	5.766274e+00	4.340890e+01
2.200000e-06	7.614666e-07	6.357259e-10	5.924505e+00	4.585901e+01
2.210000e-06	7.818558e-07	6.724664e-10	6.083141e+00	4.828676e+01
2.220000e-06	8.021916e-07	7.060228e-10	6.241361e+00	5.069132e+01
2.230000e-06	8.224164e-07	7.400403e-10	6.398718e+00	5.307194e+01
2.240000e-06	8.425899e-07	7.749818e-10	6.555675e+00	5.542795e+01
2.250000e-06	8.627205e-07	8.107280e-10	6.712300e+00	5.775877e+01
2.260000e-06	8.827471e-07	8.461705e-10	6.868114e+00	6.006388e+01
2.270000e-06	9.027399e-07	8.798905e-10	7.023666e+00	6.234286e+01
2.280000e-06	9.227100e-07	9.131669e-10	7.179041e+00	6.459535e+01
2.290000e-06	9.426301e-07	9.469464e-10	7.334027e+00	6.682106e+01
2.300000e-06	9.625460e-07	9.805073e-10	7.488981e+00	6.901979e+01
2.310000e-06	9.824238e-07	1.011716e-09	7.643637e+00	7.119138e+01
2.320000e-06	1.002237e-06	1.043170e-09	7.797796e+00	7.333574e+01
2.330000e-06	1.022008e-06	1.078376e-09	7.951615e+00	7.545285e+01
2.340000e-06	1.041725e-06	1.113258e-09	8.105022e+00	7.754273e+01
2.350000e-06	1.061422e-06	1.145103e-09	8.258272e+00	7.960545e+01
2.360000e-06	1.081110e-06	1.176054e-09	8.411453e+00	8.164112e+01
2.370000e-06	1.100765e-06	1.206232e-09	8.564375e+00	8.364990e+01
2.380000e-06	1.120397e-06	1.238100e-09	8.717124e+00	8.563197e+01
2.390000e-06	1.139987e-06	1.269502e-09	8.869539e+00	8.758755e+01
2.400000e-06	1.159578e-06	1.298457e-09	9.021962e+00	8.951689e+01
2.410000e-06	1.179139e-06	1.325346e-09	9.174159e+00	9.142024e+01
2.420000e-06	1.198626e-06	1.352528e-09	9.325776e+00	9.329789e+01
2.430000e-06	1.218088e-06	1.379932e-09	9.477198e+00	9.515012e+01
2.440000e-06	1.237512e-06	1.407563e-09	9.628319e+00	9.697723e+01
2.450000e-06	1.256833e-06	1.436266e-09	9.778644e+00	9.877952e+01
2.460000e-06	1.276070e-06	1.465301e-09	9.928316e+00	1.005573e+02
2.470000e-06	1.295263e-06	1.493563e-09	1.007764e+01	1.023109e+02
2.480000e-06	1.314380e-06	1.520535e-09	1.022639e+01	1.040405e+02
2.490000e-06	1.333411e-06	1.545996e-09	1.037445e+01	1.057465e+02
2.500000e-06	1.352332e-06	1.572873e-09	1.052167e+01	1.074291e+02
2.510000e-06	1.371051e-06	1.599750e-09	1.066731e+01	1.090886e+02
2.520000e-06	1.389576e-06	1.623402e-09	1.081144e+01	1.107253e+02
2.530000e-06	1.407991e-06	1.646488e-09	1.095471e+01	1.123393e+02
2.540000e-06	1.426247e-06	1.671000e-09	1.109675e+01	1.139310e+02
2.550000e-06	1.444333e-06	1.694949e-09	1.123747e+01	1.155004e+02
2.560000e-06	1.462360e-06	1.717845e-09	1.137772e+01	1.170477e+02
2.570000e-06	1.480358e-06	1.741809e-09	1.151776e+01	1.185732e+02
2.580000e-06	1.498275e-06	1.766516e-09	1.165716e+01	1.200769e+02
2.590000e-06	1.516061e-06	1.790689e-09	1.179554e+01	1.215591e+02
2.600000e-06	1.533748e-06	1.813448e-09	1.193316e+01	1.230197e+02
2.610000e-06	1.551338e-06	1.835474e-09	1.207001e+01	1.244590e+02
2.620000e-06	1.568783e-06	1.856786e-09	1.220574e+01	1.258770e+02
2.630000e-06	1.586211e-06	1.879742e-09	1.234134e+01	1.272737e+02
2.640000e-06	1.603604e-06	1.901767e-09	1.247666e+01	1.286492e+02
2.650000e-06	1.620836e-06	1.921694e-09	1.261073e+01	1.300037e+02
2.660000e-06	1.638051e-06	1.942633e-09	1.274467e+01	1.313371e+02
2.670000e-06	1.655280e-06	1.964170e-09	1.287872e+01	1.326495e+02
2.680000e-06	1.672415e-06	1.983975e-09	1.301203e+01	1.339409e+02
2.690000e-06	1.689420e-06	2.002002e-09	1.314434e+01	1.352114e+02
2.700000e-06	1.706387e-06	2.020788e-09	1.327635e+01	1.364610e+02
2.710000e-06	1.723238e-06	2.038376e-09	1.340746e+01	1.376898e+02
2.720000e-06	1.739850e-06	2.055772e-09	1.353670e+01	1.388978e+02
2.730000e-06	1.756386e-06	2.073567e-09	1.366536e+01	1.400851e+02
2.740000e-06	1.772847e-06	2.089360e-09	1.379343e+01	1.412518e+02
2.750000e-06	1.789038e-06	2.106647e-09	1.391941e+01	1.423980e+02
2.760000e-06	1.805094e-06	2.124840e-09	1.404433e+01	1.435236e+02
2.770000e-06	1.821146e-06	2.141150e-09	1.416922e+01	1.446289e+02
2.780000e-06	1.837016e-06	2.157807e-09	1.429269e+01	1.457140e+02
2.790000e-06	1.852584e-06	2.176522e-09	1.441382e+01	1.467790e+02
2.800000e-06	1.867905e-06	2.194947e-09	1.453303e+01	1.478241e+02
2.810000e-06	1.883023e-06	2.213208e-09	1.465065e+01	1.488494e+02
2.820000e-06	1.898069e-06	2.229995e-09	1.476771e+01	1.498551e+02
2.830000e-06	1.913074e-06	2.246063e-09	1.488445e+01	1.508415e+02
2.840000e-06	1.927797e-06	2.262806e-09	1.499901e+01	1.518086e+02
2.850000e-06	1.942193e-06	2.278402e-09	1.511101e+01	1.527569e+02
2.860000e-06	1.956390e-06	2.290444e-09	1.522147e+01	1.536865e+02
2.870000e-06	1.970514e-06	2.302273e-09	1.533136e+01	1.545977e+02
2.880000e-06	1.984528e-06	2.317569e-09	1.544040e+01	1.554908e+02
2.890000e-06	1.998433e-06	2.333127e-09	1.554858e+01	1.563661e+02
2.900000e-06	2.012165e-06	2.346429e-09	1.565542e+01	1.572238e+02
