# Temperatura_=_20.0
# Concentracion g/m^3_=_9000.0
# C_Vs_to_Am_M_A/Vsm_=_65563218390.804596
# pendiente_HvsI_1/m_=_3716.3
# ordenada_HvsI_A/m_=_1297.0
# frecuencia_Hz_=_134945.66557553594

Tiempo_(s)	Campo_(V.s)	Magnetizacion_(V.s)	Campo_(kA/m)	Magnetizacion_(A/m)
0.000000e+00	-2.537363e-06	-2.836121e-09	-1.981562e+01	-1.890526e+02
1.000000e-08	-2.537768e-06	-2.820540e-09	-1.981878e+01	-1.890733e+02
2.000000e-08	-2.538052e-06	-2.830527e-09	-1.982100e+01	-1.890842e+02
3.000000e-08	-2.538224e-06	-2.880147e-09	-1.982234e+01	-1.890856e+02
4.000000e-08	-2.538257e-06	-2.921477e-09	-1.982259e+01	-1.890778e+02
5.000000e-08	-2.538148e-06	-2.867793e-09	-1.982175e+01	-1.890609e+02
6.000000e-08	-2.537889e-06	-2.866106e-09	-1.981973e+01	-1.890355e+02
7.000000e-08	-2.537444e-06	-2.936614e-09	-1.981625e+01	-1.890017e+02
8.000000e-08	-2.536781e-06	-2.988475e-09	-1.981107e+01	-1.889598e+02
9.000000e-08	-2.535912e-06	-2.973251e-09	-1.980428e+01	-1.889102e+02
1.000000e-07	-2.534785e-06	-2.781180e-09	-1.979548e+01	-1.888532e+02
1.100000e-07	-2.533447e-06	-2.670475e-09	-1.978504e+01	-1.887890e+02
1.200000e-07	-2.531803e-06	-2.787324e-09	-1.977219e+01	-1.887180e+02
1.300000e-07	-2.529783e-06	-2.940460e-09	-1.975642e+01	-1.886404e+02
1.400000e-07	-2.527457e-06	-2.907588e-09	-1.973826e+01	-1.885566e+02
1.500000e-07	-2.524779e-06	-2.777203e-09	-1.971734e+01	-1.884667e+02
1.600000e-07	-2.521817e-06	-2.826929e-09	-1.969421e+01	-1.883710e+02
1.700000e-07	-2.518597e-06	-2.954078e-09	-1.966906e+01	-1.882698e+02
1.800000e-07	-2.515178e-06	-2.961856e-09	-1.964236e+01	-1.881632e+02
1.900000e-07	-2.511643e-06	-2.775289e-09	-1.961475e+01	-1.880514e+02
2.000000e-07	-2.508036e-06	-2.763289e-09	-1.958658e+01	-1.879346e+02
2.100000e-07	-2.504357e-06	-2.915114e-09	-1.955785e+01	-1.878130e+02
2.200000e-07	-2.500658e-06	-3.017309e-09	-1.952897e+01	-1.876866e+02
2.300000e-07	-2.496890e-06	-2.844681e-09	-1.949954e+01	-1.875556e+02
2.400000e-07	-2.492930e-06	-2.679437e-09	-1.946862e+01	-1.874200e+02
2.500000e-07	-2.488851e-06	-2.782068e-09	-1.943676e+01	-1.872798e+02
2.600000e-07	-2.484655e-06	-2.997126e-09	-1.940399e+01	-1.871351e+02
2.700000e-07	-2.480320e-06	-2.956769e-09	-1.937014e+01	-1.869859e+02
2.800000e-07	-2.475802e-06	-2.679924e-09	-1.933485e+01	-1.868322e+02
2.900000e-07	-2.471058e-06	-2.645520e-09	-1.929780e+01	-1.866739e+02
3.000000e-07	-2.466133e-06	-2.895487e-09	-1.925935e+01	-1.865108e+02
3.100000e-07	-2.461001e-06	-3.042548e-09	-1.921927e+01	-1.863431e+02
3.200000e-07	-2.455730e-06	-2.797204e-09	-1.917810e+01	-1.861705e+02
3.300000e-07	-2.450284e-06	-2.596838e-09	-1.913557e+01	-1.859928e+02
3.400000e-07	-2.444649e-06	-2.747847e-09	-1.909157e+01	-1.858101e+02
3.500000e-07	-2.438862e-06	-3.011462e-09	-1.904637e+01	-1.856220e+02
3.600000e-07	-2.432919e-06	-2.913151e-09	-1.899996e+01	-1.854285e+02
3.700000e-07	-2.426853e-06	-2.659016e-09	-1.895259e+01	-1.852293e+02
3.800000e-07	-2.420652e-06	-2.666052e-09	-1.890416e+01	-1.850244e+02
3.900000e-07	-2.414233e-06	-2.922648e-09	-1.885403e+01	-1.848134e+02
4.000000e-07	-2.407478e-06	-2.967175e-09	-1.880127e+01	-1.845962e+02
4.100000e-07	-2.400471e-06	-2.748014e-09	-1.874655e+01	-1.843725e+02
4.200000e-07	-2.393378e-06	-2.627695e-09	-1.869116e+01	-1.841423e+02
4.300000e-07	-2.386163e-06	-2.787939e-09	-1.863481e+01	-1.839053e+02
4.400000e-07	-2.378814e-06	-2.921683e-09	-1.857742e+01	-1.836613e+02
4.500000e-07	-2.371384e-06	-2.805350e-09	-1.851940e+01	-1.834102e+02
4.600000e-07	-2.363818e-06	-2.639529e-09	-1.846031e+01	-1.831517e+02
4.700000e-07	-2.356108e-06	-2.692792e-09	-1.840010e+01	-1.828857e+02
4.800000e-07	-2.348284e-06	-2.853777e-09	-1.833899e+01	-1.826121e+02
4.900000e-07	-2.340387e-06	-2.845156e-09	-1.827732e+01	-1.823307e+02
5.000000e-07	-2.332421e-06	-2.691998e-09	-1.821511e+01	-1.820414e+02
5.100000e-07	-2.324360e-06	-2.654043e-09	-1.815216e+01	-1.817442e+02
5.200000e-07	-2.316162e-06	-2.783025e-09	-1.808814e+01	-1.814389e+02
5.300000e-07	-2.307766e-06	-2.841359e-09	-1.802257e+01	-1.811254e+02
5.400000e-07	-2.299060e-06	-2.730500e-09	-1.795458e+01	-1.808038e+02
5.500000e-07	-2.290082e-06	-2.634446e-09	-1.788447e+01	-1.804739e+02
5.600000e-07	-2.280997e-06	-2.706642e-09	-1.781352e+01	-1.801358e+02
5.700000e-07	-2.271621e-06	-2.800410e-09	-1.774030e+01	-1.797895e+02
5.800000e-07	-2.261920e-06	-2.752731e-09	-1.766454e+01	-1.794350e+02
5.900000e-07	-2.251937e-06	-2.636889e-09	-1.758657e+01	-1.790724e+02
6.000000e-07	-2.241661e-06	-2.644368e-09	-1.750632e+01	-1.787016e+02
6.100000e-07	-2.231178e-06	-2.740819e-09	-1.742445e+01	-1.783229e+02
6.200000e-07	-2.220384e-06	-2.752109e-09	-1.734016e+01	-1.779362e+02
6.300000e-07	-2.209271e-06	-2.648821e-09	-1.725337e+01	-1.775416e+02
6.400000e-07	-2.198017e-06	-2.610108e-09	-1.716548e+01	-1.771393e+02
6.500000e-07	-2.186679e-06	-2.682235e-09	-1.707694e+01	-1.767295e+02
6.600000e-07	-2.175195e-06	-2.729286e-09	-1.698725e+01	-1.763121e+02
6.700000e-07	-2.163560e-06	-2.660650e-09	-1.689639e+01	-1.758874e+02
6.800000e-07	-2.151809e-06	-2.596861e-09	-1.680462e+01	-1.754554e+02
6.900000e-07	-2.139983e-06	-2.628778e-09	-1.671226e+01	-1.750164e+02
7.000000e-07	-2.128017e-06	-2.687471e-09	-1.661882e+01	-1.745704e+02
7.100000e-07	-2.115843e-06	-2.664854e-09	-1.652374e+01	-1.741176e+02
7.200000e-07	-2.103472e-06	-2.601912e-09	-1.642713e+01	-1.736581e+02
7.300000e-07	-2.090877e-06	-2.590643e-09	-1.632877e+01	-1.731919e+02
7.400000e-07	-2.078117e-06	-2.631579e-09	-1.622912e+01	-1.727193e+02
7.500000e-07	-2.065250e-06	-2.639814e-09	-1.612864e+01	-1.722403e+02
7.600000e-07	-2.052229e-06	-2.592429e-09	-1.602695e+01	-1.717549e+02
7.700000e-07	-2.039023e-06	-2.554341e-09	-1.592382e+01	-1.712633e+02
7.800000e-07	-2.025673e-06	-2.575703e-09	-1.581955e+01	-1.707655e+02
7.900000e-07	-2.012157e-06	-2.607827e-09	-1.571400e+01	-1.702615e+02
8.000000e-07	-1.998430e-06	-2.584924e-09	-1.560680e+01	-1.697513e+02
8.100000e-07	-1.984541e-06	-2.537438e-09	-1.549834e+01	-1.692349e+02
8.200000e-07	-1.970554e-06	-2.534836e-09	-1.538910e+01	-1.687123e+02
8.300000e-07	-1.956514e-06	-2.564514e-09	-1.527946e+01	-1.681834e+02
8.400000e-07	-1.942420e-06	-2.554151e-09	-1.516939e+01	-1.676481e+02
8.500000e-07	-1.928075e-06	-2.512141e-09	-1.505736e+01	-1.671063e+02
8.600000e-07	-1.913342e-06	-2.494316e-09	-1.494231e+01	-1.665579e+02
8.700000e-07	-1.898383e-06	-2.513899e-09	-1.482548e+01	-1.660028e+02
8.800000e-07	-1.883327e-06	-2.517200e-09	-1.470790e+01	-1.654407e+02
8.900000e-07	-1.868005e-06	-2.488868e-09	-1.458824e+01	-1.648714e+02
9.000000e-07	-1.852438e-06	-2.462396e-09	-1.446667e+01	-1.642948e+02
9.100000e-07	-1.836735e-06	-2.466733e-09	-1.434404e+01	-1.637106e+02
9.200000e-07	-1.820879e-06	-2.474845e-09	-1.422021e+01	-1.631186e+02
9.300000e-07	-1.804900e-06	-2.458435e-09	-1.409542e+01	-1.625185e+02
9.400000e-07	-1.788712e-06	-2.427994e-09	-1.396900e+01	-1.619099e+02
9.500000e-07	-1.772474e-06	-2.421197e-09	-1.384219e+01	-1.612927e+02
9.600000e-07	-1.756094e-06	-2.433294e-09	-1.371427e+01	-1.606664e+02
9.700000e-07	-1.739493e-06	-2.433260e-09	-1.358462e+01	-1.600308e+02
9.800000e-07	-1.722760e-06	-2.408542e-09	-1.345395e+01	-1.593856e+02
9.900000e-07	-1.705856e-06	-2.391422e-09	-1.332194e+01	-1.587304e+02
1.000000e-06	-1.688894e-06	-2.396358e-09	-1.318947e+01	-1.580648e+02
1.010000e-06	-1.671854e-06	-2.399241e-09	-1.305639e+01	-1.573886e+02
1.020000e-06	-1.654764e-06	-2.377918e-09	-1.292293e+01	-1.567014e+02
1.030000e-06	-1.637576e-06	-2.351248e-09	-1.278870e+01	-1.560030e+02
1.040000e-06	-1.620273e-06	-2.345183e-09	-1.265358e+01	-1.552929e+02
1.050000e-06	-1.602934e-06	-2.346722e-09	-1.251816e+01	-1.545708e+02
1.060000e-06	-1.585552e-06	-2.333217e-09	-1.238242e+01	-1.538365e+02
1.070000e-06	-1.568111e-06	-2.310007e-09	-1.224622e+01	-1.530897e+02
1.080000e-06	-1.550565e-06	-2.296418e-09	-1.210918e+01	-1.523302e+02
1.090000e-06	-1.532990e-06	-2.294033e-09	-1.197193e+01	-1.515575e+02
1.100000e-06	-1.515326e-06	-2.289315e-09	-1.183399e+01	-1.507716e+02
1.110000e-06	-1.497482e-06	-2.271751e-09	-1.169463e+01	-1.499722e+02
1.120000e-06	-1.479551e-06	-2.254413e-09	-1.155460e+01	-1.491591e+02
1.130000e-06	-1.461618e-06	-2.245458e-09	-1.141455e+01	-1.483321e+02
1.140000e-06	-1.443635e-06	-2.238882e-09	-1.127411e+01	-1.474911e+02
1.150000e-06	-1.425485e-06	-2.222977e-09	-1.113237e+01	-1.466358e+02
1.160000e-06	-1.407132e-06	-2.201195e-09	-1.098904e+01	-1.457663e+02
1.170000e-06	-1.388608e-06	-2.184754e-09	-1.084438e+01	-1.448824e+02
1.180000e-06	-1.370001e-06	-2.174617e-09	-1.069907e+01	-1.439839e+02
1.190000e-06	-1.351299e-06	-2.158529e-09	-1.055301e+01	-1.430709e+02
1.200000e-06	-1.332450e-06	-2.138957e-09	-1.040581e+01	-1.421433e+02
1.210000e-06	-1.313479e-06	-2.122955e-09	-1.025766e+01	-1.412011e+02
1.220000e-06	-1.294371e-06	-2.113555e-09	-1.010843e+01	-1.402443e+02
1.230000e-06	-1.275180e-06	-2.100013e-09	-9.958559e+00	-1.392728e+02
1.240000e-06	-1.255929e-06	-2.081893e-09	-9.808221e+00	-1.382866e+02
1.250000e-06	-1.236600e-06	-2.063780e-09	-9.657269e+00	-1.372858e+02
1.260000e-06	-1.217162e-06	-2.049741e-09	-9.505463e+00	-1.362704e+02
1.270000e-06	-1.197607e-06	-2.037019e-09	-9.352753e+00	-1.352404e+02
1.280000e-06	-1.177985e-06	-2.019848e-09	-9.199514e+00	-1.341958e+02
1.290000e-06	-1.158374e-06	-2.001410e-09	-9.046356e+00	-1.331367e+02
1.300000e-06	-1.138819e-06	-1.987619e-09	-8.893641e+00	-1.320630e+02
1.310000e-06	-1.119226e-06	-1.976709e-09	-8.740634e+00	-1.309749e+02
1.320000e-06	-1.099578e-06	-1.960940e-09	-8.587186e+00	-1.298722e+02
1.330000e-06	-1.079876e-06	-1.940100e-09	-8.433327e+00	-1.287549e+02
1.340000e-06	-1.060116e-06	-1.920604e-09	-8.279010e+00	-1.276231e+02
1.350000e-06	-1.040354e-06	-1.906208e-09	-8.124680e+00	-1.264766e+02
1.360000e-06	-1.020594e-06	-1.890214e-09	-7.970365e+00	-1.253155e+02
1.370000e-06	-1.000839e-06	-1.869049e-09	-7.816085e+00	-1.241396e+02
1.380000e-06	-9.810675e-07	-1.846583e-09	-7.661677e+00	-1.229488e+02
1.390000e-06	-9.612630e-07	-1.829162e-09	-7.507013e+00	-1.217430e+02
1.400000e-06	-9.414800e-07	-1.814764e-09	-7.352518e+00	-1.205219e+02
1.410000e-06	-9.216528e-07	-1.798872e-09	-7.197677e+00	-1.192855e+02
1.420000e-06	-9.017236e-07	-1.780752e-09	-7.042038e+00	-1.180334e+02
1.430000e-06	-8.817205e-07	-1.764007e-09	-6.885823e+00	-1.167655e+02
1.440000e-06	-8.616242e-07	-1.746343e-09	-6.728881e+00	-1.154813e+02
1.450000e-06	-8.415168e-07	-1.727166e-09	-6.571852e+00	-1.141807e+02
1.460000e-06	-8.214059e-07	-1.705377e-09	-6.414795e+00	-1.128632e+02
1.470000e-06	-8.012366e-07	-1.682387e-09	-6.257282e+00	-1.115285e+02
1.480000e-06	-7.809904e-07	-1.663529e-09	-6.099169e+00	-1.101761e+02
1.490000e-06	-7.606730e-07	-1.646882e-09	-5.940499e+00	-1.088057e+02
1.500000e-06	-7.402455e-07	-1.623216e-09	-5.780970e+00	-1.074167e+02
1.510000e-06	-7.197472e-07	-1.597033e-09	-5.620888e+00	-1.060086e+02
1.520000e-06	-6.992340e-07	-1.576997e-09	-5.460690e+00	-1.045810e+02
1.530000e-06	-6.787232e-07	-1.559599e-09	-5.300510e+00	-1.031333e+02
1.540000e-06	-6.581530e-07	-1.536701e-09	-5.139866e+00	-1.016649e+02
1.550000e-06	-6.374663e-07	-1.512204e-09	-4.978313e+00	-1.001753e+02
1.560000e-06	-6.167037e-07	-1.490688e-09	-4.816167e+00	-9.866395e+01
1.570000e-06	-5.958674e-07	-1.467667e-09	-4.653445e+00	-9.713020e+01
1.580000e-06	-5.750720e-07	-1.442055e-09	-4.491043e+00	-9.557349e+01
1.590000e-06	-5.541330e-07	-1.415341e-09	-4.327519e+00	-9.399323e+01
1.600000e-06	-5.330750e-07	-1.388824e-09	-4.163066e+00	-9.238884e+01
1.610000e-06	-5.119946e-07	-1.363011e-09	-3.998438e+00	-9.075974e+01
1.620000e-06	-4.908609e-07	-1.337212e-09	-3.833393e+00	-8.910538e+01
1.630000e-06	-4.697268e-07	-1.311842e-09	-3.668346e+00	-8.742522e+01
1.640000e-06	-4.485879e-07	-1.286685e-09	-3.503262e+00	-8.571874e+01
1.650000e-06	-4.274558e-07	-1.260545e-09	-3.338229e+00	-8.398546e+01
1.660000e-06	-4.063047e-07	-1.234451e-09	-3.173049e+00	-8.222491e+01
1.670000e-06	-3.851107e-07	-1.207172e-09	-3.007534e+00	-8.043667e+01
1.680000e-06	-3.638468e-07	-1.175966e-09	-2.841473e+00	-7.862037e+01
1.690000e-06	-3.425623e-07	-1.142437e-09	-2.675251e+00	-7.677566e+01
1.700000e-06	-3.212564e-07	-1.111610e-09	-2.508862e+00	-7.490225e+01
1.710000e-06	-2.999367e-07	-1.084825e-09	-2.342365e+00	-7.299992e+01
1.720000e-06	-2.786006e-07	-1.054573e-09	-2.175740e+00	-7.106848e+01
1.730000e-06	-2.572275e-07	-1.023833e-09	-2.008826e+00	-6.910782e+01
1.740000e-06	-2.357862e-07	-9.980859e-10	-1.841380e+00	-6.711786e+01
1.750000e-06	-2.143298e-07	-9.728169e-10	-1.673815e+00	-6.509863e+01
1.760000e-06	-1.928789e-07	-9.425531e-10	-1.506294e+00	-6.305020e+01
1.770000e-06	-1.714143e-07	-9.065926e-10	-1.338666e+00	-6.097270e+01
1.780000e-06	-1.499732e-07	-8.726554e-10	-1.171220e+00	-5.886636e+01
1.790000e-06	-1.285268e-07	-8.405868e-10	-1.003734e+00	-5.673147e+01
1.800000e-06	-1.070069e-07	-8.074818e-10	-8.356737e-01	-5.456837e+01
1.810000e-06	-8.547666e-08	-7.745441e-10	-6.675327e-01	-5.237752e+01
1.820000e-06	-6.397442e-08	-7.415064e-10	-4.996102e-01	-5.015942e+01
1.830000e-06	-4.243535e-08	-7.087491e-10	-3.314002e-01	-4.791464e+01
1.840000e-06	-2.090996e-08	-6.774033e-10	-1.632970e-01	-4.564385e+01
1.850000e-06	5.612987e-10	-6.447428e-10	4.383480e-03	-4.334777e+01
1.860000e-06	2.204498e-08	-6.105280e-10	1.721610e-01	-4.102721e+01
1.870000e-06	4.355428e-08	-5.754375e-10	3.401385e-01	-3.868302e+01
1.880000e-06	6.503507e-08	-5.407654e-10	5.078934e-01	-3.631614e+01
1.890000e-06	8.647119e-08	-5.064561e-10	6.752994e-01	-3.392756e+01
1.900000e-06	1.078574e-07	-4.707678e-10	8.423160e-01	-3.151835e+01
1.910000e-06	1.292406e-07	-4.328621e-10	1.009308e+00	-2.908961e+01
1.920000e-06	1.506630e-07	-3.965834e-10	1.176608e+00	-2.664252e+01
1.930000e-06	1.721535e-07	-3.621970e-10	1.344438e+00	-2.417830e+01
1.940000e-06	1.936115e-07	-3.264644e-10	1.512015e+00	-2.169820e+01
1.950000e-06	2.149773e-07	-2.891198e-10	1.678872e+00	-1.920354e+01
1.960000e-06	2.363447e-07	-2.526545e-10	1.845741e+00	-1.669565e+01
1.970000e-06	2.577758e-07	-2.159842e-10	2.013108e+00	-1.417592e+01
1.980000e-06	2.791518e-07	-1.781274e-10	2.180045e+00	-1.164575e+01
1.990000e-06	3.004571e-07	-1.398332e-10	2.346429e+00	-9.106569e+00
2.000000e-06	3.217724e-07	-1.015828e-10	2.512892e+00	-6.559818e+00
2.010000e-06	3.431054e-07	-6.484633e-11	2.679492e+00	-4.006959e+00
2.020000e-06	3.644409e-07	-2.668487e-11	2.846112e+00	-1.449458e+00
2.030000e-06	3.857715e-07	1.332217e-11	3.012695e+00	1.111216e+00
2.040000e-06	4.070509e-07	5.150557e-11	3.178877e+00	3.673594e+00
2.050000e-06	4.282082e-07	8.713584e-11	3.344105e+00	6.236214e+00
2.060000e-06	4.493389e-07	1.232085e-10	3.509126e+00	8.797627e+00
2.070000e-06	4.704508e-07	1.604759e-10	3.674001e+00	1.135640e+01
2.080000e-06	4.915387e-07	1.965233e-10	3.838687e+00	1.391111e+01
2.090000e-06	5.125949e-07	2.326761e-10	4.003126e+00	1.646039e+01
2.100000e-06	5.335970e-07	2.707465e-10	4.167142e+00	1.900286e+01
2.110000e-06	5.544699e-07	3.084119e-10	4.330150e+00	2.153719e+01
2.120000e-06	5.752310e-07	3.458710e-10	4.492284e+00	2.406211e+01
2.130000e-06	5.960357e-07	3.826902e-10	4.654759e+00	2.657635e+01
2.140000e-06	6.168786e-07	4.174751e-10	4.817533e+00	2.907872e+01
2.150000e-06	6.377123e-07	4.513656e-10	4.980234e+00	3.156803e+01
2.160000e-06	6.584725e-07	4.872075e-10	5.142362e+00	3.404319e+01
2.170000e-06	6.791233e-07	5.218400e-10	5.303635e+00	3.650312e+01
2.180000e-06	6.996554e-07	5.539575e-10	5.463980e+00	3.894682e+01
2.190000e-06	7.200702e-07	5.875240e-10	5.623411e+00	4.137332e+01
2.200000e-06	7.404225e-07	6.228040e-10	5.782353e+00	4.378172e+01
2.210000e-06	7.607142e-07	6.596322e-10	5.940821e+00	4.617117e+01
2.220000e-06	7.809360e-07	6.944295e-10	6.098744e+00	4.854089e+01
2.230000e-06	8.011232e-07	7.273258e-10	6.256396e+00	5.089013e+01
2.240000e-06	8.213251e-07	7.622573e-10	6.414164e+00	5.321823e+01
2.250000e-06	8.414894e-07	7.977042e-10	6.571637e+00	5.552455e+01
2.260000e-06	8.615734e-07	8.310891e-10	6.728484e+00	5.780854e+01
2.270000e-06	8.815422e-07	8.623400e-10	6.884431e+00	6.006969e+01
2.280000e-06	9.014027e-07	8.937056e-10	7.039532e+00	6.230755e+01
2.290000e-06	9.212585e-07	9.274679e-10	7.194597e+00	6.452171e+01
2.300000e-06	9.411084e-07	9.607459e-10	7.349615e+00	6.671182e+01
2.310000e-06	9.609685e-07	9.901363e-10	7.504714e+00	6.887760e+01
2.320000e-06	9.807956e-07	1.020569e-09	7.659554e+00	7.101878e+01
2.330000e-06	1.000536e-06	1.053758e-09	7.813721e+00	7.313517e+01
2.340000e-06	1.020246e-06	1.087086e-09	7.967641e+00	7.522660e+01
2.350000e-06	1.039937e-06	1.119854e-09	8.121419e+00	7.729296e+01
2.360000e-06	1.059618e-06	1.150622e-09	8.275117e+00	7.933417e+01
2.370000e-06	1.079304e-06	1.180556e-09	8.428860e+00	8.135019e+01
2.380000e-06	1.098964e-06	1.210147e-09	8.582395e+00	8.334101e+01
2.390000e-06	1.118585e-06	1.239904e-09	8.735622e+00	8.530666e+01
2.400000e-06	1.138145e-06	1.267946e-09	8.888379e+00	8.724719e+01
2.410000e-06	1.157657e-06	1.293084e-09	9.040755e+00	8.916269e+01
2.420000e-06	1.177171e-06	1.320434e-09	9.193155e+00	9.105324e+01
2.430000e-06	1.196666e-06	1.349000e-09	9.345401e+00	9.291899e+01
2.440000e-06	1.216056e-06	1.376946e-09	9.496825e+00	9.476008e+01
2.450000e-06	1.235403e-06	1.406955e-09	9.647916e+00	9.657666e+01
2.460000e-06	1.254671e-06	1.437503e-09	9.798395e+00	9.836890e+01
2.470000e-06	1.273835e-06	1.466796e-09	9.948052e+00	1.001370e+02
2.480000e-06	1.292908e-06	1.493839e-09	1.009700e+01	1.018811e+02
2.490000e-06	1.311884e-06	1.518287e-09	1.024520e+01	1.036015e+02
2.500000e-06	1.330860e-06	1.541498e-09	1.039339e+01	1.052984e+02
2.510000e-06	1.349728e-06	1.567038e-09	1.054074e+01	1.069718e+02
2.520000e-06	1.368425e-06	1.592073e-09	1.068676e+01	1.086222e+02
2.530000e-06	1.387015e-06	1.616153e-09	1.083194e+01	1.102496e+02
2.540000e-06	1.405445e-06	1.642920e-09	1.097586e+01	1.118543e+02
2.550000e-06	1.423626e-06	1.670459e-09	1.111785e+01	1.134364e+02
2.560000e-06	1.441578e-06	1.693669e-09	1.125805e+01	1.149962e+02
2.570000e-06	1.459502e-06	1.714843e-09	1.139803e+01	1.165339e+02
2.580000e-06	1.477461e-06	1.737999e-09	1.153828e+01	1.180496e+02
2.590000e-06	1.495304e-06	1.761569e-09	1.167762e+01	1.195435e+02
2.600000e-06	1.513027e-06	1.782941e-09	1.181603e+01	1.210157e+02
2.610000e-06	1.530706e-06	1.803107e-09	1.195409e+01	1.224666e+02
2.620000e-06	1.548247e-06	1.823773e-09	1.209109e+01	1.238960e+02
2.630000e-06	1.565629e-06	1.845944e-09	1.222683e+01	1.253043e+02
2.640000e-06	1.582942e-06	1.869611e-09	1.236204e+01	1.266916e+02
2.650000e-06	1.600270e-06	1.891337e-09	1.249736e+01	1.280580e+02
2.660000e-06	1.617597e-06	1.911897e-09	1.263268e+01	1.294035e+02
2.670000e-06	1.634792e-06	1.932067e-09	1.276696e+01	1.307283e+02
2.680000e-06	1.651968e-06	1.953493e-09	1.290110e+01	1.320326e+02
2.690000e-06	1.669013e-06	1.971059e-09	1.303421e+01	1.333163e+02
2.700000e-06	1.685890e-06	1.987977e-09	1.316601e+01	1.345797e+02
2.710000e-06	1.702737e-06	2.007999e-09	1.329758e+01	1.358227e+02
2.720000e-06	1.719550e-06	2.026931e-09	1.342888e+01	1.370454e+02
2.730000e-06	1.736285e-06	2.043962e-09	1.355957e+01	1.382481e+02
2.740000e-06	1.752815e-06	2.062900e-09	1.368866e+01	1.394306e+02
2.750000e-06	1.769217e-06	2.083696e-09	1.381675e+01	1.405932e+02
2.760000e-06	1.785524e-06	2.104790e-09	1.394411e+01	1.417358e+02
2.770000e-06	1.801596e-06	2.122543e-09	1.406962e+01	1.428586e+02
2.780000e-06	1.817465e-06	2.139421e-09	1.419355e+01	1.439617e+02
2.790000e-06	1.833211e-06	2.158917e-09	1.431652e+01	1.450451e+02
2.800000e-06	1.848694e-06	2.178069e-09	1.443743e+01	1.461090e+02
2.810000e-06	1.863884e-06	2.194765e-09	1.455606e+01	1.471534e+02
2.820000e-06	1.878861e-06	2.209556e-09	1.467302e+01	1.481785e+02
2.830000e-06	1.893724e-06	2.226187e-09	1.478910e+01	1.491844e+02
2.840000e-06	1.908461e-06	2.243470e-09	1.490418e+01	1.501713e+02
2.850000e-06	1.922997e-06	2.260800e-09	1.501771e+01	1.511393e+02
2.860000e-06	1.937360e-06	2.276087e-09	1.512987e+01	1.520885e+02
2.870000e-06	1.951498e-06	2.290937e-09	1.524029e+01	1.530191e+02
2.880000e-06	1.965395e-06	2.306119e-09	1.534881e+01	1.539314e+02
2.890000e-06	1.979178e-06	2.321510e-09	1.545645e+01	1.548255e+02
2.900000e-06	1.992863e-06	2.334100e-09	1.556333e+01	1.557016e+02
