# Temperatura_=_20.0
# Concentracion g/m^3_=_9000.0
# C_Vs_to_Am_M_A/Vsm_=_65563218390.804596
# pendiente_HvsI_1/m_=_3716.3
# ordenada_HvsI_A/m_=_1297.0
# frecuencia_Hz_=_135192.79692224268

Tiempo_(s)	Campo_(V.s)	Magnetizacion_(V.s)	Campo_(kA/m)	Magnetizacion_(A/m)
0.000000e+00	-5.197646e-06	-4.028685e-09	-3.842687e+01	-2.587422e+02
1.000000e-08	-5.197766e-06	-4.027130e-09	-3.842775e+01	-2.587561e+02
2.000000e-08	-5.197670e-06	-4.027483e-09	-3.842705e+01	-2.587585e+02
3.000000e-08	-5.197326e-06	-4.029546e-09	-3.842450e+01	-2.587490e+02
4.000000e-08	-5.196638e-06	-4.030513e-09	-3.841941e+01	-2.587270e+02
5.000000e-08	-5.195513e-06	-4.026712e-09	-3.841110e+01	-2.586921e+02
6.000000e-08	-5.193853e-06	-4.026680e-09	-3.839882e+01	-2.586439e+02
7.000000e-08	-5.191670e-06	-4.035896e-09	-3.838269e+01	-2.585822e+02
8.000000e-08	-5.188871e-06	-4.046040e-09	-3.836199e+01	-2.585067e+02
9.000000e-08	-5.185542e-06	-4.034262e-09	-3.833738e+01	-2.584174e+02
1.000000e-07	-5.181825e-06	-3.987575e-09	-3.830990e+01	-2.583143e+02
1.100000e-07	-5.177787e-06	-3.954879e-09	-3.828005e+01	-2.581974e+02
1.200000e-07	-5.173550e-06	-4.059662e-09	-3.824872e+01	-2.580670e+02
1.300000e-07	-5.169009e-06	-4.122362e-09	-3.821515e+01	-2.579233e+02
1.400000e-07	-5.164122e-06	-4.050365e-09	-3.817902e+01	-2.577667e+02
1.500000e-07	-5.158961e-06	-3.930986e-09	-3.814086e+01	-2.575977e+02
1.600000e-07	-5.153418e-06	-3.961797e-09	-3.809988e+01	-2.574168e+02
1.700000e-07	-5.147394e-06	-4.114949e-09	-3.805535e+01	-2.572248e+02
1.800000e-07	-5.141062e-06	-4.101275e-09	-3.800854e+01	-2.570223e+02
1.900000e-07	-5.134433e-06	-4.022242e-09	-3.795952e+01	-2.568101e+02
2.000000e-07	-5.127413e-06	-3.957207e-09	-3.790763e+01	-2.565890e+02
2.100000e-07	-5.120083e-06	-4.028459e-09	-3.785343e+01	-2.563601e+02
2.200000e-07	-5.112460e-06	-4.053624e-09	-3.779707e+01	-2.561242e+02
2.300000e-07	-5.104608e-06	-4.018942e-09	-3.773903e+01	-2.558823e+02
2.400000e-07	-5.096517e-06	-3.886581e-09	-3.767921e+01	-2.556354e+02
2.500000e-07	-5.088043e-06	-3.867220e-09	-3.761656e+01	-2.553845e+02
2.600000e-07	-5.079003e-06	-3.974571e-09	-3.754972e+01	-2.551305e+02
2.700000e-07	-5.069384e-06	-4.021954e-09	-3.747861e+01	-2.548746e+02
2.800000e-07	-5.059242e-06	-3.849622e-09	-3.740363e+01	-2.546175e+02
2.900000e-07	-5.048613e-06	-3.714247e-09	-3.732505e+01	-2.543602e+02
3.000000e-07	-5.037486e-06	-3.842792e-09	-3.724278e+01	-2.541035e+02
3.100000e-07	-5.025902e-06	-3.961280e-09	-3.715714e+01	-2.538483e+02
3.200000e-07	-5.013939e-06	-3.804823e-09	-3.706870e+01	-2.535951e+02
3.300000e-07	-5.001645e-06	-3.640186e-09	-3.697781e+01	-2.533446e+02
3.400000e-07	-4.989009e-06	-3.745786e-09	-3.688439e+01	-2.530973e+02
3.500000e-07	-4.975920e-06	-3.837429e-09	-3.678762e+01	-2.528536e+02
3.600000e-07	-4.962511e-06	-3.765050e-09	-3.668848e+01	-2.526138e+02
3.700000e-07	-4.948854e-06	-3.670509e-09	-3.658752e+01	-2.523780e+02
3.800000e-07	-4.934803e-06	-3.711287e-09	-3.648363e+01	-2.521464e+02
3.900000e-07	-4.920195e-06	-3.724514e-09	-3.637564e+01	-2.519189e+02
4.000000e-07	-4.905081e-06	-3.768293e-09	-3.626390e+01	-2.516953e+02
4.100000e-07	-4.889315e-06	-3.751455e-09	-3.614734e+01	-2.514752e+02
4.200000e-07	-4.872909e-06	-3.669855e-09	-3.602604e+01	-2.512583e+02
4.300000e-07	-4.856298e-06	-3.641427e-09	-3.590324e+01	-2.510440e+02
4.400000e-07	-4.839497e-06	-3.790601e-09	-3.577903e+01	-2.508317e+02
4.500000e-07	-4.822282e-06	-3.808236e-09	-3.565175e+01	-2.506205e+02
4.600000e-07	-4.804756e-06	-3.657419e-09	-3.552218e+01	-2.504098e+02
4.700000e-07	-4.787073e-06	-3.649472e-09	-3.539145e+01	-2.501984e+02
4.800000e-07	-4.769166e-06	-3.822136e-09	-3.525906e+01	-2.499855e+02
4.900000e-07	-4.750886e-06	-3.804366e-09	-3.512391e+01	-2.497698e+02
5.000000e-07	-4.732182e-06	-3.656308e-09	-3.498563e+01	-2.495504e+02
5.100000e-07	-4.713083e-06	-3.668895e-09	-3.484443e+01	-2.493259e+02
5.200000e-07	-4.693597e-06	-3.777097e-09	-3.470037e+01	-2.490953e+02
5.300000e-07	-4.673817e-06	-3.749723e-09	-3.455413e+01	-2.488572e+02
5.400000e-07	-4.653905e-06	-3.675358e-09	-3.440692e+01	-2.486106e+02
5.500000e-07	-4.633825e-06	-3.679712e-09	-3.425847e+01	-2.483541e+02
5.600000e-07	-4.613486e-06	-3.703555e-09	-3.410810e+01	-2.480866e+02
5.700000e-07	-4.592875e-06	-3.708968e-09	-3.395572e+01	-2.478070e+02
5.800000e-07	-4.571844e-06	-3.705435e-09	-3.380023e+01	-2.475142e+02
5.900000e-07	-4.550391e-06	-3.675939e-09	-3.364163e+01	-2.472072e+02
6.000000e-07	-4.528724e-06	-3.634546e-09	-3.348144e+01	-2.468851e+02
6.100000e-07	-4.506819e-06	-3.663713e-09	-3.331949e+01	-2.465471e+02
6.200000e-07	-4.484612e-06	-3.692179e-09	-3.315531e+01	-2.461924e+02
6.300000e-07	-4.462052e-06	-3.644147e-09	-3.298853e+01	-2.458205e+02
6.400000e-07	-4.439113e-06	-3.579328e-09	-3.281894e+01	-2.454307e+02
6.500000e-07	-4.415882e-06	-3.624626e-09	-3.264719e+01	-2.450229e+02
6.600000e-07	-4.392399e-06	-3.668951e-09	-3.247357e+01	-2.445966e+02
6.700000e-07	-4.368720e-06	-3.626524e-09	-3.229851e+01	-2.441517e+02
6.800000e-07	-4.344843e-06	-3.571807e-09	-3.212198e+01	-2.436884e+02
6.900000e-07	-4.320704e-06	-3.603537e-09	-3.194352e+01	-2.432067e+02
7.000000e-07	-4.296280e-06	-3.622851e-09	-3.176295e+01	-2.427070e+02
7.100000e-07	-4.271545e-06	-3.590058e-09	-3.158008e+01	-2.421895e+02
7.200000e-07	-4.246444e-06	-3.550945e-09	-3.139451e+01	-2.416548e+02
7.300000e-07	-4.220862e-06	-3.554365e-09	-3.120537e+01	-2.411035e+02
7.400000e-07	-4.194777e-06	-3.558373e-09	-3.101253e+01	-2.405364e+02
7.500000e-07	-4.168202e-06	-3.553404e-09	-3.081606e+01	-2.399542e+02
7.600000e-07	-4.141191e-06	-3.536571e-09	-3.061636e+01	-2.393579e+02
7.700000e-07	-4.113796e-06	-3.523990e-09	-3.041382e+01	-2.387484e+02
7.800000e-07	-4.086095e-06	-3.521591e-09	-3.020903e+01	-2.381267e+02
7.900000e-07	-4.058236e-06	-3.530269e-09	-3.000306e+01	-2.374939e+02
8.000000e-07	-4.030228e-06	-3.519945e-09	-2.979600e+01	-2.368510e+02
8.100000e-07	-4.001988e-06	-3.484457e-09	-2.958721e+01	-2.361992e+02
8.200000e-07	-3.973534e-06	-3.466430e-09	-2.937685e+01	-2.355395e+02
8.300000e-07	-3.944864e-06	-3.480549e-09	-2.916489e+01	-2.348729e+02
8.400000e-07	-3.915874e-06	-3.475525e-09	-2.895057e+01	-2.342005e+02
8.500000e-07	-3.886543e-06	-3.434263e-09	-2.873371e+01	-2.335233e+02
8.600000e-07	-3.856956e-06	-3.421225e-09	-2.851497e+01	-2.328421e+02
8.700000e-07	-3.827157e-06	-3.441067e-09	-2.829467e+01	-2.321578e+02
8.800000e-07	-3.797160e-06	-3.442199e-09	-2.807290e+01	-2.314710e+02
8.900000e-07	-3.766964e-06	-3.409892e-09	-2.784965e+01	-2.307825e+02
9.000000e-07	-3.736400e-06	-3.395107e-09	-2.762369e+01	-2.300926e+02
9.100000e-07	-3.705551e-06	-3.395358e-09	-2.739562e+01	-2.294018e+02
9.200000e-07	-3.674538e-06	-3.390446e-09	-2.716633e+01	-2.287103e+02
9.300000e-07	-3.643251e-06	-3.367394e-09	-2.693502e+01	-2.280182e+02
9.400000e-07	-3.611706e-06	-3.348153e-09	-2.670181e+01	-2.273254e+02
9.500000e-07	-3.579985e-06	-3.337685e-09	-2.646729e+01	-2.266318e+02
9.600000e-07	-3.548131e-06	-3.339421e-09	-2.623179e+01	-2.259370e+02
9.700000e-07	-3.516148e-06	-3.333262e-09	-2.599533e+01	-2.252405e+02
9.800000e-07	-3.483980e-06	-3.315604e-09	-2.575752e+01	-2.245417e+02
9.900000e-07	-3.451550e-06	-3.294894e-09	-2.551775e+01	-2.238399e+02
1.000000e-06	-3.418874e-06	-3.288454e-09	-2.527618e+01	-2.231340e+02
1.010000e-06	-3.385837e-06	-3.281434e-09	-2.503193e+01	-2.224232e+02
1.020000e-06	-3.352380e-06	-3.262445e-09	-2.478457e+01	-2.217062e+02
1.030000e-06	-3.318611e-06	-3.237397e-09	-2.453492e+01	-2.209819e+02
1.040000e-06	-3.284480e-06	-3.226347e-09	-2.428258e+01	-2.202489e+02
1.050000e-06	-3.249986e-06	-3.220306e-09	-2.402757e+01	-2.195058e+02
1.060000e-06	-3.215130e-06	-3.204296e-09	-2.376987e+01	-2.187511e+02
1.070000e-06	-3.179868e-06	-3.184664e-09	-2.350917e+01	-2.179835e+02
1.080000e-06	-3.144372e-06	-3.174214e-09	-2.324675e+01	-2.172013e+02
1.090000e-06	-3.108685e-06	-3.168275e-09	-2.298291e+01	-2.164030e+02
1.100000e-06	-3.072828e-06	-3.155309e-09	-2.271782e+01	-2.155871e+02
1.110000e-06	-3.036939e-06	-3.140265e-09	-2.245248e+01	-2.147522e+02
1.120000e-06	-3.000960e-06	-3.125195e-09	-2.218648e+01	-2.138967e+02
1.130000e-06	-2.964901e-06	-3.107917e-09	-2.191990e+01	-2.130194e+02
1.140000e-06	-2.928697e-06	-3.090724e-09	-2.165224e+01	-2.121188e+02
1.150000e-06	-2.892226e-06	-3.078728e-09	-2.138260e+01	-2.111937e+02
1.160000e-06	-2.855524e-06	-3.062342e-09	-2.111126e+01	-2.102432e+02
1.170000e-06	-2.818676e-06	-3.043586e-09	-2.083884e+01	-2.092660e+02
1.180000e-06	-2.781698e-06	-3.027518e-09	-2.056545e+01	-2.082615e+02
1.190000e-06	-2.744420e-06	-3.017159e-09	-2.028985e+01	-2.072288e+02
1.200000e-06	-2.706833e-06	-3.003249e-09	-2.001197e+01	-2.061674e+02
1.210000e-06	-2.669077e-06	-2.985534e-09	-1.973283e+01	-2.050769e+02
1.220000e-06	-2.631167e-06	-2.963960e-09	-1.945256e+01	-2.039569e+02
1.230000e-06	-2.593120e-06	-2.944429e-09	-1.917127e+01	-2.028073e+02
1.240000e-06	-2.554745e-06	-2.924299e-09	-1.888756e+01	-2.016282e+02
1.250000e-06	-2.516049e-06	-2.903179e-09	-1.860147e+01	-2.004196e+02
1.260000e-06	-2.477255e-06	-2.883134e-09	-1.831466e+01	-1.991820e+02
1.270000e-06	-2.438334e-06	-2.864563e-09	-1.802692e+01	-1.979158e+02
1.280000e-06	-2.399343e-06	-2.847627e-09	-1.773865e+01	-1.966215e+02
1.290000e-06	-2.360189e-06	-2.830998e-09	-1.744918e+01	-1.952998e+02
1.300000e-06	-2.320722e-06	-2.810655e-09	-1.715740e+01	-1.939515e+02
1.310000e-06	-2.281165e-06	-2.786650e-09	-1.686495e+01	-1.925773e+02
1.320000e-06	-2.241531e-06	-2.764055e-09	-1.657193e+01	-1.911783e+02
1.330000e-06	-2.201774e-06	-2.744889e-09	-1.627800e+01	-1.897554e+02
1.340000e-06	-2.161965e-06	-2.720292e-09	-1.598368e+01	-1.883095e+02
1.350000e-06	-2.122115e-06	-2.691506e-09	-1.568907e+01	-1.868415e+02
1.360000e-06	-2.082194e-06	-2.667260e-09	-1.539393e+01	-1.853524e+02
1.370000e-06	-2.042136e-06	-2.646159e-09	-1.509777e+01	-1.838431e+02
1.380000e-06	-2.001934e-06	-2.622807e-09	-1.480055e+01	-1.823144e+02
1.390000e-06	-1.961596e-06	-2.598952e-09	-1.450233e+01	-1.807670e+02
1.400000e-06	-1.921135e-06	-2.578641e-09	-1.420320e+01	-1.792014e+02
1.410000e-06	-1.880500e-06	-2.558017e-09	-1.390278e+01	-1.776180e+02
1.420000e-06	-1.839739e-06	-2.534516e-09	-1.360143e+01	-1.760173e+02
1.430000e-06	-1.798874e-06	-2.508393e-09	-1.329930e+01	-1.743991e+02
1.440000e-06	-1.757819e-06	-2.480610e-09	-1.299579e+01	-1.727634e+02
1.450000e-06	-1.716482e-06	-2.451526e-09	-1.269018e+01	-1.711099e+02
1.460000e-06	-1.674860e-06	-2.425566e-09	-1.238246e+01	-1.694378e+02
1.470000e-06	-1.633208e-06	-2.400627e-09	-1.207452e+01	-1.677465e+02
1.480000e-06	-1.591388e-06	-2.376605e-09	-1.176534e+01	-1.660346e+02
1.490000e-06	-1.549155e-06	-2.354569e-09	-1.145310e+01	-1.643010e+02
1.500000e-06	-1.506815e-06	-2.330815e-09	-1.114008e+01	-1.625438e+02
1.510000e-06	-1.464318e-06	-2.303206e-09	-1.082589e+01	-1.607611e+02
1.520000e-06	-1.421557e-06	-2.273783e-09	-1.050975e+01	-1.589507e+02
1.530000e-06	-1.378723e-06	-2.245281e-09	-1.019308e+01	-1.571102e+02
1.540000e-06	-1.335706e-06	-2.215692e-09	-9.875048e+00	-1.552366e+02
1.550000e-06	-1.292462e-06	-2.182016e-09	-9.555338e+00	-1.533271e+02
1.560000e-06	-1.249137e-06	-2.147180e-09	-9.235031e+00	-1.513782e+02
1.570000e-06	-1.205760e-06	-2.116045e-09	-8.914336e+00	-1.493867e+02
1.580000e-06	-1.162319e-06	-2.087181e-09	-8.593174e+00	-1.473486e+02
1.590000e-06	-1.118809e-06	-2.057280e-09	-8.271502e+00	-1.452603e+02
1.600000e-06	-1.075219e-06	-2.025581e-09	-7.949235e+00	-1.431176e+02
1.610000e-06	-1.031533e-06	-1.991781e-09	-7.626259e+00	-1.409164e+02
1.620000e-06	-9.878236e-07	-1.959700e-09	-7.303107e+00	-1.386525e+02
1.630000e-06	-9.441369e-07	-1.926278e-09	-6.980126e+00	-1.363216e+02
1.640000e-06	-9.003977e-07	-1.885003e-09	-6.656756e+00	-1.339193e+02
1.650000e-06	-8.566053e-07	-1.843700e-09	-6.332993e+00	-1.314413e+02
1.660000e-06	-8.127822e-07	-1.804999e-09	-6.009004e+00	-1.288835e+02
1.670000e-06	-7.689263e-07	-1.766255e-09	-5.684772e+00	-1.262415e+02
1.680000e-06	-7.250616e-07	-1.724361e-09	-5.360474e+00	-1.235115e+02
1.690000e-06	-6.811883e-07	-1.680823e-09	-5.036113e+00	-1.206895e+02
1.700000e-06	-6.372898e-07	-1.637819e-09	-4.711566e+00	-1.177719e+02
1.710000e-06	-5.933697e-07	-1.596349e-09	-4.386859e+00	-1.147554e+02
1.720000e-06	-5.494601e-07	-1.554529e-09	-4.062230e+00	-1.116367e+02
1.730000e-06	-5.055581e-07	-1.506850e-09	-3.737656e+00	-1.084131e+02
1.740000e-06	-4.615817e-07	-1.457673e-09	-3.412533e+00	-1.050823e+02
1.750000e-06	-4.175874e-07	-1.409839e-09	-3.087278e+00	-1.016422e+02
1.760000e-06	-3.736042e-07	-1.358402e-09	-2.762104e+00	-9.809112e+01
1.770000e-06	-3.295432e-07	-1.302910e-09	-2.436356e+00	-9.442801e+01
1.780000e-06	-2.854409e-07	-1.247778e-09	-2.110301e+00	-9.065219e+01
1.790000e-06	-2.413512e-07	-1.191740e-09	-1.784341e+00	-8.676347e+01
1.800000e-06	-1.972706e-07	-1.132557e-09	-1.458447e+00	-8.276221e+01
1.810000e-06	-1.531814e-07	-1.070340e-09	-1.132490e+00	-7.864929e+01
1.820000e-06	-1.090848e-07	-1.007297e-09	-8.064779e-01	-7.442611e+01
1.830000e-06	-6.498946e-08	-9.420333e-10	-4.804755e-01	-7.009466e+01
1.840000e-06	-2.090773e-08	-8.740658e-10	-1.545735e-01	-6.565743e+01
1.850000e-06	2.311533e-08	-8.034943e-10	1.708946e-01	-6.111749e+01
1.860000e-06	6.718305e-08	-7.296450e-10	4.966929e-01	-5.647844e+01
1.870000e-06	1.112614e-07	-6.570839e-10	8.225700e-01	-5.174439e+01
1.880000e-06	1.553098e-07	-5.830063e-10	1.148225e+00	-4.692000e+01
1.890000e-06	1.993997e-07	-5.071433e-10	1.474188e+00	-4.201038e+01
1.900000e-06	2.434604e-07	-4.329672e-10	1.799934e+00	-3.702115e+01
1.910000e-06	2.874665e-07	-3.586943e-10	2.125277e+00	-3.195834e+01
1.920000e-06	3.315023e-07	-2.835369e-10	2.450839e+00	-2.682841e+01
1.930000e-06	3.755451e-07	-2.017765e-10	2.776453e+00	-2.163820e+01
1.940000e-06	4.195306e-07	-1.154924e-10	3.101644e+00	-1.639487e+01
1.950000e-06	4.634968e-07	-2.896525e-11	3.426692e+00	-1.110591e+01
1.960000e-06	5.074440e-07	5.563078e-11	3.751599e+00	-5.779052e+00
1.970000e-06	5.513721e-07	1.409446e-10	4.076365e+00	-4.222420e-01
1.980000e-06	5.952895e-07	2.249501e-10	4.401052e+00	4.956400e+00
1.990000e-06	6.391922e-07	3.039476e-10	4.725631e+00	1.034864e+01
2.000000e-06	6.830827e-07	3.811141e-10	5.050119e+00	1.574615e+01
2.010000e-06	7.269623e-07	4.609621e-10	5.374526e+00	2.114062e+01
2.020000e-06	7.708054e-07	5.450872e-10	5.698664e+00	2.652371e+01
2.030000e-06	8.146414e-07	6.290392e-10	6.022749e+00	3.188721e+01
2.040000e-06	8.584579e-07	7.128870e-10	6.346690e+00	3.722298e+01
2.050000e-06	9.022423e-07	7.981808e-10	6.670394e+00	4.252308e+01
2.060000e-06	9.460275e-07	8.830212e-10	6.994103e+00	4.777977e+01
2.070000e-06	9.897610e-07	9.651139e-10	7.317431e+00	5.298556e+01
2.080000e-06	1.033396e-06	1.042755e-09	7.640033e+00	5.813327e+01
2.090000e-06	1.076941e-06	1.118152e-09	7.961961e+00	6.321605e+01
2.100000e-06	1.120430e-06	1.191984e-09	8.283483e+00	6.822741e+01
2.110000e-06	1.163937e-06	1.262918e-09	8.605139e+00	7.316126e+01
2.120000e-06	1.207356e-06	1.333897e-09	8.926138e+00	7.801197e+01
2.130000e-06	1.250631e-06	1.405321e-09	9.246078e+00	8.277432e+01
2.140000e-06	1.293841e-06	1.477002e-09	9.565532e+00	8.744360e+01
2.150000e-06	1.336853e-06	1.546680e-09	9.883528e+00	9.201560e+01
2.160000e-06	1.379684e-06	1.613309e-09	1.020019e+01	9.648658e+01
2.170000e-06	1.422395e-06	1.675987e-09	1.051595e+01	1.008533e+02
2.180000e-06	1.464893e-06	1.737270e-09	1.083014e+01	1.051132e+02
2.190000e-06	1.507211e-06	1.796433e-09	1.114301e+01	1.092641e+02
2.200000e-06	1.549347e-06	1.851437e-09	1.145452e+01	1.133042e+02
2.210000e-06	1.591283e-06	1.901755e-09	1.176456e+01	1.172326e+02
2.220000e-06	1.633043e-06	1.953667e-09	1.207329e+01	1.210485e+02
2.230000e-06	1.674599e-06	2.007409e-09	1.238053e+01	1.247519e+02
2.240000e-06	1.715894e-06	2.057029e-09	1.268582e+01	1.283431e+02
2.250000e-06	1.756934e-06	2.104474e-09	1.298924e+01	1.318228e+02
2.260000e-06	1.797780e-06	2.151180e-09	1.329122e+01	1.351924e+02
2.270000e-06	1.838454e-06	2.196521e-09	1.359193e+01	1.384535e+02
2.280000e-06	1.879037e-06	2.238755e-09	1.389197e+01	1.416079e+02
2.290000e-06	1.919520e-06	2.278918e-09	1.419126e+01	1.446582e+02
2.300000e-06	1.959849e-06	2.316397e-09	1.448942e+01	1.476068e+02
2.310000e-06	1.999988e-06	2.354116e-09	1.478617e+01	1.504568e+02
2.320000e-06	2.040002e-06	2.391292e-09	1.508200e+01	1.532113e+02
2.330000e-06	2.079998e-06	2.427819e-09	1.537769e+01	1.558736e+02
2.340000e-06	2.119905e-06	2.462005e-09	1.567273e+01	1.584473e+02
2.350000e-06	2.159742e-06	2.498275e-09	1.596725e+01	1.609361e+02
2.360000e-06	2.199491e-06	2.534709e-09	1.626112e+01	1.633437e+02
2.370000e-06	2.239103e-06	2.566942e-09	1.655398e+01	1.656740e+02
2.380000e-06	2.278624e-06	2.600609e-09	1.684616e+01	1.679307e+02
2.390000e-06	2.318019e-06	2.633851e-09	1.713741e+01	1.701178e+02
2.400000e-06	2.357250e-06	2.665231e-09	1.742745e+01	1.722391e+02
2.410000e-06	2.396364e-06	2.696802e-09	1.771663e+01	1.742983e+02
2.420000e-06	2.435343e-06	2.727126e-09	1.800480e+01	1.762990e+02
2.430000e-06	2.474076e-06	2.753550e-09	1.829116e+01	1.782449e+02
2.440000e-06	2.512649e-06	2.778697e-09	1.857633e+01	1.801393e+02
2.450000e-06	2.551047e-06	2.804512e-09	1.886022e+01	1.819855e+02
2.460000e-06	2.589154e-06	2.831690e-09	1.914195e+01	1.837866e+02
2.470000e-06	2.627044e-06	2.859321e-09	1.942207e+01	1.855454e+02
2.480000e-06	2.664787e-06	2.886789e-09	1.970111e+01	1.872645e+02
2.490000e-06	2.702437e-06	2.912594e-09	1.997946e+01	1.889466e+02
2.500000e-06	2.739953e-06	2.938022e-09	2.025683e+01	1.905937e+02
2.510000e-06	2.777274e-06	2.964595e-09	2.053275e+01	1.922080e+02
2.520000e-06	2.814336e-06	2.989551e-09	2.080675e+01	1.937913e+02
2.530000e-06	2.851067e-06	3.009831e-09	2.107830e+01	1.953450e+02
2.540000e-06	2.887585e-06	3.029349e-09	2.134828e+01	1.968707e+02
2.550000e-06	2.923971e-06	3.051165e-09	2.161729e+01	1.983695e+02
2.560000e-06	2.960207e-06	3.075481e-09	2.188519e+01	1.998422e+02
2.570000e-06	2.996320e-06	3.098943e-09	2.215218e+01	2.012898e+02
2.580000e-06	3.032335e-06	3.118196e-09	2.241845e+01	2.027128e+02
2.590000e-06	3.068255e-06	3.136957e-09	2.268400e+01	2.041115e+02
2.600000e-06	3.104053e-06	3.159129e-09	2.294866e+01	2.054864e+02
2.610000e-06	3.139745e-06	3.179229e-09	2.321254e+01	2.068375e+02
2.620000e-06	3.175246e-06	3.193911e-09	2.347500e+01	2.081649e+02
2.630000e-06	3.210434e-06	3.211598e-09	2.373515e+01	2.094684e+02
2.640000e-06	3.245219e-06	3.233844e-09	2.399232e+01	2.107480e+02
2.650000e-06	3.279517e-06	3.254598e-09	2.424590e+01	2.120034e+02
2.660000e-06	3.313483e-06	3.272622e-09	2.449701e+01	2.132344e+02
2.670000e-06	3.347166e-06	3.291145e-09	2.474603e+01	2.144407e+02
2.680000e-06	3.380466e-06	3.310161e-09	2.499222e+01	2.156220e+02
2.690000e-06	3.413364e-06	3.329229e-09	2.523544e+01	2.167780e+02
2.700000e-06	3.445889e-06	3.346548e-09	2.547590e+01	2.179083e+02
2.710000e-06	3.478188e-06	3.361682e-09	2.571469e+01	2.190129e+02
2.720000e-06	3.510345e-06	3.377457e-09	2.595243e+01	2.200914e+02
2.730000e-06	3.542352e-06	3.394576e-09	2.618906e+01	2.211437e+02
2.740000e-06	3.574173e-06	3.411731e-09	2.642432e+01	2.221698e+02
2.750000e-06	3.605794e-06	3.428238e-09	2.665810e+01	2.231696e+02
2.760000e-06	3.637258e-06	3.442708e-09	2.689072e+01	2.241432e+02
2.770000e-06	3.668497e-06	3.456721e-09	2.712167e+01	2.250909e+02
2.780000e-06	3.699459e-06	3.469938e-09	2.735058e+01	2.260127e+02
2.790000e-06	3.730162e-06	3.483591e-09	2.757757e+01	2.269091e+02
2.800000e-06	3.760576e-06	3.496964e-09	2.780243e+01	2.277805e+02
2.810000e-06	3.790701e-06	3.510448e-09	2.802514e+01	2.286274e+02
2.820000e-06	3.820593e-06	3.523486e-09	2.824614e+01	2.294504e+02
2.830000e-06	3.850289e-06	3.534120e-09	2.846569e+01	2.302502e+02
2.840000e-06	3.879716e-06	3.544856e-09	2.868324e+01	2.310274e+02
2.850000e-06	3.908820e-06	3.558590e-09	2.889841e+01	2.317830e+02
2.860000e-06	3.937641e-06	3.574235e-09	2.911149e+01	2.325178e+02
2.870000e-06	3.966241e-06	3.584806e-09	2.932293e+01	2.332327e+02
2.880000e-06	3.994681e-06	3.592612e-09	2.953319e+01	2.339286e+02
2.890000e-06	4.022896e-06	3.603234e-09	2.974179e+01	2.346065e+02
2.900000e-06	4.050869e-06	3.616191e-09	2.994860e+01	2.352675e+02
