# Temperatura_=_20.0
# Concentracion g/m^3_=_9000.0
# C_Vs_to_Am_M_A/Vsm_=_65563218390.804596
# pendiente_HvsI_1/m_=_3716.3
# ordenada_HvsI_A/m_=_1297.0
# frecuencia_Hz_=_135188.6306342705

Tiempo_(s)	Campo_(V.s)	Magnetizacion_(V.s)	Campo_(kA/m)	Magnetizacion_(A/m)
0.000000e+00	-5.208309e-06	-3.918683e-09	-3.842719e+01	-2.540013e+02
1.000000e-08	-5.208353e-06	-3.917871e-09	-3.842752e+01	-2.540163e+02
2.000000e-08	-5.208147e-06	-3.917541e-09	-3.842600e+01	-2.540252e+02
3.000000e-08	-5.207586e-06	-3.919115e-09	-3.842186e+01	-2.540277e+02
4.000000e-08	-5.206589e-06	-3.919663e-09	-3.841450e+01	-2.540234e+02
5.000000e-08	-5.204995e-06	-3.915350e-09	-3.840274e+01	-2.540121e+02
6.000000e-08	-5.202764e-06	-3.899119e-09	-3.838628e+01	-2.539937e+02
7.000000e-08	-5.200101e-06	-3.895507e-09	-3.836663e+01	-2.539681e+02
8.000000e-08	-5.197000e-06	-3.980546e-09	-3.834376e+01	-2.539350e+02
9.000000e-08	-5.193406e-06	-4.032270e-09	-3.831724e+01	-2.538945e+02
1.000000e-07	-5.189446e-06	-3.846202e-09	-3.828802e+01	-2.538466e+02
1.100000e-07	-5.185261e-06	-3.682400e-09	-3.825715e+01	-2.537912e+02
1.200000e-07	-5.180915e-06	-3.845893e-09	-3.822508e+01	-2.537284e+02
1.300000e-07	-5.176205e-06	-4.111680e-09	-3.819033e+01	-2.536584e+02
1.400000e-07	-5.170940e-06	-4.084717e-09	-3.815148e+01	-2.535813e+02
1.500000e-07	-5.165303e-06	-3.723921e-09	-3.810989e+01	-2.534974e+02
1.600000e-07	-5.159488e-06	-3.736209e-09	-3.806699e+01	-2.534069e+02
1.700000e-07	-5.153201e-06	-3.992546e-09	-3.802060e+01	-2.533101e+02
1.800000e-07	-5.146512e-06	-4.196349e-09	-3.797125e+01	-2.532073e+02
1.900000e-07	-5.139613e-06	-4.008112e-09	-3.792035e+01	-2.530989e+02
2.000000e-07	-5.132426e-06	-3.802561e-09	-3.786733e+01	-2.529854e+02
2.100000e-07	-5.124943e-06	-3.813375e-09	-3.781211e+01	-2.528670e+02
2.200000e-07	-5.117214e-06	-4.034460e-09	-3.775509e+01	-2.527442e+02
2.300000e-07	-5.109285e-06	-4.062267e-09	-3.769659e+01	-2.526175e+02
2.400000e-07	-5.100920e-06	-3.729459e-09	-3.763487e+01	-2.524872e+02
2.500000e-07	-5.091773e-06	-3.536472e-09	-3.756738e+01	-2.523538e+02
2.600000e-07	-5.082265e-06	-3.786365e-09	-3.749723e+01	-2.522176e+02
2.700000e-07	-5.072573e-06	-4.050010e-09	-3.742573e+01	-2.520791e+02
2.800000e-07	-5.062146e-06	-3.748977e-09	-3.734879e+01	-2.519385e+02
2.900000e-07	-5.051094e-06	-3.452971e-09	-3.726725e+01	-2.517961e+02
3.000000e-07	-5.039649e-06	-3.691674e-09	-3.718281e+01	-2.516523e+02
3.100000e-07	-5.027823e-06	-4.037561e-09	-3.709556e+01	-2.515071e+02
3.200000e-07	-5.015552e-06	-3.807796e-09	-3.700502e+01	-2.513609e+02
3.300000e-07	-5.002899e-06	-3.571202e-09	-3.691166e+01	-2.512135e+02
3.400000e-07	-4.989961e-06	-3.710640e-09	-3.681621e+01	-2.510652e+02
3.500000e-07	-4.976622e-06	-3.940654e-09	-3.671779e+01	-2.509158e+02
3.600000e-07	-4.962959e-06	-3.841876e-09	-3.661698e+01	-2.507651e+02
3.700000e-07	-4.949054e-06	-3.783948e-09	-3.651440e+01	-2.506131e+02
3.800000e-07	-4.934631e-06	-3.670080e-09	-3.640798e+01	-2.504595e+02
3.900000e-07	-4.919581e-06	-3.645753e-09	-3.629694e+01	-2.503039e+02
4.000000e-07	-4.904113e-06	-3.837711e-09	-3.618282e+01	-2.501459e+02
4.100000e-07	-4.888200e-06	-3.951570e-09	-3.606541e+01	-2.499851e+02
4.200000e-07	-4.871675e-06	-3.639169e-09	-3.594349e+01	-2.498210e+02
4.300000e-07	-4.854696e-06	-3.533251e-09	-3.581822e+01	-2.496528e+02
4.400000e-07	-4.837568e-06	-3.914540e-09	-3.569185e+01	-2.494801e+02
4.500000e-07	-4.820281e-06	-4.011497e-09	-3.556430e+01	-2.493020e+02
4.600000e-07	-4.802668e-06	-3.628345e-09	-3.543435e+01	-2.491180e+02
4.700000e-07	-4.784763e-06	-3.577850e-09	-3.530225e+01	-2.489271e+02
4.800000e-07	-4.766611e-06	-3.930813e-09	-3.516832e+01	-2.487286e+02
4.900000e-07	-4.747999e-06	-3.937248e-09	-3.503100e+01	-2.485216e+02
5.000000e-07	-4.728915e-06	-3.666855e-09	-3.489020e+01	-2.483055e+02
5.100000e-07	-4.709540e-06	-3.653951e-09	-3.474725e+01	-2.480793e+02
5.200000e-07	-4.689911e-06	-3.828891e-09	-3.460243e+01	-2.478422e+02
5.300000e-07	-4.670081e-06	-3.810302e-09	-3.445612e+01	-2.475935e+02
5.400000e-07	-4.650008e-06	-3.742203e-09	-3.430802e+01	-2.473323e+02
5.500000e-07	-4.629663e-06	-3.719893e-09	-3.415791e+01	-2.470581e+02
5.600000e-07	-4.609011e-06	-3.712712e-09	-3.400554e+01	-2.467701e+02
5.700000e-07	-4.587962e-06	-3.726288e-09	-3.385024e+01	-2.464677e+02
5.800000e-07	-4.566711e-06	-3.811608e-09	-3.369345e+01	-2.461504e+02
5.900000e-07	-4.545251e-06	-3.746192e-09	-3.353512e+01	-2.458177e+02
6.000000e-07	-4.523416e-06	-3.613449e-09	-3.337402e+01	-2.454692e+02
6.100000e-07	-4.501280e-06	-3.658319e-09	-3.321070e+01	-2.451046e+02
6.200000e-07	-4.478846e-06	-3.806943e-09	-3.304517e+01	-2.447237e+02
6.300000e-07	-4.456092e-06	-3.711718e-09	-3.287729e+01	-2.443265e+02
6.400000e-07	-4.432973e-06	-3.567966e-09	-3.270672e+01	-2.439127e+02
6.500000e-07	-4.409558e-06	-3.643949e-09	-3.253397e+01	-2.434826e+02
6.600000e-07	-4.385904e-06	-3.764783e-09	-3.235944e+01	-2.430364e+02
6.700000e-07	-4.362050e-06	-3.683553e-09	-3.218345e+01	-2.425741e+02
6.800000e-07	-4.338024e-06	-3.595798e-09	-3.200618e+01	-2.420964e+02
6.900000e-07	-4.313710e-06	-3.631889e-09	-3.182680e+01	-2.416034e+02
7.000000e-07	-4.289059e-06	-3.677234e-09	-3.164491e+01	-2.410959e+02
7.100000e-07	-4.263906e-06	-3.651990e-09	-3.145934e+01	-2.405744e+02
7.200000e-07	-4.238305e-06	-3.613704e-09	-3.127045e+01	-2.400395e+02
7.300000e-07	-4.212222e-06	-3.594368e-09	-3.107800e+01	-2.394921e+02
7.400000e-07	-4.185613e-06	-3.598516e-09	-3.088169e+01	-2.389328e+02
7.500000e-07	-4.158582e-06	-3.619718e-09	-3.068225e+01	-2.383626e+02
7.600000e-07	-4.131181e-06	-3.611854e-09	-3.048008e+01	-2.377823e+02
7.700000e-07	-4.103556e-06	-3.568106e-09	-3.027626e+01	-2.371927e+02
7.800000e-07	-4.075796e-06	-3.539619e-09	-3.007145e+01	-2.365948e+02
7.900000e-07	-4.047896e-06	-3.581195e-09	-2.986560e+01	-2.359895e+02
8.000000e-07	-4.019779e-06	-3.595198e-09	-2.965815e+01	-2.353775e+02
8.100000e-07	-3.991392e-06	-3.528606e-09	-2.944871e+01	-2.347598e+02
8.200000e-07	-3.962704e-06	-3.479483e-09	-2.923705e+01	-2.341372e+02
8.300000e-07	-3.933694e-06	-3.530670e-09	-2.902302e+01	-2.335103e+02
8.400000e-07	-3.904351e-06	-3.547249e-09	-2.880652e+01	-2.328799e+02
8.500000e-07	-3.874744e-06	-3.485857e-09	-2.858807e+01	-2.322466e+02
8.600000e-07	-3.844873e-06	-3.449641e-09	-2.836769e+01	-2.316109e+02
8.700000e-07	-3.814817e-06	-3.486740e-09	-2.814593e+01	-2.309731e+02
8.800000e-07	-3.784575e-06	-3.495339e-09	-2.792280e+01	-2.303337e+02
8.900000e-07	-3.754069e-06	-3.465081e-09	-2.769773e+01	-2.296928e+02
9.000000e-07	-3.723300e-06	-3.435819e-09	-2.747071e+01	-2.290505e+02
9.100000e-07	-3.692200e-06	-3.433279e-09	-2.724126e+01	-2.284068e+02
9.200000e-07	-3.660814e-06	-3.434317e-09	-2.700969e+01	-2.277615e+02
9.300000e-07	-3.629305e-06	-3.431391e-09	-2.677722e+01	-2.271144e+02
9.400000e-07	-3.597717e-06	-3.406956e-09	-2.654416e+01	-2.264651e+02
9.500000e-07	-3.565965e-06	-3.380648e-09	-2.630989e+01	-2.258130e+02
9.600000e-07	-3.533992e-06	-3.377905e-09	-2.607399e+01	-2.251574e+02
9.700000e-07	-3.501774e-06	-3.386337e-09	-2.583628e+01	-2.244978e+02
9.800000e-07	-3.469325e-06	-3.365834e-09	-2.559687e+01	-2.238331e+02
9.900000e-07	-3.436656e-06	-3.329402e-09	-2.535584e+01	-2.231624e+02
1.000000e-06	-3.403727e-06	-3.320217e-09	-2.511288e+01	-2.224846e+02
1.010000e-06	-3.370510e-06	-3.329573e-09	-2.486781e+01	-2.217987e+02
1.020000e-06	-3.336849e-06	-3.315181e-09	-2.461946e+01	-2.211034e+02
1.030000e-06	-3.302776e-06	-3.279262e-09	-2.436806e+01	-2.203973e+02
1.040000e-06	-3.268408e-06	-3.262753e-09	-2.411450e+01	-2.196793e+02
1.050000e-06	-3.233577e-06	-3.262615e-09	-2.385751e+01	-2.189480e+02
1.060000e-06	-3.198337e-06	-3.250442e-09	-2.359751e+01	-2.182020e+02
1.070000e-06	-3.162847e-06	-3.224618e-09	-2.333566e+01	-2.174399e+02
1.080000e-06	-3.127166e-06	-3.210407e-09	-2.307241e+01	-2.166604e+02
1.090000e-06	-3.091345e-06	-3.202488e-09	-2.280811e+01	-2.158621e+02
1.100000e-06	-3.055362e-06	-3.193319e-09	-2.254263e+01	-2.150439e+02
1.110000e-06	-3.019290e-06	-3.177320e-09	-2.227649e+01	-2.142045e+02
1.120000e-06	-2.983132e-06	-3.159139e-09	-2.200971e+01	-2.133426e+02
1.130000e-06	-2.946830e-06	-3.140415e-09	-2.174187e+01	-2.124573e+02
1.140000e-06	-2.910372e-06	-3.131316e-09	-2.147289e+01	-2.115476e+02
1.150000e-06	-2.873671e-06	-3.118818e-09	-2.120210e+01	-2.106126e+02
1.160000e-06	-2.836735e-06	-3.097445e-09	-2.092959e+01	-2.096516e+02
1.170000e-06	-2.799540e-06	-3.073563e-09	-2.065517e+01	-2.086639e+02
1.180000e-06	-2.762019e-06	-3.064218e-09	-2.037833e+01	-2.076490e+02
1.190000e-06	-2.724319e-06	-3.055790e-09	-2.010018e+01	-2.066066e+02
1.200000e-06	-2.686470e-06	-3.035103e-09	-1.982093e+01	-2.055364e+02
1.210000e-06	-2.648511e-06	-3.009181e-09	-1.954086e+01	-2.044384e+02
1.220000e-06	-2.610435e-06	-2.995897e-09	-1.925993e+01	-2.033125e+02
1.230000e-06	-2.572096e-06	-2.984537e-09	-1.897706e+01	-2.021590e+02
1.240000e-06	-2.533493e-06	-2.960884e-09	-1.869225e+01	-2.009781e+02
1.250000e-06	-2.494717e-06	-2.935020e-09	-1.840616e+01	-1.997703e+02
1.260000e-06	-2.455818e-06	-2.916211e-09	-1.811916e+01	-1.985360e+02
1.270000e-06	-2.416649e-06	-2.901618e-09	-1.783017e+01	-1.972759e+02
1.280000e-06	-2.377367e-06	-2.885668e-09	-1.754035e+01	-1.959907e+02
1.290000e-06	-2.338050e-06	-2.866655e-09	-1.725026e+01	-1.946812e+02
1.300000e-06	-2.298508e-06	-2.844134e-09	-1.695852e+01	-1.933481e+02
1.310000e-06	-2.258811e-06	-2.823419e-09	-1.666564e+01	-1.919923e+02
1.320000e-06	-2.219064e-06	-2.808234e-09	-1.637238e+01	-1.906148e+02
1.330000e-06	-2.179212e-06	-2.788045e-09	-1.607835e+01	-1.892163e+02
1.340000e-06	-2.139287e-06	-2.759902e-09	-1.578378e+01	-1.877977e+02
1.350000e-06	-2.099286e-06	-2.735822e-09	-1.548865e+01	-1.863598e+02
1.360000e-06	-2.059177e-06	-2.717782e-09	-1.519272e+01	-1.849033e+02
1.370000e-06	-2.019043e-06	-2.695768e-09	-1.489661e+01	-1.834288e+02
1.380000e-06	-1.978775e-06	-2.668664e-09	-1.459951e+01	-1.819368e+02
1.390000e-06	-1.938278e-06	-2.647193e-09	-1.430072e+01	-1.804278e+02
1.400000e-06	-1.897658e-06	-2.629647e-09	-1.400102e+01	-1.789019e+02
1.410000e-06	-1.857002e-06	-2.607380e-09	-1.370106e+01	-1.773593e+02
1.420000e-06	-1.816185e-06	-2.578695e-09	-1.339991e+01	-1.757996e+02
1.430000e-06	-1.775134e-06	-2.553823e-09	-1.309704e+01	-1.742227e+02
1.440000e-06	-1.733826e-06	-2.530416e-09	-1.279226e+01	-1.726279e+02
1.450000e-06	-1.692251e-06	-2.501444e-09	-1.248552e+01	-1.710144e+02
1.460000e-06	-1.650499e-06	-2.471495e-09	-1.217747e+01	-1.693811e+02
1.470000e-06	-1.608458e-06	-2.445833e-09	-1.186729e+01	-1.677268e+02
1.480000e-06	-1.566170e-06	-2.421850e-09	-1.155529e+01	-1.660498e+02
1.490000e-06	-1.523804e-06	-2.397281e-09	-1.124271e+01	-1.643483e+02
1.500000e-06	-1.481275e-06	-2.369450e-09	-1.092893e+01	-1.626201e+02
1.510000e-06	-1.438574e-06	-2.338831e-09	-1.061388e+01	-1.608630e+02
1.520000e-06	-1.395665e-06	-2.306125e-09	-1.029729e+01	-1.590743e+02
1.530000e-06	-1.352551e-06	-2.277482e-09	-9.979193e+00	-1.572511e+02
1.540000e-06	-1.309364e-06	-2.246134e-09	-9.660562e+00	-1.553902e+02
1.550000e-06	-1.266155e-06	-2.211464e-09	-9.341761e+00	-1.534885e+02
1.560000e-06	-1.222906e-06	-2.176356e-09	-9.022668e+00	-1.515422e+02
1.570000e-06	-1.179543e-06	-2.144087e-09	-8.702734e+00	-1.495478e+02
1.580000e-06	-1.136033e-06	-2.110997e-09	-8.381716e+00	-1.475012e+02
1.590000e-06	-1.092433e-06	-2.077932e-09	-8.060034e+00	-1.453986e+02
1.600000e-06	-1.048764e-06	-2.045485e-09	-7.737837e+00	-1.432358e+02
1.610000e-06	-1.005000e-06	-2.013427e-09	-7.414947e+00	-1.410086e+02
1.620000e-06	-9.611914e-07	-1.983591e-09	-7.091724e+00	-1.387127e+02
1.630000e-06	-9.173613e-07	-1.948025e-09	-6.768343e+00	-1.363440e+02
1.640000e-06	-8.735044e-07	-1.905724e-09	-6.444764e+00	-1.338982e+02
1.650000e-06	-8.296373e-07	-1.861630e-09	-6.121110e+00	-1.313712e+02
1.660000e-06	-7.857569e-07	-1.821866e-09	-5.797358e+00	-1.287590e+02
1.670000e-06	-7.418500e-07	-1.781375e-09	-5.473411e+00	-1.260575e+02
1.680000e-06	-6.978552e-07	-1.739060e-09	-5.148815e+00	-1.232632e+02
1.690000e-06	-6.538191e-07	-1.697014e-09	-4.823914e+00	-1.203725e+02
1.700000e-06	-6.098338e-07	-1.658747e-09	-4.499387e+00	-1.173821e+02
1.710000e-06	-5.658554e-07	-1.617096e-09	-4.174913e+00	-1.142890e+02
1.720000e-06	-5.218404e-07	-1.569289e-09	-3.850167e+00	-1.110907e+02
1.730000e-06	-4.777674e-07	-1.515963e-09	-3.524995e+00	-1.077847e+02
1.740000e-06	-4.336707e-07	-1.464900e-09	-3.199647e+00	-1.043693e+02
1.750000e-06	-3.895854e-07	-1.415350e-09	-2.874382e+00	-1.008429e+02
1.760000e-06	-3.454549e-07	-1.361012e-09	-2.548785e+00	-9.720451e+01
1.770000e-06	-3.012827e-07	-1.306512e-09	-2.222880e+00	-9.345346e+01
1.780000e-06	-2.571568e-07	-1.250240e-09	-1.897317e+00	-8.958969e+01
1.790000e-06	-2.129982e-07	-1.192539e-09	-1.571513e+00	-8.561360e+01
1.800000e-06	-1.687802e-07	-1.131060e-09	-1.245270e+00	-8.152610e+01
1.810000e-06	-1.246040e-07	-1.066567e-09	-9.193353e-01	-7.732863e+01
1.820000e-06	-8.041115e-08	-1.002818e-09	-5.932779e-01	-7.302316e+01
1.830000e-06	-3.619463e-08	-9.387733e-10	-2.670460e-01	-6.861218e+01
1.840000e-06	8.012385e-09	-8.712656e-10	5.911582e-02	-6.409872e+01
1.850000e-06	5.215893e-08	-8.002823e-10	3.848315e-01	-5.948633e+01
1.860000e-06	9.631144e-08	-7.302730e-10	7.105912e-01	-5.477906e+01
1.870000e-06	1.404953e-07	-6.595107e-10	1.036582e+00	-4.998148e+01
1.880000e-06	1.845989e-07	-5.855410e-10	1.361981e+00	-4.509861e+01
1.890000e-06	2.286722e-07	-5.087922e-10	1.687156e+00	-4.013596e+01
1.900000e-06	2.727872e-07	-4.319229e-10	2.012639e+00	-3.509944e+01
1.910000e-06	3.168963e-07	-3.545094e-10	2.338079e+00	-2.999538e+01
1.920000e-06	3.609356e-07	-2.757653e-10	2.663003e+00	-2.483047e+01
1.930000e-06	4.049688e-07	-1.928968e-10	2.987883e+00	-1.961175e+01
1.940000e-06	4.490498e-07	-1.081562e-10	3.313114e+00	-1.434655e+01
1.950000e-06	4.931331e-07	-2.580243e-11	3.638363e+00	-9.042436e+00
1.960000e-06	5.371985e-07	5.299284e-11	3.963481e+00	-3.707221e+00
1.970000e-06	5.812273e-07	1.323493e-10	4.288328e+00	1.651128e+00
1.980000e-06	6.251962e-07	2.184910e-10	4.612732e+00	7.024515e+00
1.990000e-06	6.691273e-07	3.043145e-10	4.936858e+00	1.240477e+01
2.000000e-06	7.130628e-07	3.873010e-10	5.261017e+00	1.778367e+01
2.010000e-06	7.569994e-07	4.700361e-10	5.585183e+00	2.315304e+01
2.020000e-06	8.008540e-07	5.551621e-10	5.908745e+00	2.850474e+01
2.030000e-06	8.446912e-07	6.405258e-10	6.232179e+00	3.383073e+01
2.040000e-06	8.885557e-07	7.222311e-10	6.555814e+00	3.912314e+01
2.050000e-06	9.324022e-07	7.995901e-10	6.879315e+00	4.437429e+01
2.060000e-06	9.762059e-07	8.779296e-10	7.202501e+00	4.957673e+01
2.070000e-06	1.019980e-06	9.585797e-10	7.525471e+00	5.472330e+01
2.080000e-06	1.063745e-06	1.039462e-09	7.848368e+00	5.980713e+01
2.090000e-06	1.107425e-06	1.116823e-09	8.170646e+00	6.482172e+01
2.100000e-06	1.150980e-06	1.191510e-09	8.491995e+00	6.976095e+01
2.110000e-06	1.194459e-06	1.266323e-09	8.812783e+00	7.461910e+01
2.120000e-06	1.237862e-06	1.341526e-09	9.133018e+00	7.939088e+01
2.130000e-06	1.281155e-06	1.413868e-09	9.452436e+00	8.407148e+01
2.140000e-06	1.324284e-06	1.483289e-09	9.770645e+00	8.865655e+01
2.150000e-06	1.367314e-06	1.550189e-09	1.008812e+01	9.314223e+01
2.160000e-06	1.410178e-06	1.614632e-09	1.040437e+01	9.752517e+01
2.170000e-06	1.452810e-06	1.678000e-09	1.071891e+01	1.018025e+02
2.180000e-06	1.495353e-06	1.737809e-09	1.103280e+01	1.059719e+02
2.190000e-06	1.537706e-06	1.793475e-09	1.134528e+01	1.100316e+02
2.200000e-06	1.579911e-06	1.848192e-09	1.165667e+01	1.139801e+02
2.210000e-06	1.621909e-06	1.903783e-09	1.196653e+01	1.178168e+02
2.220000e-06	1.663641e-06	1.955839e-09	1.227444e+01	1.215412e+02
2.230000e-06	1.705222e-06	2.003815e-09	1.258122e+01	1.251534e+02
2.240000e-06	1.746593e-06	2.051861e-09	1.288646e+01	1.286542e+02
2.250000e-06	1.787610e-06	2.099182e-09	1.318909e+01	1.320444e+02
2.260000e-06	1.828330e-06	2.142416e-09	1.348952e+01	1.353254e+02
2.270000e-06	1.868946e-06	2.182962e-09	1.378919e+01	1.384992e+02
2.280000e-06	1.909485e-06	2.223088e-09	1.408828e+01	1.415677e+02
2.290000e-06	1.949895e-06	2.264559e-09	1.438643e+01	1.445336e+02
2.300000e-06	1.990118e-06	2.304917e-09	1.468320e+01	1.473995e+02
2.310000e-06	2.030236e-06	2.343915e-09	1.497919e+01	1.501684e+02
2.320000e-06	2.070295e-06	2.380427e-09	1.527475e+01	1.528436e+02
2.330000e-06	2.110217e-06	2.416474e-09	1.556930e+01	1.554286e+02
2.340000e-06	2.150063e-06	2.454160e-09	1.586329e+01	1.579268e+02
2.350000e-06	2.189919e-06	2.489687e-09	1.615735e+01	1.603420e+02
2.360000e-06	2.229745e-06	2.521984e-09	1.645118e+01	1.626779e+02
2.370000e-06	2.269450e-06	2.552497e-09	1.674413e+01	1.649385e+02
2.380000e-06	2.309003e-06	2.583030e-09	1.703595e+01	1.671274e+02
2.390000e-06	2.348385e-06	2.616668e-09	1.732652e+01	1.692486e+02
2.400000e-06	2.387608e-06	2.650418e-09	1.761590e+01	1.713058e+02
2.410000e-06	2.426707e-06	2.680645e-09	1.790438e+01	1.733028e+02
2.420000e-06	2.465513e-06	2.707113e-09	1.819069e+01	1.752432e+02
2.430000e-06	2.504019e-06	2.734409e-09	1.847479e+01	1.771305e+02
2.440000e-06	2.542455e-06	2.763122e-09	1.875838e+01	1.789680e+02
2.450000e-06	2.580776e-06	2.790697e-09	1.904111e+01	1.807589e+02
2.460000e-06	2.618876e-06	2.816216e-09	1.932221e+01	1.825063e+02
2.470000e-06	2.656896e-06	2.840287e-09	1.960272e+01	1.842130e+02
2.480000e-06	2.694742e-06	2.866137e-09	1.988195e+01	1.858816e+02
2.490000e-06	2.732359e-06	2.893234e-09	2.015950e+01	1.875146e+02
2.500000e-06	2.769824e-06	2.918793e-09	2.043591e+01	1.891141e+02
2.510000e-06	2.807047e-06	2.942813e-09	2.071055e+01	1.906822e+02
2.520000e-06	2.844043e-06	2.968077e-09	2.098351e+01	1.922205e+02
2.530000e-06	2.880761e-06	2.991548e-09	2.125442e+01	1.937307e+02
2.540000e-06	2.917260e-06	3.013447e-09	2.152370e+01	1.952141e+02
2.550000e-06	2.953661e-06	3.035657e-09	2.179227e+01	1.966717e+02
2.560000e-06	2.989884e-06	3.058883e-09	2.205953e+01	1.981046e+02
2.570000e-06	3.025925e-06	3.081291e-09	2.232544e+01	1.995135e+02
2.580000e-06	3.061878e-06	3.101888e-09	2.259071e+01	2.008988e+02
2.590000e-06	3.097737e-06	3.121444e-09	2.285528e+01	2.022611e+02
2.600000e-06	3.133515e-06	3.140522e-09	2.311925e+01	2.036005e+02
2.610000e-06	3.169212e-06	3.160115e-09	2.338262e+01	2.049172e+02
2.620000e-06	3.204593e-06	3.180808e-09	2.364367e+01	2.062111e+02
2.630000e-06	3.239690e-06	3.200465e-09	2.390261e+01	2.074821e+02
2.640000e-06	3.274528e-06	3.218705e-09	2.415965e+01	2.087301e+02
2.650000e-06	3.308912e-06	3.237230e-09	2.441334e+01	2.099547e+02
2.660000e-06	3.342889e-06	3.254874e-09	2.466402e+01	2.111557e+02
2.670000e-06	3.376409e-06	3.273431e-09	2.491133e+01	2.123328e+02
2.680000e-06	3.409497e-06	3.293251e-09	2.515546e+01	2.134855e+02
2.690000e-06	3.442242e-06	3.309930e-09	2.539706e+01	2.146135e+02
2.700000e-06	3.474691e-06	3.324872e-09	2.563646e+01	2.157164e+02
2.710000e-06	3.506962e-06	3.341890e-09	2.587456e+01	2.167939e+02
2.720000e-06	3.539070e-06	3.358126e-09	2.611146e+01	2.178459e+02
2.730000e-06	3.571060e-06	3.372674e-09	2.634748e+01	2.188719e+02
2.740000e-06	3.602944e-06	3.386156e-09	2.658272e+01	2.198719e+02
2.750000e-06	3.634596e-06	3.398677e-09	2.681625e+01	2.208457e+02
2.760000e-06	3.666068e-06	3.411698e-09	2.704845e+01	2.217934e+02
2.770000e-06	3.697304e-06	3.425946e-09	2.727891e+01	2.227151e+02
2.780000e-06	3.728232e-06	3.440550e-09	2.750710e+01	2.236107e+02
2.790000e-06	3.758845e-06	3.455273e-09	2.773296e+01	2.244807e+02
2.800000e-06	3.789084e-06	3.470547e-09	2.795608e+01	2.253253e+02
2.810000e-06	3.819049e-06	3.484912e-09	2.817716e+01	2.261450e+02
2.820000e-06	3.848764e-06	3.497742e-09	2.839639e+01	2.269403e+02
2.830000e-06	3.878301e-06	3.509987e-09	2.861432e+01	2.277117e+02
2.840000e-06	3.907720e-06	3.521063e-09	2.883137e+01	2.284599e+02
2.850000e-06	3.936834e-06	3.530808e-09	2.904618e+01	2.291856e+02
2.860000e-06	3.965599e-06	3.540423e-09	2.925841e+01	2.298898e+02
2.870000e-06	3.994153e-06	3.552898e-09	2.946909e+01	2.305731e+02
2.880000e-06	4.022485e-06	3.565102e-09	2.967812e+01	2.312366e+02
2.890000e-06	4.050625e-06	3.576898e-09	2.988574e+01	2.318811e+02
2.900000e-06	4.078643e-06	3.588380e-09	3.009246e+01	2.325077e+02
