# Temperatura_=_20.0
# Concentracion g/m^3_=_9000.0
# C_Vs_to_Am_M_A/Vsm_=_65563218390.804596
# pendiente_HvsI_1/m_=_3716.3
# ordenada_HvsI_A/m_=_1297.0
# frecuencia_Hz_=_135194.6964921836

Tiempo_(s)	Campo_(V.s)	Magnetizacion_(V.s)	Campo_(kA/m)	Magnetizacion_(A/m)
0.000000e+00	-5.198827e-06	-3.891376e-09	-3.842836e+01	-2.480605e+02
1.000000e-08	-5.198965e-06	-3.889666e-09	-3.842938e+01	-2.480218e+02
2.000000e-08	-5.198895e-06	-3.891330e-09	-3.842886e+01	-2.479975e+02
3.000000e-08	-5.198407e-06	-3.892603e-09	-3.842525e+01	-2.479894e+02
4.000000e-08	-5.197480e-06	-3.889851e-09	-3.841840e+01	-2.479991e+02
5.000000e-08	-5.196184e-06	-3.885641e-09	-3.840882e+01	-2.480283e+02
6.000000e-08	-5.194351e-06	-3.880149e-09	-3.839527e+01	-2.480785e+02
7.000000e-08	-5.191855e-06	-3.892412e-09	-3.837682e+01	-2.481508e+02
8.000000e-08	-5.188816e-06	-3.910938e-09	-3.835435e+01	-2.482464e+02
9.000000e-08	-5.185351e-06	-3.896887e-09	-3.832875e+01	-2.483662e+02
1.000000e-07	-5.181560e-06	-3.817565e-09	-3.830073e+01	-2.485110e+02
1.100000e-07	-5.177494e-06	-3.809033e-09	-3.827067e+01	-2.486813e+02
1.200000e-07	-5.173128e-06	-3.888506e-09	-3.823840e+01	-2.488775e+02
1.300000e-07	-5.168535e-06	-3.982197e-09	-3.820444e+01	-2.490997e+02
1.400000e-07	-5.163638e-06	-3.892054e-09	-3.816824e+01	-2.493478e+02
1.500000e-07	-5.158357e-06	-3.814420e-09	-3.812921e+01	-2.496214e+02
1.600000e-07	-5.152621e-06	-3.851025e-09	-3.808681e+01	-2.499201e+02
1.700000e-07	-5.146507e-06	-3.975352e-09	-3.804162e+01	-2.502430e+02
1.800000e-07	-5.140068e-06	-3.989208e-09	-3.799402e+01	-2.505893e+02
1.900000e-07	-5.133271e-06	-3.890625e-09	-3.794378e+01	-2.509576e+02
2.000000e-07	-5.126123e-06	-3.801524e-09	-3.789095e+01	-2.513466e+02
2.100000e-07	-5.118669e-06	-3.763246e-09	-3.783585e+01	-2.517546e+02
2.200000e-07	-5.110995e-06	-3.814052e-09	-3.777913e+01	-2.521799e+02
2.300000e-07	-5.103085e-06	-3.793352e-09	-3.772065e+01	-2.526204e+02
2.400000e-07	-5.094722e-06	-3.719065e-09	-3.765884e+01	-2.530741e+02
2.500000e-07	-5.085825e-06	-3.652533e-09	-3.759308e+01	-2.535385e+02
2.600000e-07	-5.076537e-06	-3.751183e-09	-3.752442e+01	-2.540113e+02
2.700000e-07	-5.066766e-06	-3.803037e-09	-3.745220e+01	-2.544898e+02
2.800000e-07	-5.056476e-06	-3.726081e-09	-3.737614e+01	-2.549714e+02
2.900000e-07	-5.045617e-06	-3.667257e-09	-3.729587e+01	-2.554534e+02
3.000000e-07	-5.034267e-06	-3.840531e-09	-3.721197e+01	-2.559328e+02
3.100000e-07	-5.022556e-06	-3.948653e-09	-3.712541e+01	-2.564069e+02
3.200000e-07	-5.010546e-06	-3.868352e-09	-3.703664e+01	-2.568727e+02
3.300000e-07	-4.998222e-06	-3.799803e-09	-3.694554e+01	-2.573273e+02
3.400000e-07	-4.985475e-06	-3.917797e-09	-3.685132e+01	-2.577680e+02
3.500000e-07	-4.972304e-06	-3.967823e-09	-3.675396e+01	-2.581918e+02
3.600000e-07	-4.958770e-06	-3.905714e-09	-3.665392e+01	-2.585959e+02
3.700000e-07	-4.944908e-06	-3.850051e-09	-3.655145e+01	-2.589777e+02
3.800000e-07	-4.930527e-06	-3.861562e-09	-3.644515e+01	-2.593347e+02
3.900000e-07	-4.915631e-06	-3.887443e-09	-3.633504e+01	-2.596643e+02
4.000000e-07	-4.900213e-06	-3.911299e-09	-3.622108e+01	-2.599642e+02
4.100000e-07	-4.884312e-06	-3.904600e-09	-3.610354e+01	-2.602323e+02
4.200000e-07	-4.868000e-06	-3.832338e-09	-3.598297e+01	-2.604666e+02
4.300000e-07	-4.851221e-06	-3.851780e-09	-3.585894e+01	-2.606652e+02
4.400000e-07	-4.834127e-06	-3.955368e-09	-3.573259e+01	-2.608267e+02
4.500000e-07	-4.816773e-06	-3.961118e-09	-3.560431e+01	-2.609495e+02
4.600000e-07	-4.799154e-06	-3.835199e-09	-3.547408e+01	-2.610326e+02
4.700000e-07	-4.781260e-06	-3.855667e-09	-3.534181e+01	-2.610750e+02
4.800000e-07	-4.763054e-06	-3.966780e-09	-3.520723e+01	-2.610760e+02
4.900000e-07	-4.744590e-06	-3.944627e-09	-3.507076e+01	-2.610351e+02
5.000000e-07	-4.725766e-06	-3.811191e-09	-3.493161e+01	-2.609522e+02
5.100000e-07	-4.706543e-06	-3.839630e-09	-3.478952e+01	-2.608272e+02
5.200000e-07	-4.687008e-06	-3.925427e-09	-3.464512e+01	-2.606605e+02
5.300000e-07	-4.667265e-06	-3.900927e-09	-3.449919e+01	-2.604524e+02
5.400000e-07	-4.647376e-06	-3.817162e-09	-3.435217e+01	-2.602038e+02
5.500000e-07	-4.627213e-06	-3.837579e-09	-3.420313e+01	-2.599156e+02
5.600000e-07	-4.606702e-06	-3.866381e-09	-3.405152e+01	-2.595889e+02
5.700000e-07	-4.585836e-06	-3.862971e-09	-3.389729e+01	-2.592250e+02
5.800000e-07	-4.564644e-06	-3.848898e-09	-3.374064e+01	-2.588256e+02
5.900000e-07	-4.543182e-06	-3.834183e-09	-3.358200e+01	-2.583922e+02
6.000000e-07	-4.521460e-06	-3.803384e-09	-3.342144e+01	-2.579268e+02
6.100000e-07	-4.499395e-06	-3.823890e-09	-3.325834e+01	-2.574314e+02
6.200000e-07	-4.477042e-06	-3.850046e-09	-3.309311e+01	-2.569079e+02
6.300000e-07	-4.454460e-06	-3.800323e-09	-3.292619e+01	-2.563587e+02
6.400000e-07	-4.431530e-06	-3.751178e-09	-3.275669e+01	-2.557860e+02
6.500000e-07	-4.408242e-06	-3.797915e-09	-3.258456e+01	-2.551921e+02
6.600000e-07	-4.384650e-06	-3.838515e-09	-3.241017e+01	-2.545794e+02
6.700000e-07	-4.360864e-06	-3.785754e-09	-3.223435e+01	-2.539503e+02
6.800000e-07	-4.336873e-06	-3.751756e-09	-3.205702e+01	-2.533070e+02
6.900000e-07	-4.312612e-06	-3.782765e-09	-3.187769e+01	-2.526520e+02
7.000000e-07	-4.288044e-06	-3.797571e-09	-3.169609e+01	-2.519875e+02
7.100000e-07	-4.263108e-06	-3.756688e-09	-3.151177e+01	-2.513157e+02
7.200000e-07	-4.237753e-06	-3.733395e-09	-3.132435e+01	-2.506387e+02
7.300000e-07	-4.211938e-06	-3.733172e-09	-3.113353e+01	-2.499585e+02
7.400000e-07	-4.185601e-06	-3.736746e-09	-3.093885e+01	-2.492771e+02
7.500000e-07	-4.158732e-06	-3.726604e-09	-3.074025e+01	-2.485961e+02
7.600000e-07	-4.131498e-06	-3.721075e-09	-3.053894e+01	-2.479171e+02
7.700000e-07	-4.104033e-06	-3.705276e-09	-3.033593e+01	-2.472415e+02
7.800000e-07	-4.076405e-06	-3.702026e-09	-3.013171e+01	-2.465705e+02
7.900000e-07	-4.048639e-06	-3.705780e-09	-2.992647e+01	-2.459052e+02
8.000000e-07	-4.020660e-06	-3.699535e-09	-2.971966e+01	-2.452464e+02
8.100000e-07	-3.992426e-06	-3.663463e-09	-2.951096e+01	-2.445947e+02
8.200000e-07	-3.963897e-06	-3.648577e-09	-2.930008e+01	-2.439506e+02
8.300000e-07	-3.935035e-06	-3.657123e-09	-2.908674e+01	-2.433142e+02
8.400000e-07	-3.905947e-06	-3.648414e-09	-2.887173e+01	-2.426856e+02
8.500000e-07	-3.876651e-06	-3.614247e-09	-2.865518e+01	-2.420645e+02
8.600000e-07	-3.847041e-06	-3.607820e-09	-2.843631e+01	-2.414506e+02
8.700000e-07	-3.817150e-06	-3.620324e-09	-2.821536e+01	-2.408432e+02
8.800000e-07	-3.787041e-06	-3.613173e-09	-2.799281e+01	-2.402416e+02
8.900000e-07	-3.756655e-06	-3.588365e-09	-2.776820e+01	-2.396448e+02
9.000000e-07	-3.726015e-06	-3.578128e-09	-2.754172e+01	-2.390517e+02
9.100000e-07	-3.695173e-06	-3.577388e-09	-2.731374e+01	-2.384609e+02
9.200000e-07	-3.664098e-06	-3.564618e-09	-2.708404e+01	-2.378711e+02
9.300000e-07	-3.632762e-06	-3.543744e-09	-2.685242e+01	-2.372806e+02
9.400000e-07	-3.601192e-06	-3.526652e-09	-2.661906e+01	-2.366879e+02
9.500000e-07	-3.569413e-06	-3.518357e-09	-2.638416e+01	-2.360912e+02
9.600000e-07	-3.537517e-06	-3.510920e-09	-2.614839e+01	-2.354887e+02
9.700000e-07	-3.505457e-06	-3.503415e-09	-2.591141e+01	-2.348785e+02
9.800000e-07	-3.473159e-06	-3.488517e-09	-2.567267e+01	-2.342587e+02
9.900000e-07	-3.440592e-06	-3.475054e-09	-2.543195e+01	-2.336275e+02
1.000000e-06	-3.407773e-06	-3.467014e-09	-2.518936e+01	-2.329829e+02
1.010000e-06	-3.374673e-06	-3.460561e-09	-2.494469e+01	-2.323231e+02
1.020000e-06	-3.341087e-06	-3.438214e-09	-2.469643e+01	-2.316461e+02
1.030000e-06	-3.307019e-06	-3.414400e-09	-2.444461e+01	-2.309504e+02
1.040000e-06	-3.272558e-06	-3.403410e-09	-2.418988e+01	-2.302341e+02
1.050000e-06	-3.237753e-06	-3.398566e-09	-2.393262e+01	-2.294957e+02
1.060000e-06	-3.202635e-06	-3.379071e-09	-2.367303e+01	-2.287338e+02
1.070000e-06	-3.167315e-06	-3.360842e-09	-2.341195e+01	-2.279469e+02
1.080000e-06	-3.131838e-06	-3.354532e-09	-2.314972e+01	-2.271339e+02
1.090000e-06	-3.096174e-06	-3.349609e-09	-2.288610e+01	-2.262937e+02
1.100000e-06	-3.060371e-06	-3.330158e-09	-2.262145e+01	-2.254255e+02
1.110000e-06	-3.024451e-06	-3.310293e-09	-2.235595e+01	-2.245284e+02
1.120000e-06	-2.988470e-06	-3.296721e-09	-2.208998e+01	-2.236019e+02
1.130000e-06	-2.952335e-06	-3.282211e-09	-2.182288e+01	-2.226456e+02
1.140000e-06	-2.915962e-06	-3.264525e-09	-2.155402e+01	-2.216594e+02
1.150000e-06	-2.879357e-06	-3.248763e-09	-2.128345e+01	-2.206430e+02
1.160000e-06	-2.842596e-06	-3.230755e-09	-2.101172e+01	-2.195967e+02
1.170000e-06	-2.805711e-06	-3.215783e-09	-2.073907e+01	-2.185208e+02
1.180000e-06	-2.768538e-06	-3.204474e-09	-2.046430e+01	-2.174157e+02
1.190000e-06	-2.731097e-06	-3.191803e-09	-2.018755e+01	-2.162819e+02
1.200000e-06	-2.693485e-06	-3.175665e-09	-1.990953e+01	-2.151202e+02
1.210000e-06	-2.655655e-06	-3.157919e-09	-1.962990e+01	-2.139316e+02
1.220000e-06	-2.617575e-06	-3.143438e-09	-1.934842e+01	-2.127168e+02
1.230000e-06	-2.579300e-06	-3.123112e-09	-1.906550e+01	-2.114770e+02
1.240000e-06	-2.540991e-06	-3.097340e-09	-1.878233e+01	-2.102133e+02
1.250000e-06	-2.502609e-06	-3.073284e-09	-1.849862e+01	-2.089269e+02
1.260000e-06	-2.463905e-06	-3.057299e-09	-1.821253e+01	-2.076191e+02
1.270000e-06	-2.424912e-06	-3.040161e-09	-1.792431e+01	-2.062910e+02
1.280000e-06	-2.385815e-06	-3.019114e-09	-1.763531e+01	-2.049440e+02
1.290000e-06	-2.346561e-06	-2.999276e-09	-1.734516e+01	-2.035793e+02
1.300000e-06	-2.307172e-06	-2.979765e-09	-1.705401e+01	-2.021980e+02
1.310000e-06	-2.267726e-06	-2.959614e-09	-1.676243e+01	-2.008012e+02
1.320000e-06	-2.228131e-06	-2.940075e-09	-1.646976e+01	-1.993900e+02
1.330000e-06	-2.188376e-06	-2.916142e-09	-1.617589e+01	-1.979653e+02
1.340000e-06	-2.148526e-06	-2.891865e-09	-1.588133e+01	-1.965279e+02
1.350000e-06	-2.108646e-06	-2.869041e-09	-1.558656e+01	-1.950784e+02
1.360000e-06	-2.068716e-06	-2.848186e-09	-1.529140e+01	-1.936172e+02
1.370000e-06	-2.028574e-06	-2.825132e-09	-1.499468e+01	-1.921447e+02
1.380000e-06	-1.988282e-06	-2.801852e-09	-1.469685e+01	-1.906610e+02
1.390000e-06	-1.947967e-06	-2.781040e-09	-1.439885e+01	-1.891658e+02
1.400000e-06	-1.907453e-06	-2.763179e-09	-1.409939e+01	-1.876589e+02
1.410000e-06	-1.866689e-06	-2.743474e-09	-1.379807e+01	-1.861396e+02
1.420000e-06	-1.825717e-06	-2.719466e-09	-1.349521e+01	-1.846071e+02
1.430000e-06	-1.784492e-06	-2.694126e-09	-1.319049e+01	-1.830602e+02
1.440000e-06	-1.743099e-06	-2.668919e-09	-1.288453e+01	-1.814977e+02
1.450000e-06	-1.701572e-06	-2.641516e-09	-1.257757e+01	-1.799179e+02
1.460000e-06	-1.659874e-06	-2.612762e-09	-1.226935e+01	-1.783189e+02
1.470000e-06	-1.617934e-06	-2.587392e-09	-1.195934e+01	-1.766985e+02
1.480000e-06	-1.575678e-06	-2.564909e-09	-1.164700e+01	-1.750546e+02
1.490000e-06	-1.533161e-06	-2.542324e-09	-1.133272e+01	-1.733843e+02
1.500000e-06	-1.490461e-06	-2.517656e-09	-1.101709e+01	-1.716848e+02
1.510000e-06	-1.447699e-06	-2.490224e-09	-1.070100e+01	-1.699532e+02
1.520000e-06	-1.404755e-06	-2.462128e-09	-1.038358e+01	-1.681861e+02
1.530000e-06	-1.361666e-06	-2.434869e-09	-1.006508e+01	-1.663800e+02
1.540000e-06	-1.318580e-06	-2.406753e-09	-9.746592e+00	-1.645314e+02
1.550000e-06	-1.275385e-06	-2.374457e-09	-9.427310e+00	-1.626366e+02
1.560000e-06	-1.232036e-06	-2.340600e-09	-9.106885e+00	-1.606915e+02
1.570000e-06	-1.188585e-06	-2.308025e-09	-8.785708e+00	-1.586924e+02
1.580000e-06	-1.145090e-06	-2.274552e-09	-8.464206e+00	-1.566351e+02
1.590000e-06	-1.101509e-06	-2.242511e-09	-8.142061e+00	-1.545155e+02
1.600000e-06	-1.057896e-06	-2.210723e-09	-7.819689e+00	-1.523296e+02
1.610000e-06	-1.014284e-06	-2.176656e-09	-7.497320e+00	-1.500734e+02
1.620000e-06	-9.706207e-07	-2.141791e-09	-7.174572e+00	-1.477428e+02
1.630000e-06	-9.269398e-07	-2.106372e-09	-6.851694e+00	-1.453339e+02
1.640000e-06	-8.832763e-07	-2.065765e-09	-6.528945e+00	-1.428428e+02
1.650000e-06	-8.396021e-07	-2.024332e-09	-6.206117e+00	-1.402660e+02
1.660000e-06	-7.958783e-07	-1.984085e-09	-5.882922e+00	-1.375999e+02
1.670000e-06	-7.521201e-07	-1.944479e-09	-5.559473e+00	-1.348412e+02
1.680000e-06	-7.083499e-07	-1.902405e-09	-5.235936e+00	-1.319868e+02
1.690000e-06	-6.645662e-07	-1.859527e-09	-4.912297e+00	-1.290340e+02
1.700000e-06	-6.207436e-07	-1.818792e-09	-4.588372e+00	-1.259803e+02
1.710000e-06	-5.768675e-07	-1.780119e-09	-4.264052e+00	-1.228234e+02
1.720000e-06	-5.329785e-07	-1.738635e-09	-3.939636e+00	-1.195615e+02
1.730000e-06	-4.890972e-07	-1.691903e-09	-3.615277e+00	-1.161931e+02
1.740000e-06	-4.451783e-07	-1.641634e-09	-3.290641e+00	-1.127171e+02
1.750000e-06	-4.012303e-07	-1.589698e-09	-2.965788e+00	-1.091328e+02
1.760000e-06	-3.573212e-07	-1.534068e-09	-2.641224e+00	-1.054398e+02
1.770000e-06	-3.133845e-07	-1.475982e-09	-2.316455e+00	-1.016383e+02
1.780000e-06	-2.694222e-07	-1.419098e-09	-1.991498e+00	-9.772879e+01
1.790000e-06	-2.254886e-07	-1.363217e-09	-1.666752e+00	-9.371230e+01
1.800000e-06	-1.815279e-07	-1.308546e-09	-1.341806e+00	-8.959025e+01
1.810000e-06	-1.375291e-07	-1.251132e-09	-1.016579e+00	-8.536453e+01
1.820000e-06	-9.353495e-08	-1.188836e-09	-6.913857e-01	-8.103746e+01
1.830000e-06	-4.949295e-08	-1.122374e-09	-3.658388e-01	-7.661183e+01
1.840000e-06	-5.376231e-09	-1.053687e-09	-3.973968e-02	-7.209083e+01
1.850000e-06	3.867025e-08	-9.820860e-10	2.858403e-01	-6.747811e+01
1.860000e-06	8.268037e-08	-9.092983e-10	6.111514e-01	-6.277770e+01
1.870000e-06	1.267031e-07	-8.356550e-10	9.365559e-01	-5.799406e+01
1.880000e-06	1.706903e-07	-7.628458e-10	1.261697e+00	-5.313201e+01
1.890000e-06	2.146598e-07	-6.896257e-10	1.586709e+00	-4.819673e+01
1.900000e-06	2.586262e-07	-6.140853e-10	1.911696e+00	-4.319374e+01
1.910000e-06	3.026194e-07	-5.386563e-10	2.236882e+00	-3.812889e+01
1.920000e-06	3.466200e-07	-4.628928e-10	2.562123e+00	-3.300828e+01
1.930000e-06	3.906020e-07	-3.835786e-10	2.887227e+00	-2.783831e+01
1.940000e-06	4.345647e-07	-3.000619e-10	3.212187e+00	-2.262557e+01
1.950000e-06	4.785247e-07	-2.152158e-10	3.537128e+00	-1.737687e+01
1.960000e-06	5.224438e-07	-1.329321e-10	3.861766e+00	-1.209917e+01
1.970000e-06	5.662996e-07	-5.095057e-11	4.185937e+00	-6.799580e+00
1.980000e-06	6.101261e-07	3.257978e-11	4.509891e+00	-1.485280e+00
1.990000e-06	6.539480e-07	1.138490e-10	4.833811e+00	3.836473e+00
2.000000e-06	6.977979e-07	1.929728e-10	5.157937e+00	9.158402e+00
2.010000e-06	7.415951e-07	2.745230e-10	5.481675e+00	1.447324e+01
2.020000e-06	7.853468e-07	3.580526e-10	5.805076e+00	1.977375e+01
2.030000e-06	8.291198e-07	4.404753e-10	6.128635e+00	2.505280e+01
2.040000e-06	8.728350e-07	5.214838e-10	6.451765e+00	3.030334e+01
2.050000e-06	9.164967e-07	6.044229e-10	6.774501e+00	3.551849e+01
2.060000e-06	9.601668e-07	6.879369e-10	7.097299e+00	4.069154e+01
2.070000e-06	1.003832e-06	7.702095e-10	7.420058e+00	4.581597e+01
2.080000e-06	1.047447e-06	8.514838e-10	7.742452e+00	5.088551e+01
2.090000e-06	1.090978e-06	9.295622e-10	8.064221e+00	5.589417e+01
2.100000e-06	1.134507e-06	1.004592e-09	8.385975e+00	6.083621e+01
2.110000e-06	1.178016e-06	1.077369e-09	8.707581e+00	6.570623e+01
2.120000e-06	1.221466e-06	1.148158e-09	9.028755e+00	7.049915e+01
2.130000e-06	1.264831e-06	1.217503e-09	9.349300e+00	7.521025e+01
2.140000e-06	1.308015e-06	1.286166e-09	9.668501e+00	7.983518e+01
2.150000e-06	1.351135e-06	1.354680e-09	9.987230e+00	8.436995e+01
2.160000e-06	1.394136e-06	1.422351e-09	1.030508e+01	8.881100e+01
2.170000e-06	1.436946e-06	1.486496e-09	1.062152e+01	9.315514e+01
2.180000e-06	1.479617e-06	1.546560e-09	1.093694e+01	9.739960e+01
2.190000e-06	1.522141e-06	1.604148e-09	1.125127e+01	1.015420e+02
2.200000e-06	1.564418e-06	1.659291e-09	1.156376e+01	1.055805e+02
2.210000e-06	1.606359e-06	1.709830e-09	1.187378e+01	1.095135e+02
2.220000e-06	1.648086e-06	1.757693e-09	1.218222e+01	1.133399e+02
2.230000e-06	1.689569e-06	1.807558e-09	1.248885e+01	1.170590e+02
2.240000e-06	1.730821e-06	1.859646e-09	1.279377e+01	1.206704e+02
2.250000e-06	1.771932e-06	1.907970e-09	1.309765e+01	1.241743e+02
2.260000e-06	1.812824e-06	1.952317e-09	1.339991e+01	1.275711e+02
2.270000e-06	1.853503e-06	1.994990e-09	1.370060e+01	1.308616e+02
2.280000e-06	1.894031e-06	2.036358e-09	1.400018e+01	1.340469e+02
2.290000e-06	1.934388e-06	2.075908e-09	1.429849e+01	1.371285e+02
2.300000e-06	1.974673e-06	2.112661e-09	1.459626e+01	1.401083e+02
2.310000e-06	2.014910e-06	2.149204e-09	1.489368e+01	1.429881e+02
2.320000e-06	2.054969e-06	2.185095e-09	1.518979e+01	1.457704e+02
2.330000e-06	2.094844e-06	2.219082e-09	1.548453e+01	1.484577e+02
2.340000e-06	2.134650e-06	2.253613e-09	1.577877e+01	1.510528e+02
2.350000e-06	2.174416e-06	2.289360e-09	1.607271e+01	1.535586e+02
2.360000e-06	2.214082e-06	2.324035e-09	1.636591e+01	1.559783e+02
2.370000e-06	2.253704e-06	2.355220e-09	1.665879e+01	1.583150e+02
2.380000e-06	2.293273e-06	2.385076e-09	1.695127e+01	1.605722e+02
2.390000e-06	2.332683e-06	2.416238e-09	1.724257e+01	1.627533e+02
2.400000e-06	2.371899e-06	2.446709e-09	1.753245e+01	1.648618e+02
2.410000e-06	2.410885e-06	2.474888e-09	1.782063e+01	1.669013e+02
2.420000e-06	2.449671e-06	2.502198e-09	1.810732e+01	1.688753e+02
2.430000e-06	2.488350e-06	2.529936e-09	1.839322e+01	1.707874e+02
2.440000e-06	2.526847e-06	2.557943e-09	1.867779e+01	1.726410e+02
2.450000e-06	2.565098e-06	2.584236e-09	1.896052e+01	1.744397e+02
2.460000e-06	2.603183e-06	2.609290e-09	1.924204e+01	1.761867e+02
2.470000e-06	2.641130e-06	2.635564e-09	1.952254e+01	1.778855e+02
2.480000e-06	2.678956e-06	2.663082e-09	1.980213e+01	1.795391e+02
2.490000e-06	2.716663e-06	2.688729e-09	2.008085e+01	1.811507e+02
2.500000e-06	2.754121e-06	2.712913e-09	2.035774e+01	1.827230e+02
2.510000e-06	2.791315e-06	2.736396e-09	2.063266e+01	1.842589e+02
2.520000e-06	2.828278e-06	2.759452e-09	2.090588e+01	1.857610e+02
2.530000e-06	2.864985e-06	2.782415e-09	2.117721e+01	1.872316e+02
2.540000e-06	2.901433e-06	2.804062e-09	2.144663e+01	1.886730e+02
2.550000e-06	2.937697e-06	2.827464e-09	2.171468e+01	1.900872e+02
2.560000e-06	2.973846e-06	2.851809e-09	2.198188e+01	1.914761e+02
2.570000e-06	3.009876e-06	2.874170e-09	2.224821e+01	1.928413e+02
2.580000e-06	3.045792e-06	2.893769e-09	2.251369e+01	1.941842e+02
2.590000e-06	3.081573e-06	2.912937e-09	2.277817e+01	1.955062e+02
2.600000e-06	3.117207e-06	2.932881e-09	2.304157e+01	1.968083e+02
2.610000e-06	3.152727e-06	2.949673e-09	2.330412e+01	1.980914e+02
2.620000e-06	3.188117e-06	2.966499e-09	2.356572e+01	1.993562e+02
2.630000e-06	3.223244e-06	2.986387e-09	2.382537e+01	2.006033e+02
2.640000e-06	3.258095e-06	3.006170e-09	2.408298e+01	2.018330e+02
2.650000e-06	3.292629e-06	3.025570e-09	2.433824e+01	2.030455e+02
2.660000e-06	3.326709e-06	3.043926e-09	2.459015e+01	2.042410e+02
2.670000e-06	3.360363e-06	3.062695e-09	2.483892e+01	2.054194e+02
2.680000e-06	3.393600e-06	3.080459e-09	2.508460e+01	2.065805e+02
2.690000e-06	3.426406e-06	3.096503e-09	2.532709e+01	2.077240e+02
2.700000e-06	3.458891e-06	3.111078e-09	2.556721e+01	2.088496e+02
2.710000e-06	3.491141e-06	3.125292e-09	2.580560e+01	2.099569e+02
2.720000e-06	3.523188e-06	3.139733e-09	2.604247e+01	2.110453e+02
2.730000e-06	3.555083e-06	3.155564e-09	2.627823e+01	2.121143e+02
2.740000e-06	3.586884e-06	3.171712e-09	2.651330e+01	2.131633e+02
2.750000e-06	3.618515e-06	3.186330e-09	2.674711e+01	2.141918e+02
2.760000e-06	3.649954e-06	3.200518e-09	2.697949e+01	2.151990e+02
2.770000e-06	3.681198e-06	3.215038e-09	2.721044e+01	2.161844e+02
2.780000e-06	3.712145e-06	3.229861e-09	2.743920e+01	2.171474e+02
2.790000e-06	3.742749e-06	3.243276e-09	2.766541e+01	2.180874e+02
2.800000e-06	3.773002e-06	3.256483e-09	2.788903e+01	2.190041e+02
2.810000e-06	3.802987e-06	3.270768e-09	2.811068e+01	2.198968e+02
2.820000e-06	3.832768e-06	3.282062e-09	2.833081e+01	2.207653e+02
2.830000e-06	3.862431e-06	3.291370e-09	2.855007e+01	2.216092e+02
2.840000e-06	3.891949e-06	3.303488e-09	2.876826e+01	2.224283e+02
2.850000e-06	3.921169e-06	3.317369e-09	2.898424e+01	2.232225e+02
2.860000e-06	3.950035e-06	3.331659e-09	2.919761e+01	2.239917e+02
2.870000e-06	3.978600e-06	3.343751e-09	2.940876e+01	2.247360e+02
2.880000e-06	4.006929e-06	3.354408e-09	2.961816e+01	2.254555e+02
2.890000e-06	4.035007e-06	3.366238e-09	2.982570e+01	2.261506e+02
2.900000e-06	4.062896e-06	3.378335e-09	3.003185e+01	2.268215e+02
