# Temperatura_=_20.0
# Concentracion g/m^3_=_9000.0
# C_Vs_to_Am_M_A/Vsm_=_65563218390.804596
# pendiente_HvsI_1/m_=_3716.3
# ordenada_HvsI_A/m_=_1297.0
# frecuencia_Hz_=_135196.08340838237

Tiempo_(s)	Campo_(V.s)	Magnetizacion_(V.s)	Campo_(kA/m)	Magnetizacion_(A/m)
0.000000e+00	-5.172322e-06	-3.954963e-09	-3.842922e+01	-2.526393e+02
1.000000e-08	-5.172392e-06	-3.952698e-09	-3.842974e+01	-2.526193e+02
2.000000e-08	-5.172219e-06	-3.952363e-09	-3.842845e+01	-2.526002e+02
3.000000e-08	-5.171722e-06	-3.954580e-09	-3.842476e+01	-2.525830e+02
4.000000e-08	-5.170807e-06	-3.953119e-09	-3.841796e+01	-2.525682e+02
5.000000e-08	-5.169308e-06	-3.948859e-09	-3.840682e+01	-2.525566e+02
6.000000e-08	-5.167274e-06	-3.940300e-09	-3.839171e+01	-2.525489e+02
7.000000e-08	-5.164733e-06	-3.937737e-09	-3.837283e+01	-2.525457e+02
8.000000e-08	-5.161607e-06	-3.964847e-09	-3.834961e+01	-2.525476e+02
9.000000e-08	-5.157894e-06	-3.993974e-09	-3.832202e+01	-2.525552e+02
1.000000e-07	-5.153753e-06	-3.941689e-09	-3.829125e+01	-2.525691e+02
1.100000e-07	-5.149474e-06	-3.882358e-09	-3.825946e+01	-2.525896e+02
1.200000e-07	-5.145063e-06	-3.879487e-09	-3.822669e+01	-2.526173e+02
1.300000e-07	-5.140342e-06	-3.968777e-09	-3.819161e+01	-2.526525e+02
1.400000e-07	-5.135256e-06	-3.976797e-09	-3.815382e+01	-2.526954e+02
1.500000e-07	-5.129785e-06	-3.913854e-09	-3.811317e+01	-2.527463e+02
1.600000e-07	-5.123944e-06	-3.888702e-09	-3.806978e+01	-2.528053e+02
1.700000e-07	-5.117795e-06	-3.945956e-09	-3.802410e+01	-2.528726e+02
1.800000e-07	-5.111234e-06	-4.011345e-09	-3.797535e+01	-2.529479e+02
1.900000e-07	-5.104305e-06	-3.975591e-09	-3.792387e+01	-2.530314e+02
2.000000e-07	-5.097162e-06	-3.914785e-09	-3.787079e+01	-2.531227e+02
2.100000e-07	-5.089679e-06	-3.879399e-09	-3.781520e+01	-2.532215e+02
2.200000e-07	-5.081940e-06	-3.928661e-09	-3.775770e+01	-2.533275e+02
2.300000e-07	-5.074038e-06	-3.909748e-09	-3.769899e+01	-2.534402e+02
2.400000e-07	-5.065766e-06	-3.799854e-09	-3.763753e+01	-2.535591e+02
2.500000e-07	-5.056968e-06	-3.682223e-09	-3.757216e+01	-2.536833e+02
2.600000e-07	-5.047618e-06	-3.720815e-09	-3.750269e+01	-2.538123e+02
2.700000e-07	-5.037778e-06	-3.784892e-09	-3.742959e+01	-2.539451e+02
2.800000e-07	-5.027571e-06	-3.749615e-09	-3.735375e+01	-2.540808e+02
2.900000e-07	-5.016755e-06	-3.649226e-09	-3.727339e+01	-2.542184e+02
3.000000e-07	-5.005341e-06	-3.679439e-09	-3.718859e+01	-2.543568e+02
3.100000e-07	-4.993601e-06	-3.785037e-09	-3.710136e+01	-2.544948e+02
3.200000e-07	-4.981523e-06	-3.804941e-09	-3.701162e+01	-2.546312e+02
3.300000e-07	-4.969064e-06	-3.754329e-09	-3.691906e+01	-2.547646e+02
3.400000e-07	-4.956187e-06	-3.762024e-09	-3.682339e+01	-2.548938e+02
3.500000e-07	-4.942973e-06	-3.797286e-09	-3.672521e+01	-2.550173e+02
3.600000e-07	-4.929424e-06	-3.809959e-09	-3.662454e+01	-2.551337e+02
3.700000e-07	-4.915457e-06	-3.812170e-09	-3.652077e+01	-2.552415e+02
3.800000e-07	-4.901023e-06	-3.773024e-09	-3.641353e+01	-2.553394e+02
3.900000e-07	-4.886061e-06	-3.739869e-09	-3.630236e+01	-2.554257e+02
4.000000e-07	-4.870482e-06	-3.776633e-09	-3.618661e+01	-2.554991e+02
4.100000e-07	-4.854471e-06	-3.826588e-09	-3.606765e+01	-2.555581e+02
4.200000e-07	-4.838184e-06	-3.766263e-09	-3.594665e+01	-2.556013e+02
4.300000e-07	-4.821408e-06	-3.732631e-09	-3.582200e+01	-2.556273e+02
4.400000e-07	-4.804261e-06	-3.810872e-09	-3.569460e+01	-2.556348e+02
4.500000e-07	-4.787015e-06	-3.868406e-09	-3.556647e+01	-2.556224e+02
4.600000e-07	-4.769525e-06	-3.797922e-09	-3.543652e+01	-2.555891e+02
4.700000e-07	-4.751655e-06	-3.780095e-09	-3.530376e+01	-2.555337e+02
4.800000e-07	-4.733470e-06	-3.842006e-09	-3.516865e+01	-2.554552e+02
4.900000e-07	-4.714993e-06	-3.864222e-09	-3.503136e+01	-2.553527e+02
5.000000e-07	-4.696111e-06	-3.803855e-09	-3.489108e+01	-2.552253e+02
5.100000e-07	-4.676755e-06	-3.790275e-09	-3.474727e+01	-2.550724e+02
5.200000e-07	-4.657089e-06	-3.807378e-09	-3.460115e+01	-2.548934e+02
5.300000e-07	-4.637260e-06	-3.807077e-09	-3.445382e+01	-2.546880e+02
5.400000e-07	-4.617299e-06	-3.791975e-09	-3.430552e+01	-2.544557e+02
5.500000e-07	-4.597182e-06	-3.804923e-09	-3.415606e+01	-2.541964e+02
5.600000e-07	-4.576796e-06	-3.789102e-09	-3.400459e+01	-2.539102e+02
5.700000e-07	-4.556043e-06	-3.771843e-09	-3.385040e+01	-2.535971e+02
5.800000e-07	-4.534935e-06	-3.789001e-09	-3.369357e+01	-2.532574e+02
5.900000e-07	-4.513497e-06	-3.797948e-09	-3.353429e+01	-2.528915e+02
6.000000e-07	-4.491697e-06	-3.751453e-09	-3.337232e+01	-2.524999e+02
6.100000e-07	-4.469632e-06	-3.726206e-09	-3.320839e+01	-2.520833e+02
6.200000e-07	-4.447367e-06	-3.755237e-09	-3.304296e+01	-2.516426e+02
6.300000e-07	-4.424842e-06	-3.749023e-09	-3.287560e+01	-2.511785e+02
6.400000e-07	-4.401955e-06	-3.711937e-09	-3.270556e+01	-2.506922e+02
6.500000e-07	-4.378589e-06	-3.714965e-09	-3.253196e+01	-2.501848e+02
6.600000e-07	-4.354928e-06	-3.738680e-09	-3.235616e+01	-2.496575e+02
6.700000e-07	-4.331155e-06	-3.720346e-09	-3.217953e+01	-2.491116e+02
6.800000e-07	-4.307144e-06	-3.704571e-09	-3.200113e+01	-2.485485e+02
6.900000e-07	-4.282922e-06	-3.706540e-09	-3.182117e+01	-2.479696e+02
7.000000e-07	-4.258436e-06	-3.698161e-09	-3.163924e+01	-2.473763e+02
7.100000e-07	-4.233573e-06	-3.669410e-09	-3.145452e+01	-2.467703e+02
7.200000e-07	-4.208323e-06	-3.665161e-09	-3.126692e+01	-2.461529e+02
7.300000e-07	-4.182613e-06	-3.661612e-09	-3.107589e+01	-2.455257e+02
7.400000e-07	-4.156310e-06	-3.651215e-09	-3.088047e+01	-2.448901e+02
7.500000e-07	-4.129512e-06	-3.639061e-09	-3.068137e+01	-2.442478e+02
7.600000e-07	-4.102420e-06	-3.643830e-09	-3.048008e+01	-2.435999e+02
7.700000e-07	-4.074990e-06	-3.636526e-09	-3.027628e+01	-2.429479e+02
7.800000e-07	-4.047293e-06	-3.622372e-09	-3.007050e+01	-2.422932e+02
7.900000e-07	-4.019443e-06	-3.614363e-09	-2.986358e+01	-2.416367e+02
8.000000e-07	-3.991446e-06	-3.609767e-09	-2.965557e+01	-2.409797e+02
8.100000e-07	-3.963286e-06	-3.585594e-09	-2.944635e+01	-2.403230e+02
8.200000e-07	-3.934857e-06	-3.566516e-09	-2.923512e+01	-2.396676e+02
8.300000e-07	-3.906128e-06	-3.563105e-09	-2.902167e+01	-2.390142e+02
8.400000e-07	-3.877107e-06	-3.556976e-09	-2.880605e+01	-2.383632e+02
8.500000e-07	-3.847774e-06	-3.539256e-09	-2.858811e+01	-2.377151e+02
8.600000e-07	-3.818192e-06	-3.530819e-09	-2.836833e+01	-2.370703e+02
8.700000e-07	-3.788354e-06	-3.533522e-09	-2.814664e+01	-2.364287e+02
8.800000e-07	-3.758317e-06	-3.523647e-09	-2.792347e+01	-2.357904e+02
8.900000e-07	-3.728108e-06	-3.506350e-09	-2.769903e+01	-2.351551e+02
9.000000e-07	-3.697629e-06	-3.494062e-09	-2.747257e+01	-2.345224e+02
9.100000e-07	-3.666864e-06	-3.486338e-09	-2.724400e+01	-2.338918e+02
9.200000e-07	-3.635797e-06	-3.470952e-09	-2.701317e+01	-2.332627e+02
9.300000e-07	-3.604461e-06	-3.456355e-09	-2.678036e+01	-2.326342e+02
9.400000e-07	-3.572906e-06	-3.445828e-09	-2.654591e+01	-2.320053e+02
9.500000e-07	-3.541157e-06	-3.437378e-09	-2.631002e+01	-2.313749e+02
9.600000e-07	-3.509283e-06	-3.427052e-09	-2.607320e+01	-2.307419e+02
9.700000e-07	-3.477237e-06	-3.420642e-09	-2.583511e+01	-2.301049e+02
9.800000e-07	-3.445035e-06	-3.409019e-09	-2.559585e+01	-2.294624e+02
9.900000e-07	-3.412678e-06	-3.394518e-09	-2.535545e+01	-2.288131e+02
1.000000e-06	-3.379987e-06	-3.379872e-09	-2.511256e+01	-2.281553e+02
1.010000e-06	-3.346918e-06	-3.370659e-09	-2.486687e+01	-2.274874e+02
1.020000e-06	-3.313592e-06	-3.354979e-09	-2.461926e+01	-2.268078e+02
1.030000e-06	-3.279868e-06	-3.335668e-09	-2.436870e+01	-2.261148e+02
1.040000e-06	-3.245710e-06	-3.319449e-09	-2.411492e+01	-2.254069e+02
1.050000e-06	-3.211175e-06	-3.310407e-09	-2.385833e+01	-2.246823e+02
1.060000e-06	-3.176178e-06	-3.299318e-09	-2.359830e+01	-2.239394e+02
1.070000e-06	-3.140842e-06	-3.288545e-09	-2.333577e+01	-2.231768e+02
1.080000e-06	-3.105313e-06	-3.279114e-09	-2.307180e+01	-2.223928e+02
1.090000e-06	-3.069650e-06	-3.267947e-09	-2.280683e+01	-2.215862e+02
1.100000e-06	-3.033897e-06	-3.252870e-09	-2.254119e+01	-2.207557e+02
1.110000e-06	-2.998046e-06	-3.239380e-09	-2.227482e+01	-2.199000e+02
1.120000e-06	-2.962067e-06	-3.224761e-09	-2.200751e+01	-2.190180e+02
1.130000e-06	-2.925986e-06	-3.205518e-09	-2.173944e+01	-2.181089e+02
1.140000e-06	-2.889780e-06	-3.188484e-09	-2.147043e+01	-2.171718e+02
1.150000e-06	-2.853296e-06	-3.175154e-09	-2.119936e+01	-2.162061e+02
1.160000e-06	-2.816607e-06	-3.160174e-09	-2.092677e+01	-2.152113e+02
1.170000e-06	-2.779782e-06	-3.143563e-09	-2.065317e+01	-2.141871e+02
1.180000e-06	-2.742723e-06	-3.129543e-09	-2.037783e+01	-2.131332e+02
1.190000e-06	-2.705403e-06	-3.118087e-09	-2.010055e+01	-2.120497e+02
1.200000e-06	-2.667809e-06	-3.104300e-09	-1.982124e+01	-2.109366e+02
1.210000e-06	-2.629996e-06	-3.081836e-09	-1.954029e+01	-2.097943e+02
1.220000e-06	-2.592073e-06	-3.060015e-09	-1.925854e+01	-2.086231e+02
1.230000e-06	-2.553999e-06	-3.040467e-09	-1.897566e+01	-2.074236e+02
1.240000e-06	-2.515749e-06	-3.022428e-09	-1.869146e+01	-2.061966e+02
1.250000e-06	-2.477353e-06	-3.002855e-09	-1.840619e+01	-2.049426e+02
1.260000e-06	-2.438750e-06	-2.983840e-09	-1.811938e+01	-2.036627e+02
1.270000e-06	-2.399958e-06	-2.965988e-09	-1.783116e+01	-2.023578e+02
1.280000e-06	-2.360930e-06	-2.950190e-09	-1.754119e+01	-2.010289e+02
1.290000e-06	-2.321695e-06	-2.933160e-09	-1.724968e+01	-1.996770e+02
1.300000e-06	-2.282353e-06	-2.911796e-09	-1.695738e+01	-1.983033e+02
1.310000e-06	-2.242903e-06	-2.887105e-09	-1.666427e+01	-1.969088e+02
1.320000e-06	-2.203304e-06	-2.864183e-09	-1.637006e+01	-1.954945e+02
1.330000e-06	-2.163599e-06	-2.842680e-09	-1.607507e+01	-1.940616e+02
1.340000e-06	-2.123837e-06	-2.818572e-09	-1.577965e+01	-1.926109e+02
1.350000e-06	-2.083974e-06	-2.795749e-09	-1.548347e+01	-1.911434e+02
1.360000e-06	-2.044050e-06	-2.774850e-09	-1.518685e+01	-1.896597e+02
1.370000e-06	-2.004069e-06	-2.751991e-09	-1.488979e+01	-1.881605e+02
1.380000e-06	-1.963980e-06	-2.728875e-09	-1.459194e+01	-1.866463e+02
1.390000e-06	-1.923790e-06	-2.706876e-09	-1.429334e+01	-1.851175e+02
1.400000e-06	-1.883548e-06	-2.683217e-09	-1.399435e+01	-1.835740e+02
1.410000e-06	-1.843131e-06	-2.658330e-09	-1.369406e+01	-1.820160e+02
1.420000e-06	-1.802414e-06	-2.633602e-09	-1.339154e+01	-1.804429e+02
1.430000e-06	-1.761544e-06	-2.606801e-09	-1.308788e+01	-1.788544e+02
1.440000e-06	-1.720470e-06	-2.580439e-09	-1.278272e+01	-1.772496e+02
1.450000e-06	-1.679227e-06	-2.556570e-09	-1.247629e+01	-1.756274e+02
1.460000e-06	-1.637927e-06	-2.530750e-09	-1.216944e+01	-1.739867e+02
1.470000e-06	-1.596366e-06	-2.504175e-09	-1.186065e+01	-1.723258e+02
1.480000e-06	-1.554667e-06	-2.480357e-09	-1.155084e+01	-1.706429e+02
1.490000e-06	-1.512864e-06	-2.455882e-09	-1.124025e+01	-1.689359e+02
1.500000e-06	-1.470743e-06	-2.426698e-09	-1.092730e+01	-1.672025e+02
1.510000e-06	-1.428375e-06	-2.395431e-09	-1.061252e+01	-1.654400e+02
1.520000e-06	-1.385841e-06	-2.366428e-09	-1.029649e+01	-1.636457e+02
1.530000e-06	-1.343198e-06	-2.338861e-09	-9.979668e+00	-1.618163e+02
1.540000e-06	-1.300500e-06	-2.309299e-09	-9.662433e+00	-1.599487e+02
1.550000e-06	-1.257700e-06	-2.275687e-09	-9.344438e+00	-1.580394e+02
1.560000e-06	-1.214723e-06	-2.241516e-09	-9.025128e+00	-1.560846e+02
1.570000e-06	-1.171677e-06	-2.209029e-09	-8.705306e+00	-1.540806e+02
1.580000e-06	-1.128530e-06	-2.177711e-09	-8.384727e+00	-1.520234e+02
1.590000e-06	-1.085183e-06	-2.145493e-09	-8.062671e+00	-1.499089e+02
1.600000e-06	-1.041746e-06	-2.110497e-09	-7.739944e+00	-1.477331e+02
1.610000e-06	-9.982841e-07	-2.077145e-09	-7.417032e+00	-1.454918e+02
1.620000e-06	-9.547226e-07	-2.045131e-09	-7.093380e+00	-1.431807e+02
1.630000e-06	-9.110687e-07	-2.010195e-09	-6.769040e+00	-1.407959e+02
1.640000e-06	-8.674321e-07	-1.971347e-09	-6.444830e+00	-1.383332e+02
1.650000e-06	-8.237341e-07	-1.931228e-09	-6.120163e+00	-1.357885e+02
1.660000e-06	-7.799893e-07	-1.893264e-09	-5.795149e+00	-1.331581e+02
1.670000e-06	-7.362482e-07	-1.852614e-09	-5.470162e+00	-1.304383e+02
1.680000e-06	-6.924870e-07	-1.808647e-09	-5.145027e+00	-1.276256e+02
1.690000e-06	-6.487031e-07	-1.766922e-09	-4.819722e+00	-1.247167e+02
1.700000e-06	-6.048784e-07	-1.727079e-09	-4.494114e+00	-1.217086e+02
1.710000e-06	-5.610677e-07	-1.683501e-09	-4.168610e+00	-1.185987e+02
1.720000e-06	-5.172673e-07	-1.634824e-09	-3.843183e+00	-1.153846e+02
1.730000e-06	-4.734258e-07	-1.585798e-09	-3.517449e+00	-1.120644e+02
1.740000e-06	-4.295546e-07	-1.536700e-09	-3.191497e+00	-1.086363e+02
1.750000e-06	-3.856460e-07	-1.486460e-09	-2.865265e+00	-1.050992e+02
1.760000e-06	-3.417337e-07	-1.432590e-09	-2.539006e+00	-1.014524e+02
1.770000e-06	-2.978228e-07	-1.377088e-09	-2.212758e+00	-9.769549e+01
1.780000e-06	-2.538939e-07	-1.321674e-09	-1.886376e+00	-9.382863e+01
1.790000e-06	-2.099887e-07	-1.264893e-09	-1.560170e+00	-8.985247e+01
1.800000e-06	-1.660794e-07	-1.205185e-09	-1.233934e+00	-8.576809e+01
1.810000e-06	-1.221570e-07	-1.141159e-09	-9.076000e-01	-8.157712e+01
1.820000e-06	-7.819622e-08	-1.076227e-09	-5.809808e-01	-7.728164e+01
1.830000e-06	-3.420799e-08	-1.011749e-09	-2.541578e-01	-7.288424e+01
1.840000e-06	9.759079e-09	-9.449620e-10	7.250782e-02	-6.838801e+01
1.850000e-06	5.369780e-08	-8.742905e-10	3.989629e-01	-6.379650e+01
1.860000e-06	9.764022e-08	-8.036238e-10	7.254454e-01	-5.911374e+01
1.870000e-06	1.415942e-07	-7.336569e-10	1.052014e+00	-5.434421e+01
1.880000e-06	1.855243e-07	-6.607115e-10	1.378405e+00	-4.949281e+01
1.890000e-06	2.294453e-07	-5.848466e-10	1.704728e+00	-4.456489e+01
1.900000e-06	2.733771e-07	-5.082293e-10	2.031132e+00	-3.956616e+01
1.910000e-06	3.172990e-07	-4.320426e-10	2.357462e+00	-3.450268e+01
1.920000e-06	3.612215e-07	-3.526562e-10	2.683796e+00	-2.938086e+01
1.930000e-06	4.051513e-07	-2.701163e-10	3.010185e+00	-2.420740e+01
1.940000e-06	4.490746e-07	-1.874482e-10	3.336526e+00	-1.898927e+01
1.950000e-06	4.929674e-07	-1.071681e-10	3.662639e+00	-1.373365e+01
1.960000e-06	5.368164e-07	-2.615465e-11	3.988428e+00	-8.447921e+00
1.970000e-06	5.806346e-07	5.859517e-11	4.313988e+00	-3.139604e+00
1.980000e-06	6.244208e-07	1.439502e-10	4.639309e+00	2.183669e+00
1.990000e-06	6.681983e-07	2.250898e-10	4.964567e+00	7.514202e+00
2.000000e-06	7.119856e-07	3.065653e-10	5.289897e+00	1.284427e+01
2.010000e-06	7.557509e-07	3.914239e-10	5.615064e+00	1.816618e+01
2.020000e-06	7.994668e-07	4.737509e-10	5.939863e+00	2.347227e+01
2.030000e-06	8.431504e-07	5.517116e-10	6.264422e+00	2.875500e+01
2.040000e-06	8.868062e-07	6.313805e-10	6.588776e+00	3.400695e+01
2.050000e-06	9.304288e-07	7.145657e-10	6.912882e+00	3.922090e+01
2.060000e-06	9.740018e-07	7.970469e-10	7.236620e+00	4.438981e+01
2.070000e-06	1.017519e-06	8.756859e-10	7.559944e+00	4.950692e+01
2.080000e-06	1.060990e-06	9.534007e-10	7.882921e+00	5.456573e+01
2.090000e-06	1.104320e-06	1.033369e-09	8.204856e+00	5.956006e+01
2.100000e-06	1.147509e-06	1.111114e-09	8.525739e+00	6.448407e+01
2.110000e-06	1.190672e-06	1.184604e-09	8.846429e+00	6.933227e+01
2.120000e-06	1.233765e-06	1.255556e-09	9.166604e+00	7.409958e+01
2.130000e-06	1.276760e-06	1.327266e-09	9.486045e+00	7.878131e+01
2.140000e-06	1.319510e-06	1.397148e-09	9.803669e+00	8.337321e+01
2.150000e-06	1.361960e-06	1.462413e-09	1.011906e+01	8.787144e+01
2.160000e-06	1.404304e-06	1.523026e-09	1.043367e+01	9.227263e+01
2.170000e-06	1.446544e-06	1.585660e-09	1.074751e+01	9.657386e+01
2.180000e-06	1.488603e-06	1.649730e-09	1.105999e+01	1.007727e+02
2.190000e-06	1.530499e-06	1.709534e-09	1.137127e+01	1.048670e+02
2.200000e-06	1.572222e-06	1.764334e-09	1.168126e+01	1.088554e+02
2.210000e-06	1.613667e-06	1.817146e-09	1.198919e+01	1.127367e+02
2.220000e-06	1.654905e-06	1.869318e-09	1.229558e+01	1.165102e+02
2.230000e-06	1.695916e-06	1.918189e-09	1.260029e+01	1.201757e+02
2.240000e-06	1.736711e-06	1.963355e-09	1.290338e+01	1.237334e+02
2.250000e-06	1.777391e-06	2.006946e-09	1.320562e+01	1.271838e+02
2.260000e-06	1.817899e-06	2.050057e-09	1.350659e+01	1.305279e+02
2.270000e-06	1.858240e-06	2.091844e-09	1.380632e+01	1.337671e+02
2.280000e-06	1.898428e-06	2.132790e-09	1.410490e+01	1.369029e+02
2.290000e-06	1.938495e-06	2.172594e-09	1.440260e+01	1.399373e+02
2.300000e-06	1.978529e-06	2.213002e-09	1.470003e+01	1.428725e+02
2.310000e-06	2.018510e-06	2.252042e-09	1.499708e+01	1.457111e+02
2.320000e-06	2.058363e-06	2.286808e-09	1.529318e+01	1.484557e+02
2.330000e-06	2.098118e-06	2.320076e-09	1.558856e+01	1.511093e+02
2.340000e-06	2.137842e-06	2.357650e-09	1.588369e+01	1.536750e+02
2.350000e-06	2.177502e-06	2.394976e-09	1.617836e+01	1.561559e+02
2.360000e-06	2.217053e-06	2.425919e-09	1.647222e+01	1.585555e+02
2.370000e-06	2.256487e-06	2.455639e-09	1.676520e+01	1.608771e+02
2.380000e-06	2.295708e-06	2.489624e-09	1.705661e+01	1.631242e+02
2.390000e-06	2.334660e-06	2.524711e-09	1.734602e+01	1.653004e+02
2.400000e-06	2.373511e-06	2.555275e-09	1.763467e+01	1.674091e+02
2.410000e-06	2.412260e-06	2.582338e-09	1.792256e+01	1.694538e+02
2.420000e-06	2.450787e-06	2.610058e-09	1.820881e+01	1.714380e+02
2.430000e-06	2.489123e-06	2.639398e-09	1.849364e+01	1.733650e+02
2.440000e-06	2.527242e-06	2.665415e-09	1.877685e+01	1.752381e+02
2.450000e-06	2.565193e-06	2.688615e-09	1.905882e+01	1.770605e+02
2.460000e-06	2.603053e-06	2.714151e-09	1.934011e+01	1.788352e+02
2.470000e-06	2.640761e-06	2.743190e-09	1.962028e+01	1.805651e+02
2.480000e-06	2.678314e-06	2.770459e-09	1.989928e+01	1.822530e+02
2.490000e-06	2.715714e-06	2.792497e-09	2.017716e+01	1.839015e+02
2.500000e-06	2.752904e-06	2.815521e-09	2.045347e+01	1.855130e+02
2.510000e-06	2.789818e-06	2.844771e-09	2.072773e+01	1.870897e+02
2.520000e-06	2.826481e-06	2.871999e-09	2.100014e+01	1.886338e+02
2.530000e-06	2.862969e-06	2.892139e-09	2.127123e+01	1.901470e+02
2.540000e-06	2.899221e-06	2.910079e-09	2.154058e+01	1.916311e+02
2.550000e-06	2.935289e-06	2.932994e-09	2.180855e+01	1.930876e+02
2.560000e-06	2.971265e-06	2.957698e-09	2.207585e+01	1.945179e+02
2.570000e-06	3.007133e-06	2.978312e-09	2.234234e+01	1.959230e+02
2.580000e-06	3.042906e-06	2.997276e-09	2.260813e+01	1.973041e+02
2.590000e-06	3.078623e-06	3.019366e-09	2.287349e+01	1.986618e+02
2.600000e-06	3.114279e-06	3.044012e-09	2.313841e+01	1.999969e+02
2.610000e-06	3.149714e-06	3.064358e-09	2.340168e+01	2.013100e+02
2.620000e-06	3.184796e-06	3.082035e-09	2.366233e+01	2.026014e+02
2.630000e-06	3.219503e-06	3.101866e-09	2.392020e+01	2.038714e+02
2.640000e-06	3.253873e-06	3.122141e-09	2.417556e+01	2.051202e+02
2.650000e-06	3.287960e-06	3.140502e-09	2.442882e+01	2.063478e+02
2.660000e-06	3.321570e-06	3.156347e-09	2.467853e+01	2.075543e+02
2.670000e-06	3.354595e-06	3.171412e-09	2.492391e+01	2.087396e+02
2.680000e-06	3.387256e-06	3.188455e-09	2.516657e+01	2.099036e+02
2.690000e-06	3.419717e-06	3.205980e-09	2.540775e+01	2.110461e+02
2.700000e-06	3.451976e-06	3.221150e-09	2.564743e+01	2.121669e+02
2.710000e-06	3.484043e-06	3.235645e-09	2.588568e+01	2.132658e+02
2.720000e-06	3.515961e-06	3.253313e-09	2.612282e+01	2.143425e+02
2.730000e-06	3.547742e-06	3.272320e-09	2.635894e+01	2.153969e+02
2.740000e-06	3.579401e-06	3.286925e-09	2.659416e+01	2.164287e+02
2.750000e-06	3.610899e-06	3.298442e-09	2.682818e+01	2.174378e+02
2.760000e-06	3.642101e-06	3.313450e-09	2.706001e+01	2.184239e+02
2.770000e-06	3.672956e-06	3.329151e-09	2.728926e+01	2.193871e+02
2.780000e-06	3.703468e-06	3.342261e-09	2.751596e+01	2.203272e+02
2.790000e-06	3.733742e-06	3.355609e-09	2.774088e+01	2.212443e+02
2.800000e-06	3.763817e-06	3.371454e-09	2.796434e+01	2.221383e+02
2.810000e-06	3.793644e-06	3.387818e-09	2.818594e+01	2.230093e+02
2.820000e-06	3.823288e-06	3.401683e-09	2.840619e+01	2.238577e+02
2.830000e-06	3.852751e-06	3.412971e-09	2.862509e+01	2.246834e+02
2.840000e-06	3.881960e-06	3.426122e-09	2.884211e+01	2.254870e+02
2.850000e-06	3.910894e-06	3.443369e-09	2.905708e+01	2.262686e+02
2.860000e-06	3.939468e-06	3.456459e-09	2.926939e+01	2.270288e+02
2.870000e-06	3.967709e-06	3.466385e-09	2.947921e+01	2.277680e+02
2.880000e-06	3.995783e-06	3.477858e-09	2.968779e+01	2.284867e+02
2.890000e-06	4.023724e-06	3.493014e-09	2.989539e+01	2.291856e+02
2.900000e-06	4.051526e-06	3.504199e-09	3.010195e+01	2.298652e+02
