# Temperatura_=_20.0
# Concentracion g/m^3_=_9000.0
# C_Vs_to_Am_M_A/Vsm_=_65563218390.804596
# pendiente_HvsI_1/m_=_3716.3
# ordenada_HvsI_A/m_=_1297.0
# frecuencia_Hz_=_135196.4960061702

Tiempo_(s)	Campo_(V.s)	Magnetizacion_(V.s)	Campo_(kA/m)	Magnetizacion_(A/m)
0.000000e+00	-5.188003e-06	-3.941905e-09	-3.842537e+01	-2.537961e+02
1.000000e-08	-5.188189e-06	-3.941660e-09	-3.842674e+01	-2.538091e+02
2.000000e-08	-5.188238e-06	-3.939926e-09	-3.842710e+01	-2.538158e+02
3.000000e-08	-5.188053e-06	-3.941031e-09	-3.842573e+01	-2.538158e+02
4.000000e-08	-5.187518e-06	-3.944679e-09	-3.842177e+01	-2.538091e+02
5.000000e-08	-5.186411e-06	-3.945399e-09	-3.841358e+01	-2.537955e+02
6.000000e-08	-5.184679e-06	-3.950243e-09	-3.840074e+01	-2.537751e+02
7.000000e-08	-5.182471e-06	-3.943991e-09	-3.838439e+01	-2.537479e+02
8.000000e-08	-5.179834e-06	-3.911944e-09	-3.836486e+01	-2.537138e+02
9.000000e-08	-5.176661e-06	-3.912736e-09	-3.834136e+01	-2.536731e+02
1.000000e-07	-5.172955e-06	-3.978399e-09	-3.831391e+01	-2.536257e+02
1.100000e-07	-5.168916e-06	-3.953081e-09	-3.828400e+01	-2.535721e+02
1.200000e-07	-5.164632e-06	-3.882725e-09	-3.825227e+01	-2.535123e+02
1.300000e-07	-5.160152e-06	-3.872667e-09	-3.821908e+01	-2.534466e+02
1.400000e-07	-5.155415e-06	-3.963570e-09	-3.818400e+01	-2.533755e+02
1.500000e-07	-5.150301e-06	-4.021739e-09	-3.814612e+01	-2.532993e+02
1.600000e-07	-5.144767e-06	-3.935009e-09	-3.810514e+01	-2.532184e+02
1.700000e-07	-5.138874e-06	-3.908763e-09	-3.806149e+01	-2.531332e+02
1.800000e-07	-5.132650e-06	-3.948014e-09	-3.801539e+01	-2.530443e+02
1.900000e-07	-5.125972e-06	-4.024839e-09	-3.796593e+01	-2.529521e+02
2.000000e-07	-5.119009e-06	-3.994985e-09	-3.791435e+01	-2.528571e+02
2.100000e-07	-5.111873e-06	-3.913809e-09	-3.786150e+01	-2.527599e+02
2.200000e-07	-5.104347e-06	-3.847332e-09	-3.780576e+01	-2.526609e+02
2.300000e-07	-5.096492e-06	-3.891459e-09	-3.774758e+01	-2.525607e+02
2.400000e-07	-5.088475e-06	-3.935234e-09	-3.768820e+01	-2.524598e+02
2.500000e-07	-5.080144e-06	-3.829625e-09	-3.762650e+01	-2.523585e+02
2.600000e-07	-5.071149e-06	-3.688774e-09	-3.755987e+01	-2.522574e+02
2.700000e-07	-5.061459e-06	-3.736414e-09	-3.748811e+01	-2.521568e+02
2.800000e-07	-5.051456e-06	-3.876194e-09	-3.741402e+01	-2.520570e+02
2.900000e-07	-5.041120e-06	-3.803415e-09	-3.733746e+01	-2.519583e+02
3.000000e-07	-5.030170e-06	-3.643736e-09	-3.725637e+01	-2.518609e+02
3.100000e-07	-5.018607e-06	-3.706684e-09	-3.717072e+01	-2.517650e+02
3.200000e-07	-5.006692e-06	-3.864699e-09	-3.708247e+01	-2.516706e+02
3.300000e-07	-4.994551e-06	-3.808037e-09	-3.699255e+01	-2.515776e+02
3.400000e-07	-4.982000e-06	-3.702864e-09	-3.689958e+01	-2.514861e+02
3.500000e-07	-4.969077e-06	-3.726880e-09	-3.680387e+01	-2.513957e+02
3.600000e-07	-4.955776e-06	-3.791006e-09	-3.670535e+01	-2.513063e+02
3.700000e-07	-4.942043e-06	-3.761856e-09	-3.660364e+01	-2.512174e+02
3.800000e-07	-4.927960e-06	-3.784756e-09	-3.649934e+01	-2.511286e+02
3.900000e-07	-4.913433e-06	-3.767985e-09	-3.639174e+01	-2.510393e+02
4.000000e-07	-4.898324e-06	-3.683756e-09	-3.627984e+01	-2.509490e+02
4.100000e-07	-4.882580e-06	-3.721968e-09	-3.616323e+01	-2.508568e+02
4.200000e-07	-4.866513e-06	-3.844664e-09	-3.604423e+01	-2.507621e+02
4.300000e-07	-4.850117e-06	-3.757371e-09	-3.592279e+01	-2.506640e+02
4.400000e-07	-4.833212e-06	-3.642365e-09	-3.579758e+01	-2.505615e+02
4.500000e-07	-4.816045e-06	-3.779286e-09	-3.567042e+01	-2.504537e+02
4.600000e-07	-4.798667e-06	-3.897302e-09	-3.554172e+01	-2.503396e+02
4.700000e-07	-4.780974e-06	-3.758585e-09	-3.541067e+01	-2.502181e+02
4.800000e-07	-4.762985e-06	-3.692379e-09	-3.527744e+01	-2.500882e+02
4.900000e-07	-4.744803e-06	-3.834087e-09	-3.514277e+01	-2.499487e+02
5.000000e-07	-4.726323e-06	-3.870032e-09	-3.500589e+01	-2.497986e+02
5.100000e-07	-4.707445e-06	-3.761195e-09	-3.486607e+01	-2.496368e+02
5.200000e-07	-4.688127e-06	-3.746826e-09	-3.472299e+01	-2.494622e+02
5.300000e-07	-4.668471e-06	-3.804291e-09	-3.457741e+01	-2.492739e+02
5.400000e-07	-4.648648e-06	-3.777995e-09	-3.443059e+01	-2.490707e+02
5.500000e-07	-4.628594e-06	-3.759204e-09	-3.428206e+01	-2.488517e+02
5.600000e-07	-4.608266e-06	-3.787623e-09	-3.413150e+01	-2.486162e+02
5.700000e-07	-4.587675e-06	-3.764441e-09	-3.397899e+01	-2.483632e+02
5.800000e-07	-4.566805e-06	-3.722119e-09	-3.382441e+01	-2.480922e+02
5.900000e-07	-4.545613e-06	-3.769926e-09	-3.366745e+01	-2.478024e+02
6.000000e-07	-4.524093e-06	-3.792867e-09	-3.350806e+01	-2.474934e+02
6.100000e-07	-4.502275e-06	-3.712414e-09	-3.334646e+01	-2.471646e+02
6.200000e-07	-4.480094e-06	-3.676374e-09	-3.318218e+01	-2.468160e+02
6.300000e-07	-4.457700e-06	-3.748978e-09	-3.301632e+01	-2.464471e+02
6.400000e-07	-4.435077e-06	-3.740867e-09	-3.284876e+01	-2.460581e+02
6.500000e-07	-4.411996e-06	-3.664238e-09	-3.267781e+01	-2.456489e+02
6.600000e-07	-4.388579e-06	-3.675111e-09	-3.250437e+01	-2.452197e+02
6.700000e-07	-4.364973e-06	-3.727386e-09	-3.232952e+01	-2.447708e+02
6.800000e-07	-4.341155e-06	-3.697238e-09	-3.215311e+01	-2.443027e+02
6.900000e-07	-4.317128e-06	-3.665863e-09	-3.197516e+01	-2.438157e+02
7.000000e-07	-4.292834e-06	-3.679711e-09	-3.179522e+01	-2.433107e+02
7.100000e-07	-4.268155e-06	-3.672213e-09	-3.161244e+01	-2.427882e+02
7.200000e-07	-4.243072e-06	-3.641818e-09	-3.142666e+01	-2.422491e+02
7.300000e-07	-4.217515e-06	-3.639854e-09	-3.123737e+01	-2.416944e+02
7.400000e-07	-4.191475e-06	-3.637388e-09	-3.104450e+01	-2.411248e+02
7.500000e-07	-4.164977e-06	-3.614956e-09	-3.084824e+01	-2.405416e+02
7.600000e-07	-4.138025e-06	-3.609403e-09	-3.064861e+01	-2.399457e+02
7.700000e-07	-4.110746e-06	-3.622035e-09	-3.044657e+01	-2.393382e+02
7.800000e-07	-4.083195e-06	-3.611396e-09	-3.024252e+01	-2.387204e+02
7.900000e-07	-4.055392e-06	-3.581925e-09	-3.003659e+01	-2.380931e+02
8.000000e-07	-4.027431e-06	-3.579533e-09	-2.982950e+01	-2.374577e+02
8.100000e-07	-3.999258e-06	-3.585492e-09	-2.962083e+01	-2.368152e+02
8.200000e-07	-3.970820e-06	-3.555394e-09	-2.941020e+01	-2.361666e+02
8.300000e-07	-3.942148e-06	-3.520174e-09	-2.919784e+01	-2.355129e+02
8.400000e-07	-3.913217e-06	-3.528831e-09	-2.898356e+01	-2.348551e+02
8.500000e-07	-3.883964e-06	-3.533908e-09	-2.876690e+01	-2.341940e+02
8.600000e-07	-3.854426e-06	-3.508994e-09	-2.854812e+01	-2.335304e+02
8.700000e-07	-3.824700e-06	-3.493429e-09	-2.832795e+01	-2.328649e+02
8.800000e-07	-3.794765e-06	-3.504151e-09	-2.810623e+01	-2.321981e+02
8.900000e-07	-3.764604e-06	-3.494594e-09	-2.788284e+01	-2.315304e+02
9.000000e-07	-3.734284e-06	-3.472207e-09	-2.765827e+01	-2.308621e+02
9.100000e-07	-3.703726e-06	-3.458230e-09	-2.743195e+01	-2.301934e+02
9.200000e-07	-3.672767e-06	-3.446701e-09	-2.720265e+01	-2.295243e+02
9.300000e-07	-3.641464e-06	-3.427871e-09	-2.697080e+01	-2.288546e+02
9.400000e-07	-3.609956e-06	-3.417203e-09	-2.673743e+01	-2.281843e+02
9.500000e-07	-3.578267e-06	-3.409030e-09	-2.650272e+01	-2.275128e+02
9.600000e-07	-3.546425e-06	-3.393922e-09	-2.626688e+01	-2.268396e+02
9.700000e-07	-3.514454e-06	-3.382239e-09	-2.603009e+01	-2.261640e+02
9.800000e-07	-3.482336e-06	-3.380536e-09	-2.579220e+01	-2.254854e+02
9.900000e-07	-3.450084e-06	-3.369633e-09	-2.555333e+01	-2.248027e+02
1.000000e-06	-3.417596e-06	-3.345330e-09	-2.531270e+01	-2.241150e+02
1.010000e-06	-3.384726e-06	-3.325822e-09	-2.506925e+01	-2.234210e+02
1.020000e-06	-3.351513e-06	-3.319351e-09	-2.482325e+01	-2.227198e+02
1.030000e-06	-3.317921e-06	-3.306860e-09	-2.457445e+01	-2.220098e+02
1.040000e-06	-3.283832e-06	-3.284088e-09	-2.432197e+01	-2.212898e+02
1.050000e-06	-3.249287e-06	-3.269455e-09	-2.406611e+01	-2.205584e+02
1.060000e-06	-3.214468e-06	-3.262392e-09	-2.380822e+01	-2.198142e+02
1.070000e-06	-3.179365e-06	-3.253147e-09	-2.354823e+01	-2.190557e+02
1.080000e-06	-3.143981e-06	-3.238961e-09	-2.328615e+01	-2.182815e+02
1.090000e-06	-3.108441e-06	-3.226996e-09	-2.302292e+01	-2.174902e+02
1.100000e-06	-3.072747e-06	-3.212884e-09	-2.275855e+01	-2.166803e+02
1.110000e-06	-3.036936e-06	-3.198037e-09	-2.249332e+01	-2.158506e+02
1.120000e-06	-3.001035e-06	-3.185849e-09	-2.222741e+01	-2.149997e+02
1.130000e-06	-2.965015e-06	-3.171940e-09	-2.196062e+01	-2.141265e+02
1.140000e-06	-2.928784e-06	-3.150450e-09	-2.169227e+01	-2.132298e+02
1.150000e-06	-2.892308e-06	-3.133787e-09	-2.142211e+01	-2.123086e+02
1.160000e-06	-2.855633e-06	-3.124990e-09	-2.115048e+01	-2.113621e+02
1.170000e-06	-2.818760e-06	-3.110884e-09	-2.087738e+01	-2.103894e+02
1.180000e-06	-2.781688e-06	-3.088746e-09	-2.060280e+01	-2.093900e+02
1.190000e-06	-2.744418e-06	-3.075509e-09	-2.032676e+01	-2.083633e+02
1.200000e-06	-2.706974e-06	-3.069314e-09	-2.004942e+01	-2.073091e+02
1.210000e-06	-2.669358e-06	-3.055678e-09	-1.977081e+01	-2.062270e+02
1.220000e-06	-2.631542e-06	-3.031892e-09	-1.949073e+01	-2.051170e+02
1.230000e-06	-2.593544e-06	-3.011551e-09	-1.920929e+01	-2.039793e+02
1.240000e-06	-2.555346e-06	-2.995022e-09	-1.892638e+01	-2.028139e+02
1.250000e-06	-2.516909e-06	-2.973958e-09	-1.864169e+01	-2.016212e+02
1.260000e-06	-2.478238e-06	-2.953099e-09	-1.835527e+01	-2.004018e+02
1.270000e-06	-2.439434e-06	-2.933707e-09	-1.806787e+01	-1.991561e+02
1.280000e-06	-2.400487e-06	-2.914439e-09	-1.777940e+01	-1.978849e+02
1.290000e-06	-2.361335e-06	-2.897835e-09	-1.748942e+01	-1.965889e+02
1.300000e-06	-2.322050e-06	-2.881345e-09	-1.719845e+01	-1.952689e+02
1.310000e-06	-2.282599e-06	-2.858315e-09	-1.690625e+01	-1.939258e+02
1.320000e-06	-2.243070e-06	-2.833725e-09	-1.661348e+01	-1.925605e+02
1.330000e-06	-2.203505e-06	-2.814997e-09	-1.632044e+01	-1.911739e+02
1.340000e-06	-2.163780e-06	-2.795001e-09	-1.602622e+01	-1.897670e+02
1.350000e-06	-2.123917e-06	-2.767896e-09	-1.573096e+01	-1.883405e+02
1.360000e-06	-2.083982e-06	-2.739909e-09	-1.543518e+01	-1.868952e+02
1.370000e-06	-2.043935e-06	-2.717638e-09	-1.513857e+01	-1.854321e+02
1.380000e-06	-2.003813e-06	-2.696524e-09	-1.484141e+01	-1.839515e+02
1.390000e-06	-1.963663e-06	-2.673694e-09	-1.454403e+01	-1.824541e+02
1.400000e-06	-1.923338e-06	-2.652157e-09	-1.424536e+01	-1.809403e+02
1.410000e-06	-1.882898e-06	-2.630250e-09	-1.394584e+01	-1.794101e+02
1.420000e-06	-1.842366e-06	-2.606319e-09	-1.364564e+01	-1.778637e+02
1.430000e-06	-1.801579e-06	-2.580735e-09	-1.334354e+01	-1.763008e+02
1.440000e-06	-1.760529e-06	-2.554135e-09	-1.303950e+01	-1.747211e+02
1.450000e-06	-1.719220e-06	-2.526385e-09	-1.273354e+01	-1.731238e+02
1.460000e-06	-1.677764e-06	-2.497997e-09	-1.242650e+01	-1.715081e+02
1.470000e-06	-1.636259e-06	-2.471583e-09	-1.211909e+01	-1.698729e+02
1.480000e-06	-1.594448e-06	-2.447942e-09	-1.180941e+01	-1.682166e+02
1.490000e-06	-1.552347e-06	-2.424903e-09	-1.149758e+01	-1.665377e+02
1.500000e-06	-1.510082e-06	-2.399922e-09	-1.118455e+01	-1.648342e+02
1.510000e-06	-1.467600e-06	-2.371152e-09	-1.086990e+01	-1.631038e+02
1.520000e-06	-1.424987e-06	-2.342395e-09	-1.055428e+01	-1.613441e+02
1.530000e-06	-1.382194e-06	-2.313391e-09	-1.023733e+01	-1.595523e+02
1.540000e-06	-1.339248e-06	-2.284057e-09	-9.919252e+00	-1.577254e+02
1.550000e-06	-1.296266e-06	-2.251590e-09	-9.600901e+00	-1.558602e+02
1.560000e-06	-1.253139e-06	-2.215274e-09	-9.281476e+00	-1.539533e+02
1.570000e-06	-1.209899e-06	-2.180791e-09	-8.961215e+00	-1.520009e+02
1.580000e-06	-1.166617e-06	-2.147457e-09	-8.640644e+00	-1.499994e+02
1.590000e-06	-1.123264e-06	-2.114911e-09	-8.319543e+00	-1.479446e+02
1.600000e-06	-1.079875e-06	-2.083167e-09	-7.998179e+00	-1.458326e+02
1.610000e-06	-1.036390e-06	-2.049241e-09	-7.676108e+00	-1.436591e+02
1.620000e-06	-9.928127e-07	-2.015080e-09	-7.353348e+00	-1.414199e+02
1.630000e-06	-9.491833e-07	-1.979866e-09	-7.030203e+00	-1.391107e+02
1.640000e-06	-9.054665e-07	-1.942359e-09	-6.706411e+00	-1.367272e+02
1.650000e-06	-8.616886e-07	-1.902097e-09	-6.382166e+00	-1.342652e+02
1.660000e-06	-8.179071e-07	-1.859895e-09	-6.057896e+00	-1.317206e+02
1.670000e-06	-7.741019e-07	-1.817806e-09	-5.733448e+00	-1.290893e+02
1.680000e-06	-7.302688e-07	-1.776754e-09	-5.408795e+00	-1.263675e+02
1.690000e-06	-6.864346e-07	-1.736446e-09	-5.084133e+00	-1.235515e+02
1.700000e-06	-6.425744e-07	-1.695949e-09	-4.759280e+00	-1.206378e+02
1.710000e-06	-5.986820e-07	-1.654768e-09	-4.434187e+00	-1.176233e+02
1.720000e-06	-5.547570e-07	-1.610754e-09	-4.108853e+00	-1.145051e+02
1.730000e-06	-5.108070e-07	-1.563355e-09	-3.783333e+00	-1.112807e+02
1.740000e-06	-4.668772e-07	-1.514835e-09	-3.457964e+00	-1.079479e+02
1.750000e-06	-4.229513e-07	-1.465669e-09	-3.132623e+00	-1.045050e+02
1.760000e-06	-3.790127e-07	-1.412685e-09	-2.807189e+00	-1.009506e+02
1.770000e-06	-3.350166e-07	-1.357203e-09	-2.481328e+00	-9.728391e+01
1.780000e-06	-2.909424e-07	-1.304403e-09	-2.154888e+00	-9.350447e+01
1.790000e-06	-2.468530e-07	-1.251370e-09	-1.828337e+00	-8.961240e+01
1.800000e-06	-2.027755e-07	-1.195550e-09	-1.501874e+00	-8.560828e+01
1.810000e-06	-1.586843e-07	-1.137761e-09	-1.175308e+00	-8.149324e+01
1.820000e-06	-1.145980e-07	-1.077071e-09	-8.487796e-01	-7.726892e+01
1.830000e-06	-7.054010e-08	-1.014026e-09	-5.224610e-01	-7.293749e+01
1.840000e-06	-2.646767e-08	-9.474683e-10	-1.960349e-01	-6.850166e+01
1.850000e-06	1.761274e-08	-8.779394e-10	1.304502e-01	-6.396465e+01
1.860000e-06	6.167235e-08	-8.078036e-10	4.567813e-01	-5.933020e+01
1.870000e-06	1.056879e-07	-7.382174e-10	7.827857e-01	-5.460256e+01
1.880000e-06	1.496571e-07	-6.652415e-10	1.108447e+00	-4.978646e+01
1.890000e-06	1.936218e-07	-5.891022e-10	1.434076e+00	-4.488709e+01
1.900000e-06	2.376249e-07	-5.144474e-10	1.759988e+00	-3.991010e+01
1.910000e-06	2.816227e-07	-4.405521e-10	2.085861e+00	-3.486153e+01
1.920000e-06	3.256146e-07	-3.645379e-10	2.411691e+00	-2.974782e+01
1.930000e-06	3.696206e-07	-2.847223e-10	2.737625e+00	-2.457577e+01
1.940000e-06	4.135800e-07	-2.010102e-10	3.063214e+00	-1.935246e+01
1.950000e-06	4.575331e-07	-1.187152e-10	3.388756e+00	-1.408529e+01
1.960000e-06	5.014873e-07	-3.817626e-11	3.714306e+00	-8.781846e+00
1.970000e-06	5.453954e-07	4.355067e-11	4.039515e+00	-3.449945e+00
1.980000e-06	5.892521e-07	1.296894e-10	4.364343e+00	1.902467e+00
1.990000e-06	6.330715e-07	2.144101e-10	4.688895e+00	7.267341e+00
2.000000e-06	6.768648e-07	2.926235e-10	5.013254e+00	1.263657e+01
2.010000e-06	7.206559e-07	3.737399e-10	5.337596e+00	1.800204e+01
2.020000e-06	7.644654e-07	4.609743e-10	5.662075e+00	2.335566e+01
2.030000e-06	8.082558e-07	5.457072e-10	5.986412e+00	2.868944e+01
2.040000e-06	8.519864e-07	6.257577e-10	6.310306e+00	3.399551e+01
2.050000e-06	8.956462e-07	7.071870e-10	6.633677e+00	3.926615e+01
2.060000e-06	9.392658e-07	7.904693e-10	6.956748e+00	4.449390e+01
2.070000e-06	9.828770e-07	8.727578e-10	7.279758e+00	4.967149e+01
2.080000e-06	1.026447e-06	9.521175e-10	7.602461e+00	5.479199e+01
2.090000e-06	1.069959e-06	1.030700e-09	7.924737e+00	5.984877e+01
2.100000e-06	1.113359e-06	1.108119e-09	8.246187e+00	6.483557e+01
2.110000e-06	1.156680e-06	1.182790e-09	8.567042e+00	6.974651e+01
2.120000e-06	1.200004e-06	1.255740e-09	8.887924e+00	7.457613e+01
2.130000e-06	1.243185e-06	1.327871e-09	9.207748e+00	7.931939e+01
2.140000e-06	1.286141e-06	1.399897e-09	9.525906e+00	8.397173e+01
2.150000e-06	1.328982e-06	1.471428e-09	9.843210e+00	8.852905e+01
2.160000e-06	1.371720e-06	1.537853e-09	1.015975e+01	9.298773e+01
2.170000e-06	1.414272e-06	1.600891e-09	1.047492e+01	9.734465e+01
2.180000e-06	1.456680e-06	1.664045e-09	1.078902e+01	1.015972e+02
2.190000e-06	1.498995e-06	1.725154e-09	1.110243e+01	1.057432e+02
2.200000e-06	1.541166e-06	1.781647e-09	1.141477e+01	1.097811e+02
2.210000e-06	1.583108e-06	1.833505e-09	1.172542e+01	1.137096e+02
2.220000e-06	1.624739e-06	1.886288e-09	1.203376e+01	1.175282e+02
2.230000e-06	1.666110e-06	1.939047e-09	1.234018e+01	1.212366e+02
2.240000e-06	1.707336e-06	1.986980e-09	1.264553e+01	1.248351e+02
2.250000e-06	1.748455e-06	2.033593e-09	1.295007e+01	1.283242e+02
2.260000e-06	1.789351e-06	2.080820e-09	1.325297e+01	1.317052e+02
2.270000e-06	1.829961e-06	2.127501e-09	1.355376e+01	1.349794e+02
2.280000e-06	1.870413e-06	2.169185e-09	1.385336e+01	1.381487e+02
2.290000e-06	1.910718e-06	2.208021e-09	1.415189e+01	1.412151e+02
2.300000e-06	1.950831e-06	2.247220e-09	1.444899e+01	1.441812e+02
2.310000e-06	1.990893e-06	2.285620e-09	1.474571e+01	1.470495e+02
2.320000e-06	2.030910e-06	2.323928e-09	1.504210e+01	1.498230e+02
2.330000e-06	2.070829e-06	2.359292e-09	1.533777e+01	1.525049e+02
2.340000e-06	2.110685e-06	2.393998e-09	1.563296e+01	1.550983e+02
2.350000e-06	2.150459e-06	2.431835e-09	1.592755e+01	1.576068e+02
2.360000e-06	2.190117e-06	2.469480e-09	1.622128e+01	1.600338e+02
2.370000e-06	2.229641e-06	2.501355e-09	1.651402e+01	1.623830e+02
2.380000e-06	2.269085e-06	2.531453e-09	1.680616e+01	1.646578e+02
2.390000e-06	2.308445e-06	2.564333e-09	1.709769e+01	1.668620e+02
2.400000e-06	2.347640e-06	2.597321e-09	1.738799e+01	1.689991e+02
2.410000e-06	2.386711e-06	2.628041e-09	1.767737e+01	1.710727e+02
2.420000e-06	2.425632e-06	2.654943e-09	1.796564e+01	1.730863e+02
2.430000e-06	2.464345e-06	2.681155e-09	1.825237e+01	1.750431e+02
2.440000e-06	2.502822e-06	2.710184e-09	1.853735e+01	1.769466e+02
2.450000e-06	2.541115e-06	2.736128e-09	1.882098e+01	1.787996e+02
2.460000e-06	2.579251e-06	2.757732e-09	1.910343e+01	1.806054e+02
2.470000e-06	2.617213e-06	2.781573e-09	1.938460e+01	1.823665e+02
2.480000e-06	2.655033e-06	2.808964e-09	1.966472e+01	1.840856e+02
2.490000e-06	2.692609e-06	2.834840e-09	1.994302e+01	1.857652e+02
2.500000e-06	2.730006e-06	2.858477e-09	2.022001e+01	1.874074e+02
2.510000e-06	2.767273e-06	2.881844e-09	2.049603e+01	1.890143e+02
2.520000e-06	2.804259e-06	2.906264e-09	2.076997e+01	1.905877e+02
2.530000e-06	2.840990e-06	2.930721e-09	2.104202e+01	1.921292e+02
2.540000e-06	2.877615e-06	2.952423e-09	2.131329e+01	1.936403e+02
2.550000e-06	2.914054e-06	2.971916e-09	2.158318e+01	1.951221e+02
2.560000e-06	2.950190e-06	2.993785e-09	2.185082e+01	1.965757e+02
2.570000e-06	2.986160e-06	3.018706e-09	2.211723e+01	1.980020e+02
2.580000e-06	3.022079e-06	3.040524e-09	2.238327e+01	1.994017e+02
2.590000e-06	3.057889e-06	3.058682e-09	2.264850e+01	2.007754e+02
2.600000e-06	3.093593e-06	3.077645e-09	2.291295e+01	2.021235e+02
2.610000e-06	3.129225e-06	3.098139e-09	2.317686e+01	2.034463e+02
2.620000e-06	3.164677e-06	3.116137e-09	2.343943e+01	2.047440e+02
2.630000e-06	3.199884e-06	3.132988e-09	2.370020e+01	2.060166e+02
2.640000e-06	3.234892e-06	3.151158e-09	2.395949e+01	2.072642e+02
2.650000e-06	3.269581e-06	3.170371e-09	2.421642e+01	2.084868e+02
2.660000e-06	3.303836e-06	3.188628e-09	2.447013e+01	2.096842e+02
2.670000e-06	3.337543e-06	3.204729e-09	2.471978e+01	2.108563e+02
2.680000e-06	3.370655e-06	3.221904e-09	2.496503e+01	2.120030e+02
2.690000e-06	3.403359e-06	3.241248e-09	2.520725e+01	2.131241e+02
2.700000e-06	3.435780e-06	3.258973e-09	2.544738e+01	2.142195e+02
2.710000e-06	3.468021e-06	3.271948e-09	2.568618e+01	2.152891e+02
2.720000e-06	3.500153e-06	3.285413e-09	2.592417e+01	2.163328e+02
2.730000e-06	3.532142e-06	3.303022e-09	2.616110e+01	2.173505e+02
2.740000e-06	3.563990e-06	3.319907e-09	2.639698e+01	2.183424e+02
2.750000e-06	3.595689e-06	3.333590e-09	2.663176e+01	2.193084e+02
2.760000e-06	3.627188e-06	3.347527e-09	2.686506e+01	2.202488e+02
2.770000e-06	3.658497e-06	3.363463e-09	2.709696e+01	2.211637e+02
2.780000e-06	3.689555e-06	3.378881e-09	2.732698e+01	2.220534e+02
2.790000e-06	3.720220e-06	3.391242e-09	2.755411e+01	2.229184e+02
2.800000e-06	3.750527e-06	3.402278e-09	2.777858e+01	2.237590e+02
2.810000e-06	3.780585e-06	3.414752e-09	2.800121e+01	2.245758e+02
2.820000e-06	3.810422e-06	3.428273e-09	2.822220e+01	2.253694e+02
2.830000e-06	3.840056e-06	3.440527e-09	2.844169e+01	2.261405e+02
2.840000e-06	3.869531e-06	3.452040e-09	2.865999e+01	2.268897e+02
2.850000e-06	3.898802e-06	3.466133e-09	2.887679e+01	2.276180e+02
2.860000e-06	3.927818e-06	3.482650e-09	2.909170e+01	2.283260e+02
2.870000e-06	3.956528e-06	3.497198e-09	2.930435e+01	2.290148e+02
2.880000e-06	3.984886e-06	3.508696e-09	2.951438e+01	2.296852e+02
2.890000e-06	4.013026e-06	3.519958e-09	2.972280e+01	2.303381e+02
2.900000e-06	4.041010e-06	3.533841e-09	2.993007e+01	2.309746e+02
