# Temperatura_=_20.0
# Concentracion g/m^3_=_9000.0
# C_Vs_to_Am_M_A/Vsm_=_65563218390.804596
# pendiente_HvsI_1/m_=_3716.3
# ordenada_HvsI_A/m_=_1297.0
# frecuencia_Hz_=_135191.023469333

Tiempo_(s)	Campo_(V.s)	Magnetizacion_(V.s)	Campo_(kA/m)	Magnetizacion_(A/m)
0.000000e+00	-5.196272e-06	-3.939256e-09	-3.842141e+01	-2.588904e+02
1.000000e-08	-5.196367e-06	-3.939255e-09	-3.842211e+01	-2.588773e+02
2.000000e-08	-5.196299e-06	-3.938883e-09	-3.842161e+01	-2.588484e+02
3.000000e-08	-5.195950e-06	-3.938657e-09	-3.841903e+01	-2.588030e+02
4.000000e-08	-5.195180e-06	-3.936826e-09	-3.841333e+01	-2.587408e+02
5.000000e-08	-5.193876e-06	-3.933643e-09	-3.840369e+01	-2.586615e+02
6.000000e-08	-5.191944e-06	-3.933843e-09	-3.838941e+01	-2.585648e+02
7.000000e-08	-5.189482e-06	-3.930886e-09	-3.837120e+01	-2.584506e+02
8.000000e-08	-5.186506e-06	-3.943930e-09	-3.834920e+01	-2.583191e+02
9.000000e-08	-5.183017e-06	-3.942053e-09	-3.832340e+01	-2.581704e+02
1.000000e-07	-5.179126e-06	-3.908870e-09	-3.829463e+01	-2.580048e+02
1.100000e-07	-5.174945e-06	-3.857746e-09	-3.826372e+01	-2.578227e+02
1.200000e-07	-5.170550e-06	-3.947045e-09	-3.823122e+01	-2.576247e+02
1.300000e-07	-5.165990e-06	-3.956244e-09	-3.819751e+01	-2.574115e+02
1.400000e-07	-5.161130e-06	-3.951369e-09	-3.816157e+01	-2.571838e+02
1.500000e-07	-5.155818e-06	-3.852172e-09	-3.812229e+01	-2.569427e+02
1.600000e-07	-5.150184e-06	-3.953292e-09	-3.808063e+01	-2.566892e+02
1.700000e-07	-5.144116e-06	-4.018747e-09	-3.803577e+01	-2.564243e+02
1.800000e-07	-5.137612e-06	-4.007084e-09	-3.798768e+01	-2.561492e+02
1.900000e-07	-5.130801e-06	-3.952036e-09	-3.793731e+01	-2.558654e+02
2.000000e-07	-5.123738e-06	-3.949070e-09	-3.788509e+01	-2.555741e+02
2.100000e-07	-5.116402e-06	-3.967261e-09	-3.783085e+01	-2.552767e+02
2.200000e-07	-5.108756e-06	-3.889950e-09	-3.777431e+01	-2.549747e+02
2.300000e-07	-5.100831e-06	-3.839835e-09	-3.771571e+01	-2.546695e+02
2.400000e-07	-5.092627e-06	-3.743121e-09	-3.765506e+01	-2.543626e+02
2.500000e-07	-5.083895e-06	-3.752051e-09	-3.759049e+01	-2.540554e+02
2.600000e-07	-5.074648e-06	-3.758824e-09	-3.752212e+01	-2.537494e+02
2.700000e-07	-5.064993e-06	-3.798896e-09	-3.745073e+01	-2.534459e+02
2.800000e-07	-5.054741e-06	-3.693824e-09	-3.737492e+01	-2.531462e+02
2.900000e-07	-5.044067e-06	-3.670785e-09	-3.729600e+01	-2.528516e+02
3.000000e-07	-5.032908e-06	-3.754952e-09	-3.721349e+01	-2.525631e+02
3.100000e-07	-5.021295e-06	-3.862886e-09	-3.712762e+01	-2.522818e+02
3.200000e-07	-5.009273e-06	-3.741248e-09	-3.703873e+01	-2.520087e+02
3.300000e-07	-4.996854e-06	-3.724141e-09	-3.694691e+01	-2.517445e+02
3.400000e-07	-4.984115e-06	-3.809831e-09	-3.685272e+01	-2.514899e+02
3.500000e-07	-4.970977e-06	-3.851479e-09	-3.675557e+01	-2.512453e+02
3.600000e-07	-4.957499e-06	-3.736819e-09	-3.665591e+01	-2.510110e+02
3.700000e-07	-4.943591e-06	-3.757980e-09	-3.655308e+01	-2.507874e+02
3.800000e-07	-4.929192e-06	-3.780687e-09	-3.644661e+01	-2.505742e+02
3.900000e-07	-4.914419e-06	-3.757358e-09	-3.633738e+01	-2.503715e+02
4.000000e-07	-4.899098e-06	-3.770411e-09	-3.622409e+01	-2.501788e+02
4.100000e-07	-4.883273e-06	-3.796265e-09	-3.610708e+01	-2.499956e+02
4.200000e-07	-4.867098e-06	-3.733873e-09	-3.598748e+01	-2.498213e+02
4.300000e-07	-4.850528e-06	-3.732024e-09	-3.586496e+01	-2.496551e+02
4.400000e-07	-4.833537e-06	-3.868817e-09	-3.573934e+01	-2.494960e+02
4.500000e-07	-4.816209e-06	-3.851348e-09	-3.561121e+01	-2.493429e+02
4.600000e-07	-4.798721e-06	-3.744329e-09	-3.548190e+01	-2.491945e+02
4.700000e-07	-4.781010e-06	-3.787559e-09	-3.535095e+01	-2.490495e+02
4.800000e-07	-4.762955e-06	-3.933458e-09	-3.521745e+01	-2.489064e+02
4.900000e-07	-4.744501e-06	-3.858817e-09	-3.508099e+01	-2.487637e+02
5.000000e-07	-4.725689e-06	-3.768909e-09	-3.494190e+01	-2.486197e+02
5.100000e-07	-4.706536e-06	-3.810554e-09	-3.480028e+01	-2.484728e+02
5.200000e-07	-4.687043e-06	-3.894351e-09	-3.465616e+01	-2.483213e+02
5.300000e-07	-4.667286e-06	-3.822699e-09	-3.451007e+01	-2.481634e+02
5.400000e-07	-4.647280e-06	-3.784140e-09	-3.436214e+01	-2.479973e+02
5.500000e-07	-4.627062e-06	-3.795371e-09	-3.421265e+01	-2.478215e+02
5.600000e-07	-4.606603e-06	-3.826499e-09	-3.406137e+01	-2.476341e+02
5.700000e-07	-4.585844e-06	-3.798897e-09	-3.390788e+01	-2.474336e+02
5.800000e-07	-4.564772e-06	-3.796992e-09	-3.375207e+01	-2.472184e+02
5.900000e-07	-4.543332e-06	-3.771784e-09	-3.359355e+01	-2.469871e+02
6.000000e-07	-4.521605e-06	-3.758950e-09	-3.343290e+01	-2.467382e+02
6.100000e-07	-4.499684e-06	-3.768127e-09	-3.327081e+01	-2.464705e+02
6.200000e-07	-4.477437e-06	-3.789917e-09	-3.310632e+01	-2.461830e+02
6.300000e-07	-4.454856e-06	-3.738411e-09	-3.293935e+01	-2.458746e+02
6.400000e-07	-4.432005e-06	-3.698966e-09	-3.277039e+01	-2.455445e+02
6.500000e-07	-4.408814e-06	-3.740260e-09	-3.259892e+01	-2.451920e+02
6.600000e-07	-4.385263e-06	-3.769822e-09	-3.242478e+01	-2.448168e+02
6.700000e-07	-4.361464e-06	-3.718465e-09	-3.224881e+01	-2.444183e+02
6.800000e-07	-4.337471e-06	-3.683928e-09	-3.207140e+01	-2.439965e+02
6.900000e-07	-4.313259e-06	-3.720639e-09	-3.189238e+01	-2.435514e+02
7.000000e-07	-4.288807e-06	-3.728479e-09	-3.171158e+01	-2.430832e+02
7.100000e-07	-4.263970e-06	-3.695615e-09	-3.152793e+01	-2.425922e+02
7.200000e-07	-4.238648e-06	-3.668721e-09	-3.134070e+01	-2.420790e+02
7.300000e-07	-4.212872e-06	-3.677224e-09	-3.115012e+01	-2.415441e+02
7.400000e-07	-4.186654e-06	-3.669492e-09	-3.095626e+01	-2.409885e+02
7.500000e-07	-4.159944e-06	-3.661075e-09	-3.075877e+01	-2.404130e+02
7.600000e-07	-4.132823e-06	-3.644021e-09	-3.055823e+01	-2.398186e+02
7.700000e-07	-4.105406e-06	-3.640151e-09	-3.035551e+01	-2.392066e+02
7.800000e-07	-4.077748e-06	-3.627030e-09	-3.015100e+01	-2.385781e+02
7.900000e-07	-4.049941e-06	-3.631495e-09	-2.994540e+01	-2.379345e+02
8.000000e-07	-4.021937e-06	-3.622064e-09	-2.973834e+01	-2.372771e+02
8.100000e-07	-3.993673e-06	-3.599532e-09	-2.952935e+01	-2.366073e+02
8.200000e-07	-3.965192e-06	-3.572341e-09	-2.931877e+01	-2.359265e+02
8.300000e-07	-3.936442e-06	-3.580347e-09	-2.910618e+01	-2.352361e+02
8.400000e-07	-3.907363e-06	-3.568821e-09	-2.889117e+01	-2.345374e+02
8.500000e-07	-3.877970e-06	-3.540400e-09	-2.867384e+01	-2.338318e+02
8.600000e-07	-3.848342e-06	-3.528351e-09	-2.845477e+01	-2.331206e+02
8.700000e-07	-3.818520e-06	-3.542196e-09	-2.823426e+01	-2.324048e+02
8.800000e-07	-3.788473e-06	-3.530686e-09	-2.801209e+01	-2.316857e+02
8.900000e-07	-3.758214e-06	-3.509467e-09	-2.778836e+01	-2.309642e+02
9.000000e-07	-3.727683e-06	-3.502218e-09	-2.756261e+01	-2.302411e+02
9.100000e-07	-3.696782e-06	-3.501564e-09	-2.733413e+01	-2.295171e+02
9.200000e-07	-3.665618e-06	-3.487667e-09	-2.710370e+01	-2.287929e+02
9.300000e-07	-3.634269e-06	-3.468384e-09	-2.687191e+01	-2.280688e+02
9.400000e-07	-3.602681e-06	-3.455788e-09	-2.663835e+01	-2.273451e+02
9.500000e-07	-3.570931e-06	-3.445167e-09	-2.640359e+01	-2.266218e+02
9.600000e-07	-3.539062e-06	-3.435284e-09	-2.616794e+01	-2.258990e+02
9.700000e-07	-3.507069e-06	-3.421119e-09	-2.593138e+01	-2.251763e+02
9.800000e-07	-3.474851e-06	-3.407547e-09	-2.569316e+01	-2.244533e+02
9.900000e-07	-3.442391e-06	-3.392497e-09	-2.545316e+01	-2.237294e+02
1.000000e-06	-3.409665e-06	-3.384504e-09	-2.521118e+01	-2.230039e+02
1.010000e-06	-3.376550e-06	-3.372011e-09	-2.496632e+01	-2.222759e+02
1.020000e-06	-3.343156e-06	-3.356570e-09	-2.471941e+01	-2.215444e+02
1.030000e-06	-3.309369e-06	-3.336001e-09	-2.446959e+01	-2.208081e+02
1.040000e-06	-3.275131e-06	-3.327246e-09	-2.421643e+01	-2.200659e+02
1.050000e-06	-3.240476e-06	-3.314507e-09	-2.396019e+01	-2.193162e+02
1.060000e-06	-3.205424e-06	-3.295623e-09	-2.370101e+01	-2.185578e+02
1.070000e-06	-3.170076e-06	-3.279236e-09	-2.343965e+01	-2.177889e+02
1.080000e-06	-3.134467e-06	-3.274747e-09	-2.317635e+01	-2.170082e+02
1.090000e-06	-3.098696e-06	-3.263914e-09	-2.291186e+01	-2.162138e+02
1.100000e-06	-3.062840e-06	-3.247016e-09	-2.264674e+01	-2.154043e+02
1.110000e-06	-3.026905e-06	-3.229958e-09	-2.238104e+01	-2.145780e+02
1.120000e-06	-2.990861e-06	-3.219092e-09	-2.211453e+01	-2.137334e+02
1.130000e-06	-2.954652e-06	-3.202146e-09	-2.184680e+01	-2.128688e+02
1.140000e-06	-2.918262e-06	-3.184778e-09	-2.157772e+01	-2.119829e+02
1.150000e-06	-2.881717e-06	-3.166794e-09	-2.130752e+01	-2.110741e+02
1.160000e-06	-2.844998e-06	-3.151520e-09	-2.103601e+01	-2.101413e+02
1.170000e-06	-2.808074e-06	-3.133103e-09	-2.076299e+01	-2.091832e+02
1.180000e-06	-2.770974e-06	-3.115951e-09	-2.048867e+01	-2.081988e+02
1.190000e-06	-2.733585e-06	-3.101537e-09	-2.021222e+01	-2.071871e+02
1.200000e-06	-2.695899e-06	-3.085732e-09	-1.993357e+01	-2.061474e+02
1.210000e-06	-2.658061e-06	-3.068517e-09	-1.965379e+01	-2.050790e+02
1.220000e-06	-2.620103e-06	-3.050313e-09	-1.937313e+01	-2.039815e+02
1.230000e-06	-2.582031e-06	-3.031270e-09	-1.909162e+01	-2.028545e+02
1.240000e-06	-2.543757e-06	-3.007136e-09	-1.880863e+01	-2.016978e+02
1.250000e-06	-2.505222e-06	-2.985076e-09	-1.852370e+01	-2.005116e+02
1.260000e-06	-2.466442e-06	-2.965812e-09	-1.823695e+01	-1.992958e+02
1.270000e-06	-2.427430e-06	-2.946449e-09	-1.794850e+01	-1.980508e+02
1.280000e-06	-2.388285e-06	-2.925988e-09	-1.765906e+01	-1.967770e+02
1.290000e-06	-2.348961e-06	-2.907581e-09	-1.736830e+01	-1.954750e+02
1.300000e-06	-2.309502e-06	-2.888071e-09	-1.707654e+01	-1.941454e+02
1.310000e-06	-2.269994e-06	-2.866706e-09	-1.678441e+01	-1.927889e+02
1.320000e-06	-2.230363e-06	-2.844895e-09	-1.649138e+01	-1.914064e+02
1.330000e-06	-2.190608e-06	-2.822325e-09	-1.619743e+01	-1.899987e+02
1.340000e-06	-2.150750e-06	-2.796870e-09	-1.590272e+01	-1.885667e+02
1.350000e-06	-2.110833e-06	-2.773987e-09	-1.560757e+01	-1.871114e+02
1.360000e-06	-2.070840e-06	-2.752401e-09	-1.531186e+01	-1.856335e+02
1.370000e-06	-2.030760e-06	-2.729367e-09	-1.501550e+01	-1.841339e+02
1.380000e-06	-1.990556e-06	-2.704045e-09	-1.471824e+01	-1.826135e+02
1.390000e-06	-1.950266e-06	-2.683131e-09	-1.442033e+01	-1.810729e+02
1.400000e-06	-1.909852e-06	-2.662514e-09	-1.412151e+01	-1.795127e+02
1.410000e-06	-1.869160e-06	-2.639550e-09	-1.382063e+01	-1.779332e+02
1.420000e-06	-1.828279e-06	-2.616677e-09	-1.351835e+01	-1.763349e+02
1.430000e-06	-1.787289e-06	-2.593998e-09	-1.321527e+01	-1.747177e+02
1.440000e-06	-1.746081e-06	-2.566654e-09	-1.291058e+01	-1.730816e+02
1.450000e-06	-1.704664e-06	-2.539820e-09	-1.260434e+01	-1.714263e+02
1.460000e-06	-1.663150e-06	-2.514925e-09	-1.229739e+01	-1.697511e+02
1.470000e-06	-1.621455e-06	-2.489048e-09	-1.198910e+01	-1.680552e+02
1.480000e-06	-1.579376e-06	-2.461910e-09	-1.167796e+01	-1.663376e+02
1.490000e-06	-1.537091e-06	-2.438049e-09	-1.136530e+01	-1.645968e+02
1.500000e-06	-1.494761e-06	-2.413602e-09	-1.105231e+01	-1.628313e+02
1.510000e-06	-1.452313e-06	-2.386180e-09	-1.073845e+01	-1.610392e+02
1.520000e-06	-1.409673e-06	-2.356246e-09	-1.042317e+01	-1.592181e+02
1.530000e-06	-1.366876e-06	-2.326827e-09	-1.010673e+01	-1.573656e+02
1.540000e-06	-1.323910e-06	-2.297133e-09	-9.789032e+00	-1.554791e+02
1.550000e-06	-1.280641e-06	-2.266152e-09	-9.469105e+00	-1.535554e+02
1.560000e-06	-1.237323e-06	-2.234527e-09	-9.148807e+00	-1.515913e+02
1.570000e-06	-1.194072e-06	-2.200992e-09	-8.829010e+00	-1.495834e+02
1.580000e-06	-1.150702e-06	-2.167220e-09	-8.508329e+00	-1.475279e+02
1.590000e-06	-1.107223e-06	-2.133183e-09	-8.186842e+00	-1.454210e+02
1.600000e-06	-1.063705e-06	-2.097831e-09	-7.865072e+00	-1.432587e+02
1.610000e-06	-1.020112e-06	-2.063684e-09	-7.542744e+00	-1.410368e+02
1.620000e-06	-9.764510e-07	-2.031102e-09	-7.219911e+00	-1.387510e+02
1.630000e-06	-9.327662e-07	-1.993976e-09	-6.896904e+00	-1.363971e+02
1.640000e-06	-8.890908e-07	-1.953154e-09	-6.573967e+00	-1.339708e+02
1.650000e-06	-8.453541e-07	-1.912983e-09	-6.250576e+00	-1.314677e+02
1.660000e-06	-8.014827e-07	-1.874638e-09	-5.926190e+00	-1.288836e+02
1.670000e-06	-7.575952e-07	-1.832411e-09	-5.601684e+00	-1.262142e+02
1.680000e-06	-7.137013e-07	-1.787729e-09	-5.277131e+00	-1.234557e+02
1.690000e-06	-6.697368e-07	-1.743129e-09	-4.952056e+00	-1.206041e+02
1.700000e-06	-6.257389e-07	-1.701920e-09	-4.626734e+00	-1.176558e+02
1.710000e-06	-5.817618e-07	-1.659468e-09	-4.301566e+00	-1.146075e+02
1.720000e-06	-5.377865e-07	-1.612837e-09	-3.976411e+00	-1.114560e+02
1.730000e-06	-4.938122e-07	-1.562860e-09	-3.651264e+00	-1.081986e+02
1.740000e-06	-4.498175e-07	-1.514839e-09	-3.325965e+00	-1.048328e+02
1.750000e-06	-4.057779e-07	-1.466900e-09	-3.000335e+00	-1.013569e+02
1.760000e-06	-3.617375e-07	-1.414259e-09	-2.674699e+00	-9.776906e+01
1.770000e-06	-3.176721e-07	-1.357482e-09	-2.348878e+00	-9.406836e+01
1.780000e-06	-2.736280e-07	-1.301107e-09	-2.023214e+00	-9.025416e+01
1.790000e-06	-2.296215e-07	-1.245806e-09	-1.697829e+00	-8.632636e+01
1.800000e-06	-1.855500e-07	-1.186439e-09	-1.371963e+00	-8.228539e+01
1.810000e-06	-1.414448e-07	-1.123753e-09	-1.045847e+00	-7.813224e+01
1.820000e-06	-9.736239e-08	-1.059927e-09	-7.199008e-01	-7.386841e+01
1.830000e-06	-5.332769e-08	-9.960676e-10	-3.943067e-01	-6.949598e+01
1.840000e-06	-9.287196e-09	-9.300866e-10	-6.866984e-02	-6.501759e+01
1.850000e-06	3.480876e-08	-8.597579e-10	2.573771e-01	-6.043641e+01
1.860000e-06	7.888797e-08	-7.872637e-10	5.833003e-01	-5.575618e+01
1.870000e-06	1.229503e-07	-7.161045e-10	9.090986e-01	-5.098115e+01
1.880000e-06	1.670115e-07	-6.418829e-10	1.234889e+00	-4.611610e+01
1.890000e-06	2.110727e-07	-5.631103e-10	1.560678e+00	-4.116631e+01
1.900000e-06	2.551124e-07	-4.830890e-10	1.886309e+00	-3.613752e+01
1.910000e-06	2.991294e-07	-4.052092e-10	2.211773e+00	-3.103593e+01
1.920000e-06	3.431267e-07	-3.279475e-10	2.537090e+00	-2.586814e+01
1.930000e-06	3.871587e-07	-2.473995e-10	2.862664e+00	-2.064112e+01
1.940000e-06	4.312035e-07	-1.634051e-10	3.188333e+00	-1.536220e+01
1.950000e-06	4.751965e-07	-8.119288e-11	3.513619e+00	-1.003898e+01
1.960000e-06	5.191675e-07	-1.118060e-12	3.838742e+00	-4.679342e+00
1.970000e-06	5.630986e-07	8.032532e-11	4.163570e+00	7.086460e-01
1.980000e-06	6.070031e-07	1.657740e-10	4.488201e+00	6.116745e+00
1.990000e-06	6.508941e-07	2.522975e-10	4.812733e+00	1.153661e+01
2.000000e-06	6.947776e-07	3.364347e-10	5.137208e+00	1.695982e+01
2.010000e-06	7.386443e-07	4.204110e-10	5.461560e+00	2.237795e+01
2.020000e-06	7.824848e-07	5.058311e-10	5.785718e+00	2.778263e+01
2.030000e-06	8.263013e-07	5.902073e-10	6.109699e+00	3.316553e+01
2.040000e-06	8.700945e-07	6.711623e-10	6.433507e+00	3.851849e+01
2.050000e-06	9.138678e-07	7.504475e-10	6.757169e+00	4.383353e+01
2.060000e-06	9.575657e-07	8.306877e-10	7.080272e+00	4.910288e+01
2.070000e-06	1.001201e-06	9.120923e-10	7.402915e+00	5.431904e+01
2.080000e-06	1.044807e-06	9.932422e-10	7.725337e+00	5.947483e+01
2.090000e-06	1.088343e-06	1.073726e-09	8.047245e+00	6.456342e+01
2.100000e-06	1.131843e-06	1.150773e-09	8.368885e+00	6.957836e+01
2.110000e-06	1.175312e-06	1.225566e-09	8.690299e+00	7.451360e+01
2.120000e-06	1.218654e-06	1.300363e-09	9.010769e+00	7.936355e+01
2.130000e-06	1.261784e-06	1.373090e-09	9.329670e+00	8.412310e+01
2.140000e-06	1.304809e-06	1.442130e-09	9.647803e+00	8.878760e+01
2.150000e-06	1.347874e-06	1.509149e-09	9.966228e+00	9.335292e+01
2.160000e-06	1.390831e-06	1.573651e-09	1.028385e+01	9.781544e+01
2.170000e-06	1.433450e-06	1.635155e-09	1.059898e+01	1.021721e+02
2.180000e-06	1.475880e-06	1.696704e-09	1.091271e+01	1.064203e+02
2.190000e-06	1.518284e-06	1.756406e-09	1.122624e+01	1.105580e+02
2.200000e-06	1.560560e-06	1.812804e-09	1.153883e+01	1.145838e+02
2.210000e-06	1.602611e-06	1.868369e-09	1.184976e+01	1.184966e+02
2.220000e-06	1.644423e-06	1.922431e-09	1.215892e+01	1.222960e+02
2.230000e-06	1.686017e-06	1.973468e-09	1.246646e+01	1.259819e+02
2.240000e-06	1.727297e-06	2.022245e-09	1.277169e+01	1.295549e+02
2.250000e-06	1.768281e-06	2.067696e-09	1.307473e+01	1.330159e+02
2.260000e-06	1.809081e-06	2.109895e-09	1.337641e+01	1.363662e+02
2.270000e-06	1.849804e-06	2.152088e-09	1.367751e+01	1.396076e+02
2.280000e-06	1.890409e-06	2.194170e-09	1.397775e+01	1.427423e+02
2.290000e-06	1.930742e-06	2.235632e-09	1.427597e+01	1.457725e+02
2.300000e-06	1.970922e-06	2.275117e-09	1.457307e+01	1.487012e+02
2.310000e-06	2.011085e-06	2.314772e-09	1.487003e+01	1.515313e+02
2.320000e-06	2.051171e-06	2.353192e-09	1.516643e+01	1.542661e+02
2.330000e-06	2.091117e-06	2.388697e-09	1.546179e+01	1.569089e+02
2.340000e-06	2.130972e-06	2.424989e-09	1.575648e+01	1.594636e+02
2.350000e-06	2.170802e-06	2.460108e-09	1.605098e+01	1.619336e+02
2.360000e-06	2.210574e-06	2.493954e-09	1.634506e+01	1.643229e+02
2.370000e-06	2.250244e-06	2.524744e-09	1.663838e+01	1.666353e+02
2.380000e-06	2.289762e-06	2.555387e-09	1.693058e+01	1.688747e+02
2.390000e-06	2.329141e-06	2.587527e-09	1.722175e+01	1.710450e+02
2.400000e-06	2.368338e-06	2.621123e-09	1.751157e+01	1.731499e+02
2.410000e-06	2.407311e-06	2.653348e-09	1.779974e+01	1.751933e+02
2.420000e-06	2.446089e-06	2.682915e-09	1.808647e+01	1.771787e+02
2.430000e-06	2.484719e-06	2.713320e-09	1.837209e+01	1.791096e+02
2.440000e-06	2.523058e-06	2.740787e-09	1.865558e+01	1.809895e+02
2.450000e-06	2.561127e-06	2.763400e-09	1.893706e+01	1.828216e+02
2.460000e-06	2.599173e-06	2.787963e-09	1.921837e+01	1.846088e+02
2.470000e-06	2.637109e-06	2.816085e-09	1.949887e+01	1.863540e+02
2.480000e-06	2.674843e-06	2.842184e-09	1.977788e+01	1.880597e+02
2.490000e-06	2.712389e-06	2.867332e-09	2.005549e+01	1.897285e+02
2.500000e-06	2.749735e-06	2.893998e-09	2.033164e+01	1.913625e+02
2.510000e-06	2.786911e-06	2.921980e-09	2.060651e+01	1.929637e+02
2.520000e-06	2.823875e-06	2.948149e-09	2.087983e+01	1.945337e+02
2.530000e-06	2.860642e-06	2.971678e-09	2.115169e+01	1.960742e+02
2.540000e-06	2.897226e-06	2.991450e-09	2.142218e+01	1.975864e+02
2.550000e-06	2.933559e-06	3.011818e-09	2.169084e+01	1.990714e+02
2.560000e-06	2.969751e-06	3.036004e-09	2.195844e+01	2.005301e+02
2.570000e-06	3.005836e-06	3.058687e-09	2.222525e+01	2.019633e+02
2.580000e-06	3.041800e-06	3.078749e-09	2.249117e+01	2.033716e+02
2.590000e-06	3.077716e-06	3.101350e-09	2.275674e+01	2.047552e+02
2.600000e-06	3.113485e-06	3.124625e-09	2.302121e+01	2.061145e+02
2.610000e-06	3.149084e-06	3.143651e-09	2.328443e+01	2.074496e+02
2.620000e-06	3.184511e-06	3.161004e-09	2.354638e+01	2.087605e+02
2.630000e-06	3.219659e-06	3.180741e-09	2.380626e+01	2.100471e+02
2.640000e-06	3.254487e-06	3.200480e-09	2.406379e+01	2.113093e+02
2.650000e-06	3.288929e-06	3.218443e-09	2.431845e+01	2.125469e+02
2.660000e-06	3.322917e-06	3.234541e-09	2.456976e+01	2.137597e+02
2.670000e-06	3.356415e-06	3.251048e-09	2.481744e+01	2.149474e+02
2.680000e-06	3.389601e-06	3.271375e-09	2.506282e+01	2.161098e+02
2.690000e-06	3.422501e-06	3.292057e-09	2.530609e+01	2.172465e+02
2.700000e-06	3.455016e-06	3.308106e-09	2.554650e+01	2.183575e+02
2.710000e-06	3.487332e-06	3.322552e-09	2.578545e+01	2.194424e+02
2.720000e-06	3.519476e-06	3.339300e-09	2.602312e+01	2.205012e+02
2.730000e-06	3.551403e-06	3.357905e-09	2.625919e+01	2.215337e+02
2.740000e-06	3.583222e-06	3.373148e-09	2.649446e+01	2.225401e+02
2.750000e-06	3.614893e-06	3.384401e-09	2.672864e+01	2.235202e+02
2.760000e-06	3.646373e-06	3.398162e-09	2.696141e+01	2.244744e+02
2.770000e-06	3.677697e-06	3.413757e-09	2.719302e+01	2.254027e+02
2.780000e-06	3.708719e-06	3.427564e-09	2.742239e+01	2.263056e+02
2.790000e-06	3.739378e-06	3.439215e-09	2.764909e+01	2.271835e+02
2.800000e-06	3.769708e-06	3.453245e-09	2.787334e+01	2.280367e+02
2.810000e-06	3.799709e-06	3.468912e-09	2.809518e+01	2.288659e+02
2.820000e-06	3.829440e-06	3.481830e-09	2.831501e+01	2.296718e+02
2.830000e-06	3.859002e-06	3.492529e-09	2.853359e+01	2.304550e+02
2.840000e-06	3.888421e-06	3.504616e-09	2.875111e+01	2.312163e+02
2.850000e-06	3.917644e-06	3.519213e-09	2.896719e+01	2.319566e+02
2.860000e-06	3.946541e-06	3.532635e-09	2.918085e+01	2.326767e+02
2.870000e-06	3.975070e-06	3.543046e-09	2.939180e+01	2.333776e+02
2.880000e-06	4.003379e-06	3.553652e-09	2.960112e+01	2.340603e+02
2.890000e-06	4.031460e-06	3.564957e-09	2.980875e+01	2.347256e+02
2.900000e-06	4.059327e-06	3.577271e-09	3.001480e+01	2.353746e+02
