# Temperatura_=_20.0
# Concentracion g/m^3_=_9000.0
# C_Vs_to_Am_M_A/Vsm_=_65563218390.804596
# pendiente_HvsI_1/m_=_3716.3
# ordenada_HvsI_A/m_=_1297.0
# frecuencia_Hz_=_135198.52484013097

Tiempo_(s)	Campo_(V.s)	Magnetizacion_(V.s)	Campo_(kA/m)	Magnetizacion_(A/m)
0.000000e+00	-5.179451e-06	-3.921450e-09	-3.842752e+01	-2.526257e+02
1.000000e-08	-5.179668e-06	-3.921784e-09	-3.842914e+01	-2.526129e+02
2.000000e-08	-5.179594e-06	-3.925279e-09	-3.842859e+01	-2.525966e+02
3.000000e-08	-5.179274e-06	-3.928568e-09	-3.842621e+01	-2.525771e+02
4.000000e-08	-5.178668e-06	-3.930300e-09	-3.842171e+01	-2.525549e+02
5.000000e-08	-5.177594e-06	-3.928497e-09	-3.841375e+01	-2.525304e+02
6.000000e-08	-5.175973e-06	-3.928999e-09	-3.840172e+01	-2.525039e+02
7.000000e-08	-5.173847e-06	-3.943653e-09	-3.838594e+01	-2.524759e+02
8.000000e-08	-5.171209e-06	-3.958580e-09	-3.836637e+01	-2.524468e+02
9.000000e-08	-5.167967e-06	-3.913998e-09	-3.834232e+01	-2.524172e+02
1.000000e-07	-5.164193e-06	-3.808611e-09	-3.831432e+01	-2.523873e+02
1.100000e-07	-5.160097e-06	-3.823536e-09	-3.828393e+01	-2.523578e+02
1.200000e-07	-5.155777e-06	-4.015126e-09	-3.825188e+01	-2.523289e+02
1.300000e-07	-5.151214e-06	-4.079720e-09	-3.821803e+01	-2.523012e+02
1.400000e-07	-5.146378e-06	-3.892395e-09	-3.818214e+01	-2.522750e+02
1.500000e-07	-5.141218e-06	-3.727906e-09	-3.814386e+01	-2.522508e+02
1.600000e-07	-5.135726e-06	-3.866615e-09	-3.810312e+01	-2.522289e+02
1.700000e-07	-5.129835e-06	-4.098360e-09	-3.805941e+01	-2.522096e+02
1.800000e-07	-5.123579e-06	-4.031176e-09	-3.801300e+01	-2.521932e+02
1.900000e-07	-5.116969e-06	-3.825694e-09	-3.796395e+01	-2.521800e+02
2.000000e-07	-5.110015e-06	-3.749941e-09	-3.791236e+01	-2.521702e+02
2.100000e-07	-5.102741e-06	-3.902801e-09	-3.785839e+01	-2.521639e+02
2.200000e-07	-5.095203e-06	-3.960946e-09	-3.780247e+01	-2.521612e+02
2.300000e-07	-5.087473e-06	-3.799528e-09	-3.774512e+01	-2.521622e+02
2.400000e-07	-5.079366e-06	-3.589492e-09	-3.768497e+01	-2.521669e+02
2.500000e-07	-5.070850e-06	-3.661516e-09	-3.762179e+01	-2.521750e+02
2.600000e-07	-5.061932e-06	-3.871575e-09	-3.755563e+01	-2.521865e+02
2.700000e-07	-5.052437e-06	-3.834033e-09	-3.748518e+01	-2.522011e+02
2.800000e-07	-5.042294e-06	-3.551728e-09	-3.740992e+01	-2.522184e+02
2.900000e-07	-5.031793e-06	-3.512130e-09	-3.733201e+01	-2.522381e+02
3.000000e-07	-5.020953e-06	-3.806770e-09	-3.725159e+01	-2.522597e+02
3.100000e-07	-5.009545e-06	-3.900915e-09	-3.716695e+01	-2.522825e+02
3.200000e-07	-4.997613e-06	-3.640567e-09	-3.707843e+01	-2.523060e+02
3.300000e-07	-4.985394e-06	-3.546581e-09	-3.698777e+01	-2.523295e+02
3.400000e-07	-4.972940e-06	-3.808280e-09	-3.689537e+01	-2.523520e+02
3.500000e-07	-4.960015e-06	-3.915406e-09	-3.679948e+01	-2.523728e+02
3.600000e-07	-4.946653e-06	-3.749257e-09	-3.670034e+01	-2.523910e+02
3.700000e-07	-4.933010e-06	-3.609566e-09	-3.659912e+01	-2.524055e+02
3.800000e-07	-4.918956e-06	-3.673179e-09	-3.649485e+01	-2.524153e+02
3.900000e-07	-4.904411e-06	-3.766329e-09	-3.638694e+01	-2.524194e+02
4.000000e-07	-4.889385e-06	-3.838413e-09	-3.627546e+01	-2.524166e+02
4.100000e-07	-4.873784e-06	-3.719813e-09	-3.615971e+01	-2.524057e+02
4.200000e-07	-4.857627e-06	-3.558710e-09	-3.603984e+01	-2.523857e+02
4.300000e-07	-4.841123e-06	-3.662244e-09	-3.591739e+01	-2.523552e+02
4.400000e-07	-4.824343e-06	-3.920337e-09	-3.579290e+01	-2.523132e+02
4.500000e-07	-4.807194e-06	-3.819927e-09	-3.566567e+01	-2.522584e+02
4.600000e-07	-4.789838e-06	-3.573720e-09	-3.553689e+01	-2.521898e+02
4.700000e-07	-4.772298e-06	-3.699734e-09	-3.540677e+01	-2.521061e+02
4.800000e-07	-4.754362e-06	-3.952912e-09	-3.527369e+01	-2.520063e+02
4.900000e-07	-4.736026e-06	-3.831674e-09	-3.513765e+01	-2.518894e+02
5.000000e-07	-4.717317e-06	-3.620086e-09	-3.499884e+01	-2.517543e+02
5.100000e-07	-4.698270e-06	-3.697757e-09	-3.485753e+01	-2.516002e+02
5.200000e-07	-4.678944e-06	-3.848487e-09	-3.471415e+01	-2.514263e+02
5.300000e-07	-4.659313e-06	-3.813653e-09	-3.456850e+01	-2.512318e+02
5.400000e-07	-4.639506e-06	-3.708925e-09	-3.442155e+01	-2.510160e+02
5.500000e-07	-4.619527e-06	-3.676486e-09	-3.427332e+01	-2.507785e+02
5.600000e-07	-4.599319e-06	-3.724448e-09	-3.412339e+01	-2.505188e+02
5.700000e-07	-4.578834e-06	-3.802471e-09	-3.397141e+01	-2.502366e+02
5.800000e-07	-4.557951e-06	-3.782646e-09	-3.381648e+01	-2.499316e+02
5.900000e-07	-4.536714e-06	-3.669784e-09	-3.365891e+01	-2.496038e+02
6.000000e-07	-4.515184e-06	-3.642318e-09	-3.349917e+01	-2.492533e+02
6.100000e-07	-4.493376e-06	-3.752497e-09	-3.333738e+01	-2.488801e+02
6.200000e-07	-4.471304e-06	-3.777130e-09	-3.317362e+01	-2.484847e+02
6.300000e-07	-4.448931e-06	-3.661482e-09	-3.300763e+01	-2.480673e+02
6.400000e-07	-4.426194e-06	-3.598031e-09	-3.283894e+01	-2.476285e+02
6.500000e-07	-4.403105e-06	-3.693054e-09	-3.266764e+01	-2.471690e+02
6.600000e-07	-4.379726e-06	-3.749002e-09	-3.249418e+01	-2.466894e+02
6.700000e-07	-4.356076e-06	-3.673479e-09	-3.231872e+01	-2.461907e+02
6.800000e-07	-4.332229e-06	-3.607595e-09	-3.214179e+01	-2.456736e+02
6.900000e-07	-4.308234e-06	-3.654716e-09	-3.196377e+01	-2.451394e+02
7.000000e-07	-4.283922e-06	-3.691328e-09	-3.178339e+01	-2.445889e+02
7.100000e-07	-4.259217e-06	-3.656982e-09	-3.160010e+01	-2.440234e+02
7.200000e-07	-4.234262e-06	-3.603109e-09	-3.141495e+01	-2.434441e+02
7.300000e-07	-4.208930e-06	-3.597530e-09	-3.122701e+01	-2.428521e+02
7.400000e-07	-4.182964e-06	-3.618676e-09	-3.103436e+01	-2.422487e+02
7.500000e-07	-4.156475e-06	-3.625625e-09	-3.083783e+01	-2.416352e+02
7.600000e-07	-4.129624e-06	-3.591141e-09	-3.063862e+01	-2.410127e+02
7.700000e-07	-4.102429e-06	-3.560568e-09	-3.043685e+01	-2.403826e+02
7.800000e-07	-4.074931e-06	-3.574235e-09	-3.023284e+01	-2.397461e+02
7.900000e-07	-4.047206e-06	-3.594954e-09	-3.002714e+01	-2.391041e+02
8.000000e-07	-4.019285e-06	-3.566938e-09	-2.981999e+01	-2.384580e+02
8.100000e-07	-3.991179e-06	-3.517124e-09	-2.961146e+01	-2.378086e+02
8.200000e-07	-3.962886e-06	-3.514176e-09	-2.940155e+01	-2.371569e+02
8.300000e-07	-3.934352e-06	-3.541202e-09	-2.918985e+01	-2.365037e+02
8.400000e-07	-3.905509e-06	-3.525928e-09	-2.897585e+01	-2.358498e+02
8.500000e-07	-3.876316e-06	-3.475655e-09	-2.875927e+01	-2.351957e+02
8.600000e-07	-3.846903e-06	-3.472109e-09	-2.854105e+01	-2.345419e+02
8.700000e-07	-3.817287e-06	-3.503102e-09	-2.832132e+01	-2.338889e+02
8.800000e-07	-3.787458e-06	-3.496761e-09	-2.810001e+01	-2.332367e+02
8.900000e-07	-3.757463e-06	-3.452246e-09	-2.787747e+01	-2.325855e+02
9.000000e-07	-3.727195e-06	-3.437818e-09	-2.765290e+01	-2.319353e+02
9.100000e-07	-3.696586e-06	-3.448965e-09	-2.742581e+01	-2.312857e+02
9.200000e-07	-3.665712e-06	-3.449663e-09	-2.719675e+01	-2.306365e+02
9.300000e-07	-3.634575e-06	-3.423507e-09	-2.696574e+01	-2.299872e+02
9.400000e-07	-3.603155e-06	-3.398479e-09	-2.673262e+01	-2.293371e+02
9.500000e-07	-3.571556e-06	-3.393886e-09	-2.649818e+01	-2.286855e+02
9.600000e-07	-3.539785e-06	-3.404552e-09	-2.626247e+01	-2.280314e+02
9.700000e-07	-3.507830e-06	-3.393556e-09	-2.602539e+01	-2.273739e+02
9.800000e-07	-3.475772e-06	-3.361023e-09	-2.578754e+01	-2.267119e+02
9.900000e-07	-3.443585e-06	-3.343444e-09	-2.554874e+01	-2.260441e+02
1.000000e-06	-3.411087e-06	-3.353077e-09	-2.530763e+01	-2.253693e+02
1.010000e-06	-3.378298e-06	-3.347587e-09	-2.506436e+01	-2.246862e+02
1.020000e-06	-3.345236e-06	-3.316611e-09	-2.481906e+01	-2.239932e+02
1.030000e-06	-3.311731e-06	-3.290730e-09	-2.457048e+01	-2.232890e+02
1.040000e-06	-3.277771e-06	-3.288960e-09	-2.431853e+01	-2.225721e+02
1.050000e-06	-3.243402e-06	-3.287685e-09	-2.406353e+01	-2.218409e+02
1.060000e-06	-3.208647e-06	-3.266144e-09	-2.380568e+01	-2.210940e+02
1.070000e-06	-3.173552e-06	-3.240868e-09	-2.354530e+01	-2.203300e+02
1.080000e-06	-3.138218e-06	-3.233193e-09	-2.328315e+01	-2.195473e+02
1.090000e-06	-3.102691e-06	-3.234641e-09	-2.301957e+01	-2.187447e+02
1.100000e-06	-3.066989e-06	-3.221935e-09	-2.275469e+01	-2.179208e+02
1.110000e-06	-3.031205e-06	-3.198666e-09	-2.248920e+01	-2.170744e+02
1.120000e-06	-2.995302e-06	-3.179134e-09	-2.222282e+01	-2.162044e+02
1.130000e-06	-2.959259e-06	-3.167532e-09	-2.195542e+01	-2.153097e+02
1.140000e-06	-2.923090e-06	-3.156144e-09	-2.168707e+01	-2.143894e+02
1.150000e-06	-2.886771e-06	-3.140573e-09	-2.141761e+01	-2.134427e+02
1.160000e-06	-2.850290e-06	-3.119190e-09	-2.114695e+01	-2.124690e+02
1.170000e-06	-2.813514e-06	-3.103731e-09	-2.087410e+01	-2.114678e+02
1.180000e-06	-2.776460e-06	-3.097357e-09	-2.059919e+01	-2.104386e+02
1.190000e-06	-2.739207e-06	-3.087918e-09	-2.032280e+01	-2.093813e+02
1.200000e-06	-2.701746e-06	-3.066266e-09	-2.004487e+01	-2.082957e+02
1.210000e-06	-2.664108e-06	-3.046329e-09	-1.976563e+01	-2.071819e+02
1.220000e-06	-2.626307e-06	-3.033034e-09	-1.948516e+01	-2.060402e+02
1.230000e-06	-2.588362e-06	-3.017422e-09	-1.920365e+01	-2.048707e+02
1.240000e-06	-2.550294e-06	-2.992765e-09	-1.892121e+01	-2.036741e+02
1.250000e-06	-2.512030e-06	-2.967289e-09	-1.863732e+01	-2.024507e+02
1.260000e-06	-2.473501e-06	-2.949493e-09	-1.835147e+01	-2.012014e+02
1.270000e-06	-2.434720e-06	-2.935099e-09	-1.806374e+01	-1.999268e+02
1.280000e-06	-2.395787e-06	-2.917751e-09	-1.777489e+01	-1.986279e+02
1.290000e-06	-2.356754e-06	-2.895261e-09	-1.748529e+01	-1.973053e+02
1.300000e-06	-2.317582e-06	-2.872106e-09	-1.719466e+01	-1.959603e+02
1.310000e-06	-2.278210e-06	-2.853554e-09	-1.690256e+01	-1.945935e+02
1.320000e-06	-2.238678e-06	-2.837789e-09	-1.660926e+01	-1.932061e+02
1.330000e-06	-2.199083e-06	-2.816745e-09	-1.631550e+01	-1.917989e+02
1.340000e-06	-2.159365e-06	-2.790203e-09	-1.602082e+01	-1.903729e+02
1.350000e-06	-2.119570e-06	-2.768062e-09	-1.572557e+01	-1.889289e+02
1.360000e-06	-2.079723e-06	-2.748922e-09	-1.542994e+01	-1.874676e+02
1.370000e-06	-2.039798e-06	-2.724776e-09	-1.513372e+01	-1.859898e+02
1.380000e-06	-1.999823e-06	-2.696972e-09	-1.483714e+01	-1.844958e+02
1.390000e-06	-1.959764e-06	-2.673712e-09	-1.453993e+01	-1.829861e+02
1.400000e-06	-1.919547e-06	-2.653121e-09	-1.424155e+01	-1.814610e+02
1.410000e-06	-1.879203e-06	-2.631046e-09	-1.394223e+01	-1.799204e+02
1.420000e-06	-1.838678e-06	-2.607408e-09	-1.364157e+01	-1.783642e+02
1.430000e-06	-1.797837e-06	-2.583750e-09	-1.333856e+01	-1.767920e+02
1.440000e-06	-1.756800e-06	-2.559047e-09	-1.303410e+01	-1.752033e+02
1.450000e-06	-1.715701e-06	-2.533331e-09	-1.272917e+01	-1.735972e+02
1.460000e-06	-1.674480e-06	-2.507166e-09	-1.242335e+01	-1.719725e+02
1.470000e-06	-1.633067e-06	-2.480925e-09	-1.211609e+01	-1.703280e+02
1.480000e-06	-1.591444e-06	-2.455638e-09	-1.180728e+01	-1.686622e+02
1.490000e-06	-1.549500e-06	-2.432276e-09	-1.149609e+01	-1.669730e+02
1.500000e-06	-1.507260e-06	-2.408233e-09	-1.118270e+01	-1.652586e+02
1.510000e-06	-1.464849e-06	-2.378716e-09	-1.086805e+01	-1.635164e+02
1.520000e-06	-1.422300e-06	-2.345632e-09	-1.055237e+01	-1.617438e+02
1.530000e-06	-1.379689e-06	-2.314816e-09	-1.023623e+01	-1.599382e+02
1.540000e-06	-1.337050e-06	-2.288139e-09	-9.919880e+00	-1.580964e+02
1.550000e-06	-1.294253e-06	-2.259538e-09	-9.602355e+00	-1.562151e+02
1.560000e-06	-1.251242e-06	-2.228998e-09	-9.283250e+00	-1.542909e+02
1.570000e-06	-1.208095e-06	-2.197565e-09	-8.963133e+00	-1.523203e+02
1.580000e-06	-1.164820e-06	-2.164328e-09	-8.642067e+00	-1.502993e+02
1.590000e-06	-1.121442e-06	-2.129540e-09	-8.320230e+00	-1.482243e+02
1.600000e-06	-1.077985e-06	-2.096106e-09	-7.997819e+00	-1.460911e+02
1.610000e-06	-1.034449e-06	-2.063033e-09	-7.674810e+00	-1.438958e+02
1.620000e-06	-9.908756e-07	-2.030143e-09	-7.351531e+00	-1.416342e+02
1.630000e-06	-9.472559e-07	-1.997388e-09	-7.027906e+00	-1.393024e+02
1.640000e-06	-9.035886e-07	-1.959038e-09	-6.703929e+00	-1.368964e+02
1.650000e-06	-8.598941e-07	-1.917498e-09	-6.379750e+00	-1.344120e+02
1.660000e-06	-8.161758e-07	-1.878142e-09	-6.055394e+00	-1.318455e+02
1.670000e-06	-7.724461e-07	-1.837796e-09	-5.730953e+00	-1.291932e+02
1.680000e-06	-7.286971e-07	-1.794041e-09	-5.406369e+00	-1.264516e+02
1.690000e-06	-6.849202e-07	-1.750073e-09	-5.081578e+00	-1.236171e+02
1.700000e-06	-6.410797e-07	-1.708991e-09	-4.756316e+00	-1.206869e+02
1.710000e-06	-5.972066e-07	-1.667738e-09	-4.430811e+00	-1.176579e+02
1.720000e-06	-5.533214e-07	-1.623214e-09	-4.105217e+00	-1.145278e+02
1.730000e-06	-5.094170e-07	-1.577134e-09	-3.779481e+00	-1.112943e+02
1.740000e-06	-4.655330e-07	-1.530647e-09	-3.453895e+00	-1.079555e+02
1.750000e-06	-4.216703e-07	-1.483479e-09	-3.128468e+00	-1.045101e+02
1.760000e-06	-3.777953e-07	-1.431071e-09	-2.802949e+00	-1.009570e+02
1.770000e-06	-3.338760e-07	-1.376653e-09	-2.477102e+00	-9.729556e+01
1.780000e-06	-2.899553e-07	-1.321794e-09	-2.151244e+00	-9.352566e+01
1.790000e-06	-2.460639e-07	-1.264853e-09	-1.825604e+00	-8.964760e+01
1.800000e-06	-2.021735e-07	-1.206166e-09	-1.499971e+00	-8.566215e+01
1.810000e-06	-1.582368e-07	-1.147645e-09	-1.173994e+00	-8.157060e+01
1.820000e-06	-1.142215e-07	-1.087406e-09	-8.474350e-01	-7.737467e+01
1.830000e-06	-7.019562e-08	-1.022749e-09	-5.207972e-01	-7.307662e+01
1.840000e-06	-2.620465e-08	-9.560064e-10	-1.944182e-01	-6.867916e+01
1.850000e-06	1.776830e-08	-8.874837e-10	1.318271e-01	-6.418550e+01
1.860000e-06	6.173815e-08	-8.202246e-10	4.580494e-01	-5.959931e+01
1.870000e-06	1.057077e-07	-7.528744e-10	7.842697e-01	-5.492473e+01
1.880000e-06	1.496875e-07	-6.837632e-10	1.110565e+00	-5.016632e+01
1.890000e-06	1.936713e-07	-6.111168e-10	1.436891e+00	-4.532909e+01
1.900000e-06	2.376294e-07	-5.350102e-10	1.763027e+00	-4.041841e+01
1.910000e-06	2.815497e-07	-4.578171e-10	2.088881e+00	-3.544006e+01
1.920000e-06	3.254816e-07	-3.792939e-10	2.414822e+00	-3.040014e+01
1.930000e-06	3.694586e-07	-2.979182e-10	2.741097e+00	-2.530508e+01
1.940000e-06	4.134129e-07	-2.146177e-10	3.067204e+00	-2.016156e+01
1.950000e-06	4.572890e-07	-1.325293e-10	3.392731e+00	-1.497654e+01
1.960000e-06	5.011253e-07	-5.394524e-11	3.717962e+00	-9.757175e+00
1.970000e-06	5.449740e-07	2.370628e-11	4.043286e+00	-4.510772e+00
1.980000e-06	5.888558e-07	1.026100e-10	4.368855e+00	7.552156e-01
1.990000e-06	6.326896e-07	1.835940e-10	4.694068e+00	6.033252e+00
2.000000e-06	6.764576e-07	2.660456e-10	5.018792e+00	1.131575e+01
2.010000e-06	7.202388e-07	3.498330e-10	5.343615e+00	1.659513e+01
2.020000e-06	7.640266e-07	4.338601e-10	5.668487e+00	2.186383e+01
2.030000e-06	8.077850e-07	5.164201e-10	5.993140e+00	2.711438e+01
2.040000e-06	8.515180e-07	5.992426e-10	6.317605e+00	3.233941e+01
2.050000e-06	8.952117e-07	6.800210e-10	6.641779e+00	3.753170e+01
2.060000e-06	9.388459e-07	7.567347e-10	6.965511e+00	4.268426e+01
2.070000e-06	9.823979e-07	8.333605e-10	7.288633e+00	4.779027e+01
2.080000e-06	1.025867e-06	9.112206e-10	7.611140e+00	5.284322e+01
2.090000e-06	1.069273e-06	9.886415e-10	7.933179e+00	5.783686e+01
2.100000e-06	1.112636e-06	1.063213e-09	8.254899e+00	6.276528e+01
2.110000e-06	1.155951e-06	1.136715e-09	8.576260e+00	6.762290e+01
2.120000e-06	1.199092e-06	1.211246e-09	8.896338e+00	7.240452e+01
2.130000e-06	1.242049e-06	1.283758e-09	9.215047e+00	7.710534e+01
2.140000e-06	1.284951e-06	1.353204e-09	9.533346e+00	8.172095e+01
2.150000e-06	1.327896e-06	1.420989e-09	9.851962e+00	8.624737e+01
2.160000e-06	1.370732e-06	1.485979e-09	1.016977e+01	9.068105e+01
2.170000e-06	1.413303e-06	1.548366e-09	1.048562e+01	9.501891e+01
2.180000e-06	1.455619e-06	1.610041e-09	1.079957e+01	9.925827e+01
2.190000e-06	1.497760e-06	1.668327e-09	1.111222e+01	1.033969e+02
2.200000e-06	1.539823e-06	1.722503e-09	1.142430e+01	1.074331e+02
2.210000e-06	1.581709e-06	1.775678e-09	1.173506e+01	1.113656e+02
2.220000e-06	1.623352e-06	1.829304e-09	1.204402e+01	1.151933e+02
2.230000e-06	1.664670e-06	1.881871e-09	1.235056e+01	1.189159e+02
2.240000e-06	1.705694e-06	1.932648e-09	1.265493e+01	1.225334e+02
2.250000e-06	1.746577e-06	1.980927e-09	1.295825e+01	1.260460e+02
2.260000e-06	1.787309e-06	2.027126e-09	1.326045e+01	1.294544e+02
2.270000e-06	1.827890e-06	2.070103e-09	1.356153e+01	1.327598e+02
2.280000e-06	1.868332e-06	2.109631e-09	1.386158e+01	1.359636e+02
2.290000e-06	1.908635e-06	2.149943e-09	1.416060e+01	1.390674e+02
2.300000e-06	1.948779e-06	2.190411e-09	1.445844e+01	1.420732e+02
2.310000e-06	1.988798e-06	2.228384e-09	1.475534e+01	1.449833e+02
2.320000e-06	2.028727e-06	2.265007e-09	1.505158e+01	1.478001e+02
2.330000e-06	2.068575e-06	2.301364e-09	1.534723e+01	1.505265e+02
2.340000e-06	2.108416e-06	2.339130e-09	1.564282e+01	1.531651e+02
2.350000e-06	2.148259e-06	2.378832e-09	1.593842e+01	1.557189e+02
2.360000e-06	2.187988e-06	2.414510e-09	1.623318e+01	1.581912e+02
2.370000e-06	2.227585e-06	2.444025e-09	1.652696e+01	1.605851e+02
2.380000e-06	2.267107e-06	2.476408e-09	1.682018e+01	1.629039e+02
2.390000e-06	2.306426e-06	2.511882e-09	1.711190e+01	1.651507e+02
2.400000e-06	2.345477e-06	2.543799e-09	1.740163e+01	1.673291e+02
2.410000e-06	2.384342e-06	2.573490e-09	1.768998e+01	1.694421e+02
2.420000e-06	2.423033e-06	2.603847e-09	1.797703e+01	1.714931e+02
2.430000e-06	2.461610e-06	2.633862e-09	1.826324e+01	1.734853e+02
2.440000e-06	2.499999e-06	2.663201e-09	1.854806e+01	1.754217e+02
2.450000e-06	2.538165e-06	2.689242e-09	1.883122e+01	1.773053e+02
2.460000e-06	2.576215e-06	2.713035e-09	1.911353e+01	1.791391e+02
2.470000e-06	2.614091e-06	2.738836e-09	1.939453e+01	1.809257e+02
2.480000e-06	2.651738e-06	2.765902e-09	1.967385e+01	1.826679e+02
2.490000e-06	2.689238e-06	2.790744e-09	1.995207e+01	1.843680e+02
2.500000e-06	2.726569e-06	2.815432e-09	2.022904e+01	1.860285e+02
2.510000e-06	2.763694e-06	2.842650e-09	2.050447e+01	1.876513e+02
2.520000e-06	2.800647e-06	2.868754e-09	2.077864e+01	1.892386e+02
2.530000e-06	2.837391e-06	2.891955e-09	2.105125e+01	1.907921e+02
2.540000e-06	2.873948e-06	2.913911e-09	2.132247e+01	1.923134e+02
2.550000e-06	2.910325e-06	2.935553e-09	2.159236e+01	1.938040e+02
2.560000e-06	2.946494e-06	2.956584e-09	2.186071e+01	1.952652e+02
2.570000e-06	2.982511e-06	2.977322e-09	2.212793e+01	1.966982e+02
2.580000e-06	3.018448e-06	2.997420e-09	2.239455e+01	1.981040e+02
2.590000e-06	3.054253e-06	3.018001e-09	2.266020e+01	1.994833e+02
2.600000e-06	3.089927e-06	3.039272e-09	2.292487e+01	2.008370e+02
2.610000e-06	3.125518e-06	3.058938e-09	2.318893e+01	2.021655e+02
2.620000e-06	3.160905e-06	3.076472e-09	2.345147e+01	2.034693e+02
2.630000e-06	3.196016e-06	3.095036e-09	2.371197e+01	2.047489e+02
2.640000e-06	3.230807e-06	3.115014e-09	2.397009e+01	2.060044e+02
2.650000e-06	3.265195e-06	3.134364e-09	2.422522e+01	2.072360e+02
2.660000e-06	3.299152e-06	3.151851e-09	2.447716e+01	2.084440e+02
2.670000e-06	3.332667e-06	3.168052e-09	2.472581e+01	2.096282e+02
2.680000e-06	3.365809e-06	3.184452e-09	2.497170e+01	2.107888e+02
2.690000e-06	3.398587e-06	3.202082e-09	2.521489e+01	2.119256e+02
2.700000e-06	3.431013e-06	3.218832e-09	2.545547e+01	2.130388e+02
2.710000e-06	3.463225e-06	3.234368e-09	2.569445e+01	2.141281e+02
2.720000e-06	3.495300e-06	3.249588e-09	2.593243e+01	2.151937e+02
2.730000e-06	3.527254e-06	3.266130e-09	2.616950e+01	2.162353e+02
2.740000e-06	3.559059e-06	3.282496e-09	2.640547e+01	2.172530e+02
2.750000e-06	3.590704e-06	3.296595e-09	2.664025e+01	2.182469e+02
2.760000e-06	3.622186e-06	3.308754e-09	2.687382e+01	2.192168e+02
2.770000e-06	3.653503e-06	3.321038e-09	2.710617e+01	2.201630e+02
2.780000e-06	3.684548e-06	3.334238e-09	2.733650e+01	2.210855e+02
2.790000e-06	3.715228e-06	3.346717e-09	2.756412e+01	2.219844e+02
2.800000e-06	3.745622e-06	3.360017e-09	2.778962e+01	2.228601e+02
2.810000e-06	3.775728e-06	3.374929e-09	2.801299e+01	2.237127e+02
2.820000e-06	3.805536e-06	3.389056e-09	2.823414e+01	2.245427e+02
2.830000e-06	3.835109e-06	3.400373e-09	2.845355e+01	2.253502e+02
2.840000e-06	3.864445e-06	3.414650e-09	2.867119e+01	2.261359e+02
2.850000e-06	3.893480e-06	3.430715e-09	2.888661e+01	2.269001e+02
2.860000e-06	3.922215e-06	3.443183e-09	2.909980e+01	2.276433e+02
2.870000e-06	3.950794e-06	3.454268e-09	2.931184e+01	2.283662e+02
2.880000e-06	3.979226e-06	3.467222e-09	2.952278e+01	2.290694e+02
2.890000e-06	4.007387e-06	3.478389e-09	2.973171e+01	2.297534e+02
2.900000e-06	4.035327e-06	3.487414e-09	2.993901e+01	2.304189e+02
