# Temperatura_=_20.0
# Concentracion g/m^3_=_9000.0
# C_Vs_to_Am_M_A/Vsm_=_65563218390.804596
# pendiente_HvsI_1/m_=_3716.3
# ordenada_HvsI_A/m_=_1297.0
# frecuencia_Hz_=_135187.69415976814

Tiempo_(s)	Campo_(V.s)	Magnetizacion_(V.s)	Campo_(kA/m)	Magnetizacion_(A/m)
0.000000e+00	-5.220924e-06	-3.978963e-09	-3.842125e+01	-2.594581e+02
1.000000e-08	-5.221096e-06	-3.979602e-09	-3.842252e+01	-2.594682e+02
2.000000e-08	-5.221096e-06	-3.981666e-09	-3.842252e+01	-2.594693e+02
3.000000e-08	-5.220921e-06	-3.981098e-09	-3.842123e+01	-2.594607e+02
4.000000e-08	-5.220452e-06	-3.981679e-09	-3.841778e+01	-2.594421e+02
5.000000e-08	-5.219473e-06	-3.981965e-09	-3.841057e+01	-2.594130e+02
6.000000e-08	-5.217923e-06	-3.979583e-09	-3.839917e+01	-2.593731e+02
7.000000e-08	-5.215796e-06	-3.967648e-09	-3.838351e+01	-2.593221e+02
8.000000e-08	-5.213063e-06	-3.962022e-09	-3.836340e+01	-2.592597e+02
9.000000e-08	-5.209795e-06	-3.995506e-09	-3.833935e+01	-2.591858e+02
1.000000e-07	-5.206025e-06	-4.026058e-09	-3.831161e+01	-2.591003e+02
1.100000e-07	-5.201914e-06	-3.982151e-09	-3.828136e+01	-2.590032e+02
1.200000e-07	-5.197595e-06	-3.924646e-09	-3.824957e+01	-2.588946e+02
1.300000e-07	-5.193014e-06	-3.938336e-09	-3.821585e+01	-2.587747e+02
1.400000e-07	-5.188203e-06	-4.018336e-09	-3.818045e+01	-2.586437e+02
1.500000e-07	-5.183043e-06	-4.031956e-09	-3.814248e+01	-2.585020e+02
1.600000e-07	-5.177426e-06	-3.962950e-09	-3.810115e+01	-2.583499e+02
1.700000e-07	-5.171476e-06	-3.958323e-09	-3.805736e+01	-2.581879e+02
1.800000e-07	-5.165207e-06	-3.992077e-09	-3.801123e+01	-2.580167e+02
1.900000e-07	-5.158549e-06	-4.045515e-09	-3.796222e+01	-2.578368e+02
2.000000e-07	-5.151519e-06	-4.005216e-09	-3.791049e+01	-2.576488e+02
2.100000e-07	-5.144222e-06	-3.964050e-09	-3.785679e+01	-2.574536e+02
2.200000e-07	-5.136654e-06	-3.933141e-09	-3.780110e+01	-2.572519e+02
2.300000e-07	-5.128814e-06	-3.983936e-09	-3.774340e+01	-2.570445e+02
2.400000e-07	-5.120753e-06	-4.001306e-09	-3.768409e+01	-2.568321e+02
2.500000e-07	-5.112372e-06	-3.938422e-09	-3.762241e+01	-2.566157e+02
2.600000e-07	-5.103459e-06	-3.873302e-09	-3.755682e+01	-2.563960e+02
2.700000e-07	-5.093995e-06	-3.923990e-09	-3.748716e+01	-2.561738e+02
2.800000e-07	-5.083936e-06	-3.983856e-09	-3.741314e+01	-2.559500e+02
2.900000e-07	-5.073323e-06	-3.910750e-09	-3.733504e+01	-2.557253e+02
3.000000e-07	-5.062220e-06	-3.825835e-09	-3.725334e+01	-2.555004e+02
3.100000e-07	-5.050634e-06	-3.865688e-09	-3.716807e+01	-2.552760e+02
3.200000e-07	-5.038698e-06	-3.925229e-09	-3.708023e+01	-2.550527e+02
3.300000e-07	-5.026369e-06	-3.860401e-09	-3.698950e+01	-2.548308e+02
3.400000e-07	-5.013673e-06	-3.792829e-09	-3.689607e+01	-2.546110e+02
3.500000e-07	-5.000671e-06	-3.791520e-09	-3.680039e+01	-2.543936e+02
3.600000e-07	-4.987285e-06	-3.818729e-09	-3.670188e+01	-2.541787e+02
3.700000e-07	-4.973545e-06	-3.815628e-09	-3.660076e+01	-2.539666e+02
3.800000e-07	-4.959491e-06	-3.846402e-09	-3.649734e+01	-2.537573e+02
3.900000e-07	-4.944906e-06	-3.780887e-09	-3.639001e+01	-2.535508e+02
4.000000e-07	-4.929736e-06	-3.739250e-09	-3.627837e+01	-2.533467e+02
4.100000e-07	-4.913982e-06	-3.797767e-09	-3.616243e+01	-2.531450e+02
4.200000e-07	-4.897720e-06	-3.859765e-09	-3.604276e+01	-2.529451e+02
4.300000e-07	-4.881094e-06	-3.768117e-09	-3.592041e+01	-2.527467e+02
4.400000e-07	-4.864129e-06	-3.742565e-09	-3.579557e+01	-2.525491e+02
4.500000e-07	-4.846947e-06	-3.843293e-09	-3.566912e+01	-2.523516e+02
4.600000e-07	-4.829514e-06	-3.874043e-09	-3.554083e+01	-2.521535e+02
4.700000e-07	-4.811715e-06	-3.778396e-09	-3.540985e+01	-2.519539e+02
4.800000e-07	-4.793617e-06	-3.777218e-09	-3.527666e+01	-2.517518e+02
4.900000e-07	-4.775249e-06	-3.844155e-09	-3.514149e+01	-2.515464e+02
5.000000e-07	-4.756477e-06	-3.822763e-09	-3.500334e+01	-2.513366e+02
5.100000e-07	-4.737305e-06	-3.766435e-09	-3.486225e+01	-2.511213e+02
5.200000e-07	-4.717815e-06	-3.784548e-09	-3.471883e+01	-2.508994e+02
5.300000e-07	-4.698070e-06	-3.793697e-09	-3.457352e+01	-2.506698e+02
5.400000e-07	-4.678141e-06	-3.757168e-09	-3.442686e+01	-2.504314e+02
5.500000e-07	-4.658052e-06	-3.772314e-09	-3.427902e+01	-2.501831e+02
5.600000e-07	-4.637693e-06	-3.797002e-09	-3.412920e+01	-2.499238e+02
5.700000e-07	-4.616980e-06	-3.754484e-09	-3.397677e+01	-2.496525e+02
5.800000e-07	-4.595929e-06	-3.728228e-09	-3.382186e+01	-2.493683e+02
5.900000e-07	-4.574532e-06	-3.779173e-09	-3.366439e+01	-2.490701e+02
6.000000e-07	-4.552844e-06	-3.770477e-09	-3.350479e+01	-2.487572e+02
6.100000e-07	-4.530873e-06	-3.706691e-09	-3.334310e+01	-2.484288e+02
6.200000e-07	-4.508652e-06	-3.706418e-09	-3.317958e+01	-2.480842e+02
6.300000e-07	-4.486108e-06	-3.749283e-09	-3.301367e+01	-2.477229e+02
6.400000e-07	-4.463124e-06	-3.711631e-09	-3.284453e+01	-2.473443e+02
6.500000e-07	-4.439809e-06	-3.680717e-09	-3.267295e+01	-2.469482e+02
6.600000e-07	-4.416204e-06	-3.708448e-09	-3.249925e+01	-2.465342e+02
6.700000e-07	-4.392379e-06	-3.720838e-09	-3.232391e+01	-2.461024e+02
6.800000e-07	-4.368462e-06	-3.683687e-09	-3.214790e+01	-2.456527e+02
6.900000e-07	-4.344370e-06	-3.682169e-09	-3.197061e+01	-2.451852e+02
7.000000e-07	-4.319955e-06	-3.688122e-09	-3.179094e+01	-2.447001e+02
7.100000e-07	-4.295227e-06	-3.669867e-09	-3.160896e+01	-2.441979e+02
7.200000e-07	-4.270132e-06	-3.651789e-09	-3.142428e+01	-2.436791e+02
7.300000e-07	-4.244537e-06	-3.656186e-09	-3.123593e+01	-2.431441e+02
7.400000e-07	-4.218410e-06	-3.642368e-09	-3.104366e+01	-2.425936e+02
7.500000e-07	-4.191713e-06	-3.627943e-09	-3.084719e+01	-2.420285e+02
7.600000e-07	-4.164505e-06	-3.632133e-09	-3.064697e+01	-2.414495e+02
7.700000e-07	-4.137021e-06	-3.635578e-09	-3.044471e+01	-2.408576e+02
7.800000e-07	-4.109324e-06	-3.615078e-09	-3.024089e+01	-2.402536e+02
7.900000e-07	-4.081429e-06	-3.598466e-09	-3.003561e+01	-2.396385e+02
8.000000e-07	-4.053404e-06	-3.606606e-09	-2.982937e+01	-2.390134e+02
8.100000e-07	-4.025232e-06	-3.603752e-09	-2.962204e+01	-2.383793e+02
8.200000e-07	-3.996830e-06	-3.572158e-09	-2.941303e+01	-2.377372e+02
8.300000e-07	-3.968003e-06	-3.551929e-09	-2.920089e+01	-2.370880e+02
8.400000e-07	-3.938809e-06	-3.560229e-09	-2.898605e+01	-2.364327e+02
8.500000e-07	-3.909437e-06	-3.553880e-09	-2.876990e+01	-2.357722e+02
8.600000e-07	-3.879855e-06	-3.534630e-09	-2.855220e+01	-2.351073e+02
8.700000e-07	-3.849993e-06	-3.527374e-09	-2.833244e+01	-2.344388e+02
8.800000e-07	-3.819891e-06	-3.529955e-09	-2.811092e+01	-2.337674e+02
8.900000e-07	-3.789583e-06	-3.519457e-09	-2.788788e+01	-2.330936e+02
9.000000e-07	-3.758974e-06	-3.510506e-09	-2.766263e+01	-2.324179e+02
9.100000e-07	-3.728106e-06	-3.499292e-09	-2.743547e+01	-2.317405e+02
9.200000e-07	-3.697027e-06	-3.484226e-09	-2.720675e+01	-2.310618e+02
9.300000e-07	-3.665685e-06	-3.468802e-09	-2.697610e+01	-2.303818e+02
9.400000e-07	-3.634094e-06	-3.464542e-09	-2.674362e+01	-2.297005e+02
9.500000e-07	-3.602311e-06	-3.453426e-09	-2.650973e+01	-2.290175e+02
9.600000e-07	-3.570399e-06	-3.435394e-09	-2.627489e+01	-2.283327e+02
9.700000e-07	-3.538324e-06	-3.421700e-09	-2.603884e+01	-2.276454e+02
9.800000e-07	-3.506086e-06	-3.420478e-09	-2.580160e+01	-2.269551e+02
9.900000e-07	-3.473600e-06	-3.411820e-09	-2.556254e+01	-2.262610e+02
1.000000e-06	-3.440687e-06	-3.394226e-09	-2.532033e+01	-2.255623e+02
1.010000e-06	-3.407467e-06	-3.377713e-09	-2.507585e+01	-2.248579e+02
1.020000e-06	-3.373988e-06	-3.368706e-09	-2.482948e+01	-2.241468e+02
1.030000e-06	-3.340115e-06	-3.356441e-09	-2.458020e+01	-2.234277e+02
1.040000e-06	-3.305790e-06	-3.339749e-09	-2.432761e+01	-2.226994e+02
1.050000e-06	-3.271049e-06	-3.324427e-09	-2.407194e+01	-2.219604e+02
1.060000e-06	-3.235999e-06	-3.311607e-09	-2.381401e+01	-2.212094e+02
1.070000e-06	-3.200678e-06	-3.299224e-09	-2.355408e+01	-2.204449e+02
1.080000e-06	-3.165078e-06	-3.286722e-09	-2.329210e+01	-2.196655e+02
1.090000e-06	-3.129276e-06	-3.275433e-09	-2.302863e+01	-2.188696e+02
1.100000e-06	-3.093394e-06	-3.261077e-09	-2.276456e+01	-2.180558e+02
1.110000e-06	-3.057451e-06	-3.247126e-09	-2.250006e+01	-2.172226e+02
1.120000e-06	-3.021385e-06	-3.235270e-09	-2.223465e+01	-2.163685e+02
1.130000e-06	-2.985104e-06	-3.220862e-09	-2.196765e+01	-2.154923e+02
1.140000e-06	-2.948610e-06	-3.200322e-09	-2.169909e+01	-2.145926e+02
1.150000e-06	-2.911921e-06	-3.182974e-09	-2.142909e+01	-2.136683e+02
1.160000e-06	-2.875104e-06	-3.168960e-09	-2.115815e+01	-2.127182e+02
1.170000e-06	-2.838101e-06	-3.154596e-09	-2.088584e+01	-2.117413e+02
1.180000e-06	-2.800812e-06	-3.137598e-09	-2.061143e+01	-2.107369e+02
1.190000e-06	-2.763324e-06	-3.124773e-09	-2.033555e+01	-2.097041e+02
1.200000e-06	-2.725659e-06	-3.114075e-09	-2.005837e+01	-2.086424e+02
1.210000e-06	-2.687804e-06	-3.098280e-09	-1.977979e+01	-2.075513e+02
1.220000e-06	-2.649755e-06	-3.078205e-09	-1.949978e+01	-2.064305e+02
1.230000e-06	-2.611510e-06	-3.060779e-09	-1.921834e+01	-2.052799e+02
1.240000e-06	-2.573096e-06	-3.041318e-09	-1.893564e+01	-2.040995e+02
1.250000e-06	-2.534494e-06	-3.020787e-09	-1.865157e+01	-2.028894e+02
1.260000e-06	-2.495672e-06	-3.000957e-09	-1.836588e+01	-2.016498e+02
1.270000e-06	-2.456698e-06	-2.983383e-09	-1.807906e+01	-2.003812e+02
1.280000e-06	-2.417525e-06	-2.962728e-09	-1.779078e+01	-1.990841e+02
1.290000e-06	-2.378115e-06	-2.942860e-09	-1.750076e+01	-1.977592e+02
1.300000e-06	-2.338532e-06	-2.921945e-09	-1.720946e+01	-1.964071e+02
1.310000e-06	-2.298862e-06	-2.898473e-09	-1.691753e+01	-1.950286e+02
1.320000e-06	-2.259124e-06	-2.875195e-09	-1.662509e+01	-1.936247e+02
1.330000e-06	-2.219259e-06	-2.854190e-09	-1.633173e+01	-1.921961e+02
1.340000e-06	-2.179312e-06	-2.833767e-09	-1.603776e+01	-1.907439e+02
1.350000e-06	-2.139378e-06	-2.812369e-09	-1.574387e+01	-1.892689e+02
1.360000e-06	-2.099372e-06	-2.791126e-09	-1.544947e+01	-1.877721e+02
1.370000e-06	-2.059156e-06	-2.769685e-09	-1.515351e+01	-1.862542e+02
1.380000e-06	-2.018837e-06	-2.746528e-09	-1.485681e+01	-1.847160e+02
1.390000e-06	-1.978357e-06	-2.723304e-09	-1.455891e+01	-1.831582e+02
1.400000e-06	-1.937651e-06	-2.700733e-09	-1.425935e+01	-1.815813e+02
1.410000e-06	-1.896832e-06	-2.676443e-09	-1.395896e+01	-1.799858e+02
1.420000e-06	-1.855953e-06	-2.651737e-09	-1.365812e+01	-1.783718e+02
1.430000e-06	-1.814972e-06	-2.627266e-09	-1.335654e+01	-1.767395e+02
1.440000e-06	-1.773677e-06	-2.603636e-09	-1.305265e+01	-1.750888e+02
1.450000e-06	-1.732069e-06	-2.578016e-09	-1.274645e+01	-1.734191e+02
1.460000e-06	-1.690331e-06	-2.551920e-09	-1.243930e+01	-1.717301e+02
1.470000e-06	-1.648344e-06	-2.526559e-09	-1.213031e+01	-1.700207e+02
1.480000e-06	-1.606100e-06	-2.501455e-09	-1.181943e+01	-1.682899e+02
1.490000e-06	-1.563739e-06	-2.475576e-09	-1.150770e+01	-1.665364e+02
1.500000e-06	-1.521152e-06	-2.450076e-09	-1.119429e+01	-1.647584e+02
1.510000e-06	-1.478355e-06	-2.423144e-09	-1.087935e+01	-1.629541e+02
1.520000e-06	-1.435371e-06	-2.393694e-09	-1.056302e+01	-1.611213e+02
1.530000e-06	-1.392215e-06	-2.362181e-09	-1.024543e+01	-1.592575e+02
1.540000e-06	-1.348942e-06	-2.334555e-09	-9.926984e+00	-1.573600e+02
1.550000e-06	-1.305638e-06	-2.307172e-09	-9.608308e+00	-1.554257e+02
1.560000e-06	-1.262300e-06	-2.276008e-09	-9.289378e+00	-1.534516e+02
1.570000e-06	-1.218770e-06	-2.241845e-09	-8.969038e+00	-1.514340e+02
1.580000e-06	-1.175121e-06	-2.206786e-09	-8.647823e+00	-1.493695e+02
1.590000e-06	-1.131443e-06	-2.171521e-09	-8.326390e+00	-1.472542e+02
1.600000e-06	-1.087736e-06	-2.138690e-09	-8.004746e+00	-1.450841e+02
1.610000e-06	-1.044004e-06	-2.105171e-09	-7.682916e+00	-1.428551e+02
1.620000e-06	-1.000193e-06	-2.070664e-09	-7.360509e+00	-1.405630e+02
1.630000e-06	-9.563193e-07	-2.036099e-09	-7.037640e+00	-1.382035e+02
1.640000e-06	-9.124353e-07	-1.998273e-09	-6.714693e+00	-1.357725e+02
1.650000e-06	-8.685324e-07	-1.960773e-09	-6.391608e+00	-1.332656e+02
1.660000e-06	-8.245968e-07	-1.920581e-09	-6.068282e+00	-1.306786e+02
1.670000e-06	-7.806670e-07	-1.876583e-09	-5.744999e+00	-1.280074e+02
1.680000e-06	-7.367207e-07	-1.833276e-09	-5.421594e+00	-1.252481e+02
1.690000e-06	-6.927307e-07	-1.791374e-09	-5.097867e+00	-1.223966e+02
1.700000e-06	-6.487018e-07	-1.750372e-09	-4.773855e+00	-1.194495e+02
1.710000e-06	-6.046715e-07	-1.707963e-09	-4.449832e+00	-1.164034e+02
1.720000e-06	-5.606461e-07	-1.664920e-09	-4.125845e+00	-1.132552e+02
1.730000e-06	-5.165967e-07	-1.618894e-09	-3.801682e+00	-1.100020e+02
1.740000e-06	-4.725601e-07	-1.569731e-09	-3.477612e+00	-1.066416e+02
1.750000e-06	-4.285040e-07	-1.518570e-09	-3.153400e+00	-1.031717e+02
1.760000e-06	-3.843853e-07	-1.464194e-09	-2.828726e+00	-9.959096e+01
1.770000e-06	-3.402417e-07	-1.407140e-09	-2.503869e+00	-9.589808e+01
1.780000e-06	-2.960264e-07	-1.351868e-09	-2.178485e+00	-9.209240e+01
1.790000e-06	-2.517581e-07	-1.297057e-09	-1.852710e+00	-8.817372e+01
1.800000e-06	-2.075228e-07	-1.237912e-09	-1.527179e+00	-8.414238e+01
1.810000e-06	-1.633131e-07	-1.177015e-09	-1.201836e+00	-7.999922e+01
1.820000e-06	-1.190737e-07	-1.116928e-09	-8.762743e-01	-7.574563e+01
1.830000e-06	-7.480398e-08	-1.054523e-09	-5.504892e-01	-7.138354e+01
1.840000e-06	-3.054024e-08	-9.869989e-10	-2.247484e-01	-6.691543e+01
1.850000e-06	1.372680e-08	-9.168614e-10	1.010167e-01	-6.234433e+01
1.860000e-06	5.797473e-08	-8.455122e-10	4.266412e-01	-5.767380e+01
1.870000e-06	1.022046e-07	-7.744037e-10	7.521332e-01	-5.290794e+01
1.880000e-06	1.464286e-07	-7.004856e-10	1.077581e+00	-4.805135e+01
1.890000e-06	1.906345e-07	-6.232932e-10	1.402896e+00	-4.310915e+01
1.900000e-06	2.348300e-07	-5.462376e-10	1.728135e+00	-3.808690e+01
1.910000e-06	2.789550e-07	-4.723421e-10	2.052855e+00	-3.299063e+01
1.920000e-06	3.230716e-07	-3.961296e-10	2.377513e+00	-2.782679e+01
1.930000e-06	3.672776e-07	-3.153498e-10	2.702829e+00	-2.260220e+01
1.940000e-06	4.114648e-07	-2.319182e-10	3.028006e+00	-1.732402e+01
1.950000e-06	4.555657e-07	-1.476479e-10	3.352549e+00	-1.199973e+01
1.960000e-06	4.996210e-07	-6.196233e-11	3.676756e+00	-6.637087e+00
1.970000e-06	5.436894e-07	2.260567e-11	4.001059e+00	-1.244038e+00
1.980000e-06	5.877393e-07	1.069804e-10	4.325226e+00	4.171277e+00
1.990000e-06	6.317633e-07	1.916730e-10	4.649203e+00	9.600593e+00
2.000000e-06	6.757798e-07	2.736113e-10	4.973124e+00	1.503557e+01
2.010000e-06	7.198028e-07	3.540881e-10	5.297093e+00	2.046782e+01
2.020000e-06	7.637971e-07	4.364687e-10	5.620852e+00	2.588901e+01
2.030000e-06	8.077367e-07	5.203132e-10	5.944207e+00	3.129083e+01
2.040000e-06	8.516754e-07	6.047230e-10	6.267556e+00	3.666512e+01
2.050000e-06	8.955973e-07	6.882995e-10	6.590781e+00	4.200387e+01
2.060000e-06	9.395085e-07	7.710710e-10	6.913928e+00	4.729927e+01
2.070000e-06	9.833866e-07	8.535932e-10	7.236830e+00	5.254377e+01
2.080000e-06	1.027206e-06	9.351310e-10	7.559299e+00	5.773012e+01
2.090000e-06	1.070970e-06	1.014806e-09	7.881365e+00	6.285139e+01
2.100000e-06	1.114642e-06	1.090523e-09	8.202752e+00	6.790101e+01
2.110000e-06	1.158267e-06	1.164116e-09	8.523791e+00	7.287284e+01
2.120000e-06	1.201902e-06	1.236959e-09	8.844905e+00	7.776114e+01
2.130000e-06	1.245465e-06	1.308534e-09	9.165491e+00	8.256065e+01
2.140000e-06	1.288891e-06	1.379201e-09	9.485062e+00	8.726657e+01
2.150000e-06	1.332167e-06	1.450384e-09	9.803540e+00	9.187461e+01
2.160000e-06	1.375326e-06	1.518401e-09	1.012115e+01	9.638099e+01
2.170000e-06	1.418404e-06	1.583285e-09	1.043816e+01	1.007824e+02
2.180000e-06	1.461359e-06	1.645798e-09	1.075427e+01	1.050762e+02
2.190000e-06	1.504121e-06	1.705687e-09	1.106896e+01	1.092601e+02
2.200000e-06	1.546689e-06	1.762046e-09	1.138223e+01	1.133325e+02
2.210000e-06	1.589045e-06	1.814567e-09	1.169393e+01	1.172921e+02
2.220000e-06	1.631116e-06	1.866822e-09	1.200353e+01	1.211384e+02
2.230000e-06	1.673015e-06	1.919342e-09	1.231187e+01	1.248712e+02
2.240000e-06	1.714748e-06	1.971329e-09	1.261899e+01	1.284908e+02
2.250000e-06	1.756191e-06	2.020057e-09	1.292397e+01	1.319979e+02
2.260000e-06	1.797432e-06	2.062974e-09	1.322746e+01	1.353940e+02
2.270000e-06	1.838475e-06	2.105611e-09	1.352950e+01	1.386804e+02
2.280000e-06	1.879259e-06	2.147744e-09	1.382964e+01	1.418594e+02
2.290000e-06	1.919871e-06	2.188293e-09	1.412850e+01	1.449332e+02
2.300000e-06	1.960281e-06	2.226912e-09	1.442589e+01	1.479044e+02
2.310000e-06	2.000525e-06	2.266599e-09	1.472204e+01	1.507762e+02
2.320000e-06	2.040697e-06	2.306192e-09	1.501767e+01	1.535516e+02
2.330000e-06	2.080801e-06	2.341942e-09	1.531281e+01	1.562342e+02
2.340000e-06	2.120864e-06	2.375310e-09	1.560763e+01	1.588274e+02
2.350000e-06	2.160865e-06	2.411006e-09	1.590200e+01	1.613350e+02
2.360000e-06	2.200750e-06	2.446060e-09	1.619552e+01	1.637609e+02
2.370000e-06	2.240552e-06	2.477507e-09	1.648842e+01	1.661089e+02
2.380000e-06	2.280339e-06	2.508616e-09	1.678122e+01	1.683830e+02
2.390000e-06	2.320025e-06	2.541035e-09	1.707327e+01	1.705871e+02
2.400000e-06	2.359552e-06	2.573340e-09	1.736416e+01	1.727250e+02
2.410000e-06	2.398902e-06	2.604410e-09	1.765373e+01	1.748007e+02
2.420000e-06	2.438010e-06	2.634339e-09	1.794153e+01	1.768178e+02
2.430000e-06	2.476854e-06	2.661113e-09	1.822739e+01	1.787799e+02
2.440000e-06	2.515469e-06	2.688071e-09	1.851156e+01	1.806906e+02
2.450000e-06	2.553923e-06	2.713590e-09	1.879455e+01	1.825531e+02
2.460000e-06	2.592306e-06	2.736600e-09	1.907701e+01	1.843705e+02
2.470000e-06	2.630559e-06	2.761088e-09	1.935852e+01	1.861458e+02
2.480000e-06	2.668592e-06	2.788951e-09	1.963841e+01	1.878816e+02
2.490000e-06	2.706445e-06	2.815347e-09	1.991697e+01	1.895806e+02
2.500000e-06	2.744171e-06	2.839401e-09	2.019460e+01	1.912449e+02
2.510000e-06	2.781708e-06	2.864337e-09	2.047084e+01	1.928766e+02
2.520000e-06	2.818976e-06	2.890256e-09	2.074510e+01	1.944774e+02
2.530000e-06	2.856003e-06	2.914327e-09	2.101758e+01	1.960491e+02
2.540000e-06	2.892769e-06	2.935443e-09	2.128815e+01	1.975928e+02
2.550000e-06	2.929311e-06	2.954678e-09	2.155706e+01	1.991099e+02
2.560000e-06	2.965665e-06	2.976816e-09	2.182460e+01	2.006011e+02
2.570000e-06	3.001868e-06	3.000199e-09	2.209102e+01	2.020672e+02
2.580000e-06	3.037967e-06	3.020422e-09	2.235667e+01	2.035087e+02
2.590000e-06	3.073963e-06	3.039208e-09	2.262157e+01	2.049260e+02
2.600000e-06	3.109877e-06	3.059878e-09	2.288587e+01	2.063194e+02
2.610000e-06	3.145676e-06	3.080760e-09	2.314931e+01	2.076888e+02
2.620000e-06	3.181358e-06	3.098528e-09	2.341190e+01	2.090342e+02
2.630000e-06	3.216885e-06	3.115132e-09	2.367334e+01	2.103555e+02
2.640000e-06	3.252169e-06	3.133587e-09	2.393301e+01	2.116523e+02
2.650000e-06	3.287086e-06	3.152714e-09	2.418996e+01	2.129245e+02
2.660000e-06	3.321517e-06	3.171114e-09	2.444335e+01	2.141715e+02
2.670000e-06	3.355510e-06	3.188101e-09	2.469350e+01	2.153931e+02
2.680000e-06	3.389009e-06	3.205248e-09	2.494002e+01	2.165889e+02
2.690000e-06	3.422060e-06	3.223807e-09	2.518325e+01	2.177584e+02
2.700000e-06	3.454842e-06	3.241676e-09	2.542450e+01	2.189012e+02
2.710000e-06	3.487402e-06	3.257865e-09	2.566411e+01	2.200171e+02
2.720000e-06	3.519724e-06	3.272688e-09	2.590197e+01	2.211057e+02
2.730000e-06	3.551852e-06	3.287755e-09	2.613840e+01	2.221668e+02
2.740000e-06	3.583870e-06	3.303632e-09	2.637402e+01	2.232003e+02
2.750000e-06	3.615766e-06	3.319756e-09	2.660875e+01	2.242061e+02
2.760000e-06	3.647515e-06	3.333694e-09	2.684239e+01	2.251842e+02
2.770000e-06	3.679050e-06	3.346642e-09	2.707446e+01	2.261347e+02
2.780000e-06	3.710292e-06	3.360872e-09	2.730437e+01	2.270579e+02
2.790000e-06	3.741219e-06	3.375580e-09	2.753197e+01	2.279541e+02
2.800000e-06	3.771792e-06	3.387688e-09	2.775696e+01	2.288237e+02
2.810000e-06	3.802071e-06	3.399039e-09	2.797978e+01	2.296671e+02
2.820000e-06	3.832130e-06	3.410785e-09	2.820099e+01	2.304852e+02
2.830000e-06	3.861966e-06	3.422640e-09	2.842056e+01	2.312784e+02
2.840000e-06	3.891618e-06	3.435296e-09	2.863877e+01	2.320477e+02
2.850000e-06	3.921073e-06	3.447635e-09	2.885553e+01	2.327939e+02
2.860000e-06	3.950271e-06	3.459351e-09	2.907040e+01	2.335180e+02
2.870000e-06	3.979154e-06	3.470736e-09	2.928295e+01	2.342210e+02
2.880000e-06	4.007698e-06	3.482712e-09	2.949301e+01	2.349039e+02
2.890000e-06	4.035982e-06	3.491879e-09	2.970116e+01	2.355678e+02
2.900000e-06	4.064128e-06	3.501680e-09	2.990828e+01	2.362138e+02
