# Temperatura_=_20.0
# Concentracion g/m^3_=_9000.0
# C_Vs_to_Am_M_A/Vsm_=_65563218390.804596
# pendiente_HvsI_1/m_=_3716.3
# ordenada_HvsI_A/m_=_1297.0
# frecuencia_Hz_=_135186.7244526451

Tiempo_(s)	Campo_(V.s)	Magnetizacion_(V.s)	Campo_(kA/m)	Magnetizacion_(A/m)
0.000000e+00	-5.195299e-06	-4.044144e-09	-3.842385e+01	-2.586351e+02
1.000000e-08	-5.195317e-06	-4.042482e-09	-3.842398e+01	-2.586683e+02
2.000000e-08	-5.195131e-06	-4.044219e-09	-3.842260e+01	-2.586929e+02
3.000000e-08	-5.194568e-06	-4.048104e-09	-3.841844e+01	-2.587083e+02
4.000000e-08	-5.193541e-06	-4.046297e-09	-3.841084e+01	-2.587140e+02
5.000000e-08	-5.192081e-06	-4.039620e-09	-3.840005e+01	-2.587097e+02
6.000000e-08	-5.190111e-06	-4.024179e-09	-3.838548e+01	-2.586948e+02
7.000000e-08	-5.187475e-06	-4.018342e-09	-3.836598e+01	-2.586689e+02
8.000000e-08	-5.184229e-06	-4.091956e-09	-3.834197e+01	-2.586318e+02
9.000000e-08	-5.180585e-06	-4.155713e-09	-3.831502e+01	-2.585831e+02
1.000000e-07	-5.176540e-06	-3.992258e-09	-3.828510e+01	-2.585226e+02
1.100000e-07	-5.172260e-06	-3.845281e-09	-3.825345e+01	-2.584502e+02
1.200000e-07	-5.167854e-06	-3.975873e-09	-3.822086e+01	-2.583659e+02
1.300000e-07	-5.163131e-06	-4.231436e-09	-3.818593e+01	-2.582695e+02
1.400000e-07	-5.157983e-06	-4.160783e-09	-3.814786e+01	-2.581611e+02
1.500000e-07	-5.152525e-06	-3.845973e-09	-3.810749e+01	-2.580410e+02
1.600000e-07	-5.146776e-06	-3.828034e-09	-3.806498e+01	-2.579092e+02
1.700000e-07	-5.140592e-06	-4.102762e-09	-3.801924e+01	-2.577660e+02
1.800000e-07	-5.133991e-06	-4.254552e-09	-3.797041e+01	-2.576118e+02
1.900000e-07	-5.127164e-06	-4.088920e-09	-3.791992e+01	-2.574470e+02
2.000000e-07	-5.120067e-06	-3.904844e-09	-3.786743e+01	-2.572719e+02
2.100000e-07	-5.112577e-06	-3.931255e-09	-3.781204e+01	-2.570872e+02
2.200000e-07	-5.104860e-06	-4.122996e-09	-3.775496e+01	-2.568933e+02
2.300000e-07	-5.096978e-06	-4.113553e-09	-3.769667e+01	-2.566907e+02
2.400000e-07	-5.088724e-06	-3.834107e-09	-3.763562e+01	-2.564802e+02
2.500000e-07	-5.079701e-06	-3.666170e-09	-3.756890e+01	-2.562623e+02
2.600000e-07	-5.070107e-06	-3.918863e-09	-3.749794e+01	-2.560377e+02
2.700000e-07	-5.060317e-06	-4.089624e-09	-3.742553e+01	-2.558069e+02
2.800000e-07	-5.050004e-06	-3.774163e-09	-3.734926e+01	-2.555707e+02
2.900000e-07	-5.039026e-06	-3.473997e-09	-3.726807e+01	-2.553296e+02
3.000000e-07	-5.027614e-06	-3.746438e-09	-3.718367e+01	-2.550842e+02
3.100000e-07	-5.015885e-06	-4.038884e-09	-3.709692e+01	-2.548352e+02
3.200000e-07	-5.003804e-06	-3.778900e-09	-3.700757e+01	-2.545829e+02
3.300000e-07	-4.991298e-06	-3.496071e-09	-3.691507e+01	-2.543280e+02
3.400000e-07	-4.978402e-06	-3.684947e-09	-3.681970e+01	-2.540708e+02
3.500000e-07	-4.965034e-06	-3.903500e-09	-3.672083e+01	-2.538117e+02
3.600000e-07	-4.951299e-06	-3.798496e-09	-3.661925e+01	-2.535509e+02
3.700000e-07	-4.937382e-06	-3.714246e-09	-3.651632e+01	-2.532888e+02
3.800000e-07	-4.922975e-06	-3.675756e-09	-3.640977e+01	-2.530255e+02
3.900000e-07	-4.907807e-06	-3.634309e-09	-3.629759e+01	-2.527610e+02
4.000000e-07	-4.892202e-06	-3.802622e-09	-3.618217e+01	-2.524954e+02
4.100000e-07	-4.876192e-06	-3.919591e-09	-3.606376e+01	-2.522285e+02
4.200000e-07	-4.859663e-06	-3.619055e-09	-3.594151e+01	-2.519602e+02
4.300000e-07	-4.842814e-06	-3.487218e-09	-3.581690e+01	-2.516904e+02
4.400000e-07	-4.825781e-06	-3.869422e-09	-3.569093e+01	-2.514186e+02
4.500000e-07	-4.808495e-06	-3.979110e-09	-3.556309e+01	-2.511445e+02
4.600000e-07	-4.790785e-06	-3.556129e-09	-3.543210e+01	-2.508676e+02
4.700000e-07	-4.772743e-06	-3.509203e-09	-3.529866e+01	-2.505874e+02
4.800000e-07	-4.754422e-06	-3.886515e-09	-3.516317e+01	-2.503034e+02
4.900000e-07	-4.735696e-06	-3.881166e-09	-3.502467e+01	-2.500150e+02
5.000000e-07	-4.716525e-06	-3.562509e-09	-3.488288e+01	-2.497214e+02
5.100000e-07	-4.697087e-06	-3.589134e-09	-3.473912e+01	-2.494220e+02
5.200000e-07	-4.677451e-06	-3.776446e-09	-3.459390e+01	-2.491160e+02
5.300000e-07	-4.657601e-06	-3.744195e-09	-3.444709e+01	-2.488029e+02
5.400000e-07	-4.637579e-06	-3.652290e-09	-3.429901e+01	-2.484817e+02
5.500000e-07	-4.617443e-06	-3.663617e-09	-3.415009e+01	-2.481518e+02
5.600000e-07	-4.597007e-06	-3.643593e-09	-3.399894e+01	-2.478125e+02
5.700000e-07	-4.576099e-06	-3.654695e-09	-3.384431e+01	-2.474630e+02
5.800000e-07	-4.554812e-06	-3.734442e-09	-3.368687e+01	-2.471027e+02
5.900000e-07	-4.533216e-06	-3.687678e-09	-3.352715e+01	-2.467311e+02
6.000000e-07	-4.511352e-06	-3.543897e-09	-3.336545e+01	-2.463474e+02
6.100000e-07	-4.489206e-06	-3.594062e-09	-3.320166e+01	-2.459512e+02
6.200000e-07	-4.466771e-06	-3.739923e-09	-3.303573e+01	-2.455421e+02
6.300000e-07	-4.444025e-06	-3.650185e-09	-3.286750e+01	-2.451196e+02
6.400000e-07	-4.420907e-06	-3.497154e-09	-3.269653e+01	-2.446835e+02
6.500000e-07	-4.397487e-06	-3.581368e-09	-3.252332e+01	-2.442335e+02
6.600000e-07	-4.373826e-06	-3.702913e-09	-3.234832e+01	-2.437695e+02
6.700000e-07	-4.349973e-06	-3.615081e-09	-3.217191e+01	-2.432914e+02
6.800000e-07	-4.325911e-06	-3.523344e-09	-3.199395e+01	-2.427993e+02
6.900000e-07	-4.301589e-06	-3.569788e-09	-3.181406e+01	-2.422932e+02
7.000000e-07	-4.277042e-06	-3.612607e-09	-3.163252e+01	-2.417733e+02
7.100000e-07	-4.252090e-06	-3.570921e-09	-3.144797e+01	-2.412399e+02
7.200000e-07	-4.226619e-06	-3.540303e-09	-3.125960e+01	-2.406934e+02
7.300000e-07	-4.200774e-06	-3.531466e-09	-3.106845e+01	-2.401341e+02
7.400000e-07	-4.174500e-06	-3.536341e-09	-3.087413e+01	-2.395626e+02
7.500000e-07	-4.147617e-06	-3.549799e-09	-3.067531e+01	-2.389793e+02
7.600000e-07	-4.120323e-06	-3.548842e-09	-3.047344e+01	-2.383849e+02
7.700000e-07	-4.092811e-06	-3.505721e-09	-3.026997e+01	-2.377800e+02
7.800000e-07	-4.065084e-06	-3.483583e-09	-3.006490e+01	-2.371652e+02
7.900000e-07	-4.037175e-06	-3.516983e-09	-2.985849e+01	-2.365412e+02
8.000000e-07	-4.009102e-06	-3.530709e-09	-2.965086e+01	-2.359087e+02
8.100000e-07	-3.980804e-06	-3.462375e-09	-2.944157e+01	-2.352684e+02
8.200000e-07	-3.952177e-06	-3.421214e-09	-2.922986e+01	-2.346210e+02
8.300000e-07	-3.923229e-06	-3.469126e-09	-2.901575e+01	-2.339671e+02
8.400000e-07	-3.893996e-06	-3.485120e-09	-2.879956e+01	-2.333073e+02
8.500000e-07	-3.864537e-06	-3.415398e-09	-2.858167e+01	-2.326422e+02
8.600000e-07	-3.834875e-06	-3.386704e-09	-2.836230e+01	-2.319724e+02
8.700000e-07	-3.805018e-06	-3.429320e-09	-2.814148e+01	-2.312983e+02
8.800000e-07	-3.775012e-06	-3.430934e-09	-2.791956e+01	-2.306203e+02
8.900000e-07	-3.744683e-06	-3.385956e-09	-2.769525e+01	-2.299386e+02
9.000000e-07	-3.713908e-06	-3.364779e-09	-2.746764e+01	-2.292536e+02
9.100000e-07	-3.682883e-06	-3.366878e-09	-2.723819e+01	-2.285653e+02
9.200000e-07	-3.651680e-06	-3.360357e-09	-2.700741e+01	-2.278739e+02
9.300000e-07	-3.620253e-06	-3.348808e-09	-2.677498e+01	-2.271791e+02
9.400000e-07	-3.588647e-06	-3.326598e-09	-2.654123e+01	-2.264808e+02
9.500000e-07	-3.556896e-06	-3.303525e-09	-2.630640e+01	-2.257788e+02
9.600000e-07	-3.524995e-06	-3.300248e-09	-2.607046e+01	-2.250727e+02
9.700000e-07	-3.492859e-06	-3.305951e-09	-2.583279e+01	-2.243620e+02
9.800000e-07	-3.460462e-06	-3.282568e-09	-2.559319e+01	-2.236460e+02
9.900000e-07	-3.427890e-06	-3.247708e-09	-2.535229e+01	-2.229242e+02
1.000000e-06	-3.395097e-06	-3.238238e-09	-2.510975e+01	-2.221957e+02
1.010000e-06	-3.361903e-06	-3.246780e-09	-2.486425e+01	-2.214597e+02
1.020000e-06	-3.328410e-06	-3.228698e-09	-2.461655e+01	-2.207153e+02
1.030000e-06	-3.294488e-06	-3.194067e-09	-2.436566e+01	-2.199614e+02
1.040000e-06	-3.259991e-06	-3.181638e-09	-2.411053e+01	-2.191970e+02
1.050000e-06	-3.225096e-06	-3.187447e-09	-2.385244e+01	-2.184211e+02
1.060000e-06	-3.189963e-06	-3.174261e-09	-2.359261e+01	-2.176325e+02
1.070000e-06	-3.154634e-06	-3.150185e-09	-2.333131e+01	-2.168300e+02
1.080000e-06	-3.119045e-06	-3.140851e-09	-2.306810e+01	-2.160125e+02
1.090000e-06	-3.083252e-06	-3.138180e-09	-2.280339e+01	-2.151788e+02
1.100000e-06	-3.047320e-06	-3.124859e-09	-2.253763e+01	-2.143279e+02
1.110000e-06	-3.011285e-06	-3.109195e-09	-2.227113e+01	-2.134586e+02
1.120000e-06	-2.975172e-06	-3.093108e-09	-2.200403e+01	-2.125698e+02
1.130000e-06	-2.938969e-06	-3.073827e-09	-2.173629e+01	-2.116606e+02
1.140000e-06	-2.902556e-06	-3.061124e-09	-2.146698e+01	-2.107300e+02
1.150000e-06	-2.865950e-06	-3.052297e-09	-2.119624e+01	-2.097772e+02
1.160000e-06	-2.829132e-06	-3.033194e-09	-2.092394e+01	-2.088013e+02
1.170000e-06	-2.792067e-06	-3.010927e-09	-2.064981e+01	-2.078018e+02
1.180000e-06	-2.754770e-06	-3.001932e-09	-2.037397e+01	-2.067779e+02
1.190000e-06	-2.717178e-06	-2.995610e-09	-2.009594e+01	-2.057292e+02
1.200000e-06	-2.679430e-06	-2.976872e-09	-1.981676e+01	-2.046554e+02
1.210000e-06	-2.641602e-06	-2.951234e-09	-1.953699e+01	-2.035561e+02
1.220000e-06	-2.603554e-06	-2.935491e-09	-1.925559e+01	-2.024313e+02
1.230000e-06	-2.565246e-06	-2.922795e-09	-1.897227e+01	-2.012808e+02
1.240000e-06	-2.526710e-06	-2.898784e-09	-1.868726e+01	-2.001048e+02
1.250000e-06	-2.488037e-06	-2.871636e-09	-1.840124e+01	-1.989033e+02
1.260000e-06	-2.449301e-06	-2.853260e-09	-1.811475e+01	-1.976767e+02
1.270000e-06	-2.410426e-06	-2.835604e-09	-1.782724e+01	-1.964253e+02
1.280000e-06	-2.371280e-06	-2.817127e-09	-1.753772e+01	-1.951494e+02
1.290000e-06	-2.331947e-06	-2.796737e-09	-1.724682e+01	-1.938496e+02
1.300000e-06	-2.292581e-06	-2.771622e-09	-1.695567e+01	-1.925263e+02
1.310000e-06	-2.253090e-06	-2.746731e-09	-1.666360e+01	-1.911802e+02
1.320000e-06	-2.213445e-06	-2.729159e-09	-1.637039e+01	-1.898118e+02
1.330000e-06	-2.173719e-06	-2.708466e-09	-1.607658e+01	-1.884217e+02
1.340000e-06	-2.133835e-06	-2.679915e-09	-1.578160e+01	-1.870104e+02
1.350000e-06	-2.093841e-06	-2.654539e-09	-1.548581e+01	-1.855784e+02
1.360000e-06	-2.053799e-06	-2.636959e-09	-1.518966e+01	-1.841262e+02
1.370000e-06	-2.013677e-06	-2.616878e-09	-1.489293e+01	-1.826542e+02
1.380000e-06	-1.973492e-06	-2.589929e-09	-1.459572e+01	-1.811627e+02
1.390000e-06	-1.933139e-06	-2.565837e-09	-1.429728e+01	-1.796518e+02
1.400000e-06	-1.892633e-06	-2.545371e-09	-1.399770e+01	-1.781217e+02
1.410000e-06	-1.852012e-06	-2.520628e-09	-1.369727e+01	-1.765721e+02
1.420000e-06	-1.811146e-06	-2.492711e-09	-1.339503e+01	-1.750029e+02
1.430000e-06	-1.770050e-06	-2.465326e-09	-1.309109e+01	-1.734135e+02
1.440000e-06	-1.728795e-06	-2.440480e-09	-1.278597e+01	-1.718034e+02
1.450000e-06	-1.687329e-06	-2.416479e-09	-1.247929e+01	-1.701716e+02
1.460000e-06	-1.645668e-06	-2.391255e-09	-1.217117e+01	-1.685171e+02
1.470000e-06	-1.603800e-06	-2.363779e-09	-1.186152e+01	-1.668386e+02
1.480000e-06	-1.561719e-06	-2.336280e-09	-1.155030e+01	-1.651346e+02
1.490000e-06	-1.519418e-06	-2.307988e-09	-1.123745e+01	-1.634032e+02
1.500000e-06	-1.476876e-06	-2.279780e-09	-1.092281e+01	-1.616426e+02
1.510000e-06	-1.434204e-06	-2.249777e-09	-1.060721e+01	-1.598503e+02
1.520000e-06	-1.391400e-06	-2.217946e-09	-1.029064e+01	-1.580240e+02
1.530000e-06	-1.348469e-06	-2.190283e-09	-9.973124e+00	-1.561609e+02
1.540000e-06	-1.305466e-06	-2.161558e-09	-9.655075e+00	-1.542582e+02
1.550000e-06	-1.262334e-06	-2.128172e-09	-9.336083e+00	-1.523126e+02
1.560000e-06	-1.219129e-06	-2.093717e-09	-9.016544e+00	-1.503209e+02
1.570000e-06	-1.175925e-06	-2.061483e-09	-8.697005e+00	-1.482797e+02
1.580000e-06	-1.132599e-06	-2.029912e-09	-8.376575e+00	-1.461852e+02
1.590000e-06	-1.089076e-06	-1.995715e-09	-8.054684e+00	-1.440338e+02
1.600000e-06	-1.045451e-06	-1.957397e-09	-7.732040e+00	-1.418215e+02
1.610000e-06	-1.001785e-06	-1.920398e-09	-7.409087e+00	-1.395446e+02
1.620000e-06	-9.579996e-07	-1.889368e-09	-7.085257e+00	-1.371989e+02
1.630000e-06	-9.141782e-07	-1.856355e-09	-6.761159e+00	-1.347806e+02
1.640000e-06	-8.703900e-07	-1.815361e-09	-6.437306e+00	-1.322857e+02
1.650000e-06	-8.265900e-07	-1.771774e-09	-6.113366e+00	-1.297103e+02
1.660000e-06	-7.827581e-07	-1.731024e-09	-5.789190e+00	-1.270507e+02
1.670000e-06	-7.388590e-07	-1.691323e-09	-5.464517e+00	-1.243031e+02
1.680000e-06	-6.949534e-07	-1.647044e-09	-5.139797e+00	-1.214640e+02
1.690000e-06	-6.510603e-07	-1.601758e-09	-4.815168e+00	-1.185302e+02
1.700000e-06	-6.071442e-07	-1.559436e-09	-4.490370e+00	-1.154986e+02
1.710000e-06	-5.631981e-07	-1.516928e-09	-4.165349e+00	-1.123663e+02
1.720000e-06	-5.192332e-07	-1.469077e-09	-3.840190e+00	-1.091309e+02
1.730000e-06	-4.752642e-07	-1.421263e-09	-3.515000e+00	-1.057902e+02
1.740000e-06	-4.312991e-07	-1.373970e-09	-3.189839e+00	-1.023424e+02
1.750000e-06	-3.873553e-07	-1.324180e-09	-2.864836e+00	-9.878615e+01
1.760000e-06	-3.434132e-07	-1.269390e-09	-2.539845e+00	-9.512034e+01
1.770000e-06	-2.993930e-07	-1.213896e-09	-2.214276e+00	-9.134447e+01
1.780000e-06	-2.553632e-07	-1.157930e-09	-1.888637e+00	-8.745844e+01
1.790000e-06	-2.113716e-07	-1.097609e-09	-1.563281e+00	-8.346262e+01
1.800000e-06	-1.673161e-07	-1.035323e-09	-1.237451e+00	-7.935790e+01
1.810000e-06	-1.232460e-07	-9.731887e-10	-9.115131e-01	-7.514565e+01
1.820000e-06	-7.920460e-08	-9.104024e-10	-5.857882e-01	-7.082774e+01
1.830000e-06	-3.513861e-08	-8.453826e-10	-2.598812e-01	-6.640657e+01
1.840000e-06	8.929237e-09	-7.786553e-10	6.603962e-02	-6.188505e+01
1.850000e-06	5.299808e-08	-7.093223e-10	3.919678e-01	-5.726657e+01
1.860000e-06	9.707964e-08	-6.379388e-10	7.179900e-01	-5.255503e+01
1.870000e-06	1.411585e-07	-5.654442e-10	1.043992e+00	-4.775484e+01
1.880000e-06	1.852359e-07	-4.924676e-10	1.369983e+00	-4.287083e+01
1.890000e-06	2.293328e-07	-4.146179e-10	1.696120e+00	-3.790830e+01
1.900000e-06	2.734893e-07	-3.332285e-10	2.022696e+00	-3.287299e+01
1.910000e-06	3.176129e-07	-2.541237e-10	2.349029e+00	-2.777100e+01
1.920000e-06	3.616335e-07	-1.754646e-10	2.674600e+00	-2.260884e+01
1.930000e-06	4.056320e-07	-9.198646e-11	3.000009e+00	-1.739332e+01
1.940000e-06	4.496339e-07	-7.498197e-12	3.325441e+00	-1.213155e+01
1.950000e-06	4.936312e-07	7.446488e-11	3.650840e+00	-6.830920e+00
1.960000e-06	5.376472e-07	1.548123e-10	3.976378e+00	-1.499028e+00
1.970000e-06	5.816754e-07	2.379167e-10	4.302005e+00	3.856350e+00
1.980000e-06	6.256854e-07	3.227163e-10	4.627498e+00	9.227301e+00
1.990000e-06	6.696205e-07	4.064347e-10	4.952438e+00	1.460582e+01
2.000000e-06	7.135196e-07	4.909813e-10	5.277110e+00	1.998387e+01
2.010000e-06	7.574195e-07	5.761790e-10	5.601789e+00	2.535339e+01
2.020000e-06	8.012814e-07	6.603337e-10	5.926186e+00	3.070639e+01
2.030000e-06	8.451244e-07	7.424470e-10	6.250445e+00	3.603495e+01
2.040000e-06	8.889342e-07	8.228066e-10	6.574457e+00	4.133130e+01
2.050000e-06	9.326377e-07	9.003930e-10	6.897683e+00	4.658784e+01
2.060000e-06	9.763388e-07	9.777745e-10	7.220891e+00	5.179718e+01
2.070000e-06	1.020072e-06	1.057739e-09	7.544337e+00	5.695221e+01
2.080000e-06	1.063684e-06	1.138011e-09	7.866890e+00	6.204610e+01
2.090000e-06	1.107166e-06	1.216227e-09	8.188473e+00	6.707235e+01
2.100000e-06	1.150611e-06	1.292864e-09	8.509786e+00	7.202484e+01
2.110000e-06	1.194044e-06	1.367841e-09	8.831011e+00	7.689782e+01
2.120000e-06	1.237321e-06	1.441538e-09	9.151090e+00	8.168599e+01
2.130000e-06	1.280438e-06	1.513937e-09	9.469977e+00	8.638445e+01
2.140000e-06	1.323517e-06	1.583216e-09	9.788580e+00	9.098880e+01
2.150000e-06	1.366489e-06	1.649442e-09	1.010640e+01	9.549510e+01
2.160000e-06	1.409317e-06	1.713933e-09	1.042315e+01	9.989988e+01
2.170000e-06	1.451990e-06	1.777660e-09	1.073876e+01	1.042002e+02
2.180000e-06	1.494490e-06	1.841075e-09	1.105308e+01	1.083936e+02
2.190000e-06	1.536723e-06	1.899186e-09	1.136543e+01	1.124781e+02
2.200000e-06	1.578690e-06	1.952593e-09	1.167581e+01	1.164524e+02
2.210000e-06	1.620535e-06	2.007362e-09	1.198530e+01	1.203153e+02
2.220000e-06	1.662100e-06	2.062328e-09	1.229271e+01	1.240664e+02
2.230000e-06	1.703376e-06	2.112962e-09	1.259797e+01	1.277058e+02
2.240000e-06	1.744585e-06	2.160851e-09	1.290275e+01	1.312338e+02
2.250000e-06	1.785592e-06	2.208093e-09	1.320604e+01	1.346513e+02
2.260000e-06	1.826245e-06	2.252963e-09	1.350670e+01	1.379596e+02
2.270000e-06	1.866752e-06	2.293286e-09	1.380629e+01	1.411603e+02
2.280000e-06	1.907157e-06	2.332249e-09	1.410512e+01	1.442555e+02
2.290000e-06	1.947423e-06	2.371653e-09	1.440292e+01	1.472474e+02
2.300000e-06	1.987598e-06	2.409681e-09	1.470005e+01	1.501388e+02
2.310000e-06	2.027641e-06	2.447997e-09	1.499621e+01	1.529324e+02
2.320000e-06	2.067577e-06	2.484257e-09	1.529157e+01	1.556315e+02
2.330000e-06	2.107495e-06	2.519473e-09	1.558679e+01	1.582394e+02
2.340000e-06	2.147413e-06	2.558150e-09	1.588202e+01	1.607594e+02
2.350000e-06	2.187187e-06	2.598096e-09	1.617619e+01	1.631953e+02
2.360000e-06	2.226831e-06	2.633832e-09	1.646939e+01	1.655508e+02
2.370000e-06	2.266410e-06	2.664390e-09	1.676211e+01	1.678295e+02
2.380000e-06	2.305826e-06	2.694856e-09	1.705363e+01	1.700354e+02
2.390000e-06	2.345054e-06	2.727430e-09	1.734376e+01	1.721721e+02
2.400000e-06	2.384145e-06	2.759239e-09	1.763287e+01	1.742435e+02
2.410000e-06	2.423055e-06	2.787325e-09	1.792064e+01	1.762533e+02
2.420000e-06	2.461785e-06	2.811810e-09	1.820709e+01	1.782049e+02
2.430000e-06	2.500393e-06	2.838912e-09	1.849262e+01	1.801021e+02
2.440000e-06	2.538754e-06	2.867501e-09	1.877634e+01	1.819480e+02
2.450000e-06	2.576824e-06	2.892827e-09	1.905790e+01	1.837460e+02
2.460000e-06	2.614823e-06	2.916904e-09	1.933893e+01	1.854991e+02
2.470000e-06	2.652736e-06	2.942928e-09	1.961933e+01	1.872101e+02
2.480000e-06	2.690473e-06	2.970920e-09	1.989843e+01	1.888817e+02
2.490000e-06	2.727979e-06	2.998257e-09	2.017582e+01	1.905164e+02
2.500000e-06	2.765231e-06	3.023825e-09	2.045133e+01	1.921164e+02
2.510000e-06	2.802281e-06	3.049319e-09	2.072536e+01	1.936838e+02
2.520000e-06	2.839070e-06	3.073374e-09	2.099744e+01	1.952204e+02
2.530000e-06	2.875684e-06	3.094882e-09	2.126823e+01	1.967278e+02
2.540000e-06	2.912094e-06	3.116462e-09	2.153751e+01	1.982073e+02
2.550000e-06	2.948349e-06	3.138538e-09	2.180565e+01	1.996602e+02
2.560000e-06	2.984515e-06	3.160136e-09	2.207314e+01	2.010875e+02
2.570000e-06	3.020541e-06	3.180821e-09	2.233958e+01	2.024899e+02
2.580000e-06	3.056484e-06	3.201557e-09	2.260541e+01	2.038681e+02
2.590000e-06	3.092325e-06	3.221920e-09	2.287048e+01	2.052226e+02
2.600000e-06	3.128028e-06	3.242040e-09	2.313454e+01	2.065536e+02
2.610000e-06	3.163584e-06	3.261419e-09	2.339751e+01	2.078613e+02
2.620000e-06	3.198843e-06	3.279870e-09	2.365828e+01	2.091458e+02
2.630000e-06	3.233740e-06	3.300252e-09	2.391637e+01	2.104071e+02
2.640000e-06	3.268330e-06	3.321121e-09	2.417220e+01	2.116450e+02
2.650000e-06	3.302494e-06	3.339447e-09	2.442487e+01	2.128592e+02
2.660000e-06	3.336176e-06	3.355855e-09	2.467398e+01	2.140496e+02
2.670000e-06	3.369559e-06	3.371811e-09	2.492088e+01	2.152159e+02
2.680000e-06	3.402628e-06	3.390823e-09	2.516545e+01	2.163577e+02
2.690000e-06	3.435258e-06	3.408842e-09	2.540678e+01	2.174748e+02
2.700000e-06	3.467525e-06	3.422408e-09	2.564542e+01	2.185669e+02
2.710000e-06	3.499623e-06	3.435706e-09	2.588282e+01	2.196336e+02
2.720000e-06	3.531615e-06	3.450855e-09	2.611943e+01	2.206749e+02
2.730000e-06	3.563495e-06	3.467585e-09	2.635521e+01	2.216904e+02
2.740000e-06	3.595268e-06	3.481615e-09	2.659020e+01	2.226802e+02
2.750000e-06	3.626867e-06	3.495264e-09	2.682390e+01	2.236441e+02
2.760000e-06	3.658250e-06	3.508670e-09	2.705600e+01	2.245821e+02
2.770000e-06	3.689339e-06	3.522694e-09	2.728593e+01	2.254945e+02
2.780000e-06	3.720140e-06	3.536933e-09	2.751374e+01	2.263814e+02
2.790000e-06	3.750725e-06	3.549097e-09	2.773994e+01	2.272431e+02
2.800000e-06	3.781009e-06	3.563985e-09	2.796391e+01	2.280800e+02
2.810000e-06	3.810956e-06	3.579982e-09	2.818540e+01	2.288926e+02
2.820000e-06	3.840679e-06	3.595961e-09	2.840523e+01	2.296814e+02
2.830000e-06	3.870182e-06	3.611263e-09	2.862343e+01	2.304470e+02
2.840000e-06	3.899453e-06	3.624380e-09	2.883991e+01	2.311902e+02
2.850000e-06	3.928530e-06	3.637941e-09	2.905496e+01	2.319118e+02
2.860000e-06	3.957332e-06	3.649746e-09	2.926798e+01	2.326127e+02
2.870000e-06	3.985785e-06	3.660419e-09	2.947841e+01	2.332936e+02
2.880000e-06	4.013996e-06	3.671525e-09	2.968706e+01	2.339557e+02
2.890000e-06	4.042022e-06	3.683848e-09	2.989434e+01	2.345998e+02
2.900000e-06	4.069900e-06	3.694383e-09	3.010052e+01	2.352271e+02
