# Temperatura_=_20.0
# Concentracion g/m^3_=_9000.0
# C_Vs_to_Am_M_A/Vsm_=_65563218390.804596
# pendiente_HvsI_1/m_=_3716.3
# ordenada_HvsI_A/m_=_1297.0
# frecuencia_Hz_=_135194.26429928868

Tiempo_(s)	Campo_(V.s)	Magnetizacion_(V.s)	Campo_(kA/m)	Magnetizacion_(A/m)
0.000000e+00	-5.198601e-06	-3.935157e-09	-3.842074e+01	-2.551486e+02
1.000000e-08	-5.198751e-06	-3.935170e-09	-3.842186e+01	-2.551968e+02
2.000000e-08	-5.198671e-06	-3.933444e-09	-3.842126e+01	-2.552377e+02
3.000000e-08	-5.198268e-06	-3.932661e-09	-3.841828e+01	-2.552710e+02
4.000000e-08	-5.197505e-06	-3.933505e-09	-3.841264e+01	-2.552963e+02
5.000000e-08	-5.196347e-06	-3.931835e-09	-3.840409e+01	-2.553132e+02
6.000000e-08	-5.194727e-06	-3.926832e-09	-3.839211e+01	-2.553216e+02
7.000000e-08	-5.192467e-06	-3.928085e-09	-3.837541e+01	-2.553212e+02
8.000000e-08	-5.189513e-06	-3.946458e-09	-3.835358e+01	-2.553118e+02
9.000000e-08	-5.186022e-06	-3.961958e-09	-3.832778e+01	-2.552934e+02
1.000000e-07	-5.182142e-06	-3.912033e-09	-3.829910e+01	-2.552660e+02
1.100000e-07	-5.178072e-06	-3.860308e-09	-3.826903e+01	-2.552295e+02
1.200000e-07	-5.173794e-06	-3.903893e-09	-3.823740e+01	-2.551840e+02
1.300000e-07	-5.169298e-06	-3.973249e-09	-3.820418e+01	-2.551298e+02
1.400000e-07	-5.164540e-06	-3.960853e-09	-3.816901e+01	-2.550670e+02
1.500000e-07	-5.159339e-06	-3.880035e-09	-3.813057e+01	-2.549960e+02
1.600000e-07	-5.153657e-06	-3.879650e-09	-3.808858e+01	-2.549169e+02
1.700000e-07	-5.147599e-06	-3.965755e-09	-3.804381e+01	-2.548303e+02
1.800000e-07	-5.141226e-06	-3.991624e-09	-3.799671e+01	-2.547365e+02
1.900000e-07	-5.134448e-06	-3.960280e-09	-3.794662e+01	-2.546360e+02
2.000000e-07	-5.127297e-06	-3.894343e-09	-3.789376e+01	-2.545294e+02
2.100000e-07	-5.119899e-06	-3.894941e-09	-3.783909e+01	-2.544170e+02
2.200000e-07	-5.112288e-06	-3.925728e-09	-3.778284e+01	-2.542996e+02
2.300000e-07	-5.104451e-06	-3.933253e-09	-3.772492e+01	-2.541775e+02
2.400000e-07	-5.096284e-06	-3.820644e-09	-3.766456e+01	-2.540515e+02
2.500000e-07	-5.087655e-06	-3.735129e-09	-3.760079e+01	-2.539219e+02
2.600000e-07	-5.078483e-06	-3.799917e-09	-3.753300e+01	-2.537894e+02
2.700000e-07	-5.068772e-06	-3.890910e-09	-3.746123e+01	-2.536545e+02
2.800000e-07	-5.058573e-06	-3.804195e-09	-3.738585e+01	-2.535176e+02
2.900000e-07	-5.047840e-06	-3.689762e-09	-3.730653e+01	-2.533791e+02
3.000000e-07	-5.036591e-06	-3.766374e-09	-3.722340e+01	-2.532395e+02
3.100000e-07	-5.024916e-06	-3.874591e-09	-3.713711e+01	-2.530991e+02
3.200000e-07	-5.012927e-06	-3.803727e-09	-3.704850e+01	-2.529581e+02
3.300000e-07	-5.000613e-06	-3.700737e-09	-3.695750e+01	-2.528168e+02
3.400000e-07	-4.987844e-06	-3.748276e-09	-3.686312e+01	-2.526752e+02
3.500000e-07	-4.974708e-06	-3.798665e-09	-3.676604e+01	-2.525334e+02
3.600000e-07	-4.961279e-06	-3.776123e-09	-3.666679e+01	-2.523914e+02
3.700000e-07	-4.947521e-06	-3.749248e-09	-3.656511e+01	-2.522491e+02
3.800000e-07	-4.933314e-06	-3.745547e-09	-3.646012e+01	-2.521062e+02
3.900000e-07	-4.918654e-06	-3.702023e-09	-3.635177e+01	-2.519624e+02
4.000000e-07	-4.903454e-06	-3.753540e-09	-3.623943e+01	-2.518175e+02
4.100000e-07	-4.887695e-06	-3.802997e-09	-3.612297e+01	-2.516709e+02
4.200000e-07	-4.871429e-06	-3.729219e-09	-3.600275e+01	-2.515221e+02
4.300000e-07	-4.854763e-06	-3.666905e-09	-3.587958e+01	-2.513705e+02
4.400000e-07	-4.837796e-06	-3.791512e-09	-3.575418e+01	-2.512155e+02
4.500000e-07	-4.820515e-06	-3.842863e-09	-3.562646e+01	-2.510563e+02
4.600000e-07	-4.803017e-06	-3.722555e-09	-3.549715e+01	-2.508921e+02
4.700000e-07	-4.785308e-06	-3.695271e-09	-3.536626e+01	-2.507220e+02
4.800000e-07	-4.767333e-06	-3.824831e-09	-3.523342e+01	-2.505453e+02
4.900000e-07	-4.748938e-06	-3.827557e-09	-3.509747e+01	-2.503610e+02
5.000000e-07	-4.730152e-06	-3.728120e-09	-3.495863e+01	-2.501681e+02
5.100000e-07	-4.711000e-06	-3.737311e-09	-3.481709e+01	-2.499658e+02
5.200000e-07	-4.691495e-06	-3.800637e-09	-3.467293e+01	-2.497532e+02
5.300000e-07	-4.671729e-06	-3.764989e-09	-3.452685e+01	-2.495292e+02
5.400000e-07	-4.651791e-06	-3.727475e-09	-3.437949e+01	-2.492931e+02
5.500000e-07	-4.631641e-06	-3.753662e-09	-3.423057e+01	-2.490440e+02
5.600000e-07	-4.611215e-06	-3.752831e-09	-3.407961e+01	-2.487810e+02
5.700000e-07	-4.590433e-06	-3.726139e-09	-3.392602e+01	-2.485035e+02
5.800000e-07	-4.569253e-06	-3.740760e-09	-3.376949e+01	-2.482106e+02
5.900000e-07	-4.547830e-06	-3.745260e-09	-3.361116e+01	-2.479019e+02
6.000000e-07	-4.526160e-06	-3.697454e-09	-3.345100e+01	-2.475768e+02
6.100000e-07	-4.504174e-06	-3.692562e-09	-3.328851e+01	-2.472347e+02
6.200000e-07	-4.481904e-06	-3.723152e-09	-3.312393e+01	-2.468755e+02
6.300000e-07	-4.459365e-06	-3.696320e-09	-3.295735e+01	-2.464987e+02
6.400000e-07	-4.436501e-06	-3.640584e-09	-3.278838e+01	-2.461043e+02
6.500000e-07	-4.413270e-06	-3.669142e-09	-3.261668e+01	-2.456921e+02
6.600000e-07	-4.389757e-06	-3.702545e-09	-3.244291e+01	-2.452623e+02
6.700000e-07	-4.365991e-06	-3.667643e-09	-3.226726e+01	-2.448151e+02
6.800000e-07	-4.342069e-06	-3.631662e-09	-3.209047e+01	-2.443505e+02
6.900000e-07	-4.317915e-06	-3.659419e-09	-3.191195e+01	-2.438691e+02
7.000000e-07	-4.293472e-06	-3.666252e-09	-3.173130e+01	-2.433713e+02
7.100000e-07	-4.268754e-06	-3.631873e-09	-3.154862e+01	-2.428575e+02
7.200000e-07	-4.243617e-06	-3.607084e-09	-3.136285e+01	-2.423285e+02
7.300000e-07	-4.218026e-06	-3.612834e-09	-3.117372e+01	-2.417850e+02
7.400000e-07	-4.191889e-06	-3.606637e-09	-3.098054e+01	-2.412276e+02
7.500000e-07	-4.165214e-06	-3.596190e-09	-3.078340e+01	-2.406573e+02
7.600000e-07	-4.138115e-06	-3.588975e-09	-3.058313e+01	-2.400749e+02
7.700000e-07	-4.110685e-06	-3.579114e-09	-3.038040e+01	-2.394813e+02
7.800000e-07	-4.083012e-06	-3.565232e-09	-3.017588e+01	-2.388774e+02
7.900000e-07	-4.055157e-06	-3.569685e-09	-2.997002e+01	-2.382642e+02
8.000000e-07	-4.027096e-06	-3.567797e-09	-2.976263e+01	-2.376426e+02
8.100000e-07	-3.998807e-06	-3.534663e-09	-2.955356e+01	-2.370135e+02
8.200000e-07	-3.970312e-06	-3.507059e-09	-2.934296e+01	-2.363778e+02
8.300000e-07	-3.941634e-06	-3.515778e-09	-2.913101e+01	-2.357364e+02
8.400000e-07	-3.912645e-06	-3.515417e-09	-2.891677e+01	-2.350900e+02
8.500000e-07	-3.883292e-06	-3.480693e-09	-2.869983e+01	-2.344393e+02
8.600000e-07	-3.853745e-06	-3.463753e-09	-2.848146e+01	-2.337851e+02
8.700000e-07	-3.823983e-06	-3.476149e-09	-2.826151e+01	-2.331278e+02
8.800000e-07	-3.793965e-06	-3.477324e-09	-2.803966e+01	-2.324680e+02
8.900000e-07	-3.763751e-06	-3.453465e-09	-2.781636e+01	-2.318059e+02
9.000000e-07	-3.733262e-06	-3.438919e-09	-2.759102e+01	-2.311419e+02
9.100000e-07	-3.702417e-06	-3.432892e-09	-2.736306e+01	-2.304761e+02
9.200000e-07	-3.671294e-06	-3.424375e-09	-2.713304e+01	-2.298084e+02
9.300000e-07	-3.639933e-06	-3.409673e-09	-2.690126e+01	-2.291388e+02
9.400000e-07	-3.608372e-06	-3.394835e-09	-2.666801e+01	-2.284669e+02
9.500000e-07	-3.576648e-06	-3.377448e-09	-2.643355e+01	-2.277926e+02
9.600000e-07	-3.544725e-06	-3.368326e-09	-2.619762e+01	-2.271151e+02
9.700000e-07	-3.512589e-06	-3.365354e-09	-2.596011e+01	-2.264341e+02
9.800000e-07	-3.480239e-06	-3.357030e-09	-2.572103e+01	-2.257486e+02
9.900000e-07	-3.447660e-06	-3.336585e-09	-2.548025e+01	-2.250579e+02
1.000000e-06	-3.414929e-06	-3.324833e-09	-2.523835e+01	-2.243610e+02
1.010000e-06	-3.381890e-06	-3.321916e-09	-2.499417e+01	-2.236570e+02
1.020000e-06	-3.348429e-06	-3.312624e-09	-2.474687e+01	-2.229447e+02
1.030000e-06	-3.314601e-06	-3.290643e-09	-2.449686e+01	-2.222229e+02
1.040000e-06	-3.280328e-06	-3.274064e-09	-2.424357e+01	-2.214904e+02
1.050000e-06	-3.245677e-06	-3.265281e-09	-2.398748e+01	-2.207459e+02
1.060000e-06	-3.210705e-06	-3.254155e-09	-2.372901e+01	-2.199881e+02
1.070000e-06	-3.175360e-06	-3.239283e-09	-2.346780e+01	-2.192158e+02
1.080000e-06	-3.139710e-06	-3.229181e-09	-2.320432e+01	-2.184275e+02
1.090000e-06	-3.103971e-06	-3.220701e-09	-2.294019e+01	-2.176219e+02
1.100000e-06	-3.068189e-06	-3.208059e-09	-2.267573e+01	-2.167979e+02
1.110000e-06	-3.032297e-06	-3.194861e-09	-2.241047e+01	-2.159541e+02
1.120000e-06	-2.996283e-06	-3.181501e-09	-2.214431e+01	-2.150894e+02
1.130000e-06	-2.960096e-06	-3.165566e-09	-2.187687e+01	-2.142026e+02
1.140000e-06	-2.923730e-06	-3.149400e-09	-2.160810e+01	-2.132928e+02
1.150000e-06	-2.887127e-06	-3.138064e-09	-2.133758e+01	-2.123591e+02
1.160000e-06	-2.850253e-06	-3.123927e-09	-2.106506e+01	-2.114005e+02
1.170000e-06	-2.813174e-06	-3.104811e-09	-2.079102e+01	-2.104165e+02
1.180000e-06	-2.775950e-06	-3.088238e-09	-2.051592e+01	-2.094063e+02
1.190000e-06	-2.738493e-06	-3.077372e-09	-2.023909e+01	-2.083696e+02
1.200000e-06	-2.700823e-06	-3.062338e-09	-1.996068e+01	-2.073060e+02
1.210000e-06	-2.663032e-06	-3.044361e-09	-1.968139e+01	-2.062154e+02
1.220000e-06	-2.625035e-06	-3.026140e-09	-1.940057e+01	-2.050975e+02
1.230000e-06	-2.586876e-06	-3.007651e-09	-1.911854e+01	-2.039526e+02
1.240000e-06	-2.548438e-06	-2.983704e-09	-1.883447e+01	-2.027807e+02
1.250000e-06	-2.509778e-06	-2.959843e-09	-1.854875e+01	-2.015822e+02
1.260000e-06	-2.471016e-06	-2.941698e-09	-1.826228e+01	-2.003574e+02
1.270000e-06	-2.432100e-06	-2.925099e-09	-1.797466e+01	-1.991069e+02
1.280000e-06	-2.393066e-06	-2.905546e-09	-1.768617e+01	-1.978313e+02
1.290000e-06	-2.353843e-06	-2.887462e-09	-1.739630e+01	-1.965313e+02
1.300000e-06	-2.314374e-06	-2.870120e-09	-1.710460e+01	-1.952075e+02
1.310000e-06	-2.274786e-06	-2.848173e-09	-1.681202e+01	-1.938607e+02
1.320000e-06	-2.235112e-06	-2.823328e-09	-1.651881e+01	-1.924917e+02
1.330000e-06	-2.195350e-06	-2.800427e-09	-1.622494e+01	-1.911013e+02
1.340000e-06	-2.155546e-06	-2.780014e-09	-1.593076e+01	-1.896903e+02
1.350000e-06	-2.115656e-06	-2.757834e-09	-1.563595e+01	-1.882593e+02
1.360000e-06	-2.075653e-06	-2.733387e-09	-1.534030e+01	-1.868092e+02
1.370000e-06	-2.035531e-06	-2.709394e-09	-1.504378e+01	-1.853404e+02
1.380000e-06	-1.995345e-06	-2.685707e-09	-1.474678e+01	-1.838535e+02
1.390000e-06	-1.955037e-06	-2.663580e-09	-1.444888e+01	-1.823489e+02
1.400000e-06	-1.914571e-06	-2.641335e-09	-1.414982e+01	-1.808267e+02
1.410000e-06	-1.873959e-06	-2.616199e-09	-1.384967e+01	-1.792871e+02
1.420000e-06	-1.833183e-06	-2.589732e-09	-1.354831e+01	-1.777299e+02
1.430000e-06	-1.792234e-06	-2.564686e-09	-1.324567e+01	-1.761548e+02
1.440000e-06	-1.751100e-06	-2.539938e-09	-1.294167e+01	-1.745613e+02
1.450000e-06	-1.709753e-06	-2.512519e-09	-1.263609e+01	-1.729487e+02
1.460000e-06	-1.668140e-06	-2.484277e-09	-1.232854e+01	-1.713159e+02
1.470000e-06	-1.626186e-06	-2.459451e-09	-1.201848e+01	-1.696618e+02
1.480000e-06	-1.583979e-06	-2.437053e-09	-1.170655e+01	-1.679849e+02
1.490000e-06	-1.541648e-06	-2.412979e-09	-1.139369e+01	-1.662833e+02
1.500000e-06	-1.499105e-06	-2.386618e-09	-1.107928e+01	-1.645552e+02
1.510000e-06	-1.456362e-06	-2.360443e-09	-1.076338e+01	-1.627982e+02
1.520000e-06	-1.413526e-06	-2.332812e-09	-1.044680e+01	-1.610099e+02
1.530000e-06	-1.370551e-06	-2.304166e-09	-1.012918e+01	-1.591874e+02
1.540000e-06	-1.327447e-06	-2.276591e-09	-9.810624e+00	-1.573279e+02
1.550000e-06	-1.284250e-06	-2.248231e-09	-9.491372e+00	-1.554281e+02
1.560000e-06	-1.240945e-06	-2.218211e-09	-9.171321e+00	-1.534845e+02
1.570000e-06	-1.197579e-06	-2.185066e-09	-8.850817e+00	-1.514937e+02
1.580000e-06	-1.154085e-06	-2.151581e-09	-8.529374e+00	-1.494517e+02
1.590000e-06	-1.110473e-06	-2.117821e-09	-8.207053e+00	-1.473548e+02
1.600000e-06	-1.066834e-06	-2.084316e-09	-7.884535e+00	-1.451990e+02
1.610000e-06	-1.023200e-06	-2.049772e-09	-7.562055e+00	-1.429800e+02
1.620000e-06	-9.795309e-07	-2.014771e-09	-7.239314e+00	-1.406939e+02
1.630000e-06	-9.357445e-07	-1.978398e-09	-6.915707e+00	-1.383363e+02
1.640000e-06	-8.919517e-07	-1.938537e-09	-6.592052e+00	-1.359032e+02
1.650000e-06	-8.481586e-07	-1.898968e-09	-6.268395e+00	-1.333906e+02
1.660000e-06	-8.042774e-07	-1.861205e-09	-5.944087e+00	-1.307942e+02
1.670000e-06	-7.603769e-07	-1.824439e-09	-5.619636e+00	-1.281104e+02
1.680000e-06	-7.164641e-07	-1.784998e-09	-5.295094e+00	-1.253354e+02
1.690000e-06	-6.725254e-07	-1.742831e-09	-4.970362e+00	-1.224656e+02
1.700000e-06	-6.285332e-07	-1.699775e-09	-4.645233e+00	-1.194978e+02
1.710000e-06	-5.845194e-07	-1.657991e-09	-4.319945e+00	-1.164289e+02
1.720000e-06	-5.405451e-07	-1.616013e-09	-3.994949e+00	-1.132562e+02
1.730000e-06	-4.965544e-07	-1.568622e-09	-3.669831e+00	-1.099774e+02
1.740000e-06	-4.525227e-07	-1.517620e-09	-3.344412e+00	-1.065905e+02
1.750000e-06	-4.084659e-07	-1.467665e-09	-3.018806e+00	-1.030939e+02
1.760000e-06	-3.643844e-07	-1.417044e-09	-2.693017e+00	-9.948630e+01
1.770000e-06	-3.202810e-07	-1.364048e-09	-2.367067e+00	-9.576707e+01
1.780000e-06	-2.761634e-07	-1.309482e-09	-2.041012e+00	-9.193593e+01
1.790000e-06	-2.320399e-07	-1.253240e-09	-1.714913e+00	-8.799311e+01
1.800000e-06	-1.879141e-07	-1.196440e-09	-1.388797e+00	-8.393933e+01
1.810000e-06	-1.438482e-07	-1.137540e-09	-1.063123e+00	-7.977582e+01
1.820000e-06	-9.979868e-08	-1.074598e-09	-7.375714e-01	-7.550435e+01
1.830000e-06	-5.574281e-08	-1.009359e-09	-4.119724e-01	-7.112720e+01
1.840000e-06	-1.164488e-08	-9.434129e-10	-8.606255e-02	-6.664715e+01
1.850000e-06	3.247311e-08	-8.745434e-10	2.399956e-01	-6.206753e+01
1.860000e-06	7.653752e-08	-8.030551e-10	5.656577e-01	-5.739216e+01
1.870000e-06	1.206113e-07	-7.321537e-10	8.913891e-01	-5.262534e+01
1.880000e-06	1.646792e-07	-6.592553e-10	1.217077e+00	-4.777189e+01
1.890000e-06	2.087273e-07	-5.823944e-10	1.542619e+00	-4.283704e+01
1.900000e-06	2.527988e-07	-5.048241e-10	1.868333e+00	-3.782647e+01
1.910000e-06	2.969081e-07	-4.278308e-10	2.194327e+00	-3.274629e+01
1.920000e-06	3.409908e-07	-3.496176e-10	2.520124e+00	-2.760295e+01
1.930000e-06	3.850447e-07	-2.676394e-10	2.845708e+00	-2.240327e+01
1.940000e-06	4.290790e-07	-1.826389e-10	3.171149e+00	-1.715437e+01
1.950000e-06	4.730677e-07	-9.704207e-11	3.496251e+00	-1.186362e+01
1.960000e-06	5.170128e-07	-1.384887e-11	3.821031e+00	-6.538641e+00
1.970000e-06	5.609256e-07	6.801511e-11	4.145573e+00	-1.187230e+00
1.980000e-06	6.048406e-07	1.517452e-10	4.470131e+00	4.182673e+00
1.990000e-06	6.487565e-07	2.357125e-10	4.794695e+00	9.563030e+00
2.000000e-06	6.926112e-07	3.187598e-10	5.118807e+00	1.494575e+01
2.010000e-06	7.364356e-07	4.015674e-10	5.442696e+00	2.032275e+01
2.020000e-06	7.802911e-07	4.861404e-10	5.766814e+00	2.568596e+01
2.030000e-06	8.241398e-07	5.706678e-10	6.090882e+00	3.102741e+01
2.040000e-06	8.679552e-07	6.547997e-10	6.414704e+00	3.633926e+01
2.050000e-06	9.117385e-07	7.374540e-10	6.738288e+00	4.161385e+01
2.060000e-06	9.554775e-07	8.179303e-10	7.061545e+00	4.684371e+01
2.070000e-06	9.992053e-07	8.993246e-10	7.384720e+00	5.202164e+01
2.080000e-06	1.042941e-06	9.804302e-10	7.707955e+00	5.714073e+01
2.090000e-06	1.086563e-06	1.058023e-09	8.030348e+00	6.219439e+01
2.100000e-06	1.130064e-06	1.133318e-09	8.351846e+00	6.717640e+01
2.110000e-06	1.173477e-06	1.209262e-09	8.672694e+00	7.208091e+01
2.120000e-06	1.216818e-06	1.284436e-09	8.993006e+00	7.690251e+01
2.130000e-06	1.260126e-06	1.356125e-09	9.313081e+00	8.163619e+01
2.140000e-06	1.303278e-06	1.425159e-09	9.631996e+00	8.627743e+01
2.150000e-06	1.346281e-06	1.493927e-09	9.949816e+00	9.082218e+01
2.160000e-06	1.389211e-06	1.561907e-09	1.026709e+01	9.526684e+01
2.170000e-06	1.431976e-06	1.626048e-09	1.058315e+01	9.960835e+01
2.180000e-06	1.474525e-06	1.686821e-09	1.089762e+01	1.038441e+02
2.190000e-06	1.516915e-06	1.746253e-09	1.121090e+01	1.079720e+02
2.200000e-06	1.559169e-06	1.803307e-09	1.152319e+01	1.119905e+02
2.210000e-06	1.601146e-06	1.855985e-09	1.183342e+01	1.158985e+02
2.220000e-06	1.642808e-06	1.906144e-09	1.214133e+01	1.196953e+02
2.230000e-06	1.684293e-06	1.956973e-09	1.244792e+01	1.233808e+02
2.240000e-06	1.725621e-06	2.007355e-09	1.275336e+01	1.269552e+02
2.250000e-06	1.766678e-06	2.055238e-09	1.305680e+01	1.304194e+02
2.260000e-06	1.807443e-06	2.100682e-09	1.335808e+01	1.337743e+02
2.270000e-06	1.848017e-06	2.141620e-09	1.365794e+01	1.370216e+02
2.280000e-06	1.888503e-06	2.180174e-09	1.395716e+01	1.401630e+02
2.290000e-06	1.928885e-06	2.220364e-09	1.425561e+01	1.432009e+02
2.300000e-06	1.969155e-06	2.258303e-09	1.455323e+01	1.461376e+02
2.310000e-06	2.009289e-06	2.292855e-09	1.484984e+01	1.489759e+02
2.320000e-06	2.049330e-06	2.327522e-09	1.514576e+01	1.517189e+02
2.330000e-06	2.089325e-06	2.363002e-09	1.544135e+01	1.543697e+02
2.340000e-06	2.129185e-06	2.397877e-09	1.573594e+01	1.569317e+02
2.350000e-06	2.168974e-06	2.432759e-09	1.603000e+01	1.594084e+02
2.360000e-06	2.208725e-06	2.466716e-09	1.632379e+01	1.618034e+02
2.370000e-06	2.248392e-06	2.497737e-09	1.661695e+01	1.641203e+02
2.380000e-06	2.287932e-06	2.528454e-09	1.690917e+01	1.663630e+02
2.390000e-06	2.327319e-06	2.560586e-09	1.720027e+01	1.685350e+02
2.400000e-06	2.366536e-06	2.592344e-09	1.749010e+01	1.706402e+02
2.410000e-06	2.405577e-06	2.622536e-09	1.777864e+01	1.726821e+02
2.420000e-06	2.444470e-06	2.650576e-09	1.806608e+01	1.746644e+02
2.430000e-06	2.483148e-06	2.678059e-09	1.835194e+01	1.765905e+02
2.440000e-06	2.521547e-06	2.704776e-09	1.863573e+01	1.784637e+02
2.450000e-06	2.559743e-06	2.729850e-09	1.891802e+01	1.802874e+02
2.460000e-06	2.597852e-06	2.755267e-09	1.919967e+01	1.820645e+02
2.470000e-06	2.635868e-06	2.780719e-09	1.948063e+01	1.837981e+02
2.480000e-06	2.673740e-06	2.804673e-09	1.976052e+01	1.854907e+02
2.490000e-06	2.711381e-06	2.829915e-09	2.003871e+01	1.871449e+02
2.500000e-06	2.748770e-06	2.855899e-09	2.031504e+01	1.887631e+02
2.510000e-06	2.785996e-06	2.880598e-09	2.059016e+01	1.903474e+02
2.520000e-06	2.823010e-06	2.904741e-09	2.086372e+01	1.918996e+02
2.530000e-06	2.859853e-06	2.927471e-09	2.113601e+01	1.934216e+02
2.540000e-06	2.896532e-06	2.949404e-09	2.140709e+01	1.949147e+02
2.550000e-06	2.932969e-06	2.972238e-09	2.167638e+01	1.963805e+02
2.560000e-06	2.969233e-06	2.995873e-09	2.194439e+01	1.978198e+02
2.570000e-06	3.005390e-06	3.018540e-09	2.221162e+01	1.992338e+02
2.580000e-06	3.041409e-06	3.040683e-09	2.247781e+01	2.006232e+02
2.590000e-06	3.077294e-06	3.062409e-09	2.274303e+01	2.019886e+02
2.600000e-06	3.113041e-06	3.083681e-09	2.300722e+01	2.033304e+02
2.610000e-06	3.148607e-06	3.103823e-09	2.327008e+01	2.046490e+02
2.620000e-06	3.183999e-06	3.122683e-09	2.353164e+01	2.059447e+02
2.630000e-06	3.219132e-06	3.141399e-09	2.379130e+01	2.072174e+02
2.640000e-06	3.253992e-06	3.160705e-09	2.404893e+01	2.084672e+02
2.650000e-06	3.288487e-06	3.179948e-09	2.430387e+01	2.096940e+02
2.660000e-06	3.322510e-06	3.197293e-09	2.455532e+01	2.108978e+02
2.670000e-06	3.356134e-06	3.213594e-09	2.480382e+01	2.120784e+02
2.680000e-06	3.389393e-06	3.230220e-09	2.504963e+01	2.132355e+02
2.690000e-06	3.422213e-06	3.247144e-09	2.529218e+01	2.143690e+02
2.700000e-06	3.454686e-06	3.263753e-09	2.553218e+01	2.154786e+02
2.710000e-06	3.486979e-06	3.279839e-09	2.577084e+01	2.165642e+02
2.720000e-06	3.519081e-06	3.296565e-09	2.600809e+01	2.176256e+02
2.730000e-06	3.551030e-06	3.313475e-09	2.624422e+01	2.186627e+02
2.740000e-06	3.582894e-06	3.329559e-09	2.647971e+01	2.196753e+02
2.750000e-06	3.614615e-06	3.344801e-09	2.671415e+01	2.206634e+02
2.760000e-06	3.646108e-06	3.359142e-09	2.694690e+01	2.216271e+02
2.770000e-06	3.677354e-06	3.373793e-09	2.717783e+01	2.225664e+02
2.780000e-06	3.708257e-06	3.387324e-09	2.740622e+01	2.234814e+02
2.790000e-06	3.738850e-06	3.399852e-09	2.763232e+01	2.243725e+02
2.800000e-06	3.769168e-06	3.413050e-09	2.785639e+01	2.252398e+02
2.810000e-06	3.799227e-06	3.426994e-09	2.807854e+01	2.260838e+02
2.820000e-06	3.829102e-06	3.439579e-09	2.829933e+01	2.269048e+02
2.830000e-06	3.858743e-06	3.450618e-09	2.851840e+01	2.277034e+02
2.840000e-06	3.888133e-06	3.463539e-09	2.873561e+01	2.284802e+02
2.850000e-06	3.917347e-06	3.478623e-09	2.895152e+01	2.292356e+02
2.860000e-06	3.946258e-06	3.493558e-09	2.916519e+01	2.299705e+02
2.870000e-06	3.974816e-06	3.504817e-09	2.937625e+01	2.306855e+02
2.880000e-06	4.003160e-06	3.514848e-09	2.958573e+01	2.313814e+02
2.890000e-06	4.031279e-06	3.526384e-09	2.979354e+01	2.320589e+02
2.900000e-06	4.059207e-06	3.538627e-09	2.999995e+01	2.327189e+02
