# Temperatura_=_20.0
# Concentracion g/m^3_=_9000.0
# C_Vs_to_Am_M_A/Vsm_=_65563218390.804596
# pendiente_HvsI_1/m_=_3716.3
# ordenada_HvsI_A/m_=_1297.0
# frecuencia_Hz_=_212980.5513439107

Tiempo_(s)	Campo_(V.s)	Magnetizacion_(V.s)	Campo_(kA/m)	Magnetizacion_(A/m)
0.000000e+00	-8.092118e-06	-4.951855e-09	-5.692711e+01	-3.250294e+02
1.000000e-08	-8.090966e-06	-4.951075e-09	-5.691900e+01	-3.250081e+02
2.000000e-08	-8.088212e-06	-4.956059e-09	-5.689963e+01	-3.249738e+02
3.000000e-08	-8.084036e-06	-4.958188e-09	-5.687025e+01	-3.249240e+02
4.000000e-08	-8.078686e-06	-4.958093e-09	-5.683261e+01	-3.248564e+02
5.000000e-08	-8.072076e-06	-4.955546e-09	-5.678612e+01	-3.247691e+02
6.000000e-08	-8.064178e-06	-4.950806e-09	-5.673055e+01	-3.246612e+02
7.000000e-08	-8.054900e-06	-4.943658e-09	-5.666528e+01	-3.245324e+02
8.000000e-08	-8.044048e-06	-4.928351e-09	-5.658894e+01	-3.243839e+02
9.000000e-08	-8.031490e-06	-4.952465e-09	-5.650060e+01	-3.242177e+02
1.000000e-07	-8.016957e-06	-5.009439e-09	-5.639836e+01	-3.240368e+02
1.100000e-07	-8.000478e-06	-5.007278e-09	-5.628243e+01	-3.238451e+02
1.200000e-07	-7.982518e-06	-4.971857e-09	-5.615608e+01	-3.236470e+02
1.300000e-07	-7.963345e-06	-4.896278e-09	-5.602121e+01	-3.234470e+02
1.400000e-07	-7.943234e-06	-4.812718e-09	-5.587973e+01	-3.232493e+02
1.500000e-07	-7.922170e-06	-4.963541e-09	-5.573154e+01	-3.230573e+02
1.600000e-07	-7.899889e-06	-5.040850e-09	-5.557480e+01	-3.228736e+02
1.700000e-07	-7.876469e-06	-4.887799e-09	-5.541004e+01	-3.226991e+02
1.800000e-07	-7.851595e-06	-4.895949e-09	-5.523506e+01	-3.225334e+02
1.900000e-07	-7.824960e-06	-4.875892e-09	-5.504769e+01	-3.223741e+02
2.000000e-07	-7.797094e-06	-4.890284e-09	-5.485165e+01	-3.222171e+02
2.100000e-07	-7.768104e-06	-5.038378e-09	-5.464771e+01	-3.220570e+02
2.200000e-07	-7.737661e-06	-4.911187e-09	-5.443354e+01	-3.218868e+02
2.300000e-07	-7.705951e-06	-4.788459e-09	-5.421047e+01	-3.216988e+02
2.400000e-07	-7.672886e-06	-4.917505e-09	-5.397786e+01	-3.214848e+02
2.500000e-07	-7.638344e-06	-4.980033e-09	-5.373486e+01	-3.212369e+02
2.600000e-07	-7.602459e-06	-4.935442e-09	-5.348242e+01	-3.209475e+02
2.700000e-07	-7.565142e-06	-4.837782e-09	-5.321989e+01	-3.206105e+02
2.800000e-07	-7.526423e-06	-4.811439e-09	-5.294751e+01	-3.202212e+02
2.900000e-07	-7.486429e-06	-4.896453e-09	-5.266616e+01	-3.197768e+02
3.000000e-07	-7.445056e-06	-4.921067e-09	-5.237510e+01	-3.192766e+02
3.100000e-07	-7.402175e-06	-4.850180e-09	-5.207344e+01	-3.187221e+02
3.200000e-07	-7.357839e-06	-4.791219e-09	-5.176154e+01	-3.181168e+02
3.300000e-07	-7.312142e-06	-4.825266e-09	-5.144007e+01	-3.174660e+02
3.400000e-07	-7.265141e-06	-4.853224e-09	-5.110942e+01	-3.167763e+02
3.500000e-07	-7.216767e-06	-4.844500e-09	-5.076911e+01	-3.160552e+02
3.600000e-07	-7.166697e-06	-4.802365e-09	-5.041688e+01	-3.153104e+02
3.700000e-07	-7.114856e-06	-4.735318e-09	-5.005218e+01	-3.145497e+02
3.800000e-07	-7.061695e-06	-4.775709e-09	-4.967820e+01	-3.137798e+02
3.900000e-07	-7.007369e-06	-4.827195e-09	-4.929603e+01	-3.130060e+02
4.000000e-07	-6.951748e-06	-4.761737e-09	-4.890474e+01	-3.122323e+02
4.100000e-07	-6.894904e-06	-4.700548e-09	-4.850485e+01	-3.114604e+02
4.200000e-07	-6.836835e-06	-4.730844e-09	-4.809634e+01	-3.106900e+02
4.300000e-07	-6.777475e-06	-4.763907e-09	-4.767875e+01	-3.099192e+02
4.400000e-07	-6.716876e-06	-4.717981e-09	-4.725244e+01	-3.091438e+02
4.500000e-07	-6.655121e-06	-4.675943e-09	-4.681800e+01	-3.083586e+02
4.600000e-07	-6.592343e-06	-4.671181e-09	-4.637637e+01	-3.075573e+02
4.700000e-07	-6.528504e-06	-4.667547e-09	-4.592727e+01	-3.067331e+02
4.800000e-07	-6.463436e-06	-4.658619e-09	-4.546952e+01	-3.058795e+02
4.900000e-07	-6.397146e-06	-4.633981e-09	-4.500318e+01	-3.049905e+02
5.000000e-07	-6.329633e-06	-4.610705e-09	-4.452823e+01	-3.040616e+02
5.100000e-07	-6.261048e-06	-4.602288e-09	-4.404575e+01	-3.030893e+02
5.200000e-07	-6.191505e-06	-4.598618e-09	-4.355652e+01	-3.020722e+02
5.300000e-07	-6.120975e-06	-4.579310e-09	-4.306035e+01	-3.010107e+02
5.400000e-07	-6.049451e-06	-4.552003e-09	-4.255719e+01	-2.999067e+02
5.500000e-07	-5.976709e-06	-4.537600e-09	-4.204545e+01	-2.987639e+02
5.600000e-07	-5.902841e-06	-4.531242e-09	-4.152580e+01	-2.975868e+02
5.700000e-07	-5.827859e-06	-4.515591e-09	-4.099831e+01	-2.963809e+02
5.800000e-07	-5.751605e-06	-4.482331e-09	-4.046187e+01	-2.951516e+02
5.900000e-07	-5.674178e-06	-4.460699e-09	-3.991719e+01	-2.939038e+02
6.000000e-07	-5.595570e-06	-4.457401e-09	-3.936418e+01	-2.926416e+02
6.100000e-07	-5.515909e-06	-4.436554e-09	-3.880378e+01	-2.913676e+02
6.200000e-07	-5.435178e-06	-4.397967e-09	-3.823584e+01	-2.900825e+02
6.300000e-07	-5.353341e-06	-4.375404e-09	-3.766013e+01	-2.887853e+02
6.400000e-07	-5.270691e-06	-4.371081e-09	-3.707870e+01	-2.874729e+02
6.500000e-07	-5.187237e-06	-4.351924e-09	-3.649161e+01	-2.861404e+02
6.600000e-07	-5.102884e-06	-4.317528e-09	-3.589820e+01	-2.847812e+02
6.700000e-07	-5.017695e-06	-4.291292e-09	-3.529890e+01	-2.833880e+02
6.800000e-07	-4.931706e-06	-4.276377e-09	-3.469398e+01	-2.819526e+02
6.900000e-07	-4.844982e-06	-4.258654e-09	-3.408389e+01	-2.804669e+02
7.000000e-07	-4.757366e-06	-4.230337e-09	-3.346751e+01	-2.789235e+02
7.100000e-07	-4.668648e-06	-4.197060e-09	-3.284339e+01	-2.773161e+02
7.200000e-07	-4.579071e-06	-4.170678e-09	-3.221323e+01	-2.756400e+02
7.300000e-07	-4.488810e-06	-4.154909e-09	-3.157826e+01	-2.738925e+02
7.400000e-07	-4.397677e-06	-4.131462e-09	-3.093715e+01	-2.720729e+02
7.500000e-07	-4.305670e-06	-4.092166e-09	-3.028989e+01	-2.701824e+02
7.600000e-07	-4.212861e-06	-4.055599e-09	-2.963699e+01	-2.682242e+02
7.700000e-07	-4.119332e-06	-4.035659e-09	-2.897902e+01	-2.662028e+02
7.800000e-07	-4.025230e-06	-4.016739e-09	-2.831702e+01	-2.641233e+02
7.900000e-07	-3.930517e-06	-3.980456e-09	-2.765073e+01	-2.619912e+02
8.000000e-07	-3.834979e-06	-3.937251e-09	-2.697863e+01	-2.598116e+02
8.100000e-07	-3.738536e-06	-3.906015e-09	-2.630017e+01	-2.575881e+02
8.200000e-07	-3.641391e-06	-3.881876e-09	-2.561676e+01	-2.553229e+02
8.300000e-07	-3.543793e-06	-3.846645e-09	-2.493017e+01	-2.530158e+02
8.400000e-07	-3.445766e-06	-3.798743e-09	-2.424056e+01	-2.506639e+02
8.500000e-07	-3.347055e-06	-3.755742e-09	-2.354614e+01	-2.482620e+02
8.600000e-07	-3.247597e-06	-3.723363e-09	-2.284647e+01	-2.458023e+02
8.700000e-07	-3.147495e-06	-3.688669e-09	-2.214226e+01	-2.432746e+02
8.800000e-07	-3.046873e-06	-3.642116e-09	-2.143440e+01	-2.406673e+02
8.900000e-07	-2.945874e-06	-3.592075e-09	-2.072388e+01	-2.379677e+02
9.000000e-07	-2.844508e-06	-3.550276e-09	-2.001078e+01	-2.351629e+02
9.100000e-07	-2.742748e-06	-3.511814e-09	-1.929491e+01	-2.322406e+02
9.200000e-07	-2.640553e-06	-3.464690e-09	-1.857598e+01	-2.291896e+02
9.300000e-07	-2.537944e-06	-3.406729e-09	-1.785414e+01	-2.260006e+02
9.400000e-07	-2.434950e-06	-3.350951e-09	-1.712959e+01	-2.226665e+02
9.500000e-07	-2.331471e-06	-3.303058e-09	-1.640163e+01	-2.191826e+02
9.600000e-07	-2.227412e-06	-3.252040e-09	-1.566958e+01	-2.155463e+02
9.700000e-07	-2.122833e-06	-3.190765e-09	-1.493388e+01	-2.117567e+02
9.800000e-07	-2.017867e-06	-3.125866e-09	-1.419546e+01	-2.078138e+02
9.900000e-07	-1.912575e-06	-3.066974e-09	-1.345475e+01	-2.037176e+02
1.000000e-06	-1.806990e-06	-3.009511e-09	-1.271196e+01	-1.994666e+02
1.010000e-06	-1.701131e-06	-2.943291e-09	-1.196726e+01	-1.950568e+02
1.020000e-06	-1.594925e-06	-2.868785e-09	-1.122011e+01	-1.904802e+02
1.030000e-06	-1.488342e-06	-2.793341e-09	-1.047031e+01	-1.857235e+02
1.040000e-06	-1.381459e-06	-2.720146e-09	-9.718405e+00	-1.807670e+02
1.050000e-06	-1.274290e-06	-2.641783e-09	-8.964483e+00	-1.755842e+02
1.060000e-06	-1.166826e-06	-2.553750e-09	-8.208487e+00	-1.701412e+02
1.070000e-06	-1.059018e-06	-2.460667e-09	-7.450068e+00	-1.643972e+02
1.080000e-06	-9.509221e-07	-2.366751e-09	-6.689627e+00	-1.583051e+02
1.090000e-06	-8.426268e-07	-2.270391e-09	-5.927781e+00	-1.518126e+02
1.100000e-06	-7.341326e-07	-2.163965e-09	-5.164538e+00	-1.448645e+02
1.110000e-06	-6.254957e-07	-2.045515e-09	-4.400290e+00	-1.374047e+02
1.120000e-06	-5.168012e-07	-1.919819e-09	-3.635637e+00	-1.293789e+02
1.130000e-06	-4.080564e-07	-1.789930e-09	-2.870629e+00	-1.207378e+02
1.140000e-06	-2.992442e-07	-1.648415e-09	-2.105148e+00	-1.114398e+02
1.150000e-06	-1.903869e-07	-1.492340e-09	-1.339350e+00	-1.014541e+02
1.160000e-06	-8.150706e-08	-1.327023e-09	-5.733927e-01	-9.076330e+01
1.170000e-06	2.742318e-08	-1.155066e-09	1.929189e-01	-7.936593e+01
1.180000e-06	1.363333e-07	-9.762934e-10	9.590891e-01	-6.727802e+01
1.190000e-06	2.451180e-07	-7.862667e-10	1.724377e+00	-5.453417e+01
1.200000e-06	3.538359e-07	-5.845812e-10	2.489194e+00	-4.118785e+01
1.210000e-06	4.624981e-07	-3.730512e-10	3.253620e+00	-2.731083e+01
1.220000e-06	5.710728e-07	-1.547584e-10	4.017431e+00	-1.299178e+01
1.230000e-06	6.795170e-07	6.757543e-11	4.780323e+00	1.665910e+00
1.240000e-06	7.878208e-07	2.956558e-10	5.542228e+00	1.654703e+01
1.250000e-06	8.959400e-07	5.274149e-10	6.302833e+00	3.152805e+01
1.260000e-06	1.003837e-06	7.597365e-10	7.061875e+00	4.648098e+01
1.270000e-06	1.111503e-06	9.896151e-10	7.819292e+00	6.127756e+01
1.280000e-06	1.218809e-06	1.215314e-09	8.574181e+00	7.579338e+01
1.290000e-06	1.325777e-06	1.434875e-09	9.326688e+00	8.991195e+01
1.300000e-06	1.432430e-06	1.644373e-09	1.007698e+01	1.035282e+02
1.310000e-06	1.538724e-06	1.841686e-09	1.082474e+01	1.165519e+02
1.320000e-06	1.644773e-06	2.026145e-09	1.157079e+01	1.289096e+02
1.330000e-06	1.750589e-06	2.200177e-09	1.231519e+01	1.405468e+02
1.340000e-06	1.856128e-06	2.361019e-09	1.305765e+01	1.514283e+02
1.350000e-06	1.961429e-06	2.509635e-09	1.379842e+01	1.615386e+02
1.360000e-06	2.066488e-06	2.649229e-09	1.453750e+01	1.708804e+02
1.370000e-06	2.171241e-06	2.776625e-09	1.527443e+01	1.794737e+02
1.380000e-06	2.275572e-06	2.890749e-09	1.600838e+01	1.873531e+02
1.390000e-06	2.379319e-06	2.995247e-09	1.673823e+01	1.945650e+02
1.400000e-06	2.482592e-06	3.094874e-09	1.746475e+01	2.011648e+02
1.410000e-06	2.585558e-06	3.188527e-09	1.818910e+01	2.072135e+02
1.420000e-06	2.688106e-06	3.273176e-09	1.891051e+01	2.127747e+02
1.430000e-06	2.790239e-06	3.352553e-09	1.962901e+01	2.179115e+02
1.440000e-06	2.891976e-06	3.428340e-09	2.034472e+01	2.226837e+02
1.450000e-06	2.993216e-06	3.500140e-09	2.105693e+01	2.271462e+02
1.460000e-06	3.093992e-06	3.566440e-09	2.176587e+01	2.313467e+02
1.470000e-06	3.194342e-06	3.627240e-09	2.247182e+01	2.353253e+02
1.480000e-06	3.294148e-06	3.685384e-09	2.317395e+01	2.391134e+02
1.490000e-06	3.393217e-06	3.742494e-09	2.387089e+01	2.427345e+02
1.500000e-06	3.491507e-06	3.798132e-09	2.456234e+01	2.462045e+02
1.510000e-06	3.589174e-06	3.848314e-09	2.524942e+01	2.495324e+02
1.520000e-06	3.686207e-06	3.893937e-09	2.593204e+01	2.527223e+02
1.530000e-06	3.782483e-06	3.938739e-09	2.660933e+01	2.557746e+02
1.540000e-06	3.877988e-06	3.983307e-09	2.728120e+01	2.586872e+02
1.550000e-06	3.972758e-06	4.024246e-09	2.794789e+01	2.614575e+02
1.560000e-06	4.066827e-06	4.057417e-09	2.860965e+01	2.640836e+02
1.570000e-06	4.160208e-06	4.087116e-09	2.926658e+01	2.665652e+02
1.580000e-06	4.252946e-06	4.120706e-09	2.991898e+01	2.689043e+02
1.590000e-06	4.344983e-06	4.155735e-09	3.056645e+01	2.711061e+02
1.600000e-06	4.436165e-06	4.186270e-09	3.120791e+01	2.731783e+02
1.610000e-06	4.526462e-06	4.213846e-09	3.184313e+01	2.751317e+02
1.620000e-06	4.615831e-06	4.243766e-09	3.247184e+01	2.769790e+02
1.630000e-06	4.704230e-06	4.274396e-09	3.309371e+01	2.787347e+02
1.640000e-06	4.791713e-06	4.299681e-09	3.370915e+01	2.804136e+02
1.650000e-06	4.878434e-06	4.319852e-09	3.431922e+01	2.820303e+02
1.660000e-06	4.964449e-06	4.338983e-09	3.492432e+01	2.835986e+02
1.670000e-06	5.049641e-06	4.358830e-09	3.552363e+01	2.851299e+02
1.680000e-06	5.134066e-06	4.379556e-09	3.611756e+01	2.866336e+02
1.690000e-06	5.217798e-06	4.400533e-09	3.670660e+01	2.881159e+02
1.700000e-06	5.300617e-06	4.421374e-09	3.728922e+01	2.895803e+02
1.710000e-06	5.382415e-06	4.441358e-09	3.786466e+01	2.910270e+02
1.720000e-06	5.463243e-06	4.460885e-09	3.843328e+01	2.924539e+02
1.730000e-06	5.543096e-06	4.479730e-09	3.899504e+01	2.938565e+02
1.740000e-06	5.621991e-06	4.498294e-09	3.955005e+01	2.952290e+02
1.750000e-06	5.699927e-06	4.516183e-09	4.009832e+01	2.965647e+02
1.760000e-06	5.776865e-06	4.532641e-09	4.063958e+01	2.978569e+02
1.770000e-06	5.852812e-06	4.547699e-09	4.117385e+01	2.990994e+02
1.780000e-06	5.927619e-06	4.562515e-09	4.170011e+01	3.002873e+02
1.790000e-06	6.001114e-06	4.578612e-09	4.221714e+01	3.014175e+02
1.800000e-06	6.073456e-06	4.594571e-09	4.272606e+01	3.024887e+02
1.810000e-06	6.144708e-06	4.609191e-09	4.322731e+01	3.035020e+02
1.820000e-06	6.214882e-06	4.621842e-09	4.372097e+01	3.044603e+02
1.830000e-06	6.284023e-06	4.635758e-09	4.420737e+01	3.053683e+02
1.840000e-06	6.352177e-06	4.652061e-09	4.468683e+01	3.062322e+02
1.850000e-06	6.419328e-06	4.666343e-09	4.515923e+01	3.070592e+02
1.860000e-06	6.485220e-06	4.676866e-09	4.562277e+01	3.078566e+02
1.870000e-06	6.549744e-06	4.686649e-09	4.607668e+01	3.086315e+02
1.880000e-06	6.613108e-06	4.699479e-09	4.652245e+01	3.093905e+02
1.890000e-06	6.675422e-06	4.713224e-09	4.696082e+01	3.101387e+02
1.900000e-06	6.736614e-06	4.724847e-09	4.739130e+01	3.108798e+02
1.910000e-06	6.796778e-06	4.734295e-09	4.781454e+01	3.116157e+02
1.920000e-06	6.855904e-06	4.744487e-09	4.823049e+01	3.123466e+02
1.930000e-06	6.913548e-06	4.756858e-09	4.863601e+01	3.130711e+02
1.940000e-06	6.969677e-06	4.767520e-09	4.903087e+01	3.137860e+02
1.950000e-06	7.024608e-06	4.776529e-09	4.941730e+01	3.144875e+02
1.960000e-06	7.078353e-06	4.786683e-09	4.979539e+01	3.151708e+02
1.970000e-06	7.130783e-06	4.797296e-09	5.016423e+01	3.158311e+02
1.980000e-06	7.181669e-06	4.807074e-09	5.052221e+01	3.164639e+02
1.990000e-06	7.230854e-06	4.816905e-09	5.086822e+01	3.170654e+02
2.000000e-06	7.278557e-06	4.826902e-09	5.120380e+01	3.176328e+02
2.010000e-06	7.325061e-06	4.837252e-09	5.153095e+01	3.181647e+02
2.020000e-06	7.370360e-06	4.847959e-09	5.184963e+01	3.186610e+02
2.030000e-06	7.414518e-06	4.858069e-09	5.216027e+01	3.191231e+02
2.040000e-06	7.457467e-06	4.866515e-09	5.246242e+01	3.195538e+02
2.050000e-06	7.498841e-06	4.874264e-09	5.275347e+01	3.199567e+02
2.060000e-06	7.538772e-06	4.881221e-09	5.303439e+01	3.203363e+02
2.070000e-06	7.577511e-06	4.887771e-09	5.330691e+01	3.206974e+02
2.080000e-06	7.614960e-06	4.895866e-09	5.357036e+01	3.210446e+02
2.090000e-06	7.651251e-06	4.905004e-09	5.382566e+01	3.213823e+02
2.100000e-06	7.686385e-06	4.911452e-09	5.407282e+01	3.217138e+02
2.110000e-06	7.719994e-06	4.916254e-09	5.430926e+01	3.220417e+02
2.120000e-06	7.752084e-06	4.922009e-09	5.453501e+01	3.223672e+02
2.130000e-06	7.782961e-06	4.928873e-09	5.475223e+01	3.226901e+02
2.140000e-06	7.812597e-06	4.934380e-09	5.496071e+01	3.230092e+02
2.150000e-06	7.840974e-06	4.939282e-09	5.516034e+01	3.233223e+02
2.160000e-06	7.868117e-06	4.945546e-09	5.535129e+01	3.236263e+02
2.170000e-06	7.893676e-06	4.951110e-09	5.553109e+01	3.239175e+02
2.180000e-06	7.917634e-06	4.955737e-09	5.569963e+01	3.241923e+02
2.190000e-06	7.940254e-06	4.958396e-09	5.585877e+01	3.244472e+02
2.200000e-06	7.961546e-06	4.960902e-09	5.600855e+01	3.246792e+02
2.210000e-06	7.981648e-06	4.965215e-09	5.614997e+01	3.248860e+02
2.220000e-06	8.000480e-06	4.969492e-09	5.628244e+01	3.250664e+02
2.230000e-06	8.017822e-06	4.973439e-09	5.640444e+01	3.252202e+02
2.240000e-06	8.033634e-06	4.975159e-09	5.651568e+01	3.253482e+02
2.250000e-06	8.047916e-06	4.977236e-09	5.661615e+01	3.254521e+02
2.260000e-06	8.060750e-06	4.981467e-09	5.670644e+01	3.255344e+02
2.270000e-06	8.072088e-06	4.983332e-09	5.678620e+01	3.255980e+02
2.280000e-06	8.081614e-06	4.986008e-09	5.685321e+01	3.256461e+02
2.290000e-06	8.089509e-06	4.990092e-09	5.690875e+01	3.256815e+02
2.300000e-06	8.096075e-06	4.993662e-09	5.695494e+01	3.257069e+02
2.310000e-06	8.101237e-06	4.994624e-09	5.699126e+01	3.257242e+02
2.320000e-06	8.105156e-06	4.992713e-09	5.701883e+01	3.257345e+02
2.330000e-06	8.107640e-06	4.992109e-09	5.703630e+01	3.257379e+02
2.340000e-06	8.108378e-06	4.991822e-09	5.704150e+01	3.257338e+02
2.350000e-06	8.107710e-06	4.993034e-09	5.703680e+01	3.257206e+02
2.360000e-06	8.105830e-06	4.991358e-09	5.702357e+01	3.256963e+02
2.370000e-06	8.102698e-06	4.986520e-09	5.700154e+01	3.256583e+02
2.380000e-06	8.098384e-06	4.985974e-09	5.697119e+01	3.256043e+02
2.390000e-06	8.092578e-06	4.988319e-09	5.693035e+01	3.255319e+02
2.400000e-06	8.085186e-06	4.991045e-09	5.687835e+01	3.254395e+02
2.410000e-06	8.076642e-06	4.994105e-09	5.681824e+01	3.253263e+02
2.420000e-06	8.067010e-06	5.009665e-09	5.675048e+01	3.251924e+02
2.430000e-06	8.056073e-06	4.980214e-09	5.667354e+01	3.250392e+02
2.440000e-06	8.043390e-06	4.897068e-09	5.658431e+01	3.248689e+02
2.450000e-06	8.028422e-06	4.883794e-09	5.647902e+01	3.246849e+02
2.460000e-06	8.011321e-06	4.908327e-09	5.635871e+01	3.244912e+02
2.470000e-06	7.992781e-06	5.024437e-09	5.622828e+01	3.242922e+02
2.480000e-06	7.973469e-06	5.113183e-09	5.609243e+01	3.240923e+02
2.490000e-06	7.953545e-06	4.912144e-09	5.595227e+01	3.238957e+02
2.500000e-06	7.932153e-06	4.903148e-09	5.580177e+01	3.237056e+02
2.510000e-06	7.908975e-06	5.024069e-09	5.563872e+01	3.235241e+02
2.520000e-06	7.884723e-06	4.963369e-09	5.546811e+01	3.233520e+02
2.530000e-06	7.859220e-06	5.073494e-09	5.528870e+01	3.231881e+02
2.540000e-06	7.832178e-06	4.997857e-09	5.509846e+01	3.230298e+02
2.550000e-06	7.803930e-06	4.806910e-09	5.489974e+01	3.228726e+02
2.560000e-06	7.774377e-06	4.979087e-09	5.469184e+01	3.227106e+02
2.570000e-06	7.743291e-06	4.983278e-09	5.447315e+01	3.225367e+02
2.580000e-06	7.710674e-06	4.816445e-09	5.424370e+01	3.223429e+02
2.590000e-06	7.676646e-06	4.820383e-09	5.400431e+01	3.221212e+02
2.600000e-06	7.641473e-06	4.840402e-09	5.375688e+01	3.218635e+02
2.610000e-06	7.605043e-06	4.938914e-09	5.350059e+01	3.215627e+02
2.620000e-06	7.567019e-06	4.908757e-09	5.323310e+01	3.212130e+02
2.630000e-06	7.527491e-06	4.803989e-09	5.295502e+01	3.208100e+02
2.640000e-06	7.486630e-06	4.836301e-09	5.266757e+01	3.203516e+02
2.650000e-06	7.444474e-06	4.819864e-09	5.237101e+01	3.198376e+02
2.660000e-06	7.401065e-06	4.870061e-09	5.206563e+01	3.192700e+02
2.670000e-06	7.356412e-06	4.868900e-09	5.175150e+01	3.186528e+02
2.680000e-06	7.310332e-06	4.783718e-09	5.142734e+01	3.179916e+02
2.690000e-06	7.262833e-06	4.769114e-09	5.109318e+01	3.172932e+02
2.700000e-06	7.214250e-06	4.805746e-09	5.075141e+01	3.165654e+02
2.710000e-06	7.164314e-06	4.870593e-09	5.040012e+01	3.158160e+02
2.720000e-06	7.112817e-06	4.762217e-09	5.003784e+01	3.150523e+02
2.730000e-06	7.059764e-06	4.700192e-09	4.966462e+01	3.142810e+02
2.740000e-06	7.005225e-06	4.781357e-09	4.928094e+01	3.135069e+02
2.750000e-06	6.949366e-06	4.778574e-09	4.888798e+01	3.127335e+02
2.760000e-06	6.892148e-06	4.732727e-09	4.848546e+01	3.119620e+02
2.770000e-06	6.833800e-06	4.686904e-09	4.807499e+01	3.111919e+02
2.780000e-06	6.774457e-06	4.708452e-09	4.765752e+01	3.104203e+02
2.790000e-06	6.713897e-06	4.708313e-09	4.723148e+01	3.096430e+02
2.800000e-06	6.652012e-06	4.681688e-09	4.679613e+01	3.088543e+02
2.810000e-06	6.588926e-06	4.684029e-09	4.635233e+01	3.080479e+02
2.820000e-06	6.524615e-06	4.661988e-09	4.589991e+01	3.072169e+02
2.830000e-06	6.459116e-06	4.641526e-09	4.543913e+01	3.063549e+02
2.840000e-06	6.392617e-06	4.624322e-09	4.497132e+01	3.054564e+02
2.850000e-06	6.325104e-06	4.624836e-09	4.449637e+01	3.045168e+02
2.860000e-06	6.256429e-06	4.601192e-09	4.401325e+01	3.035333e+02
2.870000e-06	6.186603e-06	4.569921e-09	4.352203e+01	3.025050e+02
2.880000e-06	6.115638e-06	4.564104e-09	4.302280e+01	3.014326e+02
2.890000e-06	6.043489e-06	4.551173e-09	4.251524e+01	3.003185e+02
2.900000e-06	5.970293e-06	4.525658e-09	4.200032e+01	2.991666e+02
2.910000e-06	5.896208e-06	4.507850e-09	4.147914e+01	2.979818e+02
2.920000e-06	5.821074e-06	4.507966e-09	4.095058e+01	2.967695e+02
2.930000e-06	5.744729e-06	4.478439e-09	4.041350e+01	2.955351e+02
2.940000e-06	5.667180e-06	4.444211e-09	3.986795e+01	2.942834e+02
2.950000e-06	5.588501e-06	4.441140e-09	3.931446e+01	2.930180e+02
