# Temperatura_=_20.0
# Concentracion g/m^3_=_9000.0
# C_Vs_to_Am_M_A/Vsm_=_65563218390.804596
# pendiente_HvsI_1/m_=_3716.3
# ordenada_HvsI_A/m_=_1297.0
# frecuencia_Hz_=_212981.22741004836

Tiempo_(s)	Campo_(V.s)	Magnetizacion_(V.s)	Campo_(kA/m)	Magnetizacion_(A/m)
0.000000e+00	-8.160675e-06	-4.976117e-09	-5.692734e+01	-3.275286e+02
1.000000e-08	-8.159512e-06	-4.976537e-09	-5.691923e+01	-3.275031e+02
2.000000e-08	-8.156674e-06	-4.983469e-09	-5.689943e+01	-3.274716e+02
3.000000e-08	-8.152572e-06	-4.985499e-09	-5.687082e+01	-3.274317e+02
4.000000e-08	-8.147259e-06	-4.985018e-09	-5.683375e+01	-3.273802e+02
5.000000e-08	-8.140602e-06	-4.980716e-09	-5.678732e+01	-3.273142e+02
6.000000e-08	-8.132768e-06	-4.973755e-09	-5.673267e+01	-3.272308e+02
7.000000e-08	-8.123490e-06	-4.964059e-09	-5.666795e+01	-3.271277e+02
8.000000e-08	-8.112403e-06	-4.944000e-09	-5.659061e+01	-3.270032e+02
9.000000e-08	-8.099654e-06	-4.982546e-09	-5.650167e+01	-3.268567e+02
1.000000e-07	-8.085026e-06	-5.052662e-09	-5.639963e+01	-3.266883e+02
1.100000e-07	-8.068393e-06	-5.035651e-09	-5.628360e+01	-3.264988e+02
1.200000e-07	-8.050257e-06	-4.985924e-09	-5.615708e+01	-3.262900e+02
1.300000e-07	-8.030966e-06	-4.899900e-09	-5.602251e+01	-3.260640e+02
1.400000e-07	-8.010784e-06	-4.816136e-09	-5.588173e+01	-3.258232e+02
1.500000e-07	-7.989597e-06	-4.997076e-09	-5.573394e+01	-3.255699e+02
1.600000e-07	-7.967093e-06	-5.067915e-09	-5.557695e+01	-3.253059e+02
1.700000e-07	-7.943453e-06	-4.891588e-09	-5.541204e+01	-3.250326e+02
1.800000e-07	-7.918320e-06	-4.920861e-09	-5.523672e+01	-3.247504e+02
1.900000e-07	-7.891400e-06	-4.901591e-09	-5.504893e+01	-3.244587e+02
2.000000e-07	-7.863366e-06	-4.928908e-09	-5.485337e+01	-3.241560e+02
2.100000e-07	-7.834230e-06	-5.075642e-09	-5.465012e+01	-3.238397e+02
2.200000e-07	-7.803604e-06	-4.899418e-09	-5.443648e+01	-3.235064e+02
2.300000e-07	-7.771691e-06	-4.806889e-09	-5.421386e+01	-3.231522e+02
2.400000e-07	-7.738409e-06	-4.962163e-09	-5.398169e+01	-3.227730e+02
2.500000e-07	-7.703614e-06	-4.990084e-09	-5.373897e+01	-3.223646e+02
2.600000e-07	-7.667465e-06	-4.944354e-09	-5.348680e+01	-3.219234e+02
2.700000e-07	-7.629853e-06	-4.839016e-09	-5.322443e+01	-3.214465e+02
2.800000e-07	-7.590864e-06	-4.819797e-09	-5.295245e+01	-3.209323e+02
2.900000e-07	-7.550612e-06	-4.926386e-09	-5.267166e+01	-3.203803e+02
3.000000e-07	-7.508861e-06	-4.928119e-09	-5.238041e+01	-3.197914e+02
3.100000e-07	-7.465576e-06	-4.833245e-09	-5.207846e+01	-3.191680e+02
3.200000e-07	-7.420912e-06	-4.791451e-09	-5.176689e+01	-3.185135e+02
3.300000e-07	-7.374851e-06	-4.851828e-09	-5.144558e+01	-3.178327e+02
3.400000e-07	-7.327485e-06	-4.861188e-09	-5.111517e+01	-3.171309e+02
3.500000e-07	-7.278716e-06	-4.839459e-09	-5.077496e+01	-3.164135e+02
3.600000e-07	-7.228093e-06	-4.807220e-09	-5.042182e+01	-3.156861e+02
3.700000e-07	-7.175722e-06	-4.746145e-09	-5.005649e+01	-3.149533e+02
3.800000e-07	-7.122054e-06	-4.799848e-09	-4.968212e+01	-3.142190e+02
3.900000e-07	-7.067231e-06	-4.832331e-09	-4.929968e+01	-3.134855e+02
4.000000e-07	-7.011165e-06	-4.752287e-09	-4.890857e+01	-3.127535e+02
4.100000e-07	-6.953761e-06	-4.712001e-09	-4.850813e+01	-3.120221e+02
4.200000e-07	-6.895042e-06	-4.755249e-09	-4.809852e+01	-3.112886e+02
4.300000e-07	-6.835119e-06	-4.777095e-09	-4.768051e+01	-3.105486e+02
4.400000e-07	-6.774031e-06	-4.714083e-09	-4.725437e+01	-3.097966e+02
4.500000e-07	-6.711809e-06	-4.683438e-09	-4.682032e+01	-3.090261e+02
4.600000e-07	-6.648563e-06	-4.694639e-09	-4.637913e+01	-3.082302e+02
4.700000e-07	-6.584271e-06	-4.692014e-09	-4.593064e+01	-3.074020e+02
4.800000e-07	-6.518613e-06	-4.669442e-09	-4.547262e+01	-3.065353e+02
4.900000e-07	-6.451549e-06	-4.638030e-09	-4.500480e+01	-3.056248e+02
5.000000e-07	-6.383397e-06	-4.629718e-09	-4.452939e+01	-3.046668e+02
5.100000e-07	-6.314285e-06	-4.629853e-09	-4.404727e+01	-3.036594e+02
5.200000e-07	-6.244208e-06	-4.619934e-09	-4.355843e+01	-3.026023e+02
5.300000e-07	-6.173126e-06	-4.587253e-09	-4.306257e+01	-3.014974e+02
5.400000e-07	-6.101018e-06	-4.563164e-09	-4.255956e+01	-3.003480e+02
5.500000e-07	-6.027741e-06	-4.563259e-09	-4.204839e+01	-2.991590e+02
5.600000e-07	-5.953166e-06	-4.557941e-09	-4.152817e+01	-2.979362e+02
5.700000e-07	-5.877358e-06	-4.527913e-09	-4.099935e+01	-2.966857e+02
5.800000e-07	-5.800370e-06	-4.486809e-09	-4.046229e+01	-2.954137e+02
5.900000e-07	-5.722267e-06	-4.476719e-09	-3.991746e+01	-2.941257e+02
6.000000e-07	-5.643019e-06	-4.480017e-09	-3.936464e+01	-2.928258e+02
6.100000e-07	-5.562613e-06	-4.451654e-09	-3.880375e+01	-2.915167e+02
6.200000e-07	-5.481094e-06	-4.405774e-09	-3.823509e+01	-2.901991e+02
6.300000e-07	-5.398625e-06	-4.386087e-09	-3.765980e+01	-2.888717e+02
6.400000e-07	-5.315390e-06	-4.389317e-09	-3.707917e+01	-2.875310e+02
6.500000e-07	-5.231390e-06	-4.370755e-09	-3.649320e+01	-2.861719e+02
6.600000e-07	-5.146513e-06	-4.329380e-09	-3.590111e+01	-2.847876e+02
6.700000e-07	-5.060688e-06	-4.300207e-09	-3.530241e+01	-2.833702e+02
6.800000e-07	-4.974061e-06	-4.288165e-09	-3.469812e+01	-2.819117e+02
6.900000e-07	-4.886734e-06	-4.272421e-09	-3.408894e+01	-2.804037e+02
7.000000e-07	-4.798424e-06	-4.242550e-09	-3.347291e+01	-2.788390e+02
7.100000e-07	-4.708879e-06	-4.205488e-09	-3.284826e+01	-2.772114e+02
7.200000e-07	-4.618355e-06	-4.178805e-09	-3.221678e+01	-2.755164e+02
7.300000e-07	-4.527092e-06	-4.166601e-09	-3.158015e+01	-2.737516e+02
7.400000e-07	-4.435145e-06	-4.146722e-09	-3.093874e+01	-2.719165e+02
7.500000e-07	-4.342431e-06	-4.105720e-09	-3.029199e+01	-2.700126e+02
7.600000e-07	-4.248882e-06	-4.066858e-09	-2.963941e+01	-2.680434e+02
7.700000e-07	-4.154651e-06	-4.046932e-09	-2.898207e+01	-2.660135e+02
7.800000e-07	-4.059858e-06	-4.027246e-09	-2.832081e+01	-2.639281e+02
7.900000e-07	-3.964430e-06	-3.990345e-09	-2.765512e+01	-2.617929e+02
8.000000e-07	-3.868192e-06	-3.945510e-09	-2.698378e+01	-2.596125e+02
8.100000e-07	-3.771036e-06	-3.913293e-09	-2.630604e+01	-2.573905e+02
8.200000e-07	-3.673078e-06	-3.888168e-09	-2.562271e+01	-2.551287e+02
8.300000e-07	-3.574522e-06	-3.853669e-09	-2.493520e+01	-2.528264e+02
8.400000e-07	-3.475457e-06	-3.809606e-09	-2.424414e+01	-2.504803e+02
8.500000e-07	-3.375769e-06	-3.767624e-09	-2.354873e+01	-2.480847e+02
8.600000e-07	-3.275450e-06	-3.732637e-09	-2.284893e+01	-2.456311e+02
8.700000e-07	-3.174664e-06	-3.694883e-09	-2.214586e+01	-2.431089e+02
8.800000e-07	-3.073398e-06	-3.649135e-09	-2.143945e+01	-2.405062e+02
8.900000e-07	-2.971548e-06	-3.602549e-09	-2.072896e+01	-2.378099e+02
9.000000e-07	-2.869247e-06	-3.561358e-09	-2.001533e+01	-2.350068e+02
9.100000e-07	-2.766671e-06	-3.521682e-09	-1.929978e+01	-2.320844e+02
9.200000e-07	-2.663735e-06	-3.475111e-09	-1.858172e+01	-2.290314e+02
9.300000e-07	-2.560388e-06	-3.420640e-09	-1.786079e+01	-2.258387e+02
9.400000e-07	-2.456595e-06	-3.367994e-09	-1.713675e+01	-2.224991e+02
9.500000e-07	-2.352270e-06	-3.318750e-09	-1.640899e+01	-2.190080e+02
9.600000e-07	-2.247310e-06	-3.265933e-09	-1.567681e+01	-2.153630e+02
9.700000e-07	-2.141762e-06	-3.205166e-09	-1.494053e+01	-2.115631e+02
9.800000e-07	-2.035806e-06	-3.142305e-09	-1.420140e+01	-2.076084e+02
9.900000e-07	-1.929444e-06	-3.084713e-09	-1.345944e+01	-2.034987e+02
1.000000e-06	-1.822740e-06	-3.024427e-09	-1.271509e+01	-1.992323e+02
1.010000e-06	-1.715706e-06	-2.954595e-09	-1.196844e+01	-1.948047e+02
1.020000e-06	-1.608339e-06	-2.880329e-09	-1.121947e+01	-1.902073e+02
1.030000e-06	-1.500737e-06	-2.807753e-09	-1.046886e+01	-1.854260e+02
1.040000e-06	-1.392864e-06	-2.734758e-09	-9.716358e+00	-1.804405e+02
1.050000e-06	-1.284749e-06	-2.653593e-09	-8.962166e+00	-1.752231e+02
1.060000e-06	-1.176456e-06	-2.564783e-09	-8.206739e+00	-1.697389e+02
1.070000e-06	-1.067942e-06	-2.474169e-09	-7.449764e+00	-1.639462e+02
1.080000e-06	-9.592012e-07	-2.382369e-09	-6.691208e+00	-1.577967e+02
1.090000e-06	-8.502605e-07	-2.282797e-09	-5.931258e+00	-1.512374e+02
1.100000e-06	-7.411550e-07	-2.168999e-09	-5.170158e+00	-1.442124e+02
1.110000e-06	-6.319092e-07	-2.047061e-09	-4.408081e+00	-1.366649e+02
1.120000e-06	-5.225038e-07	-1.925154e-09	-3.644889e+00	-1.285407e+02
1.130000e-06	-4.129992e-07	-1.796599e-09	-2.881005e+00	-1.197902e+02
1.140000e-06	-3.033762e-07	-1.649772e-09	-2.116296e+00	-1.103725e+02
1.150000e-06	-1.936690e-07	-1.489896e-09	-1.350999e+00	-1.002574e+02
1.160000e-06	-8.394923e-08	-1.326099e-09	-5.856141e-01	-8.942876e+01
1.170000e-06	2.583317e-08	-1.155131e-09	1.802073e-01	-7.788639e+01
1.180000e-06	1.355561e-07	-9.722737e-10	9.456141e-01	-6.564802e+01
1.190000e-06	2.451444e-07	-7.773376e-10	1.710081e+00	-5.275016e+01
1.200000e-06	3.546444e-07	-5.735473e-10	2.473933e+00	-3.924831e+01
1.210000e-06	4.639768e-07	-3.613226e-10	3.236615e+00	-2.521639e+01
1.220000e-06	5.731807e-07	-1.389812e-10	3.998402e+00	-1.074517e+01
1.230000e-06	6.822425e-07	8.937187e-11	4.759196e+00	4.059879e+00
1.240000e-06	7.910746e-07	3.228638e-10	5.518388e+00	1.908167e+01
1.250000e-06	8.996949e-07	5.571217e-10	6.276104e+00	3.419497e+01
1.260000e-06	1.008175e-06	7.885268e-10	7.032838e+00	4.927039e+01
1.270000e-06	1.116509e-06	1.019923e-09	7.788560e+00	6.417859e+01
1.280000e-06	1.224623e-06	1.250629e-09	8.542740e+00	7.879441e+01
1.290000e-06	1.332577e-06	1.472702e-09	9.295807e+00	9.300096e+01
1.300000e-06	1.440359e-06	1.681218e-09	1.004768e+01	1.066932e+02
1.310000e-06	1.547886e-06	1.877770e-09	1.079776e+01	1.197810e+02
1.320000e-06	1.655161e-06	2.064671e-09	1.154610e+01	1.321917e+02
1.330000e-06	1.762192e-06	2.240994e-09	1.229272e+01	1.438715e+02
1.340000e-06	1.868915e-06	2.402398e-09	1.303720e+01	1.547862e+02
1.350000e-06	1.975351e-06	2.550752e-09	1.377968e+01	1.649213e+02
1.360000e-06	2.081495e-06	2.690115e-09	1.452012e+01	1.742809e+02
1.370000e-06	2.187224e-06	2.819985e-09	1.525767e+01	1.828860e+02
1.380000e-06	2.292485e-06	2.936465e-09	1.599195e+01	1.907721e+02
1.390000e-06	2.397268e-06	3.041491e-09	1.672289e+01	1.979868e+02
1.400000e-06	2.501493e-06	3.139364e-09	1.744995e+01	2.045860e+02
1.410000e-06	2.605136e-06	3.231698e-09	1.817294e+01	2.106316e+02
1.420000e-06	2.708333e-06	3.316521e-09	1.889282e+01	2.161874e+02
1.430000e-06	2.811138e-06	3.395754e-09	1.960997e+01	2.213166e+02
1.440000e-06	2.913595e-06	3.469887e-09	2.032469e+01	2.260794e+02
1.450000e-06	3.015698e-06	3.539113e-09	2.103695e+01	2.305304e+02
1.460000e-06	3.117243e-06	3.606183e-09	2.174530e+01	2.347173e+02
1.470000e-06	3.218160e-06	3.669677e-09	2.244928e+01	2.386797e+02
1.480000e-06	3.318541e-06	3.728810e-09	2.314952e+01	2.424490e+02
1.490000e-06	3.418366e-06	3.784278e-09	2.384588e+01	2.460486e+02
1.500000e-06	3.517648e-06	3.837110e-09	2.453846e+01	2.494941e+02
1.510000e-06	3.616370e-06	3.886161e-09	2.522712e+01	2.527947e+02
1.520000e-06	3.714376e-06	3.931665e-09	2.591079e+01	2.559548e+02
1.530000e-06	3.811587e-06	3.975458e-09	2.658892e+01	2.589750e+02
1.540000e-06	3.907983e-06	4.018416e-09	2.726136e+01	2.618538e+02
1.550000e-06	4.003545e-06	4.058347e-09	2.792798e+01	2.645894e+02
1.560000e-06	4.098356e-06	4.093399e-09	2.858936e+01	2.671806e+02
1.570000e-06	4.192503e-06	4.127751e-09	2.924612e+01	2.696279e+02
1.580000e-06	4.285900e-06	4.163163e-09	2.989763e+01	2.719344e+02
1.590000e-06	4.378500e-06	4.194656e-09	3.054360e+01	2.741060e+02
1.600000e-06	4.470408e-06	4.223720e-09	3.118473e+01	2.761516e+02
1.610000e-06	4.561662e-06	4.252381e-09	3.182130e+01	2.780824e+02
1.620000e-06	4.652132e-06	4.280203e-09	3.245240e+01	2.799118e+02
1.630000e-06	4.741532e-06	4.307945e-09	3.307604e+01	2.816546e+02
1.640000e-06	4.829829e-06	4.333551e-09	3.369198e+01	2.833257e+02
1.650000e-06	4.917223e-06	4.357347e-09	3.430163e+01	2.849398e+02
1.660000e-06	5.003884e-06	4.380235e-09	3.490616e+01	2.865101e+02
1.670000e-06	5.089792e-06	4.403196e-09	3.550544e+01	2.880475e+02
1.680000e-06	5.174769e-06	4.424469e-09	3.609822e+01	2.895607e+02
1.690000e-06	5.258898e-06	4.444604e-09	3.668509e+01	2.910549e+02
1.700000e-06	5.342306e-06	4.466153e-09	3.726693e+01	2.925325e+02
1.710000e-06	5.424903e-06	4.486984e-09	3.784311e+01	2.939927e+02
1.720000e-06	5.506531e-06	4.507332e-09	3.841253e+01	2.954324e+02
1.730000e-06	5.587118e-06	4.526122e-09	3.897469e+01	2.968461e+02
1.740000e-06	5.666748e-06	4.543866e-09	3.953017e+01	2.982272e+02
1.750000e-06	5.745386e-06	4.561245e-09	4.007874e+01	2.995683e+02
1.760000e-06	5.822948e-06	4.576828e-09	4.061980e+01	3.008621e+02
1.770000e-06	5.899493e-06	4.593521e-09	4.115376e+01	3.021025e+02
1.780000e-06	5.975013e-06	4.609420e-09	4.168057e+01	3.032846e+02
1.790000e-06	6.049405e-06	4.625054e-09	4.219952e+01	3.044054e+02
1.800000e-06	6.122503e-06	4.639836e-09	4.270944e+01	3.054643e+02
1.810000e-06	6.194323e-06	4.652836e-09	4.321044e+01	3.064630e+02
1.820000e-06	6.265080e-06	4.666116e-09	4.370403e+01	3.074051e+02
1.830000e-06	6.334823e-06	4.679057e-09	4.419054e+01	3.082963e+02
1.840000e-06	6.403468e-06	4.694281e-09	4.466939e+01	3.091437e+02
1.850000e-06	6.471078e-06	4.709241e-09	4.514103e+01	3.099551e+02
1.860000e-06	6.537670e-06	4.721659e-09	4.560556e+01	3.107385e+02
1.870000e-06	6.602931e-06	4.732540e-09	4.606081e+01	3.115016e+02
1.880000e-06	6.666807e-06	4.743579e-09	4.650640e+01	3.122513e+02
1.890000e-06	6.729598e-06	4.756195e-09	4.694442e+01	3.129927e+02
1.900000e-06	6.791314e-06	4.767426e-09	4.737494e+01	3.137293e+02
1.910000e-06	6.851895e-06	4.778239e-09	4.779754e+01	3.144627e+02
1.920000e-06	6.911382e-06	4.789987e-09	4.821251e+01	3.151923e+02
1.930000e-06	6.969604e-06	4.802274e-09	4.861865e+01	3.159160e+02
1.940000e-06	7.026327e-06	4.814471e-09	4.901434e+01	3.166298e+02
1.950000e-06	7.081682e-06	4.826024e-09	4.940049e+01	3.173289e+02
1.960000e-06	7.135847e-06	4.836891e-09	4.977833e+01	3.180077e+02
1.970000e-06	7.188751e-06	4.845145e-09	5.014738e+01	3.186606e+02
1.980000e-06	7.240230e-06	4.851949e-09	5.050649e+01	3.192824e+02
1.990000e-06	7.290180e-06	4.860322e-09	5.085493e+01	3.198689e+02
2.000000e-06	7.338533e-06	4.870032e-09	5.119224e+01	3.204172e+02
2.010000e-06	7.385442e-06	4.879407e-09	5.151946e+01	3.209260e+02
2.020000e-06	7.431119e-06	4.888902e-09	5.183810e+01	3.213956e+02
2.030000e-06	7.475618e-06	4.899943e-09	5.214851e+01	3.218283e+02
2.040000e-06	7.518953e-06	4.911326e-09	5.245081e+01	3.222276e+02
2.050000e-06	7.560886e-06	4.921210e-09	5.274333e+01	3.225984e+02
2.060000e-06	7.601262e-06	4.929637e-09	5.302498e+01	3.229465e+02
2.070000e-06	7.640326e-06	4.936206e-09	5.329749e+01	3.232779e+02
2.080000e-06	7.678195e-06	4.941457e-09	5.356165e+01	3.235986e+02
2.090000e-06	7.714827e-06	4.947879e-09	5.381719e+01	3.239142e+02
2.100000e-06	7.750263e-06	4.955124e-09	5.406438e+01	3.242290e+02
2.110000e-06	7.784252e-06	4.961306e-09	5.430149e+01	3.245462e+02
2.120000e-06	7.816671e-06	4.967782e-09	5.452763e+01	3.248675e+02
2.130000e-06	7.847832e-06	4.974999e-09	5.474501e+01	3.251929e+02
2.140000e-06	7.877783e-06	4.982454e-09	5.495394e+01	3.255207e+02
2.150000e-06	7.906418e-06	4.990496e-09	5.515369e+01	3.258481e+02
2.160000e-06	7.933768e-06	4.997995e-09	5.534448e+01	3.261709e+02
2.170000e-06	7.959604e-06	5.002830e-09	5.552471e+01	3.264844e+02
2.180000e-06	7.983836e-06	5.005445e-09	5.569375e+01	3.267832e+02
2.190000e-06	8.006653e-06	5.008162e-09	5.585291e+01	3.270624e+02
2.200000e-06	8.028123e-06	5.010760e-09	5.600268e+01	3.273172e+02
2.210000e-06	8.048374e-06	5.013053e-09	5.614395e+01	3.275440e+02
2.220000e-06	8.067456e-06	5.017135e-09	5.627706e+01	3.277401e+02
2.230000e-06	8.085077e-06	5.023305e-09	5.639999e+01	3.279043e+02
2.240000e-06	8.101087e-06	5.027911e-09	5.651166e+01	3.280366e+02
2.250000e-06	8.115578e-06	5.030570e-09	5.661276e+01	3.281384e+02
2.260000e-06	8.128623e-06	5.033755e-09	5.670375e+01	3.282123e+02
2.270000e-06	8.140135e-06	5.037629e-09	5.678406e+01	3.282617e+02
2.280000e-06	8.149830e-06	5.040938e-09	5.685169e+01	3.282908e+02
2.290000e-06	8.157808e-06	5.043470e-09	5.690734e+01	3.283037e+02
2.300000e-06	8.164386e-06	5.044987e-09	5.695323e+01	3.283046e+02
2.310000e-06	8.169628e-06	5.045309e-09	5.698979e+01	3.282972e+02
2.320000e-06	8.173578e-06	5.045358e-09	5.701735e+01	3.282842e+02
2.330000e-06	8.176125e-06	5.045562e-09	5.703512e+01	3.282676e+02
2.340000e-06	8.177040e-06	5.047149e-09	5.704150e+01	3.282482e+02
2.350000e-06	8.176464e-06	5.049768e-09	5.703748e+01	3.282258e+02
2.360000e-06	8.174575e-06	5.046158e-09	5.702431e+01	3.281990e+02
2.370000e-06	8.171371e-06	5.039994e-09	5.700195e+01	3.281656e+02
2.380000e-06	8.167030e-06	5.038409e-09	5.697167e+01	3.281230e+02
2.390000e-06	8.161254e-06	5.039217e-09	5.693138e+01	3.280681e+02
2.400000e-06	8.153828e-06	5.040856e-09	5.687958e+01	3.279980e+02
2.410000e-06	8.145190e-06	5.045832e-09	5.681932e+01	3.279098e+02
2.420000e-06	8.135384e-06	5.068566e-09	5.675092e+01	3.278014e+02
2.430000e-06	8.124277e-06	5.021275e-09	5.667344e+01	3.276715e+02
2.440000e-06	8.111488e-06	4.916522e-09	5.658422e+01	3.275194e+02
2.450000e-06	8.096375e-06	4.919669e-09	5.647879e+01	3.273455e+02
2.460000e-06	8.079112e-06	4.954702e-09	5.635837e+01	3.271510e+02
2.470000e-06	8.060485e-06	5.096641e-09	5.622843e+01	3.269376e+02
2.480000e-06	8.041082e-06	5.189937e-09	5.609309e+01	3.267077e+02
2.490000e-06	8.021048e-06	4.921896e-09	5.595333e+01	3.264635e+02
2.500000e-06	7.999518e-06	4.929037e-09	5.580314e+01	3.262073e+02
2.510000e-06	7.976140e-06	5.066420e-09	5.564006e+01	3.259408e+02
2.520000e-06	7.951742e-06	4.976882e-09	5.546986e+01	3.256653e+02
2.530000e-06	7.926071e-06	5.132257e-09	5.529079e+01	3.253807e+02
2.540000e-06	7.898742e-06	5.009378e-09	5.510015e+01	3.250864e+02
2.550000e-06	7.870309e-06	4.784784e-09	5.490180e+01	3.247805e+02
2.560000e-06	7.840635e-06	5.039611e-09	5.469481e+01	3.244603e+02
2.570000e-06	7.809284e-06	4.990343e-09	5.447610e+01	3.241221e+02
2.580000e-06	7.776460e-06	4.800571e-09	5.424713e+01	3.237620e+02
2.590000e-06	7.742246e-06	4.846057e-09	5.400846e+01	3.233758e+02
2.600000e-06	7.706805e-06	4.836593e-09	5.376123e+01	3.229594e+02
2.610000e-06	7.670150e-06	4.975417e-09	5.350553e+01	3.225095e+02
2.620000e-06	7.631829e-06	4.903985e-09	5.323821e+01	3.220234e+02
2.630000e-06	7.591949e-06	4.776855e-09	5.296002e+01	3.214997e+02
2.640000e-06	7.550780e-06	4.875432e-09	5.267283e+01	3.209383e+02
2.650000e-06	7.508362e-06	4.835449e-09	5.237693e+01	3.203404e+02
2.660000e-06	7.464694e-06	4.875262e-09	5.207231e+01	3.197088e+02
2.670000e-06	7.419833e-06	4.846387e-09	5.175937e+01	3.190473e+02
2.680000e-06	7.373466e-06	4.782664e-09	5.143592e+01	3.183606e+02
2.690000e-06	7.325536e-06	4.792385e-09	5.110157e+01	3.176543e+02
2.700000e-06	7.276420e-06	4.801903e-09	5.075895e+01	3.169339e+02
2.710000e-06	7.225927e-06	4.880622e-09	5.040671e+01	3.162047e+02
2.720000e-06	7.173961e-06	4.732313e-09	5.004421e+01	3.154712e+02
2.730000e-06	7.120494e-06	4.709476e-09	4.967124e+01	3.147368e+02
2.740000e-06	7.065479e-06	4.813771e-09	4.928746e+01	3.140036e+02
2.750000e-06	7.009107e-06	4.765275e-09	4.889422e+01	3.132719e+02
2.760000e-06	6.951438e-06	4.721065e-09	4.849193e+01	3.125403e+02
2.770000e-06	6.892604e-06	4.677286e-09	4.808152e+01	3.118056e+02
2.780000e-06	6.832723e-06	4.743008e-09	4.766380e+01	3.110631e+02
2.790000e-06	6.771627e-06	4.718212e-09	4.723760e+01	3.103071e+02
2.800000e-06	6.709142e-06	4.666570e-09	4.680172e+01	3.095308e+02
2.810000e-06	6.645429e-06	4.680879e-09	4.635727e+01	3.087274e+02
2.820000e-06	6.580707e-06	4.668127e-09	4.590578e+01	3.078901e+02
2.830000e-06	6.514833e-06	4.664197e-09	4.544626e+01	3.070128e+02
2.840000e-06	6.447799e-06	4.621026e-09	4.497864e+01	3.060907e+02
2.850000e-06	6.379704e-06	4.623704e-09	4.450362e+01	3.051204e+02
2.860000e-06	6.310443e-06	4.599071e-09	4.402047e+01	3.041005e+02
2.870000e-06	6.239949e-06	4.583666e-09	4.352872e+01	3.030312e+02
2.880000e-06	6.168301e-06	4.582971e-09	4.302892e+01	3.019147e+02
2.890000e-06	6.095587e-06	4.550916e-09	4.252168e+01	3.007549e+02
2.900000e-06	6.021880e-06	4.524811e-09	4.200751e+01	2.995568e+02
2.910000e-06	5.947228e-06	4.515991e-09	4.148675e+01	2.983264e+02
2.920000e-06	5.871434e-06	4.531555e-09	4.095802e+01	2.970700e+02
2.930000e-06	5.794362e-06	4.484205e-09	4.042039e+01	2.957935e+02
2.940000e-06	5.716047e-06	4.445465e-09	3.987407e+01	2.945021e+02
2.950000e-06	5.636610e-06	4.446792e-09	3.931994e+01	2.931997e+02
