# Temperatura_=_20.0
# Concentracion g/m^3_=_9000.0
# C_Vs_to_Am_M_A/Vsm_=_65563218390.804596
# pendiente_HvsI_1/m_=_3716.3
# ordenada_HvsI_A/m_=_1297.0
# frecuencia_Hz_=_212980.28024641267

Tiempo_(s)	Campo_(V.s)	Magnetizacion_(V.s)	Campo_(kA/m)	Magnetizacion_(A/m)
0.000000e+00	-8.110775e-06	-4.983487e-09	-5.692075e+01	-3.263208e+02
1.000000e-08	-8.109859e-06	-4.980610e-09	-5.691433e+01	-3.262931e+02
2.000000e-08	-8.107377e-06	-4.983625e-09	-5.689690e+01	-3.262556e+02
3.000000e-08	-8.103465e-06	-4.984633e-09	-5.686945e+01	-3.262061e+02
4.000000e-08	-8.098324e-06	-4.982272e-09	-5.683337e+01	-3.261424e+02
5.000000e-08	-8.091940e-06	-4.978278e-09	-5.678857e+01	-3.260627e+02
6.000000e-08	-8.084312e-06	-4.972786e-09	-5.673504e+01	-3.259659e+02
7.000000e-08	-8.075349e-06	-4.972684e-09	-5.667214e+01	-3.258518e+02
8.000000e-08	-8.064741e-06	-4.976412e-09	-5.659769e+01	-3.257211e+02
9.000000e-08	-8.052415e-06	-4.965154e-09	-5.651119e+01	-3.255755e+02
1.000000e-07	-8.038288e-06	-4.993225e-09	-5.641205e+01	-3.254179e+02
1.100000e-07	-8.022163e-06	-5.017175e-09	-5.629888e+01	-3.252516e+02
1.200000e-07	-8.004398e-06	-4.992227e-09	-5.617421e+01	-3.250808e+02
1.300000e-07	-7.985352e-06	-4.976434e-09	-5.604055e+01	-3.249094e+02
1.400000e-07	-7.965365e-06	-4.930885e-09	-5.590028e+01	-3.247414e+02
1.500000e-07	-7.944517e-06	-4.884576e-09	-5.575397e+01	-3.245797e+02
1.600000e-07	-7.922437e-06	-5.028143e-09	-5.559902e+01	-3.244265e+02
1.700000e-07	-7.899163e-06	-4.996219e-09	-5.543568e+01	-3.242823e+02
1.800000e-07	-7.874494e-06	-4.910118e-09	-5.526256e+01	-3.241462e+02
1.900000e-07	-7.848091e-06	-4.973574e-09	-5.507726e+01	-3.240155e+02
2.000000e-07	-7.820434e-06	-4.911876e-09	-5.488317e+01	-3.238856e+02
2.100000e-07	-7.791710e-06	-4.974096e-09	-5.468158e+01	-3.237506e+02
2.200000e-07	-7.761546e-06	-5.031588e-09	-5.446989e+01	-3.236032e+02
2.300000e-07	-7.730014e-06	-4.896838e-09	-5.424861e+01	-3.234355e+02
2.400000e-07	-7.697128e-06	-4.887944e-09	-5.401781e+01	-3.232389e+02
2.500000e-07	-7.662697e-06	-4.972227e-09	-5.377618e+01	-3.230052e+02
2.600000e-07	-7.626876e-06	-4.950533e-09	-5.352479e+01	-3.227271e+02
2.700000e-07	-7.589687e-06	-4.930899e-09	-5.326380e+01	-3.223983e+02
2.800000e-07	-7.551135e-06	-4.856757e-09	-5.299324e+01	-3.220143e+02
2.900000e-07	-7.511336e-06	-4.866623e-09	-5.271394e+01	-3.215729e+02
3.000000e-07	-7.470029e-06	-4.926816e-09	-5.242405e+01	-3.210738e+02
3.100000e-07	-7.427136e-06	-4.899642e-09	-5.212303e+01	-3.205191e+02
3.200000e-07	-7.382863e-06	-4.844878e-09	-5.181232e+01	-3.199130e+02
3.300000e-07	-7.337214e-06	-4.829101e-09	-5.149197e+01	-3.192615e+02
3.400000e-07	-7.290239e-06	-4.865075e-09	-5.116230e+01	-3.185720e+02
3.500000e-07	-7.241927e-06	-4.844644e-09	-5.082325e+01	-3.178528e+02
3.600000e-07	-7.192001e-06	-4.833728e-09	-5.047287e+01	-3.171122e+02
3.700000e-07	-7.140373e-06	-4.803488e-09	-5.011055e+01	-3.163583e+02
3.800000e-07	-7.087268e-06	-4.763620e-09	-4.973787e+01	-3.155981e+02
3.900000e-07	-7.032919e-06	-4.806612e-09	-4.935645e+01	-3.148371e+02
4.000000e-07	-6.977356e-06	-4.805601e-09	-4.896651e+01	-3.140790e+02
4.100000e-07	-6.920518e-06	-4.751088e-09	-4.856763e+01	-3.133249e+02
4.200000e-07	-6.862428e-06	-4.729846e-09	-4.815996e+01	-3.125740e+02
4.300000e-07	-6.803061e-06	-4.751160e-09	-4.774332e+01	-3.118231e+02
4.400000e-07	-6.742455e-06	-4.748594e-09	-4.731800e+01	-3.110672e+02
4.500000e-07	-6.680718e-06	-4.702490e-09	-4.688473e+01	-3.102995e+02
4.600000e-07	-6.617943e-06	-4.683201e-09	-4.644418e+01	-3.095124e+02
4.700000e-07	-6.554166e-06	-4.681766e-09	-4.599660e+01	-3.086980e+02
4.800000e-07	-6.489188e-06	-4.677632e-09	-4.554059e+01	-3.078482e+02
4.900000e-07	-6.422879e-06	-4.659980e-09	-4.507524e+01	-3.069563e+02
5.000000e-07	-6.355402e-06	-4.637006e-09	-4.460169e+01	-3.060166e+02
5.100000e-07	-6.286896e-06	-4.625918e-09	-4.412092e+01	-3.050253e+02
5.200000e-07	-6.217386e-06	-4.615122e-09	-4.363310e+01	-3.039808e+02
5.300000e-07	-6.146888e-06	-4.597283e-09	-4.313835e+01	-3.028837e+02
5.400000e-07	-6.075335e-06	-4.573125e-09	-4.263620e+01	-3.017365e+02
5.500000e-07	-6.002721e-06	-4.555748e-09	-4.212660e+01	-3.005437e+02
5.600000e-07	-5.929056e-06	-4.541784e-09	-4.160963e+01	-2.993113e+02
5.700000e-07	-5.854100e-06	-4.526266e-09	-4.108359e+01	-2.980461e+02
5.800000e-07	-5.777806e-06	-4.502694e-09	-4.054817e+01	-2.967551e+02
5.900000e-07	-5.700408e-06	-4.475924e-09	-4.000499e+01	-2.954452e+02
6.000000e-07	-5.621905e-06	-4.461917e-09	-3.945407e+01	-2.941221e+02
6.100000e-07	-5.542294e-06	-4.447314e-09	-3.889537e+01	-2.927901e+02
6.200000e-07	-5.461512e-06	-4.417201e-09	-3.832844e+01	-2.914515e+02
6.300000e-07	-5.379602e-06	-4.382727e-09	-3.775361e+01	-2.901063e+02
6.400000e-07	-5.296893e-06	-4.371082e-09	-3.717316e+01	-2.887525e+02
6.500000e-07	-5.213447e-06	-4.361530e-09	-3.658754e+01	-2.873857e+02
6.600000e-07	-5.129096e-06	-4.331549e-09	-3.599558e+01	-2.859996e+02
6.700000e-07	-5.043861e-06	-4.297628e-09	-3.539740e+01	-2.845866e+02
6.800000e-07	-4.957833e-06	-4.274978e-09	-3.479367e+01	-2.831382e+02
6.900000e-07	-4.871081e-06	-4.260978e-09	-3.418485e+01	-2.816456e+02
7.000000e-07	-4.783494e-06	-4.237392e-09	-3.357017e+01	-2.801004e+02
7.100000e-07	-4.694850e-06	-4.205089e-09	-3.294807e+01	-2.784953e+02
7.200000e-07	-4.605170e-06	-4.175459e-09	-3.231871e+01	-2.768245e+02
7.300000e-07	-4.514703e-06	-4.154410e-09	-3.168382e+01	-2.750842e+02
7.400000e-07	-4.423518e-06	-4.136370e-09	-3.104389e+01	-2.732728e+02
7.500000e-07	-4.331440e-06	-4.106229e-09	-3.039769e+01	-2.713907e+02
7.600000e-07	-4.238470e-06	-4.068116e-09	-2.974524e+01	-2.694404e+02
7.700000e-07	-4.144833e-06	-4.038305e-09	-2.908810e+01	-2.674261e+02
7.800000e-07	-4.050660e-06	-4.018125e-09	-2.842720e+01	-2.653528e+02
7.900000e-07	-3.955881e-06	-3.992589e-09	-2.776205e+01	-2.632262e+02
8.000000e-07	-3.860373e-06	-3.951477e-09	-2.709178e+01	-2.610514e+02
8.100000e-07	-3.763990e-06	-3.909972e-09	-2.641537e+01	-2.588327e+02
8.200000e-07	-3.666811e-06	-3.880625e-09	-2.573338e+01	-2.565726e+02
8.300000e-07	-3.569016e-06	-3.852986e-09	-2.504706e+01	-2.542713e+02
8.400000e-07	-3.470708e-06	-3.813723e-09	-2.435714e+01	-2.519267e+02
8.500000e-07	-3.371821e-06	-3.766586e-09	-2.366316e+01	-2.495337e+02
8.600000e-07	-3.272284e-06	-3.726601e-09	-2.296462e+01	-2.470846e+02
8.700000e-07	-3.172160e-06	-3.691822e-09	-2.226196e+01	-2.445695e+02
8.800000e-07	-3.071523e-06	-3.652593e-09	-2.155570e+01	-2.419763e+02
8.900000e-07	-2.970430e-06	-3.606814e-09	-2.084624e+01	-2.392922e+02
9.000000e-07	-2.868895e-06	-3.560734e-09	-2.013367e+01	-2.365036e+02
9.100000e-07	-2.766978e-06	-3.519566e-09	-1.941843e+01	-2.335976e+02
9.200000e-07	-2.664659e-06	-3.476026e-09	-1.870036e+01	-2.305623e+02
9.300000e-07	-2.561906e-06	-3.424610e-09	-1.797925e+01	-2.273876e+02
9.400000e-07	-2.458717e-06	-3.369248e-09	-1.725508e+01	-2.240660e+02
9.500000e-07	-2.355150e-06	-3.315753e-09	-1.652825e+01	-2.205922e+02
9.600000e-07	-2.251072e-06	-3.263650e-09	-1.579784e+01	-2.169633e+02
9.700000e-07	-2.146358e-06	-3.207975e-09	-1.506296e+01	-2.131785e+02
9.800000e-07	-2.041191e-06	-3.146084e-09	-1.432491e+01	-2.092381e+02
9.900000e-07	-1.935682e-06	-3.082931e-09	-1.358446e+01	-2.051425e+02
1.000000e-06	-1.829826e-06	-3.021616e-09	-1.284157e+01	-2.008914e+02
1.010000e-06	-1.723638e-06	-2.956108e-09	-1.209635e+01	-1.964816e+02
1.020000e-06	-1.617138e-06	-2.883471e-09	-1.134894e+01	-1.919065e+02
1.030000e-06	-1.510310e-06	-2.810454e-09	-1.059923e+01	-1.871540e+02
1.040000e-06	-1.403142e-06	-2.738491e-09	-9.847136e+00	-1.822058e+02
1.050000e-06	-1.295667e-06	-2.658770e-09	-9.092887e+00	-1.770367e+02
1.060000e-06	-1.187949e-06	-2.570306e-09	-8.336928e+00	-1.716138e+02
1.070000e-06	-1.080002e-06	-2.479172e-09	-7.579363e+00	-1.658968e+02
1.080000e-06	-9.717965e-07	-2.386983e-09	-6.819988e+00	-1.598389e+02
1.090000e-06	-8.633998e-07	-2.288609e-09	-6.059269e+00	-1.533878e+02
1.100000e-06	-7.548398e-07	-2.179878e-09	-5.297404e+00	-1.464876e+02
1.110000e-06	-6.461285e-07	-2.063721e-09	-4.534477e+00	-1.390810e+02
1.120000e-06	-5.373273e-07	-1.942485e-09	-3.770919e+00	-1.311123e+02
1.130000e-06	-4.284251e-07	-1.812946e-09	-3.006652e+00	-1.225300e+02
1.140000e-06	-3.194561e-07	-1.671036e-09	-2.241917e+00	-1.132902e+02
1.150000e-06	-2.104115e-07	-1.516392e-09	-1.476650e+00	-1.033595e+02
1.160000e-06	-1.012761e-07	-1.351497e-09	-7.107476e-01	-9.271813e+01
1.170000e-06	7.840952e-09	-1.180572e-09	5.502716e-02	-8.136191e+01
1.180000e-06	1.169196e-07	-1.001501e-09	8.205322e-01	-6.930450e+01
1.190000e-06	2.259927e-07	-8.119338e-10	1.585998e+00	-5.657842e+01
1.200000e-06	3.349802e-07	-6.114350e-10	2.350864e+00	-4.323551e+01
1.210000e-06	4.437997e-07	-4.026262e-10	3.114550e+00	-2.934637e+01
1.220000e-06	5.525034e-07	-1.868474e-10	3.877424e+00	-1.499914e+01
1.230000e-06	6.611011e-07	3.831320e-11	4.639553e+00	-2.972349e-01
1.240000e-06	7.695123e-07	2.711030e-10	5.400374e+00	1.464348e+01
1.250000e-06	8.777435e-07	5.073787e-10	6.159932e+00	2.969826e+01
1.260000e-06	9.857600e-07	7.391575e-10	6.917983e+00	4.473738e+01
1.270000e-06	1.093529e-06	9.672920e-10	7.674297e+00	5.963045e+01
1.280000e-06	1.201131e-06	1.193422e-09	8.429441e+00	7.425062e+01
1.290000e-06	1.308528e-06	1.414685e-09	9.183141e+00	8.847876e+01
1.300000e-06	1.415721e-06	1.625273e-09	9.935417e+00	1.022072e+02
1.310000e-06	1.522764e-06	1.822249e-09	1.068663e+01	1.153430e+02
1.320000e-06	1.629530e-06	2.007745e-09	1.143591e+01	1.278104e+02
1.330000e-06	1.735958e-06	2.184059e-09	1.218281e+01	1.395528e+02
1.340000e-06	1.842040e-06	2.349748e-09	1.292729e+01	1.505333e+02
1.350000e-06	1.947713e-06	2.500770e-09	1.366889e+01	1.607349e+02
1.360000e-06	2.052976e-06	2.640783e-09	1.440762e+01	1.701598e+02
1.370000e-06	2.157807e-06	2.770153e-09	1.514331e+01	1.788273e+02
1.380000e-06	2.262273e-06	2.887035e-09	1.587645e+01	1.867720e+02
1.390000e-06	2.366348e-06	2.991923e-09	1.660684e+01	1.940408e+02
1.400000e-06	2.469957e-06	3.089299e-09	1.733396e+01	2.006896e+02
1.410000e-06	2.573161e-06	3.182821e-09	1.805823e+01	2.067803e+02
1.420000e-06	2.675901e-06	3.268827e-09	1.877926e+01	2.123775e+02
1.430000e-06	2.778205e-06	3.349187e-09	1.949721e+01	2.175451e+02
1.440000e-06	2.880160e-06	3.425686e-09	2.021272e+01	2.223442e+02
1.450000e-06	2.981731e-06	3.497750e-09	2.092554e+01	2.268302e+02
1.460000e-06	3.082858e-06	3.566115e-09	2.163525e+01	2.310519e+02
1.470000e-06	3.183428e-06	3.628961e-09	2.234104e+01	2.350495e+02
1.480000e-06	3.283381e-06	3.687830e-09	2.304250e+01	2.388552e+02
1.490000e-06	3.382813e-06	3.744214e-09	2.374030e+01	2.424925e+02
1.500000e-06	3.481684e-06	3.798838e-09	2.443418e+01	2.459772e+02
1.510000e-06	3.579903e-06	3.849422e-09	2.512346e+01	2.493186e+02
1.520000e-06	3.677388e-06	3.894825e-09	2.580760e+01	2.525207e+02
1.530000e-06	3.774021e-06	3.940348e-09	2.648577e+01	2.555835e+02
1.540000e-06	3.869815e-06	3.987691e-09	2.715805e+01	2.585052e+02
1.550000e-06	3.964924e-06	4.032185e-09	2.782551e+01	2.612834e+02
1.560000e-06	4.059400e-06	4.068639e-09	2.848853e+01	2.639161e+02
1.570000e-06	4.153182e-06	4.099910e-09	2.914669e+01	2.664036e+02
1.580000e-06	4.246202e-06	4.133395e-09	2.979950e+01	2.687485e+02
1.590000e-06	4.338440e-06	4.167367e-09	3.044682e+01	2.709566e+02
1.600000e-06	4.429975e-06	4.197726e-09	3.108920e+01	2.730365e+02
1.610000e-06	4.520745e-06	4.224817e-09	3.172622e+01	2.749998e+02
1.620000e-06	4.610590e-06	4.253285e-09	3.235675e+01	2.768602e+02
1.630000e-06	4.699487e-06	4.284212e-09	3.298062e+01	2.786328e+02
1.640000e-06	4.787464e-06	4.312629e-09	3.359803e+01	2.803334e+02
1.650000e-06	4.874551e-06	4.337596e-09	3.420920e+01	2.819771e+02
1.660000e-06	4.960848e-06	4.360284e-09	3.481483e+01	2.835780e+02
1.670000e-06	5.046357e-06	4.381604e-09	3.541492e+01	2.851477e+02
1.680000e-06	5.131014e-06	4.403649e-09	3.600904e+01	2.866953e+02
1.690000e-06	5.214849e-06	4.426747e-09	3.659738e+01	2.882267e+02
1.700000e-06	5.297886e-06	4.448392e-09	3.718013e+01	2.897445e+02
1.710000e-06	5.380061e-06	4.467090e-09	3.775683e+01	2.912481e+02
1.720000e-06	5.461260e-06	4.486034e-09	3.832667e+01	2.927342e+02
1.730000e-06	5.541467e-06	4.506948e-09	3.888956e+01	2.941971e+02
1.740000e-06	5.620752e-06	4.527311e-09	3.944598e+01	2.956297e+02
1.750000e-06	5.699053e-06	4.544923e-09	3.999549e+01	2.970240e+02
1.760000e-06	5.776308e-06	4.561581e-09	4.053766e+01	2.983720e+02
1.770000e-06	5.852582e-06	4.578861e-09	4.107294e+01	2.996665e+02
1.780000e-06	5.927811e-06	4.594303e-09	4.160089e+01	3.009018e+02
1.790000e-06	6.001867e-06	4.607161e-09	4.212061e+01	3.020741e+02
1.800000e-06	6.074655e-06	4.619964e-09	4.263143e+01	3.031818e+02
1.810000e-06	6.146235e-06	4.635257e-09	4.313377e+01	3.042259e+02
1.820000e-06	6.216727e-06	4.652041e-09	4.362848e+01	3.052094e+02
1.830000e-06	6.286200e-06	4.669180e-09	4.411603e+01	3.061374e+02
1.840000e-06	6.354684e-06	4.685842e-09	4.459665e+01	3.070169e+02
1.850000e-06	6.422130e-06	4.701559e-09	4.506998e+01	3.078554e+02
1.860000e-06	6.488379e-06	4.714556e-09	4.553491e+01	3.086614e+02
1.870000e-06	6.553272e-06	4.724639e-09	4.599032e+01	3.094426e+02
1.880000e-06	6.616956e-06	4.735247e-09	4.643725e+01	3.102065e+02
1.890000e-06	6.679546e-06	4.745714e-09	4.687650e+01	3.109588e+02
1.900000e-06	6.741080e-06	4.756850e-09	4.730835e+01	3.117040e+02
1.910000e-06	6.801554e-06	4.768578e-09	4.773274e+01	3.124443e+02
1.920000e-06	6.860920e-06	4.779789e-09	4.814938e+01	3.131802e+02
1.930000e-06	6.919037e-06	4.790942e-09	4.855723e+01	3.139104e+02
1.940000e-06	6.975653e-06	4.800866e-09	4.895456e+01	3.146320e+02
1.950000e-06	7.030925e-06	4.810991e-09	4.934246e+01	3.153409e+02
1.960000e-06	7.085008e-06	4.821558e-09	4.972201e+01	3.160322e+02
1.970000e-06	7.137863e-06	4.831123e-09	5.009294e+01	3.167009e+02
1.980000e-06	7.189265e-06	4.839674e-09	5.045367e+01	3.173423e+02
1.990000e-06	7.239011e-06	4.850242e-09	5.080279e+01	3.179524e+02
2.000000e-06	7.287255e-06	4.861774e-09	5.114136e+01	3.185284e+02
2.010000e-06	7.334125e-06	4.872260e-09	5.147029e+01	3.190688e+02
2.020000e-06	7.379716e-06	4.880756e-09	5.179024e+01	3.195738e+02
2.030000e-06	7.424120e-06	4.890103e-09	5.210187e+01	3.200451e+02
2.040000e-06	7.467348e-06	4.900521e-09	5.240523e+01	3.204855e+02
2.050000e-06	7.509132e-06	4.907862e-09	5.269847e+01	3.208992e+02
2.060000e-06	7.549421e-06	4.914660e-09	5.298121e+01	3.212910e+02
2.070000e-06	7.588476e-06	4.921479e-09	5.325530e+01	3.216663e+02
2.080000e-06	7.626283e-06	4.929110e-09	5.352063e+01	3.220300e+02
2.090000e-06	7.662869e-06	4.938254e-09	5.377738e+01	3.223866e+02
2.100000e-06	7.698339e-06	4.947300e-09	5.402631e+01	3.227400e+02
2.110000e-06	7.732403e-06	4.953502e-09	5.426537e+01	3.230924e+02
2.120000e-06	7.764881e-06	4.959233e-09	5.449330e+01	3.234450e+02
2.130000e-06	7.796021e-06	4.967123e-09	5.471183e+01	3.237973e+02
2.140000e-06	7.825924e-06	4.974766e-09	5.492169e+01	3.241478e+02
2.150000e-06	7.854594e-06	4.983070e-09	5.512290e+01	3.244933e+02
2.160000e-06	7.882025e-06	4.990003e-09	5.531540e+01	3.248302e+02
2.170000e-06	7.907974e-06	4.995455e-09	5.549752e+01	3.251539e+02
2.180000e-06	7.932313e-06	5.001072e-09	5.566832e+01	3.254599e+02
2.190000e-06	7.955230e-06	5.006313e-09	5.582915e+01	3.257438e+02
2.200000e-06	7.976861e-06	5.009568e-09	5.598096e+01	3.260017e+02
2.210000e-06	7.997228e-06	5.011173e-09	5.612389e+01	3.262308e+02
2.220000e-06	8.016366e-06	5.015142e-09	5.625820e+01	3.264293e+02
2.230000e-06	8.034055e-06	5.020530e-09	5.638234e+01	3.265965e+02
2.240000e-06	8.050235e-06	5.023580e-09	5.649589e+01	3.267331e+02
2.250000e-06	8.064921e-06	5.026377e-09	5.659895e+01	3.268409e+02
2.260000e-06	8.078012e-06	5.030914e-09	5.669083e+01	3.269226e+02
2.270000e-06	8.089569e-06	5.035405e-09	5.677193e+01	3.269817e+02
2.280000e-06	8.099427e-06	5.040087e-09	5.684111e+01	3.270218e+02
2.290000e-06	8.107630e-06	5.044117e-09	5.689868e+01	3.270466e+02
2.300000e-06	8.114454e-06	5.045908e-09	5.694657e+01	3.270596e+02
2.310000e-06	8.119923e-06	5.046670e-09	5.698495e+01	3.270636e+02
2.320000e-06	8.124076e-06	5.046875e-09	5.701410e+01	3.270606e+02
2.330000e-06	8.126844e-06	5.046267e-09	5.703353e+01	3.270516e+02
2.340000e-06	8.127980e-06	5.046151e-09	5.704150e+01	3.270367e+02
2.350000e-06	8.127590e-06	5.047487e-09	5.703876e+01	3.270150e+02
2.360000e-06	8.125924e-06	5.048631e-09	5.702707e+01	3.269851e+02
2.370000e-06	8.122969e-06	5.046323e-09	5.700633e+01	3.269447e+02
2.380000e-06	8.118815e-06	5.045560e-09	5.697717e+01	3.268918e+02
2.390000e-06	8.113297e-06	5.045056e-09	5.693845e+01	3.268242e+02
2.400000e-06	8.106167e-06	5.045991e-09	5.688841e+01	3.267403e+02
2.410000e-06	8.097744e-06	5.045458e-09	5.682930e+01	3.266391e+02
2.420000e-06	8.088179e-06	5.036959e-09	5.676217e+01	3.265207e+02
2.430000e-06	8.077278e-06	5.043431e-09	5.668567e+01	3.263860e+02
2.440000e-06	8.064709e-06	5.003727e-09	5.659746e+01	3.262371e+02
2.450000e-06	8.049942e-06	4.960505e-09	5.649383e+01	3.260769e+02
2.460000e-06	8.033089e-06	4.978163e-09	5.637556e+01	3.259091e+02
2.470000e-06	8.014809e-06	4.978991e-09	5.624727e+01	3.257377e+02
2.480000e-06	7.995632e-06	5.085604e-09	5.611269e+01	3.255668e+02
2.490000e-06	7.975819e-06	5.116488e-09	5.597364e+01	3.254000e+02
2.500000e-06	7.954672e-06	4.937180e-09	5.582523e+01	3.252402e+02
2.510000e-06	7.931698e-06	5.056489e-09	5.566401e+01	3.250892e+02
2.520000e-06	7.907553e-06	5.096689e-09	5.549456e+01	3.249472e+02
2.530000e-06	7.882233e-06	5.018024e-09	5.531686e+01	3.248127e+02
2.540000e-06	7.855302e-06	5.129040e-09	5.512787e+01	3.246826e+02
2.550000e-06	7.827196e-06	4.965142e-09	5.493062e+01	3.245520e+02
2.560000e-06	7.797867e-06	4.862433e-09	5.472479e+01	3.244146e+02
2.570000e-06	7.766946e-06	4.995446e-09	5.450779e+01	3.242629e+02
2.580000e-06	7.734519e-06	4.896458e-09	5.428022e+01	3.240887e+02
2.590000e-06	7.700660e-06	4.823342e-09	5.404260e+01	3.238835e+02
2.600000e-06	7.665593e-06	4.842132e-09	5.379650e+01	3.236394e+02
2.610000e-06	7.629354e-06	4.835767e-09	5.354218e+01	3.233490e+02
2.620000e-06	7.591558e-06	4.945096e-09	5.327693e+01	3.230067e+02
2.630000e-06	7.552161e-06	4.846926e-09	5.300044e+01	3.226085e+02
2.640000e-06	7.511438e-06	4.803969e-09	5.271465e+01	3.221526e+02
2.650000e-06	7.469448e-06	4.861327e-09	5.241997e+01	3.216392e+02
2.660000e-06	7.426208e-06	4.819952e-09	5.211652e+01	3.210712e+02
2.670000e-06	7.381773e-06	4.868072e-09	5.180468e+01	3.204531e+02
2.680000e-06	7.335983e-06	4.817335e-09	5.148333e+01	3.197913e+02
2.690000e-06	7.288615e-06	4.783865e-09	5.115090e+01	3.190935e+02
2.700000e-06	7.239976e-06	4.784576e-09	5.080956e+01	3.183681e+02
2.710000e-06	7.190089e-06	4.798760e-09	5.045945e+01	3.176234e+02
2.720000e-06	7.138702e-06	4.842877e-09	5.009882e+01	3.168673e+02
2.730000e-06	7.085838e-06	4.732024e-09	4.972783e+01	3.161064e+02
2.740000e-06	7.031460e-06	4.742591e-09	4.934621e+01	3.153458e+02
2.750000e-06	6.975685e-06	4.775897e-09	4.895478e+01	3.145886e+02
2.760000e-06	6.918597e-06	4.745216e-09	4.855414e+01	3.138355e+02
2.770000e-06	6.860268e-06	4.726023e-09	4.814480e+01	3.130849e+02
2.780000e-06	6.800921e-06	4.684500e-09	4.772831e+01	3.123333e+02
2.790000e-06	6.740448e-06	4.719453e-09	4.730391e+01	3.115750e+02
2.800000e-06	6.678646e-06	4.691495e-09	4.687019e+01	3.108032e+02
2.810000e-06	6.615609e-06	4.675517e-09	4.642780e+01	3.100100e+02
2.820000e-06	6.551389e-06	4.677198e-09	4.597711e+01	3.091874e+02
2.830000e-06	6.485982e-06	4.656865e-09	4.551809e+01	3.083276e+02
2.840000e-06	6.419498e-06	4.640441e-09	4.505151e+01	3.074242e+02
2.850000e-06	6.352014e-06	4.609065e-09	4.457791e+01	3.064718e+02
2.860000e-06	6.283359e-06	4.610758e-09	4.409610e+01	3.054672e+02
2.870000e-06	6.213536e-06	4.585857e-09	4.360609e+01	3.044094e+02
2.880000e-06	6.142654e-06	4.570712e-09	4.310864e+01	3.032994e+02
2.890000e-06	6.070651e-06	4.555190e-09	4.260333e+01	3.021403e+02
2.900000e-06	5.997549e-06	4.532521e-09	4.209030e+01	3.009369e+02
2.910000e-06	5.923457e-06	4.518543e-09	4.157033e+01	2.996956e+02
2.920000e-06	5.848343e-06	4.509983e-09	4.104319e+01	2.984233e+02
2.930000e-06	5.771993e-06	4.502944e-09	4.050737e+01	2.971269e+02
2.940000e-06	5.694362e-06	4.461359e-09	3.996256e+01	2.958132e+02
2.950000e-06	5.615576e-06	4.437752e-09	3.940965e+01	2.944875e+02
