# Temperatura_=_20.0
# Concentracion g/m^3_=_9000.0
# C_Vs_to_Am_M_A/Vsm_=_65563218390.804596
# pendiente_HvsI_1/m_=_3716.3
# ordenada_HvsI_A/m_=_1297.0
# frecuencia_Hz_=_212982.31295440052

Tiempo_(s)	Campo_(V.s)	Magnetizacion_(V.s)	Campo_(kA/m)	Magnetizacion_(A/m)
0.000000e+00	-8.081478e-06	-5.063281e-09	-5.692321e+01	-3.320174e+02
1.000000e-08	-8.080646e-06	-5.062139e-09	-5.691735e+01	-3.320012e+02
2.000000e-08	-8.078147e-06	-5.065488e-09	-5.689974e+01	-3.319752e+02
3.000000e-08	-8.074297e-06	-5.066684e-09	-5.687262e+01	-3.319350e+02
4.000000e-08	-8.069324e-06	-5.066861e-09	-5.683760e+01	-3.318759e+02
5.000000e-08	-8.063003e-06	-5.062843e-09	-5.679307e+01	-3.317938e+02
6.000000e-08	-8.055438e-06	-5.056576e-09	-5.673978e+01	-3.316850e+02
7.000000e-08	-8.046535e-06	-5.051680e-09	-5.667708e+01	-3.315472e+02
8.000000e-08	-8.035973e-06	-5.044526e-09	-5.660268e+01	-3.313795e+02
9.000000e-08	-8.023775e-06	-5.047892e-09	-5.651677e+01	-3.311823e+02
1.000000e-07	-8.009784e-06	-5.108587e-09	-5.641821e+01	-3.309577e+02
1.100000e-07	-7.993717e-06	-5.122348e-09	-5.630505e+01	-3.307092e+02
1.200000e-07	-7.975976e-06	-5.076664e-09	-5.618009e+01	-3.304414e+02
1.300000e-07	-7.957035e-06	-5.034618e-09	-5.604667e+01	-3.301597e+02
1.400000e-07	-7.937148e-06	-4.946485e-09	-5.590659e+01	-3.298697e+02
1.500000e-07	-7.916317e-06	-5.001080e-09	-5.575987e+01	-3.295770e+02
1.600000e-07	-7.894237e-06	-5.154267e-09	-5.560434e+01	-3.292863e+02
1.700000e-07	-7.871023e-06	-5.006393e-09	-5.544083e+01	-3.290012e+02
1.800000e-07	-7.846476e-06	-4.967896e-09	-5.526793e+01	-3.287240e+02
1.900000e-07	-7.820104e-06	-5.029313e-09	-5.508218e+01	-3.284548e+02
2.000000e-07	-7.792439e-06	-4.967219e-09	-5.488731e+01	-3.281922e+02
2.100000e-07	-7.763800e-06	-5.101171e-09	-5.468559e+01	-3.279325e+02
2.200000e-07	-7.733681e-06	-5.054150e-09	-5.447344e+01	-3.276707e+02
2.300000e-07	-7.702243e-06	-4.889995e-09	-5.425200e+01	-3.274002e+02
2.400000e-07	-7.669633e-06	-4.990522e-09	-5.402231e+01	-3.271134e+02
2.500000e-07	-7.635424e-06	-5.068023e-09	-5.378135e+01	-3.268026e+02
2.600000e-07	-7.599701e-06	-5.014045e-09	-5.352973e+01	-3.264598e+02
2.700000e-07	-7.562650e-06	-4.944309e-09	-5.326875e+01	-3.260780e+02
2.800000e-07	-7.524235e-06	-4.893870e-09	-5.299817e+01	-3.256515e+02
2.900000e-07	-7.484654e-06	-4.975059e-09	-5.271938e+01	-3.251761e+02
3.000000e-07	-7.443764e-06	-5.005465e-09	-5.243136e+01	-3.246495e+02
3.100000e-07	-7.401233e-06	-4.935251e-09	-5.213179e+01	-3.240718e+02
3.200000e-07	-7.357211e-06	-4.891291e-09	-5.182171e+01	-3.234449e+02
3.300000e-07	-7.311828e-06	-4.914281e-09	-5.150205e+01	-3.227726e+02
3.400000e-07	-7.265095e-06	-4.939557e-09	-5.117288e+01	-3.220607e+02
3.500000e-07	-7.217078e-06	-4.901802e-09	-5.083466e+01	-3.213156e+02
3.600000e-07	-7.167459e-06	-4.884430e-09	-5.048516e+01	-3.205448e+02
3.700000e-07	-7.115982e-06	-4.835949e-09	-5.012258e+01	-3.197553e+02
3.800000e-07	-7.062997e-06	-4.841116e-09	-4.974937e+01	-3.189540e+02
3.900000e-07	-7.008840e-06	-4.892690e-09	-4.936790e+01	-3.181463e+02
4.000000e-07	-6.953500e-06	-4.836773e-09	-4.897811e+01	-3.173364e+02
4.100000e-07	-6.896958e-06	-4.789098e-09	-4.857985e+01	-3.165262e+02
4.200000e-07	-6.839123e-06	-4.812814e-09	-4.817248e+01	-3.157160e+02
4.300000e-07	-6.779974e-06	-4.840905e-09	-4.775585e+01	-3.149037e+02
4.400000e-07	-6.719601e-06	-4.794737e-09	-4.733060e+01	-3.140855e+02
4.500000e-07	-6.658015e-06	-4.745161e-09	-4.689681e+01	-3.132560e+02
4.600000e-07	-6.595391e-06	-4.752837e-09	-4.645571e+01	-3.124089e+02
4.700000e-07	-6.531830e-06	-4.751414e-09	-4.600801e+01	-3.115371e+02
4.800000e-07	-6.467067e-06	-4.729326e-09	-4.555184e+01	-3.106337e+02
4.900000e-07	-6.401017e-06	-4.696148e-09	-4.508661e+01	-3.096922e+02
5.000000e-07	-6.333779e-06	-4.687785e-09	-4.461300e+01	-3.087076e+02
5.100000e-07	-6.265480e-06	-4.689221e-09	-4.413193e+01	-3.076760e+02
5.200000e-07	-6.196281e-06	-4.672219e-09	-4.364451e+01	-3.065957e+02
5.300000e-07	-6.126060e-06	-4.641674e-09	-4.314990e+01	-3.054668e+02
5.400000e-07	-6.054683e-06	-4.617791e-09	-4.264714e+01	-3.042913e+02
5.500000e-07	-5.982239e-06	-4.612202e-09	-4.213687e+01	-3.030729e+02
5.600000e-07	-5.908859e-06	-4.600277e-09	-4.162001e+01	-3.018168e+02
5.700000e-07	-5.834233e-06	-4.577852e-09	-4.109437e+01	-3.005288e+02
5.800000e-07	-5.758175e-06	-4.543598e-09	-4.055864e+01	-2.992151e+02
5.900000e-07	-5.681062e-06	-4.522789e-09	-4.001548e+01	-2.978817e+02
6.000000e-07	-5.602962e-06	-4.521843e-09	-3.946537e+01	-2.965333e+02
6.100000e-07	-5.523706e-06	-4.500026e-09	-3.890712e+01	-2.951736e+02
6.200000e-07	-5.443196e-06	-4.457992e-09	-3.834004e+01	-2.938041e+02
6.300000e-07	-5.361531e-06	-4.430943e-09	-3.776481e+01	-2.924245e+02
6.400000e-07	-5.279037e-06	-4.428744e-09	-3.718376e+01	-2.910321e+02
6.500000e-07	-5.195757e-06	-4.410861e-09	-3.659716e+01	-2.896223e+02
6.600000e-07	-5.111618e-06	-4.370289e-09	-3.600451e+01	-2.881887e+02
6.700000e-07	-5.026684e-06	-4.338998e-09	-3.540627e+01	-2.867234e+02
6.800000e-07	-4.940883e-06	-4.322684e-09	-3.480191e+01	-2.852178e+02
6.900000e-07	-4.854327e-06	-4.305788e-09	-3.419224e+01	-2.836632e+02
7.000000e-07	-4.767014e-06	-4.275744e-09	-3.357724e+01	-2.820514e+02
7.100000e-07	-4.678652e-06	-4.241812e-09	-3.295485e+01	-2.803752e+02
7.200000e-07	-4.589365e-06	-4.216584e-09	-3.232594e+01	-2.786292e+02
7.300000e-07	-4.499438e-06	-4.198816e-09	-3.169252e+01	-2.768098e+02
7.400000e-07	-4.408755e-06	-4.176035e-09	-3.105379e+01	-2.749157e+02
7.500000e-07	-4.317030e-06	-4.138798e-09	-3.040770e+01	-2.729480e+02
7.600000e-07	-4.224378e-06	-4.102182e-09	-2.975510e+01	-2.709096e+02
7.700000e-07	-4.131079e-06	-4.078358e-09	-2.909793e+01	-2.688053e+02
7.800000e-07	-4.037189e-06	-4.054879e-09	-2.843660e+01	-2.666409e+02
7.900000e-07	-3.942704e-06	-4.019417e-09	-2.777107e+01	-2.644225e+02
8.000000e-07	-3.847568e-06	-3.975312e-09	-2.710097e+01	-2.621561e+02
8.100000e-07	-3.751621e-06	-3.941689e-09	-2.642515e+01	-2.598466e+02
8.200000e-07	-3.654821e-06	-3.916759e-09	-2.574333e+01	-2.574973e+02
8.300000e-07	-3.557390e-06	-3.881136e-09	-2.505705e+01	-2.551089e+02
8.400000e-07	-3.459498e-06	-3.835287e-09	-2.436753e+01	-2.526798e+02
8.500000e-07	-3.360999e-06	-3.793063e-09	-2.367374e+01	-2.502053e+02
8.600000e-07	-3.261791e-06	-3.758854e-09	-2.297496e+01	-2.476781e+02
8.700000e-07	-3.161964e-06	-3.720503e-09	-2.227181e+01	-2.450882e+02
8.800000e-07	-3.061615e-06	-3.674502e-09	-2.156498e+01	-2.424238e+02
8.900000e-07	-2.960831e-06	-3.629194e-09	-2.085510e+01	-2.396716e+02
9.000000e-07	-2.859677e-06	-3.587099e-09	-2.014260e+01	-2.368179e+02
9.100000e-07	-2.758141e-06	-3.545130e-09	-1.942742e+01	-2.338492e+02
9.200000e-07	-2.656188e-06	-3.496284e-09	-1.870929e+01	-2.307531e+02
9.300000e-07	-2.553788e-06	-3.440784e-09	-1.798802e+01	-2.275190e+02
9.400000e-07	-2.450980e-06	-3.389099e-09	-1.726388e+01	-2.241385e+02
9.500000e-07	-2.347801e-06	-3.338846e-09	-1.653712e+01	-2.206058e+02
9.600000e-07	-2.244116e-06	-3.283219e-09	-1.580680e+01	-2.169174e+02
9.700000e-07	-2.139897e-06	-3.221420e-09	-1.507271e+01	-2.130720e+02
9.800000e-07	-2.035200e-06	-3.158314e-09	-1.433526e+01	-2.090695e+02
9.900000e-07	-1.930093e-06	-3.100038e-09	-1.359492e+01	-2.049101e+02
1.000000e-06	-1.824661e-06	-3.039109e-09	-1.285230e+01	-2.005933e+02
1.010000e-06	-1.718925e-06	-2.970126e-09	-1.210753e+01	-1.961162e+02
1.020000e-06	-1.612873e-06	-2.895891e-09	-1.136054e+01	-1.914722e+02
1.030000e-06	-1.506549e-06	-2.822654e-09	-1.061162e+01	-1.866498e+02
1.040000e-06	-1.399917e-06	-2.749426e-09	-9.860544e+00	-1.816311e+02
1.050000e-06	-1.292922e-06	-2.666164e-09	-9.106909e+00	-1.763915e+02
1.060000e-06	-1.185620e-06	-2.576342e-09	-8.351109e+00	-1.708987e+02
1.070000e-06	-1.077960e-06	-2.486202e-09	-7.592789e+00	-1.651131e+02
1.080000e-06	-9.699940e-07	-2.393908e-09	-6.832311e+00	-1.589885e+02
1.090000e-06	-8.618592e-07	-2.293923e-09	-6.070645e+00	-1.524732e+02
1.100000e-06	-7.535675e-07	-2.183055e-09	-5.307875e+00	-1.455115e+02
1.110000e-06	-6.451681e-07	-2.065333e-09	-4.544346e+00	-1.380467e+02
1.120000e-06	-5.367139e-07	-1.941725e-09	-3.780432e+00	-1.300231e+02
1.130000e-06	-4.281142e-07	-1.810116e-09	-3.015492e+00	-1.213892e+02
1.140000e-06	-3.193763e-07	-1.666848e-09	-2.249579e+00	-1.121010e+02
1.150000e-06	-2.106825e-07	-1.511228e-09	-1.483976e+00	-1.021249e+02
1.160000e-06	-1.019953e-07	-1.347603e-09	-7.184207e-01	-9.144065e+01
1.170000e-06	6.722553e-09	-1.176410e-09	4.735140e-02	-8.004374e+01
1.180000e-06	1.154523e-07	-9.944731e-10	8.132071e-01	-6.794729e+01
1.190000e-06	2.241558e-07	-8.021817e-10	1.578878e+00	-5.518336e+01
1.200000e-06	3.327701e-07	-6.016706e-10	2.343920e+00	-4.180329e+01
1.210000e-06	4.412971e-07	-3.901725e-10	3.108348e+00	-2.787729e+01
1.220000e-06	5.497424e-07	-1.677232e-10	3.872200e+00	-1.349313e+01
1.230000e-06	6.581083e-07	5.992480e-11	4.635493e+00	1.246024e+00
1.240000e-06	7.662908e-07	2.900097e-10	5.397494e+00	1.622447e+01
1.250000e-06	8.742138e-07	5.240530e-10	6.157667e+00	3.131750e+01
1.260000e-06	9.819073e-07	7.574736e-10	6.916224e+00	4.639539e+01
1.270000e-06	1.089337e-06	9.870440e-10	7.672921e+00	6.132761e+01
1.280000e-06	1.196466e-06	1.213780e-09	8.427504e+00	7.598718e+01
1.290000e-06	1.303300e-06	1.435351e-09	9.180002e+00	9.025476e+01
1.300000e-06	1.409823e-06	1.646555e-09	9.930321e+00	1.040225e+02
1.310000e-06	1.516054e-06	1.844683e-09	1.067857e+01	1.171972e+02
1.320000e-06	1.621994e-06	2.033387e-09	1.142478e+01	1.297031e+02
1.330000e-06	1.727735e-06	2.209548e-09	1.216958e+01	1.414833e+02
1.340000e-06	1.833311e-06	2.372616e-09	1.291322e+01	1.525010e+02
1.350000e-06	1.938634e-06	2.523964e-09	1.365508e+01	1.627394e+02
1.360000e-06	2.043678e-06	2.664142e-09	1.439498e+01	1.722005e+02
1.370000e-06	2.148370e-06	2.792979e-09	1.513239e+01	1.809040e+02
1.380000e-06	2.252613e-06	2.908209e-09	1.586664e+01	1.888846e+02
1.390000e-06	2.356339e-06	3.012388e-09	1.659726e+01	1.961895e+02
1.400000e-06	2.459573e-06	3.111902e-09	1.732440e+01	2.028750e+02
1.410000e-06	2.562361e-06	3.207808e-09	1.804841e+01	2.090032e+02
1.420000e-06	2.664778e-06	3.295092e-09	1.876979e+01	2.146389e+02
1.430000e-06	2.766788e-06	3.375041e-09	1.948832e+01	2.198463e+02
1.440000e-06	2.868345e-06	3.451408e-09	2.020365e+01	2.246867e+02
1.450000e-06	2.969506e-06	3.522824e-09	2.091620e+01	2.292158e+02
1.460000e-06	3.070281e-06	3.589368e-09	2.162602e+01	2.334823e+02
1.470000e-06	3.170633e-06	3.651766e-09	2.233287e+01	2.375266e+02
1.480000e-06	3.270351e-06	3.710090e-09	2.303525e+01	2.413810e+02
1.490000e-06	3.369311e-06	3.766306e-09	2.373229e+01	2.450689e+02
1.500000e-06	3.467573e-06	3.821670e-09	2.442441e+01	2.486063e+02
1.510000e-06	3.565246e-06	3.873163e-09	2.511239e+01	2.520024e+02
1.520000e-06	3.662313e-06	3.919373e-09	2.579610e+01	2.552612e+02
1.530000e-06	3.758619e-06	3.963616e-09	2.647444e+01	2.583830e+02
1.540000e-06	3.854056e-06	4.009551e-09	2.714667e+01	2.613658e+02
1.550000e-06	3.948758e-06	4.053803e-09	2.781372e+01	2.642073e+02
1.560000e-06	4.042837e-06	4.090023e-09	2.847638e+01	2.669057e+02
1.570000e-06	4.136289e-06	4.123001e-09	2.913462e+01	2.694611e+02
1.580000e-06	4.229116e-06	4.157791e-09	2.978847e+01	2.718762e+02
1.590000e-06	4.321203e-06	4.190709e-09	3.043709e+01	2.741565e+02
1.600000e-06	4.412406e-06	4.222023e-09	3.107950e+01	2.763107e+02
1.610000e-06	4.502692e-06	4.252744e-09	3.171544e+01	2.783500e+02
1.620000e-06	4.592165e-06	4.282762e-09	3.234566e+01	2.802875e+02
1.630000e-06	4.680796e-06	4.313251e-09	3.296995e+01	2.821381e+02
1.640000e-06	4.768456e-06	4.342483e-09	3.358740e+01	2.839166e+02
1.650000e-06	4.855242e-06	4.367839e-09	3.419869e+01	2.856376e+02
1.660000e-06	4.941282e-06	4.389125e-09	3.480472e+01	2.873141e+02
1.670000e-06	5.026539e-06	4.409470e-09	3.540525e+01	2.889571e+02
1.680000e-06	5.111033e-06	4.429994e-09	3.600039e+01	2.905747e+02
1.690000e-06	5.194711e-06	4.451923e-09	3.658979e+01	2.921720e+02
1.700000e-06	5.277459e-06	4.475068e-09	3.717264e+01	2.937509e+02
1.710000e-06	5.359298e-06	4.497362e-09	3.774909e+01	2.953103e+02
1.720000e-06	5.440259e-06	4.518037e-09	3.831935e+01	2.968464e+02
1.730000e-06	5.520230e-06	4.538484e-09	3.888264e+01	2.983535e+02
1.740000e-06	5.599177e-06	4.560060e-09	3.943871e+01	2.998246e+02
1.750000e-06	5.677132e-06	4.579424e-09	3.998781e+01	3.012519e+02
1.760000e-06	5.754130e-06	4.595544e-09	4.053015e+01	3.026283e+02
1.770000e-06	5.830163e-06	4.610900e-09	4.106570e+01	3.039475e+02
1.780000e-06	5.904995e-06	4.627362e-09	4.159280e+01	3.052048e+02
1.790000e-06	5.978575e-06	4.643967e-09	4.211106e+01	3.063976e+02
1.800000e-06	6.050980e-06	4.658084e-09	4.262106e+01	3.075259e+02
1.810000e-06	6.122320e-06	4.672102e-09	4.312356e+01	3.085919e+02
1.820000e-06	6.192681e-06	4.688516e-09	4.361915e+01	3.095999e+02
1.830000e-06	6.261998e-06	4.706786e-09	4.410740e+01	3.105564e+02
1.840000e-06	6.330329e-06	4.723390e-09	4.458870e+01	3.114691e+02
1.850000e-06	6.397636e-06	4.739286e-09	4.506279e+01	3.123466e+02
1.860000e-06	6.463706e-06	4.752460e-09	4.552816e+01	3.131974e+02
1.870000e-06	6.528472e-06	4.764727e-09	4.598435e+01	3.140298e+02
1.880000e-06	6.591989e-06	4.777174e-09	4.643175e+01	3.148505e+02
1.890000e-06	6.654434e-06	4.786513e-09	4.687159e+01	3.156651e+02
1.900000e-06	6.715850e-06	4.796057e-09	4.730418e+01	3.164770e+02
1.910000e-06	6.776177e-06	4.808556e-09	4.772910e+01	3.172874e+02
1.920000e-06	6.835350e-06	4.823288e-09	4.814590e+01	3.180956e+02
1.930000e-06	6.893151e-06	4.836943e-09	4.855303e+01	3.188988e+02
1.940000e-06	6.949550e-06	4.848471e-09	4.895028e+01	3.196927e+02
1.950000e-06	7.004666e-06	4.859507e-09	4.933850e+01	3.204720e+02
1.960000e-06	7.058545e-06	4.873752e-09	4.971801e+01	3.212306e+02
1.970000e-06	7.111178e-06	4.886324e-09	5.008874e+01	3.219627e+02
1.980000e-06	7.162303e-06	4.893684e-09	5.044885e+01	3.226627e+02
1.990000e-06	7.211731e-06	4.900732e-09	5.079700e+01	3.233264e+02
2.000000e-06	7.259681e-06	4.909918e-09	5.113474e+01	3.239507e+02
2.010000e-06	7.306377e-06	4.921156e-09	5.146366e+01	3.245346e+02
2.020000e-06	7.351881e-06	4.930731e-09	5.178417e+01	3.250784e+02
2.030000e-06	7.396184e-06	4.939636e-09	5.209622e+01	3.255845e+02
2.040000e-06	7.439228e-06	4.950493e-09	5.239941e+01	3.260566e+02
2.050000e-06	7.480825e-06	4.963045e-09	5.269241e+01	3.264996e+02
2.060000e-06	7.520981e-06	4.973768e-09	5.297525e+01	3.269194e+02
2.070000e-06	7.559920e-06	4.978880e-09	5.324953e+01	3.273217e+02
2.080000e-06	7.597679e-06	4.981361e-09	5.351549e+01	3.277122e+02
2.090000e-06	7.634203e-06	4.987270e-09	5.377275e+01	3.280958e+02
2.100000e-06	7.669496e-06	4.995723e-09	5.402134e+01	3.284762e+02
2.110000e-06	7.703352e-06	5.002246e-09	5.425981e+01	3.288558e+02
2.120000e-06	7.735714e-06	5.009312e-09	5.448776e+01	3.292352e+02
2.130000e-06	7.766771e-06	5.017707e-09	5.470651e+01	3.296133e+02
2.140000e-06	7.796558e-06	5.026222e-09	5.491632e+01	3.299877e+02
2.150000e-06	7.825152e-06	5.035893e-09	5.511773e+01	3.303546e+02
2.160000e-06	7.852506e-06	5.043846e-09	5.531040e+01	3.307090e+02
2.170000e-06	7.878328e-06	5.047085e-09	5.549228e+01	3.310459e+02
2.180000e-06	7.902563e-06	5.048177e-09	5.566299e+01	3.313598e+02
2.190000e-06	7.925416e-06	5.049438e-09	5.582395e+01	3.316460e+02
2.200000e-06	7.946992e-06	5.052251e-09	5.597593e+01	3.319003e+02
2.210000e-06	7.967354e-06	5.055681e-09	5.611935e+01	3.321200e+02
2.220000e-06	7.986476e-06	5.059041e-09	5.625404e+01	3.323037e+02
2.230000e-06	8.004089e-06	5.065108e-09	5.637810e+01	3.324516e+02
2.240000e-06	8.020173e-06	5.071135e-09	5.649139e+01	3.325655e+02
2.250000e-06	8.034838e-06	5.074548e-09	5.659469e+01	3.326484e+02
2.260000e-06	8.048005e-06	5.078193e-09	5.668743e+01	3.327045e+02
2.270000e-06	8.059653e-06	5.082867e-09	5.676948e+01	3.327388e+02
2.280000e-06	8.069523e-06	5.086245e-09	5.683900e+01	3.327565e+02
2.290000e-06	8.077709e-06	5.088129e-09	5.689666e+01	3.327626e+02
2.300000e-06	8.084554e-06	5.089528e-09	5.694487e+01	3.327615e+02
2.310000e-06	8.090003e-06	5.089514e-09	5.698325e+01	3.327568e+02
2.320000e-06	8.094192e-06	5.088598e-09	5.701276e+01	3.327506e+02
2.330000e-06	8.097088e-06	5.088464e-09	5.703316e+01	3.327438e+02
2.340000e-06	8.098273e-06	5.089377e-09	5.704150e+01	3.327356e+02
2.350000e-06	8.097896e-06	5.090749e-09	5.703885e+01	3.327240e+02
2.360000e-06	8.096224e-06	5.089245e-09	5.702707e+01	3.327057e+02
2.370000e-06	8.093219e-06	5.084059e-09	5.700590e+01	3.326765e+02
2.380000e-06	8.089086e-06	5.082248e-09	5.697679e+01	3.326320e+02
2.390000e-06	8.083612e-06	5.080397e-09	5.693823e+01	3.325675e+02
2.400000e-06	8.076512e-06	5.080701e-09	5.688823e+01	3.324790e+02
2.410000e-06	8.068122e-06	5.082863e-09	5.682913e+01	3.323631e+02
2.420000e-06	8.058602e-06	5.089769e-09	5.676208e+01	3.322179e+02
2.430000e-06	8.047857e-06	5.092094e-09	5.668639e+01	3.320426e+02
2.440000e-06	8.035574e-06	5.003489e-09	5.659987e+01	3.318383e+02
2.450000e-06	8.021059e-06	4.974436e-09	5.649763e+01	3.316074e+02
2.460000e-06	8.004300e-06	5.012942e-09	5.637959e+01	3.313535e+02
2.470000e-06	7.986006e-06	5.064373e-09	5.625073e+01	3.310817e+02
2.480000e-06	7.966832e-06	5.206376e-09	5.611567e+01	3.307974e+02
2.490000e-06	7.947086e-06	5.072608e-09	5.597659e+01	3.305062e+02
2.500000e-06	7.926025e-06	4.920747e-09	5.582825e+01	3.302135e+02
2.510000e-06	7.903039e-06	5.111107e-09	5.566634e+01	3.299239e+02
2.520000e-06	7.878944e-06	5.040813e-09	5.549663e+01	3.296407e+02
2.530000e-06	7.853795e-06	5.052176e-09	5.531948e+01	3.293655e+02
2.540000e-06	7.826914e-06	5.144589e-09	5.513014e+01	3.290981e+02
2.550000e-06	7.798903e-06	4.887724e-09	5.493284e+01	3.288366e+02
2.560000e-06	7.769865e-06	4.986941e-09	5.472831e+01	3.285770e+02
2.570000e-06	7.739163e-06	5.125854e-09	5.451206e+01	3.283136e+02
2.580000e-06	7.706862e-06	4.912688e-09	5.428453e+01	3.280397e+02
2.590000e-06	7.673112e-06	4.917488e-09	5.404681e+01	3.277477e+02
2.600000e-06	7.638225e-06	4.943185e-09	5.380108e+01	3.274295e+02
2.610000e-06	7.602254e-06	4.992753e-09	5.354771e+01	3.270776e+02
2.620000e-06	7.564677e-06	5.049309e-09	5.328303e+01	3.266851e+02
2.630000e-06	7.525412e-06	4.877423e-09	5.300646e+01	3.262467e+02
2.640000e-06	7.484780e-06	4.951493e-09	5.272026e+01	3.257585e+02
2.650000e-06	7.442896e-06	4.968250e-09	5.242525e+01	3.252191e+02
2.660000e-06	7.399726e-06	4.916482e-09	5.212117e+01	3.246288e+02
2.670000e-06	7.355448e-06	4.968488e-09	5.180929e+01	3.239900e+02
2.680000e-06	7.309876e-06	4.887749e-09	5.148830e+01	3.233073e+02
2.690000e-06	7.262722e-06	4.899236e-09	5.115616e+01	3.225864e+02
2.700000e-06	7.214346e-06	4.888037e-09	5.081542e+01	3.218342e+02
2.710000e-06	7.164668e-06	4.931537e-09	5.046550e+01	3.210580e+02
2.720000e-06	7.113447e-06	4.898750e-09	5.010472e+01	3.202649e+02
2.730000e-06	7.060821e-06	4.779044e-09	4.973404e+01	3.194615e+02
2.740000e-06	7.006727e-06	4.887907e-09	4.935302e+01	3.186530e+02
2.750000e-06	6.951164e-06	4.872908e-09	4.896165e+01	3.178428e+02
2.760000e-06	6.894274e-06	4.817400e-09	4.856094e+01	3.170327e+02
2.770000e-06	6.836203e-06	4.783618e-09	4.815191e+01	3.162222e+02
2.780000e-06	6.777109e-06	4.794904e-09	4.773567e+01	3.154088e+02
2.790000e-06	6.716962e-06	4.833319e-09	4.731202e+01	3.145883e+02
2.800000e-06	6.655581e-06	4.749163e-09	4.687966e+01	3.137550e+02
2.810000e-06	6.592805e-06	4.754343e-09	4.643750e+01	3.129024e+02
2.820000e-06	6.528735e-06	4.753829e-09	4.598621e+01	3.120233e+02
2.830000e-06	6.463545e-06	4.744240e-09	4.552703e+01	3.111109e+02
2.840000e-06	6.397294e-06	4.711377e-09	4.506038e+01	3.101591e+02
2.850000e-06	6.330098e-06	4.689239e-09	4.458707e+01	3.091630e+02
2.860000e-06	6.261836e-06	4.699298e-09	4.410626e+01	3.081193e+02
2.870000e-06	6.192350e-06	4.661767e-09	4.361683e+01	3.070267e+02
2.880000e-06	6.121667e-06	4.656586e-09	4.311896e+01	3.058859e+02
2.890000e-06	6.049829e-06	4.630258e-09	4.261295e+01	3.046992e+02
2.900000e-06	5.976969e-06	4.608388e-09	4.209975e+01	3.034709e+02
2.910000e-06	5.903144e-06	4.589156e-09	4.157975e+01	3.022062e+02
2.920000e-06	5.828314e-06	4.591112e-09	4.105268e+01	3.009111e+02
2.930000e-06	5.752373e-06	4.571041e-09	4.051777e+01	2.995920e+02
2.940000e-06	5.675126e-06	4.518665e-09	3.997367e+01	2.982544e+02
2.950000e-06	5.596670e-06	4.512059e-09	3.942105e+01	2.969029e+02
