# Temperatura_=_20.0
# Concentracion g/m^3_=_9000.0
# C_Vs_to_Am_M_A/Vsm_=_65563218390.804596
# pendiente_HvsI_1/m_=_3716.3
# ordenada_HvsI_A/m_=_1297.0
# frecuencia_Hz_=_212981.1779727187

Tiempo_(s)	Campo_(V.s)	Magnetizacion_(V.s)	Campo_(kA/m)	Magnetizacion_(A/m)
0.000000e+00	-8.099574e-06	-4.953048e-09	-5.691747e+01	-3.248734e+02
1.000000e-08	-8.098651e-06	-4.953167e-09	-5.691098e+01	-3.248537e+02
2.000000e-08	-8.096075e-06	-4.960027e-09	-5.689288e+01	-3.248192e+02
3.000000e-08	-8.092085e-06	-4.960771e-09	-5.686484e+01	-3.247667e+02
4.000000e-08	-8.086907e-06	-4.959478e-09	-5.682845e+01	-3.246936e+02
5.000000e-08	-8.080351e-06	-4.956030e-09	-5.678238e+01	-3.245977e+02
6.000000e-08	-8.072525e-06	-4.951137e-09	-5.672739e+01	-3.244780e+02
7.000000e-08	-8.063358e-06	-4.945344e-09	-5.666297e+01	-3.243349e+02
8.000000e-08	-8.052552e-06	-4.919489e-09	-5.658703e+01	-3.241701e+02
9.000000e-08	-8.040091e-06	-4.952692e-09	-5.649947e+01	-3.239865e+02
1.000000e-07	-8.025767e-06	-5.045227e-09	-5.639881e+01	-3.237883e+02
1.100000e-07	-8.009444e-06	-5.032260e-09	-5.628411e+01	-3.235807e+02
1.200000e-07	-7.991468e-06	-4.975293e-09	-5.615778e+01	-3.233694e+02
1.300000e-07	-7.972294e-06	-4.884786e-09	-5.602305e+01	-3.231601e+02
1.400000e-07	-7.952262e-06	-4.747097e-09	-5.588227e+01	-3.229583e+02
1.500000e-07	-7.931259e-06	-4.988128e-09	-5.573468e+01	-3.227685e+02
1.600000e-07	-7.908962e-06	-5.108130e-09	-5.557799e+01	-3.225938e+02
1.700000e-07	-7.885585e-06	-4.844358e-09	-5.541372e+01	-3.224356e+02
1.800000e-07	-7.860844e-06	-4.901880e-09	-5.523986e+01	-3.222933e+02
1.900000e-07	-7.834262e-06	-4.885727e-09	-5.505306e+01	-3.221643e+02
2.000000e-07	-7.806419e-06	-4.882378e-09	-5.485740e+01	-3.220437e+02
2.100000e-07	-7.777560e-06	-5.127281e-09	-5.465461e+01	-3.219248e+02
2.200000e-07	-7.747262e-06	-4.898523e-09	-5.444169e+01	-3.217996e+02
2.300000e-07	-7.715651e-06	-4.733181e-09	-5.421956e+01	-3.216586e+02
2.400000e-07	-7.682780e-06	-4.968284e-09	-5.398857e+01	-3.214922e+02
2.500000e-07	-7.648374e-06	-5.013946e-09	-5.374679e+01	-3.212908e+02
2.600000e-07	-7.612525e-06	-4.957254e-09	-5.349487e+01	-3.210455e+02
2.700000e-07	-7.575222e-06	-4.816978e-09	-5.323273e+01	-3.207489e+02
2.800000e-07	-7.536577e-06	-4.794491e-09	-5.296117e+01	-3.203953e+02
2.900000e-07	-7.496840e-06	-4.942216e-09	-5.268192e+01	-3.199815e+02
3.000000e-07	-7.455690e-06	-4.950317e-09	-5.239275e+01	-3.195066e+02
3.100000e-07	-7.412917e-06	-4.833548e-09	-5.209218e+01	-3.189723e+02
3.200000e-07	-7.368662e-06	-4.768738e-09	-5.178119e+01	-3.183827e+02
3.300000e-07	-7.322995e-06	-4.849772e-09	-5.146028e+01	-3.177440e+02
3.400000e-07	-7.276049e-06	-4.872052e-09	-5.113038e+01	-3.170638e+02
3.500000e-07	-7.227749e-06	-4.840809e-09	-5.079096e+01	-3.163511e+02
3.600000e-07	-7.177672e-06	-4.797154e-09	-5.043906e+01	-3.156151e+02
3.700000e-07	-7.125799e-06	-4.710867e-09	-5.007454e+01	-3.148645e+02
3.800000e-07	-7.072597e-06	-4.790940e-09	-4.970068e+01	-3.141074e+02
3.900000e-07	-7.018229e-06	-4.854676e-09	-4.931862e+01	-3.133500e+02
4.000000e-07	-6.962638e-06	-4.739538e-09	-4.892797e+01	-3.125969e+02
4.100000e-07	-6.905803e-06	-4.680409e-09	-4.852858e+01	-3.118499e+02
4.200000e-07	-6.847723e-06	-4.745671e-09	-4.812044e+01	-3.111088e+02
4.300000e-07	-6.788362e-06	-4.791222e-09	-4.770330e+01	-3.103708e+02
4.400000e-07	-6.727716e-06	-4.707426e-09	-4.727712e+01	-3.096311e+02
4.500000e-07	-6.665870e-06	-4.656377e-09	-4.684252e+01	-3.088831e+02
4.600000e-07	-6.603016e-06	-4.675188e-09	-4.640083e+01	-3.081191e+02
4.700000e-07	-6.539198e-06	-4.681536e-09	-4.595236e+01	-3.073309e+02
4.800000e-07	-6.474143e-06	-4.663822e-09	-4.549521e+01	-3.065104e+02
4.900000e-07	-6.407828e-06	-4.618899e-09	-4.502920e+01	-3.056501e+02
5.000000e-07	-6.340382e-06	-4.607247e-09	-4.455524e+01	-3.047441e+02
5.100000e-07	-6.271844e-06	-4.616893e-09	-4.407361e+01	-3.037880e+02
5.200000e-07	-6.202310e-06	-4.615415e-09	-4.358498e+01	-3.027798e+02
5.300000e-07	-6.131768e-06	-4.578681e-09	-4.308927e+01	-3.017193e+02
5.400000e-07	-6.060165e-06	-4.543292e-09	-4.258610e+01	-3.006088e+02
5.500000e-07	-5.987494e-06	-4.541550e-09	-4.207542e+01	-2.994523e+02
5.600000e-07	-5.913744e-06	-4.542429e-09	-4.155717e+01	-2.982552e+02
5.700000e-07	-5.838758e-06	-4.518797e-09	-4.103022e+01	-2.970240e+02
5.800000e-07	-5.762498e-06	-4.469817e-09	-4.049433e+01	-2.957654e+02
5.900000e-07	-5.685124e-06	-4.453328e-09	-3.995060e+01	-2.944858e+02
6.000000e-07	-5.606664e-06	-4.466461e-09	-3.939924e+01	-2.931908e+02
6.100000e-07	-5.527058e-06	-4.446388e-09	-3.883984e+01	-2.918843e+02
6.200000e-07	-5.446221e-06	-4.393706e-09	-3.827178e+01	-2.905685e+02
6.300000e-07	-5.364263e-06	-4.368870e-09	-3.769584e+01	-2.892432e+02
6.400000e-07	-5.281480e-06	-4.374780e-09	-3.711411e+01	-2.879062e+02
6.500000e-07	-5.197971e-06	-4.357516e-09	-3.652727e+01	-2.865530e+02
6.600000e-07	-5.113652e-06	-4.315055e-09	-3.593474e+01	-2.851774e+02
6.700000e-07	-5.028466e-06	-4.285621e-09	-3.533612e+01	-2.837718e+02
6.800000e-07	-4.942464e-06	-4.276292e-09	-3.473177e+01	-2.823277e+02
6.900000e-07	-4.855783e-06	-4.262041e-09	-3.412264e+01	-2.808365e+02
7.000000e-07	-4.768229e-06	-4.232988e-09	-3.350738e+01	-2.792902e+02
7.100000e-07	-4.679524e-06	-4.196444e-09	-3.288404e+01	-2.776818e+02
7.200000e-07	-4.589829e-06	-4.169803e-09	-3.225372e+01	-2.760058e+02
7.300000e-07	-4.499409e-06	-4.156579e-09	-3.161833e+01	-2.742589e+02
7.400000e-07	-4.408263e-06	-4.136270e-09	-3.097782e+01	-2.724400e+02
7.500000e-07	-4.316252e-06	-4.096729e-09	-3.033124e+01	-2.705499e+02
7.600000e-07	-4.223366e-06	-4.058725e-09	-2.967851e+01	-2.685918e+02
7.700000e-07	-4.129769e-06	-4.040390e-09	-2.902078e+01	-2.665702e+02
7.800000e-07	-4.035614e-06	-4.021251e-09	-2.835914e+01	-2.644906e+02
7.900000e-07	-3.940845e-06	-3.982631e-09	-2.769318e+01	-2.623590e+02
8.000000e-07	-3.845262e-06	-3.938747e-09	-2.702149e+01	-2.601809e+02
8.100000e-07	-3.748879e-06	-3.911870e-09	-2.634419e+01	-2.579608e+02
8.200000e-07	-3.651821e-06	-3.890652e-09	-2.566214e+01	-2.557011e+02
8.300000e-07	-3.554146e-06	-3.852417e-09	-2.497575e+01	-2.534024e+02
8.400000e-07	-3.455910e-06	-3.805123e-09	-2.428543e+01	-2.510622e+02
8.500000e-07	-3.357008e-06	-3.767380e-09	-2.359043e+01	-2.486753e+02
8.600000e-07	-3.257451e-06	-3.736537e-09	-2.289082e+01	-2.462341e+02
8.700000e-07	-3.157413e-06	-3.697410e-09	-2.218783e+01	-2.437282e+02
8.800000e-07	-3.056895e-06	-3.648463e-09	-2.148146e+01	-2.411456e+02
8.900000e-07	-2.955853e-06	-3.602864e-09	-2.077142e+01	-2.384730e+02
9.000000e-07	-2.854369e-06	-3.565751e-09	-2.005827e+01	-2.356969e+02
9.100000e-07	-2.752466e-06	-3.527410e-09	-1.934218e+01	-2.328040e+02
9.200000e-07	-2.650191e-06	-3.479076e-09	-1.862347e+01	-2.297825e+02
9.300000e-07	-2.547575e-06	-3.422779e-09	-1.790236e+01	-2.266224e+02
9.400000e-07	-2.444543e-06	-3.370655e-09	-1.717833e+01	-2.233158e+02
9.500000e-07	-2.340983e-06	-3.321981e-09	-1.645059e+01	-2.198575e+02
9.600000e-07	-2.236902e-06	-3.268311e-09	-1.571920e+01	-2.162447e+02
9.700000e-07	-2.132335e-06	-3.206800e-09	-1.498438e+01	-2.124763e+02
9.800000e-07	-2.027291e-06	-3.144206e-09	-1.424622e+01	-2.085527e+02
9.900000e-07	-1.921872e-06	-3.090391e-09	-1.350541e+01	-2.044741e+02
1.000000e-06	-1.816090e-06	-3.033400e-09	-1.276206e+01	-2.002395e+02
1.010000e-06	-1.709951e-06	-2.962775e-09	-1.201620e+01	-1.958457e+02
1.020000e-06	-1.603513e-06	-2.885880e-09	-1.126823e+01	-1.912853e+02
1.030000e-06	-1.496848e-06	-2.814201e-09	-1.051867e+01	-1.865456e+02
1.040000e-06	-1.389857e-06	-2.743606e-09	-9.766826e+00	-1.816076e+02
1.050000e-06	-1.282525e-06	-2.661967e-09	-9.012585e+00	-1.764451e+02
1.060000e-06	-1.174950e-06	-2.572797e-09	-8.256631e+00	-1.710245e+02
1.070000e-06	-1.067112e-06	-2.482734e-09	-7.498828e+00	-1.653048e+02
1.080000e-06	-9.590556e-07	-2.389752e-09	-6.739492e+00	-1.592384e+02
1.090000e-06	-8.507801e-07	-2.290514e-09	-5.978617e+00	-1.527724e+02
1.100000e-06	-7.423328e-07	-2.181345e-09	-5.216534e+00	-1.458506e+02
1.110000e-06	-6.337925e-07	-2.061321e-09	-4.453798e+00	-1.384157e+02
1.120000e-06	-5.251329e-07	-1.937056e-09	-3.690223e+00	-1.304121e+02
1.130000e-06	-4.163357e-07	-1.809637e-09	-2.925682e+00	-1.217888e+02
1.140000e-06	-3.074766e-07	-1.670510e-09	-2.160705e+00	-1.125029e+02
1.150000e-06	-1.986033e-07	-1.515220e-09	-1.395629e+00	-1.025222e+02
1.160000e-06	-8.965428e-08	-1.350045e-09	-6.300201e-01	-9.182826e+01
1.170000e-06	1.933167e-08	-1.180796e-09	1.358478e-01	-8.041866e+01
1.180000e-06	1.282597e-07	-1.001975e-09	9.013091e-01	-6.830898e+01
1.190000e-06	2.371474e-07	-8.105472e-10	1.666487e+00	-5.553374e+01
1.200000e-06	3.459436e-07	-6.077060e-10	2.431021e+00	-4.214678e+01
1.210000e-06	4.546129e-07	-3.950791e-10	3.194664e+00	-2.822063e+01
1.220000e-06	5.631954e-07	-1.764940e-10	3.957697e+00	-1.384515e+01
1.230000e-06	6.716108e-07	4.743183e-11	4.719555e+00	8.747614e-01
1.240000e-06	7.798666e-07	2.777512e-10	5.480292e+00	1.582213e+01
1.250000e-06	8.879767e-07	5.119686e-10	6.240005e+00	3.087149e+01
1.260000e-06	9.959085e-07	7.445863e-10	6.998466e+00	4.589290e+01
1.270000e-06	1.103640e-06	9.743527e-10	7.755517e+00	6.075617e+01
1.280000e-06	1.211122e-06	1.201958e-09	8.510817e+00	7.533518e+01
1.290000e-06	1.318393e-06	1.422550e-09	9.264634e+00	8.951192e+01
1.300000e-06	1.425378e-06	1.633398e-09	1.001644e+01	1.031803e+02
1.310000e-06	1.531999e-06	1.830790e-09	1.076569e+01	1.162491e+02
1.320000e-06	1.638363e-06	2.015790e-09	1.151313e+01	1.286448e+02
1.330000e-06	1.744479e-06	2.189325e-09	1.225884e+01	1.403130e+02
1.340000e-06	1.850252e-06	2.350347e-09	1.300212e+01	1.512188e+02
1.350000e-06	1.955696e-06	2.499475e-09	1.374310e+01	1.613477e+02
1.360000e-06	2.060867e-06	2.636902e-09	1.448216e+01	1.707034e+02
1.370000e-06	2.165685e-06	2.764637e-09	1.521874e+01	1.793073e+02
1.380000e-06	2.270058e-06	2.880580e-09	1.595219e+01	1.871952e+02
1.390000e-06	2.374030e-06	2.986058e-09	1.668283e+01	1.944147e+02
1.400000e-06	2.477576e-06	3.085166e-09	1.741047e+01	2.010225e+02
1.410000e-06	2.580642e-06	3.177991e-09	1.813473e+01	2.070806e+02
1.420000e-06	2.683238e-06	3.262315e-09	1.885570e+01	2.126530e+02
1.430000e-06	2.785359e-06	3.341137e-09	1.957333e+01	2.178031e+02
1.440000e-06	2.887072e-06	3.415150e-09	2.028809e+01	2.225910e+02
1.450000e-06	2.988373e-06	3.485597e-09	2.099994e+01	2.270708e+02
1.460000e-06	3.089209e-06	3.552470e-09	2.170855e+01	2.312898e+02
1.470000e-06	3.189528e-06	3.615196e-09	2.241351e+01	2.352869e+02
1.480000e-06	3.289291e-06	3.675644e-09	2.311456e+01	2.390926e+02
1.490000e-06	3.388469e-06	3.734130e-09	2.381151e+01	2.427291e+02
1.500000e-06	3.487010e-06	3.790133e-09	2.450398e+01	2.462109e+02
1.510000e-06	3.584832e-06	3.840380e-09	2.519140e+01	2.495462e+02
1.520000e-06	3.681922e-06	3.884926e-09	2.587367e+01	2.527380e+02
1.530000e-06	3.778399e-06	3.928703e-09	2.655163e+01	2.557858e+02
1.540000e-06	3.874161e-06	3.971890e-09	2.722457e+01	2.586874e+02
1.550000e-06	3.969098e-06	4.011270e-09	2.789171e+01	2.614400e+02
1.560000e-06	4.063355e-06	4.045671e-09	2.855408e+01	2.640420e+02
1.570000e-06	4.156942e-06	4.080263e-09	2.921173e+01	2.664937e+02
1.580000e-06	4.249768e-06	4.117065e-09	2.986404e+01	2.687980e+02
1.590000e-06	4.341884e-06	4.151044e-09	3.051136e+01	2.709612e+02
1.600000e-06	4.433252e-06	4.180489e-09	3.115343e+01	2.729923e+02
1.610000e-06	4.523749e-06	4.206847e-09	3.178937e+01	2.749035e+02
1.620000e-06	4.613311e-06	4.234217e-09	3.241874e+01	2.767089e+02
1.630000e-06	4.701970e-06	4.261914e-09	3.304176e+01	2.784242e+02
1.640000e-06	4.789733e-06	4.286496e-09	3.365850e+01	2.800655e+02
1.650000e-06	4.876587e-06	4.309051e-09	3.426884e+01	2.816482e+02
1.660000e-06	4.962658e-06	4.332218e-09	3.487368e+01	2.831869e+02
1.670000e-06	5.047973e-06	4.355713e-09	3.547320e+01	2.846934e+02
1.680000e-06	5.132471e-06	4.377007e-09	3.606699e+01	2.861771e+02
1.690000e-06	5.216202e-06	4.397070e-09	3.665539e+01	2.876444e+02
1.700000e-06	5.299122e-06	4.418349e-09	3.723808e+01	2.890981e+02
1.710000e-06	5.381132e-06	4.438759e-09	3.781438e+01	2.905382e+02
1.720000e-06	5.462225e-06	4.456396e-09	3.838424e+01	2.919616e+02
1.730000e-06	5.542268e-06	4.474375e-09	3.894672e+01	2.933634e+02
1.740000e-06	5.621261e-06	4.493385e-09	3.950182e+01	2.947368e+02
1.750000e-06	5.699327e-06	4.511075e-09	4.005041e+01	2.960745e+02
1.760000e-06	5.776442e-06	4.527921e-09	4.059232e+01	2.973690e+02
1.770000e-06	5.852523e-06	4.544143e-09	4.112695e+01	2.986138e+02
1.780000e-06	5.927462e-06	4.560459e-09	4.165356e+01	2.998035e+02
1.790000e-06	6.001180e-06	4.575988e-09	4.217160e+01	3.009348e+02
1.800000e-06	6.073649e-06	4.590422e-09	4.268085e+01	3.020064e+02
1.810000e-06	6.144978e-06	4.604843e-09	4.318209e+01	3.030192e+02
1.820000e-06	6.215273e-06	4.618614e-09	4.367608e+01	3.039764e+02
1.830000e-06	6.284599e-06	4.633040e-09	4.416325e+01	3.048829e+02
1.840000e-06	6.352973e-06	4.647894e-09	4.464372e+01	3.057452e+02
1.850000e-06	6.420267e-06	4.661800e-09	4.511661e+01	3.065706e+02
1.860000e-06	6.486322e-06	4.674201e-09	4.558080e+01	3.073666e+02
1.870000e-06	6.551057e-06	4.686028e-09	4.603570e+01	3.081406e+02
1.880000e-06	6.614563e-06	4.697751e-09	4.648197e+01	3.088992e+02
1.890000e-06	6.676988e-06	4.708736e-09	4.692064e+01	3.096476e+02
1.900000e-06	6.738318e-06	4.719794e-09	4.735162e+01	3.103895e+02
1.910000e-06	6.798602e-06	4.731056e-09	4.777526e+01	3.111266e+02
1.920000e-06	6.857805e-06	4.742293e-09	4.819129e+01	3.118591e+02
1.930000e-06	6.915687e-06	4.751778e-09	4.859804e+01	3.125853e+02
1.940000e-06	6.972095e-06	4.759520e-09	4.899443e+01	3.133023e+02
1.950000e-06	7.027201e-06	4.769372e-09	4.938167e+01	3.140060e+02
1.960000e-06	7.081130e-06	4.781359e-09	4.976064e+01	3.146918e+02
1.970000e-06	7.133718e-06	4.792209e-09	5.013019e+01	3.153550e+02
1.980000e-06	7.184829e-06	4.801294e-09	5.048935e+01	3.159913e+02
1.990000e-06	7.234265e-06	4.811380e-09	5.083675e+01	3.165973e+02
2.000000e-06	7.282206e-06	4.823155e-09	5.117365e+01	3.171704e+02
2.010000e-06	7.328921e-06	4.833503e-09	5.150192e+01	3.177096e+02
2.020000e-06	7.374383e-06	4.841586e-09	5.182139e+01	3.182154e+02
2.030000e-06	7.418660e-06	4.849218e-09	5.213253e+01	3.186895e+02
2.040000e-06	7.461737e-06	4.858831e-09	5.243524e+01	3.191348e+02
2.050000e-06	7.503309e-06	4.868443e-09	5.272738e+01	3.195551e+02
2.060000e-06	7.543388e-06	4.875390e-09	5.300903e+01	3.199551e+02
2.070000e-06	7.582262e-06	4.882487e-09	5.328220e+01	3.203391e+02
2.080000e-06	7.619929e-06	4.891129e-09	5.354690e+01	3.207117e+02
2.090000e-06	7.656402e-06	4.900568e-09	5.380320e+01	3.210765e+02
2.100000e-06	7.691767e-06	4.908416e-09	5.405172e+01	3.214364e+02
2.110000e-06	7.725639e-06	4.913947e-09	5.428974e+01	3.217930e+02
2.120000e-06	7.757875e-06	4.920143e-09	5.451627e+01	3.221465e+02
2.130000e-06	7.788865e-06	4.926616e-09	5.473405e+01	3.224962e+02
2.140000e-06	7.818648e-06	4.931047e-09	5.494334e+01	3.228399e+02
2.150000e-06	7.847142e-06	4.936182e-09	5.514358e+01	3.231745e+02
2.160000e-06	7.874435e-06	4.942964e-09	5.533537e+01	3.234963e+02
2.170000e-06	7.900159e-06	4.948962e-09	5.551613e+01	3.238012e+02
2.180000e-06	7.924230e-06	4.952596e-09	5.568529e+01	3.240854e+02
2.190000e-06	7.947037e-06	4.955387e-09	5.584556e+01	3.243454e+02
2.200000e-06	7.968503e-06	4.960216e-09	5.599640e+01	3.245783e+02
2.210000e-06	7.988688e-06	4.965583e-09	5.613825e+01	3.247825e+02
2.220000e-06	8.007713e-06	4.969206e-09	5.627194e+01	3.249573e+02
2.230000e-06	8.025253e-06	4.972144e-09	5.639520e+01	3.251032e+02
2.240000e-06	8.041244e-06	4.974815e-09	5.650757e+01	3.252221e+02
2.250000e-06	8.055741e-06	4.977663e-09	5.660945e+01	3.253165e+02
2.260000e-06	8.068670e-06	4.981576e-09	5.670030e+01	3.253896e+02
2.270000e-06	8.080097e-06	4.986230e-09	5.678060e+01	3.254452e+02
2.280000e-06	8.089777e-06	4.990470e-09	5.684862e+01	3.254870e+02
2.290000e-06	8.097779e-06	4.993923e-09	5.690485e+01	3.255181e+02
2.300000e-06	8.104385e-06	4.997157e-09	5.695128e+01	3.255414e+02
2.310000e-06	8.109616e-06	4.997922e-09	5.698804e+01	3.255585e+02
2.320000e-06	8.113667e-06	4.996171e-09	5.701650e+01	3.255702e+02
2.330000e-06	8.116341e-06	4.995147e-09	5.703529e+01	3.255762e+02
2.340000e-06	8.117224e-06	4.996298e-09	5.704150e+01	3.255750e+02
2.350000e-06	8.116657e-06	5.000665e-09	5.703751e+01	3.255642e+02
2.360000e-06	8.114890e-06	4.999135e-09	5.702509e+01	3.255411e+02
2.370000e-06	8.111825e-06	4.992086e-09	5.700356e+01	3.255024e+02
2.380000e-06	8.107621e-06	4.989762e-09	5.697402e+01	3.254449e+02
2.390000e-06	8.101893e-06	4.990558e-09	5.693376e+01	3.253662e+02
2.400000e-06	8.094479e-06	4.992696e-09	5.688166e+01	3.252644e+02
2.410000e-06	8.085931e-06	4.996378e-09	5.682160e+01	3.251388e+02
2.420000e-06	8.076274e-06	5.021175e-09	5.675374e+01	3.249900e+02
2.430000e-06	8.065350e-06	4.992123e-09	5.667697e+01	3.248201e+02
2.440000e-06	8.052823e-06	4.860244e-09	5.658894e+01	3.246324e+02
2.450000e-06	8.037968e-06	4.863101e-09	5.648455e+01	3.244314e+02
2.460000e-06	8.020889e-06	4.899386e-09	5.636453e+01	3.242223e+02
2.470000e-06	8.002409e-06	5.041521e-09	5.623467e+01	3.240109e+02
2.480000e-06	7.983144e-06	5.198287e-09	5.609929e+01	3.238030e+02
2.490000e-06	7.963269e-06	4.849123e-09	5.595962e+01	3.236038e+02
2.500000e-06	7.941918e-06	4.850692e-09	5.580958e+01	3.234175e+02
2.510000e-06	7.918672e-06	5.065398e-09	5.564623e+01	3.232469e+02
2.520000e-06	7.894462e-06	4.911316e-09	5.547610e+01	3.230928e+02
2.530000e-06	7.869039e-06	5.119614e-09	5.529745e+01	3.229541e+02
2.540000e-06	7.841903e-06	5.015359e-09	5.510675e+01	3.228277e+02
2.550000e-06	7.813721e-06	4.692057e-09	5.490872e+01	3.227082e+02
2.560000e-06	7.784298e-06	5.048154e-09	5.470196e+01	3.225885e+02
2.570000e-06	7.753195e-06	5.031812e-09	5.448338e+01	3.224602e+02
2.580000e-06	7.720573e-06	4.748628e-09	5.425415e+01	3.223138e+02
2.590000e-06	7.686557e-06	4.828373e-09	5.401511e+01	3.221395e+02
2.600000e-06	7.651506e-06	4.811476e-09	5.376879e+01	3.219279e+02
2.610000e-06	7.615376e-06	4.991442e-09	5.351490e+01	3.216704e+02
2.620000e-06	7.577603e-06	4.924657e-09	5.324946e+01	3.213599e+02
2.630000e-06	7.538183e-06	4.730695e-09	5.297245e+01	3.209915e+02
2.640000e-06	7.497396e-06	4.886390e-09	5.268583e+01	3.205624e+02
2.650000e-06	7.455305e-06	4.820284e-09	5.239005e+01	3.200724e+02
2.660000e-06	7.411999e-06	4.871529e-09	5.208573e+01	3.195238e+02
2.670000e-06	7.367517e-06	4.866405e-09	5.177314e+01	3.189212e+02
2.680000e-06	7.321534e-06	4.747187e-09	5.145001e+01	3.182713e+02
2.690000e-06	7.273975e-06	4.784884e-09	5.111580e+01	3.175821e+02
2.700000e-06	7.225281e-06	4.800740e-09	5.077362e+01	3.168627e+02
2.710000e-06	7.175320e-06	4.911179e-09	5.042253e+01	3.161222e+02
2.720000e-06	7.123841e-06	4.724740e-09	5.006078e+01	3.153693e+02
2.730000e-06	7.070876e-06	4.666616e-09	4.968858e+01	3.146115e+02
2.740000e-06	7.016448e-06	4.845161e-09	4.930611e+01	3.138549e+02
2.750000e-06	6.960654e-06	4.780201e-09	4.891403e+01	3.131032e+02
2.760000e-06	6.903487e-06	4.721289e-09	4.851230e+01	3.123578e+02
2.770000e-06	6.845149e-06	4.655264e-09	4.810235e+01	3.116178e+02
2.780000e-06	6.785834e-06	4.739255e-09	4.768553e+01	3.108799e+02
2.790000e-06	6.725354e-06	4.742531e-09	4.726052e+01	3.101387e+02
2.800000e-06	6.663500e-06	4.659625e-09	4.682586e+01	3.093875e+02
2.810000e-06	6.600342e-06	4.680592e-09	4.638204e+01	3.086182e+02
2.820000e-06	6.536031e-06	4.657152e-09	4.593011e+01	3.078226e+02
2.830000e-06	6.470539e-06	4.667343e-09	4.546989e+01	3.069928e+02
2.840000e-06	6.404022e-06	4.627440e-09	4.500246e+01	3.061215e+02
2.850000e-06	6.336540e-06	4.626484e-09	4.452824e+01	3.052033e+02
2.860000e-06	6.267931e-06	4.601359e-09	4.404611e+01	3.042343e+02
2.870000e-06	6.198130e-06	4.575659e-09	4.355561e+01	3.032129e+02
2.880000e-06	6.127124e-06	4.596488e-09	4.305663e+01	3.021396e+02
2.890000e-06	6.055022e-06	4.564413e-09	4.254996e+01	3.010172e+02
2.900000e-06	5.981917e-06	4.529890e-09	4.203623e+01	2.998499e+02
2.910000e-06	5.907859e-06	4.508999e-09	4.151581e+01	2.986436e+02
2.920000e-06	5.832709e-06	4.538085e-09	4.098771e+01	2.974049e+02
2.930000e-06	5.756297e-06	4.501343e-09	4.045075e+01	2.961405e+02
2.940000e-06	5.678644e-06	4.451583e-09	3.990506e+01	2.948566e+02
2.950000e-06	5.599891e-06	4.452974e-09	3.935165e+01	2.935584e+02
