# Temperatura_=_20.0
# Concentracion g/m^3_=_9000.0
# C_Vs_to_Am_M_A/Vsm_=_65563218390.804596
# pendiente_HvsI_1/m_=_3716.3
# ordenada_HvsI_A/m_=_1297.0
# frecuencia_Hz_=_212981.86816521533

Tiempo_(s)	Campo_(V.s)	Magnetizacion_(V.s)	Campo_(kA/m)	Magnetizacion_(A/m)
0.000000e+00	-8.151483e-06	-4.899699e-09	-5.692283e+01	-3.227548e+02
1.000000e-08	-8.150590e-06	-4.899497e-09	-5.691660e+01	-3.227470e+02
2.000000e-08	-8.148139e-06	-4.902311e-09	-5.689948e+01	-3.227352e+02
3.000000e-08	-8.144225e-06	-4.905196e-09	-5.687215e+01	-3.227156e+02
4.000000e-08	-8.139078e-06	-4.904395e-09	-5.683621e+01	-3.226841e+02
5.000000e-08	-8.132654e-06	-4.899828e-09	-5.679135e+01	-3.226363e+02
6.000000e-08	-8.124967e-06	-4.894487e-09	-5.673767e+01	-3.225681e+02
7.000000e-08	-8.115911e-06	-4.889904e-09	-5.667443e+01	-3.224760e+02
8.000000e-08	-8.105205e-06	-4.895850e-09	-5.659967e+01	-3.223573e+02
9.000000e-08	-8.092776e-06	-4.893113e-09	-5.651288e+01	-3.222105e+02
1.000000e-07	-8.078506e-06	-4.912176e-09	-5.641323e+01	-3.220353e+02
1.100000e-07	-8.062206e-06	-4.933236e-09	-5.629940e+01	-3.218326e+02
1.200000e-07	-8.044276e-06	-4.906536e-09	-5.617419e+01	-3.216045e+02
1.300000e-07	-8.025174e-06	-4.886625e-09	-5.604080e+01	-3.213537e+02
1.400000e-07	-8.005123e-06	-4.874368e-09	-5.590078e+01	-3.210840e+02
1.500000e-07	-7.984117e-06	-4.798487e-09	-5.575410e+01	-3.207991e+02
1.600000e-07	-7.961840e-06	-4.909366e-09	-5.559854e+01	-3.205026e+02
1.700000e-07	-7.938382e-06	-4.927000e-09	-5.543472e+01	-3.201980e+02
1.800000e-07	-7.913603e-06	-4.817670e-09	-5.526169e+01	-3.198875e+02
1.900000e-07	-7.887108e-06	-4.885675e-09	-5.507667e+01	-3.195728e+02
2.000000e-07	-7.859289e-06	-4.861843e-09	-5.488241e+01	-3.192540e+02
2.100000e-07	-7.830357e-06	-4.853931e-09	-5.468037e+01	-3.189303e+02
2.200000e-07	-7.799994e-06	-4.933744e-09	-5.446834e+01	-3.185994e+02
2.300000e-07	-7.768315e-06	-4.847634e-09	-5.424712e+01	-3.182582e+02
2.400000e-07	-7.735303e-06	-4.805631e-09	-5.401659e+01	-3.179028e+02
2.500000e-07	-7.700688e-06	-4.893193e-09	-5.377488e+01	-3.175289e+02
2.600000e-07	-7.664676e-06	-4.861444e-09	-5.352340e+01	-3.171322e+02
2.700000e-07	-7.627329e-06	-4.844736e-09	-5.326260e+01	-3.167086e+02
2.800000e-07	-7.588600e-06	-4.795129e-09	-5.299215e+01	-3.162547e+02
2.900000e-07	-7.548710e-06	-4.797592e-09	-5.271359e+01	-3.157683e+02
3.000000e-07	-7.507325e-06	-4.836662e-09	-5.242460e+01	-3.152481e+02
3.100000e-07	-7.464245e-06	-4.825697e-09	-5.212376e+01	-3.146944e+02
3.200000e-07	-7.419765e-06	-4.787278e-09	-5.181316e+01	-3.141085e+02
3.300000e-07	-7.373937e-06	-4.753057e-09	-5.149313e+01	-3.134933e+02
3.400000e-07	-7.326720e-06	-4.796712e-09	-5.116341e+01	-3.128522e+02
3.500000e-07	-7.278094e-06	-4.777487e-09	-5.082385e+01	-3.121896e+02
3.600000e-07	-7.227789e-06	-4.753044e-09	-5.047257e+01	-3.115100e+02
3.700000e-07	-7.175726e-06	-4.749687e-09	-5.010900e+01	-3.108178e+02
3.800000e-07	-7.122310e-06	-4.719314e-09	-4.973599e+01	-3.101169e+02
3.900000e-07	-7.067753e-06	-4.738361e-09	-4.935501e+01	-3.094102e+02
4.000000e-07	-7.012006e-06	-4.743593e-09	-4.896572e+01	-3.086994e+02
4.100000e-07	-6.954896e-06	-4.705114e-09	-4.856691e+01	-3.079849e+02
4.200000e-07	-6.896398e-06	-4.681051e-09	-4.815841e+01	-3.072655e+02
4.300000e-07	-6.836690e-06	-4.688798e-09	-4.774147e+01	-3.065386e+02
4.400000e-07	-6.775804e-06	-4.687970e-09	-4.731630e+01	-3.058003e+02
4.500000e-07	-6.713769e-06	-4.646901e-09	-4.688310e+01	-3.050460e+02
4.600000e-07	-6.650710e-06	-4.628589e-09	-4.644275e+01	-3.042700e+02
4.700000e-07	-6.586616e-06	-4.625592e-09	-4.599517e+01	-3.034669e+02
4.800000e-07	-6.521235e-06	-4.619219e-09	-4.553861e+01	-3.026312e+02
4.900000e-07	-6.454515e-06	-4.607555e-09	-4.507269e+01	-3.017585e+02
5.000000e-07	-6.386668e-06	-4.583472e-09	-4.459891e+01	-3.008451e+02
5.100000e-07	-6.317821e-06	-4.573371e-09	-4.411814e+01	-2.998890e+02
5.200000e-07	-6.248001e-06	-4.565595e-09	-4.363058e+01	-2.988896e+02
5.300000e-07	-6.177191e-06	-4.547106e-09	-4.313610e+01	-2.978479e+02
5.400000e-07	-6.105343e-06	-4.521519e-09	-4.263438e+01	-2.967664e+02
5.500000e-07	-6.032337e-06	-4.506328e-09	-4.212457e+01	-2.956489e+02
5.600000e-07	-5.958103e-06	-4.493357e-09	-4.160618e+01	-2.945000e+02
5.700000e-07	-5.882604e-06	-4.475537e-09	-4.107897e+01	-2.933248e+02
5.800000e-07	-5.805904e-06	-4.458987e-09	-4.054336e+01	-2.921284e+02
5.900000e-07	-5.727994e-06	-4.437449e-09	-3.999931e+01	-2.909153e+02
6.000000e-07	-5.648958e-06	-4.419120e-09	-3.944739e+01	-2.896890e+02
6.100000e-07	-5.568863e-06	-4.404704e-09	-3.888808e+01	-2.884517e+02
6.200000e-07	-5.487636e-06	-4.381703e-09	-3.832086e+01	-2.872035e+02
6.300000e-07	-5.405371e-06	-4.348693e-09	-3.774639e+01	-2.859430e+02
6.400000e-07	-5.322239e-06	-4.330642e-09	-3.716586e+01	-2.846668e+02
6.500000e-07	-5.238337e-06	-4.318899e-09	-3.657997e+01	-2.833697e+02
6.600000e-07	-5.153605e-06	-4.295958e-09	-3.598828e+01	-2.820450e+02
6.700000e-07	-5.067976e-06	-4.268827e-09	-3.539032e+01	-2.806853e+02
6.800000e-07	-4.981545e-06	-4.245708e-09	-3.478676e+01	-2.792825e+02
6.900000e-07	-4.894381e-06	-4.227788e-09	-3.417808e+01	-2.778285e+02
7.000000e-07	-4.806290e-06	-4.204139e-09	-3.356293e+01	-2.763161e+02
7.100000e-07	-4.717066e-06	-4.174950e-09	-3.293987e+01	-2.747392e+02
7.200000e-07	-4.626834e-06	-4.144496e-09	-3.230977e+01	-2.730932e+02
7.300000e-07	-4.535870e-06	-4.119114e-09	-3.167455e+01	-2.713755e+02
7.400000e-07	-4.444168e-06	-4.097607e-09	-3.103419e+01	-2.695855e+02
7.500000e-07	-4.351647e-06	-4.069571e-09	-3.038810e+01	-2.677247e+02
7.600000e-07	-4.258270e-06	-4.036713e-09	-2.973603e+01	-2.657963e+02
7.700000e-07	-4.164155e-06	-4.007589e-09	-2.907882e+01	-2.638046e+02
7.800000e-07	-4.069503e-06	-3.984398e-09	-2.841785e+01	-2.617552e+02
7.900000e-07	-3.974247e-06	-3.958371e-09	-2.775267e+01	-2.596534e+02
8.000000e-07	-3.878137e-06	-3.922955e-09	-2.708152e+01	-2.575044e+02
8.100000e-07	-3.781040e-06	-3.884501e-09	-2.640348e+01	-2.553120e+02
8.200000e-07	-3.683216e-06	-3.852236e-09	-2.572036e+01	-2.530783e+02
8.300000e-07	-3.584939e-06	-3.823734e-09	-2.503408e+01	-2.508032e+02
8.400000e-07	-3.486151e-06	-3.787201e-09	-2.434424e+01	-2.484841e+02
8.500000e-07	-3.386687e-06	-3.743353e-09	-2.364967e+01	-2.461158e+02
8.600000e-07	-3.286542e-06	-3.703779e-09	-2.295034e+01	-2.436906e+02
8.700000e-07	-3.185884e-06	-3.668925e-09	-2.224743e+01	-2.411984e+02
8.800000e-07	-3.084746e-06	-3.630762e-09	-2.154117e+01	-2.386277e+02
8.900000e-07	-2.983139e-06	-3.585860e-09	-2.083164e+01	-2.359658e+02
9.000000e-07	-2.881111e-06	-3.540105e-09	-2.011916e+01	-2.331999e+02
9.100000e-07	-2.778693e-06	-3.498710e-09	-1.940396e+01	-2.303176e+02
9.200000e-07	-2.675933e-06	-3.455617e-09	-1.868638e+01	-2.273078e+02
9.300000e-07	-2.572779e-06	-3.405244e-09	-1.796604e+01	-2.241610e+02
9.400000e-07	-2.469106e-06	-3.350233e-09	-1.724208e+01	-2.208701e+02
9.500000e-07	-2.364726e-06	-3.296755e-09	-1.651318e+01	-2.174305e+02
9.600000e-07	-2.259698e-06	-3.245435e-09	-1.577976e+01	-2.138395e+02
9.700000e-07	-2.154255e-06	-3.192339e-09	-1.504343e+01	-2.100963e+02
9.800000e-07	-2.048499e-06	-3.134499e-09	-1.430493e+01	-2.062012e+02
9.900000e-07	-1.942459e-06	-3.074122e-09	-1.356443e+01	-2.021543e+02
1.000000e-06	-1.836101e-06	-3.013345e-09	-1.282172e+01	-1.979548e+02
1.010000e-06	-1.729396e-06	-2.948393e-09	-1.207659e+01	-1.935989e+02
1.020000e-06	-1.622329e-06	-2.876521e-09	-1.132893e+01	-1.890793e+02
1.030000e-06	-1.514920e-06	-2.801970e-09	-1.057888e+01	-1.843831e+02
1.040000e-06	-1.407232e-06	-2.727065e-09	-9.826880e+00	-1.794914e+02
1.050000e-06	-1.299239e-06	-2.647411e-09	-9.072753e+00	-1.743782e+02
1.060000e-06	-1.190964e-06	-2.562229e-09	-8.316650e+00	-1.690101e+02
1.070000e-06	-1.082496e-06	-2.475024e-09	-7.559207e+00	-1.633466e+02
1.080000e-06	-9.738487e-07	-2.384614e-09	-6.800508e+00	-1.573406e+02
1.090000e-06	-8.649692e-07	-2.286487e-09	-6.040189e+00	-1.509397e+02
1.100000e-06	-7.558446e-07	-2.179368e-09	-5.278158e+00	-1.440883e+02
1.110000e-06	-6.465947e-07	-2.063896e-09	-4.515252e+00	-1.367296e+02
1.120000e-06	-5.372628e-07	-1.941385e-09	-3.751774e+00	-1.288081e+02
1.130000e-06	-4.277930e-07	-1.810322e-09	-2.987333e+00	-1.202731e+02
1.140000e-06	-3.182463e-07	-1.668543e-09	-2.222354e+00	-1.110811e+02
1.150000e-06	-2.086959e-07	-1.515746e-09	-1.457350e+00	-1.011995e+02
1.160000e-06	-9.909812e-08	-1.354068e-09	-6.920147e-01	-9.060879e+01
1.170000e-06	1.051240e-08	-1.183587e-09	7.340943e-02	-7.930514e+01
1.180000e-06	1.201118e-07	-1.002905e-09	8.387557e-01	-6.730235e+01
1.190000e-06	2.296971e-07	-8.129708e-10	1.604004e+00	-5.463288e+01
1.200000e-06	3.391726e-07	-6.147678e-10	2.368485e+00	-4.134825e+01
1.210000e-06	4.485133e-07	-4.071214e-10	3.132025e+00	-2.751855e+01
1.220000e-06	5.577551e-07	-1.880788e-10	3.894874e+00	-1.323119e+01
1.230000e-06	6.668316e-07	3.751943e-11	4.656569e+00	1.411272e+00
1.240000e-06	7.757114e-07	2.666388e-10	5.416891e+00	1.629397e+01
1.250000e-06	8.844611e-07	4.983745e-10	6.176303e+00	3.129320e+01
1.260000e-06	9.930067e-07	7.288221e-10	6.934291e+00	4.628026e+01
1.270000e-06	1.101288e-06	9.603635e-10	7.690432e+00	6.112572e+01
1.280000e-06	1.209359e-06	1.189146e-09	8.445103e+00	7.570356e+01
1.290000e-06	1.317200e-06	1.411762e-09	9.198173e+00	8.989528e+01
1.300000e-06	1.424865e-06	1.621448e-09	9.950012e+00	1.035936e+02
1.310000e-06	1.532280e-06	1.819100e-09	1.070010e+01	1.167058e+02
1.320000e-06	1.639328e-06	2.006787e-09	1.144763e+01	1.291561e+02
1.330000e-06	1.746107e-06	2.182328e-09	1.219328e+01	1.408873e+02
1.340000e-06	1.852645e-06	2.345454e-09	1.293725e+01	1.518621e+02
1.350000e-06	1.958928e-06	2.493448e-09	1.367944e+01	1.620627e+02
1.360000e-06	2.064944e-06	2.632384e-09	1.441976e+01	1.714903e+02
1.370000e-06	2.170581e-06	2.761609e-09	1.515744e+01	1.801632e+02
1.380000e-06	2.275754e-06	2.879540e-09	1.589187e+01	1.881148e+02
1.390000e-06	2.380507e-06	2.985629e-09	1.662338e+01	1.953908e+02
1.400000e-06	2.484743e-06	3.083812e-09	1.735127e+01	2.020463e+02
1.410000e-06	2.588464e-06	3.177468e-09	1.807557e+01	2.081420e+02
1.420000e-06	2.691797e-06	3.263805e-09	1.879716e+01	2.137416e+02
1.430000e-06	2.794603e-06	3.344211e-09	1.951506e+01	2.189085e+02
1.440000e-06	2.896888e-06	3.418174e-09	2.022934e+01	2.237030e+02
1.450000e-06	2.998792e-06	3.486950e-09	2.094094e+01	2.281804e+02
1.460000e-06	3.100309e-06	3.554783e-09	2.164985e+01	2.323889e+02
1.470000e-06	3.201313e-06	3.618518e-09	2.235517e+01	2.363690e+02
1.480000e-06	3.301705e-06	3.677385e-09	2.305622e+01	2.401526e+02
1.490000e-06	3.401491e-06	3.733569e-09	2.375304e+01	2.437634e+02
1.500000e-06	3.500651e-06	3.787842e-09	2.444549e+01	2.472173e+02
1.510000e-06	3.599221e-06	3.838464e-09	2.513381e+01	2.505237e+02
1.520000e-06	3.697199e-06	3.884601e-09	2.581801e+01	2.536867e+02
1.530000e-06	3.794492e-06	3.928189e-09	2.649742e+01	2.567066e+02
1.540000e-06	3.890985e-06	3.970349e-09	2.717124e+01	2.595815e+02
1.550000e-06	3.986586e-06	4.009786e-09	2.783883e+01	2.623090e+02
1.560000e-06	4.081352e-06	4.045211e-09	2.850060e+01	2.648873e+02
1.570000e-06	4.175417e-06	4.078344e-09	2.915747e+01	2.673164e+02
1.580000e-06	4.268875e-06	4.111892e-09	2.981009e+01	2.695990e+02
1.590000e-06	4.361602e-06	4.143605e-09	3.045761e+01	2.717407e+02
1.600000e-06	4.453463e-06	4.170843e-09	3.109909e+01	2.737502e+02
1.610000e-06	4.544560e-06	4.198120e-09	3.173524e+01	2.756389e+02
1.620000e-06	4.634904e-06	4.225799e-09	3.236612e+01	2.774207e+02
1.630000e-06	4.724347e-06	4.251568e-09	3.299071e+01	2.791106e+02
1.640000e-06	4.812830e-06	4.276771e-09	3.360860e+01	2.807244e+02
1.650000e-06	4.900335e-06	4.300935e-09	3.421965e+01	2.822776e+02
1.660000e-06	4.986942e-06	4.321544e-09	3.482445e+01	2.837843e+02
1.670000e-06	5.072813e-06	4.340208e-09	3.542409e+01	2.852564e+02
1.680000e-06	5.157928e-06	4.360316e-09	3.601846e+01	2.867032e+02
1.690000e-06	5.242189e-06	4.380216e-09	3.660687e+01	2.881310e+02
1.700000e-06	5.325620e-06	4.400208e-09	3.718948e+01	2.895427e+02
1.710000e-06	5.408197e-06	4.419043e-09	3.776612e+01	2.909380e+02
1.720000e-06	5.489779e-06	4.436248e-09	3.833582e+01	2.923139e+02
1.730000e-06	5.570403e-06	4.453949e-09	3.889883e+01	2.936651e+02
1.740000e-06	5.650153e-06	4.471648e-09	3.945573e+01	2.949847e+02
1.750000e-06	5.728923e-06	4.488669e-09	4.000579e+01	2.962651e+02
1.760000e-06	5.806561e-06	4.504400e-09	4.054795e+01	2.974986e+02
1.770000e-06	5.883079e-06	4.518832e-09	4.108229e+01	2.986784e+02
1.780000e-06	5.958587e-06	4.532867e-09	4.160956e+01	2.997991e+02
1.790000e-06	6.033013e-06	4.546129e-09	4.212929e+01	3.008575e+02
1.800000e-06	6.106151e-06	4.559704e-09	4.264002e+01	3.018525e+02
1.810000e-06	6.178121e-06	4.574005e-09	4.314260e+01	3.027854e+02
1.820000e-06	6.249035e-06	4.586769e-09	4.363780e+01	3.036599e+02
1.830000e-06	6.318861e-06	4.601079e-09	4.412540e+01	3.044820e+02
1.840000e-06	6.387627e-06	4.617490e-09	4.460561e+01	3.052589e+02
1.850000e-06	6.455298e-06	4.631885e-09	4.507816e+01	3.059990e+02
1.860000e-06	6.521883e-06	4.640882e-09	4.554313e+01	3.067111e+02
1.870000e-06	6.587226e-06	4.649155e-09	4.599943e+01	3.074037e+02
1.880000e-06	6.651264e-06	4.660527e-09	4.644662e+01	3.080845e+02
1.890000e-06	6.714149e-06	4.671312e-09	4.688575e+01	3.087596e+02
1.900000e-06	6.776011e-06	4.681276e-09	4.731774e+01	3.094333e+02
1.910000e-06	6.836777e-06	4.692420e-09	4.774208e+01	3.101081e+02
1.920000e-06	6.896287e-06	4.704867e-09	4.815764e+01	3.107840e+02
1.930000e-06	6.954520e-06	4.716695e-09	4.856429e+01	3.114593e+02
1.940000e-06	7.011402e-06	4.726442e-09	4.896151e+01	3.121305e+02
1.950000e-06	7.066935e-06	4.735816e-09	4.934930e+01	3.127927e+02
1.960000e-06	7.121230e-06	4.746179e-09	4.972845e+01	3.134402e+02
1.970000e-06	7.174245e-06	4.756122e-09	5.009866e+01	3.140672e+02
1.980000e-06	7.225833e-06	4.764570e-09	5.045890e+01	3.146680e+02
1.990000e-06	7.275819e-06	4.772917e-09	5.080796e+01	3.152379e+02
2.000000e-06	7.324198e-06	4.782090e-09	5.114580e+01	3.157733e+02
2.010000e-06	7.371215e-06	4.791427e-09	5.147413e+01	3.162723e+02
2.020000e-06	7.417040e-06	4.800602e-09	5.179412e+01	3.167345e+02
2.030000e-06	7.461640e-06	4.809023e-09	5.210557e+01	3.171616e+02
2.040000e-06	7.505007e-06	4.817244e-09	5.240841e+01	3.175565e+02
2.050000e-06	7.547043e-06	4.825028e-09	5.270195e+01	3.179237e+02
2.060000e-06	7.587577e-06	4.831764e-09	5.298501e+01	3.182686e+02
2.070000e-06	7.626773e-06	4.837983e-09	5.325871e+01	3.185971e+02
2.080000e-06	7.664791e-06	4.845143e-09	5.352420e+01	3.189149e+02
2.090000e-06	7.701574e-06	4.852736e-09	5.378106e+01	3.192275e+02
2.100000e-06	7.737096e-06	4.859619e-09	5.402912e+01	3.195392e+02
2.110000e-06	7.771246e-06	4.865201e-09	5.426759e+01	3.198533e+02
2.120000e-06	7.803899e-06	4.870684e-09	5.449561e+01	3.201712e+02
2.130000e-06	7.835182e-06	4.876636e-09	5.471406e+01	3.204930e+02
2.140000e-06	7.865169e-06	4.882073e-09	5.492347e+01	3.208170e+02
2.150000e-06	7.893887e-06	4.887914e-09	5.512401e+01	3.211403e+02
2.160000e-06	7.921371e-06	4.893436e-09	5.531594e+01	3.214584e+02
2.170000e-06	7.947421e-06	4.898869e-09	5.549784e+01	3.217665e+02
2.180000e-06	7.971840e-06	4.903484e-09	5.566837e+01	3.220593e+02
2.190000e-06	7.994813e-06	4.907049e-09	5.582879e+01	3.223313e+02
2.200000e-06	8.016496e-06	4.910123e-09	5.598020e+01	3.225780e+02
2.210000e-06	8.036936e-06	4.912526e-09	5.612294e+01	3.227956e+02
2.220000e-06	8.056232e-06	4.914889e-09	5.625768e+01	3.229816e+02
2.230000e-06	8.074169e-06	4.919185e-09	5.638294e+01	3.231349e+02
2.240000e-06	8.090471e-06	4.923325e-09	5.649678e+01	3.232559e+02
2.250000e-06	8.105146e-06	4.925867e-09	5.659925e+01	3.233465e+02
2.260000e-06	8.118331e-06	4.928742e-09	5.669133e+01	3.234097e+02
2.270000e-06	8.129995e-06	4.934240e-09	5.677278e+01	3.234496e+02
2.280000e-06	8.139936e-06	4.937778e-09	5.684220e+01	3.234710e+02
2.290000e-06	8.148206e-06	4.938994e-09	5.689995e+01	3.234787e+02
2.300000e-06	8.155043e-06	4.940085e-09	5.694770e+01	3.234774e+02
2.310000e-06	8.160475e-06	4.940090e-09	5.698563e+01	3.234712e+02
2.320000e-06	8.164559e-06	4.940682e-09	5.701415e+01	3.234633e+02
2.330000e-06	8.167307e-06	4.941093e-09	5.703334e+01	3.234556e+02
2.340000e-06	8.168476e-06	4.941903e-09	5.704150e+01	3.234488e+02
2.350000e-06	8.168049e-06	4.941437e-09	5.703852e+01	3.234421e+02
2.360000e-06	8.166237e-06	4.942692e-09	5.702586e+01	3.234336e+02
2.370000e-06	8.163186e-06	4.943072e-09	5.700456e+01	3.234202e+02
2.380000e-06	8.158970e-06	4.941553e-09	5.697512e+01	3.233980e+02
2.390000e-06	8.153367e-06	4.939327e-09	5.693599e+01	3.233628e+02
2.400000e-06	8.146209e-06	4.938289e-09	5.688601e+01	3.233103e+02
2.410000e-06	8.137769e-06	4.937000e-09	5.682707e+01	3.232364e+02
2.420000e-06	8.128157e-06	4.927601e-09	5.675994e+01	3.231378e+02
2.430000e-06	8.117199e-06	4.917188e-09	5.668342e+01	3.230122e+02
2.440000e-06	8.104553e-06	4.889632e-09	5.659512e+01	3.228582e+02
2.450000e-06	8.089700e-06	4.851251e-09	5.649139e+01	3.226760e+02
2.460000e-06	8.072750e-06	4.882083e-09	5.637303e+01	3.224667e+02
2.470000e-06	8.054378e-06	4.898104e-09	5.624474e+01	3.222326e+02
2.480000e-06	8.035120e-06	4.951709e-09	5.611026e+01	3.219768e+02
2.490000e-06	8.015147e-06	5.007157e-09	5.597079e+01	3.217029e+02
2.500000e-06	7.993833e-06	4.829429e-09	5.582194e+01	3.214147e+02
2.510000e-06	7.970716e-06	4.890196e-09	5.566051e+01	3.211160e+02
2.520000e-06	7.946394e-06	4.953634e-09	5.549067e+01	3.208096e+02
2.530000e-06	7.920915e-06	4.841320e-09	5.531275e+01	3.204980e+02
2.540000e-06	7.893855e-06	4.934331e-09	5.512379e+01	3.201823e+02
2.550000e-06	7.865628e-06	4.856051e-09	5.492667e+01	3.198624e+02
2.560000e-06	7.836187e-06	4.751739e-09	5.472108e+01	3.195371e+02
2.570000e-06	7.805056e-06	4.893104e-09	5.450369e+01	3.192039e+02
2.580000e-06	7.772380e-06	4.852704e-09	5.427551e+01	3.188595e+02
2.590000e-06	7.738341e-06	4.781805e-09	5.403781e+01	3.184999e+02
2.600000e-06	7.703110e-06	4.833810e-09	5.379179e+01	3.181208e+02
2.610000e-06	7.666732e-06	4.802903e-09	5.353775e+01	3.177176e+02
2.620000e-06	7.628774e-06	4.885135e-09	5.327269e+01	3.172867e+02
2.630000e-06	7.589161e-06	4.824205e-09	5.299607e+01	3.168249e+02
2.640000e-06	7.548180e-06	4.765773e-09	5.270989e+01	3.163301e+02
2.650000e-06	7.505921e-06	4.831358e-09	5.241479e+01	3.158014e+02
2.660000e-06	7.462452e-06	4.785928e-09	5.211125e+01	3.152395e+02
2.670000e-06	7.417819e-06	4.815765e-09	5.179957e+01	3.146460e+02
2.680000e-06	7.371751e-06	4.778692e-09	5.147786e+01	3.140238e+02
2.690000e-06	7.324128e-06	4.754787e-09	5.114531e+01	3.133769e+02
2.700000e-06	7.275273e-06	4.768677e-09	5.080415e+01	3.127096e+02
2.710000e-06	7.225130e-06	4.742165e-09	5.045399e+01	3.120265e+02
2.720000e-06	7.173491e-06	4.781587e-09	5.009339e+01	3.113318e+02
2.730000e-06	7.120309e-06	4.701839e-09	4.972202e+01	3.106292e+02
2.740000e-06	7.065507e-06	4.699896e-09	4.933932e+01	3.099213e+02
2.750000e-06	7.009295e-06	4.737918e-09	4.894679e+01	3.092096e+02
2.760000e-06	6.951877e-06	4.703088e-09	4.854583e+01	3.084940e+02
2.770000e-06	6.893271e-06	4.692083e-09	4.813658e+01	3.077730e+02
2.780000e-06	6.833620e-06	4.647999e-09	4.772003e+01	3.070437e+02
2.790000e-06	6.772876e-06	4.676110e-09	4.729585e+01	3.063019e+02
2.800000e-06	6.710759e-06	4.665128e-09	4.686208e+01	3.055426e+02
2.810000e-06	6.647280e-06	4.636941e-09	4.641879e+01	3.047604e+02
2.820000e-06	6.582687e-06	4.626290e-09	4.596774e+01	3.039496e+02
2.830000e-06	6.516980e-06	4.604596e-09	4.550890e+01	3.031050e+02
2.840000e-06	6.450160e-06	4.606485e-09	4.504228e+01	3.022224e+02
2.850000e-06	6.382340e-06	4.577025e-09	4.456868e+01	3.012985e+02
2.860000e-06	6.313313e-06	4.567590e-09	4.408666e+01	3.003316e+02
2.870000e-06	6.243035e-06	4.550112e-09	4.359590e+01	2.993214e+02
2.880000e-06	6.171650e-06	4.533237e-09	4.309741e+01	2.982695e+02
2.890000e-06	6.099174e-06	4.516655e-09	4.259130e+01	2.971786e+02
2.900000e-06	6.025663e-06	4.495894e-09	4.207797e+01	2.960527e+02
2.910000e-06	5.951169e-06	4.483724e-09	4.155776e+01	2.948967e+02
2.920000e-06	5.875634e-06	4.465028e-09	4.103030e+01	2.937157e+02
2.930000e-06	5.798865e-06	4.457596e-09	4.049421e+01	2.925148e+02
2.940000e-06	5.720789e-06	4.432024e-09	3.994899e+01	2.912981e+02
2.950000e-06	5.641579e-06	4.409322e-09	3.939586e+01	2.900689e+02
