# Temperatura_=_20.0
# Concentracion g/m^3_=_9000.0
# C_Vs_to_Am_M_A/Vsm_=_65563218390.804596
# pendiente_HvsI_1/m_=_3716.3
# ordenada_HvsI_A/m_=_1297.0
# frecuencia_Hz_=_212981.84788603685

Tiempo_(s)	Campo_(V.s)	Magnetizacion_(V.s)	Campo_(kA/m)	Magnetizacion_(A/m)
0.000000e+00	-8.089114e-06	-5.072609e-09	-5.692270e+01	-3.332207e+02
1.000000e-08	-8.088388e-06	-5.067594e-09	-5.691759e+01	-3.332117e+02
2.000000e-08	-8.086021e-06	-5.068043e-09	-5.690093e+01	-3.332017e+02
3.000000e-08	-8.082187e-06	-5.070338e-09	-5.687395e+01	-3.331868e+02
4.000000e-08	-8.077129e-06	-5.067645e-09	-5.683836e+01	-3.331623e+02
5.000000e-08	-8.070801e-06	-5.065239e-09	-5.679383e+01	-3.331233e+02
6.000000e-08	-8.063252e-06	-5.064138e-09	-5.674070e+01	-3.330649e+02
7.000000e-08	-8.054289e-06	-5.064257e-09	-5.667764e+01	-3.329827e+02
8.000000e-08	-8.043648e-06	-5.062273e-09	-5.660275e+01	-3.328730e+02
9.000000e-08	-8.031438e-06	-5.056290e-09	-5.651683e+01	-3.327337e+02
1.000000e-07	-8.017492e-06	-5.088390e-09	-5.641869e+01	-3.325635e+02
1.100000e-07	-8.001506e-06	-5.107059e-09	-5.630621e+01	-3.323629e+02
1.200000e-07	-7.983832e-06	-5.075956e-09	-5.618183e+01	-3.321334e+02
1.300000e-07	-7.964887e-06	-5.046280e-09	-5.604852e+01	-3.318779e+02
1.400000e-07	-7.945004e-06	-5.003854e-09	-5.590860e+01	-3.316000e+02
1.500000e-07	-7.924227e-06	-4.986326e-09	-5.576239e+01	-3.313039e+02
1.600000e-07	-7.902240e-06	-5.107233e-09	-5.560767e+01	-3.309938e+02
1.700000e-07	-7.879089e-06	-5.066820e-09	-5.544476e+01	-3.306737e+02
1.800000e-07	-7.854594e-06	-4.987870e-09	-5.527239e+01	-3.303468e+02
1.900000e-07	-7.828268e-06	-5.039583e-09	-5.508714e+01	-3.300155e+02
2.000000e-07	-7.800586e-06	-5.006092e-09	-5.489234e+01	-3.296806e+02
2.100000e-07	-7.771953e-06	-5.050620e-09	-5.469085e+01	-3.293419e+02
2.200000e-07	-7.741925e-06	-5.077351e-09	-5.447954e+01	-3.289977e+02
2.300000e-07	-7.710561e-06	-4.966708e-09	-5.425884e+01	-3.286449e+02
2.400000e-07	-7.677949e-06	-4.968535e-09	-5.402935e+01	-3.282797e+02
2.500000e-07	-7.643747e-06	-5.049405e-09	-5.378867e+01	-3.278972e+02
2.600000e-07	-7.608066e-06	-5.032310e-09	-5.353759e+01	-3.274925e+02
2.700000e-07	-7.571032e-06	-4.988132e-09	-5.327698e+01	-3.270606e+02
2.800000e-07	-7.532605e-06	-4.931599e-09	-5.300657e+01	-3.265970e+02
2.900000e-07	-7.492976e-06	-4.966026e-09	-5.272770e+01	-3.260981e+02
3.000000e-07	-7.451992e-06	-4.994162e-09	-5.243930e+01	-3.255614e+02
3.100000e-07	-7.409384e-06	-4.962190e-09	-5.213947e+01	-3.249859e+02
3.200000e-07	-7.365317e-06	-4.929427e-09	-5.182937e+01	-3.243719e+02
3.300000e-07	-7.319885e-06	-4.910895e-09	-5.150967e+01	-3.237211e+02
3.400000e-07	-7.273147e-06	-4.938712e-09	-5.118078e+01	-3.230365e+02
3.500000e-07	-7.225248e-06	-4.930065e-09	-5.084371e+01	-3.223220e+02
3.600000e-07	-7.175695e-06	-4.909536e-09	-5.049501e+01	-3.215823e+02
3.700000e-07	-7.124193e-06	-4.875009e-09	-5.013259e+01	-3.208221e+02
3.800000e-07	-7.071242e-06	-4.858640e-09	-4.975998e+01	-3.200460e+02
3.900000e-07	-7.017099e-06	-4.888075e-09	-4.937898e+01	-3.192579e+02
4.000000e-07	-6.961786e-06	-4.866934e-09	-4.898974e+01	-3.184608e+02
4.100000e-07	-6.905302e-06	-4.823339e-09	-4.859227e+01	-3.176563e+02
4.200000e-07	-6.847462e-06	-4.814215e-09	-4.818525e+01	-3.168447e+02
4.300000e-07	-6.788282e-06	-4.828561e-09	-4.776881e+01	-3.160247e+02
4.400000e-07	-6.727853e-06	-4.816150e-09	-4.734357e+01	-3.151938e+02
4.500000e-07	-6.666256e-06	-4.775555e-09	-4.691011e+01	-3.143479e+02
4.600000e-07	-6.603645e-06	-4.761662e-09	-4.646953e+01	-3.134824e+02
4.700000e-07	-6.540084e-06	-4.756164e-09	-4.602225e+01	-3.125920e+02
4.800000e-07	-6.475306e-06	-4.743911e-09	-4.556641e+01	-3.116713e+02
4.900000e-07	-6.409202e-06	-4.726128e-09	-4.510124e+01	-3.107153e+02
5.000000e-07	-6.341947e-06	-4.708742e-09	-4.462797e+01	-3.097199e+02
5.100000e-07	-6.273585e-06	-4.697429e-09	-4.414691e+01	-3.086818e+02
5.200000e-07	-6.204236e-06	-4.683291e-09	-4.365891e+01	-3.075994e+02
5.300000e-07	-6.133934e-06	-4.663873e-09	-4.316419e+01	-3.064725e+02
5.400000e-07	-6.062643e-06	-4.643270e-09	-4.266252e+01	-3.053022e+02
5.500000e-07	-5.990332e-06	-4.629927e-09	-4.215367e+01	-3.040911e+02
5.600000e-07	-5.916859e-06	-4.614977e-09	-4.163664e+01	-3.028430e+02
5.700000e-07	-5.842123e-06	-4.596122e-09	-4.111073e+01	-3.015622e+02
5.800000e-07	-5.766077e-06	-4.572260e-09	-4.057560e+01	-3.002534e+02
5.900000e-07	-5.688887e-06	-4.548847e-09	-4.003242e+01	-2.989212e+02
6.000000e-07	-5.610659e-06	-4.533945e-09	-3.948193e+01	-2.975692e+02
6.100000e-07	-5.531277e-06	-4.514496e-09	-3.892332e+01	-2.962001e+02
6.200000e-07	-5.450760e-06	-4.483524e-09	-3.835673e+01	-2.948154e+02
6.300000e-07	-5.369161e-06	-4.455655e-09	-3.778252e+01	-2.934145e+02
6.400000e-07	-5.286621e-06	-4.446025e-09	-3.720169e+01	-2.919955e+02
6.500000e-07	-5.203299e-06	-4.430021e-09	-3.661536e+01	-2.905543e+02
6.600000e-07	-5.119148e-06	-4.398258e-09	-3.602319e+01	-2.890859e+02
6.700000e-07	-5.034197e-06	-4.369469e-09	-3.542540e+01	-2.875837e+02
6.800000e-07	-4.948449e-06	-4.348074e-09	-3.482200e+01	-2.860408e+02
6.900000e-07	-4.861906e-06	-4.327686e-09	-3.421299e+01	-2.844497e+02
7.000000e-07	-4.774596e-06	-4.299211e-09	-3.359860e+01	-2.828037e+02
7.100000e-07	-4.686165e-06	-4.267737e-09	-3.297631e+01	-2.810966e+02
7.200000e-07	-4.596652e-06	-4.241174e-09	-3.234641e+01	-2.793237e+02
7.300000e-07	-4.506450e-06	-4.219437e-09	-3.171166e+01	-2.774818e+02
7.400000e-07	-4.415583e-06	-4.195242e-09	-3.107224e+01	-2.755697e+02
7.500000e-07	-4.323814e-06	-4.161770e-09	-3.042646e+01	-2.735879e+02
7.600000e-07	-4.231111e-06	-4.124961e-09	-2.977412e+01	-2.715386e+02
7.700000e-07	-4.137723e-06	-4.094095e-09	-2.911695e+01	-2.694254e+02
7.800000e-07	-4.043787e-06	-4.067485e-09	-2.845593e+01	-2.672527e+02
7.900000e-07	-3.949266e-06	-4.035418e-09	-2.779079e+01	-2.650256e+02
8.000000e-07	-3.854034e-06	-3.996572e-09	-2.712065e+01	-2.627487e+02
8.100000e-07	-3.757965e-06	-3.961954e-09	-2.644461e+01	-2.604257e+02
8.200000e-07	-3.661100e-06	-3.932504e-09	-2.576298e+01	-2.580589e+02
8.300000e-07	-3.563606e-06	-3.898293e-09	-2.507692e+01	-2.556488e+02
8.400000e-07	-3.465583e-06	-3.856603e-09	-2.438714e+01	-2.531934e+02
8.500000e-07	-3.367027e-06	-3.812576e-09	-2.369360e+01	-2.506884e+02
8.600000e-07	-3.267890e-06	-3.772506e-09	-2.299598e+01	-2.481272e+02
8.700000e-07	-3.168114e-06	-3.731262e-09	-2.229386e+01	-2.455008e+02
8.800000e-07	-3.067701e-06	-3.687918e-09	-2.158726e+01	-2.427987e+02
8.900000e-07	-2.966778e-06	-3.643243e-09	-2.087707e+01	-2.400091e+02
9.000000e-07	-2.865436e-06	-3.597955e-09	-2.016393e+01	-2.371196e+02
9.100000e-07	-2.763717e-06	-3.555537e-09	-1.944814e+01	-2.341184e+02
9.200000e-07	-2.661604e-06	-3.509073e-09	-1.872957e+01	-2.309942e+02
9.300000e-07	-2.559088e-06	-3.459450e-09	-1.800818e+01	-2.277373e+02
9.400000e-07	-2.456155e-06	-3.406731e-09	-1.728385e+01	-2.243400e+02
9.500000e-07	-2.352808e-06	-3.351078e-09	-1.655659e+01	-2.207966e+02
9.600000e-07	-2.249017e-06	-3.296363e-09	-1.582622e+01	-2.171034e+02
9.700000e-07	-2.144680e-06	-3.239443e-09	-1.509200e+01	-2.132582e+02
9.800000e-07	-2.039823e-06	-3.178377e-09	-1.435413e+01	-2.092599e+02
9.900000e-07	-1.934546e-06	-3.116021e-09	-1.361331e+01	-2.051074e+02
1.000000e-06	-1.828931e-06	-3.053726e-09	-1.287010e+01	-2.007986e+02
1.010000e-06	-1.723022e-06	-2.987705e-09	-1.212482e+01	-1.963290e+02
1.020000e-06	-1.616871e-06	-2.917710e-09	-1.137784e+01	-1.916904e+02
1.030000e-06	-1.510444e-06	-2.845513e-09	-1.062892e+01	-1.868699e+02
1.040000e-06	-1.403709e-06	-2.770149e-09	-9.877829e+00	-1.818488e+02
1.050000e-06	-1.296689e-06	-2.688798e-09	-9.124737e+00	-1.766014e+02
1.060000e-06	-1.189326e-06	-2.601895e-09	-8.369226e+00	-1.710954e+02
1.070000e-06	-1.081626e-06	-2.510390e-09	-7.611346e+00	-1.652915e+02
1.080000e-06	-9.737078e-07	-2.414072e-09	-6.851934e+00	-1.591440e+02
1.090000e-06	-8.655785e-07	-2.312720e-09	-6.091033e+00	-1.526021e+02
1.100000e-06	-7.572552e-07	-2.203233e-09	-5.328767e+00	-1.456117e+02
1.110000e-06	-6.487744e-07	-2.086444e-09	-4.565393e+00	-1.381175e+02
1.120000e-06	-5.401809e-07	-1.962292e-09	-3.801226e+00	-1.300653e+02
1.130000e-06	-4.315195e-07	-1.831476e-09	-3.036582e+00	-1.214053e+02
1.140000e-06	-3.227282e-07	-1.690771e-09	-2.271022e+00	-1.120947e+02
1.150000e-06	-2.138519e-07	-1.537190e-09	-1.504866e+00	-1.021010e+02
1.160000e-06	-1.049744e-07	-1.373789e-09	-7.386999e-01	-9.140441e+01
1.170000e-06	3.873346e-09	-1.202062e-09	2.725655e-02	-8.000060e+01
1.180000e-06	1.126792e-07	-1.021945e-09	7.929182e-01	-6.790233e+01
1.190000e-06	2.214269e-07	-8.305670e-10	1.558170e+00	-5.514076e+01
1.200000e-06	3.301247e-07	-6.281491e-10	2.323071e+00	-4.176595e+01
1.210000e-06	4.387543e-07	-4.179009e-10	3.087492e+00	-2.784644e+01
1.220000e-06	5.472443e-07	-1.999316e-10	3.850931e+00	-1.346811e+01
1.230000e-06	6.555811e-07	2.487913e-11	4.613292e+00	1.267856e+00
1.240000e-06	7.637016e-07	2.570683e-10	5.374130e+00	1.624771e+01
1.250000e-06	8.715438e-07	4.933089e-10	6.133011e+00	3.134852e+01
1.260000e-06	9.792193e-07	7.271698e-10	6.890718e+00	4.644201e+01
1.270000e-06	1.086706e-06	9.586132e-10	7.647100e+00	6.139867e+01
1.280000e-06	1.193918e-06	1.187443e-09	8.401540e+00	7.609201e+01
1.290000e-06	1.300878e-06	1.412441e-09	9.154213e+00	9.040267e+01
1.300000e-06	1.407598e-06	1.625774e-09	9.905196e+00	1.042222e+02
1.310000e-06	1.514108e-06	1.824473e-09	1.065470e+01	1.174562e+02
1.320000e-06	1.620382e-06	2.012085e-09	1.140255e+01	1.300275e+02
1.330000e-06	1.726414e-06	2.190005e-09	1.214869e+01	1.418771e+02
1.340000e-06	1.832189e-06	2.355808e-09	1.289302e+01	1.529662e+02
1.350000e-06	1.937664e-06	2.506200e-09	1.363524e+01	1.632756e+02
1.360000e-06	2.042847e-06	2.645347e-09	1.437542e+01	1.728053e+02
1.370000e-06	2.147581e-06	2.775840e-09	1.511242e+01	1.815730e+02
1.380000e-06	2.251797e-06	2.895466e-09	1.584579e+01	1.896119e+02
1.390000e-06	2.355587e-06	3.004091e-09	1.657615e+01	1.969680e+02
1.400000e-06	2.458957e-06	3.104141e-09	1.730356e+01	2.036967e+02
1.410000e-06	2.561920e-06	3.198978e-09	1.802811e+01	2.098601e+02
1.420000e-06	2.664445e-06	3.287318e-09	1.874957e+01	2.155234e+02
1.430000e-06	2.766567e-06	3.368814e-09	1.946820e+01	2.207516e+02
1.440000e-06	2.868311e-06	3.445843e-09	2.018416e+01	2.256070e+02
1.450000e-06	2.969617e-06	3.517776e-09	2.089705e+01	2.301468e+02
1.460000e-06	3.070495e-06	3.584807e-09	2.160692e+01	2.344212e+02
1.470000e-06	3.170814e-06	3.647816e-09	2.231286e+01	2.384725e+02
1.480000e-06	3.270474e-06	3.707317e-09	2.301416e+01	2.423340e+02
1.490000e-06	3.369496e-06	3.763487e-09	2.371098e+01	2.460305e+02
1.500000e-06	3.467940e-06	3.818762e-09	2.440372e+01	2.495789e+02
1.510000e-06	3.565825e-06	3.871661e-09	2.509253e+01	2.529889e+02
1.520000e-06	3.663008e-06	3.919998e-09	2.577641e+01	2.562645e+02
1.530000e-06	3.759411e-06	3.967736e-09	2.645479e+01	2.594055e+02
1.540000e-06	3.855026e-06	4.014670e-09	2.712763e+01	2.624095e+02
1.550000e-06	3.949903e-06	4.058328e-09	2.779528e+01	2.652729e+02
1.560000e-06	4.044110e-06	4.095503e-09	2.845821e+01	2.679928e+02
1.570000e-06	4.137705e-06	4.128146e-09	2.911682e+01	2.705681e+02
1.580000e-06	4.230640e-06	4.161658e-09	2.977080e+01	2.730001e+02
1.590000e-06	4.322769e-06	4.195110e-09	3.041911e+01	2.752934e+02
1.600000e-06	4.414045e-06	4.226661e-09	3.106142e+01	2.774557e+02
1.610000e-06	4.504524e-06	4.255442e-09	3.169812e+01	2.794979e+02
1.620000e-06	4.594217e-06	4.285613e-09	3.232928e+01	2.814331e+02
1.630000e-06	4.682962e-06	4.317192e-09	3.295377e+01	2.832764e+02
1.640000e-06	4.770712e-06	4.345510e-09	3.357127e+01	2.850437e+02
1.650000e-06	4.857644e-06	4.369524e-09	3.418300e+01	2.867505e+02
1.660000e-06	4.943851e-06	4.391699e-09	3.478963e+01	2.884116e+02
1.670000e-06	5.029239e-06	4.413461e-09	3.539051e+01	2.900393e+02
1.680000e-06	5.113808e-06	4.435078e-09	3.598562e+01	2.916437e+02
1.690000e-06	5.197580e-06	4.456898e-09	3.657512e+01	2.932314e+02
1.700000e-06	5.280505e-06	4.478282e-09	3.715865e+01	2.948058e+02
1.710000e-06	5.362575e-06	4.498356e-09	3.773618e+01	2.963669e+02
1.720000e-06	5.443644e-06	4.518748e-09	3.830665e+01	2.979119e+02
1.730000e-06	5.523594e-06	4.540303e-09	3.886926e+01	2.994352e+02
1.740000e-06	5.602565e-06	4.560429e-09	3.942497e+01	3.009296e+02
1.750000e-06	5.680590e-06	4.579317e-09	3.997403e+01	3.023868e+02
1.760000e-06	5.757678e-06	4.597040e-09	4.051649e+01	3.037985e+02
1.770000e-06	5.833812e-06	4.614313e-09	4.105225e+01	3.051570e+02
1.780000e-06	5.908818e-06	4.629006e-09	4.158006e+01	3.064559e+02
1.790000e-06	5.982556e-06	4.641063e-09	4.209895e+01	3.076909e+02
1.800000e-06	6.055041e-06	4.655259e-09	4.260902e+01	3.088599e+02
1.810000e-06	6.126418e-06	4.669524e-09	4.311130e+01	3.099635e+02
1.820000e-06	6.196802e-06	4.685104e-09	4.360659e+01	3.110048e+02
1.830000e-06	6.266226e-06	4.702540e-09	4.409513e+01	3.119888e+02
1.840000e-06	6.334594e-06	4.720709e-09	4.457623e+01	3.129227e+02
1.850000e-06	6.401884e-06	4.737533e-09	4.504974e+01	3.138148e+02
1.860000e-06	6.468037e-06	4.750103e-09	4.551526e+01	3.146738e+02
1.870000e-06	6.532854e-06	4.761126e-09	4.597137e+01	3.155085e+02
1.880000e-06	6.596458e-06	4.772471e-09	4.641895e+01	3.163269e+02
1.890000e-06	6.659027e-06	4.783503e-09	4.685924e+01	3.171355e+02
1.900000e-06	6.720499e-06	4.793612e-09	4.729182e+01	3.179392e+02
1.910000e-06	6.780888e-06	4.805285e-09	4.771677e+01	3.187408e+02
1.920000e-06	6.840160e-06	4.817599e-09	4.813387e+01	3.195407e+02
1.930000e-06	6.898073e-06	4.830647e-09	4.854140e+01	3.203374e+02
1.940000e-06	6.954502e-06	4.843386e-09	4.893849e+01	3.211274e+02
1.950000e-06	7.009718e-06	4.854950e-09	4.932704e+01	3.219060e+02
1.960000e-06	7.063798e-06	4.867622e-09	4.970760e+01	3.226672e+02
1.970000e-06	7.116548e-06	4.879153e-09	5.007880e+01	3.234047e+02
1.980000e-06	7.167785e-06	4.887120e-09	5.043935e+01	3.241126e+02
1.990000e-06	7.217403e-06	4.895457e-09	5.078851e+01	3.247856e+02
2.000000e-06	7.265532e-06	4.905142e-09	5.112719e+01	3.254195e+02
2.010000e-06	7.312298e-06	4.915163e-09	5.145628e+01	3.260119e+02
2.020000e-06	7.357806e-06	4.924822e-09	5.177652e+01	3.265621e+02
2.030000e-06	7.402178e-06	4.934585e-09	5.208876e+01	3.270711e+02
2.040000e-06	7.445362e-06	4.945709e-09	5.239265e+01	3.275420e+02
2.050000e-06	7.487137e-06	4.956008e-09	5.268662e+01	3.279789e+02
2.060000e-06	7.527409e-06	4.964334e-09	5.297001e+01	3.283873e+02
2.070000e-06	7.566387e-06	4.970178e-09	5.324429e+01	3.287734e+02
2.080000e-06	7.604171e-06	4.976380e-09	5.351018e+01	3.291433e+02
2.090000e-06	7.640739e-06	4.984271e-09	5.376750e+01	3.295029e+02
2.100000e-06	7.676073e-06	4.991313e-09	5.401615e+01	3.298569e+02
2.110000e-06	7.710027e-06	4.996353e-09	5.425508e+01	3.302092e+02
2.120000e-06	7.742509e-06	5.002763e-09	5.448366e+01	3.305618e+02
2.130000e-06	7.773607e-06	5.011033e-09	5.470249e+01	3.309151e+02
2.140000e-06	7.803435e-06	5.017633e-09	5.491239e+01	3.312678e+02
2.150000e-06	7.832093e-06	5.024634e-09	5.511405e+01	3.316172e+02
2.160000e-06	7.859584e-06	5.033107e-09	5.530751e+01	3.319591e+02
2.170000e-06	7.885577e-06	5.039097e-09	5.549041e+01	3.322885e+02
2.180000e-06	7.909910e-06	5.042893e-09	5.566165e+01	3.325999e+02
2.190000e-06	7.932826e-06	5.045281e-09	5.582290e+01	3.328880e+02
2.200000e-06	7.954407e-06	5.048131e-09	5.597477e+01	3.331477e+02
2.210000e-06	7.974746e-06	5.050849e-09	5.611789e+01	3.333751e+02
2.220000e-06	7.993925e-06	5.052951e-09	5.625286e+01	3.335674e+02
2.230000e-06	8.011683e-06	5.057417e-09	5.637782e+01	3.337236e+02
2.240000e-06	8.027892e-06	5.062295e-09	5.649188e+01	3.338440e+02
2.250000e-06	8.042588e-06	5.065639e-09	5.659529e+01	3.339306e+02
2.260000e-06	8.055780e-06	5.069028e-09	5.668813e+01	3.339869e+02
2.270000e-06	8.067410e-06	5.074327e-09	5.676997e+01	3.340174e+02
2.280000e-06	8.077294e-06	5.078362e-09	5.683952e+01	3.340275e+02
2.290000e-06	8.085521e-06	5.079631e-09	5.689742e+01	3.340227e+02
2.300000e-06	8.092319e-06	5.080070e-09	5.694525e+01	3.340085e+02
2.310000e-06	8.097769e-06	5.080197e-09	5.698360e+01	3.339900e+02
2.320000e-06	8.101974e-06	5.079741e-09	5.701319e+01	3.339710e+02
2.330000e-06	8.104816e-06	5.078428e-09	5.703319e+01	3.339542e+02
2.340000e-06	8.105997e-06	5.078320e-09	5.704150e+01	3.339409e+02
2.350000e-06	8.105651e-06	5.080331e-09	5.703907e+01	3.339306e+02
2.360000e-06	8.104037e-06	5.080858e-09	5.702771e+01	3.339216e+02
2.370000e-06	8.101173e-06	5.077596e-09	5.700756e+01	3.339108e+02
2.380000e-06	8.097154e-06	5.076100e-09	5.697927e+01	3.338939e+02
2.390000e-06	8.091724e-06	5.076245e-09	5.694106e+01	3.338663e+02
2.400000e-06	8.084678e-06	5.075798e-09	5.689148e+01	3.338229e+02
2.410000e-06	8.076360e-06	5.074942e-09	5.683295e+01	3.337588e+02
2.420000e-06	8.066880e-06	5.074750e-09	5.676624e+01	3.336700e+02
2.430000e-06	8.056106e-06	5.074573e-09	5.669042e+01	3.335531e+02
2.440000e-06	8.043703e-06	5.028487e-09	5.660314e+01	3.334061e+02
2.450000e-06	8.029085e-06	4.991704e-09	5.650027e+01	3.332282e+02
2.460000e-06	8.012384e-06	5.017508e-09	5.638275e+01	3.330201e+02
2.470000e-06	7.994207e-06	5.045705e-09	5.625484e+01	3.327838e+02
2.480000e-06	7.975076e-06	5.132093e-09	5.612022e+01	3.325223e+02
2.490000e-06	7.955332e-06	5.113309e-09	5.598128e+01	3.322395e+02
2.500000e-06	7.934193e-06	4.953051e-09	5.583253e+01	3.319394e+02
2.510000e-06	7.911172e-06	5.056538e-09	5.567053e+01	3.316265e+02
2.520000e-06	7.887109e-06	5.077436e-09	5.550120e+01	3.313044e+02
2.530000e-06	7.861884e-06	5.019985e-09	5.532369e+01	3.309762e+02
2.540000e-06	7.834995e-06	5.105616e-09	5.513448e+01	3.306439e+02
2.550000e-06	7.807009e-06	4.974406e-09	5.493754e+01	3.303081e+02
2.560000e-06	7.777911e-06	4.953580e-09	5.473278e+01	3.299683e+02
2.570000e-06	7.747174e-06	5.093044e-09	5.451648e+01	3.296222e+02
2.580000e-06	7.714883e-06	4.996611e-09	5.428925e+01	3.292667e+02
2.590000e-06	7.681236e-06	4.939874e-09	5.405248e+01	3.288976e+02
2.600000e-06	7.646412e-06	4.970834e-09	5.380743e+01	3.285100e+02
2.610000e-06	7.610479e-06	4.986295e-09	5.355457e+01	3.280989e+02
2.620000e-06	7.572946e-06	5.058906e-09	5.329045e+01	3.276595e+02
2.630000e-06	7.533703e-06	4.967622e-09	5.301430e+01	3.271873e+02
2.640000e-06	7.493126e-06	4.957923e-09	5.272876e+01	3.266791e+02
2.650000e-06	7.451288e-06	4.980828e-09	5.243434e+01	3.261328e+02
2.660000e-06	7.408195e-06	4.938702e-09	5.213110e+01	3.255475e+02
2.670000e-06	7.363965e-06	4.989554e-09	5.181986e+01	3.249241e+02
2.680000e-06	7.318319e-06	4.937549e-09	5.149865e+01	3.242645e+02
2.690000e-06	7.271050e-06	4.913865e-09	5.116602e+01	3.235720e+02
2.700000e-06	7.222594e-06	4.916746e-09	5.082504e+01	3.228508e+02
2.710000e-06	7.172916e-06	4.932781e-09	5.047546e+01	3.221055e+02
2.720000e-06	7.121711e-06	4.943252e-09	5.011513e+01	3.213409e+02
2.730000e-06	7.068998e-06	4.846090e-09	4.974419e+01	3.205614e+02
2.740000e-06	7.014815e-06	4.876070e-09	4.936291e+01	3.197708e+02
2.750000e-06	6.959253e-06	4.894015e-09	4.897192e+01	3.189717e+02
2.760000e-06	6.902365e-06	4.859104e-09	4.857160e+01	3.181654e+02
2.770000e-06	6.844288e-06	4.835726e-09	4.816292e+01	3.173519e+02
2.780000e-06	6.785202e-06	4.813842e-09	4.774714e+01	3.165295e+02
2.790000e-06	6.725015e-06	4.839925e-09	4.732360e+01	3.156951e+02
2.800000e-06	6.663507e-06	4.802844e-09	4.689077e+01	3.148448e+02
2.810000e-06	6.600660e-06	4.791956e-09	4.644852e+01	3.139736e+02
2.820000e-06	6.536705e-06	4.788415e-09	4.599847e+01	3.130761e+02
2.830000e-06	6.471599e-06	4.768094e-09	4.554032e+01	3.121470e+02
2.840000e-06	6.405328e-06	4.748216e-09	4.507398e+01	3.111815e+02
2.850000e-06	6.338092e-06	4.726930e-09	4.460084e+01	3.101756e+02
2.860000e-06	6.269725e-06	4.726887e-09	4.411975e+01	3.091266e+02
2.870000e-06	6.200094e-06	4.700626e-09	4.362976e+01	3.080330e+02
2.880000e-06	6.129340e-06	4.685904e-09	4.313186e+01	3.068950e+02
2.890000e-06	6.057536e-06	4.668172e-09	4.262658e+01	3.057142e+02
2.900000e-06	5.984714e-06	4.646129e-09	4.211414e+01	3.044934e+02
2.910000e-06	5.910921e-06	4.626742e-09	4.159486e+01	3.032367e+02
2.920000e-06	5.836064e-06	4.616853e-09	4.106809e+01	3.019485e+02
2.930000e-06	5.760018e-06	4.603859e-09	4.053296e+01	3.006334e+02
2.940000e-06	5.682673e-06	4.567237e-09	3.998869e+01	2.992958e+02
2.950000e-06	5.604143e-06	4.548129e-09	3.943608e+01	2.979394e+02
