# Temperatura_=_20.0
# Concentracion g/m^3_=_9000.0
# C_Vs_to_Am_M_A/Vsm_=_65563218390.804596
# pendiente_HvsI_1/m_=_3716.3
# ordenada_HvsI_A/m_=_1297.0
# frecuencia_Hz_=_212981.11150312124

Tiempo_(s)	Campo_(V.s)	Magnetizacion_(V.s)	Campo_(kA/m)	Magnetizacion_(A/m)
0.000000e+00	-8.089008e-06	-4.956546e-09	-5.692229e+01	-3.245779e+02
1.000000e-08	-8.087995e-06	-4.955092e-09	-5.691516e+01	-3.245767e+02
2.000000e-08	-8.085406e-06	-4.958572e-09	-5.689694e+01	-3.245606e+02
3.000000e-08	-8.081504e-06	-4.961020e-09	-5.686948e+01	-3.245264e+02
4.000000e-08	-8.076412e-06	-4.959805e-09	-5.683365e+01	-3.244710e+02
5.000000e-08	-8.069972e-06	-4.955409e-09	-5.678833e+01	-3.243921e+02
6.000000e-08	-8.062328e-06	-4.950158e-09	-5.673455e+01	-3.242885e+02
7.000000e-08	-8.053304e-06	-4.947420e-09	-5.667104e+01	-3.241602e+02
8.000000e-08	-8.042550e-06	-4.944540e-09	-5.659537e+01	-3.240086e+02
9.000000e-08	-8.030141e-06	-4.945948e-09	-5.650804e+01	-3.238365e+02
1.000000e-07	-8.015938e-06	-4.978043e-09	-5.640810e+01	-3.236480e+02
1.100000e-07	-7.999775e-06	-4.988887e-09	-5.629436e+01	-3.234482e+02
1.200000e-07	-7.982004e-06	-4.959818e-09	-5.616930e+01	-3.232426e+02
1.300000e-07	-7.963057e-06	-4.924281e-09	-5.603597e+01	-3.230372e+02
1.400000e-07	-7.943187e-06	-4.877687e-09	-5.589615e+01	-3.228376e+02
1.500000e-07	-7.922335e-06	-4.897233e-09	-5.574942e+01	-3.226485e+02
1.600000e-07	-7.900241e-06	-4.983675e-09	-5.559393e+01	-3.224734e+02
1.700000e-07	-7.876999e-06	-4.923962e-09	-5.543038e+01	-3.223141e+02
1.800000e-07	-7.852253e-06	-4.874792e-09	-5.525624e+01	-3.221705e+02
1.900000e-07	-7.825711e-06	-4.900268e-09	-5.506947e+01	-3.220403e+02
2.000000e-07	-7.798003e-06	-4.889001e-09	-5.487449e+01	-3.219193e+02
2.100000e-07	-7.769241e-06	-4.958667e-09	-5.467209e+01	-3.218011e+02
2.200000e-07	-7.739062e-06	-4.940534e-09	-5.445972e+01	-3.216779e+02
2.300000e-07	-7.707611e-06	-4.848701e-09	-5.423840e+01	-3.215406e+02
2.400000e-07	-7.674812e-06	-4.891964e-09	-5.400760e+01	-3.213797e+02
2.500000e-07	-7.640422e-06	-4.944137e-09	-5.376560e+01	-3.211856e+02
2.600000e-07	-7.604663e-06	-4.918278e-09	-5.351396e+01	-3.209492e+02
2.700000e-07	-7.567557e-06	-4.874280e-09	-5.325284e+01	-3.206629e+02
2.800000e-07	-7.529028e-06	-4.835797e-09	-5.298172e+01	-3.203207e+02
2.900000e-07	-7.489295e-06	-4.866318e-09	-5.270211e+01	-3.199186e+02
3.000000e-07	-7.448184e-06	-4.892352e-09	-5.241282e+01	-3.194555e+02
3.100000e-07	-7.405447e-06	-4.865596e-09	-5.211208e+01	-3.189322e+02
3.200000e-07	-7.361279e-06	-4.818609e-09	-5.180127e+01	-3.183523e+02
3.300000e-07	-7.315753e-06	-4.816918e-09	-5.148090e+01	-3.177212e+02
3.400000e-07	-7.268932e-06	-4.848628e-09	-5.115142e+01	-3.170464e+02
3.500000e-07	-7.220824e-06	-4.831667e-09	-5.081289e+01	-3.163360e+02
3.600000e-07	-7.170963e-06	-4.807474e-09	-5.046202e+01	-3.155989e+02
3.700000e-07	-7.119231e-06	-4.775798e-09	-5.009798e+01	-3.148438e+02
3.800000e-07	-7.066150e-06	-4.774020e-09	-4.972444e+01	-3.140787e+02
3.900000e-07	-7.011884e-06	-4.799936e-09	-4.934258e+01	-3.133098e+02
4.000000e-07	-6.956446e-06	-4.774128e-09	-4.895246e+01	-3.125420e+02
4.100000e-07	-6.899892e-06	-4.735903e-09	-4.855449e+01	-3.117776e+02
4.200000e-07	-6.841950e-06	-4.730788e-09	-4.814675e+01	-3.110167e+02
4.300000e-07	-6.782624e-06	-4.745623e-09	-4.772928e+01	-3.102573e+02
4.400000e-07	-6.722109e-06	-4.727010e-09	-4.730343e+01	-3.094951e+02
4.500000e-07	-6.660477e-06	-4.691200e-09	-4.686973e+01	-3.087242e+02
4.600000e-07	-6.597814e-06	-4.678545e-09	-4.642877e+01	-3.079377e+02
4.700000e-07	-6.534126e-06	-4.669775e-09	-4.598060e+01	-3.071278e+02
4.800000e-07	-6.469191e-06	-4.661528e-09	-4.552365e+01	-3.062870e+02
4.900000e-07	-6.402947e-06	-4.642808e-09	-4.505749e+01	-3.054085e+02
5.000000e-07	-6.335590e-06	-4.623384e-09	-4.458350e+01	-3.044864e+02
5.100000e-07	-6.267207e-06	-4.613762e-09	-4.410229e+01	-3.035167e+02
5.200000e-07	-6.197839e-06	-4.604904e-09	-4.361414e+01	-3.024974e+02
5.300000e-07	-6.127455e-06	-4.587225e-09	-4.311886e+01	-3.014284e+02
5.400000e-07	-6.056083e-06	-4.563965e-09	-4.261661e+01	-3.003117e+02
5.500000e-07	-5.983638e-06	-4.550102e-09	-4.210682e+01	-2.991512e+02
5.600000e-07	-5.910030e-06	-4.537040e-09	-4.158884e+01	-2.979521e+02
5.700000e-07	-5.835190e-06	-4.518682e-09	-4.106219e+01	-2.967204e+02
5.800000e-07	-5.759075e-06	-4.493416e-09	-4.052657e+01	-2.954626e+02
5.900000e-07	-5.681826e-06	-4.471305e-09	-3.998297e+01	-2.941847e+02
6.000000e-07	-5.603382e-06	-4.456844e-09	-3.943096e+01	-2.928920e+02
6.100000e-07	-5.523782e-06	-4.437063e-09	-3.887081e+01	-2.915881e+02
6.200000e-07	-5.443071e-06	-4.409092e-09	-3.830285e+01	-2.902749e+02
6.300000e-07	-5.361305e-06	-4.383426e-09	-3.772746e+01	-2.889522e+02
6.400000e-07	-5.278742e-06	-4.370767e-09	-3.714647e+01	-2.876176e+02
6.500000e-07	-5.195501e-06	-4.354679e-09	-3.656070e+01	-2.862664e+02
6.600000e-07	-5.111392e-06	-4.325899e-09	-3.596883e+01	-2.848926e+02
6.700000e-07	-5.026403e-06	-4.298047e-09	-3.537076e+01	-2.834885e+02
6.800000e-07	-4.940648e-06	-4.277152e-09	-3.476731e+01	-2.820456e+02
6.900000e-07	-4.854076e-06	-4.257186e-09	-3.415809e+01	-2.805555e+02
7.000000e-07	-4.766685e-06	-4.231391e-09	-3.354313e+01	-2.790102e+02
7.100000e-07	-4.678232e-06	-4.201082e-09	-3.292068e+01	-2.774027e+02
7.200000e-07	-4.588696e-06	-4.173425e-09	-3.229062e+01	-2.757279e+02
7.300000e-07	-4.498446e-06	-4.151708e-09	-3.165553e+01	-2.739824e+02
7.400000e-07	-4.407523e-06	-4.129884e-09	-3.101570e+01	-2.721653e+02
7.500000e-07	-4.315658e-06	-4.098042e-09	-3.036925e+01	-2.702776e+02
7.600000e-07	-4.222903e-06	-4.062534e-09	-2.971654e+01	-2.683225e+02
7.700000e-07	-4.129457e-06	-4.035458e-09	-2.905896e+01	-2.663048e+02
7.800000e-07	-4.035380e-06	-4.011703e-09	-2.839694e+01	-2.642301e+02
7.900000e-07	-3.940735e-06	-3.981115e-09	-2.773092e+01	-2.621046e+02
8.000000e-07	-3.845482e-06	-3.942577e-09	-2.706063e+01	-2.599340e+02
8.100000e-07	-3.749363e-06	-3.906745e-09	-2.638424e+01	-2.577230e+02
8.200000e-07	-3.652374e-06	-3.877716e-09	-2.570173e+01	-2.554743e+02
8.300000e-07	-3.554791e-06	-3.846954e-09	-2.501504e+01	-2.531885e+02
8.400000e-07	-3.456718e-06	-3.807621e-09	-2.432490e+01	-2.508635e+02
8.500000e-07	-3.358053e-06	-3.765300e-09	-2.363060e+01	-2.484940e+02
8.600000e-07	-3.258757e-06	-3.728468e-09	-2.293185e+01	-2.460724e+02
8.700000e-07	-3.158891e-06	-3.692981e-09	-2.222909e+01	-2.435883e+02
8.800000e-07	-3.058472e-06	-3.651894e-09	-2.152244e+01	-2.410295e+02
8.900000e-07	-2.957531e-06	-3.606243e-09	-2.081213e+01	-2.383824e+02
9.000000e-07	-2.856110e-06	-3.562436e-09	-2.009842e+01	-2.356330e+02
9.100000e-07	-2.754330e-06	-3.520954e-09	-1.938220e+01	-2.327676e+02
9.200000e-07	-2.652204e-06	-3.476050e-09	-1.866354e+01	-2.297738e+02
9.300000e-07	-2.549722e-06	-3.424895e-09	-1.794237e+01	-2.266407e+02
9.400000e-07	-2.446871e-06	-3.372639e-09	-1.721861e+01	-2.233599e+02
9.500000e-07	-2.343566e-06	-3.321611e-09	-1.649166e+01	-2.199255e+02
9.600000e-07	-2.239687e-06	-3.268356e-09	-1.576066e+01	-2.163341e+02
9.700000e-07	-2.135221e-06	-3.210891e-09	-1.502553e+01	-2.125840e+02
9.800000e-07	-2.030238e-06	-3.149470e-09	-1.428677e+01	-2.086750e+02
9.900000e-07	-1.924879e-06	-3.089823e-09	-1.354536e+01	-2.046074e+02
1.000000e-06	-1.819236e-06	-3.029555e-09	-1.280195e+01	-2.003802e+02
1.010000e-06	-1.713291e-06	-2.961842e-09	-1.205641e+01	-1.959903e+02
1.020000e-06	-1.607101e-06	-2.888446e-09	-1.130916e+01	-1.914309e+02
1.030000e-06	-1.500575e-06	-2.814996e-09	-1.055953e+01	-1.866902e+02
1.040000e-06	-1.393726e-06	-2.741905e-09	-9.807639e+00	-1.817501e+02
1.050000e-06	-1.286615e-06	-2.662322e-09	-9.053901e+00	-1.765859e+02
1.060000e-06	-1.179179e-06	-2.575636e-09	-8.297877e+00	-1.711651e+02
1.070000e-06	-1.071541e-06	-2.485888e-09	-7.540428e+00	-1.654483e+02
1.080000e-06	-9.637561e-07	-2.392903e-09	-6.781945e+00	-1.593896e+02
1.090000e-06	-8.556772e-07	-2.295357e-09	-6.021394e+00	-1.529374e+02
1.100000e-06	-7.473190e-07	-2.188540e-09	-5.258878e+00	-1.460369e+02
1.110000e-06	-6.388294e-07	-2.071702e-09	-4.495438e+00	-1.386317e+02
1.120000e-06	-5.302653e-07	-1.948691e-09	-3.731473e+00	-1.306671e+02
1.130000e-06	-4.216860e-07	-1.819499e-09	-2.967401e+00	-1.220927e+02
1.140000e-06	-3.130537e-07	-1.679640e-09	-2.202957e+00	-1.128653e+02
1.150000e-06	-2.042998e-07	-1.525845e-09	-1.437656e+00	-1.029523e+02
1.160000e-06	-9.550522e-08	-1.361675e-09	-6.720695e-01	-9.233437e+01
1.170000e-06	1.334156e-08	-1.190904e-09	9.388446e-02	-8.100788e+01
1.180000e-06	1.221936e-07	-1.011750e-09	8.598757e-01	-6.898661e+01
1.190000e-06	2.309520e-07	-8.218913e-10	1.625208e+00	-5.630306e+01
1.200000e-06	3.396493e-07	-6.216267e-10	2.390109e+00	-4.300878e+01
1.210000e-06	4.482574e-07	-4.105424e-10	3.154384e+00	-2.917388e+01
1.220000e-06	5.567090e-07	-1.917819e-10	3.917557e+00	-1.488578e+01
1.230000e-06	6.649821e-07	3.130314e-11	4.679474e+00	-2.469886e-01
1.240000e-06	7.730901e-07	2.619127e-10	5.440229e+00	1.462769e+01
1.250000e-06	8.810440e-07	4.948190e-10	6.199901e+00	2.961469e+01
1.260000e-06	9.888312e-07	7.250541e-10	6.958398e+00	4.458555e+01
1.270000e-06	1.096376e-06	9.546328e-10	7.715188e+00	5.941114e+01
1.280000e-06	1.203662e-06	1.181541e-09	8.470160e+00	7.396584e+01
1.290000e-06	1.310673e-06	1.403392e-09	9.223194e+00	8.813168e+01
1.300000e-06	1.417408e-06	1.614611e-09	9.974286e+00	1.018020e+02
1.310000e-06	1.523841e-06	1.814210e-09	1.072326e+01	1.148846e+02
1.320000e-06	1.629977e-06	1.999880e-09	1.147014e+01	1.273044e+02
1.330000e-06	1.735894e-06	2.172665e-09	1.221547e+01	1.390051e+02
1.340000e-06	1.841570e-06	2.335396e-09	1.295912e+01	1.499498e+02
1.350000e-06	1.946978e-06	2.484288e-09	1.370087e+01	1.601215e+02
1.360000e-06	2.052076e-06	2.622518e-09	1.444044e+01	1.695218e+02
1.370000e-06	2.156792e-06	2.749746e-09	1.517733e+01	1.781695e+02
1.380000e-06	2.261141e-06	2.866696e-09	1.591163e+01	1.860983e+02
1.390000e-06	2.365083e-06	2.974200e-09	1.664307e+01	1.933541e+02
1.400000e-06	2.468509e-06	3.074269e-09	1.737088e+01	1.999919e+02
1.410000e-06	2.571402e-06	3.168272e-09	1.809494e+01	2.060726e+02
1.420000e-06	2.673820e-06	3.252127e-09	1.881565e+01	2.116595e+02
1.430000e-06	2.775823e-06	3.331668e-09	1.953344e+01	2.168160e+02
1.440000e-06	2.877445e-06	3.407950e-09	2.024856e+01	2.216022e+02
1.450000e-06	2.978702e-06	3.477777e-09	2.096111e+01	2.260731e+02
1.460000e-06	3.079528e-06	3.543672e-09	2.167062e+01	2.302770e+02
1.470000e-06	3.179830e-06	3.606588e-09	2.237644e+01	2.342542e+02
1.480000e-06	3.279485e-06	3.665090e-09	2.307771e+01	2.380369e+02
1.490000e-06	3.378470e-06	3.720989e-09	2.377427e+01	2.416489e+02
1.500000e-06	3.476802e-06	3.776690e-09	2.446623e+01	2.451066e+02
1.510000e-06	3.574496e-06	3.828663e-09	2.515370e+01	2.484200e+02
1.520000e-06	3.671569e-06	3.874009e-09	2.583680e+01	2.515937e+02
1.530000e-06	3.767963e-06	3.917739e-09	2.651513e+01	2.546288e+02
1.540000e-06	3.863583e-06	3.962685e-09	2.718800e+01	2.575240e+02
1.550000e-06	3.958392e-06	4.004449e-09	2.785518e+01	2.602777e+02
1.560000e-06	4.052478e-06	4.040393e-09	2.851726e+01	2.628887e+02
1.570000e-06	4.145931e-06	4.072919e-09	2.917488e+01	2.653575e+02
1.580000e-06	4.238744e-06	4.106670e-09	2.982801e+01	2.676870e+02
1.590000e-06	4.330830e-06	4.140462e-09	3.047602e+01	2.698830e+02
1.600000e-06	4.422093e-06	4.170925e-09	3.111823e+01	2.719541e+02
1.610000e-06	4.512494e-06	4.198093e-09	3.175439e+01	2.739113e+02
1.620000e-06	4.602115e-06	4.225856e-09	3.238505e+01	2.757680e+02
1.630000e-06	4.690893e-06	4.255605e-09	3.300978e+01	2.775385e+02
1.640000e-06	4.778658e-06	4.282674e-09	3.362738e+01	2.792377e+02
1.650000e-06	4.865457e-06	4.306144e-09	3.423818e+01	2.808803e+02
1.660000e-06	4.951429e-06	4.327680e-09	3.484317e+01	2.824791e+02
1.670000e-06	5.036629e-06	4.348253e-09	3.544272e+01	2.840455e+02
1.680000e-06	5.121094e-06	4.369916e-09	3.603710e+01	2.855877e+02
1.690000e-06	5.204738e-06	4.391394e-09	3.662570e+01	2.871114e+02
1.700000e-06	5.287514e-06	4.411276e-09	3.720819e+01	2.886188e+02
1.710000e-06	5.369503e-06	4.430445e-09	3.778515e+01	2.901095e+02
1.720000e-06	5.450548e-06	4.450596e-09	3.835547e+01	2.915803e+02
1.730000e-06	5.530494e-06	4.471032e-09	3.891805e+01	2.930259e+02
1.740000e-06	5.609428e-06	4.489278e-09	3.947350e+01	2.944397e+02
1.750000e-06	5.687439e-06	4.505986e-09	4.002247e+01	2.958144e+02
1.760000e-06	5.764489e-06	4.523091e-09	4.056467e+01	2.971429e+02
1.770000e-06	5.840480e-06	4.539898e-09	4.109941e+01	2.984187e+02
1.780000e-06	5.915273e-06	4.554875e-09	4.162573e+01	2.996367e+02
1.790000e-06	5.988929e-06	4.568943e-09	4.214405e+01	3.007940e+02
1.800000e-06	6.061386e-06	4.583129e-09	4.265393e+01	3.018894e+02
1.810000e-06	6.132610e-06	4.597928e-09	4.315513e+01	3.029242e+02
1.820000e-06	6.202797e-06	4.613110e-09	4.364904e+01	3.039017e+02
1.830000e-06	6.272042e-06	4.628647e-09	4.413631e+01	3.048270e+02
1.840000e-06	6.340368e-06	4.643859e-09	4.461712e+01	3.057066e+02
1.850000e-06	6.407523e-06	4.658110e-09	4.508969e+01	3.065479e+02
1.860000e-06	6.473444e-06	4.670507e-09	4.555358e+01	3.073584e+02
1.870000e-06	6.538183e-06	4.681337e-09	4.600914e+01	3.081455e+02
1.880000e-06	6.601648e-06	4.692403e-09	4.645575e+01	3.089155e+02
1.890000e-06	6.664030e-06	4.702690e-09	4.689473e+01	3.096735e+02
1.900000e-06	6.725437e-06	4.713282e-09	4.732685e+01	3.104230e+02
1.910000e-06	6.785781e-06	4.724204e-09	4.775149e+01	3.111657e+02
1.920000e-06	6.844891e-06	4.733869e-09	4.816745e+01	3.119014e+02
1.930000e-06	6.902676e-06	4.744734e-09	4.857408e+01	3.126282e+02
1.940000e-06	6.959179e-06	4.756208e-09	4.897169e+01	3.133431e+02
1.950000e-06	7.014363e-06	4.766614e-09	4.936002e+01	3.140418e+02
1.960000e-06	7.068276e-06	4.776881e-09	4.973941e+01	3.147195e+02
1.970000e-06	7.120892e-06	4.786305e-09	5.010966e+01	3.153715e+02
1.980000e-06	7.171985e-06	4.794685e-09	5.046921e+01	3.159934e+02
1.990000e-06	7.221503e-06	4.803364e-09	5.081766e+01	3.165817e+02
2.000000e-06	7.269544e-06	4.812040e-09	5.115573e+01	3.171342e+02
2.010000e-06	7.316221e-06	4.821335e-09	5.148419e+01	3.176500e+02
2.020000e-06	7.361652e-06	4.830784e-09	5.180389e+01	3.181296e+02
2.030000e-06	7.405944e-06	4.839791e-09	5.211557e+01	3.185753e+02
2.040000e-06	7.448964e-06	4.848254e-09	5.241831e+01	3.189903e+02
2.050000e-06	7.490546e-06	4.855854e-09	5.271092e+01	3.193789e+02
2.060000e-06	7.530680e-06	4.863435e-09	5.299334e+01	3.197461e+02
2.070000e-06	7.569483e-06	4.871387e-09	5.326640e+01	3.200972e+02
2.080000e-06	7.607085e-06	4.878639e-09	5.353100e+01	3.204369e+02
2.090000e-06	7.643525e-06	4.885575e-09	5.378743e+01	3.207696e+02
2.100000e-06	7.678773e-06	4.892989e-09	5.403547e+01	3.210988e+02
2.110000e-06	7.712588e-06	4.899257e-09	5.427342e+01	3.214264e+02
2.120000e-06	7.744902e-06	4.906039e-09	5.450082e+01	3.217535e+02
2.130000e-06	7.775906e-06	4.912424e-09	5.471899e+01	3.220793e+02
2.140000e-06	7.805690e-06	4.917779e-09	5.492858e+01	3.224022e+02
2.150000e-06	7.834262e-06	4.925408e-09	5.512964e+01	3.227193e+02
2.160000e-06	7.861559e-06	4.933037e-09	5.532174e+01	3.230271e+02
2.170000e-06	7.887341e-06	4.938738e-09	5.550316e+01	3.233214e+02
2.180000e-06	7.911560e-06	4.942625e-09	5.567359e+01	3.235985e+02
2.190000e-06	7.934369e-06	4.945024e-09	5.583410e+01	3.238546e+02
2.200000e-06	7.955860e-06	4.947641e-09	5.598533e+01	3.240869e+02
2.210000e-06	7.976106e-06	4.951275e-09	5.612780e+01	3.242932e+02
2.220000e-06	7.995111e-06	4.955541e-09	5.626153e+01	3.244728e+02
2.230000e-06	8.012731e-06	4.960285e-09	5.638553e+01	3.246260e+02
2.240000e-06	8.028911e-06	4.963517e-09	5.649939e+01	3.247540e+02
2.250000e-06	8.043555e-06	4.966540e-09	5.660244e+01	3.248592e+02
2.260000e-06	8.056603e-06	4.971304e-09	5.669425e+01	3.249447e+02
2.270000e-06	8.068106e-06	4.976714e-09	5.677520e+01	3.250139e+02
2.280000e-06	8.077880e-06	4.980209e-09	5.684398e+01	3.250702e+02
2.290000e-06	8.086004e-06	4.982239e-09	5.690115e+01	3.251169e+02
2.300000e-06	8.092740e-06	4.983391e-09	5.694855e+01	3.251564e+02
2.310000e-06	8.098116e-06	4.982078e-09	5.698638e+01	3.251904e+02
2.320000e-06	8.102209e-06	4.978868e-09	5.701519e+01	3.252196e+02
2.330000e-06	8.104914e-06	4.977174e-09	5.703422e+01	3.252434e+02
2.340000e-06	8.105948e-06	4.978748e-09	5.704150e+01	3.252604e+02
2.350000e-06	8.105489e-06	4.981707e-09	5.703827e+01	3.252681e+02
2.360000e-06	8.103773e-06	4.982749e-09	5.702619e+01	3.252635e+02
2.370000e-06	8.100762e-06	4.979554e-09	5.700500e+01	3.252432e+02
2.380000e-06	8.096566e-06	4.978228e-09	5.697548e+01	3.252040e+02
2.390000e-06	8.091016e-06	4.977954e-09	5.693642e+01	3.251429e+02
2.400000e-06	8.083851e-06	4.976864e-09	5.688600e+01	3.250579e+02
2.410000e-06	8.075385e-06	4.974821e-09	5.682642e+01	3.249481e+02
2.420000e-06	8.065786e-06	4.973134e-09	5.675888e+01	3.248138e+02
2.430000e-06	8.054911e-06	4.970104e-09	5.668235e+01	3.246568e+02
2.440000e-06	8.042422e-06	4.922611e-09	5.659447e+01	3.244802e+02
2.450000e-06	8.027691e-06	4.898491e-09	5.649080e+01	3.242884e+02
2.460000e-06	8.010825e-06	4.921668e-09	5.637212e+01	3.240865e+02
2.470000e-06	7.992541e-06	4.959069e-09	5.624345e+01	3.238805e+02
2.480000e-06	7.973393e-06	5.032090e-09	5.610871e+01	3.236761e+02
2.490000e-06	7.953555e-06	4.983705e-09	5.596911e+01	3.234787e+02
2.500000e-06	7.932260e-06	4.899135e-09	5.581926e+01	3.232928e+02
2.510000e-06	7.909157e-06	4.977151e-09	5.565668e+01	3.231216e+02
2.520000e-06	7.884970e-06	4.971590e-09	5.548647e+01	3.229664e+02
2.530000e-06	7.859604e-06	4.970787e-09	5.530798e+01	3.228264e+02
2.540000e-06	7.832653e-06	4.996772e-09	5.511832e+01	3.226990e+02
2.550000e-06	7.804577e-06	4.873228e-09	5.492075e+01	3.225794e+02
2.560000e-06	7.775356e-06	4.899061e-09	5.471512e+01	3.224607e+02
2.570000e-06	7.744516e-06	4.965884e-09	5.449810e+01	3.223349e+02
2.580000e-06	7.712079e-06	4.874751e-09	5.426984e+01	3.221927e+02
2.590000e-06	7.678245e-06	4.865959e-09	5.403175e+01	3.220244e+02
2.600000e-06	7.643277e-06	4.868719e-09	5.378568e+01	3.218205e+02
2.610000e-06	7.607184e-06	4.888656e-09	5.353170e+01	3.215723e+02
2.620000e-06	7.569539e-06	4.928473e-09	5.326679e+01	3.212725e+02
2.630000e-06	7.530221e-06	4.842273e-09	5.299011e+01	3.209156e+02
2.640000e-06	7.489531e-06	4.833740e-09	5.270377e+01	3.204984e+02
2.650000e-06	7.447615e-06	4.830438e-09	5.240881e+01	3.200200e+02
2.660000e-06	7.404448e-06	4.841348e-09	5.210505e+01	3.194822e+02
2.670000e-06	7.360100e-06	4.866496e-09	5.179297e+01	3.188889e+02
2.680000e-06	7.314337e-06	4.803908e-09	5.147093e+01	3.182462e+02
2.690000e-06	7.267036e-06	4.806206e-09	5.113808e+01	3.175616e+02
2.700000e-06	7.218515e-06	4.798715e-09	5.079664e+01	3.168437e+02
2.710000e-06	7.168672e-06	4.820322e-09	5.044589e+01	3.161014e+02
2.720000e-06	7.117393e-06	4.804599e-09	5.008505e+01	3.153431e+02
2.730000e-06	7.064659e-06	4.737460e-09	4.971396e+01	3.145765e+02
2.740000e-06	7.010374e-06	4.775523e-09	4.933195e+01	3.138076e+02
2.750000e-06	6.954706e-06	4.765340e-09	4.894021e+01	3.130405e+02
2.760000e-06	6.897724e-06	4.749206e-09	4.853923e+01	3.122771e+02
2.770000e-06	6.839535e-06	4.725140e-09	4.812976e+01	3.115169e+02
2.780000e-06	6.780321e-06	4.713020e-09	4.771307e+01	3.107572e+02
2.790000e-06	6.720015e-06	4.725304e-09	4.728869e+01	3.099935e+02
2.800000e-06	6.658407e-06	4.694573e-09	4.685516e+01	3.092194e+02
2.810000e-06	6.595463e-06	4.693401e-09	4.641222e+01	3.084278e+02
2.820000e-06	6.531337e-06	4.672330e-09	4.596097e+01	3.076109e+02
2.830000e-06	6.466048e-06	4.664315e-09	4.550153e+01	3.067613e+02
2.840000e-06	6.399681e-06	4.645625e-09	4.503451e+01	3.058723e+02
2.850000e-06	6.332333e-06	4.625092e-09	4.456058e+01	3.049387e+02
2.860000e-06	6.263854e-06	4.616788e-09	4.407870e+01	3.039567e+02
2.870000e-06	6.194138e-06	4.593637e-09	4.358811e+01	3.029249e+02
2.880000e-06	6.123301e-06	4.585691e-09	4.308963e+01	3.018438e+02
2.890000e-06	6.051361e-06	4.560160e-09	4.258338e+01	3.007157e+02
2.900000e-06	5.978313e-06	4.542432e-09	4.206935e+01	2.995451e+02
2.910000e-06	5.904267e-06	4.526438e-09	4.154828e+01	2.983372e+02
2.920000e-06	5.829247e-06	4.520810e-09	4.102037e+01	2.970984e+02
2.930000e-06	5.753194e-06	4.502361e-09	4.048518e+01	2.958351e+02
2.940000e-06	5.675877e-06	4.470816e-09	3.994110e+01	2.945531e+02
2.950000e-06	5.597244e-06	4.456639e-09	3.938777e+01	2.932573e+02
