# Temperatura_=_20.0
# Concentracion g/m^3_=_9000.0
# C_Vs_to_Am_M_A/Vsm_=_65563218390.804596
# pendiente_HvsI_1/m_=_3716.3
# ordenada_HvsI_A/m_=_1297.0
# frecuencia_Hz_=_212981.97550092172

Tiempo_(s)	Campo_(V.s)	Magnetizacion_(V.s)	Campo_(kA/m)	Magnetizacion_(A/m)
0.000000e+00	-8.070664e-06	-4.951597e-09	-5.692147e+01	-3.242526e+02
1.000000e-08	-8.069430e-06	-4.954490e-09	-5.691276e+01	-3.242290e+02
2.000000e-08	-8.066550e-06	-4.960994e-09	-5.689245e+01	-3.241889e+02
3.000000e-08	-8.062390e-06	-4.962248e-09	-5.686311e+01	-3.241292e+02
4.000000e-08	-8.057052e-06	-4.959974e-09	-5.682546e+01	-3.240473e+02
5.000000e-08	-8.050403e-06	-4.953644e-09	-5.677856e+01	-3.239413e+02
6.000000e-08	-8.042606e-06	-4.944876e-09	-5.672357e+01	-3.238104e+02
7.000000e-08	-8.033427e-06	-4.935283e-09	-5.665884e+01	-3.236552e+02
8.000000e-08	-8.022496e-06	-4.915210e-09	-5.658174e+01	-3.234777e+02
9.000000e-08	-8.009852e-06	-4.954465e-09	-5.649257e+01	-3.232812e+02
1.000000e-07	-7.995375e-06	-5.026047e-09	-5.639046e+01	-3.230703e+02
1.100000e-07	-7.978948e-06	-5.010535e-09	-5.627461e+01	-3.228503e+02
1.200000e-07	-7.960848e-06	-4.965946e-09	-5.614694e+01	-3.226273e+02
1.300000e-07	-7.941562e-06	-4.873452e-09	-5.601092e+01	-3.224070e+02
1.400000e-07	-7.921473e-06	-4.792178e-09	-5.586924e+01	-3.221950e+02
1.500000e-07	-7.900443e-06	-4.998366e-09	-5.572091e+01	-3.219958e+02
1.600000e-07	-7.878171e-06	-5.034524e-09	-5.556384e+01	-3.218124e+02
1.700000e-07	-7.854692e-06	-4.842623e-09	-5.539824e+01	-3.216461e+02
1.800000e-07	-7.829704e-06	-4.890121e-09	-5.522200e+01	-3.214960e+02
1.900000e-07	-7.802951e-06	-4.852029e-09	-5.503332e+01	-3.213591e+02
2.000000e-07	-7.775035e-06	-4.896167e-09	-5.483643e+01	-3.212303e+02
2.100000e-07	-7.746053e-06	-5.062048e-09	-5.463202e+01	-3.211028e+02
2.200000e-07	-7.715639e-06	-4.857475e-09	-5.441751e+01	-3.209680e+02
2.300000e-07	-7.683918e-06	-4.758173e-09	-5.419379e+01	-3.208163e+02
2.400000e-07	-7.650929e-06	-4.935965e-09	-5.396112e+01	-3.206379e+02
2.500000e-07	-7.616406e-06	-4.967193e-09	-5.371764e+01	-3.204230e+02
2.600000e-07	-7.580406e-06	-4.916937e-09	-5.346373e+01	-3.201627e+02
2.700000e-07	-7.543004e-06	-4.797219e-09	-5.319994e+01	-3.198496e+02
2.800000e-07	-7.504248e-06	-4.786109e-09	-5.292660e+01	-3.194781e+02
2.900000e-07	-7.464365e-06	-4.905533e-09	-5.264531e+01	-3.190452e+02
3.000000e-07	-7.423091e-06	-4.903441e-09	-5.235421e+01	-3.185500e+02
3.100000e-07	-7.380175e-06	-4.809282e-09	-5.205152e+01	-3.179947e+02
3.200000e-07	-7.335837e-06	-4.762284e-09	-5.173882e+01	-3.173834e+02
3.300000e-07	-7.290146e-06	-4.815075e-09	-5.141656e+01	-3.167227e+02
3.400000e-07	-7.243146e-06	-4.833509e-09	-5.108507e+01	-3.160205e+02
3.500000e-07	-7.194819e-06	-4.822436e-09	-5.074423e+01	-3.152858e+02
3.600000e-07	-7.144755e-06	-4.772007e-09	-5.039114e+01	-3.145282e+02
3.700000e-07	-7.092903e-06	-4.696850e-09	-5.002543e+01	-3.137565e+02
3.800000e-07	-7.039662e-06	-4.771379e-09	-4.964992e+01	-3.129790e+02
3.900000e-07	-6.985244e-06	-4.814525e-09	-4.926612e+01	-3.122021e+02
4.000000e-07	-6.929683e-06	-4.717899e-09	-4.887426e+01	-3.114303e+02
4.100000e-07	-6.872944e-06	-4.672611e-09	-4.847408e+01	-3.106657e+02
4.200000e-07	-6.814858e-06	-4.722547e-09	-4.806441e+01	-3.099082e+02
4.300000e-07	-6.755443e-06	-4.748155e-09	-4.764536e+01	-3.091551e+02
4.400000e-07	-6.694834e-06	-4.684137e-09	-4.721789e+01	-3.084017e+02
4.500000e-07	-6.633068e-06	-4.646707e-09	-4.678226e+01	-3.076416e+02
4.600000e-07	-6.570238e-06	-4.651410e-09	-4.633913e+01	-3.068673e+02
4.700000e-07	-6.506450e-06	-4.649037e-09	-4.588925e+01	-3.060708e+02
4.800000e-07	-6.441578e-06	-4.635132e-09	-4.543171e+01	-3.052440e+02
4.900000e-07	-6.375330e-06	-4.603903e-09	-4.496447e+01	-3.043799e+02
5.000000e-07	-6.307823e-06	-4.589568e-09	-4.448835e+01	-3.034724e+02
5.100000e-07	-6.239348e-06	-4.589997e-09	-4.400541e+01	-3.025174e+02
5.200000e-07	-6.169952e-06	-4.584729e-09	-4.351596e+01	-3.015128e+02
5.300000e-07	-6.099501e-06	-4.555060e-09	-4.301908e+01	-3.004583e+02
5.400000e-07	-6.027989e-06	-4.525747e-09	-4.251472e+01	-2.993561e+02
5.500000e-07	-5.955523e-06	-4.522057e-09	-4.200362e+01	-2.982097e+02
5.600000e-07	-5.882000e-06	-4.521574e-09	-4.148507e+01	-2.970244e+02
5.700000e-07	-5.807170e-06	-4.498006e-09	-4.095731e+01	-2.958061e+02
5.800000e-07	-5.731052e-06	-4.455801e-09	-4.042045e+01	-2.945610e+02
5.900000e-07	-5.653802e-06	-4.440917e-09	-3.987562e+01	-2.932950e+02
6.000000e-07	-5.575510e-06	-4.446505e-09	-3.932343e+01	-2.920129e+02
6.100000e-07	-5.496058e-06	-4.423383e-09	-3.876307e+01	-2.907182e+02
6.200000e-07	-5.415379e-06	-4.375755e-09	-3.819405e+01	-2.894125e+02
6.300000e-07	-5.333671e-06	-4.351887e-09	-3.761777e+01	-2.880953e+02
6.400000e-07	-5.251066e-06	-4.351493e-09	-3.703517e+01	-2.867639e+02
6.500000e-07	-5.167653e-06	-4.333761e-09	-3.644686e+01	-2.854138e+02
6.600000e-07	-5.083411e-06	-4.295388e-09	-3.585271e+01	-2.840387e+02
6.700000e-07	-4.998304e-06	-4.265143e-09	-3.525246e+01	-2.826311e+02
6.800000e-07	-4.912409e-06	-4.251740e-09	-3.464666e+01	-2.811828e+02
6.900000e-07	-4.825846e-06	-4.236097e-09	-3.403613e+01	-2.796859e+02
7.000000e-07	-4.738425e-06	-4.208684e-09	-3.341956e+01	-2.781326e+02
7.100000e-07	-4.649919e-06	-4.172821e-09	-3.279534e+01	-2.765167e+02
7.200000e-07	-4.560535e-06	-4.144880e-09	-3.216493e+01	-2.748335e+02
7.300000e-07	-4.470428e-06	-4.131912e-09	-3.152942e+01	-2.730803e+02
7.400000e-07	-4.379459e-06	-4.112117e-09	-3.088782e+01	-2.712566e+02
7.500000e-07	-4.287548e-06	-4.072243e-09	-3.023958e+01	-2.693639e+02
7.600000e-07	-4.194766e-06	-4.035109e-09	-2.958520e+01	-2.674056e+02
7.700000e-07	-4.101273e-06	-4.017043e-09	-2.892580e+01	-2.653866e+02
7.800000e-07	-4.007286e-06	-3.995718e-09	-2.826293e+01	-2.633124e+02
7.900000e-07	-3.912719e-06	-3.955384e-09	-2.759595e+01	-2.611889e+02
8.000000e-07	-3.817332e-06	-3.912731e-09	-2.692320e+01	-2.590213e+02
8.100000e-07	-3.721199e-06	-3.885389e-09	-2.624519e+01	-2.568135e+02
8.200000e-07	-3.624515e-06	-3.862203e-09	-2.556329e+01	-2.545674e+02
8.300000e-07	-3.527242e-06	-3.824872e-09	-2.487724e+01	-2.522828e+02
8.400000e-07	-3.429325e-06	-3.778836e-09	-2.418663e+01	-2.499563e+02
8.500000e-07	-3.330702e-06	-3.738616e-09	-2.349106e+01	-2.475822e+02
8.600000e-07	-3.231425e-06	-3.705252e-09	-2.279087e+01	-2.451517e+02
8.700000e-07	-3.131593e-06	-3.666933e-09	-2.208677e+01	-2.426540e+02
8.800000e-07	-3.031254e-06	-3.618718e-09	-2.137909e+01	-2.400764e+02
8.900000e-07	-2.930545e-06	-3.571796e-09	-2.066880e+01	-2.374053e+02
9.000000e-07	-2.829386e-06	-3.533634e-09	-1.995534e+01	-2.346268e+02
9.100000e-07	-2.727754e-06	-3.497212e-09	-1.923854e+01	-2.317276e+02
9.200000e-07	-2.625781e-06	-3.449735e-09	-1.851933e+01	-2.286959e+02
9.300000e-07	-2.523453e-06	-3.393505e-09	-1.779762e+01	-2.255219e+02
9.400000e-07	-2.420649e-06	-3.342250e-09	-1.707256e+01	-2.221982e+02
9.500000e-07	-2.317363e-06	-3.294747e-09	-1.634410e+01	-2.187198e+02
9.600000e-07	-2.213578e-06	-3.242311e-09	-1.561211e+01	-2.150843e+02
9.700000e-07	-2.109375e-06	-3.180101e-09	-1.487718e+01	-2.112912e+02
9.800000e-07	-2.004817e-06	-3.115418e-09	-1.413975e+01	-2.073409e+02
9.900000e-07	-1.899847e-06	-3.059366e-09	-1.339940e+01	-2.032339e+02
1.000000e-06	-1.794511e-06	-3.002094e-09	-1.265648e+01	-1.989694e+02
1.010000e-06	-1.688853e-06	-2.932796e-09	-1.191128e+01	-1.945440e+02
1.020000e-06	-1.582851e-06	-2.857409e-09	-1.116367e+01	-1.899501e+02
1.030000e-06	-1.476538e-06	-2.785723e-09	-1.041386e+01	-1.851747e+02
1.040000e-06	-1.369888e-06	-2.715050e-09	-9.661663e+00	-1.801985e+02
1.050000e-06	-1.262838e-06	-2.634937e-09	-8.906653e+00	-1.749949e+02
1.060000e-06	-1.155521e-06	-2.545470e-09	-8.149760e+00	-1.695297e+02
1.070000e-06	-1.047973e-06	-2.452556e-09	-7.391234e+00	-1.637618e+02
1.080000e-06	-9.401706e-07	-2.359290e-09	-6.630915e+00	-1.576434e+02
1.090000e-06	-8.321821e-07	-2.261747e-09	-5.869284e+00	-1.511217e+02
1.100000e-06	-7.240554e-07	-2.151323e-09	-5.106679e+00	-1.441408e+02
1.110000e-06	-6.158408e-07	-2.030579e-09	-4.343454e+00	-1.366439e+02
1.120000e-06	-5.075370e-07	-1.907190e-09	-3.579600e+00	-1.285765e+02
1.130000e-06	-3.991505e-07	-1.778973e-09	-2.815162e+00	-1.198887e+02
1.140000e-06	-2.907009e-07	-1.636976e-09	-2.050280e+00	-1.105392e+02
1.150000e-06	-1.822037e-07	-1.479656e-09	-1.285062e+00	-1.004975e+02
1.160000e-06	-7.367700e-08	-1.315235e-09	-5.196354e-01	-8.974706e+01
1.170000e-06	3.484415e-08	-1.144957e-09	2.457518e-01	-7.828761e+01
1.180000e-06	1.433626e-07	-9.636443e-10	1.011120e+00	-6.613669e+01
1.190000e-06	2.518942e-07	-7.696528e-10	1.776581e+00	-5.333079e+01
1.200000e-06	3.603319e-07	-5.658792e-10	2.541379e+00	-3.992547e+01
1.210000e-06	4.686539e-07	-3.560275e-10	3.305362e+00	-2.599474e+01
1.220000e-06	5.768877e-07	-1.400484e-10	4.068723e+00	-1.162954e+01
1.230000e-06	6.850233e-07	8.305521e-11	4.831391e+00	3.064582e+00
1.240000e-06	7.929408e-07	3.122871e-10	5.592520e+00	1.797047e+01
1.250000e-06	9.006262e-07	5.439099e-10	6.352013e+00	3.296299e+01
1.260000e-06	1.008182e-06	7.751191e-10	7.110594e+00	4.791301e+01
1.270000e-06	1.115543e-06	1.004752e-09	7.867797e+00	6.269162e+01
1.280000e-06	1.222647e-06	1.232175e-09	8.623188e+00	7.717436e+01
1.290000e-06	1.329438e-06	1.451217e-09	9.376372e+00	9.124523e+01
1.300000e-06	1.435903e-06	1.658417e-09	1.012726e+01	1.048003e+02
1.310000e-06	1.542067e-06	1.854950e-09	1.087602e+01	1.177508e+02
1.320000e-06	1.647918e-06	2.041119e-09	1.162258e+01	1.300255e+02
1.330000e-06	1.753518e-06	2.214476e-09	1.236736e+01	1.415721e+02
1.340000e-06	1.858828e-06	2.371553e-09	1.311010e+01	1.523580e+02
1.350000e-06	1.963755e-06	2.518052e-09	1.385014e+01	1.623702e+02
1.360000e-06	2.068373e-06	2.656432e-09	1.458800e+01	1.716141e+02
1.370000e-06	2.172680e-06	2.782753e-09	1.532366e+01	1.801119e+02
1.380000e-06	2.276624e-06	2.896249e-09	1.605677e+01	1.878999e+02
1.390000e-06	2.380122e-06	3.000438e-09	1.678673e+01	1.950263e+02
1.400000e-06	2.483076e-06	3.099747e-09	1.751285e+01	2.015473e+02
1.410000e-06	2.585609e-06	3.193575e-09	1.823600e+01	2.075246e+02
1.420000e-06	2.687796e-06	3.278665e-09	1.895672e+01	2.130216e+02
1.430000e-06	2.789577e-06	3.357739e-09	1.967457e+01	2.181009e+02
1.440000e-06	2.890948e-06	3.433362e-09	2.038952e+01	2.228215e+02
1.450000e-06	2.991890e-06	3.505011e-09	2.110146e+01	2.272369e+02
1.460000e-06	3.092382e-06	3.570614e-09	2.181022e+01	2.313936e+02
1.470000e-06	3.192360e-06	3.630287e-09	2.251535e+01	2.353299e+02
1.480000e-06	3.291750e-06	3.687919e-09	2.321633e+01	2.390761e+02
1.490000e-06	3.390443e-06	3.744563e-09	2.391240e+01	2.426543e+02
1.500000e-06	3.488452e-06	3.799252e-09	2.460365e+01	2.460793e+02
1.510000e-06	3.585783e-06	3.849467e-09	2.529012e+01	2.493596e+02
1.520000e-06	3.682358e-06	3.894762e-09	2.597125e+01	2.524990e+02
1.530000e-06	3.778265e-06	3.940411e-09	2.664767e+01	2.554979e+02
1.540000e-06	3.873528e-06	3.986507e-09	2.731955e+01	2.583550e+02
1.550000e-06	3.968061e-06	4.025730e-09	2.798628e+01	2.610686e+02
1.560000e-06	4.061822e-06	4.057275e-09	2.864757e+01	2.636378e+02
1.570000e-06	4.154860e-06	4.089422e-09	2.930375e+01	2.660637e+02
1.580000e-06	4.247248e-06	4.124310e-09	2.995535e+01	2.683499e+02
1.590000e-06	4.339011e-06	4.156869e-09	3.060255e+01	2.705028e+02
1.600000e-06	4.430010e-06	4.185591e-09	3.124435e+01	2.725316e+02
1.610000e-06	4.520076e-06	4.213412e-09	3.187957e+01	2.744480e+02
1.620000e-06	4.609175e-06	4.244021e-09	3.250798e+01	2.762657e+02
1.630000e-06	4.697366e-06	4.274733e-09	3.312998e+01	2.779992e+02
1.640000e-06	4.784708e-06	4.300719e-09	3.374600e+01	2.796635e+02
1.650000e-06	4.871268e-06	4.321849e-09	3.435649e+01	2.812729e+02
1.660000e-06	4.957051e-06	4.341736e-09	3.496151e+01	2.828402e+02
1.670000e-06	5.042021e-06	4.362843e-09	3.556080e+01	2.843759e+02
1.680000e-06	5.126193e-06	4.383686e-09	3.615445e+01	2.858879e+02
1.690000e-06	5.209537e-06	4.403326e-09	3.674227e+01	2.873812e+02
1.700000e-06	5.291986e-06	4.421975e-09	3.732377e+01	2.888575e+02
1.710000e-06	5.373525e-06	4.440441e-09	3.789885e+01	2.903158e+02
1.720000e-06	5.454136e-06	4.460453e-09	3.846739e+01	2.917527e+02
1.730000e-06	5.533688e-06	4.480881e-09	3.902847e+01	2.931626e+02
1.740000e-06	5.612237e-06	4.499193e-09	3.958246e+01	2.945389e+02
1.750000e-06	5.689867e-06	4.514925e-09	4.012998e+01	2.958745e+02
1.760000e-06	5.766518e-06	4.529809e-09	4.067059e+01	2.971625e+02
1.770000e-06	5.842152e-06	4.546568e-09	4.120402e+01	2.983970e+02
1.780000e-06	5.916632e-06	4.562980e-09	4.172932e+01	2.995735e+02
1.790000e-06	5.989858e-06	4.575708e-09	4.224578e+01	3.006896e+02
1.800000e-06	6.061872e-06	4.589690e-09	4.275369e+01	3.017448e+02
1.810000e-06	6.132867e-06	4.606896e-09	4.325440e+01	3.027412e+02
1.820000e-06	6.202880e-06	4.622511e-09	4.374820e+01	3.036824e+02
1.830000e-06	6.271778e-06	4.636382e-09	4.423413e+01	3.045741e+02
1.840000e-06	6.339637e-06	4.650277e-09	4.471273e+01	3.054232e+02
1.850000e-06	6.406458e-06	4.663361e-09	4.518401e+01	3.062370e+02
1.860000e-06	6.472060e-06	4.672751e-09	4.564670e+01	3.070233e+02
1.870000e-06	6.536387e-06	4.682166e-09	4.610039e+01	3.077891e+02
1.880000e-06	6.599557e-06	4.694679e-09	4.654591e+01	3.085408e+02
1.890000e-06	6.661667e-06	4.706882e-09	4.698397e+01	3.092830e+02
1.900000e-06	6.722660e-06	4.718245e-09	4.741414e+01	3.100189e+02
1.910000e-06	6.782557e-06	4.729627e-09	4.783659e+01	3.107497e+02
1.920000e-06	6.841348e-06	4.742660e-09	4.825124e+01	3.114751e+02
1.930000e-06	6.898677e-06	4.755445e-09	4.865558e+01	3.121928e+02
1.940000e-06	6.954570e-06	4.765312e-09	4.904978e+01	3.128996e+02
1.950000e-06	7.009318e-06	4.774379e-09	4.943591e+01	3.135911e+02
1.960000e-06	7.062866e-06	4.783722e-09	4.981358e+01	3.142626e+02
1.970000e-06	7.115073e-06	4.792415e-09	5.018179e+01	3.149096e+02
1.980000e-06	7.165729e-06	4.801071e-09	5.053907e+01	3.155279e+02
1.990000e-06	7.214771e-06	4.811021e-09	5.088495e+01	3.161144e+02
2.000000e-06	7.262386e-06	4.820819e-09	5.122077e+01	3.166670e+02
2.010000e-06	7.308753e-06	4.829085e-09	5.154780e+01	3.171854e+02
2.020000e-06	7.353912e-06	4.837849e-09	5.186630e+01	3.176703e+02
2.030000e-06	7.397891e-06	4.848655e-09	5.217647e+01	3.181241e+02
2.040000e-06	7.440524e-06	4.858039e-09	5.247716e+01	3.185502e+02
2.050000e-06	7.481600e-06	4.864828e-09	5.276686e+01	3.189530e+02
2.060000e-06	7.521349e-06	4.871338e-09	5.304721e+01	3.193372e+02
2.070000e-06	7.559907e-06	4.878890e-09	5.331916e+01	3.197077e+02
2.080000e-06	7.597229e-06	4.886861e-09	5.358239e+01	3.200689e+02
2.090000e-06	7.633397e-06	4.894785e-09	5.383747e+01	3.204247e+02
2.100000e-06	7.668300e-06	4.902486e-09	5.408364e+01	3.207778e+02
2.110000e-06	7.701704e-06	4.909171e-09	5.431923e+01	3.211296e+02
2.120000e-06	7.733715e-06	4.916899e-09	5.454500e+01	3.214802e+02
2.130000e-06	7.764556e-06	4.924631e-09	5.476252e+01	3.218284e+02
2.140000e-06	7.794142e-06	4.930424e-09	5.497118e+01	3.221719e+02
2.150000e-06	7.822463e-06	4.935557e-09	5.517093e+01	3.225073e+02
2.160000e-06	7.849434e-06	4.941627e-09	5.536116e+01	3.228305e+02
2.170000e-06	7.874708e-06	4.947956e-09	5.553941e+01	3.231375e+02
2.180000e-06	7.898479e-06	4.951797e-09	5.570707e+01	3.234240e+02
2.190000e-06	7.920963e-06	4.955120e-09	5.586564e+01	3.236865e+02
2.200000e-06	7.942160e-06	4.958706e-09	5.601514e+01	3.239222e+02
2.210000e-06	7.962214e-06	4.961033e-09	5.615658e+01	3.241293e+02
2.220000e-06	7.980989e-06	4.964332e-09	5.628900e+01	3.243071e+02
2.230000e-06	7.998182e-06	4.968493e-09	5.641026e+01	3.244563e+02
2.240000e-06	8.013857e-06	4.971546e-09	5.652081e+01	3.245785e+02
2.250000e-06	8.028094e-06	4.973912e-09	5.662122e+01	3.246765e+02
2.260000e-06	8.040844e-06	4.977464e-09	5.671115e+01	3.247533e+02
2.270000e-06	8.052010e-06	4.982015e-09	5.678990e+01	3.248127e+02
2.280000e-06	8.061377e-06	4.984964e-09	5.685596e+01	3.248581e+02
2.290000e-06	8.069193e-06	4.987051e-09	5.691109e+01	3.248927e+02
2.300000e-06	8.075663e-06	4.989502e-09	5.695672e+01	3.249189e+02
2.310000e-06	8.080771e-06	4.990585e-09	5.699275e+01	3.249384e+02
2.320000e-06	8.084654e-06	4.989604e-09	5.702013e+01	3.249515e+02
2.330000e-06	8.087022e-06	4.988567e-09	5.703683e+01	3.249577e+02
2.340000e-06	8.087683e-06	4.989092e-09	5.704150e+01	3.249553e+02
2.350000e-06	8.086984e-06	4.991207e-09	5.703657e+01	3.249419e+02
2.360000e-06	8.085060e-06	4.988338e-09	5.702300e+01	3.249144e+02
2.370000e-06	8.081892e-06	4.982445e-09	5.700065e+01	3.248697e+02
2.380000e-06	8.077499e-06	4.979306e-09	5.696967e+01	3.248047e+02
2.390000e-06	8.071577e-06	4.980161e-09	5.692790e+01	3.247169e+02
2.400000e-06	8.064090e-06	4.982432e-09	5.687510e+01	3.246046e+02
2.410000e-06	8.055426e-06	4.986060e-09	5.681399e+01	3.244675e+02
2.420000e-06	8.045580e-06	5.009801e-09	5.674455e+01	3.243065e+02
2.430000e-06	8.034459e-06	4.964510e-09	5.666611e+01	3.241238e+02
2.440000e-06	8.021638e-06	4.859458e-09	5.657569e+01	3.239233e+02
2.450000e-06	8.006537e-06	4.862573e-09	5.646918e+01	3.237095e+02
2.460000e-06	7.989357e-06	4.895502e-09	5.634802e+01	3.234882e+02
2.470000e-06	7.970781e-06	5.044972e-09	5.621700e+01	3.232652e+02
2.480000e-06	7.951482e-06	5.122163e-09	5.608089e+01	3.230465e+02
2.490000e-06	7.931551e-06	4.841587e-09	5.594031e+01	3.228374e+02
2.500000e-06	7.910022e-06	4.894361e-09	5.578848e+01	3.226419e+02
2.510000e-06	7.886701e-06	5.019132e-09	5.562399e+01	3.224627e+02
2.520000e-06	7.862397e-06	4.915877e-09	5.545258e+01	3.223005e+02
2.530000e-06	7.836880e-06	5.100152e-09	5.527261e+01	3.221540e+02
2.540000e-06	7.809764e-06	4.962405e-09	5.508136e+01	3.220197e+02
2.550000e-06	7.781501e-06	4.736952e-09	5.488203e+01	3.218920e+02
2.560000e-06	7.751985e-06	5.013328e-09	5.467386e+01	3.217634e+02
2.570000e-06	7.720857e-06	4.958794e-09	5.445431e+01	3.216253e+02
2.580000e-06	7.688223e-06	4.759361e-09	5.422415e+01	3.214678e+02
2.590000e-06	7.654253e-06	4.805492e-09	5.398456e+01	3.212812e+02
2.600000e-06	7.619186e-06	4.799821e-09	5.373724e+01	3.210557e+02
2.610000e-06	7.582880e-06	4.951048e-09	5.348118e+01	3.207828e+02
2.620000e-06	7.544971e-06	4.866318e-09	5.321381e+01	3.204555e+02
2.630000e-06	7.505473e-06	4.739355e-09	5.293524e+01	3.200688e+02
2.640000e-06	7.464640e-06	4.848922e-09	5.264725e+01	3.196202e+02
2.650000e-06	7.422525e-06	4.789547e-09	5.235022e+01	3.191098e+02
2.660000e-06	7.379137e-06	4.854459e-09	5.204420e+01	3.185399e+02
2.670000e-06	7.334621e-06	4.843201e-09	5.173024e+01	3.179156e+02
2.680000e-06	7.288668e-06	4.744072e-09	5.140613e+01	3.172436e+02
2.690000e-06	7.241208e-06	4.759148e-09	5.107140e+01	3.165324e+02
2.700000e-06	7.192627e-06	4.792099e-09	5.072877e+01	3.157911e+02
2.710000e-06	7.142633e-06	4.871578e-09	5.037617e+01	3.150291e+02
2.720000e-06	7.091028e-06	4.698487e-09	5.001221e+01	3.142553e+02
2.730000e-06	7.037956e-06	4.670268e-09	4.963789e+01	3.134773e+02
2.740000e-06	6.983433e-06	4.800753e-09	4.925335e+01	3.127013e+02
2.750000e-06	6.927602e-06	4.752848e-09	4.885958e+01	3.119312e+02
2.760000e-06	6.870481e-06	4.706823e-09	4.845671e+01	3.111685e+02
2.770000e-06	6.812217e-06	4.652109e-09	4.804578e+01	3.104124e+02
2.780000e-06	6.752888e-06	4.715560e-09	4.762735e+01	3.096597e+02
2.790000e-06	6.692435e-06	4.702540e-09	4.720097e+01	3.089052e+02
2.800000e-06	6.630759e-06	4.650025e-09	4.676598e+01	3.081423e+02
2.810000e-06	6.567699e-06	4.663765e-09	4.632122e+01	3.073632e+02
2.820000e-06	6.503415e-06	4.632602e-09	4.586784e+01	3.065598e+02
2.830000e-06	6.438048e-06	4.634082e-09	4.540681e+01	3.057243e+02
2.840000e-06	6.371661e-06	4.608530e-09	4.493859e+01	3.048498e+02
2.850000e-06	6.304227e-06	4.611428e-09	4.446299e+01	3.039307e+02
2.860000e-06	6.235674e-06	4.579133e-09	4.397949e+01	3.029634e+02
2.870000e-06	6.166002e-06	4.558428e-09	4.348810e+01	3.019462e+02
2.880000e-06	6.095135e-06	4.571472e-09	4.298828e+01	3.008795e+02
2.890000e-06	6.023132e-06	4.540330e-09	4.248045e+01	2.997658e+02
2.900000e-06	5.950105e-06	4.509646e-09	4.196540e+01	2.986092e+02
2.910000e-06	5.876164e-06	4.493419e-09	4.144391e+01	2.974150e+02
2.920000e-06	5.801225e-06	4.509774e-09	4.091537e+01	2.961894e+02
2.930000e-06	5.725092e-06	4.468582e-09	4.037841e+01	2.949385e+02
2.940000e-06	5.647746e-06	4.430394e-09	3.983290e+01	2.936681e+02
2.950000e-06	5.569163e-06	4.432806e-09	3.927867e+01	2.923826e+02
